9.931763e+01,0.000000e+00
1.002819e+02,0.000000e+00
1.012461e+02,0.000000e+00
1.022103e+02,0.000000e+00
1.031746e+02,0.000000e+00
1.041388e+02,0.000000e+00
1.051030e+02,0.000000e+00
1.060673e+02,0.000000e+00
1.070315e+02,0.000000e+00
1.079957e+02,0.000000e+00
1.089600e+02,0.000000e+00
1.099242e+02,0.000000e+00
1.108884e+02,0.000000e+00
1.118527e+02,0.000000e+00
1.128169e+02,0.000000e+00
1.137811e+02,0.000000e+00
1.147454e+02,0.000000e+00
1.157096e+02,0.000000e+00
1.166738e+02,0.000000e+00
1.176381e+02,0.000000e+00
1.186023e+02,0.000000e+00
1.195665e+02,0.000000e+00
1.205308e+02,0.000000e+00
1.214950e+02,0.000000e+00
1.224592e+02,0.000000e+00
1.234235e+02,0.000000e+00
1.243877e+02,0.000000e+00
1.253519e+02,0.000000e+00
1.263162e+02,0.000000e+00
1.272804e+02,0.000000e+00
1.282446e+02,0.000000e+00
1.292089e+02,0.000000e+00
1.301731e+02,0.000000e+00
1.311373e+02,0.000000e+00
1.321016e+02,0.000000e+00
1.330658e+02,0.000000e+00
1.340300e+02,0.000000e+00
1.349943e+02,0.000000e+00
1.359585e+02,0.000000e+00
1.369227e+02,0.000000e+00
1.378870e+02,0.000000e+00
1.388512e+02,0.000000e+00
1.398154e+02,0.000000e+00
1.407797e+02,0.000000e+00
1.417439e+02,0.000000e+00
1.427081e+02,0.000000e+00
1.436724e+02,0.000000e+00
1.446366e+02,0.000000e+00
1.456008e+02,0.000000e+00
1.465651e+02,0.000000e+00
1.475293e+02,0.000000e+00
1.484935e+02,0.000000e+00
1.494578e+02,0.000000e+00
1.504220e+02,0.000000e+00
1.513862e+02,0.000000e+00
1.523505e+02,0.000000e+00
1.533147e+02,0.000000e+00
1.542789e+02,0.000000e+00
1.552432e+02,0.000000e+00
1.562074e+02,0.000000e+00
1.571716e+02,0.000000e+00
1.581359e+02,0.000000e+00
1.591001e+02,0.000000e+00
1.600643e+02,0.000000e+00
1.610286e+02,0.000000e+00
1.619928e+02,0.000000e+00
1.629570e+02,0.000000e+00
1.639213e+02,0.000000e+00
1.648855e+02,0.000000e+00
1.658497e+02,0.000000e+00
1.668140e+02,0.000000e+00
1.677782e+02,0.000000e+00
1.687424e+02,0.000000e+00
1.697067e+02,0.000000e+00
1.706709e+02,0.000000e+00
1.716351e+02,0.000000e+00
1.725994e+02,0.000000e+00
1.735636e+02,0.000000e+00
1.745278e+02,0.000000e+00
1.754921e+02,0.000000e+00
1.764563e+02,0.000000e+00
1.774205e+02,0.000000e+00
1.783848e+02,0.000000e+00
1.793490e+02,0.000000e+00
1.803132e+02,0.000000e+00
1.812775e+02,0.000000e+00
1.822417e+02,0.000000e+00
1.832059e+02,0.000000e+00
1.841702e+02,0.000000e+00
1.851344e+02,0.000000e+00
1.860986e+02,0.000000e+00
1.870629e+02,0.000000e+00
1.880271e+02,0.000000e+00
1.889913e+02,0.000000e+00
1.899556e+02,0.000000e+00
1.909198e+02,0.000000e+00
1.918840e+02,0.000000e+00
1.928483e+02,0.000000e+00
1.938125e+02,0.000000e+00
1.947767e+02,0.000000e+00
1.957410e+02,0.000000e+00
1.967052e+02,0.000000e+00
1.976694e+02,0.000000e+00
1.986337e+02,0.000000e+00
1.995979e+02,4.148319e+03
2.005621e+02,4.147527e+03
2.015264e+02,4.150843e+03
2.024906e+02,4.166521e+03
2.034548e+02,4.179136e+03
2.044191e+02,4.183238e+03
2.053833e+02,4.178865e+03
2.063475e+02,4.170133e+03
2.073118e+02,4.160755e+03
2.082760e+02,4.150004e+03
2.092402e+02,4.141186e+03
2.102045e+02,4.136880e+03
2.111687e+02,4.135994e+03
2.121329e+02,4.137498e+03
2.130972e+02,4.140402e+03
2.140614e+02,4.143591e+03
2.150256e+02,4.146490e+03
2.159899e+02,4.151361e+03
2.169541e+02,4.153262e+03
2.179183e+02,4.148770e+03
2.188826e+02,4.139337e+03
2.198468e+02,4.131698e+03
2.208110e+02,4.133189e+03
2.217753e+02,4.142889e+03
2.227395e+02,4.145981e+03
2.237037e+02,4.138181e+03
2.246680e+02,4.126075e+03
2.256322e+02,4.114646e+03
2.265964e+02,4.105420e+03
2.275607e+02,4.099088e+03
2.285249e+02,4.096587e+03
2.294892e+02,4.098443e+03
2.304534e+02,4.102046e+03
2.314176e+02,4.103989e+03
2.323819e+02,4.103917e+03
2.333461e+02,4.103415e+03
2.343103e+02,4.103989e+03
2.352746e+02,4.105347e+03
2.362388e+02,4.105835e+03
2.372030e+02,4.103903e+03
2.381673e+02,4.099243e+03
2.391315e+02,4.094141e+03
2.400957e+02,4.091226e+03
2.410600e+02,4.088473e+03
2.420242e+02,4.084491e+03
2.429884e+02,4.081104e+03
2.439527e+02,4.082253e+03
2.449169e+02,4.090371e+03
2.458811e+02,4.105944e+03
2.468454e+02,4.114973e+03
2.478096e+02,4.115072e+03
2.487738e+02,4.110915e+03
2.497381e+02,4.103937e+03
2.507023e+02,4.094779e+03
2.516665e+02,4.086063e+03
2.526308e+02,4.081797e+03
2.535950e+02,4.087759e+03
2.545592e+02,4.087531e+03
2.555235e+02,4.077339e+03
2.564877e+02,4.062785e+03
2.574519e+02,4.050715e+03
2.584161e+02,4.045520e+03
2.593804e+02,4.047302e+03
2.603446e+02,4.051031e+03
2.613088e+02,4.057211e+03
2.622731e+02,4.062698e+03
2.632373e+02,4.067417e+03
2.642015e+02,4.070011e+03
2.651658e+02,4.068717e+03
2.661300e+02,4.061134e+03
2.670942e+02,4.046735e+03
2.680585e+02,4.036629e+03
2.690227e+02,4.038200e+03
2.699869e+02,4.041898e+03
2.709512e+02,4.040039e+03
2.719154e+02,4.029022e+03
2.728796e+02,4.016209e+03
2.738439e+02,4.012224e+03
2.748081e+02,4.019790e+03
2.757723e+02,4.031355e+03
2.767366e+02,4.040293e+03
2.777008e+02,4.045404e+03
2.786650e+02,4.047844e+03
2.796293e+02,4.049235e+03
2.805935e+02,4.049723e+03
2.815577e+02,4.048233e+03
2.825220e+02,4.043832e+03
2.834862e+02,4.037037e+03
2.844504e+02,4.029106e+03
2.854147e+02,4.017333e+03
2.863789e+02,4.009968e+03
2.873431e+02,4.015021e+03
2.883074e+02,4.028008e+03
2.892716e+02,4.037487e+03
2.902358e+02,4.035602e+03
2.912001e+02,4.021767e+03
2.921643e+02,4.010733e+03
2.931285e+02,4.002603e+03
2.940928e+02,3.998186e+03
2.950570e+02,3.999738e+03
2.960212e+02,4.005454e+03
2.969855e+02,4.009968e+03
2.979497e+02,4.006454e+03
2.989139e+02,3.989300e+03
2.998782e+02,3.980561e+03
3.008424e+02,3.989421e+03
3.018066e+02,4.004017e+03
3.027709e+02,4.015270e+03
3.037351e+02,4.019669e+03
3.046993e+02,4.017379e+03
3.056636e+02,4.007496e+03
3.066278e+02,3.985973e+03
3.075920e+02,3.968425e+03
3.085563e+02,3.963962e+03
3.095205e+02,3.969310e+03
3.104847e+02,3.975686e+03
3.114490e+02,3.977741e+03
3.124132e+02,3.976955e+03
3.133774e+02,3.977721e+03
3.143417e+02,3.980926e+03
3.153059e+02,3.983630e+03
3.162701e+02,3.983577e+03
3.172344e+02,3.981788e+03
3.181986e+02,3.979159e+03
3.191628e+02,3.974540e+03
3.201271e+02,3.969591e+03
3.210913e+02,3.967679e+03
3.220555e+02,3.970661e+03
3.230198e+02,3.977087e+03
3.239840e+02,3.978933e+03
3.249482e+02,3.969653e+03
3.259125e+02,3.962051e+03
3.268767e+02,3.962470e+03
3.278409e+02,3.968777e+03
3.288052e+02,3.974176e+03
3.297694e+02,3.971716e+03
3.307336e+02,3.959262e+03
3.316979e+02,3.950055e+03
3.326621e+02,3.945514e+03
3.336263e+02,3.942571e+03
3.345906e+02,3.940983e+03
3.355548e+02,3.941931e+03
3.365190e+02,3.944312e+03
3.374833e+02,3.945984e+03
3.384475e+02,3.946455e+03
3.394117e+02,3.947523e+03
3.403760e+02,3.948888e+03
3.413402e+02,3.950154e+03
3.423044e+02,3.951084e+03
3.432687e+02,3.951321e+03
3.442329e+02,3.951031e+03
3.451971e+02,3.949526e+03
3.461614e+02,3.945767e+03
3.471256e+02,3.940005e+03
3.480898e+02,3.933768e+03
3.490541e+02,3.928139e+03
3.500183e+02,3.923139e+03
3.509825e+02,3.918495e+03
3.519468e+02,3.916454e+03
3.529110e+02,3.919431e+03
3.538752e+02,3.927120e+03
3.548395e+02,3.935092e+03
3.558037e+02,3.936120e+03
3.567680e+02,3.923872e+03
3.577322e+02,3.915282e+03
3.586964e+02,3.916002e+03
3.596607e+02,3.921464e+03
3.606249e+02,3.925508e+03
3.615891e+02,3.923479e+03
3.625534e+02,3.916048e+03
3.635176e+02,3.907114e+03
3.644818e+02,3.896978e+03
3.654461e+02,3.888700e+03
3.664103e+02,3.886851e+03
3.673745e+02,3.892001e+03
3.683388e+02,3.898156e+03
3.693030e+02,3.900233e+03
3.702672e+02,3.900235e+03
3.712315e+02,3.902981e+03
3.721957e+02,3.909628e+03
3.731599e+02,3.916093e+03
3.741242e+02,3.917422e+03
3.750884e+02,3.912839e+03
3.760526e+02,3.908283e+03
3.770169e+02,3.901478e+03
3.779811e+02,3.894633e+03
3.789453e+02,3.891052e+03
3.799096e+02,3.892648e+03
3.808738e+02,3.896856e+03
3.818380e+02,3.894935e+03
3.828023e+02,3.884581e+03
3.837665e+02,3.874366e+03
3.847307e+02,3.864960e+03
3.856950e+02,3.856856e+03
3.866592e+02,3.851047e+03
3.876234e+02,3.849066e+03
3.885877e+02,3.849563e+03
3.895519e+02,3.848719e+03
3.905161e+02,3.845446e+03
3.914804e+02,3.841027e+03
3.924446e+02,3.837507e+03
3.934088e+02,3.836128e+03
3.943731e+02,3.834406e+03
3.953373e+02,3.831987e+03
3.963015e+02,3.828460e+03
3.972658e+02,3.822064e+03
3.982300e+02,3.812090e+03
3.991942e+02,3.802719e+03
4.001585e+02,3.802673e+03
4.011227e+02,3.822277e+03
4.020869e+02,3.836955e+03
4.030512e+02,3.840365e+03
4.040154e+02,3.835801e+03
4.049796e+02,3.829477e+03
4.059439e+02,3.824142e+03
4.069081e+02,3.819741e+03
4.078723e+02,3.816598e+03
4.088366e+02,3.814095e+03
4.098008e+02,3.811101e+03
4.107650e+02,3.809236e+03
4.117293e+02,3.808809e+03
4.126935e+02,3.808161e+03
4.136577e+02,3.807978e+03
4.146220e+02,3.806775e+03
4.155862e+02,3.801039e+03
4.165504e+02,3.789589e+03
4.175147e+02,3.777402e+03
4.184789e+02,3.772201e+03
4.194431e+02,3.782965e+03
4.204074e+02,3.789878e+03
4.213716e+02,3.790559e+03
4.223358e+02,3.787963e+03
4.233001e+02,3.785214e+03
4.242643e+02,3.784038e+03
4.252285e+02,3.783803e+03
4.261928e+02,3.782207e+03
4.271570e+02,3.778609e+03
4.281212e+02,3.776010e+03
4.290855e+02,3.775291e+03
4.300497e+02,3.775645e+03
4.310139e+02,3.776115e+03
4.319782e+02,3.777997e+03
4.329424e+02,3.780068e+03
4.339066e+02,3.780164e+03
4.348709e+02,3.777640e+03
4.358351e+02,3.773518e+03
4.367993e+02,3.768948e+03
4.377636e+02,3.764244e+03
4.387278e+02,3.758823e+03
4.396920e+02,3.751577e+03
4.406563e+02,3.745302e+03
4.416205e+02,3.741865e+03
4.425847e+02,3.741507e+03
4.435490e+02,3.742372e+03
4.445132e+02,3.742390e+03
4.454774e+02,3.741888e+03
4.464417e+02,3.741780e+03
4.474059e+02,3.741499e+03
4.483701e+02,3.740786e+03
4.493344e+02,3.740023e+03
4.502986e+02,3.739186e+03
4.512628e+02,3.739857e+03
4.522271e+02,3.745172e+03
4.531913e+02,3.753745e+03
4.541555e+02,3.759085e+03
4.551198e+02,3.756544e+03
4.560840e+02,3.746278e+03
4.570482e+02,3.737447e+03
4.580125e+02,3.733728e+03
4.589767e+02,3.731127e+03
4.599409e+02,3.726192e+03
4.609052e+02,3.718592e+03
4.618694e+02,3.711165e+03
4.628336e+02,3.707782e+03
4.637979e+02,3.708114e+03
4.647621e+02,3.705860e+03
4.657263e+02,3.699402e+03
4.666906e+02,3.694343e+03
4.676548e+02,3.695777e+03
4.686190e+02,3.705636e+03
4.695833e+02,3.712293e+03
4.705475e+02,3.710968e+03
4.715117e+02,3.703991e+03
4.724760e+02,3.693823e+03
4.734402e+02,3.681128e+03
4.744044e+02,3.668614e+03
4.753687e+02,3.662564e+03
4.763329e+02,3.668380e+03
4.772971e+02,3.672727e+03
4.782614e+02,3.672140e+03
4.792256e+02,3.669774e+03
4.801898e+02,3.669376e+03
4.811541e+02,3.673370e+03
4.821183e+02,3.678434e+03
4.830826e+02,3.679755e+03
4.840468e+02,3.676854e+03
4.850110e+02,3.672643e+03
4.859753e+02,3.669452e+03
4.869395e+02,3.667149e+03
4.879037e+02,3.663362e+03
4.888680e+02,3.658234e+03
4.898322e+02,3.652374e+03
4.907964e+02,3.644969e+03
4.917607e+02,3.636924e+03
4.927249e+02,3.631012e+03
4.936891e+02,3.629884e+03
4.946534e+02,3.633616e+03
4.956176e+02,3.639516e+03
4.965818e+02,3.651336e+03
4.975461e+02,3.661893e+03
4.985103e+02,3.665000e+03
4.994745e+02,3.658770e+03
5.004388e+02,3.649108e+03
5.014030e+02,3.636610e+03
5.023672e+02,3.623880e+03
5.033315e+02,3.614825e+03
5.042957e+02,3.610567e+03
5.052599e+02,3.609185e+03
5.062242e+02,3.607565e+03
5.071884e+02,3.605573e+03
5.081526e+02,3.605159e+03
5.091169e+02,3.609042e+03
5.100811e+02,3.614614e+03
5.110453e+02,3.617911e+03
5.120095e+02,3.616476e+03
5.129738e+02,3.614191e+03
5.139380e+02,3.616129e+03
5.149022e+02,3.622349e+03
5.158665e+02,3.629409e+03
5.168307e+02,3.635257e+03
5.177949e+02,3.637949e+03
5.187592e+02,3.633785e+03
5.197234e+02,3.621788e+03
5.206876e+02,3.610336e+03
5.216519e+02,3.603175e+03
5.226161e+02,3.599791e+03
5.235803e+02,3.597173e+03
5.245446e+02,3.592478e+03
5.255088e+02,3.586121e+03
5.264730e+02,3.581384e+03
5.274373e+02,3.578793e+03
5.284015e+02,3.576915e+03
5.293657e+02,3.574119e+03
5.303300e+02,3.570652e+03
5.312942e+02,3.566011e+03
5.322584e+02,3.560364e+03
5.332227e+02,3.555841e+03
5.341869e+02,3.553389e+03
5.351511e+02,3.552587e+03
5.361154e+02,3.552872e+03
5.370796e+02,3.554886e+03
5.380438e+02,3.560127e+03
5.390081e+02,3.563089e+03
5.399723e+02,3.561825e+03
5.409365e+02,3.559308e+03
5.419008e+02,3.557294e+03
5.428650e+02,3.554939e+03
5.438292e+02,3.552448e+03
5.447935e+02,3.550723e+03
5.457577e+02,3.549132e+03
5.467219e+02,3.546115e+03
5.476862e+02,3.540917e+03
5.486504e+02,3.534458e+03
5.496146e+02,3.529932e+03
5.505789e+02,3.529016e+03
5.515431e+02,3.527079e+03
5.525073e+02,3.524239e+03
5.534716e+02,3.521934e+03
5.544358e+02,3.520388e+03
5.554000e+02,3.518253e+03
5.563643e+02,3.515727e+03
5.573285e+02,3.511420e+03
5.582927e+02,3.505655e+03
5.592570e+02,3.503788e+03
5.602212e+02,3.510755e+03
5.611854e+02,3.526139e+03
5.621497e+02,3.536378e+03
5.631139e+02,3.540144e+03
5.640781e+02,3.537708e+03
5.650424e+02,3.526720e+03
5.660066e+02,3.509949e+03
5.669708e+02,3.495344e+03
5.679351e+02,3.488822e+03
5.688993e+02,3.487663e+03
5.698635e+02,3.487231e+03
5.708278e+02,3.487583e+03
5.717920e+02,3.488657e+03
5.727562e+02,3.489354e+03
5.737205e+02,3.488026e+03
5.746847e+02,3.489015e+03
5.756489e+02,3.496609e+03
5.766132e+02,3.502035e+03
5.775774e+02,3.500083e+03
5.785416e+02,3.490449e+03
5.795059e+02,3.478567e+03
5.804701e+02,3.466532e+03
5.814343e+02,3.455355e+03
5.823986e+02,3.449145e+03
5.833628e+02,3.449685e+03
5.843270e+02,3.452969e+03
5.852913e+02,3.453110e+03
5.862555e+02,3.444445e+03
5.872197e+02,3.441392e+03
5.881840e+02,3.448363e+03
5.891482e+02,3.457491e+03
5.901124e+02,3.462552e+03
5.910767e+02,3.461568e+03
5.920409e+02,3.457838e+03
5.930051e+02,3.453210e+03
5.939694e+02,3.447733e+03
5.949336e+02,3.443449e+03
5.958978e+02,3.441268e+03
5.968621e+02,3.440419e+03
5.978263e+02,3.439372e+03
5.987905e+02,3.441381e+03
5.997548e+02,3.440222e+03
6.007190e+02,3.430330e+03
6.016832e+02,3.419496e+03
6.026475e+02,3.416816e+03
6.036117e+02,3.428112e+03
6.045759e+02,3.442862e+03
6.055402e+02,3.449448e+03
6.065044e+02,3.447843e+03
6.074686e+02,3.441309e+03
6.084329e+02,3.430858e+03
6.093971e+02,3.417974e+03
6.103613e+02,3.408296e+03
6.113256e+02,3.403612e+03
6.122899e+02,3.400821e+03
6.132541e+02,3.400959e+03
6.142183e+02,3.402317e+03
6.151826e+02,3.402340e+03
6.161468e+02,3.399867e+03
6.171110e+02,3.396969e+03
6.180753e+02,3.395524e+03
6.190395e+02,3.395088e+03
6.200037e+02,3.394351e+03
6.209680e+02,3.392270e+03
6.219322e+02,3.389407e+03
6.228964e+02,3.387875e+03
6.238607e+02,3.389684e+03
6.248249e+02,3.390084e+03
6.257891e+02,3.385189e+03
6.267534e+02,3.375998e+03
6.277176e+02,3.368020e+03
6.286818e+02,3.364441e+03
6.296461e+02,3.364535e+03
6.306103e+02,3.370033e+03
6.315745e+02,3.380018e+03
6.325388e+02,3.386272e+03
6.335030e+02,3.380234e+03
6.344672e+02,3.360727e+03
6.354315e+02,3.349097e+03
6.363957e+02,3.349397e+03
6.373599e+02,3.351605e+03
6.383242e+02,3.352827e+03
6.392884e+02,3.353299e+03
6.402526e+02,3.351279e+03
6.412169e+02,3.343141e+03
6.421811e+02,3.333929e+03
6.431453e+02,3.328394e+03
6.441096e+02,3.326660e+03
6.450738e+02,3.326517e+03
6.460380e+02,3.326832e+03
6.470023e+02,3.328330e+03
6.479665e+02,3.330231e+03
6.489307e+02,3.332500e+03
6.498950e+02,3.333323e+03
6.508592e+02,3.329344e+03
6.518234e+02,3.319355e+03
6.527877e+02,3.313075e+03
6.537519e+02,3.316479e+03
6.547161e+02,3.321444e+03
6.556804e+02,3.322144e+03
6.566446e+02,3.318169e+03
6.576088e+02,3.312240e+03
6.585731e+02,3.305267e+03
6.595373e+02,3.297856e+03
6.605015e+02,3.294519e+03
6.614658e+02,3.297005e+03
6.624300e+02,3.300062e+03
6.633942e+02,3.297930e+03
6.643585e+02,3.286043e+03
6.653227e+02,3.280384e+03
6.662869e+02,3.285620e+03
6.672512e+02,3.292391e+03
6.682154e+02,3.295208e+03
6.691796e+02,3.292856e+03
6.701439e+02,3.288262e+03
6.711081e+02,3.281881e+03
6.720723e+02,3.275161e+03
6.730366e+02,3.272349e+03
6.740008e+02,3.274728e+03
6.749650e+02,3.277771e+03
6.759293e+02,3.275593e+03
6.768935e+02,3.265883e+03
6.778577e+02,3.259183e+03
6.788220e+02,3.258154e+03
6.797862e+02,3.260101e+03
6.807504e+02,3.262822e+03
6.817147e+02,3.265882e+03
6.826789e+02,3.265989e+03
6.836431e+02,3.258004e+03
6.846074e+02,3.247042e+03
6.855716e+02,3.240161e+03
6.865358e+02,3.239114e+03
6.875001e+02,3.239715e+03
6.884643e+02,3.235882e+03
6.894285e+02,3.227816e+03
6.903928e+02,3.224252e+03
6.913570e+02,3.227506e+03
6.923212e+02,3.232434e+03
6.932855e+02,3.233919e+03
6.942497e+02,3.231251e+03
6.952139e+02,3.229261e+03
6.961782e+02,3.225509e+03
6.971424e+02,3.223325e+03
6.981066e+02,3.225465e+03
6.990709e+02,3.231228e+03
7.000351e+02,3.235443e+03
7.009993e+02,3.236251e+03
7.019636e+02,3.234915e+03
7.029278e+02,3.231796e+03
7.038920e+02,3.226607e+03
7.048563e+02,3.220079e+03
7.058205e+02,3.213823e+03
7.067847e+02,3.208969e+03
7.077490e+02,3.205117e+03
7.087132e+02,3.204658e+03
7.096774e+02,3.206048e+03
7.106417e+02,3.205497e+03
7.116059e+02,3.202076e+03
7.125701e+02,3.197531e+03
7.135344e+02,3.190183e+03
7.144986e+02,3.184315e+03
7.154628e+02,3.184903e+03
7.164271e+02,3.191876e+03
7.173913e+02,3.198202e+03
7.183555e+02,3.195088e+03
7.193198e+02,3.184653e+03
7.202840e+02,3.179223e+03
7.212482e+02,3.181797e+03
7.222125e+02,3.185916e+03
7.231767e+02,3.184155e+03
7.241409e+02,3.173125e+03
7.251052e+02,3.163019e+03
7.260694e+02,3.151249e+03
7.270336e+02,3.142106e+03
7.279979e+02,3.140204e+03
7.289621e+02,3.146025e+03
7.299263e+02,3.150578e+03
7.308906e+02,3.146811e+03
7.318548e+02,3.141017e+03
7.328190e+02,3.142345e+03
7.337833e+02,3.150977e+03
7.347475e+02,3.158073e+03
7.357117e+02,3.153374e+03
7.366760e+02,3.138827e+03
7.376402e+02,3.130152e+03
7.386044e+02,3.129269e+03
7.395687e+02,3.131285e+03
7.405329e+02,3.131935e+03
7.414971e+02,3.130951e+03
7.424614e+02,3.128766e+03
7.434256e+02,3.128073e+03
7.443898e+02,3.127124e+03
7.453541e+02,3.121075e+03
7.463183e+02,3.109476e+03
7.472825e+02,3.102284e+03
7.482468e+02,3.110606e+03
7.492110e+02,3.122253e+03
7.501752e+02,3.125007e+03
7.511395e+02,3.120069e+03
7.521037e+02,3.113814e+03
7.530679e+02,3.110098e+03
7.540322e+02,3.107767e+03
7.549964e+02,3.104031e+03
7.559606e+02,3.099019e+03
7.569249e+02,3.094677e+03
7.578891e+02,3.092266e+03
7.588533e+02,3.092169e+03
7.598176e+02,3.093397e+03
7.607818e+02,3.095381e+03
7.617460e+02,3.094181e+03
7.627103e+02,3.087480e+03
7.636745e+02,3.078441e+03
7.646387e+02,3.073227e+03
7.656030e+02,3.078170e+03
7.665672e+02,3.084620e+03
7.675314e+02,3.082744e+03
7.684957e+02,3.072925e+03
7.694599e+02,3.062469e+03
7.704241e+02,3.057994e+03
7.713884e+02,3.058444e+03
7.723526e+02,3.057664e+03
7.733168e+02,3.056073e+03
7.742811e+02,3.056190e+03
7.752453e+02,3.057391e+03
7.762095e+02,3.058828e+03
7.771738e+02,3.061851e+03
7.781380e+02,3.070274e+03
7.791022e+02,3.072915e+03
7.800665e+02,3.064837e+03
7.810307e+02,3.051718e+03
7.819949e+02,3.042438e+03
7.829592e+02,3.044065e+03
7.839234e+02,3.046900e+03
7.848876e+02,3.044926e+03
7.858519e+02,3.040207e+03
7.868161e+02,3.036783e+03
7.877803e+02,3.036702e+03
7.887446e+02,3.037376e+03
7.897088e+02,3.035780e+03
7.906730e+02,3.033224e+03
7.916373e+02,3.031348e+03
7.926015e+02,3.028896e+03
7.935657e+02,3.025161e+03
7.945300e+02,3.023228e+03
7.954942e+02,3.026925e+03
7.964584e+02,3.025807e+03
7.974227e+02,3.019442e+03
7.983869e+02,3.011662e+03
7.993511e+02,3.003095e+03
8.003154e+02,2.988276e+03
8.012796e+02,2.977276e+03
8.022438e+02,2.976563e+03
8.032081e+02,2.979902e+03
8.041723e+02,2.981623e+03
8.051365e+02,2.979955e+03
8.061008e+02,2.977523e+03
8.070650e+02,2.974978e+03
8.080292e+02,2.972260e+03
8.089935e+02,2.971287e+03
8.099577e+02,2.973052e+03
8.109219e+02,2.975302e+03
8.118862e+02,2.974926e+03
8.128504e+02,2.971999e+03
8.138146e+02,2.969249e+03
8.147789e+02,2.966065e+03
8.157431e+02,2.963461e+03
8.167073e+02,2.963661e+03
8.176716e+02,2.969471e+03
8.186358e+02,2.971238e+03
8.196000e+02,2.964240e+03
8.205643e+02,2.957117e+03
8.215285e+02,2.951019e+03
8.224927e+02,2.946158e+03
8.234570e+02,2.944515e+03
8.244212e+02,2.949613e+03
8.253854e+02,2.955658e+03
8.263497e+02,2.959703e+03
8.273139e+02,2.960479e+03
8.282781e+02,2.957495e+03
8.292424e+02,2.950090e+03
8.302066e+02,2.941574e+03
8.311708e+02,2.934422e+03
8.321351e+02,2.928926e+03
8.330993e+02,2.927250e+03
8.340635e+02,2.930777e+03
8.350278e+02,2.936995e+03
8.359920e+02,2.939081e+03
8.369562e+02,2.936550e+03
8.379205e+02,2.932837e+03
8.388847e+02,2.928338e+03
8.398489e+02,2.923915e+03
8.408132e+02,2.921327e+03
8.417774e+02,2.922629e+03
8.427416e+02,2.921821e+03
8.437059e+02,2.916842e+03
8.446701e+02,2.910388e+03
8.456343e+02,2.905578e+03
8.465986e+02,2.903359e+03
8.475628e+02,2.900963e+03
8.485270e+02,2.897453e+03
8.494913e+02,2.893222e+03
8.504555e+02,2.888196e+03
8.514197e+02,2.882617e+03
8.523840e+02,2.879895e+03
8.533482e+02,2.886218e+03
8.543124e+02,2.895537e+03
8.552767e+02,2.895344e+03
8.562409e+02,2.884019e+03
8.572051e+02,2.870962e+03
8.581694e+02,2.866896e+03
8.591336e+02,2.871442e+03
8.600978e+02,2.875925e+03
8.610621e+02,2.880963e+03
8.620263e+02,2.884598e+03
8.629905e+02,2.884382e+03
8.639548e+02,2.879103e+03
8.649190e+02,2.872530e+03
8.658832e+02,2.864184e+03
8.668475e+02,2.857979e+03
8.678117e+02,2.855824e+03
8.687759e+02,2.856947e+03
8.697402e+02,2.859514e+03
8.707044e+02,2.864682e+03
8.716686e+02,2.866860e+03
8.726329e+02,2.864296e+03
8.735971e+02,2.859548e+03
8.745613e+02,2.856282e+03
8.755256e+02,2.860510e+03
8.764898e+02,2.863093e+03
8.774540e+02,2.853473e+03
8.784183e+02,2.837721e+03
8.793825e+02,2.827142e+03
8.803467e+02,2.826461e+03
8.813110e+02,2.829679e+03
8.822752e+02,2.829320e+03
8.832394e+02,2.827429e+03
8.842037e+02,2.830308e+03
8.851679e+02,2.839150e+03
8.861321e+02,2.848098e+03
8.870964e+02,2.849586e+03
8.880606e+02,2.843112e+03
8.890248e+02,2.834250e+03
8.899891e+02,2.823544e+03
8.909533e+02,2.814205e+03
8.919175e+02,2.808960e+03
8.928818e+02,2.808940e+03
8.938460e+02,2.807383e+03
8.948102e+02,2.800788e+03
8.957745e+02,2.795025e+03
8.967387e+02,2.794214e+03
8.977029e+02,2.797499e+03
8.986672e+02,2.800451e+03
8.996314e+02,2.808319e+03
9.005956e+02,2.813318e+03
9.015599e+02,2.808116e+03
9.025241e+02,2.796433e+03
9.034883e+02,2.789108e+03
9.044526e+02,2.795922e+03
9.054168e+02,2.801324e+03
9.063810e+02,2.794817e+03
9.073453e+02,2.783344e+03
9.083095e+02,2.777499e+03
9.092737e+02,2.782527e+03
9.102380e+02,2.789033e+03
9.112022e+02,2.785782e+03
9.121664e+02,2.776038e+03
9.131307e+02,2.768274e+03
9.140949e+02,2.765789e+03
9.150591e+02,2.768053e+03
9.160234e+02,2.775112e+03
9.169876e+02,2.784324e+03
9.179518e+02,2.784696e+03
9.189161e+02,2.773966e+03
9.198803e+02,2.759234e+03
9.208445e+02,2.747964e+03
9.218088e+02,2.740988e+03
9.227730e+02,2.739037e+03
9.237372e+02,2.743686e+03
9.247015e+02,2.748125e+03
9.256657e+02,2.747832e+03
9.266299e+02,2.742400e+03
9.275942e+02,2.738010e+03
9.285584e+02,2.733829e+03
9.295226e+02,2.730508e+03
9.304869e+02,2.729804e+03
9.314511e+02,2.731029e+03
9.324153e+02,2.730537e+03
9.333796e+02,2.724607e+03
9.343438e+02,2.720692e+03
9.353080e+02,2.722251e+03
9.362723e+02,2.725217e+03
9.372365e+02,2.724946e+03
9.382007e+02,2.720146e+03
9.391650e+02,2.716108e+03
9.401292e+02,2.716432e+03
9.410934e+02,2.717819e+03
9.420577e+02,2.714801e+03
9.430219e+02,2.705423e+03
9.439861e+02,2.697148e+03
9.449504e+02,2.698313e+03
9.459146e+02,2.705015e+03
9.468788e+02,2.710991e+03
9.478431e+02,2.713642e+03
9.488073e+02,2.711868e+03
9.497715e+02,2.704101e+03
9.507358e+02,2.693478e+03
9.517000e+02,2.686177e+03
9.526642e+02,2.683035e+03
9.536285e+02,2.682304e+03
9.545927e+02,2.682963e+03
9.555569e+02,2.684216e+03
9.565212e+02,2.683740e+03
9.574854e+02,2.682433e+03
9.584496e+02,2.680804e+03
9.594139e+02,2.677450e+03
9.603781e+02,2.673025e+03
9.613423e+02,2.671550e+03
9.623066e+02,2.673938e+03
9.632708e+02,2.675893e+03
9.642350e+02,2.677833e+03
9.651993e+02,2.678828e+03
9.661635e+02,2.676463e+03
9.671277e+02,2.668663e+03
9.680920e+02,2.659956e+03
9.690562e+02,2.648123e+03
9.700204e+02,2.637445e+03
9.709847e+02,2.632883e+03
9.719489e+02,2.637101e+03
9.729131e+02,2.637833e+03
9.738774e+02,2.632002e+03
9.748416e+02,2.627151e+03
9.758058e+02,2.625301e+03
9.767701e+02,2.625475e+03
9.777343e+02,2.626340e+03
9.786985e+02,2.629039e+03
9.796628e+02,2.630272e+03
9.806270e+02,2.629548e+03
9.815912e+02,2.626813e+03
9.825555e+02,2.622029e+03
9.835197e+02,2.613205e+03
9.844839e+02,2.607478e+03
9.854482e+02,2.610779e+03
9.864124e+02,2.617726e+03
9.873766e+02,2.621454e+03
9.883409e+02,2.620254e+03
9.893051e+02,2.618226e+03
9.902693e+02,2.616885e+03
9.912336e+02,2.616822e+03
9.921978e+02,2.617844e+03
9.931620e+02,2.619174e+03
9.941263e+02,2.620676e+03
9.950905e+02,2.624844e+03
9.960547e+02,2.628215e+03
9.970190e+02,2.625552e+03
9.979832e+02,2.617504e+03
9.989474e+02,2.607899e+03
9.999117e+02,2.598859e+03
1.000876e+03,2.591683e+03
1.001840e+03,2.589169e+03
1.002804e+03,2.590559e+03
1.003769e+03,2.590978e+03
1.004733e+03,2.587705e+03
1.005697e+03,2.583114e+03
1.006661e+03,2.581471e+03
1.007626e+03,2.582286e+03
1.008590e+03,2.582794e+03
1.009554e+03,2.581976e+03
1.010518e+03,2.578852e+03
1.011482e+03,2.571414e+03
1.012447e+03,2.560576e+03
1.013411e+03,2.554573e+03
1.014375e+03,2.555159e+03
1.015339e+03,2.558428e+03
1.016304e+03,2.561277e+03
1.017268e+03,2.563468e+03
1.018232e+03,2.565697e+03
1.019196e+03,2.568018e+03
1.020161e+03,2.566842e+03
1.021125e+03,2.560563e+03
1.022089e+03,2.551799e+03
1.023053e+03,2.544947e+03
1.024018e+03,2.538742e+03
1.024982e+03,2.536149e+03
1.025946e+03,2.537853e+03
1.026910e+03,2.541313e+03
1.027875e+03,2.545579e+03
1.028839e+03,2.553716e+03
1.029803e+03,2.555836e+03
1.030767e+03,2.548829e+03
1.031731e+03,2.541553e+03
1.032696e+03,2.540739e+03
1.033660e+03,2.546656e+03
1.034624e+03,2.545794e+03
1.035588e+03,2.534688e+03
1.036552e+03,2.524618e+03
1.037517e+03,2.518830e+03
1.038481e+03,2.516264e+03
1.039445e+03,2.515918e+03
1.040409e+03,2.521110e+03
1.041374e+03,2.523096e+03
1.042338e+03,2.518719e+03
1.043302e+03,2.512635e+03
1.044266e+03,2.510548e+03
1.045231e+03,2.517268e+03
1.046195e+03,2.518524e+03
1.047159e+03,2.510289e+03
1.048123e+03,2.501057e+03
1.049088e+03,2.496108e+03
1.050052e+03,2.496503e+03
1.051016e+03,2.499178e+03
1.051980e+03,2.506668e+03
1.052945e+03,2.513212e+03
1.053909e+03,2.515083e+03
1.054873e+03,2.512310e+03
1.055837e+03,2.509518e+03
1.056802e+03,2.509153e+03
1.057766e+03,2.507874e+03
1.058730e+03,2.504964e+03
1.059694e+03,2.501444e+03
1.060658e+03,2.498240e+03
1.061623e+03,2.497315e+03
1.062587e+03,2.494469e+03
1.063551e+03,2.484410e+03
1.064515e+03,2.476273e+03
1.065479e+03,2.479026e+03
1.066444e+03,2.494835e+03
1.067408e+03,2.501263e+03
1.068372e+03,2.483556e+03
1.069336e+03,2.467231e+03
1.070301e+03,2.463510e+03
1.071265e+03,2.469001e+03
1.072229e+03,2.473742e+03
1.073193e+03,2.477651e+03
1.074158e+03,2.478575e+03
1.075122e+03,2.474569e+03
1.076086e+03,2.468040e+03
1.077050e+03,2.461950e+03
1.078015e+03,2.456809e+03
1.078979e+03,2.455956e+03
1.079943e+03,2.464564e+03
1.080907e+03,2.473371e+03
1.081872e+03,2.473273e+03
1.082836e+03,2.462934e+03
1.083800e+03,2.457194e+03
1.084764e+03,2.464245e+03
1.085729e+03,2.472681e+03
1.086693e+03,2.477065e+03
1.087657e+03,2.478286e+03
1.088621e+03,2.479878e+03
1.089585e+03,2.482858e+03
1.090550e+03,2.484731e+03
1.091514e+03,2.487550e+03
1.092478e+03,2.489556e+03
1.093442e+03,2.487807e+03
1.094406e+03,2.480328e+03
1.095371e+03,2.474754e+03
1.096335e+03,2.474188e+03
1.097299e+03,2.473672e+03
1.098263e+03,2.469154e+03
1.099228e+03,2.460526e+03
1.100192e+03,2.454295e+03
1.101156e+03,2.454983e+03
1.102120e+03,2.454159e+03
1.103085e+03,2.447895e+03
1.104049e+03,2.438324e+03
1.105013e+03,2.429871e+03
1.105977e+03,2.421666e+03
1.106942e+03,2.417013e+03
1.107906e+03,2.420148e+03
1.108870e+03,2.424946e+03
1.109834e+03,2.425122e+03
1.110799e+03,2.418379e+03
1.111763e+03,2.414733e+03
1.112727e+03,2.419047e+03
1.113691e+03,2.423842e+03
1.114656e+03,2.424220e+03
1.115620e+03,2.420895e+03
1.116584e+03,2.419958e+03
1.117548e+03,2.423049e+03
1.118512e+03,2.425046e+03
1.119477e+03,2.425102e+03
1.120441e+03,2.423542e+03
1.121405e+03,2.421206e+03
1.122369e+03,2.419483e+03
1.123334e+03,2.415094e+03
1.124298e+03,2.406913e+03
1.125262e+03,2.397868e+03
1.126226e+03,2.389664e+03
1.127191e+03,2.382320e+03
1.128155e+03,2.377174e+03
1.129119e+03,2.373837e+03
1.130083e+03,2.372125e+03
1.131047e+03,2.372584e+03
1.132012e+03,2.373881e+03
1.132976e+03,2.373308e+03
1.133940e+03,2.369610e+03
1.134904e+03,2.366433e+03
1.135869e+03,2.365927e+03
1.136833e+03,2.365794e+03
1.137797e+03,2.362902e+03
1.138761e+03,2.356502e+03
1.139726e+03,2.353339e+03
1.140690e+03,2.354072e+03
1.141654e+03,2.355822e+03
1.142618e+03,2.357390e+03
1.143583e+03,2.358583e+03
1.144547e+03,2.355350e+03
1.145511e+03,2.345104e+03
1.146475e+03,2.340945e+03
1.147439e+03,2.348972e+03
1.148404e+03,2.361306e+03
1.149368e+03,2.361029e+03
1.150332e+03,2.345858e+03
1.151296e+03,2.340219e+03
1.152261e+03,2.347346e+03
1.153225e+03,2.353639e+03
1.154189e+03,2.347835e+03
1.155153e+03,2.332540e+03
1.156118e+03,2.321561e+03
1.157082e+03,2.315671e+03
1.158046e+03,2.314302e+03
1.159010e+03,2.317211e+03
1.159974e+03,2.321859e+03
1.160939e+03,2.322287e+03
1.161903e+03,2.318867e+03
1.162867e+03,2.318013e+03
1.163831e+03,2.321066e+03
1.164796e+03,2.323507e+03
1.165760e+03,2.319941e+03
1.166724e+03,2.313099e+03
1.167688e+03,2.309778e+03
1.168653e+03,2.309804e+03
1.169617e+03,2.309577e+03
1.170581e+03,2.307599e+03
1.171545e+03,2.304018e+03
1.172510e+03,2.296756e+03
1.173474e+03,2.288293e+03
1.174438e+03,2.284251e+03
1.175402e+03,2.286396e+03
1.176366e+03,2.289722e+03
1.177331e+03,2.291137e+03
1.178295e+03,2.290948e+03
1.179259e+03,2.287955e+03
1.180223e+03,2.282366e+03
1.181188e+03,2.277924e+03
1.182152e+03,2.276907e+03
1.183116e+03,2.277890e+03
1.184080e+03,2.283635e+03
1.185045e+03,2.290613e+03
1.186009e+03,2.292020e+03
1.186973e+03,2.284984e+03
1.187937e+03,2.275655e+03
1.188901e+03,2.260312e+03
1.189866e+03,2.247460e+03
1.190830e+03,2.244885e+03
1.191794e+03,2.253062e+03
1.192758e+03,2.261778e+03
1.193723e+03,2.274836e+03
1.194687e+03,2.283634e+03
1.195651e+03,2.281846e+03
1.196615e+03,2.272987e+03
1.197580e+03,2.266099e+03
1.198544e+03,2.261555e+03
1.199508e+03,2.255372e+03
1.200472e+03,2.246580e+03
1.201437e+03,2.239148e+03
1.202401e+03,2.237565e+03
1.203365e+03,2.243704e+03
1.204329e+03,2.245022e+03
1.205293e+03,2.239196e+03
1.206258e+03,2.233284e+03
1.207222e+03,2.229428e+03
1.208186e+03,2.227689e+03
1.209150e+03,2.230083e+03
1.210115e+03,2.236673e+03
1.211079e+03,2.239627e+03
1.212043e+03,2.237473e+03
1.213007e+03,2.232743e+03
1.213972e+03,2.228836e+03
1.214936e+03,2.226089e+03
1.215900e+03,2.222143e+03
1.216864e+03,2.217232e+03
1.217828e+03,2.214542e+03
1.218793e+03,2.216728e+03
1.219757e+03,2.221112e+03
1.220721e+03,2.222602e+03
1.221685e+03,2.222713e+03
1.222650e+03,2.225273e+03
1.223614e+03,2.230761e+03
1.224578e+03,2.234110e+03
1.225542e+03,2.231325e+03
1.226507e+03,2.225292e+03
1.227471e+03,2.216963e+03
1.228435e+03,2.207150e+03
1.229399e+03,2.199920e+03
1.230364e+03,2.199997e+03
1.231328e+03,2.201345e+03
1.232292e+03,2.203142e+03
1.233256e+03,2.204858e+03
1.234220e+03,2.204051e+03
1.235185e+03,2.199235e+03
1.236149e+03,2.197156e+03
1.237113e+03,2.201577e+03
1.238077e+03,2.207546e+03
1.239042e+03,2.211556e+03
1.240006e+03,2.212608e+03
1.240970e+03,2.211107e+03
1.241934e+03,2.204948e+03
1.242899e+03,2.199787e+03
1.243863e+03,2.197417e+03
1.244827e+03,2.196909e+03
1.245791e+03,2.196994e+03
1.246755e+03,2.197969e+03
1.247720e+03,2.197867e+03
1.248684e+03,2.196866e+03
1.249648e+03,2.195114e+03
1.250612e+03,2.192078e+03
1.251577e+03,2.188070e+03
1.252541e+03,2.184635e+03
1.253505e+03,2.181728e+03
1.254469e+03,2.181626e+03
1.255434e+03,2.185755e+03
1.256398e+03,2.190182e+03
1.257362e+03,2.189260e+03
1.258326e+03,2.184625e+03
1.259291e+03,2.179709e+03
1.260255e+03,2.174501e+03
1.261219e+03,2.168436e+03
1.262183e+03,2.159138e+03
1.263147e+03,2.153361e+03
1.264112e+03,2.159671e+03
1.265076e+03,2.171041e+03
1.266040e+03,2.176473e+03
1.267004e+03,2.171886e+03
1.267969e+03,2.167018e+03
1.268933e+03,2.165876e+03
1.269897e+03,2.166321e+03
1.270861e+03,2.164325e+03
1.271826e+03,2.159045e+03
1.272790e+03,2.158286e+03
1.273754e+03,2.167598e+03
1.274718e+03,2.173320e+03
1.275682e+03,2.173441e+03
1.276647e+03,2.170417e+03
1.277611e+03,2.165979e+03
1.278575e+03,2.159372e+03
1.279539e+03,2.155356e+03
1.280504e+03,2.155509e+03
1.281468e+03,2.155955e+03
1.282432e+03,2.153494e+03
1.283396e+03,2.149647e+03
1.284361e+03,2.148978e+03
1.285325e+03,2.149949e+03
1.286289e+03,2.147071e+03
1.287253e+03,2.138607e+03
1.288218e+03,2.131204e+03
1.289182e+03,2.133745e+03
1.290146e+03,2.139886e+03
1.291110e+03,2.141869e+03
1.292074e+03,2.140531e+03
1.293039e+03,2.139885e+03
1.294003e+03,2.144507e+03
1.294967e+03,2.146091e+03
1.295931e+03,2.138981e+03
1.296896e+03,2.129548e+03
1.297860e+03,2.124143e+03
1.298824e+03,2.123877e+03
1.299788e+03,2.124229e+03
1.300753e+03,2.126172e+03
1.301717e+03,2.126332e+03
1.302681e+03,2.122757e+03
1.303645e+03,2.116904e+03
1.304609e+03,2.112800e+03
1.305574e+03,2.109674e+03
1.306538e+03,2.108351e+03
1.307502e+03,2.110388e+03
1.308466e+03,2.112653e+03
1.309431e+03,2.110760e+03
1.310395e+03,2.106136e+03
1.311359e+03,2.102593e+03
1.312323e+03,2.099558e+03
1.313288e+03,2.098225e+03
1.314252e+03,2.100399e+03
1.315216e+03,2.105067e+03
1.316180e+03,2.113551e+03
1.317145e+03,2.121691e+03
1.318109e+03,2.122592e+03
1.319073e+03,2.115006e+03
1.320037e+03,2.107733e+03
1.321001e+03,2.103359e+03
1.321966e+03,2.101048e+03
1.322930e+03,2.103556e+03
1.323894e+03,2.108220e+03
1.324858e+03,2.109011e+03
1.325823e+03,2.103086e+03
1.326787e+03,2.099676e+03
1.327751e+03,2.099104e+03
1.328715e+03,2.098748e+03
1.329680e+03,2.096925e+03
1.330644e+03,2.094479e+03
1.331608e+03,2.095618e+03
1.332572e+03,2.099719e+03
1.333536e+03,2.100879e+03
1.334501e+03,2.096860e+03
1.335465e+03,2.091593e+03
1.336429e+03,2.091523e+03
1.337393e+03,2.093306e+03
1.338358e+03,2.090220e+03
1.339322e+03,2.083395e+03
1.340286e+03,2.079045e+03
1.341250e+03,2.085294e+03
1.342215e+03,2.088451e+03
1.343179e+03,2.079395e+03
1.344143e+03,2.068069e+03
1.345107e+03,2.064629e+03
1.346072e+03,2.071603e+03
1.347036e+03,2.075158e+03
1.348000e+03,2.074130e+03
1.348964e+03,2.070310e+03
1.349928e+03,2.063993e+03
1.350893e+03,2.057344e+03
1.351857e+03,2.053673e+03
1.352821e+03,2.052519e+03
1.353785e+03,2.054889e+03
1.354750e+03,2.060679e+03
1.355714e+03,2.064308e+03
1.356678e+03,2.059421e+03
1.357642e+03,2.052437e+03
1.358607e+03,2.053315e+03
1.359571e+03,2.058253e+03
1.360535e+03,2.058493e+03
1.361499e+03,2.048884e+03
1.362464e+03,2.042868e+03
1.363428e+03,2.051226e+03
1.364392e+03,2.062071e+03
1.365356e+03,2.065733e+03
1.366320e+03,2.061616e+03
1.367285e+03,2.058010e+03
1.368249e+03,2.056266e+03
1.369213e+03,2.054123e+03
1.370177e+03,2.051222e+03
1.371142e+03,2.047730e+03
1.372106e+03,2.043024e+03
1.373070e+03,2.037684e+03
1.374034e+03,2.037136e+03
1.374999e+03,2.041311e+03
1.375963e+03,2.044887e+03
1.376927e+03,2.044726e+03
1.377891e+03,2.043431e+03
1.378855e+03,2.043938e+03
1.379820e+03,2.044326e+03
1.380784e+03,2.041667e+03
1.381748e+03,2.036191e+03
1.382712e+03,2.032625e+03
1.383677e+03,2.033426e+03
1.384641e+03,2.032961e+03
1.385605e+03,2.028272e+03
1.386569e+03,2.021649e+03
1.387534e+03,2.016895e+03
1.388498e+03,2.014483e+03
1.389462e+03,2.013177e+03
1.390426e+03,2.012785e+03
1.391391e+03,2.009871e+03
1.392355e+03,2.001069e+03
1.393319e+03,1.991502e+03
1.394283e+03,1.991469e+03
1.395247e+03,1.997689e+03
1.396212e+03,2.004533e+03
1.397176e+03,2.010924e+03
1.398140e+03,2.012385e+03
1.399104e+03,1.999289e+03
1.400069e+03,1.986338e+03
1.401033e+03,1.983804e+03
1.401997e+03,1.988869e+03
1.402961e+03,1.992778e+03
1.403926e+03,1.995425e+03
1.404890e+03,1.995950e+03
1.405854e+03,1.994473e+03
1.406818e+03,1.991580e+03
1.407782e+03,1.986986e+03
1.408747e+03,1.982219e+03
1.409711e+03,1.981074e+03
1.410675e+03,1.982005e+03
1.411639e+03,1.983380e+03
1.412604e+03,1.985250e+03
1.413568e+03,1.985667e+03
1.414532e+03,1.983116e+03
1.415496e+03,1.979548e+03
1.416461e+03,1.975731e+03
1.417425e+03,1.971098e+03
1.418389e+03,1.965350e+03
1.419353e+03,1.955282e+03
1.420318e+03,1.949580e+03
1.421282e+03,1.951471e+03
1.422246e+03,1.955365e+03
1.423210e+03,1.956813e+03
1.424174e+03,1.956229e+03
1.425139e+03,1.953946e+03
1.426103e+03,1.949691e+03
1.427067e+03,1.945824e+03
1.428031e+03,1.943360e+03
1.428996e+03,1.941373e+03
1.429960e+03,1.936185e+03
1.430924e+03,1.932314e+03
1.431888e+03,1.937921e+03
1.432853e+03,1.950393e+03
1.433817e+03,1.955447e+03
1.434781e+03,1.942205e+03
1.435745e+03,1.933089e+03
1.436709e+03,1.930776e+03
1.437674e+03,1.931145e+03
1.438638e+03,1.931192e+03
1.439602e+03,1.931768e+03
1.440566e+03,1.937611e+03
1.441531e+03,1.947639e+03
1.442495e+03,1.952526e+03
1.443459e+03,1.947945e+03
1.444423e+03,1.940116e+03
1.445388e+03,1.932393e+03
1.446352e+03,1.926008e+03
1.447316e+03,1.923990e+03
1.448280e+03,1.926307e+03
1.449245e+03,1.927660e+03
1.450209e+03,1.925432e+03
1.451173e+03,1.924449e+03
1.452137e+03,1.925341e+03
1.453101e+03,1.924946e+03
1.454066e+03,1.920059e+03
1.455030e+03,1.911706e+03
1.455994e+03,1.907184e+03
1.456958e+03,1.906238e+03
1.457923e+03,1.907966e+03
1.458887e+03,1.912288e+03
1.459851e+03,1.915469e+03
1.460815e+03,1.913221e+03
1.461780e+03,1.908590e+03
1.462744e+03,1.905418e+03
1.463708e+03,1.904020e+03
1.464672e+03,1.901755e+03
1.465636e+03,1.898655e+03
1.466601e+03,1.896033e+03
1.467565e+03,1.894051e+03
1.468529e+03,1.892365e+03
1.469493e+03,1.888883e+03
1.470458e+03,1.884741e+03
1.471422e+03,1.888610e+03
1.472386e+03,1.898376e+03
1.473350e+03,1.904567e+03
1.474315e+03,1.902556e+03
1.475279e+03,1.899544e+03
1.476243e+03,1.901028e+03
1.477207e+03,1.901728e+03
1.478172e+03,1.897462e+03
1.479136e+03,1.889711e+03
1.480100e+03,1.884554e+03
1.481064e+03,1.882643e+03
1.482028e+03,1.882027e+03
1.482993e+03,1.883057e+03
1.483957e+03,1.883754e+03
1.484921e+03,1.880875e+03
1.485885e+03,1.876541e+03
1.486850e+03,1.873131e+03
1.487814e+03,1.871216e+03
1.488778e+03,1.874436e+03
1.489742e+03,1.886972e+03
1.490707e+03,1.893769e+03
1.491671e+03,1.886069e+03
1.492635e+03,1.878046e+03
1.493599e+03,1.875264e+03
1.494563e+03,1.875430e+03
1.495528e+03,1.874156e+03
1.496492e+03,1.871126e+03
1.497456e+03,1.865020e+03
1.498420e+03,1.856472e+03
1.499385e+03,1.850748e+03
1.500349e+03,1.854443e+03
1.501313e+03,1.860269e+03
1.502277e+03,1.861241e+03
1.503242e+03,1.859760e+03
1.504206e+03,1.859497e+03
1.505170e+03,1.861129e+03
1.506134e+03,1.862626e+03
1.507099e+03,1.865462e+03
1.508063e+03,1.864007e+03
1.509027e+03,1.854733e+03
1.509991e+03,1.843382e+03
1.510955e+03,1.840549e+03
1.511920e+03,1.843115e+03
1.512884e+03,1.844704e+03
1.513848e+03,1.845444e+03
1.514812e+03,1.846454e+03
1.515777e+03,1.847099e+03
1.516741e+03,1.846854e+03
1.517705e+03,1.844340e+03
1.518669e+03,1.841538e+03
1.519634e+03,1.840480e+03
1.520598e+03,1.840805e+03
1.521562e+03,1.841589e+03
1.522526e+03,1.842339e+03
1.523490e+03,1.843907e+03
1.524455e+03,1.847295e+03
1.525419e+03,1.848529e+03
1.526383e+03,1.842649e+03
1.527347e+03,1.834276e+03
1.528312e+03,1.827088e+03
1.529276e+03,1.822283e+03
1.530240e+03,1.820648e+03
1.531204e+03,1.823246e+03
1.532169e+03,1.823070e+03
1.533133e+03,1.818767e+03
1.534097e+03,1.815752e+03
1.535061e+03,1.819282e+03
1.536026e+03,1.825193e+03
1.536990e+03,1.826202e+03
1.537954e+03,1.824408e+03
1.538918e+03,1.824356e+03
1.539882e+03,1.827713e+03
1.540847e+03,1.825905e+03
1.541811e+03,1.807983e+03
1.542775e+03,1.795258e+03
1.543739e+03,1.796058e+03
1.544704e+03,1.803542e+03
1.545668e+03,1.806339e+03
1.546632e+03,1.805586e+03
1.547596e+03,1.805768e+03
1.548561e+03,1.806840e+03
1.549525e+03,1.806996e+03
1.550489e+03,1.802662e+03
1.551453e+03,1.799646e+03
1.552417e+03,1.801980e+03
1.553382e+03,1.805620e+03
1.554346e+03,1.808472e+03
1.555310e+03,1.810500e+03
1.556274e+03,1.807207e+03
1.557239e+03,1.798622e+03
1.558203e+03,1.793607e+03
1.559167e+03,1.794509e+03
1.560131e+03,1.796166e+03
1.561096e+03,1.792865e+03
1.562060e+03,1.789961e+03
1.563024e+03,1.793536e+03
1.563988e+03,1.800323e+03
1.564953e+03,1.802085e+03
1.565917e+03,1.796038e+03
1.566881e+03,1.793612e+03
1.567845e+03,1.795053e+03
1.568809e+03,1.795981e+03
1.569774e+03,1.794556e+03
1.570738e+03,1.790989e+03
1.571702e+03,1.781045e+03
1.572666e+03,1.771612e+03
1.573631e+03,1.775016e+03
1.574595e+03,1.792643e+03
1.575559e+03,1.800178e+03
1.576523e+03,1.790923e+03
1.577488e+03,1.784619e+03
1.578452e+03,1.784311e+03
1.579416e+03,1.785175e+03
1.580380e+03,1.782661e+03
1.581344e+03,1.778229e+03
1.582309e+03,1.773620e+03
1.583273e+03,1.769906e+03
1.584237e+03,1.768950e+03
1.585201e+03,1.772351e+03
1.586166e+03,1.776182e+03
1.587130e+03,1.780659e+03
1.588094e+03,1.782591e+03
1.589058e+03,1.780258e+03
1.590023e+03,1.776551e+03
1.590987e+03,1.778679e+03
1.591951e+03,1.783480e+03
1.592915e+03,1.779916e+03
1.593880e+03,1.767435e+03
1.594844e+03,1.757870e+03
1.595808e+03,1.758704e+03
1.596772e+03,1.760202e+03
1.597736e+03,1.760613e+03
1.598701e+03,1.761955e+03
1.599665e+03,1.767160e+03
1.600629e+03,1.774002e+03
1.601593e+03,1.771402e+03
1.602558e+03,1.762460e+03
1.603522e+03,1.757166e+03
1.604486e+03,1.759002e+03
1.605450e+03,1.760021e+03
1.606415e+03,1.756663e+03
1.607379e+03,1.753394e+03
1.608343e+03,1.751188e+03
1.609307e+03,1.750083e+03
1.610271e+03,1.751779e+03
1.611236e+03,1.754753e+03
1.612200e+03,1.751523e+03
1.613164e+03,1.743538e+03
1.614128e+03,1.738546e+03
1.615093e+03,1.741682e+03
1.616057e+03,1.746033e+03
1.617021e+03,1.752585e+03
1.617985e+03,1.754653e+03
1.618950e+03,1.746101e+03
1.619914e+03,1.731407e+03
1.620878e+03,1.731182e+03
1.621842e+03,1.740738e+03
1.622807e+03,1.738356e+03
1.623771e+03,1.719854e+03
1.624735e+03,1.707369e+03
1.625699e+03,1.719079e+03
1.626663e+03,1.729344e+03
1.627628e+03,1.727877e+03
1.628592e+03,1.720609e+03
1.629556e+03,1.715695e+03
1.630520e+03,1.713552e+03
1.631485e+03,1.711947e+03
1.632449e+03,1.710482e+03
1.633413e+03,1.708350e+03
1.634377e+03,1.705067e+03
1.635342e+03,1.702125e+03
1.636306e+03,1.700379e+03
1.637270e+03,1.699144e+03
1.638234e+03,1.698289e+03
1.639198e+03,1.697528e+03
1.640163e+03,1.694837e+03
1.641127e+03,1.691321e+03
1.642091e+03,1.688961e+03
1.643055e+03,1.687504e+03
1.644020e+03,1.687369e+03
1.644984e+03,1.691093e+03
1.645948e+03,1.691495e+03
1.646912e+03,1.685962e+03
1.647877e+03,1.680101e+03
1.648841e+03,1.678715e+03
1.649805e+03,1.680939e+03
1.650769e+03,1.684595e+03
1.651734e+03,1.688743e+03
1.652698e+03,1.691723e+03
1.653662e+03,1.692713e+03
1.654626e+03,1.691229e+03
1.655590e+03,1.684813e+03
1.656555e+03,1.680570e+03
1.657519e+03,1.682143e+03
1.658483e+03,1.685027e+03
1.659447e+03,1.680968e+03
1.660412e+03,1.672519e+03
1.661376e+03,1.664962e+03
1.662340e+03,1.659422e+03
1.663304e+03,1.656765e+03
1.664269e+03,1.658472e+03
1.665233e+03,1.659208e+03
1.666197e+03,1.658303e+03
1.667161e+03,1.656566e+03
1.668125e+03,1.654390e+03
1.669090e+03,1.652888e+03
1.670054e+03,1.656163e+03
1.671018e+03,1.659881e+03
1.671982e+03,1.656975e+03
1.672947e+03,1.647600e+03
1.673911e+03,1.644050e+03
1.674875e+03,1.647393e+03
1.675839e+03,1.649846e+03
1.676804e+03,1.651105e+03
1.677768e+03,1.652620e+03
1.678732e+03,1.658447e+03
1.679696e+03,1.660739e+03
1.680661e+03,1.645454e+03
1.681625e+03,1.625028e+03
1.682589e+03,1.620035e+03
1.683553e+03,1.631999e+03
1.684517e+03,1.639000e+03
1.685482e+03,1.640866e+03
1.686446e+03,1.639463e+03
1.687410e+03,1.634703e+03
1.688374e+03,1.631198e+03
1.689339e+03,1.635631e+03
1.690303e+03,1.638620e+03
1.691267e+03,1.632497e+03
1.692231e+03,1.623086e+03
1.693196e+03,1.619191e+03
1.694160e+03,1.619885e+03
1.695124e+03,1.624019e+03
1.696088e+03,1.630460e+03
1.697052e+03,1.632642e+03
1.698017e+03,1.621628e+03
1.698981e+03,1.614275e+03
1.699945e+03,1.616716e+03
1.700909e+03,1.619174e+03
1.701874e+03,1.617805e+03
1.702838e+03,1.615136e+03
1.703802e+03,1.614198e+03
1.704766e+03,1.613886e+03
1.705731e+03,1.614933e+03
1.706695e+03,1.617304e+03
1.707659e+03,1.615113e+03
1.708623e+03,1.605107e+03
1.709588e+03,1.598968e+03
1.710552e+03,1.597735e+03
1.711516e+03,1.597412e+03
1.712480e+03,1.594044e+03
1.713444e+03,1.590861e+03
1.714409e+03,1.594979e+03
1.715373e+03,1.600806e+03
1.716337e+03,1.597863e+03
1.717301e+03,1.586325e+03
1.718266e+03,1.582107e+03
1.719230e+03,1.584674e+03
1.720194e+03,1.587225e+03
1.721158e+03,1.587633e+03
1.722123e+03,1.587909e+03
1.723087e+03,1.590511e+03
1.724051e+03,1.592161e+03
1.725015e+03,1.590390e+03
1.725979e+03,1.588402e+03
1.726944e+03,1.591583e+03
1.727908e+03,1.597784e+03
1.728872e+03,1.596567e+03
1.729836e+03,1.589351e+03
1.730801e+03,1.584390e+03
1.731765e+03,1.586943e+03
1.732729e+03,1.587454e+03
1.733693e+03,1.584238e+03
1.734658e+03,1.581332e+03
1.735622e+03,1.580437e+03
1.736586e+03,1.580424e+03
1.737550e+03,1.581721e+03
1.738515e+03,1.581644e+03
1.739479e+03,1.574513e+03
1.740443e+03,1.562468e+03
1.741407e+03,1.558614e+03
1.742371e+03,1.563804e+03
1.743336e+03,1.572505e+03
1.744300e+03,1.583729e+03
1.745264e+03,1.587095e+03
1.746228e+03,1.567462e+03
1.747193e+03,1.550437e+03
1.748157e+03,1.551557e+03
1.749121e+03,1.559405e+03
1.750085e+03,1.565989e+03
1.751050e+03,1.569837e+03
1.752014e+03,1.569698e+03
1.752978e+03,1.567444e+03
1.753942e+03,1.567390e+03
1.754906e+03,1.570006e+03
1.755871e+03,1.568833e+03
1.756835e+03,1.561080e+03
1.757799e+03,1.550023e+03
1.758763e+03,1.536433e+03
1.759728e+03,1.528489e+03
1.760692e+03,1.538448e+03
1.761656e+03,1.552732e+03
1.762620e+03,1.559820e+03
1.763585e+03,1.560105e+03
1.764549e+03,1.554057e+03
1.765513e+03,1.541434e+03
1.766477e+03,1.534954e+03
1.767442e+03,1.534429e+03
1.768406e+03,1.537239e+03
1.769370e+03,1.543747e+03
1.770334e+03,1.546657e+03
1.771298e+03,1.537137e+03
1.772263e+03,1.529365e+03
1.773227e+03,1.527916e+03
1.774191e+03,1.529433e+03
1.775155e+03,1.530193e+03
1.776120e+03,1.529851e+03
1.777084e+03,1.527157e+03
1.778048e+03,1.523535e+03
1.779012e+03,1.522920e+03
1.779977e+03,1.527393e+03
1.780941e+03,1.526620e+03
1.781905e+03,1.520101e+03
1.782869e+03,1.516524e+03
1.783833e+03,1.521849e+03
1.784798e+03,1.524723e+03
1.785762e+03,1.512851e+03
1.786726e+03,1.502738e+03
1.787690e+03,1.502941e+03
1.788655e+03,1.509235e+03
1.789619e+03,1.515607e+03
1.790583e+03,1.520466e+03
1.791547e+03,1.517345e+03
1.792512e+03,1.508669e+03
1.793476e+03,1.508185e+03
1.794440e+03,1.522119e+03
1.795404e+03,1.523952e+03
1.796369e+03,1.511552e+03
1.797333e+03,1.499639e+03
1.798297e+03,1.497322e+03
1.799261e+03,1.497801e+03
1.800225e+03,1.496393e+03
1.801190e+03,1.495153e+03
1.802154e+03,1.496627e+03
1.803118e+03,1.498851e+03
1.804082e+03,1.496627e+03
1.805047e+03,1.492399e+03
1.806011e+03,1.491259e+03
1.806975e+03,1.493212e+03
1.807939e+03,1.492210e+03
1.808904e+03,1.484925e+03
1.809868e+03,1.483167e+03
1.810832e+03,1.488868e+03
1.811796e+03,1.494346e+03
1.812760e+03,1.493890e+03
1.813725e+03,1.490698e+03
1.814689e+03,1.483720e+03
1.815653e+03,1.478312e+03
1.816617e+03,1.479297e+03
1.817582e+03,1.484409e+03
1.818546e+03,1.487047e+03
1.819510e+03,1.487300e+03
1.820474e+03,1.485137e+03
1.821439e+03,1.480861e+03
1.822403e+03,1.477895e+03
1.823367e+03,1.477030e+03
1.824331e+03,1.475207e+03
1.825296e+03,1.471506e+03
1.826260e+03,1.466855e+03
1.827224e+03,1.461487e+03
1.828188e+03,1.458598e+03
1.829152e+03,1.459018e+03
1.830117e+03,1.462068e+03
1.831081e+03,1.468985e+03
1.832045e+03,1.476919e+03
1.833009e+03,1.479649e+03
1.833974e+03,1.479109e+03
1.834938e+03,1.476219e+03
1.835902e+03,1.470169e+03
1.836866e+03,1.462047e+03
1.837831e+03,1.451267e+03
1.838795e+03,1.445517e+03
1.839759e+03,1.447130e+03
1.840723e+03,1.452384e+03
1.841688e+03,1.461718e+03
1.842652e+03,1.468660e+03
1.843616e+03,1.470534e+03
1.844580e+03,1.468732e+03
1.845544e+03,1.464013e+03
1.846509e+03,1.458473e+03
1.847473e+03,1.457498e+03
1.848437e+03,1.457284e+03
1.849401e+03,1.448296e+03
1.850366e+03,1.430683e+03
1.851330e+03,1.426669e+03
1.852294e+03,1.435069e+03
1.853258e+03,1.441967e+03
1.854223e+03,1.443816e+03
1.855187e+03,1.443314e+03
1.856151e+03,1.437455e+03
1.857115e+03,1.435348e+03
1.858079e+03,1.439787e+03
1.859044e+03,1.443797e+03
1.860008e+03,1.440855e+03
1.860972e+03,1.434268e+03
1.861936e+03,1.421898e+03
1.862901e+03,1.411711e+03
1.863865e+03,1.415422e+03
1.864829e+03,1.429605e+03
1.865793e+03,1.434604e+03
1.866758e+03,1.432241e+03
1.867722e+03,1.425334e+03
1.868686e+03,1.412554e+03
1.869650e+03,1.406177e+03
1.870615e+03,1.407260e+03
1.871579e+03,1.409725e+03
1.872543e+03,1.412916e+03
1.873507e+03,1.416588e+03
1.874471e+03,1.419717e+03
1.875436e+03,1.421076e+03
1.876400e+03,1.421051e+03
1.877364e+03,1.419672e+03
1.878328e+03,1.415822e+03
1.879293e+03,1.411049e+03
1.880257e+03,1.408057e+03
1.881221e+03,1.405942e+03
1.882185e+03,1.403825e+03
1.883150e+03,1.401991e+03
1.884114e+03,1.398483e+03
1.885078e+03,1.393694e+03
1.886042e+03,1.394479e+03
1.887006e+03,1.404059e+03
1.887971e+03,1.408048e+03
1.888935e+03,1.398801e+03
1.889899e+03,1.394392e+03
1.890863e+03,1.399075e+03
1.891828e+03,1.403419e+03
1.892792e+03,1.396521e+03
1.893756e+03,1.388365e+03
1.894720e+03,1.388855e+03
1.895685e+03,1.392889e+03
1.896649e+03,1.394084e+03
1.897613e+03,1.392624e+03
1.898577e+03,1.390394e+03
1.899542e+03,1.388061e+03
1.900506e+03,1.387058e+03
1.901470e+03,1.387629e+03
1.902434e+03,1.384104e+03
1.903398e+03,1.376941e+03
1.904363e+03,1.374911e+03
1.905327e+03,1.380795e+03
1.906291e+03,1.386878e+03
1.907255e+03,1.390520e+03
1.908220e+03,1.389345e+03
1.909184e+03,1.381754e+03
1.910148e+03,1.374177e+03
1.911112e+03,1.375959e+03
1.912077e+03,1.378774e+03
1.913041e+03,1.371834e+03
1.914005e+03,1.365211e+03
1.914969e+03,1.372058e+03
1.915933e+03,1.386612e+03
1.916898e+03,1.388592e+03
1.917862e+03,1.382029e+03
1.918826e+03,1.372585e+03
1.919790e+03,1.361439e+03
1.920755e+03,1.360530e+03
1.921719e+03,1.368489e+03
1.922683e+03,1.371030e+03
1.923647e+03,1.365580e+03
1.924612e+03,1.361706e+03
1.925576e+03,1.366556e+03
1.926540e+03,1.368428e+03
1.927504e+03,1.364582e+03
1.928469e+03,1.358852e+03
1.929433e+03,1.352631e+03
1.930397e+03,1.347730e+03
1.931361e+03,1.345643e+03
1.932325e+03,1.345925e+03
1.933290e+03,1.350696e+03
1.934254e+03,1.357309e+03
1.935218e+03,1.355140e+03
1.936182e+03,1.347939e+03
1.937147e+03,1.344138e+03
1.938111e+03,1.344182e+03
1.939075e+03,1.341515e+03
1.940039e+03,1.337367e+03
1.941004e+03,1.335815e+03
1.941968e+03,1.336484e+03
1.942932e+03,1.336726e+03
1.943896e+03,1.337313e+03
1.944860e+03,1.333661e+03
1.945825e+03,1.325562e+03
1.946789e+03,1.321100e+03
1.947753e+03,1.329731e+03
1.948717e+03,1.336712e+03
1.949682e+03,1.335819e+03
1.950646e+03,1.331563e+03
1.951610e+03,1.324074e+03
1.952574e+03,1.318905e+03
1.953539e+03,1.329496e+03
1.954503e+03,1.342033e+03
1.955467e+03,1.341409e+03
1.956431e+03,1.332668e+03
1.957396e+03,1.328000e+03
1.958360e+03,1.325354e+03
1.959324e+03,1.319288e+03
1.960288e+03,1.311320e+03
1.961252e+03,1.309943e+03
1.962217e+03,1.315400e+03
1.963181e+03,1.317202e+03
1.964145e+03,1.314892e+03
1.965109e+03,1.311861e+03
1.966074e+03,1.308110e+03
1.967038e+03,1.309439e+03
1.968002e+03,1.316154e+03
1.968966e+03,1.318768e+03
1.969931e+03,1.311514e+03
1.970895e+03,1.303457e+03
1.971859e+03,1.303648e+03
1.972823e+03,1.304892e+03
1.973787e+03,1.303380e+03
1.974752e+03,1.300628e+03
1.975716e+03,1.300102e+03
1.976680e+03,1.298975e+03
1.977644e+03,1.291497e+03
1.978609e+03,1.284855e+03
1.979573e+03,1.293406e+03
1.980537e+03,1.310453e+03
1.981501e+03,1.313516e+03
1.982466e+03,1.306168e+03
1.983430e+03,1.298786e+03
1.984394e+03,1.291926e+03
1.985358e+03,1.291777e+03
1.986323e+03,1.296864e+03
1.987287e+03,1.299305e+03
1.988251e+03,1.296419e+03
1.989215e+03,1.290876e+03
1.990179e+03,1.282281e+03
1.991144e+03,1.279199e+03
1.992108e+03,1.284766e+03
1.993072e+03,1.289343e+03
1.994036e+03,1.282522e+03
1.995001e+03,1.277397e+03
1.995965e+03,1.277421e+03
1.996929e+03,1.280565e+03
1.997893e+03,1.286591e+03
1.998858e+03,1.291271e+03
1.999822e+03,1.289975e+03
2.000786e+03,1.286182e+03
2.001750e+03,1.283520e+03
2.002714e+03,1.282404e+03
2.003679e+03,1.282182e+03
2.004643e+03,1.281595e+03
2.005607e+03,1.279466e+03
2.006571e+03,1.276342e+03
2.007536e+03,1.272217e+03
2.008500e+03,1.267727e+03
2.009464e+03,1.264880e+03
2.010428e+03,1.263904e+03
2.011393e+03,1.260209e+03
2.012357e+03,1.252979e+03
2.013321e+03,1.251488e+03
2.014285e+03,1.255287e+03
2.015250e+03,1.260241e+03
2.016214e+03,1.267048e+03
2.017178e+03,1.269854e+03
2.018142e+03,1.268560e+03
2.019106e+03,1.265985e+03
2.020071e+03,1.263997e+03
2.021035e+03,1.258908e+03
2.021999e+03,1.243679e+03
2.022963e+03,1.235537e+03
2.023928e+03,1.243944e+03
2.024892e+03,1.254372e+03
2.025856e+03,1.247416e+03
2.026820e+03,1.239636e+03
2.027785e+03,1.242183e+03
2.028749e+03,1.247759e+03
2.029713e+03,1.246606e+03
2.030677e+03,1.242700e+03
2.031641e+03,1.239495e+03
2.032606e+03,1.238077e+03
2.033570e+03,1.241199e+03
2.034534e+03,1.246620e+03
2.035498e+03,1.244212e+03
2.036463e+03,1.237501e+03
2.037427e+03,1.234769e+03
2.038391e+03,1.237040e+03
2.039355e+03,1.235657e+03
2.040320e+03,1.231763e+03
2.041284e+03,1.229377e+03
2.042248e+03,1.229004e+03
2.043212e+03,1.228252e+03
2.044177e+03,1.227411e+03
2.045141e+03,1.225250e+03
2.046105e+03,1.221382e+03
2.047069e+03,1.218522e+03
2.048033e+03,1.217767e+03
2.048998e+03,1.216633e+03
2.049962e+03,1.215113e+03
2.050926e+03,1.216885e+03
2.051890e+03,1.230489e+03
2.052854e+03,1.237347e+03
2.053819e+03,1.229250e+03
2.054783e+03,1.220509e+03
2.055747e+03,1.220066e+03
2.056711e+03,1.221193e+03
2.057676e+03,1.215769e+03
2.058640e+03,1.211606e+03
2.059604e+03,1.212368e+03
2.060568e+03,1.214387e+03
2.061533e+03,1.213787e+03
2.062497e+03,1.211584e+03
2.063461e+03,1.208676e+03
2.064425e+03,1.204725e+03
2.065390e+03,1.197264e+03
2.066354e+03,1.189238e+03
2.067318e+03,1.187676e+03
2.068282e+03,1.190080e+03
2.069247e+03,1.189468e+03
2.070211e+03,1.186426e+03
2.071175e+03,1.188104e+03
2.072139e+03,1.192689e+03
2.073104e+03,1.194777e+03
2.074068e+03,1.194203e+03
2.075032e+03,1.201421e+03
2.075996e+03,1.212799e+03
2.076960e+03,1.212747e+03
2.077925e+03,1.198265e+03
2.078889e+03,1.190295e+03
2.079853e+03,1.190374e+03
2.080817e+03,1.185530e+03
2.081782e+03,1.174718e+03
2.082746e+03,1.169313e+03
2.083710e+03,1.178333e+03
2.084674e+03,1.180951e+03
2.085639e+03,1.176736e+03
2.086603e+03,1.174519e+03
2.087567e+03,1.179567e+03
2.088531e+03,1.181596e+03
2.089496e+03,1.178383e+03
2.090460e+03,1.173526e+03
2.091424e+03,1.169691e+03
2.092388e+03,1.168895e+03
2.093353e+03,1.174490e+03
2.094317e+03,1.178084e+03
2.095281e+03,1.175398e+03
2.096245e+03,1.171771e+03
2.097209e+03,1.176031e+03
2.098174e+03,1.175732e+03
2.099138e+03,1.164036e+03
2.100102e+03,1.153084e+03
2.101066e+03,1.160778e+03
2.102031e+03,1.169803e+03
2.102995e+03,1.160215e+03
2.103959e+03,1.148763e+03
2.104923e+03,1.150518e+03
2.105887e+03,1.158387e+03
2.106852e+03,1.157723e+03
2.107816e+03,1.155767e+03
2.108780e+03,1.163141e+03
2.109744e+03,1.173667e+03
2.110708e+03,1.172911e+03
2.111673e+03,1.166239e+03
2.112637e+03,1.157632e+03
2.113601e+03,1.148933e+03
2.114565e+03,1.147152e+03
2.115530e+03,1.148593e+03
2.116494e+03,1.143270e+03
2.117458e+03,1.135260e+03
2.118422e+03,1.134955e+03
2.119387e+03,1.140725e+03
2.120351e+03,1.153721e+03
2.121315e+03,1.168472e+03
2.122279e+03,1.168123e+03
2.123244e+03,1.152021e+03
2.124208e+03,1.142744e+03
2.125172e+03,1.139323e+03
2.126136e+03,1.137588e+03
2.127101e+03,1.137051e+03
2.128065e+03,1.132451e+03
2.129029e+03,1.124750e+03
2.129993e+03,1.125311e+03
2.130958e+03,1.135225e+03
2.131922e+03,1.137766e+03
2.132886e+03,1.131403e+03
2.133850e+03,1.130296e+03
2.134814e+03,1.136618e+03
2.135779e+03,1.140253e+03
2.136743e+03,1.135714e+03
2.137707e+03,1.132668e+03
2.138671e+03,1.131863e+03
2.139636e+03,1.130354e+03
2.140600e+03,1.127858e+03
2.141564e+03,1.117530e+03
2.142528e+03,1.097765e+03
2.143493e+03,1.101449e+03
2.144457e+03,1.153139e+03
2.145421e+03,1.176894e+03
2.146385e+03,1.147518e+03
2.147350e+03,1.121416e+03
2.148314e+03,1.113788e+03
2.149278e+03,1.113026e+03
2.150242e+03,1.114669e+03
2.151207e+03,1.114271e+03
2.152171e+03,1.110586e+03
2.153135e+03,1.106477e+03
2.154099e+03,1.105525e+03
2.155063e+03,1.105647e+03
2.156028e+03,1.106506e+03
2.156992e+03,1.108801e+03
2.157956e+03,1.114458e+03
2.158920e+03,1.115574e+03
2.159885e+03,1.106136e+03
2.160849e+03,1.097913e+03
2.161813e+03,1.096875e+03
2.162777e+03,1.097718e+03
2.163741e+03,1.098278e+03
2.164706e+03,1.096064e+03
2.165670e+03,1.090279e+03
2.166634e+03,1.086031e+03
2.167598e+03,1.088660e+03
2.168563e+03,1.093065e+03
2.169527e+03,1.096509e+03
2.170491e+03,1.097540e+03
2.171455e+03,1.095949e+03
2.172420e+03,1.092291e+03
2.173384e+03,1.085979e+03
2.174348e+03,1.080172e+03
2.175312e+03,1.076345e+03
2.176277e+03,1.074393e+03
2.177241e+03,1.076889e+03
2.178205e+03,1.078509e+03
2.179169e+03,1.075976e+03
2.180134e+03,1.072777e+03
2.181098e+03,1.070817e+03
2.182062e+03,1.072562e+03
2.183026e+03,1.079603e+03
2.183990e+03,1.087050e+03
2.184955e+03,1.088956e+03
2.185919e+03,1.086239e+03
2.186883e+03,1.076334e+03
2.187847e+03,1.067432e+03
2.188812e+03,1.075236e+03
2.189776e+03,1.085376e+03
2.190740e+03,1.080005e+03
2.191704e+03,1.068813e+03
2.192668e+03,1.058295e+03
2.193633e+03,1.050712e+03
2.194597e+03,1.052365e+03
2.195561e+03,1.055266e+03
2.196525e+03,1.050109e+03
2.197490e+03,1.043462e+03
2.198454e+03,1.049478e+03
2.199418e+03,1.057731e+03
2.200382e+03,1.057967e+03
2.201347e+03,1.056672e+03
2.202311e+03,1.067588e+03
2.203275e+03,1.078504e+03
2.204239e+03,1.073826e+03
2.205204e+03,1.063190e+03
2.206168e+03,1.062138e+03
2.207132e+03,1.063699e+03
2.208096e+03,1.057635e+03
2.209061e+03,1.048018e+03
2.210025e+03,1.038336e+03
2.210989e+03,1.030559e+03
2.211953e+03,1.028087e+03
2.212917e+03,1.031791e+03
2.213882e+03,1.041122e+03
2.214846e+03,1.050560e+03
2.215810e+03,1.050546e+03
2.216774e+03,1.045391e+03
2.217739e+03,1.040704e+03
2.218703e+03,1.038222e+03
2.219667e+03,1.044139e+03
2.220631e+03,1.049215e+03
2.221595e+03,1.041477e+03
2.222560e+03,1.030998e+03
2.223524e+03,1.033537e+03
2.224488e+03,1.040349e+03
2.225452e+03,1.042842e+03
2.226417e+03,1.043259e+03
2.227381e+03,1.042625e+03
2.228345e+03,1.042223e+03
2.229309e+03,1.042269e+03
2.230274e+03,1.042936e+03
2.231238e+03,1.046169e+03
2.232202e+03,1.048285e+03
2.233166e+03,1.043755e+03
2.234131e+03,1.036955e+03
2.235095e+03,1.029863e+03
2.236059e+03,1.024963e+03
2.237023e+03,1.028612e+03
2.237988e+03,1.032294e+03
2.238952e+03,1.029275e+03
2.239916e+03,1.023830e+03
2.240880e+03,1.021180e+03
2.241844e+03,1.021458e+03
2.242809e+03,1.025218e+03
2.243773e+03,1.030100e+03
2.244737e+03,1.035593e+03
2.245701e+03,1.037623e+03
2.246666e+03,1.029538e+03
2.247630e+03,1.021472e+03
2.248594e+03,1.023508e+03
2.249558e+03,1.026349e+03
2.250522e+03,1.016944e+03
2.251487e+03,1.009345e+03
2.252451e+03,1.009664e+03
2.253415e+03,1.012044e+03
2.254379e+03,1.013466e+03
2.255344e+03,1.014291e+03
2.256308e+03,1.015493e+03
2.257272e+03,1.014199e+03
2.258236e+03,1.004003e+03
2.259201e+03,9.955216e+02
2.260165e+03,9.911181e+02
2.261129e+03,9.916508e+02
2.262093e+03,1.004271e+03
2.263058e+03,1.010694e+03
2.264022e+03,1.006415e+03
2.264986e+03,1.000321e+03
2.265950e+03,9.952511e+02
2.266915e+03,9.936866e+02
2.267879e+03,9.961811e+02
2.268843e+03,9.973428e+02
2.269807e+03,9.955841e+02
2.270771e+03,9.949832e+02
2.271736e+03,9.982267e+02
2.272700e+03,9.991008e+02
2.273664e+03,9.940211e+02
2.274628e+03,9.927844e+02
2.275593e+03,1.002831e+03
2.276557e+03,1.006047e+03
2.277521e+03,1.000458e+03
2.278485e+03,9.935061e+02
2.279449e+03,9.864903e+02
2.280414e+03,9.847441e+02
2.281378e+03,9.882342e+02
2.282342e+03,9.906804e+02
2.283306e+03,9.874397e+02
2.284271e+03,9.836912e+02
2.285235e+03,9.793594e+02
2.286199e+03,9.762990e+02
2.287163e+03,9.770839e+02
2.288128e+03,9.773505e+02
2.289092e+03,9.763785e+02
2.290056e+03,9.768796e+02
2.291020e+03,9.798555e+02
2.291985e+03,9.813528e+02
2.292949e+03,9.819063e+02
2.293913e+03,9.788128e+02
2.294877e+03,9.725678e+02
2.295842e+03,9.748289e+02
2.296806e+03,9.833464e+02
2.297770e+03,9.807708e+02
2.298734e+03,9.696688e+02
2.299698e+03,9.659333e+02
2.300663e+03,9.689055e+02
2.301627e+03,9.644990e+02
2.302591e+03,9.564955e+02
2.303555e+03,9.555627e+02
2.304520e+03,9.603299e+02
2.305484e+03,9.648326e+02
2.306448e+03,9.676388e+02
2.307412e+03,9.647415e+02
2.308376e+03,9.584803e+02
2.309341e+03,9.549666e+02
2.310305e+03,9.527846e+02
2.311269e+03,9.496515e+02
2.312233e+03,9.486404e+02
2.313198e+03,9.594880e+02
2.314162e+03,9.683834e+02
2.315126e+03,9.557366e+02
2.316090e+03,9.396868e+02
2.317055e+03,9.418035e+02
2.318019e+03,9.485743e+02
2.318983e+03,9.465568e+02
2.319947e+03,9.439935e+02
2.320912e+03,9.492841e+02
2.321876e+03,9.545778e+02
2.322840e+03,9.529111e+02
2.323804e+03,9.493597e+02
2.324769e+03,9.454924e+02
2.325733e+03,9.433230e+02
2.326697e+03,9.432741e+02
2.327661e+03,9.466254e+02
2.328625e+03,9.540237e+02
2.329590e+03,9.585293e+02
2.330554e+03,9.566910e+02
2.331518e+03,9.512304e+02
2.332482e+03,9.420129e+02
2.333447e+03,9.378256e+02
2.334411e+03,9.461254e+02
2.335375e+03,9.517988e+02
2.336339e+03,9.538102e+02
2.337303e+03,9.509590e+02
2.338268e+03,9.398496e+02
2.339232e+03,9.290872e+02
2.340196e+03,9.199785e+02
2.341160e+03,9.200983e+02
2.342125e+03,9.324580e+02
2.343089e+03,9.419559e+02
2.344053e+03,9.470258e+02
2.345017e+03,9.457886e+02
2.345982e+03,9.389313e+02
2.346946e+03,9.298342e+02
2.347910e+03,9.216061e+02
2.348874e+03,9.218815e+02
2.349839e+03,9.274285e+02
2.350803e+03,9.296659e+02
2.351767e+03,9.308303e+02
2.352731e+03,9.372678e+02
2.353696e+03,9.434875e+02
2.354660e+03,9.376627e+02
2.355624e+03,9.266677e+02
2.356588e+03,9.195446e+02
2.357552e+03,9.180346e+02
2.358517e+03,9.268495e+02
2.359481e+03,9.367226e+02
2.360445e+03,9.350700e+02
2.361409e+03,9.306632e+02
2.362374e+03,9.278923e+02
2.363338e+03,9.245516e+02
2.364302e+03,9.191204e+02
2.365266e+03,9.150986e+02
2.366230e+03,9.125211e+02
2.367195e+03,9.119848e+02
2.368159e+03,9.152849e+02
2.369123e+03,9.163802e+02
2.370087e+03,9.152137e+02
2.371052e+03,9.142977e+02
2.372016e+03,9.148979e+02
2.372980e+03,9.161338e+02
2.373944e+03,9.175143e+02
2.374909e+03,9.177573e+02
2.375873e+03,9.157012e+02
2.376837e+03,9.202518e+02
2.377801e+03,9.285123e+02
2.378766e+03,9.237372e+02
2.379730e+03,9.052084e+02
2.380694e+03,8.984313e+02
2.381658e+03,8.996956e+02
2.382623e+03,8.962875e+02
2.383587e+03,8.910721e+02
2.384551e+03,9.009628e+02
2.385515e+03,9.148567e+02
2.386479e+03,9.138187e+02
2.387444e+03,9.054738e+02
2.388408e+03,8.980215e+02
2.389372e+03,8.929413e+02
2.390336e+03,8.921007e+02
2.391301e+03,8.921205e+02
2.392265e+03,8.889999e+02
2.393229e+03,8.862184e+02
2.394193e+03,8.859190e+02
2.395157e+03,8.873651e+02
2.396122e+03,8.925466e+02
2.397086e+03,8.942053e+02
2.398050e+03,8.895968e+02
2.399014e+03,8.878934e+02
2.399979e+03,8.938000e+02
2.400943e+03,8.946663e+02
2.401907e+03,8.879645e+02
2.402871e+03,8.863801e+02
2.403836e+03,8.930268e+02
2.404800e+03,8.926043e+02
2.405764e+03,8.843423e+02
2.406728e+03,8.745916e+02
2.407693e+03,8.656147e+02
2.408657e+03,8.684267e+02
2.409621e+03,8.801228e+02
2.410585e+03,8.847482e+02
2.411550e+03,8.834370e+02
2.412514e+03,8.822779e+02
2.413478e+03,8.798010e+02
2.414442e+03,8.674911e+02
2.415406e+03,8.571836e+02
2.416371e+03,8.633810e+02
2.417335e+03,8.742092e+02
2.418299e+03,8.704894e+02
2.419263e+03,8.666641e+02
2.420228e+03,8.709384e+02
2.421192e+03,8.760784e+02
2.422156e+03,8.769921e+02
2.423120e+03,8.739536e+02
2.424084e+03,8.653815e+02
2.425049e+03,8.598307e+02
2.426013e+03,8.651946e+02
2.426977e+03,8.683359e+02
2.427941e+03,8.686802e+02
2.428906e+03,8.653593e+02
2.429870e+03,8.565269e+02
2.430834e+03,8.534836e+02
2.431798e+03,8.561364e+02
2.432763e+03,8.630689e+02
2.433727e+03,8.723635e+02
2.434691e+03,8.693306e+02
2.435655e+03,8.607099e+02
2.436620e+03,8.623525e+02
2.437584e+03,8.684930e+02
2.438548e+03,8.601971e+02
2.439512e+03,8.509252e+02
2.440477e+03,8.556253e+02
2.441441e+03,8.616459e+02
2.442405e+03,8.472436e+02
2.443369e+03,8.378254e+02
2.444333e+03,8.463495e+02
2.445298e+03,8.566234e+02
2.446262e+03,8.524010e+02
2.447226e+03,8.513527e+02
2.448190e+03,8.571610e+02
2.449155e+03,8.616393e+02
2.450119e+03,8.606832e+02
2.451083e+03,8.558763e+02
2.452047e+03,8.479581e+02
2.453011e+03,8.462454e+02
2.453976e+03,8.536703e+02
2.454940e+03,8.565945e+02
2.455904e+03,8.563781e+02
2.456868e+03,8.537862e+02
2.457833e+03,8.496808e+02
2.458797e+03,8.465910e+02
2.459761e+03,8.461324e+02
2.460725e+03,8.519597e+02
2.461690e+03,8.573271e+02
2.462654e+03,8.502137e+02
2.463618e+03,8.410997e+02
2.464582e+03,8.365616e+02
2.465547e+03,8.356193e+02
2.466511e+03,8.391192e+02
2.467475e+03,8.394172e+02
2.468439e+03,8.345560e+02
2.469404e+03,8.316058e+02
2.470368e+03,8.377348e+02
2.471332e+03,8.428381e+02
2.472296e+03,8.459568e+02
2.473260e+03,8.464344e+02
2.474225e+03,8.440608e+02
2.475189e+03,8.407374e+02
2.476153e+03,8.370463e+02
2.477117e+03,8.301458e+02
2.478082e+03,8.235182e+02
2.479046e+03,8.353103e+02
2.480010e+03,8.493640e+02
2.480974e+03,8.407272e+02
2.481938e+03,8.274575e+02
2.482903e+03,8.377787e+02
2.483867e+03,8.459445e+02
2.484831e+03,8.368270e+02
2.485795e+03,8.267924e+02
2.486760e+03,8.309977e+02
2.487724e+03,8.351213e+02
2.488688e+03,8.369459e+02
2.489652e+03,8.365146e+02
2.490617e+03,8.313430e+02
2.491581e+03,8.284709e+02
2.492545e+03,8.277078e+02
2.493509e+03,8.240502e+02
2.494474e+03,8.170295e+02
2.495438e+03,8.191306e+02
2.496402e+03,8.256843e+02
2.497366e+03,8.259279e+02
2.498331e+03,8.231696e+02
2.499295e+03,8.252717e+02
2.500259e+03,8.266108e+02
2.501223e+03,8.229991e+02
2.502188e+03,8.186155e+02
2.503152e+03,8.170208e+02
2.504116e+03,8.172451e+02
2.505080e+03,8.190833e+02
2.506044e+03,8.199509e+02
2.507009e+03,8.163373e+02
2.507973e+03,8.144208e+02
2.508937e+03,8.145590e+02
2.509901e+03,8.127234e+02
2.510865e+03,8.075435e+02
2.511830e+03,8.012478e+02
2.512794e+03,7.959513e+02
2.513758e+03,8.026483e+02
2.514722e+03,8.157171e+02
2.515687e+03,8.195482e+02
2.516651e+03,8.167408e+02
2.517615e+03,8.089963e+02
2.518579e+03,8.024122e+02
2.519544e+03,8.092867e+02
2.520508e+03,8.109993e+02
2.521472e+03,8.003401e+02
2.522436e+03,7.909754e+02
2.523401e+03,7.954025e+02
2.524365e+03,7.954069e+02
2.525329e+03,7.896907e+02
2.526293e+03,7.902582e+02
2.527258e+03,8.010377e+02
2.528222e+03,8.048232e+02
2.529186e+03,8.035121e+02
2.530150e+03,8.040501e+02
2.531115e+03,8.059347e+02
2.532079e+03,8.041795e+02
2.533043e+03,8.006335e+02
2.534007e+03,7.974980e+02
2.534971e+03,7.930373e+02
2.535936e+03,7.835735e+02
2.536900e+03,7.775892e+02
2.537864e+03,7.780944e+02
2.538828e+03,7.813044e+02
2.539792e+03,7.849695e+02
2.540757e+03,7.866194e+02
2.541721e+03,7.860548e+02
2.542685e+03,7.884910e+02
2.543649e+03,7.942687e+02
2.544614e+03,7.966443e+02
2.545578e+03,7.953051e+02
2.546542e+03,7.927365e+02
2.547506e+03,7.897540e+02
2.548471e+03,7.851783e+02
2.549435e+03,7.839584e+02
2.550399e+03,7.934200e+02
2.551363e+03,8.012914e+02
2.552328e+03,7.952394e+02
2.553292e+03,7.927520e+02
2.554256e+03,8.017109e+02
2.555220e+03,8.036868e+02
2.556185e+03,7.955056e+02
2.557149e+03,7.849915e+02
2.558113e+03,7.744486e+02
2.559077e+03,7.750182e+02
2.560042e+03,7.832702e+02
2.561006e+03,7.903154e+02
2.561970e+03,7.954800e+02
2.562934e+03,7.966808e+02
2.563898e+03,7.942958e+02
2.564863e+03,7.856341e+02
2.565827e+03,7.786739e+02
2.566791e+03,7.823710e+02
2.567755e+03,7.888718e+02
2.568719e+03,7.951751e+02
2.569684e+03,7.969213e+02
2.570648e+03,7.907082e+02
2.571612e+03,7.861208e+02
2.572576e+03,7.841483e+02
2.573541e+03,7.838691e+02
2.574505e+03,7.843401e+02
2.575469e+03,7.873185e+02
2.576433e+03,7.905105e+02
2.577398e+03,7.916984e+02
2.578362e+03,7.911441e+02
2.579326e+03,7.884303e+02
2.580290e+03,7.846133e+02
2.581255e+03,7.792887e+02
2.582219e+03,7.768421e+02
2.583183e+03,7.856817e+02
2.584147e+03,7.862874e+02
2.585112e+03,7.795062e+02
2.586076e+03,7.753474e+02
2.587040e+03,7.753906e+02
2.588004e+03,7.738631e+02
2.588969e+03,7.713483e+02
2.589933e+03,7.703246e+02
2.590897e+03,7.707798e+02
2.591861e+03,7.741990e+02
2.592825e+03,7.758421e+02
2.593790e+03,7.710775e+02
2.594754e+03,7.689778e+02
2.595718e+03,7.793554e+02
2.596682e+03,7.791953e+02
2.597646e+03,7.626315e+02
2.598611e+03,7.610060e+02
2.599575e+03,7.759958e+02
2.600539e+03,7.824659e+02
2.601503e+03,7.790536e+02
2.602468e+03,7.756121e+02
2.603432e+03,7.711260e+02
2.604396e+03,7.619930e+02
2.605360e+03,7.548616e+02
2.606325e+03,7.580804e+02
2.607289e+03,7.592000e+02
2.608253e+03,7.518621e+02
2.609217e+03,7.500309e+02
2.610182e+03,7.624810e+02
2.611146e+03,7.662107e+02
2.612110e+03,7.617851e+02
2.613074e+03,7.606595e+02
2.614039e+03,7.640508e+02
2.615003e+03,7.683732e+02
2.615967e+03,7.688970e+02
2.616931e+03,7.567466e+02
2.617896e+03,7.463839e+02
2.618860e+03,7.647207e+02
2.619824e+03,7.761075e+02
2.620788e+03,7.667672e+02
2.621752e+03,7.555156e+02
2.622717e+03,7.524275e+02
2.623681e+03,7.519255e+02
2.624645e+03,7.532856e+02
2.625609e+03,7.565124e+02
2.626573e+03,7.602172e+02
2.627538e+03,7.512797e+02
2.628502e+03,7.408672e+02
2.629466e+03,7.461271e+02
2.630430e+03,7.549577e+02
2.631395e+03,7.478630e+02
2.632359e+03,7.448676e+02
2.633323e+03,7.552031e+02
2.634287e+03,7.630133e+02
2.635252e+03,7.652920e+02
2.636216e+03,7.568568e+02
2.637180e+03,7.375104e+02
2.638144e+03,7.322673e+02
2.639109e+03,7.367058e+02
2.640073e+03,7.434950e+02
2.641037e+03,7.479535e+02
2.642001e+03,7.375163e+02
2.642966e+03,7.291522e+02
2.643930e+03,7.332474e+02
2.644894e+03,7.363195e+02
2.645858e+03,7.251155e+02
2.646823e+03,7.228789e+02
2.647787e+03,7.293380e+02
2.648751e+03,7.354709e+02
2.649715e+03,7.392986e+02
2.650679e+03,7.375981e+02
2.651644e+03,7.348840e+02
2.652608e+03,7.397529e+02
2.653572e+03,7.438526e+02
2.654536e+03,7.296977e+02
2.655500e+03,7.197380e+02
2.656465e+03,7.225158e+02
2.657429e+03,7.302816e+02
2.658393e+03,7.405579e+02
2.659357e+03,7.356613e+02
2.660322e+03,7.180578e+02
2.661286e+03,7.180251e+02
2.662250e+03,7.297072e+02
2.663214e+03,7.373779e+02
2.664179e+03,7.404202e+02
2.665143e+03,7.372538e+02
2.666107e+03,7.324410e+02
2.667071e+03,7.277035e+02
2.668036e+03,7.279474e+02
2.669000e+03,7.395211e+02
2.669964e+03,7.411998e+02
2.670928e+03,7.339760e+02
2.671893e+03,7.288104e+02
2.672857e+03,7.272479e+02
2.673821e+03,7.302253e+02
2.674785e+03,7.318875e+02
2.675750e+03,7.247672e+02
2.676714e+03,7.202970e+02
2.677678e+03,7.398932e+02
2.678642e+03,7.458783e+02
2.679606e+03,7.295742e+02
2.680571e+03,7.171946e+02
2.681535e+03,7.135267e+02
2.682499e+03,7.222390e+02
2.683463e+03,7.369179e+02
2.684427e+03,7.360248e+02
2.685392e+03,7.277924e+02
2.686356e+03,7.247695e+02
2.687320e+03,7.225637e+02
2.688284e+03,7.179379e+02
2.689249e+03,7.157578e+02
2.690213e+03,7.165011e+02
2.691177e+03,7.151125e+02
2.692141e+03,7.102668e+02
2.693106e+03,7.174799e+02
2.694070e+03,7.305042e+02
2.695034e+03,7.334029e+02
2.695998e+03,7.302468e+02
2.696963e+03,7.252203e+02
2.697927e+03,7.237501e+02
2.698891e+03,7.284562e+02
2.699855e+03,7.282293e+02
2.700820e+03,7.165296e+02
2.701784e+03,7.097963e+02
2.702748e+03,7.093871e+02
2.703712e+03,7.137673e+02
2.704677e+03,7.205876e+02
2.705641e+03,7.267847e+02
2.706605e+03,7.305414e+02
2.707569e+03,7.229714e+02
2.708533e+03,7.227333e+02
2.709498e+03,7.392597e+02
2.710462e+03,7.483373e+02
2.711426e+03,7.369822e+02
2.712390e+03,7.275856e+02
2.713354e+03,7.207826e+02
2.714319e+03,7.171100e+02
2.715283e+03,7.167357e+02
2.716247e+03,7.280147e+02
2.717211e+03,7.335652e+02
2.718176e+03,7.196583e+02
2.719140e+03,7.115683e+02
2.720104e+03,7.328226e+02
2.721068e+03,7.354382e+02
2.722033e+03,7.153963e+02
2.722997e+03,7.075547e+02
2.723961e+03,7.109765e+02
2.724925e+03,7.145419e+02
2.725890e+03,7.184410e+02
2.726854e+03,7.261193e+02
2.727818e+03,7.293871e+02
2.728782e+03,7.231023e+02
2.729747e+03,7.131705e+02
2.730711e+03,6.989753e+02
2.731675e+03,6.944228e+02
2.732639e+03,6.984111e+02
2.733604e+03,7.052699e+02
2.734568e+03,7.131627e+02
2.735532e+03,7.248328e+02
2.736496e+03,7.286468e+02
2.737460e+03,7.166412e+02
2.738425e+03,7.013073e+02
2.739389e+03,6.874678e+02
2.740353e+03,6.869611e+02
2.741317e+03,7.008471e+02
2.742281e+03,7.007414e+02
2.743246e+03,6.921745e+02
2.744210e+03,6.978577e+02
2.745174e+03,7.074614e+02
2.746138e+03,7.113835e+02
2.747103e+03,7.083568e+02
2.748067e+03,6.987729e+02
2.749031e+03,6.930208e+02
2.749995e+03,6.978802e+02
2.750960e+03,7.005807e+02
2.751924e+03,7.005042e+02
2.752888e+03,6.943165e+02
2.753852e+03,6.861260e+02
2.754817e+03,6.833124e+02
2.755781e+03,6.875411e+02
2.756745e+03,7.016686e+02
2.757709e+03,7.113422e+02
2.758674e+03,7.117698e+02
2.759638e+03,7.071241e+02
2.760602e+03,6.981793e+02
2.761566e+03,6.879980e+02
2.762531e+03,6.792396e+02
2.763495e+03,6.734852e+02
2.764459e+03,6.740905e+02
2.765423e+03,6.935702e+02
2.766387e+03,7.055576e+02
2.767352e+03,7.053018e+02
2.768316e+03,7.039103e+02
2.769280e+03,7.039425e+02
2.770244e+03,6.969210e+02
2.771208e+03,6.878755e+02
2.772173e+03,6.860615e+02
2.773137e+03,6.867833e+02
2.774101e+03,6.865236e+02
2.775065e+03,6.861769e+02
2.776030e+03,6.851403e+02
2.776994e+03,6.878803e+02
2.777958e+03,6.928318e+02
2.778922e+03,6.943218e+02
2.779887e+03,6.915144e+02
2.780851e+03,6.757128e+02
2.781815e+03,6.657582e+02
2.782779e+03,6.748871e+02
2.783744e+03,6.861199e+02
2.784708e+03,6.880829e+02
2.785672e+03,6.922746e+02
2.786636e+03,6.984924e+02
2.787601e+03,6.995779e+02
2.788565e+03,6.972911e+02
2.789529e+03,6.944235e+02
2.790493e+03,6.915654e+02
2.791458e+03,6.882449e+02
2.792422e+03,6.847355e+02
2.793386e+03,6.818094e+02
2.794350e+03,6.829429e+02
2.795314e+03,6.884694e+02
2.796279e+03,6.916624e+02
2.797243e+03,6.926910e+02
2.798207e+03,6.942366e+02
2.799171e+03,6.941467e+02
2.800135e+03,6.854255e+02
2.801100e+03,6.817209e+02
2.802064e+03,6.873030e+02
2.803028e+03,6.836385e+02
2.803992e+03,6.722168e+02
2.804957e+03,6.684986e+02
2.805921e+03,6.722509e+02
2.806885e+03,6.851298e+02
2.807849e+03,6.954863e+02
2.808814e+03,6.980802e+02
2.809778e+03,6.976852e+02
2.810742e+03,6.970893e+02
2.811706e+03,6.903127e+02
2.812671e+03,6.789825e+02
2.813635e+03,6.711613e+02
2.814599e+03,6.662701e+02
2.815563e+03,6.626735e+02
2.816528e+03,6.642297e+02
2.817492e+03,6.755735e+02
2.818456e+03,6.842443e+02
2.819420e+03,6.876406e+02
2.820385e+03,6.807822e+02
2.821349e+03,6.686103e+02
2.822313e+03,6.678019e+02
2.823277e+03,6.677438e+02
2.824241e+03,6.575753e+02
2.825206e+03,6.557797e+02
2.826170e+03,6.775714e+02
2.827134e+03,6.903742e+02
2.828098e+03,6.898677e+02
2.829063e+03,6.821923e+02
2.830027e+03,6.729750e+02
2.830991e+03,6.739940e+02
2.831955e+03,6.800118e+02
2.832919e+03,6.890588e+02
2.833884e+03,6.959239e+02
2.834848e+03,6.994028e+02
2.835812e+03,6.937324e+02
2.836776e+03,6.812643e+02
2.837741e+03,6.783806e+02
2.838705e+03,6.786971e+02
2.839669e+03,6.742167e+02
2.840633e+03,6.708464e+02
2.841598e+03,6.718328e+02
2.842562e+03,6.748347e+02
2.843526e+03,6.798604e+02
2.844490e+03,6.759026e+02
2.845455e+03,6.685778e+02
2.846419e+03,6.686935e+02
2.847383e+03,6.737448e+02
2.848347e+03,6.868590e+02
2.849312e+03,6.904453e+02
2.850276e+03,6.817538e+02
2.851240e+03,6.785096e+02
2.852204e+03,6.808797e+02
2.853168e+03,6.853677e+02
2.854133e+03,6.891823e+02
2.855097e+03,6.900847e+02
2.856061e+03,6.884391e+02
2.857025e+03,6.840137e+02
2.857990e+03,6.764993e+02
2.858954e+03,6.658226e+02
2.859918e+03,6.792805e+02
2.860882e+03,6.977919e+02
2.861846e+03,6.891608e+02
2.862811e+03,6.753206e+02
2.863775e+03,6.782402e+02
2.864739e+03,6.743503e+02
2.865703e+03,6.573773e+02
2.866668e+03,6.600855e+02
2.867632e+03,6.734521e+02
2.868596e+03,6.670316e+02
2.869560e+03,6.568663e+02
2.870525e+03,6.649953e+02
2.871489e+03,6.756748e+02
2.872453e+03,6.844545e+02
2.873417e+03,6.878586e+02
2.874382e+03,6.868303e+02
2.875346e+03,6.896548e+02
2.876310e+03,6.927624e+02
2.877274e+03,6.865768e+02
2.878239e+03,6.836946e+02
2.879203e+03,6.882877e+02
2.880167e+03,6.870455e+02
2.881131e+03,6.763230e+02
2.882095e+03,6.847636e+02
2.883060e+03,6.994307e+02
2.884024e+03,6.985474e+02
2.884988e+03,6.927770e+02
2.885952e+03,6.910810e+02
2.886917e+03,6.885164e+02
2.887881e+03,6.848847e+02
2.888845e+03,6.909625e+02
2.889809e+03,7.011290e+02
2.890773e+03,7.012496e+02
2.891738e+03,6.965330e+02
2.892702e+03,6.898721e+02
2.893666e+03,6.915325e+02
2.894630e+03,7.025074e+02
2.895595e+03,7.060506e+02
2.896559e+03,7.013834e+02
2.897523e+03,6.831703e+02
2.898487e+03,6.706998e+02
2.899452e+03,6.958544e+02
2.900416e+03,7.066593e+02
2.901380e+03,6.927857e+02
2.902344e+03,6.887798e+02
2.903309e+03,6.979550e+02
2.904273e+03,6.910257e+02
2.905237e+03,6.774425e+02
2.906201e+03,6.654198e+02
2.907166e+03,6.629510e+02
2.908130e+03,6.728875e+02
2.909094e+03,6.813623e+02
2.910058e+03,6.852527e+02
2.911022e+03,6.853527e+02
2.911987e+03,6.812041e+02
2.912951e+03,6.715656e+02
2.913915e+03,6.619056e+02
2.914879e+03,6.537849e+02
2.915844e+03,6.599288e+02
2.916808e+03,6.772064e+02
2.917772e+03,6.728701e+02
2.918736e+03,6.617244e+02
2.919700e+03,6.688712e+02
2.920665e+03,6.745474e+02
2.921629e+03,6.588829e+02
2.922593e+03,6.593925e+02
2.923557e+03,6.729768e+02
2.924522e+03,6.731954e+02
2.925486e+03,6.654962e+02
2.926450e+03,6.616687e+02
2.927414e+03,6.619954e+02
2.928379e+03,6.681437e+02
2.929343e+03,6.739080e+02
2.930307e+03,6.772152e+02
2.931271e+03,6.693542e+02
2.932236e+03,6.590075e+02
2.933200e+03,6.623128e+02
2.934164e+03,6.650283e+02
2.935128e+03,6.605593e+02
2.936093e+03,6.575187e+02
2.937057e+03,6.573668e+02
2.938021e+03,6.575573e+02
2.938985e+03,6.570131e+02
2.939949e+03,6.499772e+02
2.940914e+03,6.484319e+02
2.941878e+03,6.561290e+02
2.942842e+03,6.599532e+02
2.943806e+03,6.567711e+02
2.944771e+03,6.540267e+02
2.945735e+03,6.532571e+02
2.946699e+03,6.581122e+02
2.947663e+03,6.596136e+02
2.948627e+03,6.544528e+02
2.949592e+03,6.449210e+02
2.950556e+03,6.339040e+02
2.951520e+03,6.382177e+02
2.952484e+03,6.480116e+02
2.953449e+03,6.523781e+02
2.954413e+03,6.591057e+02
2.955377e+03,6.720626e+02
2.956341e+03,6.884425e+02
2.957306e+03,7.032692e+02
2.958270e+03,6.991586e+02
2.959234e+03,6.800839e+02
2.960198e+03,6.507759e+02
2.961163e+03,6.365120e+02
2.962127e+03,6.497938e+02
2.963091e+03,6.429841e+02
2.964055e+03,6.219099e+02
2.965020e+03,6.204169e+02
2.965984e+03,6.282127e+02
2.966948e+03,6.361782e+02
2.967912e+03,6.446370e+02
2.968876e+03,6.555205e+02
2.969841e+03,6.531769e+02
2.970805e+03,6.425054e+02
2.971769e+03,6.345214e+02
2.972733e+03,6.287678e+02
2.973698e+03,6.237078e+02
2.974662e+03,6.306823e+02
2.975626e+03,6.532268e+02
2.976590e+03,6.530871e+02
2.977554e+03,6.401703e+02
2.978519e+03,6.272398e+02
2.979483e+03,6.189095e+02
2.980447e+03,6.199576e+02
2.981411e+03,6.158998e+02
2.982376e+03,6.084778e+02
2.983340e+03,6.254688e+02
2.984304e+03,6.366873e+02
2.985268e+03,6.102402e+02
2.986233e+03,5.904871e+02
2.987197e+03,6.058206e+02
2.988161e+03,6.034050e+02
2.989125e+03,5.943068e+02
2.990090e+03,6.257679e+02
2.991054e+03,6.529060e+02
2.992018e+03,6.392331e+02
2.992982e+03,6.195590e+02
2.993947e+03,6.057372e+02
2.994911e+03,5.981212e+02
2.995875e+03,5.960047e+02
2.996839e+03,5.945127e+02
2.997803e+03,5.984064e+02
2.998768e+03,6.123182e+02
2.999732e+03,6.177125e+02
3.000696e+03,6.118014e+02
3.001660e+03,6.042001e+02
3.002625e+03,5.992718e+02
3.003589e+03,6.019478e+02
3.004553e+03,6.031208e+02
3.005517e+03,5.987776e+02
3.006481e+03,5.989882e+02
3.007446e+03,6.027269e+02
3.008410e+03,6.053578e+02
3.009374e+03,6.082549e+02
3.010338e+03,6.137709e+02
3.011303e+03,6.081335e+02
3.012267e+03,5.857574e+02
3.013231e+03,5.919734e+02
3.014195e+03,6.098826e+02
3.015160e+03,6.076804e+02
3.016124e+03,6.039745e+02
3.017088e+03,6.055754e+02
3.018052e+03,6.096383e+02
3.019017e+03,6.136605e+02
3.019981e+03,6.087553e+02
3.020945e+03,6.002516e+02
3.021909e+03,5.930147e+02
3.022874e+03,5.821290e+02
3.023838e+03,5.683141e+02
3.024802e+03,5.769109e+02
3.025766e+03,5.974157e+02
3.026730e+03,6.027178e+02
3.027695e+03,5.992392e+02
3.028659e+03,5.899822e+02
3.029623e+03,6.011141e+02
3.030587e+03,6.255580e+02
3.031552e+03,6.105560e+02
3.032516e+03,5.844832e+02
3.033480e+03,5.809606e+02
3.034444e+03,5.782700e+02
3.035408e+03,5.736804e+02
3.036373e+03,5.886837e+02
3.037337e+03,6.103774e+02
3.038301e+03,5.947469e+02
3.039265e+03,5.754850e+02
3.040230e+03,5.665840e+02
3.041194e+03,5.740052e+02
3.042158e+03,5.906790e+02
3.043122e+03,5.931891e+02
3.044087e+03,5.917129e+02
3.045051e+03,6.017702e+02
3.046015e+03,6.072072e+02
3.046979e+03,6.030689e+02
3.047944e+03,5.863475e+02
3.048908e+03,5.722878e+02
3.049872e+03,5.839675e+02
3.050836e+03,5.963248e+02
3.051801e+03,5.920600e+02
3.052765e+03,5.870584e+02
3.053729e+03,5.843633e+02
3.054693e+03,5.908764e+02
3.055657e+03,6.029621e+02
3.056622e+03,6.178687e+02
3.057586e+03,6.173654e+02
3.058550e+03,5.975002e+02
3.059514e+03,5.963563e+02
3.060479e+03,6.022333e+02
3.061443e+03,5.893333e+02
3.062407e+03,5.820216e+02
3.063371e+03,5.859892e+02
3.064335e+03,5.879248e+02
3.065300e+03,5.872932e+02
3.066264e+03,5.867935e+02
3.067228e+03,5.912885e+02
3.068192e+03,6.064592e+02
3.069157e+03,6.089416e+02
3.070121e+03,5.984468e+02
3.071085e+03,5.807810e+02
3.072049e+03,5.631611e+02
3.073014e+03,5.499083e+02
3.073978e+03,5.568129e+02
3.074942e+03,5.870771e+02
3.075906e+03,5.990317e+02
3.076871e+03,5.998489e+02
3.077835e+03,6.027966e+02
3.078799e+03,6.078476e+02
3.079763e+03,6.176474e+02
3.080728e+03,6.033333e+02
3.081692e+03,5.758167e+02
3.082656e+03,5.797599e+02
3.083620e+03,5.864957e+02
3.084584e+03,5.796169e+02
3.085549e+03,5.727211e+02
3.086513e+03,5.702686e+02
3.087477e+03,5.907001e+02
3.088441e+03,6.045504e+02
3.089406e+03,5.730402e+02
3.090370e+03,5.619914e+02
3.091334e+03,5.778903e+02
3.092298e+03,5.720999e+02
3.093262e+03,5.628271e+02
3.094227e+03,6.158701e+02
3.095191e+03,6.389449e+02
3.096155e+03,5.960829e+02
3.097119e+03,5.813779e+02
3.098084e+03,5.885084e+02
3.099048e+03,5.931989e+02
3.100012e+03,5.869391e+02
3.100976e+03,5.576572e+02
3.101941e+03,5.502744e+02
3.102905e+03,5.667343e+02
3.103869e+03,5.810466e+02
3.104833e+03,5.926010e+02
3.105798e+03,6.022532e+02
3.106762e+03,6.072000e+02
3.107726e+03,6.078714e+02
3.108690e+03,6.039816e+02
3.109655e+03,5.937979e+02
3.110619e+03,5.659090e+02
3.111583e+03,5.605597e+02
3.112547e+03,5.783125e+02
3.113511e+03,5.816797e+02
3.114476e+03,5.758976e+02
3.115440e+03,5.740196e+02
3.116404e+03,5.787328e+02
3.117368e+03,5.952399e+02
3.118333e+03,5.951860e+02
3.119297e+03,5.870084e+02
3.120261e+03,5.856218e+02
3.121225e+03,5.889655e+02
3.122189e+03,5.954202e+02
3.123154e+03,5.955450e+02
3.124118e+03,5.916170e+02
3.125082e+03,5.989773e+02
3.126046e+03,6.096844e+02
3.127011e+03,6.193366e+02
3.127975e+03,6.148866e+02
3.128939e+03,6.027031e+02
3.129903e+03,6.205974e+02
3.130868e+03,6.367603e+02
3.131832e+03,6.110323e+02
3.132796e+03,6.131249e+02
3.133760e+03,6.350558e+02
3.134725e+03,6.081143e+02
3.135689e+03,5.757520e+02
3.136653e+03,5.811375e+02
3.137617e+03,5.843806e+02
3.138582e+03,5.744063e+02
3.139546e+03,5.735361e+02
3.140510e+03,5.822345e+02
3.141474e+03,6.086578e+02
3.142438e+03,6.032927e+02
3.143403e+03,5.669071e+02
3.144367e+03,5.494212e+02
3.145331e+03,5.481934e+02
3.146295e+03,5.628968e+02
3.147260e+03,5.839944e+02
3.148224e+03,6.071774e+02
3.149188e+03,6.040012e+02
3.150152e+03,5.965605e+02
3.151116e+03,6.152944e+02
3.152081e+03,6.258806e+02
3.153045e+03,6.118885e+02
3.154009e+03,5.956310e+02
3.154973e+03,5.842111e+02
3.155938e+03,5.870140e+02
3.156902e+03,5.979630e+02
3.157866e+03,6.112333e+02
3.158830e+03,5.961725e+02
3.159795e+03,5.717943e+02
3.160759e+03,5.915392e+02
3.161723e+03,6.048261e+02
3.162687e+03,5.748043e+02
3.163652e+03,5.745663e+02
3.164616e+03,5.928132e+02
3.165580e+03,6.058430e+02
3.166544e+03,6.048617e+02
3.167509e+03,5.895712e+02
3.168473e+03,5.745921e+02
3.169437e+03,5.682347e+02
3.170401e+03,6.016096e+02
3.171365e+03,6.274505e+02
3.172330e+03,6.250674e+02
3.173294e+03,6.206534e+02
3.174258e+03,6.178714e+02
3.175222e+03,6.190225e+02
3.176187e+03,6.100281e+02
3.177151e+03,5.800370e+02
3.178115e+03,5.747324e+02
3.179079e+03,5.891482e+02
3.180043e+03,5.973861e+02
3.181008e+03,6.006980e+02
3.181972e+03,6.015966e+02
3.182936e+03,6.133586e+02
3.183900e+03,6.277568e+02
3.184865e+03,6.146071e+02
3.185829e+03,5.994308e+02
3.186793e+03,6.017196e+02
3.187757e+03,5.886956e+02
3.188722e+03,5.736952e+02
3.189686e+03,5.919874e+02
3.190650e+03,5.908005e+02
3.191614e+03,5.536179e+02
3.192579e+03,5.747265e+02
3.193543e+03,6.278124e+02
3.194507e+03,6.021432e+02
3.195471e+03,5.768014e+02
3.196436e+03,5.832892e+02
3.197400e+03,5.845099e+02
3.198364e+03,5.884163e+02
3.199328e+03,6.150353e+02
3.200292e+03,6.296061e+02
3.201257e+03,0.000000e+00
3.202221e+03,0.000000e+00
3.203185e+03,0.000000e+00
3.204149e+03,0.000000e+00
3.205114e+03,0.000000e+00
3.206078e+03,0.000000e+00
3.207042e+03,0.000000e+00
3.208006e+03,0.000000e+00
3.208970e+03,0.000000e+00
3.209935e+03,0.000000e+00
3.210899e+03,0.000000e+00
3.211863e+03,0.000000e+00
3.212827e+03,0.000000e+00
3.213792e+03,0.000000e+00
3.214756e+03,0.000000e+00
3.215720e+03,0.000000e+00
3.216684e+03,0.000000e+00
3.217649e+03,0.000000e+00
3.218613e+03,0.000000e+00
3.219577e+03,0.000000e+00
3.220541e+03,0.000000e+00
3.221506e+03,0.000000e+00
3.222470e+03,0.000000e+00
3.223434e+03,0.000000e+00
3.224398e+03,0.000000e+00
3.225363e+03,0.000000e+00
3.226327e+03,0.000000e+00
3.227291e+03,0.000000e+00
3.228255e+03,0.000000e+00
3.229219e+03,0.000000e+00
3.230184e+03,0.000000e+00
3.231148e+03,0.000000e+00
3.232112e+03,0.000000e+00
3.233076e+03,0.000000e+00
3.234041e+03,0.000000e+00
3.235005e+03,0.000000e+00
3.235969e+03,0.000000e+00
3.236933e+03,0.000000e+00
3.237897e+03,0.000000e+00
3.238862e+03,0.000000e+00
3.239826e+03,0.000000e+00
3.240790e+03,0.000000e+00
3.241754e+03,0.000000e+00
3.242719e+03,0.000000e+00
3.243683e+03,0.000000e+00
3.244647e+03,0.000000e+00
3.245611e+03,0.000000e+00
3.246576e+03,0.000000e+00
3.247540e+03,0.000000e+00
3.248504e+03,0.000000e+00
3.249468e+03,0.000000e+00
3.250433e+03,0.000000e+00
3.251397e+03,0.000000e+00
3.252361e+03,0.000000e+00
3.253325e+03,0.000000e+00
3.254290e+03,0.000000e+00
3.255254e+03,0.000000e+00
3.256218e+03,0.000000e+00
3.257182e+03,0.000000e+00
3.258146e+03,0.000000e+00
3.259111e+03,0.000000e+00
3.260075e+03,0.000000e+00
3.261039e+03,0.000000e+00
3.262003e+03,0.000000e+00
3.262968e+03,0.000000e+00
3.263932e+03,0.000000e+00
3.264896e+03,0.000000e+00
3.265860e+03,0.000000e+00
3.266824e+03,0.000000e+00
3.267789e+03,0.000000e+00
3.268753e+03,0.000000e+00
3.269717e+03,0.000000e+00
3.270681e+03,0.000000e+00
3.271646e+03,0.000000e+00
3.272610e+03,0.000000e+00
3.273574e+03,0.000000e+00
3.274538e+03,0.000000e+00
3.275503e+03,0.000000e+00
3.276467e+03,0.000000e+00
3.277431e+03,0.000000e+00
3.278395e+03,0.000000e+00
3.279360e+03,0.000000e+00
3.280324e+03,0.000000e+00
3.281288e+03,0.000000e+00
3.282252e+03,0.000000e+00
3.283217e+03,0.000000e+00
3.284181e+03,0.000000e+00
3.285145e+03,0.000000e+00
3.286109e+03,0.000000e+00
3.287073e+03,0.000000e+00
3.288038e+03,0.000000e+00
3.289002e+03,0.000000e+00
3.289966e+03,0.000000e+00
3.290930e+03,0.000000e+00
3.291895e+03,0.000000e+00
3.292859e+03,0.000000e+00
3.293823e+03,0.000000e+00
3.294787e+03,0.000000e+00
3.295751e+03,0.000000e+00
3.296716e+03,0.000000e+00
3.297680e+03,0.000000e+00
3.298644e+03,0.000000e+00
3.299608e+03,0.000000e+00
3.300573e+03,0.000000e+00
3.301537e+03,0.000000e+00
3.302501e+03,0.000000e+00
3.303465e+03,0.000000e+00
3.304430e+03,0.000000e+00
3.305394e+03,0.000000e+00
3.306358e+03,0.000000e+00
3.307322e+03,0.000000e+00
3.308287e+03,0.000000e+00
3.309251e+03,0.000000e+00
3.310215e+03,0.000000e+00
3.311179e+03,0.000000e+00
3.312144e+03,0.000000e+00
3.313108e+03,0.000000e+00
3.314072e+03,0.000000e+00
3.315036e+03,0.000000e+00
3.316000e+03,0.000000e+00
3.316965e+03,0.000000e+00
3.317929e+03,0.000000e+00
3.318893e+03,0.000000e+00
3.319857e+03,0.000000e+00
3.320822e+03,0.000000e+00
3.321786e+03,0.000000e+00
3.322750e+03,0.000000e+00
3.323714e+03,0.000000e+00
3.324678e+03,0.000000e+00
3.325643e+03,0.000000e+00
3.326607e+03,0.000000e+00
3.327571e+03,0.000000e+00
3.328535e+03,0.000000e+00
3.329500e+03,0.000000e+00
3.330464e+03,0.000000e+00
3.331428e+03,0.000000e+00
3.332392e+03,0.000000e+00
3.333357e+03,0.000000e+00
3.334321e+03,0.000000e+00
3.335285e+03,0.000000e+00
3.336249e+03,0.000000e+00
3.337214e+03,0.000000e+00
3.338178e+03,0.000000e+00
3.339142e+03,0.000000e+00
3.340106e+03,0.000000e+00
3.341071e+03,0.000000e+00
3.342035e+03,0.000000e+00
3.342999e+03,0.000000e+00
3.343963e+03,0.000000e+00
3.344927e+03,0.000000e+00
3.345892e+03,0.000000e+00
3.346856e+03,0.000000e+00
3.347820e+03,0.000000e+00
3.348784e+03,0.000000e+00
3.349749e+03,0.000000e+00
3.350713e+03,0.000000e+00
3.351677e+03,0.000000e+00
3.352641e+03,0.000000e+00
3.353605e+03,0.000000e+00
3.354570e+03,0.000000e+00
3.355534e+03,0.000000e+00
3.356498e+03,0.000000e+00
3.357462e+03,0.000000e+00
3.358427e+03,0.000000e+00
3.359391e+03,0.000000e+00
3.360355e+03,0.000000e+00
3.361319e+03,0.000000e+00
3.362284e+03,0.000000e+00
3.363248e+03,0.000000e+00
3.364212e+03,0.000000e+00
3.365176e+03,0.000000e+00
3.366141e+03,0.000000e+00
3.367105e+03,0.000000e+00
3.368069e+03,0.000000e+00
3.369033e+03,0.000000e+00
3.369998e+03,0.000000e+00
3.370962e+03,0.000000e+00
3.371926e+03,0.000000e+00
3.372890e+03,0.000000e+00
3.373854e+03,0.000000e+00
3.374819e+03,0.000000e+00
3.375783e+03,0.000000e+00
3.376747e+03,0.000000e+00
3.377711e+03,0.000000e+00
3.378676e+03,0.000000e+00
3.379640e+03,0.000000e+00
3.380604e+03,0.000000e+00
3.381568e+03,0.000000e+00
3.382532e+03,0.000000e+00
3.383497e+03,0.000000e+00
3.384461e+03,0.000000e+00
3.385425e+03,0.000000e+00
3.386389e+03,0.000000e+00
3.387354e+03,0.000000e+00
3.388318e+03,0.000000e+00
3.389282e+03,0.000000e+00
3.390246e+03,0.000000e+00
3.391211e+03,0.000000e+00
3.392175e+03,0.000000e+00
3.393139e+03,0.000000e+00
3.394103e+03,0.000000e+00
3.395068e+03,0.000000e+00
3.396032e+03,0.000000e+00
3.396996e+03,0.000000e+00
3.397960e+03,0.000000e+00
3.398925e+03,0.000000e+00
3.399889e+03,0.000000e+00
3.400853e+03,0.000000e+00
3.401817e+03,0.000000e+00
3.402781e+03,0.000000e+00
3.403746e+03,0.000000e+00
3.404710e+03,0.000000e+00
3.405674e+03,0.000000e+00
3.406638e+03,0.000000e+00
3.407603e+03,0.000000e+00
3.408567e+03,0.000000e+00
3.409531e+03,0.000000e+00
3.410495e+03,0.000000e+00
3.411459e+03,0.000000e+00
3.412424e+03,0.000000e+00
3.413388e+03,0.000000e+00
3.414352e+03,0.000000e+00
3.415316e+03,0.000000e+00
3.416281e+03,0.000000e+00
3.417245e+03,0.000000e+00
3.418209e+03,0.000000e+00
3.419173e+03,0.000000e+00
3.420138e+03,0.000000e+00
3.421102e+03,0.000000e+00
3.422066e+03,0.000000e+00
3.423030e+03,0.000000e+00
3.423995e+03,0.000000e+00
3.424959e+03,0.000000e+00
3.425923e+03,0.000000e+00
3.426887e+03,0.000000e+00
3.427852e+03,0.000000e+00
3.428816e+03,0.000000e+00
3.429780e+03,0.000000e+00
3.430744e+03,0.000000e+00
3.431708e+03,0.000000e+00
3.432673e+03,0.000000e+00
3.433637e+03,0.000000e+00
3.434601e+03,0.000000e+00
3.435565e+03,0.000000e+00
3.436530e+03,0.000000e+00
3.437494e+03,0.000000e+00
3.438458e+03,0.000000e+00
3.439422e+03,0.000000e+00
3.440386e+03,0.000000e+00
3.441351e+03,0.000000e+00
3.442315e+03,0.000000e+00
3.443279e+03,0.000000e+00
3.444243e+03,0.000000e+00
3.445208e+03,0.000000e+00
3.446172e+03,0.000000e+00
3.447136e+03,0.000000e+00
3.448100e+03,0.000000e+00
3.449065e+03,0.000000e+00
3.450029e+03,0.000000e+00
3.450993e+03,0.000000e+00
3.451957e+03,0.000000e+00
3.452922e+03,0.000000e+00
3.453886e+03,0.000000e+00
3.454850e+03,0.000000e+00
3.455814e+03,0.000000e+00
3.456779e+03,0.000000e+00
3.457743e+03,0.000000e+00
3.458707e+03,0.000000e+00
3.459671e+03,0.000000e+00
3.460635e+03,0.000000e+00
3.461600e+03,0.000000e+00
3.462564e+03,0.000000e+00
3.463528e+03,0.000000e+00
3.464492e+03,0.000000e+00
3.465457e+03,0.000000e+00
3.466421e+03,0.000000e+00
3.467385e+03,0.000000e+00
3.468349e+03,0.000000e+00
3.469313e+03,0.000000e+00
3.470278e+03,0.000000e+00
3.471242e+03,0.000000e+00
3.472206e+03,0.000000e+00
3.473170e+03,0.000000e+00
3.474135e+03,0.000000e+00
3.475099e+03,0.000000e+00
3.476063e+03,0.000000e+00
3.477027e+03,0.000000e+00
3.477992e+03,0.000000e+00
3.478956e+03,0.000000e+00
3.479920e+03,0.000000e+00
3.480884e+03,0.000000e+00
3.481849e+03,0.000000e+00
3.482813e+03,0.000000e+00
3.483777e+03,0.000000e+00
3.484741e+03,0.000000e+00
3.485706e+03,0.000000e+00
3.486670e+03,0.000000e+00
3.487634e+03,0.000000e+00
3.488598e+03,0.000000e+00
3.489563e+03,0.000000e+00
3.490527e+03,0.000000e+00
3.491491e+03,0.000000e+00
3.492455e+03,0.000000e+00
3.493419e+03,0.000000e+00
3.494384e+03,0.000000e+00
3.495348e+03,0.000000e+00
3.496312e+03,0.000000e+00
3.497276e+03,0.000000e+00
3.498240e+03,0.000000e+00
3.499205e+03,0.000000e+00
3.500169e+03,0.000000e+00
