9.931763e+01,0.000000e+00
1.002819e+02,0.000000e+00
1.012461e+02,0.000000e+00
1.022103e+02,0.000000e+00
1.031746e+02,0.000000e+00
1.041388e+02,0.000000e+00
1.051030e+02,0.000000e+00
1.060673e+02,0.000000e+00
1.070315e+02,0.000000e+00
1.079957e+02,0.000000e+00
1.089600e+02,0.000000e+00
1.099242e+02,0.000000e+00
1.108884e+02,0.000000e+00
1.118527e+02,0.000000e+00
1.128169e+02,0.000000e+00
1.137811e+02,0.000000e+00
1.147454e+02,0.000000e+00
1.157096e+02,0.000000e+00
1.166738e+02,0.000000e+00
1.176381e+02,0.000000e+00
1.186023e+02,0.000000e+00
1.195665e+02,0.000000e+00
1.205308e+02,0.000000e+00
1.214950e+02,0.000000e+00
1.224592e+02,0.000000e+00
1.234235e+02,0.000000e+00
1.243877e+02,0.000000e+00
1.253519e+02,0.000000e+00
1.263162e+02,0.000000e+00
1.272804e+02,0.000000e+00
1.282446e+02,0.000000e+00
1.292089e+02,0.000000e+00
1.301731e+02,0.000000e+00
1.311373e+02,0.000000e+00
1.321016e+02,0.000000e+00
1.330658e+02,0.000000e+00
1.340300e+02,0.000000e+00
1.349943e+02,0.000000e+00
1.359585e+02,0.000000e+00
1.369227e+02,0.000000e+00
1.378870e+02,0.000000e+00
1.388512e+02,0.000000e+00
1.398154e+02,0.000000e+00
1.407797e+02,0.000000e+00
1.417439e+02,0.000000e+00
1.427081e+02,0.000000e+00
1.436724e+02,0.000000e+00
1.446366e+02,0.000000e+00
1.456008e+02,0.000000e+00
1.465651e+02,0.000000e+00
1.475293e+02,0.000000e+00
1.484935e+02,0.000000e+00
1.494578e+02,0.000000e+00
1.504220e+02,0.000000e+00
1.513862e+02,0.000000e+00
1.523505e+02,0.000000e+00
1.533147e+02,0.000000e+00
1.542789e+02,0.000000e+00
1.552432e+02,0.000000e+00
1.562074e+02,0.000000e+00
1.571716e+02,0.000000e+00
1.581359e+02,0.000000e+00
1.591001e+02,0.000000e+00
1.600643e+02,0.000000e+00
1.610286e+02,0.000000e+00
1.619928e+02,0.000000e+00
1.629570e+02,0.000000e+00
1.639213e+02,0.000000e+00
1.648855e+02,0.000000e+00
1.658497e+02,0.000000e+00
1.668140e+02,0.000000e+00
1.677782e+02,0.000000e+00
1.687424e+02,0.000000e+00
1.697067e+02,0.000000e+00
1.706709e+02,0.000000e+00
1.716351e+02,0.000000e+00
1.725994e+02,0.000000e+00
1.735636e+02,0.000000e+00
1.745278e+02,0.000000e+00
1.754921e+02,0.000000e+00
1.764563e+02,0.000000e+00
1.774205e+02,0.000000e+00
1.783848e+02,0.000000e+00
1.793490e+02,0.000000e+00
1.803132e+02,0.000000e+00
1.812775e+02,0.000000e+00
1.822417e+02,0.000000e+00
1.832059e+02,0.000000e+00
1.841702e+02,0.000000e+00
1.851344e+02,0.000000e+00
1.860986e+02,0.000000e+00
1.870629e+02,0.000000e+00
1.880271e+02,0.000000e+00
1.889913e+02,0.000000e+00
1.899556e+02,0.000000e+00
1.909198e+02,0.000000e+00
1.918840e+02,0.000000e+00
1.928483e+02,0.000000e+00
1.938125e+02,0.000000e+00
1.947767e+02,0.000000e+00
1.957410e+02,0.000000e+00
1.967052e+02,0.000000e+00
1.976694e+02,0.000000e+00
1.986337e+02,0.000000e+00
1.995979e+02,5.204416e+03
2.005621e+02,5.207294e+03
2.015264e+02,5.209845e+03
2.024906e+02,5.209463e+03
2.034548e+02,5.210921e+03
2.044191e+02,5.216010e+03
2.053833e+02,5.222874e+03
2.063475e+02,5.227722e+03
2.073118e+02,5.226452e+03
2.082760e+02,5.216825e+03
2.092402e+02,5.207939e+03
2.102045e+02,5.202087e+03
2.111687e+02,5.199755e+03
2.121329e+02,5.201004e+03
2.130972e+02,5.205247e+03
2.140614e+02,5.210591e+03
2.150256e+02,5.214567e+03
2.159899e+02,5.217318e+03
2.169541e+02,5.219609e+03
2.179183e+02,5.222740e+03
2.188826e+02,5.225991e+03
2.198468e+02,5.228671e+03
2.208110e+02,5.230843e+03
2.217753e+02,5.231771e+03
2.227395e+02,5.228032e+03
2.237037e+02,5.218564e+03
2.246680e+02,5.207725e+03
2.256322e+02,5.198202e+03
2.265964e+02,5.191758e+03
2.275607e+02,5.188846e+03
2.285249e+02,5.190611e+03
2.294892e+02,5.197982e+03
2.304534e+02,5.206054e+03
2.314176e+02,5.207045e+03
2.323819e+02,5.201921e+03
2.333461e+02,5.199763e+03
2.343103e+02,5.208889e+03
2.352746e+02,5.223482e+03
2.362388e+02,5.230500e+03
2.372030e+02,5.223751e+03
2.381673e+02,5.208666e+03
2.391315e+02,5.199223e+03
2.400957e+02,5.202943e+03
2.410600e+02,5.206945e+03
2.420242e+02,5.207480e+03
2.429884e+02,5.206187e+03
2.439527e+02,5.204725e+03
2.449169e+02,5.201599e+03
2.458811e+02,5.195295e+03
2.468454e+02,5.194642e+03
2.478096e+02,5.203850e+03
2.487738e+02,5.215644e+03
2.497381e+02,5.225703e+03
2.507023e+02,5.233137e+03
2.516665e+02,5.238470e+03
2.526308e+02,5.242086e+03
2.535950e+02,5.240386e+03
2.545592e+02,5.236495e+03
2.555235e+02,5.231021e+03
2.564877e+02,5.224822e+03
2.574519e+02,5.219089e+03
2.584161e+02,5.214971e+03
2.593804e+02,5.213274e+03
2.603446e+02,5.214514e+03
2.613088e+02,5.216713e+03
2.622731e+02,5.220963e+03
2.632373e+02,5.230077e+03
2.642015e+02,5.241634e+03
2.651658e+02,5.249479e+03
2.661300e+02,5.246747e+03
2.670942e+02,5.232329e+03
2.680585e+02,5.223451e+03
2.690227e+02,5.230010e+03
2.699869e+02,5.239537e+03
2.709512e+02,5.242197e+03
2.719154e+02,5.233939e+03
2.728796e+02,5.222981e+03
2.738439e+02,5.221144e+03
2.748081e+02,5.231640e+03
2.757723e+02,5.246139e+03
2.767366e+02,5.257372e+03
2.777008e+02,5.263453e+03
2.786650e+02,5.263777e+03
2.796293e+02,5.253959e+03
2.805935e+02,5.241136e+03
2.815577e+02,5.237608e+03
2.825220e+02,5.247244e+03
2.834862e+02,5.261745e+03
2.844504e+02,5.267069e+03
2.854147e+02,5.260811e+03
2.863789e+02,5.253597e+03
2.873431e+02,5.249300e+03
2.883074e+02,5.248026e+03
2.892716e+02,5.248222e+03
2.902358e+02,5.248195e+03
2.912001e+02,5.247268e+03
2.921643e+02,5.244486e+03
2.931285e+02,5.237244e+03
2.940928e+02,5.232742e+03
2.950570e+02,5.234637e+03
2.960212e+02,5.241550e+03
2.969855e+02,5.249002e+03
2.979497e+02,5.253703e+03
2.989139e+02,5.257825e+03
2.998782e+02,5.256431e+03
3.008424e+02,5.245820e+03
3.018066e+02,5.235221e+03
3.027709e+02,5.230780e+03
3.037351e+02,5.235187e+03
3.046993e+02,5.242025e+03
3.056636e+02,5.238836e+03
3.066278e+02,5.220614e+03
3.075920e+02,5.206764e+03
3.085563e+02,5.210454e+03
3.095205e+02,5.226154e+03
3.104847e+02,5.238876e+03
3.114490e+02,5.236265e+03
3.124132e+02,5.224942e+03
3.133774e+02,5.220746e+03
3.143417e+02,5.227271e+03
3.153059e+02,5.235985e+03
3.162701e+02,5.237656e+03
3.172344e+02,5.232011e+03
3.181986e+02,5.226599e+03
3.191628e+02,5.223240e+03
3.201271e+02,5.222067e+03
3.210913e+02,5.223380e+03
3.220555e+02,5.227456e+03
3.230198e+02,5.233179e+03
3.239840e+02,5.235433e+03
3.249482e+02,5.230535e+03
3.259125e+02,5.225428e+03
3.268767e+02,5.222375e+03
3.278409e+02,5.221252e+03
3.288052e+02,5.220747e+03
3.297694e+02,5.218933e+03
3.307336e+02,5.214721e+03
3.316979e+02,5.214563e+03
3.326621e+02,5.225293e+03
3.336263e+02,5.234354e+03
3.345906e+02,5.235462e+03
3.355548e+02,5.228576e+03
3.365190e+02,5.219977e+03
3.374833e+02,5.215161e+03
3.384475e+02,5.213956e+03
3.394117e+02,5.213917e+03
3.403760e+02,5.211955e+03
3.413402e+02,5.209454e+03
3.423044e+02,5.209532e+03
3.432687e+02,5.215800e+03
3.442329e+02,5.222483e+03
3.451971e+02,5.222682e+03
3.461614e+02,5.214875e+03
3.471256e+02,5.203510e+03
3.480898e+02,5.194142e+03
3.490541e+02,5.189539e+03
3.500183e+02,5.183987e+03
3.509825e+02,5.174951e+03
3.519468e+02,5.168796e+03
3.529110e+02,5.170544e+03
3.538752e+02,5.180386e+03
3.548395e+02,5.193576e+03
3.558037e+02,5.203743e+03
3.567680e+02,5.211553e+03
3.577322e+02,5.215002e+03
3.586964e+02,5.213009e+03
3.596607e+02,5.209652e+03
3.606249e+02,5.208053e+03
3.615891e+02,5.208383e+03
3.625534e+02,5.207783e+03
3.635176e+02,5.203067e+03
3.644818e+02,5.194729e+03
3.654461e+02,5.186437e+03
3.664103e+02,5.182423e+03
3.673745e+02,5.184327e+03
3.683388e+02,5.189047e+03
3.693030e+02,5.194163e+03
3.702672e+02,5.198241e+03
3.712315e+02,5.200028e+03
3.721957e+02,5.198604e+03
3.731599e+02,5.195065e+03
3.741242e+02,5.192916e+03
3.750884e+02,5.197457e+03
3.760526e+02,5.202272e+03
3.770169e+02,5.207138e+03
3.779811e+02,5.210763e+03
3.789453e+02,5.211682e+03
3.799096e+02,5.208937e+03
3.808738e+02,5.202092e+03
3.818380e+02,5.190407e+03
3.828023e+02,5.170069e+03
3.837665e+02,5.154873e+03
3.847307e+02,5.148023e+03
3.856950e+02,5.148124e+03
3.866592e+02,5.151672e+03
3.876234e+02,5.158976e+03
3.885877e+02,5.168016e+03
3.895519e+02,5.172861e+03
3.905161e+02,5.171548e+03
3.914804e+02,5.167112e+03
3.924446e+02,5.163094e+03
3.934088e+02,5.160529e+03
3.943731e+02,5.159070e+03
3.953373e+02,5.160479e+03
3.963015e+02,5.162106e+03
3.972658e+02,5.159480e+03
3.982300e+02,5.151247e+03
3.991942e+02,5.141572e+03
4.001585e+02,5.137895e+03
4.011227e+02,5.143318e+03
4.020869e+02,5.147702e+03
4.030512e+02,5.147024e+03
4.040154e+02,5.142778e+03
4.049796e+02,5.138987e+03
4.059439e+02,5.138133e+03
4.069081e+02,5.139287e+03
4.078723e+02,5.139258e+03
4.088366e+02,5.135764e+03
4.098008e+02,5.131238e+03
4.107650e+02,5.130483e+03
4.117293e+02,5.133716e+03
4.126935e+02,5.136967e+03
4.136577e+02,5.138305e+03
4.146220e+02,5.138850e+03
4.155862e+02,5.140598e+03
4.165504e+02,5.144241e+03
4.175147e+02,5.148831e+03
4.184789e+02,5.152579e+03
4.194431e+02,5.155931e+03
4.204074e+02,5.157240e+03
4.213716e+02,5.156082e+03
4.223358e+02,5.152888e+03
4.233001e+02,5.147798e+03
4.242643e+02,5.140901e+03
4.252285e+02,5.133698e+03
4.261928e+02,5.129368e+03
4.271570e+02,5.129925e+03
4.281212e+02,5.130075e+03
4.290855e+02,5.123801e+03
4.300497e+02,5.114134e+03
4.310139e+02,5.109159e+03
4.319782e+02,5.117212e+03
4.329424e+02,5.129707e+03
4.339066e+02,5.135721e+03
4.348709e+02,5.133728e+03
4.358351e+02,5.128226e+03
4.367993e+02,5.123558e+03
4.377636e+02,5.120352e+03
4.387278e+02,5.117421e+03
4.396920e+02,5.118241e+03
4.406563e+02,5.118450e+03
4.416205e+02,5.112487e+03
4.425847e+02,5.098952e+03
4.435490e+02,5.084778e+03
4.445132e+02,5.081125e+03
4.454774e+02,5.091108e+03
4.464417e+02,5.100573e+03
4.474059e+02,5.105516e+03
4.483701e+02,5.106622e+03
4.493344e+02,5.105791e+03
4.502986e+02,5.104788e+03
4.512628e+02,5.102468e+03
4.522271e+02,5.096197e+03
4.531913e+02,5.087001e+03
4.541555e+02,5.079589e+03
4.551198e+02,5.077000e+03
4.560840e+02,5.079511e+03
4.570482e+02,5.078202e+03
4.580125e+02,5.073496e+03
4.589767e+02,5.069144e+03
4.599409e+02,5.063445e+03
4.609052e+02,5.055904e+03
4.618694e+02,5.048870e+03
4.628336e+02,5.046241e+03
4.637979e+02,5.047718e+03
4.647621e+02,5.046768e+03
4.657263e+02,5.043166e+03
4.666906e+02,5.040238e+03
4.676548e+02,5.039799e+03
4.686190e+02,5.042487e+03
4.695833e+02,5.042064e+03
4.705475e+02,5.031574e+03
4.715117e+02,5.017265e+03
4.724760e+02,5.009787e+03
4.734402e+02,5.013447e+03
4.744044e+02,5.023126e+03
4.753687e+02,5.026245e+03
4.763329e+02,5.017971e+03
4.772971e+02,5.010570e+03
4.782614e+02,5.004271e+03
4.792256e+02,5.000638e+03
4.801898e+02,5.001508e+03
4.811541e+02,5.009792e+03
4.821183e+02,5.019964e+03
4.830826e+02,5.024400e+03
4.840468e+02,5.022484e+03
4.850110e+02,5.017299e+03
4.859753e+02,5.010711e+03
4.869395e+02,5.002284e+03
4.879037e+02,4.995032e+03
4.888680e+02,4.989755e+03
4.898322e+02,4.985958e+03
4.907964e+02,4.983312e+03
4.917607e+02,4.982240e+03
4.927249e+02,4.983514e+03
4.936891e+02,4.989762e+03
4.946534e+02,5.001484e+03
4.956176e+02,5.006194e+03
4.965818e+02,4.998466e+03
4.975461e+02,4.988552e+03
4.985103e+02,4.984372e+03
4.994745e+02,4.985921e+03
5.004388e+02,4.988273e+03
5.014030e+02,4.993065e+03
5.023672e+02,4.998349e+03
5.033315e+02,4.999771e+03
5.042957e+02,4.995563e+03
5.052599e+02,4.986768e+03
5.062242e+02,4.976650e+03
5.071884e+02,4.962779e+03
5.081526e+02,4.953591e+03
5.091169e+02,4.951654e+03
5.100811e+02,4.955236e+03
5.110453e+02,4.961796e+03
5.120095e+02,4.973114e+03
5.129738e+02,4.985227e+03
5.139380e+02,4.993288e+03
5.149022e+02,4.997477e+03
5.158665e+02,4.998409e+03
5.168307e+02,4.994027e+03
5.177949e+02,4.982021e+03
5.187592e+02,4.969298e+03
5.197234e+02,4.961053e+03
5.206876e+02,4.954827e+03
5.216519e+02,4.949420e+03
5.226161e+02,4.945356e+03
5.235803e+02,4.943416e+03
5.245446e+02,4.945077e+03
5.255088e+02,4.949636e+03
5.264730e+02,4.952435e+03
5.274373e+02,4.952909e+03
5.284015e+02,4.952284e+03
5.293657e+02,4.951138e+03
5.303300e+02,4.950212e+03
5.312942e+02,4.945603e+03
5.322584e+02,4.935628e+03
5.332227e+02,4.925583e+03
5.341869e+02,4.919146e+03
5.351511e+02,4.916173e+03
5.361154e+02,4.914595e+03
5.370796e+02,4.912256e+03
5.380438e+02,4.909005e+03
5.390081e+02,4.908709e+03
5.399723e+02,4.915356e+03
5.409365e+02,4.924091e+03
5.419008e+02,4.928690e+03
5.428650e+02,4.924702e+03
5.438292e+02,4.920454e+03
5.447935e+02,4.922297e+03
5.457577e+02,4.927328e+03
5.467219e+02,4.929583e+03
5.476862e+02,4.926727e+03
5.486504e+02,4.919671e+03
5.496146e+02,4.911267e+03
5.505789e+02,4.899905e+03
5.515431e+02,4.889221e+03
5.525073e+02,4.881348e+03
5.534716e+02,4.877446e+03
5.544358e+02,4.876673e+03
5.554000e+02,4.877890e+03
5.563643e+02,4.879721e+03
5.573285e+02,4.881337e+03
5.582927e+02,4.882139e+03
5.592570e+02,4.881635e+03
5.602212e+02,4.880023e+03
5.611854e+02,4.876916e+03
5.621497e+02,4.874412e+03
5.631139e+02,4.872048e+03
5.640781e+02,4.868289e+03
5.650424e+02,4.863233e+03
5.660066e+02,4.857977e+03
5.669708e+02,4.854792e+03
5.679351e+02,4.858604e+03
5.688993e+02,4.865362e+03
5.698635e+02,4.866382e+03
5.708278e+02,4.861164e+03
5.717920e+02,4.856045e+03
5.727562e+02,4.855508e+03
5.737205e+02,4.859511e+03
5.746847e+02,4.864255e+03
5.756489e+02,4.873417e+03
5.766132e+02,4.879178e+03
5.775774e+02,4.875511e+03
5.785416e+02,4.862448e+03
5.795059e+02,4.849920e+03
5.804701e+02,4.847567e+03
5.814343e+02,4.852153e+03
5.823986e+02,4.853317e+03
5.833628e+02,4.849188e+03
5.843270e+02,4.842592e+03
5.852913e+02,4.836815e+03
5.862555e+02,4.831711e+03
5.872197e+02,4.827822e+03
5.881840e+02,4.823559e+03
5.891482e+02,4.820361e+03
5.901124e+02,4.820226e+03
5.910767e+02,4.824146e+03
5.920409e+02,4.828547e+03
5.930051e+02,4.829354e+03
5.939694e+02,4.826675e+03
5.949336e+02,4.823015e+03
5.958978e+02,4.818897e+03
5.968621e+02,4.814852e+03
5.978263e+02,4.812431e+03
5.987905e+02,4.814607e+03
5.997548e+02,4.816448e+03
6.007190e+02,4.819943e+03
6.016832e+02,4.823049e+03
6.026475e+02,4.821626e+03
6.036117e+02,4.810161e+03
6.045759e+02,4.797479e+03
6.055402e+02,4.795959e+03
6.065044e+02,4.803619e+03
6.074686e+02,4.808929e+03
6.084329e+02,4.807843e+03
6.093971e+02,4.801708e+03
6.103613e+02,4.794844e+03
6.113256e+02,4.787559e+03
6.122899e+02,4.779650e+03
6.132541e+02,4.767916e+03
6.142183e+02,4.755756e+03
6.151826e+02,4.749346e+03
6.161468e+02,4.759865e+03
6.171110e+02,4.774111e+03
6.180753e+02,4.771604e+03
6.190395e+02,4.753749e+03
6.200037e+02,4.737850e+03
6.209680e+02,4.734308e+03
6.219322e+02,4.743183e+03
6.228964e+02,4.752221e+03
6.238607e+02,4.762574e+03
6.248249e+02,4.770917e+03
6.257891e+02,4.774369e+03
6.267534e+02,4.772792e+03
6.277176e+02,4.769331e+03
6.286818e+02,4.768466e+03
6.296461e+02,4.767198e+03
6.306103e+02,4.760015e+03
6.315745e+02,4.747782e+03
6.325388e+02,4.736766e+03
6.335030e+02,4.730956e+03
6.344672e+02,4.729737e+03
6.354315e+02,4.729954e+03
6.363957e+02,4.733507e+03
6.373599e+02,4.733830e+03
6.383242e+02,4.726996e+03
6.392884e+02,4.714608e+03
6.402526e+02,4.705940e+03
6.412169e+02,4.708905e+03
6.421811e+02,4.713387e+03
6.431453e+02,4.707655e+03
6.441096e+02,4.692330e+03
6.450738e+02,4.678015e+03
6.460380e+02,4.677138e+03
6.470023e+02,4.691124e+03
6.479665e+02,4.700440e+03
6.489307e+02,4.702003e+03
6.498950e+02,4.700484e+03
6.508592e+02,4.698393e+03
6.518234e+02,4.695098e+03
6.527877e+02,4.691336e+03
6.537519e+02,4.686908e+03
6.547161e+02,4.682979e+03
6.556804e+02,4.680671e+03
6.566446e+02,4.680240e+03
6.576088e+02,4.680764e+03
6.585731e+02,4.682708e+03
6.595373e+02,4.685275e+03
6.605015e+02,4.682842e+03
6.614658e+02,4.673432e+03
6.624300e+02,4.663247e+03
6.633942e+02,4.658125e+03
6.643585e+02,4.658990e+03
6.653227e+02,4.662350e+03
6.662869e+02,4.670542e+03
6.672512e+02,4.678015e+03
6.682154e+02,4.681269e+03
6.691796e+02,4.679272e+03
6.701439e+02,4.674966e+03
6.711081e+02,4.670429e+03
6.720723e+02,4.665329e+03
6.730366e+02,4.659396e+03
6.740008e+02,4.653128e+03
6.749650e+02,4.646192e+03
6.759293e+02,4.637320e+03
6.768935e+02,4.624670e+03
6.778577e+02,4.617719e+03
6.788220e+02,4.623107e+03
6.797862e+02,4.631906e+03
6.807504e+02,4.635765e+03
6.817147e+02,4.631792e+03
6.826789e+02,4.629227e+03
6.836431e+02,4.633750e+03
6.846074e+02,4.638457e+03
6.855716e+02,4.636307e+03
6.865358e+02,4.627000e+03
6.875001e+02,4.615894e+03
6.884643e+02,4.608084e+03
6.894285e+02,4.603752e+03
6.903928e+02,4.602709e+03
6.913570e+02,4.606526e+03
6.923212e+02,4.609756e+03
6.932855e+02,4.606489e+03
6.942497e+02,4.592072e+03
6.952139e+02,4.584733e+03
6.961782e+02,4.587717e+03
6.971424e+02,4.594694e+03
6.981066e+02,4.601825e+03
6.990709e+02,4.606584e+03
7.000351e+02,4.605741e+03
7.009993e+02,4.595557e+03
7.019636e+02,4.581667e+03
7.029278e+02,4.575018e+03
7.038920e+02,4.577472e+03
7.048563e+02,4.580880e+03
7.058205e+02,4.574860e+03
7.067847e+02,4.556045e+03
7.077490e+02,4.546163e+03
7.087132e+02,4.553944e+03
7.096774e+02,4.568204e+03
7.106417e+02,4.576751e+03
7.116059e+02,4.577983e+03
7.125701e+02,4.575787e+03
7.135344e+02,4.567151e+03
7.144986e+02,4.559557e+03
7.154628e+02,4.561237e+03
7.164271e+02,4.572309e+03
7.173913e+02,4.582478e+03
7.183555e+02,4.579558e+03
7.193198e+02,4.566190e+03
7.202840e+02,4.557014e+03
7.212482e+02,4.554975e+03
7.222125e+02,4.555917e+03
7.231767e+02,4.554645e+03
7.241409e+02,4.548189e+03
7.251052e+02,4.544085e+03
7.260694e+02,4.543368e+03
7.270336e+02,4.543695e+03
7.279979e+02,4.545727e+03
7.289621e+02,4.549452e+03
7.299263e+02,4.551139e+03
7.308906e+02,4.545669e+03
7.318548e+02,4.538413e+03
7.328190e+02,4.536936e+03
7.337833e+02,4.541577e+03
7.347475e+02,4.546034e+03
7.357117e+02,4.544421e+03
7.366760e+02,4.538112e+03
7.376402e+02,4.533130e+03
7.386044e+02,4.529805e+03
7.395687e+02,4.528373e+03
7.405329e+02,4.528954e+03
7.414971e+02,4.532925e+03
7.424614e+02,4.531603e+03
7.434256e+02,4.521593e+03
7.443898e+02,4.514349e+03
7.453541e+02,4.514488e+03
7.463183e+02,4.519335e+03
7.472825e+02,4.522188e+03
7.482468e+02,4.520894e+03
7.492110e+02,4.516290e+03
7.501752e+02,4.510410e+03
7.511395e+02,4.505148e+03
7.521037e+02,4.500624e+03
7.530679e+02,4.494822e+03
7.540322e+02,4.486960e+03
7.549964e+02,4.479768e+03
7.559606e+02,4.473988e+03
7.569249e+02,4.470054e+03
7.578891e+02,4.468634e+03
7.588533e+02,4.470337e+03
7.598176e+02,4.472693e+03
7.607818e+02,4.473430e+03
7.617460e+02,4.469792e+03
7.627103e+02,4.460233e+03
7.636745e+02,4.448496e+03
7.646387e+02,4.440758e+03
7.656030e+02,4.441225e+03
7.665672e+02,4.444872e+03
7.675314e+02,4.445958e+03
7.684957e+02,4.442513e+03
7.694599e+02,4.436328e+03
7.704241e+02,4.430747e+03
7.713884e+02,4.427272e+03
7.723526e+02,4.426477e+03
7.733168e+02,4.429637e+03
7.742811e+02,4.433644e+03
7.752453e+02,4.434181e+03
7.762095e+02,4.430878e+03
7.771738e+02,4.430411e+03
7.781380e+02,4.435275e+03
7.791022e+02,4.436322e+03
7.800665e+02,4.430771e+03
7.810307e+02,4.422595e+03
7.819949e+02,4.417729e+03
7.829592e+02,4.424541e+03
7.839234e+02,4.430802e+03
7.848876e+02,4.428241e+03
7.858519e+02,4.420068e+03
7.868161e+02,4.412001e+03
7.877803e+02,4.406338e+03
7.887446e+02,4.401884e+03
7.897088e+02,4.397462e+03
7.906730e+02,4.394908e+03
7.916373e+02,4.397072e+03
7.926015e+02,4.403308e+03
7.935657e+02,4.408886e+03
7.945300e+02,4.410575e+03
7.954942e+02,4.411738e+03
7.964584e+02,4.404512e+03
7.974227e+02,4.382267e+03
7.983869e+02,4.361444e+03
7.993511e+02,4.357397e+03
8.003154e+02,4.379772e+03
8.012796e+02,4.392471e+03
8.022438e+02,4.384611e+03
8.032081e+02,4.371127e+03
8.041723e+02,4.364054e+03
8.051365e+02,4.365474e+03
8.061008e+02,4.370144e+03
8.070650e+02,4.375102e+03
8.080292e+02,4.378922e+03
8.089935e+02,4.382313e+03
8.099577e+02,4.386388e+03
8.109219e+02,4.388079e+03
8.118862e+02,4.379774e+03
8.128504e+02,4.362094e+03
8.138146e+02,4.358248e+03
8.147789e+02,4.373846e+03
8.157431e+02,4.387496e+03
8.167073e+02,4.380833e+03
8.176716e+02,4.350504e+03
8.186358e+02,4.332943e+03
8.196000e+02,4.336657e+03
8.205643e+02,4.344829e+03
8.215285e+02,4.350358e+03
8.224927e+02,4.352804e+03
8.234570e+02,4.352938e+03
8.244212e+02,4.347505e+03
8.253854e+02,4.343133e+03
8.263497e+02,4.344957e+03
8.273139e+02,4.349663e+03
8.282781e+02,4.350812e+03
8.292424e+02,4.344685e+03
8.302066e+02,4.336639e+03
8.311708e+02,4.333179e+03
8.321351e+02,4.333425e+03
8.330993e+02,4.332792e+03
8.340635e+02,4.327662e+03
8.350278e+02,4.319642e+03
8.359920e+02,4.315056e+03
8.369562e+02,4.314545e+03
8.379205e+02,4.315009e+03
8.388847e+02,4.315830e+03
8.398489e+02,4.316932e+03
8.408132e+02,4.317381e+03
8.417774e+02,4.316429e+03
8.427416e+02,4.314401e+03
8.437059e+02,4.310475e+03
8.446701e+02,4.306123e+03
8.456343e+02,4.303334e+03
8.465986e+02,4.302857e+03
8.475628e+02,4.301868e+03
8.485270e+02,4.298958e+03
8.494913e+02,4.295176e+03
8.504555e+02,4.291513e+03
8.514197e+02,4.288651e+03
8.523840e+02,4.288781e+03
8.533482e+02,4.296892e+03
8.543124e+02,4.307025e+03
8.552767e+02,4.307237e+03
8.562409e+02,4.295854e+03
8.572051e+02,4.281691e+03
8.581694e+02,4.274903e+03
8.591336e+02,4.275435e+03
8.600978e+02,4.276552e+03
8.610621e+02,4.279568e+03
8.620263e+02,4.279950e+03
8.629905e+02,4.271468e+03
8.639548e+02,4.251648e+03
8.649190e+02,4.240692e+03
8.658832e+02,4.248126e+03
8.668475e+02,4.255837e+03
8.678117e+02,4.253368e+03
8.687759e+02,4.242796e+03
8.697402e+02,4.238081e+03
8.707044e+02,4.242658e+03
8.716686e+02,4.245825e+03
8.726329e+02,4.247616e+03
8.735971e+02,4.248042e+03
8.745613e+02,4.245532e+03
8.755256e+02,4.237054e+03
8.764898e+02,4.230980e+03
8.774540e+02,4.232510e+03
8.784183e+02,4.238721e+03
8.793825e+02,4.246126e+03
8.803467e+02,4.254089e+03
8.813110e+02,4.259166e+03
8.822752e+02,4.256866e+03
8.832394e+02,4.249343e+03
8.842037e+02,4.239566e+03
8.851679e+02,4.226630e+03
8.861321e+02,4.214849e+03
8.870964e+02,4.212722e+03
8.880606e+02,4.220599e+03
8.890248e+02,4.224555e+03
8.899891e+02,4.224779e+03
8.909533e+02,4.222922e+03
8.919175e+02,4.219339e+03
8.928818e+02,4.213710e+03
8.938460e+02,4.207171e+03
8.948102e+02,4.195652e+03
8.957745e+02,4.185498e+03
8.967387e+02,4.181160e+03
8.977029e+02,4.181458e+03
8.986672e+02,4.182484e+03
8.996314e+02,4.191285e+03
9.005956e+02,4.198036e+03
9.015599e+02,4.195972e+03
9.025241e+02,4.187167e+03
9.034883e+02,4.179032e+03
9.044526e+02,4.173856e+03
9.054168e+02,4.168475e+03
9.063810e+02,4.163569e+03
9.073453e+02,4.161313e+03
9.083095e+02,4.162124e+03
9.092737e+02,4.165519e+03
9.102380e+02,4.168119e+03
9.112022e+02,4.166599e+03
9.121664e+02,4.161620e+03
9.131307e+02,4.155436e+03
9.140949e+02,4.149987e+03
9.150591e+02,4.147064e+03
9.160234e+02,4.145888e+03
9.169876e+02,4.144333e+03
9.179518e+02,4.143668e+03
9.189161e+02,4.144640e+03
9.198803e+02,4.144401e+03
9.208445e+02,4.140678e+03
9.218088e+02,4.134165e+03
9.227730e+02,4.130262e+03
9.237372e+02,4.128289e+03
9.247015e+02,4.127548e+03
9.256657e+02,4.128382e+03
9.266299e+02,4.130633e+03
9.275942e+02,4.130544e+03
9.285584e+02,4.125292e+03
9.295226e+02,4.119226e+03
9.304869e+02,4.113037e+03
9.314511e+02,4.108192e+03
9.324153e+02,4.107462e+03
9.333796e+02,4.116706e+03
9.343438e+02,4.123319e+03
9.353080e+02,4.120709e+03
9.362723e+02,4.112364e+03
9.372365e+02,4.105423e+03
9.382007e+02,4.106891e+03
9.391650e+02,4.107170e+03
9.401292e+02,4.095868e+03
9.410934e+02,4.083175e+03
9.420577e+02,4.082970e+03
9.430219e+02,4.099286e+03
9.439861e+02,4.111426e+03
9.449504e+02,4.096156e+03
9.459146e+02,4.074039e+03
9.468788e+02,4.075505e+03
9.478431e+02,4.099577e+03
9.488073e+02,4.120333e+03
9.497715e+02,4.113780e+03
9.507358e+02,4.091671e+03
9.517000e+02,4.078814e+03
9.526642e+02,4.076619e+03
9.536285e+02,4.078578e+03
9.545927e+02,4.080867e+03
9.555569e+02,4.082569e+03
9.565212e+02,4.080030e+03
9.574854e+02,4.074483e+03
9.584496e+02,4.071991e+03
9.594139e+02,4.073418e+03
9.603781e+02,4.076520e+03
9.613423e+02,4.079359e+03
9.623066e+02,4.082891e+03
9.632708e+02,4.082381e+03
9.642350e+02,4.076607e+03
9.651993e+02,4.069258e+03
9.661635e+02,4.063853e+03
9.671277e+02,4.059348e+03
9.680920e+02,4.055915e+03
9.690562e+02,4.054884e+03
9.700204e+02,4.052841e+03
9.709847e+02,4.047893e+03
9.719489e+02,4.040109e+03
9.729131e+02,4.035730e+03
9.738774e+02,4.038210e+03
9.748416e+02,4.042560e+03
9.758058e+02,4.045383e+03
9.767701e+02,4.045840e+03
9.777343e+02,4.046113e+03
9.786985e+02,4.048398e+03
9.796628e+02,4.047451e+03
9.806270e+02,4.039892e+03
9.815912e+02,4.028844e+03
9.825555e+02,4.019857e+03
9.835197e+02,4.018345e+03
9.844839e+02,4.017095e+03
9.854482e+02,4.011794e+03
9.864124e+02,4.006549e+03
9.873766e+02,4.005319e+03
9.883409e+02,4.009823e+03
9.893051e+02,4.015407e+03
9.902693e+02,4.019980e+03
9.912336e+02,4.024070e+03
9.921978e+02,4.026327e+03
9.931620e+02,4.025778e+03
9.941263e+02,4.024457e+03
9.950905e+02,4.024889e+03
9.960547e+02,4.025647e+03
9.970190e+02,4.025642e+03
9.979832e+02,4.023890e+03
9.989474e+02,4.018366e+03
9.999117e+02,4.007655e+03
1.000876e+03,3.996113e+03
1.001840e+03,3.990591e+03
1.002804e+03,3.990343e+03
1.003769e+03,3.989145e+03
1.004733e+03,3.983196e+03
1.005697e+03,3.976374e+03
1.006661e+03,3.976489e+03
1.007626e+03,3.982054e+03
1.008590e+03,3.984526e+03
1.009554e+03,3.981360e+03
1.010518e+03,3.975786e+03
1.011482e+03,3.971641e+03
1.012447e+03,3.968969e+03
1.013411e+03,3.970784e+03
1.014375e+03,3.979663e+03
1.015339e+03,3.986240e+03
1.016304e+03,3.981440e+03
1.017268e+03,3.967391e+03
1.018232e+03,3.959072e+03
1.019196e+03,3.956603e+03
1.020161e+03,3.954333e+03
1.021125e+03,3.950057e+03
1.022089e+03,3.947092e+03
1.023053e+03,3.953273e+03
1.024018e+03,3.970443e+03
1.024982e+03,3.979234e+03
1.025946e+03,3.973039e+03
1.026910e+03,3.959371e+03
1.027875e+03,3.949875e+03
1.028839e+03,3.947099e+03
1.029803e+03,3.947611e+03
1.030767e+03,3.953047e+03
1.031731e+03,3.959175e+03
1.032696e+03,3.962310e+03
1.033660e+03,3.961961e+03
1.034624e+03,3.960852e+03
1.035588e+03,3.960426e+03
1.036552e+03,3.959420e+03
1.037517e+03,3.955031e+03
1.038481e+03,3.947865e+03
1.039445e+03,3.944888e+03
1.040409e+03,3.951700e+03
1.041374e+03,3.953599e+03
1.042338e+03,3.946217e+03
1.043302e+03,3.935728e+03
1.044266e+03,3.929178e+03
1.045231e+03,3.927989e+03
1.046195e+03,3.927115e+03
1.047159e+03,3.929290e+03
1.048123e+03,3.931062e+03
1.049088e+03,3.929476e+03
1.050052e+03,3.925083e+03
1.051016e+03,3.923271e+03
1.051980e+03,3.923699e+03
1.052945e+03,3.926139e+03
1.053909e+03,3.930078e+03
1.054873e+03,3.933184e+03
1.055837e+03,3.933691e+03
1.056802e+03,3.932172e+03
1.057766e+03,3.930058e+03
1.058730e+03,3.927816e+03
1.059694e+03,3.925974e+03
1.060658e+03,3.924399e+03
1.061623e+03,3.923605e+03
1.062587e+03,3.924162e+03
1.063551e+03,3.927052e+03
1.064515e+03,3.931035e+03
1.065479e+03,3.934969e+03
1.066444e+03,3.939621e+03
1.067408e+03,3.943177e+03
1.068372e+03,3.942134e+03
1.069336e+03,3.943111e+03
1.070301e+03,3.948435e+03
1.071265e+03,3.955904e+03
1.072229e+03,3.961720e+03
1.073193e+03,3.964671e+03
1.074158e+03,3.966433e+03
1.075122e+03,3.971892e+03
1.076086e+03,3.974544e+03
1.077050e+03,3.966086e+03
1.078015e+03,3.940464e+03
1.078979e+03,3.921621e+03
1.079943e+03,3.913481e+03
1.080907e+03,3.913097e+03
1.081872e+03,3.921235e+03
1.082836e+03,3.936677e+03
1.083800e+03,3.942824e+03
1.084764e+03,3.926333e+03
1.085729e+03,3.911958e+03
1.086693e+03,3.910606e+03
1.087657e+03,3.919201e+03
1.088621e+03,3.929570e+03
1.089585e+03,3.947720e+03
1.090550e+03,3.956172e+03
1.091514e+03,3.944842e+03
1.092478e+03,3.927865e+03
1.093442e+03,3.920338e+03
1.094406e+03,3.928357e+03
1.095371e+03,3.934851e+03
1.096335e+03,3.935871e+03
1.097299e+03,3.933260e+03
1.098263e+03,3.926641e+03
1.099228e+03,3.916039e+03
1.100192e+03,3.907750e+03
1.101156e+03,3.901615e+03
1.102120e+03,3.898630e+03
1.103085e+03,3.902352e+03
1.104049e+03,3.909413e+03
1.105013e+03,3.913042e+03
1.105977e+03,3.910550e+03
1.106942e+03,3.907518e+03
1.107906e+03,3.903953e+03
1.108870e+03,3.901201e+03
1.109834e+03,3.900452e+03
1.110799e+03,3.902281e+03
1.111763e+03,3.904440e+03
1.112727e+03,3.908074e+03
1.113691e+03,3.911874e+03
1.114656e+03,3.913950e+03
1.115620e+03,3.914669e+03
1.116584e+03,3.917094e+03
1.117548e+03,3.926719e+03
1.118512e+03,3.928453e+03
1.119477e+03,3.911319e+03
1.120441e+03,3.887321e+03
1.121405e+03,3.875313e+03
1.122369e+03,3.889365e+03
1.123334e+03,3.894544e+03
1.124298e+03,3.886103e+03
1.125262e+03,3.874220e+03
1.126226e+03,3.864558e+03
1.127191e+03,3.856830e+03
1.128155e+03,3.856734e+03
1.129119e+03,3.868892e+03
1.130083e+03,3.880450e+03
1.131047e+03,3.885789e+03
1.132012e+03,3.886006e+03
1.132976e+03,3.887814e+03
1.133940e+03,3.893738e+03
1.134904e+03,3.895527e+03
1.135869e+03,3.891372e+03
1.136833e+03,3.885680e+03
1.137797e+03,3.883263e+03
1.138761e+03,3.886370e+03
1.139726e+03,3.889554e+03
1.140690e+03,3.893781e+03
1.141654e+03,3.894021e+03
1.142618e+03,3.884798e+03
1.143583e+03,3.868512e+03
1.144547e+03,3.863373e+03
1.145511e+03,3.872612e+03
1.146475e+03,3.879765e+03
1.147439e+03,3.878724e+03
1.148404e+03,3.875417e+03
1.149368e+03,3.880573e+03
1.150332e+03,3.895097e+03
1.151296e+03,3.903219e+03
1.152261e+03,3.900813e+03
1.153225e+03,3.893356e+03
1.154189e+03,3.888307e+03
1.155153e+03,3.886726e+03
1.156118e+03,3.882647e+03
1.157082e+03,3.877121e+03
1.158046e+03,3.878636e+03
1.159010e+03,3.891379e+03
1.159974e+03,3.908340e+03
1.160939e+03,3.914485e+03
1.161903e+03,3.910409e+03
1.162867e+03,3.905203e+03
1.163831e+03,3.900455e+03
1.164796e+03,3.895353e+03
1.165760e+03,3.890234e+03
1.166724e+03,3.885533e+03
1.167688e+03,3.880460e+03
1.168653e+03,3.875247e+03
1.169617e+03,3.871339e+03
1.170581e+03,3.872745e+03
1.171545e+03,3.873393e+03
1.172510e+03,3.860494e+03
1.173474e+03,3.840233e+03
1.174438e+03,3.825789e+03
1.175402e+03,3.820886e+03
1.176366e+03,3.820121e+03
1.177331e+03,3.820727e+03
1.178295e+03,3.822489e+03
1.179259e+03,3.826219e+03
1.180223e+03,3.830150e+03
1.181188e+03,3.828808e+03
1.182152e+03,3.814237e+03
1.183116e+03,3.798399e+03
1.184080e+03,3.790986e+03
1.185045e+03,3.789537e+03
1.186009e+03,3.788424e+03
1.186973e+03,3.787230e+03
1.187937e+03,3.786106e+03
1.188901e+03,3.781159e+03
1.189866e+03,3.778113e+03
1.190830e+03,3.782699e+03
1.191794e+03,3.794828e+03
1.192758e+03,3.803614e+03
1.193723e+03,3.808132e+03
1.194687e+03,3.810695e+03
1.195651e+03,3.810361e+03
1.196615e+03,3.807918e+03
1.197580e+03,3.805461e+03
1.198544e+03,3.801253e+03
1.199508e+03,3.794193e+03
1.200472e+03,3.783651e+03
1.201437e+03,3.774692e+03
1.202401e+03,3.773097e+03
1.203365e+03,3.781438e+03
1.204329e+03,3.783726e+03
1.205293e+03,3.775917e+03
1.206258e+03,3.770833e+03
1.207222e+03,3.774143e+03
1.208186e+03,3.782885e+03
1.209150e+03,3.790249e+03
1.210115e+03,3.795477e+03
1.211079e+03,3.794298e+03
1.212043e+03,3.785469e+03
1.213007e+03,3.774176e+03
1.213972e+03,3.767698e+03
1.214936e+03,3.766147e+03
1.215900e+03,3.764928e+03
1.216864e+03,3.763853e+03
1.217828e+03,3.759392e+03
1.218793e+03,3.747167e+03
1.219757e+03,3.734264e+03
1.220721e+03,3.733983e+03
1.221685e+03,3.742958e+03
1.222650e+03,3.752006e+03
1.223614e+03,3.757755e+03
1.224578e+03,3.757962e+03
1.225542e+03,3.746862e+03
1.226507e+03,3.734215e+03
1.227471e+03,3.732310e+03
1.228435e+03,3.738483e+03
1.229399e+03,3.741708e+03
1.230364e+03,3.736263e+03
1.231328e+03,3.728880e+03
1.232292e+03,3.724721e+03
1.233256e+03,3.722857e+03
1.234220e+03,3.719748e+03
1.235185e+03,3.714958e+03
1.236149e+03,3.711283e+03
1.237113e+03,3.708365e+03
1.238077e+03,3.708531e+03
1.239042e+03,3.710554e+03
1.240006e+03,3.713114e+03
1.240970e+03,3.719127e+03
1.241934e+03,3.735315e+03
1.242899e+03,3.742289e+03
1.243863e+03,3.734191e+03
1.244827e+03,3.719538e+03
1.245791e+03,3.708309e+03
1.246755e+03,3.700117e+03
1.247720e+03,3.698933e+03
1.248684e+03,3.706839e+03
1.249648e+03,3.714433e+03
1.250612e+03,3.715387e+03
1.251577e+03,3.710517e+03
1.252541e+03,3.701618e+03
1.253505e+03,3.689446e+03
1.254469e+03,3.683864e+03
1.255434e+03,3.688822e+03
1.256398e+03,3.698331e+03
1.257362e+03,3.707143e+03
1.258326e+03,3.712875e+03
1.259291e+03,3.710145e+03
1.260255e+03,3.699804e+03
1.261219e+03,3.690306e+03
1.262183e+03,3.692118e+03
1.263147e+03,3.695700e+03
1.264112e+03,3.691249e+03
1.265076e+03,3.684029e+03
1.266040e+03,3.681888e+03
1.267004e+03,3.688996e+03
1.267969e+03,3.693818e+03
1.268933e+03,3.691077e+03
1.269897e+03,3.689708e+03
1.270861e+03,3.692573e+03
1.271826e+03,3.696915e+03
1.272790e+03,3.701345e+03
1.273754e+03,3.709533e+03
1.274718e+03,3.713761e+03
1.275682e+03,3.713197e+03
1.276647e+03,3.710801e+03
1.277611e+03,3.709457e+03
1.278575e+03,3.709212e+03
1.279539e+03,3.704321e+03
1.280504e+03,3.695745e+03
1.281468e+03,3.690478e+03
1.282432e+03,3.692499e+03
1.283396e+03,3.698441e+03
1.284361e+03,3.699036e+03
1.285325e+03,3.695165e+03
1.286289e+03,3.694064e+03
1.287253e+03,3.697380e+03
1.288218e+03,3.702094e+03
1.289182e+03,3.709067e+03
1.290146e+03,3.714613e+03
1.291110e+03,3.713564e+03
1.292074e+03,3.707367e+03
1.293039e+03,3.700472e+03
1.294003e+03,3.694589e+03
1.294967e+03,3.687372e+03
1.295931e+03,3.674984e+03
1.296896e+03,3.664541e+03
1.297860e+03,3.663815e+03
1.298824e+03,3.675676e+03
1.299788e+03,3.685360e+03
1.300753e+03,3.688535e+03
1.301717e+03,3.693896e+03
1.302681e+03,3.706791e+03
1.303645e+03,3.723487e+03
1.304609e+03,3.733644e+03
1.305574e+03,3.735400e+03
1.306538e+03,3.731603e+03
1.307502e+03,3.723461e+03
1.308466e+03,3.716638e+03
1.309431e+03,3.716017e+03
1.310395e+03,3.720203e+03
1.311359e+03,3.724418e+03
1.312323e+03,3.727135e+03
1.313288e+03,3.728459e+03
1.314252e+03,3.730616e+03
1.315216e+03,3.732688e+03
1.316180e+03,3.730647e+03
1.317145e+03,3.728092e+03
1.318109e+03,3.727210e+03
1.319073e+03,3.727254e+03
1.320037e+03,3.731385e+03
1.321001e+03,3.750426e+03
1.321966e+03,3.763515e+03
1.322930e+03,3.760016e+03
1.323894e+03,3.747812e+03
1.324858e+03,3.739494e+03
1.325823e+03,3.737125e+03
1.326787e+03,3.733040e+03
1.327751e+03,3.724485e+03
1.328715e+03,3.717362e+03
1.329680e+03,3.716886e+03
1.330644e+03,3.721383e+03
1.331608e+03,3.722157e+03
1.332572e+03,3.719246e+03
1.333536e+03,3.717582e+03
1.334501e+03,3.718017e+03
1.335465e+03,3.718602e+03
1.336429e+03,3.721522e+03
1.337393e+03,3.723528e+03
1.338358e+03,3.716635e+03
1.339322e+03,3.702784e+03
1.340286e+03,3.691421e+03
1.341250e+03,3.691031e+03
1.342215e+03,3.689225e+03
1.343179e+03,3.682721e+03
1.344143e+03,3.674397e+03
1.345107e+03,3.664266e+03
1.346072e+03,3.649988e+03
1.347036e+03,3.638543e+03
1.348000e+03,3.628370e+03
1.348964e+03,3.622360e+03
1.349928e+03,3.624672e+03
1.350893e+03,3.631304e+03
1.351857e+03,3.629388e+03
1.352821e+03,3.618528e+03
1.353785e+03,3.608403e+03
1.354750e+03,3.599730e+03
1.355714e+03,3.595869e+03
1.356678e+03,3.607918e+03
1.357642e+03,3.624507e+03
1.358607e+03,3.623584e+03
1.359571e+03,3.611671e+03
1.360535e+03,3.604659e+03
1.361499e+03,3.610013e+03
1.362464e+03,3.616514e+03
1.363428e+03,3.621231e+03
1.364392e+03,3.624682e+03
1.365356e+03,3.625437e+03
1.366320e+03,3.621844e+03
1.367285e+03,3.614695e+03
1.368249e+03,3.602184e+03
1.369213e+03,3.594778e+03
1.370177e+03,3.595688e+03
1.371142e+03,3.599498e+03
1.372106e+03,3.600602e+03
1.373070e+03,3.599130e+03
1.374034e+03,3.595014e+03
1.374999e+03,3.589594e+03
1.375963e+03,3.586886e+03
1.376927e+03,3.589480e+03
1.377891e+03,3.593396e+03
1.378855e+03,3.593603e+03
1.379820e+03,3.592118e+03
1.380784e+03,3.592274e+03
1.381748e+03,3.595513e+03
1.382712e+03,3.598027e+03
1.383677e+03,3.597265e+03
1.384641e+03,3.593250e+03
1.385605e+03,3.582935e+03
1.386569e+03,3.570861e+03
1.387534e+03,3.565111e+03
1.388498e+03,3.567569e+03
1.389462e+03,3.568187e+03
1.390426e+03,3.565595e+03
1.391391e+03,3.561429e+03
1.392355e+03,3.557835e+03
1.393319e+03,3.554593e+03
1.394283e+03,3.548510e+03
1.395247e+03,3.540963e+03
1.396212e+03,3.536328e+03
1.397176e+03,3.535735e+03
1.398140e+03,3.537022e+03
1.399104e+03,3.539103e+03
1.400069e+03,3.540932e+03
1.401033e+03,3.543038e+03
1.401997e+03,3.544541e+03
1.402961e+03,3.543153e+03
1.403926e+03,3.537499e+03
1.404890e+03,3.530988e+03
1.405854e+03,3.523363e+03
1.406818e+03,3.518365e+03
1.407782e+03,3.519782e+03
1.408747e+03,3.526461e+03
1.409711e+03,3.531658e+03
1.410675e+03,3.533340e+03
1.411639e+03,3.529996e+03
1.412604e+03,3.521047e+03
1.413568e+03,3.514137e+03
1.414532e+03,3.519168e+03
1.415496e+03,3.528185e+03
1.416461e+03,3.535494e+03
1.417425e+03,3.538483e+03
1.418389e+03,3.533619e+03
1.419353e+03,3.509445e+03
1.420318e+03,3.495028e+03
1.421282e+03,3.497929e+03
1.422246e+03,3.505018e+03
1.423210e+03,3.504952e+03
1.424174e+03,3.499515e+03
1.425139e+03,3.498496e+03
1.426103e+03,3.500161e+03
1.427067e+03,3.496840e+03
1.428031e+03,3.485034e+03
1.428996e+03,3.475493e+03
1.429960e+03,3.482325e+03
1.430924e+03,3.492633e+03
1.431888e+03,3.493360e+03
1.432853e+03,3.485215e+03
1.433817e+03,3.476104e+03
1.434781e+03,3.464352e+03
1.435745e+03,3.458803e+03
1.436709e+03,3.460757e+03
1.437674e+03,3.465338e+03
1.438638e+03,3.470472e+03
1.439602e+03,3.476834e+03
1.440566e+03,3.480910e+03
1.441531e+03,3.482362e+03
1.442495e+03,3.481502e+03
1.443459e+03,3.477642e+03
1.444423e+03,3.472379e+03
1.445388e+03,3.466169e+03
1.446352e+03,3.459002e+03
1.447316e+03,3.451026e+03
1.448280e+03,3.444207e+03
1.449245e+03,3.441196e+03
1.450209e+03,3.442647e+03
1.451173e+03,3.448657e+03
1.452137e+03,3.461416e+03
1.453101e+03,3.470941e+03
1.454066e+03,3.467341e+03
1.455030e+03,3.452936e+03
1.455994e+03,3.445018e+03
1.456958e+03,3.442818e+03
1.457923e+03,3.441557e+03
1.458887e+03,3.438288e+03
1.459851e+03,3.435936e+03
1.460815e+03,3.440379e+03
1.461780e+03,3.443407e+03
1.462744e+03,3.437753e+03
1.463708e+03,3.425201e+03
1.464672e+03,3.415980e+03
1.465636e+03,3.413893e+03
1.466601e+03,3.412219e+03
1.467565e+03,3.409784e+03
1.468529e+03,3.408266e+03
1.469493e+03,3.408975e+03
1.470458e+03,3.410316e+03
1.471422e+03,3.408198e+03
1.472386e+03,3.404675e+03
1.473350e+03,3.405771e+03
1.474315e+03,3.414524e+03
1.475279e+03,3.420926e+03
1.476243e+03,3.413970e+03
1.477207e+03,3.405420e+03
1.478172e+03,3.408164e+03
1.479136e+03,3.418884e+03
1.480100e+03,3.419639e+03
1.481064e+03,3.408252e+03
1.482028e+03,3.396104e+03
1.482993e+03,3.384411e+03
1.483957e+03,3.376326e+03
1.484921e+03,3.375641e+03
1.485885e+03,3.378721e+03
1.486850e+03,3.377465e+03
1.487814e+03,3.373535e+03
1.488778e+03,3.373718e+03
1.489742e+03,3.382985e+03
1.490707e+03,3.386818e+03
1.491671e+03,3.374908e+03
1.492635e+03,3.367070e+03
1.493599e+03,3.372600e+03
1.494563e+03,3.385093e+03
1.495528e+03,3.389571e+03
1.496492e+03,3.385746e+03
1.497456e+03,3.381233e+03
1.498420e+03,3.378055e+03
1.499385e+03,3.375909e+03
1.500349e+03,3.377889e+03
1.501313e+03,3.377655e+03
1.502277e+03,3.360874e+03
1.503242e+03,3.340970e+03
1.504206e+03,3.340233e+03
1.505170e+03,3.370742e+03
1.506134e+03,3.384230e+03
1.507099e+03,3.376001e+03
1.508063e+03,3.363887e+03
1.509027e+03,3.353589e+03
1.509991e+03,3.345112e+03
1.510955e+03,3.338717e+03
1.511920e+03,3.334248e+03
1.512884e+03,3.332588e+03
1.513848e+03,3.334674e+03
1.514812e+03,3.338279e+03
1.515777e+03,3.340107e+03
1.516741e+03,3.341150e+03
1.517705e+03,3.342083e+03
1.518669e+03,3.341347e+03
1.519634e+03,3.337295e+03
1.520598e+03,3.329825e+03
1.521562e+03,3.329661e+03
1.522526e+03,3.335337e+03
1.523490e+03,3.337909e+03
1.524455e+03,3.334748e+03
1.525419e+03,3.328311e+03
1.526383e+03,3.317901e+03
1.527347e+03,3.308241e+03
1.528312e+03,3.305713e+03
1.529276e+03,3.310178e+03
1.530240e+03,3.314438e+03
1.531204e+03,3.316554e+03
1.532169e+03,3.318850e+03
1.533133e+03,3.321553e+03
1.534097e+03,3.324485e+03
1.535061e+03,3.328124e+03
1.536026e+03,3.330408e+03
1.536990e+03,3.326364e+03
1.537954e+03,3.320039e+03
1.538918e+03,3.320240e+03
1.539882e+03,3.330218e+03
1.540847e+03,3.333496e+03
1.541811e+03,3.315806e+03
1.542775e+03,3.302042e+03
1.543739e+03,3.302226e+03
1.544704e+03,3.308710e+03
1.545668e+03,3.306907e+03
1.546632e+03,3.299696e+03
1.547596e+03,3.299664e+03
1.548561e+03,3.306354e+03
1.549525e+03,3.312799e+03
1.550489e+03,3.313728e+03
1.551453e+03,3.313429e+03
1.552417e+03,3.313704e+03
1.553382e+03,3.313485e+03
1.554346e+03,3.313386e+03
1.555310e+03,3.313579e+03
1.556274e+03,3.308704e+03
1.557239e+03,3.298687e+03
1.558203e+03,3.293503e+03
1.559167e+03,3.295751e+03
1.560131e+03,3.300747e+03
1.561096e+03,3.306297e+03
1.562060e+03,3.311885e+03
1.563024e+03,3.318051e+03
1.563988e+03,3.323273e+03
1.564953e+03,3.323959e+03
1.565917e+03,3.318774e+03
1.566881e+03,3.311851e+03
1.567845e+03,3.301825e+03
1.568809e+03,3.295007e+03
1.569774e+03,3.296081e+03
1.570738e+03,3.300759e+03
1.571702e+03,3.306563e+03
1.572666e+03,3.310053e+03
1.573631e+03,3.305297e+03
1.574595e+03,3.292903e+03
1.575559e+03,3.284470e+03
1.576523e+03,3.280098e+03
1.577488e+03,3.283839e+03
1.578452e+03,3.296932e+03
1.579416e+03,3.309218e+03
1.580380e+03,3.309710e+03
1.581344e+03,3.303453e+03
1.582309e+03,3.298744e+03
1.583273e+03,3.296177e+03
1.584237e+03,3.296130e+03
1.585201e+03,3.302111e+03
1.586166e+03,3.301254e+03
1.587130e+03,3.287691e+03
1.588094e+03,3.273860e+03
1.589058e+03,3.265559e+03
1.590023e+03,3.261876e+03
1.590987e+03,3.262579e+03
1.591951e+03,3.265806e+03
1.592915e+03,3.262855e+03
1.593880e+03,3.252362e+03
1.594844e+03,3.243355e+03
1.595808e+03,3.239057e+03
1.596772e+03,3.239221e+03
1.597736e+03,3.247383e+03
1.598701e+03,3.256173e+03
1.599665e+03,3.258494e+03
1.600629e+03,3.255446e+03
1.601593e+03,3.249161e+03
1.602558e+03,3.241650e+03
1.603522e+03,3.240283e+03
1.604486e+03,3.248378e+03
1.605450e+03,3.253748e+03
1.606415e+03,3.248718e+03
1.607379e+03,3.245781e+03
1.608343e+03,3.249762e+03
1.609307e+03,3.256822e+03
1.610271e+03,3.261824e+03
1.611236e+03,3.263979e+03
1.612200e+03,3.260325e+03
1.613164e+03,3.252655e+03
1.614128e+03,3.246653e+03
1.615093e+03,3.246623e+03
1.616057e+03,3.245160e+03
1.617021e+03,3.238979e+03
1.617985e+03,3.229227e+03
1.618950e+03,3.216063e+03
1.619914e+03,3.201439e+03
1.620878e+03,3.192525e+03
1.621842e+03,3.188836e+03
1.622807e+03,3.188144e+03
1.623771e+03,3.190595e+03
1.624735e+03,3.190795e+03
1.625699e+03,3.179358e+03
1.626663e+03,3.170839e+03
1.627628e+03,3.171748e+03
1.628592e+03,3.173887e+03
1.629556e+03,3.167397e+03
1.630520e+03,3.156266e+03
1.631485e+03,3.158136e+03
1.632449e+03,3.169184e+03
1.633413e+03,3.173297e+03
1.634377e+03,3.161118e+03
1.635342e+03,3.150426e+03
1.636306e+03,3.150808e+03
1.637270e+03,3.151509e+03
1.638234e+03,3.147132e+03
1.639198e+03,3.140568e+03
1.640163e+03,3.137042e+03
1.641127e+03,3.136505e+03
1.642091e+03,3.136134e+03
1.643055e+03,3.134719e+03
1.644020e+03,3.134122e+03
1.644984e+03,3.136884e+03
1.645948e+03,3.135831e+03
1.646912e+03,3.127903e+03
1.647877e+03,3.121091e+03
1.648841e+03,3.125560e+03
1.649805e+03,3.135205e+03
1.650769e+03,3.124046e+03
1.651734e+03,3.101479e+03
1.652698e+03,3.093607e+03
1.653662e+03,3.108452e+03
1.654626e+03,3.118131e+03
1.655590e+03,3.114949e+03
1.656555e+03,3.106596e+03
1.657519e+03,3.094530e+03
1.658483e+03,3.083899e+03
1.659447e+03,3.079451e+03
1.660412e+03,3.079065e+03
1.661376e+03,3.083246e+03
1.662340e+03,3.091216e+03
1.663304e+03,3.098288e+03
1.664269e+03,3.103284e+03
1.665233e+03,3.102025e+03
1.666197e+03,3.091402e+03
1.667161e+03,3.082066e+03
1.668125e+03,3.082232e+03
1.669090e+03,3.084046e+03
1.670054e+03,3.072601e+03
1.671018e+03,3.057240e+03
1.671982e+03,3.051869e+03
1.672947e+03,3.057578e+03
1.673911e+03,3.061229e+03
1.674875e+03,3.059195e+03
1.675839e+03,3.061560e+03
1.676804e+03,3.071825e+03
1.677768e+03,3.082178e+03
1.678732e+03,3.087498e+03
1.679696e+03,3.085187e+03
1.680661e+03,3.064815e+03
1.681625e+03,3.038317e+03
1.682589e+03,3.025774e+03
1.683553e+03,3.029036e+03
1.684517e+03,3.033070e+03
1.685482e+03,3.037466e+03
1.686446e+03,3.044142e+03
1.687410e+03,3.054622e+03
1.688374e+03,3.061031e+03
1.689339e+03,3.052012e+03
1.690303e+03,3.042534e+03
1.691267e+03,3.043632e+03
1.692231e+03,3.048926e+03
1.693196e+03,3.045392e+03
1.694160e+03,3.033760e+03
1.695124e+03,3.025809e+03
1.696088e+03,3.022331e+03
1.697052e+03,3.021482e+03
1.698017e+03,3.020749e+03
1.698981e+03,3.021053e+03
1.699945e+03,3.023499e+03
1.700909e+03,3.022667e+03
1.701874e+03,3.017105e+03
1.702838e+03,3.011102e+03
1.703802e+03,3.011657e+03
1.704766e+03,3.013721e+03
1.705731e+03,3.009075e+03
1.706695e+03,2.998158e+03
1.707659e+03,2.993613e+03
1.708623e+03,3.002208e+03
1.709588e+03,3.008051e+03
1.710552e+03,3.007536e+03
1.711516e+03,3.002840e+03
1.712480e+03,2.992881e+03
1.713444e+03,2.983729e+03
1.714409e+03,2.988093e+03
1.715373e+03,2.996476e+03
1.716337e+03,2.990294e+03
1.717301e+03,2.969750e+03
1.718266e+03,2.968941e+03
1.719230e+03,2.986679e+03
1.720194e+03,3.003296e+03
1.721158e+03,3.013534e+03
1.722123e+03,3.015976e+03
1.723087e+03,3.003400e+03
1.724051e+03,2.990012e+03
1.725015e+03,2.983198e+03
1.725979e+03,2.980770e+03
1.726944e+03,2.979379e+03
1.727908e+03,2.978446e+03
1.728872e+03,2.974003e+03
1.729836e+03,2.966723e+03
1.730801e+03,2.963198e+03
1.731765e+03,2.969851e+03
1.732729e+03,2.972620e+03
1.733693e+03,2.969154e+03
1.734658e+03,2.965281e+03
1.735622e+03,2.963518e+03
1.736586e+03,2.961758e+03
1.737550e+03,2.955678e+03
1.738515e+03,2.949060e+03
1.739479e+03,2.949554e+03
1.740443e+03,2.954439e+03
1.741407e+03,2.946280e+03
1.742371e+03,2.922415e+03
1.743336e+03,2.913340e+03
1.744300e+03,2.920933e+03
1.745264e+03,2.927671e+03
1.746228e+03,2.921042e+03
1.747193e+03,2.915018e+03
1.748157e+03,2.919353e+03
1.749121e+03,2.926932e+03
1.750085e+03,2.929767e+03
1.751050e+03,2.927291e+03
1.752014e+03,2.927089e+03
1.752978e+03,2.928151e+03
1.753942e+03,2.925536e+03
1.754906e+03,2.917808e+03
1.755871e+03,2.910730e+03
1.756835e+03,2.904860e+03
1.757799e+03,2.894786e+03
1.758763e+03,2.881401e+03
1.759728e+03,2.872609e+03
1.760692e+03,2.878544e+03
1.761656e+03,2.888833e+03
1.762620e+03,2.894993e+03
1.763585e+03,2.895585e+03
1.764549e+03,2.887371e+03
1.765513e+03,2.869743e+03
1.766477e+03,2.868487e+03
1.767442e+03,2.881216e+03
1.768406e+03,2.888475e+03
1.769370e+03,2.883952e+03
1.770334e+03,2.878646e+03
1.771298e+03,2.875833e+03
1.772263e+03,2.872030e+03
1.773227e+03,2.867104e+03
1.774191e+03,2.861580e+03
1.775155e+03,2.853470e+03
1.776120e+03,2.845984e+03
1.777084e+03,2.846809e+03
1.778048e+03,2.852854e+03
1.779012e+03,2.854286e+03
1.779977e+03,2.849579e+03
1.780941e+03,2.849183e+03
1.781905e+03,2.851687e+03
1.782869e+03,2.851324e+03
1.783833e+03,2.844390e+03
1.784798e+03,2.839081e+03
1.785762e+03,2.842804e+03
1.786726e+03,2.846084e+03
1.787690e+03,2.845132e+03
1.788655e+03,2.841210e+03
1.789619e+03,2.832412e+03
1.790583e+03,2.823161e+03
1.791547e+03,2.824949e+03
1.792512e+03,2.835288e+03
1.793476e+03,2.836355e+03
1.794440e+03,2.818495e+03
1.795404e+03,2.816159e+03
1.796369e+03,2.830719e+03
1.797333e+03,2.837874e+03
1.798297e+03,2.815494e+03
1.799261e+03,2.797134e+03
1.800225e+03,2.814183e+03
1.801190e+03,2.833075e+03
1.802154e+03,2.831527e+03
1.803118e+03,2.817776e+03
1.804082e+03,2.816492e+03
1.805047e+03,2.821836e+03
1.806011e+03,2.816469e+03
1.806975e+03,2.799669e+03
1.807939e+03,2.789377e+03
1.808904e+03,2.787971e+03
1.809868e+03,2.789111e+03
1.810832e+03,2.793294e+03
1.811796e+03,2.796259e+03
1.812760e+03,2.793129e+03
1.813725e+03,2.788619e+03
1.814689e+03,2.783805e+03
1.815653e+03,2.781712e+03
1.816617e+03,2.787188e+03
1.817582e+03,2.795266e+03
1.818546e+03,2.786307e+03
1.819510e+03,2.767569e+03
1.820474e+03,2.754049e+03
1.821439e+03,2.749056e+03
1.822403e+03,2.755207e+03
1.823367e+03,2.777423e+03
1.824331e+03,2.783113e+03
1.825296e+03,2.765676e+03
1.826260e+03,2.748459e+03
1.827224e+03,2.757764e+03
1.828188e+03,2.767711e+03
1.829152e+03,2.758972e+03
1.830117e+03,2.746577e+03
1.831081e+03,2.742272e+03
1.832045e+03,2.743143e+03
1.833009e+03,2.745302e+03
1.833974e+03,2.749722e+03
1.834938e+03,2.755029e+03
1.835902e+03,2.760040e+03
1.836866e+03,2.753008e+03
1.837831e+03,2.732099e+03
1.838795e+03,2.724900e+03
1.839759e+03,2.739015e+03
1.840723e+03,2.753098e+03
1.841688e+03,2.749520e+03
1.842652e+03,2.743708e+03
1.843616e+03,2.739111e+03
1.844580e+03,2.734940e+03
1.845544e+03,2.734693e+03
1.846509e+03,2.734095e+03
1.847473e+03,2.721151e+03
1.848437e+03,2.702852e+03
1.849401e+03,2.692314e+03
1.850366e+03,2.690271e+03
1.851330e+03,2.693188e+03
1.852294e+03,2.700722e+03
1.853258e+03,2.700388e+03
1.854223e+03,2.687613e+03
1.855187e+03,2.681684e+03
1.856151e+03,2.697614e+03
1.857115e+03,2.708481e+03
1.858079e+03,2.708274e+03
1.859044e+03,2.702440e+03
1.860008e+03,2.695993e+03
1.860972e+03,2.690026e+03
1.861936e+03,2.684002e+03
1.862901e+03,2.679969e+03
1.863865e+03,2.680031e+03
1.864829e+03,2.681610e+03
1.865793e+03,2.676425e+03
1.866758e+03,2.668060e+03
1.867722e+03,2.665345e+03
1.868686e+03,2.671496e+03
1.869650e+03,2.672910e+03
1.870615e+03,2.666802e+03
1.871579e+03,2.661522e+03
1.872543e+03,2.660434e+03
1.873507e+03,2.662957e+03
1.874471e+03,2.669891e+03
1.875436e+03,2.672475e+03
1.876400e+03,2.666932e+03
1.877364e+03,2.658986e+03
1.878328e+03,2.654407e+03
1.879293e+03,2.651937e+03
1.880257e+03,2.648805e+03
1.881221e+03,2.644817e+03
1.882185e+03,2.641419e+03
1.883150e+03,2.639325e+03
1.884114e+03,2.637476e+03
1.885078e+03,2.635377e+03
1.886042e+03,2.635589e+03
1.887006e+03,2.639525e+03
1.887971e+03,2.639063e+03
1.888935e+03,2.631202e+03
1.889899e+03,2.623987e+03
1.890863e+03,2.617421e+03
1.891828e+03,2.612014e+03
1.892792e+03,2.609543e+03
1.893756e+03,2.609740e+03
1.894720e+03,2.620677e+03
1.895685e+03,2.631276e+03
1.896649e+03,2.622303e+03
1.897613e+03,2.601491e+03
1.898577e+03,2.602109e+03
1.899542e+03,2.614383e+03
1.900506e+03,2.614580e+03
1.901470e+03,2.597181e+03
1.902434e+03,2.588445e+03
1.903398e+03,2.588236e+03
1.904363e+03,2.591006e+03
1.905327e+03,2.596144e+03
1.906291e+03,2.598541e+03
1.907255e+03,2.588679e+03
1.908220e+03,2.584668e+03
1.909184e+03,2.591513e+03
1.910148e+03,2.597755e+03
1.911112e+03,2.591362e+03
1.912077e+03,2.582527e+03
1.913041e+03,2.581767e+03
1.914005e+03,2.581039e+03
1.914969e+03,2.569514e+03
1.915933e+03,2.551877e+03
1.916898e+03,2.542844e+03
1.917862e+03,2.541882e+03
1.918826e+03,2.549779e+03
1.919790e+03,2.567684e+03
1.920755e+03,2.570900e+03
1.921719e+03,2.558725e+03
1.922683e+03,2.549050e+03
1.923647e+03,2.546529e+03
1.924612e+03,2.544050e+03
1.925576e+03,2.536315e+03
1.926540e+03,2.531938e+03
1.927504e+03,2.530833e+03
1.928469e+03,2.531074e+03
1.929433e+03,2.532638e+03
1.930397e+03,2.532287e+03
1.931361e+03,2.526464e+03
1.932325e+03,2.518919e+03
1.933290e+03,2.512536e+03
1.934254e+03,2.509944e+03
1.935218e+03,2.515687e+03
1.936182e+03,2.523128e+03
1.937147e+03,2.524124e+03
1.938111e+03,2.519819e+03
1.939075e+03,2.517516e+03
1.940039e+03,2.517911e+03
1.941004e+03,2.517559e+03
1.941968e+03,2.514402e+03
1.942932e+03,2.510817e+03
1.943896e+03,2.509425e+03
1.944860e+03,2.504172e+03
1.945825e+03,2.495312e+03
1.946789e+03,2.489208e+03
1.947753e+03,2.493759e+03
1.948717e+03,2.494298e+03
1.949682e+03,2.479937e+03
1.950646e+03,2.468975e+03
1.951610e+03,2.474785e+03
1.952574e+03,2.486219e+03
1.953539e+03,2.489140e+03
1.954503e+03,2.486434e+03
1.955467e+03,2.480616e+03
1.956431e+03,2.473890e+03
1.957396e+03,2.468384e+03
1.958360e+03,2.464805e+03
1.959324e+03,2.469023e+03
1.960288e+03,2.480212e+03
1.961252e+03,2.484217e+03
1.962217e+03,2.478406e+03
1.963181e+03,2.473819e+03
1.964145e+03,2.470619e+03
1.965109e+03,2.467812e+03
1.966074e+03,2.464544e+03
1.967038e+03,2.466896e+03
1.968002e+03,2.474648e+03
1.968966e+03,2.474111e+03
1.969931e+03,2.455968e+03
1.970895e+03,2.437479e+03
1.971859e+03,2.435515e+03
1.972823e+03,2.437160e+03
1.973787e+03,2.434988e+03
1.974752e+03,2.433270e+03
1.975716e+03,2.446384e+03
1.976680e+03,2.457168e+03
1.977644e+03,2.440702e+03
1.978609e+03,2.415283e+03
1.979573e+03,2.409454e+03
1.980537e+03,2.417716e+03
1.981501e+03,2.428127e+03
1.982466e+03,2.437636e+03
1.983430e+03,2.435804e+03
1.984394e+03,2.420147e+03
1.985358e+03,2.415608e+03
1.986323e+03,2.419865e+03
1.987287e+03,2.420337e+03
1.988251e+03,2.411906e+03
1.989215e+03,2.406234e+03
1.990179e+03,2.405665e+03
1.991144e+03,2.406864e+03
1.992108e+03,2.410462e+03
1.993072e+03,2.410387e+03
1.994036e+03,2.392936e+03
1.995001e+03,2.383726e+03
1.995965e+03,2.391252e+03
1.996929e+03,2.402421e+03
1.997893e+03,2.400809e+03
1.998858e+03,2.398066e+03
1.999822e+03,2.414135e+03
2.000786e+03,2.423647e+03
2.001750e+03,2.399014e+03
2.002714e+03,2.362438e+03
2.003679e+03,2.365951e+03
2.004643e+03,2.386288e+03
2.005607e+03,2.387306e+03
2.006571e+03,2.374144e+03
2.007536e+03,2.369641e+03
2.008500e+03,2.371784e+03
2.009464e+03,2.374820e+03
2.010428e+03,2.377955e+03
2.011393e+03,2.375751e+03
2.012357e+03,2.367459e+03
2.013321e+03,2.361851e+03
2.014285e+03,2.357918e+03
2.015250e+03,2.353997e+03
2.016214e+03,2.349878e+03
2.017178e+03,2.345068e+03
2.018142e+03,2.340112e+03
2.019106e+03,2.334851e+03
2.020071e+03,2.325962e+03
2.021035e+03,2.324016e+03
2.021999e+03,2.341126e+03
2.022963e+03,2.350826e+03
2.023928e+03,2.342219e+03
2.024892e+03,2.329599e+03
2.025856e+03,2.328080e+03
2.026820e+03,2.329150e+03
2.027785e+03,2.326278e+03
2.028749e+03,2.323200e+03
2.029713e+03,2.330789e+03
2.030677e+03,2.339021e+03
2.031641e+03,2.327647e+03
2.032606e+03,2.309797e+03
2.033570e+03,2.310437e+03
2.034534e+03,2.323578e+03
2.035498e+03,2.326186e+03
2.036463e+03,2.321151e+03
2.037427e+03,2.312866e+03
2.038391e+03,2.303621e+03
2.039355e+03,2.298508e+03
2.040320e+03,2.297434e+03
2.041284e+03,2.298889e+03
2.042248e+03,2.301946e+03
2.043212e+03,2.304392e+03
2.044177e+03,2.307026e+03
2.045141e+03,2.306548e+03
2.046105e+03,2.302054e+03
2.047069e+03,2.297865e+03
2.048033e+03,2.296117e+03
2.048998e+03,2.291348e+03
2.049962e+03,2.283742e+03
2.050926e+03,2.276217e+03
2.051890e+03,2.268159e+03
2.052854e+03,2.265030e+03
2.053819e+03,2.269407e+03
2.054783e+03,2.271072e+03
2.055747e+03,2.265711e+03
2.056711e+03,2.259101e+03
2.057676e+03,2.254929e+03
2.058640e+03,2.252833e+03
2.059604e+03,2.250346e+03
2.060568e+03,2.248939e+03
2.061533e+03,2.253251e+03
2.062497e+03,2.260333e+03
2.063461e+03,2.272050e+03
2.064425e+03,2.279604e+03
2.065390e+03,2.265012e+03
2.066354e+03,2.240248e+03
2.067318e+03,2.228130e+03
2.068282e+03,2.225137e+03
2.069247e+03,2.220354e+03
2.070211e+03,2.213386e+03
2.071175e+03,2.203300e+03
2.072139e+03,2.194301e+03
2.073104e+03,2.199238e+03
2.074068e+03,2.218131e+03
2.075032e+03,2.221869e+03
2.075996e+03,2.213149e+03
2.076960e+03,2.206505e+03
2.077925e+03,2.204658e+03
2.078889e+03,2.209861e+03
2.079853e+03,2.222357e+03
2.080817e+03,2.228610e+03
2.081782e+03,2.226919e+03
2.082746e+03,2.220170e+03
2.083710e+03,2.208963e+03
2.084674e+03,2.196949e+03
2.085639e+03,2.185600e+03
2.086603e+03,2.182164e+03
2.087567e+03,2.193122e+03
2.088531e+03,2.199251e+03
2.089496e+03,2.196575e+03
2.090460e+03,2.190648e+03
2.091424e+03,2.187188e+03
2.092388e+03,2.184890e+03
2.093353e+03,2.178570e+03
2.094317e+03,2.179089e+03
2.095281e+03,2.189587e+03
2.096245e+03,2.198123e+03
2.097209e+03,2.190175e+03
2.098174e+03,2.180458e+03
2.099138e+03,2.176172e+03
2.100102e+03,2.175180e+03
2.101066e+03,2.179615e+03
2.102031e+03,2.180819e+03
2.102995e+03,2.165952e+03
2.103959e+03,2.149078e+03
2.104923e+03,2.139387e+03
2.105887e+03,2.138591e+03
2.106852e+03,2.154065e+03
2.107816e+03,2.168347e+03
2.108780e+03,2.163616e+03
2.109744e+03,2.148400e+03
2.110708e+03,2.146579e+03
2.111673e+03,2.150117e+03
2.112637e+03,2.141266e+03
2.113601e+03,2.125690e+03
2.114565e+03,2.122020e+03
2.115530e+03,2.125301e+03
2.116494e+03,2.123711e+03
2.117458e+03,2.121564e+03
2.118422e+03,2.127294e+03
2.119387e+03,2.137566e+03
2.120351e+03,2.146452e+03
2.121315e+03,2.151115e+03
2.122279e+03,2.146860e+03
2.123244e+03,2.133649e+03
2.124208e+03,2.124887e+03
2.125172e+03,2.119160e+03
2.126136e+03,2.106515e+03
2.127101e+03,2.083603e+03
2.128065e+03,2.079426e+03
2.129029e+03,2.091003e+03
2.129993e+03,2.099913e+03
2.130958e+03,2.100524e+03
2.131922e+03,2.097757e+03
2.132886e+03,2.092846e+03
2.133850e+03,2.091125e+03
2.134814e+03,2.094784e+03
2.135779e+03,2.096169e+03
2.136743e+03,2.088979e+03
2.137707e+03,2.087052e+03
2.138671e+03,2.091458e+03
2.139636e+03,2.094375e+03
2.140600e+03,2.089900e+03
2.141564e+03,2.089203e+03
2.142528e+03,2.093901e+03
2.143493e+03,2.092172e+03
2.144457e+03,2.075683e+03
2.145421e+03,2.062023e+03
2.146385e+03,2.056188e+03
2.147350e+03,2.054315e+03
2.148314e+03,2.057213e+03
2.149278e+03,2.060466e+03
2.150242e+03,2.056902e+03
2.151207e+03,2.053958e+03
2.152171e+03,2.051947e+03
2.153135e+03,2.052568e+03
2.154099e+03,2.067772e+03
2.155063e+03,2.072960e+03
2.156028e+03,2.061795e+03
2.156992e+03,2.051086e+03
2.157956e+03,2.051719e+03
2.158920e+03,2.051241e+03
2.159885e+03,2.042122e+03
2.160849e+03,2.035962e+03
2.161813e+03,2.040407e+03
2.162777e+03,2.043709e+03
2.163741e+03,2.032270e+03
2.164706e+03,2.023420e+03
2.165670e+03,2.026199e+03
2.166634e+03,2.033555e+03
2.167598e+03,2.039853e+03
2.168563e+03,2.041084e+03
2.169527e+03,2.033584e+03
2.170491e+03,2.022511e+03
2.171455e+03,2.014021e+03
2.172420e+03,2.008620e+03
2.173384e+03,2.008089e+03
2.174348e+03,2.008619e+03
2.175312e+03,2.004408e+03
2.176277e+03,2.001063e+03
2.177241e+03,2.009116e+03
2.178205e+03,2.015513e+03
2.179169e+03,2.012548e+03
2.180134e+03,2.006572e+03
2.181098e+03,2.002154e+03
2.182062e+03,2.000271e+03
2.183026e+03,2.000020e+03
2.183990e+03,2.000341e+03
2.184955e+03,2.001409e+03
2.185919e+03,2.000960e+03
2.186883e+03,1.995047e+03
2.187847e+03,1.988007e+03
2.188812e+03,1.988140e+03
2.189776e+03,1.989620e+03
2.190740e+03,1.982564e+03
2.191704e+03,1.974723e+03
2.192668e+03,1.975312e+03
2.193633e+03,1.980010e+03
2.194597e+03,1.984893e+03
2.195561e+03,1.987495e+03
2.196525e+03,1.984065e+03
2.197490e+03,1.977546e+03
2.198454e+03,1.971271e+03
2.199418e+03,1.967531e+03
2.200382e+03,1.969953e+03
2.201347e+03,1.974587e+03
2.202311e+03,1.970842e+03
2.203275e+03,1.965237e+03
2.204239e+03,1.963434e+03
2.205204e+03,1.961843e+03
2.206168e+03,1.957895e+03
2.207132e+03,1.954781e+03
2.208096e+03,1.956689e+03
2.209061e+03,1.957767e+03
2.210025e+03,1.953721e+03
2.210989e+03,1.945980e+03
2.211953e+03,1.933198e+03
2.212917e+03,1.925969e+03
2.213882e+03,1.930541e+03
2.214846e+03,1.938818e+03
2.215810e+03,1.939287e+03
2.216774e+03,1.934598e+03
2.217739e+03,1.931466e+03
2.218703e+03,1.929466e+03
2.219667e+03,1.926256e+03
2.220631e+03,1.923489e+03
2.221595e+03,1.922768e+03
2.222560e+03,1.921064e+03
2.223524e+03,1.914981e+03
2.224488e+03,1.905323e+03
2.225452e+03,1.887723e+03
2.226417e+03,1.874507e+03
2.227381e+03,1.881497e+03
2.228345e+03,1.896999e+03
2.229309e+03,1.905074e+03
2.230274e+03,1.910011e+03
2.231238e+03,1.918566e+03
2.232202e+03,1.923935e+03
2.233166e+03,1.915521e+03
2.234131e+03,1.902156e+03
2.235095e+03,1.888282e+03
2.236059e+03,1.877939e+03
2.237023e+03,1.877616e+03
2.237988e+03,1.883061e+03
2.238952e+03,1.892178e+03
2.239916e+03,1.898222e+03
2.240880e+03,1.888932e+03
2.241844e+03,1.881702e+03
2.242809e+03,1.892977e+03
2.243773e+03,1.903313e+03
2.244737e+03,1.885387e+03
2.245701e+03,1.864730e+03
2.246666e+03,1.862813e+03
2.247630e+03,1.866692e+03
2.248594e+03,1.872018e+03
2.249558e+03,1.878495e+03
2.250522e+03,1.886222e+03
2.251487e+03,1.891794e+03
2.252451e+03,1.891567e+03
2.253415e+03,1.885768e+03
2.254379e+03,1.875480e+03
2.255344e+03,1.863869e+03
2.256308e+03,1.851569e+03
2.257272e+03,1.843159e+03
2.258236e+03,1.846371e+03
2.259201e+03,1.849778e+03
2.260165e+03,1.848045e+03
2.261129e+03,1.846980e+03
2.262093e+03,1.854964e+03
2.263058e+03,1.857944e+03
2.264022e+03,1.853319e+03
2.264986e+03,1.848112e+03
2.265950e+03,1.844203e+03
2.266915e+03,1.842161e+03
2.267879e+03,1.841132e+03
2.268843e+03,1.838498e+03
2.269807e+03,1.835253e+03
2.270771e+03,1.832414e+03
2.271736e+03,1.830820e+03
2.272700e+03,1.831004e+03
2.273664e+03,1.831454e+03
2.274628e+03,1.829894e+03
2.275593e+03,1.822488e+03
2.276557e+03,1.822364e+03
2.277521e+03,1.833276e+03
2.278485e+03,1.836941e+03
2.279449e+03,1.815556e+03
2.280414e+03,1.811252e+03
2.281378e+03,1.825586e+03
2.282342e+03,1.835422e+03
2.283306e+03,1.822762e+03
2.284271e+03,1.816764e+03
2.285235e+03,1.816174e+03
2.286199e+03,1.808826e+03
2.287163e+03,1.789097e+03
2.288128e+03,1.784271e+03
2.289092e+03,1.791625e+03
2.290056e+03,1.799483e+03
2.291020e+03,1.805610e+03
2.291985e+03,1.798602e+03
2.292949e+03,1.782310e+03
2.293913e+03,1.777566e+03
2.294877e+03,1.785414e+03
2.295842e+03,1.793783e+03
2.296806e+03,1.800168e+03
2.297770e+03,1.797298e+03
2.298734e+03,1.787735e+03
2.299698e+03,1.785515e+03
2.300663e+03,1.789640e+03
2.301627e+03,1.780650e+03
2.302591e+03,1.764733e+03
2.303555e+03,1.758942e+03
2.304520e+03,1.761839e+03
2.305484e+03,1.765181e+03
2.306448e+03,1.768973e+03
2.307412e+03,1.772991e+03
2.308376e+03,1.775034e+03
2.309341e+03,1.769414e+03
2.310305e+03,1.760331e+03
2.311269e+03,1.753015e+03
2.312233e+03,1.749949e+03
2.313198e+03,1.755857e+03
2.314162e+03,1.763369e+03
2.315126e+03,1.765934e+03
2.316090e+03,1.764522e+03
2.317055e+03,1.758984e+03
2.318019e+03,1.752804e+03
2.318983e+03,1.746993e+03
2.319947e+03,1.742649e+03
2.320912e+03,1.743712e+03
2.321876e+03,1.745481e+03
2.322840e+03,1.743189e+03
2.323804e+03,1.740207e+03
2.324769e+03,1.737601e+03
2.325733e+03,1.738500e+03
2.326697e+03,1.747557e+03
2.327661e+03,1.751604e+03
2.328625e+03,1.744419e+03
2.329590e+03,1.737145e+03
2.330554e+03,1.740816e+03
2.331518e+03,1.740103e+03
2.332482e+03,1.732372e+03
2.333447e+03,1.723564e+03
2.334411e+03,1.714972e+03
2.335375e+03,1.708371e+03
2.336339e+03,1.704143e+03
2.337303e+03,1.706797e+03
2.338268e+03,1.723554e+03
2.339232e+03,1.723386e+03
2.340196e+03,1.709510e+03
2.341160e+03,1.699956e+03
2.342125e+03,1.699115e+03
2.343089e+03,1.706925e+03
2.344053e+03,1.717790e+03
2.345017e+03,1.717733e+03
2.345982e+03,1.707149e+03
2.346946e+03,1.702278e+03
2.347910e+03,1.702017e+03
2.348874e+03,1.698426e+03
2.349839e+03,1.692158e+03
2.350803e+03,1.691871e+03
2.351767e+03,1.695580e+03
2.352731e+03,1.701494e+03
2.353696e+03,1.705197e+03
2.354660e+03,1.695295e+03
2.355624e+03,1.679761e+03
2.356588e+03,1.669415e+03
2.357552e+03,1.667322e+03
2.358517e+03,1.680319e+03
2.359481e+03,1.695893e+03
2.360445e+03,1.699683e+03
2.361409e+03,1.696012e+03
2.362374e+03,1.685387e+03
2.363338e+03,1.673258e+03
2.364302e+03,1.664699e+03
2.365266e+03,1.663523e+03
2.366230e+03,1.670955e+03
2.367195e+03,1.676767e+03
2.368159e+03,1.672186e+03
2.369123e+03,1.665405e+03
2.370087e+03,1.658857e+03
2.371052e+03,1.654736e+03
2.372016e+03,1.654261e+03
2.372980e+03,1.657208e+03
2.373944e+03,1.662715e+03
2.374909e+03,1.668550e+03
2.375873e+03,1.676017e+03
2.376837e+03,1.674809e+03
2.377801e+03,1.666627e+03
2.378766e+03,1.655515e+03
2.379730e+03,1.642989e+03
2.380694e+03,1.644306e+03
2.381658e+03,1.652735e+03
2.382623e+03,1.643240e+03
2.383587e+03,1.623016e+03
2.384551e+03,1.620730e+03
2.385515e+03,1.625729e+03
2.386479e+03,1.620475e+03
2.387444e+03,1.613403e+03
2.388408e+03,1.622083e+03
2.389372e+03,1.632044e+03
2.390336e+03,1.623781e+03
2.391301e+03,1.614218e+03
2.392265e+03,1.621373e+03
2.393229e+03,1.629919e+03
2.394193e+03,1.631895e+03
2.395157e+03,1.629700e+03
2.396122e+03,1.621947e+03
2.397086e+03,1.617703e+03
2.398050e+03,1.620885e+03
2.399014e+03,1.623938e+03
2.399979e+03,1.622964e+03
2.400943e+03,1.627262e+03
2.401907e+03,1.638324e+03
2.402871e+03,1.636427e+03
2.403836e+03,1.617520e+03
2.404800e+03,1.601737e+03
2.405764e+03,1.590990e+03
2.406728e+03,1.594257e+03
2.407693e+03,1.607821e+03
2.408657e+03,1.608742e+03
2.409621e+03,1.600374e+03
2.410585e+03,1.597203e+03
2.411550e+03,1.598264e+03
2.412514e+03,1.599018e+03
2.413478e+03,1.598313e+03
2.414442e+03,1.590469e+03
2.415406e+03,1.583828e+03
2.416371e+03,1.589662e+03
2.417335e+03,1.596591e+03
2.418299e+03,1.580897e+03
2.419263e+03,1.569641e+03
2.420228e+03,1.579135e+03
2.421192e+03,1.590660e+03
2.422156e+03,1.587098e+03
2.423120e+03,1.581954e+03
2.424084e+03,1.576558e+03
2.425049e+03,1.571410e+03
2.426013e+03,1.568910e+03
2.426977e+03,1.566932e+03
2.427941e+03,1.566498e+03
2.428906e+03,1.567203e+03
2.429870e+03,1.567965e+03
2.430834e+03,1.568043e+03
2.431798e+03,1.568136e+03
2.432763e+03,1.571018e+03
2.433727e+03,1.575349e+03
2.434691e+03,1.566195e+03
2.435655e+03,1.551443e+03
2.436620e+03,1.548825e+03
2.437584e+03,1.553200e+03
2.438548e+03,1.550277e+03
2.439512e+03,1.547158e+03
2.440477e+03,1.551046e+03
2.441441e+03,1.555191e+03
2.442405e+03,1.550380e+03
2.443369e+03,1.547645e+03
2.444333e+03,1.553682e+03
2.445298e+03,1.558328e+03
2.446262e+03,1.551613e+03
2.447226e+03,1.539084e+03
2.448190e+03,1.522205e+03
2.449155e+03,1.516708e+03
2.450119e+03,1.546928e+03
2.451083e+03,1.555152e+03
2.452047e+03,1.542777e+03
2.453011e+03,1.532293e+03
2.453976e+03,1.529556e+03
2.454940e+03,1.534267e+03
2.455904e+03,1.543538e+03
2.456868e+03,1.542535e+03
2.457833e+03,1.534043e+03
2.458797e+03,1.532795e+03
2.459761e+03,1.534993e+03
2.460725e+03,1.534043e+03
2.461690e+03,1.531649e+03
2.462654e+03,1.530884e+03
2.463618e+03,1.529988e+03
2.464582e+03,1.529189e+03
2.465547e+03,1.527330e+03
2.466511e+03,1.519037e+03
2.467475e+03,1.510658e+03
2.468439e+03,1.503256e+03
2.469404e+03,1.500270e+03
2.470368e+03,1.512612e+03
2.471332e+03,1.511850e+03
2.472296e+03,1.498366e+03
2.473260e+03,1.495284e+03
2.474225e+03,1.509672e+03
2.475189e+03,1.510885e+03
2.476153e+03,1.505166e+03
2.477117e+03,1.510417e+03
2.478082e+03,1.521216e+03
2.479046e+03,1.518081e+03
2.480010e+03,1.508266e+03
2.480974e+03,1.500698e+03
2.481938e+03,1.497168e+03
2.482903e+03,1.505908e+03
2.483867e+03,1.509326e+03
2.484831e+03,1.496200e+03
2.485795e+03,1.484231e+03
2.486760e+03,1.492552e+03
2.487724e+03,1.498336e+03
2.488688e+03,1.498135e+03
2.489652e+03,1.498099e+03
2.490617e+03,1.498929e+03
2.491581e+03,1.505949e+03
2.492545e+03,1.517051e+03
2.493509e+03,1.511410e+03
2.494474e+03,1.487565e+03
2.495438e+03,1.480706e+03
2.496402e+03,1.484409e+03
2.497366e+03,1.485483e+03
2.498331e+03,1.485487e+03
2.499295e+03,1.493332e+03
2.500259e+03,1.496260e+03
2.501223e+03,1.483426e+03
2.502188e+03,1.469713e+03
2.503152e+03,1.472870e+03
2.504116e+03,1.473959e+03
2.505080e+03,1.466602e+03
2.506044e+03,1.463965e+03
2.507009e+03,1.483182e+03
2.507973e+03,1.482541e+03
2.508937e+03,1.463549e+03
2.509901e+03,1.454630e+03
2.510865e+03,1.462886e+03
2.511830e+03,1.465348e+03
2.512794e+03,1.463545e+03
2.513758e+03,1.467506e+03
2.514722e+03,1.473543e+03
2.515687e+03,1.460197e+03
2.516651e+03,1.447410e+03
2.517615e+03,1.458708e+03
2.518579e+03,1.472708e+03
2.519544e+03,1.460266e+03
2.520508e+03,1.442767e+03
2.521472e+03,1.427584e+03
2.522436e+03,1.421462e+03
2.523401e+03,1.436593e+03
2.524365e+03,1.449673e+03
2.525329e+03,1.457755e+03
2.526293e+03,1.456075e+03
2.527258e+03,1.444045e+03
2.528222e+03,1.443878e+03
2.529186e+03,1.450568e+03
2.530150e+03,1.446346e+03
2.531115e+03,1.437001e+03
2.532079e+03,1.444018e+03
2.533043e+03,1.455170e+03
2.534007e+03,1.457752e+03
2.534971e+03,1.452331e+03
2.535936e+03,1.435276e+03
2.536900e+03,1.422241e+03
2.537864e+03,1.418469e+03
2.538828e+03,1.420047e+03
2.539792e+03,1.425311e+03
2.540757e+03,1.422013e+03
2.541721e+03,1.409371e+03
2.542685e+03,1.409746e+03
2.543649e+03,1.423912e+03
2.544614e+03,1.430404e+03
2.545578e+03,1.427616e+03
2.546542e+03,1.417009e+03
2.547506e+03,1.405146e+03
2.548471e+03,1.408645e+03
2.549435e+03,1.416187e+03
2.550399e+03,1.417510e+03
2.551363e+03,1.418801e+03
2.552328e+03,1.429384e+03
2.553292e+03,1.431884e+03
2.554256e+03,1.417148e+03
2.555220e+03,1.410908e+03
2.556185e+03,1.417351e+03
2.557149e+03,1.421681e+03
2.558113e+03,1.420834e+03
2.559077e+03,1.417826e+03
2.560042e+03,1.412236e+03
2.561006e+03,1.401896e+03
2.561970e+03,1.394234e+03
2.562934e+03,1.404977e+03
2.563898e+03,1.415557e+03
2.564863e+03,1.398375e+03
2.565827e+03,1.380145e+03
2.566791e+03,1.384622e+03
2.567755e+03,1.394129e+03
2.568719e+03,1.401773e+03
2.569684e+03,1.407193e+03
2.570648e+03,1.411207e+03
2.571612e+03,1.407942e+03
2.572576e+03,1.400275e+03
2.573541e+03,1.395515e+03
2.574505e+03,1.393023e+03
2.575469e+03,1.392862e+03
2.576433e+03,1.393742e+03
2.577398e+03,1.396115e+03
2.578362e+03,1.398007e+03
2.579326e+03,1.396083e+03
2.580290e+03,1.393864e+03
2.581255e+03,1.391783e+03
2.582219e+03,1.391800e+03
2.583183e+03,1.403805e+03
2.584147e+03,1.395537e+03
2.585112e+03,1.369899e+03
2.586076e+03,1.361893e+03
2.587040e+03,1.376376e+03
2.588004e+03,1.375156e+03
2.588969e+03,1.365664e+03
2.589933e+03,1.367018e+03
2.590897e+03,1.374703e+03
2.591861e+03,1.380581e+03
2.592825e+03,1.384102e+03
2.593790e+03,1.384830e+03
2.594754e+03,1.380786e+03
2.595718e+03,1.366772e+03
2.596682e+03,1.362190e+03
2.597646e+03,1.370742e+03
2.598611e+03,1.383792e+03
2.599575e+03,1.398886e+03
2.600539e+03,1.382757e+03
2.601503e+03,1.345990e+03
2.602468e+03,1.349847e+03
2.603432e+03,1.372100e+03
2.604396e+03,1.370104e+03
2.605360e+03,1.362340e+03
2.606325e+03,1.364014e+03
2.607289e+03,1.365269e+03
2.608253e+03,1.362088e+03
2.609217e+03,1.358574e+03
2.610182e+03,1.354984e+03
2.611146e+03,1.345886e+03
2.612110e+03,1.333629e+03
2.613074e+03,1.334648e+03
2.614039e+03,1.347908e+03
2.615003e+03,1.351580e+03
2.615967e+03,1.345845e+03
2.616931e+03,1.329751e+03
2.617896e+03,1.318365e+03
2.618860e+03,1.338632e+03
2.619824e+03,1.357055e+03
2.620788e+03,1.360684e+03
2.621752e+03,1.358684e+03
2.622717e+03,1.354598e+03
2.623681e+03,1.355214e+03
2.624645e+03,1.358771e+03
2.625609e+03,1.351508e+03
2.626573e+03,1.335602e+03
2.627538e+03,1.329098e+03
2.628502e+03,1.328876e+03
2.629466e+03,1.326529e+03
2.630430e+03,1.325403e+03
2.631395e+03,1.333344e+03
2.632359e+03,1.336896e+03
2.633323e+03,1.329215e+03
2.634287e+03,1.327881e+03
2.635252e+03,1.337059e+03
2.636216e+03,1.343470e+03
2.637180e+03,1.342458e+03
2.638144e+03,1.326761e+03
2.639109e+03,1.304708e+03
2.640073e+03,1.304334e+03
2.641037e+03,1.314144e+03
2.642001e+03,1.315993e+03
2.642966e+03,1.315994e+03
2.643930e+03,1.317735e+03
2.644894e+03,1.319261e+03
2.645858e+03,1.322584e+03
2.646823e+03,1.312689e+03
2.647787e+03,1.291406e+03
2.648751e+03,1.295678e+03
2.649715e+03,1.325444e+03
2.650679e+03,1.332432e+03
2.651644e+03,1.325823e+03
2.652608e+03,1.319859e+03
2.653572e+03,1.315623e+03
2.654536e+03,1.315796e+03
2.655500e+03,1.317746e+03
2.656465e+03,1.321665e+03
2.657429e+03,1.316772e+03
2.658393e+03,1.297883e+03
2.659357e+03,1.292158e+03
2.660322e+03,1.301758e+03
2.661286e+03,1.297326e+03
2.662250e+03,1.285613e+03
2.663214e+03,1.292117e+03
2.664179e+03,1.302815e+03
2.665143e+03,1.300923e+03
2.666107e+03,1.294984e+03
2.667071e+03,1.288634e+03
2.668036e+03,1.288895e+03
2.669000e+03,1.303265e+03
2.669964e+03,1.308964e+03
2.670928e+03,1.305601e+03
2.671893e+03,1.293766e+03
2.672857e+03,1.280033e+03
2.673821e+03,1.293598e+03
2.674785e+03,1.310688e+03
2.675750e+03,1.305748e+03
2.676714e+03,1.294467e+03
2.677678e+03,1.289240e+03
2.678642e+03,1.292461e+03
2.679606e+03,1.306042e+03
2.680571e+03,1.303392e+03
2.681535e+03,1.281564e+03
2.682499e+03,1.274441e+03
2.683463e+03,1.279977e+03
2.684427e+03,1.281012e+03
2.685392e+03,1.280707e+03
2.686356e+03,1.284033e+03
2.687320e+03,1.286964e+03
2.688284e+03,1.287705e+03
2.689249e+03,1.286973e+03
2.690213e+03,1.284603e+03
2.691177e+03,1.280270e+03
2.692141e+03,1.274816e+03
2.693106e+03,1.279485e+03
2.694070e+03,1.288387e+03
2.695034e+03,1.285065e+03
2.695998e+03,1.276253e+03
2.696963e+03,1.272832e+03
2.697927e+03,1.272140e+03
2.698891e+03,1.271852e+03
2.699855e+03,1.267966e+03
2.700820e+03,1.257813e+03
2.701784e+03,1.256318e+03
2.702748e+03,1.262914e+03
2.703712e+03,1.267293e+03
2.704677e+03,1.267951e+03
2.705641e+03,1.261182e+03
2.706605e+03,1.254342e+03
2.707569e+03,1.253821e+03
2.708533e+03,1.253134e+03
2.709498e+03,1.248214e+03
2.710462e+03,1.245716e+03
2.711426e+03,1.250503e+03
2.712390e+03,1.262172e+03
2.713354e+03,1.276475e+03
2.714319e+03,1.274147e+03
2.715283e+03,1.261343e+03
2.716247e+03,1.246837e+03
2.717211e+03,1.240196e+03
2.718176e+03,1.248063e+03
2.719140e+03,1.257359e+03
2.720104e+03,1.259917e+03
2.721068e+03,1.256947e+03
2.722033e+03,1.249029e+03
2.722997e+03,1.242882e+03
2.723961e+03,1.238924e+03
2.724925e+03,1.242966e+03
2.725890e+03,1.246789e+03
2.726854e+03,1.230081e+03
2.727818e+03,1.223304e+03
2.728782e+03,1.242894e+03
2.729747e+03,1.259425e+03
2.730711e+03,1.256973e+03
2.731675e+03,1.252601e+03
2.732639e+03,1.247577e+03
2.733604e+03,1.242818e+03
2.734568e+03,1.238161e+03
2.735532e+03,1.233725e+03
2.736496e+03,1.228138e+03
2.737460e+03,1.219581e+03
2.738425e+03,1.219053e+03
2.739389e+03,1.235966e+03
2.740353e+03,1.244987e+03
2.741317e+03,1.242265e+03
2.742281e+03,1.227646e+03
2.743246e+03,1.209949e+03
2.744210e+03,1.219709e+03
2.745174e+03,1.234458e+03
2.746138e+03,1.223582e+03
2.747103e+03,1.216743e+03
2.748067e+03,1.227033e+03
2.749031e+03,1.232786e+03
2.749995e+03,1.218641e+03
2.750960e+03,1.213619e+03
2.751924e+03,1.216150e+03
2.752888e+03,1.221321e+03
2.753852e+03,1.225697e+03
2.754817e+03,1.221361e+03
2.755781e+03,1.217883e+03
2.756745e+03,1.220194e+03
2.757709e+03,1.226042e+03
2.758674e+03,1.233410e+03
2.759638e+03,1.231403e+03
2.760602e+03,1.218817e+03
2.761566e+03,1.207503e+03
2.762531e+03,1.201116e+03
2.763495e+03,1.205407e+03
2.764459e+03,1.211872e+03
2.765423e+03,1.212561e+03
2.766387e+03,1.218257e+03
2.767352e+03,1.231601e+03
2.768316e+03,1.231500e+03
2.769280e+03,1.214269e+03
2.770244e+03,1.198226e+03
2.771208e+03,1.190720e+03
2.772173e+03,1.204050e+03
2.773137e+03,1.219229e+03
2.774101e+03,1.217114e+03
2.775065e+03,1.209869e+03
2.776030e+03,1.198432e+03
2.776994e+03,1.195248e+03
2.777958e+03,1.198033e+03
2.778922e+03,1.195354e+03
2.779887e+03,1.189161e+03
2.780851e+03,1.183006e+03
2.781815e+03,1.182432e+03
2.782779e+03,1.192384e+03
2.783744e+03,1.201197e+03
2.784708e+03,1.200434e+03
2.785672e+03,1.194512e+03
2.786636e+03,1.185132e+03
2.787601e+03,1.183574e+03
2.788565e+03,1.187212e+03
2.789529e+03,1.186040e+03
2.790493e+03,1.184032e+03
2.791458e+03,1.179273e+03
2.792422e+03,1.187343e+03
2.793386e+03,1.211127e+03
2.794350e+03,1.212211e+03
2.795314e+03,1.180881e+03
2.796279e+03,1.179242e+03
2.797243e+03,1.189548e+03
2.798207e+03,1.185013e+03
2.799171e+03,1.175438e+03
2.800135e+03,1.167784e+03
2.801100e+03,1.167776e+03
2.802064e+03,1.178778e+03
2.803028e+03,1.179516e+03
2.803992e+03,1.171231e+03
2.804957e+03,1.173656e+03
2.805921e+03,1.179668e+03
2.806885e+03,1.169184e+03
2.807849e+03,1.161468e+03
2.808814e+03,1.166027e+03
2.809778e+03,1.169725e+03
2.810742e+03,1.165856e+03
2.811706e+03,1.169252e+03
2.812671e+03,1.175189e+03
2.813635e+03,1.169630e+03
2.814599e+03,1.159829e+03
2.815563e+03,1.162526e+03
2.816528e+03,1.165253e+03
2.817492e+03,1.160842e+03
2.818456e+03,1.162655e+03
2.819420e+03,1.169747e+03
2.820385e+03,1.168756e+03
2.821349e+03,1.163238e+03
2.822313e+03,1.168993e+03
2.823277e+03,1.174378e+03
2.824241e+03,1.168175e+03
2.825206e+03,1.166542e+03
2.826170e+03,1.182984e+03
2.827134e+03,1.190988e+03
2.828098e+03,1.186310e+03
2.829063e+03,1.173480e+03
2.830027e+03,1.158652e+03
2.830991e+03,1.154796e+03
2.831955e+03,1.158442e+03
2.832919e+03,1.171904e+03
2.833884e+03,1.174863e+03
2.834848e+03,1.165359e+03
2.835812e+03,1.160914e+03
2.836776e+03,1.162256e+03
2.837741e+03,1.146557e+03
2.838705e+03,1.133369e+03
2.839669e+03,1.144240e+03
2.840633e+03,1.160315e+03
2.841598e+03,1.172258e+03
2.842562e+03,1.177369e+03
2.843526e+03,1.174341e+03
2.844490e+03,1.152733e+03
2.845455e+03,1.127734e+03
2.846419e+03,1.129289e+03
2.847383e+03,1.142295e+03
2.848347e+03,1.158347e+03
2.849312e+03,1.164955e+03
2.850276e+03,1.160098e+03
2.851240e+03,1.160227e+03
2.852204e+03,1.162902e+03
2.853168e+03,1.144875e+03
2.854133e+03,1.125571e+03
2.855097e+03,1.133482e+03
2.856061e+03,1.147665e+03
2.857025e+03,1.158858e+03
2.857990e+03,1.157118e+03
2.858954e+03,1.139483e+03
2.859918e+03,1.130573e+03
2.860882e+03,1.130882e+03
2.861846e+03,1.141068e+03
2.862811e+03,1.149665e+03
2.863775e+03,1.144527e+03
2.864739e+03,1.139961e+03
2.865703e+03,1.139425e+03
2.866668e+03,1.142425e+03
2.867632e+03,1.146620e+03
2.868596e+03,1.147905e+03
2.869560e+03,1.144175e+03
2.870525e+03,1.123793e+03
2.871489e+03,1.123305e+03
2.872453e+03,1.150339e+03
2.873417e+03,1.162306e+03
2.874382e+03,1.156804e+03
2.875346e+03,1.158570e+03
2.876310e+03,1.161048e+03
2.877274e+03,1.143638e+03
2.878239e+03,1.138412e+03
2.879203e+03,1.155713e+03
2.880167e+03,1.162625e+03
2.881131e+03,1.150175e+03
2.882095e+03,1.140305e+03
2.883060e+03,1.141087e+03
2.884024e+03,1.166186e+03
2.884988e+03,1.187217e+03
2.885952e+03,1.175443e+03
2.886917e+03,1.166939e+03
2.887881e+03,1.170736e+03
2.888845e+03,1.151546e+03
2.889809e+03,1.125473e+03
2.890773e+03,1.131203e+03
2.891738e+03,1.147019e+03
2.892702e+03,1.158412e+03
2.893666e+03,1.160515e+03
2.894630e+03,1.152998e+03
2.895595e+03,1.143851e+03
2.896559e+03,1.136331e+03
2.897523e+03,1.147410e+03
2.898487e+03,1.157826e+03
2.899452e+03,1.140579e+03
2.900416e+03,1.129064e+03
2.901380e+03,1.129997e+03
2.902344e+03,1.127476e+03
2.903309e+03,1.120115e+03
2.904273e+03,1.130084e+03
2.905237e+03,1.139340e+03
2.906201e+03,1.124543e+03
2.907166e+03,1.121923e+03
2.908130e+03,1.147438e+03
2.909094e+03,1.155259e+03
2.910058e+03,1.139297e+03
2.911022e+03,1.139493e+03
2.911987e+03,1.140254e+03
2.912951e+03,1.120904e+03
2.913915e+03,1.107053e+03
2.914879e+03,1.118174e+03
2.915844e+03,1.138225e+03
2.916808e+03,1.160647e+03
2.917772e+03,1.153572e+03
2.918736e+03,1.135533e+03
2.919700e+03,1.135235e+03
2.920665e+03,1.135121e+03
2.921629e+03,1.117613e+03
2.922593e+03,1.117442e+03
2.923557e+03,1.131965e+03
2.924522e+03,1.139766e+03
2.925486e+03,1.137750e+03
2.926450e+03,1.108546e+03
2.927414e+03,1.089365e+03
2.928379e+03,1.100805e+03
2.929343e+03,1.114158e+03
2.930307e+03,1.122631e+03
2.931271e+03,1.107100e+03
2.932236e+03,1.087270e+03
2.933200e+03,1.102112e+03
2.934164e+03,1.117271e+03
2.935128e+03,1.118400e+03
2.936093e+03,1.099738e+03
2.937057e+03,1.071422e+03
2.938021e+03,1.096055e+03
2.938985e+03,1.133231e+03
2.939949e+03,1.100992e+03
2.940914e+03,1.077181e+03
2.941878e+03,1.088891e+03
2.942842e+03,1.091660e+03
2.943806e+03,1.076494e+03
2.944771e+03,1.075128e+03
2.945735e+03,1.087106e+03
2.946699e+03,1.118647e+03
2.947663e+03,1.137273e+03
2.948627e+03,1.132823e+03
2.949592e+03,1.115508e+03
2.950556e+03,1.091937e+03
2.951520e+03,1.090709e+03
2.952484e+03,1.099119e+03
2.953449e+03,1.103093e+03
2.954413e+03,1.111283e+03
2.955377e+03,1.128616e+03
2.956341e+03,1.135032e+03
2.957306e+03,1.129352e+03
2.958270e+03,1.129982e+03
2.959234e+03,1.120324e+03
2.960198e+03,1.088248e+03
2.961163e+03,1.072727e+03
2.962127e+03,1.090524e+03
2.963091e+03,1.112903e+03
2.964055e+03,1.127411e+03
2.965020e+03,1.108079e+03
2.965984e+03,1.088016e+03
2.966948e+03,1.090586e+03
2.967912e+03,1.092018e+03
2.968876e+03,1.082092e+03
2.969841e+03,1.070543e+03
2.970805e+03,1.062456e+03
2.971769e+03,1.069011e+03
2.972733e+03,1.076288e+03
2.973698e+03,1.073891e+03
2.974662e+03,1.072675e+03
2.975626e+03,1.075038e+03
2.976590e+03,1.059429e+03
2.977554e+03,1.045443e+03
2.978519e+03,1.058633e+03
2.979483e+03,1.072665e+03
2.980447e+03,1.070054e+03
2.981411e+03,1.073526e+03
2.982376e+03,1.081770e+03
2.983340e+03,1.058248e+03
2.984304e+03,1.035723e+03
2.985268e+03,1.048845e+03
2.986233e+03,1.060027e+03
2.987197e+03,1.047737e+03
2.988161e+03,1.038982e+03
2.989125e+03,1.038415e+03
2.990090e+03,1.056749e+03
2.991054e+03,1.068745e+03
2.992018e+03,1.054073e+03
2.992982e+03,1.033240e+03
2.993947e+03,1.011385e+03
2.994911e+03,1.032543e+03
2.995875e+03,1.069261e+03
2.996839e+03,1.072602e+03
2.997803e+03,1.064743e+03
2.998768e+03,1.061470e+03
2.999732e+03,1.058968e+03
3.000696e+03,1.058372e+03
3.001660e+03,1.066313e+03
3.002625e+03,1.069250e+03
3.003589e+03,1.054657e+03
3.004553e+03,1.043574e+03
3.005517e+03,1.047286e+03
3.006481e+03,1.045443e+03
3.007446e+03,1.039276e+03
3.008410e+03,1.047928e+03
3.009374e+03,1.054116e+03
3.010338e+03,1.048277e+03
3.011303e+03,1.048708e+03
3.012267e+03,1.059363e+03
3.013231e+03,1.051751e+03
3.014195e+03,1.036838e+03
3.015160e+03,1.038170e+03
3.016124e+03,1.036454e+03
3.017088e+03,1.024787e+03
3.018052e+03,1.009482e+03
3.019017e+03,9.957181e+02
3.019981e+03,1.033101e+03
3.020945e+03,1.067359e+03
3.021909e+03,1.049891e+03
3.022874e+03,1.029726e+03
3.023838e+03,1.019704e+03
3.024802e+03,1.021762e+03
3.025766e+03,1.025691e+03
3.026730e+03,9.960372e+02
3.027695e+03,9.833332e+02
3.028659e+03,1.009979e+03
3.029623e+03,1.016562e+03
3.030587e+03,1.002416e+03
3.031552e+03,1.001235e+03
3.032516e+03,1.010583e+03
3.033480e+03,1.044095e+03
3.034444e+03,1.047115e+03
3.035408e+03,1.016784e+03
3.036373e+03,1.014642e+03
3.037337e+03,1.033162e+03
3.038301e+03,1.051103e+03
3.039265e+03,1.055549e+03
3.040230e+03,1.026851e+03
3.041194e+03,1.009633e+03
3.042158e+03,1.002940e+03
3.043122e+03,9.899907e+02
3.044087e+03,9.823731e+02
3.045051e+03,1.001791e+03
3.046015e+03,1.014377e+03
3.046979e+03,1.010671e+03
3.047944e+03,1.013930e+03
3.048908e+03,1.022191e+03
3.049872e+03,1.033021e+03
3.050836e+03,1.029957e+03
3.051801e+03,9.968492e+02
3.052765e+03,9.845997e+02
3.053729e+03,9.936103e+02
3.054693e+03,9.902068e+02
3.055657e+03,9.954744e+02
3.056622e+03,1.024361e+03
3.057586e+03,1.022196e+03
3.058550e+03,9.751835e+02
3.059514e+03,9.784953e+02
3.060479e+03,1.008141e+03
3.061443e+03,1.025701e+03
3.062407e+03,1.020778e+03
3.063371e+03,9.957488e+02
3.064335e+03,9.895305e+02
3.065300e+03,1.000578e+03
3.066264e+03,1.003306e+03
3.067228e+03,1.008948e+03
3.068192e+03,1.027323e+03
3.069157e+03,1.023983e+03
3.070121e+03,1.004079e+03
3.071085e+03,1.002284e+03
3.072049e+03,1.010212e+03
3.073014e+03,1.016249e+03
3.073978e+03,1.033234e+03
3.074942e+03,1.061047e+03
3.075906e+03,1.046250e+03
3.076871e+03,1.011702e+03
3.077835e+03,9.913290e+02
3.078799e+03,9.881345e+02
3.079763e+03,1.010218e+03
3.080728e+03,1.014708e+03
3.081692e+03,1.003001e+03
3.082656e+03,9.879608e+02
3.083620e+03,9.827154e+02
3.084584e+03,9.940060e+02
3.085549e+03,9.927193e+02
3.086513e+03,9.748678e+02
3.087477e+03,9.801305e+02
3.088441e+03,9.943614e+02
3.089406e+03,1.005058e+03
3.090370e+03,1.019845e+03
3.091334e+03,1.037524e+03
3.092298e+03,1.030079e+03
3.093262e+03,1.011374e+03
3.094227e+03,1.005434e+03
3.095191e+03,1.009081e+03
3.096155e+03,1.022953e+03
3.097119e+03,1.018156e+03
3.098084e+03,1.000189e+03
3.099048e+03,9.766066e+02
3.100012e+03,9.690322e+02
3.100976e+03,1.003469e+03
3.101941e+03,1.000042e+03
3.102905e+03,9.655361e+02
3.103869e+03,9.818456e+02
3.104833e+03,1.009618e+03
3.105798e+03,1.023532e+03
3.106762e+03,1.020207e+03
3.107726e+03,1.003450e+03
3.108690e+03,9.873063e+02
3.109655e+03,9.792961e+02
3.110619e+03,9.963958e+02
3.111583e+03,1.002598e+03
3.112547e+03,9.952911e+02
3.113511e+03,9.928532e+02
3.114476e+03,9.955794e+02
3.115440e+03,1.007336e+03
3.116404e+03,1.008100e+03
3.117368e+03,9.876882e+02
3.118333e+03,1.001740e+03
3.119297e+03,1.020664e+03
3.120261e+03,9.894957e+02
3.121225e+03,9.719304e+02
3.122189e+03,1.003794e+03
3.123154e+03,1.006887e+03
3.124118e+03,9.833253e+02
3.125082e+03,9.750594e+02
3.126046e+03,9.881095e+02
3.127011e+03,1.023214e+03
3.127975e+03,1.016778e+03
3.128939e+03,9.780543e+02
3.129903e+03,9.663453e+02
3.130868e+03,9.674955e+02
3.131832e+03,9.710794e+02
3.132796e+03,9.886141e+02
3.133760e+03,1.012831e+03
3.134725e+03,1.013531e+03
3.135689e+03,9.956563e+02
3.136653e+03,9.624570e+02
3.137617e+03,9.494591e+02
3.138582e+03,9.679160e+02
3.139546e+03,9.707709e+02
3.140510e+03,9.718951e+02
3.141474e+03,9.912776e+02
3.142438e+03,1.001676e+03
3.143403e+03,9.992143e+02
3.144367e+03,9.832172e+02
3.145331e+03,9.678551e+02
3.146295e+03,9.788759e+02
3.147260e+03,9.939236e+02
3.148224e+03,1.005226e+03
3.149188e+03,1.003793e+03
3.150152e+03,9.967528e+02
3.151116e+03,9.930417e+02
3.152081e+03,9.887934e+02
3.153045e+03,9.800391e+02
3.154009e+03,9.766106e+02
3.154973e+03,9.803763e+02
3.155938e+03,9.945123e+02
3.156902e+03,1.007229e+03
3.157866e+03,1.012045e+03
3.158830e+03,9.842402e+02
3.159795e+03,9.483343e+02
3.160759e+03,9.634297e+02
3.161723e+03,9.849967e+02
3.162687e+03,1.000178e+03
3.163652e+03,9.758015e+02
3.164616e+03,9.470916e+02
3.165580e+03,9.815876e+02
3.166544e+03,1.015434e+03
3.167509e+03,1.021876e+03
3.168473e+03,9.986056e+02
3.169437e+03,9.644124e+02
3.170401e+03,9.746163e+02
3.171365e+03,9.876106e+02
3.172330e+03,9.861277e+02
3.173294e+03,9.929243e+02
3.174258e+03,9.982420e+02
3.175222e+03,9.745723e+02
3.176187e+03,9.611526e+02
3.177151e+03,9.882606e+02
3.178115e+03,9.892617e+02
3.179079e+03,9.744174e+02
3.180043e+03,9.935647e+02
3.181008e+03,1.005150e+03
3.181972e+03,9.961508e+02
3.182936e+03,9.937507e+02
3.183900e+03,9.956105e+02
3.184865e+03,9.826020e+02
3.185829e+03,9.735139e+02
3.186793e+03,9.931463e+02
3.187757e+03,9.772044e+02
3.188722e+03,9.514785e+02
3.189686e+03,9.730991e+02
3.190650e+03,1.006330e+03
3.191614e+03,1.032933e+03
3.192579e+03,1.040138e+03
3.193543e+03,1.027994e+03
3.194507e+03,9.731298e+02
3.195471e+03,9.460240e+02
3.196436e+03,9.787374e+02
3.197400e+03,9.830050e+02
3.198364e+03,9.822768e+02
3.199328e+03,1.029183e+03
3.200292e+03,1.054805e+03
3.201257e+03,0.000000e+00
3.202221e+03,0.000000e+00
3.203185e+03,0.000000e+00
3.204149e+03,0.000000e+00
3.205114e+03,0.000000e+00
3.206078e+03,0.000000e+00
3.207042e+03,0.000000e+00
3.208006e+03,0.000000e+00
3.208970e+03,0.000000e+00
3.209935e+03,0.000000e+00
3.210899e+03,0.000000e+00
3.211863e+03,0.000000e+00
3.212827e+03,0.000000e+00
3.213792e+03,0.000000e+00
3.214756e+03,0.000000e+00
3.215720e+03,0.000000e+00
3.216684e+03,0.000000e+00
3.217649e+03,0.000000e+00
3.218613e+03,0.000000e+00
3.219577e+03,0.000000e+00
3.220541e+03,0.000000e+00
3.221506e+03,0.000000e+00
3.222470e+03,0.000000e+00
3.223434e+03,0.000000e+00
3.224398e+03,0.000000e+00
3.225363e+03,0.000000e+00
3.226327e+03,0.000000e+00
3.227291e+03,0.000000e+00
3.228255e+03,0.000000e+00
3.229219e+03,0.000000e+00
3.230184e+03,0.000000e+00
3.231148e+03,0.000000e+00
3.232112e+03,0.000000e+00
3.233076e+03,0.000000e+00
3.234041e+03,0.000000e+00
3.235005e+03,0.000000e+00
3.235969e+03,0.000000e+00
3.236933e+03,0.000000e+00
3.237897e+03,0.000000e+00
3.238862e+03,0.000000e+00
3.239826e+03,0.000000e+00
3.240790e+03,0.000000e+00
3.241754e+03,0.000000e+00
3.242719e+03,0.000000e+00
3.243683e+03,0.000000e+00
3.244647e+03,0.000000e+00
3.245611e+03,0.000000e+00
3.246576e+03,0.000000e+00
3.247540e+03,0.000000e+00
3.248504e+03,0.000000e+00
3.249468e+03,0.000000e+00
3.250433e+03,0.000000e+00
3.251397e+03,0.000000e+00
3.252361e+03,0.000000e+00
3.253325e+03,0.000000e+00
3.254290e+03,0.000000e+00
3.255254e+03,0.000000e+00
3.256218e+03,0.000000e+00
3.257182e+03,0.000000e+00
3.258146e+03,0.000000e+00
3.259111e+03,0.000000e+00
3.260075e+03,0.000000e+00
3.261039e+03,0.000000e+00
3.262003e+03,0.000000e+00
3.262968e+03,0.000000e+00
3.263932e+03,0.000000e+00
3.264896e+03,0.000000e+00
3.265860e+03,0.000000e+00
3.266824e+03,0.000000e+00
3.267789e+03,0.000000e+00
3.268753e+03,0.000000e+00
3.269717e+03,0.000000e+00
3.270681e+03,0.000000e+00
3.271646e+03,0.000000e+00
3.272610e+03,0.000000e+00
3.273574e+03,0.000000e+00
3.274538e+03,0.000000e+00
3.275503e+03,0.000000e+00
3.276467e+03,0.000000e+00
3.277431e+03,0.000000e+00
3.278395e+03,0.000000e+00
3.279360e+03,0.000000e+00
3.280324e+03,0.000000e+00
3.281288e+03,0.000000e+00
3.282252e+03,0.000000e+00
3.283217e+03,0.000000e+00
3.284181e+03,0.000000e+00
3.285145e+03,0.000000e+00
3.286109e+03,0.000000e+00
3.287073e+03,0.000000e+00
3.288038e+03,0.000000e+00
3.289002e+03,0.000000e+00
3.289966e+03,0.000000e+00
3.290930e+03,0.000000e+00
3.291895e+03,0.000000e+00
3.292859e+03,0.000000e+00
3.293823e+03,0.000000e+00
3.294787e+03,0.000000e+00
3.295751e+03,0.000000e+00
3.296716e+03,0.000000e+00
3.297680e+03,0.000000e+00
3.298644e+03,0.000000e+00
3.299608e+03,0.000000e+00
3.300573e+03,0.000000e+00
3.301537e+03,0.000000e+00
3.302501e+03,0.000000e+00
3.303465e+03,0.000000e+00
3.304430e+03,0.000000e+00
3.305394e+03,0.000000e+00
3.306358e+03,0.000000e+00
3.307322e+03,0.000000e+00
3.308287e+03,0.000000e+00
3.309251e+03,0.000000e+00
3.310215e+03,0.000000e+00
3.311179e+03,0.000000e+00
3.312144e+03,0.000000e+00
3.313108e+03,0.000000e+00
3.314072e+03,0.000000e+00
3.315036e+03,0.000000e+00
3.316000e+03,0.000000e+00
3.316965e+03,0.000000e+00
3.317929e+03,0.000000e+00
3.318893e+03,0.000000e+00
3.319857e+03,0.000000e+00
3.320822e+03,0.000000e+00
3.321786e+03,0.000000e+00
3.322750e+03,0.000000e+00
3.323714e+03,0.000000e+00
3.324678e+03,0.000000e+00
3.325643e+03,0.000000e+00
3.326607e+03,0.000000e+00
3.327571e+03,0.000000e+00
3.328535e+03,0.000000e+00
3.329500e+03,0.000000e+00
3.330464e+03,0.000000e+00
3.331428e+03,0.000000e+00
3.332392e+03,0.000000e+00
3.333357e+03,0.000000e+00
3.334321e+03,0.000000e+00
3.335285e+03,0.000000e+00
3.336249e+03,0.000000e+00
3.337214e+03,0.000000e+00
3.338178e+03,0.000000e+00
3.339142e+03,0.000000e+00
3.340106e+03,0.000000e+00
3.341071e+03,0.000000e+00
3.342035e+03,0.000000e+00
3.342999e+03,0.000000e+00
3.343963e+03,0.000000e+00
3.344927e+03,0.000000e+00
3.345892e+03,0.000000e+00
3.346856e+03,0.000000e+00
3.347820e+03,0.000000e+00
3.348784e+03,0.000000e+00
3.349749e+03,0.000000e+00
3.350713e+03,0.000000e+00
3.351677e+03,0.000000e+00
3.352641e+03,0.000000e+00
3.353605e+03,0.000000e+00
3.354570e+03,0.000000e+00
3.355534e+03,0.000000e+00
3.356498e+03,0.000000e+00
3.357462e+03,0.000000e+00
3.358427e+03,0.000000e+00
3.359391e+03,0.000000e+00
3.360355e+03,0.000000e+00
3.361319e+03,0.000000e+00
3.362284e+03,0.000000e+00
3.363248e+03,0.000000e+00
3.364212e+03,0.000000e+00
3.365176e+03,0.000000e+00
3.366141e+03,0.000000e+00
3.367105e+03,0.000000e+00
3.368069e+03,0.000000e+00
3.369033e+03,0.000000e+00
3.369998e+03,0.000000e+00
3.370962e+03,0.000000e+00
3.371926e+03,0.000000e+00
3.372890e+03,0.000000e+00
3.373854e+03,0.000000e+00
3.374819e+03,0.000000e+00
3.375783e+03,0.000000e+00
3.376747e+03,0.000000e+00
3.377711e+03,0.000000e+00
3.378676e+03,0.000000e+00
3.379640e+03,0.000000e+00
3.380604e+03,0.000000e+00
3.381568e+03,0.000000e+00
3.382532e+03,0.000000e+00
3.383497e+03,0.000000e+00
3.384461e+03,0.000000e+00
3.385425e+03,0.000000e+00
3.386389e+03,0.000000e+00
3.387354e+03,0.000000e+00
3.388318e+03,0.000000e+00
3.389282e+03,0.000000e+00
3.390246e+03,0.000000e+00
3.391211e+03,0.000000e+00
3.392175e+03,0.000000e+00
3.393139e+03,0.000000e+00
3.394103e+03,0.000000e+00
3.395068e+03,0.000000e+00
3.396032e+03,0.000000e+00
3.396996e+03,0.000000e+00
3.397960e+03,0.000000e+00
3.398925e+03,0.000000e+00
3.399889e+03,0.000000e+00
3.400853e+03,0.000000e+00
3.401817e+03,0.000000e+00
3.402781e+03,0.000000e+00
3.403746e+03,0.000000e+00
3.404710e+03,0.000000e+00
3.405674e+03,0.000000e+00
3.406638e+03,0.000000e+00
3.407603e+03,0.000000e+00
3.408567e+03,0.000000e+00
3.409531e+03,0.000000e+00
3.410495e+03,0.000000e+00
3.411459e+03,0.000000e+00
3.412424e+03,0.000000e+00
3.413388e+03,0.000000e+00
3.414352e+03,0.000000e+00
3.415316e+03,0.000000e+00
3.416281e+03,0.000000e+00
3.417245e+03,0.000000e+00
3.418209e+03,0.000000e+00
3.419173e+03,0.000000e+00
3.420138e+03,0.000000e+00
3.421102e+03,0.000000e+00
3.422066e+03,0.000000e+00
3.423030e+03,0.000000e+00
3.423995e+03,0.000000e+00
3.424959e+03,0.000000e+00
3.425923e+03,0.000000e+00
3.426887e+03,0.000000e+00
3.427852e+03,0.000000e+00
3.428816e+03,0.000000e+00
3.429780e+03,0.000000e+00
3.430744e+03,0.000000e+00
3.431708e+03,0.000000e+00
3.432673e+03,0.000000e+00
3.433637e+03,0.000000e+00
3.434601e+03,0.000000e+00
3.435565e+03,0.000000e+00
3.436530e+03,0.000000e+00
3.437494e+03,0.000000e+00
3.438458e+03,0.000000e+00
3.439422e+03,0.000000e+00
3.440386e+03,0.000000e+00
3.441351e+03,0.000000e+00
3.442315e+03,0.000000e+00
3.443279e+03,0.000000e+00
3.444243e+03,0.000000e+00
3.445208e+03,0.000000e+00
3.446172e+03,0.000000e+00
3.447136e+03,0.000000e+00
3.448100e+03,0.000000e+00
3.449065e+03,0.000000e+00
3.450029e+03,0.000000e+00
3.450993e+03,0.000000e+00
3.451957e+03,0.000000e+00
3.452922e+03,0.000000e+00
3.453886e+03,0.000000e+00
3.454850e+03,0.000000e+00
3.455814e+03,0.000000e+00
3.456779e+03,0.000000e+00
3.457743e+03,0.000000e+00
3.458707e+03,0.000000e+00
3.459671e+03,0.000000e+00
3.460635e+03,0.000000e+00
3.461600e+03,0.000000e+00
3.462564e+03,0.000000e+00
3.463528e+03,0.000000e+00
3.464492e+03,0.000000e+00
3.465457e+03,0.000000e+00
3.466421e+03,0.000000e+00
3.467385e+03,0.000000e+00
3.468349e+03,0.000000e+00
3.469313e+03,0.000000e+00
3.470278e+03,0.000000e+00
3.471242e+03,0.000000e+00
3.472206e+03,0.000000e+00
3.473170e+03,0.000000e+00
3.474135e+03,0.000000e+00
3.475099e+03,0.000000e+00
3.476063e+03,0.000000e+00
3.477027e+03,0.000000e+00
3.477992e+03,0.000000e+00
3.478956e+03,0.000000e+00
3.479920e+03,0.000000e+00
3.480884e+03,0.000000e+00
3.481849e+03,0.000000e+00
3.482813e+03,0.000000e+00
3.483777e+03,0.000000e+00
3.484741e+03,0.000000e+00
3.485706e+03,0.000000e+00
3.486670e+03,0.000000e+00
3.487634e+03,0.000000e+00
3.488598e+03,0.000000e+00
3.489563e+03,0.000000e+00
3.490527e+03,0.000000e+00
3.491491e+03,0.000000e+00
3.492455e+03,0.000000e+00
3.493419e+03,0.000000e+00
3.494384e+03,0.000000e+00
3.495348e+03,0.000000e+00
3.496312e+03,0.000000e+00
3.497276e+03,0.000000e+00
3.498240e+03,0.000000e+00
3.499205e+03,0.000000e+00
3.500169e+03,0.000000e+00
