9.931763e+01,0.000000e+00
1.002819e+02,0.000000e+00
1.012461e+02,0.000000e+00
1.022103e+02,0.000000e+00
1.031746e+02,0.000000e+00
1.041388e+02,0.000000e+00
1.051030e+02,0.000000e+00
1.060673e+02,0.000000e+00
1.070315e+02,0.000000e+00
1.079957e+02,0.000000e+00
1.089600e+02,0.000000e+00
1.099242e+02,0.000000e+00
1.108884e+02,0.000000e+00
1.118527e+02,0.000000e+00
1.128169e+02,0.000000e+00
1.137811e+02,0.000000e+00
1.147454e+02,0.000000e+00
1.157096e+02,0.000000e+00
1.166738e+02,0.000000e+00
1.176381e+02,0.000000e+00
1.186023e+02,0.000000e+00
1.195665e+02,0.000000e+00
1.205308e+02,0.000000e+00
1.214950e+02,0.000000e+00
1.224592e+02,0.000000e+00
1.234235e+02,0.000000e+00
1.243877e+02,0.000000e+00
1.253519e+02,0.000000e+00
1.263162e+02,0.000000e+00
1.272804e+02,0.000000e+00
1.282446e+02,0.000000e+00
1.292089e+02,0.000000e+00
1.301731e+02,0.000000e+00
1.311373e+02,0.000000e+00
1.321016e+02,0.000000e+00
1.330658e+02,0.000000e+00
1.340300e+02,0.000000e+00
1.349943e+02,0.000000e+00
1.359585e+02,0.000000e+00
1.369227e+02,0.000000e+00
1.378870e+02,0.000000e+00
1.388512e+02,0.000000e+00
1.398154e+02,0.000000e+00
1.407797e+02,0.000000e+00
1.417439e+02,0.000000e+00
1.427081e+02,0.000000e+00
1.436724e+02,0.000000e+00
1.446366e+02,0.000000e+00
1.456008e+02,0.000000e+00
1.465651e+02,0.000000e+00
1.475293e+02,0.000000e+00
1.484935e+02,0.000000e+00
1.494578e+02,0.000000e+00
1.504220e+02,0.000000e+00
1.513862e+02,0.000000e+00
1.523505e+02,0.000000e+00
1.533147e+02,0.000000e+00
1.542789e+02,0.000000e+00
1.552432e+02,0.000000e+00
1.562074e+02,0.000000e+00
1.571716e+02,0.000000e+00
1.581359e+02,0.000000e+00
1.591001e+02,0.000000e+00
1.600643e+02,0.000000e+00
1.610286e+02,0.000000e+00
1.619928e+02,0.000000e+00
1.629570e+02,0.000000e+00
1.639213e+02,0.000000e+00
1.648855e+02,0.000000e+00
1.658497e+02,0.000000e+00
1.668140e+02,0.000000e+00
1.677782e+02,0.000000e+00
1.687424e+02,0.000000e+00
1.697067e+02,0.000000e+00
1.706709e+02,0.000000e+00
1.716351e+02,0.000000e+00
1.725994e+02,0.000000e+00
1.735636e+02,0.000000e+00
1.745278e+02,0.000000e+00
1.754921e+02,0.000000e+00
1.764563e+02,0.000000e+00
1.774205e+02,0.000000e+00
1.783848e+02,0.000000e+00
1.793490e+02,0.000000e+00
1.803132e+02,0.000000e+00
1.812775e+02,0.000000e+00
1.822417e+02,0.000000e+00
1.832059e+02,0.000000e+00
1.841702e+02,0.000000e+00
1.851344e+02,0.000000e+00
1.860986e+02,0.000000e+00
1.870629e+02,0.000000e+00
1.880271e+02,0.000000e+00
1.889913e+02,0.000000e+00
1.899556e+02,0.000000e+00
1.909198e+02,0.000000e+00
1.918840e+02,0.000000e+00
1.928483e+02,0.000000e+00
1.938125e+02,0.000000e+00
1.947767e+02,0.000000e+00
1.957410e+02,0.000000e+00
1.967052e+02,0.000000e+00
1.976694e+02,0.000000e+00
1.986337e+02,0.000000e+00
1.995979e+02,2.378467e+03
2.005621e+02,2.366889e+03
2.015264e+02,2.360728e+03
2.024906e+02,2.365831e+03
2.034548e+02,2.371750e+03
2.044191e+02,2.375793e+03
2.053833e+02,2.377594e+03
2.063475e+02,2.378360e+03
2.073118e+02,2.380157e+03
2.082760e+02,2.384498e+03
2.092402e+02,2.385000e+03
2.102045e+02,2.379206e+03
2.111687e+02,2.372302e+03
2.121329e+02,2.367600e+03
2.130972e+02,2.366053e+03
2.140614e+02,2.366508e+03
2.150256e+02,2.366973e+03
2.159899e+02,2.366945e+03
2.169541e+02,2.368420e+03
2.179183e+02,2.373526e+03
2.188826e+02,2.381093e+03
2.198468e+02,2.387800e+03
2.208110e+02,2.390839e+03
2.217753e+02,2.389991e+03
2.227395e+02,2.388101e+03
2.237037e+02,2.387081e+03
2.246680e+02,2.385846e+03
2.256322e+02,2.382640e+03
2.265964e+02,2.376635e+03
2.275607e+02,2.370959e+03
2.285249e+02,2.369570e+03
2.294892e+02,2.373316e+03
2.304534e+02,2.377427e+03
2.314176e+02,2.377165e+03
2.323819e+02,2.373028e+03
2.333461e+02,2.368348e+03
2.343103e+02,2.362880e+03
2.352746e+02,2.358207e+03
2.362388e+02,2.357542e+03
2.372030e+02,2.362464e+03
2.381673e+02,2.368427e+03
2.391315e+02,2.368386e+03
2.400957e+02,2.359709e+03
2.410600e+02,2.351371e+03
2.420242e+02,2.346927e+03
2.429884e+02,2.346562e+03
2.439527e+02,2.349491e+03
2.449169e+02,2.355211e+03
2.458811e+02,2.363811e+03
2.468454e+02,2.369038e+03
2.478096e+02,2.369602e+03
2.487738e+02,2.368019e+03
2.497381e+02,2.365823e+03
2.507023e+02,2.363366e+03
2.516665e+02,2.360362e+03
2.526308e+02,2.356011e+03
2.535950e+02,2.344049e+03
2.545592e+02,2.336629e+03
2.555235e+02,2.338333e+03
2.564877e+02,2.344301e+03
2.574519e+02,2.348874e+03
2.584161e+02,2.348996e+03
2.593804e+02,2.345493e+03
2.603446e+02,2.343444e+03
2.613088e+02,2.342050e+03
2.622731e+02,2.341635e+03
2.632373e+02,2.342392e+03
2.642015e+02,2.343754e+03
2.651658e+02,2.345239e+03
2.661300e+02,2.347029e+03
2.670942e+02,2.349823e+03
2.680585e+02,2.353466e+03
2.690227e+02,2.361291e+03
2.699869e+02,2.368231e+03
2.709512e+02,2.369814e+03
2.719154e+02,2.363727e+03
2.728796e+02,2.354760e+03
2.738439e+02,2.349029e+03
2.748081e+02,2.347301e+03
2.757723e+02,2.348807e+03
2.767366e+02,2.352558e+03
2.777008e+02,2.357016e+03
2.786650e+02,2.360510e+03
2.796293e+02,2.364054e+03
2.805935e+02,2.367090e+03
2.815577e+02,2.367216e+03
2.825220e+02,2.362753e+03
2.834862e+02,2.356609e+03
2.844504e+02,2.354903e+03
2.854147e+02,2.361885e+03
2.863789e+02,2.367294e+03
2.873431e+02,2.368317e+03
2.883074e+02,2.366454e+03
2.892716e+02,2.363755e+03
2.902358e+02,2.360559e+03
2.912001e+02,2.356550e+03
2.921643e+02,2.354672e+03
2.931285e+02,2.356341e+03
2.940928e+02,2.359478e+03
2.950570e+02,2.362986e+03
2.960212e+02,2.366379e+03
2.969855e+02,2.369798e+03
2.979497e+02,2.374419e+03
2.989139e+02,2.382513e+03
2.998782e+02,2.387438e+03
3.008424e+02,2.389285e+03
3.018066e+02,2.389545e+03
3.027709e+02,2.387659e+03
3.037351e+02,2.382321e+03
3.046993e+02,2.376169e+03
3.056636e+02,2.375351e+03
3.066278e+02,2.382711e+03
3.075920e+02,2.390004e+03
3.085563e+02,2.393659e+03
3.095205e+02,2.395077e+03
3.104847e+02,2.396084e+03
3.114490e+02,2.396281e+03
3.124132e+02,2.395696e+03
3.133774e+02,2.394640e+03
3.143417e+02,2.392444e+03
3.153059e+02,2.390388e+03
3.162701e+02,2.391801e+03
3.172344e+02,2.399108e+03
3.181986e+02,2.405194e+03
3.191628e+02,2.406815e+03
3.201271e+02,2.405954e+03
3.210913e+02,2.406378e+03
3.220555e+02,2.409920e+03
3.230198e+02,2.415659e+03
3.239840e+02,2.418480e+03
3.249482e+02,2.415009e+03
3.259125e+02,2.411866e+03
3.268767e+02,2.411302e+03
3.278409e+02,2.413008e+03
3.288052e+02,2.415502e+03
3.297694e+02,2.417805e+03
3.307336e+02,2.420121e+03
3.316979e+02,2.420756e+03
3.326621e+02,2.418321e+03
3.336263e+02,2.414560e+03
3.345906e+02,2.410267e+03
3.355548e+02,2.406276e+03
3.365190e+02,2.403420e+03
3.374833e+02,2.402087e+03
3.384475e+02,2.402112e+03
3.394117e+02,2.403324e+03
3.403760e+02,2.405451e+03
3.413402e+02,2.408049e+03
3.423044e+02,2.410602e+03
3.432687e+02,2.413833e+03
3.442329e+02,2.416288e+03
3.451971e+02,2.415604e+03
3.461614e+02,2.411104e+03
3.471256e+02,2.405204e+03
3.480898e+02,2.400829e+03
3.490541e+02,2.399547e+03
3.500183e+02,2.397505e+03
3.509825e+02,2.394968e+03
3.519468e+02,2.392671e+03
3.529110e+02,2.390452e+03
3.538752e+02,2.387836e+03
3.548395e+02,2.384969e+03
3.558037e+02,2.382680e+03
3.567680e+02,2.380339e+03
3.577322e+02,2.380032e+03
3.586964e+02,2.383542e+03
3.596607e+02,2.389468e+03
3.606249e+02,2.395870e+03
3.615891e+02,2.401953e+03
3.625534e+02,2.405812e+03
3.635176e+02,2.403679e+03
3.644818e+02,2.393624e+03
3.654461e+02,2.384308e+03
3.664103e+02,2.382834e+03
3.673745e+02,2.388903e+03
3.683388e+02,2.395966e+03
3.693030e+02,2.400999e+03
3.702672e+02,2.404333e+03
3.712315e+02,2.406752e+03
3.721957e+02,2.408061e+03
3.731599e+02,2.408750e+03
3.741242e+02,2.410478e+03
3.750884e+02,2.418401e+03
3.760526e+02,2.423320e+03
3.770169e+02,2.422333e+03
3.779811e+02,2.418051e+03
3.789453e+02,2.413448e+03
3.799096e+02,2.409745e+03
3.808738e+02,2.406437e+03
3.818380e+02,2.402364e+03
3.828023e+02,2.398371e+03
3.837665e+02,2.394634e+03
3.847307e+02,2.390722e+03
3.856950e+02,2.386691e+03
3.866592e+02,2.382656e+03
3.876234e+02,2.377271e+03
3.885877e+02,2.371623e+03
3.895519e+02,2.369825e+03
3.905161e+02,2.373522e+03
3.914804e+02,2.377729e+03
3.924446e+02,2.376876e+03
3.934088e+02,2.370668e+03
3.943731e+02,2.364570e+03
3.953373e+02,2.358421e+03
3.963015e+02,2.353387e+03
3.972658e+02,2.351897e+03
3.982300e+02,2.355423e+03
3.991942e+02,2.362543e+03
4.001585e+02,2.367353e+03
4.011227e+02,2.367049e+03
4.020869e+02,2.365606e+03
4.030512e+02,2.361744e+03
4.040154e+02,2.356375e+03
4.049796e+02,2.351457e+03
4.059439e+02,2.347575e+03
4.069081e+02,2.344981e+03
4.078723e+02,2.345425e+03
4.088366e+02,2.350131e+03
4.098008e+02,2.353969e+03
4.107650e+02,2.354334e+03
4.117293e+02,2.351820e+03
4.126935e+02,2.349816e+03
4.136577e+02,2.349137e+03
4.146220e+02,2.349664e+03
4.155862e+02,2.351700e+03
4.165504e+02,2.355529e+03
4.175147e+02,2.360068e+03
4.184789e+02,2.363505e+03
4.194431e+02,2.368355e+03
4.204074e+02,2.368410e+03
4.213716e+02,2.358559e+03
4.223358e+02,2.345648e+03
4.233001e+02,2.337114e+03
4.242643e+02,2.336821e+03
4.252285e+02,2.342001e+03
4.261928e+02,2.346090e+03
4.271570e+02,2.348960e+03
4.281212e+02,2.351527e+03
4.290855e+02,2.353706e+03
4.300497e+02,2.355345e+03
4.310139e+02,2.356497e+03
4.319782e+02,2.357821e+03
4.329424e+02,2.358947e+03
4.339066e+02,2.359279e+03
4.348709e+02,2.358480e+03
4.358351e+02,2.355996e+03
4.367993e+02,2.350996e+03
4.377636e+02,2.341467e+03
4.387278e+02,2.335311e+03
4.396920e+02,2.334593e+03
4.406563e+02,2.336283e+03
4.416205e+02,2.338567e+03
4.425847e+02,2.340793e+03
4.435490e+02,2.342358e+03
4.445132e+02,2.342433e+03
4.454774e+02,2.341005e+03
4.464417e+02,2.339857e+03
4.474059e+02,2.337865e+03
4.483701e+02,2.336250e+03
4.493344e+02,2.337089e+03
4.502986e+02,2.343675e+03
4.512628e+02,2.350873e+03
4.522271e+02,2.355643e+03
4.531913e+02,2.358028e+03
4.541555e+02,2.357941e+03
4.551198e+02,2.354509e+03
4.560840e+02,2.347831e+03
4.570482e+02,2.344191e+03
4.580125e+02,2.348648e+03
4.589767e+02,2.353246e+03
4.599409e+02,2.353916e+03
4.609052e+02,2.350540e+03
4.618694e+02,2.346074e+03
4.628336e+02,2.342687e+03
4.637979e+02,2.340575e+03
4.647621e+02,2.340096e+03
4.657263e+02,2.342310e+03
4.666906e+02,2.346577e+03
4.676548e+02,2.351655e+03
4.686190e+02,2.357781e+03
4.695833e+02,2.362396e+03
4.705475e+02,2.364697e+03
4.715117e+02,2.364677e+03
4.724760e+02,2.361887e+03
4.734402e+02,2.356110e+03
4.744044e+02,2.349246e+03
4.753687e+02,2.345493e+03
4.763329e+02,2.346583e+03
4.772971e+02,2.348442e+03
4.782614e+02,2.350967e+03
4.792256e+02,2.353854e+03
4.801898e+02,2.356545e+03
4.811541e+02,2.358653e+03
4.821183e+02,2.359990e+03
4.830826e+02,2.360013e+03
4.840468e+02,2.358440e+03
4.850110e+02,2.356860e+03
4.859753e+02,2.357051e+03
4.869395e+02,2.359041e+03
4.879037e+02,2.358166e+03
4.888680e+02,2.351466e+03
4.898322e+02,2.344971e+03
4.907964e+02,2.342956e+03
4.917607e+02,2.345054e+03
4.927249e+02,2.347346e+03
4.936891e+02,2.344021e+03
4.946534e+02,2.334241e+03
4.956176e+02,2.332635e+03
4.965818e+02,2.346604e+03
4.975461e+02,2.362854e+03
4.985103e+02,2.370110e+03
4.994745e+02,2.366404e+03
5.004388e+02,2.359353e+03
5.014030e+02,2.350203e+03
5.023672e+02,2.340970e+03
5.033315e+02,2.334730e+03
5.042957e+02,2.332381e+03
5.052599e+02,2.332560e+03
5.062242e+02,2.333266e+03
5.071884e+02,2.337167e+03
5.081526e+02,2.338368e+03
5.091169e+02,2.333834e+03
5.100811e+02,2.327936e+03
5.110453e+02,2.325371e+03
5.120095e+02,2.329702e+03
5.129738e+02,2.336694e+03
5.139380e+02,2.341208e+03
5.149022e+02,2.343342e+03
5.158665e+02,2.344422e+03
5.168307e+02,2.344399e+03
5.177949e+02,2.342096e+03
5.187592e+02,2.337469e+03
5.197234e+02,2.332233e+03
5.206876e+02,2.326951e+03
5.216519e+02,2.320336e+03
5.226161e+02,2.313648e+03
5.235803e+02,2.309847e+03
5.245446e+02,2.313554e+03
5.255088e+02,2.323203e+03
5.264730e+02,2.327265e+03
5.274373e+02,2.323412e+03
5.284015e+02,2.317565e+03
5.293657e+02,2.314567e+03
5.303300e+02,2.314917e+03
5.312942e+02,2.313984e+03
5.322584e+02,2.311290e+03
5.332227e+02,2.308366e+03
5.341869e+02,2.305341e+03
5.351511e+02,2.301976e+03
5.361154e+02,2.299529e+03
5.370796e+02,2.301259e+03
5.380438e+02,2.309491e+03
5.390081e+02,2.313751e+03
5.399723e+02,2.310094e+03
5.409365e+02,2.303750e+03
5.419008e+02,2.298971e+03
5.428650e+02,2.296053e+03
5.438292e+02,2.293225e+03
5.447935e+02,2.288722e+03
5.457577e+02,2.283787e+03
5.467219e+02,2.281598e+03
5.476862e+02,2.283921e+03
5.486504e+02,2.288672e+03
5.496146e+02,2.289625e+03
5.505789e+02,2.284016e+03
5.515431e+02,2.278558e+03
5.525073e+02,2.275586e+03
5.534716e+02,2.274931e+03
5.544358e+02,2.275150e+03
5.554000e+02,2.274899e+03
5.563643e+02,2.274496e+03
5.573285e+02,2.274569e+03
5.582927e+02,2.274752e+03
5.592570e+02,2.274115e+03
5.602212e+02,2.272077e+03
5.611854e+02,2.268482e+03
5.621497e+02,2.266920e+03
5.631139e+02,2.268922e+03
5.640781e+02,2.270477e+03
5.650424e+02,2.270984e+03
5.660066e+02,2.270849e+03
5.669708e+02,2.271062e+03
5.679351e+02,2.274438e+03
5.688993e+02,2.278401e+03
5.698635e+02,2.276992e+03
5.708278e+02,2.269651e+03
5.717920e+02,2.262198e+03
5.727562e+02,2.259434e+03
5.737205e+02,2.262453e+03
5.746847e+02,2.264630e+03
5.756489e+02,2.265190e+03
5.766132e+02,2.265047e+03
5.775774e+02,2.265062e+03
5.785416e+02,2.265394e+03
5.795059e+02,2.265255e+03
5.804701e+02,2.263031e+03
5.814343e+02,2.259719e+03
5.823986e+02,2.259260e+03
5.833628e+02,2.263230e+03
5.843270e+02,2.268112e+03
5.852913e+02,2.268859e+03
5.862555e+02,2.260892e+03
5.872197e+02,2.255639e+03
5.881840e+02,2.252368e+03
5.891482e+02,2.251604e+03
5.901124e+02,2.255130e+03
5.910767e+02,2.264218e+03
5.920409e+02,2.272738e+03
5.930051e+02,2.273193e+03
5.939694e+02,2.266736e+03
5.949336e+02,2.260909e+03
5.958978e+02,2.258140e+03
5.968621e+02,2.257207e+03
5.978263e+02,2.255404e+03
5.987905e+02,2.250135e+03
5.997548e+02,2.247866e+03
6.007190e+02,2.251785e+03
6.016832e+02,2.258463e+03
6.026475e+02,2.263415e+03
6.036117e+02,2.263893e+03
6.045759e+02,2.262522e+03
6.055402e+02,2.261666e+03
6.065044e+02,2.261125e+03
6.074686e+02,2.262398e+03
6.084329e+02,2.267691e+03
6.093971e+02,2.275512e+03
6.103613e+02,2.277353e+03
6.113256e+02,2.263677e+03
6.122899e+02,2.254426e+03
6.132541e+02,2.256852e+03
6.142183e+02,2.265459e+03
6.151826e+02,2.270942e+03
6.161468e+02,2.267929e+03
6.171110e+02,2.261497e+03
6.180753e+02,2.255915e+03
6.190395e+02,2.251182e+03
6.200037e+02,2.249424e+03
6.209680e+02,2.252311e+03
6.219322e+02,2.259899e+03
6.228964e+02,2.266913e+03
6.238607e+02,2.273922e+03
6.248249e+02,2.279221e+03
6.257891e+02,2.280740e+03
6.267534e+02,2.278979e+03
6.277176e+02,2.277093e+03
6.286818e+02,2.277291e+03
6.296461e+02,2.278757e+03
6.306103e+02,2.281278e+03
6.315745e+02,2.284621e+03
6.325388e+02,2.286445e+03
6.335030e+02,2.284063e+03
6.344672e+02,2.276925e+03
6.354315e+02,2.271354e+03
6.363957e+02,2.265976e+03
6.373599e+02,2.262820e+03
6.383242e+02,2.265268e+03
6.392884e+02,2.272719e+03
6.402526e+02,2.276938e+03
6.412169e+02,2.272190e+03
6.421811e+02,2.264894e+03
6.431453e+02,2.260647e+03
6.441096e+02,2.259803e+03
6.450738e+02,2.260615e+03
6.460380e+02,2.262738e+03
6.470023e+02,2.266742e+03
6.479665e+02,2.267898e+03
6.489307e+02,2.263147e+03
6.498950e+02,2.258530e+03
6.508592e+02,2.260188e+03
6.518234e+02,2.268792e+03
6.527877e+02,2.272372e+03
6.537519e+02,2.264994e+03
6.547161e+02,2.255239e+03
6.556804e+02,2.249583e+03
6.566446e+02,2.248680e+03
6.576088e+02,2.249025e+03
6.585731e+02,2.247939e+03
6.595373e+02,2.245422e+03
6.605015e+02,2.240877e+03
6.614658e+02,2.233385e+03
6.624300e+02,2.226347e+03
6.633942e+02,2.223098e+03
6.643585e+02,2.224800e+03
6.653227e+02,2.227265e+03
6.662869e+02,2.231990e+03
6.672512e+02,2.235683e+03
6.682154e+02,2.235742e+03
6.691796e+02,2.231645e+03
6.701439e+02,2.226955e+03
6.711081e+02,2.224081e+03
6.720723e+02,2.222563e+03
6.730366e+02,2.221672e+03
6.740008e+02,2.221547e+03
6.749650e+02,2.222139e+03
6.759293e+02,2.224185e+03
6.768935e+02,2.230294e+03
6.778577e+02,2.231031e+03
6.788220e+02,2.222169e+03
6.797862e+02,2.212282e+03
6.807504e+02,2.205884e+03
6.817147e+02,2.202838e+03
6.826789e+02,2.201660e+03
6.836431e+02,2.202539e+03
6.846074e+02,2.203794e+03
6.855716e+02,2.204582e+03
6.865358e+02,2.205042e+03
6.875001e+02,2.204720e+03
6.884643e+02,2.201908e+03
6.894285e+02,2.196740e+03
6.903928e+02,2.194891e+03
6.913570e+02,2.198194e+03
6.923212e+02,2.202415e+03
6.932855e+02,2.203033e+03
6.942497e+02,2.197641e+03
6.952139e+02,2.195467e+03
6.961782e+02,2.200134e+03
6.971424e+02,2.205168e+03
6.981066e+02,2.204462e+03
6.990709e+02,2.196079e+03
7.000351e+02,2.186972e+03
7.009993e+02,2.183953e+03
7.019636e+02,2.185548e+03
7.029278e+02,2.187851e+03
7.038920e+02,2.190095e+03
7.048563e+02,2.190774e+03
7.058205e+02,2.188045e+03
7.067847e+02,2.181222e+03
7.077490e+02,2.176525e+03
7.087132e+02,2.176706e+03
7.096774e+02,2.178851e+03
7.106417e+02,2.178180e+03
7.116059e+02,2.172931e+03
7.125701e+02,2.170408e+03
7.135344e+02,2.177289e+03
7.144986e+02,2.185760e+03
7.154628e+02,2.186945e+03
7.164271e+02,2.179598e+03
7.173913e+02,2.171264e+03
7.183555e+02,2.170268e+03
7.193198e+02,2.174970e+03
7.202840e+02,2.176984e+03
7.212482e+02,2.174948e+03
7.222125e+02,2.173180e+03
7.231767e+02,2.176547e+03
7.241409e+02,2.188466e+03
7.251052e+02,2.194149e+03
7.260694e+02,2.187422e+03
7.270336e+02,2.179155e+03
7.279979e+02,2.175597e+03
7.289621e+02,2.177327e+03
7.299263e+02,2.180269e+03
7.308906e+02,2.183951e+03
7.318548e+02,2.186895e+03
7.328190e+02,2.187560e+03
7.337833e+02,2.185915e+03
7.347475e+02,2.183233e+03
7.357117e+02,2.181240e+03
7.366760e+02,2.180178e+03
7.376402e+02,2.178772e+03
7.386044e+02,2.177443e+03
7.395687e+02,2.174575e+03
7.405329e+02,2.167258e+03
7.414971e+02,2.152462e+03
7.424614e+02,2.145603e+03
7.434256e+02,2.155238e+03
7.443898e+02,2.166774e+03
7.453541e+02,2.171996e+03
7.463183e+02,2.169982e+03
7.472825e+02,2.167168e+03
7.482468e+02,2.168248e+03
7.492110e+02,2.169334e+03
7.501752e+02,2.165447e+03
7.511395e+02,2.158136e+03
7.521037e+02,2.153444e+03
7.530679e+02,2.157430e+03
7.540322e+02,2.167866e+03
7.549964e+02,2.171475e+03
7.559606e+02,2.167127e+03
7.569249e+02,2.161561e+03
7.578891e+02,2.158968e+03
7.588533e+02,2.159757e+03
7.598176e+02,2.160204e+03
7.607818e+02,2.155927e+03
7.617460e+02,2.152182e+03
7.627103e+02,2.153124e+03
7.636745e+02,2.157976e+03
7.646387e+02,2.161378e+03
7.656030e+02,2.159044e+03
7.665672e+02,2.155941e+03
7.675314e+02,2.154699e+03
7.684957e+02,2.154217e+03
7.694599e+02,2.154373e+03
7.704241e+02,2.157192e+03
7.713884e+02,2.161822e+03
7.723526e+02,2.163241e+03
7.733168e+02,2.161527e+03
7.742811e+02,2.160719e+03
7.752453e+02,2.161686e+03
7.762095e+02,2.163354e+03
7.771738e+02,2.163828e+03
7.781380e+02,2.160880e+03
7.791022e+02,2.157809e+03
7.800665e+02,2.156527e+03
7.810307e+02,2.156323e+03
7.819949e+02,2.155761e+03
7.829592e+02,2.155426e+03
7.839234e+02,2.155178e+03
7.848876e+02,2.153292e+03
7.858519e+02,2.151046e+03
7.868161e+02,2.151280e+03
7.877803e+02,2.155787e+03
7.887446e+02,2.161270e+03
7.897088e+02,2.163671e+03
7.906730e+02,2.164002e+03
7.916373e+02,2.164125e+03
7.926015e+02,2.163507e+03
7.935657e+02,2.161006e+03
7.945300e+02,2.156635e+03
7.954942e+02,2.149805e+03
7.964584e+02,2.145205e+03
7.974227e+02,2.148265e+03
7.983869e+02,2.154233e+03
7.993511e+02,2.154653e+03
8.003154e+02,2.144072e+03
8.012796e+02,2.134180e+03
8.022438e+02,2.126376e+03
8.032081e+02,2.122095e+03
8.041723e+02,2.123712e+03
8.051365e+02,2.131667e+03
8.061008e+02,2.139008e+03
8.070650e+02,2.139048e+03
8.080292e+02,2.134727e+03
8.089935e+02,2.132122e+03
8.099577e+02,2.132730e+03
8.109219e+02,2.134341e+03
8.118862e+02,2.133649e+03
8.128504e+02,2.130793e+03
8.138146e+02,2.131203e+03
8.147789e+02,2.136161e+03
8.157431e+02,2.140087e+03
8.167073e+02,2.138238e+03
8.176716e+02,2.129991e+03
8.186358e+02,2.126285e+03
8.196000e+02,2.131796e+03
8.205643e+02,2.137226e+03
8.215285e+02,2.137010e+03
8.224927e+02,2.131743e+03
8.234570e+02,2.127866e+03
8.244212e+02,2.127676e+03
8.253854e+02,2.128889e+03
8.263497e+02,2.132113e+03
8.273139e+02,2.134861e+03
8.282781e+02,2.132370e+03
8.292424e+02,2.118473e+03
8.302066e+02,2.101769e+03
8.311708e+02,2.093778e+03
8.321351e+02,2.093475e+03
8.330993e+02,2.096270e+03
8.340635e+02,2.100062e+03
8.350278e+02,2.103901e+03
8.359920e+02,2.105906e+03
8.369562e+02,2.106349e+03
8.379205e+02,2.103447e+03
8.388847e+02,2.094662e+03
8.398489e+02,2.083439e+03
8.408132e+02,2.078352e+03
8.417774e+02,2.085383e+03
8.427416e+02,2.089327e+03
8.437059e+02,2.086985e+03
8.446701e+02,2.081855e+03
8.456343e+02,2.077439e+03
8.465986e+02,2.072829e+03
8.475628e+02,2.071172e+03
8.485270e+02,2.076564e+03
8.494913e+02,2.083751e+03
8.504555e+02,2.087332e+03
8.514197e+02,2.086205e+03
8.523840e+02,2.084390e+03
8.533482e+02,2.084926e+03
8.543124e+02,2.086443e+03
8.552767e+02,2.086863e+03
8.562409e+02,2.085723e+03
8.572051e+02,2.083423e+03
8.581694e+02,2.080207e+03
8.591336e+02,2.076558e+03
8.600978e+02,2.075152e+03
8.610621e+02,2.076799e+03
8.620263e+02,2.079376e+03
8.629905e+02,2.081133e+03
8.639548e+02,2.081400e+03
8.649190e+02,2.078569e+03
8.658832e+02,2.070216e+03
8.668475e+02,2.064023e+03
8.678117e+02,2.064952e+03
8.687759e+02,2.071247e+03
8.697402e+02,2.075094e+03
8.707044e+02,2.073550e+03
8.716686e+02,2.069930e+03
8.726329e+02,2.065712e+03
8.735971e+02,2.061750e+03
8.745613e+02,2.058542e+03
8.755256e+02,2.056062e+03
8.764898e+02,2.055904e+03
8.774540e+02,2.060862e+03
8.784183e+02,2.067738e+03
8.793825e+02,2.070869e+03
8.803467e+02,2.067618e+03
8.813110e+02,2.062063e+03
8.822752e+02,2.059015e+03
8.832394e+02,2.058532e+03
8.842037e+02,2.059767e+03
8.851679e+02,2.062149e+03
8.861321e+02,2.063890e+03
8.870964e+02,2.062174e+03
8.880606e+02,2.056561e+03
8.890248e+02,2.054131e+03
8.899891e+02,2.057917e+03
8.909533e+02,2.061841e+03
8.919175e+02,2.059231e+03
8.928818e+02,2.048049e+03
8.938460e+02,2.039279e+03
8.948102e+02,2.031696e+03
8.957745e+02,2.026838e+03
8.967387e+02,2.026848e+03
8.977029e+02,2.031030e+03
8.986672e+02,2.034476e+03
8.996314e+02,2.038195e+03
9.005956e+02,2.041975e+03
9.015599e+02,2.046656e+03
9.025241e+02,2.050708e+03
9.034883e+02,2.051115e+03
9.044526e+02,2.040469e+03
9.054168e+02,2.030839e+03
9.063810e+02,2.033468e+03
9.073453e+02,2.044077e+03
9.083095e+02,2.053213e+03
9.092737e+02,2.056250e+03
9.102380e+02,2.055374e+03
9.112022e+02,2.051763e+03
9.121664e+02,2.046326e+03
9.131307e+02,2.041825e+03
9.140949e+02,2.039739e+03
9.150591e+02,2.039808e+03
9.160234e+02,2.040432e+03
9.169876e+02,2.040518e+03
9.179518e+02,2.039928e+03
9.189161e+02,2.038675e+03
9.198803e+02,2.037127e+03
9.208445e+02,2.036438e+03
9.218088e+02,2.037455e+03
9.227730e+02,2.037775e+03
9.237372e+02,2.035971e+03
9.247015e+02,2.035109e+03
9.256657e+02,2.037816e+03
9.266299e+02,2.044152e+03
9.275942e+02,2.048322e+03
9.285584e+02,2.048634e+03
9.295226e+02,2.047856e+03
9.304869e+02,2.047252e+03
9.314511e+02,2.046899e+03
9.324153e+02,2.045988e+03
9.333796e+02,2.044068e+03
9.343438e+02,2.041887e+03
9.353080e+02,2.038103e+03
9.362723e+02,2.033672e+03
9.372365e+02,2.031155e+03
9.382007e+02,2.035055e+03
9.391650e+02,2.037298e+03
9.401292e+02,2.030474e+03
9.410934e+02,2.021433e+03
9.420577e+02,2.018160e+03
9.430219e+02,2.022721e+03
9.439861e+02,2.028427e+03
9.449504e+02,2.032842e+03
9.459146e+02,2.035896e+03
9.468788e+02,2.034606e+03
9.478431e+02,2.028149e+03
9.488073e+02,2.021332e+03
9.497715e+02,2.021036e+03
9.507358e+02,2.024209e+03
9.517000e+02,2.023094e+03
9.526642e+02,2.018409e+03
9.536285e+02,2.013184e+03
9.545927e+02,2.008019e+03
9.555569e+02,2.004010e+03
9.565212e+02,2.006654e+03
9.574854e+02,2.016884e+03
9.584496e+02,2.025177e+03
9.594139e+02,2.026610e+03
9.603781e+02,2.023111e+03
9.613423e+02,2.021046e+03
9.623066e+02,2.021067e+03
9.632708e+02,2.020028e+03
9.642350e+02,2.017889e+03
9.651993e+02,2.014843e+03
9.661635e+02,2.010043e+03
9.671277e+02,2.000742e+03
9.680920e+02,1.994688e+03
9.690562e+02,1.993567e+03
9.700204e+02,1.993674e+03
9.709847e+02,1.992911e+03
9.719489e+02,1.991587e+03
9.729131e+02,1.991064e+03
9.738774e+02,1.992768e+03
9.748416e+02,1.994829e+03
9.758058e+02,1.995704e+03
9.767701e+02,1.995015e+03
9.777343e+02,1.994011e+03
9.786985e+02,1.992782e+03
9.796628e+02,1.990850e+03
9.806270e+02,1.988242e+03
9.815912e+02,1.985057e+03
9.825555e+02,1.981614e+03
9.835197e+02,1.979260e+03
9.844839e+02,1.976617e+03
9.854482e+02,1.972669e+03
9.864124e+02,1.968699e+03
9.873766e+02,1.965293e+03
9.883409e+02,1.962592e+03
9.893051e+02,1.961940e+03
9.902693e+02,1.965083e+03
9.912336e+02,1.970334e+03
9.921978e+02,1.976453e+03
9.931620e+02,1.982175e+03
9.941263e+02,1.984556e+03
9.950905e+02,1.978899e+03
9.960547e+02,1.970838e+03
9.970190e+02,1.968287e+03
9.979832e+02,1.969777e+03
9.989474e+02,1.969467e+03
9.999117e+02,1.963905e+03
1.000876e+03,1.956386e+03
1.001840e+03,1.950779e+03
1.002804e+03,1.947548e+03
1.003769e+03,1.946991e+03
1.004733e+03,1.948880e+03
1.005697e+03,1.951794e+03
1.006661e+03,1.954838e+03
1.007626e+03,1.957755e+03
1.008590e+03,1.958088e+03
1.009554e+03,1.954819e+03
1.010518e+03,1.950784e+03
1.011482e+03,1.950597e+03
1.012447e+03,1.953434e+03
1.013411e+03,1.952114e+03
1.014375e+03,1.946950e+03
1.015339e+03,1.943447e+03
1.016304e+03,1.945578e+03
1.017268e+03,1.951801e+03
1.018232e+03,1.953964e+03
1.019196e+03,1.951395e+03
1.020161e+03,1.947719e+03
1.021125e+03,1.944442e+03
1.022089e+03,1.942195e+03
1.023053e+03,1.941368e+03
1.024018e+03,1.941561e+03
1.024982e+03,1.941393e+03
1.025946e+03,1.940012e+03
1.026910e+03,1.937801e+03
1.027875e+03,1.936485e+03
1.028839e+03,1.937456e+03
1.029803e+03,1.937994e+03
1.030767e+03,1.937411e+03
1.031731e+03,1.937814e+03
1.032696e+03,1.940731e+03
1.033660e+03,1.946141e+03
1.034624e+03,1.949700e+03
1.035588e+03,1.951770e+03
1.036552e+03,1.952642e+03
1.037517e+03,1.951033e+03
1.038481e+03,1.947429e+03
1.039445e+03,1.945981e+03
1.040409e+03,1.949632e+03
1.041374e+03,1.950615e+03
1.042338e+03,1.946136e+03
1.043302e+03,1.940175e+03
1.044266e+03,1.937553e+03
1.045231e+03,1.940907e+03
1.046195e+03,1.942254e+03
1.047159e+03,1.940014e+03
1.048123e+03,1.937910e+03
1.049088e+03,1.938725e+03
1.050052e+03,1.943558e+03
1.051016e+03,1.947607e+03
1.051980e+03,1.951494e+03
1.052945e+03,1.953496e+03
1.053909e+03,1.950246e+03
1.054873e+03,1.942802e+03
1.055837e+03,1.938509e+03
1.056802e+03,1.940366e+03
1.057766e+03,1.943553e+03
1.058730e+03,1.949459e+03
1.059694e+03,1.955658e+03
1.060658e+03,1.958729e+03
1.061623e+03,1.957099e+03
1.062587e+03,1.955790e+03
1.063551e+03,1.955850e+03
1.064515e+03,1.956245e+03
1.065479e+03,1.955086e+03
1.066444e+03,1.952392e+03
1.067408e+03,1.953239e+03
1.068372e+03,1.962707e+03
1.069336e+03,1.971489e+03
1.070301e+03,1.972050e+03
1.071265e+03,1.967186e+03
1.072229e+03,1.967685e+03
1.073193e+03,1.985582e+03
1.074158e+03,1.996732e+03
1.075122e+03,1.989502e+03
1.076086e+03,1.974663e+03
1.077050e+03,1.965586e+03
1.078015e+03,1.967287e+03
1.078979e+03,1.970807e+03
1.079943e+03,1.977356e+03
1.080907e+03,1.982108e+03
1.081872e+03,1.979381e+03
1.082836e+03,1.968264e+03
1.083800e+03,1.960323e+03
1.084764e+03,1.958502e+03
1.085729e+03,1.960872e+03
1.086693e+03,1.968424e+03
1.087657e+03,1.978998e+03
1.088621e+03,1.987822e+03
1.089585e+03,1.995407e+03
1.090550e+03,1.998392e+03
1.091514e+03,1.992172e+03
1.092478e+03,1.984557e+03
1.093442e+03,1.984771e+03
1.094406e+03,1.998757e+03
1.095371e+03,2.006984e+03
1.096335e+03,2.001143e+03
1.097299e+03,1.991291e+03
1.098263e+03,1.982073e+03
1.099228e+03,1.973892e+03
1.100192e+03,1.969735e+03
1.101156e+03,1.974071e+03
1.102120e+03,1.977882e+03
1.103085e+03,1.976993e+03
1.104049e+03,1.973573e+03
1.105013e+03,1.972120e+03
1.105977e+03,1.977699e+03
1.106942e+03,1.979890e+03
1.107906e+03,1.974256e+03
1.108870e+03,1.966556e+03
1.109834e+03,1.961842e+03
1.110799e+03,1.961046e+03
1.111763e+03,1.961126e+03
1.112727e+03,1.962838e+03
1.113691e+03,1.964932e+03
1.114656e+03,1.966899e+03
1.115620e+03,1.968554e+03
1.116584e+03,1.968889e+03
1.117548e+03,1.965063e+03
1.118512e+03,1.961586e+03
1.119477e+03,1.959940e+03
1.120441e+03,1.959287e+03
1.121405e+03,1.958666e+03
1.122369e+03,1.960400e+03
1.123334e+03,1.958748e+03
1.124298e+03,1.951805e+03
1.125262e+03,1.943779e+03
1.126226e+03,1.936670e+03
1.127191e+03,1.930109e+03
1.128155e+03,1.929310e+03
1.129119e+03,1.939228e+03
1.130083e+03,1.947044e+03
1.131047e+03,1.945798e+03
1.132012e+03,1.938647e+03
1.132976e+03,1.937930e+03
1.133940e+03,1.949367e+03
1.134904e+03,1.955243e+03
1.135869e+03,1.951049e+03
1.136833e+03,1.943688e+03
1.137797e+03,1.940965e+03
1.138761e+03,1.945119e+03
1.139726e+03,1.947874e+03
1.140690e+03,1.948748e+03
1.141654e+03,1.948191e+03
1.142618e+03,1.945306e+03
1.143583e+03,1.941009e+03
1.144547e+03,1.942668e+03
1.145511e+03,1.952694e+03
1.146475e+03,1.958722e+03
1.147439e+03,1.955775e+03
1.148404e+03,1.949316e+03
1.149368e+03,1.948744e+03
1.150332e+03,1.954461e+03
1.151296e+03,1.960201e+03
1.152261e+03,1.965159e+03
1.153225e+03,1.965663e+03
1.154189e+03,1.957696e+03
1.155153e+03,1.943738e+03
1.156118e+03,1.939944e+03
1.157082e+03,1.947207e+03
1.158046e+03,1.954575e+03
1.159010e+03,1.956027e+03
1.159974e+03,1.954667e+03
1.160939e+03,1.957580e+03
1.161903e+03,1.963598e+03
1.162867e+03,1.968048e+03
1.163831e+03,1.969916e+03
1.164796e+03,1.968893e+03
1.165760e+03,1.963730e+03
1.166724e+03,1.956441e+03
1.167688e+03,1.952712e+03
1.168653e+03,1.952008e+03
1.169617e+03,1.948684e+03
1.170581e+03,1.937486e+03
1.171545e+03,1.924556e+03
1.172510e+03,1.919500e+03
1.173474e+03,1.919734e+03
1.174438e+03,1.918728e+03
1.175402e+03,1.914086e+03
1.176366e+03,1.908824e+03
1.177331e+03,1.905313e+03
1.178295e+03,1.903331e+03
1.179259e+03,1.903711e+03
1.180223e+03,1.905249e+03
1.181188e+03,1.903422e+03
1.182152e+03,1.891292e+03
1.183116e+03,1.879311e+03
1.184080e+03,1.876022e+03
1.185045e+03,1.878583e+03
1.186009e+03,1.881380e+03
1.186973e+03,1.883578e+03
1.187937e+03,1.885257e+03
1.188901e+03,1.884051e+03
1.189866e+03,1.883557e+03
1.190830e+03,1.887901e+03
1.191794e+03,1.897178e+03
1.192758e+03,1.902178e+03
1.193723e+03,1.897234e+03
1.194687e+03,1.893371e+03
1.195651e+03,1.896209e+03
1.196615e+03,1.902708e+03
1.197580e+03,1.905129e+03
1.198544e+03,1.900036e+03
1.199508e+03,1.893119e+03
1.200472e+03,1.883809e+03
1.201437e+03,1.875611e+03
1.202401e+03,1.871845e+03
1.203365e+03,1.873441e+03
1.204329e+03,1.876145e+03
1.205293e+03,1.880459e+03
1.206258e+03,1.883912e+03
1.207222e+03,1.884993e+03
1.208186e+03,1.884242e+03
1.209150e+03,1.883601e+03
1.210115e+03,1.882440e+03
1.211079e+03,1.883001e+03
1.212043e+03,1.886759e+03
1.213007e+03,1.888267e+03
1.213972e+03,1.878915e+03
1.214936e+03,1.861883e+03
1.215900e+03,1.855394e+03
1.216864e+03,1.859217e+03
1.217828e+03,1.861917e+03
1.218793e+03,1.855332e+03
1.219757e+03,1.846352e+03
1.220721e+03,1.847402e+03
1.221685e+03,1.855675e+03
1.222650e+03,1.863380e+03
1.223614e+03,1.867947e+03
1.224578e+03,1.870542e+03
1.225542e+03,1.873061e+03
1.226507e+03,1.874889e+03
1.227471e+03,1.875312e+03
1.228435e+03,1.873591e+03
1.229399e+03,1.868836e+03
1.230364e+03,1.857691e+03
1.231328e+03,1.847623e+03
1.232292e+03,1.844441e+03
1.233256e+03,1.845234e+03
1.234220e+03,1.845110e+03
1.235185e+03,1.842965e+03
1.236149e+03,1.842005e+03
1.237113e+03,1.844668e+03
1.238077e+03,1.847565e+03
1.239042e+03,1.846479e+03
1.240006e+03,1.841451e+03
1.240970e+03,1.839906e+03
1.241934e+03,1.844806e+03
1.242899e+03,1.847716e+03
1.243863e+03,1.846760e+03
1.244827e+03,1.844335e+03
1.245791e+03,1.843485e+03
1.246755e+03,1.844599e+03
1.247720e+03,1.844836e+03
1.248684e+03,1.844067e+03
1.249648e+03,1.844022e+03
1.250612e+03,1.845646e+03
1.251577e+03,1.848302e+03
1.252541e+03,1.851163e+03
1.253505e+03,1.853872e+03
1.254469e+03,1.855200e+03
1.255434e+03,1.855114e+03
1.256398e+03,1.854142e+03
1.257362e+03,1.851563e+03
1.258326e+03,1.848007e+03
1.259291e+03,1.845560e+03
1.260255e+03,1.843855e+03
1.261219e+03,1.841251e+03
1.262183e+03,1.835755e+03
1.263147e+03,1.832088e+03
1.264112e+03,1.835701e+03
1.265076e+03,1.842344e+03
1.266040e+03,1.845274e+03
1.267004e+03,1.842042e+03
1.267969e+03,1.838514e+03
1.268933e+03,1.834913e+03
1.269897e+03,1.834564e+03
1.270861e+03,1.840301e+03
1.271826e+03,1.849743e+03
1.272790e+03,1.853718e+03
1.273754e+03,1.848895e+03
1.274718e+03,1.845622e+03
1.275682e+03,1.847232e+03
1.276647e+03,1.851055e+03
1.277611e+03,1.853370e+03
1.278575e+03,1.853876e+03
1.279539e+03,1.852769e+03
1.280504e+03,1.850786e+03
1.281468e+03,1.849404e+03
1.282432e+03,1.848934e+03
1.283396e+03,1.849199e+03
1.284361e+03,1.849621e+03
1.285325e+03,1.849965e+03
1.286289e+03,1.851134e+03
1.287253e+03,1.853280e+03
1.288218e+03,1.855304e+03
1.289182e+03,1.857497e+03
1.290146e+03,1.858719e+03
1.291110e+03,1.856798e+03
1.292074e+03,1.852787e+03
1.293039e+03,1.849762e+03
1.294003e+03,1.849765e+03
1.294967e+03,1.849570e+03
1.295931e+03,1.848895e+03
1.296896e+03,1.847766e+03
1.297860e+03,1.844956e+03
1.298824e+03,1.838403e+03
1.299788e+03,1.837402e+03
1.300753e+03,1.846194e+03
1.301717e+03,1.854359e+03
1.302681e+03,1.857537e+03
1.303645e+03,1.857517e+03
1.304609e+03,1.859760e+03
1.305574e+03,1.864055e+03
1.306538e+03,1.866671e+03
1.307502e+03,1.867791e+03
1.308466e+03,1.868939e+03
1.309431e+03,1.870984e+03
1.310395e+03,1.873803e+03
1.311359e+03,1.876366e+03
1.312323e+03,1.878204e+03
1.313288e+03,1.880861e+03
1.314252e+03,1.886556e+03
1.315216e+03,1.892687e+03
1.316180e+03,1.895904e+03
1.317145e+03,1.897692e+03
1.318109e+03,1.899271e+03
1.319073e+03,1.900103e+03
1.320037e+03,1.899728e+03
1.321001e+03,1.897496e+03
1.321966e+03,1.894815e+03
1.322930e+03,1.892330e+03
1.323894e+03,1.890984e+03
1.324858e+03,1.891358e+03
1.325823e+03,1.894816e+03
1.326787e+03,1.896703e+03
1.327751e+03,1.896567e+03
1.328715e+03,1.893873e+03
1.329680e+03,1.887037e+03
1.330644e+03,1.878347e+03
1.331608e+03,1.880028e+03
1.332572e+03,1.890732e+03
1.333536e+03,1.894491e+03
1.334501e+03,1.885939e+03
1.335465e+03,1.874963e+03
1.336429e+03,1.874146e+03
1.337393e+03,1.878266e+03
1.338358e+03,1.879649e+03
1.339322e+03,1.878090e+03
1.340286e+03,1.875564e+03
1.341250e+03,1.874087e+03
1.342215e+03,1.870472e+03
1.343179e+03,1.862662e+03
1.344143e+03,1.854233e+03
1.345107e+03,1.847890e+03
1.346072e+03,1.843654e+03
1.347036e+03,1.839278e+03
1.348000e+03,1.833776e+03
1.348964e+03,1.828820e+03
1.349928e+03,1.825370e+03
1.350893e+03,1.823940e+03
1.351857e+03,1.825631e+03
1.352821e+03,1.829795e+03
1.353785e+03,1.829081e+03
1.354750e+03,1.822297e+03
1.355714e+03,1.815370e+03
1.356678e+03,1.814801e+03
1.357642e+03,1.817896e+03
1.358607e+03,1.821536e+03
1.359571e+03,1.824115e+03
1.360535e+03,1.821855e+03
1.361499e+03,1.811431e+03
1.362464e+03,1.803936e+03
1.363428e+03,1.807162e+03
1.364392e+03,1.813392e+03
1.365356e+03,1.816777e+03
1.366320e+03,1.816419e+03
1.367285e+03,1.815096e+03
1.368249e+03,1.813717e+03
1.369213e+03,1.810649e+03
1.370177e+03,1.804181e+03
1.371142e+03,1.799057e+03
1.372106e+03,1.803838e+03
1.373070e+03,1.816167e+03
1.374034e+03,1.816072e+03
1.374999e+03,1.805291e+03
1.375963e+03,1.797382e+03
1.376927e+03,1.799517e+03
1.377891e+03,1.805938e+03
1.378855e+03,1.815007e+03
1.379820e+03,1.821800e+03
1.380784e+03,1.818097e+03
1.381748e+03,1.803472e+03
1.382712e+03,1.791964e+03
1.383677e+03,1.786968e+03
1.384641e+03,1.785050e+03
1.385605e+03,1.786200e+03
1.386569e+03,1.788645e+03
1.387534e+03,1.790169e+03
1.388498e+03,1.790949e+03
1.389462e+03,1.791010e+03
1.390426e+03,1.789943e+03
1.391391e+03,1.787241e+03
1.392355e+03,1.782820e+03
1.393319e+03,1.777621e+03
1.394283e+03,1.771039e+03
1.395247e+03,1.764647e+03
1.396212e+03,1.763412e+03
1.397176e+03,1.768697e+03
1.398140e+03,1.774660e+03
1.399104e+03,1.779111e+03
1.400069e+03,1.781105e+03
1.401033e+03,1.779621e+03
1.401997e+03,1.775342e+03
1.402961e+03,1.770021e+03
1.403926e+03,1.761772e+03
1.404890e+03,1.756971e+03
1.405854e+03,1.757237e+03
1.406818e+03,1.758740e+03
1.407782e+03,1.758725e+03
1.408747e+03,1.758201e+03
1.409711e+03,1.759286e+03
1.410675e+03,1.760701e+03
1.411639e+03,1.761091e+03
1.412604e+03,1.760324e+03
1.413568e+03,1.758814e+03
1.414532e+03,1.756151e+03
1.415496e+03,1.754605e+03
1.416461e+03,1.756047e+03
1.417425e+03,1.759298e+03
1.418389e+03,1.761581e+03
1.419353e+03,1.764191e+03
1.420318e+03,1.762835e+03
1.421282e+03,1.755837e+03
1.422246e+03,1.748648e+03
1.423210e+03,1.745171e+03
1.424174e+03,1.745396e+03
1.425139e+03,1.748551e+03
1.426103e+03,1.753696e+03
1.427067e+03,1.756838e+03
1.428031e+03,1.756633e+03
1.428996e+03,1.755254e+03
1.429960e+03,1.754287e+03
1.430924e+03,1.752901e+03
1.431888e+03,1.749924e+03
1.432853e+03,1.745815e+03
1.433817e+03,1.742493e+03
1.434781e+03,1.740513e+03
1.435745e+03,1.740207e+03
1.436709e+03,1.741599e+03
1.437674e+03,1.742986e+03
1.438638e+03,1.743631e+03
1.439602e+03,1.744050e+03
1.440566e+03,1.744427e+03
1.441531e+03,1.744492e+03
1.442495e+03,1.743507e+03
1.443459e+03,1.740897e+03
1.444423e+03,1.737129e+03
1.445388e+03,1.730884e+03
1.446352e+03,1.724419e+03
1.447316e+03,1.721208e+03
1.448280e+03,1.721507e+03
1.449245e+03,1.721462e+03
1.450209e+03,1.718242e+03
1.451173e+03,1.717810e+03
1.452137e+03,1.721453e+03
1.453101e+03,1.724860e+03
1.454066e+03,1.724310e+03
1.455030e+03,1.720458e+03
1.455994e+03,1.718047e+03
1.456958e+03,1.716781e+03
1.457923e+03,1.714616e+03
1.458887e+03,1.709849e+03
1.459851e+03,1.705792e+03
1.460815e+03,1.705793e+03
1.461780e+03,1.707058e+03
1.462744e+03,1.709378e+03
1.463708e+03,1.712230e+03
1.464672e+03,1.710683e+03
1.465636e+03,1.701380e+03
1.466601e+03,1.695869e+03
1.467565e+03,1.696290e+03
1.468529e+03,1.698791e+03
1.469493e+03,1.699447e+03
1.470458e+03,1.698359e+03
1.471422e+03,1.697425e+03
1.472386e+03,1.697058e+03
1.473350e+03,1.697757e+03
1.474315e+03,1.699640e+03
1.475279e+03,1.701072e+03
1.476243e+03,1.700719e+03
1.477207e+03,1.699265e+03
1.478172e+03,1.697289e+03
1.479136e+03,1.695384e+03
1.480100e+03,1.695281e+03
1.481064e+03,1.698029e+03
1.482028e+03,1.699070e+03
1.482993e+03,1.697916e+03
1.483957e+03,1.696247e+03
1.484921e+03,1.694119e+03
1.485885e+03,1.692677e+03
1.486850e+03,1.696453e+03
1.487814e+03,1.701656e+03
1.488778e+03,1.699969e+03
1.489742e+03,1.686390e+03
1.490707e+03,1.676443e+03
1.491671e+03,1.678036e+03
1.492635e+03,1.683305e+03
1.493599e+03,1.689428e+03
1.494563e+03,1.694891e+03
1.495528e+03,1.696457e+03
1.496492e+03,1.693955e+03
1.497456e+03,1.690303e+03
1.498420e+03,1.686448e+03
1.499385e+03,1.683452e+03
1.500349e+03,1.682244e+03
1.501313e+03,1.682180e+03
1.502277e+03,1.682420e+03
1.503242e+03,1.683010e+03
1.504206e+03,1.684408e+03
1.505170e+03,1.687125e+03
1.506134e+03,1.687461e+03
1.507099e+03,1.685233e+03
1.508063e+03,1.681102e+03
1.509027e+03,1.674287e+03
1.509991e+03,1.668115e+03
1.510955e+03,1.669654e+03
1.511920e+03,1.675920e+03
1.512884e+03,1.681609e+03
1.513848e+03,1.686320e+03
1.514812e+03,1.688058e+03
1.515777e+03,1.680369e+03
1.516741e+03,1.673945e+03
1.517705e+03,1.673176e+03
1.518669e+03,1.674356e+03
1.519634e+03,1.675422e+03
1.520598e+03,1.676028e+03
1.521562e+03,1.674305e+03
1.522526e+03,1.670049e+03
1.523490e+03,1.667850e+03
1.524455e+03,1.669885e+03
1.525419e+03,1.671675e+03
1.526383e+03,1.669609e+03
1.527347e+03,1.665217e+03
1.528312e+03,1.659403e+03
1.529276e+03,1.653512e+03
1.530240e+03,1.649899e+03
1.531204e+03,1.649043e+03
1.532169e+03,1.647007e+03
1.533133e+03,1.643087e+03
1.534097e+03,1.640046e+03
1.535061e+03,1.640187e+03
1.536026e+03,1.641941e+03
1.536990e+03,1.642876e+03
1.537954e+03,1.643859e+03
1.538918e+03,1.646955e+03
1.539882e+03,1.653086e+03
1.540847e+03,1.656332e+03
1.541811e+03,1.652934e+03
1.542775e+03,1.647763e+03
1.543739e+03,1.641414e+03
1.544704e+03,1.636535e+03
1.545668e+03,1.638624e+03
1.546632e+03,1.646066e+03
1.547596e+03,1.650209e+03
1.548561e+03,1.651068e+03
1.549525e+03,1.652461e+03
1.550489e+03,1.657265e+03
1.551453e+03,1.660750e+03
1.552417e+03,1.660169e+03
1.553382e+03,1.657583e+03
1.554346e+03,1.655003e+03
1.555310e+03,1.652735e+03
1.556274e+03,1.650753e+03
1.557239e+03,1.648905e+03
1.558203e+03,1.646245e+03
1.559167e+03,1.642352e+03
1.560131e+03,1.641291e+03
1.561096e+03,1.650361e+03
1.562060e+03,1.660724e+03
1.563024e+03,1.664843e+03
1.563988e+03,1.664480e+03
1.564953e+03,1.664355e+03
1.565917e+03,1.664927e+03
1.566881e+03,1.664462e+03
1.567845e+03,1.662410e+03
1.568809e+03,1.660062e+03
1.569774e+03,1.657489e+03
1.570738e+03,1.656889e+03
1.571702e+03,1.664072e+03
1.572666e+03,1.673205e+03
1.573631e+03,1.675829e+03
1.574595e+03,1.671630e+03
1.575559e+03,1.671248e+03
1.576523e+03,1.678585e+03
1.577488e+03,1.682276e+03
1.578452e+03,1.678355e+03
1.579416e+03,1.673347e+03
1.580380e+03,1.677283e+03
1.581344e+03,1.684142e+03
1.582309e+03,1.680772e+03
1.583273e+03,1.671219e+03
1.584237e+03,1.665313e+03
1.585201e+03,1.668704e+03
1.586166e+03,1.668072e+03
1.587130e+03,1.658025e+03
1.588094e+03,1.650744e+03
1.589058e+03,1.653320e+03
1.590023e+03,1.659813e+03
1.590987e+03,1.656470e+03
1.591951e+03,1.648119e+03
1.592915e+03,1.645126e+03
1.593880e+03,1.647308e+03
1.594844e+03,1.649134e+03
1.595808e+03,1.649051e+03
1.596772e+03,1.647586e+03
1.597736e+03,1.643929e+03
1.598701e+03,1.641856e+03
1.599665e+03,1.645790e+03
1.600629e+03,1.653338e+03
1.601593e+03,1.654237e+03
1.602558e+03,1.650089e+03
1.603522e+03,1.645315e+03
1.604486e+03,1.640662e+03
1.605450e+03,1.638040e+03
1.606415e+03,1.641827e+03
1.607379e+03,1.644473e+03
1.608343e+03,1.641414e+03
1.609307e+03,1.636981e+03
1.610271e+03,1.641530e+03
1.611236e+03,1.651730e+03
1.612200e+03,1.651590e+03
1.613164e+03,1.642506e+03
1.614128e+03,1.635586e+03
1.615093e+03,1.639583e+03
1.616057e+03,1.641586e+03
1.617021e+03,1.635296e+03
1.617985e+03,1.626672e+03
1.618950e+03,1.618977e+03
1.619914e+03,1.612620e+03
1.620878e+03,1.610751e+03
1.621842e+03,1.611654e+03
1.622807e+03,1.606521e+03
1.623771e+03,1.593820e+03
1.624735e+03,1.583810e+03
1.625699e+03,1.580616e+03
1.626663e+03,1.581899e+03
1.627628e+03,1.588969e+03
1.628592e+03,1.595799e+03
1.629556e+03,1.595432e+03
1.630520e+03,1.589808e+03
1.631485e+03,1.584623e+03
1.632449e+03,1.580313e+03
1.633413e+03,1.579074e+03
1.634377e+03,1.583321e+03
1.635342e+03,1.587183e+03
1.636306e+03,1.589221e+03
1.637270e+03,1.589441e+03
1.638234e+03,1.587211e+03
1.639198e+03,1.583793e+03
1.640163e+03,1.580118e+03
1.641127e+03,1.577590e+03
1.642091e+03,1.580744e+03
1.643055e+03,1.588821e+03
1.644020e+03,1.595730e+03
1.644984e+03,1.601519e+03
1.645948e+03,1.599835e+03
1.646912e+03,1.586514e+03
1.647877e+03,1.572439e+03
1.648841e+03,1.567074e+03
1.649805e+03,1.568200e+03
1.650769e+03,1.568766e+03
1.651734e+03,1.569233e+03
1.652698e+03,1.571627e+03
1.653662e+03,1.576418e+03
1.654626e+03,1.579414e+03
1.655590e+03,1.578998e+03
1.656555e+03,1.578042e+03
1.657519e+03,1.578528e+03
1.658483e+03,1.578145e+03
1.659447e+03,1.570020e+03
1.660412e+03,1.558532e+03
1.661376e+03,1.554252e+03
1.662340e+03,1.556135e+03
1.663304e+03,1.557849e+03
1.664269e+03,1.553630e+03
1.665233e+03,1.555525e+03
1.666197e+03,1.566076e+03
1.667161e+03,1.572543e+03
1.668125e+03,1.567266e+03
1.669090e+03,1.556904e+03
1.670054e+03,1.548810e+03
1.671018e+03,1.543938e+03
1.671982e+03,1.545374e+03
1.672947e+03,1.552948e+03
1.673911e+03,1.558311e+03
1.674875e+03,1.560448e+03
1.675839e+03,1.558997e+03
1.676804e+03,1.554446e+03
1.677768e+03,1.549682e+03
1.678732e+03,1.545489e+03
1.679696e+03,1.542467e+03
1.680661e+03,1.541810e+03
1.681625e+03,1.541746e+03
1.682589e+03,1.541159e+03
1.683553e+03,1.540633e+03
1.684517e+03,1.538795e+03
1.685482e+03,1.535446e+03
1.686446e+03,1.530908e+03
1.687410e+03,1.524787e+03
1.688374e+03,1.520773e+03
1.689339e+03,1.524021e+03
1.690303e+03,1.527500e+03
1.691267e+03,1.526424e+03
1.692231e+03,1.523464e+03
1.693196e+03,1.522995e+03
1.694160e+03,1.523947e+03
1.695124e+03,1.521193e+03
1.696088e+03,1.515598e+03
1.697052e+03,1.511549e+03
1.698017e+03,1.509852e+03
1.698981e+03,1.509966e+03
1.699945e+03,1.512956e+03
1.700909e+03,1.514175e+03
1.701874e+03,1.511502e+03
1.702838e+03,1.508416e+03
1.703802e+03,1.512439e+03
1.704766e+03,1.518754e+03
1.705731e+03,1.519107e+03
1.706695e+03,1.513196e+03
1.707659e+03,1.507917e+03
1.708623e+03,1.503473e+03
1.709588e+03,1.504574e+03
1.710552e+03,1.512059e+03
1.711516e+03,1.518748e+03
1.712480e+03,1.517948e+03
1.713444e+03,1.514120e+03
1.714409e+03,1.512324e+03
1.715373e+03,1.511716e+03
1.716337e+03,1.509860e+03
1.717301e+03,1.507027e+03
1.718266e+03,1.508990e+03
1.719230e+03,1.515267e+03
1.720194e+03,1.520475e+03
1.721158e+03,1.522833e+03
1.722123e+03,1.524642e+03
1.723087e+03,1.529176e+03
1.724051e+03,1.531673e+03
1.725015e+03,1.529656e+03
1.725979e+03,1.525250e+03
1.726944e+03,1.520189e+03
1.727908e+03,1.514687e+03
1.728872e+03,1.507417e+03
1.729836e+03,1.499919e+03
1.730801e+03,1.500102e+03
1.731765e+03,1.520260e+03
1.732729e+03,1.525731e+03
1.733693e+03,1.507349e+03
1.734658e+03,1.492706e+03
1.735622e+03,1.495604e+03
1.736586e+03,1.504013e+03
1.737550e+03,1.499957e+03
1.738515e+03,1.491685e+03
1.739479e+03,1.489938e+03
1.740443e+03,1.493905e+03
1.741407e+03,1.493659e+03
1.742371e+03,1.488642e+03
1.743336e+03,1.484594e+03
1.744300e+03,1.481891e+03
1.745264e+03,1.479311e+03
1.746228e+03,1.476756e+03
1.747193e+03,1.474895e+03
1.748157e+03,1.473644e+03
1.749121e+03,1.475340e+03
1.750085e+03,1.481408e+03
1.751050e+03,1.488272e+03
1.752014e+03,1.487441e+03
1.752978e+03,1.481962e+03
1.753942e+03,1.478331e+03
1.754906e+03,1.477430e+03
1.755871e+03,1.476036e+03
1.756835e+03,1.472612e+03
1.757799e+03,1.468450e+03
1.758763e+03,1.465176e+03
1.759728e+03,1.462768e+03
1.760692e+03,1.461489e+03
1.761656e+03,1.460139e+03
1.762620e+03,1.455452e+03
1.763585e+03,1.450218e+03
1.764549e+03,1.448966e+03
1.765513e+03,1.451012e+03
1.766477e+03,1.450959e+03
1.767442e+03,1.449416e+03
1.768406e+03,1.447128e+03
1.769370e+03,1.443798e+03
1.770334e+03,1.443966e+03
1.771298e+03,1.453128e+03
1.772263e+03,1.459670e+03
1.773227e+03,1.460347e+03
1.774191e+03,1.458753e+03
1.775155e+03,1.459278e+03
1.776120e+03,1.460413e+03
1.777084e+03,1.460563e+03
1.778048e+03,1.459737e+03
1.779012e+03,1.457873e+03
1.779977e+03,1.455254e+03
1.780941e+03,1.452061e+03
1.781905e+03,1.447697e+03
1.782869e+03,1.444750e+03
1.783833e+03,1.444741e+03
1.784798e+03,1.445779e+03
1.785762e+03,1.448706e+03
1.786726e+03,1.449244e+03
1.787690e+03,1.444556e+03
1.788655e+03,1.438390e+03
1.789619e+03,1.438144e+03
1.790583e+03,1.441003e+03
1.791547e+03,1.440109e+03
1.792512e+03,1.436316e+03
1.793476e+03,1.436245e+03
1.794440e+03,1.442290e+03
1.795404e+03,1.443330e+03
1.796369e+03,1.438202e+03
1.797333e+03,1.433424e+03
1.798297e+03,1.433095e+03
1.799261e+03,1.434365e+03
1.800225e+03,1.435376e+03
1.801190e+03,1.436236e+03
1.802154e+03,1.438247e+03
1.803118e+03,1.439765e+03
1.804082e+03,1.435632e+03
1.805047e+03,1.429144e+03
1.806011e+03,1.427893e+03
1.806975e+03,1.431854e+03
1.807939e+03,1.431289e+03
1.808904e+03,1.421847e+03
1.809868e+03,1.418644e+03
1.810832e+03,1.423929e+03
1.811796e+03,1.429388e+03
1.812760e+03,1.426787e+03
1.813725e+03,1.424213e+03
1.814689e+03,1.430060e+03
1.815653e+03,1.434860e+03
1.816617e+03,1.430082e+03
1.817582e+03,1.419881e+03
1.818546e+03,1.417039e+03
1.819510e+03,1.419156e+03
1.820474e+03,1.422115e+03
1.821439e+03,1.425424e+03
1.822403e+03,1.427211e+03
1.823367e+03,1.427993e+03
1.824331e+03,1.424018e+03
1.825296e+03,1.414006e+03
1.826260e+03,1.405267e+03
1.827224e+03,1.406721e+03
1.828188e+03,1.409794e+03
1.829152e+03,1.410092e+03
1.830117e+03,1.407573e+03
1.831081e+03,1.399846e+03
1.832045e+03,1.390278e+03
1.833009e+03,1.393590e+03
1.833974e+03,1.403571e+03
1.834938e+03,1.404437e+03
1.835902e+03,1.391288e+03
1.836866e+03,1.388893e+03
1.837831e+03,1.398158e+03
1.838795e+03,1.403150e+03
1.839759e+03,1.401039e+03
1.840723e+03,1.398054e+03
1.841688e+03,1.397396e+03
1.842652e+03,1.396907e+03
1.843616e+03,1.395057e+03
1.844580e+03,1.392634e+03
1.845544e+03,1.391403e+03
1.846509e+03,1.390885e+03
1.847473e+03,1.391393e+03
1.848437e+03,1.390944e+03
1.849401e+03,1.383921e+03
1.850366e+03,1.370614e+03
1.851330e+03,1.367721e+03
1.852294e+03,1.374150e+03
1.853258e+03,1.375526e+03
1.854223e+03,1.367399e+03
1.855187e+03,1.362595e+03
1.856151e+03,1.370669e+03
1.857115e+03,1.374672e+03
1.858079e+03,1.370147e+03
1.859044e+03,1.363974e+03
1.860008e+03,1.365199e+03
1.860972e+03,1.367979e+03
1.861936e+03,1.364563e+03
1.862901e+03,1.360051e+03
1.863865e+03,1.361596e+03
1.864829e+03,1.367349e+03
1.865793e+03,1.370239e+03
1.866758e+03,1.370831e+03
1.867722e+03,1.369001e+03
1.868686e+03,1.363610e+03
1.869650e+03,1.360513e+03
1.870615e+03,1.359932e+03
1.871579e+03,1.359344e+03
1.872543e+03,1.358635e+03
1.873507e+03,1.359992e+03
1.874471e+03,1.367961e+03
1.875436e+03,1.371587e+03
1.876400e+03,1.365020e+03
1.877364e+03,1.355576e+03
1.878328e+03,1.349623e+03
1.879293e+03,1.347570e+03
1.880257e+03,1.354423e+03
1.881221e+03,1.363638e+03
1.882185e+03,1.360412e+03
1.883150e+03,1.344301e+03
1.884114e+03,1.340178e+03
1.885078e+03,1.345973e+03
1.886042e+03,1.350010e+03
1.887006e+03,1.348894e+03
1.887971e+03,1.346374e+03
1.888935e+03,1.342658e+03
1.889899e+03,1.342424e+03
1.890863e+03,1.346637e+03
1.891828e+03,1.350444e+03
1.892792e+03,1.350400e+03
1.893756e+03,1.347787e+03
1.894720e+03,1.342651e+03
1.895685e+03,1.338470e+03
1.896649e+03,1.338393e+03
1.897613e+03,1.340267e+03
1.898577e+03,1.336878e+03
1.899542e+03,1.331867e+03
1.900506e+03,1.334424e+03
1.901470e+03,1.346799e+03
1.902434e+03,1.348489e+03
1.903398e+03,1.340219e+03
1.904363e+03,1.337214e+03
1.905327e+03,1.344051e+03
1.906291e+03,1.348894e+03
1.907255e+03,1.341398e+03
1.908220e+03,1.337422e+03
1.909184e+03,1.340977e+03
1.910148e+03,1.343736e+03
1.911112e+03,1.336437e+03
1.912077e+03,1.327023e+03
1.913041e+03,1.320468e+03
1.914005e+03,1.317015e+03
1.914969e+03,1.317894e+03
1.915933e+03,1.321303e+03
1.916898e+03,1.320250e+03
1.917862e+03,1.316955e+03
1.918826e+03,1.315610e+03
1.919790e+03,1.317314e+03
1.920755e+03,1.317564e+03
1.921719e+03,1.315613e+03
1.922683e+03,1.310707e+03
1.923647e+03,1.303049e+03
1.924612e+03,1.299194e+03
1.925576e+03,1.304240e+03
1.926540e+03,1.310900e+03
1.927504e+03,1.318148e+03
1.928469e+03,1.322593e+03
1.929433e+03,1.319825e+03
1.930397e+03,1.314446e+03
1.931361e+03,1.309040e+03
1.932325e+03,1.303412e+03
1.933290e+03,1.297273e+03
1.934254e+03,1.292597e+03
1.935218e+03,1.293140e+03
1.936182e+03,1.295256e+03
1.937147e+03,1.293653e+03
1.938111e+03,1.289430e+03
1.939075e+03,1.293271e+03
1.940039e+03,1.303474e+03
1.941004e+03,1.302665e+03
1.941968e+03,1.288289e+03
1.942932e+03,1.279238e+03
1.943896e+03,1.283563e+03
1.944860e+03,1.286271e+03
1.945825e+03,1.286559e+03
1.946789e+03,1.285083e+03
1.947753e+03,1.278608e+03
1.948717e+03,1.274526e+03
1.949682e+03,1.276745e+03
1.950646e+03,1.279832e+03
1.951610e+03,1.280387e+03
1.952574e+03,1.280629e+03
1.953539e+03,1.286613e+03
1.954503e+03,1.291205e+03
1.955467e+03,1.285059e+03
1.956431e+03,1.273961e+03
1.957396e+03,1.273913e+03
1.958360e+03,1.279824e+03
1.959324e+03,1.279032e+03
1.960288e+03,1.272590e+03
1.961252e+03,1.271503e+03
1.962217e+03,1.276212e+03
1.963181e+03,1.276833e+03
1.964145e+03,1.273161e+03
1.965109e+03,1.270173e+03
1.966074e+03,1.271489e+03
1.967038e+03,1.272328e+03
1.968002e+03,1.270512e+03
1.968966e+03,1.271069e+03
1.969931e+03,1.278945e+03
1.970895e+03,1.282621e+03
1.971859e+03,1.270313e+03
1.972823e+03,1.257589e+03
1.973787e+03,1.249488e+03
1.974752e+03,1.246323e+03
1.975716e+03,1.253700e+03
1.976680e+03,1.262355e+03
1.977644e+03,1.261591e+03
1.978609e+03,1.256708e+03
1.979573e+03,1.254498e+03
1.980537e+03,1.254765e+03
1.981501e+03,1.260480e+03
1.982466e+03,1.268902e+03
1.983430e+03,1.271029e+03
1.984394e+03,1.265543e+03
1.985358e+03,1.259695e+03
1.986323e+03,1.253703e+03
1.987287e+03,1.250811e+03
1.988251e+03,1.253009e+03
1.989215e+03,1.250279e+03
1.990179e+03,1.240663e+03
1.991144e+03,1.233487e+03
1.992108e+03,1.231441e+03
1.993072e+03,1.231762e+03
1.994036e+03,1.231497e+03
1.995001e+03,1.234431e+03
1.995965e+03,1.242687e+03
1.996929e+03,1.250147e+03
1.997893e+03,1.247660e+03
1.998858e+03,1.243553e+03
1.999822e+03,1.248263e+03
2.000786e+03,1.251837e+03
2.001750e+03,1.244620e+03
2.002714e+03,1.233533e+03
2.003679e+03,1.235489e+03
2.004643e+03,1.240737e+03
2.005607e+03,1.230723e+03
2.006571e+03,1.211651e+03
2.007536e+03,1.212814e+03
2.008500e+03,1.226647e+03
2.009464e+03,1.226887e+03
2.010428e+03,1.212515e+03
2.011393e+03,1.207644e+03
2.012357e+03,1.214304e+03
2.013321e+03,1.217424e+03
2.014285e+03,1.215417e+03
2.015250e+03,1.214530e+03
2.016214e+03,1.222115e+03
2.017178e+03,1.221467e+03
2.018142e+03,1.211338e+03
2.019106e+03,1.203907e+03
2.020071e+03,1.207150e+03
2.021035e+03,1.209342e+03
2.021999e+03,1.202167e+03
2.022963e+03,1.197447e+03
2.023928e+03,1.200080e+03
2.024892e+03,1.207203e+03
2.025856e+03,1.220685e+03
2.026820e+03,1.230748e+03
2.027785e+03,1.230782e+03
2.028749e+03,1.225461e+03
2.029713e+03,1.219775e+03
2.030677e+03,1.215029e+03
2.031641e+03,1.212953e+03
2.032606e+03,1.212528e+03
2.033570e+03,1.211817e+03
2.034534e+03,1.210939e+03
2.035498e+03,1.212979e+03
2.036463e+03,1.215767e+03
2.037427e+03,1.212708e+03
2.038391e+03,1.204543e+03
2.039355e+03,1.199159e+03
2.040320e+03,1.196547e+03
2.041284e+03,1.196719e+03
2.042248e+03,1.199440e+03
2.043212e+03,1.198005e+03
2.044177e+03,1.192182e+03
2.045141e+03,1.187690e+03
2.046105e+03,1.185105e+03
2.047069e+03,1.182547e+03
2.048033e+03,1.176527e+03
2.048998e+03,1.174868e+03
2.049962e+03,1.178911e+03
2.050926e+03,1.183192e+03
2.051890e+03,1.184006e+03
2.052854e+03,1.184120e+03
2.053819e+03,1.183269e+03
2.054783e+03,1.183127e+03
2.055747e+03,1.186205e+03
2.056711e+03,1.189505e+03
2.057676e+03,1.190514e+03
2.058640e+03,1.189403e+03
2.059604e+03,1.184739e+03
2.060568e+03,1.179122e+03
2.061533e+03,1.176993e+03
2.062497e+03,1.176857e+03
2.063461e+03,1.177932e+03
2.064425e+03,1.179221e+03
2.065390e+03,1.180535e+03
2.066354e+03,1.180262e+03
2.067318e+03,1.174604e+03
2.068282e+03,1.166156e+03
2.069247e+03,1.158809e+03
2.070211e+03,1.152841e+03
2.071175e+03,1.153748e+03
2.072139e+03,1.158732e+03
2.073104e+03,1.160328e+03
2.074068e+03,1.158077e+03
2.075032e+03,1.159210e+03
2.075996e+03,1.162141e+03
2.076960e+03,1.160982e+03
2.077925e+03,1.154634e+03
2.078889e+03,1.153856e+03
2.079853e+03,1.159520e+03
2.080817e+03,1.158995e+03
2.081782e+03,1.151100e+03
2.082746e+03,1.144053e+03
2.083710e+03,1.141951e+03
2.084674e+03,1.139506e+03
2.085639e+03,1.137098e+03
2.086603e+03,1.138450e+03
2.087567e+03,1.148283e+03
2.088531e+03,1.151628e+03
2.089496e+03,1.144958e+03
2.090460e+03,1.138869e+03
2.091424e+03,1.140867e+03
2.092388e+03,1.142958e+03
2.093353e+03,1.138668e+03
2.094317e+03,1.133770e+03
2.095281e+03,1.127555e+03
2.096245e+03,1.125536e+03
2.097209e+03,1.140576e+03
2.098174e+03,1.151572e+03
2.099138e+03,1.149207e+03
2.100102e+03,1.142646e+03
2.101066e+03,1.142876e+03
2.102031e+03,1.142049e+03
2.102995e+03,1.128377e+03
2.103959e+03,1.115246e+03
2.104923e+03,1.114770e+03
2.105887e+03,1.121469e+03
2.106852e+03,1.125760e+03
2.107816e+03,1.129241e+03
2.108780e+03,1.136789e+03
2.109744e+03,1.143375e+03
2.110708e+03,1.132487e+03
2.111673e+03,1.116850e+03
2.112637e+03,1.116065e+03
2.113601e+03,1.123564e+03
2.114565e+03,1.127490e+03
2.115530e+03,1.127143e+03
2.116494e+03,1.117270e+03
2.117458e+03,1.103429e+03
2.118422e+03,1.100430e+03
2.119387e+03,1.105416e+03
2.120351e+03,1.107256e+03
2.121315e+03,1.106842e+03
2.122279e+03,1.113259e+03
2.123244e+03,1.127004e+03
2.124208e+03,1.122508e+03
2.125172e+03,1.105288e+03
2.126136e+03,1.091505e+03
2.127101e+03,1.084846e+03
2.128065e+03,1.089902e+03
2.129029e+03,1.104384e+03
2.129993e+03,1.112227e+03
2.130958e+03,1.109161e+03
2.131922e+03,1.103629e+03
2.132886e+03,1.096599e+03
2.133850e+03,1.097764e+03
2.134814e+03,1.108550e+03
2.135779e+03,1.117018e+03
2.136743e+03,1.118708e+03
2.137707e+03,1.116009e+03
2.138671e+03,1.109655e+03
2.139636e+03,1.103582e+03
2.140600e+03,1.099813e+03
2.141564e+03,1.095781e+03
2.142528e+03,1.091392e+03
2.143493e+03,1.088864e+03
2.144457e+03,1.088694e+03
2.145421e+03,1.089839e+03
2.146385e+03,1.093317e+03
2.147350e+03,1.092763e+03
2.148314e+03,1.086291e+03
2.149278e+03,1.082680e+03
2.150242e+03,1.088411e+03
2.151207e+03,1.094147e+03
2.152171e+03,1.098640e+03
2.153135e+03,1.098225e+03
2.154099e+03,1.087464e+03
2.155063e+03,1.078679e+03
2.156028e+03,1.075233e+03
2.156992e+03,1.073029e+03
2.157956e+03,1.063396e+03
2.158920e+03,1.062044e+03
2.159885e+03,1.082689e+03
2.160849e+03,1.095231e+03
2.161813e+03,1.080963e+03
2.162777e+03,1.064758e+03
2.163741e+03,1.071487e+03
2.164706e+03,1.077684e+03
2.165670e+03,1.075165e+03
2.166634e+03,1.071813e+03
2.167598e+03,1.076334e+03
2.168563e+03,1.079904e+03
2.169527e+03,1.077114e+03
2.170491e+03,1.073073e+03
2.171455e+03,1.077232e+03
2.172420e+03,1.079583e+03
2.173384e+03,1.072059e+03
2.174348e+03,1.063438e+03
2.175312e+03,1.058005e+03
2.176277e+03,1.057050e+03
2.177241e+03,1.069377e+03
2.178205e+03,1.077582e+03
2.179169e+03,1.068735e+03
2.180134e+03,1.055980e+03
2.181098e+03,1.055524e+03
2.182062e+03,1.059762e+03
2.183026e+03,1.062830e+03
2.183990e+03,1.064677e+03
2.184955e+03,1.064349e+03
2.185919e+03,1.064363e+03
2.186883e+03,1.067394e+03
2.187847e+03,1.069259e+03
2.188812e+03,1.062916e+03
2.189776e+03,1.055609e+03
2.190740e+03,1.055985e+03
2.191704e+03,1.057893e+03
2.192668e+03,1.056153e+03
2.193633e+03,1.053253e+03
2.194597e+03,1.053108e+03
2.195561e+03,1.053004e+03
2.196525e+03,1.049388e+03
2.197490e+03,1.044740e+03
2.198454e+03,1.043158e+03
2.199418e+03,1.043756e+03
2.200382e+03,1.046608e+03
2.201347e+03,1.049913e+03
2.202311e+03,1.049276e+03
2.203275e+03,1.046368e+03
2.204239e+03,1.040658e+03
2.205204e+03,1.034988e+03
2.206168e+03,1.037497e+03
2.207132e+03,1.041422e+03
2.208096e+03,1.035311e+03
2.209061e+03,1.026107e+03
2.210025e+03,1.021725e+03
2.210989e+03,1.020446e+03
2.211953e+03,1.022335e+03
2.212917e+03,1.024826e+03
2.213882e+03,1.020660e+03
2.214846e+03,1.015133e+03
2.215810e+03,1.023556e+03
2.216774e+03,1.032266e+03
2.217739e+03,1.029915e+03
2.218703e+03,1.023085e+03
2.219667e+03,1.020465e+03
2.220631e+03,1.022215e+03
2.221595e+03,1.030488e+03
2.222560e+03,1.038303e+03
2.223524e+03,1.035470e+03
2.224488e+03,1.027501e+03
2.225452e+03,1.017968e+03
2.226417e+03,1.010732e+03
2.227381e+03,1.009110e+03
2.228345e+03,1.012477e+03
2.229309e+03,1.025759e+03
2.230274e+03,1.034463e+03
2.231238e+03,1.022968e+03
2.232202e+03,1.005162e+03
2.233166e+03,1.002047e+03
2.234131e+03,1.005667e+03
2.235095e+03,1.010342e+03
2.236059e+03,1.013360e+03
2.237023e+03,1.006472e+03
2.237988e+03,1.000689e+03
2.238952e+03,1.004389e+03
2.239916e+03,1.009680e+03
2.240880e+03,1.006532e+03
2.241844e+03,1.002106e+03
2.242809e+03,1.000977e+03
2.243773e+03,1.002099e+03
2.244737e+03,1.006020e+03
2.245701e+03,1.008562e+03
2.246666e+03,1.005185e+03
2.247630e+03,1.000100e+03
2.248594e+03,9.955833e+02
2.249558e+03,9.941448e+02
2.250522e+03,1.002756e+03
2.251487e+03,1.006952e+03
2.252451e+03,9.959433e+02
2.253415e+03,9.835924e+02
2.254379e+03,9.888615e+02
2.255344e+03,9.940397e+02
2.256308e+03,9.924395e+02
2.257272e+03,9.879788e+02
2.258236e+03,9.811791e+02
2.259201e+03,9.778807e+02
2.260165e+03,9.794056e+02
2.261129e+03,9.833792e+02
2.262093e+03,9.911852e+02
2.263058e+03,9.942201e+02
2.264022e+03,9.905361e+02
2.264986e+03,9.872849e+02
2.265950e+03,9.895901e+02
2.266915e+03,9.904042e+02
2.267879e+03,9.869716e+02
2.268843e+03,9.814240e+02
2.269807e+03,9.750311e+02
2.270771e+03,9.707150e+02
2.271736e+03,9.701094e+02
2.272700e+03,9.704832e+02
2.273664e+03,9.699364e+02
2.274628e+03,9.711668e+02
2.275593e+03,9.763470e+02
2.276557e+03,9.796779e+02
2.277521e+03,9.811154e+02
2.278485e+03,9.802659e+02
2.279449e+03,9.751939e+02
2.280414e+03,9.712216e+02
2.281378e+03,9.685980e+02
2.282342e+03,9.684061e+02
2.283306e+03,9.742132e+02
2.284271e+03,9.725788e+02
2.285235e+03,9.639515e+02
2.286199e+03,9.570704e+02
2.287163e+03,9.569752e+02
2.288128e+03,9.558981e+02
2.289092e+03,9.533840e+02
2.290056e+03,9.565518e+02
2.291020e+03,9.675375e+02
2.291985e+03,9.657910e+02
2.292949e+03,9.538344e+02
2.293913e+03,9.502817e+02
2.294877e+03,9.563102e+02
2.295842e+03,9.611957e+02
2.296806e+03,9.636555e+02
2.297770e+03,9.610344e+02
2.298734e+03,9.555782e+02
2.299698e+03,9.580633e+02
2.300663e+03,9.669827e+02
2.301627e+03,9.659706e+02
2.302591e+03,9.572999e+02
2.303555e+03,9.469005e+02
2.304520e+03,9.366632e+02
2.305484e+03,9.317921e+02
2.306448e+03,9.316818e+02
2.307412e+03,9.358527e+02
2.308376e+03,9.414588e+02
2.309341e+03,9.429192e+02
2.310305e+03,9.421319e+02
2.311269e+03,9.416144e+02
2.312233e+03,9.424631e+02
2.313198e+03,9.471730e+02
2.314162e+03,9.509110e+02
2.315126e+03,9.478679e+02
2.316090e+03,9.422797e+02
2.317055e+03,9.365000e+02
2.318019e+03,9.339037e+02
2.318983e+03,9.401370e+02
2.319947e+03,9.451104e+02
2.320912e+03,9.414344e+02
2.321876e+03,9.355674e+02
2.322840e+03,9.309605e+02
2.323804e+03,9.274944e+02
2.324769e+03,9.247020e+02
2.325733e+03,9.260352e+02
2.326697e+03,9.373045e+02
2.327661e+03,9.443674e+02
2.328625e+03,9.420543e+02
2.329590e+03,9.368348e+02
2.330554e+03,9.324960e+02
2.331518e+03,9.284863e+02
2.332482e+03,9.245134e+02
2.333447e+03,9.233959e+02
2.334411e+03,9.283227e+02
2.335375e+03,9.309133e+02
2.336339e+03,9.307652e+02
2.337303e+03,9.303251e+02
2.338268e+03,9.307845e+02
2.339232e+03,9.260898e+02
2.340196e+03,9.180250e+02
2.341160e+03,9.178259e+02
2.342125e+03,9.294680e+02
2.343089e+03,9.309373e+02
2.344053e+03,9.246921e+02
2.345017e+03,9.278783e+02
2.345982e+03,9.403849e+02
2.346946e+03,9.357637e+02
2.347910e+03,9.217729e+02
2.348874e+03,9.162072e+02
2.349839e+03,9.176375e+02
2.350803e+03,9.227772e+02
2.351767e+03,9.272255e+02
2.352731e+03,9.158945e+02
2.353696e+03,9.017582e+02
2.354660e+03,9.066861e+02
2.355624e+03,9.186376e+02
2.356588e+03,9.211356e+02
2.357552e+03,9.196169e+02
2.358517e+03,9.190684e+02
2.359481e+03,9.171901e+02
2.360445e+03,9.083557e+02
2.361409e+03,8.997457e+02
2.362374e+03,8.946425e+02
2.363338e+03,8.925482e+02
2.364302e+03,8.966265e+02
2.365266e+03,9.020911e+02
2.366230e+03,9.077041e+02
2.367195e+03,9.093613e+02
2.368159e+03,8.991592e+02
2.369123e+03,8.946281e+02
2.370087e+03,8.991667e+02
2.371052e+03,9.040958e+02
2.372016e+03,9.069792e+02
2.372980e+03,9.033295e+02
2.373944e+03,8.935912e+02
2.374909e+03,8.909714e+02
2.375873e+03,9.024837e+02
2.376837e+03,9.070203e+02
2.377801e+03,9.054885e+02
2.378766e+03,8.989407e+02
2.379730e+03,8.885667e+02
2.380694e+03,8.896991e+02
2.381658e+03,8.971317e+02
2.382623e+03,8.931722e+02
2.383587e+03,8.821916e+02
2.384551e+03,8.822571e+02
2.385515e+03,8.867664e+02
2.386479e+03,8.854617e+02
2.387444e+03,8.819627e+02
2.388408e+03,8.819515e+02
2.389372e+03,8.832359e+02
2.390336e+03,8.825731e+02
2.391301e+03,8.821258e+02
2.392265e+03,8.860692e+02
2.393229e+03,8.869817e+02
2.394193e+03,8.792469e+02
2.395157e+03,8.722357e+02
2.396122e+03,8.730277e+02
2.397086e+03,8.735439e+02
2.398050e+03,8.713393e+02
2.399014e+03,8.690590e+02
2.399979e+03,8.669160e+02
2.400943e+03,8.683869e+02
2.401907e+03,8.737604e+02
2.402871e+03,8.741202e+02
2.403836e+03,8.677486e+02
2.404800e+03,8.666033e+02
2.405764e+03,8.707414e+02
2.406728e+03,8.687659e+02
2.407693e+03,8.609606e+02
2.408657e+03,8.608149e+02
2.409621e+03,8.667498e+02
2.410585e+03,8.661074e+02
2.411550e+03,8.614587e+02
2.412514e+03,8.600240e+02
2.413478e+03,8.608756e+02
2.414442e+03,8.648237e+02
2.415406e+03,8.658161e+02
2.416371e+03,8.547450e+02
2.417335e+03,8.426915e+02
2.418299e+03,8.497715e+02
2.419263e+03,8.564025e+02
2.420228e+03,8.510533e+02
2.421192e+03,8.439451e+02
2.422156e+03,8.451302e+02
2.423120e+03,8.468946e+02
2.424084e+03,8.467831e+02
2.425049e+03,8.461650e+02
2.426013e+03,8.458033e+02
2.426977e+03,8.505556e+02
2.427941e+03,8.610497e+02
2.428906e+03,8.621993e+02
2.429870e+03,8.479704e+02
2.430834e+03,8.369846e+02
2.431798e+03,8.306944e+02
2.432763e+03,8.346185e+02
2.433727e+03,8.466117e+02
2.434691e+03,8.521053e+02
2.435655e+03,8.527713e+02
2.436620e+03,8.524397e+02
2.437584e+03,8.510148e+02
2.438548e+03,8.455518e+02
2.439512e+03,8.406970e+02
2.440477e+03,8.414650e+02
2.441441e+03,8.423455e+02
2.442405e+03,8.323770e+02
2.443369e+03,8.287491e+02
2.444333e+03,8.405065e+02
2.445298e+03,8.530442e+02
2.446262e+03,8.550106e+02
2.447226e+03,8.501550e+02
2.448190e+03,8.396844e+02
2.449155e+03,8.309601e+02
2.450119e+03,8.269177e+02
2.451083e+03,8.331529e+02
2.452047e+03,8.475380e+02
2.453011e+03,8.523115e+02
2.453976e+03,8.432535e+02
2.454940e+03,8.343926e+02
2.455904e+03,8.272682e+02
2.456868e+03,8.262847e+02
2.457833e+03,8.282318e+02
2.458797e+03,8.237514e+02
2.459761e+03,8.174424e+02
2.460725e+03,8.153308e+02
2.461690e+03,8.146559e+02
2.462654e+03,8.099782e+02
2.463618e+03,8.071875e+02
2.464582e+03,8.101013e+02
2.465547e+03,8.161454e+02
2.466511e+03,8.272249e+02
2.467475e+03,8.282051e+02
2.468439e+03,8.154491e+02
2.469404e+03,8.066199e+02
2.470368e+03,8.192680e+02
2.471332e+03,8.211481e+02
2.472296e+03,8.124027e+02
2.473260e+03,8.109724e+02
2.474225e+03,8.222350e+02
2.475189e+03,8.226136e+02
2.476153e+03,8.162565e+02
2.477117e+03,8.129300e+02
2.478082e+03,8.127814e+02
2.479046e+03,8.169313e+02
2.480010e+03,8.210139e+02
2.480974e+03,8.187763e+02
2.481938e+03,8.147100e+02
2.482903e+03,8.132999e+02
2.483867e+03,8.148140e+02
2.484831e+03,8.192906e+02
2.485795e+03,8.233328e+02
2.486760e+03,8.250327e+02
2.487724e+03,8.255343e+02
2.488688e+03,8.254671e+02
2.489652e+03,8.242383e+02
2.490617e+03,8.200090e+02
2.491581e+03,8.163437e+02
2.492545e+03,8.134651e+02
2.493509e+03,8.087426e+02
2.494474e+03,8.022214e+02
2.495438e+03,8.082294e+02
2.496402e+03,8.202161e+02
2.497366e+03,8.234410e+02
2.498331e+03,8.217047e+02
2.499295e+03,8.226013e+02
2.500259e+03,8.228685e+02
2.501223e+03,8.205590e+02
2.502188e+03,8.177783e+02
2.503152e+03,8.147425e+02
2.504116e+03,8.158996e+02
2.505080e+03,8.228566e+02
2.506044e+03,8.272951e+02
2.507009e+03,8.212389e+02
2.507973e+03,8.155516e+02
2.508937e+03,8.110564e+02
2.509901e+03,8.054381e+02
2.510865e+03,7.974664e+02
2.511830e+03,7.999362e+02
2.512794e+03,8.073660e+02
2.513758e+03,8.039146e+02
2.514722e+03,7.952458e+02
2.515687e+03,7.989794e+02
2.516651e+03,8.046703e+02
2.517615e+03,8.007990e+02
2.518579e+03,7.941750e+02
2.519544e+03,7.908550e+02
2.520508e+03,7.936620e+02
2.521472e+03,8.044330e+02
2.522436e+03,8.120331e+02
2.523401e+03,8.054396e+02
2.524365e+03,8.012125e+02
2.525329e+03,7.995502e+02
2.526293e+03,7.966842e+02
2.527258e+03,7.923565e+02
2.528222e+03,7.861344e+02
2.529186e+03,7.805814e+02
2.530150e+03,7.843559e+02
2.531115e+03,7.943903e+02
2.532079e+03,8.027745e+02
2.533043e+03,8.053254e+02
2.534007e+03,7.970858e+02
2.534971e+03,7.864736e+02
2.535936e+03,7.863355e+02
2.536900e+03,7.863019e+02
2.537864e+03,7.821246e+02
2.538828e+03,7.812612e+02
2.539792e+03,7.876937e+02
2.540757e+03,7.908483e+02
2.541721e+03,7.896396e+02
2.542685e+03,7.914397e+02
2.543649e+03,7.969352e+02
2.544614e+03,8.002652e+02
2.545578e+03,8.003410e+02
2.546542e+03,7.976887e+02
2.547506e+03,7.932651e+02
2.548471e+03,7.864072e+02
2.549435e+03,7.810194e+02
2.550399e+03,7.807678e+02
2.551363e+03,7.832204e+02
2.552328e+03,7.877570e+02
2.553292e+03,7.930569e+02
2.554256e+03,7.998766e+02
2.555220e+03,8.009121e+02
2.556185e+03,7.953256e+02
2.557149e+03,7.856161e+02
2.558113e+03,7.731133e+02
2.559077e+03,7.719545e+02
2.560042e+03,7.782831e+02
2.561006e+03,7.799081e+02
2.561970e+03,7.785958e+02
2.562934e+03,7.758050e+02
2.563898e+03,7.736193e+02
2.564863e+03,7.749697e+02
2.565827e+03,7.757367e+02
2.566791e+03,7.736054e+02
2.567755e+03,7.723461e+02
2.568719e+03,7.720205e+02
2.569684e+03,7.701677e+02
2.570648e+03,7.657947e+02
2.571612e+03,7.583549e+02
2.572576e+03,7.503384e+02
2.573541e+03,7.526310e+02
2.574505e+03,7.629820e+02
2.575469e+03,7.694131e+02
2.576433e+03,7.718018e+02
2.577398e+03,7.710489e+02
2.578362e+03,7.674399e+02
2.579326e+03,7.575009e+02
2.580290e+03,7.499277e+02
2.581255e+03,7.473607e+02
2.582219e+03,7.493267e+02
2.583183e+03,7.618007e+02
2.584147e+03,7.658301e+02
2.585112e+03,7.620121e+02
2.586076e+03,7.558766e+02
2.587040e+03,7.485595e+02
2.588004e+03,7.522428e+02
2.588969e+03,7.608307e+02
2.589933e+03,7.637430e+02
2.590897e+03,7.608152e+02
2.591861e+03,7.452502e+02
2.592825e+03,7.332988e+02
2.593790e+03,7.349626e+02
2.594754e+03,7.424406e+02
2.595718e+03,7.534341e+02
2.596682e+03,7.588376e+02
2.597646e+03,7.560475e+02
2.598611e+03,7.558867e+02
2.599575e+03,7.598588e+02
2.600539e+03,7.601436e+02
2.601503e+03,7.562705e+02
2.602468e+03,7.514875e+02
2.603432e+03,7.468432e+02
2.604396e+03,7.453737e+02
2.605360e+03,7.466251e+02
2.606325e+03,7.513535e+02
2.607289e+03,7.554617e+02
2.608253e+03,7.577343e+02
2.609217e+03,7.573518e+02
2.610182e+03,7.520085e+02
2.611146e+03,7.441945e+02
2.612110e+03,7.354482e+02
2.613074e+03,7.337186e+02
2.614039e+03,7.381334e+02
2.615003e+03,7.329572e+02
2.615967e+03,7.253302e+02
2.616931e+03,7.293969e+02
2.617896e+03,7.356772e+02
2.618860e+03,7.279963e+02
2.619824e+03,7.244481e+02
2.620788e+03,7.318084e+02
2.621752e+03,7.379550e+02
2.622717e+03,7.367408e+02
2.623681e+03,7.309066e+02
2.624645e+03,7.221854e+02
2.625609e+03,7.267718e+02
2.626573e+03,7.415872e+02
2.627538e+03,7.394644e+02
2.628502e+03,7.306267e+02
2.629466e+03,7.308976e+02
2.630430e+03,7.336116e+02
2.631395e+03,7.267632e+02
2.632359e+03,7.258392e+02
2.633323e+03,7.399758e+02
2.634287e+03,7.446784e+02
2.635252e+03,7.354025e+02
2.636216e+03,7.286458e+02
2.637180e+03,7.276729e+02
2.638144e+03,7.355367e+02
2.639109e+03,7.464785e+02
2.640073e+03,7.430062e+02
2.641037e+03,7.361732e+02
2.642001e+03,7.423630e+02
2.642966e+03,7.467643e+02
2.643930e+03,7.402513e+02
2.644894e+03,7.344210e+02
2.645858e+03,7.399162e+02
2.646823e+03,7.400494e+02
2.647787e+03,7.341064e+02
2.648751e+03,7.292977e+02
2.649715e+03,7.267800e+02
2.650679e+03,7.296956e+02
2.651644e+03,7.359423e+02
2.652608e+03,7.431058e+02
2.653572e+03,7.477714e+02
2.654536e+03,7.441416e+02
2.655500e+03,7.363798e+02
2.656465e+03,7.244821e+02
2.657429e+03,7.216740e+02
2.658393e+03,7.319073e+02
2.659357e+03,7.393870e+02
2.660322e+03,7.424720e+02
2.661286e+03,7.391666e+02
2.662250e+03,7.324703e+02
2.663214e+03,7.318581e+02
2.664179e+03,7.315706e+02
2.665143e+03,7.200114e+02
2.666107e+03,7.150167e+02
2.667071e+03,7.266870e+02
2.668036e+03,7.372119e+02
2.669000e+03,7.358046e+02
2.669964e+03,7.333075e+02
2.670928e+03,7.299820e+02
2.671893e+03,7.222218e+02
2.672857e+03,7.130516e+02
2.673821e+03,7.180821e+02
2.674785e+03,7.253927e+02
2.675750e+03,7.217763e+02
2.676714e+03,7.163132e+02
2.677678e+03,7.204151e+02
2.678642e+03,7.207648e+02
2.679606e+03,7.143751e+02
2.680571e+03,7.120047e+02
2.681535e+03,7.149996e+02
2.682499e+03,7.163075e+02
2.683463e+03,7.157841e+02
2.684427e+03,7.181025e+02
2.685392e+03,7.204474e+02
2.686356e+03,7.141342e+02
2.687320e+03,7.090276e+02
2.688284e+03,7.147650e+02
2.689249e+03,7.183869e+02
2.690213e+03,7.168864e+02
2.691177e+03,7.123230e+02
2.692141e+03,7.055031e+02
2.693106e+03,7.047761e+02
2.694070e+03,7.077395e+02
2.695034e+03,7.079080e+02
2.695998e+03,7.068989e+02
2.696963e+03,7.086155e+02
2.697927e+03,7.102777e+02
2.698891e+03,7.101556e+02
2.699855e+03,7.064000e+02
2.700820e+03,6.975408e+02
2.701784e+03,6.928745e+02
2.702748e+03,6.923307e+02
2.703712e+03,6.884190e+02
2.704677e+03,6.843614e+02
2.705641e+03,6.986934e+02
2.706605e+03,7.150223e+02
2.707569e+03,7.122723e+02
2.708533e+03,7.033499e+02
2.709498e+03,6.934651e+02
2.710462e+03,6.893060e+02
2.711426e+03,6.977940e+02
2.712390e+03,7.008755e+02
2.713354e+03,6.994837e+02
2.714319e+03,6.988583e+02
2.715283e+03,6.994045e+02
2.716247e+03,7.022404e+02
2.717211e+03,7.059987e+02
2.718176e+03,7.105963e+02
2.719140e+03,7.108419e+02
2.720104e+03,6.997211e+02
2.721068e+03,6.967770e+02
2.722033e+03,7.036589e+02
2.722997e+03,7.051991e+02
2.723961e+03,7.011095e+02
2.724925e+03,6.931327e+02
2.725890e+03,6.864690e+02
2.726854e+03,6.876879e+02
2.727818e+03,6.940319e+02
2.728782e+03,7.045519e+02
2.729747e+03,7.054127e+02
2.730711e+03,6.804406e+02
2.731675e+03,6.783988e+02
2.732639e+03,6.933613e+02
2.733604e+03,6.896266e+02
2.734568e+03,6.751412e+02
2.735532e+03,6.766386e+02
2.736496e+03,6.816728e+02
2.737460e+03,6.806545e+02
2.738425e+03,6.811784e+02
2.739389e+03,6.892252e+02
2.740353e+03,6.892938e+02
2.741317e+03,6.800437e+02
2.742281e+03,6.769662e+02
2.743246e+03,6.793021e+02
2.744210e+03,6.809031e+02
2.745174e+03,6.821913e+02
2.746138e+03,6.891329e+02
2.747103e+03,6.895751e+02
2.748067e+03,6.792026e+02
2.749031e+03,6.735406e+02
2.749995e+03,6.836428e+02
2.750960e+03,6.825905e+02
2.751924e+03,6.750922e+02
2.752888e+03,6.768109e+02
2.753852e+03,6.831495e+02
2.754817e+03,6.856282e+02
2.755781e+03,6.827465e+02
2.756745e+03,6.716491e+02
2.757709e+03,6.646913e+02
2.758674e+03,6.647532e+02
2.759638e+03,6.683146e+02
2.760602e+03,6.742097e+02
2.761566e+03,6.726953e+02
2.762531e+03,6.697064e+02
2.763495e+03,6.762258e+02
2.764459e+03,6.819249e+02
2.765423e+03,6.729658e+02
2.766387e+03,6.687039e+02
2.767352e+03,6.734280e+02
2.768316e+03,6.780500e+02
2.769280e+03,6.802643e+02
2.770244e+03,6.757217e+02
2.771208e+03,6.694854e+02
2.772173e+03,6.725189e+02
2.773137e+03,6.746309e+02
2.774101e+03,6.614093e+02
2.775065e+03,6.574294e+02
2.776030e+03,6.764415e+02
2.776994e+03,6.805880e+02
2.777958e+03,6.696658e+02
2.778922e+03,6.624752e+02
2.779887e+03,6.610071e+02
2.780851e+03,6.698486e+02
2.781815e+03,6.735698e+02
2.782779e+03,6.613882e+02
2.783744e+03,6.551476e+02
2.784708e+03,6.710963e+02
2.785672e+03,6.792924e+02
2.786636e+03,6.778762e+02
2.787601e+03,6.771676e+02
2.788565e+03,6.781003e+02
2.789529e+03,6.818055e+02
2.790493e+03,6.837813e+02
2.791458e+03,6.774843e+02
2.792422e+03,6.707451e+02
2.793386e+03,6.662127e+02
2.794350e+03,6.671896e+02
2.795314e+03,6.739071e+02
2.796279e+03,6.759337e+02
2.797243e+03,6.734651e+02
2.798207e+03,6.676580e+02
2.799171e+03,6.635524e+02
2.800135e+03,6.693302e+02
2.801100e+03,6.719588e+02
2.802064e+03,6.687194e+02
2.803028e+03,6.656505e+02
2.803992e+03,6.635263e+02
2.804957e+03,6.640602e+02
2.805921e+03,6.662210e+02
2.806885e+03,6.679246e+02
2.807849e+03,6.687975e+02
2.808814e+03,6.687836e+02
2.809778e+03,6.683621e+02
2.810742e+03,6.672596e+02
2.811706e+03,6.730438e+02
2.812671e+03,6.813659e+02
2.813635e+03,6.811747e+02
2.814599e+03,6.739677e+02
2.815563e+03,6.567064e+02
2.816528e+03,6.449470e+02
2.817492e+03,6.479583e+02
2.818456e+03,6.521731e+02
2.819420e+03,6.546220e+02
2.820385e+03,6.570175e+02
2.821349e+03,6.591936e+02
2.822313e+03,6.540250e+02
2.823277e+03,6.515563e+02
2.824241e+03,6.588439e+02
2.825206e+03,6.685642e+02
2.826170e+03,6.789470e+02
2.827134e+03,6.776802e+02
2.828098e+03,6.652640e+02
2.829063e+03,6.645322e+02
2.830027e+03,6.687013e+02
2.830991e+03,6.602904e+02
2.831955e+03,6.545455e+02
2.832919e+03,6.667933e+02
2.833884e+03,6.751717e+02
2.834848e+03,6.759133e+02
2.835812e+03,6.651428e+02
2.836776e+03,6.468881e+02
2.837741e+03,6.472891e+02
2.838705e+03,6.549030e+02
2.839669e+03,6.571044e+02
2.840633e+03,6.562236e+02
2.841598e+03,6.533513e+02
2.842562e+03,6.532620e+02
2.843526e+03,6.579553e+02
2.844490e+03,6.594178e+02
2.845455e+03,6.590863e+02
2.846419e+03,6.610992e+02
2.847383e+03,6.629989e+02
2.848347e+03,6.593359e+02
2.849312e+03,6.615160e+02
2.850276e+03,6.709577e+02
2.851240e+03,6.709839e+02
2.852204e+03,6.631223e+02
2.853168e+03,6.644847e+02
2.854133e+03,6.704294e+02
2.855097e+03,6.781767e+02
2.856061e+03,6.812507e+02
2.857025e+03,6.775789e+02
2.857990e+03,6.700635e+02
2.858954e+03,6.596235e+02
2.859918e+03,6.591981e+02
2.860882e+03,6.663294e+02
2.861846e+03,6.780223e+02
2.862811e+03,6.843372e+02
2.863775e+03,6.726103e+02
2.864739e+03,6.653245e+02
2.865703e+03,6.685051e+02
2.866668e+03,6.754500e+02
2.867632e+03,6.825760e+02
2.868596e+03,6.806988e+02
2.869560e+03,6.758181e+02
2.870525e+03,6.735854e+02
2.871489e+03,6.782111e+02
2.872453e+03,6.901176e+02
2.873417e+03,6.863342e+02
2.874382e+03,6.690627e+02
2.875346e+03,6.695956e+02
2.876310e+03,6.769757e+02
2.877274e+03,6.708044e+02
2.878239e+03,6.657854e+02
2.879203e+03,6.668707e+02
2.880167e+03,6.710592e+02
2.881131e+03,6.786017e+02
2.882095e+03,6.777391e+02
2.883060e+03,6.738862e+02
2.884024e+03,6.749827e+02
2.884988e+03,6.790321e+02
2.885952e+03,6.856716e+02
2.886917e+03,6.868112e+02
2.887881e+03,6.806706e+02
2.888845e+03,6.789459e+02
2.889809e+03,6.805656e+02
2.890773e+03,6.821649e+02
2.891738e+03,6.814681e+02
2.892702e+03,6.736534e+02
2.893666e+03,6.734116e+02
2.894630e+03,6.826682e+02
2.895595e+03,6.847888e+02
2.896559e+03,6.801370e+02
2.897523e+03,6.753373e+02
2.898487e+03,6.722122e+02
2.899452e+03,6.721227e+02
2.900416e+03,6.759977e+02
2.901380e+03,6.829327e+02
2.902344e+03,6.837919e+02
2.903309e+03,6.777854e+02
2.904273e+03,6.687687e+02
2.905237e+03,6.619362e+02
2.906201e+03,6.637933e+02
2.907166e+03,6.613044e+02
2.908130e+03,6.481518e+02
2.909094e+03,6.561146e+02
2.910058e+03,6.855519e+02
2.911022e+03,6.760104e+02
2.911987e+03,6.536611e+02
2.912951e+03,6.468459e+02
2.913915e+03,6.482468e+02
2.914879e+03,6.558206e+02
2.915844e+03,6.572070e+02
2.916808e+03,6.513119e+02
2.917772e+03,6.389454e+02
2.918736e+03,6.283185e+02
2.919700e+03,6.328373e+02
2.920665e+03,6.384649e+02
2.921629e+03,6.339622e+02
2.922593e+03,6.364127e+02
2.923557e+03,6.446379e+02
2.924522e+03,6.457114e+02
2.925486e+03,6.441117e+02
2.926450e+03,6.568536e+02
2.927414e+03,6.597477e+02
2.928379e+03,6.354032e+02
2.929343e+03,6.317451e+02
2.930307e+03,6.473533e+02
2.931271e+03,6.538851e+02
2.932236e+03,6.535709e+02
2.933200e+03,6.477483e+02
2.934164e+03,6.467617e+02
2.935128e+03,6.548302e+02
2.936093e+03,6.501641e+02
2.937057e+03,6.344779e+02
2.938021e+03,6.283029e+02
2.938985e+03,6.306164e+02
2.939949e+03,6.432209e+02
2.940914e+03,6.481472e+02
2.941878e+03,6.405276e+02
2.942842e+03,6.308949e+02
2.943806e+03,6.217175e+02
2.944771e+03,6.277334e+02
2.945735e+03,6.383316e+02
2.946699e+03,6.400570e+02
2.947663e+03,6.349196e+02
2.948627e+03,6.239271e+02
2.949592e+03,6.230698e+02
2.950556e+03,6.345963e+02
2.951520e+03,6.446146e+02
2.952484e+03,6.496193e+02
2.953449e+03,6.457758e+02
2.954413e+03,6.485919e+02
2.955377e+03,6.651413e+02
2.956341e+03,6.785818e+02
2.957306e+03,6.843561e+02
2.958270e+03,6.780061e+02
2.959234e+03,6.609930e+02
2.960198e+03,6.358478e+02
2.961163e+03,6.217526e+02
2.962127e+03,6.269236e+02
2.963091e+03,6.302160e+02
2.964055e+03,6.315526e+02
2.965020e+03,6.442637e+02
2.965984e+03,6.480757e+02
2.966948e+03,6.263606e+02
2.967912e+03,6.085797e+02
2.968876e+03,6.072019e+02
2.969841e+03,6.163516e+02
2.970805e+03,6.264558e+02
2.971769e+03,6.170917e+02
2.972733e+03,6.121999e+02
2.973698e+03,6.316456e+02
2.974662e+03,6.375807e+02
2.975626e+03,6.190280e+02
2.976590e+03,6.032327e+02
2.977554e+03,5.974468e+02
2.978519e+03,6.097053e+02
2.979483e+03,6.251544e+02
2.980447e+03,6.362910e+02
2.981411e+03,6.351052e+02
2.982376e+03,6.219420e+02
2.983340e+03,6.130808e+02
2.984304e+03,6.080674e+02
2.985268e+03,6.069568e+02
2.986233e+03,6.031719e+02
2.987197e+03,5.911933e+02
2.988161e+03,5.916444e+02
2.989125e+03,6.015876e+02
2.990090e+03,6.061813e+02
2.991054e+03,6.085602e+02
2.992018e+03,6.120468e+02
2.992982e+03,6.095673e+02
2.993947e+03,5.976164e+02
2.994911e+03,5.904301e+02
2.995875e+03,5.905754e+02
2.996839e+03,6.010292e+02
2.997803e+03,6.088709e+02
2.998768e+03,6.069407e+02
2.999732e+03,5.963956e+02
3.000696e+03,5.809547e+02
3.001660e+03,5.943923e+02
3.002625e+03,6.120543e+02
3.003589e+03,6.089110e+02
3.004553e+03,6.076819e+02
3.005517e+03,6.207773e+02
3.006481e+03,6.155491e+02
3.007446e+03,5.946627e+02
3.008410e+03,5.823130e+02
3.009374e+03,5.763693e+02
3.010338e+03,5.748597e+02
3.011303e+03,5.769759e+02
3.012267e+03,5.811862e+02
3.013231e+03,5.940587e+02
3.014195e+03,6.056854e+02
3.015160e+03,5.993867e+02
3.016124e+03,5.870909e+02
3.017088e+03,5.738907e+02
3.018052e+03,5.769576e+02
3.019017e+03,5.951876e+02
3.019981e+03,6.097454e+02
3.020945e+03,6.154969e+02
3.021909e+03,6.084716e+02
3.022874e+03,5.956415e+02
3.023838e+03,5.807841e+02
3.024802e+03,5.783741e+02
3.025766e+03,5.831649e+02
3.026730e+03,5.767394e+02
3.027695e+03,5.789065e+02
3.028659e+03,5.986964e+02
3.029623e+03,6.046928e+02
3.030587e+03,5.965878e+02
3.031552e+03,5.859990e+02
3.032516e+03,5.783090e+02
3.033480e+03,5.868856e+02
3.034444e+03,5.816339e+02
3.035408e+03,5.610164e+02
3.036373e+03,5.615814e+02
3.037337e+03,5.772699e+02
3.038301e+03,5.958770e+02
3.039265e+03,6.021791e+02
3.040230e+03,5.729562e+02
3.041194e+03,5.733488e+02
3.042158e+03,5.945549e+02
3.043122e+03,5.908763e+02
3.044087e+03,5.816888e+02
3.045051e+03,5.959745e+02
3.046015e+03,6.134735e+02
3.046979e+03,6.294483e+02
3.047944e+03,6.100665e+02
3.048908e+03,5.787207e+02
3.049872e+03,5.691686e+02
3.050836e+03,5.751672e+02
3.051801e+03,5.962946e+02
3.052765e+03,5.999147e+02
3.053729e+03,5.850458e+02
3.054693e+03,5.732269e+02
3.055657e+03,5.733972e+02
3.056622e+03,5.903086e+02
3.057586e+03,5.974795e+02
3.058550e+03,5.876163e+02
3.059514e+03,5.705458e+02
3.060479e+03,5.630073e+02
3.061443e+03,6.060878e+02
3.062407e+03,6.174708e+02
3.063371e+03,5.809745e+02
3.064335e+03,5.785493e+02
3.065300e+03,6.050570e+02
3.066264e+03,5.931951e+02
3.067228e+03,5.800836e+02
3.068192e+03,5.894619e+02
3.069157e+03,6.010606e+02
3.070121e+03,6.085342e+02
3.071085e+03,5.978632e+02
3.072049e+03,5.812463e+02
3.073014e+03,5.692939e+02
3.073978e+03,5.766553e+02
3.074942e+03,6.053154e+02
3.075906e+03,5.992961e+02
3.076871e+03,5.834884e+02
3.077835e+03,6.007477e+02
3.078799e+03,6.155922e+02
3.079763e+03,6.031228e+02
3.080728e+03,5.994649e+02
3.081692e+03,6.016425e+02
3.082656e+03,5.896436e+02
3.083620e+03,5.704397e+02
3.084584e+03,5.482914e+02
3.085549e+03,5.524467e+02
3.086513e+03,5.862354e+02
3.087477e+03,5.906780e+02
3.088441e+03,5.900583e+02
3.089406e+03,6.179466e+02
3.090370e+03,6.281311e+02
3.091334e+03,6.151637e+02
3.092298e+03,5.822062e+02
3.093262e+03,5.490995e+02
3.094227e+03,5.596566e+02
3.095191e+03,5.698486e+02
3.096155e+03,5.648743e+02
3.097119e+03,5.667765e+02
3.098084e+03,5.728040e+02
3.099048e+03,5.724551e+02
3.100012e+03,5.752497e+02
3.100976e+03,5.936964e+02
3.101941e+03,5.818238e+02
3.102905e+03,5.461838e+02
3.103869e+03,5.485699e+02
3.104833e+03,5.594194e+02
3.105798e+03,5.586839e+02
3.106762e+03,5.588937e+02
3.107726e+03,5.637520e+02
3.108690e+03,5.729867e+02
3.109655e+03,5.784816e+02
3.110619e+03,5.637137e+02
3.111583e+03,5.630427e+02
3.112547e+03,5.791454e+02
3.113511e+03,5.923961e+02
3.114476e+03,6.008222e+02
3.115440e+03,6.023008e+02
3.116404e+03,6.015826e+02
3.117368e+03,6.009865e+02
3.118333e+03,5.929257e+02
3.119297e+03,5.835949e+02
3.120261e+03,5.837704e+02
3.121225e+03,5.835187e+02
3.122189e+03,5.767692e+02
3.123154e+03,5.750355e+02
3.124118e+03,5.772939e+02
3.125082e+03,5.777208e+02
3.126046e+03,5.769981e+02
3.127011e+03,5.749037e+02
3.127975e+03,5.841396e+02
3.128939e+03,5.990237e+02
3.129903e+03,5.849258e+02
3.130868e+03,5.697393e+02
3.131832e+03,5.816158e+02
3.132796e+03,5.903007e+02
3.133760e+03,5.898791e+02
3.134725e+03,5.680414e+02
3.135689e+03,5.471619e+02
3.136653e+03,5.468909e+02
3.137617e+03,5.607379e+02
3.138582e+03,5.874792e+02
3.139546e+03,5.962797e+02
3.140510e+03,5.947490e+02
3.141474e+03,5.920477e+02
3.142438e+03,5.960012e+02
3.143403e+03,6.038773e+02
3.144367e+03,5.761161e+02
3.145331e+03,5.420413e+02
3.146295e+03,5.584440e+02
3.147260e+03,5.735567e+02
3.148224e+03,5.740313e+02
3.149188e+03,5.806646e+02
3.150152e+03,5.878503e+02
3.151116e+03,5.863282e+02
3.152081e+03,5.874592e+02
3.153045e+03,5.950440e+02
3.154009e+03,5.942230e+02
3.154973e+03,5.898253e+02
3.155938e+03,5.947307e+02
3.156902e+03,5.941639e+02
3.157866e+03,5.829904e+02
3.158830e+03,5.501879e+02
3.159795e+03,5.172195e+02
3.160759e+03,5.431302e+02
3.161723e+03,5.681534e+02
3.162687e+03,5.572635e+02
3.163652e+03,5.522779e+02
3.164616e+03,5.640947e+02
3.165580e+03,6.170128e+02
3.166544e+03,6.413157e+02
3.167509e+03,6.136335e+02
3.168473e+03,5.893527e+02
3.169437e+03,5.749819e+02
3.170401e+03,5.640152e+02
3.171365e+03,5.637357e+02
3.172330e+03,5.784635e+02
3.173294e+03,5.759164e+02
3.174258e+03,5.663646e+02
3.175222e+03,5.763714e+02
3.176187e+03,5.804950e+02
3.177151e+03,5.612809e+02
3.178115e+03,5.610604e+02
3.179079e+03,5.776760e+02
3.180043e+03,5.947245e+02
3.181008e+03,6.093586e+02
3.181972e+03,6.213204e+02
3.182936e+03,6.081342e+02
3.183900e+03,5.794355e+02
3.184865e+03,5.588069e+02
3.185829e+03,5.498589e+02
3.186793e+03,5.693183e+02
3.187757e+03,5.638294e+02
3.188722e+03,5.522800e+02
3.189686e+03,5.810689e+02
3.190650e+03,6.008005e+02
3.191614e+03,5.932078e+02
3.192579e+03,5.964265e+02
3.193543e+03,6.046071e+02
3.194507e+03,5.781609e+02
3.195471e+03,5.576064e+02
3.196436e+03,5.596312e+02
3.197400e+03,5.472997e+02
3.198364e+03,5.455518e+02
3.199328e+03,6.039424e+02
3.200292e+03,6.295883e+02
3.201257e+03,0.000000e+00
3.202221e+03,0.000000e+00
3.203185e+03,0.000000e+00
3.204149e+03,0.000000e+00
3.205114e+03,0.000000e+00
3.206078e+03,0.000000e+00
3.207042e+03,0.000000e+00
3.208006e+03,0.000000e+00
3.208970e+03,0.000000e+00
3.209935e+03,0.000000e+00
3.210899e+03,0.000000e+00
3.211863e+03,0.000000e+00
3.212827e+03,0.000000e+00
3.213792e+03,0.000000e+00
3.214756e+03,0.000000e+00
3.215720e+03,0.000000e+00
3.216684e+03,0.000000e+00
3.217649e+03,0.000000e+00
3.218613e+03,0.000000e+00
3.219577e+03,0.000000e+00
3.220541e+03,0.000000e+00
3.221506e+03,0.000000e+00
3.222470e+03,0.000000e+00
3.223434e+03,0.000000e+00
3.224398e+03,0.000000e+00
3.225363e+03,0.000000e+00
3.226327e+03,0.000000e+00
3.227291e+03,0.000000e+00
3.228255e+03,0.000000e+00
3.229219e+03,0.000000e+00
3.230184e+03,0.000000e+00
3.231148e+03,0.000000e+00
3.232112e+03,0.000000e+00
3.233076e+03,0.000000e+00
3.234041e+03,0.000000e+00
3.235005e+03,0.000000e+00
3.235969e+03,0.000000e+00
3.236933e+03,0.000000e+00
3.237897e+03,0.000000e+00
3.238862e+03,0.000000e+00
3.239826e+03,0.000000e+00
3.240790e+03,0.000000e+00
3.241754e+03,0.000000e+00
3.242719e+03,0.000000e+00
3.243683e+03,0.000000e+00
3.244647e+03,0.000000e+00
3.245611e+03,0.000000e+00
3.246576e+03,0.000000e+00
3.247540e+03,0.000000e+00
3.248504e+03,0.000000e+00
3.249468e+03,0.000000e+00
3.250433e+03,0.000000e+00
3.251397e+03,0.000000e+00
3.252361e+03,0.000000e+00
3.253325e+03,0.000000e+00
3.254290e+03,0.000000e+00
3.255254e+03,0.000000e+00
3.256218e+03,0.000000e+00
3.257182e+03,0.000000e+00
3.258146e+03,0.000000e+00
3.259111e+03,0.000000e+00
3.260075e+03,0.000000e+00
3.261039e+03,0.000000e+00
3.262003e+03,0.000000e+00
3.262968e+03,0.000000e+00
3.263932e+03,0.000000e+00
3.264896e+03,0.000000e+00
3.265860e+03,0.000000e+00
3.266824e+03,0.000000e+00
3.267789e+03,0.000000e+00
3.268753e+03,0.000000e+00
3.269717e+03,0.000000e+00
3.270681e+03,0.000000e+00
3.271646e+03,0.000000e+00
3.272610e+03,0.000000e+00
3.273574e+03,0.000000e+00
3.274538e+03,0.000000e+00
3.275503e+03,0.000000e+00
3.276467e+03,0.000000e+00
3.277431e+03,0.000000e+00
3.278395e+03,0.000000e+00
3.279360e+03,0.000000e+00
3.280324e+03,0.000000e+00
3.281288e+03,0.000000e+00
3.282252e+03,0.000000e+00
3.283217e+03,0.000000e+00
3.284181e+03,0.000000e+00
3.285145e+03,0.000000e+00
3.286109e+03,0.000000e+00
3.287073e+03,0.000000e+00
3.288038e+03,0.000000e+00
3.289002e+03,0.000000e+00
3.289966e+03,0.000000e+00
3.290930e+03,0.000000e+00
3.291895e+03,0.000000e+00
3.292859e+03,0.000000e+00
3.293823e+03,0.000000e+00
3.294787e+03,0.000000e+00
3.295751e+03,0.000000e+00
3.296716e+03,0.000000e+00
3.297680e+03,0.000000e+00
3.298644e+03,0.000000e+00
3.299608e+03,0.000000e+00
3.300573e+03,0.000000e+00
3.301537e+03,0.000000e+00
3.302501e+03,0.000000e+00
3.303465e+03,0.000000e+00
3.304430e+03,0.000000e+00
3.305394e+03,0.000000e+00
3.306358e+03,0.000000e+00
3.307322e+03,0.000000e+00
3.308287e+03,0.000000e+00
3.309251e+03,0.000000e+00
3.310215e+03,0.000000e+00
3.311179e+03,0.000000e+00
3.312144e+03,0.000000e+00
3.313108e+03,0.000000e+00
3.314072e+03,0.000000e+00
3.315036e+03,0.000000e+00
3.316000e+03,0.000000e+00
3.316965e+03,0.000000e+00
3.317929e+03,0.000000e+00
3.318893e+03,0.000000e+00
3.319857e+03,0.000000e+00
3.320822e+03,0.000000e+00
3.321786e+03,0.000000e+00
3.322750e+03,0.000000e+00
3.323714e+03,0.000000e+00
3.324678e+03,0.000000e+00
3.325643e+03,0.000000e+00
3.326607e+03,0.000000e+00
3.327571e+03,0.000000e+00
3.328535e+03,0.000000e+00
3.329500e+03,0.000000e+00
3.330464e+03,0.000000e+00
3.331428e+03,0.000000e+00
3.332392e+03,0.000000e+00
3.333357e+03,0.000000e+00
3.334321e+03,0.000000e+00
3.335285e+03,0.000000e+00
3.336249e+03,0.000000e+00
3.337214e+03,0.000000e+00
3.338178e+03,0.000000e+00
3.339142e+03,0.000000e+00
3.340106e+03,0.000000e+00
3.341071e+03,0.000000e+00
3.342035e+03,0.000000e+00
3.342999e+03,0.000000e+00
3.343963e+03,0.000000e+00
3.344927e+03,0.000000e+00
3.345892e+03,0.000000e+00
3.346856e+03,0.000000e+00
3.347820e+03,0.000000e+00
3.348784e+03,0.000000e+00
3.349749e+03,0.000000e+00
3.350713e+03,0.000000e+00
3.351677e+03,0.000000e+00
3.352641e+03,0.000000e+00
3.353605e+03,0.000000e+00
3.354570e+03,0.000000e+00
3.355534e+03,0.000000e+00
3.356498e+03,0.000000e+00
3.357462e+03,0.000000e+00
3.358427e+03,0.000000e+00
3.359391e+03,0.000000e+00
3.360355e+03,0.000000e+00
3.361319e+03,0.000000e+00
3.362284e+03,0.000000e+00
3.363248e+03,0.000000e+00
3.364212e+03,0.000000e+00
3.365176e+03,0.000000e+00
3.366141e+03,0.000000e+00
3.367105e+03,0.000000e+00
3.368069e+03,0.000000e+00
3.369033e+03,0.000000e+00
3.369998e+03,0.000000e+00
3.370962e+03,0.000000e+00
3.371926e+03,0.000000e+00
3.372890e+03,0.000000e+00
3.373854e+03,0.000000e+00
3.374819e+03,0.000000e+00
3.375783e+03,0.000000e+00
3.376747e+03,0.000000e+00
3.377711e+03,0.000000e+00
3.378676e+03,0.000000e+00
3.379640e+03,0.000000e+00
3.380604e+03,0.000000e+00
3.381568e+03,0.000000e+00
3.382532e+03,0.000000e+00
3.383497e+03,0.000000e+00
3.384461e+03,0.000000e+00
3.385425e+03,0.000000e+00
3.386389e+03,0.000000e+00
3.387354e+03,0.000000e+00
3.388318e+03,0.000000e+00
3.389282e+03,0.000000e+00
3.390246e+03,0.000000e+00
3.391211e+03,0.000000e+00
3.392175e+03,0.000000e+00
3.393139e+03,0.000000e+00
3.394103e+03,0.000000e+00
3.395068e+03,0.000000e+00
3.396032e+03,0.000000e+00
3.396996e+03,0.000000e+00
3.397960e+03,0.000000e+00
3.398925e+03,0.000000e+00
3.399889e+03,0.000000e+00
3.400853e+03,0.000000e+00
3.401817e+03,0.000000e+00
3.402781e+03,0.000000e+00
3.403746e+03,0.000000e+00
3.404710e+03,0.000000e+00
3.405674e+03,0.000000e+00
3.406638e+03,0.000000e+00
3.407603e+03,0.000000e+00
3.408567e+03,0.000000e+00
3.409531e+03,0.000000e+00
3.410495e+03,0.000000e+00
3.411459e+03,0.000000e+00
3.412424e+03,0.000000e+00
3.413388e+03,0.000000e+00
3.414352e+03,0.000000e+00
3.415316e+03,0.000000e+00
3.416281e+03,0.000000e+00
3.417245e+03,0.000000e+00
3.418209e+03,0.000000e+00
3.419173e+03,0.000000e+00
3.420138e+03,0.000000e+00
3.421102e+03,0.000000e+00
3.422066e+03,0.000000e+00
3.423030e+03,0.000000e+00
3.423995e+03,0.000000e+00
3.424959e+03,0.000000e+00
3.425923e+03,0.000000e+00
3.426887e+03,0.000000e+00
3.427852e+03,0.000000e+00
3.428816e+03,0.000000e+00
3.429780e+03,0.000000e+00
3.430744e+03,0.000000e+00
3.431708e+03,0.000000e+00
3.432673e+03,0.000000e+00
3.433637e+03,0.000000e+00
3.434601e+03,0.000000e+00
3.435565e+03,0.000000e+00
3.436530e+03,0.000000e+00
3.437494e+03,0.000000e+00
3.438458e+03,0.000000e+00
3.439422e+03,0.000000e+00
3.440386e+03,0.000000e+00
3.441351e+03,0.000000e+00
3.442315e+03,0.000000e+00
3.443279e+03,0.000000e+00
3.444243e+03,0.000000e+00
3.445208e+03,0.000000e+00
3.446172e+03,0.000000e+00
3.447136e+03,0.000000e+00
3.448100e+03,0.000000e+00
3.449065e+03,0.000000e+00
3.450029e+03,0.000000e+00
3.450993e+03,0.000000e+00
3.451957e+03,0.000000e+00
3.452922e+03,0.000000e+00
3.453886e+03,0.000000e+00
3.454850e+03,0.000000e+00
3.455814e+03,0.000000e+00
3.456779e+03,0.000000e+00
3.457743e+03,0.000000e+00
3.458707e+03,0.000000e+00
3.459671e+03,0.000000e+00
3.460635e+03,0.000000e+00
3.461600e+03,0.000000e+00
3.462564e+03,0.000000e+00
3.463528e+03,0.000000e+00
3.464492e+03,0.000000e+00
3.465457e+03,0.000000e+00
3.466421e+03,0.000000e+00
3.467385e+03,0.000000e+00
3.468349e+03,0.000000e+00
3.469313e+03,0.000000e+00
3.470278e+03,0.000000e+00
3.471242e+03,0.000000e+00
3.472206e+03,0.000000e+00
3.473170e+03,0.000000e+00
3.474135e+03,0.000000e+00
3.475099e+03,0.000000e+00
3.476063e+03,0.000000e+00
3.477027e+03,0.000000e+00
3.477992e+03,0.000000e+00
3.478956e+03,0.000000e+00
3.479920e+03,0.000000e+00
3.480884e+03,0.000000e+00
3.481849e+03,0.000000e+00
3.482813e+03,0.000000e+00
3.483777e+03,0.000000e+00
3.484741e+03,0.000000e+00
3.485706e+03,0.000000e+00
3.486670e+03,0.000000e+00
3.487634e+03,0.000000e+00
3.488598e+03,0.000000e+00
3.489563e+03,0.000000e+00
3.490527e+03,0.000000e+00
3.491491e+03,0.000000e+00
3.492455e+03,0.000000e+00
3.493419e+03,0.000000e+00
3.494384e+03,0.000000e+00
3.495348e+03,0.000000e+00
3.496312e+03,0.000000e+00
3.497276e+03,0.000000e+00
3.498240e+03,0.000000e+00
3.499205e+03,0.000000e+00
3.500169e+03,0.000000e+00
