9.931763e+01,0.000000e+00
1.002819e+02,0.000000e+00
1.012461e+02,0.000000e+00
1.022103e+02,0.000000e+00
1.031746e+02,0.000000e+00
1.041388e+02,0.000000e+00
1.051030e+02,0.000000e+00
1.060673e+02,0.000000e+00
1.070315e+02,0.000000e+00
1.079957e+02,0.000000e+00
1.089600e+02,0.000000e+00
1.099242e+02,0.000000e+00
1.108884e+02,0.000000e+00
1.118527e+02,0.000000e+00
1.128169e+02,0.000000e+00
1.137811e+02,0.000000e+00
1.147454e+02,0.000000e+00
1.157096e+02,0.000000e+00
1.166738e+02,0.000000e+00
1.176381e+02,0.000000e+00
1.186023e+02,0.000000e+00
1.195665e+02,0.000000e+00
1.205308e+02,0.000000e+00
1.214950e+02,0.000000e+00
1.224592e+02,0.000000e+00
1.234235e+02,0.000000e+00
1.243877e+02,0.000000e+00
1.253519e+02,0.000000e+00
1.263162e+02,0.000000e+00
1.272804e+02,0.000000e+00
1.282446e+02,0.000000e+00
1.292089e+02,0.000000e+00
1.301731e+02,0.000000e+00
1.311373e+02,0.000000e+00
1.321016e+02,0.000000e+00
1.330658e+02,0.000000e+00
1.340300e+02,0.000000e+00
1.349943e+02,0.000000e+00
1.359585e+02,0.000000e+00
1.369227e+02,0.000000e+00
1.378870e+02,0.000000e+00
1.388512e+02,0.000000e+00
1.398154e+02,0.000000e+00
1.407797e+02,0.000000e+00
1.417439e+02,0.000000e+00
1.427081e+02,0.000000e+00
1.436724e+02,0.000000e+00
1.446366e+02,0.000000e+00
1.456008e+02,0.000000e+00
1.465651e+02,0.000000e+00
1.475293e+02,0.000000e+00
1.484935e+02,0.000000e+00
1.494578e+02,0.000000e+00
1.504220e+02,0.000000e+00
1.513862e+02,0.000000e+00
1.523505e+02,0.000000e+00
1.533147e+02,0.000000e+00
1.542789e+02,0.000000e+00
1.552432e+02,0.000000e+00
1.562074e+02,0.000000e+00
1.571716e+02,0.000000e+00
1.581359e+02,0.000000e+00
1.591001e+02,0.000000e+00
1.600643e+02,0.000000e+00
1.610286e+02,0.000000e+00
1.619928e+02,0.000000e+00
1.629570e+02,0.000000e+00
1.639213e+02,0.000000e+00
1.648855e+02,0.000000e+00
1.658497e+02,0.000000e+00
1.668140e+02,0.000000e+00
1.677782e+02,0.000000e+00
1.687424e+02,0.000000e+00
1.697067e+02,0.000000e+00
1.706709e+02,0.000000e+00
1.716351e+02,0.000000e+00
1.725994e+02,0.000000e+00
1.735636e+02,0.000000e+00
1.745278e+02,0.000000e+00
1.754921e+02,0.000000e+00
1.764563e+02,0.000000e+00
1.774205e+02,0.000000e+00
1.783848e+02,0.000000e+00
1.793490e+02,0.000000e+00
1.803132e+02,0.000000e+00
1.812775e+02,0.000000e+00
1.822417e+02,0.000000e+00
1.832059e+02,0.000000e+00
1.841702e+02,0.000000e+00
1.851344e+02,0.000000e+00
1.860986e+02,0.000000e+00
1.870629e+02,0.000000e+00
1.880271e+02,0.000000e+00
1.889913e+02,0.000000e+00
1.899556e+02,0.000000e+00
1.909198e+02,0.000000e+00
1.918840e+02,0.000000e+00
1.928483e+02,0.000000e+00
1.938125e+02,0.000000e+00
1.947767e+02,0.000000e+00
1.957410e+02,0.000000e+00
1.967052e+02,0.000000e+00
1.976694e+02,0.000000e+00
1.986337e+02,0.000000e+00
1.995979e+02,1.063128e+03
2.005621e+02,1.069670e+03
2.015264e+02,1.074109e+03
2.024906e+02,1.074628e+03
2.034548e+02,1.074320e+03
2.044191e+02,1.073038e+03
2.053833e+02,1.070955e+03
2.063475e+02,1.068850e+03
2.073118e+02,1.067965e+03
2.082760e+02,1.069220e+03
2.092402e+02,1.068827e+03
2.102045e+02,1.064691e+03
2.111687e+02,1.060535e+03
2.121329e+02,1.059241e+03
2.130972e+02,1.062320e+03
2.140614e+02,1.067768e+03
2.150256e+02,1.070991e+03
2.159899e+02,1.071464e+03
2.169541e+02,1.070402e+03
2.179183e+02,1.067642e+03
2.188826e+02,1.063669e+03
2.198468e+02,1.060563e+03
2.208110e+02,1.060182e+03
2.217753e+02,1.062318e+03
2.227395e+02,1.064221e+03
2.237037e+02,1.067186e+03
2.246680e+02,1.069264e+03
2.256322e+02,1.068101e+03
2.265964e+02,1.061675e+03
2.275607e+02,1.054656e+03
2.285249e+02,1.052739e+03
2.294892e+02,1.056832e+03
2.304534e+02,1.061650e+03
2.314176e+02,1.062954e+03
2.323819e+02,1.061301e+03
2.333461e+02,1.059457e+03
2.343103e+02,1.057994e+03
2.352746e+02,1.057150e+03
2.362388e+02,1.057367e+03
2.372030e+02,1.058896e+03
2.381673e+02,1.060413e+03
2.391315e+02,1.060125e+03
2.400957e+02,1.057445e+03
2.410600e+02,1.054928e+03
2.420242e+02,1.053761e+03
2.429884e+02,1.054009e+03
2.439527e+02,1.055292e+03
2.449169e+02,1.057419e+03
2.458811e+02,1.060411e+03
2.468454e+02,1.060935e+03
2.478096e+02,1.055984e+03
2.487738e+02,1.050708e+03
2.497381e+02,1.049237e+03
2.507023e+02,1.052265e+03
2.516665e+02,1.057053e+03
2.526308e+02,1.059121e+03
2.535950e+02,1.054559e+03
2.545592e+02,1.050927e+03
2.555235e+02,1.049502e+03
2.564877e+02,1.049151e+03
2.574519e+02,1.048564e+03
2.584161e+02,1.047082e+03
2.593804e+02,1.044975e+03
2.603446e+02,1.043502e+03
2.613088e+02,1.041738e+03
2.622731e+02,1.040924e+03
2.632373e+02,1.041894e+03
2.642015e+02,1.044184e+03
2.651658e+02,1.046470e+03
2.661300e+02,1.047637e+03
2.670942e+02,1.047764e+03
2.680585e+02,1.048314e+03
2.690227e+02,1.051320e+03
2.699869e+02,1.053906e+03
2.709512e+02,1.053412e+03
2.719154e+02,1.047942e+03
2.728796e+02,1.041285e+03
2.738439e+02,1.039222e+03
2.748081e+02,1.043200e+03
2.757723e+02,1.047933e+03
2.767366e+02,1.048954e+03
2.777008e+02,1.046739e+03
2.786650e+02,1.044294e+03
2.796293e+02,1.042686e+03
2.805935e+02,1.041862e+03
2.815577e+02,1.041471e+03
2.825220e+02,1.041354e+03
2.834862e+02,1.041373e+03
2.844504e+02,1.041575e+03
2.854147e+02,1.042710e+03
2.863789e+02,1.043417e+03
2.873431e+02,1.043393e+03
2.883074e+02,1.043013e+03
2.892716e+02,1.042709e+03
2.902358e+02,1.042543e+03
2.912001e+02,1.042380e+03
2.921643e+02,1.041727e+03
2.931285e+02,1.040341e+03
2.940928e+02,1.039175e+03
2.950570e+02,1.038614e+03
2.960212e+02,1.038435e+03
2.969855e+02,1.038135e+03
2.979497e+02,1.037256e+03
2.989139e+02,1.035577e+03
2.998782e+02,1.034499e+03
3.008424e+02,1.035003e+03
3.018066e+02,1.036192e+03
3.027709e+02,1.037058e+03
3.037351e+02,1.037015e+03
3.046993e+02,1.036420e+03
3.056636e+02,1.036451e+03
3.066278e+02,1.038027e+03
3.075920e+02,1.038541e+03
3.085563e+02,1.035540e+03
3.095205e+02,1.030718e+03
3.104847e+02,1.027548e+03
3.114490e+02,1.028022e+03
3.124132e+02,1.030659e+03
3.133774e+02,1.032874e+03
3.143417e+02,1.034368e+03
3.153059e+02,1.034998e+03
3.162701e+02,1.034961e+03
3.172344e+02,1.034766e+03
3.181986e+02,1.033866e+03
3.191628e+02,1.031099e+03
3.201271e+02,1.027607e+03
3.210913e+02,1.025540e+03
3.220555e+02,1.025907e+03
3.230198e+02,1.028302e+03
3.239840e+02,1.030539e+03
3.249482e+02,1.033518e+03
3.259125e+02,1.035378e+03
3.268767e+02,1.034886e+03
3.278409e+02,1.032654e+03
3.288052e+02,1.030317e+03
3.297694e+02,1.029394e+03
3.307336e+02,1.030224e+03
3.316979e+02,1.030490e+03
3.326621e+02,1.029980e+03
3.336263e+02,1.028799e+03
3.345906e+02,1.026734e+03
3.355548e+02,1.023978e+03
3.365190e+02,1.021864e+03
3.374833e+02,1.021997e+03
3.384475e+02,1.024547e+03
3.394117e+02,1.027060e+03
3.403760e+02,1.028698e+03
3.413402e+02,1.029377e+03
3.423044e+02,1.029109e+03
3.432687e+02,1.026907e+03
3.442329e+02,1.024236e+03
3.451971e+02,1.022110e+03
3.461614e+02,1.020296e+03
3.471256e+02,1.018604e+03
3.480898e+02,1.017376e+03
3.490541e+02,1.017270e+03
3.500183e+02,1.016556e+03
3.509825e+02,1.015068e+03
3.519468e+02,1.013554e+03
3.529110e+02,1.012020e+03
3.538752e+02,1.010323e+03
3.548395e+02,1.009040e+03
3.558037e+02,1.009753e+03
3.567680e+02,1.014672e+03
3.577322e+02,1.018006e+03
3.586964e+02,1.018798e+03
3.596607e+02,1.018393e+03
3.606249e+02,1.017940e+03
3.615891e+02,1.017508e+03
3.625534e+02,1.016809e+03
3.635176e+02,1.015866e+03
3.644818e+02,1.014865e+03
3.654461e+02,1.014246e+03
3.664103e+02,1.014691e+03
3.673745e+02,1.016510e+03
3.683388e+02,1.019188e+03
3.693030e+02,1.023203e+03
3.702672e+02,1.027111e+03
3.712315e+02,1.028140e+03
3.721957e+02,1.025150e+03
3.731599e+02,1.021333e+03
3.741242e+02,1.022075e+03
3.750884e+02,1.035295e+03
3.760526e+02,1.044000e+03
3.770169e+02,1.045221e+03
3.779811e+02,1.041599e+03
3.789453e+02,1.035728e+03
3.799096e+02,1.028402e+03
3.808738e+02,1.020288e+03
3.818380e+02,1.014387e+03
3.828023e+02,1.013130e+03
3.837665e+02,1.011874e+03
3.847307e+02,1.008478e+03
3.856950e+02,1.003806e+03
3.866592e+02,9.999287e+02
3.876234e+02,9.986968e+02
3.885877e+02,9.991077e+02
3.895519e+02,9.980362e+02
3.905161e+02,9.945302e+02
3.914804e+02,9.905569e+02
3.924446e+02,9.887554e+02
3.934088e+02,9.899976e+02
3.943731e+02,9.904633e+02
3.953373e+02,9.884728e+02
3.963015e+02,9.851863e+02
3.972658e+02,9.820868e+02
3.982300e+02,9.797594e+02
3.991942e+02,9.785551e+02
4.001585e+02,9.786718e+02
4.011227e+02,9.806724e+02
4.020869e+02,9.827282e+02
4.030512e+02,9.847690e+02
4.040154e+02,9.862936e+02
4.049796e+02,9.868541e+02
4.059439e+02,9.857068e+02
4.069081e+02,9.834153e+02
4.078723e+02,9.821684e+02
4.088366e+02,9.819927e+02
4.098008e+02,9.821106e+02
4.107650e+02,9.832135e+02
4.117293e+02,9.852918e+02
4.126935e+02,9.859183e+02
4.136577e+02,9.821642e+02
4.146220e+02,9.769934e+02
4.155862e+02,9.753790e+02
4.165504e+02,9.786905e+02
4.175147e+02,9.839711e+02
4.184789e+02,9.864832e+02
4.194431e+02,9.824996e+02
4.204074e+02,9.800368e+02
4.213716e+02,9.800955e+02
4.223358e+02,9.813588e+02
4.233001e+02,9.826071e+02
4.242643e+02,9.834833e+02
4.252285e+02,9.839254e+02
4.261928e+02,9.835076e+02
4.271570e+02,9.819051e+02
4.281212e+02,9.804012e+02
4.290855e+02,9.788350e+02
4.300497e+02,9.774892e+02
4.310139e+02,9.773508e+02
4.319782e+02,9.802924e+02
4.329424e+02,9.841051e+02
4.339066e+02,9.862142e+02
4.348709e+02,9.862889e+02
4.358351e+02,9.849021e+02
4.367993e+02,9.825367e+02
4.377636e+02,9.788438e+02
4.387278e+02,9.751656e+02
4.396920e+02,9.708222e+02
4.406563e+02,9.671612e+02
4.416205e+02,9.652699e+02
4.425847e+02,9.653458e+02
4.435490e+02,9.662169e+02
4.445132e+02,9.664254e+02
4.454774e+02,9.659639e+02
4.464417e+02,9.655795e+02
4.474059e+02,9.649352e+02
4.483701e+02,9.643524e+02
4.493344e+02,9.644631e+02
4.502986e+02,9.665780e+02
4.512628e+02,9.686332e+02
4.522271e+02,9.687248e+02
4.531913e+02,9.672625e+02
4.541555e+02,9.661826e+02
4.551198e+02,9.667879e+02
4.560840e+02,9.691337e+02
4.570482e+02,9.697748e+02
4.580125e+02,9.692339e+02
4.589767e+02,9.674614e+02
4.599409e+02,9.627802e+02
4.609052e+02,9.558187e+02
4.618694e+02,9.495527e+02
4.628336e+02,9.471525e+02
4.637979e+02,9.482578e+02
4.647621e+02,9.485943e+02
4.657263e+02,9.479109e+02
4.666906e+02,9.469835e+02
4.676548e+02,9.462693e+02
4.686190e+02,9.458400e+02
4.695833e+02,9.447783e+02
4.705475e+02,9.421286e+02
4.715117e+02,9.386927e+02
4.724760e+02,9.352296e+02
4.734402e+02,9.319023e+02
4.744044e+02,9.297639e+02
4.753687e+02,9.315611e+02
4.763329e+02,9.415891e+02
4.772971e+02,9.489794e+02
4.782614e+02,9.514824e+02
4.792256e+02,9.509666e+02
4.801898e+02,9.495678e+02
4.811541e+02,9.473514e+02
4.821183e+02,9.450736e+02
4.830826e+02,9.444152e+02
4.840468e+02,9.454517e+02
4.850110e+02,9.453176e+02
4.859753e+02,9.418338e+02
4.869395e+02,9.346432e+02
4.879037e+02,9.299587e+02
4.888680e+02,9.290721e+02
4.898322e+02,9.296603e+02
4.907964e+02,9.311535e+02
4.917607e+02,9.332462e+02
4.927249e+02,9.351578e+02
4.936891e+02,9.365172e+02
4.946534e+02,9.373763e+02
4.956176e+02,9.358119e+02
4.965818e+02,9.289131e+02
4.975461e+02,9.223760e+02
4.985103e+02,9.214086e+02
4.994745e+02,9.275017e+02
5.004388e+02,9.322023e+02
5.014030e+02,9.303059e+02
5.023672e+02,9.252488e+02
5.033315e+02,9.229581e+02
5.042957e+02,9.253890e+02
5.052599e+02,9.302284e+02
5.062242e+02,9.327047e+02
5.071884e+02,9.316017e+02
5.081526e+02,9.302518e+02
5.091169e+02,9.291367e+02
5.100811e+02,9.282500e+02
5.110453e+02,9.273336e+02
5.120095e+02,9.261220e+02
5.129738e+02,9.252728e+02
5.139380e+02,9.256974e+02
5.149022e+02,9.274127e+02
5.158665e+02,9.296671e+02
5.168307e+02,9.322416e+02
5.177949e+02,9.345848e+02
5.187592e+02,9.339442e+02
5.197234e+02,9.298140e+02
5.206876e+02,9.250346e+02
5.216519e+02,9.194068e+02
5.226161e+02,9.138796e+02
5.235803e+02,9.105754e+02
5.245446e+02,9.129110e+02
5.255088e+02,9.197358e+02
5.264730e+02,9.224326e+02
5.274373e+02,9.190688e+02
5.284015e+02,9.146282e+02
5.293657e+02,9.137957e+02
5.303300e+02,9.171736e+02
5.312942e+02,9.186981e+02
5.322584e+02,9.156124e+02
5.332227e+02,9.116833e+02
5.341869e+02,9.109918e+02
5.351511e+02,9.140313e+02
5.361154e+02,9.172828e+02
5.370796e+02,9.151387e+02
5.380438e+02,9.053988e+02
5.390081e+02,8.998857e+02
5.399723e+02,9.040824e+02
5.409365e+02,9.110379e+02
5.419008e+02,9.137775e+02
5.428650e+02,9.092925e+02
5.438292e+02,9.044684e+02
5.447935e+02,9.034590e+02
5.457577e+02,9.048037e+02
5.467219e+02,9.054954e+02
5.476862e+02,9.043198e+02
5.486504e+02,9.017759e+02
5.496146e+02,8.992592e+02
5.505789e+02,8.957866e+02
5.515431e+02,8.938801e+02
5.525073e+02,8.959567e+02
5.534716e+02,8.999626e+02
5.544358e+02,9.023945e+02
5.554000e+02,8.996373e+02
5.563643e+02,8.958687e+02
5.573285e+02,8.960648e+02
5.582927e+02,8.995384e+02
5.592570e+02,9.019467e+02
5.602212e+02,9.002807e+02
5.611854e+02,8.945280e+02
5.621497e+02,8.916584e+02
5.631139e+02,8.955175e+02
5.640781e+02,8.983171e+02
5.650424e+02,8.977389e+02
5.660066e+02,8.943752e+02
5.669708e+02,8.905096e+02
5.679351e+02,8.863505e+02
5.688993e+02,8.829590e+02
5.698635e+02,8.828472e+02
5.708278e+02,8.864769e+02
5.717920e+02,8.908352e+02
5.727562e+02,8.929094e+02
5.737205e+02,8.914628e+02
5.746847e+02,8.911345e+02
5.756489e+02,8.929356e+02
5.766132e+02,8.947007e+02
5.775774e+02,8.953067e+02
5.785416e+02,8.946573e+02
5.795059e+02,8.935770e+02
5.804701e+02,8.926625e+02
5.814343e+02,8.918195e+02
5.823986e+02,8.907701e+02
5.833628e+02,8.895118e+02
5.843270e+02,8.881185e+02
5.852913e+02,8.865553e+02
5.862555e+02,8.839382e+02
5.872197e+02,8.825651e+02
5.881840e+02,8.830999e+02
5.891482e+02,8.842614e+02
5.901124e+02,8.851396e+02
5.910767e+02,8.854982e+02
5.920409e+02,8.854425e+02
5.930051e+02,8.853806e+02
5.939694e+02,8.850256e+02
5.949336e+02,8.825591e+02
5.958978e+02,8.764960e+02
5.968621e+02,8.693734e+02
5.978263e+02,8.671152e+02
5.987905e+02,8.772567e+02
5.997548e+02,8.837037e+02
6.007190e+02,8.829269e+02
6.016832e+02,8.788138e+02
6.026475e+02,8.756743e+02
6.036117e+02,8.750695e+02
6.045759e+02,8.756319e+02
6.055402e+02,8.755486e+02
6.065044e+02,8.748737e+02
6.074686e+02,8.754005e+02
6.084329e+02,8.786564e+02
6.093971e+02,8.837542e+02
6.103613e+02,8.858761e+02
6.113256e+02,8.829930e+02
6.122899e+02,8.792185e+02
6.132541e+02,8.738178e+02
6.142183e+02,8.681461e+02
6.151826e+02,8.644822e+02
6.161468e+02,8.657569e+02
6.171110e+02,8.686816e+02
6.180753e+02,8.681830e+02
6.190395e+02,8.646531e+02
6.200037e+02,8.627869e+02
6.209680e+02,8.660068e+02
6.219322e+02,8.740276e+02
6.228964e+02,8.783441e+02
6.238607e+02,8.752080e+02
6.248249e+02,8.720384e+02
6.257891e+02,8.708513e+02
6.267534e+02,8.710416e+02
6.277176e+02,8.711779e+02
6.286818e+02,8.710105e+02
6.296461e+02,8.707810e+02
6.306103e+02,8.709959e+02
6.315745e+02,8.715716e+02
6.325388e+02,8.713859e+02
6.335030e+02,8.691063e+02
6.344672e+02,8.644794e+02
6.354315e+02,8.612765e+02
6.363957e+02,8.595838e+02
6.373599e+02,8.588958e+02
6.383242e+02,8.595819e+02
6.392884e+02,8.615664e+02
6.402526e+02,8.631283e+02
6.412169e+02,8.627698e+02
6.421811e+02,8.622910e+02
6.431453e+02,8.641711e+02
6.441096e+02,8.681111e+02
6.450738e+02,8.712569e+02
6.460380e+02,8.709642e+02
6.470023e+02,8.673585e+02
6.479665e+02,8.627884e+02
6.489307e+02,8.556268e+02
6.498950e+02,8.492985e+02
6.508592e+02,8.467296e+02
6.518234e+02,8.478875e+02
6.527877e+02,8.499581e+02
6.537519e+02,8.546809e+02
6.547161e+02,8.588480e+02
6.556804e+02,8.594818e+02
6.566446e+02,8.566384e+02
6.576088e+02,8.531996e+02
6.585731e+02,8.520340e+02
6.595373e+02,8.526850e+02
6.605015e+02,8.522991e+02
6.614658e+02,8.503552e+02
6.624300e+02,8.481388e+02
6.633942e+02,8.469610e+02
6.643585e+02,8.474587e+02
6.653227e+02,8.472369e+02
6.662869e+02,8.437538e+02
6.672512e+02,8.412081e+02
6.682154e+02,8.437708e+02
6.691796e+02,8.516340e+02
6.701439e+02,8.576614e+02
6.711081e+02,8.551609e+02
6.720723e+02,8.475033e+02
6.730366e+02,8.413113e+02
6.740008e+02,8.377418e+02
6.749650e+02,8.360926e+02
6.759293e+02,8.356937e+02
6.768935e+02,8.369794e+02
6.778577e+02,8.386599e+02
6.788220e+02,8.426143e+02
6.797862e+02,8.459459e+02
6.807504e+02,8.458444e+02
6.817147e+02,8.412006e+02
6.826789e+02,8.372357e+02
6.836431e+02,8.363735e+02
6.846074e+02,8.365997e+02
6.855716e+02,8.362719e+02
6.865358e+02,8.351548e+02
6.875001e+02,8.331442e+02
6.884643e+02,8.289775e+02
6.894285e+02,8.227369e+02
6.903928e+02,8.199359e+02
6.913570e+02,8.220901e+02
6.923212e+02,8.261621e+02
6.932855e+02,8.289719e+02
6.942497e+02,8.296027e+02
6.952139e+02,8.315657e+02
6.961782e+02,8.379909e+02
6.971424e+02,8.435029e+02
6.981066e+02,8.431104e+02
6.990709e+02,8.355820e+02
7.000351e+02,8.271039e+02
7.009993e+02,8.219832e+02
7.019636e+02,8.199968e+02
7.029278e+02,8.208846e+02
7.038920e+02,8.246706e+02
7.048563e+02,8.288796e+02
7.058205e+02,8.304496e+02
7.067847e+02,8.287000e+02
7.077490e+02,8.278447e+02
7.087132e+02,8.289407e+02
7.096774e+02,8.309221e+02
7.106417e+02,8.326268e+02
7.116059e+02,8.342407e+02
7.125701e+02,8.338893e+02
7.135344e+02,8.286080e+02
7.144986e+02,8.228874e+02
7.154628e+02,8.213390e+02
7.164271e+02,8.244025e+02
7.173913e+02,8.280540e+02
7.183555e+02,8.278701e+02
7.193198e+02,8.246705e+02
7.202840e+02,8.230602e+02
7.212482e+02,8.240534e+02
7.222125e+02,8.254789e+02
7.231767e+02,8.248211e+02
7.241409e+02,8.207735e+02
7.251052e+02,8.176085e+02
7.260694e+02,8.148288e+02
7.270336e+02,8.132315e+02
7.279979e+02,8.139760e+02
7.289621e+02,8.171963e+02
7.299263e+02,8.201133e+02
7.308906e+02,8.216994e+02
7.318548e+02,8.221638e+02
7.328190e+02,8.218879e+02
7.337833e+02,8.209025e+02
7.347475e+02,8.189384e+02
7.357117e+02,8.151344e+02
7.366760e+02,8.099271e+02
7.376402e+02,8.066780e+02
7.386044e+02,8.057189e+02
7.395687e+02,8.063550e+02
7.405329e+02,8.082529e+02
7.414971e+02,8.120955e+02
7.424614e+02,8.140319e+02
7.434256e+02,8.130959e+02
7.443898e+02,8.121056e+02
7.453541e+02,8.124656e+02
7.463183e+02,8.136031e+02
7.472825e+02,8.133355e+02
7.482468e+02,8.098810e+02
7.492110e+02,8.051243e+02
7.501752e+02,8.008115e+02
7.511395e+02,7.975219e+02
7.521037e+02,7.957506e+02
7.530679e+02,7.963889e+02
7.540322e+02,7.987169e+02
7.549964e+02,7.981916e+02
7.559606e+02,7.938371e+02
7.569249e+02,7.907335e+02
7.578891e+02,7.927832e+02
7.588533e+02,8.004933e+02
7.598176e+02,8.052709e+02
7.607818e+02,8.036193e+02
7.617460e+02,8.013349e+02
7.627103e+02,8.008249e+02
7.636745e+02,8.019580e+02
7.646387e+02,8.029671e+02
7.656030e+02,8.032430e+02
7.665672e+02,8.030024e+02
7.675314e+02,8.021002e+02
7.684957e+02,8.000994e+02
7.694599e+02,7.967450e+02
7.704241e+02,7.914597e+02
7.713884e+02,7.860308e+02
7.723526e+02,7.855663e+02
7.733168e+02,7.907766e+02
7.742811e+02,7.964414e+02
7.752453e+02,8.000379e+02
7.762095e+02,8.014653e+02
7.771738e+02,8.017174e+02
7.781380e+02,7.999085e+02
7.791022e+02,7.973497e+02
7.800665e+02,7.939919e+02
7.810307e+02,7.905424e+02
7.819949e+02,7.880462e+02
7.829592e+02,7.880369e+02
7.839234e+02,7.882445e+02
7.848876e+02,7.866735e+02
7.858519e+02,7.844855e+02
7.868161e+02,7.839760e+02
7.877803e+02,7.865140e+02
7.887446e+02,7.898093e+02
7.897088e+02,7.910012e+02
7.906730e+02,7.904926e+02
7.916373e+02,7.888865e+02
7.926015e+02,7.856124e+02
7.935657e+02,7.815099e+02
7.945300e+02,7.793590e+02
7.954942e+02,7.802393e+02
7.964584e+02,7.812233e+02
7.974227e+02,7.832982e+02
7.983869e+02,7.856681e+02
7.993511e+02,7.864757e+02
8.003154e+02,7.845247e+02
8.012796e+02,7.817994e+02
8.022438e+02,7.770909e+02
8.032081e+02,7.732879e+02
8.041723e+02,7.733693e+02
8.051365e+02,7.780016e+02
8.061008e+02,7.832234e+02
8.070650e+02,7.865430e+02
8.080292e+02,7.880920e+02
8.089935e+02,7.882295e+02
8.099577e+02,7.872634e+02
8.109219e+02,7.857741e+02
8.118862e+02,7.839974e+02
8.128504e+02,7.819557e+02
8.138146e+02,7.805189e+02
8.147789e+02,7.796955e+02
8.157431e+02,7.791403e+02
8.167073e+02,7.790488e+02
8.176716e+02,7.802491e+02
8.186358e+02,7.795897e+02
8.196000e+02,7.739686e+02
8.205643e+02,7.692675e+02
8.215285e+02,7.683645e+02
8.224927e+02,7.706968e+02
8.234570e+02,7.718377e+02
8.244212e+02,7.686668e+02
8.253854e+02,7.657987e+02
8.263497e+02,7.669671e+02
8.273139e+02,7.706537e+02
8.282781e+02,7.728201e+02
8.292424e+02,7.700754e+02
8.302066e+02,7.658162e+02
8.311708e+02,7.645850e+02
8.321351e+02,7.660055e+02
8.330993e+02,7.683990e+02
8.340635e+02,7.710596e+02
8.350278e+02,7.734882e+02
8.359920e+02,7.742893e+02
8.369562e+02,7.732626e+02
8.379205e+02,7.716948e+02
8.388847e+02,7.695328e+02
8.398489e+02,7.674086e+02
8.408132e+02,7.668828e+02
8.417774e+02,7.703099e+02
8.427416e+02,7.716964e+02
8.437059e+02,7.686525e+02
8.446701e+02,7.642809e+02
8.456343e+02,7.620082e+02
8.465986e+02,7.633056e+02
8.475628e+02,7.644772e+02
8.485270e+02,7.635309e+02
8.494913e+02,7.622270e+02
8.504555e+02,7.625557e+02
8.514197e+02,7.650995e+02
8.523840e+02,7.685629e+02
8.533482e+02,7.733605e+02
8.543124e+02,7.777186e+02
8.552767e+02,7.779015e+02
8.562409e+02,7.734433e+02
8.572051e+02,7.673357e+02
8.581694e+02,7.618362e+02
8.591336e+02,7.572242e+02
8.600978e+02,7.561893e+02
8.610621e+02,7.594890e+02
8.620263e+02,7.641815e+02
8.629905e+02,7.684802e+02
8.639548e+02,7.722634e+02
8.649190e+02,7.723320e+02
8.658832e+02,7.659071e+02
8.668475e+02,7.602269e+02
8.678117e+02,7.593829e+02
8.687759e+02,7.622459e+02
8.697402e+02,7.634543e+02
8.707044e+02,7.605740e+02
8.716686e+02,7.574483e+02
8.726329e+02,7.557300e+02
8.735971e+02,7.552244e+02
8.745613e+02,7.551604e+02
8.755256e+02,7.557531e+02
8.764898e+02,7.566179e+02
8.774540e+02,7.575285e+02
8.784183e+02,7.582283e+02
8.793825e+02,7.582715e+02
8.803467e+02,7.573742e+02
8.813110e+02,7.562096e+02
8.822752e+02,7.560785e+02
8.832394e+02,7.566894e+02
8.842037e+02,7.560335e+02
8.851679e+02,7.532825e+02
8.861321e+02,7.503065e+02
8.870964e+02,7.502137e+02
8.880606e+02,7.531334e+02
8.890248e+02,7.552275e+02
8.899891e+02,7.565825e+02
8.909533e+02,7.569794e+02
8.919175e+02,7.557824e+02
8.928818e+02,7.523969e+02
8.938460e+02,7.500664e+02
8.948102e+02,7.493602e+02
8.957745e+02,7.487152e+02
8.967387e+02,7.467213e+02
8.977029e+02,7.433333e+02
8.986672e+02,7.421631e+02
8.996314e+02,7.477559e+02
9.005956e+02,7.521599e+02
9.015599e+02,7.509807e+02
9.025241e+02,7.456815e+02
9.034883e+02,7.407540e+02
9.044526e+02,7.364103e+02
9.054168e+02,7.339211e+02
9.063810e+02,7.357453e+02
9.073453e+02,7.405209e+02
9.083095e+02,7.454808e+02
9.092737e+02,7.498110e+02
9.102380e+02,7.521092e+02
9.112022e+02,7.494440e+02
9.121664e+02,7.436118e+02
9.131307e+02,7.395311e+02
9.140949e+02,7.389425e+02
9.150591e+02,7.396829e+02
9.160234e+02,7.375924e+02
9.169876e+02,7.328443e+02
9.179518e+02,7.307128e+02
9.189161e+02,7.323160e+02
9.198803e+02,7.346066e+02
9.208445e+02,7.342840e+02
9.218088e+02,7.310671e+02
9.227730e+02,7.299822e+02
9.237372e+02,7.318250e+02
9.247015e+02,7.335994e+02
9.256657e+02,7.332299e+02
9.266299e+02,7.305558e+02
9.275942e+02,7.287362e+02
9.285584e+02,7.278860e+02
9.295226e+02,7.274443e+02
9.304869e+02,7.274085e+02
9.314511e+02,7.278323e+02
9.324153e+02,7.285385e+02
9.333796e+02,7.310131e+02
9.343438e+02,7.319984e+02
9.353080e+02,7.292429e+02
9.362723e+02,7.245465e+02
9.372365e+02,7.207892e+02
9.382007e+02,7.196543e+02
9.391650e+02,7.190209e+02
9.401292e+02,7.175145e+02
9.410934e+02,7.160506e+02
9.420577e+02,7.155952e+02
9.430219e+02,7.163554e+02
9.439861e+02,7.174891e+02
9.449504e+02,7.190634e+02
9.459146e+02,7.209139e+02
9.468788e+02,7.219991e+02
9.478431e+02,7.219421e+02
9.488073e+02,7.218622e+02
9.497715e+02,7.240505e+02
9.507358e+02,7.271287e+02
9.517000e+02,7.276691e+02
9.526642e+02,7.259420e+02
9.536285e+02,7.232644e+02
9.545927e+02,7.198669e+02
9.555569e+02,7.163328e+02
9.565212e+02,7.147492e+02
9.574854e+02,7.153826e+02
9.584496e+02,7.171888e+02
9.594139e+02,7.196346e+02
9.603781e+02,7.222589e+02
9.613423e+02,7.247276e+02
9.623066e+02,7.274766e+02
9.632708e+02,7.278956e+02
9.642350e+02,7.246174e+02
9.651993e+02,7.204488e+02
9.661635e+02,7.193309e+02
9.671277e+02,7.234995e+02
9.680920e+02,7.244846e+02
9.690562e+02,7.196209e+02
9.700204e+02,7.142195e+02
9.709847e+02,7.128505e+02
9.719489e+02,7.168675e+02
9.729131e+02,7.190020e+02
9.738774e+02,7.185256e+02
9.748416e+02,7.173182e+02
9.758058e+02,7.150525e+02
9.767701e+02,7.119896e+02
9.777343e+02,7.105061e+02
9.786985e+02,7.124437e+02
9.796628e+02,7.141810e+02
9.806270e+02,7.146639e+02
9.815912e+02,7.141599e+02
9.825555e+02,7.131786e+02
9.835197e+02,7.112721e+02
9.844839e+02,7.103789e+02
9.854482e+02,7.126185e+02
9.864124e+02,7.157766e+02
9.873766e+02,7.167427e+02
9.883409e+02,7.144727e+02
9.893051e+02,7.128740e+02
9.902693e+02,7.160967e+02
9.912336e+02,7.202693e+02
9.921978e+02,7.199929e+02
9.931620e+02,7.150879e+02
9.941263e+02,7.108245e+02
9.950905e+02,7.129094e+02
9.960547e+02,7.166226e+02
9.970190e+02,7.152228e+02
9.979832e+02,7.096807e+02
9.989474e+02,7.048171e+02
9.999117e+02,7.041451e+02
1.000876e+03,7.053904e+02
1.001840e+03,7.050242e+02
1.002804e+03,7.036278e+02
1.003769e+03,7.025966e+02
1.004733e+03,7.022648e+02
1.005697e+03,7.021410e+02
1.006661e+03,7.015677e+02
1.007626e+03,7.007272e+02
1.008590e+03,7.002281e+02
1.009554e+03,7.000303e+02
1.010518e+03,6.998018e+02
1.011482e+03,6.995425e+02
1.012447e+03,6.991661e+02
1.013411e+03,6.977086e+02
1.014375e+03,6.953395e+02
1.015339e+03,6.940299e+02
1.016304e+03,6.953333e+02
1.017268e+03,6.985538e+02
1.018232e+03,6.997278e+02
1.019196e+03,6.984447e+02
1.020161e+03,6.976271e+02
1.021125e+03,6.987754e+02
1.022089e+03,7.011584e+02
1.023053e+03,7.020135e+02
1.024018e+03,7.004924e+02
1.024982e+03,7.004842e+02
1.025946e+03,7.030328e+02
1.026910e+03,7.062898e+02
1.027875e+03,7.085267e+02
1.028839e+03,7.104351e+02
1.029803e+03,7.099672e+02
1.030767e+03,7.060416e+02
1.031731e+03,7.016641e+02
1.032696e+03,6.984742e+02
1.033660e+03,6.963663e+02
1.034624e+03,6.966849e+02
1.035588e+03,7.020510e+02
1.036552e+03,7.056055e+02
1.037517e+03,7.029529e+02
1.038481e+03,6.961950e+02
1.039445e+03,6.943282e+02
1.040409e+03,7.018762e+02
1.041374e+03,7.068114e+02
1.042338e+03,7.060873e+02
1.043302e+03,7.027926e+02
1.044266e+03,7.007548e+02
1.045231e+03,7.004968e+02
1.046195e+03,7.003629e+02
1.047159e+03,7.008292e+02
1.048123e+03,7.012997e+02
1.049088e+03,7.009368e+02
1.050052e+03,6.995920e+02
1.051016e+03,7.004498e+02
1.051980e+03,7.074030e+02
1.052945e+03,7.123681e+02
1.053909e+03,7.107461e+02
1.054873e+03,7.039877e+02
1.055837e+03,6.988760e+02
1.056802e+03,6.957729e+02
1.057766e+03,6.948223e+02
1.058730e+03,6.984680e+02
1.059694e+03,7.033661e+02
1.060658e+03,7.051428e+02
1.061623e+03,7.014879e+02
1.062587e+03,6.987599e+02
1.063551e+03,6.978156e+02
1.064515e+03,6.979847e+02
1.065479e+03,6.989302e+02
1.066444e+03,7.008158e+02
1.067408e+03,7.025443e+02
1.068372e+03,7.032720e+02
1.069336e+03,7.044891e+02
1.070301e+03,7.071797e+02
1.071265e+03,7.105268e+02
1.072229e+03,7.125475e+02
1.073193e+03,7.117701e+02
1.074158e+03,7.109701e+02
1.075122e+03,7.115314e+02
1.076086e+03,7.121948e+02
1.077050e+03,7.113134e+02
1.078015e+03,7.076260e+02
1.078979e+03,7.059528e+02
1.079943e+03,7.094074e+02
1.080907e+03,7.133039e+02
1.081872e+03,7.133563e+02
1.082836e+03,7.090475e+02
1.083800e+03,7.069099e+02
1.084764e+03,7.092477e+02
1.085729e+03,7.134659e+02
1.086693e+03,7.186739e+02
1.087657e+03,7.246849e+02
1.088621e+03,7.313561e+02
1.089585e+03,7.421942e+02
1.090550e+03,7.489975e+02
1.091514e+03,7.476516e+02
1.092478e+03,7.429637e+02
1.093442e+03,7.402274e+02
1.094406e+03,7.415330e+02
1.095371e+03,7.408907e+02
1.096335e+03,7.340988e+02
1.097299e+03,7.272120e+02
1.098263e+03,7.249142e+02
1.099228e+03,7.270051e+02
1.100192e+03,7.271334e+02
1.101156e+03,7.223134e+02
1.102120e+03,7.172004e+02
1.103085e+03,7.139950e+02
1.104049e+03,7.117375e+02
1.105013e+03,7.083929e+02
1.105977e+03,7.003344e+02
1.106942e+03,6.956344e+02
1.107906e+03,6.973183e+02
1.108870e+03,7.018308e+02
1.109834e+03,7.065059e+02
1.110799e+03,7.118124e+02
1.111763e+03,7.145876e+02
1.112727e+03,7.109602e+02
1.113691e+03,7.082881e+02
1.114656e+03,7.110929e+02
1.115620e+03,7.185615e+02
1.116584e+03,7.241475e+02
1.117548e+03,7.270705e+02
1.118512e+03,7.278964e+02
1.119477e+03,7.257893e+02
1.120441e+03,7.220505e+02
1.121405e+03,7.187493e+02
1.122369e+03,7.175922e+02
1.123334e+03,7.143557e+02
1.124298e+03,7.068588e+02
1.125262e+03,6.994268e+02
1.126226e+03,6.951934e+02
1.127191e+03,6.945231e+02
1.128155e+03,6.941926e+02
1.129119e+03,6.950183e+02
1.130083e+03,6.946802e+02
1.131047e+03,6.916631e+02
1.132012e+03,6.867303e+02
1.132976e+03,6.828264e+02
1.133940e+03,6.797433e+02
1.134904e+03,6.781849e+02
1.135869e+03,6.793218e+02
1.136833e+03,6.812752e+02
1.137797e+03,6.818614e+02
1.138761e+03,6.809044e+02
1.139726e+03,6.799373e+02
1.140690e+03,6.783000e+02
1.141654e+03,6.777763e+02
1.142618e+03,6.796434e+02
1.143583e+03,6.835958e+02
1.144547e+03,6.870330e+02
1.145511e+03,6.900617e+02
1.146475e+03,6.919409e+02
1.147439e+03,6.921025e+02
1.148404e+03,6.915942e+02
1.149368e+03,6.923163e+02
1.150332e+03,6.944313e+02
1.151296e+03,6.950777e+02
1.152261e+03,6.934815e+02
1.153225e+03,6.907899e+02
1.154189e+03,6.882410e+02
1.155153e+03,6.861705e+02
1.156118e+03,6.849957e+02
1.157082e+03,6.849357e+02
1.158046e+03,6.861182e+02
1.159010e+03,6.886028e+02
1.159974e+03,6.915860e+02
1.160939e+03,6.936728e+02
1.161903e+03,6.946932e+02
1.162867e+03,6.942429e+02
1.163831e+03,6.921454e+02
1.164796e+03,6.895449e+02
1.165760e+03,6.879000e+02
1.166724e+03,6.869563e+02
1.167688e+03,6.856299e+02
1.168653e+03,6.839844e+02
1.169617e+03,6.827634e+02
1.170581e+03,6.832150e+02
1.171545e+03,6.836036e+02
1.172510e+03,6.803405e+02
1.173474e+03,6.751248e+02
1.174438e+03,6.719033e+02
1.175402e+03,6.719706e+02
1.176366e+03,6.725684e+02
1.177331e+03,6.707198e+02
1.178295e+03,6.684653e+02
1.179259e+03,6.693594e+02
1.180223e+03,6.727296e+02
1.181188e+03,6.736358e+02
1.182152e+03,6.661788e+02
1.183116e+03,6.583260e+02
1.184080e+03,6.567176e+02
1.185045e+03,6.587142e+02
1.186009e+03,6.592477e+02
1.186973e+03,6.561426e+02
1.187937e+03,6.532987e+02
1.188901e+03,6.520951e+02
1.189866e+03,6.517219e+02
1.190830e+03,6.515181e+02
1.191794e+03,6.512779e+02
1.192758e+03,6.509701e+02
1.193723e+03,6.506132e+02
1.194687e+03,6.506913e+02
1.195651e+03,6.515996e+02
1.196615e+03,6.529012e+02
1.197580e+03,6.535274e+02
1.198544e+03,6.523633e+02
1.199508e+03,6.513137e+02
1.200472e+03,6.513011e+02
1.201437e+03,6.512581e+02
1.202401e+03,6.501419e+02
1.203365e+03,6.478130e+02
1.204329e+03,6.469725e+02
1.205293e+03,6.479629e+02
1.206258e+03,6.494413e+02
1.207222e+03,6.510545e+02
1.208186e+03,6.523713e+02
1.209150e+03,6.517082e+02
1.210115e+03,6.484952e+02
1.211079e+03,6.476103e+02
1.212043e+03,6.504758e+02
1.213007e+03,6.536637e+02
1.213972e+03,6.531017e+02
1.214936e+03,6.495950e+02
1.215900e+03,6.467888e+02
1.216864e+03,6.447979e+02
1.217828e+03,6.435807e+02
1.218793e+03,6.435143e+02
1.219757e+03,6.436445e+02
1.220721e+03,6.416971e+02
1.221685e+03,6.386876e+02
1.222650e+03,6.370200e+02
1.223614e+03,6.371271e+02
1.224578e+03,6.380818e+02
1.225542e+03,6.402225e+02
1.226507e+03,6.424685e+02
1.227471e+03,6.437199e+02
1.228435e+03,6.436402e+02
1.229399e+03,6.419524e+02
1.230364e+03,6.361254e+02
1.231328e+03,6.316368e+02
1.232292e+03,6.330383e+02
1.233256e+03,6.372316e+02
1.234220e+03,6.399259e+02
1.235185e+03,6.402115e+02
1.236149e+03,6.398249e+02
1.237113e+03,6.385847e+02
1.238077e+03,6.374324e+02
1.239042e+03,6.361156e+02
1.240006e+03,6.345693e+02
1.240970e+03,6.345314e+02
1.241934e+03,6.377131e+02
1.242899e+03,6.392165e+02
1.243863e+03,6.375318e+02
1.244827e+03,6.347092e+02
1.245791e+03,6.334858e+02
1.246755e+03,6.341963e+02
1.247720e+03,6.346604e+02
1.248684e+03,6.349929e+02
1.249648e+03,6.346437e+02
1.250612e+03,6.327377e+02
1.251577e+03,6.300653e+02
1.252541e+03,6.296933e+02
1.253505e+03,6.313453e+02
1.254469e+03,6.337628e+02
1.255434e+03,6.368676e+02
1.256398e+03,6.393142e+02
1.257362e+03,6.386718e+02
1.258326e+03,6.362463e+02
1.259291e+03,6.344807e+02
1.260255e+03,6.334447e+02
1.261219e+03,6.325865e+02
1.262183e+03,6.316934e+02
1.263147e+03,6.314577e+02
1.264112e+03,6.324755e+02
1.265076e+03,6.343251e+02
1.266040e+03,6.366946e+02
1.267004e+03,6.403448e+02
1.267969e+03,6.415488e+02
1.268933e+03,6.365858e+02
1.269897e+03,6.316724e+02
1.270861e+03,6.304052e+02
1.271826e+03,6.321038e+02
1.272790e+03,6.333807e+02
1.273754e+03,6.347939e+02
1.274718e+03,6.350494e+02
1.275682e+03,6.333771e+02
1.276647e+03,6.316580e+02
1.277611e+03,6.326368e+02
1.278575e+03,6.369594e+02
1.279539e+03,6.375189e+02
1.280504e+03,6.339908e+02
1.281468e+03,6.312649e+02
1.282432e+03,6.325590e+02
1.283396e+03,6.357339e+02
1.284361e+03,6.345940e+02
1.285325e+03,6.303242e+02
1.286289e+03,6.284656e+02
1.287253e+03,6.303987e+02
1.288218e+03,6.341708e+02
1.289182e+03,6.405370e+02
1.290146e+03,6.462047e+02
1.291110e+03,6.463307e+02
1.292074e+03,6.419836e+02
1.293039e+03,6.375775e+02
1.294003e+03,6.338863e+02
1.294967e+03,6.317901e+02
1.295931e+03,6.333925e+02
1.296896e+03,6.361276e+02
1.297860e+03,6.368073e+02
1.298824e+03,6.340607e+02
1.299788e+03,6.332653e+02
1.300753e+03,6.357988e+02
1.301717e+03,6.384877e+02
1.302681e+03,6.404821e+02
1.303645e+03,6.416236e+02
1.304609e+03,6.411041e+02
1.305574e+03,6.382527e+02
1.306538e+03,6.366946e+02
1.307502e+03,6.373494e+02
1.308466e+03,6.389926e+02
1.309431e+03,6.405814e+02
1.310395e+03,6.419948e+02
1.311359e+03,6.420865e+02
1.312323e+03,6.410895e+02
1.313288e+03,6.414597e+02
1.314252e+03,6.451572e+02
1.315216e+03,6.493868e+02
1.316180e+03,6.510480e+02
1.317145e+03,6.515969e+02
1.318109e+03,6.527753e+02
1.319073e+03,6.545029e+02
1.320037e+03,6.551964e+02
1.321001e+03,6.537283e+02
1.321966e+03,6.517917e+02
1.322930e+03,6.489858e+02
1.323894e+03,6.469871e+02
1.324858e+03,6.484782e+02
1.325823e+03,6.566172e+02
1.326787e+03,6.606249e+02
1.327751e+03,6.588527e+02
1.328715e+03,6.558249e+02
1.329680e+03,6.543596e+02
1.330644e+03,6.542406e+02
1.331608e+03,6.544821e+02
1.332572e+03,6.550090e+02
1.333536e+03,6.560613e+02
1.334501e+03,6.578202e+02
1.335465e+03,6.580300e+02
1.336429e+03,6.525378e+02
1.337393e+03,6.453096e+02
1.338358e+03,6.426668e+02
1.339322e+03,6.439698e+02
1.340286e+03,6.447255e+02
1.341250e+03,6.424963e+02
1.342215e+03,6.395275e+02
1.343179e+03,6.365009e+02
1.344143e+03,6.340491e+02
1.345107e+03,6.324501e+02
1.346072e+03,6.315891e+02
1.347036e+03,6.313118e+02
1.348000e+03,6.321658e+02
1.348964e+03,6.321578e+02
1.349928e+03,6.305908e+02
1.350893e+03,6.281229e+02
1.351857e+03,6.253868e+02
1.352821e+03,6.223163e+02
1.353785e+03,6.212008e+02
1.354750e+03,6.222604e+02
1.355714e+03,6.233723e+02
1.356678e+03,6.229128e+02
1.357642e+03,6.218658e+02
1.358607e+03,6.206740e+02
1.359571e+03,6.197842e+02
1.360535e+03,6.205342e+02
1.361499e+03,6.240985e+02
1.362464e+03,6.274756e+02
1.363428e+03,6.298094e+02
1.364392e+03,6.312534e+02
1.365356e+03,6.309668e+02
1.366320e+03,6.289794e+02
1.367285e+03,6.283770e+02
1.368249e+03,6.304763e+02
1.369213e+03,6.314180e+02
1.370177e+03,6.301420e+02
1.371142e+03,6.283009e+02
1.372106e+03,6.282150e+02
1.373070e+03,6.294954e+02
1.374034e+03,6.286700e+02
1.374999e+03,6.261814e+02
1.375963e+03,6.250695e+02
1.376927e+03,6.275013e+02
1.377891e+03,6.303251e+02
1.378855e+03,6.303630e+02
1.379820e+03,6.285425e+02
1.380784e+03,6.254943e+02
1.381748e+03,6.215635e+02
1.382712e+03,6.190682e+02
1.383677e+03,6.197782e+02
1.384641e+03,6.201218e+02
1.385605e+03,6.187637e+02
1.386569e+03,6.163625e+02
1.387534e+03,6.137943e+02
1.388498e+03,6.108414e+02
1.389462e+03,6.097382e+02
1.390426e+03,6.107064e+02
1.391391e+03,6.109451e+02
1.392355e+03,6.085143e+02
1.393319e+03,6.049449e+02
1.394283e+03,6.032177e+02
1.395247e+03,6.024567e+02
1.396212e+03,6.004268e+02
1.397176e+03,5.965283e+02
1.398140e+03,5.937433e+02
1.399104e+03,5.943959e+02
1.400069e+03,5.959329e+02
1.401033e+03,5.972921e+02
1.401997e+03,5.982695e+02
1.402961e+03,5.984587e+02
1.403926e+03,5.968496e+02
1.404890e+03,5.969346e+02
1.405854e+03,5.998577e+02
1.406818e+03,6.022736e+02
1.407782e+03,6.011849e+02
1.408747e+03,5.980880e+02
1.409711e+03,5.983796e+02
1.410675e+03,6.008890e+02
1.411639e+03,6.015068e+02
1.412604e+03,5.988971e+02
1.413568e+03,5.964242e+02
1.414532e+03,5.984379e+02
1.415496e+03,6.008627e+02
1.416461e+03,5.990881e+02
1.417425e+03,5.940219e+02
1.418389e+03,5.905294e+02
1.419353e+03,5.909553e+02
1.420318e+03,5.907739e+02
1.421282e+03,5.894334e+02
1.422246e+03,5.883986e+02
1.423210e+03,5.889756e+02
1.424174e+03,5.909297e+02
1.425139e+03,5.923636e+02
1.426103e+03,5.930357e+02
1.427067e+03,5.919570e+02
1.428031e+03,5.885170e+02
1.428996e+03,5.853139e+02
1.429960e+03,5.847910e+02
1.430924e+03,5.856183e+02
1.431888e+03,5.875032e+02
1.432853e+03,5.897473e+02
1.433817e+03,5.896328e+02
1.434781e+03,5.828407e+02
1.435745e+03,5.794424e+02
1.436709e+03,5.819830e+02
1.437674e+03,5.856163e+02
1.438638e+03,5.862717e+02
1.439602e+03,5.844180e+02
1.440566e+03,5.828209e+02
1.441531e+03,5.814654e+02
1.442495e+03,5.811888e+02
1.443459e+03,5.825574e+02
1.444423e+03,5.833029e+02
1.445388e+03,5.801270e+02
1.446352e+03,5.757211e+02
1.447316e+03,5.726042e+02
1.448280e+03,5.712878e+02
1.449245e+03,5.716693e+02
1.450209e+03,5.747303e+02
1.451173e+03,5.783084e+02
1.452137e+03,5.829150e+02
1.453101e+03,5.860687e+02
1.454066e+03,5.849796e+02
1.455030e+03,5.803887e+02
1.455994e+03,5.779977e+02
1.456958e+03,5.775760e+02
1.457923e+03,5.778073e+02
1.458887e+03,5.782242e+02
1.459851e+03,5.782599e+02
1.460815e+03,5.764609e+02
1.461780e+03,5.746470e+02
1.462744e+03,5.757076e+02
1.463708e+03,5.791604e+02
1.464672e+03,5.799170e+02
1.465636e+03,5.758124e+02
1.466601e+03,5.733396e+02
1.467565e+03,5.735691e+02
1.468529e+03,5.748104e+02
1.469493e+03,5.753691e+02
1.470458e+03,5.753421e+02
1.471422e+03,5.758817e+02
1.472386e+03,5.768751e+02
1.473350e+03,5.773594e+02
1.474315e+03,5.766194e+02
1.475279e+03,5.762561e+02
1.476243e+03,5.782867e+02
1.477207e+03,5.799894e+02
1.478172e+03,5.795334e+02
1.479136e+03,5.772099e+02
1.480100e+03,5.742079e+02
1.481064e+03,5.700490e+02
1.482028e+03,5.675473e+02
1.482993e+03,5.673115e+02
1.483957e+03,5.677803e+02
1.484921e+03,5.674464e+02
1.485885e+03,5.667001e+02
1.486850e+03,5.660174e+02
1.487814e+03,5.653847e+02
1.488778e+03,5.653033e+02
1.489742e+03,5.664074e+02
1.490707e+03,5.664987e+02
1.491671e+03,5.636934e+02
1.492635e+03,5.617180e+02
1.493599e+03,5.620866e+02
1.494563e+03,5.640248e+02
1.495528e+03,5.666622e+02
1.496492e+03,5.697706e+02
1.497456e+03,5.687113e+02
1.498420e+03,5.632571e+02
1.499385e+03,5.578405e+02
1.500349e+03,5.554879e+02
1.501313e+03,5.549934e+02
1.502277e+03,5.557142e+02
1.503242e+03,5.572333e+02
1.504206e+03,5.594609e+02
1.505170e+03,5.633676e+02
1.506134e+03,5.628771e+02
1.507099e+03,5.559306e+02
1.508063e+03,5.504703e+02
1.509027e+03,5.497809e+02
1.509991e+03,5.514191e+02
1.510955e+03,5.514371e+02
1.511920e+03,5.505053e+02
1.512884e+03,5.505988e+02
1.513848e+03,5.518113e+02
1.514812e+03,5.522826e+02
1.515777e+03,5.488796e+02
1.516741e+03,5.465833e+02
1.517705e+03,5.476501e+02
1.518669e+03,5.500526e+02
1.519634e+03,5.527777e+02
1.520598e+03,5.556256e+02
1.521562e+03,5.563479e+02
1.522526e+03,5.548988e+02
1.523490e+03,5.530735e+02
1.524455e+03,5.514493e+02
1.525419e+03,5.501675e+02
1.526383e+03,5.498034e+02
1.527347e+03,5.495621e+02
1.528312e+03,5.487390e+02
1.529276e+03,5.477629e+02
1.530240e+03,5.475951e+02
1.531204e+03,5.480340e+02
1.532169e+03,5.494705e+02
1.533133e+03,5.522238e+02
1.534097e+03,5.547371e+02
1.535061e+03,5.562498e+02
1.536026e+03,5.561939e+02
1.536990e+03,5.523021e+02
1.537954e+03,5.466913e+02
1.538918e+03,5.432440e+02
1.539882e+03,5.428906e+02
1.540847e+03,5.437540e+02
1.541811e+03,5.467582e+02
1.542775e+03,5.486207e+02
1.543739e+03,5.483135e+02
1.544704e+03,5.470509e+02
1.545668e+03,5.468923e+02
1.546632e+03,5.475284e+02
1.547596e+03,5.467715e+02
1.548561e+03,5.448650e+02
1.549525e+03,5.440629e+02
1.550489e+03,5.464843e+02
1.551453e+03,5.486279e+02
1.552417e+03,5.486138e+02
1.553382e+03,5.477797e+02
1.554346e+03,5.471182e+02
1.555310e+03,5.468376e+02
1.556274e+03,5.486103e+02
1.557239e+03,5.522776e+02
1.558203e+03,5.528825e+02
1.559167e+03,5.490699e+02
1.560131e+03,5.449416e+02
1.561096e+03,5.440208e+02
1.562060e+03,5.445341e+02
1.563024e+03,5.450934e+02
1.563988e+03,5.459326e+02
1.564953e+03,5.479579e+02
1.565917e+03,5.525082e+02
1.566881e+03,5.530157e+02
1.567845e+03,5.486707e+02
1.568809e+03,5.449454e+02
1.569774e+03,5.452990e+02
1.570738e+03,5.469698e+02
1.571702e+03,5.458655e+02
1.572666e+03,5.439198e+02
1.573631e+03,5.439275e+02
1.574595e+03,5.463383e+02
1.575559e+03,5.481843e+02
1.576523e+03,5.493115e+02
1.577488e+03,5.497418e+02
1.578452e+03,5.489928e+02
1.579416e+03,5.479849e+02
1.580380e+03,5.482189e+02
1.581344e+03,5.488607e+02
1.582309e+03,5.482111e+02
1.583273e+03,5.467394e+02
1.584237e+03,5.454281e+02
1.585201e+03,5.446105e+02
1.586166e+03,5.439788e+02
1.587130e+03,5.439325e+02
1.588094e+03,5.426092e+02
1.589058e+03,5.386523e+02
1.590023e+03,5.343287e+02
1.590987e+03,5.347136e+02
1.591951e+03,5.381078e+02
1.592915e+03,5.399827e+02
1.593880e+03,5.397708e+02
1.594844e+03,5.395334e+02
1.595808e+03,5.417078e+02
1.596772e+03,5.415811e+02
1.597736e+03,5.366213e+02
1.598701e+03,5.322771e+02
1.599665e+03,5.341015e+02
1.600629e+03,5.401501e+02
1.601593e+03,5.423392e+02
1.602558e+03,5.416865e+02
1.603522e+03,5.413577e+02
1.604486e+03,5.423489e+02
1.605450e+03,5.429139e+02
1.606415e+03,5.408621e+02
1.607379e+03,5.407343e+02
1.608343e+03,5.452845e+02
1.609307e+03,5.511386e+02
1.610271e+03,5.514654e+02
1.611236e+03,5.477249e+02
1.612200e+03,5.477154e+02
1.613164e+03,5.511923e+02
1.614128e+03,5.531290e+02
1.615093e+03,5.489395e+02
1.616057e+03,5.452962e+02
1.617021e+03,5.461121e+02
1.617985e+03,5.458351e+02
1.618950e+03,5.403978e+02
1.619914e+03,5.317272e+02
1.620878e+03,5.274342e+02
1.621842e+03,5.266849e+02
1.622807e+03,5.262112e+02
1.623771e+03,5.254421e+02
1.624735e+03,5.246125e+02
1.625699e+03,5.229008e+02
1.626663e+03,5.219772e+02
1.627628e+03,5.229373e+02
1.628592e+03,5.239083e+02
1.629556e+03,5.226422e+02
1.630520e+03,5.198367e+02
1.631485e+03,5.180600e+02
1.632449e+03,5.171667e+02
1.633413e+03,5.164724e+02
1.634377e+03,5.152927e+02
1.635342e+03,5.155722e+02
1.636306e+03,5.200817e+02
1.637270e+03,5.239637e+02
1.638234e+03,5.249667e+02
1.639198e+03,5.240039e+02
1.640163e+03,5.229279e+02
1.641127e+03,5.216337e+02
1.642091e+03,5.186192e+02
1.643055e+03,5.139669e+02
1.644020e+03,5.110765e+02
1.644984e+03,5.133311e+02
1.645948e+03,5.146564e+02
1.646912e+03,5.135875e+02
1.647877e+03,5.119374e+02
1.648841e+03,5.109492e+02
1.649805e+03,5.107995e+02
1.650769e+03,5.132708e+02
1.651734e+03,5.166296e+02
1.652698e+03,5.159520e+02
1.653662e+03,5.089931e+02
1.654626e+03,5.045366e+02
1.655590e+03,5.067892e+02
1.656555e+03,5.082344e+02
1.657519e+03,5.065539e+02
1.658483e+03,5.047735e+02
1.659447e+03,5.083900e+02
1.660412e+03,5.137014e+02
1.661376e+03,5.131376e+02
1.662340e+03,5.082837e+02
1.663304e+03,5.047687e+02
1.664269e+03,5.037034e+02
1.665233e+03,5.050408e+02
1.666197e+03,5.095714e+02
1.667161e+03,5.132950e+02
1.668125e+03,5.143265e+02
1.669090e+03,5.132100e+02
1.670054e+03,5.093642e+02
1.671018e+03,5.047840e+02
1.671982e+03,5.025248e+02
1.672947e+03,5.027698e+02
1.673911e+03,5.020103e+02
1.674875e+03,4.991413e+02
1.675839e+03,4.983340e+02
1.676804e+03,5.005600e+02
1.677768e+03,5.037427e+02
1.678732e+03,5.072929e+02
1.679696e+03,5.092973e+02
1.680661e+03,5.054294e+02
1.681625e+03,5.000933e+02
1.682589e+03,5.011456e+02
1.683553e+03,5.092733e+02
1.684517e+03,5.095958e+02
1.685482e+03,5.023611e+02
1.686446e+03,4.978675e+02
1.687410e+03,4.996643e+02
1.688374e+03,5.023850e+02
1.689339e+03,5.020901e+02
1.690303e+03,5.012747e+02
1.691267e+03,5.016981e+02
1.692231e+03,5.024511e+02
1.693196e+03,5.015045e+02
1.694160e+03,4.990252e+02
1.695124e+03,4.974559e+02
1.696088e+03,4.968081e+02
1.697052e+03,4.960263e+02
1.698017e+03,4.934940e+02
1.698981e+03,4.920818e+02
1.699945e+03,4.926806e+02
1.700909e+03,4.939326e+02
1.701874e+03,4.960536e+02
1.702838e+03,4.981978e+02
1.703802e+03,4.968707e+02
1.704766e+03,4.938552e+02
1.705731e+03,4.935571e+02
1.706695e+03,4.963482e+02
1.707659e+03,4.976999e+02
1.708623e+03,4.964953e+02
1.709588e+03,4.954693e+02
1.710552e+03,4.946862e+02
1.711516e+03,4.939408e+02
1.712480e+03,4.936613e+02
1.713444e+03,4.929644e+02
1.714409e+03,4.899956e+02
1.715373e+03,4.867306e+02
1.716337e+03,4.859441e+02
1.717301e+03,4.877861e+02
1.718266e+03,4.916259e+02
1.719230e+03,4.972432e+02
1.720194e+03,5.001508e+02
1.721158e+03,4.987495e+02
1.722123e+03,4.972179e+02
1.723087e+03,4.992376e+02
1.724051e+03,5.011830e+02
1.725015e+03,5.014675e+02
1.725979e+03,5.006333e+02
1.726944e+03,4.987207e+02
1.727908e+03,4.961596e+02
1.728872e+03,4.947293e+02
1.729836e+03,4.941755e+02
1.730801e+03,4.939988e+02
1.731765e+03,4.944346e+02
1.732729e+03,4.945961e+02
1.733693e+03,4.944403e+02
1.734658e+03,4.939926e+02
1.735622e+03,4.932183e+02
1.736586e+03,4.920849e+02
1.737550e+03,4.905666e+02
1.738515e+03,4.887035e+02
1.739479e+03,4.865220e+02
1.740443e+03,4.840298e+02
1.741407e+03,4.812202e+02
1.742371e+03,4.779324e+02
1.743336e+03,4.759642e+02
1.744300e+03,4.754419e+02
1.745264e+03,4.760947e+02
1.746228e+03,4.788455e+02
1.747193e+03,4.818723e+02
1.748157e+03,4.857924e+02
1.749121e+03,4.883549e+02
1.750085e+03,4.868313e+02
1.751050e+03,4.823805e+02
1.752014e+03,4.803946e+02
1.752978e+03,4.800655e+02
1.753942e+03,4.791355e+02
1.754906e+03,4.771074e+02
1.755871e+03,4.748288e+02
1.756835e+03,4.716137e+02
1.757799e+03,4.697030e+02
1.758763e+03,4.701618e+02
1.759728e+03,4.710901e+02
1.760692e+03,4.703063e+02
1.761656e+03,4.692928e+02
1.762620e+03,4.694716e+02
1.763585e+03,4.700747e+02
1.764549e+03,4.698960e+02
1.765513e+03,4.687596e+02
1.766477e+03,4.682603e+02
1.767442e+03,4.683507e+02
1.768406e+03,4.680241e+02
1.769370e+03,4.670261e+02
1.770334e+03,4.655114e+02
1.771298e+03,4.605162e+02
1.772263e+03,4.594409e+02
1.773227e+03,4.659550e+02
1.774191e+03,4.736806e+02
1.775155e+03,4.725850e+02
1.776120e+03,4.679621e+02
1.777084e+03,4.685151e+02
1.778048e+03,4.723735e+02
1.779012e+03,4.732588e+02
1.779977e+03,4.701748e+02
1.780941e+03,4.675940e+02
1.781905e+03,4.653068e+02
1.782869e+03,4.634585e+02
1.783833e+03,4.619244e+02
1.784798e+03,4.616294e+02
1.785762e+03,4.644663e+02
1.786726e+03,4.671055e+02
1.787690e+03,4.683956e+02
1.788655e+03,4.680954e+02
1.789619e+03,4.637088e+02
1.790583e+03,4.581100e+02
1.791547e+03,4.577343e+02
1.792512e+03,4.619484e+02
1.793476e+03,4.652329e+02
1.794440e+03,4.665508e+02
1.795404e+03,4.674814e+02
1.796369e+03,4.679811e+02
1.797333e+03,4.665253e+02
1.798297e+03,4.602986e+02
1.799261e+03,4.555630e+02
1.800225e+03,4.594586e+02
1.801190e+03,4.629648e+02
1.802154e+03,4.593127e+02
1.803118e+03,4.522437e+02
1.804082e+03,4.528073e+02
1.805047e+03,4.578217e+02
1.806011e+03,4.593608e+02
1.806975e+03,4.569159e+02
1.807939e+03,4.563728e+02
1.808904e+03,4.589363e+02
1.809868e+03,4.614467e+02
1.810832e+03,4.638560e+02
1.811796e+03,4.642290e+02
1.812760e+03,4.588960e+02
1.813725e+03,4.535344e+02
1.814689e+03,4.522311e+02
1.815653e+03,4.520918e+02
1.816617e+03,4.503747e+02
1.817582e+03,4.485121e+02
1.818546e+03,4.529990e+02
1.819510e+03,4.602327e+02
1.820474e+03,4.617464e+02
1.821439e+03,4.562768e+02
1.822403e+03,4.525734e+02
1.823367e+03,4.516006e+02
1.824331e+03,4.512486e+02
1.825296e+03,4.511075e+02
1.826260e+03,4.504817e+02
1.827224e+03,4.489373e+02
1.828188e+03,4.473807e+02
1.829152e+03,4.448266e+02
1.830117e+03,4.436285e+02
1.831081e+03,4.466826e+02
1.832045e+03,4.519674e+02
1.833009e+03,4.548815e+02
1.833974e+03,4.558578e+02
1.834938e+03,4.544567e+02
1.835902e+03,4.500397e+02
1.836866e+03,4.467533e+02
1.837831e+03,4.445464e+02
1.838795e+03,4.439507e+02
1.839759e+03,4.453329e+02
1.840723e+03,4.471620e+02
1.841688e+03,4.499762e+02
1.842652e+03,4.498841e+02
1.843616e+03,4.436153e+02
1.844580e+03,4.377881e+02
1.845544e+03,4.420394e+02
1.846509e+03,4.498573e+02
1.847473e+03,4.478272e+02
1.848437e+03,4.411326e+02
1.849401e+03,4.405254e+02
1.850366e+03,4.464503e+02
1.851330e+03,4.454317e+02
1.852294e+03,4.385039e+02
1.853258e+03,4.332573e+02
1.854223e+03,4.315587e+02
1.855187e+03,4.321086e+02
1.856151e+03,4.356166e+02
1.857115e+03,4.393091e+02
1.858079e+03,4.429850e+02
1.859044e+03,4.451017e+02
1.860008e+03,4.428019e+02
1.860972e+03,4.397260e+02
1.861936e+03,4.402272e+02
1.862901e+03,4.417080e+02
1.863865e+03,4.396848e+02
1.864829e+03,4.345975e+02
1.865793e+03,4.328353e+02
1.866758e+03,4.334904e+02
1.867722e+03,4.331004e+02
1.868686e+03,4.301200e+02
1.869650e+03,4.303101e+02
1.870615e+03,4.347009e+02
1.871579e+03,4.371750e+02
1.872543e+03,4.363138e+02
1.873507e+03,4.342818e+02
1.874471e+03,4.302471e+02
1.875436e+03,4.281556e+02
1.876400e+03,4.313166e+02
1.877364e+03,4.351030e+02
1.878328e+03,4.336779e+02
1.879293e+03,4.294539e+02
1.880257e+03,4.255585e+02
1.881221e+03,4.228750e+02
1.882185e+03,4.242355e+02
1.883150e+03,4.298265e+02
1.884114e+03,4.318557e+02
1.885078e+03,4.304985e+02
1.886042e+03,4.271923e+02
1.887006e+03,4.217640e+02
1.887971e+03,4.188861e+02
1.888935e+03,4.214884e+02
1.889899e+03,4.238374e+02
1.890863e+03,4.244745e+02
1.891828e+03,4.241227e+02
1.892792e+03,4.233861e+02
1.893756e+03,4.225197e+02
1.894720e+03,4.221628e+02
1.895685e+03,4.220984e+02
1.896649e+03,4.212025e+02
1.897613e+03,4.200162e+02
1.898577e+03,4.218387e+02
1.899542e+03,4.251293e+02
1.900506e+03,4.261177e+02
1.901470e+03,4.239055e+02
1.902434e+03,4.230567e+02
1.903398e+03,4.235206e+02
1.904363e+03,4.235813e+02
1.905327e+03,4.228204e+02
1.906291e+03,4.221651e+02
1.907255e+03,4.222958e+02
1.908220e+03,4.215466e+02
1.909184e+03,4.194552e+02
1.910148e+03,4.171421e+02
1.911112e+03,4.158757e+02
1.912077e+03,4.151223e+02
1.913041e+03,4.139823e+02
1.914005e+03,4.135063e+02
1.914969e+03,4.153989e+02
1.915933e+03,4.185510e+02
1.916898e+03,4.194711e+02
1.917862e+03,4.183983e+02
1.918826e+03,4.144704e+02
1.919790e+03,4.075643e+02
1.920755e+03,4.075742e+02
1.921719e+03,4.138446e+02
1.922683e+03,4.161505e+02
1.923647e+03,4.124479e+02
1.924612e+03,4.095844e+02
1.925576e+03,4.118862e+02
1.926540e+03,4.130397e+02
1.927504e+03,4.115760e+02
1.928469e+03,4.107697e+02
1.929433e+03,4.165995e+02
1.930397e+03,4.204804e+02
1.931361e+03,4.118940e+02
1.932325e+03,4.028344e+02
1.933290e+03,4.038422e+02
1.934254e+03,4.107230e+02
1.935218e+03,4.131108e+02
1.936182e+03,4.126490e+02
1.937147e+03,4.121802e+02
1.938111e+03,4.122296e+02
1.939075e+03,4.138948e+02
1.940039e+03,4.168732e+02
1.941004e+03,4.175320e+02
1.941968e+03,4.152099e+02
1.942932e+03,4.131750e+02
1.943896e+03,4.122075e+02
1.944860e+03,4.130161e+02
1.945825e+03,4.160470e+02
1.946789e+03,4.169458e+02
1.947753e+03,4.093046e+02
1.948717e+03,4.031940e+02
1.949682e+03,4.035771e+02
1.950646e+03,4.045619e+02
1.951610e+03,4.021193e+02
1.952574e+03,3.994301e+02
1.953539e+03,4.033907e+02
1.954503e+03,4.075114e+02
1.955467e+03,4.035500e+02
1.956431e+03,3.957341e+02
1.957396e+03,3.956896e+02
1.958360e+03,4.004940e+02
1.959324e+03,4.040099e+02
1.960288e+03,4.056339e+02
1.961252e+03,4.049539e+02
1.962217e+03,4.014586e+02
1.963181e+03,4.016559e+02
1.964145e+03,4.052411e+02
1.965109e+03,4.071835e+02
1.966074e+03,4.036628e+02
1.967038e+03,4.016473e+02
1.968002e+03,4.014568e+02
1.968966e+03,4.011275e+02
1.969931e+03,3.993188e+02
1.970895e+03,3.985453e+02
1.971859e+03,4.032636e+02
1.972823e+03,4.070499e+02
1.973787e+03,4.070434e+02
1.974752e+03,4.043482e+02
1.975716e+03,3.981555e+02
1.976680e+03,3.924312e+02
1.977644e+03,3.929214e+02
1.978609e+03,3.968813e+02
1.979573e+03,4.005123e+02
1.980537e+03,4.029724e+02
1.981501e+03,4.006826e+02
1.982466e+03,3.952213e+02
1.983430e+03,3.908763e+02
1.984394e+03,3.879316e+02
1.985358e+03,3.868211e+02
1.986323e+03,3.873248e+02
1.987287e+03,3.886847e+02
1.988251e+03,3.909882e+02
1.989215e+03,3.918184e+02
1.990179e+03,3.908260e+02
1.991144e+03,3.899414e+02
1.992108e+03,3.898195e+02
1.993072e+03,3.892934e+02
1.994036e+03,3.858659e+02
1.995001e+03,3.842726e+02
1.995965e+03,3.861684e+02
1.996929e+03,3.886533e+02
1.997893e+03,3.884767e+02
1.998858e+03,3.875980e+02
1.999822e+03,3.876955e+02
2.000786e+03,3.880708e+02
2.001750e+03,3.883867e+02
2.002714e+03,3.890074e+02
2.003679e+03,3.913192e+02
2.004643e+03,3.931254e+02
2.005607e+03,3.894048e+02
2.006571e+03,3.825914e+02
2.007536e+03,3.836587e+02
2.008500e+03,3.897484e+02
2.009464e+03,3.910229e+02
2.010428e+03,3.870610e+02
2.011393e+03,3.870211e+02
2.012357e+03,3.918659e+02
2.013321e+03,3.924853e+02
2.014285e+03,3.882357e+02
2.015250e+03,3.836267e+02
2.016214e+03,3.793714e+02
2.017178e+03,3.781406e+02
2.018142e+03,3.803548e+02
2.019106e+03,3.828373e+02
2.020071e+03,3.840625e+02
2.021035e+03,3.847819e+02
2.021999e+03,3.859267e+02
2.022963e+03,3.851026e+02
2.023928e+03,3.810529e+02
2.024892e+03,3.763361e+02
2.025856e+03,3.724781e+02
2.026820e+03,3.708131e+02
2.027785e+03,3.726945e+02
2.028749e+03,3.754591e+02
2.029713e+03,3.750717e+02
2.030677e+03,3.738619e+02
2.031641e+03,3.756808e+02
2.032606e+03,3.782910e+02
2.033570e+03,3.774213e+02
2.034534e+03,3.740615e+02
2.035498e+03,3.724700e+02
2.036463e+03,3.723876e+02
2.037427e+03,3.736815e+02
2.038391e+03,3.762899e+02
2.039355e+03,3.755711e+02
2.040320e+03,3.724218e+02
2.041284e+03,3.701984e+02
2.042248e+03,3.695249e+02
2.043212e+03,3.699672e+02
2.044177e+03,3.715983e+02
2.045141e+03,3.738235e+02
2.046105e+03,3.764210e+02
2.047069e+03,3.776992e+02
2.048033e+03,3.750419e+02
2.048998e+03,3.741158e+02
2.049962e+03,3.756168e+02
2.050926e+03,3.771035e+02
2.051890e+03,3.764915e+02
2.052854e+03,3.763066e+02
2.053819e+03,3.774999e+02
2.054783e+03,3.780130e+02
2.055747e+03,3.772260e+02
2.056711e+03,3.752471e+02
2.057676e+03,3.712540e+02
2.058640e+03,3.669443e+02
2.059604e+03,3.626959e+02
2.060568e+03,3.589789e+02
2.061533e+03,3.562075e+02
2.062497e+03,3.550880e+02
2.063461e+03,3.569352e+02
2.064425e+03,3.603509e+02
2.065390e+03,3.649169e+02
2.066354e+03,3.688896e+02
2.067318e+03,3.684984e+02
2.068282e+03,3.653781e+02
2.069247e+03,3.625907e+02
2.070211e+03,3.603529e+02
2.071175e+03,3.614539e+02
2.072139e+03,3.643893e+02
2.073104e+03,3.650130e+02
2.074068e+03,3.631270e+02
2.075032e+03,3.644683e+02
2.075996e+03,3.677871e+02
2.076960e+03,3.676517e+02
2.077925e+03,3.630513e+02
2.078889e+03,3.612243e+02
2.079853e+03,3.627143e+02
2.080817e+03,3.619042e+02
2.081782e+03,3.582779e+02
2.082746e+03,3.555538e+02
2.083710e+03,3.558973e+02
2.084674e+03,3.553019e+02
2.085639e+03,3.537643e+02
2.086603e+03,3.539583e+02
2.087567e+03,3.592231e+02
2.088531e+03,3.607174e+02
2.089496e+03,3.562873e+02
2.090460e+03,3.537974e+02
2.091424e+03,3.588885e+02
2.092388e+03,3.620513e+02
2.093353e+03,3.540791e+02
2.094317e+03,3.479862e+02
2.095281e+03,3.472022e+02
2.096245e+03,3.492949e+02
2.097209e+03,3.554193e+02
2.098174e+03,3.585104e+02
2.099138e+03,3.552328e+02
2.100102e+03,3.503880e+02
2.101066e+03,3.488588e+02
2.102031e+03,3.484190e+02
2.102995e+03,3.469488e+02
2.103959e+03,3.458017e+02
2.104923e+03,3.468182e+02
2.105887e+03,3.484520e+02
2.106852e+03,3.461945e+02
2.107816e+03,3.439176e+02
2.108780e+03,3.468703e+02
2.109744e+03,3.519069e+02
2.110708e+03,3.518564e+02
2.111673e+03,3.487615e+02
2.112637e+03,3.435224e+02
2.113601e+03,3.379477e+02
2.114565e+03,3.366099e+02
2.115530e+03,3.383086e+02
2.116494e+03,3.411952e+02
2.117458e+03,3.449505e+02
2.118422e+03,3.480231e+02
2.119387e+03,3.499410e+02
2.120351e+03,3.490128e+02
2.121315e+03,3.460135e+02
2.122279e+03,3.443839e+02
2.123244e+03,3.442889e+02
2.124208e+03,3.448255e+02
2.125172e+03,3.457491e+02
2.126136e+03,3.454988e+02
2.127101e+03,3.435851e+02
2.128065e+03,3.434792e+02
2.129029e+03,3.448238e+02
2.129993e+03,3.453122e+02
2.130958e+03,3.441711e+02
2.131922e+03,3.443531e+02
2.132886e+03,3.464475e+02
2.133850e+03,3.451820e+02
2.134814e+03,3.405732e+02
2.135779e+03,3.374155e+02
2.136743e+03,3.374155e+02
2.137707e+03,3.370877e+02
2.138671e+03,3.365162e+02
2.139636e+03,3.383683e+02
2.140600e+03,3.481396e+02
2.141564e+03,3.497050e+02
2.142528e+03,3.418362e+02
2.143493e+03,3.349175e+02
2.144457e+03,3.329377e+02
2.145421e+03,3.317676e+02
2.146385e+03,3.301230e+02
2.147350e+03,3.302208e+02
2.148314e+03,3.331440e+02
2.149278e+03,3.357266e+02
2.150242e+03,3.356855e+02
2.151207e+03,3.336801e+02
2.152171e+03,3.293108e+02
2.153135e+03,3.262836e+02
2.154099e+03,3.289272e+02
2.155063e+03,3.326430e+02
2.156028e+03,3.371256e+02
2.156992e+03,3.385910e+02
2.157956e+03,3.298414e+02
2.158920e+03,3.241393e+02
2.159885e+03,3.289369e+02
2.160849e+03,3.344487e+02
2.161813e+03,3.364800e+02
2.162777e+03,3.365302e+02
2.163741e+03,3.359207e+02
2.164706e+03,3.329338e+02
2.165670e+03,3.260558e+02
2.166634e+03,3.213429e+02
2.167598e+03,3.294536e+02
2.168563e+03,3.348693e+02
2.169527e+03,3.294159e+02
2.170491e+03,3.223499e+02
2.171455e+03,3.247833e+02
2.172420e+03,3.285984e+02
2.173384e+03,3.286678e+02
2.174348e+03,3.275810e+02
2.175312e+03,3.268637e+02
2.176277e+03,3.262739e+02
2.177241e+03,3.251245e+02
2.178205e+03,3.249135e+02
2.179169e+03,3.271966e+02
2.180134e+03,3.303551e+02
2.181098e+03,3.320739e+02
2.182062e+03,3.332780e+02
2.183026e+03,3.344583e+02
2.183990e+03,3.352811e+02
2.184955e+03,3.357608e+02
2.185919e+03,3.350604e+02
2.186883e+03,3.317572e+02
2.187847e+03,3.280164e+02
2.188812e+03,3.268413e+02
2.189776e+03,3.267568e+02
2.190740e+03,3.267977e+02
2.191704e+03,3.259587e+02
2.192668e+03,3.225355e+02
2.193633e+03,3.187351e+02
2.194597e+03,3.178383e+02
2.195561e+03,3.182342e+02
2.196525e+03,3.184851e+02
2.197490e+03,3.184016e+02
2.198454e+03,3.174033e+02
2.199418e+03,3.161475e+02
2.200382e+03,3.150191e+02
2.201347e+03,3.148058e+02
2.202311e+03,3.172479e+02
2.203275e+03,3.203978e+02
2.204239e+03,3.223630e+02
2.205204e+03,3.229387e+02
2.206168e+03,3.219857e+02
2.207132e+03,3.202577e+02
2.208096e+03,3.172021e+02
2.209061e+03,3.148144e+02
2.210025e+03,3.172300e+02
2.210989e+03,3.204147e+02
2.211953e+03,3.167608e+02
2.212917e+03,3.120650e+02
2.213882e+03,3.110430e+02
2.214846e+03,3.123087e+02
2.215810e+03,3.153167e+02
2.216774e+03,3.175589e+02
2.217739e+03,3.172816e+02
2.218703e+03,3.158656e+02
2.219667e+03,3.153155e+02
2.220631e+03,3.150958e+02
2.221595e+03,3.147803e+02
2.222560e+03,3.139140e+02
2.223524e+03,3.105031e+02
2.224488e+03,3.075862e+02
2.225452e+03,3.107657e+02
2.226417e+03,3.146803e+02
2.227381e+03,3.132279e+02
2.228345e+03,3.101421e+02
2.229309e+03,3.099144e+02
2.230274e+03,3.105138e+02
2.231238e+03,3.106998e+02
2.232202e+03,3.099976e+02
2.233166e+03,3.064886e+02
2.234131e+03,3.039321e+02
2.235095e+03,3.052785e+02
2.236059e+03,3.080770e+02
2.237023e+03,3.087869e+02
2.237988e+03,3.087789e+02
2.238952e+03,3.088943e+02
2.239916e+03,3.090371e+02
2.240880e+03,3.102282e+02
2.241844e+03,3.104680e+02
2.242809e+03,3.076195e+02
2.243773e+03,3.046172e+02
2.244737e+03,3.043856e+02
2.245701e+03,3.049303e+02
2.246666e+03,3.050571e+02
2.247630e+03,3.043895e+02
2.248594e+03,3.026276e+02
2.249558e+03,3.008096e+02
2.250522e+03,2.998039e+02
2.251487e+03,2.988330e+02
2.252451e+03,2.969601e+02
2.253415e+03,2.952508e+02
2.254379e+03,2.944845e+02
2.255344e+03,2.966425e+02
2.256308e+03,3.037684e+02
2.257272e+03,3.086201e+02
2.258236e+03,2.992341e+02
2.259201e+03,2.933267e+02
2.260165e+03,2.970111e+02
2.261129e+03,3.028504e+02
2.262093e+03,3.050892e+02
2.263058e+03,3.068400e+02
2.264022e+03,3.097487e+02
2.264986e+03,3.109369e+02
2.265950e+03,3.071830e+02
2.266915e+03,3.027617e+02
2.267879e+03,2.984027e+02
2.268843e+03,2.952876e+02
2.269807e+03,2.945630e+02
2.270771e+03,2.947768e+02
2.271736e+03,2.959919e+02
2.272700e+03,2.956928e+02
2.273664e+03,2.925117e+02
2.274628e+03,2.903805e+02
2.275593e+03,2.911798e+02
2.276557e+03,2.929183e+02
2.277521e+03,2.956066e+02
2.278485e+03,2.972062e+02
2.279449e+03,2.953463e+02
2.280414e+03,2.966223e+02
2.281378e+03,3.011821e+02
2.282342e+03,3.031152e+02
2.283306e+03,2.971557e+02
2.284271e+03,2.916381e+02
2.285235e+03,2.867849e+02
2.286199e+03,2.865160e+02
2.287163e+03,2.948935e+02
2.288128e+03,2.974104e+02
2.289092e+03,2.941738e+02
2.290056e+03,2.899688e+02
2.291020e+03,2.859657e+02
2.291985e+03,2.873337e+02
2.292949e+03,2.931638e+02
2.293913e+03,2.920050e+02
2.294877e+03,2.839604e+02
2.295842e+03,2.856351e+02
2.296806e+03,2.954653e+02
2.297770e+03,2.978720e+02
2.298734e+03,2.936068e+02
2.299698e+03,2.901712e+02
2.300663e+03,2.881283e+02
2.301627e+03,2.886400e+02
2.302591e+03,2.897798e+02
2.303555e+03,2.862964e+02
2.304520e+03,2.801387e+02
2.305484e+03,2.815378e+02
2.306448e+03,2.862646e+02
2.307412e+03,2.866589e+02
2.308376e+03,2.843354e+02
2.309341e+03,2.838417e+02
2.310305e+03,2.843185e+02
2.311269e+03,2.854358e+02
2.312233e+03,2.861442e+02
2.313198e+03,2.827449e+02
2.314162e+03,2.793551e+02
2.315126e+03,2.812829e+02
2.316090e+03,2.849462e+02
2.317055e+03,2.877292e+02
2.318019e+03,2.893075e+02
2.318983e+03,2.887264e+02
2.319947e+03,2.873122e+02
2.320912e+03,2.857633e+02
2.321876e+03,2.846238e+02
2.322840e+03,2.848233e+02
2.323804e+03,2.840613e+02
2.324769e+03,2.804685e+02
2.325733e+03,2.783684e+02
2.326697e+03,2.821242e+02
2.327661e+03,2.847571e+02
2.328625e+03,2.839513e+02
2.329590e+03,2.825622e+02
2.330554e+03,2.827627e+02
2.331518e+03,2.820169e+02
2.332482e+03,2.798144e+02
2.333447e+03,2.791628e+02
2.334411e+03,2.828450e+02
2.335375e+03,2.842283e+02
2.336339e+03,2.830460e+02
2.337303e+03,2.822928e+02
2.338268e+03,2.835911e+02
2.339232e+03,2.830833e+02
2.340196e+03,2.810100e+02
2.341160e+03,2.779688e+02
2.342125e+03,2.736993e+02
2.343089e+03,2.754109e+02
2.344053e+03,2.809366e+02
2.345017e+03,2.832255e+02
2.345982e+03,2.817589e+02
2.346946e+03,2.805274e+02
2.347910e+03,2.799087e+02
2.348874e+03,2.808976e+02
2.349839e+03,2.823064e+02
2.350803e+03,2.815186e+02
2.351767e+03,2.791956e+02
2.352731e+03,2.748844e+02
2.353696e+03,2.712936e+02
2.354660e+03,2.736619e+02
2.355624e+03,2.775157e+02
2.356588e+03,2.745629e+02
2.357552e+03,2.714561e+02
2.358517e+03,2.750573e+02
2.359481e+03,2.803463e+02
2.360445e+03,2.828753e+02
2.361409e+03,2.813772e+02
2.362374e+03,2.731941e+02
2.363338e+03,2.663650e+02
2.364302e+03,2.718013e+02
2.365266e+03,2.757052e+02
2.366230e+03,2.738821e+02
2.367195e+03,2.708962e+02
2.368159e+03,2.679707e+02
2.369123e+03,2.686574e+02
2.370087e+03,2.738817e+02
2.371052e+03,2.781267e+02
2.372016e+03,2.790511e+02
2.372980e+03,2.775940e+02
2.373944e+03,2.739660e+02
2.374909e+03,2.713967e+02
2.375873e+03,2.709119e+02
2.376837e+03,2.722921e+02
2.377801e+03,2.748408e+02
2.378766e+03,2.746337e+02
2.379730e+03,2.714315e+02
2.380694e+03,2.703173e+02
2.381658e+03,2.705045e+02
2.382623e+03,2.688890e+02
2.383587e+03,2.663879e+02
2.384551e+03,2.676393e+02
2.385515e+03,2.697759e+02
2.386479e+03,2.673888e+02
2.387444e+03,2.636095e+02
2.388408e+03,2.623755e+02
2.389372e+03,2.634133e+02
2.390336e+03,2.674848e+02
2.391301e+03,2.712306e+02
2.392265e+03,2.712271e+02
2.393229e+03,2.694941e+02
2.394193e+03,2.664587e+02
2.395157e+03,2.652397e+02
2.396122e+03,2.700946e+02
2.397086e+03,2.721017e+02
2.398050e+03,2.682877e+02
2.399014e+03,2.634624e+02
2.399979e+03,2.581480e+02
2.400943e+03,2.588994e+02
2.401907e+03,2.666232e+02
2.402871e+03,2.685457e+02
2.403836e+03,2.618889e+02
2.404800e+03,2.592086e+02
2.405764e+03,2.612472e+02
2.406728e+03,2.642355e+02
2.407693e+03,2.675157e+02
2.408657e+03,2.718543e+02
2.409621e+03,2.761146e+02
2.410585e+03,2.720511e+02
2.411550e+03,2.634396e+02
2.412514e+03,2.602399e+02
2.413478e+03,2.605363e+02
2.414442e+03,2.595082e+02
2.415406e+03,2.587250e+02
2.416371e+03,2.601594e+02
2.417335e+03,2.620965e+02
2.418299e+03,2.612996e+02
2.419263e+03,2.610568e+02
2.420228e+03,2.634745e+02
2.421192e+03,2.656853e+02
2.422156e+03,2.646628e+02
2.423120e+03,2.634974e+02
2.424084e+03,2.625901e+02
2.425049e+03,2.620396e+02
2.426013e+03,2.628995e+02
2.426977e+03,2.617583e+02
2.427941e+03,2.586046e+02
2.428906e+03,2.566633e+02
2.429870e+03,2.568146e+02
2.430834e+03,2.564771e+02
2.431798e+03,2.555951e+02
2.432763e+03,2.531121e+02
2.433727e+03,2.494410e+02
2.434691e+03,2.523440e+02
2.435655e+03,2.584627e+02
2.436620e+03,2.611979e+02
2.437584e+03,2.610515e+02
2.438548e+03,2.583743e+02
2.439512e+03,2.555119e+02
2.440477e+03,2.545874e+02
2.441441e+03,2.547507e+02
2.442405e+03,2.559448e+02
2.443369e+03,2.570769e+02
2.444333e+03,2.579625e+02
2.445298e+03,2.577832e+02
2.446262e+03,2.545205e+02
2.447226e+03,2.519431e+02
2.448190e+03,2.507954e+02
2.449155e+03,2.511962e+02
2.450119e+03,2.545756e+02
2.451083e+03,2.574778e+02
2.452047e+03,2.596718e+02
2.453011e+03,2.602042e+02
2.453976e+03,2.589489e+02
2.454940e+03,2.550277e+02
2.455904e+03,2.502602e+02
2.456868e+03,2.505508e+02
2.457833e+03,2.540427e+02
2.458797e+03,2.549258e+02
2.459761e+03,2.546583e+02
2.460725e+03,2.553389e+02
2.461690e+03,2.557159e+02
2.462654e+03,2.536250e+02
2.463618e+03,2.502417e+02
2.464582e+03,2.457435e+02
2.465547e+03,2.437213e+02
2.466511e+03,2.509074e+02
2.467475e+03,2.534973e+02
2.468439e+03,2.481687e+02
2.469404e+03,2.444173e+02
2.470368e+03,2.510234e+02
2.471332e+03,2.523895e+02
2.472296e+03,2.485293e+02
2.473260e+03,2.459623e+02
2.474225e+03,2.464668e+02
2.475189e+03,2.470595e+02
2.476153e+03,2.478175e+02
2.477117e+03,2.476643e+02
2.478082e+03,2.475815e+02
2.479046e+03,2.534849e+02
2.480010e+03,2.594129e+02
2.480974e+03,2.564214e+02
2.481938e+03,2.504917e+02
2.482903e+03,2.482666e+02
2.483867e+03,2.481503e+02
2.484831e+03,2.493178e+02
2.485795e+03,2.499143e+02
2.486760e+03,2.477099e+02
2.487724e+03,2.467336e+02
2.488688e+03,2.477501e+02
2.489652e+03,2.480770e+02
2.490617e+03,2.454919e+02
2.491581e+03,2.441882e+02
2.492545e+03,2.439702e+02
2.493509e+03,2.419369e+02
2.494474e+03,2.381213e+02
2.495438e+03,2.417505e+02
2.496402e+03,2.490100e+02
2.497366e+03,2.517545e+02
2.498331e+03,2.512269e+02
2.499295e+03,2.481757e+02
2.500259e+03,2.456751e+02
2.501223e+03,2.469818e+02
2.502188e+03,2.488958e+02
2.503152e+03,2.472571e+02
2.504116e+03,2.470035e+02
2.505080e+03,2.498403e+02
2.506044e+03,2.511969e+02
2.507009e+03,2.456126e+02
2.507973e+03,2.434264e+02
2.508937e+03,2.449245e+02
2.509901e+03,2.470792e+02
2.510865e+03,2.491950e+02
2.511830e+03,2.492239e+02
2.512794e+03,2.473004e+02
2.513758e+03,2.429098e+02
2.514722e+03,2.386659e+02
2.515687e+03,2.436299e+02
2.516651e+03,2.501350e+02
2.517615e+03,2.501514e+02
2.518579e+03,2.472078e+02
2.519544e+03,2.441014e+02
2.520508e+03,2.423957e+02
2.521472e+03,2.427229e+02
2.522436e+03,2.434412e+02
2.523401e+03,2.437930e+02
2.524365e+03,2.436100e+02
2.525329e+03,2.426978e+02
2.526293e+03,2.415110e+02
2.527258e+03,2.402541e+02
2.528222e+03,2.412979e+02
2.529186e+03,2.431316e+02
2.530150e+03,2.401208e+02
2.531115e+03,2.349673e+02
2.532079e+03,2.375493e+02
2.533043e+03,2.428832e+02
2.534007e+03,2.460746e+02
2.534971e+03,2.460701e+02
2.535936e+03,2.380543e+02
2.536900e+03,2.332979e+02
2.537864e+03,2.362283e+02
2.538828e+03,2.388984e+02
2.539792e+03,2.360742e+02
2.540757e+03,2.368280e+02
2.541721e+03,2.419619e+02
2.542685e+03,2.442137e+02
2.543649e+03,2.433881e+02
2.544614e+03,2.472195e+02
2.545578e+03,2.523917e+02
2.546542e+03,2.482433e+02
2.547506e+03,2.396497e+02
2.548471e+03,2.378552e+02
2.549435e+03,2.396393e+02
2.550399e+03,2.435505e+02
2.551363e+03,2.457417e+02
2.552328e+03,2.407637e+02
2.553292e+03,2.407354e+02
2.554256e+03,2.524553e+02
2.555220e+03,2.541924e+02
2.556185e+03,2.423542e+02
2.557149e+03,2.370987e+02
2.558113e+03,2.416887e+02
2.559077e+03,2.427697e+02
2.560042e+03,2.411645e+02
2.561006e+03,2.427666e+02
2.561970e+03,2.463731e+02
2.562934e+03,2.493987e+02
2.563898e+03,2.499246e+02
2.564863e+03,2.438648e+02
2.565827e+03,2.375187e+02
2.566791e+03,2.355235e+02
2.567755e+03,2.360686e+02
2.568719e+03,2.380884e+02
2.569684e+03,2.401741e+02
2.570648e+03,2.424405e+02
2.571612e+03,2.399829e+02
2.572576e+03,2.345609e+02
2.573541e+03,2.360173e+02
2.574505e+03,2.432204e+02
2.575469e+03,2.465088e+02
2.576433e+03,2.461153e+02
2.577398e+03,2.416712e+02
2.578362e+03,2.367243e+02
2.579326e+03,2.374539e+02
2.580290e+03,2.357525e+02
2.581255e+03,2.274657e+02
2.582219e+03,2.219928e+02
2.583183e+03,2.306789e+02
2.584147e+03,2.322697e+02
2.585112e+03,2.268578e+02
2.586076e+03,2.267312e+02
2.587040e+03,2.337169e+02
2.588004e+03,2.367587e+02
2.588969e+03,2.364097e+02
2.589933e+03,2.347295e+02
2.590897e+03,2.320415e+02
2.591861e+03,2.269599e+02
2.592825e+03,2.234911e+02
2.593790e+03,2.245738e+02
2.594754e+03,2.253787e+02
2.595718e+03,2.212472e+02
2.596682e+03,2.217599e+02
2.597646e+03,2.290345e+02
2.598611e+03,2.343887e+02
2.599575e+03,2.369234e+02
2.600539e+03,2.353225e+02
2.601503e+03,2.306657e+02
2.602468e+03,2.284819e+02
2.603432e+03,2.279932e+02
2.604396e+03,2.295330e+02
2.605360e+03,2.301798e+02
2.606325e+03,2.250186e+02
2.607289e+03,2.213454e+02
2.608253e+03,2.223866e+02
2.609217e+03,2.248657e+02
2.610182e+03,2.277785e+02
2.611146e+03,2.293674e+02
2.612110e+03,2.296684e+02
2.613074e+03,2.282654e+02
2.614039e+03,2.258125e+02
2.615003e+03,2.261678e+02
2.615967e+03,2.267444e+02
2.616931e+03,2.231066e+02
2.617896e+03,2.199737e+02
2.618860e+03,2.260248e+02
2.619824e+03,2.302849e+02
2.620788e+03,2.285385e+02
2.621752e+03,2.258458e+02
2.622717e+03,2.244164e+02
2.623681e+03,2.257107e+02
2.624645e+03,2.290733e+02
2.625609e+03,2.288205e+02
2.626573e+03,2.257440e+02
2.627538e+03,2.298609e+02
2.628502e+03,2.346915e+02
2.629466e+03,2.290108e+02
2.630430e+03,2.214187e+02
2.631395e+03,2.247364e+02
2.632359e+03,2.279068e+02
2.633323e+03,2.270383e+02
2.634287e+03,2.259820e+02
2.635252e+03,2.258470e+02
2.636216e+03,2.250278e+02
2.637180e+03,2.230484e+02
2.638144e+03,2.199759e+02
2.639109e+03,2.172896e+02
2.640073e+03,2.215379e+02
2.641037e+03,2.274990e+02
2.642001e+03,2.266235e+02
2.642966e+03,2.246741e+02
2.643930e+03,2.247783e+02
2.644894e+03,2.264436e+02
2.645858e+03,2.325547e+02
2.646823e+03,2.314580e+02
2.647787e+03,2.236070e+02
2.648751e+03,2.210280e+02
2.649715e+03,2.244229e+02
2.650679e+03,2.209509e+02
2.651644e+03,2.160580e+02
2.652608e+03,2.190353e+02
2.653572e+03,2.234789e+02
2.654536e+03,2.169453e+02
2.655500e+03,2.145872e+02
2.656465e+03,2.228645e+02
2.657429e+03,2.297339e+02
2.658393e+03,2.311600e+02
2.659357e+03,2.294674e+02
2.660322e+03,2.252968e+02
2.661286e+03,2.195602e+02
2.662250e+03,2.139263e+02
2.663214e+03,2.141623e+02
2.664179e+03,2.163645e+02
2.665143e+03,2.162289e+02
2.666107e+03,2.153896e+02
2.667071e+03,2.146305e+02
2.668036e+03,2.145568e+02
2.669000e+03,2.154157e+02
2.669964e+03,2.167626e+02
2.670928e+03,2.184065e+02
2.671893e+03,2.195157e+02
2.672857e+03,2.206153e+02
2.673821e+03,2.259212e+02
2.674785e+03,2.295741e+02
2.675750e+03,2.252489e+02
2.676714e+03,2.189171e+02
2.677678e+03,2.155891e+02
2.678642e+03,2.155118e+02
2.679606e+03,2.190763e+02
2.680571e+03,2.200827e+02
2.681535e+03,2.176353e+02
2.682499e+03,2.173530e+02
2.683463e+03,2.190535e+02
2.684427e+03,2.206235e+02
2.685392e+03,2.220107e+02
2.686356e+03,2.228857e+02
2.687320e+03,2.233072e+02
2.688284e+03,2.233616e+02
2.689249e+03,2.233293e+02
2.690213e+03,2.232813e+02
2.691177e+03,2.193945e+02
2.692141e+03,2.099502e+02
2.693106e+03,2.086988e+02
2.694070e+03,2.126368e+02
2.695034e+03,2.144446e+02
2.695998e+03,2.151526e+02
2.696963e+03,2.173629e+02
2.697927e+03,2.195845e+02
2.698891e+03,2.209826e+02
2.699855e+03,2.210736e+02
2.700820e+03,2.194253e+02
2.701784e+03,2.194963e+02
2.702748e+03,2.208032e+02
2.703712e+03,2.183245e+02
2.704677e+03,2.133662e+02
2.705641e+03,2.090142e+02
2.706605e+03,2.079961e+02
2.707569e+03,2.158901e+02
2.708533e+03,2.224537e+02
2.709498e+03,2.229700e+02
2.710462e+03,2.212127e+02
2.711426e+03,2.178167e+02
2.712390e+03,2.176525e+02
2.713354e+03,2.194047e+02
2.714319e+03,2.147482e+02
2.715283e+03,2.089812e+02
2.716247e+03,2.210188e+02
2.717211e+03,2.315371e+02
2.718176e+03,2.264641e+02
2.719140e+03,2.202844e+02
2.720104e+03,2.235537e+02
2.721068e+03,2.243664e+02
2.722033e+03,2.212154e+02
2.722997e+03,2.151140e+02
2.723961e+03,2.078934e+02
2.724925e+03,2.052254e+02
2.725890e+03,2.070527e+02
2.726854e+03,2.158401e+02
2.727818e+03,2.233704e+02
2.728782e+03,2.253479e+02
2.729747e+03,2.227402e+02
2.730711e+03,2.117533e+02
2.731675e+03,2.106446e+02
2.732639e+03,2.175678e+02
2.733604e+03,2.241210e+02
2.734568e+03,2.279303e+02
2.735532e+03,2.206520e+02
2.736496e+03,2.136782e+02
2.737460e+03,2.158971e+02
2.738425e+03,2.193582e+02
2.739389e+03,2.196584e+02
2.740353e+03,2.163876e+02
2.741317e+03,2.102636e+02
2.742281e+03,2.119458e+02
2.743246e+03,2.189506e+02
2.744210e+03,2.232319e+02
2.745174e+03,2.238564e+02
2.746138e+03,2.170719e+02
2.747103e+03,2.133949e+02
2.748067e+03,2.171921e+02
2.749031e+03,2.186863e+02
2.749995e+03,2.111197e+02
2.750960e+03,2.071509e+02
2.751924e+03,2.067073e+02
2.752888e+03,2.097563e+02
2.753852e+03,2.140525e+02
2.754817e+03,2.158541e+02
2.755781e+03,2.161946e+02
2.756745e+03,2.154123e+02
2.757709e+03,2.142283e+02
2.758674e+03,2.126292e+02
2.759638e+03,2.141509e+02
2.760602e+03,2.184694e+02
2.761566e+03,2.143564e+02
2.762531e+03,2.071926e+02
2.763495e+03,2.056250e+02
2.764459e+03,2.069623e+02
2.765423e+03,2.103250e+02
2.766387e+03,2.138867e+02
2.767352e+03,2.173398e+02
2.768316e+03,2.159284e+02
2.769280e+03,2.090868e+02
2.770244e+03,2.138214e+02
2.771208e+03,2.229205e+02
2.772173e+03,2.204539e+02
2.773137e+03,2.141945e+02
2.774101e+03,2.128034e+02
2.775065e+03,2.120620e+02
2.776030e+03,2.100805e+02
2.776994e+03,2.116468e+02
2.777958e+03,2.155544e+02
2.778922e+03,2.126767e+02
2.779887e+03,2.066610e+02
2.780851e+03,2.102830e+02
2.781815e+03,2.145574e+02
2.782779e+03,2.135044e+02
2.783744e+03,2.105573e+02
2.784708e+03,2.064708e+02
2.785672e+03,2.061445e+02
2.786636e+03,2.093477e+02
2.787601e+03,2.106677e+02
2.788565e+03,2.106780e+02
2.789529e+03,2.096610e+02
2.790493e+03,2.108670e+02
2.791458e+03,2.212879e+02
2.792422e+03,2.256159e+02
2.793386e+03,2.214137e+02
2.794350e+03,2.146392e+02
2.795314e+03,2.068343e+02
2.796279e+03,2.096333e+02
2.797243e+03,2.162904e+02
2.798207e+03,2.158060e+02
2.799171e+03,2.139292e+02
2.800135e+03,2.199030e+02
2.801100e+03,2.199933e+02
2.802064e+03,2.105128e+02
2.803028e+03,2.062495e+02
2.803992e+03,2.072665e+02
2.804957e+03,2.077280e+02
2.805921e+03,2.075934e+02
2.806885e+03,2.071268e+02
2.807849e+03,2.070244e+02
2.808814e+03,2.076445e+02
2.809778e+03,2.076962e+02
2.810742e+03,2.063086e+02
2.811706e+03,2.070376e+02
2.812671e+03,2.084962e+02
2.813635e+03,2.060518e+02
2.814599e+03,2.023511e+02
2.815563e+03,2.030285e+02
2.816528e+03,2.046131e+02
2.817492e+03,2.060426e+02
2.818456e+03,2.063804e+02
2.819420e+03,2.054915e+02
2.820385e+03,2.033301e+02
2.821349e+03,2.010838e+02
2.822313e+03,2.033064e+02
2.823277e+03,2.046663e+02
2.824241e+03,2.000491e+02
2.825206e+03,1.991647e+02
2.826170e+03,2.097672e+02
2.827134e+03,2.145723e+02
2.828098e+03,2.124408e+02
2.829063e+03,2.144262e+02
2.830027e+03,2.173349e+02
2.830991e+03,2.117931e+02
2.831955e+03,2.070415e+02
2.832919e+03,2.100088e+02
2.833884e+03,2.170117e+02
2.834848e+03,2.263488e+02
2.835812e+03,2.287714e+02
2.836776e+03,2.246483e+02
2.837741e+03,2.205137e+02
2.838705e+03,2.174139e+02
2.839669e+03,2.160754e+02
2.840633e+03,2.161768e+02
2.841598e+03,2.173943e+02
2.842562e+03,2.212481e+02
2.843526e+03,2.282809e+02
2.844490e+03,2.271489e+02
2.845455e+03,2.223759e+02
2.846419e+03,2.222107e+02
2.847383e+03,2.248858e+02
2.848347e+03,2.299182e+02
2.849312e+03,2.356156e+02
2.850276e+03,2.413346e+02
2.851240e+03,2.385752e+02
2.852204e+03,2.293159e+02
2.853168e+03,2.232316e+02
2.854133e+03,2.209595e+02
2.855097e+03,2.269936e+02
2.856061e+03,2.276391e+02
2.857025e+03,2.188232e+02
2.857990e+03,2.145992e+02
2.858954e+03,2.193315e+02
2.859918e+03,2.239054e+02
2.860882e+03,2.284651e+02
2.861846e+03,2.342446e+02
2.862811e+03,2.369264e+02
2.863775e+03,2.302673e+02
2.864739e+03,2.276148e+02
2.865703e+03,2.327085e+02
2.866668e+03,2.359070e+02
2.867632e+03,2.374350e+02
2.868596e+03,2.403153e+02
2.869560e+03,2.415373e+02
2.870525e+03,2.343078e+02
2.871489e+03,2.310051e+02
2.872453e+03,2.344352e+02
2.873417e+03,2.356595e+02
2.874382e+03,2.340113e+02
2.875346e+03,2.351142e+02
2.876310e+03,2.372831e+02
2.877274e+03,2.357955e+02
2.878239e+03,2.371332e+02
2.879203e+03,2.431807e+02
2.880167e+03,2.502389e+02
2.881131e+03,2.577004e+02
2.882095e+03,2.567423e+02
2.883060e+03,2.518395e+02
2.884024e+03,2.497875e+02
2.884988e+03,2.505316e+02
2.885952e+03,2.550858e+02
2.886917e+03,2.568953e+02
2.887881e+03,2.544670e+02
2.888845e+03,2.563950e+02
2.889809e+03,2.597919e+02
2.890773e+03,2.568099e+02
2.891738e+03,2.514126e+02
2.892702e+03,2.452775e+02
2.893666e+03,2.467739e+02
2.894630e+03,2.566926e+02
2.895595e+03,2.600514e+02
2.896559e+03,2.575535e+02
2.897523e+03,2.570926e+02
2.898487e+03,2.578675e+02
2.899452e+03,2.603578e+02
2.900416e+03,2.587788e+02
2.901380e+03,2.524922e+02
2.902344e+03,2.560338e+02
2.903309e+03,2.685574e+02
2.904273e+03,2.577723e+02
2.905237e+03,2.415847e+02
2.906201e+03,2.384513e+02
2.907166e+03,2.424576e+02
2.908130e+03,2.504360e+02
2.909094e+03,2.581687e+02
2.910058e+03,2.632081e+02
2.911022e+03,2.547848e+02
2.911987e+03,2.403078e+02
2.912951e+03,2.269861e+02
2.913915e+03,2.194422e+02
2.914879e+03,2.221873e+02
2.915844e+03,2.291661e+02
2.916808e+03,2.379814e+02
2.917772e+03,2.372179e+02
2.918736e+03,2.324871e+02
2.919700e+03,2.329608e+02
2.920665e+03,2.321055e+02
2.921629e+03,2.218118e+02
2.922593e+03,2.194526e+02
2.923557e+03,2.243551e+02
2.924522e+03,2.279245e+02
2.925486e+03,2.307978e+02
2.926450e+03,2.391425e+02
2.927414e+03,2.415838e+02
2.928379e+03,2.295725e+02
2.929343e+03,2.274215e+02
2.930307e+03,2.342452e+02
2.931271e+03,2.316245e+02
2.932236e+03,2.258596e+02
2.933200e+03,2.320675e+02
2.934164e+03,2.355479e+02
2.935128e+03,2.300597e+02
2.936093e+03,2.229595e+02
2.937057e+03,2.173823e+02
2.938021e+03,2.273959e+02
2.938985e+03,2.401765e+02
2.939949e+03,2.322283e+02
2.940914e+03,2.210108e+02
2.941878e+03,2.132511e+02
2.942842e+03,2.123770e+02
2.943806e+03,2.176505e+02
2.944771e+03,2.266494e+02
2.945735e+03,2.340527e+02
2.946699e+03,2.333732e+02
2.947663e+03,2.271180e+02
2.948627e+03,2.168089e+02
2.949592e+03,2.143324e+02
2.950556e+03,2.208814e+02
2.951520e+03,2.230761e+02
2.952484e+03,2.210949e+02
2.953449e+03,2.131061e+02
2.954413e+03,2.194918e+02
2.955377e+03,2.488157e+02
2.956341e+03,2.567190e+02
2.957306e+03,2.429447e+02
2.958270e+03,2.476030e+02
2.959234e+03,2.509489e+02
2.960198e+03,2.378557e+02
2.961163e+03,2.206449e+02
2.962127e+03,2.029000e+02
2.963091e+03,2.047735e+02
2.964055e+03,2.195001e+02
2.965020e+03,2.188805e+02
2.965984e+03,2.144424e+02
2.966948e+03,2.144333e+02
2.967912e+03,2.164754e+02
2.968876e+03,2.205585e+02
2.969841e+03,2.217397e+02
2.970805e+03,2.193294e+02
2.971769e+03,2.129681e+02
2.972733e+03,2.053626e+02
2.973698e+03,1.977340e+02
2.974662e+03,1.959203e+02
2.975626e+03,2.023050e+02
2.976590e+03,2.157313e+02
2.977554e+03,2.225153e+02
2.978519e+03,2.037190e+02
2.979483e+03,1.848773e+02
2.980447e+03,1.829742e+02
2.981411e+03,1.903551e+02
2.982376e+03,2.035486e+02
2.983340e+03,2.020659e+02
2.984304e+03,1.960344e+02
2.985268e+03,1.960095e+02
2.986233e+03,1.966951e+02
2.987197e+03,1.946946e+02
2.988161e+03,1.989018e+02
2.989125e+03,2.064028e+02
2.990090e+03,2.079418e+02
2.991054e+03,2.036581e+02
2.992018e+03,1.933887e+02
2.992982e+03,1.845987e+02
2.993947e+03,1.798253e+02
2.994911e+03,1.892365e+02
2.995875e+03,2.030888e+02
2.996839e+03,2.040690e+02
2.997803e+03,2.033548e+02
2.998768e+03,2.091097e+02
2.999732e+03,2.080609e+02
3.000696e+03,1.979140e+02
3.001660e+03,1.843744e+02
3.002625e+03,1.765461e+02
3.003589e+03,1.829083e+02
3.004553e+03,1.907362e+02
3.005517e+03,1.942378e+02
3.006481e+03,1.942916e+02
3.007446e+03,1.936129e+02
3.008410e+03,2.051876e+02
3.009374e+03,2.129499e+02
3.010338e+03,2.082390e+02
3.011303e+03,1.967731e+02
3.012267e+03,1.801214e+02
3.013231e+03,1.820294e+02
3.014195e+03,1.901726e+02
3.015160e+03,1.799235e+02
3.016124e+03,1.718481e+02
3.017088e+03,1.728900e+02
3.018052e+03,1.784053e+02
3.019017e+03,1.855037e+02
3.019981e+03,1.820544e+02
3.020945e+03,1.762465e+02
3.021909e+03,1.752719e+02
3.022874e+03,1.742071e+02
3.023838e+03,1.720712e+02
3.024802e+03,1.752397e+02
3.025766e+03,1.814598e+02
3.026730e+03,1.849289e+02
3.027695e+03,1.862240e+02
3.028659e+03,1.856026e+02
3.029623e+03,1.918097e+02
3.030587e+03,2.024687e+02
3.031552e+03,2.009002e+02
3.032516e+03,1.940896e+02
3.033480e+03,1.916474e+02
3.034444e+03,1.787823e+02
3.035408e+03,1.569119e+02
3.036373e+03,1.683021e+02
3.037337e+03,1.966297e+02
3.038301e+03,1.861364e+02
3.039265e+03,1.748874e+02
3.040230e+03,1.869796e+02
3.041194e+03,1.914470e+02
3.042158e+03,1.880649e+02
3.043122e+03,1.824448e+02
3.044087e+03,1.802758e+02
3.045051e+03,1.919948e+02
3.046015e+03,1.985636e+02
3.046979e+03,1.939048e+02
3.047944e+03,1.847081e+02
3.048908e+03,1.779625e+02
3.049872e+03,1.847398e+02
3.050836e+03,1.879742e+02
3.051801e+03,1.740054e+02
3.052765e+03,1.731314e+02
3.053729e+03,1.850822e+02
3.054693e+03,1.875682e+02
3.055657e+03,1.876175e+02
3.056622e+03,1.903743e+02
3.057586e+03,1.926606e+02
3.058550e+03,1.935791e+02
3.059514e+03,1.897974e+02
3.060479e+03,1.862342e+02
3.061443e+03,1.940842e+02
3.062407e+03,1.943631e+02
3.063371e+03,1.834116e+02
3.064335e+03,1.797733e+02
3.065300e+03,1.843291e+02
3.066264e+03,1.977736e+02
3.067228e+03,2.047600e+02
3.068192e+03,1.919985e+02
3.069157e+03,1.920813e+02
3.070121e+03,2.022490e+02
3.071085e+03,1.924745e+02
3.072049e+03,1.775188e+02
3.073014e+03,1.813065e+02
3.073978e+03,1.852640e+02
3.074942e+03,1.854825e+02
3.075906e+03,1.812821e+02
3.076871e+03,1.784490e+02
3.077835e+03,1.859922e+02
3.078799e+03,1.934229e+02
3.079763e+03,1.939326e+02
3.080728e+03,1.948764e+02
3.081692e+03,1.955791e+02
3.082656e+03,1.918173e+02
3.083620e+03,1.872110e+02
3.084584e+03,1.839353e+02
3.085549e+03,1.831790e+02
3.086513e+03,1.849137e+02
3.087477e+03,1.810887e+02
3.088441e+03,1.794992e+02
3.089406e+03,1.915125e+02
3.090370e+03,1.992220e+02
3.091334e+03,1.993831e+02
3.092298e+03,1.854992e+02
3.093262e+03,1.699749e+02
3.094227e+03,1.824384e+02
3.095191e+03,1.924192e+02
3.096155e+03,1.893143e+02
3.097119e+03,1.828748e+02
3.098084e+03,1.771187e+02
3.099048e+03,1.763106e+02
3.100012e+03,1.824273e+02
3.100976e+03,2.015382e+02
3.101941e+03,2.024077e+02
3.102905e+03,1.866688e+02
3.103869e+03,1.843879e+02
3.104833e+03,1.860106e+02
3.105798e+03,1.846823e+02
3.106762e+03,1.859330e+02
3.107726e+03,1.909987e+02
3.108690e+03,2.019424e+02
3.109655e+03,2.079977e+02
3.110619e+03,1.906317e+02
3.111583e+03,1.799859e+02
3.112547e+03,1.797007e+02
3.113511e+03,1.757641e+02
3.114476e+03,1.720402e+02
3.115440e+03,1.844016e+02
3.116404e+03,1.914976e+02
3.117368e+03,1.836148e+02
3.118333e+03,1.986511e+02
3.119297e+03,2.149606e+02
3.120261e+03,1.934424e+02
3.121225e+03,1.772053e+02
3.122189e+03,1.904291e+02
3.123154e+03,1.968647e+02
3.124118e+03,1.942440e+02
3.125082e+03,1.894990e+02
3.126046e+03,1.918525e+02
3.127011e+03,2.051570e+02
3.127975e+03,2.067695e+02
3.128939e+03,1.986384e+02
3.129903e+03,1.994956e+02
3.130868e+03,2.023761e+02
3.131832e+03,1.997547e+02
3.132796e+03,2.046350e+02
3.133760e+03,2.124554e+02
3.134725e+03,1.984844e+02
3.135689e+03,1.784690e+02
3.136653e+03,1.662238e+02
3.137617e+03,1.720149e+02
3.138582e+03,1.992454e+02
3.139546e+03,1.954796e+02
3.140510e+03,1.867456e+02
3.141474e+03,2.061710e+02
3.142438e+03,2.065194e+02
3.143403e+03,1.844423e+02
3.144367e+03,1.752346e+02
3.145331e+03,1.739143e+02
3.146295e+03,1.681894e+02
3.147260e+03,1.722258e+02
3.148224e+03,1.896835e+02
3.149188e+03,2.041349e+02
3.150152e+03,2.067580e+02
3.151116e+03,1.858891e+02
3.152081e+03,1.789118e+02
3.153045e+03,2.016692e+02
3.154009e+03,2.079718e+02
3.154973e+03,2.035246e+02
3.155938e+03,2.032110e+02
3.156902e+03,2.101215e+02
3.157866e+03,2.218875e+02
3.158830e+03,2.050027e+02
3.159795e+03,1.766898e+02
3.160759e+03,1.840837e+02
3.161723e+03,1.961115e+02
3.162687e+03,2.006127e+02
3.163652e+03,1.923725e+02
3.164616e+03,1.831230e+02
3.165580e+03,1.959186e+02
3.166544e+03,2.077971e+02
3.167509e+03,2.091620e+02
3.168473e+03,1.995097e+02
3.169437e+03,1.857070e+02
3.170401e+03,1.861564e+02
3.171365e+03,1.917961e+02
3.172330e+03,1.991508e+02
3.173294e+03,2.053240e+02
3.174258e+03,2.059646e+02
3.175222e+03,1.914436e+02
3.176187e+03,1.791046e+02
3.177151e+03,1.804407e+02
3.178115e+03,1.829756e+02
3.179079e+03,1.847496e+02
3.180043e+03,1.778530e+02
3.181008e+03,1.867527e+02
3.181972e+03,2.173127e+02
3.182936e+03,2.125668e+02
3.183900e+03,1.865884e+02
3.184865e+03,1.943950e+02
3.185829e+03,2.085195e+02
3.186793e+03,2.223292e+02
3.187757e+03,2.065994e+02
3.188722e+03,1.803430e+02
3.189686e+03,1.837477e+02
3.190650e+03,2.021055e+02
3.191614e+03,2.255582e+02
3.192579e+03,2.338628e+02
3.193543e+03,2.260782e+02
3.194507e+03,1.886141e+02
3.195471e+03,1.637146e+02
3.196436e+03,1.703652e+02
3.197400e+03,1.727195e+02
3.198364e+03,1.775582e+02
3.199328e+03,2.010968e+02
3.200292e+03,2.213849e+02
3.201257e+03,0.000000e+00
3.202221e+03,0.000000e+00
3.203185e+03,0.000000e+00
3.204149e+03,0.000000e+00
3.205114e+03,0.000000e+00
3.206078e+03,0.000000e+00
3.207042e+03,0.000000e+00
3.208006e+03,0.000000e+00
3.208970e+03,0.000000e+00
3.209935e+03,0.000000e+00
3.210899e+03,0.000000e+00
3.211863e+03,0.000000e+00
3.212827e+03,0.000000e+00
3.213792e+03,0.000000e+00
3.214756e+03,0.000000e+00
3.215720e+03,0.000000e+00
3.216684e+03,0.000000e+00
3.217649e+03,0.000000e+00
3.218613e+03,0.000000e+00
3.219577e+03,0.000000e+00
3.220541e+03,0.000000e+00
3.221506e+03,0.000000e+00
3.222470e+03,0.000000e+00
3.223434e+03,0.000000e+00
3.224398e+03,0.000000e+00
3.225363e+03,0.000000e+00
3.226327e+03,0.000000e+00
3.227291e+03,0.000000e+00
3.228255e+03,0.000000e+00
3.229219e+03,0.000000e+00
3.230184e+03,0.000000e+00
3.231148e+03,0.000000e+00
3.232112e+03,0.000000e+00
3.233076e+03,0.000000e+00
3.234041e+03,0.000000e+00
3.235005e+03,0.000000e+00
3.235969e+03,0.000000e+00
3.236933e+03,0.000000e+00
3.237897e+03,0.000000e+00
3.238862e+03,0.000000e+00
3.239826e+03,0.000000e+00
3.240790e+03,0.000000e+00
3.241754e+03,0.000000e+00
3.242719e+03,0.000000e+00
3.243683e+03,0.000000e+00
3.244647e+03,0.000000e+00
3.245611e+03,0.000000e+00
3.246576e+03,0.000000e+00
3.247540e+03,0.000000e+00
3.248504e+03,0.000000e+00
3.249468e+03,0.000000e+00
3.250433e+03,0.000000e+00
3.251397e+03,0.000000e+00
3.252361e+03,0.000000e+00
3.253325e+03,0.000000e+00
3.254290e+03,0.000000e+00
3.255254e+03,0.000000e+00
3.256218e+03,0.000000e+00
3.257182e+03,0.000000e+00
3.258146e+03,0.000000e+00
3.259111e+03,0.000000e+00
3.260075e+03,0.000000e+00
3.261039e+03,0.000000e+00
3.262003e+03,0.000000e+00
3.262968e+03,0.000000e+00
3.263932e+03,0.000000e+00
3.264896e+03,0.000000e+00
3.265860e+03,0.000000e+00
3.266824e+03,0.000000e+00
3.267789e+03,0.000000e+00
3.268753e+03,0.000000e+00
3.269717e+03,0.000000e+00
3.270681e+03,0.000000e+00
3.271646e+03,0.000000e+00
3.272610e+03,0.000000e+00
3.273574e+03,0.000000e+00
3.274538e+03,0.000000e+00
3.275503e+03,0.000000e+00
3.276467e+03,0.000000e+00
3.277431e+03,0.000000e+00
3.278395e+03,0.000000e+00
3.279360e+03,0.000000e+00
3.280324e+03,0.000000e+00
3.281288e+03,0.000000e+00
3.282252e+03,0.000000e+00
3.283217e+03,0.000000e+00
3.284181e+03,0.000000e+00
3.285145e+03,0.000000e+00
3.286109e+03,0.000000e+00
3.287073e+03,0.000000e+00
3.288038e+03,0.000000e+00
3.289002e+03,0.000000e+00
3.289966e+03,0.000000e+00
3.290930e+03,0.000000e+00
3.291895e+03,0.000000e+00
3.292859e+03,0.000000e+00
3.293823e+03,0.000000e+00
3.294787e+03,0.000000e+00
3.295751e+03,0.000000e+00
3.296716e+03,0.000000e+00
3.297680e+03,0.000000e+00
3.298644e+03,0.000000e+00
3.299608e+03,0.000000e+00
3.300573e+03,0.000000e+00
3.301537e+03,0.000000e+00
3.302501e+03,0.000000e+00
3.303465e+03,0.000000e+00
3.304430e+03,0.000000e+00
3.305394e+03,0.000000e+00
3.306358e+03,0.000000e+00
3.307322e+03,0.000000e+00
3.308287e+03,0.000000e+00
3.309251e+03,0.000000e+00
3.310215e+03,0.000000e+00
3.311179e+03,0.000000e+00
3.312144e+03,0.000000e+00
3.313108e+03,0.000000e+00
3.314072e+03,0.000000e+00
3.315036e+03,0.000000e+00
3.316000e+03,0.000000e+00
3.316965e+03,0.000000e+00
3.317929e+03,0.000000e+00
3.318893e+03,0.000000e+00
3.319857e+03,0.000000e+00
3.320822e+03,0.000000e+00
3.321786e+03,0.000000e+00
3.322750e+03,0.000000e+00
3.323714e+03,0.000000e+00
3.324678e+03,0.000000e+00
3.325643e+03,0.000000e+00
3.326607e+03,0.000000e+00
3.327571e+03,0.000000e+00
3.328535e+03,0.000000e+00
3.329500e+03,0.000000e+00
3.330464e+03,0.000000e+00
3.331428e+03,0.000000e+00
3.332392e+03,0.000000e+00
3.333357e+03,0.000000e+00
3.334321e+03,0.000000e+00
3.335285e+03,0.000000e+00
3.336249e+03,0.000000e+00
3.337214e+03,0.000000e+00
3.338178e+03,0.000000e+00
3.339142e+03,0.000000e+00
3.340106e+03,0.000000e+00
3.341071e+03,0.000000e+00
3.342035e+03,0.000000e+00
3.342999e+03,0.000000e+00
3.343963e+03,0.000000e+00
3.344927e+03,0.000000e+00
3.345892e+03,0.000000e+00
3.346856e+03,0.000000e+00
3.347820e+03,0.000000e+00
3.348784e+03,0.000000e+00
3.349749e+03,0.000000e+00
3.350713e+03,0.000000e+00
3.351677e+03,0.000000e+00
3.352641e+03,0.000000e+00
3.353605e+03,0.000000e+00
3.354570e+03,0.000000e+00
3.355534e+03,0.000000e+00
3.356498e+03,0.000000e+00
3.357462e+03,0.000000e+00
3.358427e+03,0.000000e+00
3.359391e+03,0.000000e+00
3.360355e+03,0.000000e+00
3.361319e+03,0.000000e+00
3.362284e+03,0.000000e+00
3.363248e+03,0.000000e+00
3.364212e+03,0.000000e+00
3.365176e+03,0.000000e+00
3.366141e+03,0.000000e+00
3.367105e+03,0.000000e+00
3.368069e+03,0.000000e+00
3.369033e+03,0.000000e+00
3.369998e+03,0.000000e+00
3.370962e+03,0.000000e+00
3.371926e+03,0.000000e+00
3.372890e+03,0.000000e+00
3.373854e+03,0.000000e+00
3.374819e+03,0.000000e+00
3.375783e+03,0.000000e+00
3.376747e+03,0.000000e+00
3.377711e+03,0.000000e+00
3.378676e+03,0.000000e+00
3.379640e+03,0.000000e+00
3.380604e+03,0.000000e+00
3.381568e+03,0.000000e+00
3.382532e+03,0.000000e+00
3.383497e+03,0.000000e+00
3.384461e+03,0.000000e+00
3.385425e+03,0.000000e+00
3.386389e+03,0.000000e+00
3.387354e+03,0.000000e+00
3.388318e+03,0.000000e+00
3.389282e+03,0.000000e+00
3.390246e+03,0.000000e+00
3.391211e+03,0.000000e+00
3.392175e+03,0.000000e+00
3.393139e+03,0.000000e+00
3.394103e+03,0.000000e+00
3.395068e+03,0.000000e+00
3.396032e+03,0.000000e+00
3.396996e+03,0.000000e+00
3.397960e+03,0.000000e+00
3.398925e+03,0.000000e+00
3.399889e+03,0.000000e+00
3.400853e+03,0.000000e+00
3.401817e+03,0.000000e+00
3.402781e+03,0.000000e+00
3.403746e+03,0.000000e+00
3.404710e+03,0.000000e+00
3.405674e+03,0.000000e+00
3.406638e+03,0.000000e+00
3.407603e+03,0.000000e+00
3.408567e+03,0.000000e+00
3.409531e+03,0.000000e+00
3.410495e+03,0.000000e+00
3.411459e+03,0.000000e+00
3.412424e+03,0.000000e+00
3.413388e+03,0.000000e+00
3.414352e+03,0.000000e+00
3.415316e+03,0.000000e+00
3.416281e+03,0.000000e+00
3.417245e+03,0.000000e+00
3.418209e+03,0.000000e+00
3.419173e+03,0.000000e+00
3.420138e+03,0.000000e+00
3.421102e+03,0.000000e+00
3.422066e+03,0.000000e+00
3.423030e+03,0.000000e+00
3.423995e+03,0.000000e+00
3.424959e+03,0.000000e+00
3.425923e+03,0.000000e+00
3.426887e+03,0.000000e+00
3.427852e+03,0.000000e+00
3.428816e+03,0.000000e+00
3.429780e+03,0.000000e+00
3.430744e+03,0.000000e+00
3.431708e+03,0.000000e+00
3.432673e+03,0.000000e+00
3.433637e+03,0.000000e+00
3.434601e+03,0.000000e+00
3.435565e+03,0.000000e+00
3.436530e+03,0.000000e+00
3.437494e+03,0.000000e+00
3.438458e+03,0.000000e+00
3.439422e+03,0.000000e+00
3.440386e+03,0.000000e+00
3.441351e+03,0.000000e+00
3.442315e+03,0.000000e+00
3.443279e+03,0.000000e+00
3.444243e+03,0.000000e+00
3.445208e+03,0.000000e+00
3.446172e+03,0.000000e+00
3.447136e+03,0.000000e+00
3.448100e+03,0.000000e+00
3.449065e+03,0.000000e+00
3.450029e+03,0.000000e+00
3.450993e+03,0.000000e+00
3.451957e+03,0.000000e+00
3.452922e+03,0.000000e+00
3.453886e+03,0.000000e+00
3.454850e+03,0.000000e+00
3.455814e+03,0.000000e+00
3.456779e+03,0.000000e+00
3.457743e+03,0.000000e+00
3.458707e+03,0.000000e+00
3.459671e+03,0.000000e+00
3.460635e+03,0.000000e+00
3.461600e+03,0.000000e+00
3.462564e+03,0.000000e+00
3.463528e+03,0.000000e+00
3.464492e+03,0.000000e+00
3.465457e+03,0.000000e+00
3.466421e+03,0.000000e+00
3.467385e+03,0.000000e+00
3.468349e+03,0.000000e+00
3.469313e+03,0.000000e+00
3.470278e+03,0.000000e+00
3.471242e+03,0.000000e+00
3.472206e+03,0.000000e+00
3.473170e+03,0.000000e+00
3.474135e+03,0.000000e+00
3.475099e+03,0.000000e+00
3.476063e+03,0.000000e+00
3.477027e+03,0.000000e+00
3.477992e+03,0.000000e+00
3.478956e+03,0.000000e+00
3.479920e+03,0.000000e+00
3.480884e+03,0.000000e+00
3.481849e+03,0.000000e+00
3.482813e+03,0.000000e+00
3.483777e+03,0.000000e+00
3.484741e+03,0.000000e+00
3.485706e+03,0.000000e+00
3.486670e+03,0.000000e+00
3.487634e+03,0.000000e+00
3.488598e+03,0.000000e+00
3.489563e+03,0.000000e+00
3.490527e+03,0.000000e+00
3.491491e+03,0.000000e+00
3.492455e+03,0.000000e+00
3.493419e+03,0.000000e+00
3.494384e+03,0.000000e+00
3.495348e+03,0.000000e+00
3.496312e+03,0.000000e+00
3.497276e+03,0.000000e+00
3.498240e+03,0.000000e+00
3.499205e+03,0.000000e+00
3.500169e+03,0.000000e+00
