9.931763e+01,0.000000e+00
1.002819e+02,0.000000e+00
1.012461e+02,0.000000e+00
1.022103e+02,0.000000e+00
1.031746e+02,0.000000e+00
1.041388e+02,0.000000e+00
1.051030e+02,0.000000e+00
1.060673e+02,0.000000e+00
1.070315e+02,0.000000e+00
1.079957e+02,0.000000e+00
1.089600e+02,0.000000e+00
1.099242e+02,0.000000e+00
1.108884e+02,0.000000e+00
1.118527e+02,0.000000e+00
1.128169e+02,0.000000e+00
1.137811e+02,0.000000e+00
1.147454e+02,0.000000e+00
1.157096e+02,0.000000e+00
1.166738e+02,0.000000e+00
1.176381e+02,0.000000e+00
1.186023e+02,0.000000e+00
1.195665e+02,0.000000e+00
1.205308e+02,0.000000e+00
1.214950e+02,0.000000e+00
1.224592e+02,0.000000e+00
1.234235e+02,0.000000e+00
1.243877e+02,0.000000e+00
1.253519e+02,0.000000e+00
1.263162e+02,0.000000e+00
1.272804e+02,0.000000e+00
1.282446e+02,0.000000e+00
1.292089e+02,0.000000e+00
1.301731e+02,0.000000e+00
1.311373e+02,0.000000e+00
1.321016e+02,0.000000e+00
1.330658e+02,0.000000e+00
1.340300e+02,0.000000e+00
1.349943e+02,0.000000e+00
1.359585e+02,0.000000e+00
1.369227e+02,0.000000e+00
1.378870e+02,0.000000e+00
1.388512e+02,0.000000e+00
1.398154e+02,0.000000e+00
1.407797e+02,0.000000e+00
1.417439e+02,0.000000e+00
1.427081e+02,0.000000e+00
1.436724e+02,0.000000e+00
1.446366e+02,0.000000e+00
1.456008e+02,0.000000e+00
1.465651e+02,0.000000e+00
1.475293e+02,0.000000e+00
1.484935e+02,0.000000e+00
1.494578e+02,0.000000e+00
1.504220e+02,0.000000e+00
1.513862e+02,0.000000e+00
1.523505e+02,0.000000e+00
1.533147e+02,0.000000e+00
1.542789e+02,0.000000e+00
1.552432e+02,0.000000e+00
1.562074e+02,0.000000e+00
1.571716e+02,0.000000e+00
1.581359e+02,0.000000e+00
1.591001e+02,0.000000e+00
1.600643e+02,0.000000e+00
1.610286e+02,0.000000e+00
1.619928e+02,0.000000e+00
1.629570e+02,0.000000e+00
1.639213e+02,0.000000e+00
1.648855e+02,0.000000e+00
1.658497e+02,0.000000e+00
1.668140e+02,0.000000e+00
1.677782e+02,0.000000e+00
1.687424e+02,0.000000e+00
1.697067e+02,0.000000e+00
1.706709e+02,0.000000e+00
1.716351e+02,0.000000e+00
1.725994e+02,0.000000e+00
1.735636e+02,0.000000e+00
1.745278e+02,0.000000e+00
1.754921e+02,0.000000e+00
1.764563e+02,0.000000e+00
1.774205e+02,0.000000e+00
1.783848e+02,0.000000e+00
1.793490e+02,0.000000e+00
1.803132e+02,0.000000e+00
1.812775e+02,0.000000e+00
1.822417e+02,0.000000e+00
1.832059e+02,0.000000e+00
1.841702e+02,0.000000e+00
1.851344e+02,0.000000e+00
1.860986e+02,0.000000e+00
1.870629e+02,0.000000e+00
1.880271e+02,0.000000e+00
1.889913e+02,0.000000e+00
1.899556e+02,0.000000e+00
1.909198e+02,0.000000e+00
1.918840e+02,0.000000e+00
1.928483e+02,0.000000e+00
1.938125e+02,0.000000e+00
1.947767e+02,0.000000e+00
1.957410e+02,0.000000e+00
1.967052e+02,0.000000e+00
1.976694e+02,0.000000e+00
1.986337e+02,0.000000e+00
1.995979e+02,5.331544e+03
2.005621e+02,5.320456e+03
2.015264e+02,5.314305e+03
2.024906e+02,5.318968e+03
2.034548e+02,5.323715e+03
2.044191e+02,5.325742e+03
2.053833e+02,5.323875e+03
2.063475e+02,5.318360e+03
2.073118e+02,5.308558e+03
2.082760e+02,5.291896e+03
2.092402e+02,5.279269e+03
2.102045e+02,5.276290e+03
2.111687e+02,5.278380e+03
2.121329e+02,5.281916e+03
2.130972e+02,5.284565e+03
2.140614e+02,5.285610e+03
2.150256e+02,5.285436e+03
2.159899e+02,5.283881e+03
2.169541e+02,5.282601e+03
2.179183e+02,5.282787e+03
2.188826e+02,5.283873e+03
2.198468e+02,5.285694e+03
2.208110e+02,5.289010e+03
2.217753e+02,5.293036e+03
2.227395e+02,5.292974e+03
2.237037e+02,5.289168e+03
2.246680e+02,5.283470e+03
2.256322e+02,5.276311e+03
2.265964e+02,5.268633e+03
2.275607e+02,5.262188e+03
2.285249e+02,5.258094e+03
2.294892e+02,5.256371e+03
2.304534e+02,5.257593e+03
2.314176e+02,5.261610e+03
2.323819e+02,5.266709e+03
2.333461e+02,5.269201e+03
2.343103e+02,5.267202e+03
2.352746e+02,5.263247e+03
2.362388e+02,5.260989e+03
2.372030e+02,5.260583e+03
2.381673e+02,5.258761e+03
2.391315e+02,5.253017e+03
2.400957e+02,5.245129e+03
2.410600e+02,5.236674e+03
2.420242e+02,5.228142e+03
2.429884e+02,5.221204e+03
2.439527e+02,5.218088e+03
2.449169e+02,5.219024e+03
2.458811e+02,5.223630e+03
2.468454e+02,5.226816e+03
2.478096e+02,5.228430e+03
2.487738e+02,5.229006e+03
2.497381e+02,5.228594e+03
2.507023e+02,5.227317e+03
2.516665e+02,5.225719e+03
2.526308e+02,5.224187e+03
2.535950e+02,5.218941e+03
2.545592e+02,5.213932e+03
2.555235e+02,5.212820e+03
2.564877e+02,5.212647e+03
2.574519e+02,5.209720e+03
2.584161e+02,5.201862e+03
2.593804e+02,5.190704e+03
2.603446e+02,5.185625e+03
2.613088e+02,5.189040e+03
2.622731e+02,5.194071e+03
2.632373e+02,5.200841e+03
2.642015e+02,5.207147e+03
2.651658e+02,5.209118e+03
2.661300e+02,5.202170e+03
2.670942e+02,5.185501e+03
2.680585e+02,5.174197e+03
2.690227e+02,5.177485e+03
2.699869e+02,5.183586e+03
2.709512e+02,5.183289e+03
2.719154e+02,5.173074e+03
2.728796e+02,5.160189e+03
2.738439e+02,5.155255e+03
2.748081e+02,5.161471e+03
2.757723e+02,5.170385e+03
2.767366e+02,5.172132e+03
2.777008e+02,5.166347e+03
2.786650e+02,5.159243e+03
2.796293e+02,5.153264e+03
2.805935e+02,5.149308e+03
2.815577e+02,5.148373e+03
2.825220e+02,5.151100e+03
2.834862e+02,5.153745e+03
2.844504e+02,5.149973e+03
2.854147e+02,5.135885e+03
2.863789e+02,5.124620e+03
2.873431e+02,5.123660e+03
2.883074e+02,5.130234e+03
2.892716e+02,5.136733e+03
2.902358e+02,5.138071e+03
2.912001e+02,5.133564e+03
2.921643e+02,5.126026e+03
2.931285e+02,5.112170e+03
2.940928e+02,5.100614e+03
2.950570e+02,5.093958e+03
2.960212e+02,5.091642e+03
2.969855e+02,5.092380e+03
2.979497e+02,5.097267e+03
2.989139e+02,5.111945e+03
2.998782e+02,5.119561e+03
3.008424e+02,5.118896e+03
3.018066e+02,5.115216e+03
3.027709e+02,5.110200e+03
3.037351e+02,5.103443e+03
3.046993e+02,5.095013e+03
3.056636e+02,5.086021e+03
3.066278e+02,5.076991e+03
3.075920e+02,5.068731e+03
3.085563e+02,5.059967e+03
3.095205e+02,5.052902e+03
3.104847e+02,5.050829e+03
3.114490e+02,5.057620e+03
3.124132e+02,5.068080e+03
3.133774e+02,5.072002e+03
3.143417e+02,5.065935e+03
3.153059e+02,5.055839e+03
3.162701e+02,5.052498e+03
3.172344e+02,5.061286e+03
3.181986e+02,5.066640e+03
3.191628e+02,5.059818e+03
3.201271e+02,5.046821e+03
3.210913e+02,5.039643e+03
3.220555e+02,5.044614e+03
3.230198e+02,5.058523e+03
3.239840e+02,5.061847e+03
3.249482e+02,5.042299e+03
3.259125e+02,5.024444e+03
3.268767e+02,5.016118e+03
3.278409e+02,5.016377e+03
3.288052e+02,5.020561e+03
3.297694e+02,5.026419e+03
3.307336e+02,5.035603e+03
3.316979e+02,5.036547e+03
3.326621e+02,5.017760e+03
3.336263e+02,4.997258e+03
3.345906e+02,4.985187e+03
3.355548e+02,4.985434e+03
3.365190e+02,4.991166e+03
3.374833e+02,4.994126e+03
3.384475e+02,4.993500e+03
3.394117e+02,4.993532e+03
3.403760e+02,4.995373e+03
3.413402e+02,4.997209e+03
3.423044e+02,4.996406e+03
3.432687e+02,4.988790e+03
3.442329e+02,4.980147e+03
3.451971e+02,4.975958e+03
3.461614e+02,4.975052e+03
3.471256e+02,4.971396e+03
3.480898e+02,4.960968e+03
3.490541e+02,4.941692e+03
3.500183e+02,4.928782e+03
3.509825e+02,4.929169e+03
3.519468e+02,4.934320e+03
3.529110e+02,4.935411e+03
3.538752e+02,4.929319e+03
3.548395e+02,4.920400e+03
3.558037e+02,4.918229e+03
3.567680e+02,4.928667e+03
3.577322e+02,4.936827e+03
3.586964e+02,4.943368e+03
3.596607e+02,4.948419e+03
3.606249e+02,4.950494e+03
3.615891e+02,4.946202e+03
3.625534e+02,4.936060e+03
3.635176e+02,4.925023e+03
3.644818e+02,4.915099e+03
3.654461e+02,4.904800e+03
3.664103e+02,4.892519e+03
3.673745e+02,4.881313e+03
3.683388e+02,4.878038e+03
3.693030e+02,4.888283e+03
3.702672e+02,4.903562e+03
3.712315e+02,4.912372e+03
3.721957e+02,4.911794e+03
3.731599e+02,4.904596e+03
3.741242e+02,4.896486e+03
3.750884e+02,4.886355e+03
3.760526e+02,4.882188e+03
3.770169e+02,4.889022e+03
3.779811e+02,4.899727e+03
3.789453e+02,4.905875e+03
3.799096e+02,4.903147e+03
3.808738e+02,4.892384e+03
3.818380e+02,4.877461e+03
3.828023e+02,4.854475e+03
3.837665e+02,4.837241e+03
3.847307e+02,4.830881e+03
3.856950e+02,4.832289e+03
3.866592e+02,4.834029e+03
3.876234e+02,4.829725e+03
3.885877e+02,4.822033e+03
3.895519e+02,4.820367e+03
3.905161e+02,4.827686e+03
3.914804e+02,4.835086e+03
3.924446e+02,4.832555e+03
3.934088e+02,4.819677e+03
3.943731e+02,4.806625e+03
3.953373e+02,4.793916e+03
3.963015e+02,4.782687e+03
3.972658e+02,4.775417e+03
3.982300e+02,4.773911e+03
3.991942e+02,4.777334e+03
4.001585e+02,4.779388e+03
4.011227e+02,4.773612e+03
4.020869e+02,4.770320e+03
4.030512e+02,4.772428e+03
4.040154e+02,4.775673e+03
4.049796e+02,4.774924e+03
4.059439e+02,4.764538e+03
4.069081e+02,4.748010e+03
4.078723e+02,4.739261e+03
4.088366e+02,4.739992e+03
4.098008e+02,4.742133e+03
4.107650e+02,4.744963e+03
4.117293e+02,4.748861e+03
4.126935e+02,4.748462e+03
4.136577e+02,4.737595e+03
4.146220e+02,4.722334e+03
4.155862e+02,4.711696e+03
4.165504e+02,4.707873e+03
4.175147e+02,4.708576e+03
4.184789e+02,4.710029e+03
4.194431e+02,4.715416e+03
4.204074e+02,4.717092e+03
4.213716e+02,4.711161e+03
4.223358e+02,4.702733e+03
4.233001e+02,4.697833e+03
4.242643e+02,4.700193e+03
4.252285e+02,4.706386e+03
4.261928e+02,4.707072e+03
4.271570e+02,4.699765e+03
4.281212e+02,4.693623e+03
4.290855e+02,4.693794e+03
4.300497e+02,4.697045e+03
4.310139e+02,4.696880e+03
4.319782e+02,4.690129e+03
4.329424e+02,4.680740e+03
4.339066e+02,4.670782e+03
4.348709e+02,4.659817e+03
4.358351e+02,4.651700e+03
4.367993e+02,4.651468e+03
4.377636e+02,4.665681e+03
4.387278e+02,4.671170e+03
4.396920e+02,4.664009e+03
4.406563e+02,4.652428e+03
4.416205e+02,4.640265e+03
4.425847e+02,4.628437e+03
4.435490e+02,4.618194e+03
4.445132e+02,4.611786e+03
4.454774e+02,4.610170e+03
4.464417e+02,4.611517e+03
4.474059e+02,4.617727e+03
4.483701e+02,4.624299e+03
4.493344e+02,4.626539e+03
4.502986e+02,4.623413e+03
4.512628e+02,4.617947e+03
4.522271e+02,4.609407e+03
4.531913e+02,4.599072e+03
4.541555e+02,4.593216e+03
4.551198e+02,4.596764e+03
4.560840e+02,4.609985e+03
4.570482e+02,4.614037e+03
4.580125e+02,4.603934e+03
4.589767e+02,4.593802e+03
4.599409e+02,4.587041e+03
4.609052e+02,4.582192e+03
4.618694e+02,4.576390e+03
4.628336e+02,4.566473e+03
4.637979e+02,4.553547e+03
4.647621e+02,4.545977e+03
4.657263e+02,4.548817e+03
4.666906e+02,4.554764e+03
4.676548e+02,4.553897e+03
4.686190e+02,4.543385e+03
4.695833e+02,4.533596e+03
4.705475e+02,4.527255e+03
4.715117e+02,4.523046e+03
4.724760e+02,4.519817e+03
4.734402e+02,4.517549e+03
4.744044e+02,4.516106e+03
4.753687e+02,4.514697e+03
4.763329e+02,4.513404e+03
4.772971e+02,4.512255e+03
4.782614e+02,4.512488e+03
4.792256e+02,4.512869e+03
4.801898e+02,4.511354e+03
4.811541e+02,4.505308e+03
4.821183e+02,4.497226e+03
4.830826e+02,4.490679e+03
4.840468e+02,4.485368e+03
4.850110e+02,4.479976e+03
4.859753e+02,4.474054e+03
4.869395e+02,4.467263e+03
4.879037e+02,4.462604e+03
4.888680e+02,4.463151e+03
4.898322e+02,4.464142e+03
4.907964e+02,4.463119e+03
4.917607e+02,4.460352e+03
4.927249e+02,4.457435e+03
4.936891e+02,4.455632e+03
4.946534e+02,4.454860e+03
4.956176e+02,4.454306e+03
4.965818e+02,4.455538e+03
4.975461e+02,4.455786e+03
4.985103e+02,4.451641e+03
4.994745e+02,4.440769e+03
5.004388e+02,4.430544e+03
5.014030e+02,4.426695e+03
5.023672e+02,4.426607e+03
5.033315e+02,4.424856e+03
5.042957e+02,4.419370e+03
5.052599e+02,4.411500e+03
5.062242e+02,4.405557e+03
5.071884e+02,4.404666e+03
5.081526e+02,4.402815e+03
5.091169e+02,4.398142e+03
5.100811e+02,4.393800e+03
5.110453e+02,4.393017e+03
5.120095e+02,4.400622e+03
5.129738e+02,4.409344e+03
5.139380e+02,4.407308e+03
5.149022e+02,4.394887e+03
5.158665e+02,4.385491e+03
5.168307e+02,4.386091e+03
5.177949e+02,4.394162e+03
5.187592e+02,4.394692e+03
5.197234e+02,4.387685e+03
5.206876e+02,4.380869e+03
5.216519e+02,4.378541e+03
5.226161e+02,4.379621e+03
5.235803e+02,4.379417e+03
5.245446e+02,4.372921e+03
5.255088e+02,4.361122e+03
5.264730e+02,4.350894e+03
5.274373e+02,4.341752e+03
5.284015e+02,4.335095e+03
5.293657e+02,4.332904e+03
5.303300e+02,4.336142e+03
5.312942e+02,4.336375e+03
5.322584e+02,4.334658e+03
5.332227e+02,4.330932e+03
5.341869e+02,4.321301e+03
5.351511e+02,4.304765e+03
5.361154e+02,4.288518e+03
5.370796e+02,4.284772e+03
5.380438e+02,4.298356e+03
5.390081e+02,4.307411e+03
5.399723e+02,4.307201e+03
5.409365e+02,4.303120e+03
5.419008e+02,4.298646e+03
5.428650e+02,4.291697e+03
5.438292e+02,4.285857e+03
5.447935e+02,4.284188e+03
5.457577e+02,4.285246e+03
5.467219e+02,4.286971e+03
5.476862e+02,4.289231e+03
5.486504e+02,4.290027e+03
5.496146e+02,4.282761e+03
5.505789e+02,4.258691e+03
5.515431e+02,4.239779e+03
5.525073e+02,4.235542e+03
5.534716e+02,4.240580e+03
5.544358e+02,4.244755e+03
5.554000e+02,4.239379e+03
5.563643e+02,4.232584e+03
5.573285e+02,4.234943e+03
5.582927e+02,4.244513e+03
5.592570e+02,4.250525e+03
5.602212e+02,4.245940e+03
5.611854e+02,4.230548e+03
5.621497e+02,4.220368e+03
5.631139e+02,4.217373e+03
5.640781e+02,4.216012e+03
5.650424e+02,4.218686e+03
5.660066e+02,4.223904e+03
5.669708e+02,4.226043e+03
5.679351e+02,4.219895e+03
5.688993e+02,4.210022e+03
5.698635e+02,4.204598e+03
5.708278e+02,4.204811e+03
5.717920e+02,4.207158e+03
5.727562e+02,4.207595e+03
5.737205e+02,4.204542e+03
5.746847e+02,4.201180e+03
5.756489e+02,4.194867e+03
5.766132e+02,4.189229e+03
5.775774e+02,4.188388e+03
5.785416e+02,4.192569e+03
5.795059e+02,4.194801e+03
5.804701e+02,4.187349e+03
5.814343e+02,4.173316e+03
5.823986e+02,4.163105e+03
5.833628e+02,4.159363e+03
5.843270e+02,4.158480e+03
5.852913e+02,4.155139e+03
5.862555e+02,4.146151e+03
5.872197e+02,4.139548e+03
5.881840e+02,4.135093e+03
5.891482e+02,4.132183e+03
5.901124e+02,4.130556e+03
5.910767e+02,4.130179e+03
5.920409e+02,4.130984e+03
5.930051e+02,4.133369e+03
5.939694e+02,4.136607e+03
5.949336e+02,4.138292e+03
5.958978e+02,4.137627e+03
5.968621e+02,4.135360e+03
5.978263e+02,4.133538e+03
5.987905e+02,4.135084e+03
5.997548e+02,4.134817e+03
6.007190e+02,4.131576e+03
6.016832e+02,4.127414e+03
6.026475e+02,4.123787e+03
6.036117e+02,4.120159e+03
6.045759e+02,4.116721e+03
6.055402e+02,4.113928e+03
6.065044e+02,4.111137e+03
6.074686e+02,4.107657e+03
6.084329e+02,4.104044e+03
6.093971e+02,4.100610e+03
6.103613e+02,4.096887e+03
6.113256e+02,4.093212e+03
6.122899e+02,4.089294e+03
6.132541e+02,4.085465e+03
6.142183e+02,4.081154e+03
6.151826e+02,4.075677e+03
6.161468e+02,4.068330e+03
6.171110e+02,4.061667e+03
6.180753e+02,4.058930e+03
6.190395e+02,4.059285e+03
6.200037e+02,4.058051e+03
6.209680e+02,4.051626e+03
6.219322e+02,4.040982e+03
6.228964e+02,4.034738e+03
6.238607e+02,4.033565e+03
6.248249e+02,4.035775e+03
6.257891e+02,4.042491e+03
6.267534e+02,4.050770e+03
6.277176e+02,4.054952e+03
6.286818e+02,4.052371e+03
6.296461e+02,4.046961e+03
6.306103e+02,4.041722e+03
6.315745e+02,4.037170e+03
6.325388e+02,4.034255e+03
6.335030e+02,4.033624e+03
6.344672e+02,4.034817e+03
6.354315e+02,4.032601e+03
6.363957e+02,4.023323e+03
6.373599e+02,4.012690e+03
6.383242e+02,4.004857e+03
6.392884e+02,3.999960e+03
6.402526e+02,3.994610e+03
6.412169e+02,3.983829e+03
6.421811e+02,3.974263e+03
6.431453e+02,3.974534e+03
6.441096e+02,3.983781e+03
6.450738e+02,3.992956e+03
6.460380e+02,3.993668e+03
6.470023e+02,3.986552e+03
6.479665e+02,3.980939e+03
6.489307e+02,3.974934e+03
6.498950e+02,3.970870e+03
6.508592e+02,3.971926e+03
6.518234e+02,3.978404e+03
6.527877e+02,3.980357e+03
6.537519e+02,3.973773e+03
6.547161e+02,3.964552e+03
6.556804e+02,3.956866e+03
6.566446e+02,3.951417e+03
6.576088e+02,3.946654e+03
6.585731e+02,3.941242e+03
6.595373e+02,3.935218e+03
6.605015e+02,3.927934e+03
6.614658e+02,3.918100e+03
6.624300e+02,3.910681e+03
6.633942e+02,3.911232e+03
6.643585e+02,3.924370e+03
6.653227e+02,3.933115e+03
6.662869e+02,3.934696e+03
6.672512e+02,3.932984e+03
6.682154e+02,3.929917e+03
6.691796e+02,3.925395e+03
6.701439e+02,3.920072e+03
6.711081e+02,3.914765e+03
6.720723e+02,3.909179e+03
6.730366e+02,3.902749e+03
6.740008e+02,3.895784e+03
6.749650e+02,3.889011e+03
6.759293e+02,3.883099e+03
6.768935e+02,3.878356e+03
6.778577e+02,3.875361e+03
6.788220e+02,3.876936e+03
6.797862e+02,3.880346e+03
6.807504e+02,3.881790e+03
6.817147e+02,3.879356e+03
6.826789e+02,3.878273e+03
6.836431e+02,3.882743e+03
6.846074e+02,3.886895e+03
6.855716e+02,3.884442e+03
6.865358e+02,3.875130e+03
6.875001e+02,3.864383e+03
6.884643e+02,3.858629e+03
6.894285e+02,3.857966e+03
6.903928e+02,3.855154e+03
6.913570e+02,3.847504e+03
6.923212e+02,3.839391e+03
6.932855e+02,3.836418e+03
6.942497e+02,3.844230e+03
6.952139e+02,3.849214e+03
6.961782e+02,3.847855e+03
6.971424e+02,3.844934e+03
6.981066e+02,3.842893e+03
6.990709e+02,3.840811e+03
7.000351e+02,3.837737e+03
7.009993e+02,3.836807e+03
7.019636e+02,3.836880e+03
7.029278e+02,3.830928e+03
7.038920e+02,3.816961e+03
7.048563e+02,3.802955e+03
7.058205e+02,3.802229e+03
7.067847e+02,3.823663e+03
7.077490e+02,3.832874e+03
7.087132e+02,3.822908e+03
7.096774e+02,3.808719e+03
7.106417e+02,3.798174e+03
7.116059e+02,3.790402e+03
7.125701e+02,3.786456e+03
7.135344e+02,3.791165e+03
7.144986e+02,3.798566e+03
7.154628e+02,3.802994e+03
7.164271e+02,3.802975e+03
7.173913e+02,3.799578e+03
7.183555e+02,3.791279e+03
7.193198e+02,3.779613e+03
7.202840e+02,3.774857e+03
7.212482e+02,3.780485e+03
7.222125e+02,3.787164e+03
7.231767e+02,3.783582e+03
7.241409e+02,3.762155e+03
7.251052e+02,3.748582e+03
7.260694e+02,3.748226e+03
7.270336e+02,3.751039e+03
7.279979e+02,3.752984e+03
7.289621e+02,3.753545e+03
7.299263e+02,3.753875e+03
7.308906e+02,3.754862e+03
7.318548e+02,3.754937e+03
7.328190e+02,3.752551e+03
7.337833e+02,3.747726e+03
7.347475e+02,3.741978e+03
7.357117e+02,3.736262e+03
7.366760e+02,3.731554e+03
7.376402e+02,3.733323e+03
7.386044e+02,3.744964e+03
7.395687e+02,3.754635e+03
7.405329e+02,3.750239e+03
7.414971e+02,3.726036e+03
7.424614e+02,3.711128e+03
7.434256e+02,3.714743e+03
7.443898e+02,3.722487e+03
7.453541e+02,3.726118e+03
7.463183e+02,3.723725e+03
7.472825e+02,3.720185e+03
7.482468e+02,3.720007e+03
7.492110e+02,3.719083e+03
7.501752e+02,3.712991e+03
7.511395e+02,3.703727e+03
7.521037e+02,3.696528e+03
7.530679e+02,3.695737e+03
7.540322e+02,3.699136e+03
7.549964e+02,3.695828e+03
7.559606e+02,3.684048e+03
7.569249e+02,3.674776e+03
7.578891e+02,3.675997e+03
7.588533e+02,3.688832e+03
7.598176e+02,3.698532e+03
7.607818e+02,3.701954e+03
7.617460e+02,3.699503e+03
7.627103e+02,3.690452e+03
7.636745e+02,3.678036e+03
7.646387e+02,3.667609e+03
7.656030e+02,3.660076e+03
7.665672e+02,3.655897e+03
7.675314e+02,3.655657e+03
7.684957e+02,3.656101e+03
7.694599e+02,3.653222e+03
7.704241e+02,3.646258e+03
7.713884e+02,3.637677e+03
7.723526e+02,3.630237e+03
7.733168e+02,3.624479e+03
7.742811e+02,3.623007e+03
7.752453e+02,3.625402e+03
7.762095e+02,3.630174e+03
7.771738e+02,3.636228e+03
7.781380e+02,3.648658e+03
7.791022e+02,3.652825e+03
7.800665e+02,3.641877e+03
7.810307e+02,3.623572e+03
7.819949e+02,3.610114e+03
7.829592e+02,3.609845e+03
7.839234e+02,3.611813e+03
7.848876e+02,3.610428e+03
7.858519e+02,3.606524e+03
7.868161e+02,3.601553e+03
7.877803e+02,3.595563e+03
7.887446e+02,3.590381e+03
7.897088e+02,3.590134e+03
7.906730e+02,3.595500e+03
7.916373e+02,3.602979e+03
7.926015e+02,3.610395e+03
7.935657e+02,3.614315e+03
7.945300e+02,3.612071e+03
7.954942e+02,3.603412e+03
7.964584e+02,3.592971e+03
7.974227e+02,3.581509e+03
7.983869e+02,3.574085e+03
7.993511e+02,3.572617e+03
8.003154e+02,3.577810e+03
8.012796e+02,3.580844e+03
8.022438e+02,3.582678e+03
8.032081e+02,3.583241e+03
8.041723e+02,3.581847e+03
8.051365e+02,3.577747e+03
8.061008e+02,3.572037e+03
8.070650e+02,3.562621e+03
8.080292e+02,3.551706e+03
8.089935e+02,3.545104e+03
8.099577e+02,3.544596e+03
8.109219e+02,3.547351e+03
8.118862e+02,3.551090e+03
8.128504e+02,3.555660e+03
8.138146e+02,3.556666e+03
8.147789e+02,3.552928e+03
8.157431e+02,3.546230e+03
8.167073e+02,3.538395e+03
8.176716e+02,3.530894e+03
8.186358e+02,3.525003e+03
8.196000e+02,3.518598e+03
8.205643e+02,3.515375e+03
8.215285e+02,3.516449e+03
8.224927e+02,3.521091e+03
8.234570e+02,3.525271e+03
8.244212e+02,3.530436e+03
8.253854e+02,3.532984e+03
8.263497e+02,3.527862e+03
8.273139e+02,3.516473e+03
8.282781e+02,3.505453e+03
8.292424e+02,3.501006e+03
8.302066e+02,3.500628e+03
8.311708e+02,3.499400e+03
8.321351e+02,3.497631e+03
8.330993e+02,3.497402e+03
8.340635e+02,3.499805e+03
8.350278e+02,3.502644e+03
8.359920e+02,3.499429e+03
8.369562e+02,3.488899e+03
8.379205e+02,3.479280e+03
8.388847e+02,3.472055e+03
8.398489e+02,3.468271e+03
8.408132e+02,3.470328e+03
8.417774e+02,3.487225e+03
8.427416e+02,3.495868e+03
8.437059e+02,3.488655e+03
8.446701e+02,3.475211e+03
8.456343e+02,3.465675e+03
8.465986e+02,3.461367e+03
8.475628e+02,3.460168e+03
8.485270e+02,3.465521e+03
8.494913e+02,3.471341e+03
8.504555e+02,3.470418e+03
8.514197e+02,3.461268e+03
8.523840e+02,3.453267e+03
8.533482e+02,3.455023e+03
8.543124e+02,3.461901e+03
8.552767e+02,3.466420e+03
8.562409e+02,3.467171e+03
8.572051e+02,3.465042e+03
8.581694e+02,3.462097e+03
8.591336e+02,3.458595e+03
8.600978e+02,3.450607e+03
8.610621e+02,3.437364e+03
8.620263e+02,3.425495e+03
8.629905e+02,3.419110e+03
8.639548e+02,3.417241e+03
8.649190e+02,3.414929e+03
8.658832e+02,3.415172e+03
8.668475e+02,3.414269e+03
8.678117e+02,3.407556e+03
8.687759e+02,3.396655e+03
8.697402e+02,3.392960e+03
8.707044e+02,3.403289e+03
8.716686e+02,3.410684e+03
8.726329e+02,3.410122e+03
8.735971e+02,3.404979e+03
8.745613e+02,3.400322e+03
8.755256e+02,3.398631e+03
8.764898e+02,3.399371e+03
8.774540e+02,3.402771e+03
8.784183e+02,3.406904e+03
8.793825e+02,3.408797e+03
8.803467e+02,3.407106e+03
8.813110e+02,3.403444e+03
8.822752e+02,3.399988e+03
8.832394e+02,3.397320e+03
8.842037e+02,3.395465e+03
8.851679e+02,3.393713e+03
8.861321e+02,3.389916e+03
8.870964e+02,3.380075e+03
8.880606e+02,3.363416e+03
8.890248e+02,3.352417e+03
8.899891e+02,3.350571e+03
8.909533e+02,3.353290e+03
8.919175e+02,3.356024e+03
8.928818e+02,3.359112e+03
8.938460e+02,3.360253e+03
8.948102e+02,3.356048e+03
8.957745e+02,3.351861e+03
8.967387e+02,3.352027e+03
8.977029e+02,3.355541e+03
8.986672e+02,3.356250e+03
8.996314e+02,3.354407e+03
9.005956e+02,3.352663e+03
9.015599e+02,3.352200e+03
9.025241e+02,3.351665e+03
9.034883e+02,3.348730e+03
9.044526e+02,3.339615e+03
9.054168e+02,3.328990e+03
9.063810e+02,3.321463e+03
9.073453e+02,3.317959e+03
9.083095e+02,3.317049e+03
9.092737e+02,3.317124e+03
9.102380e+02,3.317642e+03
9.112022e+02,3.318826e+03
9.121664e+02,3.320193e+03
9.131307e+02,3.321902e+03
9.140949e+02,3.325262e+03
9.150591e+02,3.329011e+03
9.160234e+02,3.327922e+03
9.169876e+02,3.321001e+03
9.179518e+02,3.315016e+03
9.189161e+02,3.311221e+03
9.198803e+02,3.307646e+03
9.208445e+02,3.302969e+03
9.218088e+02,3.297930e+03
9.227730e+02,3.295240e+03
9.237372e+02,3.294802e+03
9.247015e+02,3.294703e+03
9.256657e+02,3.294440e+03
9.266299e+02,3.293885e+03
9.275942e+02,3.289967e+03
9.285584e+02,3.277032e+03
9.295226e+02,3.266072e+03
9.304869e+02,3.262909e+03
9.314511e+02,3.265816e+03
9.324153e+02,3.267579e+03
9.333796e+02,3.267364e+03
9.343438e+02,3.266075e+03
9.353080e+02,3.261615e+03
9.362723e+02,3.255368e+03
9.372365e+02,3.250979e+03
9.382007e+02,3.253592e+03
9.391650e+02,3.255709e+03
9.401292e+02,3.253314e+03
9.410934e+02,3.248315e+03
9.420577e+02,3.240790e+03
9.430219e+02,3.230133e+03
9.439861e+02,3.222274e+03
9.449504e+02,3.225318e+03
9.459146e+02,3.234924e+03
9.468788e+02,3.244301e+03
9.478431e+02,3.250314e+03
9.488073e+02,3.250708e+03
9.497715e+02,3.241888e+03
9.507358e+02,3.228971e+03
9.517000e+02,3.224202e+03
9.526642e+02,3.227972e+03
9.536285e+02,3.230714e+03
9.545927e+02,3.224719e+03
9.555569e+02,3.213124e+03
9.565212e+02,3.206395e+03
9.574854e+02,3.205682e+03
9.584496e+02,3.208387e+03
9.594139e+02,3.212852e+03
9.603781e+02,3.216948e+03
9.613423e+02,3.217387e+03
9.623066e+02,3.213703e+03
9.632708e+02,3.209360e+03
9.642350e+02,3.205469e+03
9.651993e+02,3.202445e+03
9.661635e+02,3.199602e+03
9.671277e+02,3.195220e+03
9.680920e+02,3.192493e+03
9.690562e+02,3.192568e+03
9.700204e+02,3.192623e+03
9.709847e+02,3.191990e+03
9.719489e+02,3.192037e+03
9.729131e+02,3.189523e+03
9.738774e+02,3.181539e+03
9.748416e+02,3.175529e+03
9.758058e+02,3.173477e+03
9.767701e+02,3.174143e+03
9.777343e+02,3.175712e+03
9.786985e+02,3.181059e+03
9.796628e+02,3.183033e+03
9.806270e+02,3.178308e+03
9.815912e+02,3.169218e+03
9.825555e+02,3.159778e+03
9.835197e+02,3.150490e+03
9.844839e+02,3.144649e+03
9.854482e+02,3.146086e+03
9.864124e+02,3.151019e+03
9.873766e+02,3.154084e+03
9.883409e+02,3.153942e+03
9.893051e+02,3.154683e+03
9.902693e+02,3.161611e+03
9.912336e+02,3.169371e+03
9.921978e+02,3.169810e+03
9.931620e+02,3.161983e+03
9.941263e+02,3.153296e+03
9.950905e+02,3.149032e+03
9.960547e+02,3.147448e+03
9.970190e+02,3.147694e+03
9.979832e+02,3.148428e+03
9.989474e+02,3.146344e+03
9.999117e+02,3.140112e+03
1.000876e+03,3.131927e+03
1.001840e+03,3.123029e+03
1.002804e+03,3.115022e+03
1.003769e+03,3.111331e+03
1.004733e+03,3.112737e+03
1.005697e+03,3.115829e+03
1.006661e+03,3.116040e+03
1.007626e+03,3.114277e+03
1.008590e+03,3.113639e+03
1.009554e+03,3.114003e+03
1.010518e+03,3.114065e+03
1.011482e+03,3.113898e+03
1.012447e+03,3.113161e+03
1.013411e+03,3.109593e+03
1.014375e+03,3.104534e+03
1.015339e+03,3.098425e+03
1.016304e+03,3.089092e+03
1.017268e+03,3.077908e+03
1.018232e+03,3.076656e+03
1.019196e+03,3.086531e+03
1.020161e+03,3.093460e+03
1.021125e+03,3.091919e+03
1.022089e+03,3.085758e+03
1.023053e+03,3.082232e+03
1.024018e+03,3.080147e+03
1.024982e+03,3.081578e+03
1.025946e+03,3.088323e+03
1.026910e+03,3.093994e+03
1.027875e+03,3.091140e+03
1.028839e+03,3.077928e+03
1.029803e+03,3.069707e+03
1.030767e+03,3.068689e+03
1.031731e+03,3.069331e+03
1.032696e+03,3.066663e+03
1.033660e+03,3.060086e+03
1.034624e+03,3.057762e+03
1.035588e+03,3.064096e+03
1.036552e+03,3.069142e+03
1.037517e+03,3.067641e+03
1.038481e+03,3.060448e+03
1.039445e+03,3.053894e+03
1.040409e+03,3.046312e+03
1.041374e+03,3.042630e+03
1.042338e+03,3.047948e+03
1.043302e+03,3.056301e+03
1.044266e+03,3.058927e+03
1.045231e+03,3.050546e+03
1.046195e+03,3.045195e+03
1.047159e+03,3.047633e+03
1.048123e+03,3.050275e+03
1.049088e+03,3.046204e+03
1.050052e+03,3.034497e+03
1.051016e+03,3.031487e+03
1.051980e+03,3.046763e+03
1.052945e+03,3.060099e+03
1.053909e+03,3.061746e+03
1.054873e+03,3.052984e+03
1.055837e+03,3.044341e+03
1.056802e+03,3.037813e+03
1.057766e+03,3.031852e+03
1.058730e+03,3.027116e+03
1.059694e+03,3.023078e+03
1.060658e+03,3.018378e+03
1.061623e+03,3.012135e+03
1.062587e+03,3.008308e+03
1.063551e+03,3.009115e+03
1.064515e+03,3.011428e+03
1.065479e+03,3.013123e+03
1.066444e+03,3.014718e+03
1.067408e+03,3.014496e+03
1.068372e+03,3.007246e+03
1.069336e+03,3.003026e+03
1.070301e+03,3.008146e+03
1.071265e+03,3.018385e+03
1.072229e+03,3.022809e+03
1.073193e+03,3.013298e+03
1.074158e+03,3.005165e+03
1.075122e+03,3.003849e+03
1.076086e+03,3.005555e+03
1.077050e+03,3.006504e+03
1.078015e+03,3.008514e+03
1.078979e+03,3.009081e+03
1.079943e+03,3.002679e+03
1.080907e+03,2.997574e+03
1.081872e+03,3.000652e+03
1.082836e+03,3.011609e+03
1.083800e+03,3.017585e+03
1.084764e+03,3.012998e+03
1.085729e+03,3.007409e+03
1.086693e+03,3.002676e+03
1.087657e+03,2.999700e+03
1.088621e+03,3.000919e+03
1.089585e+03,3.012206e+03
1.090550e+03,3.019668e+03
1.091514e+03,3.021683e+03
1.092478e+03,3.019606e+03
1.093442e+03,3.013223e+03
1.094406e+03,2.999820e+03
1.095371e+03,2.991345e+03
1.096335e+03,2.993630e+03
1.097299e+03,2.997467e+03
1.098263e+03,2.996406e+03
1.099228e+03,2.990140e+03
1.100192e+03,2.985956e+03
1.101156e+03,2.988228e+03
1.102120e+03,2.988918e+03
1.103085e+03,2.983692e+03
1.104049e+03,2.975355e+03
1.105013e+03,2.969622e+03
1.105977e+03,2.970709e+03
1.106942e+03,2.970555e+03
1.107906e+03,2.967301e+03
1.108870e+03,2.962983e+03
1.109834e+03,2.958979e+03
1.110799e+03,2.955056e+03
1.111763e+03,2.953075e+03
1.112727e+03,2.955479e+03
1.113691e+03,2.958651e+03
1.114656e+03,2.959867e+03
1.115620e+03,2.959508e+03
1.116584e+03,2.960882e+03
1.117548e+03,2.964983e+03
1.118512e+03,2.967427e+03
1.119477e+03,2.967200e+03
1.120441e+03,2.965052e+03
1.121405e+03,2.962543e+03
1.122369e+03,2.961665e+03
1.123334e+03,2.957674e+03
1.124298e+03,2.949745e+03
1.125262e+03,2.940405e+03
1.126226e+03,2.930120e+03
1.127191e+03,2.918190e+03
1.128155e+03,2.913799e+03
1.129119e+03,2.921766e+03
1.130083e+03,2.929265e+03
1.131047e+03,2.931168e+03
1.132012e+03,2.928313e+03
1.132976e+03,2.925599e+03
1.133940e+03,2.923434e+03
1.134904e+03,2.920234e+03
1.135869e+03,2.916153e+03
1.136833e+03,2.912311e+03
1.137797e+03,2.909752e+03
1.138761e+03,2.909491e+03
1.139726e+03,2.910579e+03
1.140690e+03,2.913591e+03
1.141654e+03,2.915435e+03
1.142618e+03,2.913553e+03
1.143583e+03,2.908762e+03
1.144547e+03,2.906252e+03
1.145511e+03,2.906693e+03
1.146475e+03,2.906207e+03
1.147439e+03,2.902860e+03
1.148404e+03,2.899414e+03
1.149368e+03,2.900784e+03
1.150332e+03,2.907435e+03
1.151296e+03,2.910136e+03
1.152261e+03,2.906247e+03
1.153225e+03,2.898456e+03
1.154189e+03,2.889978e+03
1.155153e+03,2.882460e+03
1.156118e+03,2.881615e+03
1.157082e+03,2.888600e+03
1.158046e+03,2.894029e+03
1.159010e+03,2.892166e+03
1.159974e+03,2.886074e+03
1.160939e+03,2.880954e+03
1.161903e+03,2.876559e+03
1.162867e+03,2.876129e+03
1.163831e+03,2.880352e+03
1.164796e+03,2.884847e+03
1.165760e+03,2.887034e+03
1.166724e+03,2.886726e+03
1.167688e+03,2.879871e+03
1.168653e+03,2.867746e+03
1.169617e+03,2.859021e+03
1.170581e+03,2.861757e+03
1.171545e+03,2.868421e+03
1.172510e+03,2.867974e+03
1.173474e+03,2.862740e+03
1.174438e+03,2.857036e+03
1.175402e+03,2.851725e+03
1.176366e+03,2.846281e+03
1.177331e+03,2.839663e+03
1.178295e+03,2.833651e+03
1.179259e+03,2.830275e+03
1.180223e+03,2.828871e+03
1.181188e+03,2.827422e+03
1.182152e+03,2.825236e+03
1.183116e+03,2.822497e+03
1.184080e+03,2.820683e+03
1.185045e+03,2.819222e+03
1.186009e+03,2.815747e+03
1.186973e+03,2.807600e+03
1.187937e+03,2.803780e+03
1.188901e+03,2.811516e+03
1.189866e+03,2.821634e+03
1.190830e+03,2.826029e+03
1.191794e+03,2.823187e+03
1.192758e+03,2.819048e+03
1.193723e+03,2.813763e+03
1.194687e+03,2.810805e+03
1.195651e+03,2.812795e+03
1.196615e+03,2.817289e+03
1.197580e+03,2.818249e+03
1.198544e+03,2.809930e+03
1.199508e+03,2.802899e+03
1.200472e+03,2.801550e+03
1.201437e+03,2.800645e+03
1.202401e+03,2.795374e+03
1.203365e+03,2.785334e+03
1.204329e+03,2.780310e+03
1.205293e+03,2.781437e+03
1.206258e+03,2.783560e+03
1.207222e+03,2.783568e+03
1.208186e+03,2.782851e+03
1.209150e+03,2.787943e+03
1.210115e+03,2.799102e+03
1.211079e+03,2.804351e+03
1.212043e+03,2.801297e+03
1.213007e+03,2.794285e+03
1.213972e+03,2.788377e+03
1.214936e+03,2.784239e+03
1.215900e+03,2.781266e+03
1.216864e+03,2.779551e+03
1.217828e+03,2.779518e+03
1.218793e+03,2.782732e+03
1.219757e+03,2.785938e+03
1.220721e+03,2.781617e+03
1.221685e+03,2.773015e+03
1.222650e+03,2.767520e+03
1.223614e+03,2.766203e+03
1.224578e+03,2.766201e+03
1.225542e+03,2.769364e+03
1.226507e+03,2.771552e+03
1.227471e+03,2.763867e+03
1.228435e+03,2.748480e+03
1.229399e+03,2.738161e+03
1.230364e+03,2.748544e+03
1.231328e+03,2.756796e+03
1.232292e+03,2.748804e+03
1.233256e+03,2.734423e+03
1.234220e+03,2.724543e+03
1.235185e+03,2.722337e+03
1.236149e+03,2.723386e+03
1.237113e+03,2.730791e+03
1.238077e+03,2.738238e+03
1.239042e+03,2.739237e+03
1.240006e+03,2.733630e+03
1.240970e+03,2.730781e+03
1.241934e+03,2.733387e+03
1.242899e+03,2.733628e+03
1.243863e+03,2.729740e+03
1.244827e+03,2.724535e+03
1.245791e+03,2.721826e+03
1.246755e+03,2.722519e+03
1.247720e+03,2.720096e+03
1.248684e+03,2.714229e+03
1.249648e+03,2.707741e+03
1.250612e+03,2.700878e+03
1.251577e+03,2.694973e+03
1.252541e+03,2.697612e+03
1.253505e+03,2.707294e+03
1.254469e+03,2.714597e+03
1.255434e+03,2.717262e+03
1.256398e+03,2.717825e+03
1.257362e+03,2.717977e+03
1.258326e+03,2.717031e+03
1.259291e+03,2.714209e+03
1.260255e+03,2.709448e+03
1.261219e+03,2.704331e+03
1.262183e+03,2.703224e+03
1.263147e+03,2.701885e+03
1.264112e+03,2.693498e+03
1.265076e+03,2.683563e+03
1.266040e+03,2.680234e+03
1.267004e+03,2.687371e+03
1.267969e+03,2.694941e+03
1.268933e+03,2.704300e+03
1.269897e+03,2.711527e+03
1.270861e+03,2.709768e+03
1.271826e+03,2.698409e+03
1.272790e+03,2.691865e+03
1.273754e+03,2.694743e+03
1.274718e+03,2.696555e+03
1.275682e+03,2.696504e+03
1.276647e+03,2.695774e+03
1.277611e+03,2.694769e+03
1.278575e+03,2.692959e+03
1.279539e+03,2.692573e+03
1.280504e+03,2.695517e+03
1.281468e+03,2.696974e+03
1.282432e+03,2.692158e+03
1.283396e+03,2.684764e+03
1.284361e+03,2.684807e+03
1.285325e+03,2.689985e+03
1.286289e+03,2.693101e+03
1.287253e+03,2.692147e+03
1.288218e+03,2.689792e+03
1.289182e+03,2.689928e+03
1.290146e+03,2.690071e+03
1.291110e+03,2.687333e+03
1.292074e+03,2.682204e+03
1.293039e+03,2.675960e+03
1.294003e+03,2.666105e+03
1.294967e+03,2.657881e+03
1.295931e+03,2.655387e+03
1.296896e+03,2.656081e+03
1.297860e+03,2.656405e+03
1.298824e+03,2.654678e+03
1.299788e+03,2.656292e+03
1.300753e+03,2.665018e+03
1.301717e+03,2.671046e+03
1.302681e+03,2.669337e+03
1.303645e+03,2.662999e+03
1.304609e+03,2.661601e+03
1.305574e+03,2.665193e+03
1.306538e+03,2.665597e+03
1.307502e+03,2.662546e+03
1.308466e+03,2.659427e+03
1.309431e+03,2.658788e+03
1.310395e+03,2.660083e+03
1.311359e+03,2.660901e+03
1.312323e+03,2.660441e+03
1.313288e+03,2.660011e+03
1.314252e+03,2.661720e+03
1.315216e+03,2.664679e+03
1.316180e+03,2.667238e+03
1.317145e+03,2.669789e+03
1.318109e+03,2.672025e+03
1.319073e+03,2.672937e+03
1.320037e+03,2.672893e+03
1.321001e+03,2.672897e+03
1.321966e+03,2.671364e+03
1.322930e+03,2.668720e+03
1.323894e+03,2.665413e+03
1.324858e+03,2.660507e+03
1.325823e+03,2.651118e+03
1.326787e+03,2.646775e+03
1.327751e+03,2.648398e+03
1.328715e+03,2.651135e+03
1.329680e+03,2.652724e+03
1.330644e+03,2.653210e+03
1.331608e+03,2.651509e+03
1.332572e+03,2.647634e+03
1.333536e+03,2.645141e+03
1.334501e+03,2.644712e+03
1.335465e+03,2.644266e+03
1.336429e+03,2.642235e+03
1.337393e+03,2.640230e+03
1.338358e+03,2.641182e+03
1.339322e+03,2.644122e+03
1.340286e+03,2.644608e+03
1.341250e+03,2.640940e+03
1.342215e+03,2.633664e+03
1.343179e+03,2.620227e+03
1.344143e+03,2.607551e+03
1.345107e+03,2.602181e+03
1.346072e+03,2.605843e+03
1.347036e+03,2.606815e+03
1.348000e+03,2.603116e+03
1.348964e+03,2.599075e+03
1.349928e+03,2.597914e+03
1.350893e+03,2.597729e+03
1.351857e+03,2.589672e+03
1.352821e+03,2.573806e+03
1.353785e+03,2.568760e+03
1.354750e+03,2.576602e+03
1.355714e+03,2.585811e+03
1.356678e+03,2.588996e+03
1.357642e+03,2.588423e+03
1.358607e+03,2.583180e+03
1.359571e+03,2.575691e+03
1.360535e+03,2.572405e+03
1.361499e+03,2.577515e+03
1.362464e+03,2.582397e+03
1.363428e+03,2.584962e+03
1.364392e+03,2.585226e+03
1.365356e+03,2.579489e+03
1.366320e+03,2.567839e+03
1.367285e+03,2.562635e+03
1.368249e+03,2.569437e+03
1.369213e+03,2.571915e+03
1.370177e+03,2.565709e+03
1.371142e+03,2.557409e+03
1.372106e+03,2.555865e+03
1.373070e+03,2.559789e+03
1.374034e+03,2.558974e+03
1.374999e+03,2.554402e+03
1.375963e+03,2.550441e+03
1.376927e+03,2.548683e+03
1.377891e+03,2.549098e+03
1.378855e+03,2.555756e+03
1.379820e+03,2.561649e+03
1.380784e+03,2.555088e+03
1.381748e+03,2.535462e+03
1.382712e+03,2.522830e+03
1.383677e+03,2.527934e+03
1.384641e+03,2.532882e+03
1.385605e+03,2.531316e+03
1.386569e+03,2.525989e+03
1.387534e+03,2.521390e+03
1.388498e+03,2.517905e+03
1.389462e+03,2.514504e+03
1.390426e+03,2.510420e+03
1.391391e+03,2.506549e+03
1.392355e+03,2.504094e+03
1.393319e+03,2.503306e+03
1.394283e+03,2.504834e+03
1.395247e+03,2.507012e+03
1.396212e+03,2.506050e+03
1.397176e+03,2.500959e+03
1.398140e+03,2.496846e+03
1.399104e+03,2.495562e+03
1.400069e+03,2.496293e+03
1.401033e+03,2.501747e+03
1.401997e+03,2.508727e+03
1.402961e+03,2.508432e+03
1.403926e+03,2.495534e+03
1.404890e+03,2.486769e+03
1.405854e+03,2.484072e+03
1.406818e+03,2.484469e+03
1.407782e+03,2.487001e+03
1.408747e+03,2.491000e+03
1.409711e+03,2.491321e+03
1.410675e+03,2.487199e+03
1.411639e+03,2.480685e+03
1.412604e+03,2.472411e+03
1.413568e+03,2.465763e+03
1.414532e+03,2.464482e+03
1.415496e+03,2.466786e+03
1.416461e+03,2.472463e+03
1.417425e+03,2.478960e+03
1.418389e+03,2.480347e+03
1.419353e+03,2.470785e+03
1.420318e+03,2.463629e+03
1.421282e+03,2.461184e+03
1.422246e+03,2.461426e+03
1.423210e+03,2.463789e+03
1.424174e+03,2.467474e+03
1.425139e+03,2.461693e+03
1.426103e+03,2.447474e+03
1.427067e+03,2.440164e+03
1.428031e+03,2.446091e+03
1.428996e+03,2.454639e+03
1.429960e+03,2.454812e+03
1.430924e+03,2.451890e+03
1.431888e+03,2.452408e+03
1.432853e+03,2.455606e+03
1.433817e+03,2.455066e+03
1.434781e+03,2.445129e+03
1.435745e+03,2.438691e+03
1.436709e+03,2.437769e+03
1.437674e+03,2.437469e+03
1.438638e+03,2.433509e+03
1.439602e+03,2.427417e+03
1.440566e+03,2.429799e+03
1.441531e+03,2.439225e+03
1.442495e+03,2.443312e+03
1.443459e+03,2.436298e+03
1.444423e+03,2.426673e+03
1.445388e+03,2.421284e+03
1.446352e+03,2.417960e+03
1.447316e+03,2.415554e+03
1.448280e+03,2.414783e+03
1.449245e+03,2.415199e+03
1.450209e+03,2.418001e+03
1.451173e+03,2.419987e+03
1.452137e+03,2.419230e+03
1.453101e+03,2.416986e+03
1.454066e+03,2.415095e+03
1.455030e+03,2.413676e+03
1.455994e+03,2.412523e+03
1.456958e+03,2.411716e+03
1.457923e+03,2.412706e+03
1.458887e+03,2.416200e+03
1.459851e+03,2.417588e+03
1.460815e+03,2.408527e+03
1.461780e+03,2.398215e+03
1.462744e+03,2.398983e+03
1.463708e+03,2.409538e+03
1.464672e+03,2.412738e+03
1.465636e+03,2.403850e+03
1.466601e+03,2.396677e+03
1.467565e+03,2.392091e+03
1.468529e+03,2.391170e+03
1.469493e+03,2.396963e+03
1.470458e+03,2.405866e+03
1.471422e+03,2.403737e+03
1.472386e+03,2.394081e+03
1.473350e+03,2.388578e+03
1.474315e+03,2.392031e+03
1.475279e+03,2.395184e+03
1.476243e+03,2.392129e+03
1.477207e+03,2.385915e+03
1.478172e+03,2.377235e+03
1.479136e+03,2.368238e+03
1.480100e+03,2.367098e+03
1.481064e+03,2.377605e+03
1.482028e+03,2.381401e+03
1.482993e+03,2.375783e+03
1.483957e+03,2.368135e+03
1.484921e+03,2.363216e+03
1.485885e+03,2.360964e+03
1.486850e+03,2.363088e+03
1.487814e+03,2.366672e+03
1.488778e+03,2.366438e+03
1.489742e+03,2.360047e+03
1.490707e+03,2.353984e+03
1.491671e+03,2.354142e+03
1.492635e+03,2.353074e+03
1.493599e+03,2.343929e+03
1.494563e+03,2.331502e+03
1.495528e+03,2.332454e+03
1.496492e+03,2.345749e+03
1.497456e+03,2.351141e+03
1.498420e+03,2.347191e+03
1.499385e+03,2.341357e+03
1.500349e+03,2.337438e+03
1.501313e+03,2.335977e+03
1.502277e+03,2.338400e+03
1.503242e+03,2.342426e+03
1.504206e+03,2.345318e+03
1.505170e+03,2.346917e+03
1.506134e+03,2.343112e+03
1.507099e+03,2.330997e+03
1.508063e+03,2.322567e+03
1.509027e+03,2.323403e+03
1.509991e+03,2.327698e+03
1.510955e+03,2.326195e+03
1.511920e+03,2.320355e+03
1.512884e+03,2.312253e+03
1.513848e+03,2.303932e+03
1.514812e+03,2.300195e+03
1.515777e+03,2.304507e+03
1.516741e+03,2.308967e+03
1.517705e+03,2.311973e+03
1.518669e+03,2.312577e+03
1.519634e+03,2.309344e+03
1.520598e+03,2.302333e+03
1.521562e+03,2.301512e+03
1.522526e+03,2.305850e+03
1.523490e+03,2.308831e+03
1.524455e+03,2.308587e+03
1.525419e+03,2.306458e+03
1.526383e+03,2.303714e+03
1.527347e+03,2.299944e+03
1.528312e+03,2.294582e+03
1.529276e+03,2.289347e+03
1.530240e+03,2.287490e+03
1.531204e+03,2.289403e+03
1.532169e+03,2.291183e+03
1.533133e+03,2.292700e+03
1.534097e+03,2.293446e+03
1.535061e+03,2.291919e+03
1.536026e+03,2.289802e+03
1.536990e+03,2.292742e+03
1.537954e+03,2.297839e+03
1.538918e+03,2.298772e+03
1.539882e+03,2.293304e+03
1.540847e+03,2.288548e+03
1.541811e+03,2.286708e+03
1.542775e+03,2.283836e+03
1.543739e+03,2.278947e+03
1.544704e+03,2.274474e+03
1.545668e+03,2.275663e+03
1.546632e+03,2.280786e+03
1.547596e+03,2.278953e+03
1.548561e+03,2.270989e+03
1.549525e+03,2.265975e+03
1.550489e+03,2.270310e+03
1.551453e+03,2.275004e+03
1.552417e+03,2.275530e+03
1.553382e+03,2.274865e+03
1.554346e+03,2.276226e+03
1.555310e+03,2.279666e+03
1.556274e+03,2.282587e+03
1.557239e+03,2.284711e+03
1.558203e+03,2.283726e+03
1.559167e+03,2.279079e+03
1.560131e+03,2.271923e+03
1.561096e+03,2.258197e+03
1.562060e+03,2.247725e+03
1.563024e+03,2.252155e+03
1.563988e+03,2.265129e+03
1.564953e+03,2.270890e+03
1.565917e+03,2.265177e+03
1.566881e+03,2.265323e+03
1.567845e+03,2.272051e+03
1.568809e+03,2.276096e+03
1.569774e+03,2.271794e+03
1.570738e+03,2.264422e+03
1.571702e+03,2.260003e+03
1.572666e+03,2.257351e+03
1.573631e+03,2.255255e+03
1.574595e+03,2.254234e+03
1.575559e+03,2.254087e+03
1.576523e+03,2.254330e+03
1.577488e+03,2.258034e+03
1.578452e+03,2.266014e+03
1.579416e+03,2.271567e+03
1.580380e+03,2.264803e+03
1.581344e+03,2.253170e+03
1.582309e+03,2.252303e+03
1.583273e+03,2.258661e+03
1.584237e+03,2.262766e+03
1.585201e+03,2.262383e+03
1.586166e+03,2.257723e+03
1.587130e+03,2.243442e+03
1.588094e+03,2.235037e+03
1.589058e+03,2.242670e+03
1.590023e+03,2.255814e+03
1.590987e+03,2.250124e+03
1.591951e+03,2.234177e+03
1.592915e+03,2.226734e+03
1.593880e+03,2.227958e+03
1.594844e+03,2.228805e+03
1.595808e+03,2.224232e+03
1.596772e+03,2.221591e+03
1.597736e+03,2.223916e+03
1.598701e+03,2.227663e+03
1.599665e+03,2.229659e+03
1.600629e+03,2.229963e+03
1.601593e+03,2.228065e+03
1.602558e+03,2.224741e+03
1.603522e+03,2.222695e+03
1.604486e+03,2.222942e+03
1.605450e+03,2.222020e+03
1.606415e+03,2.217716e+03
1.607379e+03,2.214741e+03
1.608343e+03,2.214977e+03
1.609307e+03,2.216352e+03
1.610271e+03,2.215062e+03
1.611236e+03,2.211649e+03
1.612200e+03,2.210559e+03
1.613164e+03,2.212063e+03
1.614128e+03,2.212815e+03
1.615093e+03,2.209425e+03
1.616057e+03,2.206198e+03
1.617021e+03,2.204671e+03
1.617985e+03,2.202250e+03
1.618950e+03,2.197813e+03
1.619914e+03,2.191992e+03
1.620878e+03,2.186628e+03
1.621842e+03,2.181989e+03
1.622807e+03,2.177949e+03
1.623771e+03,2.174892e+03
1.624735e+03,2.173130e+03
1.625699e+03,2.172541e+03
1.626663e+03,2.171819e+03
1.627628e+03,2.170469e+03
1.628592e+03,2.167198e+03
1.629556e+03,2.161090e+03
1.630520e+03,2.153957e+03
1.631485e+03,2.150435e+03
1.632449e+03,2.149854e+03
1.633413e+03,2.150327e+03
1.634377e+03,2.152625e+03
1.635342e+03,2.152630e+03
1.636306e+03,2.147413e+03
1.637270e+03,2.141018e+03
1.638234e+03,2.133737e+03
1.639198e+03,2.128039e+03
1.640163e+03,2.131990e+03
1.641127e+03,2.141753e+03
1.642091e+03,2.140625e+03
1.643055e+03,2.127708e+03
1.644020e+03,2.118344e+03
1.644984e+03,2.122332e+03
1.645948e+03,2.125973e+03
1.646912e+03,2.127950e+03
1.647877e+03,2.127278e+03
1.648841e+03,2.121560e+03
1.649805e+03,2.113730e+03
1.650769e+03,2.113941e+03
1.651734e+03,2.118933e+03
1.652698e+03,2.121136e+03
1.653662e+03,2.117625e+03
1.654626e+03,2.113860e+03
1.655590e+03,2.110548e+03
1.656555e+03,2.108895e+03
1.657519e+03,2.110914e+03
1.658483e+03,2.113866e+03
1.659447e+03,2.111833e+03
1.660412e+03,2.106355e+03
1.661376e+03,2.101885e+03
1.662340e+03,2.099066e+03
1.663304e+03,2.097191e+03
1.664269e+03,2.095098e+03
1.665233e+03,2.093409e+03
1.666197e+03,2.091954e+03
1.667161e+03,2.089251e+03
1.668125e+03,2.084938e+03
1.669090e+03,2.079575e+03
1.670054e+03,2.070838e+03
1.671018e+03,2.063726e+03
1.671982e+03,2.068923e+03
1.672947e+03,2.085938e+03
1.673911e+03,2.090892e+03
1.674875e+03,2.078542e+03
1.675839e+03,2.067121e+03
1.676804e+03,2.060024e+03
1.677768e+03,2.057634e+03
1.678732e+03,2.062218e+03
1.679696e+03,2.067848e+03
1.680661e+03,2.069238e+03
1.681625e+03,2.067091e+03
1.682589e+03,2.063751e+03
1.683553e+03,2.060060e+03
1.684517e+03,2.058916e+03
1.685482e+03,2.059924e+03
1.686446e+03,2.060227e+03
1.687410e+03,2.059020e+03
1.688374e+03,2.056231e+03
1.689339e+03,2.049293e+03
1.690303e+03,2.043160e+03
1.691267e+03,2.040017e+03
1.692231e+03,2.040427e+03
1.693196e+03,2.047304e+03
1.694160e+03,2.058188e+03
1.695124e+03,2.058060e+03
1.696088e+03,2.048631e+03
1.697052e+03,2.040620e+03
1.698017e+03,2.036263e+03
1.698981e+03,2.035994e+03
1.699945e+03,2.043078e+03
1.700909e+03,2.047116e+03
1.701874e+03,2.043664e+03
1.702838e+03,2.036817e+03
1.703802e+03,2.030357e+03
1.704766e+03,2.025245e+03
1.705731e+03,2.028373e+03
1.706695e+03,2.039749e+03
1.707659e+03,2.042084e+03
1.708623e+03,2.027683e+03
1.709588e+03,2.020610e+03
1.710552e+03,2.023850e+03
1.711516e+03,2.027914e+03
1.712480e+03,2.024538e+03
1.713444e+03,2.018490e+03
1.714409e+03,2.016343e+03
1.715373e+03,2.015656e+03
1.716337e+03,2.011262e+03
1.717301e+03,2.003540e+03
1.718266e+03,1.999574e+03
1.719230e+03,1.998876e+03
1.720194e+03,2.001176e+03
1.721158e+03,2.006573e+03
1.722123e+03,2.010486e+03
1.723087e+03,2.008137e+03
1.724051e+03,2.005213e+03
1.725015e+03,2.004489e+03
1.725979e+03,2.005837e+03
1.726944e+03,2.009478e+03
1.727908e+03,2.014181e+03
1.728872e+03,2.015384e+03
1.729836e+03,2.012252e+03
1.730801e+03,2.004674e+03
1.731765e+03,1.988864e+03
1.732729e+03,1.978611e+03
1.733693e+03,1.976200e+03
1.734658e+03,1.976324e+03
1.735622e+03,1.976807e+03
1.736586e+03,1.977451e+03
1.737550e+03,1.979251e+03
1.738515e+03,1.980358e+03
1.739479e+03,1.977831e+03
1.740443e+03,1.972284e+03
1.741407e+03,1.968693e+03
1.742371e+03,1.967215e+03
1.743336e+03,1.966897e+03
1.744300e+03,1.967548e+03
1.745264e+03,1.969109e+03
1.746228e+03,1.976491e+03
1.747193e+03,1.980737e+03
1.748157e+03,1.976322e+03
1.749121e+03,1.969391e+03
1.750085e+03,1.960287e+03
1.751050e+03,1.949743e+03
1.752014e+03,1.947333e+03
1.752978e+03,1.950747e+03
1.753942e+03,1.953043e+03
1.754906e+03,1.952622e+03
1.755871e+03,1.953269e+03
1.756835e+03,1.956436e+03
1.757799e+03,1.954804e+03
1.758763e+03,1.948612e+03
1.759728e+03,1.942058e+03
1.760692e+03,1.936637e+03
1.761656e+03,1.934296e+03
1.762620e+03,1.938945e+03
1.763585e+03,1.945463e+03
1.764549e+03,1.945558e+03
1.765513e+03,1.938645e+03
1.766477e+03,1.940038e+03
1.767442e+03,1.948271e+03
1.768406e+03,1.951015e+03
1.769370e+03,1.944138e+03
1.770334e+03,1.935638e+03
1.771298e+03,1.922313e+03
1.772263e+03,1.916431e+03
1.773227e+03,1.924369e+03
1.774191e+03,1.935699e+03
1.775155e+03,1.937429e+03
1.776120e+03,1.932008e+03
1.777084e+03,1.919030e+03
1.778048e+03,1.903356e+03
1.779012e+03,1.897102e+03
1.779977e+03,1.902639e+03
1.780941e+03,1.912393e+03
1.781905e+03,1.925297e+03
1.782869e+03,1.931508e+03
1.783833e+03,1.925060e+03
1.784798e+03,1.917195e+03
1.785762e+03,1.915411e+03
1.786726e+03,1.912657e+03
1.787690e+03,1.905243e+03
1.788655e+03,1.896279e+03
1.789619e+03,1.889897e+03
1.790583e+03,1.886401e+03
1.791547e+03,1.887229e+03
1.792512e+03,1.891523e+03
1.793476e+03,1.894308e+03
1.794440e+03,1.893383e+03
1.795404e+03,1.893420e+03
1.796369e+03,1.894023e+03
1.797333e+03,1.894646e+03
1.798297e+03,1.895668e+03
1.799261e+03,1.896151e+03
1.800225e+03,1.893650e+03
1.801190e+03,1.890907e+03
1.802154e+03,1.890690e+03
1.803118e+03,1.891655e+03
1.804082e+03,1.892464e+03
1.805047e+03,1.892591e+03
1.806011e+03,1.887532e+03
1.806975e+03,1.877649e+03
1.807939e+03,1.874391e+03
1.808904e+03,1.881932e+03
1.809868e+03,1.882192e+03
1.810832e+03,1.873635e+03
1.811796e+03,1.864658e+03
1.812760e+03,1.860133e+03
1.813725e+03,1.858135e+03
1.814689e+03,1.858849e+03
1.815653e+03,1.860587e+03
1.816617e+03,1.861999e+03
1.817582e+03,1.863554e+03
1.818546e+03,1.868346e+03
1.819510e+03,1.873369e+03
1.820474e+03,1.871267e+03
1.821439e+03,1.861270e+03
1.822403e+03,1.854694e+03
1.823367e+03,1.853175e+03
1.824331e+03,1.851195e+03
1.825296e+03,1.847274e+03
1.826260e+03,1.844513e+03
1.827224e+03,1.849301e+03
1.828188e+03,1.854413e+03
1.829152e+03,1.854169e+03
1.830117e+03,1.851865e+03
1.831081e+03,1.849056e+03
1.832045e+03,1.846385e+03
1.833009e+03,1.850615e+03
1.833974e+03,1.858252e+03
1.834938e+03,1.858424e+03
1.835902e+03,1.847218e+03
1.836866e+03,1.841951e+03
1.837831e+03,1.843154e+03
1.838795e+03,1.838962e+03
1.839759e+03,1.827325e+03
1.840723e+03,1.819787e+03
1.841688e+03,1.826932e+03
1.842652e+03,1.835120e+03
1.843616e+03,1.840169e+03
1.844580e+03,1.840642e+03
1.845544e+03,1.834763e+03
1.846509e+03,1.825301e+03
1.847473e+03,1.812225e+03
1.848437e+03,1.800688e+03
1.849401e+03,1.803875e+03
1.850366e+03,1.821823e+03
1.851330e+03,1.825203e+03
1.852294e+03,1.816036e+03
1.853258e+03,1.805838e+03
1.854223e+03,1.796936e+03
1.855187e+03,1.793057e+03
1.856151e+03,1.800287e+03
1.857115e+03,1.803690e+03
1.858079e+03,1.799208e+03
1.859044e+03,1.793131e+03
1.860008e+03,1.793692e+03
1.860972e+03,1.796125e+03
1.861936e+03,1.796297e+03
1.862901e+03,1.794350e+03
1.863865e+03,1.788632e+03
1.864829e+03,1.779219e+03
1.865793e+03,1.777797e+03
1.866758e+03,1.782374e+03
1.867722e+03,1.785098e+03
1.868686e+03,1.782934e+03
1.869650e+03,1.783124e+03
1.870615e+03,1.786593e+03
1.871579e+03,1.785650e+03
1.872543e+03,1.778745e+03
1.873507e+03,1.772410e+03
1.874471e+03,1.770258e+03
1.875436e+03,1.768489e+03
1.876400e+03,1.765473e+03
1.877364e+03,1.763940e+03
1.878328e+03,1.768437e+03
1.879293e+03,1.775466e+03
1.880257e+03,1.779495e+03
1.881221e+03,1.779527e+03
1.882185e+03,1.773535e+03
1.883150e+03,1.762047e+03
1.884114e+03,1.755064e+03
1.885078e+03,1.751811e+03
1.886042e+03,1.751393e+03
1.887006e+03,1.754405e+03
1.887971e+03,1.752405e+03
1.888935e+03,1.738481e+03
1.889899e+03,1.734010e+03
1.890863e+03,1.744981e+03
1.891828e+03,1.754168e+03
1.892792e+03,1.738061e+03
1.893756e+03,1.721518e+03
1.894720e+03,1.729636e+03
1.895685e+03,1.746153e+03
1.896649e+03,1.753249e+03
1.897613e+03,1.752500e+03
1.898577e+03,1.749806e+03
1.899542e+03,1.746479e+03
1.900506e+03,1.745681e+03
1.901470e+03,1.748144e+03
1.902434e+03,1.742650e+03
1.903398e+03,1.729876e+03
1.904363e+03,1.722950e+03
1.905327e+03,1.725844e+03
1.906291e+03,1.729031e+03
1.907255e+03,1.724898e+03
1.908220e+03,1.723658e+03
1.909184e+03,1.727866e+03
1.910148e+03,1.732501e+03
1.911112e+03,1.735777e+03
1.912077e+03,1.735539e+03
1.913041e+03,1.725316e+03
1.914005e+03,1.714210e+03
1.914969e+03,1.712224e+03
1.915933e+03,1.716648e+03
1.916898e+03,1.719506e+03
1.917862e+03,1.720611e+03
1.918826e+03,1.718035e+03
1.919790e+03,1.711796e+03
1.920755e+03,1.707675e+03
1.921719e+03,1.704663e+03
1.922683e+03,1.702123e+03
1.923647e+03,1.700534e+03
1.924612e+03,1.700060e+03
1.925576e+03,1.701732e+03
1.926540e+03,1.702662e+03
1.927504e+03,1.701156e+03
1.928469e+03,1.699856e+03
1.929433e+03,1.703092e+03
1.930397e+03,1.704638e+03
1.931361e+03,1.698246e+03
1.932325e+03,1.689712e+03
1.933290e+03,1.683031e+03
1.934254e+03,1.680201e+03
1.935218e+03,1.686717e+03
1.936182e+03,1.695164e+03
1.937147e+03,1.693684e+03
1.938111e+03,1.683943e+03
1.939075e+03,1.682187e+03
1.940039e+03,1.687536e+03
1.941004e+03,1.689217e+03
1.941968e+03,1.684620e+03
1.942932e+03,1.676961e+03
1.943896e+03,1.665133e+03
1.944860e+03,1.658580e+03
1.945825e+03,1.659066e+03
1.946789e+03,1.662510e+03
1.947753e+03,1.667978e+03
1.948717e+03,1.671359e+03
1.949682e+03,1.671032e+03
1.950646e+03,1.667160e+03
1.951610e+03,1.656291e+03
1.952574e+03,1.647913e+03
1.953539e+03,1.664085e+03
1.954503e+03,1.682881e+03
1.955467e+03,1.679569e+03
1.956431e+03,1.663200e+03
1.957396e+03,1.656303e+03
1.958360e+03,1.655008e+03
1.959324e+03,1.650524e+03
1.960288e+03,1.643718e+03
1.961252e+03,1.640668e+03
1.962217e+03,1.640938e+03
1.963181e+03,1.641831e+03
1.964145e+03,1.642694e+03
1.965109e+03,1.642036e+03
1.966074e+03,1.639502e+03
1.967038e+03,1.635771e+03
1.968002e+03,1.628472e+03
1.968966e+03,1.623724e+03
1.969931e+03,1.624815e+03
1.970895e+03,1.628597e+03
1.971859e+03,1.638537e+03
1.972823e+03,1.646435e+03
1.973787e+03,1.648408e+03
1.974752e+03,1.644877e+03
1.975716e+03,1.632541e+03
1.976680e+03,1.619131e+03
1.977644e+03,1.616278e+03
1.978609e+03,1.619005e+03
1.979573e+03,1.616752e+03
1.980537e+03,1.611268e+03
1.981501e+03,1.610950e+03
1.982466e+03,1.614121e+03
1.983430e+03,1.614064e+03
1.984394e+03,1.609273e+03
1.985358e+03,1.609320e+03
1.986323e+03,1.613289e+03
1.987287e+03,1.617402e+03
1.988251e+03,1.620935e+03
1.989215e+03,1.620260e+03
1.990179e+03,1.614865e+03
1.991144e+03,1.609972e+03
1.992108e+03,1.607349e+03
1.993072e+03,1.606114e+03
1.994036e+03,1.607300e+03
1.995001e+03,1.604556e+03
1.995965e+03,1.594115e+03
1.996929e+03,1.587535e+03
1.997893e+03,1.601899e+03
1.998858e+03,1.616576e+03
1.999822e+03,1.610582e+03
2.000786e+03,1.597933e+03
2.001750e+03,1.591000e+03
2.002714e+03,1.589045e+03
2.003679e+03,1.588467e+03
2.004643e+03,1.588426e+03
2.005607e+03,1.590039e+03
2.006571e+03,1.592281e+03
2.007536e+03,1.586373e+03
2.008500e+03,1.576238e+03
2.009464e+03,1.575523e+03
2.010428e+03,1.584858e+03
2.011393e+03,1.586701e+03
2.012357e+03,1.579376e+03
2.013321e+03,1.574361e+03
2.014285e+03,1.571695e+03
2.015250e+03,1.571885e+03
2.016214e+03,1.581236e+03
2.017178e+03,1.580974e+03
2.018142e+03,1.569769e+03
2.019106e+03,1.560919e+03
2.020071e+03,1.561853e+03
2.021035e+03,1.564306e+03
2.021999e+03,1.564656e+03
2.022963e+03,1.564641e+03
2.023928e+03,1.566097e+03
2.024892e+03,1.566079e+03
2.025856e+03,1.557319e+03
2.026820e+03,1.550542e+03
2.027785e+03,1.554508e+03
2.028749e+03,1.559220e+03
2.029713e+03,1.546652e+03
2.030677e+03,1.530683e+03
2.031641e+03,1.530387e+03
2.032606e+03,1.539849e+03
2.033570e+03,1.550029e+03
2.034534e+03,1.558740e+03
2.035498e+03,1.555895e+03
2.036463e+03,1.545672e+03
2.037427e+03,1.536085e+03
2.038391e+03,1.528926e+03
2.039355e+03,1.528068e+03
2.040320e+03,1.531342e+03
2.041284e+03,1.526306e+03
2.042248e+03,1.509419e+03
2.043212e+03,1.503874e+03
2.044177e+03,1.512063e+03
2.045141e+03,1.522287e+03
2.046105e+03,1.532254e+03
2.047069e+03,1.536570e+03
2.048033e+03,1.525412e+03
2.048998e+03,1.520625e+03
2.049962e+03,1.524874e+03
2.050926e+03,1.529437e+03
2.051890e+03,1.527336e+03
2.052854e+03,1.526360e+03
2.053819e+03,1.529507e+03
2.054783e+03,1.529116e+03
2.055747e+03,1.520543e+03
2.056711e+03,1.512351e+03
2.057676e+03,1.514864e+03
2.058640e+03,1.517022e+03
2.059604e+03,1.510860e+03
2.060568e+03,1.502377e+03
2.061533e+03,1.503500e+03
2.062497e+03,1.505836e+03
2.063461e+03,1.498481e+03
2.064425e+03,1.488977e+03
2.065390e+03,1.489377e+03
2.066354e+03,1.494081e+03
2.067318e+03,1.492887e+03
2.068282e+03,1.488742e+03
2.069247e+03,1.488039e+03
2.070211e+03,1.489491e+03
2.071175e+03,1.486809e+03
2.072139e+03,1.481561e+03
2.073104e+03,1.476676e+03
2.074068e+03,1.472667e+03
2.075032e+03,1.468653e+03
2.075996e+03,1.465152e+03
2.076960e+03,1.468348e+03
2.077925e+03,1.479183e+03
2.078889e+03,1.486637e+03
2.079853e+03,1.490196e+03
2.080817e+03,1.487181e+03
2.081782e+03,1.477735e+03
2.082746e+03,1.470515e+03
2.083710e+03,1.471156e+03
2.084674e+03,1.470342e+03
2.085639e+03,1.468392e+03
2.086603e+03,1.466404e+03
2.087567e+03,1.461540e+03
2.088531e+03,1.457855e+03
2.089496e+03,1.455288e+03
2.090460e+03,1.452289e+03
2.091424e+03,1.449986e+03
2.092388e+03,1.450843e+03
2.093353e+03,1.460055e+03
2.094317e+03,1.463500e+03
2.095281e+03,1.453506e+03
2.096245e+03,1.443657e+03
2.097209e+03,1.453071e+03
2.098174e+03,1.459776e+03
2.099138e+03,1.454580e+03
2.100102e+03,1.444744e+03
2.101066e+03,1.433123e+03
2.102031e+03,1.425550e+03
2.102995e+03,1.433247e+03
2.103959e+03,1.441557e+03
2.104923e+03,1.436828e+03
2.105887e+03,1.428098e+03
2.106852e+03,1.427132e+03
2.107816e+03,1.428654e+03
2.108780e+03,1.427727e+03
2.109744e+03,1.425927e+03
2.110708e+03,1.430496e+03
2.111673e+03,1.436874e+03
2.112637e+03,1.434597e+03
2.113601e+03,1.426899e+03
2.114565e+03,1.425214e+03
2.115530e+03,1.425402e+03
2.116494e+03,1.414601e+03
2.117458e+03,1.399555e+03
2.118422e+03,1.399027e+03
2.119387e+03,1.409740e+03
2.120351e+03,1.425394e+03
2.121315e+03,1.440279e+03
2.122279e+03,1.437396e+03
2.123244e+03,1.416129e+03
2.124208e+03,1.410746e+03
2.125172e+03,1.416754e+03
2.126136e+03,1.415976e+03
2.127101e+03,1.403581e+03
2.128065e+03,1.398676e+03
2.129029e+03,1.400239e+03
2.129993e+03,1.403899e+03
2.130958e+03,1.407456e+03
2.131922e+03,1.408264e+03
2.132886e+03,1.406549e+03
2.133850e+03,1.406250e+03
2.134814e+03,1.408855e+03
2.135779e+03,1.408681e+03
2.136743e+03,1.400999e+03
2.137707e+03,1.395866e+03
2.138671e+03,1.394241e+03
2.139636e+03,1.394992e+03
2.140600e+03,1.402420e+03
2.141564e+03,1.398242e+03
2.142528e+03,1.380816e+03
2.143493e+03,1.372161e+03
2.144457e+03,1.383802e+03
2.145421e+03,1.389257e+03
2.146385e+03,1.379965e+03
2.147350e+03,1.374285e+03
2.148314e+03,1.378078e+03
2.149278e+03,1.384879e+03
2.150242e+03,1.392779e+03
2.151207e+03,1.393613e+03
2.152171e+03,1.384604e+03
2.153135e+03,1.377052e+03
2.154099e+03,1.389818e+03
2.155063e+03,1.390473e+03
2.156028e+03,1.369127e+03
2.156992e+03,1.353480e+03
2.157956e+03,1.368188e+03
2.158920e+03,1.381287e+03
2.159885e+03,1.377619e+03
2.160849e+03,1.370258e+03
2.161813e+03,1.362896e+03
2.162777e+03,1.359875e+03
2.163741e+03,1.370934e+03
2.164706e+03,1.379811e+03
2.165670e+03,1.382063e+03
2.166634e+03,1.380557e+03
2.167598e+03,1.373009e+03
2.168563e+03,1.367383e+03
2.169527e+03,1.366069e+03
2.170491e+03,1.366224e+03
2.171455e+03,1.368872e+03
2.172420e+03,1.370062e+03
2.173384e+03,1.366501e+03
2.174348e+03,1.362493e+03
2.175312e+03,1.362285e+03
2.176277e+03,1.360795e+03
2.177241e+03,1.350229e+03
2.178205e+03,1.340288e+03
2.179169e+03,1.338121e+03
2.180134e+03,1.340383e+03
2.181098e+03,1.342030e+03
2.182062e+03,1.345018e+03
2.183026e+03,1.350506e+03
2.183990e+03,1.354727e+03
2.184955e+03,1.349845e+03
2.185919e+03,1.344275e+03
2.186883e+03,1.344932e+03
2.187847e+03,1.346660e+03
2.188812e+03,1.342841e+03
2.189776e+03,1.338395e+03
2.190740e+03,1.339491e+03
2.191704e+03,1.340507e+03
2.192668e+03,1.335719e+03
2.193633e+03,1.329623e+03
2.194597e+03,1.329711e+03
2.195561e+03,1.330373e+03
2.196525e+03,1.324263e+03
2.197490e+03,1.317396e+03
2.198454e+03,1.324548e+03
2.199418e+03,1.332367e+03
2.200382e+03,1.328494e+03
2.201347e+03,1.320227e+03
2.202311e+03,1.317865e+03
2.203275e+03,1.317728e+03
2.204239e+03,1.315002e+03
2.205204e+03,1.310929e+03
2.206168e+03,1.309275e+03
2.207132e+03,1.309512e+03
2.208096e+03,1.312255e+03
2.209061e+03,1.312472e+03
2.210025e+03,1.303365e+03
2.210989e+03,1.291498e+03
2.211953e+03,1.285852e+03
2.212917e+03,1.288051e+03
2.213882e+03,1.297387e+03
2.214846e+03,1.307932e+03
2.215810e+03,1.311223e+03
2.216774e+03,1.308570e+03
2.217739e+03,1.303965e+03
2.218703e+03,1.298918e+03
2.219667e+03,1.293890e+03
2.220631e+03,1.290930e+03
2.221595e+03,1.293117e+03
2.222560e+03,1.295028e+03
2.223524e+03,1.288276e+03
2.224488e+03,1.278177e+03
2.225452e+03,1.268423e+03
2.226417e+03,1.262765e+03
2.227381e+03,1.266482e+03
2.228345e+03,1.275307e+03
2.229309e+03,1.285529e+03
2.230274e+03,1.292785e+03
2.231238e+03,1.293158e+03
2.232202e+03,1.289933e+03
2.233166e+03,1.289815e+03
2.234131e+03,1.288590e+03
2.235095e+03,1.281407e+03
2.236059e+03,1.273909e+03
2.237023e+03,1.275277e+03
2.237988e+03,1.279194e+03
2.238952e+03,1.282343e+03
2.239916e+03,1.280511e+03
2.240880e+03,1.261309e+03
2.241844e+03,1.246474e+03
2.242809e+03,1.254269e+03
2.243773e+03,1.267293e+03
2.244737e+03,1.269222e+03
2.245701e+03,1.266012e+03
2.246666e+03,1.260510e+03
2.247630e+03,1.254723e+03
2.248594e+03,1.250778e+03
2.249558e+03,1.249411e+03
2.250522e+03,1.252230e+03
2.251487e+03,1.255202e+03
2.252451e+03,1.254989e+03
2.253415e+03,1.252667e+03
2.254379e+03,1.250322e+03
2.255344e+03,1.249451e+03
2.256308e+03,1.251688e+03
2.257272e+03,1.252440e+03
2.258236e+03,1.244735e+03
2.259201e+03,1.237938e+03
2.260165e+03,1.234743e+03
2.261129e+03,1.232006e+03
2.262093e+03,1.225718e+03
2.263058e+03,1.220527e+03
2.264022e+03,1.217887e+03
2.264986e+03,1.220728e+03
2.265950e+03,1.236533e+03
2.266915e+03,1.244380e+03
2.267879e+03,1.236355e+03
2.268843e+03,1.226114e+03
2.269807e+03,1.220646e+03
2.270771e+03,1.216118e+03
2.271736e+03,1.209741e+03
2.272700e+03,1.212151e+03
2.273664e+03,1.226776e+03
2.274628e+03,1.235534e+03
2.275593e+03,1.227169e+03
2.276557e+03,1.220937e+03
2.277521e+03,1.220617e+03
2.278485e+03,1.221539e+03
2.279449e+03,1.222972e+03
2.280414e+03,1.219570e+03
2.281378e+03,1.211129e+03
2.282342e+03,1.205983e+03
2.283306e+03,1.210445e+03
2.284271e+03,1.211548e+03
2.285235e+03,1.209046e+03
2.286199e+03,1.202940e+03
2.287163e+03,1.192381e+03
2.288128e+03,1.194060e+03
2.289092e+03,1.205350e+03
2.290056e+03,1.210130e+03
2.291020e+03,1.204629e+03
2.291985e+03,1.199478e+03
2.292949e+03,1.196008e+03
2.293913e+03,1.192512e+03
2.294877e+03,1.189219e+03
2.295842e+03,1.193871e+03
2.296806e+03,1.204133e+03
2.297770e+03,1.206198e+03
2.298734e+03,1.200876e+03
2.299698e+03,1.195541e+03
2.300663e+03,1.191432e+03
2.301627e+03,1.194539e+03
2.302591e+03,1.198981e+03
2.303555e+03,1.189328e+03
2.304520e+03,1.171114e+03
2.305484e+03,1.171108e+03
2.306448e+03,1.180420e+03
2.307412e+03,1.182941e+03
2.308376e+03,1.180893e+03
2.309341e+03,1.183400e+03
2.310305e+03,1.186321e+03
2.311269e+03,1.184268e+03
2.312233e+03,1.180706e+03
2.313198e+03,1.177830e+03
2.314162e+03,1.177422e+03
2.315126e+03,1.185617e+03
2.316090e+03,1.192159e+03
2.317055e+03,1.181647e+03
2.318019e+03,1.170296e+03
2.318983e+03,1.174539e+03
2.319947e+03,1.179901e+03
2.320912e+03,1.175510e+03
2.321876e+03,1.171456e+03
2.322840e+03,1.176668e+03
2.323804e+03,1.181956e+03
2.324769e+03,1.184964e+03
2.325733e+03,1.183176e+03
2.326697e+03,1.169715e+03
2.327661e+03,1.159331e+03
2.328625e+03,1.155362e+03
2.329590e+03,1.153356e+03
2.330554e+03,1.152759e+03
2.331518e+03,1.153209e+03
2.332482e+03,1.154622e+03
2.333447e+03,1.154399e+03
2.334411e+03,1.148153e+03
2.335375e+03,1.150360e+03
2.336339e+03,1.161239e+03
2.337303e+03,1.167018e+03
2.338268e+03,1.159040e+03
2.339232e+03,1.152948e+03
2.340196e+03,1.149438e+03
2.341160e+03,1.151630e+03
2.342125e+03,1.161313e+03
2.343089e+03,1.159091e+03
2.344053e+03,1.147788e+03
2.345017e+03,1.146353e+03
2.345982e+03,1.155809e+03
2.346946e+03,1.157325e+03
2.347910e+03,1.153582e+03
2.348874e+03,1.145435e+03
2.349839e+03,1.136473e+03
2.350803e+03,1.141830e+03
2.351767e+03,1.153445e+03
2.352731e+03,1.154203e+03
2.353696e+03,1.149029e+03
2.354660e+03,1.144119e+03
2.355624e+03,1.138931e+03
2.356588e+03,1.131466e+03
2.357552e+03,1.128030e+03
2.358517e+03,1.137369e+03
2.359481e+03,1.148659e+03
2.360445e+03,1.147528e+03
2.361409e+03,1.143446e+03
2.362374e+03,1.141000e+03
2.363338e+03,1.138424e+03
2.364302e+03,1.136909e+03
2.365266e+03,1.133451e+03
2.366230e+03,1.125092e+03
2.367195e+03,1.120699e+03
2.368159e+03,1.130171e+03
2.369123e+03,1.134195e+03
2.370087e+03,1.130996e+03
2.371052e+03,1.129030e+03
2.372016e+03,1.133935e+03
2.372980e+03,1.135239e+03
2.373944e+03,1.132100e+03
2.374909e+03,1.126489e+03
2.375873e+03,1.117715e+03
2.376837e+03,1.115328e+03
2.377801e+03,1.118000e+03
2.378766e+03,1.118574e+03
2.379730e+03,1.116204e+03
2.380694e+03,1.116947e+03
2.381658e+03,1.118497e+03
2.382623e+03,1.109847e+03
2.383587e+03,1.095155e+03
2.384551e+03,1.087960e+03
2.385515e+03,1.085765e+03
2.386479e+03,1.087555e+03
2.387444e+03,1.091089e+03
2.388408e+03,1.094055e+03
2.389372e+03,1.097478e+03
2.390336e+03,1.102167e+03
2.391301e+03,1.106205e+03
2.392265e+03,1.108100e+03
2.393229e+03,1.106607e+03
2.394193e+03,1.099723e+03
2.395157e+03,1.095010e+03
2.396122e+03,1.099869e+03
2.397086e+03,1.102730e+03
2.398050e+03,1.100186e+03
2.399014e+03,1.096450e+03
2.399979e+03,1.092195e+03
2.400943e+03,1.090340e+03
2.401907e+03,1.091117e+03
2.402871e+03,1.085777e+03
2.403836e+03,1.072746e+03
2.404800e+03,1.072593e+03
2.405764e+03,1.085007e+03
2.406728e+03,1.091422e+03
2.407693e+03,1.089905e+03
2.408657e+03,1.087930e+03
2.409621e+03,1.086261e+03
2.410585e+03,1.081431e+03
2.411550e+03,1.076501e+03
2.412514e+03,1.078717e+03
2.413478e+03,1.084598e+03
2.414442e+03,1.087056e+03
2.415406e+03,1.085372e+03
2.416371e+03,1.077209e+03
2.417335e+03,1.068836e+03
2.418299e+03,1.070350e+03
2.419263e+03,1.074039e+03
2.420228e+03,1.075813e+03
2.421192e+03,1.076622e+03
2.422156e+03,1.077447e+03
2.423120e+03,1.078380e+03
2.424084e+03,1.078478e+03
2.425049e+03,1.078242e+03
2.426013e+03,1.080955e+03
2.426977e+03,1.076713e+03
2.427941e+03,1.065861e+03
2.428906e+03,1.061695e+03
2.429870e+03,1.068335e+03
2.430834e+03,1.068388e+03
2.431798e+03,1.063270e+03
2.432763e+03,1.061848e+03
2.433727e+03,1.063850e+03
2.434691e+03,1.060360e+03
2.435655e+03,1.054803e+03
2.436620e+03,1.054787e+03
2.437584e+03,1.058347e+03
2.438548e+03,1.061355e+03
2.439512e+03,1.064150e+03
2.440477e+03,1.067168e+03
2.441441e+03,1.068048e+03
2.442405e+03,1.063862e+03
2.443369e+03,1.058503e+03
2.444333e+03,1.054020e+03
2.445298e+03,1.051315e+03
2.446262e+03,1.051929e+03
2.447226e+03,1.052531e+03
2.448190e+03,1.053113e+03
2.449155e+03,1.052390e+03
2.450119e+03,1.047919e+03
2.451083e+03,1.049372e+03
2.452047e+03,1.055227e+03
2.453011e+03,1.052823e+03
2.453976e+03,1.039169e+03
2.454940e+03,1.029463e+03
2.455904e+03,1.024928e+03
2.456868e+03,1.030083e+03
2.457833e+03,1.039633e+03
2.458797e+03,1.038786e+03
2.459761e+03,1.034018e+03
2.460725e+03,1.033050e+03
2.461690e+03,1.034531e+03
2.462654e+03,1.038495e+03
2.463618e+03,1.041182e+03
2.464582e+03,1.041149e+03
2.465547e+03,1.039641e+03
2.466511e+03,1.033923e+03
2.467475e+03,1.029803e+03
2.468439e+03,1.028369e+03
2.469404e+03,1.028966e+03
2.470368e+03,1.033683e+03
2.471332e+03,1.041429e+03
2.472296e+03,1.050144e+03
2.473260e+03,1.044180e+03
2.474225e+03,1.018343e+03
2.475189e+03,1.012335e+03
2.476153e+03,1.020290e+03
2.477117e+03,1.022345e+03
2.478082e+03,1.018941e+03
2.479046e+03,1.017641e+03
2.480010e+03,1.016668e+03
2.480974e+03,1.012860e+03
2.481938e+03,1.010702e+03
2.482903e+03,1.020363e+03
2.483867e+03,1.027616e+03
2.484831e+03,1.023898e+03
2.485795e+03,1.019547e+03
2.486760e+03,1.027026e+03
2.487724e+03,1.027911e+03
2.488688e+03,1.019556e+03
2.489652e+03,1.014131e+03
2.490617e+03,1.018909e+03
2.491581e+03,1.021450e+03
2.492545e+03,1.022038e+03
2.493509e+03,1.018602e+03
2.494474e+03,1.010923e+03
2.495438e+03,1.006714e+03
2.496402e+03,1.006312e+03
2.497366e+03,1.014976e+03
2.498331e+03,1.024062e+03
2.499295e+03,1.010939e+03
2.500259e+03,9.967319e+02
2.501223e+03,1.002530e+03
2.502188e+03,1.011332e+03
2.503152e+03,1.003355e+03
2.504116e+03,9.954279e+02
2.505080e+03,9.924498e+02
2.506044e+03,9.938358e+02
2.507009e+03,1.002926e+03
2.507973e+03,1.006732e+03
2.508937e+03,1.005656e+03
2.509901e+03,1.004913e+03
2.510865e+03,1.005653e+03
2.511830e+03,1.000905e+03
2.512794e+03,9.926362e+02
2.513758e+03,9.888489e+02
2.514722e+03,9.892924e+02
2.515687e+03,9.894261e+02
2.516651e+03,9.943997e+02
2.517615e+03,1.012756e+03
2.518579e+03,1.027458e+03
2.519544e+03,1.008818e+03
2.520508e+03,9.925951e+02
2.521472e+03,9.927263e+02
2.522436e+03,9.945909e+02
2.523401e+03,9.867957e+02
2.524365e+03,9.832141e+02
2.525329e+03,9.837405e+02
2.526293e+03,9.846762e+02
2.527258e+03,9.857490e+02
2.528222e+03,9.915196e+02
2.529186e+03,9.981523e+02
2.530150e+03,9.922653e+02
2.531115e+03,9.797813e+02
2.532079e+03,9.793026e+02
2.533043e+03,9.835084e+02
2.534007e+03,9.839638e+02
2.534971e+03,9.814011e+02
2.535936e+03,9.761340e+02
2.536900e+03,9.722468e+02
2.537864e+03,9.706758e+02
2.538828e+03,9.735810e+02
2.539792e+03,9.824340e+02
2.540757e+03,9.867838e+02
2.541721e+03,9.855410e+02
2.542685e+03,9.859929e+02
2.543649e+03,9.894512e+02
2.544614e+03,9.989247e+02
2.545578e+03,1.009266e+03
2.546542e+03,1.008943e+03
2.547506e+03,1.001309e+03
2.548471e+03,9.888605e+02
2.549435e+03,9.793412e+02
2.550399e+03,9.807612e+02
2.551363e+03,9.857383e+02
2.552328e+03,9.914407e+02
2.553292e+03,9.912549e+02
2.554256e+03,9.802951e+02
2.555220e+03,9.778979e+02
2.556185e+03,9.872147e+02
2.557149e+03,9.841627e+02
2.558113e+03,9.657448e+02
2.559077e+03,9.627079e+02
2.560042e+03,9.710438e+02
2.561006e+03,9.784055e+02
2.561970e+03,9.829736e+02
2.562934e+03,9.774705e+02
2.563898e+03,9.702048e+02
2.564863e+03,9.721369e+02
2.565827e+03,9.726909e+02
2.566791e+03,9.607641e+02
2.567755e+03,9.566857e+02
2.568719e+03,9.641902e+02
2.569684e+03,9.678328e+02
2.570648e+03,9.586317e+02
2.571612e+03,9.595222e+02
2.572576e+03,9.695563e+02
2.573541e+03,9.744154e+02
2.574505e+03,9.721948e+02
2.575469e+03,9.668936e+02
2.576433e+03,9.622484e+02
2.577398e+03,9.667628e+02
2.578362e+03,9.727535e+02
2.579326e+03,9.696833e+02
2.580290e+03,9.645251e+02
2.581255e+03,9.597623e+02
2.582219e+03,9.562375e+02
2.583183e+03,9.551409e+02
2.584147e+03,9.576940e+02
2.585112e+03,9.643878e+02
2.586076e+03,9.617819e+02
2.587040e+03,9.480377e+02
2.588004e+03,9.528752e+02
2.588969e+03,9.651985e+02
2.589933e+03,9.620248e+02
2.590897e+03,9.509132e+02
2.591861e+03,9.454023e+02
2.592825e+03,9.439851e+02
2.593790e+03,9.456760e+02
2.594754e+03,9.474510e+02
2.595718e+03,9.475317e+02
2.596682e+03,9.468792e+02
2.597646e+03,9.451681e+02
2.598611e+03,9.406915e+02
2.599575e+03,9.349596e+02
2.600539e+03,9.373488e+02
2.601503e+03,9.453027e+02
2.602468e+03,9.468542e+02
2.603432e+03,9.428441e+02
2.604396e+03,9.307703e+02
2.605360e+03,9.218710e+02
2.606325e+03,9.299398e+02
2.607289e+03,9.362383e+02
2.608253e+03,9.321382e+02
2.609217e+03,9.299958e+02
2.610182e+03,9.355383e+02
2.611146e+03,9.357498e+02
2.612110e+03,9.315309e+02
2.613074e+03,9.331180e+02
2.614039e+03,9.405467e+02
2.615003e+03,9.427516e+02
2.615967e+03,9.405187e+02
2.616931e+03,9.366172e+02
2.617896e+03,9.331044e+02
2.618860e+03,9.324691e+02
2.619824e+03,9.319708e+02
2.620788e+03,9.303730e+02
2.621752e+03,9.267974e+02
2.622717e+03,9.200422e+02
2.623681e+03,9.151887e+02
2.624645e+03,9.128015e+02
2.625609e+03,9.192341e+02
2.626573e+03,9.317366e+02
2.627538e+03,9.321842e+02
2.628502e+03,9.253415e+02
2.629466e+03,9.166686e+02
2.630430e+03,9.101351e+02
2.631395e+03,9.150068e+02
2.632359e+03,9.162336e+02
2.633323e+03,9.059766e+02
2.634287e+03,9.051730e+02
2.635252e+03,9.182020e+02
2.636216e+03,9.273427e+02
2.637180e+03,9.282437e+02
2.638144e+03,9.232595e+02
2.639109e+03,9.162808e+02
2.640073e+03,9.227811e+02
2.641037e+03,9.330455e+02
2.642001e+03,9.304120e+02
2.642966e+03,9.235116e+02
2.643930e+03,9.162533e+02
2.644894e+03,9.149560e+02
2.645858e+03,9.356584e+02
2.646823e+03,9.309516e+02
2.647787e+03,9.022679e+02
2.648751e+03,8.958422e+02
2.649715e+03,9.142626e+02
2.650679e+03,9.134336e+02
2.651644e+03,9.052607e+02
2.652608e+03,9.089633e+02
2.653572e+03,9.166482e+02
2.654536e+03,9.161423e+02
2.655500e+03,9.173067e+02
2.656465e+03,9.242672e+02
2.657429e+03,9.308191e+02
2.658393e+03,9.349869e+02
2.659357e+03,9.252908e+02
2.660322e+03,9.040978e+02
2.661286e+03,8.916898e+02
2.662250e+03,8.880291e+02
2.663214e+03,8.958225e+02
2.664179e+03,9.070422e+02
2.665143e+03,9.147579e+02
2.666107e+03,9.189378e+02
2.667071e+03,9.199689e+02
2.668036e+03,9.190562e+02
2.669000e+03,9.149074e+02
2.669964e+03,9.087772e+02
2.670928e+03,9.013486e+02
2.671893e+03,8.960463e+02
2.672857e+03,8.946348e+02
2.673821e+03,9.050287e+02
2.674785e+03,9.176498e+02
2.675750e+03,9.236000e+02
2.676714e+03,9.243904e+02
2.677678e+03,9.181315e+02
2.678642e+03,9.103496e+02
2.679606e+03,9.021740e+02
2.680571e+03,8.971178e+02
2.681535e+03,8.951302e+02
2.682499e+03,8.959653e+02
2.683463e+03,8.969245e+02
2.684427e+03,8.884299e+02
2.685392e+03,8.801529e+02
2.686356e+03,8.953834e+02
2.687320e+03,9.085111e+02
2.688284e+03,8.974211e+02
2.689249e+03,8.917772e+02
2.690213e+03,8.973268e+02
2.691177e+03,9.039625e+02
2.692141e+03,9.099326e+02
2.693106e+03,9.111828e+02
2.694070e+03,9.080373e+02
2.695034e+03,8.982699e+02
2.695998e+03,8.884396e+02
2.696963e+03,8.925632e+02
2.697927e+03,8.975580e+02
2.698891e+03,8.962864e+02
2.699855e+03,8.904366e+02
2.700820e+03,8.793944e+02
2.701784e+03,8.793678e+02
2.702748e+03,8.898201e+02
2.703712e+03,8.985178e+02
2.704677e+03,9.022621e+02
2.705641e+03,8.871765e+02
2.706605e+03,8.727047e+02
2.707569e+03,8.829503e+02
2.708533e+03,8.946121e+02
2.709498e+03,8.963720e+02
2.710462e+03,8.957201e+02
2.711426e+03,8.963708e+02
2.712390e+03,8.959404e+02
2.713354e+03,8.940798e+02
2.714319e+03,8.876432e+02
2.715283e+03,8.806652e+02
2.716247e+03,8.872168e+02
2.717211e+03,8.929739e+02
2.718176e+03,8.877677e+02
2.719140e+03,8.806133e+02
2.720104e+03,8.757560e+02
2.721068e+03,8.784003e+02
2.722033e+03,8.878713e+02
2.722997e+03,8.823594e+02
2.723961e+03,8.662078e+02
2.724925e+03,8.609896e+02
2.725890e+03,8.642802e+02
2.726854e+03,8.747405e+02
2.727818e+03,8.837770e+02
2.728782e+03,8.859611e+02
2.729747e+03,8.839384e+02
2.730711e+03,8.766747e+02
2.731675e+03,8.717414e+02
2.732639e+03,8.699689e+02
2.733604e+03,8.760115e+02
2.734568e+03,8.842280e+02
2.735532e+03,8.751801e+02
2.736496e+03,8.693578e+02
2.737460e+03,8.845303e+02
2.738425e+03,8.947518e+02
2.739389e+03,8.812394e+02
2.740353e+03,8.750716e+02
2.741317e+03,8.803458e+02
2.742281e+03,8.725179e+02
2.743246e+03,8.592983e+02
2.744210e+03,8.760921e+02
2.745174e+03,8.968026e+02
2.746138e+03,8.872006e+02
2.747103e+03,8.712345e+02
2.748067e+03,8.594324e+02
2.749031e+03,8.557416e+02
2.749995e+03,8.658099e+02
2.750960e+03,8.727299e+02
2.751924e+03,8.745559e+02
2.752888e+03,8.624931e+02
2.753852e+03,8.457059e+02
2.754817e+03,8.427394e+02
2.755781e+03,8.494654e+02
2.756745e+03,8.654809e+02
2.757709e+03,8.784811e+02
2.758674e+03,8.841984e+02
2.759638e+03,8.789825e+02
2.760602e+03,8.635436e+02
2.761566e+03,8.565518e+02
2.762531e+03,8.565735e+02
2.763495e+03,8.625635e+02
2.764459e+03,8.651512e+02
2.765423e+03,8.501296e+02
2.766387e+03,8.403848e+02
2.767352e+03,8.410525e+02
2.768316e+03,8.456461e+02
2.769280e+03,8.519662e+02
2.770244e+03,8.470258e+02
2.771208e+03,8.391132e+02
2.772173e+03,8.440801e+02
2.773137e+03,8.533014e+02
2.774101e+03,8.608015e+02
2.775065e+03,8.634336e+02
2.776030e+03,8.574922e+02
2.776994e+03,8.529617e+02
2.777958e+03,8.501400e+02
2.778922e+03,8.510239e+02
2.779887e+03,8.526926e+02
2.780851e+03,8.405536e+02
2.781815e+03,8.349522e+02
2.782779e+03,8.515189e+02
2.783744e+03,8.637784e+02
2.784708e+03,8.513187e+02
2.785672e+03,8.470550e+02
2.786636e+03,8.512376e+02
2.787601e+03,8.427018e+02
2.788565e+03,8.287138e+02
2.789529e+03,8.289220e+02
2.790493e+03,8.370596e+02
2.791458e+03,8.560524e+02
2.792422e+03,8.612410e+02
2.793386e+03,8.498613e+02
2.794350e+03,8.410156e+02
2.795314e+03,8.390621e+02
2.796279e+03,8.488946e+02
2.797243e+03,8.591594e+02
2.798207e+03,8.527758e+02
2.799171e+03,8.430278e+02
2.800135e+03,8.439464e+02
2.801100e+03,8.497780e+02
2.802064e+03,8.608552e+02
2.803028e+03,8.607996e+02
2.803992e+03,8.508337e+02
2.804957e+03,8.400152e+02
2.805921e+03,8.333502e+02
2.806885e+03,8.411291e+02
2.807849e+03,8.494709e+02
2.808814e+03,8.518776e+02
2.809778e+03,8.479344e+02
2.810742e+03,8.353424e+02
2.811706e+03,8.298619e+02
2.812671e+03,8.297130e+02
2.813635e+03,8.297433e+02
2.814599e+03,8.293817e+02
2.815563e+03,8.266052e+02
2.816528e+03,8.285956e+02
2.817492e+03,8.422402e+02
2.818456e+03,8.474610e+02
2.819420e+03,8.424865e+02
2.820385e+03,8.384241e+02
2.821349e+03,8.371937e+02
2.822313e+03,8.373239e+02
2.823277e+03,8.375616e+02
2.824241e+03,8.359214e+02
2.825206e+03,8.362148e+02
2.826170e+03,8.428741e+02
2.827134e+03,8.422151e+02
2.828098e+03,8.348251e+02
2.829063e+03,8.440865e+02
2.830027e+03,8.586629e+02
2.830991e+03,8.529121e+02
2.831955e+03,8.436250e+02
2.832919e+03,8.367466e+02
2.833884e+03,8.419133e+02
2.834848e+03,8.578024e+02
2.835812e+03,8.592372e+02
2.836776e+03,8.469480e+02
2.837741e+03,8.452318e+02
2.838705e+03,8.470619e+02
2.839669e+03,8.453317e+02
2.840633e+03,8.380903e+02
2.841598e+03,8.231088e+02
2.842562e+03,8.219537e+02
2.843526e+03,8.415236e+02
2.844490e+03,8.449128e+02
2.845455e+03,8.384265e+02
2.846419e+03,8.334427e+02
2.847383e+03,8.328673e+02
2.848347e+03,8.478289e+02
2.849312e+03,8.459677e+02
2.850276e+03,8.226629e+02
2.851240e+03,8.228577e+02
2.852204e+03,8.419947e+02
2.853168e+03,8.431461e+02
2.854133e+03,8.370417e+02
2.855097e+03,8.379922e+02
2.856061e+03,8.422476e+02
2.857025e+03,8.469611e+02
2.857990e+03,8.473964e+02
2.858954e+03,8.423490e+02
2.859918e+03,8.398760e+02
2.860882e+03,8.420040e+02
2.861846e+03,8.531178e+02
2.862811e+03,8.604890e+02
2.863775e+03,8.491561e+02
2.864739e+03,8.419164e+02
2.865703e+03,8.447495e+02
2.866668e+03,8.485526e+02
2.867632e+03,8.510287e+02
2.868596e+03,8.452330e+02
2.869560e+03,8.398746e+02
2.870525e+03,8.512271e+02
2.871489e+03,8.579310e+02
2.872453e+03,8.544098e+02
2.873417e+03,8.524177e+02
2.874382e+03,8.526252e+02
2.875346e+03,8.497697e+02
2.876310e+03,8.457599e+02
2.877274e+03,8.393539e+02
2.878239e+03,8.379598e+02
2.879203e+03,8.432775e+02
2.880167e+03,8.455531e+02
2.881131e+03,8.428578e+02
2.882095e+03,8.324019e+02
2.883060e+03,8.245114e+02
2.884024e+03,8.364944e+02
2.884988e+03,8.472576e+02
2.885952e+03,8.352599e+02
2.886917e+03,8.270068e+02
2.887881e+03,8.299494e+02
2.888845e+03,8.353711e+02
2.889809e+03,8.425551e+02
2.890773e+03,8.519786e+02
2.891738e+03,8.568825e+02
2.892702e+03,8.427534e+02
2.893666e+03,8.451412e+02
2.894630e+03,8.685829e+02
2.895595e+03,8.690888e+02
2.896559e+03,8.499646e+02
2.897523e+03,8.322167e+02
2.898487e+03,8.250606e+02
2.899452e+03,8.493711e+02
2.900416e+03,8.600873e+02
2.901380e+03,8.483792e+02
2.902344e+03,8.455130e+02
2.903309e+03,8.545457e+02
2.904273e+03,8.512681e+02
2.905237e+03,8.398976e+02
2.906201e+03,8.217077e+02
2.907166e+03,8.177479e+02
2.908130e+03,8.367446e+02
2.909094e+03,8.443033e+02
2.910058e+03,8.351671e+02
2.911022e+03,8.291598e+02
2.911987e+03,8.283636e+02
2.912951e+03,8.347667e+02
2.913915e+03,8.387845e+02
2.914879e+03,8.325358e+02
2.915844e+03,8.229243e+02
2.916808e+03,8.146246e+02
2.917772e+03,8.304058e+02
2.918736e+03,8.490715e+02
2.919700e+03,8.340227e+02
2.920665e+03,8.162667e+02
2.921629e+03,8.159820e+02
2.922593e+03,8.208820e+02
2.923557e+03,8.282664e+02
2.924522e+03,8.267166e+02
2.925486e+03,8.213275e+02
2.926450e+03,8.242272e+02
2.927414e+03,8.282841e+02
2.928379e+03,8.306640e+02
2.929343e+03,8.321037e+02
2.930307e+03,8.320714e+02
2.931271e+03,8.270576e+02
2.932236e+03,8.209446e+02
2.933200e+03,8.186771e+02
2.934164e+03,8.187708e+02
2.935128e+03,8.200952e+02
2.936093e+03,8.147985e+02
2.937057e+03,8.049393e+02
2.938021e+03,8.047599e+02
2.938985e+03,8.076939e+02
2.939949e+03,7.979890e+02
2.940914e+03,7.915969e+02
2.941878e+03,7.940189e+02
2.942842e+03,7.966221e+02
2.943806e+03,7.964437e+02
2.944771e+03,7.982396e+02
2.945735e+03,8.049778e+02
2.946699e+03,8.292375e+02
2.947663e+03,8.310219e+02
2.948627e+03,7.991547e+02
2.949592e+03,7.975159e+02
2.950556e+03,8.332718e+02
2.951520e+03,8.365782e+02
2.952484e+03,8.281680e+02
2.953449e+03,8.323977e+02
2.954413e+03,8.354050e+02
2.955377e+03,8.321134e+02
2.956341e+03,8.266547e+02
2.957306e+03,8.210480e+02
2.958270e+03,8.276623e+02
2.959234e+03,8.282535e+02
2.960198e+03,8.099567e+02
2.961163e+03,7.946083e+02
2.962127e+03,7.896713e+02
2.963091e+03,7.998880e+02
2.964055e+03,8.165839e+02
2.965020e+03,8.179227e+02
2.965984e+03,8.074695e+02
2.966948e+03,7.860031e+02
2.967912e+03,7.720786e+02
2.968876e+03,7.749832e+02
2.969841e+03,7.818318e+02
2.970805e+03,7.910500e+02
2.971769e+03,8.029369e+02
2.972733e+03,8.076328e+02
2.973698e+03,7.978912e+02
2.974662e+03,7.820331e+02
2.975626e+03,7.623131e+02
2.976590e+03,7.646773e+02
2.977554e+03,7.774625e+02
2.978519e+03,7.839203e+02
2.979483e+03,7.850469e+02
2.980447e+03,7.806591e+02
2.981411e+03,7.865019e+02
2.982376e+03,8.023287e+02
2.983340e+03,8.063817e+02
2.984304e+03,8.007151e+02
2.985268e+03,7.873781e+02
2.986233e+03,7.776086e+02
2.987197e+03,7.768107e+02
2.988161e+03,7.972626e+02
2.989125e+03,8.250894e+02
2.990090e+03,8.154278e+02
2.991054e+03,7.931407e+02
2.992018e+03,7.777435e+02
2.992982e+03,7.692254e+02
2.993947e+03,7.700345e+02
2.994911e+03,7.782415e+02
2.995875e+03,7.840030e+02
2.996839e+03,7.658825e+02
2.997803e+03,7.579982e+02
2.998768e+03,7.853230e+02
2.999732e+03,7.898961e+02
3.000696e+03,7.644693e+02
3.001660e+03,7.666714e+02
3.002625e+03,7.744610e+02
3.003589e+03,7.648179e+02
3.004553e+03,7.602762e+02
3.005517e+03,7.728768e+02
3.006481e+03,7.775816e+02
3.007446e+03,7.728170e+02
3.008410e+03,7.626204e+02
3.009374e+03,7.637324e+02
3.010338e+03,7.870825e+02
3.011303e+03,7.946942e+02
3.012267e+03,7.729808e+02
3.013231e+03,7.584393e+02
3.014195e+03,7.520148e+02
3.015160e+03,7.531990e+02
3.016124e+03,7.595900e+02
3.017088e+03,7.690085e+02
3.018052e+03,7.707419e+02
3.019017e+03,7.644875e+02
3.019981e+03,7.723931e+02
3.020945e+03,7.744393e+02
3.021909e+03,7.500014e+02
3.022874e+03,7.382820e+02
3.023838e+03,7.447659e+02
3.024802e+03,7.471467e+02
3.025766e+03,7.467520e+02
3.026730e+03,7.525815e+02
3.027695e+03,7.590710e+02
3.028659e+03,7.641309e+02
3.029623e+03,7.682303e+02
3.030587e+03,7.711810e+02
3.031552e+03,7.692899e+02
3.032516e+03,7.636348e+02
3.033480e+03,7.532859e+02
3.034444e+03,7.484034e+02
3.035408e+03,7.508239e+02
3.036373e+03,7.580536e+02
3.037337e+03,7.665006e+02
3.038301e+03,7.726399e+02
3.039265e+03,7.719407e+02
3.040230e+03,7.527130e+02
3.041194e+03,7.515872e+02
3.042158e+03,7.637094e+02
3.043122e+03,7.668029e+02
3.044087e+03,7.621465e+02
3.045051e+03,7.454694e+02
3.046015e+03,7.407195e+02
3.046979e+03,7.573380e+02
3.047944e+03,7.623547e+02
3.048908e+03,7.567682e+02
3.049872e+03,7.408253e+02
3.050836e+03,7.326656e+02
3.051801e+03,7.462803e+02
3.052765e+03,7.506981e+02
3.053729e+03,7.448430e+02
3.054693e+03,7.472661e+02
3.055657e+03,7.591641e+02
3.056622e+03,7.809674e+02
3.057586e+03,7.813792e+02
3.058550e+03,7.528804e+02
3.059514e+03,7.435569e+02
3.060479e+03,7.461906e+02
3.061443e+03,7.460018e+02
3.062407e+03,7.427479e+02
3.063371e+03,7.371379e+02
3.064335e+03,7.424164e+02
3.065300e+03,7.552206e+02
3.066264e+03,7.586957e+02
3.067228e+03,7.508036e+02
3.068192e+03,7.226783e+02
3.069157e+03,7.286287e+02
3.070121e+03,7.597305e+02
3.071085e+03,7.554936e+02
3.072049e+03,7.403450e+02
3.073014e+03,7.530231e+02
3.073978e+03,7.705762e+02
3.074942e+03,7.864832e+02
3.075906e+03,7.716050e+02
3.076871e+03,7.470695e+02
3.077835e+03,7.447961e+02
3.078799e+03,7.510153e+02
3.079763e+03,7.594877e+02
3.080728e+03,7.588622e+02
3.081692e+03,7.556953e+02
3.082656e+03,7.783834e+02
3.083620e+03,7.897466e+02
3.084584e+03,7.709704e+02
3.085549e+03,7.582219e+02
3.086513e+03,7.596879e+02
3.087477e+03,7.422094e+02
3.088441e+03,7.259536e+02
3.089406e+03,7.382913e+02
3.090370e+03,7.413153e+02
3.091334e+03,7.315502e+02
3.092298e+03,7.379350e+02
3.093262e+03,7.540505e+02
3.094227e+03,7.709944e+02
3.095191e+03,7.793849e+02
3.096155e+03,7.747164e+02
3.097119e+03,7.565438e+02
3.098084e+03,7.416004e+02
3.099048e+03,7.621274e+02
3.100012e+03,7.838922e+02
3.100976e+03,7.806129e+02
3.101941e+03,7.751316e+02
3.102905e+03,7.686625e+02
3.103869e+03,7.495446e+02
3.104833e+03,7.413724e+02
3.105798e+03,7.573353e+02
3.106762e+03,7.808644e+02
3.107726e+03,8.046301e+02
3.108690e+03,7.821172e+02
3.109655e+03,7.459654e+02
3.110619e+03,7.326085e+02
3.111583e+03,7.315160e+02
3.112547e+03,7.387390e+02
3.113511e+03,7.538097e+02
3.114476e+03,7.642545e+02
3.115440e+03,7.289130e+02
3.116404e+03,7.136081e+02
3.117368e+03,7.508875e+02
3.118333e+03,7.636904e+02
3.119297e+03,7.591702e+02
3.120261e+03,7.529138e+02
3.121225e+03,7.528170e+02
3.122189e+03,7.625267e+02
3.123154e+03,7.660662e+02
3.124118e+03,7.632061e+02
3.125082e+03,7.647910e+02
3.126046e+03,7.646887e+02
3.127011e+03,7.591514e+02
3.127975e+03,7.671525e+02
3.128939e+03,7.831599e+02
3.129903e+03,7.723035e+02
3.130868e+03,7.573392e+02
3.131832e+03,7.527283e+02
3.132796e+03,7.704954e+02
3.133760e+03,7.976395e+02
3.134725e+03,7.715188e+02
3.135689e+03,7.394759e+02
3.136653e+03,7.472012e+02
3.137617e+03,7.600812e+02
3.138582e+03,7.684918e+02
3.139546e+03,7.489872e+02
3.140510e+03,7.283387e+02
3.141474e+03,7.386429e+02
3.142438e+03,7.487401e+02
3.143403e+03,7.508370e+02
3.144367e+03,7.354200e+02
3.145331e+03,7.177991e+02
3.146295e+03,7.217475e+02
3.147260e+03,7.377347e+02
3.148224e+03,7.627028e+02
3.149188e+03,7.851942e+02
3.150152e+03,7.892109e+02
3.151116e+03,7.522079e+02
3.152081e+03,7.385013e+02
3.153045e+03,7.745027e+02
3.154009e+03,7.788768e+02
3.154973e+03,7.643676e+02
3.155938e+03,7.621760e+02
3.156902e+03,7.689266e+02
3.157866e+03,7.796464e+02
3.158830e+03,7.740362e+02
3.159795e+03,7.589447e+02
3.160759e+03,7.437174e+02
3.161723e+03,7.349537e+02
3.162687e+03,7.419196e+02
3.163652e+03,7.475256e+02
3.164616e+03,7.552469e+02
3.165580e+03,7.690636e+02
3.166544e+03,7.834990e+02
3.167509e+03,7.965817e+02
3.168473e+03,8.069814e+02
3.169437e+03,8.090914e+02
3.170401e+03,7.696246e+02
3.171365e+03,7.456260e+02
3.172330e+03,7.635999e+02
3.173294e+03,7.697800e+02
3.174258e+03,7.662247e+02
3.175222e+03,7.681696e+02
3.176187e+03,7.653801e+02
3.177151e+03,7.514078e+02
3.178115e+03,7.443256e+02
3.179079e+03,7.457202e+02
3.180043e+03,7.565153e+02
3.181008e+03,7.624920e+02
3.181972e+03,7.602911e+02
3.182936e+03,7.625807e+02
3.183900e+03,7.673521e+02
3.184865e+03,7.671024e+02
3.185829e+03,7.617585e+02
3.186793e+03,7.453318e+02
3.187757e+03,7.546171e+02
3.188722e+03,7.720673e+02
3.189686e+03,7.551301e+02
3.190650e+03,7.452246e+02
3.191614e+03,7.572162e+02
3.192579e+03,7.814150e+02
3.193543e+03,8.058291e+02
3.194507e+03,7.984891e+02
3.195471e+03,7.901917e+02
3.196436e+03,7.923376e+02
3.197400e+03,7.689202e+02
3.198364e+03,7.481996e+02
3.199328e+03,7.821819e+02
3.200292e+03,7.981710e+02
3.201257e+03,0.000000e+00
3.202221e+03,0.000000e+00
3.203185e+03,0.000000e+00
3.204149e+03,0.000000e+00
3.205114e+03,0.000000e+00
3.206078e+03,0.000000e+00
3.207042e+03,0.000000e+00
3.208006e+03,0.000000e+00
3.208970e+03,0.000000e+00
3.209935e+03,0.000000e+00
3.210899e+03,0.000000e+00
3.211863e+03,0.000000e+00
3.212827e+03,0.000000e+00
3.213792e+03,0.000000e+00
3.214756e+03,0.000000e+00
3.215720e+03,0.000000e+00
3.216684e+03,0.000000e+00
3.217649e+03,0.000000e+00
3.218613e+03,0.000000e+00
3.219577e+03,0.000000e+00
3.220541e+03,0.000000e+00
3.221506e+03,0.000000e+00
3.222470e+03,0.000000e+00
3.223434e+03,0.000000e+00
3.224398e+03,0.000000e+00
3.225363e+03,0.000000e+00
3.226327e+03,0.000000e+00
3.227291e+03,0.000000e+00
3.228255e+03,0.000000e+00
3.229219e+03,0.000000e+00
3.230184e+03,0.000000e+00
3.231148e+03,0.000000e+00
3.232112e+03,0.000000e+00
3.233076e+03,0.000000e+00
3.234041e+03,0.000000e+00
3.235005e+03,0.000000e+00
3.235969e+03,0.000000e+00
3.236933e+03,0.000000e+00
3.237897e+03,0.000000e+00
3.238862e+03,0.000000e+00
3.239826e+03,0.000000e+00
3.240790e+03,0.000000e+00
3.241754e+03,0.000000e+00
3.242719e+03,0.000000e+00
3.243683e+03,0.000000e+00
3.244647e+03,0.000000e+00
3.245611e+03,0.000000e+00
3.246576e+03,0.000000e+00
3.247540e+03,0.000000e+00
3.248504e+03,0.000000e+00
3.249468e+03,0.000000e+00
3.250433e+03,0.000000e+00
3.251397e+03,0.000000e+00
3.252361e+03,0.000000e+00
3.253325e+03,0.000000e+00
3.254290e+03,0.000000e+00
3.255254e+03,0.000000e+00
3.256218e+03,0.000000e+00
3.257182e+03,0.000000e+00
3.258146e+03,0.000000e+00
3.259111e+03,0.000000e+00
3.260075e+03,0.000000e+00
3.261039e+03,0.000000e+00
3.262003e+03,0.000000e+00
3.262968e+03,0.000000e+00
3.263932e+03,0.000000e+00
3.264896e+03,0.000000e+00
3.265860e+03,0.000000e+00
3.266824e+03,0.000000e+00
3.267789e+03,0.000000e+00
3.268753e+03,0.000000e+00
3.269717e+03,0.000000e+00
3.270681e+03,0.000000e+00
3.271646e+03,0.000000e+00
3.272610e+03,0.000000e+00
3.273574e+03,0.000000e+00
3.274538e+03,0.000000e+00
3.275503e+03,0.000000e+00
3.276467e+03,0.000000e+00
3.277431e+03,0.000000e+00
3.278395e+03,0.000000e+00
3.279360e+03,0.000000e+00
3.280324e+03,0.000000e+00
3.281288e+03,0.000000e+00
3.282252e+03,0.000000e+00
3.283217e+03,0.000000e+00
3.284181e+03,0.000000e+00
3.285145e+03,0.000000e+00
3.286109e+03,0.000000e+00
3.287073e+03,0.000000e+00
3.288038e+03,0.000000e+00
3.289002e+03,0.000000e+00
3.289966e+03,0.000000e+00
3.290930e+03,0.000000e+00
3.291895e+03,0.000000e+00
3.292859e+03,0.000000e+00
3.293823e+03,0.000000e+00
3.294787e+03,0.000000e+00
3.295751e+03,0.000000e+00
3.296716e+03,0.000000e+00
3.297680e+03,0.000000e+00
3.298644e+03,0.000000e+00
3.299608e+03,0.000000e+00
3.300573e+03,0.000000e+00
3.301537e+03,0.000000e+00
3.302501e+03,0.000000e+00
3.303465e+03,0.000000e+00
3.304430e+03,0.000000e+00
3.305394e+03,0.000000e+00
3.306358e+03,0.000000e+00
3.307322e+03,0.000000e+00
3.308287e+03,0.000000e+00
3.309251e+03,0.000000e+00
3.310215e+03,0.000000e+00
3.311179e+03,0.000000e+00
3.312144e+03,0.000000e+00
3.313108e+03,0.000000e+00
3.314072e+03,0.000000e+00
3.315036e+03,0.000000e+00
3.316000e+03,0.000000e+00
3.316965e+03,0.000000e+00
3.317929e+03,0.000000e+00
3.318893e+03,0.000000e+00
3.319857e+03,0.000000e+00
3.320822e+03,0.000000e+00
3.321786e+03,0.000000e+00
3.322750e+03,0.000000e+00
3.323714e+03,0.000000e+00
3.324678e+03,0.000000e+00
3.325643e+03,0.000000e+00
3.326607e+03,0.000000e+00
3.327571e+03,0.000000e+00
3.328535e+03,0.000000e+00
3.329500e+03,0.000000e+00
3.330464e+03,0.000000e+00
3.331428e+03,0.000000e+00
3.332392e+03,0.000000e+00
3.333357e+03,0.000000e+00
3.334321e+03,0.000000e+00
3.335285e+03,0.000000e+00
3.336249e+03,0.000000e+00
3.337214e+03,0.000000e+00
3.338178e+03,0.000000e+00
3.339142e+03,0.000000e+00
3.340106e+03,0.000000e+00
3.341071e+03,0.000000e+00
3.342035e+03,0.000000e+00
3.342999e+03,0.000000e+00
3.343963e+03,0.000000e+00
3.344927e+03,0.000000e+00
3.345892e+03,0.000000e+00
3.346856e+03,0.000000e+00
3.347820e+03,0.000000e+00
3.348784e+03,0.000000e+00
3.349749e+03,0.000000e+00
3.350713e+03,0.000000e+00
3.351677e+03,0.000000e+00
3.352641e+03,0.000000e+00
3.353605e+03,0.000000e+00
3.354570e+03,0.000000e+00
3.355534e+03,0.000000e+00
3.356498e+03,0.000000e+00
3.357462e+03,0.000000e+00
3.358427e+03,0.000000e+00
3.359391e+03,0.000000e+00
3.360355e+03,0.000000e+00
3.361319e+03,0.000000e+00
3.362284e+03,0.000000e+00
3.363248e+03,0.000000e+00
3.364212e+03,0.000000e+00
3.365176e+03,0.000000e+00
3.366141e+03,0.000000e+00
3.367105e+03,0.000000e+00
3.368069e+03,0.000000e+00
3.369033e+03,0.000000e+00
3.369998e+03,0.000000e+00
3.370962e+03,0.000000e+00
3.371926e+03,0.000000e+00
3.372890e+03,0.000000e+00
3.373854e+03,0.000000e+00
3.374819e+03,0.000000e+00
3.375783e+03,0.000000e+00
3.376747e+03,0.000000e+00
3.377711e+03,0.000000e+00
3.378676e+03,0.000000e+00
3.379640e+03,0.000000e+00
3.380604e+03,0.000000e+00
3.381568e+03,0.000000e+00
3.382532e+03,0.000000e+00
3.383497e+03,0.000000e+00
3.384461e+03,0.000000e+00
3.385425e+03,0.000000e+00
3.386389e+03,0.000000e+00
3.387354e+03,0.000000e+00
3.388318e+03,0.000000e+00
3.389282e+03,0.000000e+00
3.390246e+03,0.000000e+00
3.391211e+03,0.000000e+00
3.392175e+03,0.000000e+00
3.393139e+03,0.000000e+00
3.394103e+03,0.000000e+00
3.395068e+03,0.000000e+00
3.396032e+03,0.000000e+00
3.396996e+03,0.000000e+00
3.397960e+03,0.000000e+00
3.398925e+03,0.000000e+00
3.399889e+03,0.000000e+00
3.400853e+03,0.000000e+00
3.401817e+03,0.000000e+00
3.402781e+03,0.000000e+00
3.403746e+03,0.000000e+00
3.404710e+03,0.000000e+00
3.405674e+03,0.000000e+00
3.406638e+03,0.000000e+00
3.407603e+03,0.000000e+00
3.408567e+03,0.000000e+00
3.409531e+03,0.000000e+00
3.410495e+03,0.000000e+00
3.411459e+03,0.000000e+00
3.412424e+03,0.000000e+00
3.413388e+03,0.000000e+00
3.414352e+03,0.000000e+00
3.415316e+03,0.000000e+00
3.416281e+03,0.000000e+00
3.417245e+03,0.000000e+00
3.418209e+03,0.000000e+00
3.419173e+03,0.000000e+00
3.420138e+03,0.000000e+00
3.421102e+03,0.000000e+00
3.422066e+03,0.000000e+00
3.423030e+03,0.000000e+00
3.423995e+03,0.000000e+00
3.424959e+03,0.000000e+00
3.425923e+03,0.000000e+00
3.426887e+03,0.000000e+00
3.427852e+03,0.000000e+00
3.428816e+03,0.000000e+00
3.429780e+03,0.000000e+00
3.430744e+03,0.000000e+00
3.431708e+03,0.000000e+00
3.432673e+03,0.000000e+00
3.433637e+03,0.000000e+00
3.434601e+03,0.000000e+00
3.435565e+03,0.000000e+00
3.436530e+03,0.000000e+00
3.437494e+03,0.000000e+00
3.438458e+03,0.000000e+00
3.439422e+03,0.000000e+00
3.440386e+03,0.000000e+00
3.441351e+03,0.000000e+00
3.442315e+03,0.000000e+00
3.443279e+03,0.000000e+00
3.444243e+03,0.000000e+00
3.445208e+03,0.000000e+00
3.446172e+03,0.000000e+00
3.447136e+03,0.000000e+00
3.448100e+03,0.000000e+00
3.449065e+03,0.000000e+00
3.450029e+03,0.000000e+00
3.450993e+03,0.000000e+00
3.451957e+03,0.000000e+00
3.452922e+03,0.000000e+00
3.453886e+03,0.000000e+00
3.454850e+03,0.000000e+00
3.455814e+03,0.000000e+00
3.456779e+03,0.000000e+00
3.457743e+03,0.000000e+00
3.458707e+03,0.000000e+00
3.459671e+03,0.000000e+00
3.460635e+03,0.000000e+00
3.461600e+03,0.000000e+00
3.462564e+03,0.000000e+00
3.463528e+03,0.000000e+00
3.464492e+03,0.000000e+00
3.465457e+03,0.000000e+00
3.466421e+03,0.000000e+00
3.467385e+03,0.000000e+00
3.468349e+03,0.000000e+00
3.469313e+03,0.000000e+00
3.470278e+03,0.000000e+00
3.471242e+03,0.000000e+00
3.472206e+03,0.000000e+00
3.473170e+03,0.000000e+00
3.474135e+03,0.000000e+00
3.475099e+03,0.000000e+00
3.476063e+03,0.000000e+00
3.477027e+03,0.000000e+00
3.477992e+03,0.000000e+00
3.478956e+03,0.000000e+00
3.479920e+03,0.000000e+00
3.480884e+03,0.000000e+00
3.481849e+03,0.000000e+00
3.482813e+03,0.000000e+00
3.483777e+03,0.000000e+00
3.484741e+03,0.000000e+00
3.485706e+03,0.000000e+00
3.486670e+03,0.000000e+00
3.487634e+03,0.000000e+00
3.488598e+03,0.000000e+00
3.489563e+03,0.000000e+00
3.490527e+03,0.000000e+00
3.491491e+03,0.000000e+00
3.492455e+03,0.000000e+00
3.493419e+03,0.000000e+00
3.494384e+03,0.000000e+00
3.495348e+03,0.000000e+00
3.496312e+03,0.000000e+00
3.497276e+03,0.000000e+00
3.498240e+03,0.000000e+00
3.499205e+03,0.000000e+00
3.500169e+03,0.000000e+00
