9.931763e+01,0.000000e+00
1.002819e+02,0.000000e+00
1.012461e+02,0.000000e+00
1.022103e+02,0.000000e+00
1.031746e+02,0.000000e+00
1.041388e+02,0.000000e+00
1.051030e+02,0.000000e+00
1.060673e+02,0.000000e+00
1.070315e+02,0.000000e+00
1.079957e+02,0.000000e+00
1.089600e+02,0.000000e+00
1.099242e+02,0.000000e+00
1.108884e+02,0.000000e+00
1.118527e+02,0.000000e+00
1.128169e+02,0.000000e+00
1.137811e+02,0.000000e+00
1.147454e+02,0.000000e+00
1.157096e+02,0.000000e+00
1.166738e+02,0.000000e+00
1.176381e+02,0.000000e+00
1.186023e+02,0.000000e+00
1.195665e+02,0.000000e+00
1.205308e+02,0.000000e+00
1.214950e+02,0.000000e+00
1.224592e+02,0.000000e+00
1.234235e+02,0.000000e+00
1.243877e+02,0.000000e+00
1.253519e+02,0.000000e+00
1.263162e+02,0.000000e+00
1.272804e+02,0.000000e+00
1.282446e+02,0.000000e+00
1.292089e+02,0.000000e+00
1.301731e+02,0.000000e+00
1.311373e+02,0.000000e+00
1.321016e+02,0.000000e+00
1.330658e+02,0.000000e+00
1.340300e+02,0.000000e+00
1.349943e+02,0.000000e+00
1.359585e+02,0.000000e+00
1.369227e+02,0.000000e+00
1.378870e+02,0.000000e+00
1.388512e+02,0.000000e+00
1.398154e+02,0.000000e+00
1.407797e+02,0.000000e+00
1.417439e+02,0.000000e+00
1.427081e+02,0.000000e+00
1.436724e+02,0.000000e+00
1.446366e+02,0.000000e+00
1.456008e+02,0.000000e+00
1.465651e+02,0.000000e+00
1.475293e+02,0.000000e+00
1.484935e+02,0.000000e+00
1.494578e+02,0.000000e+00
1.504220e+02,0.000000e+00
1.513862e+02,0.000000e+00
1.523505e+02,0.000000e+00
1.533147e+02,0.000000e+00
1.542789e+02,0.000000e+00
1.552432e+02,0.000000e+00
1.562074e+02,0.000000e+00
1.571716e+02,0.000000e+00
1.581359e+02,0.000000e+00
1.591001e+02,0.000000e+00
1.600643e+02,0.000000e+00
1.610286e+02,0.000000e+00
1.619928e+02,0.000000e+00
1.629570e+02,0.000000e+00
1.639213e+02,0.000000e+00
1.648855e+02,0.000000e+00
1.658497e+02,0.000000e+00
1.668140e+02,0.000000e+00
1.677782e+02,0.000000e+00
1.687424e+02,0.000000e+00
1.697067e+02,0.000000e+00
1.706709e+02,0.000000e+00
1.716351e+02,0.000000e+00
1.725994e+02,0.000000e+00
1.735636e+02,0.000000e+00
1.745278e+02,0.000000e+00
1.754921e+02,0.000000e+00
1.764563e+02,0.000000e+00
1.774205e+02,0.000000e+00
1.783848e+02,0.000000e+00
1.793490e+02,0.000000e+00
1.803132e+02,0.000000e+00
1.812775e+02,0.000000e+00
1.822417e+02,0.000000e+00
1.832059e+02,0.000000e+00
1.841702e+02,0.000000e+00
1.851344e+02,0.000000e+00
1.860986e+02,0.000000e+00
1.870629e+02,0.000000e+00
1.880271e+02,0.000000e+00
1.889913e+02,0.000000e+00
1.899556e+02,0.000000e+00
1.909198e+02,0.000000e+00
1.918840e+02,0.000000e+00
1.928483e+02,0.000000e+00
1.938125e+02,0.000000e+00
1.947767e+02,0.000000e+00
1.957410e+02,0.000000e+00
1.967052e+02,0.000000e+00
1.976694e+02,0.000000e+00
1.986337e+02,0.000000e+00
1.995979e+02,3.928100e+02
2.005621e+02,3.929058e+02
2.015264e+02,3.929959e+02
2.024906e+02,3.931138e+02
2.034548e+02,3.931759e+02
2.044191e+02,3.931074e+02
2.053833e+02,3.928321e+02
2.063475e+02,3.923248e+02
2.073118e+02,3.915240e+02
2.082760e+02,3.902936e+02
2.092402e+02,3.892098e+02
2.102045e+02,3.888739e+02
2.111687e+02,3.886761e+02
2.121329e+02,3.879074e+02
2.130972e+02,3.858982e+02
2.140614e+02,3.834456e+02
2.150256e+02,3.830475e+02
2.159899e+02,3.866186e+02
2.169541e+02,3.895980e+02
2.179183e+02,3.898839e+02
2.188826e+02,3.879801e+02
2.198468e+02,3.859196e+02
2.208110e+02,3.854175e+02
2.217753e+02,3.863630e+02
2.227395e+02,3.864136e+02
2.237037e+02,3.844682e+02
2.246680e+02,3.821094e+02
2.256322e+02,3.808372e+02
2.265964e+02,3.817276e+02
2.275607e+02,3.830181e+02
2.285249e+02,3.822747e+02
2.294892e+02,3.790139e+02
2.304534e+02,3.761736e+02
2.314176e+02,3.763628e+02
2.323819e+02,3.787860e+02
2.333461e+02,3.803229e+02
2.343103e+02,3.791451e+02
2.352746e+02,3.766606e+02
2.362388e+02,3.754781e+02
2.372030e+02,3.763580e+02
2.381673e+02,3.782162e+02
2.391315e+02,3.792844e+02
2.400957e+02,3.796139e+02
2.410600e+02,3.795959e+02
2.420242e+02,3.793984e+02
2.429884e+02,3.791108e+02
2.439527e+02,3.787363e+02
2.449169e+02,3.780648e+02
2.458811e+02,3.769543e+02
2.468454e+02,3.763934e+02
2.478096e+02,3.771363e+02
2.487738e+02,3.779141e+02
2.497381e+02,3.777715e+02
2.507023e+02,3.765435e+02
2.516665e+02,3.747675e+02
2.526308e+02,3.732426e+02
2.535950e+02,3.713978e+02
2.545592e+02,3.702722e+02
2.555235e+02,3.706944e+02
2.564877e+02,3.717481e+02
2.574519e+02,3.722861e+02
2.584161e+02,3.715768e+02
2.593804e+02,3.698644e+02
2.603446e+02,3.691771e+02
2.613088e+02,3.709015e+02
2.622731e+02,3.722988e+02
2.632373e+02,3.722253e+02
2.642015e+02,3.707769e+02
2.651658e+02,3.691571e+02
2.661300e+02,3.688353e+02
2.670942e+02,3.702425e+02
2.680585e+02,3.712261e+02
2.690227e+02,3.714536e+02
2.699869e+02,3.710823e+02
2.709512e+02,3.700297e+02
2.719154e+02,3.680875e+02
2.728796e+02,3.659445e+02
2.738439e+02,3.645516e+02
2.748081e+02,3.641094e+02
2.757723e+02,3.641248e+02
2.767366e+02,3.641273e+02
2.777008e+02,3.639721e+02
2.786650e+02,3.637243e+02
2.796293e+02,3.633421e+02
2.805935e+02,3.630453e+02
2.815577e+02,3.631854e+02
2.825220e+02,3.638870e+02
2.834862e+02,3.647789e+02
2.844504e+02,3.652554e+02
2.854147e+02,3.652035e+02
2.863789e+02,3.651650e+02
2.873431e+02,3.659374e+02
2.883074e+02,3.670138e+02
2.892716e+02,3.669704e+02
2.902358e+02,3.646338e+02
2.912001e+02,3.599375e+02
2.921643e+02,3.572875e+02
2.931285e+02,3.582930e+02
2.940928e+02,3.597435e+02
2.950570e+02,3.601965e+02
2.960212e+02,3.595489e+02
2.969855e+02,3.585566e+02
2.979497e+02,3.582514e+02
2.989139e+02,3.592538e+02
2.998782e+02,3.596136e+02
3.008424e+02,3.586622e+02
3.018066e+02,3.576422e+02
3.027709e+02,3.575392e+02
3.037351e+02,3.588783e+02
3.046993e+02,3.606038e+02
3.056636e+02,3.607810e+02
3.066278e+02,3.590116e+02
3.075920e+02,3.567516e+02
3.085563e+02,3.537925e+02
3.095205e+02,3.507842e+02
3.104847e+02,3.492370e+02
3.114490e+02,3.508390e+02
3.124132e+02,3.540947e+02
3.133774e+02,3.560253e+02
3.143417e+02,3.560626e+02
3.153059e+02,3.550019e+02
3.162701e+02,3.538369e+02
3.172344e+02,3.525155e+02
3.181986e+02,3.515185e+02
3.191628e+02,3.510435e+02
3.201271e+02,3.510206e+02
3.210913e+02,3.513336e+02
3.220555e+02,3.519501e+02
3.230198e+02,3.527914e+02
3.239840e+02,3.535056e+02
3.249482e+02,3.540695e+02
3.259125e+02,3.544986e+02
3.268767e+02,3.547595e+02
3.278409e+02,3.548956e+02
3.288052e+02,3.550159e+02
3.297694e+02,3.554786e+02
3.307336e+02,3.566250e+02
3.316979e+02,3.561620e+02
3.326621e+02,3.512061e+02
3.336263e+02,3.465053e+02
3.345906e+02,3.449639e+02
3.355548e+02,3.474266e+02
3.365190e+02,3.508950e+02
3.374833e+02,3.517545e+02
3.384475e+02,3.496432e+02
3.394117e+02,3.479213e+02
3.403760e+02,3.481019e+02
3.413402e+02,3.492565e+02
3.423044e+02,3.497343e+02
3.432687e+02,3.485235e+02
3.442329e+02,3.469669e+02
3.451971e+02,3.464570e+02
3.461614e+02,3.469349e+02
3.471256e+02,3.470934e+02
3.480898e+02,3.458081e+02
3.490541e+02,3.424127e+02
3.500183e+02,3.402505e+02
3.509825e+02,3.400023e+02
3.519468e+02,3.407456e+02
3.529110e+02,3.419864e+02
3.538752e+02,3.434921e+02
3.548395e+02,3.447565e+02
3.558037e+02,3.448805e+02
3.567680e+02,3.428346e+02
3.577322e+02,3.413440e+02
3.586964e+02,3.412556e+02
3.596607e+02,3.417982e+02
3.606249e+02,3.419891e+02
3.615891e+02,3.410607e+02
3.625534e+02,3.394059e+02
3.635176e+02,3.381489e+02
3.644818e+02,3.373952e+02
3.654461e+02,3.371674e+02
3.664103e+02,3.380027e+02
3.673745e+02,3.398288e+02
3.683388e+02,3.413484e+02
3.693030e+02,3.412248e+02
3.702672e+02,3.405376e+02
3.712315e+02,3.412121e+02
3.721957e+02,3.437553e+02
3.731599e+02,3.469650e+02
3.741242e+02,3.491310e+02
3.750884e+02,3.501971e+02
3.760526e+02,3.506411e+02
3.770169e+02,3.501518e+02
3.779811e+02,3.490546e+02
3.789453e+02,3.477676e+02
3.799096e+02,3.465013e+02
3.808738e+02,3.450692e+02
3.818380e+02,3.427305e+02
3.828023e+02,3.382096e+02
3.837665e+02,3.348522e+02
3.847307e+02,3.340665e+02
3.856950e+02,3.350896e+02
3.866592e+02,3.361046e+02
3.876234e+02,3.361206e+02
3.885877e+02,3.353313e+02
3.895519e+02,3.343002e+02
3.905161e+02,3.329943e+02
3.914804e+02,3.314617e+02
3.924446e+02,3.296446e+02
3.934088e+02,3.273981e+02
3.943731e+02,3.257124e+02
3.953373e+02,3.249241e+02
3.963015e+02,3.248081e+02
3.972658e+02,3.252753e+02
3.982300e+02,3.264253e+02
3.991942e+02,3.278873e+02
4.001585e+02,3.283332e+02
4.011227e+02,3.261355e+02
4.020869e+02,3.244916e+02
4.030512e+02,3.237699e+02
4.040154e+02,3.237281e+02
4.049796e+02,3.241623e+02
4.059439e+02,3.254370e+02
4.069081e+02,3.270230e+02
4.078723e+02,3.267583e+02
4.088366e+02,3.236836e+02
4.098008e+02,3.201652e+02
4.107650e+02,3.174665e+02
4.117293e+02,3.155697e+02
4.126935e+02,3.151379e+02
4.136577e+02,3.178427e+02
4.146220e+02,3.217520e+02
4.155862e+02,3.239186e+02
4.165504e+02,3.236396e+02
4.175147e+02,3.220811e+02
4.184789e+02,3.210564e+02
4.194431e+02,3.211846e+02
4.204074e+02,3.211012e+02
4.213716e+02,3.204437e+02
4.223358e+02,3.196833e+02
4.233001e+02,3.194164e+02
4.242643e+02,3.200374e+02
4.252285e+02,3.210767e+02
4.261928e+02,3.212577e+02
4.271570e+02,3.201054e+02
4.281212e+02,3.192376e+02
4.290855e+02,3.197844e+02
4.300497e+02,3.210741e+02
4.310139e+02,3.216364e+02
4.319782e+02,3.199395e+02
4.329424e+02,3.178874e+02
4.339066e+02,3.181001e+02
4.348709e+02,3.207645e+02
4.358351e+02,3.235311e+02
4.367993e+02,3.240252e+02
4.377636e+02,3.208178e+02
4.387278e+02,3.190801e+02
4.396920e+02,3.206361e+02
4.406563e+02,3.224982e+02
4.416205e+02,3.222836e+02
4.425847e+02,3.194121e+02
4.435490e+02,3.155872e+02
4.445132e+02,3.130730e+02
4.454774e+02,3.120986e+02
4.464417e+02,3.116107e+02
4.474059e+02,3.115468e+02
4.483701e+02,3.116900e+02
4.493344e+02,3.118099e+02
4.502986e+02,3.114479e+02
4.512628e+02,3.115839e+02
4.522271e+02,3.135727e+02
4.531913e+02,3.169420e+02
4.541555e+02,3.195286e+02
4.551198e+02,3.199044e+02
4.560840e+02,3.180746e+02
4.570482e+02,3.165828e+02
4.580125e+02,3.165145e+02
4.589767e+02,3.160365e+02
4.599409e+02,3.136330e+02
4.609052e+02,3.097674e+02
4.618694e+02,3.065396e+02
4.628336e+02,3.062323e+02
4.637979e+02,3.085244e+02
4.647621e+02,3.100697e+02
4.657263e+02,3.107026e+02
4.666906e+02,3.106453e+02
4.676548e+02,3.098368e+02
4.686190e+02,3.079549e+02
4.695833e+02,3.062965e+02
4.705475e+02,3.052439e+02
4.715117e+02,3.046174e+02
4.724760e+02,3.042774e+02
4.734402e+02,3.042227e+02
4.744044e+02,3.042927e+02
4.753687e+02,3.040596e+02
4.763329e+02,3.032222e+02
4.772971e+02,3.025590e+02
4.782614e+02,3.023164e+02
4.792256e+02,3.022832e+02
4.801898e+02,3.021346e+02
4.811541e+02,3.013838e+02
4.821183e+02,3.006581e+02
4.830826e+02,3.010457e+02
4.840468e+02,3.025871e+02
4.850110e+02,3.041651e+02
4.859753e+02,3.052186e+02
4.869395e+02,3.056906e+02
4.879037e+02,3.058106e+02
4.888680e+02,3.056513e+02
4.898322e+02,3.051720e+02
4.907964e+02,3.039503e+02
4.917607e+02,3.022285e+02
4.927249e+02,3.009624e+02
4.936891e+02,3.015345e+02
4.946534e+02,3.041231e+02
4.956176e+02,3.052294e+02
4.965818e+02,3.036743e+02
4.975461e+02,3.015719e+02
4.985103e+02,3.007403e+02
4.994745e+02,3.014398e+02
5.004388e+02,3.020533e+02
5.014030e+02,3.019836e+02
5.023672e+02,3.014632e+02
5.033315e+02,3.008745e+02
5.042957e+02,3.003383e+02
5.052599e+02,2.996178e+02
5.062242e+02,2.981714e+02
5.071884e+02,2.947196e+02
5.081526e+02,2.926660e+02
5.091169e+02,2.930527e+02
5.100811e+02,2.947658e+02
5.110453e+02,2.965024e+02
5.120095e+02,2.978279e+02
5.129738e+02,2.989897e+02
5.139380e+02,3.007465e+02
5.149022e+02,3.030770e+02
5.158665e+02,3.040215e+02
5.168307e+02,3.018673e+02
5.177949e+02,2.966024e+02
5.187592e+02,2.935671e+02
5.197234e+02,2.954221e+02
5.206876e+02,2.971432e+02
5.216519e+02,2.958714e+02
5.226161e+02,2.925064e+02
5.235803e+02,2.900270e+02
5.245446e+02,2.917055e+02
5.255088e+02,2.967638e+02
5.264730e+02,2.996198e+02
5.274373e+02,2.996503e+02
5.284015e+02,2.983846e+02
5.293657e+02,2.966472e+02
5.303300e+02,2.943107e+02
5.312942e+02,2.926100e+02
5.322584e+02,2.925374e+02
5.332227e+02,2.930091e+02
5.341869e+02,2.927350e+02
5.351511e+02,2.914437e+02
5.361154e+02,2.900489e+02
5.370796e+02,2.901216e+02
5.380438e+02,2.923356e+02
5.390081e+02,2.934045e+02
5.399723e+02,2.916252e+02
5.409365e+02,2.893309e+02
5.419008e+02,2.887846e+02
5.428650e+02,2.911537e+02
5.438292e+02,2.932232e+02
5.447935e+02,2.932069e+02
5.457577e+02,2.916694e+02
5.467219e+02,2.894947e+02
5.476862e+02,2.868521e+02
5.486504e+02,2.843217e+02
5.496146e+02,2.839164e+02
5.505789e+02,2.880003e+02
5.515431e+02,2.904812e+02
5.525073e+02,2.888799e+02
5.534716e+02,2.854672e+02
5.544358e+02,2.834164e+02
5.554000e+02,2.847963e+02
5.563643e+02,2.871760e+02
5.573285e+02,2.882620e+02
5.582927e+02,2.881280e+02
5.592570e+02,2.875157e+02
5.602212e+02,2.868589e+02
5.611854e+02,2.861351e+02
5.621497e+02,2.854311e+02
5.631139e+02,2.842318e+02
5.640781e+02,2.834145e+02
5.650424e+02,2.840222e+02
5.660066e+02,2.855240e+02
5.669708e+02,2.860433e+02
5.679351e+02,2.832136e+02
5.688993e+02,2.791189e+02
5.698635e+02,2.778328e+02
5.708278e+02,2.798155e+02
5.717920e+02,2.825962e+02
5.727562e+02,2.838885e+02
5.737205e+02,2.830540e+02
5.746847e+02,2.826161e+02
5.756489e+02,2.828785e+02
5.766132e+02,2.831774e+02
5.775774e+02,2.831549e+02
5.785416e+02,2.827845e+02
5.795059e+02,2.823641e+02
5.804701e+02,2.825006e+02
5.814343e+02,2.828178e+02
5.823986e+02,2.816728e+02
5.833628e+02,2.783365e+02
5.843270e+02,2.749081e+02
5.852913e+02,2.742945e+02
5.862555e+02,2.798307e+02
5.872197e+02,2.831776e+02
5.881840e+02,2.830842e+02
5.891482e+02,2.815733e+02
5.901124e+02,2.800698e+02
5.910767e+02,2.788932e+02
5.920409e+02,2.782767e+02
5.930051e+02,2.784958e+02
5.939694e+02,2.794731e+02
5.949336e+02,2.810969e+02
5.958978e+02,2.836687e+02
5.968621e+02,2.864191e+02
5.978263e+02,2.876039e+02
5.987905e+02,2.858497e+02
5.997548e+02,2.841561e+02
6.007190e+02,2.827723e+02
6.016832e+02,2.816149e+02
6.026475e+02,2.804331e+02
6.036117e+02,2.788167e+02
6.045759e+02,2.775089e+02
6.055402e+02,2.778073e+02
6.065044e+02,2.794652e+02
6.074686e+02,2.805540e+02
6.084329e+02,2.800839e+02
6.093971e+02,2.785311e+02
6.103613e+02,2.781199e+02
6.113256e+02,2.804039e+02
6.122899e+02,2.822244e+02
6.132541e+02,2.828857e+02
6.142183e+02,2.827245e+02
6.151826e+02,2.823727e+02
6.161468e+02,2.822100e+02
6.171110e+02,2.820532e+02
6.180753e+02,2.817190e+02
6.190395e+02,2.811587e+02
6.200037e+02,2.800100e+02
6.209680e+02,2.777285e+02
6.219322e+02,2.744957e+02
6.228964e+02,2.733618e+02
6.238607e+02,2.768553e+02
6.248249e+02,2.797674e+02
6.257891e+02,2.799435e+02
6.267534e+02,2.780759e+02
6.277176e+02,2.765870e+02
6.286818e+02,2.771413e+02
6.296461e+02,2.783490e+02
6.306103e+02,2.786613e+02
6.315745e+02,2.780917e+02
6.325388e+02,2.772452e+02
6.335030e+02,2.765031e+02
6.344672e+02,2.758244e+02
6.354315e+02,2.750887e+02
6.363957e+02,2.738191e+02
6.373599e+02,2.729289e+02
6.383242e+02,2.735211e+02
6.392884e+02,2.753555e+02
6.402526e+02,2.758827e+02
6.412169e+02,2.724829e+02
6.421811e+02,2.685394e+02
6.431453e+02,2.676976e+02
6.441096e+02,2.698575e+02
6.450738e+02,2.722653e+02
6.460380e+02,2.719751e+02
6.470023e+02,2.689428e+02
6.479665e+02,2.678880e+02
6.489307e+02,2.697644e+02
6.498950e+02,2.721485e+02
6.508592e+02,2.729782e+02
6.518234e+02,2.720807e+02
6.527877e+02,2.715588e+02
6.537519e+02,2.721603e+02
6.547161e+02,2.729721e+02
6.556804e+02,2.732752e+02
6.566446e+02,2.730407e+02
6.576088e+02,2.727454e+02
6.585731e+02,2.731501e+02
6.595373e+02,2.740029e+02
6.605015e+02,2.735244e+02
6.614658e+02,2.711200e+02
6.624300e+02,2.685793e+02
6.633942e+02,2.677131e+02
6.643585e+02,2.693848e+02
6.653227e+02,2.705347e+02
6.662869e+02,2.704267e+02
6.672512e+02,2.702826e+02
6.682154e+02,2.712883e+02
6.691796e+02,2.734974e+02
6.701439e+02,2.749265e+02
6.711081e+02,2.733691e+02
6.720723e+02,2.701625e+02
6.730366e+02,2.680452e+02
6.740008e+02,2.675099e+02
6.749650e+02,2.678765e+02
6.759293e+02,2.685256e+02
6.768935e+02,2.698540e+02
6.778577e+02,2.703996e+02
6.788220e+02,2.697332e+02
6.797862e+02,2.687326e+02
6.807504e+02,2.676328e+02
6.817147e+02,2.662015e+02
6.826789e+02,2.656285e+02
6.836431e+02,2.671269e+02
6.846074e+02,2.692287e+02
6.855716e+02,2.706671e+02
6.865358e+02,2.711898e+02
6.875001e+02,2.706730e+02
6.884643e+02,2.680259e+02
6.894285e+02,2.633009e+02
6.903928e+02,2.613110e+02
6.913570e+02,2.635045e+02
6.923212e+02,2.670395e+02
6.932855e+02,2.688792e+02
6.942497e+02,2.680271e+02
6.952139e+02,2.676687e+02
6.961782e+02,2.691245e+02
6.971424e+02,2.701608e+02
6.981066e+02,2.683780e+02
6.990709e+02,2.632552e+02
7.000351e+02,2.586739e+02
7.009993e+02,2.580287e+02
7.019636e+02,2.602110e+02
7.029278e+02,2.632190e+02
7.038920e+02,2.667781e+02
7.048563e+02,2.694841e+02
7.058205e+02,2.692111e+02
7.067847e+02,2.647279e+02
7.077490e+02,2.619256e+02
7.087132e+02,2.621972e+02
7.096774e+02,2.634093e+02
7.106417e+02,2.635784e+02
7.116059e+02,2.623418e+02
7.125701e+02,2.613685e+02
7.135344e+02,2.611189e+02
7.144986e+02,2.614052e+02
7.154628e+02,2.619838e+02
7.164271e+02,2.627946e+02
7.173913e+02,2.639883e+02
7.183555e+02,2.667718e+02
7.193198e+02,2.703999e+02
7.202840e+02,2.705034e+02
7.212482e+02,2.659327e+02
7.222125e+02,2.603846e+02
7.231767e+02,2.577098e+02
7.241409e+02,2.589562e+02
7.251052e+02,2.599300e+02
7.260694e+02,2.613332e+02
7.270336e+02,2.618853e+02
7.279979e+02,2.599995e+02
7.289621e+02,2.554300e+02
7.299263e+02,2.528728e+02
7.308906e+02,2.564460e+02
7.318548e+02,2.618268e+02
7.328190e+02,2.644176e+02
7.337833e+02,2.637536e+02
7.347475e+02,2.618443e+02
7.357117e+02,2.602785e+02
7.366760e+02,2.591304e+02
7.376402e+02,2.588438e+02
7.386044e+02,2.595865e+02
7.395687e+02,2.608475e+02
7.405329e+02,2.623779e+02
7.414971e+02,2.645699e+02
7.424614e+02,2.652514e+02
7.434256e+02,2.634027e+02
7.443898e+02,2.613456e+02
7.453541e+02,2.598050e+02
7.463183e+02,2.587605e+02
7.472825e+02,2.583595e+02
7.482468e+02,2.594734e+02
7.492110e+02,2.608307e+02
7.501752e+02,2.612216e+02
7.511395e+02,2.607047e+02
7.521037e+02,2.597116e+02
7.530679e+02,2.583781e+02
7.540322e+02,2.566800e+02
7.549964e+02,2.546697e+02
7.559606e+02,2.519944e+02
7.569249e+02,2.504834e+02
7.578891e+02,2.516441e+02
7.588533e+02,2.556947e+02
7.598176e+02,2.587876e+02
7.607818e+02,2.605314e+02
7.617460e+02,2.613275e+02
7.627103e+02,2.612577e+02
7.636745e+02,2.605196e+02
7.646387e+02,2.593675e+02
7.656030e+02,2.570190e+02
7.665672e+02,2.549377e+02
7.675314e+02,2.546799e+02
7.684957e+02,2.556184e+02
7.694599e+02,2.560517e+02
7.704241e+02,2.548563e+02
7.713884e+02,2.527971e+02
7.723526e+02,2.519009e+02
7.733168e+02,2.523320e+02
7.742811e+02,2.530241e+02
7.752453e+02,2.534038e+02
7.762095e+02,2.534373e+02
7.771738e+02,2.534235e+02
7.781380e+02,2.531321e+02
7.791022e+02,2.528855e+02
7.800665e+02,2.529728e+02
7.810307e+02,2.532178e+02
7.819949e+02,2.533018e+02
7.829592e+02,2.530281e+02
7.839234e+02,2.528731e+02
7.848876e+02,2.531085e+02
7.858519e+02,2.535259e+02
7.868161e+02,2.538366e+02
7.877803e+02,2.539263e+02
7.887446e+02,2.538306e+02
7.897088e+02,2.536973e+02
7.906730e+02,2.535888e+02
7.916373e+02,2.532497e+02
7.926015e+02,2.523972e+02
7.935657e+02,2.512359e+02
7.945300e+02,2.504234e+02
7.954942e+02,2.499289e+02
7.964584e+02,2.502075e+02
7.974227e+02,2.524793e+02
7.983869e+02,2.552354e+02
7.993511e+02,2.563397e+02
8.003154e+02,2.546659e+02
8.012796e+02,2.529896e+02
8.022438e+02,2.520580e+02
8.032081e+02,2.513476e+02
8.041723e+02,2.501403e+02
8.051365e+02,2.481967e+02
8.061008e+02,2.467999e+02
8.070650e+02,2.472930e+02
8.080292e+02,2.487659e+02
8.089935e+02,2.498995e+02
8.099577e+02,2.505405e+02
8.109219e+02,2.508411e+02
8.118862e+02,2.509572e+02
8.128504e+02,2.508788e+02
8.138146e+02,2.502126e+02
8.147789e+02,2.486684e+02
8.157431e+02,2.471542e+02
8.167073e+02,2.464719e+02
8.176716e+02,2.468820e+02
8.186358e+02,2.474117e+02
8.196000e+02,2.480922e+02
8.205643e+02,2.488328e+02
8.215285e+02,2.495260e+02
8.224927e+02,2.501477e+02
8.234570e+02,2.506748e+02
8.244212e+02,2.516510e+02
8.253854e+02,2.520726e+02
8.263497e+02,2.505532e+02
8.273139e+02,2.477662e+02
8.282781e+02,2.458018e+02
8.292424e+02,2.471016e+02
8.302066e+02,2.493404e+02
8.311708e+02,2.484620e+02
8.321351e+02,2.451110e+02
8.330993e+02,2.426420e+02
8.340635e+02,2.428524e+02
8.350278e+02,2.448888e+02
8.359920e+02,2.464426e+02
8.369562e+02,2.475795e+02
8.379205e+02,2.478599e+02
8.388847e+02,2.468038e+02
8.398489e+02,2.450174e+02
8.408132e+02,2.440154e+02
8.417774e+02,2.444389e+02
8.427416e+02,2.446547e+02
8.437059e+02,2.445347e+02
8.446701e+02,2.441286e+02
8.456343e+02,2.434119e+02
8.465986e+02,2.418682e+02
8.475628e+02,2.409814e+02
8.485270e+02,2.419046e+02
8.494913e+02,2.433722e+02
8.504555e+02,2.441142e+02
8.514197e+02,2.438486e+02
8.523840e+02,2.432575e+02
8.533482e+02,2.425678e+02
8.543124e+02,2.419440e+02
8.552767e+02,2.417148e+02
8.562409e+02,2.419119e+02
8.572051e+02,2.424774e+02
8.581694e+02,2.438731e+02
8.591336e+02,2.459600e+02
8.600978e+02,2.461154e+02
8.610621e+02,2.437376e+02
8.620263e+02,2.420181e+02
8.629905e+02,2.437276e+02
8.639548e+02,2.491016e+02
8.649190e+02,2.514564e+02
8.658832e+02,2.489936e+02
8.668475e+02,2.461472e+02
8.678117e+02,2.446913e+02
8.687759e+02,2.444194e+02
8.697402e+02,2.445337e+02
8.707044e+02,2.448228e+02
8.716686e+02,2.454043e+02
8.726329e+02,2.470645e+02
8.735971e+02,2.491132e+02
8.745613e+02,2.501949e+02
8.755256e+02,2.491864e+02
8.764898e+02,2.479560e+02
8.774540e+02,2.474595e+02
8.784183e+02,2.475612e+02
8.793825e+02,2.482019e+02
8.803467e+02,2.494709e+02
8.813110e+02,2.507202e+02
8.822752e+02,2.511756e+02
8.832394e+02,2.510134e+02
8.842037e+02,2.507116e+02
8.851679e+02,2.503322e+02
8.861321e+02,2.496140e+02
8.870964e+02,2.477719e+02
8.880606e+02,2.446544e+02
8.890248e+02,2.436357e+02
8.899891e+02,2.458880e+02
8.909533e+02,2.484857e+02
8.919175e+02,2.484140e+02
8.928818e+02,2.447680e+02
8.938460e+02,2.425739e+02
8.948102e+02,2.426522e+02
8.957745e+02,2.431773e+02
8.967387e+02,2.434114e+02
8.977029e+02,2.433021e+02
8.986672e+02,2.425580e+02
8.996314e+02,2.407218e+02
9.005956e+02,2.389497e+02
9.015599e+02,2.373720e+02
9.025241e+02,2.361600e+02
9.034883e+02,2.357402e+02
9.044526e+02,2.369705e+02
9.054168e+02,2.382533e+02
9.063810e+02,2.390384e+02
9.073453e+02,2.393626e+02
9.083095e+02,2.389949e+02
9.092737e+02,2.375200e+02
9.102380e+02,2.357774e+02
9.112022e+02,2.344410e+02
9.121664e+02,2.335985e+02
9.131307e+02,2.337993e+02
9.140949e+02,2.353530e+02
9.150591e+02,2.371732e+02
9.160234e+02,2.371948e+02
9.169876e+02,2.356074e+02
9.179518e+02,2.354263e+02
9.189161e+02,2.373209e+02
9.198803e+02,2.392863e+02
9.208445e+02,2.390356e+02
9.218088e+02,2.362640e+02
9.227730e+02,2.346242e+02
9.237372e+02,2.344582e+02
9.247015e+02,2.345301e+02
9.256657e+02,2.339956e+02
9.266299e+02,2.327978e+02
9.275942e+02,2.321062e+02
9.285584e+02,2.318899e+02
9.295226e+02,2.321223e+02
9.304869e+02,2.334065e+02
9.314511e+02,2.352642e+02
9.324153e+02,2.360147e+02
9.333796e+02,2.348496e+02
9.343438e+02,2.333310e+02
9.353080e+02,2.312855e+02
9.362723e+02,2.292266e+02
9.372365e+02,2.279739e+02
9.382007e+02,2.282186e+02
9.391650e+02,2.288076e+02
9.401292e+02,2.291061e+02
9.410934e+02,2.294755e+02
9.420577e+02,2.304861e+02
9.430219e+02,2.323145e+02
9.439861e+02,2.337730e+02
9.449504e+02,2.334729e+02
9.459146e+02,2.326737e+02
9.468788e+02,2.333216e+02
9.478431e+02,2.353455e+02
9.488073e+02,2.369384e+02
9.497715e+02,2.364638e+02
9.507358e+02,2.346584e+02
9.517000e+02,2.328441e+02
9.526642e+02,2.311846e+02
9.536285e+02,2.301082e+02
9.545927e+02,2.300153e+02
9.555569e+02,2.305435e+02
9.565212e+02,2.304009e+02
9.574854e+02,2.296388e+02
9.584496e+02,2.293693e+02
9.594139e+02,2.300744e+02
9.603781e+02,2.311629e+02
9.613423e+02,2.310176e+02
9.623066e+02,2.291275e+02
9.632708e+02,2.287177e+02
9.642350e+02,2.312057e+02
9.651993e+02,2.344365e+02
9.661635e+02,2.351583e+02
9.671277e+02,2.316793e+02
9.680920e+02,2.296221e+02
9.690562e+02,2.297592e+02
9.700204e+02,2.305344e+02
9.709847e+02,2.310319e+02
9.719489e+02,2.314064e+02
9.729131e+02,2.310779e+02
9.738774e+02,2.289053e+02
9.748416e+02,2.272907e+02
9.758058e+02,2.274850e+02
9.767701e+02,2.290829e+02
9.777343e+02,2.302230e+02
9.786985e+02,2.299578e+02
9.796628e+02,2.298849e+02
9.806270e+02,2.313643e+02
9.815912e+02,2.332423e+02
9.825555e+02,2.335360e+02
9.835197e+02,2.302397e+02
9.844839e+02,2.275814e+02
9.854482e+02,2.277384e+02
9.864124e+02,2.292780e+02
9.873766e+02,2.307276e+02
9.883409e+02,2.318195e+02
9.893051e+02,2.322804e+02
9.902693e+02,2.316157e+02
9.912336e+02,2.304453e+02
9.921978e+02,2.292018e+02
9.931620e+02,2.279338e+02
9.941263e+02,2.268749e+02
9.950905e+02,2.261856e+02
9.960547e+02,2.258487e+02
9.970190e+02,2.260363e+02
9.979832e+02,2.265655e+02
9.989474e+02,2.268772e+02
9.999117e+02,2.267358e+02
1.000876e+03,2.262873e+02
1.001840e+03,2.255610e+02
1.002804e+03,2.247118e+02
1.003769e+03,2.240880e+02
1.004733e+03,2.237646e+02
1.005697e+03,2.235878e+02
1.006661e+03,2.235322e+02
1.007626e+03,2.235183e+02
1.008590e+03,2.227661e+02
1.009554e+03,2.210183e+02
1.010518e+03,2.197230e+02
1.011482e+03,2.213443e+02
1.012447e+03,2.253069e+02
1.013411e+03,2.268174e+02
1.014375e+03,2.256882e+02
1.015339e+03,2.237928e+02
1.016304e+03,2.221077e+02
1.017268e+03,2.207023e+02
1.018232e+03,2.203277e+02
1.019196e+03,2.211165e+02
1.020161e+03,2.215751e+02
1.021125e+03,2.209585e+02
1.022089e+03,2.199686e+02
1.023053e+03,2.205803e+02
1.024018e+03,2.232364e+02
1.024982e+03,2.247190e+02
1.025946e+03,2.239713e+02
1.026910e+03,2.224473e+02
1.027875e+03,2.223211e+02
1.028839e+03,2.243736e+02
1.029803e+03,2.253330e+02
1.030767e+03,2.248187e+02
1.031731e+03,2.238365e+02
1.032696e+03,2.230109e+02
1.033660e+03,2.223324e+02
1.034624e+03,2.214715e+02
1.035588e+03,2.201269e+02
1.036552e+03,2.193075e+02
1.037517e+03,2.195496e+02
1.038481e+03,2.205011e+02
1.039445e+03,2.210559e+02
1.040409e+03,2.209106e+02
1.041374e+03,2.208972e+02
1.042338e+03,2.213910e+02
1.043302e+03,2.220365e+02
1.044266e+03,2.223000e+02
1.045231e+03,2.218240e+02
1.046195e+03,2.215564e+02
1.047159e+03,2.219545e+02
1.048123e+03,2.222617e+02
1.049088e+03,2.216681e+02
1.050052e+03,2.199625e+02
1.051016e+03,2.196277e+02
1.051980e+03,2.222283e+02
1.052945e+03,2.245293e+02
1.053909e+03,2.255049e+02
1.054873e+03,2.250974e+02
1.055837e+03,2.235681e+02
1.056802e+03,2.184128e+02
1.057766e+03,2.153948e+02
1.058730e+03,2.175887e+02
1.059694e+03,2.216549e+02
1.060658e+03,2.233314e+02
1.061623e+03,2.206317e+02
1.062587e+03,2.187390e+02
1.063551e+03,2.182456e+02
1.064515e+03,2.187547e+02
1.065479e+03,2.204310e+02
1.066444e+03,2.234419e+02
1.067408e+03,2.253052e+02
1.068372e+03,2.252905e+02
1.069336e+03,2.244251e+02
1.070301e+03,2.222843e+02
1.071265e+03,2.194694e+02
1.072229e+03,2.179251e+02
1.073193e+03,2.188129e+02
1.074158e+03,2.199926e+02
1.075122e+03,2.213250e+02
1.076086e+03,2.224577e+02
1.077050e+03,2.229521e+02
1.078015e+03,2.224524e+02
1.078979e+03,2.223697e+02
1.079943e+03,2.231364e+02
1.080907e+03,2.242297e+02
1.081872e+03,2.252910e+02
1.082836e+03,2.262230e+02
1.083800e+03,2.270288e+02
1.084764e+03,2.270961e+02
1.085729e+03,2.277830e+02
1.086693e+03,2.302628e+02
1.087657e+03,2.337741e+02
1.088621e+03,2.363902e+02
1.089585e+03,2.366819e+02
1.090550e+03,2.372024e+02
1.091514e+03,2.395025e+02
1.092478e+03,2.420732e+02
1.093442e+03,2.432189e+02
1.094406e+03,2.424844e+02
1.095371e+03,2.411045e+02
1.096335e+03,2.389042e+02
1.097299e+03,2.363862e+02
1.098263e+03,2.336677e+02
1.099228e+03,2.307804e+02
1.100192e+03,2.283894e+02
1.101156e+03,2.262435e+02
1.102120e+03,2.249666e+02
1.103085e+03,2.256588e+02
1.104049e+03,2.272630e+02
1.105013e+03,2.276716e+02
1.105977e+03,2.252315e+02
1.106942e+03,2.233781e+02
1.107906e+03,2.228963e+02
1.108870e+03,2.230901e+02
1.109834e+03,2.232762e+02
1.110799e+03,2.232460e+02
1.111763e+03,2.238640e+02
1.112727e+03,2.258876e+02
1.113691e+03,2.280186e+02
1.114656e+03,2.297646e+02
1.115620e+03,2.310785e+02
1.116584e+03,2.317559e+02
1.117548e+03,2.311637e+02
1.118512e+03,2.304814e+02
1.119477e+03,2.300963e+02
1.120441e+03,2.297585e+02
1.121405e+03,2.291155e+02
1.122369e+03,2.279396e+02
1.123334e+03,2.268275e+02
1.124298e+03,2.260516e+02
1.125262e+03,2.251786e+02
1.126226e+03,2.238036e+02
1.127191e+03,2.218302e+02
1.128155e+03,2.203612e+02
1.129119e+03,2.194386e+02
1.130083e+03,2.188751e+02
1.131047e+03,2.188427e+02
1.132012e+03,2.190315e+02
1.132976e+03,2.185025e+02
1.133940e+03,2.164729e+02
1.134904e+03,2.153851e+02
1.135869e+03,2.164399e+02
1.136833e+03,2.177645e+02
1.137797e+03,2.168961e+02
1.138761e+03,2.126382e+02
1.139726e+03,2.113004e+02
1.140690e+03,2.142412e+02
1.141654e+03,2.171951e+02
1.142618e+03,2.175181e+02
1.143583e+03,2.156080e+02
1.144547e+03,2.144046e+02
1.145511e+03,2.138926e+02
1.146475e+03,2.142742e+02
1.147439e+03,2.159638e+02
1.148404e+03,2.179948e+02
1.149368e+03,2.184138e+02
1.150332e+03,2.170095e+02
1.151296e+03,2.157826e+02
1.152261e+03,2.147415e+02
1.153225e+03,2.141681e+02
1.154189e+03,2.150363e+02
1.155153e+03,2.170173e+02
1.156118e+03,2.156351e+02
1.157082e+03,2.108383e+02
1.158046e+03,2.076604e+02
1.159010e+03,2.087322e+02
1.159974e+03,2.118064e+02
1.160939e+03,2.119162e+02
1.161903e+03,2.095261e+02
1.162867e+03,2.080491e+02
1.163831e+03,2.081883e+02
1.164796e+03,2.089586e+02
1.165760e+03,2.097564e+02
1.166724e+03,2.103730e+02
1.167688e+03,2.099245e+02
1.168653e+03,2.085395e+02
1.169617e+03,2.072509e+02
1.170581e+03,2.068585e+02
1.171545e+03,2.067794e+02
1.172510e+03,2.061159e+02
1.173474e+03,2.050998e+02
1.174438e+03,2.041279e+02
1.175402e+03,2.032602e+02
1.176366e+03,2.027386e+02
1.177331e+03,2.030634e+02
1.178295e+03,2.037447e+02
1.179259e+03,2.042173e+02
1.180223e+03,2.043716e+02
1.181188e+03,2.042504e+02
1.182152e+03,2.040241e+02
1.183116e+03,2.034154e+02
1.184080e+03,2.014074e+02
1.185045e+03,1.991747e+02
1.186009e+03,1.988772e+02
1.186973e+03,2.024310e+02
1.187937e+03,2.053350e+02
1.188901e+03,2.054338e+02
1.189866e+03,2.043673e+02
1.190830e+03,2.031182e+02
1.191794e+03,2.017653e+02
1.192758e+03,2.011707e+02
1.193723e+03,2.025336e+02
1.194687e+03,2.037408e+02
1.195651e+03,2.039508e+02
1.196615e+03,2.033482e+02
1.197580e+03,2.024374e+02
1.198544e+03,2.002277e+02
1.199508e+03,1.990117e+02
1.200472e+03,1.995918e+02
1.201437e+03,2.007397e+02
1.202401e+03,2.015235e+02
1.203365e+03,2.019981e+02
1.204329e+03,2.020240e+02
1.205293e+03,2.012093e+02
1.206258e+03,2.009264e+02
1.207222e+03,2.020457e+02
1.208186e+03,2.038408e+02
1.209150e+03,2.039552e+02
1.210115e+03,2.021257e+02
1.211079e+03,2.005427e+02
1.212043e+03,1.995347e+02
1.213007e+03,1.992868e+02
1.213972e+03,2.006172e+02
1.214936e+03,2.031612e+02
1.215900e+03,2.044395e+02
1.216864e+03,2.044079e+02
1.217828e+03,2.030598e+02
1.218793e+03,1.996426e+02
1.219757e+03,1.960744e+02
1.220721e+03,1.961739e+02
1.221685e+03,1.987582e+02
1.222650e+03,2.007370e+02
1.223614e+03,2.012497e+02
1.224578e+03,2.009735e+02
1.225542e+03,1.997962e+02
1.226507e+03,1.987429e+02
1.227471e+03,1.996145e+02
1.228435e+03,2.018187e+02
1.229399e+03,2.028004e+02
1.230364e+03,1.998504e+02
1.231328e+03,1.970685e+02
1.232292e+03,1.968947e+02
1.233256e+03,1.982165e+02
1.234220e+03,1.996750e+02
1.235185e+03,2.014332e+02
1.236149e+03,2.020898e+02
1.237113e+03,2.004462e+02
1.238077e+03,1.984992e+02
1.239042e+03,1.970023e+02
1.240006e+03,1.959426e+02
1.240970e+03,1.956949e+02
1.241934e+03,1.966678e+02
1.242899e+03,1.977560e+02
1.243863e+03,1.989973e+02
1.244827e+03,2.000863e+02
1.245791e+03,2.005880e+02
1.246755e+03,2.004748e+02
1.247720e+03,1.997668e+02
1.248684e+03,1.982832e+02
1.249648e+03,1.972817e+02
1.250612e+03,1.978403e+02
1.251577e+03,1.992005e+02
1.252541e+03,1.985616e+02
1.253505e+03,1.962139e+02
1.254469e+03,1.946398e+02
1.255434e+03,1.946257e+02
1.256398e+03,1.953255e+02
1.257362e+03,1.958344e+02
1.258326e+03,1.962319e+02
1.259291e+03,1.967830e+02
1.260255e+03,1.974320e+02
1.261219e+03,1.979043e+02
1.262183e+03,1.982294e+02
1.263147e+03,1.983492e+02
1.264112e+03,1.979522e+02
1.265076e+03,1.973778e+02
1.266040e+03,1.971290e+02
1.267004e+03,1.974613e+02
1.267969e+03,1.976828e+02
1.268933e+03,1.974668e+02
1.269897e+03,1.973475e+02
1.270861e+03,1.974454e+02
1.271826e+03,1.976481e+02
1.272790e+03,1.981575e+02
1.273754e+03,1.995315e+02
1.274718e+03,2.003312e+02
1.275682e+03,2.001082e+02
1.276647e+03,1.996108e+02
1.277611e+03,1.997751e+02
1.278575e+03,2.006942e+02
1.279539e+03,2.014206e+02
1.280504e+03,2.021156e+02
1.281468e+03,2.021465e+02
1.282432e+03,2.008133e+02
1.283396e+03,1.988515e+02
1.284361e+03,1.981604e+02
1.285325e+03,1.984324e+02
1.286289e+03,1.984910e+02
1.287253e+03,1.980124e+02
1.288218e+03,1.976850e+02
1.289182e+03,1.986058e+02
1.290146e+03,1.998161e+02
1.291110e+03,1.999192e+02
1.292074e+03,1.992153e+02
1.293039e+03,1.989473e+02
1.294003e+03,2.007933e+02
1.294967e+03,2.017929e+02
1.295931e+03,1.998227e+02
1.296896e+03,1.969946e+02
1.297860e+03,1.956190e+02
1.298824e+03,1.963576e+02
1.299788e+03,1.965889e+02
1.300753e+03,1.956131e+02
1.301717e+03,1.949093e+02
1.302681e+03,1.951018e+02
1.303645e+03,1.959551e+02
1.304609e+03,1.969023e+02
1.305574e+03,1.979376e+02
1.306538e+03,1.984982e+02
1.307502e+03,1.985621e+02
1.308466e+03,1.984352e+02
1.309431e+03,1.983045e+02
1.310395e+03,1.981809e+02
1.311359e+03,1.980532e+02
1.312323e+03,1.978572e+02
1.313288e+03,1.976127e+02
1.314252e+03,1.973229e+02
1.315216e+03,1.974070e+02
1.316180e+03,1.985361e+02
1.317145e+03,2.000358e+02
1.318109e+03,2.010847e+02
1.319073e+03,2.014909e+02
1.320037e+03,2.015356e+02
1.321001e+03,2.010854e+02
1.321966e+03,2.005843e+02
1.322930e+03,2.002342e+02
1.323894e+03,2.000789e+02
1.324858e+03,2.000517e+02
1.325823e+03,2.001250e+02
1.326787e+03,2.003801e+02
1.327751e+03,2.008183e+02
1.328715e+03,2.012663e+02
1.329680e+03,2.016109e+02
1.330644e+03,2.019280e+02
1.331608e+03,2.026406e+02
1.332572e+03,2.036761e+02
1.333536e+03,2.043551e+02
1.334501e+03,2.044631e+02
1.335465e+03,2.040945e+02
1.336429e+03,2.031581e+02
1.337393e+03,2.020675e+02
1.338358e+03,2.013562e+02
1.339322e+03,2.010298e+02
1.340286e+03,2.009083e+02
1.341250e+03,2.012959e+02
1.342215e+03,2.013916e+02
1.343179e+03,2.002797e+02
1.344143e+03,1.992275e+02
1.345107e+03,1.998654e+02
1.346072e+03,2.030653e+02
1.347036e+03,2.039756e+02
1.348000e+03,2.017040e+02
1.348964e+03,1.984838e+02
1.349928e+03,1.945215e+02
1.350893e+03,1.909944e+02
1.351857e+03,1.910764e+02
1.352821e+03,1.945659e+02
1.353785e+03,1.974715e+02
1.354750e+03,1.992710e+02
1.355714e+03,1.996711e+02
1.356678e+03,1.973609e+02
1.357642e+03,1.943697e+02
1.358607e+03,1.939497e+02
1.359571e+03,1.951087e+02
1.360535e+03,1.955897e+02
1.361499e+03,1.943401e+02
1.362464e+03,1.934327e+02
1.363428e+03,1.942806e+02
1.364392e+03,1.954710e+02
1.365356e+03,1.957985e+02
1.366320e+03,1.952599e+02
1.367285e+03,1.952150e+02
1.368249e+03,1.960851e+02
1.369213e+03,1.966034e+02
1.370177e+03,1.963604e+02
1.371142e+03,1.960944e+02
1.372106e+03,1.971111e+02
1.373070e+03,1.990573e+02
1.374034e+03,1.987391e+02
1.374999e+03,1.964932e+02
1.375963e+03,1.952051e+02
1.376927e+03,1.966809e+02
1.377891e+03,1.988424e+02
1.378855e+03,1.996809e+02
1.379820e+03,1.997332e+02
1.380784e+03,1.998524e+02
1.381748e+03,2.001985e+02
1.382712e+03,1.995832e+02
1.383677e+03,1.961242e+02
1.384641e+03,1.932555e+02
1.385605e+03,1.925862e+02
1.386569e+03,1.928335e+02
1.387534e+03,1.918359e+02
1.388498e+03,1.890616e+02
1.389462e+03,1.884426e+02
1.390426e+03,1.903284e+02
1.391391e+03,1.922735e+02
1.392355e+03,1.930942e+02
1.393319e+03,1.926908e+02
1.394283e+03,1.897685e+02
1.395247e+03,1.855443e+02
1.396212e+03,1.829667e+02
1.397176e+03,1.827570e+02
1.398140e+03,1.833899e+02
1.399104e+03,1.841574e+02
1.400069e+03,1.852129e+02
1.401033e+03,1.875982e+02
1.401997e+03,1.902648e+02
1.402961e+03,1.902334e+02
1.403926e+03,1.852133e+02
1.404890e+03,1.827711e+02
1.405854e+03,1.840456e+02
1.406818e+03,1.861002e+02
1.407782e+03,1.869601e+02
1.408747e+03,1.868661e+02
1.409711e+03,1.862365e+02
1.410675e+03,1.851246e+02
1.411639e+03,1.842157e+02
1.412604e+03,1.837471e+02
1.413568e+03,1.835029e+02
1.414532e+03,1.834598e+02
1.415496e+03,1.835482e+02
1.416461e+03,1.834919e+02
1.417425e+03,1.833742e+02
1.418389e+03,1.837175e+02
1.419353e+03,1.857702e+02
1.420318e+03,1.864481e+02
1.421282e+03,1.851145e+02
1.422246e+03,1.832059e+02
1.423210e+03,1.816270e+02
1.424174e+03,1.804845e+02
1.425139e+03,1.807381e+02
1.426103e+03,1.821151e+02
1.427067e+03,1.824324e+02
1.428031e+03,1.806810e+02
1.428996e+03,1.794938e+02
1.429960e+03,1.830504e+02
1.430924e+03,1.871970e+02
1.431888e+03,1.870316e+02
1.432853e+03,1.832061e+02
1.433817e+03,1.804477e+02
1.434781e+03,1.809592e+02
1.435745e+03,1.810899e+02
1.436709e+03,1.800641e+02
1.437674e+03,1.788694e+02
1.438638e+03,1.783735e+02
1.439602e+03,1.786103e+02
1.440566e+03,1.796856e+02
1.441531e+03,1.814552e+02
1.442495e+03,1.826052e+02
1.443459e+03,1.825777e+02
1.444423e+03,1.820266e+02
1.445388e+03,1.814379e+02
1.446352e+03,1.807174e+02
1.447316e+03,1.795955e+02
1.448280e+03,1.782974e+02
1.449245e+03,1.776641e+02
1.450209e+03,1.781538e+02
1.451173e+03,1.790193e+02
1.452137e+03,1.804981e+02
1.453101e+03,1.816000e+02
1.454066e+03,1.811523e+02
1.455030e+03,1.794799e+02
1.455994e+03,1.794012e+02
1.456958e+03,1.806414e+02
1.457923e+03,1.813531e+02
1.458887e+03,1.807391e+02
1.459851e+03,1.796265e+02
1.460815e+03,1.780857e+02
1.461780e+03,1.768501e+02
1.462744e+03,1.769926e+02
1.463708e+03,1.783454e+02
1.464672e+03,1.791560e+02
1.465636e+03,1.789332e+02
1.466601e+03,1.791310e+02
1.467565e+03,1.801624e+02
1.468529e+03,1.810711e+02
1.469493e+03,1.809015e+02
1.470458e+03,1.797709e+02
1.471422e+03,1.779085e+02
1.472386e+03,1.756837e+02
1.473350e+03,1.743931e+02
1.474315e+03,1.745913e+02
1.475279e+03,1.752486e+02
1.476243e+03,1.763013e+02
1.477207e+03,1.769993e+02
1.478172e+03,1.765069e+02
1.479136e+03,1.752085e+02
1.480100e+03,1.749176e+02
1.481064e+03,1.762189e+02
1.482028e+03,1.759308e+02
1.482993e+03,1.733397e+02
1.483957e+03,1.711575e+02
1.484921e+03,1.726121e+02
1.485885e+03,1.756505e+02
1.486850e+03,1.765721e+02
1.487814e+03,1.758355e+02
1.488778e+03,1.744058e+02
1.489742e+03,1.722800e+02
1.490707e+03,1.706568e+02
1.491671e+03,1.700540e+02
1.492635e+03,1.701272e+02
1.493599e+03,1.707286e+02
1.494563e+03,1.717318e+02
1.495528e+03,1.733562e+02
1.496492e+03,1.754884e+02
1.497456e+03,1.751219e+02
1.498420e+03,1.720566e+02
1.499385e+03,1.694613e+02
1.500349e+03,1.704464e+02
1.501313e+03,1.722835e+02
1.502277e+03,1.724370e+02
1.503242e+03,1.718604e+02
1.504206e+03,1.721996e+02
1.505170e+03,1.743851e+02
1.506134e+03,1.743812e+02
1.507099e+03,1.712112e+02
1.508063e+03,1.685684e+02
1.509027e+03,1.678890e+02
1.509991e+03,1.683469e+02
1.510955e+03,1.688306e+02
1.511920e+03,1.692794e+02
1.512884e+03,1.693472e+02
1.513848e+03,1.692281e+02
1.514812e+03,1.698162e+02
1.515777e+03,1.725184e+02
1.516741e+03,1.745251e+02
1.517705e+03,1.741908e+02
1.518669e+03,1.732924e+02
1.519634e+03,1.732961e+02
1.520598e+03,1.741195e+02
1.521562e+03,1.746333e+02
1.522526e+03,1.748222e+02
1.523490e+03,1.754611e+02
1.524455e+03,1.770163e+02
1.525419e+03,1.779064e+02
1.526383e+03,1.760674e+02
1.527347e+03,1.734236e+02
1.528312e+03,1.713292e+02
1.529276e+03,1.700613e+02
1.530240e+03,1.699925e+02
1.531204e+03,1.716234e+02
1.532169e+03,1.728338e+02
1.533133e+03,1.735193e+02
1.534097e+03,1.735222e+02
1.535061e+03,1.724434e+02
1.536026e+03,1.708162e+02
1.536990e+03,1.694965e+02
1.537954e+03,1.685227e+02
1.538918e+03,1.680649e+02
1.539882e+03,1.682381e+02
1.540847e+03,1.681359e+02
1.541811e+03,1.669265e+02
1.542775e+03,1.660894e+02
1.543739e+03,1.661102e+02
1.544704e+03,1.667781e+02
1.545668e+03,1.679887e+02
1.546632e+03,1.695434e+02
1.547596e+03,1.703472e+02
1.548561e+03,1.704386e+02
1.549525e+03,1.704937e+02
1.550489e+03,1.710126e+02
1.551453e+03,1.712625e+02
1.552417e+03,1.709383e+02
1.553382e+03,1.701108e+02
1.554346e+03,1.686349e+02
1.555310e+03,1.667444e+02
1.556274e+03,1.664109e+02
1.557239e+03,1.675792e+02
1.558203e+03,1.683429e+02
1.559167e+03,1.682341e+02
1.560131e+03,1.679428e+02
1.561096e+03,1.682259e+02
1.562060e+03,1.684824e+02
1.563024e+03,1.681498e+02
1.563988e+03,1.674022e+02
1.564953e+03,1.665645e+02
1.565917e+03,1.651698e+02
1.566881e+03,1.655876e+02
1.567845e+03,1.680894e+02
1.568809e+03,1.702568e+02
1.569774e+03,1.708127e+02
1.570738e+03,1.703692e+02
1.571702e+03,1.695707e+02
1.572666e+03,1.683758e+02
1.573631e+03,1.663091e+02
1.574595e+03,1.634515e+02
1.575559e+03,1.623231e+02
1.576523e+03,1.641008e+02
1.577488e+03,1.649208e+02
1.578452e+03,1.636556e+02
1.579416e+03,1.624653e+02
1.580380e+03,1.644795e+02
1.581344e+03,1.678143e+02
1.582309e+03,1.687566e+02
1.583273e+03,1.680474e+02
1.584237e+03,1.676076e+02
1.585201e+03,1.683985e+02
1.586166e+03,1.682837e+02
1.587130e+03,1.662271e+02
1.588094e+03,1.647960e+02
1.589058e+03,1.653787e+02
1.590023e+03,1.668709e+02
1.590987e+03,1.669634e+02
1.591951e+03,1.662468e+02
1.592915e+03,1.660399e+02
1.593880e+03,1.663279e+02
1.594844e+03,1.663416e+02
1.595808e+03,1.652437e+02
1.596772e+03,1.646409e+02
1.597736e+03,1.649792e+02
1.598701e+03,1.658077e+02
1.599665e+03,1.672174e+02
1.600629e+03,1.686216e+02
1.601593e+03,1.667422e+02
1.602558e+03,1.627650e+02
1.603522e+03,1.603686e+02
1.604486e+03,1.607371e+02
1.605450e+03,1.619179e+02
1.606415e+03,1.646380e+02
1.607379e+03,1.661417e+02
1.608343e+03,1.649983e+02
1.609307e+03,1.625333e+02
1.610271e+03,1.608308e+02
1.611236e+03,1.598830e+02
1.612200e+03,1.599627e+02
1.613164e+03,1.609681e+02
1.614128e+03,1.620808e+02
1.615093e+03,1.627361e+02
1.616057e+03,1.635528e+02
1.617021e+03,1.651778e+02
1.617985e+03,1.664290e+02
1.618950e+03,1.665435e+02
1.619914e+03,1.657892e+02
1.620878e+03,1.652616e+02
1.621842e+03,1.648157e+02
1.622807e+03,1.636058e+02
1.623771e+03,1.614859e+02
1.624735e+03,1.598052e+02
1.625699e+03,1.595095e+02
1.626663e+03,1.593413e+02
1.627628e+03,1.585349e+02
1.628592e+03,1.578544e+02
1.629556e+03,1.587982e+02
1.630520e+03,1.609906e+02
1.631485e+03,1.614212e+02
1.632449e+03,1.604361e+02
1.633413e+03,1.596465e+02
1.634377e+03,1.595302e+02
1.635342e+03,1.601554e+02
1.636306e+03,1.630146e+02
1.637270e+03,1.648823e+02
1.638234e+03,1.641509e+02
1.639198e+03,1.616545e+02
1.640163e+03,1.583478e+02
1.641127e+03,1.550222e+02
1.642091e+03,1.548486e+02
1.643055e+03,1.576878e+02
1.644020e+03,1.597884e+02
1.644984e+03,1.584830e+02
1.645948e+03,1.574472e+02
1.646912e+03,1.576540e+02
1.647877e+03,1.580977e+02
1.648841e+03,1.577751e+02
1.649805e+03,1.571453e+02
1.650769e+03,1.581700e+02
1.651734e+03,1.599673e+02
1.652698e+03,1.602197e+02
1.653662e+03,1.580633e+02
1.654626e+03,1.561329e+02
1.655590e+03,1.550865e+02
1.656555e+03,1.544757e+02
1.657519e+03,1.544864e+02
1.658483e+03,1.544072e+02
1.659447e+03,1.522028e+02
1.660412e+03,1.495178e+02
1.661376e+03,1.505129e+02
1.662340e+03,1.541133e+02
1.663304e+03,1.562913e+02
1.664269e+03,1.539150e+02
1.665233e+03,1.535602e+02
1.666197e+03,1.561548e+02
1.667161e+03,1.575459e+02
1.668125e+03,1.549435e+02
1.669090e+03,1.511458e+02
1.670054e+03,1.502471e+02
1.671018e+03,1.509984e+02
1.671982e+03,1.522508e+02
1.672947e+03,1.537190e+02
1.673911e+03,1.539661e+02
1.674875e+03,1.526078e+02
1.675839e+03,1.509123e+02
1.676804e+03,1.490384e+02
1.677768e+03,1.479971e+02
1.678732e+03,1.490798e+02
1.679696e+03,1.508580e+02
1.680661e+03,1.525152e+02
1.681625e+03,1.536582e+02
1.682589e+03,1.536882e+02
1.683553e+03,1.526242e+02
1.684517e+03,1.526638e+02
1.685482e+03,1.537249e+02
1.686446e+03,1.538575e+02
1.687410e+03,1.523085e+02
1.688374e+03,1.506989e+02
1.689339e+03,1.501097e+02
1.690303e+03,1.499919e+02
1.691267e+03,1.501010e+02
1.692231e+03,1.504090e+02
1.693196e+03,1.510243e+02
1.694160e+03,1.517786e+02
1.695124e+03,1.515940e+02
1.696088e+03,1.506456e+02
1.697052e+03,1.499523e+02
1.698017e+03,1.498469e+02
1.698981e+03,1.501033e+02
1.699945e+03,1.509526e+02
1.700909e+03,1.515455e+02
1.701874e+03,1.515725e+02
1.702838e+03,1.512014e+02
1.703802e+03,1.502135e+02
1.704766e+03,1.490393e+02
1.705731e+03,1.488728e+02
1.706695e+03,1.497875e+02
1.707659e+03,1.502198e+02
1.708623e+03,1.499099e+02
1.709588e+03,1.490533e+02
1.710552e+03,1.472964e+02
1.711516e+03,1.466057e+02
1.712480e+03,1.505467e+02
1.713444e+03,1.547989e+02
1.714409e+03,1.537323e+02
1.715373e+03,1.502944e+02
1.716337e+03,1.490528e+02
1.717301e+03,1.502503e+02
1.718266e+03,1.492547e+02
1.719230e+03,1.461072e+02
1.720194e+03,1.441057e+02
1.721158e+03,1.442194e+02
1.722123e+03,1.448387e+02
1.723087e+03,1.451458e+02
1.724051e+03,1.452575e+02
1.725015e+03,1.452141e+02
1.725979e+03,1.451136e+02
1.726944e+03,1.450148e+02
1.727908e+03,1.449162e+02
1.728872e+03,1.445644e+02
1.729836e+03,1.441467e+02
1.730801e+03,1.445796e+02
1.731765e+03,1.471511e+02
1.732729e+03,1.483262e+02
1.733693e+03,1.472451e+02
1.734658e+03,1.464581e+02
1.735622e+03,1.473326e+02
1.736586e+03,1.484304e+02
1.737550e+03,1.468393e+02
1.738515e+03,1.448499e+02
1.739479e+03,1.459120e+02
1.740443e+03,1.494254e+02
1.741407e+03,1.504391e+02
1.742371e+03,1.485612e+02
1.743336e+03,1.480576e+02
1.744300e+03,1.492071e+02
1.745264e+03,1.496582e+02
1.746228e+03,1.465274e+02
1.747193e+03,1.441428e+02
1.748157e+03,1.464403e+02
1.749121e+03,1.485408e+02
1.750085e+03,1.463029e+02
1.751050e+03,1.415043e+02
1.752014e+03,1.405731e+02
1.752978e+03,1.424036e+02
1.753942e+03,1.445488e+02
1.754906e+03,1.465459e+02
1.755871e+03,1.475885e+02
1.756835e+03,1.473271e+02
1.757799e+03,1.463345e+02
1.758763e+03,1.446818e+02
1.759728e+03,1.433960e+02
1.760692e+03,1.433681e+02
1.761656e+03,1.441883e+02
1.762620e+03,1.461863e+02
1.763585e+03,1.482326e+02
1.764549e+03,1.485749e+02
1.765513e+03,1.472002e+02
1.766477e+03,1.470486e+02
1.767442e+03,1.478484e+02
1.768406e+03,1.474351e+02
1.769370e+03,1.448496e+02
1.770334e+03,1.432173e+02
1.771298e+03,1.453660e+02
1.772263e+03,1.464464e+02
1.773227e+03,1.448000e+02
1.774191e+03,1.425248e+02
1.775155e+03,1.426052e+02
1.776120e+03,1.437182e+02
1.777084e+03,1.440290e+02
1.778048e+03,1.436909e+02
1.779012e+03,1.432290e+02
1.779977e+03,1.424162e+02
1.780941e+03,1.432426e+02
1.781905e+03,1.456043e+02
1.782869e+03,1.478179e+02
1.783833e+03,1.496976e+02
1.784798e+03,1.496541e+02
1.785762e+03,1.445767e+02
1.786726e+03,1.397424e+02
1.787690e+03,1.375780e+02
1.788655e+03,1.373961e+02
1.789619e+03,1.386195e+02
1.790583e+03,1.404644e+02
1.791547e+03,1.414425e+02
1.792512e+03,1.414829e+02
1.793476e+03,1.406979e+02
1.794440e+03,1.385451e+02
1.795404e+03,1.373325e+02
1.796369e+03,1.371063e+02
1.797333e+03,1.382069e+02
1.798297e+03,1.420847e+02
1.799261e+03,1.451237e+02
1.800225e+03,1.440909e+02
1.801190e+03,1.417894e+02
1.802154e+03,1.398110e+02
1.803118e+03,1.383889e+02
1.804082e+03,1.387778e+02
1.805047e+03,1.401264e+02
1.806011e+03,1.399892e+02
1.806975e+03,1.383457e+02
1.807939e+03,1.385251e+02
1.808904e+03,1.418918e+02
1.809868e+03,1.430310e+02
1.810832e+03,1.413534e+02
1.811796e+03,1.394249e+02
1.812760e+03,1.389177e+02
1.813725e+03,1.390123e+02
1.814689e+03,1.396862e+02
1.815653e+03,1.402840e+02
1.816617e+03,1.404000e+02
1.817582e+03,1.400027e+02
1.818546e+03,1.382268e+02
1.819510e+03,1.360670e+02
1.820474e+03,1.362464e+02
1.821439e+03,1.391821e+02
1.822403e+03,1.402402e+02
1.823367e+03,1.386614e+02
1.824331e+03,1.375382e+02
1.825296e+03,1.373075e+02
1.826260e+03,1.373717e+02
1.827224e+03,1.371577e+02
1.828188e+03,1.374919e+02
1.829152e+03,1.391948e+02
1.830117e+03,1.410947e+02
1.831081e+03,1.423247e+02
1.832045e+03,1.429503e+02
1.833009e+03,1.435083e+02
1.833974e+03,1.437698e+02
1.834938e+03,1.429346e+02
1.835902e+03,1.406397e+02
1.836866e+03,1.383317e+02
1.837831e+03,1.359577e+02
1.838795e+03,1.339311e+02
1.839759e+03,1.323427e+02
1.840723e+03,1.324378e+02
1.841688e+03,1.372320e+02
1.842652e+03,1.408290e+02
1.843616e+03,1.412270e+02
1.844580e+03,1.397417e+02
1.845544e+03,1.368801e+02
1.846509e+03,1.337613e+02
1.847473e+03,1.323327e+02
1.848437e+03,1.321298e+02
1.849401e+03,1.324954e+02
1.850366e+03,1.333338e+02
1.851330e+03,1.341363e+02
1.852294e+03,1.349030e+02
1.853258e+03,1.352009e+02
1.854223e+03,1.348705e+02
1.855187e+03,1.345526e+02
1.856151e+03,1.340878e+02
1.857115e+03,1.343690e+02
1.858079e+03,1.357075e+02
1.859044e+03,1.372789e+02
1.860008e+03,1.392876e+02
1.860972e+03,1.401780e+02
1.861936e+03,1.368835e+02
1.862901e+03,1.324064e+02
1.863865e+03,1.308777e+02
1.864829e+03,1.319258e+02
1.865793e+03,1.337272e+02
1.866758e+03,1.359454e+02
1.867722e+03,1.375894e+02
1.868686e+03,1.384401e+02
1.869650e+03,1.376441e+02
1.870615e+03,1.346803e+02
1.871579e+03,1.329109e+02
1.872543e+03,1.333413e+02
1.873507e+03,1.344438e+02
1.874471e+03,1.356257e+02
1.875436e+03,1.359093e+02
1.876400e+03,1.346417e+02
1.877364e+03,1.329407e+02
1.878328e+03,1.317154e+02
1.879293e+03,1.311397e+02
1.880257e+03,1.320282e+02
1.881221e+03,1.335961e+02
1.882185e+03,1.343719e+02
1.883150e+03,1.343368e+02
1.884114e+03,1.333417e+02
1.885078e+03,1.315588e+02
1.886042e+03,1.305296e+02
1.887006e+03,1.307683e+02
1.887971e+03,1.310987e+02
1.888935e+03,1.313925e+02
1.889899e+03,1.313831e+02
1.890863e+03,1.308852e+02
1.891828e+03,1.302524e+02
1.892792e+03,1.297193e+02
1.893756e+03,1.294589e+02
1.894720e+03,1.299200e+02
1.895685e+03,1.306939e+02
1.896649e+03,1.310326e+02
1.897613e+03,1.312467e+02
1.898577e+03,1.332623e+02
1.899542e+03,1.359635e+02
1.900506e+03,1.366726e+02
1.901470e+03,1.347794e+02
1.902434e+03,1.332674e+02
1.903398e+03,1.321479e+02
1.904363e+03,1.315148e+02
1.905327e+03,1.314494e+02
1.906291e+03,1.313699e+02
1.907255e+03,1.305934e+02
1.908220e+03,1.304144e+02
1.909184e+03,1.312959e+02
1.910148e+03,1.318556e+02
1.911112e+03,1.299145e+02
1.912077e+03,1.280279e+02
1.913041e+03,1.287601e+02
1.914005e+03,1.304399e+02
1.914969e+03,1.313196e+02
1.915933e+03,1.316691e+02
1.916898e+03,1.332317e+02
1.917862e+03,1.347773e+02
1.918826e+03,1.329810e+02
1.919790e+03,1.272266e+02
1.920755e+03,1.249395e+02
1.921719e+03,1.258984e+02
1.922683e+03,1.267628e+02
1.923647e+03,1.268927e+02
1.924612e+03,1.269490e+02
1.925576e+03,1.268669e+02
1.926540e+03,1.275849e+02
1.927504e+03,1.293907e+02
1.928469e+03,1.307117e+02
1.929433e+03,1.294315e+02
1.930397e+03,1.279601e+02
1.931361e+03,1.284371e+02
1.932325e+03,1.291503e+02
1.933290e+03,1.284081e+02
1.934254e+03,1.274115e+02
1.935218e+03,1.300822e+02
1.936182e+03,1.337440e+02
1.937147e+03,1.333903e+02
1.938111e+03,1.294731e+02
1.939075e+03,1.281531e+02
1.940039e+03,1.290592e+02
1.941004e+03,1.290910e+02
1.941968e+03,1.278295e+02
1.942932e+03,1.282592e+02
1.943896e+03,1.326300e+02
1.944860e+03,1.341716e+02
1.945825e+03,1.321640e+02
1.946789e+03,1.302912e+02
1.947753e+03,1.319494e+02
1.948717e+03,1.330326e+02
1.949682e+03,1.315556e+02
1.950646e+03,1.296398e+02
1.951610e+03,1.282959e+02
1.952574e+03,1.275959e+02
1.953539e+03,1.283423e+02
1.954503e+03,1.291681e+02
1.955467e+03,1.285121e+02
1.956431e+03,1.269950e+02
1.957396e+03,1.261214e+02
1.958360e+03,1.256577e+02
1.959324e+03,1.248730e+02
1.960288e+03,1.240196e+02
1.961252e+03,1.249160e+02
1.962217e+03,1.279067e+02
1.963181e+03,1.268328e+02
1.964145e+03,1.219308e+02
1.965109e+03,1.181950e+02
1.966074e+03,1.182617e+02
1.967038e+03,1.196328e+02
1.968002e+03,1.222044e+02
1.968966e+03,1.242351e+02
1.969931e+03,1.246969e+02
1.970895e+03,1.250850e+02
1.971859e+03,1.281277e+02
1.972823e+03,1.291194e+02
1.973787e+03,1.250602e+02
1.974752e+03,1.203138e+02
1.975716e+03,1.224207e+02
1.976680e+03,1.263131e+02
1.977644e+03,1.263299e+02
1.978609e+03,1.242865e+02
1.979573e+03,1.230053e+02
1.980537e+03,1.223769e+02
1.981501e+03,1.221928e+02
1.982466e+03,1.224506e+02
1.983430e+03,1.233546e+02
1.984394e+03,1.250231e+02
1.985358e+03,1.250631e+02
1.986323e+03,1.237504e+02
1.987287e+03,1.229423e+02
1.988251e+03,1.233095e+02
1.989215e+03,1.231412e+02
1.990179e+03,1.218584e+02
1.991144e+03,1.226889e+02
1.992108e+03,1.267638e+02
1.993072e+03,1.296203e+02
1.994036e+03,1.262901e+02
1.995001e+03,1.236775e+02
1.995965e+03,1.237981e+02
1.996929e+03,1.246650e+02
1.997893e+03,1.242679e+02
1.998858e+03,1.236941e+02
1.999822e+03,1.239607e+02
2.000786e+03,1.245357e+02
2.001750e+03,1.252664e+02
2.002714e+03,1.259091e+02
2.003679e+03,1.260428e+02
2.004643e+03,1.252572e+02
2.005607e+03,1.219472e+02
2.006571e+03,1.173695e+02
2.007536e+03,1.170367e+02
2.008500e+03,1.195510e+02
2.009464e+03,1.201621e+02
2.010428e+03,1.186521e+02
2.011393e+03,1.193324e+02
2.012357e+03,1.226456e+02
2.013321e+03,1.242445e+02
2.014285e+03,1.238306e+02
2.015250e+03,1.232288e+02
2.016214e+03,1.235818e+02
2.017178e+03,1.231034e+02
2.018142e+03,1.216686e+02
2.019106e+03,1.204406e+02
2.020071e+03,1.200517e+02
2.021035e+03,1.198305e+02
2.021999e+03,1.191505e+02
2.022963e+03,1.192565e+02
2.023928e+03,1.210020e+02
2.024892e+03,1.227043e+02
2.025856e+03,1.219033e+02
2.026820e+03,1.209948e+02
2.027785e+03,1.216449e+02
2.028749e+03,1.226817e+02
2.029713e+03,1.222920e+02
2.030677e+03,1.214929e+02
2.031641e+03,1.221114e+02
2.032606e+03,1.229332e+02
2.033570e+03,1.213256e+02
2.034534e+03,1.182649e+02
2.035498e+03,1.188930e+02
2.036463e+03,1.214290e+02
2.037427e+03,1.211930e+02
2.038391e+03,1.181346e+02
2.039355e+03,1.175730e+02
2.040320e+03,1.189464e+02
2.041284e+03,1.199142e+02
2.042248e+03,1.199301e+02
2.043212e+03,1.189906e+02
2.044177e+03,1.169416e+02
2.045141e+03,1.185745e+02
2.046105e+03,1.244231e+02
2.047069e+03,1.278117e+02
2.048033e+03,1.240244e+02
2.048998e+03,1.191099e+02
2.049962e+03,1.132618e+02
2.050926e+03,1.105465e+02
2.051890e+03,1.175314e+02
2.052854e+03,1.218527e+02
2.053819e+03,1.188523e+02
2.054783e+03,1.156434e+02
2.055747e+03,1.159227e+02
2.056711e+03,1.176106e+02
2.057676e+03,1.205024e+02
2.058640e+03,1.215085e+02
2.059604e+03,1.183068e+02
2.060568e+03,1.141065e+02
2.061533e+03,1.135260e+02
2.062497e+03,1.147432e+02
2.063461e+03,1.167649e+02
2.064425e+03,1.185980e+02
2.065390e+03,1.187246e+02
2.066354e+03,1.178568e+02
2.067318e+03,1.171693e+02
2.068282e+03,1.167070e+02
2.069247e+03,1.162883e+02
2.070211e+03,1.159256e+02
2.071175e+03,1.162605e+02
2.072139e+03,1.168346e+02
2.073104e+03,1.163292e+02
2.074068e+03,1.147026e+02
2.075032e+03,1.133756e+02
2.075996e+03,1.124431e+02
2.076960e+03,1.128129e+02
2.077925e+03,1.146273e+02
2.078889e+03,1.157288e+02
2.079853e+03,1.160440e+02
2.080817e+03,1.137168e+02
2.081782e+03,1.088545e+02
2.082746e+03,1.068984e+02
2.083710e+03,1.117303e+02
2.084674e+03,1.145334e+02
2.085639e+03,1.148958e+02
2.086603e+03,1.142252e+02
2.087567e+03,1.118797e+02
2.088531e+03,1.112568e+02
2.089496e+03,1.132323e+02
2.090460e+03,1.135114e+02
2.091424e+03,1.094217e+02
2.092388e+03,1.064317e+02
2.093353e+03,1.086614e+02
2.094317e+03,1.114519e+02
2.095281e+03,1.134775e+02
2.096245e+03,1.151807e+02
2.097209e+03,1.182517e+02
2.098174e+03,1.191009e+02
2.099138e+03,1.160040e+02
2.100102e+03,1.118375e+02
2.101066e+03,1.089562e+02
2.102031e+03,1.072405e+02
2.102995e+03,1.069929e+02
2.103959e+03,1.075596e+02
2.104923e+03,1.088213e+02
2.105887e+03,1.103694e+02
2.106852e+03,1.116619e+02
2.107816e+03,1.122658e+02
2.108780e+03,1.116601e+02
2.109744e+03,1.106216e+02
2.110708e+03,1.118534e+02
2.111673e+03,1.135878e+02
2.112637e+03,1.122482e+02
2.113601e+03,1.093970e+02
2.114565e+03,1.089107e+02
2.115530e+03,1.100876e+02
2.116494e+03,1.117523e+02
2.117458e+03,1.137454e+02
2.118422e+03,1.159406e+02
2.119387e+03,1.178014e+02
2.120351e+03,1.157796e+02
2.121315e+03,1.111994e+02
2.122279e+03,1.091257e+02
2.123244e+03,1.098448e+02
2.124208e+03,1.103955e+02
2.125172e+03,1.106667e+02
2.126136e+03,1.097395e+02
2.127101e+03,1.071962e+02
2.128065e+03,1.077028e+02
2.129029e+03,1.107073e+02
2.129993e+03,1.119535e+02
2.130958e+03,1.105027e+02
2.131922e+03,1.095541e+02
2.132886e+03,1.094922e+02
2.133850e+03,1.093799e+02
2.134814e+03,1.092207e+02
2.135779e+03,1.093046e+02
2.136743e+03,1.102084e+02
2.137707e+03,1.089128e+02
2.138671e+03,1.054905e+02
2.139636e+03,1.034976e+02
2.140600e+03,1.056040e+02
2.141564e+03,1.073327e+02
2.142528e+03,1.083690e+02
2.143493e+03,1.095456e+02
2.144457e+03,1.114711e+02
2.145421e+03,1.119213e+02
2.146385e+03,1.099635e+02
2.147350e+03,1.087145e+02
2.148314e+03,1.091499e+02
2.149278e+03,1.097045e+02
2.150242e+03,1.084184e+02
2.151207e+03,1.088116e+02
2.152171e+03,1.116331e+02
2.153135e+03,1.142632e+02
2.154099e+03,1.150838e+02
2.155063e+03,1.148739e+02
2.156028e+03,1.138852e+02
2.156992e+03,1.124869e+02
2.157956e+03,1.106745e+02
2.158920e+03,1.085385e+02
2.159885e+03,1.056627e+02
2.160849e+03,1.036670e+02
2.161813e+03,1.034124e+02
2.162777e+03,1.041203e+02
2.163741e+03,1.065542e+02
2.164706e+03,1.074455e+02
2.165670e+03,1.051350e+02
2.166634e+03,1.030182e+02
2.167598e+03,1.054935e+02
2.168563e+03,1.082024e+02
2.169527e+03,1.093744e+02
2.170491e+03,1.089158e+02
2.171455e+03,1.055433e+02
2.172420e+03,1.022621e+02
2.173384e+03,1.006995e+02
2.174348e+03,1.007244e+02
2.175312e+03,1.035807e+02
2.176277e+03,1.063651e+02
2.177241e+03,1.055971e+02
2.178205e+03,1.041359e+02
2.179169e+03,1.037912e+02
2.180134e+03,1.038877e+02
2.181098e+03,1.032294e+02
2.182062e+03,1.027499e+02
2.183026e+03,1.026829e+02
2.183990e+03,1.036554e+02
2.184955e+03,1.081741e+02
2.185919e+03,1.124298e+02
2.186883e+03,1.135269e+02
2.187847e+03,1.123225e+02
2.188812e+03,1.081408e+02
2.189776e+03,1.039834e+02
2.190740e+03,1.038956e+02
2.191704e+03,1.048344e+02
2.192668e+03,1.035536e+02
2.193633e+03,1.021877e+02
2.194597e+03,1.047384e+02
2.195561e+03,1.078779e+02
2.196525e+03,1.084968e+02
2.197490e+03,1.077852e+02
2.198454e+03,1.076926e+02
2.199418e+03,1.075001e+02
2.200382e+03,1.063454e+02
2.201347e+03,1.052555e+02
2.202311e+03,1.067889e+02
2.203275e+03,1.083148e+02
2.204239e+03,1.061018e+02
2.205204e+03,1.033498e+02
2.206168e+03,1.060677e+02
2.207132e+03,1.096956e+02
2.208096e+03,1.074233e+02
2.209061e+03,1.033168e+02
2.210025e+03,1.011428e+02
2.210989e+03,1.007654e+02
2.211953e+03,1.037372e+02
2.212917e+03,1.067743e+02
2.213882e+03,1.059782e+02
2.214846e+03,1.033898e+02
2.215810e+03,1.022925e+02
2.216774e+03,1.024627e+02
2.217739e+03,1.040550e+02
2.218703e+03,1.059908e+02
2.219667e+03,1.062859e+02
2.220631e+03,1.058846e+02
2.221595e+03,1.055631e+02
2.222560e+03,1.052821e+02
2.223524e+03,1.049980e+02
2.224488e+03,1.046899e+02
2.225452e+03,1.043817e+02
2.226417e+03,1.040809e+02
2.227381e+03,1.036222e+02
2.228345e+03,1.033244e+02
2.229309e+03,1.036118e+02
2.230274e+03,1.041057e+02
2.231238e+03,1.048154e+02
2.232202e+03,1.051012e+02
2.233166e+03,1.033217e+02
2.234131e+03,1.016869e+02
2.235095e+03,1.019241e+02
2.236059e+03,1.029056e+02
2.237023e+03,1.032077e+02
2.237988e+03,1.029953e+02
2.238952e+03,1.022580e+02
2.239916e+03,1.014993e+02
2.240880e+03,1.021648e+02
2.241844e+03,1.021743e+02
2.242809e+03,9.912424e+01
2.243773e+03,9.662048e+01
2.244737e+03,1.002835e+02
2.245701e+03,1.035061e+02
2.246666e+03,9.915391e+01
2.247630e+03,9.459303e+01
2.248594e+03,9.499213e+01
2.249558e+03,9.733004e+01
2.250522e+03,1.003502e+02
2.251487e+03,1.014989e+02
2.252451e+03,9.839715e+01
2.253415e+03,9.547673e+01
2.254379e+03,9.888821e+01
2.255344e+03,1.019591e+02
2.256308e+03,1.020023e+02
2.257272e+03,1.011328e+02
2.258236e+03,1.014631e+02
2.259201e+03,1.011301e+02
2.260165e+03,9.921029e+01
2.261129e+03,9.788903e+01
2.262093e+03,9.977017e+01
2.263058e+03,1.016119e+02
2.264022e+03,1.025681e+02
2.264986e+03,1.032535e+02
2.265950e+03,1.045516e+02
2.266915e+03,1.043428e+02
2.267879e+03,1.017974e+02
2.268843e+03,9.880093e+01
2.269807e+03,9.573583e+01
2.270771e+03,9.462629e+01
2.271736e+03,9.682439e+01
2.272700e+03,9.822224e+01
2.273664e+03,9.731377e+01
2.274628e+03,9.811891e+01
2.275593e+03,1.040524e+02
2.276557e+03,1.061779e+02
2.277521e+03,1.031728e+02
2.278485e+03,1.003789e+02
2.279449e+03,1.004210e+02
2.280414e+03,1.008853e+02
2.281378e+03,1.015826e+02
2.282342e+03,1.019393e+02
2.283306e+03,1.016493e+02
2.284271e+03,1.002827e+02
2.285235e+03,9.800262e+01
2.286199e+03,9.724100e+01
2.287163e+03,9.960780e+01
2.288128e+03,1.010556e+02
2.289092e+03,1.014592e+02
2.290056e+03,1.011185e+02
2.291020e+03,1.000589e+02
2.291985e+03,9.865543e+01
2.292949e+03,9.706909e+01
2.293913e+03,9.557768e+01
2.294877e+03,9.433232e+01
2.295842e+03,9.416482e+01
2.296806e+03,9.494786e+01
2.297770e+03,9.680367e+01
2.298734e+03,9.902815e+01
2.299698e+03,9.901543e+01
2.300663e+03,9.714000e+01
2.301627e+03,9.611092e+01
2.302591e+03,9.572206e+01
2.303555e+03,9.555082e+01
2.304520e+03,9.543204e+01
2.305484e+03,9.405926e+01
2.306448e+03,9.281457e+01
2.307412e+03,9.489821e+01
2.308376e+03,9.802383e+01
2.309341e+03,9.458137e+01
2.310305e+03,8.992043e+01
2.311269e+03,9.234340e+01
2.312233e+03,9.729825e+01
2.313198e+03,9.687328e+01
2.314162e+03,9.494819e+01
2.315126e+03,9.603914e+01
2.316090e+03,9.781268e+01
2.317055e+03,9.788631e+01
2.318019e+03,9.723354e+01
2.318983e+03,9.614601e+01
2.319947e+03,9.558889e+01
2.320912e+03,9.728384e+01
2.321876e+03,9.839545e+01
2.322840e+03,9.570421e+01
2.323804e+03,9.341441e+01
2.324769e+03,9.338942e+01
2.325733e+03,9.461918e+01
2.326697e+03,9.744778e+01
2.327661e+03,9.878035e+01
2.328625e+03,9.728445e+01
2.329590e+03,9.633121e+01
2.330554e+03,9.882683e+01
2.331518e+03,1.003609e+02
2.332482e+03,1.002671e+02
2.333447e+03,9.937730e+01
2.334411e+03,9.780814e+01
2.335375e+03,9.571361e+01
2.336339e+03,9.322535e+01
2.337303e+03,9.262554e+01
2.338268e+03,9.622362e+01
2.339232e+03,9.654675e+01
2.340196e+03,9.411292e+01
2.341160e+03,9.218078e+01
2.342125e+03,9.151462e+01
2.343089e+03,9.301759e+01
2.344053e+03,9.561610e+01
2.345017e+03,9.465639e+01
2.345982e+03,9.053716e+01
2.346946e+03,9.279094e+01
2.347910e+03,9.842392e+01
2.348874e+03,9.856490e+01
2.349839e+03,9.475574e+01
2.350803e+03,9.338663e+01
2.351767e+03,9.393164e+01
2.352731e+03,9.664173e+01
2.353696e+03,9.939355e+01
2.354660e+03,9.818601e+01
2.355624e+03,9.554076e+01
2.356588e+03,9.609168e+01
2.357552e+03,9.674102e+01
2.358517e+03,9.394614e+01
2.359481e+03,9.081519e+01
2.360445e+03,9.148531e+01
2.361409e+03,9.263276e+01
2.362374e+03,9.245826e+01
2.363338e+03,9.244179e+01
2.364302e+03,9.532596e+01
2.365266e+03,9.639941e+01
2.366230e+03,9.388619e+01
2.367195e+03,9.148631e+01
2.368159e+03,9.173637e+01
2.369123e+03,9.243686e+01
2.370087e+03,9.341194e+01
2.371052e+03,9.432020e+01
2.372016e+03,9.518713e+01
2.372980e+03,9.530743e+01
2.373944e+03,9.466842e+01
2.374909e+03,9.399856e+01
2.375873e+03,9.333962e+01
2.376837e+03,9.479807e+01
2.377801e+03,9.722317e+01
2.378766e+03,9.354279e+01
2.379730e+03,8.376228e+01
2.380694e+03,8.567203e+01
2.381658e+03,9.390491e+01
2.382623e+03,9.254996e+01
2.383587e+03,8.522816e+01
2.384551e+03,8.704626e+01
2.385515e+03,9.263184e+01
2.386479e+03,9.269595e+01
2.387444e+03,9.056203e+01
2.388408e+03,9.165255e+01
2.389372e+03,9.309019e+01
2.390336e+03,9.141825e+01
2.391301e+03,8.924561e+01
2.392265e+03,8.868647e+01
2.393229e+03,8.923843e+01
2.394193e+03,9.124972e+01
2.395157e+03,9.208413e+01
2.396122e+03,8.890884e+01
2.397086e+03,8.697741e+01
2.398050e+03,8.820931e+01
2.399014e+03,8.924130e+01
2.399979e+03,8.861058e+01
2.400943e+03,8.899245e+01
2.401907e+03,9.087801e+01
2.402871e+03,9.098980e+01
2.403836e+03,8.860830e+01
2.404800e+03,8.704063e+01
2.405764e+03,8.654187e+01
2.406728e+03,8.673322e+01
2.407693e+03,8.758057e+01
2.408657e+03,8.937575e+01
2.409621e+03,9.175441e+01
2.410585e+03,9.316319e+01
2.411550e+03,9.330275e+01
2.412514e+03,9.136964e+01
2.413478e+03,8.877407e+01
2.414442e+03,9.038844e+01
2.415406e+03,9.236002e+01
2.416371e+03,8.998364e+01
2.417335e+03,8.641427e+01
2.418299e+03,8.597845e+01
2.419263e+03,8.678658e+01
2.420228e+03,8.796754e+01
2.421192e+03,8.913925e+01
2.422156e+03,9.086893e+01
2.423120e+03,9.032896e+01
2.424084e+03,8.636550e+01
2.425049e+03,8.369024e+01
2.426013e+03,8.531858e+01
2.426977e+03,8.823341e+01
2.427941e+03,9.209750e+01
2.428906e+03,9.316708e+01
2.429870e+03,9.008264e+01
2.430834e+03,8.693754e+01
2.431798e+03,8.427637e+01
2.432763e+03,8.457706e+01
2.433727e+03,8.743198e+01
2.434691e+03,8.933718e+01
2.435655e+03,9.060877e+01
2.436620e+03,9.226003e+01
2.437584e+03,9.360493e+01
2.438548e+03,9.158802e+01
2.439512e+03,8.951751e+01
2.440477e+03,9.154098e+01
2.441441e+03,9.313952e+01
2.442405e+03,8.475539e+01
2.443369e+03,7.944678e+01
2.444333e+03,8.360339e+01
2.445298e+03,8.911893e+01
2.446262e+03,8.972259e+01
2.447226e+03,8.832063e+01
2.448190e+03,8.547909e+01
2.449155e+03,8.398302e+01
2.450119e+03,8.682817e+01
2.451083e+03,8.841811e+01
2.452047e+03,8.867290e+01
2.453011e+03,8.723853e+01
2.453976e+03,8.385165e+01
2.454940e+03,8.671854e+01
2.455904e+03,9.314706e+01
2.456868e+03,9.413157e+01
2.457833e+03,9.098833e+01
2.458797e+03,8.881693e+01
2.459761e+03,8.766103e+01
2.460725e+03,8.808031e+01
2.461690e+03,8.836391e+01
2.462654e+03,8.446203e+01
2.463618e+03,8.185184e+01
2.464582e+03,8.429412e+01
2.465547e+03,8.712395e+01
2.466511e+03,8.531145e+01
2.467475e+03,8.416993e+01
2.468439e+03,8.496254e+01
2.469404e+03,8.575536e+01
2.470368e+03,8.619874e+01
2.471332e+03,8.426213e+01
2.472296e+03,8.028419e+01
2.473260e+03,7.853999e+01
2.474225e+03,8.028454e+01
2.475189e+03,8.338187e+01
2.476153e+03,8.668919e+01
2.477117e+03,8.455814e+01
2.478082e+03,7.994211e+01
2.479046e+03,8.462859e+01
2.480010e+03,9.165212e+01
2.480974e+03,9.139333e+01
2.481938e+03,8.788705e+01
2.482903e+03,8.430033e+01
2.483867e+03,8.315163e+01
2.484831e+03,8.606129e+01
2.485795e+03,8.847840e+01
2.486760e+03,8.524773e+01
2.487724e+03,8.415810e+01
2.488688e+03,8.653481e+01
2.489652e+03,8.834054e+01
2.490617e+03,8.720190e+01
2.491581e+03,8.591832e+01
2.492545e+03,8.462962e+01
2.493509e+03,8.364365e+01
2.494474e+03,8.305176e+01
2.495438e+03,8.461223e+01
2.496402e+03,8.695824e+01
2.497366e+03,8.672513e+01
2.498331e+03,8.522936e+01
2.499295e+03,8.460873e+01
2.500259e+03,8.476747e+01
2.501223e+03,8.579640e+01
2.502188e+03,8.697386e+01
2.503152e+03,8.851421e+01
2.504116e+03,8.757143e+01
2.505080e+03,8.311794e+01
2.506044e+03,8.058469e+01
2.507009e+03,8.599247e+01
2.507973e+03,8.800309e+01
2.508937e+03,8.646847e+01
2.509901e+03,8.471127e+01
2.510865e+03,8.343970e+01
2.511830e+03,8.396591e+01
2.512794e+03,8.556220e+01
2.513758e+03,8.639334e+01
2.514722e+03,8.665099e+01
2.515687e+03,8.694589e+01
2.516651e+03,8.700157e+01
2.517615e+03,8.663435e+01
2.518579e+03,8.579185e+01
2.519544e+03,8.308877e+01
2.520508e+03,8.250842e+01
2.521472e+03,8.571767e+01
2.522436e+03,8.836899e+01
2.523401e+03,8.660214e+01
2.524365e+03,8.568046e+01
2.525329e+03,8.577087e+01
2.526293e+03,8.469665e+01
2.527258e+03,8.186701e+01
2.528222e+03,8.141914e+01
2.529186e+03,8.250636e+01
2.530150e+03,8.196790e+01
2.531115e+03,8.081486e+01
2.532079e+03,8.424215e+01
2.533043e+03,8.764609e+01
2.534007e+03,8.573613e+01
2.534971e+03,8.268668e+01
2.535936e+03,8.515254e+01
2.536900e+03,8.571427e+01
2.537864e+03,8.122970e+01
2.538828e+03,7.853275e+01
2.539792e+03,8.191697e+01
2.540757e+03,8.275918e+01
2.541721e+03,8.024681e+01
2.542685e+03,8.000435e+01
2.543649e+03,8.249287e+01
2.544614e+03,8.825257e+01
2.545578e+03,9.481271e+01
2.546542e+03,9.562491e+01
2.547506e+03,9.280373e+01
2.548471e+03,8.971094e+01
2.549435e+03,8.835770e+01
2.550399e+03,9.165315e+01
2.551363e+03,9.457327e+01
2.552328e+03,9.178920e+01
2.553292e+03,9.112737e+01
2.554256e+03,9.632368e+01
2.555220e+03,9.765129e+01
2.556185e+03,9.344937e+01
2.557149e+03,9.130855e+01
2.558113e+03,9.243752e+01
2.559077e+03,9.208897e+01
2.560042e+03,9.065610e+01
2.561006e+03,9.072803e+01
2.561970e+03,9.154316e+01
2.562934e+03,9.148743e+01
2.563898e+03,9.003328e+01
2.564863e+03,8.494975e+01
2.565827e+03,8.139461e+01
2.566791e+03,8.545607e+01
2.567755e+03,8.895873e+01
2.568719e+03,8.986895e+01
2.569684e+03,8.817464e+01
2.570648e+03,8.186018e+01
2.571612e+03,8.342306e+01
2.572576e+03,9.133044e+01
2.573541e+03,9.505476e+01
2.574505e+03,9.407441e+01
2.575469e+03,9.358369e+01
2.576433e+03,9.300666e+01
2.577398e+03,9.165756e+01
2.578362e+03,8.967469e+01
2.579326e+03,8.677146e+01
2.580290e+03,8.379175e+01
2.581255e+03,8.090832e+01
2.582219e+03,7.902138e+01
2.583183e+03,7.943996e+01
2.584147e+03,7.991196e+01
2.585112e+03,8.047375e+01
2.586076e+03,8.193548e+01
2.587040e+03,8.436573e+01
2.588004e+03,8.595040e+01
2.588969e+03,8.663441e+01
2.589933e+03,8.645338e+01
2.590897e+03,8.591942e+01
2.591861e+03,8.596098e+01
2.592825e+03,8.623132e+01
2.593790e+03,8.686504e+01
2.594754e+03,8.592197e+01
2.595718e+03,8.113167e+01
2.596682e+03,7.744387e+01
2.597646e+03,7.576634e+01
2.598611e+03,7.806190e+01
2.599575e+03,8.356419e+01
2.600539e+03,8.241546e+01
2.601503e+03,7.722876e+01
2.602468e+03,8.440085e+01
2.603432e+03,9.536535e+01
2.604396e+03,9.068015e+01
2.605360e+03,8.247192e+01
2.606325e+03,8.030693e+01
2.607289e+03,8.085679e+01
2.608253e+03,8.279839e+01
2.609217e+03,8.406879e+01
2.610182e+03,8.339449e+01
2.611146e+03,8.217968e+01
2.612110e+03,8.082858e+01
2.613074e+03,8.130248e+01
2.614039e+03,8.335897e+01
2.615003e+03,8.410889e+01
2.615967e+03,8.348614e+01
2.616931e+03,8.088311e+01
2.617896e+03,7.882974e+01
2.618860e+03,8.219318e+01
2.619824e+03,8.454880e+01
2.620788e+03,8.362122e+01
2.621752e+03,8.043606e+01
2.622717e+03,7.340766e+01
2.623681e+03,7.265891e+01
2.624645e+03,7.768997e+01
2.625609e+03,8.049277e+01
2.626573e+03,8.084229e+01
2.627538e+03,8.328143e+01
2.628502e+03,8.545068e+01
2.629466e+03,8.369527e+01
2.630430e+03,8.042966e+01
2.631395e+03,7.780079e+01
2.632359e+03,7.667981e+01
2.633323e+03,7.787667e+01
2.634287e+03,7.906114e+01
2.635252e+03,7.970813e+01
2.636216e+03,7.918190e+01
2.637180e+03,7.765244e+01
2.638144e+03,7.988431e+01
2.639109e+03,8.410464e+01
2.640073e+03,8.646446e+01
2.641037e+03,8.617732e+01
2.642001e+03,7.831869e+01
2.642966e+03,7.338602e+01
2.643930e+03,7.761532e+01
2.644894e+03,8.233390e+01
2.645858e+03,8.218761e+01
2.646823e+03,8.017236e+01
2.647787e+03,7.684181e+01
2.648751e+03,7.549039e+01
2.649715e+03,7.631367e+01
2.650679e+03,7.719516e+01
2.651644e+03,7.811259e+01
2.652608e+03,7.901000e+01
2.653572e+03,7.990935e+01
2.654536e+03,8.024272e+01
2.655500e+03,8.226564e+01
2.656465e+03,8.738365e+01
2.657429e+03,8.981437e+01
2.658393e+03,8.767774e+01
2.659357e+03,8.371017e+01
2.660322e+03,7.906158e+01
2.661286e+03,7.844280e+01
2.662250e+03,8.042355e+01
2.663214e+03,8.132007e+01
2.664179e+03,8.137731e+01
2.665143e+03,8.057754e+01
2.666107e+03,8.013133e+01
2.667071e+03,8.075955e+01
2.668036e+03,8.110690e+01
2.669000e+03,8.004100e+01
2.669964e+03,7.998900e+01
2.670928e+03,8.057237e+01
2.671893e+03,7.753378e+01
2.672857e+03,7.282773e+01
2.673821e+03,8.009052e+01
2.674785e+03,8.744601e+01
2.675750e+03,8.083553e+01
2.676714e+03,7.276851e+01
2.677678e+03,7.985627e+01
2.678642e+03,8.387539e+01
2.679606e+03,8.083488e+01
2.680571e+03,7.872886e+01
2.681535e+03,7.906647e+01
2.682499e+03,7.964783e+01
2.683463e+03,7.974104e+01
2.684427e+03,7.733743e+01
2.685392e+03,7.465839e+01
2.686356e+03,7.614448e+01
2.687320e+03,7.862627e+01
2.688284e+03,8.099483e+01
2.689249e+03,8.202035e+01
2.690213e+03,8.160263e+01
2.691177e+03,8.042952e+01
2.692141e+03,7.867487e+01
2.693106e+03,7.679472e+01
2.694070e+03,7.545070e+01
2.695034e+03,7.667793e+01
2.695998e+03,7.877011e+01
2.696963e+03,7.828133e+01
2.697927e+03,7.907944e+01
2.698891e+03,8.356344e+01
2.699855e+03,8.412830e+01
2.700820e+03,7.576253e+01
2.701784e+03,7.158953e+01
2.702748e+03,7.273580e+01
2.703712e+03,7.645261e+01
2.704677e+03,8.105179e+01
2.705641e+03,8.248006e+01
2.706605e+03,8.238951e+01
2.707569e+03,8.239390e+01
2.708533e+03,8.195459e+01
2.709498e+03,8.095903e+01
2.710462e+03,7.841299e+01
2.711426e+03,7.232024e+01
2.712390e+03,7.395473e+01
2.713354e+03,8.090743e+01
2.714319e+03,8.159110e+01
2.715283e+03,7.884641e+01
2.716247e+03,8.078285e+01
2.717211e+03,8.366225e+01
2.718176e+03,8.478621e+01
2.719140e+03,8.531089e+01
2.720104e+03,8.585655e+01
2.721068e+03,8.689057e+01
2.722033e+03,8.808835e+01
2.722997e+03,8.436591e+01
2.723961e+03,7.767477e+01
2.724925e+03,7.655600e+01
2.725890e+03,7.863176e+01
2.726854e+03,8.093485e+01
2.727818e+03,8.289136e+01
2.728782e+03,8.414632e+01
2.729747e+03,8.499828e+01
2.730711e+03,8.652570e+01
2.731675e+03,8.172874e+01
2.732639e+03,7.309934e+01
2.733604e+03,7.438526e+01
2.734568e+03,8.093597e+01
2.735532e+03,7.904470e+01
2.736496e+03,7.512794e+01
2.737460e+03,7.349721e+01
2.738425e+03,7.591946e+01
2.739389e+03,8.536214e+01
2.740353e+03,8.811551e+01
2.741317e+03,8.240646e+01
2.742281e+03,7.888217e+01
2.743246e+03,7.761401e+01
2.744210e+03,7.675249e+01
2.745174e+03,7.604859e+01
2.746138e+03,7.567570e+01
2.747103e+03,7.537552e+01
2.748067e+03,7.513816e+01
2.749031e+03,7.431857e+01
2.749995e+03,7.243471e+01
2.750960e+03,6.901237e+01
2.751924e+03,6.573267e+01
2.752888e+03,6.855721e+01
2.753852e+03,7.411583e+01
2.754817e+03,7.508633e+01
2.755781e+03,7.519616e+01
2.756745e+03,7.665392e+01
2.757709e+03,7.717879e+01
2.758674e+03,7.598147e+01
2.759638e+03,7.704508e+01
2.760602e+03,8.032771e+01
2.761566e+03,7.675075e+01
2.762531e+03,7.152750e+01
2.763495e+03,7.452450e+01
2.764459e+03,7.915719e+01
2.765423e+03,7.917989e+01
2.766387e+03,7.834132e+01
2.767352e+03,7.761720e+01
2.768316e+03,7.705454e+01
2.769280e+03,7.663254e+01
2.770244e+03,7.608987e+01
2.771208e+03,7.617719e+01
2.772173e+03,7.858511e+01
2.773137e+03,8.078269e+01
2.774101e+03,7.987248e+01
2.775065e+03,7.825606e+01
2.776030e+03,7.642423e+01
2.776994e+03,7.498375e+01
2.777958e+03,7.420965e+01
2.778922e+03,7.750827e+01
2.779887e+03,8.216209e+01
2.780851e+03,7.822054e+01
2.781815e+03,7.533321e+01
2.782779e+03,8.066985e+01
2.783744e+03,8.473087e+01
2.784708e+03,8.105172e+01
2.785672e+03,7.660995e+01
2.786636e+03,7.251372e+01
2.787601e+03,7.051020e+01
2.788565e+03,7.113114e+01
2.789529e+03,7.837836e+01
2.790493e+03,8.606829e+01
2.791458e+03,9.055933e+01
2.792422e+03,8.901072e+01
2.793386e+03,8.187634e+01
2.794350e+03,7.546851e+01
2.795314e+03,7.144870e+01
2.796279e+03,7.721310e+01
2.797243e+03,8.508753e+01
2.798207e+03,8.222841e+01
2.799171e+03,7.739285e+01
2.800135e+03,8.301917e+01
2.801100e+03,8.557861e+01
2.802064e+03,8.184135e+01
2.803028e+03,7.663209e+01
2.803992e+03,7.159460e+01
2.804957e+03,7.273038e+01
2.805921e+03,7.588290e+01
2.806885e+03,6.986646e+01
2.807849e+03,6.910081e+01
2.808814e+03,8.066818e+01
2.809778e+03,8.777800e+01
2.810742e+03,8.037420e+01
2.811706e+03,8.156609e+01
2.812671e+03,8.724419e+01
2.813635e+03,8.024498e+01
2.814599e+03,6.913338e+01
2.815563e+03,7.255527e+01
2.816528e+03,7.710066e+01
2.817492e+03,7.716819e+01
2.818456e+03,7.523544e+01
2.819420e+03,7.241065e+01
2.820385e+03,7.449446e+01
2.821349e+03,7.961562e+01
2.822313e+03,7.767991e+01
2.823277e+03,7.526624e+01
2.824241e+03,7.749590e+01
2.825206e+03,8.136194e+01
2.826170e+03,8.585377e+01
2.827134e+03,8.812128e+01
2.828098e+03,8.714230e+01
2.829063e+03,7.976525e+01
2.830027e+03,7.130820e+01
2.830991e+03,7.430742e+01
2.831955e+03,7.999568e+01
2.832919e+03,8.270424e+01
2.833884e+03,8.472925e+01
2.834848e+03,8.640315e+01
2.835812e+03,8.535667e+01
2.836776e+03,8.215633e+01
2.837741e+03,8.212459e+01
2.838705e+03,8.243081e+01
2.839669e+03,7.874294e+01
2.840633e+03,7.841930e+01
2.841598e+03,8.562275e+01
2.842562e+03,9.285576e+01
2.843526e+03,9.805100e+01
2.844490e+03,9.476255e+01
2.845455e+03,8.733787e+01
2.846419e+03,8.337110e+01
2.847383e+03,8.181107e+01
2.848347e+03,8.157878e+01
2.849312e+03,8.514900e+01
2.850276e+03,9.258788e+01
2.851240e+03,9.240397e+01
2.852204e+03,8.636546e+01
2.853168e+03,8.766415e+01
2.854133e+03,9.171525e+01
2.855097e+03,9.378437e+01
2.856061e+03,9.224345e+01
2.857025e+03,8.698669e+01
2.857990e+03,8.469035e+01
2.858954e+03,8.745356e+01
2.859918e+03,9.011510e+01
2.860882e+03,9.257446e+01
2.861846e+03,9.534225e+01
2.862811e+03,9.599522e+01
2.863775e+03,9.052811e+01
2.864739e+03,8.929893e+01
2.865703e+03,9.532134e+01
2.866668e+03,9.497475e+01
2.867632e+03,9.149899e+01
2.868596e+03,9.718534e+01
2.869560e+03,1.039348e+02
2.870525e+03,9.967225e+01
2.871489e+03,9.904655e+01
2.872453e+03,1.055797e+02
2.873417e+03,1.017970e+02
2.874382e+03,8.919421e+01
2.875346e+03,9.117783e+01
2.876310e+03,9.845997e+01
2.877274e+03,9.410257e+01
2.878239e+03,9.391158e+01
2.879203e+03,1.036563e+02
2.880167e+03,1.066803e+02
2.881131e+03,9.768250e+01
2.882095e+03,9.631029e+01
2.883060e+03,1.001012e+02
2.884024e+03,1.055644e+02
2.884988e+03,1.074938e+02
2.885952e+03,9.924267e+01
2.886917e+03,9.523901e+01
2.887881e+03,9.936234e+01
2.888845e+03,1.011068e+02
2.889809e+03,1.009251e+02
2.890773e+03,1.003128e+02
2.891738e+03,9.994929e+01
2.892702e+03,1.006060e+02
2.893666e+03,1.026132e+02
2.894630e+03,1.058621e+02
2.895595e+03,1.075328e+02
2.896559e+03,1.073923e+02
2.897523e+03,1.021096e+02
2.898487e+03,9.926032e+01
2.899452e+03,1.135595e+02
2.900416e+03,1.167085e+02
2.901380e+03,1.038763e+02
2.902344e+03,9.890141e+01
2.903309e+03,1.042352e+02
2.904273e+03,1.024223e+02
2.905237e+03,9.757459e+01
2.906201e+03,9.428259e+01
2.907166e+03,9.073170e+01
2.908130e+03,8.584493e+01
2.909094e+03,8.685795e+01
2.910058e+03,9.471491e+01
2.911022e+03,1.034541e+02
2.911987e+03,1.082013e+02
2.912951e+03,1.039249e+02
2.913915e+03,9.634361e+01
2.914879e+03,8.719740e+01
2.915844e+03,8.546479e+01
2.916808e+03,9.104097e+01
2.917772e+03,9.553897e+01
2.918736e+03,9.700758e+01
2.919700e+03,9.114041e+01
2.920665e+03,8.686099e+01
2.921629e+03,9.271784e+01
2.922593e+03,9.473691e+01
2.923557e+03,9.388952e+01
2.924522e+03,1.000874e+02
2.925486e+03,1.073565e+02
2.926450e+03,9.765414e+01
2.927414e+03,8.831097e+01
2.928379e+03,8.657464e+01
2.929343e+03,9.369465e+01
2.930307e+03,1.051780e+02
2.931271e+03,9.659291e+01
2.932236e+03,8.118623e+01
2.933200e+03,8.379665e+01
2.934164e+03,8.954177e+01
2.935128e+03,9.237225e+01
2.936093e+03,9.311400e+01
2.937057e+03,9.274876e+01
2.938021e+03,9.436515e+01
2.938985e+03,9.614085e+01
2.939949e+03,9.417878e+01
2.940914e+03,9.202034e+01
2.941878e+03,9.099747e+01
2.942842e+03,8.984187e+01
2.943806e+03,8.847767e+01
2.944771e+03,9.473690e+01
2.945735e+03,1.019051e+02
2.946699e+03,9.966268e+01
2.947663e+03,9.803614e+01
2.948627e+03,1.002984e+02
2.949592e+03,1.005596e+02
2.950556e+03,9.818213e+01
2.951520e+03,9.892908e+01
2.952484e+03,9.918673e+01
2.953449e+03,9.300983e+01
2.954413e+03,9.861936e+01
2.955377e+03,1.235179e+02
2.956341e+03,1.353130e+02
2.957306e+03,1.315487e+02
2.958270e+03,1.302824e+02
2.959234e+03,1.244317e+02
2.960198e+03,1.089282e+02
2.961163e+03,9.311818e+01
2.962127e+03,8.019824e+01
2.963091e+03,8.007161e+01
2.964055e+03,8.884212e+01
2.965020e+03,9.021487e+01
2.965984e+03,8.894826e+01
2.966948e+03,8.843740e+01
2.967912e+03,8.910341e+01
2.968876e+03,9.147725e+01
2.969841e+03,9.503652e+01
2.970805e+03,9.618098e+01
2.971769e+03,8.829597e+01
2.972733e+03,7.903712e+01
2.973698e+03,7.357089e+01
2.974662e+03,7.212499e+01
2.975626e+03,7.545856e+01
2.976590e+03,8.404993e+01
2.977554e+03,9.054607e+01
2.978519e+03,8.464265e+01
2.979483e+03,7.944217e+01
2.980447e+03,8.477476e+01
2.981411e+03,8.558907e+01
2.982376e+03,8.097370e+01
2.983340e+03,8.267101e+01
2.984304e+03,8.368466e+01
2.985268e+03,7.654620e+01
2.986233e+03,7.107140e+01
2.987197e+03,7.347219e+01
2.988161e+03,7.213667e+01
2.989125e+03,7.029586e+01
2.990090e+03,8.098441e+01
2.991054e+03,9.082596e+01
2.992018e+03,8.947413e+01
2.992982e+03,8.187168e+01
2.993947e+03,6.756731e+01
2.994911e+03,6.914381e+01
2.995875e+03,7.671777e+01
2.996839e+03,7.067301e+01
2.997803e+03,7.051810e+01
2.998768e+03,9.025593e+01
2.999732e+03,9.671664e+01
3.000696e+03,8.462145e+01
3.001660e+03,8.048576e+01
3.002625e+03,7.989258e+01
3.003589e+03,7.740421e+01
3.004553e+03,7.892606e+01
3.005517e+03,8.778807e+01
3.006481e+03,8.900234e+01
3.007446e+03,8.298397e+01
3.008410e+03,7.652579e+01
3.009374e+03,7.356046e+01
3.010338e+03,7.587826e+01
3.011303e+03,8.110323e+01
3.012267e+03,8.827527e+01
3.013231e+03,8.898049e+01
3.014195e+03,8.480975e+01
3.015160e+03,7.928692e+01
3.016124e+03,7.183175e+01
3.017088e+03,6.250041e+01
3.018052e+03,5.912914e+01
3.019017e+03,6.243717e+01
3.019981e+03,7.328801e+01
3.020945e+03,7.913151e+01
3.021909e+03,6.810767e+01
3.022874e+03,5.838079e+01
3.023838e+03,5.459234e+01
3.024802e+03,6.359293e+01
3.025766e+03,7.768495e+01
3.026730e+03,7.756358e+01
3.027695e+03,7.661102e+01
3.028659e+03,8.108222e+01
3.029623e+03,7.812239e+01
3.030587e+03,6.956569e+01
3.031552e+03,7.428845e+01
3.032516e+03,8.066187e+01
3.033480e+03,7.315296e+01
3.034444e+03,6.554308e+01
3.035408e+03,6.159806e+01
3.036373e+03,7.209415e+01
3.037337e+03,8.782937e+01
3.038301e+03,7.944080e+01
3.039265e+03,6.858629e+01
3.040230e+03,6.543709e+01
3.041194e+03,6.871858e+01
3.042158e+03,7.566360e+01
3.043122e+03,7.937978e+01
3.044087e+03,7.893032e+01
3.045051e+03,7.022354e+01
3.046015e+03,6.569643e+01
3.046979e+03,6.957231e+01
3.047944e+03,6.955776e+01
3.048908e+03,6.711481e+01
3.049872e+03,6.536540e+01
3.050836e+03,6.098567e+01
3.051801e+03,4.918538e+01
3.052765e+03,5.799413e+01
3.053729e+03,8.271282e+01
3.054693e+03,7.901205e+01
3.055657e+03,7.150716e+01
3.056622e+03,7.829178e+01
3.057586e+03,8.188804e+01
3.058550e+03,7.692268e+01
3.059514e+03,6.818658e+01
3.060479e+03,6.270698e+01
3.061443e+03,7.779172e+01
3.062407e+03,7.945566e+01
3.063371e+03,6.124872e+01
3.064335e+03,6.435281e+01
3.065300e+03,8.394850e+01
3.066264e+03,8.002531e+01
3.067228e+03,7.356908e+01
3.068192e+03,7.791956e+01
3.069157e+03,8.148991e+01
3.070121e+03,8.327325e+01
3.071085e+03,8.949091e+01
3.072049e+03,9.138795e+01
3.073014e+03,6.343336e+01
3.073978e+03,5.380907e+01
3.074942e+03,7.285401e+01
3.075906e+03,8.442776e+01
3.076871e+03,8.796615e+01
3.077835e+03,8.541382e+01
3.078799e+03,8.264350e+01
3.079763e+03,8.298640e+01
3.080728e+03,8.471913e+01
3.081692e+03,8.704374e+01
3.082656e+03,8.810644e+01
3.083620e+03,8.687148e+01
3.084584e+03,8.300799e+01
3.085549e+03,8.398591e+01
3.086513e+03,9.057323e+01
3.087477e+03,8.025005e+01
3.088441e+03,7.079497e+01
3.089406e+03,8.564403e+01
3.090370e+03,9.128276e+01
3.091334e+03,8.323052e+01
3.092298e+03,6.781100e+01
3.093262e+03,5.562955e+01
3.094227e+03,7.515183e+01
3.095191e+03,8.873919e+01
3.096155e+03,8.280178e+01
3.097119e+03,7.555674e+01
3.098084e+03,7.116552e+01
3.099048e+03,7.422734e+01
3.100012e+03,8.051899e+01
3.100976e+03,9.049220e+01
3.101941e+03,7.774996e+01
3.102905e+03,4.901531e+01
3.103869e+03,5.349448e+01
3.104833e+03,6.809553e+01
3.105798e+03,7.654310e+01
3.106762e+03,8.012334e+01
3.107726e+03,8.080106e+01
3.108690e+03,9.657082e+01
3.109655e+03,1.093769e+02
3.110619e+03,9.377718e+01
3.111583e+03,7.408025e+01
3.112547e+03,5.759431e+01
3.113511e+03,5.881720e+01
3.114476e+03,6.903022e+01
3.115440e+03,7.174868e+01
3.116404e+03,7.782670e+01
3.117368e+03,9.306222e+01
3.118333e+03,9.033616e+01
3.119297e+03,8.345872e+01
3.120261e+03,9.796870e+01
3.121225e+03,1.076245e+02
3.122189e+03,9.752732e+01
3.123154e+03,9.311379e+01
3.124118e+03,9.457201e+01
3.125082e+03,9.059718e+01
3.126046e+03,8.710293e+01
3.127011e+03,8.676859e+01
3.127975e+03,9.002499e+01
3.128939e+03,9.507632e+01
3.129903e+03,9.632932e+01
3.130868e+03,9.618937e+01
3.131832e+03,9.657642e+01
3.132796e+03,9.703819e+01
3.133760e+03,9.456657e+01
3.134725e+03,7.462907e+01
3.135689e+03,5.689256e+01
3.136653e+03,5.951056e+01
3.137617e+03,6.930594e+01
3.138582e+03,8.270425e+01
3.139546e+03,8.500848e+01
3.140510e+03,8.181006e+01
3.141474e+03,7.880328e+01
3.142438e+03,7.988639e+01
3.143403e+03,8.409763e+01
3.144367e+03,8.086655e+01
3.145331e+03,7.492568e+01
3.146295e+03,7.218446e+01
3.147260e+03,7.653637e+01
3.148224e+03,8.891074e+01
3.149188e+03,9.271388e+01
3.150152e+03,8.983723e+01
3.151116e+03,8.259229e+01
3.152081e+03,8.450514e+01
3.153045e+03,1.011668e+02
3.154009e+03,1.112629e+02
3.154973e+03,1.110837e+02
3.155938e+03,8.792855e+01
3.156902e+03,7.978944e+01
3.157866e+03,9.369005e+01
3.158830e+03,8.415385e+01
3.159795e+03,6.503204e+01
3.160759e+03,8.607375e+01
3.161723e+03,1.033085e+02
3.162687e+03,8.937988e+01
3.163652e+03,7.375201e+01
3.164616e+03,6.688821e+01
3.165580e+03,8.705268e+01
3.166544e+03,1.099706e+02
3.167509e+03,1.245953e+02
3.168473e+03,1.153924e+02
3.169437e+03,9.332614e+01
3.170401e+03,9.482362e+01
3.171365e+03,9.444704e+01
3.172330e+03,8.103103e+01
3.173294e+03,8.080714e+01
3.174258e+03,8.691810e+01
3.175222e+03,8.103484e+01
3.176187e+03,7.605168e+01
3.177151e+03,8.082486e+01
3.178115e+03,8.328327e+01
3.179079e+03,8.454952e+01
3.180043e+03,9.213912e+01
3.181008e+03,9.725556e+01
3.181972e+03,9.709721e+01
3.182936e+03,9.545750e+01
3.183900e+03,9.350084e+01
3.184865e+03,9.058565e+01
3.185829e+03,9.190236e+01
3.186793e+03,1.081479e+02
3.187757e+03,1.050851e+02
3.188722e+03,9.276705e+01
3.189686e+03,9.531398e+01
3.190650e+03,9.988353e+01
3.191614e+03,1.005656e+02
3.192579e+03,9.105156e+01
3.193543e+03,7.830549e+01
3.194507e+03,8.749483e+01
3.195471e+03,9.268449e+01
3.196436e+03,8.244686e+01
3.197400e+03,7.895877e+01
3.198364e+03,8.591484e+01
3.199328e+03,1.079922e+02
3.200292e+03,1.210093e+02
3.201257e+03,0.000000e+00
3.202221e+03,0.000000e+00
3.203185e+03,0.000000e+00
3.204149e+03,0.000000e+00
3.205114e+03,0.000000e+00
3.206078e+03,0.000000e+00
3.207042e+03,0.000000e+00
3.208006e+03,0.000000e+00
3.208970e+03,0.000000e+00
3.209935e+03,0.000000e+00
3.210899e+03,0.000000e+00
3.211863e+03,0.000000e+00
3.212827e+03,0.000000e+00
3.213792e+03,0.000000e+00
3.214756e+03,0.000000e+00
3.215720e+03,0.000000e+00
3.216684e+03,0.000000e+00
3.217649e+03,0.000000e+00
3.218613e+03,0.000000e+00
3.219577e+03,0.000000e+00
3.220541e+03,0.000000e+00
3.221506e+03,0.000000e+00
3.222470e+03,0.000000e+00
3.223434e+03,0.000000e+00
3.224398e+03,0.000000e+00
3.225363e+03,0.000000e+00
3.226327e+03,0.000000e+00
3.227291e+03,0.000000e+00
3.228255e+03,0.000000e+00
3.229219e+03,0.000000e+00
3.230184e+03,0.000000e+00
3.231148e+03,0.000000e+00
3.232112e+03,0.000000e+00
3.233076e+03,0.000000e+00
3.234041e+03,0.000000e+00
3.235005e+03,0.000000e+00
3.235969e+03,0.000000e+00
3.236933e+03,0.000000e+00
3.237897e+03,0.000000e+00
3.238862e+03,0.000000e+00
3.239826e+03,0.000000e+00
3.240790e+03,0.000000e+00
3.241754e+03,0.000000e+00
3.242719e+03,0.000000e+00
3.243683e+03,0.000000e+00
3.244647e+03,0.000000e+00
3.245611e+03,0.000000e+00
3.246576e+03,0.000000e+00
3.247540e+03,0.000000e+00
3.248504e+03,0.000000e+00
3.249468e+03,0.000000e+00
3.250433e+03,0.000000e+00
3.251397e+03,0.000000e+00
3.252361e+03,0.000000e+00
3.253325e+03,0.000000e+00
3.254290e+03,0.000000e+00
3.255254e+03,0.000000e+00
3.256218e+03,0.000000e+00
3.257182e+03,0.000000e+00
3.258146e+03,0.000000e+00
3.259111e+03,0.000000e+00
3.260075e+03,0.000000e+00
3.261039e+03,0.000000e+00
3.262003e+03,0.000000e+00
3.262968e+03,0.000000e+00
3.263932e+03,0.000000e+00
3.264896e+03,0.000000e+00
3.265860e+03,0.000000e+00
3.266824e+03,0.000000e+00
3.267789e+03,0.000000e+00
3.268753e+03,0.000000e+00
3.269717e+03,0.000000e+00
3.270681e+03,0.000000e+00
3.271646e+03,0.000000e+00
3.272610e+03,0.000000e+00
3.273574e+03,0.000000e+00
3.274538e+03,0.000000e+00
3.275503e+03,0.000000e+00
3.276467e+03,0.000000e+00
3.277431e+03,0.000000e+00
3.278395e+03,0.000000e+00
3.279360e+03,0.000000e+00
3.280324e+03,0.000000e+00
3.281288e+03,0.000000e+00
3.282252e+03,0.000000e+00
3.283217e+03,0.000000e+00
3.284181e+03,0.000000e+00
3.285145e+03,0.000000e+00
3.286109e+03,0.000000e+00
3.287073e+03,0.000000e+00
3.288038e+03,0.000000e+00
3.289002e+03,0.000000e+00
3.289966e+03,0.000000e+00
3.290930e+03,0.000000e+00
3.291895e+03,0.000000e+00
3.292859e+03,0.000000e+00
3.293823e+03,0.000000e+00
3.294787e+03,0.000000e+00
3.295751e+03,0.000000e+00
3.296716e+03,0.000000e+00
3.297680e+03,0.000000e+00
3.298644e+03,0.000000e+00
3.299608e+03,0.000000e+00
3.300573e+03,0.000000e+00
3.301537e+03,0.000000e+00
3.302501e+03,0.000000e+00
3.303465e+03,0.000000e+00
3.304430e+03,0.000000e+00
3.305394e+03,0.000000e+00
3.306358e+03,0.000000e+00
3.307322e+03,0.000000e+00
3.308287e+03,0.000000e+00
3.309251e+03,0.000000e+00
3.310215e+03,0.000000e+00
3.311179e+03,0.000000e+00
3.312144e+03,0.000000e+00
3.313108e+03,0.000000e+00
3.314072e+03,0.000000e+00
3.315036e+03,0.000000e+00
3.316000e+03,0.000000e+00
3.316965e+03,0.000000e+00
3.317929e+03,0.000000e+00
3.318893e+03,0.000000e+00
3.319857e+03,0.000000e+00
3.320822e+03,0.000000e+00
3.321786e+03,0.000000e+00
3.322750e+03,0.000000e+00
3.323714e+03,0.000000e+00
3.324678e+03,0.000000e+00
3.325643e+03,0.000000e+00
3.326607e+03,0.000000e+00
3.327571e+03,0.000000e+00
3.328535e+03,0.000000e+00
3.329500e+03,0.000000e+00
3.330464e+03,0.000000e+00
3.331428e+03,0.000000e+00
3.332392e+03,0.000000e+00
3.333357e+03,0.000000e+00
3.334321e+03,0.000000e+00
3.335285e+03,0.000000e+00
3.336249e+03,0.000000e+00
3.337214e+03,0.000000e+00
3.338178e+03,0.000000e+00
3.339142e+03,0.000000e+00
3.340106e+03,0.000000e+00
3.341071e+03,0.000000e+00
3.342035e+03,0.000000e+00
3.342999e+03,0.000000e+00
3.343963e+03,0.000000e+00
3.344927e+03,0.000000e+00
3.345892e+03,0.000000e+00
3.346856e+03,0.000000e+00
3.347820e+03,0.000000e+00
3.348784e+03,0.000000e+00
3.349749e+03,0.000000e+00
3.350713e+03,0.000000e+00
3.351677e+03,0.000000e+00
3.352641e+03,0.000000e+00
3.353605e+03,0.000000e+00
3.354570e+03,0.000000e+00
3.355534e+03,0.000000e+00
3.356498e+03,0.000000e+00
3.357462e+03,0.000000e+00
3.358427e+03,0.000000e+00
3.359391e+03,0.000000e+00
3.360355e+03,0.000000e+00
3.361319e+03,0.000000e+00
3.362284e+03,0.000000e+00
3.363248e+03,0.000000e+00
3.364212e+03,0.000000e+00
3.365176e+03,0.000000e+00
3.366141e+03,0.000000e+00
3.367105e+03,0.000000e+00
3.368069e+03,0.000000e+00
3.369033e+03,0.000000e+00
3.369998e+03,0.000000e+00
3.370962e+03,0.000000e+00
3.371926e+03,0.000000e+00
3.372890e+03,0.000000e+00
3.373854e+03,0.000000e+00
3.374819e+03,0.000000e+00
3.375783e+03,0.000000e+00
3.376747e+03,0.000000e+00
3.377711e+03,0.000000e+00
3.378676e+03,0.000000e+00
3.379640e+03,0.000000e+00
3.380604e+03,0.000000e+00
3.381568e+03,0.000000e+00
3.382532e+03,0.000000e+00
3.383497e+03,0.000000e+00
3.384461e+03,0.000000e+00
3.385425e+03,0.000000e+00
3.386389e+03,0.000000e+00
3.387354e+03,0.000000e+00
3.388318e+03,0.000000e+00
3.389282e+03,0.000000e+00
3.390246e+03,0.000000e+00
3.391211e+03,0.000000e+00
3.392175e+03,0.000000e+00
3.393139e+03,0.000000e+00
3.394103e+03,0.000000e+00
3.395068e+03,0.000000e+00
3.396032e+03,0.000000e+00
3.396996e+03,0.000000e+00
3.397960e+03,0.000000e+00
3.398925e+03,0.000000e+00
3.399889e+03,0.000000e+00
3.400853e+03,0.000000e+00
3.401817e+03,0.000000e+00
3.402781e+03,0.000000e+00
3.403746e+03,0.000000e+00
3.404710e+03,0.000000e+00
3.405674e+03,0.000000e+00
3.406638e+03,0.000000e+00
3.407603e+03,0.000000e+00
3.408567e+03,0.000000e+00
3.409531e+03,0.000000e+00
3.410495e+03,0.000000e+00
3.411459e+03,0.000000e+00
3.412424e+03,0.000000e+00
3.413388e+03,0.000000e+00
3.414352e+03,0.000000e+00
3.415316e+03,0.000000e+00
3.416281e+03,0.000000e+00
3.417245e+03,0.000000e+00
3.418209e+03,0.000000e+00
3.419173e+03,0.000000e+00
3.420138e+03,0.000000e+00
3.421102e+03,0.000000e+00
3.422066e+03,0.000000e+00
3.423030e+03,0.000000e+00
3.423995e+03,0.000000e+00
3.424959e+03,0.000000e+00
3.425923e+03,0.000000e+00
3.426887e+03,0.000000e+00
3.427852e+03,0.000000e+00
3.428816e+03,0.000000e+00
3.429780e+03,0.000000e+00
3.430744e+03,0.000000e+00
3.431708e+03,0.000000e+00
3.432673e+03,0.000000e+00
3.433637e+03,0.000000e+00
3.434601e+03,0.000000e+00
3.435565e+03,0.000000e+00
3.436530e+03,0.000000e+00
3.437494e+03,0.000000e+00
3.438458e+03,0.000000e+00
3.439422e+03,0.000000e+00
3.440386e+03,0.000000e+00
3.441351e+03,0.000000e+00
3.442315e+03,0.000000e+00
3.443279e+03,0.000000e+00
3.444243e+03,0.000000e+00
3.445208e+03,0.000000e+00
3.446172e+03,0.000000e+00
3.447136e+03,0.000000e+00
3.448100e+03,0.000000e+00
3.449065e+03,0.000000e+00
3.450029e+03,0.000000e+00
3.450993e+03,0.000000e+00
3.451957e+03,0.000000e+00
3.452922e+03,0.000000e+00
3.453886e+03,0.000000e+00
3.454850e+03,0.000000e+00
3.455814e+03,0.000000e+00
3.456779e+03,0.000000e+00
3.457743e+03,0.000000e+00
3.458707e+03,0.000000e+00
3.459671e+03,0.000000e+00
3.460635e+03,0.000000e+00
3.461600e+03,0.000000e+00
3.462564e+03,0.000000e+00
3.463528e+03,0.000000e+00
3.464492e+03,0.000000e+00
3.465457e+03,0.000000e+00
3.466421e+03,0.000000e+00
3.467385e+03,0.000000e+00
3.468349e+03,0.000000e+00
3.469313e+03,0.000000e+00
3.470278e+03,0.000000e+00
3.471242e+03,0.000000e+00
3.472206e+03,0.000000e+00
3.473170e+03,0.000000e+00
3.474135e+03,0.000000e+00
3.475099e+03,0.000000e+00
3.476063e+03,0.000000e+00
3.477027e+03,0.000000e+00
3.477992e+03,0.000000e+00
3.478956e+03,0.000000e+00
3.479920e+03,0.000000e+00
3.480884e+03,0.000000e+00
3.481849e+03,0.000000e+00
3.482813e+03,0.000000e+00
3.483777e+03,0.000000e+00
3.484741e+03,0.000000e+00
3.485706e+03,0.000000e+00
3.486670e+03,0.000000e+00
3.487634e+03,0.000000e+00
3.488598e+03,0.000000e+00
3.489563e+03,0.000000e+00
3.490527e+03,0.000000e+00
3.491491e+03,0.000000e+00
3.492455e+03,0.000000e+00
3.493419e+03,0.000000e+00
3.494384e+03,0.000000e+00
3.495348e+03,0.000000e+00
3.496312e+03,0.000000e+00
3.497276e+03,0.000000e+00
3.498240e+03,0.000000e+00
3.499205e+03,0.000000e+00
3.500169e+03,0.000000e+00
