9.931763e+01,0.000000e+00
1.002819e+02,0.000000e+00
1.012461e+02,0.000000e+00
1.022103e+02,0.000000e+00
1.031746e+02,0.000000e+00
1.041388e+02,0.000000e+00
1.051030e+02,0.000000e+00
1.060673e+02,0.000000e+00
1.070315e+02,0.000000e+00
1.079957e+02,0.000000e+00
1.089600e+02,0.000000e+00
1.099242e+02,0.000000e+00
1.108884e+02,0.000000e+00
1.118527e+02,0.000000e+00
1.128169e+02,0.000000e+00
1.137811e+02,0.000000e+00
1.147454e+02,0.000000e+00
1.157096e+02,0.000000e+00
1.166738e+02,0.000000e+00
1.176381e+02,0.000000e+00
1.186023e+02,0.000000e+00
1.195665e+02,0.000000e+00
1.205308e+02,0.000000e+00
1.214950e+02,0.000000e+00
1.224592e+02,0.000000e+00
1.234235e+02,0.000000e+00
1.243877e+02,0.000000e+00
1.253519e+02,0.000000e+00
1.263162e+02,0.000000e+00
1.272804e+02,0.000000e+00
1.282446e+02,0.000000e+00
1.292089e+02,0.000000e+00
1.301731e+02,0.000000e+00
1.311373e+02,0.000000e+00
1.321016e+02,0.000000e+00
1.330658e+02,0.000000e+00
1.340300e+02,0.000000e+00
1.349943e+02,0.000000e+00
1.359585e+02,0.000000e+00
1.369227e+02,0.000000e+00
1.378870e+02,0.000000e+00
1.388512e+02,0.000000e+00
1.398154e+02,0.000000e+00
1.407797e+02,0.000000e+00
1.417439e+02,0.000000e+00
1.427081e+02,0.000000e+00
1.436724e+02,0.000000e+00
1.446366e+02,0.000000e+00
1.456008e+02,0.000000e+00
1.465651e+02,0.000000e+00
1.475293e+02,0.000000e+00
1.484935e+02,0.000000e+00
1.494578e+02,0.000000e+00
1.504220e+02,0.000000e+00
1.513862e+02,0.000000e+00
1.523505e+02,0.000000e+00
1.533147e+02,0.000000e+00
1.542789e+02,0.000000e+00
1.552432e+02,0.000000e+00
1.562074e+02,0.000000e+00
1.571716e+02,0.000000e+00
1.581359e+02,0.000000e+00
1.591001e+02,0.000000e+00
1.600643e+02,0.000000e+00
1.610286e+02,0.000000e+00
1.619928e+02,0.000000e+00
1.629570e+02,0.000000e+00
1.639213e+02,0.000000e+00
1.648855e+02,0.000000e+00
1.658497e+02,0.000000e+00
1.668140e+02,0.000000e+00
1.677782e+02,0.000000e+00
1.687424e+02,0.000000e+00
1.697067e+02,0.000000e+00
1.706709e+02,0.000000e+00
1.716351e+02,0.000000e+00
1.725994e+02,0.000000e+00
1.735636e+02,0.000000e+00
1.745278e+02,0.000000e+00
1.754921e+02,0.000000e+00
1.764563e+02,0.000000e+00
1.774205e+02,0.000000e+00
1.783848e+02,0.000000e+00
1.793490e+02,0.000000e+00
1.803132e+02,0.000000e+00
1.812775e+02,0.000000e+00
1.822417e+02,0.000000e+00
1.832059e+02,0.000000e+00
1.841702e+02,0.000000e+00
1.851344e+02,0.000000e+00
1.860986e+02,0.000000e+00
1.870629e+02,0.000000e+00
1.880271e+02,0.000000e+00
1.889913e+02,0.000000e+00
1.899556e+02,0.000000e+00
1.909198e+02,0.000000e+00
1.918840e+02,0.000000e+00
1.928483e+02,0.000000e+00
1.938125e+02,0.000000e+00
1.947767e+02,0.000000e+00
1.957410e+02,0.000000e+00
1.967052e+02,0.000000e+00
1.976694e+02,0.000000e+00
1.986337e+02,0.000000e+00
1.995979e+02,3.339233e+02
2.005621e+02,3.331999e+02
2.015264e+02,3.329799e+02
2.024906e+02,3.333081e+02
2.034548e+02,3.341776e+02
2.044191e+02,3.363311e+02
2.053833e+02,3.392378e+02
2.063475e+02,3.413676e+02
2.073118e+02,3.408018e+02
2.082760e+02,3.364083e+02
2.092402e+02,3.327852e+02
2.102045e+02,3.299630e+02
2.111687e+02,3.283080e+02
2.121329e+02,3.283693e+02
2.130972e+02,3.306799e+02
2.140614e+02,3.341827e+02
2.150256e+02,3.362087e+02
2.159899e+02,3.356985e+02
2.169541e+02,3.352445e+02
2.179183e+02,3.363291e+02
2.188826e+02,3.385052e+02
2.198468e+02,3.402600e+02
2.208110e+02,3.402485e+02
2.217753e+02,3.384790e+02
2.227395e+02,3.367081e+02
2.237037e+02,3.353360e+02
2.246680e+02,3.342660e+02
2.256322e+02,3.333528e+02
2.265964e+02,3.327999e+02
2.275607e+02,3.323696e+02
2.285249e+02,3.316525e+02
2.294892e+02,3.305475e+02
2.304534e+02,3.296956e+02
2.314176e+02,3.293771e+02
2.323819e+02,3.294643e+02
2.333461e+02,3.299315e+02
2.343103e+02,3.307822e+02
2.352746e+02,3.320933e+02
2.362388e+02,3.342587e+02
2.372030e+02,3.377895e+02
2.381673e+02,3.412715e+02
2.391315e+02,3.422198e+02
2.400957e+02,3.391900e+02
2.410600e+02,3.361236e+02
2.420242e+02,3.347917e+02
2.429884e+02,3.349174e+02
2.439527e+02,3.352607e+02
2.449169e+02,3.349009e+02
2.458811e+02,3.336542e+02
2.468454e+02,3.327501e+02
2.478096e+02,3.324928e+02
2.487738e+02,3.323612e+02
2.497381e+02,3.318354e+02
2.507023e+02,3.308495e+02
2.516665e+02,3.299067e+02
2.526308e+02,3.298141e+02
2.535950e+02,3.319326e+02
2.545592e+02,3.329510e+02
2.555235e+02,3.320621e+02
2.564877e+02,3.303116e+02
2.574519e+02,3.290222e+02
2.584161e+02,3.290775e+02
2.593804e+02,3.303510e+02
2.603446e+02,3.309944e+02
2.613088e+02,3.297959e+02
2.622731e+02,3.287870e+02
2.632373e+02,3.286359e+02
2.642015e+02,3.292226e+02
2.651658e+02,3.299809e+02
2.661300e+02,3.303843e+02
2.670942e+02,3.304162e+02
2.680585e+02,3.308209e+02
2.690227e+02,3.327923e+02
2.699869e+02,3.346593e+02
2.709512e+02,3.350161e+02
2.719154e+02,3.330276e+02
2.728796e+02,3.301619e+02
2.738439e+02,3.284003e+02
2.748081e+02,3.279823e+02
2.757723e+02,3.281987e+02
2.767366e+02,3.285502e+02
2.777008e+02,3.288741e+02
2.786650e+02,3.291383e+02
2.796293e+02,3.295237e+02
2.805935e+02,3.299561e+02
2.815577e+02,3.301646e+02
2.825220e+02,3.299945e+02
2.834862e+02,3.296429e+02
2.844504e+02,3.295473e+02
2.854147e+02,3.299822e+02
2.863789e+02,3.303675e+02
2.873431e+02,3.308518e+02
2.883074e+02,3.313055e+02
2.892716e+02,3.312757e+02
2.902358e+02,3.303663e+02
2.912001e+02,3.285281e+02
2.921643e+02,3.269327e+02
2.931285e+02,3.248382e+02
2.940928e+02,3.236716e+02
2.950570e+02,3.247418e+02
2.960212e+02,3.276783e+02
2.969855e+02,3.306276e+02
2.979497e+02,3.313552e+02
2.989139e+02,3.287580e+02
2.998782e+02,3.267960e+02
3.008424e+02,3.255868e+02
3.018066e+02,3.251825e+02
3.027709e+02,3.256363e+02
3.037351e+02,3.269987e+02
3.046993e+02,3.289312e+02
3.056636e+02,3.312820e+02
3.066278e+02,3.349035e+02
3.075920e+02,3.370302e+02
3.085563e+02,3.354408e+02
3.095205e+02,3.314915e+02
3.104847e+02,3.280423e+02
3.114490e+02,3.260096e+02
3.124132e+02,3.251679e+02
3.133774e+02,3.252920e+02
3.143417e+02,3.265196e+02
3.153059e+02,3.282802e+02
3.162701e+02,3.301961e+02
3.172344e+02,3.328409e+02
3.181986e+02,3.345976e+02
3.191628e+02,3.342049e+02
3.201271e+02,3.326251e+02
3.210913e+02,3.316117e+02
3.220555e+02,3.319199e+02
3.230198e+02,3.333990e+02
3.239840e+02,3.352648e+02
3.249482e+02,3.392086e+02
3.259125e+02,3.418458e+02
3.268767e+02,3.412608e+02
3.278409e+02,3.382536e+02
3.288052e+02,3.351288e+02
3.297694e+02,3.341929e+02
3.307336e+02,3.361208e+02
3.316979e+02,3.364999e+02
3.326621e+02,3.334091e+02
3.336263e+02,3.299602e+02
3.345906e+02,3.273946e+02
3.355548e+02,3.260472e+02
3.365190e+02,3.262003e+02
3.374833e+02,3.289977e+02
3.384475e+02,3.348434e+02
3.394117e+02,3.393940e+02
3.403760e+02,3.404854e+02
3.413402e+02,3.392223e+02
3.423044e+02,3.377043e+02
3.432687e+02,3.357388e+02
3.442329e+02,3.338865e+02
3.451971e+02,3.326359e+02
3.461614e+02,3.319128e+02
3.471256e+02,3.313611e+02
3.480898e+02,3.307792e+02
3.490541e+02,3.301602e+02
3.500183e+02,3.300529e+02
3.509825e+02,3.313741e+02
3.519468e+02,3.328546e+02
3.529110e+02,3.332306e+02
3.538752e+02,3.321294e+02
3.548395e+02,3.303252e+02
3.558037e+02,3.292831e+02
3.567680e+02,3.294939e+02
3.577322e+02,3.297417e+02
3.586964e+02,3.300598e+02
3.596607e+02,3.304203e+02
3.606249e+02,3.306595e+02
3.615891e+02,3.304237e+02
3.625534e+02,3.299219e+02
3.635176e+02,3.299762e+02
3.644818e+02,3.309414e+02
3.654461e+02,3.320124e+02
3.664103e+02,3.326722e+02
3.673745e+02,3.331756e+02
3.683388e+02,3.341936e+02
3.693030e+02,3.357339e+02
3.702672e+02,3.377446e+02
3.712315e+02,3.403390e+02
3.721957e+02,3.435724e+02
3.731599e+02,3.470726e+02
3.741242e+02,3.504207e+02
3.750884e+02,3.549665e+02
3.760526e+02,3.579768e+02
3.770169e+02,3.587337e+02
3.779811e+02,3.579138e+02
3.789453e+02,3.563843e+02
3.799096e+02,3.545877e+02
3.808738e+02,3.522032e+02
3.818380e+02,3.478461e+02
3.828023e+02,3.388418e+02
3.837665e+02,3.318242e+02
3.847307e+02,3.299154e+02
3.856950e+02,3.313858e+02
3.866592e+02,3.321425e+02
3.876234e+02,3.290914e+02
3.885877e+02,3.234928e+02
3.895519e+02,3.188770e+02
3.905161e+02,3.152801e+02
3.914804e+02,3.129713e+02
3.924446e+02,3.129486e+02
3.934088e+02,3.159863e+02
3.943731e+02,3.180756e+02
3.953373e+02,3.171847e+02
3.963015e+02,3.149175e+02
3.972658e+02,3.136255e+02
3.982300e+02,3.142347e+02
3.991942e+02,3.161711e+02
4.001585e+02,3.176007e+02
4.011227e+02,3.186767e+02
4.020869e+02,3.187220e+02
4.030512e+02,3.162285e+02
4.040154e+02,3.127303e+02
4.049796e+02,3.106495e+02
4.059439e+02,3.119836e+02
4.069081e+02,3.157232e+02
4.078723e+02,3.182257e+02
4.088366e+02,3.192060e+02
4.098008e+02,3.191540e+02
4.107650e+02,3.183548e+02
4.117293e+02,3.169068e+02
4.126935e+02,3.152961e+02
4.136577e+02,3.129440e+02
4.146220e+02,3.107114e+02
4.155862e+02,3.100709e+02
4.165504e+02,3.114363e+02
4.175147e+02,3.138777e+02
4.184789e+02,3.159188e+02
4.194431e+02,3.178961e+02
4.204074e+02,3.189378e+02
4.213716e+02,3.181159e+02
4.223358e+02,3.166783e+02
4.233001e+02,3.159096e+02
4.242643e+02,3.164122e+02
4.252285e+02,3.179044e+02
4.261928e+02,3.197222e+02
4.271570e+02,3.218728e+02
4.281212e+02,3.244148e+02
4.290855e+02,3.280998e+02
4.300497e+02,3.321761e+02
4.310139e+02,3.349240e+02
4.319782e+02,3.351998e+02
4.329424e+02,3.342546e+02
4.339066e+02,3.334136e+02
4.348709e+02,3.327416e+02
4.358351e+02,3.318453e+02
4.367993e+02,3.303310e+02
4.377636e+02,3.279070e+02
4.387278e+02,3.256464e+02
4.396920e+02,3.236771e+02
4.406563e+02,3.218654e+02
4.416205e+02,3.197875e+02
4.425847e+02,3.173657e+02
4.435490e+02,3.154677e+02
4.445132e+02,3.157796e+02
4.454774e+02,3.189831e+02
4.464417e+02,3.213226e+02
4.474059e+02,3.209955e+02
4.483701e+02,3.195431e+02
4.493344e+02,3.189604e+02
4.502986e+02,3.200769e+02
4.512628e+02,3.217300e+02
4.522271e+02,3.234136e+02
4.531913e+02,3.250386e+02
4.541555e+02,3.262594e+02
4.551198e+02,3.269182e+02
4.560840e+02,3.270302e+02
4.570482e+02,3.260702e+02
4.580125e+02,3.236743e+02
4.589767e+02,3.209033e+02
4.599409e+02,3.174252e+02
4.609052e+02,3.135307e+02
4.618694e+02,3.103008e+02
4.628336e+02,3.090137e+02
4.637979e+02,3.094880e+02
4.647621e+02,3.097399e+02
4.657263e+02,3.098446e+02
4.666906e+02,3.096322e+02
4.676548e+02,3.084977e+02
4.686190e+02,3.057956e+02
4.695833e+02,3.041762e+02
4.705475e+02,3.054395e+02
4.715117e+02,3.080089e+02
4.724760e+02,3.096808e+02
4.734402e+02,3.097347e+02
4.744044e+02,3.086504e+02
4.753687e+02,3.073522e+02
4.763329e+02,3.048430e+02
4.772971e+02,3.037675e+02
4.782614e+02,3.059040e+02
4.792256e+02,3.091782e+02
4.801898e+02,3.109008e+02
4.811541e+02,3.090287e+02
4.821183e+02,3.057397e+02
4.830826e+02,3.042060e+02
4.840468e+02,3.044986e+02
4.850110e+02,3.049149e+02
4.859753e+02,3.042264e+02
4.869395e+02,3.023122e+02
4.879037e+02,3.020933e+02
4.888680e+02,3.057030e+02
4.898322e+02,3.092424e+02
4.907964e+02,3.104802e+02
4.917607e+02,3.095004e+02
4.927249e+02,3.077887e+02
4.936891e+02,3.066941e+02
4.946534e+02,3.062610e+02
4.956176e+02,3.054502e+02
4.965818e+02,3.036458e+02
4.975461e+02,3.020522e+02
4.985103e+02,3.018163e+02
4.994745e+02,3.033335e+02
5.004388e+02,3.043034e+02
5.014030e+02,3.032806e+02
5.023672e+02,3.012504e+02
5.033315e+02,2.998621e+02
5.042957e+02,2.996422e+02
5.052599e+02,3.000413e+02
5.062242e+02,2.998789e+02
5.071884e+02,2.981393e+02
5.081526e+02,2.975608e+02
5.091169e+02,2.990273e+02
5.100811e+02,3.015974e+02
5.110453e+02,3.042413e+02
5.120095e+02,3.070633e+02
5.129738e+02,3.093219e+02
5.139380e+02,3.096277e+02
5.149022e+02,3.080251e+02
5.158665e+02,3.065832e+02
5.168307e+02,3.064688e+02
5.177949e+02,3.074714e+02
5.187592e+02,3.073169e+02
5.197234e+02,3.054821e+02
5.206876e+02,3.036140e+02
5.216519e+02,3.024604e+02
5.226161e+02,3.018916e+02
5.235803e+02,3.013149e+02
5.245446e+02,3.002147e+02
5.255088e+02,2.986644e+02
5.264730e+02,2.971021e+02
5.274373e+02,2.953434e+02
5.284015e+02,2.938989e+02
5.293657e+02,2.934100e+02
5.303300e+02,2.940275e+02
5.312942e+02,2.942187e+02
5.322584e+02,2.938250e+02
5.332227e+02,2.930248e+02
5.341869e+02,2.915151e+02
5.351511e+02,2.892633e+02
5.361154e+02,2.872693e+02
5.370796e+02,2.872677e+02
5.380438e+02,2.900292e+02
5.390081e+02,2.918082e+02
5.399723e+02,2.913589e+02
5.409365e+02,2.902177e+02
5.419008e+02,2.897204e+02
5.428650e+02,2.900487e+02
5.438292e+02,2.907015e+02
5.447935e+02,2.916557e+02
5.457577e+02,2.927538e+02
5.467219e+02,2.938222e+02
5.476862e+02,2.949023e+02
5.486504e+02,2.956251e+02
5.496146e+02,2.946572e+02
5.505789e+02,2.898094e+02
5.515431e+02,2.866954e+02
5.525073e+02,2.878374e+02
5.534716e+02,2.911862e+02
5.544358e+02,2.935990e+02
5.554000e+02,2.934203e+02
5.563643e+02,2.920453e+02
5.573285e+02,2.903359e+02
5.582927e+02,2.883936e+02
5.592570e+02,2.871663e+02
5.602212e+02,2.873882e+02
5.611854e+02,2.890224e+02
5.621497e+02,2.904937e+02
5.631139e+02,2.917990e+02
5.640781e+02,2.927701e+02
5.650424e+02,2.938762e+02
5.660066e+02,2.948170e+02
5.669708e+02,2.945562e+02
5.679351e+02,2.912668e+02
5.688993e+02,2.867769e+02
5.698635e+02,2.844792e+02
5.708278e+02,2.847196e+02
5.717920e+02,2.860118e+02
5.727562e+02,2.870746e+02
5.737205e+02,2.878838e+02
5.746847e+02,2.882551e+02
5.756489e+02,2.876285e+02
5.766132e+02,2.869798e+02
5.775774e+02,2.870198e+02
5.785416e+02,2.878081e+02
5.795059e+02,2.885211e+02
5.804701e+02,2.887480e+02
5.814343e+02,2.884149e+02
5.823986e+02,2.870357e+02
5.833628e+02,2.842805e+02
5.843270e+02,2.812806e+02
5.852913e+02,2.794849e+02
5.862555e+02,2.789435e+02
5.872197e+02,2.796960e+02
5.881840e+02,2.832884e+02
5.891482e+02,2.871892e+02
5.901124e+02,2.892657e+02
5.910767e+02,2.887816e+02
5.920409e+02,2.872614e+02
5.930051e+02,2.858803e+02
5.939694e+02,2.846339e+02
5.949336e+02,2.836349e+02
5.958978e+02,2.828954e+02
5.968621e+02,2.824689e+02
5.978263e+02,2.824961e+02
5.987905e+02,2.836452e+02
5.997548e+02,2.845585e+02
6.007190e+02,2.850865e+02
6.016832e+02,2.853991e+02
6.026475e+02,2.856233e+02
6.036117e+02,2.856914e+02
6.045759e+02,2.857206e+02
6.055402e+02,2.859489e+02
6.065044e+02,2.862934e+02
6.074686e+02,2.863686e+02
6.084329e+02,2.860646e+02
6.093971e+02,2.854358e+02
6.103613e+02,2.846070e+02
6.113256e+02,2.827290e+02
6.122899e+02,2.816201e+02
6.132541e+02,2.826324e+02
6.142183e+02,2.844854e+02
6.151826e+02,2.850149e+02
6.161468e+02,2.820302e+02
6.171110e+02,2.781542e+02
6.180753e+02,2.766635e+02
6.190395e+02,2.773448e+02
6.200037e+02,2.784721e+02
6.209680e+02,2.790861e+02
6.219322e+02,2.792429e+02
6.228964e+02,2.793085e+02
6.238607e+02,2.792793e+02
6.248249e+02,2.791029e+02
6.257891e+02,2.783439e+02
6.267534e+02,2.772475e+02
6.277176e+02,2.767291e+02
6.286818e+02,2.781155e+02
6.296461e+02,2.798842e+02
6.306103e+02,2.800711e+02
6.315745e+02,2.787911e+02
6.325388e+02,2.774986e+02
6.335030e+02,2.773183e+02
6.344672e+02,2.782541e+02
6.354315e+02,2.788005e+02
6.363957e+02,2.786106e+02
6.373599e+02,2.782740e+02
6.383242e+02,2.782829e+02
6.392884e+02,2.786001e+02
6.402526e+02,2.785516e+02
6.412169e+02,2.774937e+02
6.421811e+02,2.762265e+02
6.431453e+02,2.755726e+02
6.441096e+02,2.755240e+02
6.450738e+02,2.755366e+02
6.460380e+02,2.749569e+02
6.470023e+02,2.738113e+02
6.479665e+02,2.736255e+02
6.489307e+02,2.746878e+02
6.498950e+02,2.761607e+02
6.508592e+02,2.776170e+02
6.518234e+02,2.791304e+02
6.527877e+02,2.797555e+02
6.537519e+02,2.785420e+02
6.547161e+02,2.769896e+02
6.556804e+02,2.763501e+02
6.566446e+02,2.766868e+02
6.576088e+02,2.770508e+02
6.585731e+02,2.764681e+02
6.595373e+02,2.750958e+02
6.605015e+02,2.738630e+02
6.614658e+02,2.728649e+02
6.624300e+02,2.719808e+02
6.633942e+02,2.709856e+02
6.643585e+02,2.693833e+02
6.653227e+02,2.689999e+02
6.662869e+02,2.708222e+02
6.672512e+02,2.729969e+02
6.682154e+02,2.745997e+02
6.691796e+02,2.754254e+02
6.701439e+02,2.754105e+02
6.711081e+02,2.740515e+02
6.720723e+02,2.719017e+02
6.730366e+02,2.699186e+02
6.740008e+02,2.682634e+02
6.749650e+02,2.672652e+02
6.759293e+02,2.674303e+02
6.768935e+02,2.692358e+02
6.778577e+02,2.709446e+02
6.788220e+02,2.733194e+02
6.797862e+02,2.751228e+02
6.807504e+02,2.752621e+02
6.817147e+02,2.733524e+02
6.826789e+02,2.711877e+02
6.836431e+02,2.684260e+02
6.846074e+02,2.661255e+02
6.855716e+02,2.658764e+02
6.865358e+02,2.679351e+02
6.875001e+02,2.707129e+02
6.884643e+02,2.723720e+02
6.894285e+02,2.729331e+02
6.903928e+02,2.738587e+02
6.913570e+02,2.758999e+02
6.923212e+02,2.773174e+02
6.932855e+02,2.759289e+02
6.942497e+02,2.688839e+02
6.952139e+02,2.651137e+02
6.961782e+02,2.675726e+02
6.971424e+02,2.713659e+02
6.981066e+02,2.729541e+02
6.990709e+02,2.715472e+02
7.000351e+02,2.691969e+02
7.009993e+02,2.670212e+02
7.019636e+02,2.652875e+02
7.029278e+02,2.644883e+02
7.038920e+02,2.647050e+02
7.048563e+02,2.655113e+02
7.058205e+02,2.666080e+02
7.067847e+02,2.683763e+02
7.077490e+02,2.695008e+02
7.087132e+02,2.699373e+02
7.096774e+02,2.699417e+02
7.106417e+02,2.694165e+02
7.116059e+02,2.681496e+02
7.125701e+02,2.670199e+02
7.135344e+02,2.662469e+02
7.144986e+02,2.658135e+02
7.154628e+02,2.657559e+02
7.164271e+02,2.660190e+02
7.173913e+02,2.662956e+02
7.183555e+02,2.662784e+02
7.193198e+02,2.660050e+02
7.202840e+02,2.656373e+02
7.212482e+02,2.651581e+02
7.222125e+02,2.649276e+02
7.231767e+02,2.654012e+02
7.241409e+02,2.670992e+02
7.251052e+02,2.678226e+02
7.260694e+02,2.673533e+02
7.270336e+02,2.660615e+02
7.279979e+02,2.635902e+02
7.289621e+02,2.598447e+02
7.299263e+02,2.573753e+02
7.308906e+02,2.578028e+02
7.318548e+02,2.596990e+02
7.328190e+02,2.620541e+02
7.337833e+02,2.645755e+02
7.347475e+02,2.665113e+02
7.357117e+02,2.669417e+02
7.366760e+02,2.660523e+02
7.376402e+02,2.653838e+02
7.386044e+02,2.651384e+02
7.395687e+02,2.647587e+02
7.405329e+02,2.636288e+02
7.414971e+02,2.613952e+02
7.424614e+02,2.598387e+02
7.434256e+02,2.598820e+02
7.443898e+02,2.599968e+02
7.453541e+02,2.588404e+02
7.463183e+02,2.564912e+02
7.472825e+02,2.551828e+02
7.482468e+02,2.573106e+02
7.492110e+02,2.602195e+02
7.501752e+02,2.609157e+02
7.511395e+02,2.595970e+02
7.521037e+02,2.582495e+02
7.530679e+02,2.589161e+02
7.540322e+02,2.610404e+02
7.549964e+02,2.604029e+02
7.559606e+02,2.561197e+02
7.569249e+02,2.523598e+02
7.578891e+02,2.520505e+02
7.588533e+02,2.554568e+02
7.598176e+02,2.576069e+02
7.607818e+02,2.563657e+02
7.617460e+02,2.556289e+02
7.627103e+02,2.580379e+02
7.636745e+02,2.624544e+02
7.646387e+02,2.648208e+02
7.656030e+02,2.616733e+02
7.665672e+02,2.572726e+02
7.675314e+02,2.546114e+02
7.684957e+02,2.534936e+02
7.694599e+02,2.533625e+02
7.704241e+02,2.543306e+02
7.713884e+02,2.560247e+02
7.723526e+02,2.571371e+02
7.733168e+02,2.576832e+02
7.742811e+02,2.580910e+02
7.752453e+02,2.584348e+02
7.762095e+02,2.585945e+02
7.771738e+02,2.583679e+02
7.781380e+02,2.568743e+02
7.791022e+02,2.559097e+02
7.800665e+02,2.563724e+02
7.810307e+02,2.575916e+02
7.819949e+02,2.584386e+02
7.829592e+02,2.591365e+02
7.839234e+02,2.590904e+02
7.848876e+02,2.569651e+02
7.858519e+02,2.540186e+02
7.868161e+02,2.524820e+02
7.877803e+02,2.535276e+02
7.887446e+02,2.556038e+02
7.897088e+02,2.568483e+02
7.906730e+02,2.573726e+02
7.916373e+02,2.572201e+02
7.926015e+02,2.561453e+02
7.935657e+02,2.544942e+02
7.945300e+02,2.532608e+02
7.954942e+02,2.526214e+02
7.964584e+02,2.522629e+02
7.974227e+02,2.527213e+02
7.983869e+02,2.534802e+02
7.993511e+02,2.534946e+02
8.003154e+02,2.513909e+02
8.012796e+02,2.506409e+02
8.022438e+02,2.532874e+02
8.032081e+02,2.568542e+02
8.041723e+02,2.592612e+02
8.051365e+02,2.599929e+02
8.061008e+02,2.598474e+02
8.070650e+02,2.590837e+02
8.080292e+02,2.578287e+02
8.089935e+02,2.560645e+02
8.099577e+02,2.539154e+02
8.109219e+02,2.524450e+02
8.118862e+02,2.533864e+02
8.128504e+02,2.566134e+02
8.138146e+02,2.579654e+02
8.147789e+02,2.567827e+02
8.157431e+02,2.549062e+02
8.167073e+02,2.538615e+02
8.176716e+02,2.539750e+02
8.186358e+02,2.538607e+02
8.196000e+02,2.532663e+02
8.205643e+02,2.526378e+02
8.215285e+02,2.517317e+02
8.224927e+02,2.506808e+02
8.234570e+02,2.505180e+02
8.244212e+02,2.526432e+02
8.253854e+02,2.547569e+02
8.263497e+02,2.554170e+02
8.273139e+02,2.547422e+02
8.282781e+02,2.535041e+02
8.292424e+02,2.516644e+02
8.302066e+02,2.500432e+02
8.311708e+02,2.500510e+02
8.321351e+02,2.513954e+02
8.330993e+02,2.526603e+02
8.340635e+02,2.531633e+02
8.350278e+02,2.528958e+02
8.359920e+02,2.515918e+02
8.369562e+02,2.489177e+02
8.379205e+02,2.470458e+02
8.388847e+02,2.468586e+02
8.398489e+02,2.478172e+02
8.408132e+02,2.485313e+02
8.417774e+02,2.493510e+02
8.427416e+02,2.493224e+02
8.437059e+02,2.475515e+02
8.446701e+02,2.453317e+02
8.456343e+02,2.440000e+02
8.465986e+02,2.437326e+02
8.475628e+02,2.442959e+02
8.485270e+02,2.464542e+02
8.494913e+02,2.489550e+02
8.504555e+02,2.504805e+02
8.514197e+02,2.507334e+02
8.523840e+02,2.506777e+02
8.533482e+02,2.513404e+02
8.543124e+02,2.521040e+02
8.552767e+02,2.515495e+02
8.562409e+02,2.495216e+02
8.572051e+02,2.474203e+02
8.581694e+02,2.469136e+02
8.591336e+02,2.478797e+02
8.600978e+02,2.484600e+02
8.610621e+02,2.486023e+02
8.620263e+02,2.485627e+02
8.629905e+02,2.484427e+02
8.639548e+02,2.481525e+02
8.649190e+02,2.476909e+02
8.658832e+02,2.467671e+02
8.668475e+02,2.463014e+02
8.678117e+02,2.470449e+02
8.687759e+02,2.486915e+02
8.697402e+02,2.497732e+02
8.707044e+02,2.491838e+02
8.716686e+02,2.488379e+02
8.726329e+02,2.499149e+02
8.735971e+02,2.518065e+02
8.745613e+02,2.532442e+02
8.755256e+02,2.532466e+02
8.764898e+02,2.534227e+02
8.774540e+02,2.552351e+02
8.784183e+02,2.577869e+02
8.793825e+02,2.594599e+02
8.803467e+02,2.595250e+02
8.813110e+02,2.590508e+02
8.822752e+02,2.596910e+02
8.832394e+02,2.610432e+02
8.842037e+02,2.614751e+02
8.851679e+02,2.605158e+02
8.861321e+02,2.585602e+02
8.870964e+02,2.555819e+02
8.880606e+02,2.514227e+02
8.890248e+02,2.495173e+02
8.899891e+02,2.507528e+02
8.909533e+02,2.532512e+02
8.919175e+02,2.554676e+02
8.928818e+02,2.577045e+02
8.938460e+02,2.582367e+02
8.948102e+02,2.558487e+02
8.957745e+02,2.529346e+02
8.967387e+02,2.505557e+02
8.977029e+02,2.486494e+02
8.986672e+02,2.475820e+02
8.996314e+02,2.487789e+02
9.005956e+02,2.496979e+02
9.015599e+02,2.488474e+02
9.025241e+02,2.467769e+02
9.034883e+02,2.451274e+02
9.044526e+02,2.443996e+02
9.054168e+02,2.442437e+02
9.063810e+02,2.451888e+02
9.073453e+02,2.466976e+02
9.083095e+02,2.476420e+02
9.092737e+02,2.475013e+02
9.102380e+02,2.464240e+02
9.112022e+02,2.436001e+02
9.121664e+02,2.400200e+02
9.131307e+02,2.386141e+02
9.140949e+02,2.404171e+02
9.150591e+02,2.432015e+02
9.160234e+02,2.433756e+02
9.169876e+02,2.412241e+02
9.179518e+02,2.405291e+02
9.189161e+02,2.420265e+02
9.198803e+02,2.438918e+02
9.208445e+02,2.440971e+02
9.218088e+02,2.424133e+02
9.227730e+02,2.419266e+02
9.237372e+02,2.433426e+02
9.247015e+02,2.442574e+02
9.256657e+02,2.427422e+02
9.266299e+02,2.386301e+02
9.275942e+02,2.362789e+02
9.285584e+02,2.367058e+02
9.295226e+02,2.375927e+02
9.304869e+02,2.383401e+02
9.314511e+02,2.389907e+02
9.324153e+02,2.395663e+02
9.333796e+02,2.405011e+02
9.343438e+02,2.408457e+02
9.353080e+02,2.396097e+02
9.362723e+02,2.377486e+02
9.372365e+02,2.367020e+02
9.382007e+02,2.371693e+02
9.391650e+02,2.382927e+02
9.401292e+02,2.408498e+02
9.410934e+02,2.432563e+02
9.420577e+02,2.430923e+02
9.430219e+02,2.395617e+02
9.439861e+02,2.363103e+02
9.449504e+02,2.370906e+02
9.459146e+02,2.395635e+02
9.468788e+02,2.400297e+02
9.478431e+02,2.380812e+02
9.488073e+02,2.358826e+02
9.497715e+02,2.353637e+02
9.507358e+02,2.360800e+02
9.517000e+02,2.373451e+02
9.526642e+02,2.390968e+02
9.536285e+02,2.403174e+02
9.545927e+02,2.401549e+02
9.555569e+02,2.390335e+02
9.565212e+02,2.383919e+02
9.574854e+02,2.383259e+02
9.584496e+02,2.381445e+02
9.594139e+02,2.373562e+02
9.603781e+02,2.363383e+02
9.613423e+02,2.362035e+02
9.623066e+02,2.370252e+02
9.632708e+02,2.386775e+02
9.642350e+02,2.418936e+02
9.651993e+02,2.450070e+02
9.661635e+02,2.453135e+02
9.671277e+02,2.406543e+02
9.680920e+02,2.383172e+02
9.690562e+02,2.400097e+02
9.700204e+02,2.422475e+02
9.709847e+02,2.423488e+02
9.719489e+02,2.397915e+02
9.729131e+02,2.382346e+02
9.738774e+02,2.382182e+02
9.748416e+02,2.387473e+02
9.758058e+02,2.396295e+02
9.767701e+02,2.406611e+02
9.777343e+02,2.412106e+02
9.786985e+02,2.410390e+02
9.796628e+02,2.404749e+02
9.806270e+02,2.389347e+02
9.815912e+02,2.372824e+02
9.825555e+02,2.369922e+02
9.835197e+02,2.397999e+02
9.844839e+02,2.423293e+02
9.854482e+02,2.428460e+02
9.864124e+02,2.425663e+02
9.873766e+02,2.429419e+02
9.883409e+02,2.444914e+02
9.893051e+02,2.455870e+02
9.902693e+02,2.447631e+02
9.912336e+02,2.432639e+02
9.921978e+02,2.420870e+02
9.931620e+02,2.413764e+02
9.941263e+02,2.413809e+02
9.950905e+02,2.429840e+02
9.960547e+02,2.450298e+02
9.970190e+02,2.463868e+02
9.979832e+02,2.468872e+02
9.989474e+02,2.461653e+02
9.999117e+02,2.434771e+02
1.000876e+03,2.402832e+02
1.001840e+03,2.390631e+02
1.002804e+03,2.393161e+02
1.003769e+03,2.389805e+02
1.004733e+03,2.370865e+02
1.005697e+03,2.350517e+02
1.006661e+03,2.356921e+02
1.007626e+03,2.382449e+02
1.008590e+03,2.388638e+02
1.009554e+03,2.367301e+02
1.010518e+03,2.339116e+02
1.011482e+03,2.327299e+02
1.012447e+03,2.330137e+02
1.013411e+03,2.335516e+02
1.014375e+03,2.344384e+02
1.015339e+03,2.352327e+02
1.016304e+03,2.354604e+02
1.017268e+03,2.352534e+02
1.018232e+03,2.356655e+02
1.019196e+03,2.367884e+02
1.020161e+03,2.374955e+02
1.021125e+03,2.372480e+02
1.022089e+03,2.365678e+02
1.023053e+03,2.367174e+02
1.024018e+03,2.377963e+02
1.024982e+03,2.386856e+02
1.025946e+03,2.389321e+02
1.026910e+03,2.391544e+02
1.027875e+03,2.405842e+02
1.028839e+03,2.441825e+02
1.029803e+03,2.458272e+02
1.030767e+03,2.449453e+02
1.031731e+03,2.430139e+02
1.032696e+03,2.406116e+02
1.033660e+03,2.376219e+02
1.034624e+03,2.366655e+02
1.035588e+03,2.392822e+02
1.036552e+03,2.413878e+02
1.037517e+03,2.410136e+02
1.038481e+03,2.388123e+02
1.039445e+03,2.375184e+02
1.040409e+03,2.375610e+02
1.041374e+03,2.378517e+02
1.042338e+03,2.386992e+02
1.043302e+03,2.395217e+02
1.044266e+03,2.394078e+02
1.045231e+03,2.368803e+02
1.046195e+03,2.360438e+02
1.047159e+03,2.384797e+02
1.048123e+03,2.413519e+02
1.049088e+03,2.426545e+02
1.050052e+03,2.421946e+02
1.051016e+03,2.423680e+02
1.051980e+03,2.442856e+02
1.052945e+03,2.456382e+02
1.053909e+03,2.448046e+02
1.054873e+03,2.424272e+02
1.055837e+03,2.413532e+02
1.056802e+03,2.434720e+02
1.057766e+03,2.449325e+02
1.058730e+03,2.445938e+02
1.059694e+03,2.434581e+02
1.060658e+03,2.426873e+02
1.061623e+03,2.423150e+02
1.062587e+03,2.425632e+02
1.063551e+03,2.441613e+02
1.064515e+03,2.458692e+02
1.065479e+03,2.467962e+02
1.066444e+03,2.468962e+02
1.067408e+03,2.467797e+02
1.068372e+03,2.459055e+02
1.069336e+03,2.454607e+02
1.070301e+03,2.461686e+02
1.071265e+03,2.476124e+02
1.072229e+03,2.486522e+02
1.073193e+03,2.491145e+02
1.074158e+03,2.491202e+02
1.075122e+03,2.481759e+02
1.076086e+03,2.470471e+02
1.077050e+03,2.467222e+02
1.078015e+03,2.477706e+02
1.078979e+03,2.490271e+02
1.079943e+03,2.500247e+02
1.080907e+03,2.512523e+02
1.081872e+03,2.528987e+02
1.082836e+03,2.549174e+02
1.083800e+03,2.575560e+02
1.084764e+03,2.610715e+02
1.085729e+03,2.651488e+02
1.086693e+03,2.700472e+02
1.087657e+03,2.753308e+02
1.088621e+03,2.799848e+02
1.089585e+03,2.833633e+02
1.090550e+03,2.864980e+02
1.091514e+03,2.907316e+02
1.092478e+03,2.945302e+02
1.093442e+03,2.962101e+02
1.094406e+03,2.954269e+02
1.095371e+03,2.930114e+02
1.096335e+03,2.877483e+02
1.097299e+03,2.819336e+02
1.098263e+03,2.766048e+02
1.099228e+03,2.718704e+02
1.100192e+03,2.684892e+02
1.101156e+03,2.677856e+02
1.102120e+03,2.671123e+02
1.103085e+03,2.650630e+02
1.104049e+03,2.624452e+02
1.105013e+03,2.609344e+02
1.105977e+03,2.623240e+02
1.106942e+03,2.628539e+02
1.107906e+03,2.603378e+02
1.108870e+03,2.577543e+02
1.109834e+03,2.581467e+02
1.110799e+03,2.627430e+02
1.111763e+03,2.662272e+02
1.112727e+03,2.671030e+02
1.113691e+03,2.677045e+02
1.114656e+03,2.693758e+02
1.115620e+03,2.719039e+02
1.116584e+03,2.735132e+02
1.117548e+03,2.734991e+02
1.118512e+03,2.730331e+02
1.119477e+03,2.719407e+02
1.120441e+03,2.707253e+02
1.121405e+03,2.702096e+02
1.122369e+03,2.722707e+02
1.123334e+03,2.721891e+02
1.124298e+03,2.684657e+02
1.125262e+03,2.640024e+02
1.126226e+03,2.608904e+02
1.127191e+03,2.593565e+02
1.128155e+03,2.572111e+02
1.129119e+03,2.539737e+02
1.130083e+03,2.506302e+02
1.131047e+03,2.472718e+02
1.132012e+03,2.440444e+02
1.132976e+03,2.416667e+02
1.133940e+03,2.405780e+02
1.134904e+03,2.393937e+02
1.135869e+03,2.375964e+02
1.136833e+03,2.361306e+02
1.137797e+03,2.362012e+02
1.138761e+03,2.384721e+02
1.139726e+03,2.400156e+02
1.140690e+03,2.405420e+02
1.141654e+03,2.408062e+02
1.142618e+03,2.410973e+02
1.143583e+03,2.414871e+02
1.144547e+03,2.425625e+02
1.145511e+03,2.445924e+02
1.146475e+03,2.462411e+02
1.147439e+03,2.470732e+02
1.148404e+03,2.474055e+02
1.149368e+03,2.477966e+02
1.150332e+03,2.482872e+02
1.151296e+03,2.481445e+02
1.152261e+03,2.472222e+02
1.153225e+03,2.453080e+02
1.154189e+03,2.418870e+02
1.155153e+03,2.374079e+02
1.156118e+03,2.351597e+02
1.157082e+03,2.352752e+02
1.158046e+03,2.354857e+02
1.159010e+03,2.346273e+02
1.159974e+03,2.332755e+02
1.160939e+03,2.327432e+02
1.161903e+03,2.328382e+02
1.162867e+03,2.325813e+02
1.163831e+03,2.317509e+02
1.164796e+03,2.307122e+02
1.165760e+03,2.297999e+02
1.166724e+03,2.290905e+02
1.167688e+03,2.289182e+02
1.168653e+03,2.291684e+02
1.169617e+03,2.290037e+02
1.170581e+03,2.277633e+02
1.171545e+03,2.260771e+02
1.172510e+03,2.244567e+02
1.173474e+03,2.231635e+02
1.174438e+03,2.229200e+02
1.175402e+03,2.240209e+02
1.176366e+03,2.252492e+02
1.177331e+03,2.253073e+02
1.178295e+03,2.250478e+02
1.179259e+03,2.257307e+02
1.180223e+03,2.272172e+02
1.181188e+03,2.282103e+02
1.182152e+03,2.277459e+02
1.183116e+03,2.267755e+02
1.184080e+03,2.258949e+02
1.185045e+03,2.251026e+02
1.186009e+03,2.242356e+02
1.186973e+03,2.230385e+02
1.187937e+03,2.223879e+02
1.188901e+03,2.230787e+02
1.189866e+03,2.240738e+02
1.190830e+03,2.243287e+02
1.191794e+03,2.236774e+02
1.192758e+03,2.235163e+02
1.193723e+03,2.249476e+02
1.194687e+03,2.262145e+02
1.195651e+03,2.264781e+02
1.196615e+03,2.260287e+02
1.197580e+03,2.256378e+02
1.198544e+03,2.250661e+02
1.199508e+03,2.246386e+02
1.200472e+03,2.246201e+02
1.201437e+03,2.247339e+02
1.202401e+03,2.248337e+02
1.203365e+03,2.250280e+02
1.204329e+03,2.247803e+02
1.205293e+03,2.238631e+02
1.206258e+03,2.229627e+02
1.207222e+03,2.222841e+02
1.208186e+03,2.218372e+02
1.209150e+03,2.217100e+02
1.210115e+03,2.218343e+02
1.211079e+03,2.225013e+02
1.212043e+03,2.239648e+02
1.213007e+03,2.251472e+02
1.213972e+03,2.244739e+02
1.214936e+03,2.224157e+02
1.215900e+03,2.216287e+02
1.216864e+03,2.221109e+02
1.217828e+03,2.226770e+02
1.218793e+03,2.224907e+02
1.219757e+03,2.222419e+02
1.220721e+03,2.235925e+02
1.221685e+03,2.258194e+02
1.222650e+03,2.266692e+02
1.223614e+03,2.254177e+02
1.224578e+03,2.241103e+02
1.225542e+03,2.252217e+02
1.226507e+03,2.269382e+02
1.227471e+03,2.270017e+02
1.228435e+03,2.255068e+02
1.229399e+03,2.237964e+02
1.230364e+03,2.215277e+02
1.231328e+03,2.204304e+02
1.232292e+03,2.229592e+02
1.233256e+03,2.266673e+02
1.234220e+03,2.281397e+02
1.235185e+03,2.260720e+02
1.236149e+03,2.241130e+02
1.237113e+03,2.227478e+02
1.238077e+03,2.220044e+02
1.239042e+03,2.217091e+02
1.240006e+03,2.218098e+02
1.240970e+03,2.227331e+02
1.241934e+03,2.253661e+02
1.242899e+03,2.272043e+02
1.243863e+03,2.276024e+02
1.244827e+03,2.272908e+02
1.245791e+03,2.272480e+02
1.246755e+03,2.275995e+02
1.247720e+03,2.273970e+02
1.248684e+03,2.265264e+02
1.249648e+03,2.257386e+02
1.250612e+03,2.255631e+02
1.251577e+03,2.257097e+02
1.252541e+03,2.251387e+02
1.253505e+03,2.239639e+02
1.254469e+03,2.234271e+02
1.255434e+03,2.240118e+02
1.256398e+03,2.246502e+02
1.257362e+03,2.237112e+02
1.258326e+03,2.219861e+02
1.259291e+03,2.209130e+02
1.260255e+03,2.205477e+02
1.261219e+03,2.205487e+02
1.262183e+03,2.206776e+02
1.263147e+03,2.213760e+02
1.264112e+03,2.237532e+02
1.265076e+03,2.265716e+02
1.266040e+03,2.279240e+02
1.267004e+03,2.271007e+02
1.267969e+03,2.257586e+02
1.268933e+03,2.231055e+02
1.269897e+03,2.214437e+02
1.270861e+03,2.228578e+02
1.271826e+03,2.267423e+02
1.272790e+03,2.286370e+02
1.273754e+03,2.269169e+02
1.274718e+03,2.261987e+02
1.275682e+03,2.279680e+02
1.276647e+03,2.304995e+02
1.277611e+03,2.313532e+02
1.278575e+03,2.301427e+02
1.279539e+03,2.302923e+02
1.280504e+03,2.322140e+02
1.281468e+03,2.336152e+02
1.282432e+03,2.327346e+02
1.283396e+03,2.308215e+02
1.284361e+03,2.313942e+02
1.285325e+03,2.337132e+02
1.286289e+03,2.347257e+02
1.287253e+03,2.336031e+02
1.288218e+03,2.322010e+02
1.289182e+03,2.324216e+02
1.290146e+03,2.333272e+02
1.291110e+03,2.342052e+02
1.292074e+03,2.347924e+02
1.293039e+03,2.344253e+02
1.294003e+03,2.317695e+02
1.294967e+03,2.292318e+02
1.295931e+03,2.276688e+02
1.296896e+03,2.269654e+02
1.297860e+03,2.272119e+02
1.298824e+03,2.288578e+02
1.299788e+03,2.292373e+02
1.300753e+03,2.267012e+02
1.301717e+03,2.251111e+02
1.302681e+03,2.265448e+02
1.303645e+03,2.297079e+02
1.304609e+03,2.307706e+02
1.305574e+03,2.293134e+02
1.306538e+03,2.277046e+02
1.307502e+03,2.261780e+02
1.308466e+03,2.257554e+02
1.309431e+03,2.284957e+02
1.310395e+03,2.329840e+02
1.311359e+03,2.339021e+02
1.312323e+03,2.317767e+02
1.313288e+03,2.293832e+02
1.314252e+03,2.277552e+02
1.315216e+03,2.273102e+02
1.316180e+03,2.292565e+02
1.317145e+03,2.320708e+02
1.318109e+03,2.335891e+02
1.319073e+03,2.335336e+02
1.320037e+03,2.341316e+02
1.321001e+03,2.381815e+02
1.321966e+03,2.408756e+02
1.322930e+03,2.389835e+02
1.323894e+03,2.349729e+02
1.324858e+03,2.332304e+02
1.325823e+03,2.348312e+02
1.326787e+03,2.362764e+02
1.327751e+03,2.375489e+02
1.328715e+03,2.384050e+02
1.329680e+03,2.386509e+02
1.330644e+03,2.384270e+02
1.331608e+03,2.381866e+02
1.332572e+03,2.379338e+02
1.333536e+03,2.380149e+02
1.334501e+03,2.385003e+02
1.335465e+03,2.391914e+02
1.336429e+03,2.403262e+02
1.337393e+03,2.414490e+02
1.338358e+03,2.419455e+02
1.339322e+03,2.417465e+02
1.340286e+03,2.408351e+02
1.341250e+03,2.386525e+02
1.342215e+03,2.363956e+02
1.343179e+03,2.343268e+02
1.344143e+03,2.328388e+02
1.345107e+03,2.323685e+02
1.346072e+03,2.331994e+02
1.347036e+03,2.334130e+02
1.348000e+03,2.323472e+02
1.348964e+03,2.318525e+02
1.349928e+03,2.330198e+02
1.350893e+03,2.349482e+02
1.351857e+03,2.351321e+02
1.352821e+03,2.336096e+02
1.353785e+03,2.329151e+02
1.354750e+03,2.333423e+02
1.355714e+03,2.337063e+02
1.356678e+03,2.323952e+02
1.357642e+03,2.310170e+02
1.358607e+03,2.325348e+02
1.359571e+03,2.356626e+02
1.360535e+03,2.374563e+02
1.361499e+03,2.364491e+02
1.362464e+03,2.357224e+02
1.363428e+03,2.373097e+02
1.364392e+03,2.392165e+02
1.365356e+03,2.397750e+02
1.366320e+03,2.389814e+02
1.367285e+03,2.386086e+02
1.368249e+03,2.389172e+02
1.369213e+03,2.391966e+02
1.370177e+03,2.390645e+02
1.371142e+03,2.394266e+02
1.372106e+03,2.421114e+02
1.373070e+03,2.465356e+02
1.374034e+03,2.478328e+02
1.374999e+03,2.463550e+02
1.375963e+03,2.452981e+02
1.376927e+03,2.466444e+02
1.377891e+03,2.481360e+02
1.378855e+03,2.472920e+02
1.379820e+03,2.451457e+02
1.380784e+03,2.426051e+02
1.381748e+03,2.399265e+02
1.382712e+03,2.384908e+02
1.383677e+03,2.405041e+02
1.384641e+03,2.414329e+02
1.385605e+03,2.394202e+02
1.386569e+03,2.356784e+02
1.387534e+03,2.317268e+02
1.388498e+03,2.271802e+02
1.389462e+03,2.249257e+02
1.390426e+03,2.251755e+02
1.391391e+03,2.264723e+02
1.392355e+03,2.285880e+02
1.393319e+03,2.304571e+02
1.394283e+03,2.293321e+02
1.395247e+03,2.262453e+02
1.396212e+03,2.235242e+02
1.397176e+03,2.217046e+02
1.398140e+03,2.205205e+02
1.399104e+03,2.196194e+02
1.400069e+03,2.194066e+02
1.401033e+03,2.209418e+02
1.401997e+03,2.233170e+02
1.402961e+03,2.239310e+02
1.403926e+03,2.209960e+02
1.404890e+03,2.204485e+02
1.405854e+03,2.234760e+02
1.406818e+03,2.267456e+02
1.407782e+03,2.278187e+02
1.408747e+03,2.272633e+02
1.409711e+03,2.267345e+02
1.410675e+03,2.260962e+02
1.411639e+03,2.251801e+02
1.412604e+03,2.239136e+02
1.413568e+03,2.229841e+02
1.414532e+03,2.235921e+02
1.415496e+03,2.243976e+02
1.416461e+03,2.238957e+02
1.417425e+03,2.223586e+02
1.418389e+03,2.213219e+02
1.419353e+03,2.214232e+02
1.420318e+03,2.215128e+02
1.421282e+03,2.215150e+02
1.422246e+03,2.217158e+02
1.423210e+03,2.225427e+02
1.424174e+03,2.237937e+02
1.425139e+03,2.236196e+02
1.426103e+03,2.221333e+02
1.427067e+03,2.208098e+02
1.428031e+03,2.201678e+02
1.428996e+03,2.198103e+02
1.429960e+03,2.195882e+02
1.430924e+03,2.191945e+02
1.431888e+03,2.179852e+02
1.432853e+03,2.162433e+02
1.433817e+03,2.153066e+02
1.434781e+03,2.162970e+02
1.435745e+03,2.170671e+02
1.436709e+03,2.171990e+02
1.437674e+03,2.170803e+02
1.438638e+03,2.170761e+02
1.439602e+03,2.172602e+02
1.440566e+03,2.178791e+02
1.441531e+03,2.188431e+02
1.442495e+03,2.193574e+02
1.443459e+03,2.189540e+02
1.444423e+03,2.187096e+02
1.445388e+03,2.207218e+02
1.446352e+03,2.226237e+02
1.447316e+03,2.212502e+02
1.448280e+03,2.172299e+02
1.449245e+03,2.147599e+02
1.450209e+03,2.154086e+02
1.451173e+03,2.168795e+02
1.452137e+03,2.195560e+02
1.453101e+03,2.217248e+02
1.454066e+03,2.214002e+02
1.455030e+03,2.190847e+02
1.455994e+03,2.191667e+02
1.456958e+03,2.212180e+02
1.457923e+03,2.222970e+02
1.458887e+03,2.210793e+02
1.459851e+03,2.192740e+02
1.460815e+03,2.174041e+02
1.461780e+03,2.163519e+02
1.462744e+03,2.178813e+02
1.463708e+03,2.214968e+02
1.464672e+03,2.231625e+02
1.465636e+03,2.214753e+02
1.466601e+03,2.203159e+02
1.467565e+03,2.201524e+02
1.468529e+03,2.205601e+02
1.469493e+03,2.211088e+02
1.470458e+03,2.217935e+02
1.471422e+03,2.232276e+02
1.472386e+03,2.250774e+02
1.473350e+03,2.258971e+02
1.474315e+03,2.249894e+02
1.475279e+03,2.234625e+02
1.476243e+03,2.211164e+02
1.477207e+03,2.191325e+02
1.478172e+03,2.189867e+02
1.479136e+03,2.201396e+02
1.480100e+03,2.199649e+02
1.481064e+03,2.181237e+02
1.482028e+03,2.162906e+02
1.482993e+03,2.146355e+02
1.483957e+03,2.134064e+02
1.484921e+03,2.131455e+02
1.485885e+03,2.132073e+02
1.486850e+03,2.119232e+02
1.487814e+03,2.099900e+02
1.488778e+03,2.091716e+02
1.489742e+03,2.103415e+02
1.490707e+03,2.114109e+02
1.491671e+03,2.124622e+02
1.492635e+03,2.125613e+02
1.493599e+03,2.106791e+02
1.494563e+03,2.077878e+02
1.495528e+03,2.067137e+02
1.496492e+03,2.073662e+02
1.497456e+03,2.079990e+02
1.498420e+03,2.084809e+02
1.499385e+03,2.091646e+02
1.500349e+03,2.107875e+02
1.501313e+03,2.122834e+02
1.502277e+03,2.125199e+02
1.503242e+03,2.120252e+02
1.504206e+03,2.116956e+02
1.505170e+03,2.119667e+02
1.506134e+03,2.106467e+02
1.507099e+03,2.066019e+02
1.508063e+03,2.043129e+02
1.509027e+03,2.058868e+02
1.509991e+03,2.090947e+02
1.510955e+03,2.107252e+02
1.511920e+03,2.108628e+02
1.512884e+03,2.090634e+02
1.513848e+03,2.057980e+02
1.514812e+03,2.034013e+02
1.515777e+03,2.024428e+02
1.516741e+03,2.029500e+02
1.517705e+03,2.066277e+02
1.518669e+03,2.103384e+02
1.519634e+03,2.114690e+02
1.520598e+03,2.101179e+02
1.521562e+03,2.087694e+02
1.522526e+03,2.074206e+02
1.523490e+03,2.069977e+02
1.524455e+03,2.079778e+02
1.525419e+03,2.090928e+02
1.526383e+03,2.094632e+02
1.527347e+03,2.092169e+02
1.528312e+03,2.079792e+02
1.529276e+03,2.063144e+02
1.530240e+03,2.061953e+02
1.531204e+03,2.086497e+02
1.532169e+03,2.094665e+02
1.533133e+03,2.079966e+02
1.534097e+03,2.064233e+02
1.535061e+03,2.063478e+02
1.536026e+03,2.072391e+02
1.536990e+03,2.089770e+02
1.537954e+03,2.107508e+02
1.538918e+03,2.106249e+02
1.539882e+03,2.077965e+02
1.540847e+03,2.059335e+02
1.541811e+03,2.072038e+02
1.542775e+03,2.078237e+02
1.543739e+03,2.065062e+02
1.544704e+03,2.045225e+02
1.545668e+03,2.039449e+02
1.546632e+03,2.045586e+02
1.547596e+03,2.053738e+02
1.548561e+03,2.062953e+02
1.549525e+03,2.072558e+02
1.550489e+03,2.084914e+02
1.551453e+03,2.092249e+02
1.552417e+03,2.094809e+02
1.553382e+03,2.086010e+02
1.554346e+03,2.053887e+02
1.555310e+03,2.005171e+02
1.556274e+03,1.999137e+02
1.557239e+03,2.034727e+02
1.558203e+03,2.074443e+02
1.559167e+03,2.110899e+02
1.560131e+03,2.126462e+02
1.561096e+03,2.082477e+02
1.562060e+03,2.032997e+02
1.563024e+03,2.025262e+02
1.563988e+03,2.045746e+02
1.564953e+03,2.058677e+02
1.565917e+03,2.059347e+02
1.566881e+03,2.064096e+02
1.567845e+03,2.073911e+02
1.568809e+03,2.076622e+02
1.569774e+03,2.062454e+02
1.570738e+03,2.045039e+02
1.571702e+03,2.039573e+02
1.572666e+03,2.043954e+02
1.573631e+03,2.062233e+02
1.574595e+03,2.094229e+02
1.575559e+03,2.104005e+02
1.576523e+03,2.079844e+02
1.577488e+03,2.057402e+02
1.578452e+03,2.041086e+02
1.579416e+03,2.029587e+02
1.580380e+03,2.022002e+02
1.581344e+03,2.018930e+02
1.582309e+03,2.021191e+02
1.583273e+03,2.029289e+02
1.584237e+03,2.046250e+02
1.585201e+03,2.085778e+02
1.586166e+03,2.097260e+02
1.587130e+03,2.060269e+02
1.588094e+03,2.024084e+02
1.589058e+03,2.008931e+02
1.590023e+03,2.010085e+02
1.590987e+03,2.022886e+02
1.591951e+03,2.043046e+02
1.592915e+03,2.061252e+02
1.593880e+03,2.074378e+02
1.594844e+03,2.077153e+02
1.595808e+03,2.058695e+02
1.596772e+03,2.041767e+02
1.597736e+03,2.028563e+02
1.598701e+03,2.023532e+02
1.599665e+03,2.033843e+02
1.600629e+03,2.054212e+02
1.601593e+03,2.064812e+02
1.602558e+03,2.066210e+02
1.603522e+03,2.057913e+02
1.604486e+03,2.037290e+02
1.605450e+03,2.021715e+02
1.606415e+03,2.027742e+02
1.607379e+03,2.029228e+02
1.608343e+03,2.008804e+02
1.609307e+03,1.986443e+02
1.610271e+03,2.008208e+02
1.611236e+03,2.060248e+02
1.612200e+03,2.078027e+02
1.613164e+03,2.062695e+02
1.614128e+03,2.043348e+02
1.615093e+03,2.029389e+02
1.616057e+03,2.020480e+02
1.617021e+03,2.014954e+02
1.617985e+03,2.016303e+02
1.618950e+03,2.033542e+02
1.619914e+03,2.057305e+02
1.620878e+03,2.041266e+02
1.621842e+03,1.998143e+02
1.622807e+03,1.980218e+02
1.623771e+03,1.998678e+02
1.624735e+03,2.012577e+02
1.625699e+03,1.988393e+02
1.626663e+03,1.969104e+02
1.627628e+03,1.970969e+02
1.628592e+03,1.982176e+02
1.629556e+03,1.995674e+02
1.630520e+03,2.008650e+02
1.631485e+03,1.989812e+02
1.632449e+03,1.947088e+02
1.633413e+03,1.915687e+02
1.634377e+03,1.911877e+02
1.635342e+03,1.915123e+02
1.636306e+03,1.915950e+02
1.637270e+03,1.926326e+02
1.638234e+03,1.957840e+02
1.639198e+03,1.995629e+02
1.640163e+03,2.001618e+02
1.641127e+03,1.983413e+02
1.642091e+03,1.957455e+02
1.643055e+03,1.928036e+02
1.644020e+03,1.914922e+02
1.644984e+03,1.940574e+02
1.645948e+03,1.965204e+02
1.646912e+03,1.987401e+02
1.647877e+03,1.995071e+02
1.648841e+03,1.967808e+02
1.649805e+03,1.923597e+02
1.650769e+03,1.925085e+02
1.651734e+03,1.956373e+02
1.652698e+03,1.980716e+02
1.653662e+03,1.988976e+02
1.654626e+03,1.985421e+02
1.655590e+03,1.964171e+02
1.656555e+03,1.942188e+02
1.657519e+03,1.921671e+02
1.658483e+03,1.910800e+02
1.659447e+03,1.930648e+02
1.660412e+03,1.961301e+02
1.661376e+03,1.962840e+02
1.662340e+03,1.942095e+02
1.663304e+03,1.925040e+02
1.664269e+03,1.922073e+02
1.665233e+03,1.915049e+02
1.666197e+03,1.900267e+02
1.667161e+03,1.891974e+02
1.668125e+03,1.900715e+02
1.669090e+03,1.915760e+02
1.670054e+03,1.921571e+02
1.671018e+03,1.922894e+02
1.671982e+03,1.930655e+02
1.672947e+03,1.943672e+02
1.673911e+03,1.931340e+02
1.674875e+03,1.879385e+02
1.675839e+03,1.858125e+02
1.676804e+03,1.880742e+02
1.677768e+03,1.910950e+02
1.678732e+03,1.922308e+02
1.679696e+03,1.920080e+02
1.680661e+03,1.896903e+02
1.681625e+03,1.869127e+02
1.682589e+03,1.862629e+02
1.683553e+03,1.879037e+02
1.684517e+03,1.894929e+02
1.685482e+03,1.910087e+02
1.686446e+03,1.928573e+02
1.687410e+03,1.953784e+02
1.688374e+03,1.967948e+02
1.689339e+03,1.950020e+02
1.690303e+03,1.924207e+02
1.691267e+03,1.898968e+02
1.692231e+03,1.880297e+02
1.693196e+03,1.881943e+02
1.694160e+03,1.899530e+02
1.695124e+03,1.904623e+02
1.696088e+03,1.898269e+02
1.697052e+03,1.891807e+02
1.698017e+03,1.885801e+02
1.698981e+03,1.886498e+02
1.699945e+03,1.903077e+02
1.700909e+03,1.911673e+02
1.701874e+03,1.897253e+02
1.702838e+03,1.874770e+02
1.703802e+03,1.876456e+02
1.704766e+03,1.891004e+02
1.705731e+03,1.900901e+02
1.706695e+03,1.903912e+02
1.707659e+03,1.899491e+02
1.708623e+03,1.885359e+02
1.709588e+03,1.871221e+02
1.710552e+03,1.856018e+02
1.711516e+03,1.847289e+02
1.712480e+03,1.859410e+02
1.713444e+03,1.874975e+02
1.714409e+03,1.873305e+02
1.715373e+03,1.864003e+02
1.716337e+03,1.860053e+02
1.717301e+03,1.862473e+02
1.718266e+03,1.870072e+02
1.719230e+03,1.882139e+02
1.720194e+03,1.887826e+02
1.721158e+03,1.883471e+02
1.722123e+03,1.875939e+02
1.723087e+03,1.866094e+02
1.724051e+03,1.859691e+02
1.725015e+03,1.863526e+02
1.725979e+03,1.868807e+02
1.726944e+03,1.856868e+02
1.727908e+03,1.835049e+02
1.728872e+03,1.839280e+02
1.729836e+03,1.862159e+02
1.730801e+03,1.875412e+02
1.731765e+03,1.860281e+02
1.732729e+03,1.857252e+02
1.733693e+03,1.877047e+02
1.734658e+03,1.888666e+02
1.735622e+03,1.875142e+02
1.736586e+03,1.853798e+02
1.737550e+03,1.850503e+02
1.738515e+03,1.853892e+02
1.739479e+03,1.849567e+02
1.740443e+03,1.838509e+02
1.741407e+03,1.832642e+02
1.742371e+03,1.831879e+02
1.743336e+03,1.841564e+02
1.744300e+03,1.861434e+02
1.745264e+03,1.874892e+02
1.746228e+03,1.865823e+02
1.747193e+03,1.856085e+02
1.748157e+03,1.860703e+02
1.749121e+03,1.866111e+02
1.750085e+03,1.859890e+02
1.751050e+03,1.845021e+02
1.752014e+03,1.833904e+02
1.752978e+03,1.828472e+02
1.753942e+03,1.837616e+02
1.754906e+03,1.862555e+02
1.755871e+03,1.867640e+02
1.756835e+03,1.838712e+02
1.757799e+03,1.806891e+02
1.758763e+03,1.777696e+02
1.759728e+03,1.755701e+02
1.760692e+03,1.738964e+02
1.761656e+03,1.736717e+02
1.762620e+03,1.770211e+02
1.763585e+03,1.816356e+02
1.764549e+03,1.842490e+02
1.765513e+03,1.847677e+02
1.766477e+03,1.839908e+02
1.767442e+03,1.821079e+02
1.768406e+03,1.796982e+02
1.769370e+03,1.766795e+02
1.770334e+03,1.749419e+02
1.771298e+03,1.751518e+02
1.772263e+03,1.774503e+02
1.773227e+03,1.829865e+02
1.774191e+03,1.881581e+02
1.775155e+03,1.869191e+02
1.776120e+03,1.829337e+02
1.777084e+03,1.818012e+02
1.778048e+03,1.826779e+02
1.779012e+03,1.824165e+02
1.779977e+03,1.803426e+02
1.780941e+03,1.796082e+02
1.781905e+03,1.801093e+02
1.782869e+03,1.807886e+02
1.783833e+03,1.811609e+02
1.784798e+03,1.817889e+02
1.785762e+03,1.834688e+02
1.786726e+03,1.849716e+02
1.787690e+03,1.860260e+02
1.788655e+03,1.861821e+02
1.789619e+03,1.835174e+02
1.790583e+03,1.797148e+02
1.791547e+03,1.783652e+02
1.792512e+03,1.792485e+02
1.793476e+03,1.799149e+02
1.794440e+03,1.800230e+02
1.795404e+03,1.793883e+02
1.796369e+03,1.778891e+02
1.797333e+03,1.770607e+02
1.798297e+03,1.781143e+02
1.799261e+03,1.796180e+02
1.800225e+03,1.814786e+02
1.801190e+03,1.821908e+02
1.802154e+03,1.804775e+02
1.803118e+03,1.774798e+02
1.804082e+03,1.763521e+02
1.805047e+03,1.764551e+02
1.806011e+03,1.759439e+02
1.806975e+03,1.747804e+02
1.807939e+03,1.753205e+02
1.808904e+03,1.783408e+02
1.809868e+03,1.811726e+02
1.810832e+03,1.837181e+02
1.811796e+03,1.842178e+02
1.812760e+03,1.791735e+02
1.813725e+03,1.741999e+02
1.814689e+03,1.729549e+02
1.815653e+03,1.734649e+02
1.816617e+03,1.746213e+02
1.817582e+03,1.760181e+02
1.818546e+03,1.760172e+02
1.819510e+03,1.752764e+02
1.820474e+03,1.753929e+02
1.821439e+03,1.766478e+02
1.822403e+03,1.775745e+02
1.823367e+03,1.782824e+02
1.824331e+03,1.773880e+02
1.825296e+03,1.745403e+02
1.826260e+03,1.720061e+02
1.827224e+03,1.711544e+02
1.828188e+03,1.720001e+02
1.829152e+03,1.763096e+02
1.830117e+03,1.801602e+02
1.831081e+03,1.796936e+02
1.832045e+03,1.766787e+02
1.833009e+03,1.764367e+02
1.833974e+03,1.779468e+02
1.834938e+03,1.790469e+02
1.835902e+03,1.792162e+02
1.836866e+03,1.794721e+02
1.837831e+03,1.798775e+02
1.838795e+03,1.789095e+02
1.839759e+03,1.762466e+02
1.840723e+03,1.741348e+02
1.841688e+03,1.750409e+02
1.842652e+03,1.753158e+02
1.843616e+03,1.731850e+02
1.844580e+03,1.708450e+02
1.845544e+03,1.711008e+02
1.846509e+03,1.724804e+02
1.847473e+03,1.718425e+02
1.848437e+03,1.704863e+02
1.849401e+03,1.712969e+02
1.850366e+03,1.743504e+02
1.851330e+03,1.751189e+02
1.852294e+03,1.739258e+02
1.853258e+03,1.731019e+02
1.854223e+03,1.732458e+02
1.855187e+03,1.736140e+02
1.856151e+03,1.744852e+02
1.857115e+03,1.741081e+02
1.858079e+03,1.716542e+02
1.859044e+03,1.695418e+02
1.860008e+03,1.711868e+02
1.860972e+03,1.737852e+02
1.861936e+03,1.750578e+02
1.862901e+03,1.750028e+02
1.863865e+03,1.733124e+02
1.864829e+03,1.702901e+02
1.865793e+03,1.697231e+02
1.866758e+03,1.709003e+02
1.867722e+03,1.714153e+02
1.868686e+03,1.703493e+02
1.869650e+03,1.706438e+02
1.870615e+03,1.729799e+02
1.871579e+03,1.728797e+02
1.872543e+03,1.688678e+02
1.873507e+03,1.660197e+02
1.874471e+03,1.712943e+02
1.875436e+03,1.747915e+02
1.876400e+03,1.707707e+02
1.877364e+03,1.651898e+02
1.878328e+03,1.651855e+02
1.879293e+03,1.681455e+02
1.880257e+03,1.694222e+02
1.881221e+03,1.695032e+02
1.882185e+03,1.696839e+02
1.883150e+03,1.701281e+02
1.884114e+03,1.703212e+02
1.885078e+03,1.701127e+02
1.886042e+03,1.681387e+02
1.887006e+03,1.633856e+02
1.887971e+03,1.621005e+02
1.888935e+03,1.689279e+02
1.889899e+03,1.727453e+02
1.890863e+03,1.704682e+02
1.891828e+03,1.671988e+02
1.892792e+03,1.687225e+02
1.893756e+03,1.708150e+02
1.894720e+03,1.704729e+02
1.895685e+03,1.688791e+02
1.896649e+03,1.660160e+02
1.897613e+03,1.629858e+02
1.898577e+03,1.650252e+02
1.899542e+03,1.697271e+02
1.900506e+03,1.714773e+02
1.901470e+03,1.690650e+02
1.902434e+03,1.686217e+02
1.903398e+03,1.700008e+02
1.904363e+03,1.692689e+02
1.905327e+03,1.651676e+02
1.906291e+03,1.626075e+02
1.907255e+03,1.655214e+02
1.908220e+03,1.677893e+02
1.909184e+03,1.683206e+02
1.910148e+03,1.680045e+02
1.911112e+03,1.678599e+02
1.912077e+03,1.672836e+02
1.913041e+03,1.649457e+02
1.914005e+03,1.625670e+02
1.914969e+03,1.619226e+02
1.915933e+03,1.626755e+02
1.916898e+03,1.642276e+02
1.917862e+03,1.660089e+02
1.918826e+03,1.666938e+02
1.919790e+03,1.660723e+02
1.920755e+03,1.652240e+02
1.921719e+03,1.641025e+02
1.922683e+03,1.639872e+02
1.923647e+03,1.652229e+02
1.924612e+03,1.662898e+02
1.925576e+03,1.667034e+02
1.926540e+03,1.662632e+02
1.927504e+03,1.646134e+02
1.928469e+03,1.632496e+02
1.929433e+03,1.642948e+02
1.930397e+03,1.651424e+02
1.931361e+03,1.633012e+02
1.932325e+03,1.609129e+02
1.933290e+03,1.592093e+02
1.934254e+03,1.587829e+02
1.935218e+03,1.625996e+02
1.936182e+03,1.674923e+02
1.937147e+03,1.674664e+02
1.938111e+03,1.631141e+02
1.939075e+03,1.623799e+02
1.940039e+03,1.646308e+02
1.941004e+03,1.648723e+02
1.941968e+03,1.624274e+02
1.942932e+03,1.613912e+02
1.943896e+03,1.638406e+02
1.944860e+03,1.648662e+02
1.945825e+03,1.640206e+02
1.946789e+03,1.630397e+02
1.947753e+03,1.629306e+02
1.948717e+03,1.631260e+02
1.949682e+03,1.634939e+02
1.950646e+03,1.639019e+02
1.951610e+03,1.645108e+02
1.952574e+03,1.647337e+02
1.953539e+03,1.632066e+02
1.954503e+03,1.612338e+02
1.955467e+03,1.602937e+02
1.956431e+03,1.600239e+02
1.957396e+03,1.584575e+02
1.958360e+03,1.569295e+02
1.959324e+03,1.605407e+02
1.960288e+03,1.680913e+02
1.961252e+03,1.694880e+02
1.962217e+03,1.636664e+02
1.963181e+03,1.596081e+02
1.964145e+03,1.577178e+02
1.965109e+03,1.568211e+02
1.966074e+03,1.561170e+02
1.967038e+03,1.577174e+02
1.968002e+03,1.621782e+02
1.968966e+03,1.649936e+02
1.969931e+03,1.636054e+02
1.970895e+03,1.614161e+02
1.971859e+03,1.606095e+02
1.972823e+03,1.607124e+02
1.973787e+03,1.617651e+02
1.974752e+03,1.626246e+02
1.975716e+03,1.606893e+02
1.976680e+03,1.585461e+02
1.977644e+03,1.602224e+02
1.978609e+03,1.632497e+02
1.979573e+03,1.631975e+02
1.980537e+03,1.608360e+02
1.981501e+03,1.582409e+02
1.982466e+03,1.559407e+02
1.983430e+03,1.554207e+02
1.984394e+03,1.568921e+02
1.985358e+03,1.577541e+02
1.986323e+03,1.578860e+02
1.987287e+03,1.561449e+02
1.988251e+03,1.513347e+02
1.989215e+03,1.501624e+02
1.990179e+03,1.540143e+02
1.991144e+03,1.574240e+02
1.992108e+03,1.592308e+02
1.993072e+03,1.597572e+02
1.994036e+03,1.585571e+02
1.995001e+03,1.565962e+02
1.995965e+03,1.536672e+02
1.996929e+03,1.519177e+02
1.997893e+03,1.542377e+02
1.998858e+03,1.575901e+02
1.999822e+03,1.602117e+02
2.000786e+03,1.614362e+02
2.001750e+03,1.601116e+02
2.002714e+03,1.579216e+02
2.003679e+03,1.589415e+02
2.004643e+03,1.612646e+02
2.005607e+03,1.619788e+02
2.006571e+03,1.614095e+02
2.007536e+03,1.608161e+02
2.008500e+03,1.602984e+02
2.009464e+03,1.606929e+02
2.010428e+03,1.617553e+02
2.011393e+03,1.591336e+02
2.012357e+03,1.520213e+02
2.013321e+03,1.534736e+02
2.014285e+03,1.632258e+02
2.015250e+03,1.685810e+02
2.016214e+03,1.580738e+02
2.017178e+03,1.530361e+02
2.018142e+03,1.548673e+02
2.019106e+03,1.567723e+02
2.020071e+03,1.546422e+02
2.021035e+03,1.534135e+02
2.021999e+03,1.568551e+02
2.022963e+03,1.586253e+02
2.023928e+03,1.557785e+02
2.024892e+03,1.525015e+02
2.025856e+03,1.537762e+02
2.026820e+03,1.562179e+02
2.027785e+03,1.581861e+02
2.028749e+03,1.589472e+02
2.029713e+03,1.564715e+02
2.030677e+03,1.531059e+02
2.031641e+03,1.515652e+02
2.032606e+03,1.517722e+02
2.033570e+03,1.540439e+02
2.034534e+03,1.573368e+02
2.035498e+03,1.566590e+02
2.036463e+03,1.535683e+02
2.037427e+03,1.515851e+02
2.038391e+03,1.510505e+02
2.039355e+03,1.502226e+02
2.040320e+03,1.493863e+02
2.041284e+03,1.500329e+02
2.042248e+03,1.525043e+02
2.043212e+03,1.526402e+02
2.044177e+03,1.499153e+02
2.045141e+03,1.516609e+02
2.046105e+03,1.587444e+02
2.047069e+03,1.625916e+02
2.048033e+03,1.554302e+02
2.048998e+03,1.515589e+02
2.049962e+03,1.523345e+02
2.050926e+03,1.535448e+02
2.051890e+03,1.516546e+02
2.052854e+03,1.509282e+02
2.053819e+03,1.529165e+02
2.054783e+03,1.550311e+02
2.055747e+03,1.563781e+02
2.056711e+03,1.567072e+02
2.057676e+03,1.548554e+02
2.058640e+03,1.529009e+02
2.059604e+03,1.516861e+02
2.060568e+03,1.511962e+02
2.061533e+03,1.524783e+02
2.062497e+03,1.536144e+02
2.063461e+03,1.517261e+02
2.064425e+03,1.493115e+02
2.065390e+03,1.505596e+02
2.066354e+03,1.533096e+02
2.067318e+03,1.536304e+02
2.068282e+03,1.522712e+02
2.069247e+03,1.509157e+02
2.070211e+03,1.496777e+02
2.071175e+03,1.498307e+02
2.072139e+03,1.507155e+02
2.073104e+03,1.505221e+02
2.074068e+03,1.491619e+02
2.075032e+03,1.485858e+02
2.075996e+03,1.486984e+02
2.076960e+03,1.496426e+02
2.077925e+03,1.513926e+02
2.078889e+03,1.519174e+02
2.079853e+03,1.511135e+02
2.080817e+03,1.496663e+02
2.081782e+03,1.477570e+02
2.082746e+03,1.469470e+02
2.083710e+03,1.489526e+02
2.084674e+03,1.488210e+02
2.085639e+03,1.463795e+02
2.086603e+03,1.447644e+02
2.087567e+03,1.456467e+02
2.088531e+03,1.476518e+02
2.089496e+03,1.510822e+02
2.090460e+03,1.515435e+02
2.091424e+03,1.460784e+02
2.092388e+03,1.414631e+02
2.093353e+03,1.427357e+02
2.094317e+03,1.440002e+02
2.095281e+03,1.432392e+02
2.096245e+03,1.426514e+02
2.097209e+03,1.454742e+02
2.098174e+03,1.478282e+02
2.099138e+03,1.483150e+02
2.100102e+03,1.472655e+02
2.101066e+03,1.430298e+02
2.102031e+03,1.395699e+02
2.102995e+03,1.419113e+02
2.103959e+03,1.454342e+02
2.104923e+03,1.465940e+02
2.105887e+03,1.465924e+02
2.106852e+03,1.468257e+02
2.107816e+03,1.470184e+02
2.108780e+03,1.471452e+02
2.109744e+03,1.469996e+02
2.110708e+03,1.450781e+02
2.111673e+03,1.434450e+02
2.112637e+03,1.464791e+02
2.113601e+03,1.514534e+02
2.114565e+03,1.522795e+02
2.115530e+03,1.500904e+02
2.116494e+03,1.456049e+02
2.117458e+03,1.409875e+02
2.118422e+03,1.425985e+02
2.119387e+03,1.486869e+02
2.120351e+03,1.493600e+02
2.121315e+03,1.458806e+02
2.122279e+03,1.439428e+02
2.123244e+03,1.439978e+02
2.124208e+03,1.438071e+02
2.125172e+03,1.432948e+02
2.126136e+03,1.416270e+02
2.127101e+03,1.384111e+02
2.128065e+03,1.378031e+02
2.129029e+03,1.394953e+02
2.129993e+03,1.414401e+02
2.130958e+03,1.431321e+02
2.131922e+03,1.456638e+02
2.132886e+03,1.493857e+02
2.133850e+03,1.492996e+02
2.134814e+03,1.453161e+02
2.135779e+03,1.429041e+02
2.136743e+03,1.444157e+02
2.137707e+03,1.452563e+02
2.138671e+03,1.452952e+02
2.139636e+03,1.453940e+02
2.140600e+03,1.460871e+02
2.141564e+03,1.466776e+02
2.142528e+03,1.471890e+02
2.143493e+03,1.469800e+02
2.144457e+03,1.456866e+02
2.145421e+03,1.434761e+02
2.146385e+03,1.399303e+02
2.147350e+03,1.380511e+02
2.148314e+03,1.388676e+02
2.149278e+03,1.403310e+02
2.150242e+03,1.409133e+02
2.151207e+03,1.422868e+02
2.152171e+03,1.448594e+02
2.153135e+03,1.465780e+02
2.154099e+03,1.456995e+02
2.155063e+03,1.440796e+02
2.156028e+03,1.419893e+02
2.156992e+03,1.407990e+02
2.157956e+03,1.424693e+02
2.158920e+03,1.431307e+02
2.159885e+03,1.404052e+02
2.160849e+03,1.377778e+02
2.161813e+03,1.363759e+02
2.162777e+03,1.370040e+02
2.163741e+03,1.436008e+02
2.164706e+03,1.474707e+02
2.165670e+03,1.449371e+02
2.166634e+03,1.409408e+02
2.167598e+03,1.406936e+02
2.168563e+03,1.402604e+02
2.169527e+03,1.372832e+02
2.170491e+03,1.347243e+02
2.171455e+03,1.375405e+02
2.172420e+03,1.398313e+02
2.173384e+03,1.361869e+02
2.174348e+03,1.334510e+02
2.175312e+03,1.392164e+02
2.176277e+03,1.459941e+02
2.177241e+03,1.463628e+02
2.178205e+03,1.439366e+02
2.179169e+03,1.398380e+02
2.180134e+03,1.366746e+02
2.181098e+03,1.396161e+02
2.182062e+03,1.428629e+02
2.183026e+03,1.420340e+02
2.183990e+03,1.399913e+02
2.184955e+03,1.417724e+02
2.185919e+03,1.433770e+02
2.186883e+03,1.409419e+02
2.187847e+03,1.375751e+02
2.188812e+03,1.376674e+02
2.189776e+03,1.385942e+02
2.190740e+03,1.365647e+02
2.191704e+03,1.346548e+02
2.192668e+03,1.367715e+02
2.193633e+03,1.400031e+02
2.194597e+03,1.398326e+02
2.195561e+03,1.388056e+02
2.196525e+03,1.391223e+02
2.197490e+03,1.401536e+02
2.198454e+03,1.419546e+02
2.199418e+03,1.424112e+02
2.200382e+03,1.390790e+02
2.201347e+03,1.350215e+02
2.202311e+03,1.356873e+02
2.203275e+03,1.381678e+02
2.204239e+03,1.398288e+02
2.205204e+03,1.405551e+02
2.206168e+03,1.402169e+02
2.207132e+03,1.393483e+02
2.208096e+03,1.377739e+02
2.209061e+03,1.366509e+02
2.210025e+03,1.380323e+02
2.210989e+03,1.401571e+02
2.211953e+03,1.403972e+02
2.212917e+03,1.398571e+02
2.213882e+03,1.391726e+02
2.214846e+03,1.383714e+02
2.215810e+03,1.374230e+02
2.216774e+03,1.368561e+02
2.217739e+03,1.376486e+02
2.218703e+03,1.387375e+02
2.219667e+03,1.377219e+02
2.220631e+03,1.364373e+02
2.221595e+03,1.370348e+02
2.222560e+03,1.377375e+02
2.223524e+03,1.347772e+02
2.224488e+03,1.317023e+02
2.225452e+03,1.346313e+02
2.226417e+03,1.378588e+02
2.227381e+03,1.339623e+02
2.228345e+03,1.286506e+02
2.229309e+03,1.294742e+02
2.230274e+03,1.329544e+02
2.231238e+03,1.375755e+02
2.232202e+03,1.405555e+02
2.233166e+03,1.345899e+02
2.234131e+03,1.290481e+02
2.235095e+03,1.315692e+02
2.236059e+03,1.368448e+02
2.237023e+03,1.372126e+02
2.237988e+03,1.360097e+02
2.238952e+03,1.356170e+02
2.239916e+03,1.353903e+02
2.240880e+03,1.342160e+02
2.241844e+03,1.335065e+02
2.242809e+03,1.347694e+02
2.243773e+03,1.358530e+02
2.244737e+03,1.334361e+02
2.245701e+03,1.311321e+02
2.246666e+03,1.324368e+02
2.247630e+03,1.343937e+02
2.248594e+03,1.358128e+02
2.249558e+03,1.361989e+02
2.250522e+03,1.342505e+02
2.251487e+03,1.317144e+02
2.252451e+03,1.287109e+02
2.253415e+03,1.267962e+02
2.254379e+03,1.285496e+02
2.255344e+03,1.314084e+02
2.256308e+03,1.349439e+02
2.257272e+03,1.367359e+02
2.258236e+03,1.318912e+02
2.259201e+03,1.286051e+02
2.260165e+03,1.297412e+02
2.261129e+03,1.317013e+02
2.262093e+03,1.313484e+02
2.263058e+03,1.310609e+02
2.264022e+03,1.316717e+02
2.264986e+03,1.324609e+02
2.265950e+03,1.331159e+02
2.266915e+03,1.330991e+02
2.267879e+03,1.319243e+02
2.268843e+03,1.314997e+02
2.269807e+03,1.335136e+02
2.270771e+03,1.337686e+02
2.271736e+03,1.296574e+02
2.272700e+03,1.285203e+02
2.273664e+03,1.327835e+02
2.274628e+03,1.354733e+02
2.275593e+03,1.323714e+02
2.276557e+03,1.306758e+02
2.277521e+03,1.315429e+02
2.278485e+03,1.335154e+02
2.279449e+03,1.368584e+02
2.280414e+03,1.387751e+02
2.281378e+03,1.390796e+02
2.282342e+03,1.383170e+02
2.283306e+03,1.360056e+02
2.284271e+03,1.333828e+02
2.285235e+03,1.305386e+02
2.286199e+03,1.290270e+02
2.287163e+03,1.300928e+02
2.288128e+03,1.304831e+02
2.289092e+03,1.300852e+02
2.290056e+03,1.292460e+02
2.291020e+03,1.280913e+02
2.291985e+03,1.296663e+02
2.292949e+03,1.334128e+02
2.293913e+03,1.322922e+02
2.294877e+03,1.264700e+02
2.295842e+03,1.268314e+02
2.296806e+03,1.325052e+02
2.297770e+03,1.346498e+02
2.298734e+03,1.331393e+02
2.299698e+03,1.299241e+02
2.300663e+03,1.258142e+02
2.301627e+03,1.255703e+02
2.302591e+03,1.274814e+02
2.303555e+03,1.272188e+02
2.304520e+03,1.253686e+02
2.305484e+03,1.250261e+02
2.306448e+03,1.258000e+02
2.307412e+03,1.272883e+02
2.308376e+03,1.288055e+02
2.309341e+03,1.284350e+02
2.310305e+03,1.275404e+02
2.311269e+03,1.287033e+02
2.312233e+03,1.299118e+02
2.313198e+03,1.256932e+02
2.314162e+03,1.214582e+02
2.315126e+03,1.243909e+02
2.316090e+03,1.290445e+02
2.317055e+03,1.300040e+02
2.318019e+03,1.294700e+02
2.318983e+03,1.289063e+02
2.319947e+03,1.283936e+02
2.320912e+03,1.280355e+02
2.321876e+03,1.279388e+02
2.322840e+03,1.287004e+02
2.323804e+03,1.284030e+02
2.324769e+03,1.253151e+02
2.325733e+03,1.235362e+02
2.326697e+03,1.275831e+02
2.327661e+03,1.295240e+02
2.328625e+03,1.264268e+02
2.329590e+03,1.246836e+02
2.330554e+03,1.303215e+02
2.331518e+03,1.326980e+02
2.332482e+03,1.301199e+02
2.333447e+03,1.267173e+02
2.334411e+03,1.234135e+02
2.335375e+03,1.230616e+02
2.336339e+03,1.256176e+02
2.337303e+03,1.267539e+02
2.338268e+03,1.240173e+02
2.339232e+03,1.215605e+02
2.340196e+03,1.196436e+02
2.341160e+03,1.198374e+02
2.342125e+03,1.227929e+02
2.343089e+03,1.250379e+02
2.344053e+03,1.265256e+02
2.345017e+03,1.281908e+02
2.345982e+03,1.297311e+02
2.346946e+03,1.266258e+02
2.347910e+03,1.212866e+02
2.348874e+03,1.201063e+02
2.349839e+03,1.221563e+02
2.350803e+03,1.237029e+02
2.351767e+03,1.250088e+02
2.352731e+03,1.270915e+02
2.353696e+03,1.287503e+02
2.354660e+03,1.270240e+02
2.355624e+03,1.243963e+02
2.356588e+03,1.251775e+02
2.357552e+03,1.271868e+02
2.358517e+03,1.293469e+02
2.359481e+03,1.302719e+02
2.360445e+03,1.267203e+02
2.361409e+03,1.231375e+02
2.362374e+03,1.216315e+02
2.363338e+03,1.214569e+02
2.364302e+03,1.238728e+02
2.365266e+03,1.244106e+02
2.366230e+03,1.212589e+02
2.367195e+03,1.185774e+02
2.368159e+03,1.191441e+02
2.369123e+03,1.210171e+02
2.370087e+03,1.241423e+02
2.371052e+03,1.265602e+02
2.372016e+03,1.274361e+02
2.372980e+03,1.270905e+02
2.373944e+03,1.255793e+02
2.374909e+03,1.239283e+02
2.375873e+03,1.222288e+02
2.376837e+03,1.220969e+02
2.377801e+03,1.230299e+02
2.378766e+03,1.224020e+02
2.379730e+03,1.200069e+02
2.380694e+03,1.183590e+02
2.381658e+03,1.174568e+02
2.382623e+03,1.171420e+02
2.383587e+03,1.173640e+02
2.384551e+03,1.185367e+02
2.385515e+03,1.201193e+02
2.386479e+03,1.216417e+02
2.387444e+03,1.227407e+02
2.388408e+03,1.220626e+02
2.389372e+03,1.216892e+02
2.390336e+03,1.251120e+02
2.391301e+03,1.272578e+02
2.392265e+03,1.199186e+02
2.393229e+03,1.142290e+02
2.394193e+03,1.180601e+02
2.395157e+03,1.217949e+02
2.396122e+03,1.189541e+02
2.397086e+03,1.159791e+02
2.398050e+03,1.148359e+02
2.399014e+03,1.151607e+02
2.399979e+03,1.169692e+02
2.400943e+03,1.202892e+02
2.401907e+03,1.251609e+02
2.402871e+03,1.262940e+02
2.403836e+03,1.224796e+02
2.404800e+03,1.202028e+02
2.405764e+03,1.199635e+02
2.406728e+03,1.213763e+02
2.407693e+03,1.236266e+02
2.408657e+03,1.228400e+02
2.409621e+03,1.197618e+02
2.410585e+03,1.177569e+02
2.411550e+03,1.166728e+02
2.412514e+03,1.150780e+02
2.413478e+03,1.137517e+02
2.414442e+03,1.155401e+02
2.415406e+03,1.182888e+02
2.416371e+03,1.196679e+02
2.417335e+03,1.202503e+02
2.418299e+03,1.198877e+02
2.419263e+03,1.206702e+02
2.420228e+03,1.243011e+02
2.421192e+03,1.272209e+02
2.422156e+03,1.254165e+02
2.423120e+03,1.231231e+02
2.424084e+03,1.211385e+02
2.425049e+03,1.189048e+02
2.426013e+03,1.154153e+02
2.426977e+03,1.150062e+02
2.427941e+03,1.180175e+02
2.428906e+03,1.197088e+02
2.429870e+03,1.186902e+02
2.430834e+03,1.163900e+02
2.431798e+03,1.134112e+02
2.432763e+03,1.124020e+02
2.433727e+03,1.133165e+02
2.434691e+03,1.167134e+02
2.435655e+03,1.207846e+02
2.436620e+03,1.218100e+02
2.437584e+03,1.206439e+02
2.438548e+03,1.182726e+02
2.439512e+03,1.165982e+02
2.440477e+03,1.177501e+02
2.441441e+03,1.193768e+02
2.442405e+03,1.175882e+02
2.443369e+03,1.168201e+02
2.444333e+03,1.195817e+02
2.445298e+03,1.215207e+02
2.446262e+03,1.170298e+02
2.447226e+03,1.143168e+02
2.448190e+03,1.148806e+02
2.449155e+03,1.161998e+02
2.450119e+03,1.171197e+02
2.451083e+03,1.191476e+02
2.452047e+03,1.218984e+02
2.453011e+03,1.219343e+02
2.453976e+03,1.183988e+02
2.454940e+03,1.140573e+02
2.455904e+03,1.100061e+02
2.456868e+03,1.100215e+02
2.457833e+03,1.128915e+02
2.458797e+03,1.161183e+02
2.459761e+03,1.185251e+02
2.460725e+03,1.180385e+02
2.461690e+03,1.163368e+02
2.462654e+03,1.156288e+02
2.463618e+03,1.148118e+02
2.464582e+03,1.129965e+02
2.465547e+03,1.119176e+02
2.466511e+03,1.141119e+02
2.467475e+03,1.152272e+02
2.468439e+03,1.142599e+02
2.469404e+03,1.130323e+02
2.470368e+03,1.127131e+02
2.471332e+03,1.116648e+02
2.472296e+03,1.101123e+02
2.473260e+03,1.124151e+02
2.474225e+03,1.200907e+02
2.475189e+03,1.206614e+02
2.476153e+03,1.168410e+02
2.477117e+03,1.166842e+02
2.478082e+03,1.195030e+02
2.479046e+03,1.228597e+02
2.480010e+03,1.251108e+02
2.480974e+03,1.236238e+02
2.481938e+03,1.207544e+02
2.482903e+03,1.187848e+02
2.483867e+03,1.176225e+02
2.484831e+03,1.170252e+02
2.485795e+03,1.170788e+02
2.486760e+03,1.184703e+02
2.487724e+03,1.200381e+02
2.488688e+03,1.216818e+02
2.489652e+03,1.210255e+02
2.490617e+03,1.141769e+02
2.491581e+03,1.130791e+02
2.492545e+03,1.167093e+02
2.493509e+03,1.180935e+02
2.494474e+03,1.163198e+02
2.495438e+03,1.162878e+02
2.496402e+03,1.170193e+02
2.497366e+03,1.162903e+02
2.498331e+03,1.146889e+02
2.499295e+03,1.121485e+02
2.500259e+03,1.112039e+02
2.501223e+03,1.146664e+02
2.502188e+03,1.183904e+02
2.503152e+03,1.169108e+02
2.504116e+03,1.167980e+02
2.505080e+03,1.202725e+02
2.506044e+03,1.222246e+02
2.507009e+03,1.170982e+02
2.507973e+03,1.149565e+02
2.508937e+03,1.160008e+02
2.509901e+03,1.166351e+02
2.510865e+03,1.158379e+02
2.511830e+03,1.178457e+02
2.512794e+03,1.210847e+02
2.513758e+03,1.210725e+02
2.514722e+03,1.188225e+02
2.515687e+03,1.149120e+02
2.516651e+03,1.132666e+02
2.517615e+03,1.186393e+02
2.518579e+03,1.250373e+02
2.519544e+03,1.244906e+02
2.520508e+03,1.231297e+02
2.521472e+03,1.234423e+02
2.522436e+03,1.232165e+02
2.523401e+03,1.201535e+02
2.524365e+03,1.179296e+02
2.525329e+03,1.166367e+02
2.526293e+03,1.155057e+02
2.527258e+03,1.145185e+02
2.528222e+03,1.117165e+02
2.529186e+03,1.083075e+02
2.530150e+03,1.082069e+02
2.531115e+03,1.104577e+02
2.532079e+03,1.122972e+02
2.533043e+03,1.133645e+02
2.534007e+03,1.133547e+02
2.534971e+03,1.127633e+02
2.535936e+03,1.119920e+02
2.536900e+03,1.116065e+02
2.537864e+03,1.117707e+02
2.538828e+03,1.124077e+02
2.539792e+03,1.131388e+02
2.540757e+03,1.154542e+02
2.541721e+03,1.193873e+02
2.542685e+03,1.215788e+02
2.543649e+03,1.219482e+02
2.544614e+03,1.213962e+02
2.545578e+03,1.206063e+02
2.546542e+03,1.219788e+02
2.547506e+03,1.241456e+02
2.548471e+03,1.235779e+02
2.549435e+03,1.215362e+02
2.550399e+03,1.181599e+02
2.551363e+03,1.163861e+02
2.552328e+03,1.194802e+02
2.553292e+03,1.234945e+02
2.554256e+03,1.280780e+02
2.555220e+03,1.279586e+02
2.556185e+03,1.225667e+02
2.557149e+03,1.189715e+02
2.558113e+03,1.185549e+02
2.559077e+03,1.196712e+02
2.560042e+03,1.216252e+02
2.561006e+03,1.230551e+02
2.561970e+03,1.238001e+02
2.562934e+03,1.234301e+02
2.563898e+03,1.220851e+02
2.564863e+03,1.190477e+02
2.565827e+03,1.167458e+02
2.566791e+03,1.179876e+02
2.567755e+03,1.195017e+02
2.568719e+03,1.203035e+02
2.569684e+03,1.201226e+02
2.570648e+03,1.180836e+02
2.571612e+03,1.196562e+02
2.572576e+03,1.239677e+02
2.573541e+03,1.241764e+02
2.574505e+03,1.205858e+02
2.575469e+03,1.199643e+02
2.576433e+03,1.208534e+02
2.577398e+03,1.215690e+02
2.578362e+03,1.215537e+02
2.579326e+03,1.193185e+02
2.580290e+03,1.174781e+02
2.581255e+03,1.171818e+02
2.582219e+03,1.165456e+02
2.583183e+03,1.130502e+02
2.584147e+03,1.123740e+02
2.585112e+03,1.146749e+02
2.586076e+03,1.158938e+02
2.587040e+03,1.153377e+02
2.588004e+03,1.182715e+02
2.588969e+03,1.215612e+02
2.589933e+03,1.180036e+02
2.590897e+03,1.118640e+02
2.591861e+03,1.124115e+02
2.592825e+03,1.141987e+02
2.593790e+03,1.135160e+02
2.594754e+03,1.130630e+02
2.595718e+03,1.153531e+02
2.596682e+03,1.153242e+02
2.597646e+03,1.116936e+02
2.598611e+03,1.124931e+02
2.599575e+03,1.179110e+02
2.600539e+03,1.203428e+02
2.601503e+03,1.195769e+02
2.602468e+03,1.200229e+02
2.603432e+03,1.197769e+02
2.604396e+03,1.122373e+02
2.605360e+03,1.055462e+02
2.606325e+03,1.092314e+02
2.607289e+03,1.125229e+02
2.608253e+03,1.104123e+02
2.609217e+03,1.089157e+02
2.610182e+03,1.109016e+02
2.611146e+03,1.124915e+02
2.612110e+03,1.135147e+02
2.613074e+03,1.145038e+02
2.614039e+03,1.156649e+02
2.615003e+03,1.183289e+02
2.615967e+03,1.200594e+02
2.616931e+03,1.167926e+02
2.617896e+03,1.123439e+02
2.618860e+03,1.111369e+02
2.619824e+03,1.113623e+02
2.620788e+03,1.122904e+02
2.621752e+03,1.123991e+02
2.622717e+03,1.097469e+02
2.623681e+03,1.110383e+02
2.624645e+03,1.158866e+02
2.625609e+03,1.190813e+02
2.626573e+03,1.202149e+02
2.627538e+03,1.191646e+02
2.628502e+03,1.161432e+02
2.629466e+03,1.106612e+02
2.630430e+03,1.060058e+02
2.631395e+03,1.080464e+02
2.632359e+03,1.104263e+02
2.633323e+03,1.111059e+02
2.634287e+03,1.112345e+02
2.635252e+03,1.112316e+02
2.636216e+03,1.108332e+02
2.637180e+03,1.101323e+02
2.638144e+03,1.117992e+02
2.639109e+03,1.146011e+02
2.640073e+03,1.151764e+02
2.641037e+03,1.147258e+02
2.642001e+03,1.148905e+02
2.642966e+03,1.140155e+02
2.643930e+03,1.107649e+02
2.644894e+03,1.091541e+02
2.645858e+03,1.150358e+02
2.646823e+03,1.144805e+02
2.647787e+03,1.078174e+02
2.648751e+03,1.068913e+02
2.649715e+03,1.123918e+02
2.650679e+03,1.128089e+02
2.651644e+03,1.114249e+02
2.652608e+03,1.137269e+02
2.653572e+03,1.168946e+02
2.654536e+03,1.168645e+02
2.655500e+03,1.156464e+02
2.656465e+03,1.137797e+02
2.657429e+03,1.128416e+02
2.658393e+03,1.134992e+02
2.659357e+03,1.097928e+02
2.660322e+03,1.025083e+02
2.661286e+03,1.015922e+02
2.662250e+03,1.056886e+02
2.663214e+03,1.132351e+02
2.664179e+03,1.195918e+02
2.665143e+03,1.184176e+02
2.666107e+03,1.153373e+02
2.667071e+03,1.132363e+02
2.668036e+03,1.119020e+02
2.669000e+03,1.103143e+02
2.669964e+03,1.145197e+02
2.670928e+03,1.228088e+02
2.671893e+03,1.233118e+02
2.672857e+03,1.175479e+02
2.673821e+03,1.162555e+02
2.674785e+03,1.164652e+02
2.675750e+03,1.150167e+02
2.676714e+03,1.126585e+02
2.677678e+03,1.084853e+02
2.678642e+03,1.074836e+02
2.679606e+03,1.109791e+02
2.680571e+03,1.127309e+02
2.681535e+03,1.116837e+02
2.682499e+03,1.094883e+02
2.683463e+03,1.071346e+02
2.684427e+03,1.074485e+02
2.685392e+03,1.092927e+02
2.686356e+03,1.114777e+02
2.687320e+03,1.127254e+02
2.688284e+03,1.106687e+02
2.689249e+03,1.112250e+02
2.690213e+03,1.154071e+02
2.691177e+03,1.172639e+02
2.692141e+03,1.147642e+02
2.693106e+03,1.103268e+02
2.694070e+03,1.059311e+02
2.695034e+03,1.069720e+02
2.695998e+03,1.104972e+02
2.696963e+03,1.119753e+02
2.697927e+03,1.133974e+02
2.698891e+03,1.157084e+02
2.699855e+03,1.178346e+02
2.700820e+03,1.197687e+02
2.701784e+03,1.177984e+02
2.702748e+03,1.125649e+02
2.703712e+03,1.128638e+02
2.704677e+03,1.164286e+02
2.705641e+03,1.152245e+02
2.706605e+03,1.117318e+02
2.707569e+03,1.060422e+02
2.708533e+03,1.047850e+02
2.709498e+03,1.113534e+02
2.710462e+03,1.151220e+02
2.711426e+03,1.094911e+02
2.712390e+03,1.115213e+02
2.713354e+03,1.186840e+02
2.714319e+03,1.175500e+02
2.715283e+03,1.121008e+02
2.716247e+03,1.129166e+02
2.717211e+03,1.156438e+02
2.718176e+03,1.170684e+02
2.719140e+03,1.178934e+02
2.720104e+03,1.181193e+02
2.721068e+03,1.205191e+02
2.722033e+03,1.247156e+02
2.722997e+03,1.206854e+02
2.723961e+03,1.111174e+02
2.724925e+03,1.079619e+02
2.725890e+03,1.087859e+02
2.726854e+03,1.097204e+02
2.727818e+03,1.123413e+02
2.728782e+03,1.180370e+02
2.729747e+03,1.198605e+02
2.730711e+03,1.111540e+02
2.731675e+03,1.073523e+02
2.732639e+03,1.081293e+02
2.733604e+03,1.115976e+02
2.734568e+03,1.157136e+02
2.735532e+03,1.165380e+02
2.736496e+03,1.151848e+02
2.737460e+03,1.124352e+02
2.738425e+03,1.106540e+02
2.739389e+03,1.116469e+02
2.740353e+03,1.115865e+02
2.741317e+03,1.099730e+02
2.742281e+03,1.079059e+02
2.743246e+03,1.061550e+02
2.744210e+03,1.075207e+02
2.745174e+03,1.095489e+02
2.746138e+03,1.092684e+02
2.747103e+03,1.087651e+02
2.748067e+03,1.090780e+02
2.749031e+03,1.086771e+02
2.749995e+03,1.060624e+02
2.750960e+03,1.047625e+02
2.751924e+03,1.051776e+02
2.752888e+03,1.091808e+02
2.753852e+03,1.140873e+02
2.754817e+03,1.130710e+02
2.755781e+03,1.124362e+02
2.756745e+03,1.164913e+02
2.757709e+03,1.173643e+02
2.758674e+03,1.125238e+02
2.759638e+03,1.129720e+02
2.760602e+03,1.194577e+02
2.761566e+03,1.155923e+02
2.762531e+03,1.084072e+02
2.763495e+03,1.105175e+02
2.764459e+03,1.152332e+02
2.765423e+03,1.178884e+02
2.766387e+03,1.165819e+02
2.767352e+03,1.113577e+02
2.768316e+03,1.091708e+02
2.769280e+03,1.113161e+02
2.770244e+03,1.193839e+02
2.771208e+03,1.274894e+02
2.772173e+03,1.240280e+02
2.773137e+03,1.164509e+02
2.774101e+03,1.118978e+02
2.775065e+03,1.107959e+02
2.776030e+03,1.149435e+02
2.776994e+03,1.142004e+02
2.777958e+03,1.091164e+02
2.778922e+03,1.078981e+02
2.779887e+03,1.100802e+02
2.780851e+03,1.143952e+02
2.781815e+03,1.168948e+02
2.782779e+03,1.153466e+02
2.783744e+03,1.122971e+02
2.784708e+03,1.079194e+02
2.785672e+03,1.092193e+02
2.786636e+03,1.152918e+02
2.787601e+03,1.135290e+02
2.788565e+03,1.083575e+02
2.789529e+03,1.157065e+02
2.790493e+03,1.231640e+02
2.791458e+03,1.182750e+02
2.792422e+03,1.121131e+02
2.793386e+03,1.077178e+02
2.794350e+03,1.062222e+02
2.795314e+03,1.077822e+02
2.796279e+03,1.080619e+02
2.797243e+03,1.075879e+02
2.798207e+03,1.074390e+02
2.799171e+03,1.075748e+02
2.800135e+03,1.072008e+02
2.801100e+03,1.090603e+02
2.802064e+03,1.142116e+02
2.803028e+03,1.155766e+02
2.803992e+03,1.132127e+02
2.804957e+03,1.084726e+02
2.805921e+03,1.042999e+02
2.806885e+03,1.054357e+02
2.807849e+03,1.097137e+02
2.808814e+03,1.156631e+02
2.809778e+03,1.208049e+02
2.810742e+03,1.242765e+02
2.811706e+03,1.251320e+02
2.812671e+03,1.233210e+02
2.813635e+03,1.189196e+02
2.814599e+03,1.144144e+02
2.815563e+03,1.154254e+02
2.816528e+03,1.170880e+02
2.817492e+03,1.180643e+02
2.818456e+03,1.144048e+02
2.819420e+03,1.070832e+02
2.820385e+03,1.083522e+02
2.821349e+03,1.156036e+02
2.822313e+03,1.141209e+02
2.823277e+03,1.102084e+02
2.824241e+03,1.085189e+02
2.825206e+03,1.108886e+02
2.826170e+03,1.199226e+02
2.827134e+03,1.255869e+02
2.828098e+03,1.265328e+02
2.829063e+03,1.250211e+02
2.830027e+03,1.222670e+02
2.830991e+03,1.196075e+02
2.831955e+03,1.185720e+02
2.832919e+03,1.222212e+02
2.833884e+03,1.232143e+02
2.834848e+03,1.207194e+02
2.835812e+03,1.178062e+02
2.836776e+03,1.156674e+02
2.837741e+03,1.211706e+02
2.838705e+03,1.275763e+02
2.839669e+03,1.273650e+02
2.840633e+03,1.256836e+02
2.841598e+03,1.253676e+02
2.842562e+03,1.249592e+02
2.843526e+03,1.242722e+02
2.844490e+03,1.227654e+02
2.845455e+03,1.233552e+02
2.846419e+03,1.342518e+02
2.847383e+03,1.423776e+02
2.848347e+03,1.252224e+02
2.849312e+03,1.190707e+02
2.850276e+03,1.297847e+02
2.851240e+03,1.345713e+02
2.852204e+03,1.324168e+02
2.853168e+03,1.301861e+02
2.854133e+03,1.298905e+02
2.855097e+03,1.369960e+02
2.856061e+03,1.395533e+02
2.857025e+03,1.341676e+02
2.857990e+03,1.297413e+02
2.858954e+03,1.289232e+02
2.859918e+03,1.328852e+02
2.860882e+03,1.389426e+02
2.861846e+03,1.437695e+02
2.862811e+03,1.440727e+02
2.863775e+03,1.335003e+02
2.864739e+03,1.301956e+02
2.865703e+03,1.395774e+02
2.866668e+03,1.481853e+02
2.867632e+03,1.544118e+02
2.868596e+03,1.553903e+02
2.869560e+03,1.539151e+02
2.870525e+03,1.517347e+02
2.871489e+03,1.506753e+02
2.872453e+03,1.510586e+02
2.873417e+03,1.512404e+02
2.874382e+03,1.509228e+02
2.875346e+03,1.506135e+02
2.876310e+03,1.501236e+02
2.877274e+03,1.483741e+02
2.878239e+03,1.470565e+02
2.879203e+03,1.466066e+02
2.880167e+03,1.476080e+02
2.881131e+03,1.505876e+02
2.882095e+03,1.447540e+02
2.883060e+03,1.398909e+02
2.884024e+03,1.522825e+02
2.884988e+03,1.662678e+02
2.885952e+03,1.679337e+02
2.886917e+03,1.659665e+02
2.887881e+03,1.618806e+02
2.888845e+03,1.558095e+02
2.889809e+03,1.505663e+02
2.890773e+03,1.531014e+02
2.891738e+03,1.573951e+02
2.892702e+03,1.570824e+02
2.893666e+03,1.576993e+02
2.894630e+03,1.602943e+02
2.895595e+03,1.649230e+02
2.896559e+03,1.701349e+02
2.897523e+03,1.693959e+02
2.898487e+03,1.682981e+02
2.899452e+03,1.756227e+02
2.900416e+03,1.773828e+02
2.901380e+03,1.711706e+02
2.902344e+03,1.706244e+02
2.903309e+03,1.764379e+02
2.904273e+03,1.717160e+02
2.905237e+03,1.638101e+02
2.906201e+03,1.602278e+02
2.907166e+03,1.598337e+02
2.908130e+03,1.618802e+02
2.909094e+03,1.636811e+02
2.910058e+03,1.641710e+02
2.911022e+03,1.599902e+02
2.911987e+03,1.539446e+02
2.912951e+03,1.492821e+02
2.913915e+03,1.439232e+02
2.914879e+03,1.345050e+02
2.915844e+03,1.335043e+02
2.916808e+03,1.409433e+02
2.917772e+03,1.455711e+02
2.918736e+03,1.483992e+02
2.919700e+03,1.524776e+02
2.920665e+03,1.530312e+02
2.921629e+03,1.412976e+02
2.922593e+03,1.392524e+02
2.923557e+03,1.459849e+02
2.924522e+03,1.518382e+02
2.925486e+03,1.553775e+02
2.926450e+03,1.549458e+02
2.927414e+03,1.504660e+02
2.928379e+03,1.394006e+02
2.929343e+03,1.370846e+02
2.930307e+03,1.421061e+02
2.931271e+03,1.394713e+02
2.932236e+03,1.343520e+02
2.933200e+03,1.379587e+02
2.934164e+03,1.431320e+02
2.935128e+03,1.471832e+02
2.936093e+03,1.431600e+02
2.937057e+03,1.336968e+02
2.938021e+03,1.391006e+02
2.938985e+03,1.488178e+02
2.939949e+03,1.425323e+02
2.940914e+03,1.368343e+02
2.941878e+03,1.376885e+02
2.942842e+03,1.348113e+02
2.943806e+03,1.268360e+02
2.944771e+03,1.264526e+02
2.945735e+03,1.311625e+02
2.946699e+03,1.400215e+02
2.947663e+03,1.431125e+02
2.948627e+03,1.378938e+02
2.949592e+03,1.329819e+02
2.950556e+03,1.304120e+02
2.951520e+03,1.304130e+02
2.952484e+03,1.304662e+02
2.953449e+03,1.262559e+02
2.954413e+03,1.309857e+02
2.955377e+03,1.500440e+02
2.956341e+03,1.619972e+02
2.957306e+03,1.649245e+02
2.958270e+03,1.718330e+02
2.959234e+03,1.700579e+02
2.960198e+03,1.501253e+02
2.961163e+03,1.329388e+02
2.962127e+03,1.277581e+02
2.963091e+03,1.275683e+02
2.964055e+03,1.305667e+02
2.965020e+03,1.320511e+02
2.965984e+03,1.338587e+02
2.966948e+03,1.374405e+02
2.967912e+03,1.387485e+02
2.968876e+03,1.357243e+02
2.969841e+03,1.299306e+02
2.970805e+03,1.244051e+02
2.971769e+03,1.258899e+02
2.972733e+03,1.264716e+02
2.973698e+03,1.201634e+02
2.974662e+03,1.127018e+02
2.975626e+03,1.058978e+02
2.976590e+03,1.131401e+02
2.977554e+03,1.232347e+02
2.978519e+03,1.212920e+02
2.979483e+03,1.147524e+02
2.980447e+03,1.075933e+02
2.981411e+03,1.062629e+02
2.982376e+03,1.109292e+02
2.983340e+03,1.120197e+02
2.984304e+03,1.115080e+02
2.985268e+03,1.114967e+02
2.986233e+03,1.116919e+02
2.987197e+03,1.119221e+02
2.988161e+03,1.128537e+02
2.989125e+03,1.145316e+02
2.990090e+03,1.185743e+02
2.991054e+03,1.186183e+02
2.992018e+03,1.092005e+02
2.992982e+03,1.008678e+02
2.993947e+03,9.732351e+01
2.994911e+03,1.043954e+02
2.995875e+03,1.133604e+02
2.996839e+03,1.085851e+02
2.997803e+03,1.040191e+02
2.998768e+03,1.093237e+02
2.999732e+03,1.090437e+02
3.000696e+03,1.016037e+02
3.001660e+03,1.076591e+02
3.002625e+03,1.135325e+02
3.003589e+03,1.047803e+02
3.004553e+03,1.002840e+02
3.005517e+03,1.093229e+02
3.006481e+03,1.179610e+02
3.007446e+03,1.231385e+02
3.008410e+03,1.220334e+02
3.009374e+03,1.153819e+02
3.010338e+03,1.040540e+02
3.011303e+03,9.891337e+01
3.012267e+03,1.031148e+02
3.013231e+03,1.112186e+02
3.014195e+03,1.152160e+02
3.015160e+03,9.693200e+01
3.016124e+03,8.627747e+01
3.017088e+03,9.257323e+01
3.018052e+03,9.996592e+01
3.019017e+03,1.051077e+02
3.019981e+03,1.127591e+02
3.020945e+03,1.132732e+02
3.021909e+03,9.570753e+01
3.022874e+03,8.954583e+01
3.023838e+03,9.849430e+01
3.024802e+03,1.042472e+02
3.025766e+03,1.056615e+02
3.026730e+03,1.032646e+02
3.027695e+03,1.006913e+02
3.028659e+03,9.953539e+01
3.029623e+03,1.002851e+02
3.030587e+03,1.020251e+02
3.031552e+03,1.005587e+02
3.032516e+03,9.819317e+01
3.033480e+03,9.888848e+01
3.034444e+03,9.516191e+01
3.035408e+03,8.741183e+01
3.036373e+03,9.471260e+01
3.037337e+03,1.087248e+02
3.038301e+03,9.915797e+01
3.039265e+03,9.005878e+01
3.040230e+03,9.594675e+01
3.041194e+03,1.052568e+02
3.042158e+03,1.118557e+02
3.043122e+03,9.578101e+01
3.044087e+03,7.861748e+01
3.045051e+03,9.281284e+01
3.046015e+03,1.071387e+02
3.046979e+03,1.134161e+02
3.047944e+03,1.167138e+02
3.048908e+03,1.138341e+02
3.049872e+03,9.754493e+01
3.050836e+03,8.886555e+01
3.051801e+03,1.032230e+02
3.052765e+03,1.205163e+02
3.053729e+03,1.337616e+02
3.054693e+03,1.246811e+02
3.055657e+03,1.115821e+02
3.056622e+03,1.074703e+02
3.057586e+03,1.072246e+02
3.058550e+03,1.088207e+02
3.059514e+03,9.786663e+01
3.060479e+03,8.631168e+01
3.061443e+03,9.865166e+01
3.062407e+03,1.037743e+02
3.063371e+03,9.444729e+01
3.064335e+03,9.635722e+01
3.065300e+03,1.074254e+02
3.066264e+03,1.045573e+02
3.067228e+03,1.016291e+02
3.068192e+03,1.078818e+02
3.069157e+03,1.140192e+02
3.070121e+03,1.175389e+02
3.071085e+03,1.133347e+02
3.072049e+03,1.059946e+02
3.073014e+03,9.638713e+01
3.073978e+03,1.007569e+02
3.074942e+03,1.218561e+02
3.075906e+03,1.203371e+02
3.076871e+03,1.099227e+02
3.077835e+03,1.148886e+02
3.078799e+03,1.177569e+02
3.079763e+03,1.043017e+02
3.080728e+03,1.104546e+02
3.081692e+03,1.282342e+02
3.082656e+03,1.191636e+02
3.083620e+03,1.077874e+02
3.084584e+03,1.082880e+02
3.085549e+03,1.116185e+02
3.086513e+03,1.149764e+02
3.087477e+03,1.103795e+02
3.088441e+03,1.052002e+02
3.089406e+03,1.072199e+02
3.090370e+03,1.154747e+02
3.091334e+03,1.261004e+02
3.092298e+03,1.063366e+02
3.093262e+03,8.022945e+01
3.094227e+03,1.098882e+02
3.095191e+03,1.306561e+02
3.096155e+03,1.193959e+02
3.097119e+03,1.090031e+02
3.098084e+03,1.035179e+02
3.099048e+03,1.050753e+02
3.100012e+03,1.088466e+02
3.100976e+03,1.138458e+02
3.101941e+03,1.010576e+02
3.102905e+03,7.788008e+01
3.103869e+03,9.276407e+01
3.104833e+03,1.110094e+02
3.105798e+03,1.098518e+02
3.106762e+03,1.114167e+02
3.107726e+03,1.204262e+02
3.108690e+03,1.184509e+02
3.109655e+03,1.144993e+02
3.110619e+03,1.245242e+02
3.111583e+03,1.213230e+02
3.112547e+03,1.049338e+02
3.113511e+03,1.034999e+02
3.114476e+03,1.111462e+02
3.115440e+03,1.156117e+02
3.116404e+03,1.168902e+02
3.117368e+03,1.140328e+02
3.118333e+03,1.095028e+02
3.119297e+03,1.084321e+02
3.120261e+03,1.198718e+02
3.121225e+03,1.273679e+02
3.122189e+03,1.217884e+02
3.123154e+03,1.167879e+02
3.124118e+03,1.145207e+02
3.125082e+03,1.177959e+02
3.126046e+03,1.191670e+02
3.127011e+03,1.147459e+02
3.127975e+03,1.235003e+02
3.128939e+03,1.405495e+02
3.129903e+03,1.358206e+02
3.130868e+03,1.241106e+02
3.131832e+03,1.111323e+02
3.132796e+03,1.156414e+02
3.133760e+03,1.308506e+02
3.134725e+03,1.173805e+02
3.135689e+03,1.006015e+02
3.136653e+03,1.048894e+02
3.137617e+03,1.180121e+02
3.138582e+03,1.365667e+02
3.139546e+03,1.256445e+02
3.140510e+03,1.121153e+02
3.141474e+03,1.291676e+02
3.142438e+03,1.319616e+02
3.143403e+03,1.152374e+02
3.144367e+03,9.701787e+01
3.145331e+03,8.461614e+01
3.146295e+03,9.088620e+01
3.147260e+03,1.056732e+02
3.148224e+03,1.264871e+02
3.149188e+03,1.391378e+02
3.150152e+03,1.389884e+02
3.151116e+03,1.197327e+02
3.152081e+03,1.125442e+02
3.153045e+03,1.306926e+02
3.154009e+03,1.291163e+02
3.154973e+03,1.198500e+02
3.155938e+03,1.400647e+02
3.156902e+03,1.438747e+02
3.157866e+03,1.211924e+02
3.158830e+03,1.050406e+02
3.159795e+03,9.852938e+01
3.160759e+03,1.034023e+02
3.161723e+03,1.092615e+02
3.162687e+03,1.102867e+02
3.163652e+03,1.143026e+02
3.164616e+03,1.242052e+02
3.165580e+03,1.482583e+02
3.166544e+03,1.583157e+02
3.167509e+03,1.452692e+02
3.168473e+03,1.238302e+02
3.169437e+03,1.038486e+02
3.170401e+03,1.117264e+02
3.171365e+03,1.210293e+02
3.172330e+03,1.204097e+02
3.173294e+03,1.123446e+02
3.174258e+03,1.017813e+02
3.175222e+03,9.508924e+01
3.176187e+03,9.784691e+01
3.177151e+03,1.165962e+02
3.178115e+03,1.118512e+02
3.179079e+03,9.567683e+01
3.180043e+03,1.161491e+02
3.181008e+03,1.343429e+02
3.181972e+03,1.356487e+02
3.182936e+03,1.284475e+02
3.183900e+03,1.189338e+02
3.184865e+03,1.182871e+02
3.185829e+03,1.198470e+02
3.186793e+03,1.234825e+02
3.187757e+03,1.133195e+02
3.188722e+03,1.034500e+02
3.189686e+03,1.262395e+02
3.190650e+03,1.459575e+02
3.191614e+03,1.485340e+02
3.192579e+03,1.378988e+02
3.193543e+03,1.221951e+02
3.194507e+03,1.202758e+02
3.195471e+03,1.191060e+02
3.196436e+03,1.132722e+02
3.197400e+03,1.081699e+02
3.198364e+03,1.110996e+02
3.199328e+03,1.343671e+02
3.200292e+03,1.488847e+02
3.201257e+03,0.000000e+00
3.202221e+03,0.000000e+00
3.203185e+03,0.000000e+00
3.204149e+03,0.000000e+00
3.205114e+03,0.000000e+00
3.206078e+03,0.000000e+00
3.207042e+03,0.000000e+00
3.208006e+03,0.000000e+00
3.208970e+03,0.000000e+00
3.209935e+03,0.000000e+00
3.210899e+03,0.000000e+00
3.211863e+03,0.000000e+00
3.212827e+03,0.000000e+00
3.213792e+03,0.000000e+00
3.214756e+03,0.000000e+00
3.215720e+03,0.000000e+00
3.216684e+03,0.000000e+00
3.217649e+03,0.000000e+00
3.218613e+03,0.000000e+00
3.219577e+03,0.000000e+00
3.220541e+03,0.000000e+00
3.221506e+03,0.000000e+00
3.222470e+03,0.000000e+00
3.223434e+03,0.000000e+00
3.224398e+03,0.000000e+00
3.225363e+03,0.000000e+00
3.226327e+03,0.000000e+00
3.227291e+03,0.000000e+00
3.228255e+03,0.000000e+00
3.229219e+03,0.000000e+00
3.230184e+03,0.000000e+00
3.231148e+03,0.000000e+00
3.232112e+03,0.000000e+00
3.233076e+03,0.000000e+00
3.234041e+03,0.000000e+00
3.235005e+03,0.000000e+00
3.235969e+03,0.000000e+00
3.236933e+03,0.000000e+00
3.237897e+03,0.000000e+00
3.238862e+03,0.000000e+00
3.239826e+03,0.000000e+00
3.240790e+03,0.000000e+00
3.241754e+03,0.000000e+00
3.242719e+03,0.000000e+00
3.243683e+03,0.000000e+00
3.244647e+03,0.000000e+00
3.245611e+03,0.000000e+00
3.246576e+03,0.000000e+00
3.247540e+03,0.000000e+00
3.248504e+03,0.000000e+00
3.249468e+03,0.000000e+00
3.250433e+03,0.000000e+00
3.251397e+03,0.000000e+00
3.252361e+03,0.000000e+00
3.253325e+03,0.000000e+00
3.254290e+03,0.000000e+00
3.255254e+03,0.000000e+00
3.256218e+03,0.000000e+00
3.257182e+03,0.000000e+00
3.258146e+03,0.000000e+00
3.259111e+03,0.000000e+00
3.260075e+03,0.000000e+00
3.261039e+03,0.000000e+00
3.262003e+03,0.000000e+00
3.262968e+03,0.000000e+00
3.263932e+03,0.000000e+00
3.264896e+03,0.000000e+00
3.265860e+03,0.000000e+00
3.266824e+03,0.000000e+00
3.267789e+03,0.000000e+00
3.268753e+03,0.000000e+00
3.269717e+03,0.000000e+00
3.270681e+03,0.000000e+00
3.271646e+03,0.000000e+00
3.272610e+03,0.000000e+00
3.273574e+03,0.000000e+00
3.274538e+03,0.000000e+00
3.275503e+03,0.000000e+00
3.276467e+03,0.000000e+00
3.277431e+03,0.000000e+00
3.278395e+03,0.000000e+00
3.279360e+03,0.000000e+00
3.280324e+03,0.000000e+00
3.281288e+03,0.000000e+00
3.282252e+03,0.000000e+00
3.283217e+03,0.000000e+00
3.284181e+03,0.000000e+00
3.285145e+03,0.000000e+00
3.286109e+03,0.000000e+00
3.287073e+03,0.000000e+00
3.288038e+03,0.000000e+00
3.289002e+03,0.000000e+00
3.289966e+03,0.000000e+00
3.290930e+03,0.000000e+00
3.291895e+03,0.000000e+00
3.292859e+03,0.000000e+00
3.293823e+03,0.000000e+00
3.294787e+03,0.000000e+00
3.295751e+03,0.000000e+00
3.296716e+03,0.000000e+00
3.297680e+03,0.000000e+00
3.298644e+03,0.000000e+00
3.299608e+03,0.000000e+00
3.300573e+03,0.000000e+00
3.301537e+03,0.000000e+00
3.302501e+03,0.000000e+00
3.303465e+03,0.000000e+00
3.304430e+03,0.000000e+00
3.305394e+03,0.000000e+00
3.306358e+03,0.000000e+00
3.307322e+03,0.000000e+00
3.308287e+03,0.000000e+00
3.309251e+03,0.000000e+00
3.310215e+03,0.000000e+00
3.311179e+03,0.000000e+00
3.312144e+03,0.000000e+00
3.313108e+03,0.000000e+00
3.314072e+03,0.000000e+00
3.315036e+03,0.000000e+00
3.316000e+03,0.000000e+00
3.316965e+03,0.000000e+00
3.317929e+03,0.000000e+00
3.318893e+03,0.000000e+00
3.319857e+03,0.000000e+00
3.320822e+03,0.000000e+00
3.321786e+03,0.000000e+00
3.322750e+03,0.000000e+00
3.323714e+03,0.000000e+00
3.324678e+03,0.000000e+00
3.325643e+03,0.000000e+00
3.326607e+03,0.000000e+00
3.327571e+03,0.000000e+00
3.328535e+03,0.000000e+00
3.329500e+03,0.000000e+00
3.330464e+03,0.000000e+00
3.331428e+03,0.000000e+00
3.332392e+03,0.000000e+00
3.333357e+03,0.000000e+00
3.334321e+03,0.000000e+00
3.335285e+03,0.000000e+00
3.336249e+03,0.000000e+00
3.337214e+03,0.000000e+00
3.338178e+03,0.000000e+00
3.339142e+03,0.000000e+00
3.340106e+03,0.000000e+00
3.341071e+03,0.000000e+00
3.342035e+03,0.000000e+00
3.342999e+03,0.000000e+00
3.343963e+03,0.000000e+00
3.344927e+03,0.000000e+00
3.345892e+03,0.000000e+00
3.346856e+03,0.000000e+00
3.347820e+03,0.000000e+00
3.348784e+03,0.000000e+00
3.349749e+03,0.000000e+00
3.350713e+03,0.000000e+00
3.351677e+03,0.000000e+00
3.352641e+03,0.000000e+00
3.353605e+03,0.000000e+00
3.354570e+03,0.000000e+00
3.355534e+03,0.000000e+00
3.356498e+03,0.000000e+00
3.357462e+03,0.000000e+00
3.358427e+03,0.000000e+00
3.359391e+03,0.000000e+00
3.360355e+03,0.000000e+00
3.361319e+03,0.000000e+00
3.362284e+03,0.000000e+00
3.363248e+03,0.000000e+00
3.364212e+03,0.000000e+00
3.365176e+03,0.000000e+00
3.366141e+03,0.000000e+00
3.367105e+03,0.000000e+00
3.368069e+03,0.000000e+00
3.369033e+03,0.000000e+00
3.369998e+03,0.000000e+00
3.370962e+03,0.000000e+00
3.371926e+03,0.000000e+00
3.372890e+03,0.000000e+00
3.373854e+03,0.000000e+00
3.374819e+03,0.000000e+00
3.375783e+03,0.000000e+00
3.376747e+03,0.000000e+00
3.377711e+03,0.000000e+00
3.378676e+03,0.000000e+00
3.379640e+03,0.000000e+00
3.380604e+03,0.000000e+00
3.381568e+03,0.000000e+00
3.382532e+03,0.000000e+00
3.383497e+03,0.000000e+00
3.384461e+03,0.000000e+00
3.385425e+03,0.000000e+00
3.386389e+03,0.000000e+00
3.387354e+03,0.000000e+00
3.388318e+03,0.000000e+00
3.389282e+03,0.000000e+00
3.390246e+03,0.000000e+00
3.391211e+03,0.000000e+00
3.392175e+03,0.000000e+00
3.393139e+03,0.000000e+00
3.394103e+03,0.000000e+00
3.395068e+03,0.000000e+00
3.396032e+03,0.000000e+00
3.396996e+03,0.000000e+00
3.397960e+03,0.000000e+00
3.398925e+03,0.000000e+00
3.399889e+03,0.000000e+00
3.400853e+03,0.000000e+00
3.401817e+03,0.000000e+00
3.402781e+03,0.000000e+00
3.403746e+03,0.000000e+00
3.404710e+03,0.000000e+00
3.405674e+03,0.000000e+00
3.406638e+03,0.000000e+00
3.407603e+03,0.000000e+00
3.408567e+03,0.000000e+00
3.409531e+03,0.000000e+00
3.410495e+03,0.000000e+00
3.411459e+03,0.000000e+00
3.412424e+03,0.000000e+00
3.413388e+03,0.000000e+00
3.414352e+03,0.000000e+00
3.415316e+03,0.000000e+00
3.416281e+03,0.000000e+00
3.417245e+03,0.000000e+00
3.418209e+03,0.000000e+00
3.419173e+03,0.000000e+00
3.420138e+03,0.000000e+00
3.421102e+03,0.000000e+00
3.422066e+03,0.000000e+00
3.423030e+03,0.000000e+00
3.423995e+03,0.000000e+00
3.424959e+03,0.000000e+00
3.425923e+03,0.000000e+00
3.426887e+03,0.000000e+00
3.427852e+03,0.000000e+00
3.428816e+03,0.000000e+00
3.429780e+03,0.000000e+00
3.430744e+03,0.000000e+00
3.431708e+03,0.000000e+00
3.432673e+03,0.000000e+00
3.433637e+03,0.000000e+00
3.434601e+03,0.000000e+00
3.435565e+03,0.000000e+00
3.436530e+03,0.000000e+00
3.437494e+03,0.000000e+00
3.438458e+03,0.000000e+00
3.439422e+03,0.000000e+00
3.440386e+03,0.000000e+00
3.441351e+03,0.000000e+00
3.442315e+03,0.000000e+00
3.443279e+03,0.000000e+00
3.444243e+03,0.000000e+00
3.445208e+03,0.000000e+00
3.446172e+03,0.000000e+00
3.447136e+03,0.000000e+00
3.448100e+03,0.000000e+00
3.449065e+03,0.000000e+00
3.450029e+03,0.000000e+00
3.450993e+03,0.000000e+00
3.451957e+03,0.000000e+00
3.452922e+03,0.000000e+00
3.453886e+03,0.000000e+00
3.454850e+03,0.000000e+00
3.455814e+03,0.000000e+00
3.456779e+03,0.000000e+00
3.457743e+03,0.000000e+00
3.458707e+03,0.000000e+00
3.459671e+03,0.000000e+00
3.460635e+03,0.000000e+00
3.461600e+03,0.000000e+00
3.462564e+03,0.000000e+00
3.463528e+03,0.000000e+00
3.464492e+03,0.000000e+00
3.465457e+03,0.000000e+00
3.466421e+03,0.000000e+00
3.467385e+03,0.000000e+00
3.468349e+03,0.000000e+00
3.469313e+03,0.000000e+00
3.470278e+03,0.000000e+00
3.471242e+03,0.000000e+00
3.472206e+03,0.000000e+00
3.473170e+03,0.000000e+00
3.474135e+03,0.000000e+00
3.475099e+03,0.000000e+00
3.476063e+03,0.000000e+00
3.477027e+03,0.000000e+00
3.477992e+03,0.000000e+00
3.478956e+03,0.000000e+00
3.479920e+03,0.000000e+00
3.480884e+03,0.000000e+00
3.481849e+03,0.000000e+00
3.482813e+03,0.000000e+00
3.483777e+03,0.000000e+00
3.484741e+03,0.000000e+00
3.485706e+03,0.000000e+00
3.486670e+03,0.000000e+00
3.487634e+03,0.000000e+00
3.488598e+03,0.000000e+00
3.489563e+03,0.000000e+00
3.490527e+03,0.000000e+00
3.491491e+03,0.000000e+00
3.492455e+03,0.000000e+00
3.493419e+03,0.000000e+00
3.494384e+03,0.000000e+00
3.495348e+03,0.000000e+00
3.496312e+03,0.000000e+00
3.497276e+03,0.000000e+00
3.498240e+03,0.000000e+00
3.499205e+03,0.000000e+00
3.500169e+03,0.000000e+00
