9.931763e+01,0.000000e+00
1.002819e+02,0.000000e+00
1.012461e+02,0.000000e+00
1.022103e+02,0.000000e+00
1.031746e+02,0.000000e+00
1.041388e+02,0.000000e+00
1.051030e+02,0.000000e+00
1.060673e+02,0.000000e+00
1.070315e+02,0.000000e+00
1.079957e+02,0.000000e+00
1.089600e+02,0.000000e+00
1.099242e+02,0.000000e+00
1.108884e+02,0.000000e+00
1.118527e+02,0.000000e+00
1.128169e+02,0.000000e+00
1.137811e+02,0.000000e+00
1.147454e+02,0.000000e+00
1.157096e+02,0.000000e+00
1.166738e+02,0.000000e+00
1.176381e+02,0.000000e+00
1.186023e+02,0.000000e+00
1.195665e+02,0.000000e+00
1.205308e+02,0.000000e+00
1.214950e+02,0.000000e+00
1.224592e+02,0.000000e+00
1.234235e+02,0.000000e+00
1.243877e+02,0.000000e+00
1.253519e+02,0.000000e+00
1.263162e+02,0.000000e+00
1.272804e+02,0.000000e+00
1.282446e+02,0.000000e+00
1.292089e+02,0.000000e+00
1.301731e+02,0.000000e+00
1.311373e+02,0.000000e+00
1.321016e+02,0.000000e+00
1.330658e+02,0.000000e+00
1.340300e+02,0.000000e+00
1.349943e+02,0.000000e+00
1.359585e+02,0.000000e+00
1.369227e+02,0.000000e+00
1.378870e+02,0.000000e+00
1.388512e+02,0.000000e+00
1.398154e+02,0.000000e+00
1.407797e+02,0.000000e+00
1.417439e+02,0.000000e+00
1.427081e+02,0.000000e+00
1.436724e+02,0.000000e+00
1.446366e+02,0.000000e+00
1.456008e+02,0.000000e+00
1.465651e+02,0.000000e+00
1.475293e+02,0.000000e+00
1.484935e+02,0.000000e+00
1.494578e+02,0.000000e+00
1.504220e+02,0.000000e+00
1.513862e+02,0.000000e+00
1.523505e+02,0.000000e+00
1.533147e+02,0.000000e+00
1.542789e+02,0.000000e+00
1.552432e+02,0.000000e+00
1.562074e+02,0.000000e+00
1.571716e+02,0.000000e+00
1.581359e+02,0.000000e+00
1.591001e+02,0.000000e+00
1.600643e+02,0.000000e+00
1.610286e+02,0.000000e+00
1.619928e+02,0.000000e+00
1.629570e+02,0.000000e+00
1.639213e+02,0.000000e+00
1.648855e+02,0.000000e+00
1.658497e+02,0.000000e+00
1.668140e+02,0.000000e+00
1.677782e+02,0.000000e+00
1.687424e+02,0.000000e+00
1.697067e+02,0.000000e+00
1.706709e+02,0.000000e+00
1.716351e+02,0.000000e+00
1.725994e+02,0.000000e+00
1.735636e+02,0.000000e+00
1.745278e+02,0.000000e+00
1.754921e+02,0.000000e+00
1.764563e+02,0.000000e+00
1.774205e+02,0.000000e+00
1.783848e+02,0.000000e+00
1.793490e+02,0.000000e+00
1.803132e+02,0.000000e+00
1.812775e+02,0.000000e+00
1.822417e+02,0.000000e+00
1.832059e+02,0.000000e+00
1.841702e+02,0.000000e+00
1.851344e+02,0.000000e+00
1.860986e+02,0.000000e+00
1.870629e+02,0.000000e+00
1.880271e+02,0.000000e+00
1.889913e+02,0.000000e+00
1.899556e+02,0.000000e+00
1.909198e+02,0.000000e+00
1.918840e+02,0.000000e+00
1.928483e+02,0.000000e+00
1.938125e+02,0.000000e+00
1.947767e+02,0.000000e+00
1.957410e+02,0.000000e+00
1.967052e+02,0.000000e+00
1.976694e+02,0.000000e+00
1.986337e+02,0.000000e+00
1.995979e+02,1.079695e+03
2.005621e+02,1.081251e+03
2.015264e+02,1.082473e+03
2.024906e+02,1.082630e+03
2.034548e+02,1.083032e+03
2.044191e+02,1.084449e+03
2.053833e+02,1.086290e+03
2.063475e+02,1.087084e+03
2.073118e+02,1.084609e+03
2.082760e+02,1.076900e+03
2.092402e+02,1.072124e+03
2.102045e+02,1.073757e+03
2.111687e+02,1.077566e+03
2.121329e+02,1.080219e+03
2.130972e+02,1.079753e+03
2.140614e+02,1.077516e+03
2.150256e+02,1.077706e+03
2.159899e+02,1.082444e+03
2.169541e+02,1.086887e+03
2.179183e+02,1.089907e+03
2.188826e+02,1.091295e+03
2.198468e+02,1.090814e+03
2.208110e+02,1.086905e+03
2.217753e+02,1.079590e+03
2.227395e+02,1.074091e+03
2.237037e+02,1.073188e+03
2.246680e+02,1.074238e+03
2.256322e+02,1.074449e+03
2.265964e+02,1.073158e+03
2.275607e+02,1.071978e+03
2.285249e+02,1.073012e+03
2.294892e+02,1.076732e+03
2.304534e+02,1.080459e+03
2.314176e+02,1.081609e+03
2.323819e+02,1.080518e+03
2.333461e+02,1.079068e+03
2.343103e+02,1.077431e+03
2.352746e+02,1.076092e+03
2.362388e+02,1.075920e+03
2.372030e+02,1.077242e+03
2.381673e+02,1.078712e+03
2.391315e+02,1.078518e+03
2.400957e+02,1.076220e+03
2.410600e+02,1.074042e+03
2.420242e+02,1.073340e+03
2.429884e+02,1.074015e+03
2.439527e+02,1.074906e+03
2.449169e+02,1.074840e+03
2.458811e+02,1.073439e+03
2.468454e+02,1.072692e+03
2.478096e+02,1.073560e+03
2.487738e+02,1.074449e+03
2.497381e+02,1.073977e+03
2.507023e+02,1.071942e+03
2.516665e+02,1.069421e+03
2.526308e+02,1.068028e+03
2.535950e+02,1.067883e+03
2.545592e+02,1.067948e+03
2.555235e+02,1.069024e+03
2.564877e+02,1.070394e+03
2.574519e+02,1.071322e+03
2.584161e+02,1.071561e+03
2.593804e+02,1.071277e+03
2.603446e+02,1.070540e+03
2.613088e+02,1.067521e+03
2.622731e+02,1.065009e+03
2.632373e+02,1.063768e+03
2.642015e+02,1.063573e+03
2.651658e+02,1.063937e+03
2.661300e+02,1.065342e+03
2.670942e+02,1.068656e+03
2.680585e+02,1.070136e+03
2.690227e+02,1.066550e+03
2.699869e+02,1.061995e+03
2.709512e+02,1.059511e+03
2.719154e+02,1.061197e+03
2.728796e+02,1.064444e+03
2.738439e+02,1.065326e+03
2.748081e+02,1.063443e+03
2.757723e+02,1.061803e+03
2.767366e+02,1.061694e+03
2.777008e+02,1.062293e+03
2.786650e+02,1.062440e+03
2.796293e+02,1.061818e+03
2.805935e+02,1.060967e+03
2.815577e+02,1.060636e+03
2.825220e+02,1.061008e+03
2.834862e+02,1.061415e+03
2.844504e+02,1.060776e+03
2.854147e+02,1.058445e+03
2.863789e+02,1.056678e+03
2.873431e+02,1.056876e+03
2.883074e+02,1.058517e+03
2.892716e+02,1.060082e+03
2.902358e+02,1.060470e+03
2.912001e+02,1.059539e+03
2.921643e+02,1.058770e+03
2.931285e+02,1.058882e+03
2.940928e+02,1.058952e+03
2.950570e+02,1.058307e+03
2.960212e+02,1.056807e+03
2.969855e+02,1.054890e+03
2.979497e+02,1.053226e+03
2.989139e+02,1.052058e+03
2.998782e+02,1.051218e+03
3.008424e+02,1.051078e+03
3.018066e+02,1.051658e+03
3.027709e+02,1.052693e+03
3.037351e+02,1.053962e+03
3.046993e+02,1.055305e+03
3.056636e+02,1.057113e+03
3.066278e+02,1.060531e+03
3.075920e+02,1.062164e+03
3.085563e+02,1.058841e+03
3.095205e+02,1.052724e+03
3.104847e+02,1.048290e+03
3.114490e+02,1.048366e+03
3.124132e+02,1.050867e+03
3.133774e+02,1.051690e+03
3.143417e+02,1.049876e+03
3.153059e+02,1.046884e+03
3.162701e+02,1.045092e+03
3.172344e+02,1.045313e+03
3.181986e+02,1.045352e+03
3.191628e+02,1.043770e+03
3.201271e+02,1.041653e+03
3.210913e+02,1.041018e+03
3.220555e+02,1.042778e+03
3.230198e+02,1.046583e+03
3.239840e+02,1.050678e+03
3.249482e+02,1.057087e+03
3.259125e+02,1.061700e+03
3.268767e+02,1.062353e+03
3.278409e+02,1.059921e+03
3.288052e+02,1.056898e+03
3.297694e+02,1.055600e+03
3.307336e+02,1.056542e+03
3.316979e+02,1.056260e+03
3.326621e+02,1.053752e+03
3.336263e+02,1.050427e+03
3.345906e+02,1.046497e+03
3.355548e+02,1.042229e+03
3.365190e+02,1.039333e+03
3.374833e+02,1.040300e+03
3.384475e+02,1.045543e+03
3.394117e+02,1.050105e+03
3.403760e+02,1.051548e+03
3.413402e+02,1.050938e+03
3.423044e+02,1.050380e+03
3.432687e+02,1.050618e+03
3.442329e+02,1.050656e+03
3.451971e+02,1.049162e+03
3.461614e+02,1.045831e+03
3.471256e+02,1.041762e+03
3.480898e+02,1.038128e+03
3.490541e+02,1.035307e+03
3.500183e+02,1.033180e+03
3.509825e+02,1.031673e+03
3.519468e+02,1.031365e+03
3.529110e+02,1.033036e+03
3.538752e+02,1.036625e+03
3.548395e+02,1.040606e+03
3.558037e+02,1.042573e+03
3.567680e+02,1.041500e+03
3.577322e+02,1.039998e+03
3.586964e+02,1.038471e+03
3.596607e+02,1.037156e+03
3.606249e+02,1.035959e+03
3.615891e+02,1.034246e+03
3.625534e+02,1.032134e+03
3.635176e+02,1.030618e+03
3.644818e+02,1.030002e+03
3.654461e+02,1.030386e+03
3.664103e+02,1.033115e+03
3.673745e+02,1.038141e+03
3.683388e+02,1.042417e+03
3.693030e+02,1.043655e+03
3.702672e+02,1.043152e+03
3.712315e+02,1.042938e+03
3.721957e+02,1.043269e+03
3.731599e+02,1.044028e+03
3.741242e+02,1.045433e+03
3.750884e+02,1.049156e+03
3.760526e+02,1.052529e+03
3.770169e+02,1.056219e+03
3.779811e+02,1.058994e+03
3.789453e+02,1.059139e+03
3.799096e+02,1.055570e+03
3.808738e+02,1.049053e+03
3.818380e+02,1.042658e+03
3.828023e+02,1.036131e+03
3.837665e+02,1.031151e+03
3.847307e+02,1.028031e+03
3.856950e+02,1.026527e+03
3.866592e+02,1.026041e+03
3.876234e+02,1.027048e+03
3.885877e+02,1.028803e+03
3.895519e+02,1.028976e+03
3.905161e+02,1.026779e+03
3.914804e+02,1.023800e+03
3.924446e+02,1.022011e+03
3.934088e+02,1.021955e+03
3.943731e+02,1.021652e+03
3.953373e+02,1.020360e+03
3.963015e+02,1.018484e+03
3.972658e+02,1.016267e+03
3.982300e+02,1.013773e+03
3.991942e+02,1.011999e+03
4.001585e+02,1.012982e+03
4.011227e+02,1.020842e+03
4.020869e+02,1.026027e+03
4.030512e+02,1.025542e+03
4.040154e+02,1.021472e+03
4.049796e+02,1.017230e+03
4.059439e+02,1.014454e+03
4.069081e+02,1.013017e+03
4.078723e+02,1.012755e+03
4.088366e+02,1.013865e+03
4.098008e+02,1.015065e+03
4.107650e+02,1.016650e+03
4.117293e+02,1.018670e+03
4.126935e+02,1.019195e+03
4.136577e+02,1.016721e+03
4.146220e+02,1.012551e+03
4.155862e+02,1.008134e+03
4.165504e+02,1.003661e+03
4.175147e+02,1.000073e+03
4.184789e+02,9.988343e+02
4.194431e+02,1.002431e+03
4.204074e+02,1.005457e+03
4.213716e+02,1.006789e+03
4.223358e+02,1.007871e+03
4.233001e+02,1.010817e+03
4.242643e+02,1.017261e+03
4.252285e+02,1.024702e+03
4.261928e+02,1.026452e+03
4.271570e+02,1.019868e+03
4.281212e+02,1.013714e+03
4.290855e+02,1.011551e+03
4.300497e+02,1.012245e+03
4.310139e+02,1.013767e+03
4.319782e+02,1.017096e+03
4.329424e+02,1.020477e+03
4.339066e+02,1.021579e+03
4.348709e+02,1.020079e+03
4.358351e+02,1.017145e+03
4.367993e+02,1.013646e+03
4.377636e+02,1.008640e+03
4.387278e+02,1.005976e+03
4.396920e+02,1.007977e+03
4.406563e+02,1.010947e+03
4.416205e+02,1.012263e+03
4.425847e+02,1.011201e+03
4.435490e+02,1.008760e+03
4.445132e+02,1.005957e+03
4.454774e+02,1.002633e+03
4.464417e+02,1.000502e+03
4.474059e+02,9.999252e+02
4.483701e+02,1.000531e+03
4.493344e+02,1.002132e+03
4.502986e+02,1.006767e+03
4.512628e+02,1.010840e+03
4.522271e+02,1.010827e+03
4.531913e+02,1.007577e+03
4.541555e+02,1.005089e+03
4.551198e+02,1.006081e+03
4.560840e+02,1.010621e+03
4.570482e+02,1.012006e+03
4.580125e+02,1.007572e+03
4.589767e+02,1.003514e+03
4.599409e+02,1.001920e+03
4.609052e+02,1.002245e+03
4.618694e+02,1.002628e+03
4.628336e+02,1.001821e+03
4.637979e+02,9.999659e+02
4.647621e+02,9.978147e+02
4.657263e+02,9.956689e+02
4.666906e+02,9.935955e+02
4.676548e+02,9.907797e+02
4.686190e+02,9.861957e+02
4.695833e+02,9.835748e+02
4.705475e+02,9.857591e+02
4.715117e+02,9.900676e+02
4.724760e+02,9.925367e+02
4.734402e+02,9.918160e+02
4.744044e+02,9.894337e+02
4.753687e+02,9.889375e+02
4.763329e+02,9.923704e+02
4.772971e+02,9.945935e+02
4.782614e+02,9.941061e+02
4.792256e+02,9.923835e+02
4.801898e+02,9.911659e+02
4.811541e+02,9.910998e+02
4.821183e+02,9.916843e+02
4.830826e+02,9.925339e+02
4.840468e+02,9.936122e+02
4.850110e+02,9.940223e+02
4.859753e+02,9.931091e+02
4.869395e+02,9.906967e+02
4.879037e+02,9.892232e+02
4.888680e+02,9.894678e+02
4.898322e+02,9.901645e+02
4.907964e+02,9.910453e+02
4.917607e+02,9.919565e+02
4.927249e+02,9.924231e+02
4.936891e+02,9.918771e+02
4.946534e+02,9.902422e+02
4.956176e+02,9.881288e+02
4.965818e+02,9.843866e+02
4.975461e+02,9.814529e+02
4.985103e+02,9.814088e+02
4.994745e+02,9.848094e+02
5.004388e+02,9.878772e+02
5.014030e+02,9.895131e+02
5.023672e+02,9.900149e+02
5.033315e+02,9.896042e+02
5.042957e+02,9.882488e+02
5.052599e+02,9.860821e+02
5.062242e+02,9.836116e+02
5.071884e+02,9.804348e+02
5.081526e+02,9.780052e+02
5.091169e+02,9.763466e+02
5.100811e+02,9.757559e+02
5.110453e+02,9.765306e+02
5.120095e+02,9.797317e+02
5.129738e+02,9.835292e+02
5.139380e+02,9.854966e+02
5.149022e+02,9.856886e+02
5.158665e+02,9.854210e+02
5.168307e+02,9.850485e+02
5.177949e+02,9.840746e+02
5.187592e+02,9.822556e+02
5.197234e+02,9.815950e+02
5.206876e+02,9.798468e+02
5.216519e+02,9.746465e+02
5.226161e+02,9.672723e+02
5.235803e+02,9.613099e+02
5.245446e+02,9.598288e+02
5.255088e+02,9.623387e+02
5.264730e+02,9.658197e+02
5.274373e+02,9.710980e+02
5.284015e+02,9.758370e+02
5.293657e+02,9.775532e+02
5.303300e+02,9.761923e+02
5.312942e+02,9.740245e+02
5.322584e+02,9.704611e+02
5.332227e+02,9.674562e+02
5.341869e+02,9.670759e+02
5.351511e+02,9.694623e+02
5.361154e+02,9.725732e+02
5.370796e+02,9.740251e+02
5.380438e+02,9.737848e+02
5.390081e+02,9.725165e+02
5.399723e+02,9.688964e+02
5.409365e+02,9.652807e+02
5.419008e+02,9.635780e+02
5.428650e+02,9.640267e+02
5.438292e+02,9.656004e+02
5.447935e+02,9.695697e+02
5.457577e+02,9.742875e+02
5.467219e+02,9.758803e+02
5.476862e+02,9.724471e+02
5.486504e+02,9.658419e+02
5.496146e+02,9.618361e+02
5.505789e+02,9.627900e+02
5.515431e+02,9.626105e+02
5.525073e+02,9.587131e+02
5.534716e+02,9.538758e+02
5.544358e+02,9.516858e+02
5.554000e+02,9.551420e+02
5.563643e+02,9.600065e+02
5.573285e+02,9.623025e+02
5.582927e+02,9.621025e+02
5.592570e+02,9.605315e+02
5.602212e+02,9.579846e+02
5.611854e+02,9.544141e+02
5.621497e+02,9.529932e+02
5.631139e+02,9.565128e+02
5.640781e+02,9.591631e+02
5.650424e+02,9.590574e+02
5.660066e+02,9.568398e+02
5.669708e+02,9.547928e+02
5.679351e+02,9.549691e+02
5.688993e+02,9.561298e+02
5.698635e+02,9.555749e+02
5.708278e+02,9.530707e+02
5.717920e+02,9.508913e+02
5.727562e+02,9.510646e+02
5.737205e+02,9.545227e+02
5.746847e+02,9.563263e+02
5.756489e+02,9.544549e+02
5.766132e+02,9.524628e+02
5.775774e+02,9.532166e+02
5.785416e+02,9.568886e+02
5.795059e+02,9.595443e+02
5.804701e+02,9.566168e+02
5.814343e+02,9.500360e+02
5.823986e+02,9.462286e+02
5.833628e+02,9.467387e+02
5.843270e+02,9.492990e+02
5.852913e+02,9.507542e+02
5.862555e+02,9.495556e+02
5.872197e+02,9.496102e+02
5.881840e+02,9.525223e+02
5.891482e+02,9.555380e+02
5.901124e+02,9.560798e+02
5.910767e+02,9.531133e+02
5.920409e+02,9.496045e+02
5.930051e+02,9.485757e+02
5.939694e+02,9.495679e+02
5.949336e+02,9.504860e+02
5.958978e+02,9.507850e+02
5.968621e+02,9.505900e+02
5.978263e+02,9.502646e+02
5.987905e+02,9.502089e+02
5.997548e+02,9.498163e+02
6.007190e+02,9.483165e+02
6.016832e+02,9.468998e+02
6.026475e+02,9.469193e+02
6.036117e+02,9.492974e+02
6.045759e+02,9.520671e+02
6.055402e+02,9.529143e+02
6.065044e+02,9.518470e+02
6.074686e+02,9.499586e+02
6.084329e+02,9.477166e+02
6.093971e+02,9.453685e+02
6.103613e+02,9.436730e+02
6.113256e+02,9.429637e+02
6.122899e+02,9.427012e+02
6.132541e+02,9.430987e+02
6.142183e+02,9.438086e+02
6.151826e+02,9.443309e+02
6.161468e+02,9.445721e+02
6.171110e+02,9.448382e+02
6.180753e+02,9.457970e+02
6.190395e+02,9.471832e+02
6.200037e+02,9.470892e+02
6.209680e+02,9.438401e+02
6.219322e+02,9.378284e+02
6.228964e+02,9.345892e+02
6.238607e+02,9.366850e+02
6.248249e+02,9.387917e+02
6.257891e+02,9.388322e+02
6.267534e+02,9.371405e+02
6.277176e+02,9.355643e+02
6.286818e+02,9.352877e+02
6.296461e+02,9.357828e+02
6.306103e+02,9.371299e+02
6.315745e+02,9.390916e+02
6.325388e+02,9.395724e+02
6.335030e+02,9.360209e+02
6.344672e+02,9.280299e+02
6.354315e+02,9.242623e+02
6.363957e+02,9.275839e+02
6.373599e+02,9.315328e+02
6.383242e+02,9.332347e+02
6.392884e+02,9.329950e+02
6.402526e+02,9.325131e+02
6.412169e+02,9.318870e+02
6.421811e+02,9.314453e+02
6.431453e+02,9.318365e+02
6.441096e+02,9.329140e+02
6.450738e+02,9.336682e+02
6.460380e+02,9.328733e+02
6.470023e+02,9.306601e+02
6.479665e+02,9.302814e+02
6.489307e+02,9.325240e+02
6.498950e+02,9.349872e+02
6.508592e+02,9.355500e+02
6.518234e+02,9.339851e+02
6.527877e+02,9.323544e+02
6.537519e+02,9.308405e+02
6.547161e+02,9.295789e+02
6.556804e+02,9.293314e+02
6.566446e+02,9.299191e+02
6.576088e+02,9.295213e+02
6.585731e+02,9.249361e+02
6.595373e+02,9.172640e+02
6.605015e+02,9.133702e+02
6.614658e+02,9.144941e+02
6.624300e+02,9.178281e+02
6.633942e+02,9.208723e+02
6.643585e+02,9.237658e+02
6.653227e+02,9.257556e+02
6.662869e+02,9.260640e+02
6.672512e+02,9.258125e+02
6.682154e+02,9.259258e+02
6.691796e+02,9.263820e+02
6.701439e+02,9.260361e+02
6.711081e+02,9.231134e+02
6.720723e+02,9.190081e+02
6.730366e+02,9.169745e+02
6.740008e+02,9.177309e+02
6.749650e+02,9.193269e+02
6.759293e+02,9.194249e+02
6.768935e+02,9.175383e+02
6.778577e+02,9.159534e+02
6.788220e+02,9.143873e+02
6.797862e+02,9.139137e+02
6.807504e+02,9.152993e+02
6.817147e+02,9.187795e+02
6.826789e+02,9.214409e+02
6.836431e+02,9.211423e+02
6.846074e+02,9.196205e+02
6.855716e+02,9.196419e+02
6.865358e+02,9.217346e+02
6.875001e+02,9.232328e+02
6.884643e+02,9.194388e+02
6.894285e+02,9.104766e+02
6.903928e+02,9.065860e+02
6.913570e+02,9.108693e+02
6.923212e+02,9.171196e+02
6.932855e+02,9.186490e+02
6.942497e+02,9.127714e+02
6.952139e+02,9.082454e+02
6.961782e+02,9.045653e+02
6.971424e+02,9.024388e+02
6.981066e+02,9.026817e+02
6.990709e+02,9.051027e+02
7.000351e+02,9.075324e+02
7.009993e+02,9.092356e+02
7.019636e+02,9.103484e+02
7.029278e+02,9.102454e+02
7.038920e+02,9.086695e+02
7.048563e+02,9.068093e+02
7.058205e+02,9.064973e+02
7.067847e+02,9.086511e+02
7.077490e+02,9.105409e+02
7.087132e+02,9.131550e+02
7.096774e+02,9.153724e+02
7.106417e+02,9.153511e+02
7.116059e+02,9.123240e+02
7.125701e+02,9.095031e+02
7.135344e+02,9.079752e+02
7.144986e+02,9.072068e+02
7.154628e+02,9.065363e+02
7.164271e+02,9.057587e+02
7.173913e+02,9.051264e+02
7.183555e+02,9.052716e+02
7.193198e+02,9.058800e+02
7.202840e+02,9.052328e+02
7.212482e+02,9.029261e+02
7.222125e+02,9.007731e+02
7.231767e+02,9.007047e+02
7.241409e+02,9.036912e+02
7.251052e+02,9.053036e+02
7.260694e+02,9.045510e+02
7.270336e+02,9.031242e+02
7.279979e+02,9.016883e+02
7.289621e+02,9.002511e+02
7.299263e+02,9.000240e+02
7.308906e+02,9.032210e+02
7.318548e+02,9.067966e+02
7.328190e+02,9.071661e+02
7.337833e+02,9.041495e+02
7.347475e+02,9.003850e+02
7.357117e+02,8.987164e+02
7.366760e+02,8.990770e+02
7.376402e+02,8.991266e+02
7.386044e+02,8.988472e+02
7.395687e+02,8.981038e+02
7.405329e+02,8.962907e+02
7.414971e+02,8.925979e+02
7.424614e+02,8.910633e+02
7.434256e+02,8.947039e+02
7.443898e+02,8.985738e+02
7.453541e+02,8.994315e+02
7.463183e+02,8.970402e+02
7.472825e+02,8.948826e+02
7.482468e+02,8.963920e+02
7.492110e+02,8.979981e+02
7.501752e+02,8.947523e+02
7.511395e+02,8.876685e+02
7.521037e+02,8.824069e+02
7.530679e+02,8.845944e+02
7.540322e+02,8.927006e+02
7.549964e+02,8.967736e+02
7.559606e+02,8.962754e+02
7.569249e+02,8.942531e+02
7.578891e+02,8.923273e+02
7.588533e+02,8.905713e+02
7.598176e+02,8.893528e+02
7.607818e+02,8.872093e+02
7.617460e+02,8.855930e+02
7.627103e+02,8.858004e+02
7.636745e+02,8.876974e+02
7.646387e+02,8.896968e+02
7.656030e+02,8.913213e+02
7.665672e+02,8.926332e+02
7.675314e+02,8.934549e+02
7.684957e+02,8.932108e+02
7.694599e+02,8.914080e+02
7.704241e+02,8.874910e+02
7.713884e+02,8.831279e+02
7.723526e+02,8.831428e+02
7.733168e+02,8.883287e+02
7.742811e+02,8.926432e+02
7.752453e+02,8.924152e+02
7.762095e+02,8.883360e+02
7.771738e+02,8.860424e+02
7.781380e+02,8.857511e+02
7.791022e+02,8.863805e+02
7.800665e+02,8.899335e+02
7.810307e+02,8.941682e+02
7.819949e+02,8.953295e+02
7.829592e+02,8.896697e+02
7.839234e+02,8.842858e+02
7.848876e+02,8.827929e+02
7.858519e+02,8.835808e+02
7.868161e+02,8.844863e+02
7.877803e+02,8.849492e+02
7.887446e+02,8.840736e+02
7.897088e+02,8.789821e+02
7.906730e+02,8.709355e+02
7.916373e+02,8.675495e+02
7.926015e+02,8.714957e+02
7.935657e+02,8.784534e+02
7.945300e+02,8.805205e+02
7.954942e+02,8.757178e+02
7.964584e+02,8.720507e+02
7.974227e+02,8.717276e+02
7.983869e+02,8.737167e+02
7.993511e+02,8.757881e+02
8.003154e+02,8.776854e+02
8.012796e+02,8.784944e+02
8.022438e+02,8.782143e+02
8.032081e+02,8.774150e+02
8.041723e+02,8.761113e+02
8.051365e+02,8.741147e+02
8.061008e+02,8.728691e+02
8.070650e+02,8.744364e+02
8.080292e+02,8.768683e+02
8.089935e+02,8.769412e+02
8.099577e+02,8.744485e+02
8.109219e+02,8.715186e+02
8.118862e+02,8.698783e+02
8.128504e+02,8.695375e+02
8.138146e+02,8.714240e+02
8.147789e+02,8.763683e+02
8.157431e+02,8.807731e+02
8.167073e+02,8.816946e+02
8.176716e+02,8.787980e+02
8.186358e+02,8.770803e+02
8.196000e+02,8.776151e+02
8.205643e+02,8.782125e+02
8.215285e+02,8.774814e+02
8.224927e+02,8.755147e+02
8.234570e+02,8.736453e+02
8.244212e+02,8.706003e+02
8.253854e+02,8.692053e+02
8.263497e+02,8.734850e+02
8.273139e+02,8.807829e+02
8.282781e+02,8.843688e+02
8.292424e+02,8.777062e+02
8.302066e+02,8.675607e+02
8.311708e+02,8.633257e+02
8.321351e+02,8.641837e+02
8.330993e+02,8.662978e+02
8.340635e+02,8.678640e+02
8.350278e+02,8.686583e+02
8.359920e+02,8.677510e+02
8.369562e+02,8.645793e+02
8.379205e+02,8.629802e+02
8.388847e+02,8.647843e+02
8.398489e+02,8.686243e+02
8.408132e+02,8.708569e+02
8.417774e+02,8.703073e+02
8.427416e+02,8.695062e+02
8.437059e+02,8.686351e+02
8.446701e+02,8.677255e+02
8.456343e+02,8.668859e+02
8.465986e+02,8.661147e+02
8.475628e+02,8.652198e+02
8.485270e+02,8.639491e+02
8.494913e+02,8.625920e+02
8.504555e+02,8.616371e+02
8.514197e+02,8.613089e+02
8.523840e+02,8.610961e+02
8.533482e+02,8.598248e+02
8.543124e+02,8.582786e+02
8.552767e+02,8.586898e+02
8.562409e+02,8.611888e+02
8.572051e+02,8.632031e+02
8.581694e+02,8.610032e+02
8.591336e+02,8.553439e+02
8.600978e+02,8.550068e+02
8.610621e+02,8.617182e+02
8.620263e+02,8.679547e+02
8.629905e+02,8.672360e+02
8.639548e+02,8.586783e+02
8.649190e+02,8.543663e+02
8.658832e+02,8.579884e+02
8.668475e+02,8.617701e+02
8.678117e+02,8.615666e+02
8.687759e+02,8.581942e+02
8.697402e+02,8.565231e+02
8.707044e+02,8.577803e+02
8.716686e+02,8.588422e+02
8.726329e+02,8.591798e+02
8.735971e+02,8.591309e+02
8.745613e+02,8.590369e+02
8.755256e+02,8.593308e+02
8.764898e+02,8.598128e+02
8.774540e+02,8.606231e+02
8.784183e+02,8.611360e+02
8.793825e+02,8.598650e+02
8.803467e+02,8.557487e+02
8.813110e+02,8.518959e+02
8.822752e+02,8.534453e+02
8.832394e+02,8.589755e+02
8.842037e+02,8.628340e+02
8.851679e+02,8.634255e+02
8.861321e+02,8.618953e+02
8.870964e+02,8.595440e+02
8.880606e+02,8.562424e+02
8.890248e+02,8.534984e+02
8.899891e+02,8.516445e+02
8.909533e+02,8.510491e+02
8.919175e+02,8.521732e+02
8.928818e+02,8.557103e+02
8.938460e+02,8.577886e+02
8.948102e+02,8.584025e+02
8.957745e+02,8.571130e+02
8.967387e+02,8.520599e+02
8.977029e+02,8.433406e+02
8.986672e+02,8.388898e+02
8.996314e+02,8.432468e+02
9.005956e+02,8.489433e+02
9.015599e+02,8.538646e+02
9.025241e+02,8.573907e+02
9.034883e+02,8.588425e+02
9.044526e+02,8.571468e+02
9.054168e+02,8.536578e+02
9.063810e+02,8.477039e+02
9.073453e+02,8.417841e+02
9.083095e+02,8.400267e+02
9.092737e+02,8.451772e+02
9.102380e+02,8.514877e+02
9.112022e+02,8.525164e+02
9.121664e+02,8.497430e+02
9.131307e+02,8.468864e+02
9.140949e+02,8.452625e+02
9.150591e+02,8.446440e+02
9.160234e+02,8.438917e+02
9.169876e+02,8.427146e+02
9.179518e+02,8.431385e+02
9.189161e+02,8.459444e+02
9.198803e+02,8.477195e+02
9.208445e+02,8.442157e+02
9.218088e+02,8.346481e+02
9.227730e+02,8.291367e+02
9.237372e+02,8.287643e+02
9.247015e+02,8.295568e+02
9.256657e+02,8.288272e+02
9.266299e+02,8.263917e+02
9.275942e+02,8.259276e+02
9.285584e+02,8.289662e+02
9.295226e+02,8.317798e+02
9.304869e+02,8.330340e+02
9.314511e+02,8.332474e+02
9.324153e+02,8.336835e+02
9.333796e+02,8.361927e+02
9.343438e+02,8.368555e+02
9.353080e+02,8.324756e+02
9.362723e+02,8.258902e+02
9.372365e+02,8.215020e+02
9.382007e+02,8.218991e+02
9.391650e+02,8.233760e+02
9.401292e+02,8.250856e+02
9.410934e+02,8.264150e+02
9.420577e+02,8.262312e+02
9.430219e+02,8.240961e+02
9.439861e+02,8.216713e+02
9.449504e+02,8.197161e+02
9.459146e+02,8.191218e+02
9.468788e+02,8.216075e+02
9.478431e+02,8.264630e+02
9.488073e+02,8.298865e+02
9.497715e+02,8.275680e+02
9.507358e+02,8.223839e+02
9.517000e+02,8.208467e+02
9.526642e+02,8.231096e+02
9.536285e+02,8.262881e+02
9.545927e+02,8.288129e+02
9.555569e+02,8.303997e+02
9.565212e+02,8.296719e+02
9.574854e+02,8.268402e+02
9.584496e+02,8.247787e+02
9.594139e+02,8.244219e+02
9.603781e+02,8.247665e+02
9.613423e+02,8.237469e+02
9.623066e+02,8.210203e+02
9.632708e+02,8.187267e+02
9.642350e+02,8.173444e+02
9.651993e+02,8.169424e+02
9.661635e+02,8.173917e+02
9.671277e+02,8.187487e+02
9.680920e+02,8.202363e+02
9.690562e+02,8.229760e+02
9.700204e+02,8.244902e+02
9.709847e+02,8.227061e+02
9.719489e+02,8.169357e+02
9.729131e+02,8.128231e+02
9.738774e+02,8.103527e+02
9.748416e+02,8.098831e+02
9.758058e+02,8.125244e+02
9.767701e+02,8.172438e+02
9.777343e+02,8.199421e+02
9.786985e+02,8.179539e+02
9.796628e+02,8.159318e+02
9.806270e+02,8.170865e+02
9.815912e+02,8.190131e+02
9.825555e+02,8.174914e+02
9.835197e+02,8.072056e+02
9.844839e+02,7.999677e+02
9.854482e+02,8.034571e+02
9.864124e+02,8.113209e+02
9.873766e+02,8.163718e+02
9.883409e+02,8.168047e+02
9.893051e+02,8.155408e+02
9.902693e+02,8.130090e+02
9.912336e+02,8.105724e+02
9.921978e+02,8.094949e+02
9.931620e+02,8.096237e+02
9.941263e+02,8.101620e+02
9.950905e+02,8.103958e+02
9.960547e+02,8.110214e+02
9.970190e+02,8.138621e+02
9.979832e+02,8.180074e+02
9.989474e+02,8.201716e+02
9.999117e+02,8.177391e+02
1.000876e+03,8.138199e+02
1.001840e+03,8.136935e+02
1.002804e+03,8.163271e+02
1.003769e+03,8.172560e+02
1.004733e+03,8.143434e+02
1.005697e+03,8.103323e+02
1.006661e+03,8.100273e+02
1.007626e+03,8.125143e+02
1.008590e+03,8.132551e+02
1.009554e+03,8.112137e+02
1.010518e+03,8.078065e+02
1.011482e+03,8.040589e+02
1.012447e+03,8.002443e+02
1.013411e+03,7.991878e+02
1.014375e+03,8.015574e+02
1.015339e+03,8.044489e+02
1.016304e+03,8.056915e+02
1.017268e+03,8.054201e+02
1.018232e+03,8.045598e+02
1.019196e+03,8.028254e+02
1.020161e+03,8.019295e+02
1.021125e+03,8.028873e+02
1.022089e+03,8.052192e+02
1.023053e+03,8.070764e+02
1.024018e+03,8.080609e+02
1.024982e+03,8.092029e+02
1.025946e+03,8.110377e+02
1.026910e+03,8.118987e+02
1.027875e+03,8.095565e+02
1.028839e+03,8.028203e+02
1.029803e+03,7.991399e+02
1.030767e+03,7.996061e+02
1.031731e+03,8.014548e+02
1.032696e+03,8.027565e+02
1.033660e+03,8.034137e+02
1.034624e+03,8.040027e+02
1.035588e+03,8.054424e+02
1.036552e+03,8.056590e+02
1.037517e+03,8.024578e+02
1.038481e+03,7.970979e+02
1.039445e+03,7.954071e+02
1.040409e+03,8.004989e+02
1.041374e+03,8.041428e+02
1.042338e+03,8.046763e+02
1.043302e+03,8.036809e+02
1.044266e+03,8.030070e+02
1.045231e+03,8.028347e+02
1.046195e+03,8.024450e+02
1.047159e+03,8.025639e+02
1.048123e+03,8.021777e+02
1.049088e+03,7.999150e+02
1.050052e+03,7.954375e+02
1.051016e+03,7.938879e+02
1.051980e+03,7.983248e+02
1.052945e+03,8.023317e+02
1.053909e+03,8.024893e+02
1.054873e+03,7.995941e+02
1.055837e+03,7.981188e+02
1.056802e+03,8.003155e+02
1.057766e+03,8.020347e+02
1.058730e+03,8.029682e+02
1.059694e+03,8.029972e+02
1.060658e+03,8.017305e+02
1.061623e+03,7.982419e+02
1.062587e+03,7.955880e+02
1.063551e+03,7.938195e+02
1.064515e+03,7.933000e+02
1.065479e+03,7.949125e+02
1.066444e+03,7.990867e+02
1.067408e+03,8.012388e+02
1.068372e+03,7.985024e+02
1.069336e+03,7.957946e+02
1.070301e+03,7.942383e+02
1.071265e+03,7.939592e+02
1.072229e+03,7.956635e+02
1.073193e+03,8.040892e+02
1.074158e+03,8.089376e+02
1.075122e+03,8.045941e+02
1.076086e+03,7.966087e+02
1.077050e+03,7.917823e+02
1.078015e+03,7.924215e+02
1.078979e+03,7.944471e+02
1.079943e+03,7.981053e+02
1.080907e+03,8.017753e+02
1.081872e+03,8.040207e+02
1.082836e+03,8.045016e+02
1.083800e+03,8.047090e+02
1.084764e+03,8.038457e+02
1.085729e+03,8.043330e+02
1.086693e+03,8.077208e+02
1.087657e+03,8.131185e+02
1.088621e+03,8.183560e+02
1.089585e+03,8.243544e+02
1.090550e+03,8.280840e+02
1.091514e+03,8.288185e+02
1.092478e+03,8.275822e+02
1.093442e+03,8.251376e+02
1.094406e+03,8.212717e+02
1.095371e+03,8.174560e+02
1.096335e+03,8.122032e+02
1.097299e+03,8.082384e+02
1.098263e+03,8.087078e+02
1.099228e+03,8.132013e+02
1.100192e+03,8.144675e+02
1.101156e+03,8.077011e+02
1.102120e+03,8.011335e+02
1.103085e+03,7.978112e+02
1.104049e+03,7.969634e+02
1.105013e+03,7.968167e+02
1.105977e+03,7.979562e+02
1.106942e+03,7.988159e+02
1.107906e+03,7.988138e+02
1.108870e+03,7.987346e+02
1.109834e+03,7.992112e+02
1.110799e+03,8.003281e+02
1.111763e+03,8.019312e+02
1.112727e+03,8.057619e+02
1.113691e+03,8.086602e+02
1.114656e+03,8.080715e+02
1.115620e+03,8.045734e+02
1.116584e+03,8.026751e+02
1.117548e+03,8.032723e+02
1.118512e+03,8.040992e+02
1.119477e+03,8.047337e+02
1.120441e+03,8.053564e+02
1.121405e+03,8.063837e+02
1.122369e+03,8.095088e+02
1.123334e+03,8.105232e+02
1.124298e+03,8.089000e+02
1.125262e+03,8.058902e+02
1.126226e+03,8.017272e+02
1.127191e+03,7.960374e+02
1.128155e+03,7.931691e+02
1.129119e+03,7.951018e+02
1.130083e+03,7.967478e+02
1.131047e+03,7.958997e+02
1.132012e+03,7.931904e+02
1.132976e+03,7.913975e+02
1.133940e+03,7.916969e+02
1.134904e+03,7.902684e+02
1.135869e+03,7.852819e+02
1.136833e+03,7.802500e+02
1.137797e+03,7.794105e+02
1.138761e+03,7.845223e+02
1.139726e+03,7.881026e+02
1.140690e+03,7.896707e+02
1.141654e+03,7.903290e+02
1.142618e+03,7.905131e+02
1.143583e+03,7.903183e+02
1.144547e+03,7.898254e+02
1.145511e+03,7.885466e+02
1.146475e+03,7.890304e+02
1.147439e+03,7.927234e+02
1.148404e+03,7.974074e+02
1.149368e+03,7.986449e+02
1.150332e+03,7.960036e+02
1.151296e+03,7.931283e+02
1.152261e+03,7.898259e+02
1.153225e+03,7.866195e+02
1.154189e+03,7.847594e+02
1.155153e+03,7.843323e+02
1.156118e+03,7.834377e+02
1.157082e+03,7.823410e+02
1.158046e+03,7.804638e+02
1.159010e+03,7.769569e+02
1.159974e+03,7.728759e+02
1.160939e+03,7.705447e+02
1.161903e+03,7.696041e+02
1.162867e+03,7.686317e+02
1.163831e+03,7.672689e+02
1.164796e+03,7.663249e+02
1.165760e+03,7.680597e+02
1.166724e+03,7.709704e+02
1.167688e+03,7.699109e+02
1.168653e+03,7.653022e+02
1.169617e+03,7.612589e+02
1.170581e+03,7.605941e+02
1.171545e+03,7.617784e+02
1.172510e+03,7.632940e+02
1.173474e+03,7.648118e+02
1.174438e+03,7.650578e+02
1.175402e+03,7.633503e+02
1.176366e+03,7.618112e+02
1.177331e+03,7.629703e+02
1.178295e+03,7.651815e+02
1.179259e+03,7.664160e+02
1.180223e+03,7.663534e+02
1.181188e+03,7.655217e+02
1.182152e+03,7.633388e+02
1.183116e+03,7.614225e+02
1.184080e+03,7.617045e+02
1.185045e+03,7.631697e+02
1.186009e+03,7.636787e+02
1.186973e+03,7.620253e+02
1.187937e+03,7.611476e+02
1.188901e+03,7.630051e+02
1.189866e+03,7.653375e+02
1.190830e+03,7.662647e+02
1.191794e+03,7.654118e+02
1.192758e+03,7.635969e+02
1.193723e+03,7.597941e+02
1.194687e+03,7.569587e+02
1.195651e+03,7.564774e+02
1.196615e+03,7.575997e+02
1.197580e+03,7.584541e+02
1.198544e+03,7.590848e+02
1.199508e+03,7.581721e+02
1.200472e+03,7.552010e+02
1.201437e+03,7.518619e+02
1.202401e+03,7.496100e+02
1.203365e+03,7.487081e+02
1.204329e+03,7.483469e+02
1.205293e+03,7.485026e+02
1.206258e+03,7.489810e+02
1.207222e+03,7.496036e+02
1.208186e+03,7.503406e+02
1.209150e+03,7.518418e+02
1.210115e+03,7.542011e+02
1.211079e+03,7.531849e+02
1.212043e+03,7.473348e+02
1.213007e+03,7.415635e+02
1.213972e+03,7.429935e+02
1.214936e+03,7.503041e+02
1.215900e+03,7.541853e+02
1.216864e+03,7.545524e+02
1.217828e+03,7.530728e+02
1.218793e+03,7.496771e+02
1.219757e+03,7.466256e+02
1.220721e+03,7.494205e+02
1.221685e+03,7.556257e+02
1.222650e+03,7.580729e+02
1.223614e+03,7.545211e+02
1.224578e+03,7.497647e+02
1.225542e+03,7.477751e+02
1.226507e+03,7.474626e+02
1.227471e+03,7.476731e+02
1.228435e+03,7.480507e+02
1.229399e+03,7.483608e+02
1.230364e+03,7.499716e+02
1.231328e+03,7.502709e+02
1.232292e+03,7.469694e+02
1.233256e+03,7.425102e+02
1.234220e+03,7.396273e+02
1.235185e+03,7.393672e+02
1.236149e+03,7.395833e+02
1.237113e+03,7.396015e+02
1.238077e+03,7.403702e+02
1.239042e+03,7.426191e+02
1.240006e+03,7.456956e+02
1.240970e+03,7.468809e+02
1.241934e+03,7.448343e+02
1.242899e+03,7.432410e+02
1.243863e+03,7.432828e+02
1.244827e+03,7.439680e+02
1.245791e+03,7.438777e+02
1.246755e+03,7.429216e+02
1.247720e+03,7.413965e+02
1.248684e+03,7.390153e+02
1.249648e+03,7.380822e+02
1.250612e+03,7.405058e+02
1.251577e+03,7.448866e+02
1.252541e+03,7.470035e+02
1.253505e+03,7.469403e+02
1.254469e+03,7.456176e+02
1.255434e+03,7.432653e+02
1.256398e+03,7.414108e+02
1.257362e+03,7.420487e+02
1.258326e+03,7.439303e+02
1.259291e+03,7.457138e+02
1.260255e+03,7.468480e+02
1.261219e+03,7.459553e+02
1.262183e+03,7.400972e+02
1.263147e+03,7.348377e+02
1.264112e+03,7.347364e+02
1.265076e+03,7.376862e+02
1.266040e+03,7.407303e+02
1.267004e+03,7.434947e+02
1.267969e+03,7.452167e+02
1.268933e+03,7.453702e+02
1.269897e+03,7.453152e+02
1.270861e+03,7.450496e+02
1.271826e+03,7.441709e+02
1.272790e+03,7.438527e+02
1.273754e+03,7.445427e+02
1.274718e+03,7.456075e+02
1.275682e+03,7.476156e+02
1.276647e+03,7.498165e+02
1.277611e+03,7.511851e+02
1.278575e+03,7.516967e+02
1.279539e+03,7.503525e+02
1.280504e+03,7.472636e+02
1.281468e+03,7.443991e+02
1.282432e+03,7.424060e+02
1.283396e+03,7.415590e+02
1.284361e+03,7.435258e+02
1.285325e+03,7.472494e+02
1.286289e+03,7.487469e+02
1.287253e+03,7.469007e+02
1.288218e+03,7.443226e+02
1.289182e+03,7.433441e+02
1.290146e+03,7.433562e+02
1.291110e+03,7.441680e+02
1.292074e+03,7.454665e+02
1.293039e+03,7.460858e+02
1.294003e+03,7.452471e+02
1.294967e+03,7.436143e+02
1.295931e+03,7.411201e+02
1.296896e+03,7.386104e+02
1.297860e+03,7.366895e+02
1.298824e+03,7.351548e+02
1.299788e+03,7.349149e+02
1.300753e+03,7.376146e+02
1.301717e+03,7.389750e+02
1.302681e+03,7.365428e+02
1.303645e+03,7.320287e+02
1.304609e+03,7.307172e+02
1.305574e+03,7.329672e+02
1.306538e+03,7.338676e+02
1.307502e+03,7.329874e+02
1.308466e+03,7.315053e+02
1.309431e+03,7.297426e+02
1.310395e+03,7.281837e+02
1.311359e+03,7.288779e+02
1.312323e+03,7.310839e+02
1.313288e+03,7.326316e+02
1.314252e+03,7.326829e+02
1.315216e+03,7.328715e+02
1.316180e+03,7.345912e+02
1.317145e+03,7.371350e+02
1.318109e+03,7.398553e+02
1.319073e+03,7.422717e+02
1.320037e+03,7.431901e+02
1.321001e+03,7.416865e+02
1.321966e+03,7.392200e+02
1.322930e+03,7.357547e+02
1.323894e+03,7.324119e+02
1.324858e+03,7.306478e+02
1.325823e+03,7.309080e+02
1.326787e+03,7.317109e+02
1.327751e+03,7.330386e+02
1.328715e+03,7.342719e+02
1.329680e+03,7.349455e+02
1.330644e+03,7.354174e+02
1.331608e+03,7.374527e+02
1.332572e+03,7.408242e+02
1.333536e+03,7.435016e+02
1.334501e+03,7.448232e+02
1.335465e+03,7.450867e+02
1.336429e+03,7.447427e+02
1.337393e+03,7.440266e+02
1.338358e+03,7.431451e+02
1.339322e+03,7.420645e+02
1.340286e+03,7.405753e+02
1.341250e+03,7.377975e+02
1.342215e+03,7.354709e+02
1.343179e+03,7.349682e+02
1.344143e+03,7.356789e+02
1.345107e+03,7.366722e+02
1.346072e+03,7.378604e+02
1.347036e+03,7.379457e+02
1.348000e+03,7.360231e+02
1.348964e+03,7.343221e+02
1.349928e+03,7.341897e+02
1.350893e+03,7.348281e+02
1.351857e+03,7.333243e+02
1.352821e+03,7.296685e+02
1.353785e+03,7.283010e+02
1.354750e+03,7.296998e+02
1.355714e+03,7.311059e+02
1.356678e+03,7.301041e+02
1.357642e+03,7.284031e+02
1.358607e+03,7.284202e+02
1.359571e+03,7.292813e+02
1.360535e+03,7.290399e+02
1.361499e+03,7.265921e+02
1.362464e+03,7.249532e+02
1.363428e+03,7.262237e+02
1.364392e+03,7.284196e+02
1.365356e+03,7.300758e+02
1.366320e+03,7.307601e+02
1.367285e+03,7.304808e+02
1.368249e+03,7.290040e+02
1.369213e+03,7.278679e+02
1.370177e+03,7.272762e+02
1.371142e+03,7.272872e+02
1.372106e+03,7.282286e+02
1.373070e+03,7.299445e+02
1.374034e+03,7.318107e+02
1.374999e+03,7.337695e+02
1.375963e+03,7.338030e+02
1.376927e+03,7.298253e+02
1.377891e+03,7.257196e+02
1.378855e+03,7.263487e+02
1.379820e+03,7.287062e+02
1.380784e+03,7.290983e+02
1.381748e+03,7.271783e+02
1.382712e+03,7.248593e+02
1.383677e+03,7.198286e+02
1.384641e+03,7.172854e+02
1.385605e+03,7.209578e+02
1.386569e+03,7.266629e+02
1.387534e+03,7.279922e+02
1.388498e+03,7.242045e+02
1.389462e+03,7.202523e+02
1.390426e+03,7.159521e+02
1.391391e+03,7.126887e+02
1.392355e+03,7.122239e+02
1.393319e+03,7.127408e+02
1.394283e+03,7.088077e+02
1.395247e+03,7.029183e+02
1.396212e+03,7.018233e+02
1.397176e+03,7.072923e+02
1.398140e+03,7.127462e+02
1.399104e+03,7.144901e+02
1.400069e+03,7.144545e+02
1.401033e+03,7.121412e+02
1.401997e+03,7.092200e+02
1.402961e+03,7.102899e+02
1.403926e+03,7.192631e+02
1.404890e+03,7.228856e+02
1.405854e+03,7.189979e+02
1.406818e+03,7.140118e+02
1.407782e+03,7.125186e+02
1.408747e+03,7.138848e+02
1.409711e+03,7.157665e+02
1.410675e+03,7.175012e+02
1.411639e+03,7.178840e+02
1.412604e+03,7.166293e+02
1.413568e+03,7.144449e+02
1.414532e+03,7.109509e+02
1.415496e+03,7.080192e+02
1.416461e+03,7.077621e+02
1.417425e+03,7.091654e+02
1.418389e+03,7.089635e+02
1.419353e+03,7.046586e+02
1.420318e+03,7.018806e+02
1.421282e+03,7.021569e+02
1.422246e+03,7.027708e+02
1.423210e+03,7.011330e+02
1.424174e+03,6.978284e+02
1.425139e+03,6.962673e+02
1.426103e+03,6.961082e+02
1.427067e+03,6.961477e+02
1.428031e+03,6.960717e+02
1.428996e+03,6.959992e+02
1.429960e+03,6.962482e+02
1.430924e+03,6.961302e+02
1.431888e+03,6.949642e+02
1.432853e+03,6.928317e+02
1.433817e+03,6.902025e+02
1.434781e+03,6.848906e+02
1.435745e+03,6.830018e+02
1.436709e+03,6.865703e+02
1.437674e+03,6.911332e+02
1.438638e+03,6.932135e+02
1.439602e+03,6.931500e+02
1.440566e+03,6.916336e+02
1.441531e+03,6.888503e+02
1.442495e+03,6.877249e+02
1.443459e+03,6.895099e+02
1.444423e+03,6.917444e+02
1.445388e+03,6.925259e+02
1.446352e+03,6.918591e+02
1.447316e+03,6.891780e+02
1.448280e+03,6.852842e+02
1.449245e+03,6.828964e+02
1.450209e+03,6.828357e+02
1.451173e+03,6.842375e+02
1.452137e+03,6.878293e+02
1.453101e+03,6.907096e+02
1.454066e+03,6.899841e+02
1.455030e+03,6.862443e+02
1.455994e+03,6.835795e+02
1.456958e+03,6.820294e+02
1.457923e+03,6.821719e+02
1.458887e+03,6.843454e+02
1.459851e+03,6.868181e+02
1.460815e+03,6.886862e+02
1.461780e+03,6.894801e+02
1.462744e+03,6.886769e+02
1.463708e+03,6.867096e+02
1.464672e+03,6.855369e+02
1.465636e+03,6.862584e+02
1.466601e+03,6.864622e+02
1.467565e+03,6.857175e+02
1.468529e+03,6.846853e+02
1.469493e+03,6.835485e+02
1.470458e+03,6.823707e+02
1.471422e+03,6.817084e+02
1.472386e+03,6.819746e+02
1.473350e+03,6.848071e+02
1.474315e+03,6.916678e+02
1.475279e+03,6.967850e+02
1.476243e+03,6.959651e+02
1.477207e+03,6.923273e+02
1.478172e+03,6.870272e+02
1.479136e+03,6.810934e+02
1.480100e+03,6.779995e+02
1.481064e+03,6.784660e+02
1.482028e+03,6.795547e+02
1.482993e+03,6.812305e+02
1.483957e+03,6.822786e+02
1.484921e+03,6.803105e+02
1.485885e+03,6.774242e+02
1.486850e+03,6.783303e+02
1.487814e+03,6.811698e+02
1.488778e+03,6.822408e+02
1.489742e+03,6.802411e+02
1.490707e+03,6.775826e+02
1.491671e+03,6.741129e+02
1.492635e+03,6.719872e+02
1.493599e+03,6.718513e+02
1.494563e+03,6.733051e+02
1.495528e+03,6.769012e+02
1.496492e+03,6.823087e+02
1.497456e+03,6.820088e+02
1.498420e+03,6.755391e+02
1.499385e+03,6.696038e+02
1.500349e+03,6.701419e+02
1.501313e+03,6.726501e+02
1.502277e+03,6.735990e+02
1.503242e+03,6.734905e+02
1.504206e+03,6.731119e+02
1.505170e+03,6.724362e+02
1.506134e+03,6.714514e+02
1.507099e+03,6.701489e+02
1.508063e+03,6.687112e+02
1.509027e+03,6.671118e+02
1.509991e+03,6.656332e+02
1.510955e+03,6.652348e+02
1.511920e+03,6.652213e+02
1.512884e+03,6.637284e+02
1.513848e+03,6.611614e+02
1.514812e+03,6.595329e+02
1.515777e+03,6.602232e+02
1.516741e+03,6.605213e+02
1.517705e+03,6.581700e+02
1.518669e+03,6.561194e+02
1.519634e+03,6.573375e+02
1.520598e+03,6.614823e+02
1.521562e+03,6.639644e+02
1.522526e+03,6.646652e+02
1.523490e+03,6.647105e+02
1.524455e+03,6.644022e+02
1.525419e+03,6.644820e+02
1.526383e+03,6.671824e+02
1.527347e+03,6.693751e+02
1.528312e+03,6.672745e+02
1.529276e+03,6.624777e+02
1.530240e+03,6.611872e+02
1.531204e+03,6.652650e+02
1.532169e+03,6.672901e+02
1.533133e+03,6.663729e+02
1.534097e+03,6.650035e+02
1.535061e+03,6.652412e+02
1.536026e+03,6.659033e+02
1.536990e+03,6.645101e+02
1.537954e+03,6.622773e+02
1.538918e+03,6.618181e+02
1.539882e+03,6.640663e+02
1.540847e+03,6.646614e+02
1.541811e+03,6.594943e+02
1.542775e+03,6.561114e+02
1.543739e+03,6.574077e+02
1.544704e+03,6.611073e+02
1.545668e+03,6.643332e+02
1.546632e+03,6.666283e+02
1.547596e+03,6.641281e+02
1.548561e+03,6.576480e+02
1.549525e+03,6.531493e+02
1.550489e+03,6.548123e+02
1.551453e+03,6.573671e+02
1.552417e+03,6.590299e+02
1.553382e+03,6.599600e+02
1.554346e+03,6.603546e+02
1.555310e+03,6.604213e+02
1.556274e+03,6.612343e+02
1.557239e+03,6.626840e+02
1.558203e+03,6.623486e+02
1.559167e+03,6.595067e+02
1.560131e+03,6.572952e+02
1.561096e+03,6.603801e+02
1.562060e+03,6.636503e+02
1.563024e+03,6.620958e+02
1.563988e+03,6.575832e+02
1.564953e+03,6.545657e+02
1.565917e+03,6.528859e+02
1.566881e+03,6.542526e+02
1.567845e+03,6.590441e+02
1.568809e+03,6.629002e+02
1.569774e+03,6.632005e+02
1.570738e+03,6.621512e+02
1.571702e+03,6.631763e+02
1.572666e+03,6.643646e+02
1.573631e+03,6.625599e+02
1.574595e+03,6.577274e+02
1.575559e+03,6.555497e+02
1.576523e+03,6.580999e+02
1.577488e+03,6.592756e+02
1.578452e+03,6.573348e+02
1.579416e+03,6.545966e+02
1.580380e+03,6.533943e+02
1.581344e+03,6.535185e+02
1.582309e+03,6.551985e+02
1.583273e+03,6.578697e+02
1.584237e+03,6.600750e+02
1.585201e+03,6.614260e+02
1.586166e+03,6.623189e+02
1.587130e+03,6.633455e+02
1.588094e+03,6.621964e+02
1.589058e+03,6.570268e+02
1.590023e+03,6.510740e+02
1.590987e+03,6.516443e+02
1.591951e+03,6.562444e+02
1.592915e+03,6.584017e+02
1.593880e+03,6.573243e+02
1.594844e+03,6.557560e+02
1.595808e+03,6.549085e+02
1.596772e+03,6.538005e+02
1.597736e+03,6.524467e+02
1.598701e+03,6.509351e+02
1.599665e+03,6.487673e+02
1.600629e+03,6.464890e+02
1.601593e+03,6.472441e+02
1.602558e+03,6.498472e+02
1.603522e+03,6.503074e+02
1.604486e+03,6.469627e+02
1.605450e+03,6.443605e+02
1.606415e+03,6.471544e+02
1.607379e+03,6.477784e+02
1.608343e+03,6.412543e+02
1.609307e+03,6.332997e+02
1.610271e+03,6.361822e+02
1.611236e+03,6.467962e+02
1.612200e+03,6.509548e+02
1.613164e+03,6.488467e+02
1.614128e+03,6.463164e+02
1.615093e+03,6.462763e+02
1.616057e+03,6.460754e+02
1.617021e+03,6.448600e+02
1.617985e+03,6.426977e+02
1.618950e+03,6.392366e+02
1.619914e+03,6.353007e+02
1.620878e+03,6.344053e+02
1.621842e+03,6.359220e+02
1.622807e+03,6.374818e+02
1.623771e+03,6.387167e+02
1.624735e+03,6.386414e+02
1.625699e+03,6.334938e+02
1.626663e+03,6.306725e+02
1.627628e+03,6.341100e+02
1.628592e+03,6.389052e+02
1.629556e+03,6.392570e+02
1.630520e+03,6.361749e+02
1.631485e+03,6.327800e+02
1.632449e+03,6.296379e+02
1.633413e+03,6.294729e+02
1.634377e+03,6.355594e+02
1.635342e+03,6.391155e+02
1.636306e+03,6.334457e+02
1.637270e+03,6.284594e+02
1.638234e+03,6.289250e+02
1.639198e+03,6.325594e+02
1.640163e+03,6.340803e+02
1.641127e+03,6.339388e+02
1.642091e+03,6.326719e+02
1.643055e+03,6.303298e+02
1.644020e+03,6.283536e+02
1.644984e+03,6.278143e+02
1.645948e+03,6.267278e+02
1.646912e+03,6.245925e+02
1.647877e+03,6.223630e+02
1.648841e+03,6.203965e+02
1.649805e+03,6.193055e+02
1.650769e+03,6.224105e+02
1.651734e+03,6.275457e+02
1.652698e+03,6.288218e+02
1.653662e+03,6.237667e+02
1.654626e+03,6.211234e+02
1.655590e+03,6.259236e+02
1.656555e+03,6.283173e+02
1.657519e+03,6.252234e+02
1.658483e+03,6.206116e+02
1.659447e+03,6.202170e+02
1.660412e+03,6.214479e+02
1.661376e+03,6.186434e+02
1.662340e+03,6.135814e+02
1.663304e+03,6.120151e+02
1.664269e+03,6.192856e+02
1.665233e+03,6.230338e+02
1.666197e+03,6.222720e+02
1.667161e+03,6.199788e+02
1.668125e+03,6.172716e+02
1.669090e+03,6.153036e+02
1.670054e+03,6.174017e+02
1.671018e+03,6.204735e+02
1.671982e+03,6.200665e+02
1.672947e+03,6.159958e+02
1.673911e+03,6.132555e+02
1.674875e+03,6.119910e+02
1.675839e+03,6.102806e+02
1.676804e+03,6.079152e+02
1.677768e+03,6.081833e+02
1.678732e+03,6.178101e+02
1.679696e+03,6.269868e+02
1.680661e+03,6.243212e+02
1.681625e+03,6.162937e+02
1.682589e+03,6.132504e+02
1.683553e+03,6.159236e+02
1.684517e+03,6.151709e+02
1.685482e+03,6.111027e+02
1.686446e+03,6.103185e+02
1.687410e+03,6.154578e+02
1.688374e+03,6.202488e+02
1.689339e+03,6.201183e+02
1.690303e+03,6.177802e+02
1.691267e+03,6.134569e+02
1.692231e+03,6.091859e+02
1.693196e+03,6.088546e+02
1.694160e+03,6.115090e+02
1.695124e+03,6.112880e+02
1.696088e+03,6.085354e+02
1.697052e+03,6.060414e+02
1.698017e+03,6.040648e+02
1.698981e+03,6.034788e+02
1.699945e+03,6.047592e+02
1.700909e+03,6.065414e+02
1.701874e+03,6.088928e+02
1.702838e+03,6.115680e+02
1.703802e+03,6.137670e+02
1.704766e+03,6.147621e+02
1.705731e+03,6.129681e+02
1.706695e+03,6.086646e+02
1.707659e+03,6.065345e+02
1.708623e+03,6.089408e+02
1.709588e+03,6.098043e+02
1.710552e+03,6.078514e+02
1.711516e+03,6.050699e+02
1.712480e+03,6.023989e+02
1.713444e+03,6.007871e+02
1.714409e+03,6.029266e+02
1.715373e+03,6.063425e+02
1.716337e+03,6.065168e+02
1.717301e+03,6.034652e+02
1.718266e+03,6.049845e+02
1.719230e+03,6.106940e+02
1.720194e+03,6.101932e+02
1.721158e+03,5.996432e+02
1.722123e+03,5.908355e+02
1.723087e+03,5.942635e+02
1.724051e+03,5.996396e+02
1.725015e+03,6.032555e+02
1.725979e+03,6.044206e+02
1.726944e+03,5.998810e+02
1.727908e+03,5.918866e+02
1.728872e+03,5.905618e+02
1.729836e+03,5.944631e+02
1.730801e+03,5.981459e+02
1.731765e+03,6.005924e+02
1.732729e+03,6.003643e+02
1.733693e+03,5.959562e+02
1.734658e+03,5.934856e+02
1.735622e+03,5.965305e+02
1.736586e+03,6.004998e+02
1.737550e+03,5.974208e+02
1.738515e+03,5.923495e+02
1.739479e+03,5.915587e+02
1.740443e+03,5.948918e+02
1.741407e+03,5.981088e+02
1.742371e+03,6.015371e+02
1.743336e+03,6.006427e+02
1.744300e+03,5.951853e+02
1.745264e+03,5.903792e+02
1.746228e+03,5.897388e+02
1.747193e+03,5.912449e+02
1.748157e+03,5.965715e+02
1.749121e+03,6.014343e+02
1.750085e+03,6.018229e+02
1.751050e+03,5.987873e+02
1.752014e+03,5.973621e+02
1.752978e+03,5.972026e+02
1.753942e+03,5.971934e+02
1.754906e+03,5.970229e+02
1.755871e+03,5.967418e+02
1.756835e+03,5.971758e+02
1.757799e+03,5.936166e+02
1.758763e+03,5.850144e+02
1.759728e+03,5.778094e+02
1.760692e+03,5.798532e+02
1.761656e+03,5.842540e+02
1.762620e+03,5.829709e+02
1.763585e+03,5.800745e+02
1.764549e+03,5.825487e+02
1.765513e+03,5.899855e+02
1.766477e+03,5.913401e+02
1.767442e+03,5.877718e+02
1.768406e+03,5.858214e+02
1.769370e+03,5.880204e+02
1.770334e+03,5.882200e+02
1.771298e+03,5.792990e+02
1.772263e+03,5.735088e+02
1.773227e+03,5.748116e+02
1.774191e+03,5.796265e+02
1.775155e+03,5.850321e+02
1.776120e+03,5.892892e+02
1.777084e+03,5.893353e+02
1.778048e+03,5.862296e+02
1.779012e+03,5.828199e+02
1.779977e+03,5.793226e+02
1.780941e+03,5.762114e+02
1.781905e+03,5.732689e+02
1.782869e+03,5.726446e+02
1.783833e+03,5.765233e+02
1.784798e+03,5.792686e+02
1.785762e+03,5.742473e+02
1.786726e+03,5.710812e+02
1.787690e+03,5.753217e+02
1.788655e+03,5.828458e+02
1.789619e+03,5.866299e+02
1.790583e+03,5.871838e+02
1.791547e+03,5.843477e+02
1.792512e+03,5.789540e+02
1.793476e+03,5.742180e+02
1.794440e+03,5.695814e+02
1.795404e+03,5.682418e+02
1.796369e+03,5.702514e+02
1.797333e+03,5.730974e+02
1.798297e+03,5.759812e+02
1.799261e+03,5.782850e+02
1.800225e+03,5.802092e+02
1.801190e+03,5.799822e+02
1.802154e+03,5.759787e+02
1.803118e+03,5.701180e+02
1.804082e+03,5.678842e+02
1.805047e+03,5.682130e+02
1.806011e+03,5.684754e+02
1.806975e+03,5.683258e+02
1.807939e+03,5.683517e+02
1.808904e+03,5.685710e+02
1.809868e+03,5.683845e+02
1.810832e+03,5.678761e+02
1.811796e+03,5.676232e+02
1.812760e+03,5.681532e+02
1.813725e+03,5.687274e+02
1.814689e+03,5.698513e+02
1.815653e+03,5.697093e+02
1.816617e+03,5.659993e+02
1.817582e+03,5.607499e+02
1.818546e+03,5.612623e+02
1.819510e+03,5.649772e+02
1.820474e+03,5.664241e+02
1.821439e+03,5.647985e+02
1.822403e+03,5.629645e+02
1.823367e+03,5.606717e+02
1.824331e+03,5.614161e+02
1.825296e+03,5.657230e+02
1.826260e+03,5.693378e+02
1.827224e+03,5.694163e+02
1.828188e+03,5.681663e+02
1.829152e+03,5.645189e+02
1.830117e+03,5.619031e+02
1.831081e+03,5.642713e+02
1.832045e+03,5.690247e+02
1.833009e+03,5.691614e+02
1.833974e+03,5.667185e+02
1.834938e+03,5.644461e+02
1.835902e+03,5.625927e+02
1.836866e+03,5.608173e+02
1.837831e+03,5.590309e+02
1.838795e+03,5.576204e+02
1.839759e+03,5.568365e+02
1.840723e+03,5.584752e+02
1.841688e+03,5.679807e+02
1.842652e+03,5.734332e+02
1.843616e+03,5.689609e+02
1.844580e+03,5.625526e+02
1.845544e+03,5.639040e+02
1.846509e+03,5.684310e+02
1.847473e+03,5.681180e+02
1.848437e+03,5.644915e+02
1.849401e+03,5.598376e+02
1.850366e+03,5.545283e+02
1.851330e+03,5.503693e+02
1.852294e+03,5.476188e+02
1.853258e+03,5.475123e+02
1.854223e+03,5.506276e+02
1.855187e+03,5.530316e+02
1.856151e+03,5.510421e+02
1.857115e+03,5.511534e+02
1.858079e+03,5.551951e+02
1.859044e+03,5.592504e+02
1.860008e+03,5.590452e+02
1.860972e+03,5.574179e+02
1.861936e+03,5.572784e+02
1.862901e+03,5.573155e+02
1.863865e+03,5.550080e+02
1.864829e+03,5.504654e+02
1.865793e+03,5.477039e+02
1.866758e+03,5.463900e+02
1.867722e+03,5.445327e+02
1.868686e+03,5.408798e+02
1.869650e+03,5.417127e+02
1.870615e+03,5.483107e+02
1.871579e+03,5.521666e+02
1.872543e+03,5.510622e+02
1.873507e+03,5.501478e+02
1.874471e+03,5.559122e+02
1.875436e+03,5.585730e+02
1.876400e+03,5.522098e+02
1.877364e+03,5.441302e+02
1.878328e+03,5.437881e+02
1.879293e+03,5.467545e+02
1.880257e+03,5.434749e+02
1.881221e+03,5.369418e+02
1.882185e+03,5.339545e+02
1.883150e+03,5.349528e+02
1.884114e+03,5.381874e+02
1.885078e+03,5.428664e+02
1.886042e+03,5.437808e+02
1.887006e+03,5.387090e+02
1.887971e+03,5.358531e+02
1.888935e+03,5.399921e+02
1.889899e+03,5.415912e+02
1.890863e+03,5.377026e+02
1.891828e+03,5.332225e+02
1.892792e+03,5.334207e+02
1.893756e+03,5.352101e+02
1.894720e+03,5.379250e+02
1.895685e+03,5.403202e+02
1.896649e+03,5.395692e+02
1.897613e+03,5.370546e+02
1.898577e+03,5.394164e+02
1.899542e+03,5.441292e+02
1.900506e+03,5.454067e+02
1.901470e+03,5.420597e+02
1.902434e+03,5.367780e+02
1.903398e+03,5.298517e+02
1.904363e+03,5.271222e+02
1.905327e+03,5.303948e+02
1.906291e+03,5.346030e+02
1.907255e+03,5.383706e+02
1.908220e+03,5.402468e+02
1.909184e+03,5.397948e+02
1.910148e+03,5.380757e+02
1.911112e+03,5.349437e+02
1.912077e+03,5.328156e+02
1.913041e+03,5.356101e+02
1.914005e+03,5.388264e+02
1.914969e+03,5.372649e+02
1.915933e+03,5.324858e+02
1.916898e+03,5.295123e+02
1.917862e+03,5.279953e+02
1.918826e+03,5.271871e+02
1.919790e+03,5.271446e+02
1.920755e+03,5.262780e+02
1.921719e+03,5.243917e+02
1.922683e+03,5.245801e+02
1.923647e+03,5.277479e+02
1.924612e+03,5.286492e+02
1.925576e+03,5.201961e+02
1.926540e+03,5.180955e+02
1.927504e+03,5.252955e+02
1.928469e+03,5.329906e+02
1.929433e+03,5.332330e+02
1.930397e+03,5.311411e+02
1.931361e+03,5.302727e+02
1.932325e+03,5.288665e+02
1.933290e+03,5.249321e+02
1.934254e+03,5.206303e+02
1.935218e+03,5.212739e+02
1.936182e+03,5.238099e+02
1.937147e+03,5.230544e+02
1.938111e+03,5.196863e+02
1.939075e+03,5.219594e+02
1.940039e+03,5.288324e+02
1.941004e+03,5.318555e+02
1.941968e+03,5.295425e+02
1.942932e+03,5.252781e+02
1.943896e+03,5.186269e+02
1.944860e+03,5.149791e+02
1.945825e+03,5.151710e+02
1.946789e+03,5.165359e+02
1.947753e+03,5.171015e+02
1.948717e+03,5.181561e+02
1.949682e+03,5.210854e+02
1.950646e+03,5.227551e+02
1.951610e+03,5.205995e+02
1.952574e+03,5.173452e+02
1.953539e+03,5.176367e+02
1.954503e+03,5.182946e+02
1.955467e+03,5.151923e+02
1.956431e+03,5.107104e+02
1.957396e+03,5.122590e+02
1.958360e+03,5.168290e+02
1.959324e+03,5.161558e+02
1.960288e+03,5.112516e+02
1.961252e+03,5.119400e+02
1.962217e+03,5.190541e+02
1.963181e+03,5.219733e+02
1.964145e+03,5.202924e+02
1.965109e+03,5.168110e+02
1.966074e+03,5.101801e+02
1.967038e+03,5.081976e+02
1.968002e+03,5.116532e+02
1.968966e+03,5.143345e+02
1.969931e+03,5.134274e+02
1.970895e+03,5.109161e+02
1.971859e+03,5.074965e+02
1.972823e+03,5.050895e+02
1.973787e+03,5.044106e+02
1.974752e+03,5.044183e+02
1.975716e+03,5.029948e+02
1.976680e+03,5.021927e+02
1.977644e+03,5.063935e+02
1.978609e+03,5.122592e+02
1.979573e+03,5.132573e+02
1.980537e+03,5.108306e+02
1.981501e+03,5.104660e+02
1.982466e+03,5.115147e+02
1.983430e+03,5.114678e+02
1.984394e+03,5.100389e+02
1.985358e+03,5.068185e+02
1.986323e+03,5.021872e+02
1.987287e+03,4.989375e+02
1.988251e+03,4.978853e+02
1.989215e+03,4.983502e+02
1.990179e+03,5.007832e+02
1.991144e+03,5.013354e+02
1.992108e+03,4.990190e+02
1.993072e+03,4.976021e+02
1.994036e+03,5.014754e+02
1.995001e+03,5.033948e+02
1.995965e+03,5.008431e+02
1.996929e+03,4.981820e+02
1.997893e+03,5.002484e+02
1.998858e+03,5.027509e+02
1.999822e+03,5.009908e+02
2.000786e+03,4.987545e+02
2.001750e+03,5.004183e+02
2.002714e+03,5.038602e+02
2.003679e+03,5.030779e+02
2.004643e+03,4.999204e+02
2.005607e+03,4.973715e+02
2.006571e+03,4.955869e+02
2.007536e+03,4.941188e+02
2.008500e+03,4.928102e+02
2.009464e+03,4.906302e+02
2.010428e+03,4.878192e+02
2.011393e+03,4.863820e+02
2.012357e+03,4.863315e+02
2.013321e+03,4.884492e+02
2.014285e+03,4.921706e+02
2.015250e+03,4.947748e+02
2.016214e+03,4.943788e+02
2.017178e+03,4.936641e+02
2.018142e+03,4.928395e+02
2.019106e+03,4.922597e+02
2.020071e+03,4.921024e+02
2.021035e+03,4.919556e+02
2.021999e+03,4.912879e+02
2.022963e+03,4.912736e+02
2.023928e+03,4.932143e+02
2.024892e+03,4.940251e+02
2.025856e+03,4.871244e+02
2.026820e+03,4.815617e+02
2.027785e+03,4.838650e+02
2.028749e+03,4.884086e+02
2.029713e+03,4.872404e+02
2.030677e+03,4.838667e+02
2.031641e+03,4.825055e+02
2.032606e+03,4.824827e+02
2.033570e+03,4.823416e+02
2.034534e+03,4.820919e+02
2.035498e+03,4.824101e+02
2.036463e+03,4.829729e+02
2.037427e+03,4.827680e+02
2.038391e+03,4.820396e+02
2.039355e+03,4.808043e+02
2.040320e+03,4.795485e+02
2.041284e+03,4.805414e+02
2.042248e+03,4.842194e+02
2.043212e+03,4.847858e+02
2.044177e+03,4.816586e+02
2.045141e+03,4.836231e+02
2.046105e+03,4.916722e+02
2.047069e+03,4.962805e+02
2.048033e+03,4.897544e+02
2.048998e+03,4.842740e+02
2.049962e+03,4.809506e+02
2.050926e+03,4.785270e+02
2.051890e+03,4.761905e+02
2.052854e+03,4.746745e+02
2.053819e+03,4.745097e+02
2.054783e+03,4.730799e+02
2.055747e+03,4.681540e+02
2.056711e+03,4.647011e+02
2.057676e+03,4.700193e+02
2.058640e+03,4.749900e+02
2.059604e+03,4.739747e+02
2.060568e+03,4.707943e+02
2.061533e+03,4.709752e+02
2.062497e+03,4.726896e+02
2.063461e+03,4.750479e+02
2.064425e+03,4.767826e+02
2.065390e+03,4.752594e+02
2.066354e+03,4.723650e+02
2.067318e+03,4.725580e+02
2.068282e+03,4.739756e+02
2.069247e+03,4.717781e+02
2.070211e+03,4.668606e+02
2.071175e+03,4.666066e+02
2.072139e+03,4.692874e+02
2.073104e+03,4.707581e+02
2.074068e+03,4.706133e+02
2.075032e+03,4.698836e+02
2.075996e+03,4.685783e+02
2.076960e+03,4.672462e+02
2.077925e+03,4.660265e+02
2.078889e+03,4.677234e+02
2.079853e+03,4.726629e+02
2.080817e+03,4.713860e+02
2.081782e+03,4.632564e+02
2.082746e+03,4.577676e+02
2.083710e+03,4.598451e+02
2.084674e+03,4.617410e+02
2.085639e+03,4.632939e+02
2.086603e+03,4.643727e+02
2.087567e+03,4.635250e+02
2.088531e+03,4.629901e+02
2.089496e+03,4.627299e+02
2.090460e+03,4.633627e+02
2.091424e+03,4.665056e+02
2.092388e+03,4.693023e+02
2.093353e+03,4.694946e+02
2.094317e+03,4.690640e+02
2.095281e+03,4.679891e+02
2.096245e+03,4.665166e+02
2.097209e+03,4.643858e+02
2.098174e+03,4.629957e+02
2.099138e+03,4.634023e+02
2.100102e+03,4.638996e+02
2.101066e+03,4.626204e+02
2.102031e+03,4.604657e+02
2.102995e+03,4.576945e+02
2.103959e+03,4.550162e+02
2.104923e+03,4.517802e+02
2.105887e+03,4.505938e+02
2.106852e+03,4.585711e+02
2.107816e+03,4.667730e+02
2.108780e+03,4.653816e+02
2.109744e+03,4.587758e+02
2.110708e+03,4.577334e+02
2.111673e+03,4.596420e+02
2.112637e+03,4.611685e+02
2.113601e+03,4.610891e+02
2.114565e+03,4.562349e+02
2.115530e+03,4.489709e+02
2.116494e+03,4.435893e+02
2.117458e+03,4.414679e+02
2.118422e+03,4.430923e+02
2.119387e+03,4.472660e+02
2.120351e+03,4.495730e+02
2.121315e+03,4.499637e+02
2.122279e+03,4.497725e+02
2.123244e+03,4.491259e+02
2.124208e+03,4.485256e+02
2.125172e+03,4.480443e+02
2.126136e+03,4.470923e+02
2.127101e+03,4.454750e+02
2.128065e+03,4.463644e+02
2.129029e+03,4.491324e+02
2.129993e+03,4.492947e+02
2.130958e+03,4.455331e+02
2.131922e+03,4.429121e+02
2.132886e+03,4.419949e+02
2.133850e+03,4.434835e+02
2.134814e+03,4.476012e+02
2.135779e+03,4.500209e+02
2.136743e+03,4.480039e+02
2.137707e+03,4.475636e+02
2.138671e+03,4.490576e+02
2.139636e+03,4.503649e+02
2.140600e+03,4.504453e+02
2.141564e+03,4.502219e+02
2.142528e+03,4.499032e+02
2.143493e+03,4.488778e+02
2.144457e+03,4.469679e+02
2.145421e+03,4.422090e+02
2.146385e+03,4.325642e+02
2.147350e+03,4.283823e+02
2.148314e+03,4.332106e+02
2.149278e+03,4.397365e+02
2.150242e+03,4.447212e+02
2.151207e+03,4.464660e+02
2.152171e+03,4.441693e+02
2.153135e+03,4.416261e+02
2.154099e+03,4.426599e+02
2.155063e+03,4.439080e+02
2.156028e+03,4.447939e+02
2.156992e+03,4.452534e+02
2.157956e+03,4.444620e+02
2.158920e+03,4.431713e+02
2.159885e+03,4.416126e+02
2.160849e+03,4.398610e+02
2.161813e+03,4.374489e+02
2.162777e+03,4.360997e+02
2.163741e+03,4.399348e+02
2.164706e+03,4.410771e+02
2.165670e+03,4.359402e+02
2.166634e+03,4.315527e+02
2.167598e+03,4.369371e+02
2.168563e+03,4.427494e+02
2.169527e+03,4.446809e+02
2.170491e+03,4.439093e+02
2.171455e+03,4.412090e+02
2.172420e+03,4.379321e+02
2.173384e+03,4.342716e+02
2.174348e+03,4.319475e+02
2.175312e+03,4.335867e+02
2.176277e+03,4.353652e+02
2.177241e+03,4.325204e+02
2.178205e+03,4.295045e+02
2.179169e+03,4.294068e+02
2.180134e+03,4.308966e+02
2.181098e+03,4.327686e+02
2.182062e+03,4.338520e+02
2.183026e+03,4.326376e+02
2.183990e+03,4.312461e+02
2.184955e+03,4.349776e+02
2.185919e+03,4.374604e+02
2.186883e+03,4.318325e+02
2.187847e+03,4.248955e+02
2.188812e+03,4.262560e+02
2.189776e+03,4.303183e+02
2.190740e+03,4.315107e+02
2.191704e+03,4.309363e+02
2.192668e+03,4.286684e+02
2.193633e+03,4.266269e+02
2.194597e+03,4.292453e+02
2.195561e+03,4.314958e+02
2.196525e+03,4.274542e+02
2.197490e+03,4.220237e+02
2.198454e+03,4.259232e+02
2.199418e+03,4.309398e+02
2.200382e+03,4.292265e+02
2.201347e+03,4.251346e+02
2.202311e+03,4.257950e+02
2.203275e+03,4.278256e+02
2.204239e+03,4.270296e+02
2.205204e+03,4.254901e+02
2.206168e+03,4.279851e+02
2.207132e+03,4.310807e+02
2.208096e+03,4.295629e+02
2.209061e+03,4.258960e+02
2.210025e+03,4.227740e+02
2.210989e+03,4.198827e+02
2.211953e+03,4.156556e+02
2.212917e+03,4.135732e+02
2.213882e+03,4.166184e+02
2.214846e+03,4.212751e+02
2.215810e+03,4.215521e+02
2.216774e+03,4.197436e+02
2.217739e+03,4.186860e+02
2.218703e+03,4.186964e+02
2.219667e+03,4.226763e+02
2.220631e+03,4.248468e+02
2.221595e+03,4.175882e+02
2.222560e+03,4.080057e+02
2.223524e+03,4.053655e+02
2.224488e+03,4.068487e+02
2.225452e+03,4.117130e+02
2.226417e+03,4.168641e+02
2.227381e+03,4.195664e+02
2.228345e+03,4.206425e+02
2.229309e+03,4.205145e+02
2.230274e+03,4.188780e+02
2.231238e+03,4.156999e+02
2.232202e+03,4.110346e+02
2.233166e+03,4.014530e+02
2.234131e+03,3.960293e+02
2.235095e+03,4.021831e+02
2.236059e+03,4.125367e+02
2.237023e+03,4.179316e+02
2.237988e+03,4.191870e+02
2.238952e+03,4.163884e+02
2.239916e+03,4.125541e+02
2.240880e+03,4.129095e+02
2.241844e+03,4.129281e+02
2.242809e+03,4.078521e+02
2.243773e+03,4.038229e+02
2.244737e+03,4.093302e+02
2.245701e+03,4.153819e+02
2.246666e+03,4.137887e+02
2.247630e+03,4.104917e+02
2.248594e+03,4.100519e+02
2.249558e+03,4.097621e+02
2.250522e+03,4.049630e+02
2.251487e+03,4.020635e+02
2.252451e+03,4.050876e+02
2.253415e+03,4.071105e+02
2.254379e+03,3.976302e+02
2.255344e+03,3.917558e+02
2.256308e+03,3.961924e+02
2.257272e+03,4.029245e+02
2.258236e+03,4.058560e+02
2.259201e+03,4.054115e+02
2.260165e+03,4.010860e+02
2.261129e+03,3.975572e+02
2.262093e+03,4.005076e+02
2.263058e+03,4.021047e+02
2.264022e+03,3.997826e+02
2.264986e+03,3.996556e+02
2.265950e+03,4.097047e+02
2.266915e+03,4.139175e+02
2.267879e+03,4.065602e+02
2.268843e+03,3.978268e+02
2.269807e+03,3.909891e+02
2.270771e+03,3.903670e+02
2.271736e+03,3.997481e+02
2.272700e+03,4.064991e+02
2.273664e+03,4.067013e+02
2.274628e+03,4.043070e+02
2.275593e+03,3.997680e+02
2.276557e+03,3.968539e+02
2.277521e+03,3.964745e+02
2.278485e+03,3.961352e+02
2.279449e+03,3.940165e+02
2.280414e+03,3.935582e+02
2.281378e+03,3.948520e+02
2.282342e+03,3.959683e+02
2.283306e+03,3.944598e+02
2.284271e+03,3.962230e+02
2.285235e+03,4.007435e+02
2.286199e+03,4.026703e+02
2.287163e+03,4.001254e+02
2.288128e+03,3.958187e+02
2.289092e+03,3.900254e+02
2.290056e+03,3.885937e+02
2.291020e+03,3.932556e+02
2.291985e+03,3.943601e+02
2.292949e+03,3.922584e+02
2.293913e+03,3.883427e+02
2.294877e+03,3.836243e+02
2.295842e+03,3.861870e+02
2.296806e+03,3.943617e+02
2.297770e+03,3.951294e+02
2.298734e+03,3.894991e+02
2.299698e+03,3.850484e+02
2.300663e+03,3.824011e+02
2.301627e+03,3.823915e+02
2.302591e+03,3.842324e+02
2.303555e+03,3.867535e+02
2.304520e+03,3.894102e+02
2.305484e+03,3.893955e+02
2.306448e+03,3.883125e+02
2.307412e+03,3.887219e+02
2.308376e+03,3.899085e+02
2.309341e+03,3.908196e+02
2.310305e+03,3.908755e+02
2.311269e+03,3.889972e+02
2.312233e+03,3.868556e+02
2.313198e+03,3.870117e+02
2.314162e+03,3.875021e+02
2.315126e+03,3.858493e+02
2.316090e+03,3.840901e+02
2.317055e+03,3.845629e+02
2.318019e+03,3.864254e+02
2.318983e+03,3.905013e+02
2.319947e+03,3.921518e+02
2.320912e+03,3.852515e+02
2.321876e+03,3.795320e+02
2.322840e+03,3.848915e+02
2.323804e+03,3.890268e+02
2.324769e+03,3.854657e+02
2.325733e+03,3.823428e+02
2.326697e+03,3.862680e+02
2.327661e+03,3.893517e+02
2.328625e+03,3.890957e+02
2.329590e+03,3.875310e+02
2.330554e+03,3.851734e+02
2.331518e+03,3.853940e+02
2.332482e+03,3.888807e+02
2.333447e+03,3.893466e+02
2.334411e+03,3.810602e+02
2.335375e+03,3.768361e+02
2.336339e+03,3.772790e+02
2.337303e+03,3.780560e+02
2.338268e+03,3.768253e+02
2.339232e+03,3.779816e+02
2.340196e+03,3.811654e+02
2.341160e+03,3.833232e+02
2.342125e+03,3.836637e+02
2.343089e+03,3.814976e+02
2.344053e+03,3.771711e+02
2.345017e+03,3.737357e+02
2.345982e+03,3.720352e+02
2.346946e+03,3.739345e+02
2.347910e+03,3.779874e+02
2.348874e+03,3.792227e+02
2.349839e+03,3.780191e+02
2.350803e+03,3.778636e+02
2.351767e+03,3.781212e+02
2.352731e+03,3.773727e+02
2.353696e+03,3.758583e+02
2.354660e+03,3.718560e+02
2.355624e+03,3.685626e+02
2.356588e+03,3.743944e+02
2.357552e+03,3.807795e+02
2.358517e+03,3.786751e+02
2.359481e+03,3.749366e+02
2.360445e+03,3.789663e+02
2.361409e+03,3.822946e+02
2.362374e+03,3.805482e+02
2.363338e+03,3.766977e+02
2.364302e+03,3.729110e+02
2.365266e+03,3.696333e+02
2.366230e+03,3.664512e+02
2.367195e+03,3.649088e+02
2.368159e+03,3.664089e+02
2.369123e+03,3.694386e+02
2.370087e+03,3.742914e+02
2.371052e+03,3.766375e+02
2.372016e+03,3.736368e+02
2.372980e+03,3.700964e+02
2.373944e+03,3.662699e+02
2.374909e+03,3.636285e+02
2.375873e+03,3.622260e+02
2.376837e+03,3.664187e+02
2.377801e+03,3.740883e+02
2.378766e+03,3.739013e+02
2.379730e+03,3.651316e+02
2.380694e+03,3.613864e+02
2.381658e+03,3.611832e+02
2.382623e+03,3.597453e+02
2.383587e+03,3.578012e+02
2.384551e+03,3.595968e+02
2.385515e+03,3.632685e+02
2.386479e+03,3.674434e+02
2.387444e+03,3.703123e+02
2.388408e+03,3.672361e+02
2.389372e+03,3.636522e+02
2.390336e+03,3.657119e+02
2.391301e+03,3.685449e+02
2.392265e+03,3.667114e+02
2.393229e+03,3.649273e+02
2.394193e+03,3.670158e+02
2.395157e+03,3.673111e+02
2.396122e+03,3.603584e+02
2.397086e+03,3.554325e+02
2.398050e+03,3.557511e+02
2.399014e+03,3.571635e+02
2.399979e+03,3.582399e+02
2.400943e+03,3.601081e+02
2.401907e+03,3.629770e+02
2.402871e+03,3.621647e+02
2.403836e+03,3.567137e+02
2.404800e+03,3.568874e+02
2.405764e+03,3.626487e+02
2.406728e+03,3.644128e+02
2.407693e+03,3.612774e+02
2.408657e+03,3.561737e+02
2.409621e+03,3.507491e+02
2.410585e+03,3.516607e+02
2.411550e+03,3.566615e+02
2.412514e+03,3.596472e+02
2.413478e+03,3.605758e+02
2.414442e+03,3.584748e+02
2.415406e+03,3.553472e+02
2.416371e+03,3.523957e+02
2.417335e+03,3.515423e+02
2.418299e+03,3.594447e+02
2.419263e+03,3.643729e+02
2.420228e+03,3.585025e+02
2.421192e+03,3.526961e+02
2.422156e+03,3.615420e+02
2.423120e+03,3.640068e+02
2.424084e+03,3.538135e+02
2.425049e+03,3.469439e+02
2.426013e+03,3.553058e+02
2.426977e+03,3.595786e+02
2.427941e+03,3.583301e+02
2.428906e+03,3.545071e+02
2.429870e+03,3.479848e+02
2.430834e+03,3.457650e+02
2.431798e+03,3.474049e+02
2.432763e+03,3.492479e+02
2.433727e+03,3.507690e+02
2.434691e+03,3.552438e+02
2.435655e+03,3.602430e+02
2.436620e+03,3.608456e+02
2.437584e+03,3.582233e+02
2.438548e+03,3.530470e+02
2.439512e+03,3.493474e+02
2.440477e+03,3.511816e+02
2.441441e+03,3.548348e+02
2.442405e+03,3.576099e+02
2.443369e+03,3.572043e+02
2.444333e+03,3.523261e+02
2.445298e+03,3.485430e+02
2.446262e+03,3.534191e+02
2.447226e+03,3.540772e+02
2.448190e+03,3.483618e+02
2.449155e+03,3.441329e+02
2.450119e+03,3.470185e+02
2.451083e+03,3.508491e+02
2.452047e+03,3.549603e+02
2.453011e+03,3.547389e+02
2.453976e+03,3.490378e+02
2.454940e+03,3.443158e+02
2.455904e+03,3.412940e+02
2.456868e+03,3.427169e+02
2.457833e+03,3.463671e+02
2.458797e+03,3.454630e+02
2.459761e+03,3.432531e+02
2.460725e+03,3.443199e+02
2.461690e+03,3.463449e+02
2.462654e+03,3.454682e+02
2.463618e+03,3.446951e+02
2.464582e+03,3.461873e+02
2.465547e+03,3.481842e+02
2.466511e+03,3.502064e+02
2.467475e+03,3.479823e+02
2.468439e+03,3.404669e+02
2.469404e+03,3.349843e+02
2.470368e+03,3.388057e+02
2.471332e+03,3.391004e+02
2.472296e+03,3.357293e+02
2.473260e+03,3.333597e+02
2.474225e+03,3.332299e+02
2.475189e+03,3.388318e+02
2.476153e+03,3.471169e+02
2.477117e+03,3.452248e+02
2.478082e+03,3.374467e+02
2.479046e+03,3.410417e+02
2.480010e+03,3.475692e+02
2.480974e+03,3.444533e+02
2.481938e+03,3.394546e+02
2.482903e+03,3.444879e+02
2.483867e+03,3.498616e+02
2.484831e+03,3.506905e+02
2.485795e+03,3.480405e+02
2.486760e+03,3.399563e+02
2.487724e+03,3.339830e+02
2.488688e+03,3.313678e+02
2.489652e+03,3.317413e+02
2.490617e+03,3.372516e+02
2.491581e+03,3.377341e+02
2.492545e+03,3.345170e+02
2.493509e+03,3.354753e+02
2.494474e+03,3.410403e+02
2.495438e+03,3.441831e+02
2.496402e+03,3.447278e+02
2.497366e+03,3.407311e+02
2.498331e+03,3.354263e+02
2.499295e+03,3.342147e+02
2.500259e+03,3.358380e+02
2.501223e+03,3.405757e+02
2.502188e+03,3.436317e+02
2.503152e+03,3.370772e+02
2.504116e+03,3.318458e+02
2.505080e+03,3.310257e+02
2.506044e+03,3.332408e+02
2.507009e+03,3.404266e+02
2.507973e+03,3.443882e+02
2.508937e+03,3.450621e+02
2.509901e+03,3.432568e+02
2.510865e+03,3.388539e+02
2.511830e+03,3.370985e+02
2.512794e+03,3.368759e+02
2.513758e+03,3.356894e+02
2.514722e+03,3.342260e+02
2.515687e+03,3.340565e+02
2.516651e+03,3.349815e+02
2.517615e+03,3.370865e+02
2.518579e+03,3.387365e+02
2.519544e+03,3.372352e+02
2.520508e+03,3.355036e+02
2.521472e+03,3.346487e+02
2.522436e+03,3.346516e+02
2.523401e+03,3.370292e+02
2.524365e+03,3.367454e+02
2.525329e+03,3.333389e+02
2.526293e+03,3.299001e+02
2.527258e+03,3.272154e+02
2.528222e+03,3.282283e+02
2.529186e+03,3.317048e+02
2.530150e+03,3.334644e+02
2.531115e+03,3.344846e+02
2.532079e+03,3.407021e+02
2.533043e+03,3.450307e+02
2.534007e+03,3.397673e+02
2.534971e+03,3.312921e+02
2.535936e+03,3.266426e+02
2.536900e+03,3.247352e+02
2.537864e+03,3.254019e+02
2.538828e+03,3.264388e+02
2.539792e+03,3.259800e+02
2.540757e+03,3.271261e+02
2.541721e+03,3.300752e+02
2.542685e+03,3.309415e+02
2.543649e+03,3.298763e+02
2.544614e+03,3.324497e+02
2.545578e+03,3.366427e+02
2.546542e+03,3.366668e+02
2.547506e+03,3.341050e+02
2.548471e+03,3.308149e+02
2.549435e+03,3.295842e+02
2.550399e+03,3.341496e+02
2.551363e+03,3.388227e+02
2.552328e+03,3.388754e+02
2.553292e+03,3.382149e+02
2.554256e+03,3.378249e+02
2.555220e+03,3.383312e+02
2.556185e+03,3.396806e+02
2.557149e+03,3.407889e+02
2.558113e+03,3.412896e+02
2.559077e+03,3.411373e+02
2.560042e+03,3.397310e+02
2.561006e+03,3.342606e+02
2.561970e+03,3.276847e+02
2.562934e+03,3.236650e+02
2.563898e+03,3.230370e+02
2.564863e+03,3.285136e+02
2.565827e+03,3.337873e+02
2.566791e+03,3.357596e+02
2.567755e+03,3.340757e+02
2.568719e+03,3.284390e+02
2.569684e+03,3.241462e+02
2.570648e+03,3.238317e+02
2.571612e+03,3.253784e+02
2.572576e+03,3.285596e+02
2.573541e+03,3.314516e+02
2.574505e+03,3.332486e+02
2.575469e+03,3.329109e+02
2.576433e+03,3.314555e+02
2.577398e+03,3.307693e+02
2.578362e+03,3.305095e+02
2.579326e+03,3.314750e+02
2.580290e+03,3.299166e+02
2.581255e+03,3.237768e+02
2.582219e+03,3.193857e+02
2.583183e+03,3.233060e+02
2.584147e+03,3.264789e+02
2.585112e+03,3.287463e+02
2.586076e+03,3.286251e+02
2.587040e+03,3.260673e+02
2.588004e+03,3.212129e+02
2.588969e+03,3.157264e+02
2.589933e+03,3.138250e+02
2.590897e+03,3.139909e+02
2.591861e+03,3.125336e+02
2.592825e+03,3.125661e+02
2.593790e+03,3.163362e+02
2.594754e+03,3.200645e+02
2.595718e+03,3.217997e+02
2.596682e+03,3.200368e+02
2.597646e+03,3.139334e+02
2.598611e+03,3.127361e+02
2.599575e+03,3.170272e+02
2.600539e+03,3.219886e+02
2.601503e+03,3.255689e+02
2.602468e+03,3.235261e+02
2.603432e+03,3.181014e+02
2.604396e+03,3.122101e+02
2.605360e+03,3.084244e+02
2.606325e+03,3.090885e+02
2.607289e+03,3.129310e+02
2.608253e+03,3.202079e+02
2.609217e+03,3.233118e+02
2.610182e+03,3.163709e+02
2.611146e+03,3.103285e+02
2.612110e+03,3.064450e+02
2.613074e+03,3.080122e+02
2.614039e+03,3.141887e+02
2.615003e+03,3.180801e+02
2.615967e+03,3.188006e+02
2.616931e+03,3.148419e+02
2.617896e+03,3.102805e+02
2.618860e+03,3.105235e+02
2.619824e+03,3.111695e+02
2.620788e+03,3.104712e+02
2.621752e+03,3.086406e+02
2.622717e+03,3.047822e+02
2.623681e+03,3.046939e+02
2.624645e+03,3.080070e+02
2.625609e+03,3.100578e+02
2.626573e+03,3.108368e+02
2.627538e+03,3.154203e+02
2.628502e+03,3.192447e+02
2.629466e+03,3.147481e+02
2.630430e+03,3.077623e+02
2.631395e+03,3.050566e+02
2.632359e+03,3.043550e+02
2.633323e+03,3.055693e+02
2.634287e+03,3.066680e+02
2.635252e+03,3.073089e+02
2.636216e+03,3.070018e+02
2.637180e+03,3.056836e+02
2.638144e+03,3.073790e+02
2.639109e+03,3.102061e+02
2.640073e+03,3.093940e+02
2.641037e+03,3.064263e+02
2.642001e+03,2.992483e+02
2.642966e+03,2.962450e+02
2.643930e+03,3.021543e+02
2.644894e+03,3.095607e+02
2.645858e+03,3.163228e+02
2.646823e+03,3.165972e+02
2.647787e+03,3.107936e+02
2.648751e+03,3.061158e+02
2.649715e+03,3.037289e+02
2.650679e+03,3.047272e+02
2.651644e+03,3.082305e+02
2.652608e+03,3.140874e+02
2.653572e+03,3.175219e+02
2.654536e+03,3.071456e+02
2.655500e+03,2.993264e+02
2.656465e+03,3.002423e+02
2.657429e+03,3.042706e+02
2.658393e+03,3.094598e+02
2.659357e+03,3.097677e+02
2.660322e+03,3.058743e+02
2.661286e+03,3.071618e+02
2.662250e+03,3.112147e+02
2.663214e+03,3.091556e+02
2.664179e+03,3.061075e+02
2.665143e+03,3.101541e+02
2.666107e+03,3.135371e+02
2.667071e+03,3.123505e+02
2.668036e+03,3.094869e+02
2.669000e+03,3.041949e+02
2.669964e+03,3.039651e+02
2.670928e+03,3.075567e+02
2.671893e+03,3.048175e+02
2.672857e+03,2.982109e+02
2.673821e+03,3.073253e+02
2.674785e+03,3.148984e+02
2.675750e+03,3.005558e+02
2.676714e+03,2.843246e+02
2.677678e+03,2.910313e+02
2.678642e+03,2.972287e+02
2.679606e+03,2.979682e+02
2.680571e+03,3.023650e+02
2.681535e+03,3.115046e+02
2.682499e+03,3.108770e+02
2.683463e+03,3.021397e+02
2.684427e+03,2.954000e+02
2.685392e+03,2.932171e+02
2.686356e+03,3.068717e+02
2.687320e+03,3.168016e+02
2.688284e+03,3.043045e+02
2.689249e+03,2.966352e+02
2.690213e+03,2.993829e+02
2.691177e+03,3.018708e+02
2.692141e+03,3.012159e+02
2.693106e+03,2.966588e+02
2.694070e+03,2.913384e+02
2.695034e+03,2.937671e+02
2.695998e+03,2.992592e+02
2.696963e+03,3.002188e+02
2.697927e+03,3.001276e+02
2.698891e+03,3.004215e+02
2.699855e+03,3.009599e+02
2.700820e+03,3.021402e+02
2.701784e+03,3.017805e+02
2.702748e+03,2.999850e+02
2.703712e+03,3.015822e+02
2.704677e+03,3.043070e+02
2.705641e+03,2.981789e+02
2.706605e+03,2.916563e+02
2.707569e+03,2.954794e+02
2.708533e+03,2.994061e+02
2.709498e+03,2.983201e+02
2.710462e+03,2.977065e+02
2.711426e+03,3.008223e+02
2.712390e+03,3.014006e+02
2.713354e+03,3.005024e+02
2.714319e+03,3.048995e+02
2.715283e+03,3.111567e+02
2.716247e+03,3.102045e+02
2.717211e+03,3.070612e+02
2.718176e+03,3.055998e+02
2.719140e+03,3.042007e+02
2.720104e+03,3.010945e+02
2.721068e+03,3.012369e+02
2.722033e+03,3.045533e+02
2.722997e+03,3.002013e+02
2.723961e+03,2.905800e+02
2.724925e+03,2.873448e+02
2.725890e+03,2.884303e+02
2.726854e+03,2.912656e+02
2.727818e+03,2.944777e+02
2.728782e+03,2.973323e+02
2.729747e+03,2.974349e+02
2.730711e+03,2.914711e+02
2.731675e+03,2.890558e+02
2.732639e+03,2.899506e+02
2.733604e+03,2.930181e+02
2.734568e+03,2.960458e+02
2.735532e+03,2.922801e+02
2.736496e+03,2.879584e+02
2.737460e+03,2.877436e+02
2.738425e+03,2.898564e+02
2.739389e+03,2.941181e+02
2.740353e+03,2.949022e+02
2.741317e+03,2.913983e+02
2.742281e+03,2.850007e+02
2.743246e+03,2.787840e+02
2.744210e+03,2.836752e+02
2.745174e+03,2.921958e+02
2.746138e+03,2.991152e+02
2.747103e+03,2.978001e+02
2.748067e+03,2.861339e+02
2.749031e+03,2.801133e+02
2.749995e+03,2.914423e+02
2.750960e+03,2.941358e+02
2.751924e+03,2.904108e+02
2.752888e+03,2.864109e+02
2.753852e+03,2.842874e+02
2.754817e+03,2.903879e+02
2.755781e+03,2.973214e+02
2.756745e+03,3.018879e+02
2.757709e+03,2.995377e+02
2.758674e+03,2.889489e+02
2.759638e+03,2.862284e+02
2.760602e+03,2.934542e+02
2.761566e+03,2.946859e+02
2.762531e+03,2.920112e+02
2.763495e+03,2.865491e+02
2.764459e+03,2.832164e+02
2.765423e+03,2.908748e+02
2.766387e+03,2.947155e+02
2.767352e+03,2.919734e+02
2.768316e+03,2.910717e+02
2.769280e+03,2.936965e+02
2.770244e+03,2.898773e+02
2.771208e+03,2.843620e+02
2.772173e+03,2.867917e+02
2.773137e+03,2.915742e+02
2.774101e+03,2.940959e+02
2.775065e+03,2.932307e+02
2.776030e+03,2.863989e+02
2.776994e+03,2.867006e+02
2.777958e+03,2.926176e+02
2.778922e+03,2.901370e+02
2.779887e+03,2.826712e+02
2.780851e+03,2.824828e+02
2.781815e+03,2.827242e+02
2.782779e+03,2.782251e+02
2.783744e+03,2.765404e+02
2.784708e+03,2.839040e+02
2.785672e+03,2.850033e+02
2.786636e+03,2.802857e+02
2.787601e+03,2.850346e+02
2.788565e+03,2.945762e+02
2.789529e+03,2.937443e+02
2.790493e+03,2.895811e+02
2.791458e+03,2.855377e+02
2.792422e+03,2.854067e+02
2.793386e+03,2.897445e+02
2.794350e+03,2.900793e+02
2.795314e+03,2.841845e+02
2.796279e+03,2.796544e+02
2.797243e+03,2.785812e+02
2.798207e+03,2.851034e+02
2.799171e+03,2.928624e+02
2.800135e+03,2.952206e+02
2.801100e+03,2.919658e+02
2.802064e+03,2.823665e+02
2.803028e+03,2.774287e+02
2.803992e+03,2.773077e+02
2.804957e+03,2.801048e+02
2.805921e+03,2.835891e+02
2.806885e+03,2.840932e+02
2.807849e+03,2.826595e+02
2.808814e+03,2.795009e+02
2.809778e+03,2.819918e+02
2.810742e+03,2.969043e+02
2.811706e+03,3.000253e+02
2.812671e+03,2.931385e+02
2.813635e+03,2.860245e+02
2.814599e+03,2.803729e+02
2.815563e+03,2.786962e+02
2.816528e+03,2.805400e+02
2.817492e+03,2.888437e+02
2.818456e+03,2.870815e+02
2.819420e+03,2.755805e+02
2.820385e+03,2.751153e+02
2.821349e+03,2.830534e+02
2.822313e+03,2.776183e+02
2.823277e+03,2.738535e+02
2.824241e+03,2.840157e+02
2.825206e+03,2.926986e+02
2.826170e+03,2.905057e+02
2.827134e+03,2.869566e+02
2.828098e+03,2.837677e+02
2.829063e+03,2.872195e+02
2.830027e+03,2.927057e+02
2.830991e+03,2.909283e+02
2.831955e+03,2.861033e+02
2.832919e+03,2.774023e+02
2.833884e+03,2.723125e+02
2.834848e+03,2.715627e+02
2.835812e+03,2.742306e+02
2.836776e+03,2.790612e+02
2.837741e+03,2.797790e+02
2.838705e+03,2.795116e+02
2.839669e+03,2.824424e+02
2.840633e+03,2.830183e+02
2.841598e+03,2.777213e+02
2.842562e+03,2.778896e+02
2.843526e+03,2.867482e+02
2.844490e+03,2.871239e+02
2.845455e+03,2.832497e+02
2.846419e+03,2.832932e+02
2.847383e+03,2.848775e+02
2.848347e+03,2.856325e+02
2.849312e+03,2.868742e+02
2.850276e+03,2.886070e+02
2.851240e+03,2.850822e+02
2.852204e+03,2.779491e+02
2.853168e+03,2.770905e+02
2.854133e+03,2.812595e+02
2.855097e+03,2.936974e+02
2.856061e+03,2.996271e+02
2.857025e+03,2.949943e+02
2.857990e+03,2.877870e+02
2.858954e+03,2.803124e+02
2.859918e+03,2.786087e+02
2.860882e+03,2.827242e+02
2.861846e+03,2.927101e+02
2.862811e+03,3.018776e+02
2.863775e+03,3.036467e+02
2.864739e+03,3.044417e+02
2.865703e+03,3.055109e+02
2.866668e+03,3.026244e+02
2.867632e+03,2.981530e+02
2.868596e+03,3.003858e+02
2.869560e+03,3.031967e+02
2.870525e+03,2.965490e+02
2.871489e+03,2.956216e+02
2.872453e+03,3.038092e+02
2.873417e+03,3.077839e+02
2.874382e+03,3.066895e+02
2.875346e+03,3.086678e+02
2.876310e+03,3.101720e+02
2.877274e+03,3.008013e+02
2.878239e+03,2.986696e+02
2.879203e+03,3.098819e+02
2.880167e+03,3.137421e+02
2.881131e+03,3.040359e+02
2.882095e+03,2.962241e+02
2.883060e+03,2.925549e+02
2.884024e+03,2.858450e+02
2.884988e+03,3.114096e+02
2.885952e+03,4.214728e+02
2.886917e+03,4.851645e+02
2.887881e+03,4.650813e+02
2.888845e+03,4.011916e+02
2.889809e+03,3.263271e+02
2.890773e+03,3.076996e+02
2.891738e+03,3.113551e+02
2.892702e+03,3.096504e+02
2.893666e+03,3.076725e+02
2.894630e+03,3.064601e+02
2.895595e+03,3.070698e+02
2.896559e+03,3.087480e+02
2.897523e+03,3.075182e+02
2.898487e+03,3.084693e+02
2.899452e+03,3.234512e+02
2.900416e+03,3.273062e+02
2.901380e+03,3.157907e+02
2.902344e+03,3.032887e+02
2.903309e+03,2.940526e+02
2.904273e+03,3.038417e+02
2.905237e+03,3.169877e+02
2.906201e+03,3.166777e+02
2.907166e+03,3.121250e+02
2.908130e+03,3.075497e+02
2.909094e+03,3.094585e+02
2.910058e+03,3.173052e+02
2.911022e+03,3.140501e+02
2.911987e+03,3.040504e+02
2.912951e+03,2.911597e+02
2.913915e+03,2.828716e+02
2.914879e+03,2.852969e+02
2.915844e+03,2.935175e+02
2.916808e+03,3.039422e+02
2.917772e+03,2.966737e+02
2.918736e+03,2.839357e+02
2.919700e+03,2.846992e+02
2.920665e+03,2.885882e+02
2.921629e+03,2.915629e+02
2.922593e+03,2.875969e+02
2.923557e+03,2.800598e+02
2.924522e+03,2.865529e+02
2.925486e+03,2.983456e+02
2.926450e+03,2.943714e+02
2.927414e+03,2.867209e+02
2.928379e+03,2.789084e+02
2.929343e+03,2.777509e+02
2.930307e+03,2.813206e+02
2.931271e+03,2.754713e+02
2.932236e+03,2.690462e+02
2.933200e+03,2.858862e+02
2.934164e+03,2.957384e+02
2.935128e+03,2.858313e+02
2.936093e+03,2.767934e+02
2.937057e+03,2.727128e+02
2.938021e+03,2.757719e+02
2.938985e+03,2.809623e+02
2.939949e+03,2.809105e+02
2.940914e+03,2.770183e+02
2.941878e+03,2.704900e+02
2.942842e+03,2.653530e+02
2.943806e+03,2.624326e+02
2.944771e+03,2.732455e+02
2.945735e+03,2.863026e+02
2.946699e+03,2.847841e+02
2.947663e+03,2.825083e+02
2.948627e+03,2.840975e+02
2.949592e+03,2.834045e+02
2.950556e+03,2.796670e+02
2.951520e+03,2.745895e+02
2.952484e+03,2.702361e+02
2.953449e+03,2.662152e+02
2.954413e+03,2.764479e+02
2.955377e+03,3.065593e+02
2.956341e+03,3.222850e+02
2.957306e+03,3.206694e+02
2.958270e+03,3.207362e+02
2.959234e+03,3.124810e+02
2.960198e+03,2.884247e+02
2.961163e+03,2.708785e+02
2.962127e+03,2.699013e+02
2.963091e+03,2.709369e+02
2.964055e+03,2.723742e+02
2.965020e+03,2.740975e+02
2.965984e+03,2.744522e+02
2.966948e+03,2.711483e+02
2.967912e+03,2.734622e+02
2.968876e+03,2.885149e+02
2.969841e+03,2.884743e+02
2.970805e+03,2.791508e+02
2.971769e+03,2.728220e+02
2.972733e+03,2.703989e+02
2.973698e+03,2.729412e+02
2.974662e+03,2.726604e+02
2.975626e+03,2.673878e+02
2.976590e+03,2.652084e+02
2.977554e+03,2.652625e+02
2.978519e+03,2.666967e+02
2.979483e+03,2.642648e+02
2.980447e+03,2.532557e+02
2.981411e+03,2.476361e+02
2.982376e+03,2.501954e+02
2.983340e+03,2.603445e+02
2.984304e+03,2.683881e+02
2.985268e+03,2.647867e+02
2.986233e+03,2.590912e+02
2.987197e+03,2.553397e+02
2.988161e+03,2.581852e+02
2.989125e+03,2.658294e+02
2.990090e+03,2.721823e+02
2.991054e+03,2.747517e+02
2.992018e+03,2.723234e+02
2.992982e+03,2.622755e+02
2.993947e+03,2.408917e+02
2.994911e+03,2.411037e+02
2.995875e+03,2.527349e+02
2.996839e+03,2.553178e+02
2.997803e+03,2.615879e+02
2.998768e+03,2.817728e+02
2.999732e+03,2.838681e+02
3.000696e+03,2.631344e+02
3.001660e+03,2.489717e+02
3.002625e+03,2.432993e+02
3.003589e+03,2.465598e+02
3.004553e+03,2.548656e+02
3.005517e+03,2.673672e+02
3.006481e+03,2.628839e+02
3.007446e+03,2.475265e+02
3.008410e+03,2.543576e+02
3.009374e+03,2.620421e+02
3.010338e+03,2.573688e+02
3.011303e+03,2.548164e+02
3.012267e+03,2.586771e+02
3.013231e+03,2.545274e+02
3.014195e+03,2.465121e+02
3.015160e+03,2.412643e+02
3.016124e+03,2.395595e+02
3.017088e+03,2.407529e+02
3.018052e+03,2.508728e+02
3.019017e+03,2.673964e+02
3.019981e+03,2.685551e+02
3.020945e+03,2.599843e+02
3.021909e+03,2.446626e+02
3.022874e+03,2.388273e+02
3.023838e+03,2.436946e+02
3.024802e+03,2.500001e+02
3.025766e+03,2.556644e+02
3.026730e+03,2.598067e+02
3.027695e+03,2.590436e+02
3.028659e+03,2.522369e+02
3.029623e+03,2.466859e+02
3.030587e+03,2.437266e+02
3.031552e+03,2.448710e+02
3.032516e+03,2.488393e+02
3.033480e+03,2.617567e+02
3.034444e+03,2.568844e+02
3.035408e+03,2.341326e+02
3.036373e+03,2.384221e+02
3.037337e+03,2.588011e+02
3.038301e+03,2.599770e+02
3.039265e+03,2.519504e+02
3.040230e+03,2.301421e+02
3.041194e+03,2.326466e+02
3.042158e+03,2.509940e+02
3.043122e+03,2.491977e+02
3.044087e+03,2.390120e+02
3.045051e+03,2.328962e+02
3.046015e+03,2.420856e+02
3.046979e+03,2.726064e+02
3.047944e+03,2.701641e+02
3.048908e+03,2.525703e+02
3.049872e+03,2.494605e+02
3.050836e+03,2.459504e+02
3.051801e+03,2.292253e+02
3.052765e+03,2.314106e+02
3.053729e+03,2.506564e+02
3.054693e+03,2.546700e+02
3.055657e+03,2.554796e+02
3.056622e+03,2.621847e+02
3.057586e+03,2.637879e+02
3.058550e+03,2.573490e+02
3.059514e+03,2.508604e+02
3.060479e+03,2.475264e+02
3.061443e+03,2.563846e+02
3.062407e+03,2.539886e+02
3.063371e+03,2.363380e+02
3.064335e+03,2.332870e+02
3.065300e+03,2.429317e+02
3.066264e+03,2.432128e+02
3.067228e+03,2.455606e+02
3.068192e+03,2.592504e+02
3.069157e+03,2.621349e+02
3.070121e+03,2.550214e+02
3.071085e+03,2.500790e+02
3.072049e+03,2.476110e+02
3.073014e+03,2.489856e+02
3.073978e+03,2.490370e+02
3.074942e+03,2.467062e+02
3.075906e+03,2.470252e+02
3.076871e+03,2.479396e+02
3.077835e+03,2.453568e+02
3.078799e+03,2.442084e+02
3.079763e+03,2.476942e+02
3.080728e+03,2.553111e+02
3.081692e+03,2.633557e+02
3.082656e+03,2.578647e+02
3.083620e+03,2.544983e+02
3.084584e+03,2.621700e+02
3.085549e+03,2.624712e+02
3.086513e+03,2.524335e+02
3.087477e+03,2.577791e+02
3.088441e+03,2.624492e+02
3.089406e+03,2.466453e+02
3.090370e+03,2.379959e+02
3.091334e+03,2.397077e+02
3.092298e+03,2.337135e+02
3.093262e+03,2.267327e+02
3.094227e+03,2.417581e+02
3.095191e+03,2.504762e+02
3.096155e+03,2.423606e+02
3.097119e+03,2.315637e+02
3.098084e+03,2.267419e+02
3.099048e+03,2.430885e+02
3.100012e+03,2.603853e+02
3.100976e+03,2.639771e+02
3.101941e+03,2.611199e+02
3.102905e+03,2.538116e+02
3.103869e+03,2.502618e+02
3.104833e+03,2.453427e+02
3.105798e+03,2.355944e+02
3.106762e+03,2.358775e+02
3.107726e+03,2.479487e+02
3.108690e+03,2.565427e+02
3.109655e+03,2.585937e+02
3.110619e+03,2.449119e+02
3.111583e+03,2.429891e+02
3.112547e+03,2.531594e+02
3.113511e+03,2.453222e+02
3.114476e+03,2.287142e+02
3.115440e+03,2.218316e+02
3.116404e+03,2.261431e+02
3.117368e+03,2.473915e+02
3.118333e+03,2.516231e+02
3.119297e+03,2.490758e+02
3.120261e+03,2.584347e+02
3.121225e+03,2.701261e+02
3.122189e+03,2.786943e+02
3.123154e+03,2.808859e+02
3.124118e+03,2.756649e+02
3.125082e+03,2.587732e+02
3.126046e+03,2.447583e+02
3.127011e+03,2.395331e+02
3.127975e+03,2.574486e+02
3.128939e+03,2.873206e+02
3.129903e+03,2.814968e+02
3.130868e+03,2.639408e+02
3.131832e+03,2.460322e+02
3.132796e+03,2.440950e+02
3.133760e+03,2.537334e+02
3.134725e+03,2.483445e+02
3.135689e+03,2.379692e+02
3.136653e+03,2.321494e+02
3.137617e+03,2.361222e+02
3.138582e+03,2.516590e+02
3.139546e+03,2.460940e+02
3.140510e+03,2.373440e+02
3.141474e+03,2.473443e+02
3.142438e+03,2.497404e+02
3.143403e+03,2.419060e+02
3.144367e+03,2.439934e+02
3.145331e+03,2.497310e+02
3.146295e+03,2.450762e+02
3.147260e+03,2.456718e+02
3.148224e+03,2.547348e+02
3.149188e+03,2.558293e+02
3.150152e+03,2.494514e+02
3.151116e+03,2.346862e+02
3.152081e+03,2.393512e+02
3.153045e+03,2.749686e+02
3.154009e+03,2.859748e+02
3.154973e+03,2.763609e+02
3.155938e+03,2.532149e+02
3.156902e+03,2.434565e+02
3.157866e+03,2.508689e+02
3.158830e+03,2.316162e+02
3.159795e+03,2.056640e+02
3.160759e+03,2.408988e+02
3.161723e+03,2.709287e+02
3.162687e+03,2.545561e+02
3.163652e+03,2.407046e+02
3.164616e+03,2.381358e+02
3.165580e+03,2.626930e+02
3.166544e+03,2.829948e+02
3.167509e+03,2.865528e+02
3.168473e+03,2.685257e+02
3.169437e+03,2.412313e+02
3.170401e+03,2.373284e+02
3.171365e+03,2.468452e+02
3.172330e+03,2.665261e+02
3.173294e+03,2.597418e+02
3.174258e+03,2.377759e+02
3.175222e+03,2.247001e+02
3.176187e+03,2.249300e+02
3.177151e+03,2.439261e+02
3.178115e+03,2.532791e+02
3.179079e+03,2.540119e+02
3.180043e+03,2.528656e+02
3.181008e+03,2.619747e+02
3.181972e+03,2.838515e+02
3.182936e+03,2.824732e+02
3.183900e+03,2.647033e+02
3.184865e+03,2.522641e+02
3.185829e+03,2.504437e+02
3.186793e+03,2.807077e+02
3.187757e+03,2.585201e+02
3.188722e+03,2.210688e+02
3.189686e+03,2.554074e+02
3.190650e+03,2.859297e+02
3.191614e+03,2.826699e+02
3.192579e+03,2.874294e+02
3.193543e+03,2.957084e+02
3.194507e+03,2.685877e+02
3.195471e+03,2.456810e+02
3.196436e+03,2.433887e+02
3.197400e+03,2.447132e+02
3.198364e+03,2.514505e+02
3.199328e+03,2.704147e+02
3.200292e+03,2.825100e+02
3.201257e+03,0.000000e+00
3.202221e+03,0.000000e+00
3.203185e+03,0.000000e+00
3.204149e+03,0.000000e+00
3.205114e+03,0.000000e+00
3.206078e+03,0.000000e+00
3.207042e+03,0.000000e+00
3.208006e+03,0.000000e+00
3.208970e+03,0.000000e+00
3.209935e+03,0.000000e+00
3.210899e+03,0.000000e+00
3.211863e+03,0.000000e+00
3.212827e+03,0.000000e+00
3.213792e+03,0.000000e+00
3.214756e+03,0.000000e+00
3.215720e+03,0.000000e+00
3.216684e+03,0.000000e+00
3.217649e+03,0.000000e+00
3.218613e+03,0.000000e+00
3.219577e+03,0.000000e+00
3.220541e+03,0.000000e+00
3.221506e+03,0.000000e+00
3.222470e+03,0.000000e+00
3.223434e+03,0.000000e+00
3.224398e+03,0.000000e+00
3.225363e+03,0.000000e+00
3.226327e+03,0.000000e+00
3.227291e+03,0.000000e+00
3.228255e+03,0.000000e+00
3.229219e+03,0.000000e+00
3.230184e+03,0.000000e+00
3.231148e+03,0.000000e+00
3.232112e+03,0.000000e+00
3.233076e+03,0.000000e+00
3.234041e+03,0.000000e+00
3.235005e+03,0.000000e+00
3.235969e+03,0.000000e+00
3.236933e+03,0.000000e+00
3.237897e+03,0.000000e+00
3.238862e+03,0.000000e+00
3.239826e+03,0.000000e+00
3.240790e+03,0.000000e+00
3.241754e+03,0.000000e+00
3.242719e+03,0.000000e+00
3.243683e+03,0.000000e+00
3.244647e+03,0.000000e+00
3.245611e+03,0.000000e+00
3.246576e+03,0.000000e+00
3.247540e+03,0.000000e+00
3.248504e+03,0.000000e+00
3.249468e+03,0.000000e+00
3.250433e+03,0.000000e+00
3.251397e+03,0.000000e+00
3.252361e+03,0.000000e+00
3.253325e+03,0.000000e+00
3.254290e+03,0.000000e+00
3.255254e+03,0.000000e+00
3.256218e+03,0.000000e+00
3.257182e+03,0.000000e+00
3.258146e+03,0.000000e+00
3.259111e+03,0.000000e+00
3.260075e+03,0.000000e+00
3.261039e+03,0.000000e+00
3.262003e+03,0.000000e+00
3.262968e+03,0.000000e+00
3.263932e+03,0.000000e+00
3.264896e+03,0.000000e+00
3.265860e+03,0.000000e+00
3.266824e+03,0.000000e+00
3.267789e+03,0.000000e+00
3.268753e+03,0.000000e+00
3.269717e+03,0.000000e+00
3.270681e+03,0.000000e+00
3.271646e+03,0.000000e+00
3.272610e+03,0.000000e+00
3.273574e+03,0.000000e+00
3.274538e+03,0.000000e+00
3.275503e+03,0.000000e+00
3.276467e+03,0.000000e+00
3.277431e+03,0.000000e+00
3.278395e+03,0.000000e+00
3.279360e+03,0.000000e+00
3.280324e+03,0.000000e+00
3.281288e+03,0.000000e+00
3.282252e+03,0.000000e+00
3.283217e+03,0.000000e+00
3.284181e+03,0.000000e+00
3.285145e+03,0.000000e+00
3.286109e+03,0.000000e+00
3.287073e+03,0.000000e+00
3.288038e+03,0.000000e+00
3.289002e+03,0.000000e+00
3.289966e+03,0.000000e+00
3.290930e+03,0.000000e+00
3.291895e+03,0.000000e+00
3.292859e+03,0.000000e+00
3.293823e+03,0.000000e+00
3.294787e+03,0.000000e+00
3.295751e+03,0.000000e+00
3.296716e+03,0.000000e+00
3.297680e+03,0.000000e+00
3.298644e+03,0.000000e+00
3.299608e+03,0.000000e+00
3.300573e+03,0.000000e+00
3.301537e+03,0.000000e+00
3.302501e+03,0.000000e+00
3.303465e+03,0.000000e+00
3.304430e+03,0.000000e+00
3.305394e+03,0.000000e+00
3.306358e+03,0.000000e+00
3.307322e+03,0.000000e+00
3.308287e+03,0.000000e+00
3.309251e+03,0.000000e+00
3.310215e+03,0.000000e+00
3.311179e+03,0.000000e+00
3.312144e+03,0.000000e+00
3.313108e+03,0.000000e+00
3.314072e+03,0.000000e+00
3.315036e+03,0.000000e+00
3.316000e+03,0.000000e+00
3.316965e+03,0.000000e+00
3.317929e+03,0.000000e+00
3.318893e+03,0.000000e+00
3.319857e+03,0.000000e+00
3.320822e+03,0.000000e+00
3.321786e+03,0.000000e+00
3.322750e+03,0.000000e+00
3.323714e+03,0.000000e+00
3.324678e+03,0.000000e+00
3.325643e+03,0.000000e+00
3.326607e+03,0.000000e+00
3.327571e+03,0.000000e+00
3.328535e+03,0.000000e+00
3.329500e+03,0.000000e+00
3.330464e+03,0.000000e+00
3.331428e+03,0.000000e+00
3.332392e+03,0.000000e+00
3.333357e+03,0.000000e+00
3.334321e+03,0.000000e+00
3.335285e+03,0.000000e+00
3.336249e+03,0.000000e+00
3.337214e+03,0.000000e+00
3.338178e+03,0.000000e+00
3.339142e+03,0.000000e+00
3.340106e+03,0.000000e+00
3.341071e+03,0.000000e+00
3.342035e+03,0.000000e+00
3.342999e+03,0.000000e+00
3.343963e+03,0.000000e+00
3.344927e+03,0.000000e+00
3.345892e+03,0.000000e+00
3.346856e+03,0.000000e+00
3.347820e+03,0.000000e+00
3.348784e+03,0.000000e+00
3.349749e+03,0.000000e+00
3.350713e+03,0.000000e+00
3.351677e+03,0.000000e+00
3.352641e+03,0.000000e+00
3.353605e+03,0.000000e+00
3.354570e+03,0.000000e+00
3.355534e+03,0.000000e+00
3.356498e+03,0.000000e+00
3.357462e+03,0.000000e+00
3.358427e+03,0.000000e+00
3.359391e+03,0.000000e+00
3.360355e+03,0.000000e+00
3.361319e+03,0.000000e+00
3.362284e+03,0.000000e+00
3.363248e+03,0.000000e+00
3.364212e+03,0.000000e+00
3.365176e+03,0.000000e+00
3.366141e+03,0.000000e+00
3.367105e+03,0.000000e+00
3.368069e+03,0.000000e+00
3.369033e+03,0.000000e+00
3.369998e+03,0.000000e+00
3.370962e+03,0.000000e+00
3.371926e+03,0.000000e+00
3.372890e+03,0.000000e+00
3.373854e+03,0.000000e+00
3.374819e+03,0.000000e+00
3.375783e+03,0.000000e+00
3.376747e+03,0.000000e+00
3.377711e+03,0.000000e+00
3.378676e+03,0.000000e+00
3.379640e+03,0.000000e+00
3.380604e+03,0.000000e+00
3.381568e+03,0.000000e+00
3.382532e+03,0.000000e+00
3.383497e+03,0.000000e+00
3.384461e+03,0.000000e+00
3.385425e+03,0.000000e+00
3.386389e+03,0.000000e+00
3.387354e+03,0.000000e+00
3.388318e+03,0.000000e+00
3.389282e+03,0.000000e+00
3.390246e+03,0.000000e+00
3.391211e+03,0.000000e+00
3.392175e+03,0.000000e+00
3.393139e+03,0.000000e+00
3.394103e+03,0.000000e+00
3.395068e+03,0.000000e+00
3.396032e+03,0.000000e+00
3.396996e+03,0.000000e+00
3.397960e+03,0.000000e+00
3.398925e+03,0.000000e+00
3.399889e+03,0.000000e+00
3.400853e+03,0.000000e+00
3.401817e+03,0.000000e+00
3.402781e+03,0.000000e+00
3.403746e+03,0.000000e+00
3.404710e+03,0.000000e+00
3.405674e+03,0.000000e+00
3.406638e+03,0.000000e+00
3.407603e+03,0.000000e+00
3.408567e+03,0.000000e+00
3.409531e+03,0.000000e+00
3.410495e+03,0.000000e+00
3.411459e+03,0.000000e+00
3.412424e+03,0.000000e+00
3.413388e+03,0.000000e+00
3.414352e+03,0.000000e+00
3.415316e+03,0.000000e+00
3.416281e+03,0.000000e+00
3.417245e+03,0.000000e+00
3.418209e+03,0.000000e+00
3.419173e+03,0.000000e+00
3.420138e+03,0.000000e+00
3.421102e+03,0.000000e+00
3.422066e+03,0.000000e+00
3.423030e+03,0.000000e+00
3.423995e+03,0.000000e+00
3.424959e+03,0.000000e+00
3.425923e+03,0.000000e+00
3.426887e+03,0.000000e+00
3.427852e+03,0.000000e+00
3.428816e+03,0.000000e+00
3.429780e+03,0.000000e+00
3.430744e+03,0.000000e+00
3.431708e+03,0.000000e+00
3.432673e+03,0.000000e+00
3.433637e+03,0.000000e+00
3.434601e+03,0.000000e+00
3.435565e+03,0.000000e+00
3.436530e+03,0.000000e+00
3.437494e+03,0.000000e+00
3.438458e+03,0.000000e+00
3.439422e+03,0.000000e+00
3.440386e+03,0.000000e+00
3.441351e+03,0.000000e+00
3.442315e+03,0.000000e+00
3.443279e+03,0.000000e+00
3.444243e+03,0.000000e+00
3.445208e+03,0.000000e+00
3.446172e+03,0.000000e+00
3.447136e+03,0.000000e+00
3.448100e+03,0.000000e+00
3.449065e+03,0.000000e+00
3.450029e+03,0.000000e+00
3.450993e+03,0.000000e+00
3.451957e+03,0.000000e+00
3.452922e+03,0.000000e+00
3.453886e+03,0.000000e+00
3.454850e+03,0.000000e+00
3.455814e+03,0.000000e+00
3.456779e+03,0.000000e+00
3.457743e+03,0.000000e+00
3.458707e+03,0.000000e+00
3.459671e+03,0.000000e+00
3.460635e+03,0.000000e+00
3.461600e+03,0.000000e+00
3.462564e+03,0.000000e+00
3.463528e+03,0.000000e+00
3.464492e+03,0.000000e+00
3.465457e+03,0.000000e+00
3.466421e+03,0.000000e+00
3.467385e+03,0.000000e+00
3.468349e+03,0.000000e+00
3.469313e+03,0.000000e+00
3.470278e+03,0.000000e+00
3.471242e+03,0.000000e+00
3.472206e+03,0.000000e+00
3.473170e+03,0.000000e+00
3.474135e+03,0.000000e+00
3.475099e+03,0.000000e+00
3.476063e+03,0.000000e+00
3.477027e+03,0.000000e+00
3.477992e+03,0.000000e+00
3.478956e+03,0.000000e+00
3.479920e+03,0.000000e+00
3.480884e+03,0.000000e+00
3.481849e+03,0.000000e+00
3.482813e+03,0.000000e+00
3.483777e+03,0.000000e+00
3.484741e+03,0.000000e+00
3.485706e+03,0.000000e+00
3.486670e+03,0.000000e+00
3.487634e+03,0.000000e+00
3.488598e+03,0.000000e+00
3.489563e+03,0.000000e+00
3.490527e+03,0.000000e+00
3.491491e+03,0.000000e+00
3.492455e+03,0.000000e+00
3.493419e+03,0.000000e+00
3.494384e+03,0.000000e+00
3.495348e+03,0.000000e+00
3.496312e+03,0.000000e+00
3.497276e+03,0.000000e+00
3.498240e+03,0.000000e+00
3.499205e+03,0.000000e+00
3.500169e+03,0.000000e+00
