9.931763e+01,0.000000e+00
1.002819e+02,0.000000e+00
1.012461e+02,0.000000e+00
1.022103e+02,0.000000e+00
1.031746e+02,0.000000e+00
1.041388e+02,0.000000e+00
1.051030e+02,0.000000e+00
1.060673e+02,0.000000e+00
1.070315e+02,0.000000e+00
1.079957e+02,0.000000e+00
1.089600e+02,0.000000e+00
1.099242e+02,0.000000e+00
1.108884e+02,0.000000e+00
1.118527e+02,0.000000e+00
1.128169e+02,0.000000e+00
1.137811e+02,0.000000e+00
1.147454e+02,0.000000e+00
1.157096e+02,0.000000e+00
1.166738e+02,0.000000e+00
1.176381e+02,0.000000e+00
1.186023e+02,0.000000e+00
1.195665e+02,0.000000e+00
1.205308e+02,0.000000e+00
1.214950e+02,0.000000e+00
1.224592e+02,0.000000e+00
1.234235e+02,0.000000e+00
1.243877e+02,0.000000e+00
1.253519e+02,0.000000e+00
1.263162e+02,0.000000e+00
1.272804e+02,0.000000e+00
1.282446e+02,0.000000e+00
1.292089e+02,0.000000e+00
1.301731e+02,0.000000e+00
1.311373e+02,0.000000e+00
1.321016e+02,0.000000e+00
1.330658e+02,0.000000e+00
1.340300e+02,0.000000e+00
1.349943e+02,0.000000e+00
1.359585e+02,0.000000e+00
1.369227e+02,0.000000e+00
1.378870e+02,0.000000e+00
1.388512e+02,0.000000e+00
1.398154e+02,0.000000e+00
1.407797e+02,0.000000e+00
1.417439e+02,0.000000e+00
1.427081e+02,0.000000e+00
1.436724e+02,0.000000e+00
1.446366e+02,0.000000e+00
1.456008e+02,0.000000e+00
1.465651e+02,0.000000e+00
1.475293e+02,0.000000e+00
1.484935e+02,0.000000e+00
1.494578e+02,0.000000e+00
1.504220e+02,0.000000e+00
1.513862e+02,0.000000e+00
1.523505e+02,0.000000e+00
1.533147e+02,0.000000e+00
1.542789e+02,0.000000e+00
1.552432e+02,0.000000e+00
1.562074e+02,0.000000e+00
1.571716e+02,0.000000e+00
1.581359e+02,0.000000e+00
1.591001e+02,0.000000e+00
1.600643e+02,0.000000e+00
1.610286e+02,0.000000e+00
1.619928e+02,0.000000e+00
1.629570e+02,0.000000e+00
1.639213e+02,0.000000e+00
1.648855e+02,0.000000e+00
1.658497e+02,0.000000e+00
1.668140e+02,0.000000e+00
1.677782e+02,0.000000e+00
1.687424e+02,0.000000e+00
1.697067e+02,0.000000e+00
1.706709e+02,0.000000e+00
1.716351e+02,0.000000e+00
1.725994e+02,0.000000e+00
1.735636e+02,0.000000e+00
1.745278e+02,0.000000e+00
1.754921e+02,0.000000e+00
1.764563e+02,0.000000e+00
1.774205e+02,0.000000e+00
1.783848e+02,0.000000e+00
1.793490e+02,0.000000e+00
1.803132e+02,0.000000e+00
1.812775e+02,0.000000e+00
1.822417e+02,0.000000e+00
1.832059e+02,0.000000e+00
1.841702e+02,0.000000e+00
1.851344e+02,0.000000e+00
1.860986e+02,0.000000e+00
1.870629e+02,0.000000e+00
1.880271e+02,0.000000e+00
1.889913e+02,0.000000e+00
1.899556e+02,0.000000e+00
1.909198e+02,0.000000e+00
1.918840e+02,0.000000e+00
1.928483e+02,0.000000e+00
1.938125e+02,0.000000e+00
1.947767e+02,0.000000e+00
1.957410e+02,0.000000e+00
1.967052e+02,0.000000e+00
1.976694e+02,0.000000e+00
1.986337e+02,0.000000e+00
1.995979e+02,1.046859e+04
2.005621e+02,1.047899e+04
2.015264e+02,1.049079e+04
2.024906e+02,1.050454e+04
2.034548e+02,1.051899e+04
2.044191e+02,1.053224e+04
2.053833e+02,1.054238e+04
2.063475e+02,1.054891e+04
2.073118e+02,1.055225e+04
2.082760e+02,1.055224e+04
2.092402e+02,1.054938e+04
2.102045e+02,1.054570e+04
2.111687e+02,1.054541e+04
2.121329e+02,1.055037e+04
2.130972e+02,1.055960e+04
2.140614e+02,1.057016e+04
2.150256e+02,1.057905e+04
2.159899e+02,1.058554e+04
2.169541e+02,1.059409e+04
2.179183e+02,1.060927e+04
2.188826e+02,1.062861e+04
2.198468e+02,1.064719e+04
2.208110e+02,1.066068e+04
2.217753e+02,1.066783e+04
2.227395e+02,1.067127e+04
2.237037e+02,1.067604e+04
2.246680e+02,1.068145e+04
2.256322e+02,1.068439e+04
2.265964e+02,1.068651e+04
2.275607e+02,1.069096e+04
2.285249e+02,1.070022e+04
2.294892e+02,1.071479e+04
2.304534e+02,1.073305e+04
2.314176e+02,1.074982e+04
2.323819e+02,1.076347e+04
2.333461e+02,1.077549e+04
2.343103e+02,1.078751e+04
2.352746e+02,1.080069e+04
2.362388e+02,1.081502e+04
2.372030e+02,1.082880e+04
2.381673e+02,1.083713e+04
2.391315e+02,1.083825e+04
2.400957e+02,1.083538e+04
2.410600e+02,1.083247e+04
2.420242e+02,1.083296e+04
2.429884e+02,1.083891e+04
2.439527e+02,1.084990e+04
2.449169e+02,1.086246e+04
2.458811e+02,1.087470e+04
2.468454e+02,1.088676e+04
2.478096e+02,1.089886e+04
2.487738e+02,1.091097e+04
2.497381e+02,1.092278e+04
2.507023e+02,1.093442e+04
2.516665e+02,1.094651e+04
2.526308e+02,1.095922e+04
2.535950e+02,1.096938e+04
2.545592e+02,1.097427e+04
2.555235e+02,1.097428e+04
2.564877e+02,1.097211e+04
2.574519e+02,1.097160e+04
2.584161e+02,1.097618e+04
2.593804e+02,1.098723e+04
2.603446e+02,1.100238e+04
2.613088e+02,1.101875e+04
2.622731e+02,1.103583e+04
2.632373e+02,1.105416e+04
2.642015e+02,1.107090e+04
2.651658e+02,1.108332e+04
2.661300e+02,1.109110e+04
2.670942e+02,1.109680e+04
2.680585e+02,1.110445e+04
2.690227e+02,1.111790e+04
2.699869e+02,1.113129e+04
2.709512e+02,1.113913e+04
2.719154e+02,1.114167e+04
2.728796e+02,1.114345e+04
2.738439e+02,1.115004e+04
2.748081e+02,1.116466e+04
2.757723e+02,1.118588e+04
2.767366e+02,1.120534e+04
2.777008e+02,1.121882e+04
2.786650e+02,1.122837e+04
2.796293e+02,1.123697e+04
2.805935e+02,1.124653e+04
2.815577e+02,1.125757e+04
2.825220e+02,1.126952e+04
2.834862e+02,1.127953e+04
2.844504e+02,1.128443e+04
2.854147e+02,1.128549e+04
2.863789e+02,1.128597e+04
2.873431e+02,1.128894e+04
2.883074e+02,1.129591e+04
2.892716e+02,1.130600e+04
2.902358e+02,1.131662e+04
2.912001e+02,1.132633e+04
2.921643e+02,1.133533e+04
2.931285e+02,1.134527e+04
2.940928e+02,1.135784e+04
2.950570e+02,1.137356e+04
2.960212e+02,1.138987e+04
2.969855e+02,1.140305e+04
2.979497e+02,1.141098e+04
2.989139e+02,1.141438e+04
2.998782e+02,1.141717e+04
3.008424e+02,1.142344e+04
3.018066e+02,1.143403e+04
3.027709e+02,1.144610e+04
3.037351e+02,1.145705e+04
3.046993e+02,1.146588e+04
3.056636e+02,1.147319e+04
3.066278e+02,1.148031e+04
3.075920e+02,1.148845e+04
3.085563e+02,1.149784e+04
3.095205e+02,1.151074e+04
3.104847e+02,1.152735e+04
3.114490e+02,1.154598e+04
3.124132e+02,1.156385e+04
3.133774e+02,1.157835e+04
3.143417e+02,1.158805e+04
3.153059e+02,1.159234e+04
3.162701e+02,1.159458e+04
3.172344e+02,1.159775e+04
3.181986e+02,1.160213e+04
3.191628e+02,1.160775e+04
3.201271e+02,1.161553e+04
3.210913e+02,1.162635e+04
3.220555e+02,1.163998e+04
3.230198e+02,1.165529e+04
3.239840e+02,1.167046e+04
3.249482e+02,1.168473e+04
3.259125e+02,1.169813e+04
3.268767e+02,1.171094e+04
3.278409e+02,1.172350e+04
3.288052e+02,1.173584e+04
3.297694e+02,1.174778e+04
3.307336e+02,1.175910e+04
3.316979e+02,1.176952e+04
3.326621e+02,1.177852e+04
3.336263e+02,1.178434e+04
3.345906e+02,1.178687e+04
3.355548e+02,1.178939e+04
3.365190e+02,1.179563e+04
3.374833e+02,1.180779e+04
3.384475e+02,1.182529e+04
3.394117e+02,1.184454e+04
3.403760e+02,1.186007e+04
3.413402e+02,1.187361e+04
3.423044e+02,1.188976e+04
3.432687e+02,1.190984e+04
3.442329e+02,1.193135e+04
3.451971e+02,1.195046e+04
3.461614e+02,1.196400e+04
3.471256e+02,1.197089e+04
3.480898e+02,1.197444e+04
3.490541e+02,1.197739e+04
3.500183e+02,1.198121e+04
3.509825e+02,1.198815e+04
3.519468e+02,1.200037e+04
3.529110e+02,1.201790e+04
3.538752e+02,1.203829e+04
3.548395e+02,1.205800e+04
3.558037e+02,1.207447e+04
3.567680e+02,1.208699e+04
3.577322e+02,1.209795e+04
3.586964e+02,1.211051e+04
3.596607e+02,1.212620e+04
3.606249e+02,1.214341e+04
3.615891e+02,1.215780e+04
3.625534e+02,1.216527e+04
3.635176e+02,1.216466e+04
3.644818e+02,1.215821e+04
3.654461e+02,1.215099e+04
3.664103e+02,1.214960e+04
3.673745e+02,1.215877e+04
3.683388e+02,1.217619e+04
3.693030e+02,1.219771e+04
3.702672e+02,1.221946e+04
3.712315e+02,1.223918e+04
3.721957e+02,1.225563e+04
3.731599e+02,1.226698e+04
3.741242e+02,1.227458e+04
3.750884e+02,1.228302e+04
3.760526e+02,1.229528e+04
3.770169e+02,1.231110e+04
3.779811e+02,1.232801e+04
3.789453e+02,1.234281e+04
3.799096e+02,1.235298e+04
3.808738e+02,1.235846e+04
3.818380e+02,1.236224e+04
3.828023e+02,1.236815e+04
3.837665e+02,1.237881e+04
3.847307e+02,1.239287e+04
3.856950e+02,1.240989e+04
3.866592e+02,1.242848e+04
3.876234e+02,1.244761e+04
3.885877e+02,1.246675e+04
3.895519e+02,1.248543e+04
3.905161e+02,1.250278e+04
3.914804e+02,1.251700e+04
3.924446e+02,1.252715e+04
3.934088e+02,1.253564e+04
3.943731e+02,1.254452e+04
3.953373e+02,1.255466e+04
3.963015e+02,1.256439e+04
3.972658e+02,1.257093e+04
3.982300e+02,1.257443e+04
3.991942e+02,1.258055e+04
4.001585e+02,1.259455e+04
4.011227e+02,1.261609e+04
4.020869e+02,1.263715e+04
4.030512e+02,1.265127e+04
4.040154e+02,1.265985e+04
4.049796e+02,1.266933e+04
4.059439e+02,1.268371e+04
4.069081e+02,1.270130e+04
4.078723e+02,1.271668e+04
4.088366e+02,1.272614e+04
4.098008e+02,1.273023e+04
4.107650e+02,1.273561e+04
4.117293e+02,1.274362e+04
4.126935e+02,1.275271e+04
4.136577e+02,1.276200e+04
4.146220e+02,1.277177e+04
4.155862e+02,1.278326e+04
4.165504e+02,1.279730e+04
4.175147e+02,1.281287e+04
4.184789e+02,1.282759e+04
4.194431e+02,1.284003e+04
4.204074e+02,1.285215e+04
4.213716e+02,1.286464e+04
4.223358e+02,1.287621e+04
4.233001e+02,1.288550e+04
4.242643e+02,1.289267e+04
4.252285e+02,1.289939e+04
4.261928e+02,1.290769e+04
4.271570e+02,1.291855e+04
4.281212e+02,1.293182e+04
4.290855e+02,1.294545e+04
4.300497e+02,1.295850e+04
4.310139e+02,1.297158e+04
4.319782e+02,1.298619e+04
4.329424e+02,1.300354e+04
4.339066e+02,1.302364e+04
4.348709e+02,1.304495e+04
4.358351e+02,1.306480e+04
4.367993e+02,1.308134e+04
4.377636e+02,1.309429e+04
4.387278e+02,1.310652e+04
4.396920e+02,1.312006e+04
4.406563e+02,1.313490e+04
4.416205e+02,1.314966e+04
4.425847e+02,1.316324e+04
4.435490e+02,1.317557e+04
4.445132e+02,1.318748e+04
4.454774e+02,1.320042e+04
4.464417e+02,1.321596e+04
4.474059e+02,1.323416e+04
4.483701e+02,1.325091e+04
4.493344e+02,1.326363e+04
4.502986e+02,1.327334e+04
4.512628e+02,1.328284e+04
4.522271e+02,1.329423e+04
4.531913e+02,1.330689e+04
4.541555e+02,1.331768e+04
4.551198e+02,1.332356e+04
4.560840e+02,1.332512e+04
4.570482e+02,1.332654e+04
4.580125e+02,1.333318e+04
4.589767e+02,1.334593e+04
4.599409e+02,1.336216e+04
4.609052e+02,1.337746e+04
4.618694e+02,1.338930e+04
4.628336e+02,1.339735e+04
4.637979e+02,1.340270e+04
4.647621e+02,1.340741e+04
4.657263e+02,1.341443e+04
4.666906e+02,1.342675e+04
4.676548e+02,1.344180e+04
4.686190e+02,1.345768e+04
4.695833e+02,1.347341e+04
4.705475e+02,1.348829e+04
4.715117e+02,1.350109e+04
4.724760e+02,1.351124e+04
4.734402e+02,1.351942e+04
4.744044e+02,1.352678e+04
4.753687e+02,1.353445e+04
4.763329e+02,1.354258e+04
4.772971e+02,1.355153e+04
4.782614e+02,1.356081e+04
4.792256e+02,1.357204e+04
4.801898e+02,1.358610e+04
4.811541e+02,1.360224e+04
4.821183e+02,1.361886e+04
4.830826e+02,1.363440e+04
4.840468e+02,1.364769e+04
4.850110e+02,1.365889e+04
4.859753e+02,1.367004e+04
4.869395e+02,1.368037e+04
4.879037e+02,1.368901e+04
4.888680e+02,1.369692e+04
4.898322e+02,1.370541e+04
4.907964e+02,1.371615e+04
4.917607e+02,1.372968e+04
4.927249e+02,1.374474e+04
4.936891e+02,1.375957e+04
4.946534e+02,1.377370e+04
4.956176e+02,1.378795e+04
4.965818e+02,1.380321e+04
4.975461e+02,1.381916e+04
4.985103e+02,1.383418e+04
4.994745e+02,1.384584e+04
5.004388e+02,1.385290e+04
5.014030e+02,1.385629e+04
5.023672e+02,1.385923e+04
5.033315e+02,1.386527e+04
5.042957e+02,1.387491e+04
5.052599e+02,1.388447e+04
5.062242e+02,1.388961e+04
5.071884e+02,1.389021e+04
5.081526e+02,1.389232e+04
5.091169e+02,1.390051e+04
5.100811e+02,1.391298e+04
5.110453e+02,1.392463e+04
5.120095e+02,1.393467e+04
5.129738e+02,1.394550e+04
5.139380e+02,1.395968e+04
5.149022e+02,1.397764e+04
5.158665e+02,1.399692e+04
5.168307e+02,1.401252e+04
5.177949e+02,1.401752e+04
5.187592e+02,1.401215e+04
5.197234e+02,1.400439e+04
5.206876e+02,1.400142e+04
5.216519e+02,1.400737e+04
5.226161e+02,1.402164e+04
5.235803e+02,1.403889e+04
5.245446e+02,1.405473e+04
5.255088e+02,1.406921e+04
5.264730e+02,1.408461e+04
5.274373e+02,1.410203e+04
5.284015e+02,1.411790e+04
5.293657e+02,1.412586e+04
5.303300e+02,1.412631e+04
5.312942e+02,1.412336e+04
5.322584e+02,1.412188e+04
5.332227e+02,1.412495e+04
5.341869e+02,1.413169e+04
5.351511e+02,1.413944e+04
5.361154e+02,1.414645e+04
5.370796e+02,1.415291e+04
5.380438e+02,1.416028e+04
5.390081e+02,1.416972e+04
5.399723e+02,1.418258e+04
5.409365e+02,1.419972e+04
5.419008e+02,1.421837e+04
5.428650e+02,1.423512e+04
5.438292e+02,1.424914e+04
5.447935e+02,1.426084e+04
5.457577e+02,1.427024e+04
5.467219e+02,1.427744e+04
5.476862e+02,1.428283e+04
5.486504e+02,1.428602e+04
5.496146e+02,1.428712e+04
5.505789e+02,1.428556e+04
5.515431e+02,1.428105e+04
5.525073e+02,1.427589e+04
5.534716e+02,1.427678e+04
5.544358e+02,1.428603e+04
5.554000e+02,1.430187e+04
5.563643e+02,1.431946e+04
5.573285e+02,1.433410e+04
5.582927e+02,1.434465e+04
5.592570e+02,1.435454e+04
5.602212e+02,1.436831e+04
5.611854e+02,1.438469e+04
5.621497e+02,1.439837e+04
5.631139e+02,1.440438e+04
5.640781e+02,1.440477e+04
5.650424e+02,1.440425e+04
5.660066e+02,1.440390e+04
5.669708e+02,1.440288e+04
5.679351e+02,1.440188e+04
5.688993e+02,1.440255e+04
5.698635e+02,1.440641e+04
5.708278e+02,1.441501e+04
5.717920e+02,1.442932e+04
5.727562e+02,1.444722e+04
5.737205e+02,1.446632e+04
5.746847e+02,1.448466e+04
5.756489e+02,1.450103e+04
5.766132e+02,1.451403e+04
5.775774e+02,1.452408e+04
5.785416e+02,1.453186e+04
5.795059e+02,1.453861e+04
5.804701e+02,1.454531e+04
5.814343e+02,1.455171e+04
5.823986e+02,1.455699e+04
5.833628e+02,1.456158e+04
5.843270e+02,1.456737e+04
5.852913e+02,1.457575e+04
5.862555e+02,1.458747e+04
5.872197e+02,1.460104e+04
5.881840e+02,1.461467e+04
5.891482e+02,1.462818e+04
5.901124e+02,1.464227e+04
5.910767e+02,1.465716e+04
5.920409e+02,1.467230e+04
5.930051e+02,1.468665e+04
5.939694e+02,1.469887e+04
5.949336e+02,1.470733e+04
5.958978e+02,1.471169e+04
5.968621e+02,1.471280e+04
5.978263e+02,1.471375e+04
5.987905e+02,1.471770e+04
5.997548e+02,1.472232e+04
6.007190e+02,1.472731e+04
6.016832e+02,1.473586e+04
6.026475e+02,1.474915e+04
6.036117e+02,1.476569e+04
6.045759e+02,1.478200e+04
6.055402e+02,1.479449e+04
6.065044e+02,1.480126e+04
6.074686e+02,1.480325e+04
6.084329e+02,1.480358e+04
6.093971e+02,1.480355e+04
6.103613e+02,1.480231e+04
6.113256e+02,1.479925e+04
6.122899e+02,1.479717e+04
6.132541e+02,1.479716e+04
6.142183e+02,1.479783e+04
6.151826e+02,1.479785e+04
6.161468e+02,1.479876e+04
6.171110e+02,1.480373e+04
6.180753e+02,1.481446e+04
6.190395e+02,1.482914e+04
6.200037e+02,1.484330e+04
6.209680e+02,1.485351e+04
6.219322e+02,1.486203e+04
6.228964e+02,1.487319e+04
6.238607e+02,1.488781e+04
6.248249e+02,1.490167e+04
6.257891e+02,1.490916e+04
6.267534e+02,1.490815e+04
6.277176e+02,1.490325e+04
6.286818e+02,1.490022e+04
6.296461e+02,1.490030e+04
6.306103e+02,1.490267e+04
6.315745e+02,1.490827e+04
6.325388e+02,1.491866e+04
6.335030e+02,1.493294e+04
6.344672e+02,1.494896e+04
6.354315e+02,1.496447e+04
6.363957e+02,1.497669e+04
6.373599e+02,1.498388e+04
6.383242e+02,1.498865e+04
6.392884e+02,1.499300e+04
6.402526e+02,1.499741e+04
6.412169e+02,1.500162e+04
6.421811e+02,1.500515e+04
6.431453e+02,1.500741e+04
6.441096e+02,1.500828e+04
6.450738e+02,1.500878e+04
6.460380e+02,1.501156e+04
6.470023e+02,1.501978e+04
6.479665e+02,1.503418e+04
6.489307e+02,1.505279e+04
6.498950e+02,1.507186e+04
6.508592e+02,1.508711e+04
6.518234e+02,1.509670e+04
6.527877e+02,1.510229e+04
6.537519e+02,1.510528e+04
6.547161e+02,1.510578e+04
6.556804e+02,1.510314e+04
6.566446e+02,1.509850e+04
6.576088e+02,1.509450e+04
6.585731e+02,1.509309e+04
6.595373e+02,1.509394e+04
6.605015e+02,1.509527e+04
6.614658e+02,1.509669e+04
6.624300e+02,1.510019e+04
6.633942e+02,1.510781e+04
6.643585e+02,1.511969e+04
6.653227e+02,1.513325e+04
6.662869e+02,1.514584e+04
6.672512e+02,1.515753e+04
6.682154e+02,1.516968e+04
6.691796e+02,1.518046e+04
6.701439e+02,1.518706e+04
6.711081e+02,1.518767e+04
6.720723e+02,1.518342e+04
6.730366e+02,1.517777e+04
6.740008e+02,1.517299e+04
6.749650e+02,1.516799e+04
6.759293e+02,1.516123e+04
6.768935e+02,1.515377e+04
6.778577e+02,1.514799e+04
6.788220e+02,1.514685e+04
6.797862e+02,1.515396e+04
6.807504e+02,1.516651e+04
6.817147e+02,1.518098e+04
6.826789e+02,1.519477e+04
6.836431e+02,1.520496e+04
6.846074e+02,1.520882e+04
6.855716e+02,1.520685e+04
6.865358e+02,1.520200e+04
6.875001e+02,1.519723e+04
6.884643e+02,1.519435e+04
6.894285e+02,1.519395e+04
6.903928e+02,1.519585e+04
6.913570e+02,1.519913e+04
6.923212e+02,1.520169e+04
6.932855e+02,1.520305e+04
6.942497e+02,1.520613e+04
6.952139e+02,1.521573e+04
6.961782e+02,1.523167e+04
6.971424e+02,1.525063e+04
6.981066e+02,1.526848e+04
6.990709e+02,1.527872e+04
7.000351e+02,1.527894e+04
7.009993e+02,1.527256e+04
7.019636e+02,1.526598e+04
7.029278e+02,1.526507e+04
7.038920e+02,1.526983e+04
7.048563e+02,1.527234e+04
7.058205e+02,1.526598e+04
7.067847e+02,1.525350e+04
7.077490e+02,1.524436e+04
7.087132e+02,1.524658e+04
7.096774e+02,1.525943e+04
7.106417e+02,1.526992e+04
7.116059e+02,1.527464e+04
7.125701e+02,1.527661e+04
7.135344e+02,1.527907e+04
7.144986e+02,1.528337e+04
7.154628e+02,1.528766e+04
7.164271e+02,1.529003e+04
7.173913e+02,1.529049e+04
7.183555e+02,1.528962e+04
7.193198e+02,1.528671e+04
7.202840e+02,1.528051e+04
7.212482e+02,1.527218e+04
7.222125e+02,1.526654e+04
7.231767e+02,1.526649e+04
7.241409e+02,1.527022e+04
7.251052e+02,1.527214e+04
7.260694e+02,1.526955e+04
7.270336e+02,1.526573e+04
7.279979e+02,1.526583e+04
7.289621e+02,1.526992e+04
7.299263e+02,1.527459e+04
7.308906e+02,1.527715e+04
7.318548e+02,1.527733e+04
7.328190e+02,1.527758e+04
7.337833e+02,1.527802e+04
7.347475e+02,1.527573e+04
7.357117e+02,1.526974e+04
7.366760e+02,1.526309e+04
7.376402e+02,1.525981e+04
7.386044e+02,1.526134e+04
7.395687e+02,1.526505e+04
7.405329e+02,1.526603e+04
7.414971e+02,1.526304e+04
7.424614e+02,1.525810e+04
7.434256e+02,1.525674e+04
7.443898e+02,1.526429e+04
7.453541e+02,1.527919e+04
7.463183e+02,1.529294e+04
7.472825e+02,1.529838e+04
7.482468e+02,1.529303e+04
7.492110e+02,1.527984e+04
7.501752e+02,1.526561e+04
7.511395e+02,1.525685e+04
7.521037e+02,1.525462e+04
7.530679e+02,1.525480e+04
7.540322e+02,1.525334e+04
7.549964e+02,1.524841e+04
7.559606e+02,1.524167e+04
7.569249e+02,1.523814e+04
7.578891e+02,1.524144e+04
7.588533e+02,1.525349e+04
7.598176e+02,1.526986e+04
7.607818e+02,1.528172e+04
7.617460e+02,1.528168e+04
7.627103e+02,1.526970e+04
7.636745e+02,1.525463e+04
7.646387e+02,1.524539e+04
7.656030e+02,1.524555e+04
7.665672e+02,1.525153e+04
7.675314e+02,1.525528e+04
7.684957e+02,1.524844e+04
7.694599e+02,1.523069e+04
7.704241e+02,1.520913e+04
7.713884e+02,1.519077e+04
7.723526e+02,1.518061e+04
7.733168e+02,1.518211e+04
7.742811e+02,1.519495e+04
7.752453e+02,1.521249e+04
7.762095e+02,1.522906e+04
7.771738e+02,1.524241e+04
7.781380e+02,1.524831e+04
7.791022e+02,1.524386e+04
7.800665e+02,1.523272e+04
7.810307e+02,1.521751e+04
7.819949e+02,1.520059e+04
7.829592e+02,1.518555e+04
7.839234e+02,1.517600e+04
7.848876e+02,1.517197e+04
7.858519e+02,1.516986e+04
7.868161e+02,1.516613e+04
7.877803e+02,1.515915e+04
7.887446e+02,1.514994e+04
7.897088e+02,1.514234e+04
7.906730e+02,1.514186e+04
7.916373e+02,1.515188e+04
7.926015e+02,1.516755e+04
7.935657e+02,1.517592e+04
7.945300e+02,1.516935e+04
7.954942e+02,1.514950e+04
7.964584e+02,1.512679e+04
7.974227e+02,1.511302e+04
7.983869e+02,1.511432e+04
7.993511e+02,1.512022e+04
8.003154e+02,1.512167e+04
8.012796e+02,1.511615e+04
8.022438e+02,1.510676e+04
8.032081e+02,1.510045e+04
8.041723e+02,1.510214e+04
8.051365e+02,1.511077e+04
8.061008e+02,1.512033e+04
8.070650e+02,1.512487e+04
8.080292e+02,1.512238e+04
8.089935e+02,1.511622e+04
8.099577e+02,1.511103e+04
8.109219e+02,1.510789e+04
8.118862e+02,1.510565e+04
8.128504e+02,1.510418e+04
8.138146e+02,1.510323e+04
8.147789e+02,1.510144e+04
8.157431e+02,1.509489e+04
8.167073e+02,1.508295e+04
8.176716e+02,1.507169e+04
8.186358e+02,1.506742e+04
8.196000e+02,1.507191e+04
8.205643e+02,1.507971e+04
8.215285e+02,1.508233e+04
8.224927e+02,1.507937e+04
8.234570e+02,1.507605e+04
8.244212e+02,1.507452e+04
8.253854e+02,1.507339e+04
8.263497e+02,1.506932e+04
8.273139e+02,1.505846e+04
8.282781e+02,1.504160e+04
8.292424e+02,1.502366e+04
8.302066e+02,1.501013e+04
8.311708e+02,1.500352e+04
8.321351e+02,1.500308e+04
8.330993e+02,1.500557e+04
8.340635e+02,1.500693e+04
8.350278e+02,1.500583e+04
8.359920e+02,1.500283e+04
8.369562e+02,1.499833e+04
8.379205e+02,1.499258e+04
8.388847e+02,1.498508e+04
8.398489e+02,1.497732e+04
8.408132e+02,1.497059e+04
8.417774e+02,1.496388e+04
8.427416e+02,1.495447e+04
8.437059e+02,1.494075e+04
8.446701e+02,1.492554e+04
8.456343e+02,1.491304e+04
8.465986e+02,1.490328e+04
8.475628e+02,1.489335e+04
8.485270e+02,1.488165e+04
8.494913e+02,1.486915e+04
8.504555e+02,1.485866e+04
8.514197e+02,1.485258e+04
8.523840e+02,1.485071e+04
8.533482e+02,1.485094e+04
8.543124e+02,1.485084e+04
8.552767e+02,1.484917e+04
8.562409e+02,1.484453e+04
8.572051e+02,1.483557e+04
8.581694e+02,1.482356e+04
8.591336e+02,1.481077e+04
8.600978e+02,1.479902e+04
8.610621e+02,1.479049e+04
8.620263e+02,1.478658e+04
8.629905e+02,1.478478e+04
8.639548e+02,1.477995e+04
8.649190e+02,1.477012e+04
8.658832e+02,1.475820e+04
8.668475e+02,1.475173e+04
8.678117e+02,1.475610e+04
8.687759e+02,1.476748e+04
8.697402e+02,1.477568e+04
8.707044e+02,1.477228e+04
8.716686e+02,1.475810e+04
8.726329e+02,1.473956e+04
8.735971e+02,1.472072e+04
8.745613e+02,1.470254e+04
8.755256e+02,1.468823e+04
8.764898e+02,1.468069e+04
8.774540e+02,1.467971e+04
8.784183e+02,1.468146e+04
8.793825e+02,1.468145e+04
8.803467e+02,1.467756e+04
8.813110e+02,1.467139e+04
8.822752e+02,1.466664e+04
8.832394e+02,1.466605e+04
8.842037e+02,1.466912e+04
8.851679e+02,1.467213e+04
8.861321e+02,1.467136e+04
8.870964e+02,1.466516e+04
8.880606e+02,1.465239e+04
8.890248e+02,1.463373e+04
8.899891e+02,1.461325e+04
8.909533e+02,1.459646e+04
8.919175e+02,1.458521e+04
8.928818e+02,1.457990e+04
8.938460e+02,1.457679e+04
8.948102e+02,1.457301e+04
8.957745e+02,1.456709e+04
8.967387e+02,1.456026e+04
8.977029e+02,1.454933e+04
8.986672e+02,1.453495e+04
8.996314e+02,1.452333e+04
9.005956e+02,1.451807e+04
9.015599e+02,1.452083e+04
9.025241e+02,1.452663e+04
9.034883e+02,1.452813e+04
9.044526e+02,1.451986e+04
9.054168e+02,1.450196e+04
9.063810e+02,1.448119e+04
9.073453e+02,1.446610e+04
9.083095e+02,1.445868e+04
9.092737e+02,1.445538e+04
9.102380e+02,1.445147e+04
9.112022e+02,1.444376e+04
9.121664e+02,1.443234e+04
9.131307e+02,1.442085e+04
9.140949e+02,1.441513e+04
9.150591e+02,1.441818e+04
9.160234e+02,1.442555e+04
9.169876e+02,1.442889e+04
9.179518e+02,1.442170e+04
9.189161e+02,1.440307e+04
9.198803e+02,1.437809e+04
9.208445e+02,1.435555e+04
9.218088e+02,1.433992e+04
9.227730e+02,1.433044e+04
9.237372e+02,1.432419e+04
9.247015e+02,1.432023e+04
9.256657e+02,1.431898e+04
9.266299e+02,1.431949e+04
9.275942e+02,1.432069e+04
9.285584e+02,1.432042e+04
9.295226e+02,1.431703e+04
9.304869e+02,1.431140e+04
9.314511e+02,1.430612e+04
9.324153e+02,1.430228e+04
9.333796e+02,1.430009e+04
9.343438e+02,1.429818e+04
9.353080e+02,1.429442e+04
9.362723e+02,1.428414e+04
9.372365e+02,1.426693e+04
9.382007e+02,1.424799e+04
9.391650e+02,1.423408e+04
9.401292e+02,1.422826e+04
9.410934e+02,1.422677e+04
9.420577e+02,1.422227e+04
9.430219e+02,1.421154e+04
9.439861e+02,1.419758e+04
9.449504e+02,1.418635e+04
9.459146e+02,1.418341e+04
9.468788e+02,1.418892e+04
9.478431e+02,1.419412e+04
9.488073e+02,1.418903e+04
9.497715e+02,1.417117e+04
9.507358e+02,1.414641e+04
9.517000e+02,1.412407e+04
9.526642e+02,1.410833e+04
9.536285e+02,1.409421e+04
9.545927e+02,1.407530e+04
9.555569e+02,1.405309e+04
9.565212e+02,1.403351e+04
9.574854e+02,1.402130e+04
9.584496e+02,1.401675e+04
9.594139e+02,1.401480e+04
9.603781e+02,1.401068e+04
9.613423e+02,1.400245e+04
9.623066e+02,1.399022e+04
9.632708e+02,1.397701e+04
9.642350e+02,1.396611e+04
9.651993e+02,1.395882e+04
9.661635e+02,1.395218e+04
9.671277e+02,1.394241e+04
9.680920e+02,1.393030e+04
9.690562e+02,1.391574e+04
9.700204e+02,1.389674e+04
9.709847e+02,1.387538e+04
9.719489e+02,1.385479e+04
9.729131e+02,1.383819e+04
9.738774e+02,1.382827e+04
9.748416e+02,1.382635e+04
9.758058e+02,1.383006e+04
9.767701e+02,1.383447e+04
9.777343e+02,1.383559e+04
9.786985e+02,1.383075e+04
9.796628e+02,1.382131e+04
9.806270e+02,1.381106e+04
9.815912e+02,1.379767e+04
9.825555e+02,1.377808e+04
9.835197e+02,1.375399e+04
9.844839e+02,1.373209e+04
9.854482e+02,1.371686e+04
9.864124e+02,1.370686e+04
9.873766e+02,1.369642e+04
9.883409e+02,1.368503e+04
9.893051e+02,1.367682e+04
9.902693e+02,1.367490e+04
9.912336e+02,1.367828e+04
9.921978e+02,1.368210e+04
9.931620e+02,1.368169e+04
9.941263e+02,1.367661e+04
9.950905e+02,1.366826e+04
9.960547e+02,1.365736e+04
9.970190e+02,1.364452e+04
9.979832e+02,1.362792e+04
9.989474e+02,1.360553e+04
9.999117e+02,1.357914e+04
1.000876e+03,1.355395e+04
1.001840e+03,1.353509e+04
1.002804e+03,1.352502e+04
1.003769e+03,1.352162e+04
1.004733e+03,1.352063e+04
1.005697e+03,1.352014e+04
1.006661e+03,1.352029e+04
1.007626e+03,1.352195e+04
1.008590e+03,1.352524e+04
1.009554e+03,1.352729e+04
1.010518e+03,1.352315e+04
1.011482e+03,1.351035e+04
1.012447e+03,1.348933e+04
1.013411e+03,1.346450e+04
1.014375e+03,1.344214e+04
1.015339e+03,1.342608e+04
1.016304e+03,1.341521e+04
1.017268e+03,1.340768e+04
1.018232e+03,1.340070e+04
1.019196e+03,1.339259e+04
1.020161e+03,1.338336e+04
1.021125e+03,1.337527e+04
1.022089e+03,1.337200e+04
1.023053e+03,1.337417e+04
1.024018e+03,1.337847e+04
1.024982e+03,1.337917e+04
1.025946e+03,1.337262e+04
1.026910e+03,1.335684e+04
1.027875e+03,1.333640e+04
1.028839e+03,1.331672e+04
1.029803e+03,1.329992e+04
1.030767e+03,1.328678e+04
1.031731e+03,1.327666e+04
1.032696e+03,1.326663e+04
1.033660e+03,1.325537e+04
1.034624e+03,1.324430e+04
1.035588e+03,1.323626e+04
1.036552e+03,1.323313e+04
1.037517e+03,1.323368e+04
1.038481e+03,1.323326e+04
1.039445e+03,1.322859e+04
1.040409e+03,1.321939e+04
1.041374e+03,1.320754e+04
1.042338e+03,1.319648e+04
1.043302e+03,1.318691e+04
1.044266e+03,1.317644e+04
1.045231e+03,1.316415e+04
1.046195e+03,1.314897e+04
1.047159e+03,1.313266e+04
1.048123e+03,1.311727e+04
1.049088e+03,1.310325e+04
1.050052e+03,1.309432e+04
1.051016e+03,1.309154e+04
1.051980e+03,1.309446e+04
1.052945e+03,1.310088e+04
1.053909e+03,1.310688e+04
1.054873e+03,1.310619e+04
1.055837e+03,1.309850e+04
1.056802e+03,1.308644e+04
1.057766e+03,1.307356e+04
1.058730e+03,1.306327e+04
1.059694e+03,1.305441e+04
1.060658e+03,1.304297e+04
1.061623e+03,1.302976e+04
1.062587e+03,1.301874e+04
1.063551e+03,1.301213e+04
1.064515e+03,1.300789e+04
1.065479e+03,1.300166e+04
1.066444e+03,1.299553e+04
1.067408e+03,1.299333e+04
1.068372e+03,1.299629e+04
1.069336e+03,1.300229e+04
1.070301e+03,1.300575e+04
1.071265e+03,1.300379e+04
1.072229e+03,1.299888e+04
1.073193e+03,1.299201e+04
1.074158e+03,1.298102e+04
1.075122e+03,1.296556e+04
1.076086e+03,1.294618e+04
1.077050e+03,1.292546e+04
1.078015e+03,1.290901e+04
1.078979e+03,1.290006e+04
1.079943e+03,1.289797e+04
1.080907e+03,1.290029e+04
1.081872e+03,1.290264e+04
1.082836e+03,1.290117e+04
1.083800e+03,1.289598e+04
1.084764e+03,1.288918e+04
1.085729e+03,1.288339e+04
1.086693e+03,1.287917e+04
1.087657e+03,1.287401e+04
1.088621e+03,1.286494e+04
1.089585e+03,1.284824e+04
1.090550e+03,1.282527e+04
1.091514e+03,1.279978e+04
1.092478e+03,1.277671e+04
1.093442e+03,1.275849e+04
1.094406e+03,1.274686e+04
1.095371e+03,1.273999e+04
1.096335e+03,1.273498e+04
1.097299e+03,1.273169e+04
1.098263e+03,1.273104e+04
1.099228e+03,1.273144e+04
1.100192e+03,1.273034e+04
1.101156e+03,1.272593e+04
1.102120e+03,1.271904e+04
1.103085e+03,1.271158e+04
1.104049e+03,1.270315e+04
1.105013e+03,1.269269e+04
1.105977e+03,1.268010e+04
1.106942e+03,1.266766e+04
1.107906e+03,1.265652e+04
1.108870e+03,1.264655e+04
1.109834e+03,1.263705e+04
1.110799e+03,1.262808e+04
1.111763e+03,1.262012e+04
1.112727e+03,1.261433e+04
1.113691e+03,1.261240e+04
1.114656e+03,1.261370e+04
1.115620e+03,1.261782e+04
1.116584e+03,1.262286e+04
1.117548e+03,1.262516e+04
1.118512e+03,1.262205e+04
1.119477e+03,1.261324e+04
1.120441e+03,1.259989e+04
1.121405e+03,1.258542e+04
1.122369e+03,1.257089e+04
1.123334e+03,1.255476e+04
1.124298e+03,1.253753e+04
1.125262e+03,1.252256e+04
1.126226e+03,1.251250e+04
1.127191e+03,1.250841e+04
1.128155e+03,1.250857e+04
1.129119e+03,1.251101e+04
1.130083e+03,1.251435e+04
1.131047e+03,1.251797e+04
1.132012e+03,1.251856e+04
1.132976e+03,1.251448e+04
1.133940e+03,1.250491e+04
1.134904e+03,1.249088e+04
1.135869e+03,1.247554e+04
1.136833e+03,1.246011e+04
1.137797e+03,1.244471e+04
1.138761e+03,1.243224e+04
1.139726e+03,1.242472e+04
1.140690e+03,1.242159e+04
1.141654e+03,1.241926e+04
1.142618e+03,1.241452e+04
1.143583e+03,1.240856e+04
1.144547e+03,1.240450e+04
1.145511e+03,1.240247e+04
1.146475e+03,1.239991e+04
1.147439e+03,1.239494e+04
1.148404e+03,1.239117e+04
1.149368e+03,1.239142e+04
1.150332e+03,1.239473e+04
1.151296e+03,1.239657e+04
1.152261e+03,1.239111e+04
1.153225e+03,1.237521e+04
1.154189e+03,1.235377e+04
1.155153e+03,1.233228e+04
1.156118e+03,1.231429e+04
1.157082e+03,1.230374e+04
1.158046e+03,1.230157e+04
1.159010e+03,1.230425e+04
1.159974e+03,1.231010e+04
1.160939e+03,1.231762e+04
1.161903e+03,1.232376e+04
1.162867e+03,1.232563e+04
1.163831e+03,1.232199e+04
1.164796e+03,1.231268e+04
1.165760e+03,1.229995e+04
1.166724e+03,1.228634e+04
1.167688e+03,1.227357e+04
1.168653e+03,1.226184e+04
1.169617e+03,1.224983e+04
1.170581e+03,1.223781e+04
1.171545e+03,1.222763e+04
1.172510e+03,1.222074e+04
1.173474e+03,1.221783e+04
1.174438e+03,1.221750e+04
1.175402e+03,1.221769e+04
1.176366e+03,1.221765e+04
1.177331e+03,1.221794e+04
1.178295e+03,1.221967e+04
1.179259e+03,1.222287e+04
1.180223e+03,1.222465e+04
1.181188e+03,1.222204e+04
1.182152e+03,1.221399e+04
1.183116e+03,1.220177e+04
1.184080e+03,1.218831e+04
1.185045e+03,1.217584e+04
1.186009e+03,1.216423e+04
1.186973e+03,1.215562e+04
1.187937e+03,1.215203e+04
1.188901e+03,1.215375e+04
1.189866e+03,1.215787e+04
1.190830e+03,1.216024e+04
1.191794e+03,1.215797e+04
1.192758e+03,1.215338e+04
1.193723e+03,1.215059e+04
1.194687e+03,1.215149e+04
1.195651e+03,1.215508e+04
1.196615e+03,1.215997e+04
1.197580e+03,1.216339e+04
1.198544e+03,1.215958e+04
1.199508e+03,1.214554e+04
1.200472e+03,1.212410e+04
1.201437e+03,1.210147e+04
1.202401e+03,1.208364e+04
1.203365e+03,1.207370e+04
1.204329e+03,1.206927e+04
1.205293e+03,1.206879e+04
1.206258e+03,1.207349e+04
1.207222e+03,1.208336e+04
1.208186e+03,1.209560e+04
1.209150e+03,1.210588e+04
1.210115e+03,1.211081e+04
1.211079e+03,1.211116e+04
1.212043e+03,1.210839e+04
1.213007e+03,1.210103e+04
1.213972e+03,1.208987e+04
1.214936e+03,1.207871e+04
1.215900e+03,1.207091e+04
1.216864e+03,1.206684e+04
1.217828e+03,1.206404e+04
1.218793e+03,1.206090e+04
1.219757e+03,1.205934e+04
1.220721e+03,1.206198e+04
1.221685e+03,1.206943e+04
1.222650e+03,1.207888e+04
1.223614e+03,1.208586e+04
1.224578e+03,1.208853e+04
1.225542e+03,1.208900e+04
1.226507e+03,1.209016e+04
1.227471e+03,1.209388e+04
1.228435e+03,1.209622e+04
1.229399e+03,1.209166e+04
1.230364e+03,1.207938e+04
1.231328e+03,1.206402e+04
1.232292e+03,1.205239e+04
1.233256e+03,1.204628e+04
1.234220e+03,1.204068e+04
1.235185e+03,1.203637e+04
1.236149e+03,1.203708e+04
1.237113e+03,1.204521e+04
1.238077e+03,1.206025e+04
1.239042e+03,1.207636e+04
1.240006e+03,1.208805e+04
1.240970e+03,1.209490e+04
1.241934e+03,1.209637e+04
1.242899e+03,1.209272e+04
1.243863e+03,1.208584e+04
1.244827e+03,1.207817e+04
1.245791e+03,1.207111e+04
1.246755e+03,1.206470e+04
1.247720e+03,1.205847e+04
1.248684e+03,1.205321e+04
1.249648e+03,1.205222e+04
1.250612e+03,1.205658e+04
1.251577e+03,1.206338e+04
1.252541e+03,1.206856e+04
1.253505e+03,1.207111e+04
1.254469e+03,1.207357e+04
1.255434e+03,1.207892e+04
1.256398e+03,1.208695e+04
1.257362e+03,1.209436e+04
1.258326e+03,1.209864e+04
1.259291e+03,1.209946e+04
1.260255e+03,1.209518e+04
1.261219e+03,1.208518e+04
1.262183e+03,1.207352e+04
1.263147e+03,1.206557e+04
1.264112e+03,1.206410e+04
1.265076e+03,1.206679e+04
1.266040e+03,1.206810e+04
1.267004e+03,1.206675e+04
1.267969e+03,1.206690e+04
1.268933e+03,1.207341e+04
1.269897e+03,1.208905e+04
1.270861e+03,1.211000e+04
1.271826e+03,1.212621e+04
1.272790e+03,1.213205e+04
1.273754e+03,1.212802e+04
1.274718e+03,1.212109e+04
1.275682e+03,1.211779e+04
1.276647e+03,1.211681e+04
1.277611e+03,1.211262e+04
1.278575e+03,1.210325e+04
1.279539e+03,1.209122e+04
1.280504e+03,1.208200e+04
1.281468e+03,1.208024e+04
1.282432e+03,1.208585e+04
1.283396e+03,1.209693e+04
1.284361e+03,1.210967e+04
1.285325e+03,1.212119e+04
1.286289e+03,1.213128e+04
1.287253e+03,1.213923e+04
1.288218e+03,1.214299e+04
1.289182e+03,1.214229e+04
1.290146e+03,1.213922e+04
1.291110e+03,1.213679e+04
1.292074e+03,1.213638e+04
1.293039e+03,1.213656e+04
1.294003e+03,1.213494e+04
1.294967e+03,1.213106e+04
1.295931e+03,1.212661e+04
1.296896e+03,1.212579e+04
1.297860e+03,1.213082e+04
1.298824e+03,1.214073e+04
1.299788e+03,1.215171e+04
1.300753e+03,1.216169e+04
1.301717e+03,1.217194e+04
1.302681e+03,1.218424e+04
1.303645e+03,1.219719e+04
1.304609e+03,1.220787e+04
1.305574e+03,1.221203e+04
1.306538e+03,1.220744e+04
1.307502e+03,1.219836e+04
1.308466e+03,1.219233e+04
1.309431e+03,1.219354e+04
1.310395e+03,1.220066e+04
1.311359e+03,1.220740e+04
1.312323e+03,1.220922e+04
1.313288e+03,1.220757e+04
1.314252e+03,1.220847e+04
1.315216e+03,1.221535e+04
1.316180e+03,1.222828e+04
1.317145e+03,1.224543e+04
1.318109e+03,1.226202e+04
1.319073e+03,1.227270e+04
1.320037e+03,1.227719e+04
1.321001e+03,1.227587e+04
1.321966e+03,1.226942e+04
1.322930e+03,1.225932e+04
1.323894e+03,1.225173e+04
1.324858e+03,1.225024e+04
1.325823e+03,1.225572e+04
1.326787e+03,1.226384e+04
1.327751e+03,1.227136e+04
1.328715e+03,1.227864e+04
1.329680e+03,1.228794e+04
1.330644e+03,1.229959e+04
1.331608e+03,1.231272e+04
1.332572e+03,1.232611e+04
1.333536e+03,1.233862e+04
1.334501e+03,1.234825e+04
1.335465e+03,1.235255e+04
1.336429e+03,1.235268e+04
1.337393e+03,1.235253e+04
1.338358e+03,1.235613e+04
1.339322e+03,1.236248e+04
1.340286e+03,1.236631e+04
1.341250e+03,1.236429e+04
1.342215e+03,1.235940e+04
1.343179e+03,1.235705e+04
1.344143e+03,1.236238e+04
1.345107e+03,1.237366e+04
1.346072e+03,1.238784e+04
1.347036e+03,1.240064e+04
1.348000e+03,1.240914e+04
1.348964e+03,1.241398e+04
1.349928e+03,1.241842e+04
1.350893e+03,1.242577e+04
1.351857e+03,1.243559e+04
1.352821e+03,1.244503e+04
1.353785e+03,1.245077e+04
1.354750e+03,1.245079e+04
1.355714e+03,1.244625e+04
1.356678e+03,1.244206e+04
1.357642e+03,1.244293e+04
1.358607e+03,1.245002e+04
1.359571e+03,1.245958e+04
1.360535e+03,1.246655e+04
1.361499e+03,1.247062e+04
1.362464e+03,1.247646e+04
1.363428e+03,1.248774e+04
1.364392e+03,1.250451e+04
1.365356e+03,1.252194e+04
1.366320e+03,1.253402e+04
1.367285e+03,1.254032e+04
1.368249e+03,1.254358e+04
1.369213e+03,1.254847e+04
1.370177e+03,1.255679e+04
1.371142e+03,1.256523e+04
1.372106e+03,1.257025e+04
1.373070e+03,1.257228e+04
1.374034e+03,1.257435e+04
1.374999e+03,1.257956e+04
1.375963e+03,1.258807e+04
1.376927e+03,1.259890e+04
1.377891e+03,1.261221e+04
1.378855e+03,1.262752e+04
1.379820e+03,1.264248e+04
1.380784e+03,1.265458e+04
1.381748e+03,1.266711e+04
1.382712e+03,1.268454e+04
1.383677e+03,1.270507e+04
1.384641e+03,1.272093e+04
1.385605e+03,1.272616e+04
1.386569e+03,1.272542e+04
1.387534e+03,1.272792e+04
1.388498e+03,1.273543e+04
1.389462e+03,1.274404e+04
1.390426e+03,1.275019e+04
1.391391e+03,1.275537e+04
1.392355e+03,1.276393e+04
1.393319e+03,1.277745e+04
1.394283e+03,1.279409e+04
1.395247e+03,1.281187e+04
1.396212e+03,1.283007e+04
1.397176e+03,1.284882e+04
1.398140e+03,1.286800e+04
1.399104e+03,1.288595e+04
1.400069e+03,1.290019e+04
1.401033e+03,1.290916e+04
1.401997e+03,1.291419e+04
1.402961e+03,1.291912e+04
1.403926e+03,1.292369e+04
1.404890e+03,1.292606e+04
1.405854e+03,1.292691e+04
1.406818e+03,1.293171e+04
1.407782e+03,1.294528e+04
1.408747e+03,1.296916e+04
1.409711e+03,1.299844e+04
1.410675e+03,1.302483e+04
1.411639e+03,1.304341e+04
1.412604e+03,1.305446e+04
1.413568e+03,1.306168e+04
1.414532e+03,1.306989e+04
1.415496e+03,1.308217e+04
1.416461e+03,1.309661e+04
1.417425e+03,1.310889e+04
1.418389e+03,1.311750e+04
1.419353e+03,1.312192e+04
1.420318e+03,1.312426e+04
1.421282e+03,1.312815e+04
1.422246e+03,1.313616e+04
1.423210e+03,1.314838e+04
1.424174e+03,1.316641e+04
1.425139e+03,1.318937e+04
1.426103e+03,1.321318e+04
1.427067e+03,1.323378e+04
1.428031e+03,1.325070e+04
1.428996e+03,1.326711e+04
1.429960e+03,1.328471e+04
1.430924e+03,1.329900e+04
1.431888e+03,1.330456e+04
1.432853e+03,1.330363e+04
1.433817e+03,1.330475e+04
1.434781e+03,1.331349e+04
1.435745e+03,1.332605e+04
1.436709e+03,1.333725e+04
1.437674e+03,1.334602e+04
1.438638e+03,1.335624e+04
1.439602e+03,1.337182e+04
1.440566e+03,1.339335e+04
1.441531e+03,1.341893e+04
1.442495e+03,1.344404e+04
1.443459e+03,1.346511e+04
1.444423e+03,1.348317e+04
1.445388e+03,1.349865e+04
1.446352e+03,1.350739e+04
1.447316e+03,1.350676e+04
1.448280e+03,1.350373e+04
1.449245e+03,1.350771e+04
1.450209e+03,1.352216e+04
1.451173e+03,1.354168e+04
1.452137e+03,1.355944e+04
1.453101e+03,1.357500e+04
1.454066e+03,1.359288e+04
1.455030e+03,1.361361e+04
1.455994e+03,1.363620e+04
1.456958e+03,1.366060e+04
1.457923e+03,1.368869e+04
1.458887e+03,1.371863e+04
1.459851e+03,1.374514e+04
1.460815e+03,1.376342e+04
1.461780e+03,1.377251e+04
1.462744e+03,1.377807e+04
1.463708e+03,1.378337e+04
1.464672e+03,1.378792e+04
1.465636e+03,1.379503e+04
1.466601e+03,1.380778e+04
1.467565e+03,1.382664e+04
1.468529e+03,1.385035e+04
1.469493e+03,1.387530e+04
1.470458e+03,1.389782e+04
1.471422e+03,1.391643e+04
1.472386e+03,1.393501e+04
1.473350e+03,1.395834e+04
1.474315e+03,1.398624e+04
1.475279e+03,1.401233e+04
1.476243e+03,1.403125e+04
1.477207e+03,1.404367e+04
1.478172e+03,1.405462e+04
1.479136e+03,1.406588e+04
1.480100e+03,1.407755e+04
1.481064e+03,1.409105e+04
1.482028e+03,1.410551e+04
1.482993e+03,1.412254e+04
1.483957e+03,1.414472e+04
1.484921e+03,1.417197e+04
1.485885e+03,1.420205e+04
1.486850e+03,1.423103e+04
1.487814e+03,1.425464e+04
1.488778e+03,1.427217e+04
1.489742e+03,1.428460e+04
1.490707e+03,1.429366e+04
1.491671e+03,1.430442e+04
1.492635e+03,1.432358e+04
1.493599e+03,1.434971e+04
1.494563e+03,1.437702e+04
1.495528e+03,1.439961e+04
1.496492e+03,1.441526e+04
1.497456e+03,1.442694e+04
1.498420e+03,1.443981e+04
1.499385e+03,1.445623e+04
1.500349e+03,1.447780e+04
1.501313e+03,1.450434e+04
1.502277e+03,1.453362e+04
1.503242e+03,1.456403e+04
1.504206e+03,1.459431e+04
1.505170e+03,1.462233e+04
1.506134e+03,1.464616e+04
1.507099e+03,1.466632e+04
1.508063e+03,1.468518e+04
1.509027e+03,1.470357e+04
1.509991e+03,1.472066e+04
1.510955e+03,1.473543e+04
1.511920e+03,1.474808e+04
1.512884e+03,1.475993e+04
1.513848e+03,1.477772e+04
1.514812e+03,1.480652e+04
1.515777e+03,1.484194e+04
1.516741e+03,1.487564e+04
1.517705e+03,1.490061e+04
1.518669e+03,1.492372e+04
1.519634e+03,1.495499e+04
1.520598e+03,1.499137e+04
1.521562e+03,1.502329e+04
1.522526e+03,1.504684e+04
1.523490e+03,1.506851e+04
1.524455e+03,1.509257e+04
1.525419e+03,1.511369e+04
1.526383e+03,1.512729e+04
1.527347e+03,1.513740e+04
1.528312e+03,1.515240e+04
1.529276e+03,1.517760e+04
1.530240e+03,1.520801e+04
1.531204e+03,1.523917e+04
1.532169e+03,1.526884e+04
1.533133e+03,1.529683e+04
1.534097e+03,1.532431e+04
1.535061e+03,1.535099e+04
1.536026e+03,1.537450e+04
1.536990e+03,1.539427e+04
1.537954e+03,1.541383e+04
1.538918e+03,1.543769e+04
1.539882e+03,1.546611e+04
1.540847e+03,1.549399e+04
1.541811e+03,1.551573e+04
1.542775e+03,1.553205e+04
1.543739e+03,1.554801e+04
1.544704e+03,1.556640e+04
1.545668e+03,1.558818e+04
1.546632e+03,1.561493e+04
1.547596e+03,1.564812e+04
1.548561e+03,1.568608e+04
1.549525e+03,1.572157e+04
1.550489e+03,1.574013e+04
1.551453e+03,1.575941e+04
1.552417e+03,1.579829e+04
1.553382e+03,1.582998e+04
1.554346e+03,1.583277e+04
1.555310e+03,1.581435e+04
1.556274e+03,1.581887e+04
1.557239e+03,1.584432e+04
1.558203e+03,1.586643e+04
1.559167e+03,1.587977e+04
1.560131e+03,1.588808e+04
1.561096e+03,1.589097e+04
1.562060e+03,1.589756e+04
1.563024e+03,1.591439e+04
1.563988e+03,1.593950e+04
1.564953e+03,1.596686e+04
1.565917e+03,1.599727e+04
1.566881e+03,1.602231e+04
1.567845e+03,1.603774e+04
1.568809e+03,1.604961e+04
1.569774e+03,1.606295e+04
1.570738e+03,1.607694e+04
1.571702e+03,1.609159e+04
1.572666e+03,1.610375e+04
1.573631e+03,1.611004e+04
1.574595e+03,1.611497e+04
1.575559e+03,1.612208e+04
1.576523e+03,1.612922e+04
1.577488e+03,1.615165e+04
1.578452e+03,1.618681e+04
1.579416e+03,1.622002e+04
1.580380e+03,1.624252e+04
1.581344e+03,1.625609e+04
1.582309e+03,1.626389e+04
1.583273e+03,1.626850e+04
1.584237e+03,1.626999e+04
1.585201e+03,1.626688e+04
1.586166e+03,1.626688e+04
1.587130e+03,1.626808e+04
1.588094e+03,1.626532e+04
1.589058e+03,1.625936e+04
1.590023e+03,1.625569e+04
1.590987e+03,1.625933e+04
1.591951e+03,1.627475e+04
1.592915e+03,1.630442e+04
1.593880e+03,1.633765e+04
1.594844e+03,1.635326e+04
1.595808e+03,1.632677e+04
1.596772e+03,1.630944e+04
1.597736e+03,1.632078e+04
1.598701e+03,1.634158e+04
1.599665e+03,1.635396e+04
1.600629e+03,1.635805e+04
1.601593e+03,1.634992e+04
1.602558e+03,1.633443e+04
1.603522e+03,1.632795e+04
1.604486e+03,1.633590e+04
1.605450e+03,1.634125e+04
1.606415e+03,1.633716e+04
1.607379e+03,1.634271e+04
1.608343e+03,1.636674e+04
1.609307e+03,1.639485e+04
1.610271e+03,1.640106e+04
1.611236e+03,1.638874e+04
1.612200e+03,1.638342e+04
1.613164e+03,1.638999e+04
1.614128e+03,1.640080e+04
1.615093e+03,1.640808e+04
1.616057e+03,1.641603e+04
1.617021e+03,1.642376e+04
1.617985e+03,1.642514e+04
1.618950e+03,1.642193e+04
1.619914e+03,1.641400e+04
1.620878e+03,1.639466e+04
1.621842e+03,1.636932e+04
1.622807e+03,1.634953e+04
1.623771e+03,1.634074e+04
1.624735e+03,1.634308e+04
1.625699e+03,1.635265e+04
1.626663e+03,1.636464e+04
1.627628e+03,1.637340e+04
1.628592e+03,1.637582e+04
1.629556e+03,1.638224e+04
1.630520e+03,1.639833e+04
1.631485e+03,1.640896e+04
1.632449e+03,1.641274e+04
1.633413e+03,1.641229e+04
1.634377e+03,1.641566e+04
1.635342e+03,1.640213e+04
1.636306e+03,1.635059e+04
1.637270e+03,1.629599e+04
1.638234e+03,1.624599e+04
1.639198e+03,1.621138e+04
1.640163e+03,1.622149e+04
1.641127e+03,1.626413e+04
1.642091e+03,1.628083e+04
1.643055e+03,1.626396e+04
1.644020e+03,1.625653e+04
1.644984e+03,1.628943e+04
1.645948e+03,1.630843e+04
1.646912e+03,1.630441e+04
1.647877e+03,1.629157e+04
1.648841e+03,1.628267e+04
1.649805e+03,1.627680e+04
1.650769e+03,1.626380e+04
1.651734e+03,1.624589e+04
1.652698e+03,1.623366e+04
1.653662e+03,1.622506e+04
1.654626e+03,1.621587e+04
1.655590e+03,1.620884e+04
1.656555e+03,1.619558e+04
1.657519e+03,1.617775e+04
1.658483e+03,1.616732e+04
1.659447e+03,1.617799e+04
1.660412e+03,1.618948e+04
1.661376e+03,1.617119e+04
1.662340e+03,1.613600e+04
1.663304e+03,1.611427e+04
1.664269e+03,1.612140e+04
1.665233e+03,1.610923e+04
1.666197e+03,1.606428e+04
1.667161e+03,1.602884e+04
1.668125e+03,1.603749e+04
1.669090e+03,1.605594e+04
1.670054e+03,1.602640e+04
1.671018e+03,1.597809e+04
1.671982e+03,1.594976e+04
1.672947e+03,1.594740e+04
1.673911e+03,1.596414e+04
1.674875e+03,1.599896e+04
1.675839e+03,1.601334e+04
1.676804e+03,1.600886e+04
1.677768e+03,1.600254e+04
1.678732e+03,1.600337e+04
1.679696e+03,1.599952e+04
1.680661e+03,1.597417e+04
1.681625e+03,1.593338e+04
1.682589e+03,1.589651e+04
1.683553e+03,1.586982e+04
1.684517e+03,1.586493e+04
1.685482e+03,1.587876e+04
1.686446e+03,1.588564e+04
1.687410e+03,1.587622e+04
1.688374e+03,1.586706e+04
1.689339e+03,1.587570e+04
1.690303e+03,1.588080e+04
1.691267e+03,1.586656e+04
1.692231e+03,1.584490e+04
1.693196e+03,1.582973e+04
1.694160e+03,1.581518e+04
1.695124e+03,1.578841e+04
1.696088e+03,1.575644e+04
1.697052e+03,1.574470e+04
1.698017e+03,1.576450e+04
1.698981e+03,1.578320e+04
1.699945e+03,1.579579e+04
1.700909e+03,1.578466e+04
1.701874e+03,1.574637e+04
1.702838e+03,1.570419e+04
1.703802e+03,1.568788e+04
1.704766e+03,1.568294e+04
1.705731e+03,1.568294e+04
1.706695e+03,1.568860e+04
1.707659e+03,1.568130e+04
1.708623e+03,1.565400e+04
1.709588e+03,1.564497e+04
1.710552e+03,1.565332e+04
1.711516e+03,1.565866e+04
1.712480e+03,1.564702e+04
1.713444e+03,1.562598e+04
1.714409e+03,1.560928e+04
1.715373e+03,1.559585e+04
1.716337e+03,1.557611e+04
1.717301e+03,1.555395e+04
1.718266e+03,1.554458e+04
1.719230e+03,1.554417e+04
1.720194e+03,1.554878e+04
1.721158e+03,1.555602e+04
1.722123e+03,1.555859e+04
1.723087e+03,1.554981e+04
1.724051e+03,1.553754e+04
1.725015e+03,1.552914e+04
1.725979e+03,1.552319e+04
1.726944e+03,1.550897e+04
1.727908e+03,1.548912e+04
1.728872e+03,1.547074e+04
1.729836e+03,1.545202e+04
1.730801e+03,1.544566e+04
1.731765e+03,1.547512e+04
1.732729e+03,1.548025e+04
1.733693e+03,1.544753e+04
1.734658e+03,1.541646e+04
1.735622e+03,1.540349e+04
1.736586e+03,1.539818e+04
1.737550e+03,1.538290e+04
1.738515e+03,1.537001e+04
1.739479e+03,1.538537e+04
1.740443e+03,1.541994e+04
1.741407e+03,1.541950e+04
1.742371e+03,1.537965e+04
1.743336e+03,1.534861e+04
1.744300e+03,1.532922e+04
1.745264e+03,1.530720e+04
1.746228e+03,1.527272e+04
1.747193e+03,1.525105e+04
1.748157e+03,1.527548e+04
1.749121e+03,1.531103e+04
1.750085e+03,1.531734e+04
1.751050e+03,1.529108e+04
1.752014e+03,1.526031e+04
1.752978e+03,1.523293e+04
1.753942e+03,1.521917e+04
1.754906e+03,1.521802e+04
1.755871e+03,1.522169e+04
1.756835e+03,1.522788e+04
1.757799e+03,1.521245e+04
1.758763e+03,1.518541e+04
1.759728e+03,1.515620e+04
1.760692e+03,1.511362e+04
1.761656e+03,1.508586e+04
1.762620e+03,1.511104e+04
1.763585e+03,1.515317e+04
1.764549e+03,1.515783e+04
1.765513e+03,1.511943e+04
1.766477e+03,1.509052e+04
1.767442e+03,1.507529e+04
1.768406e+03,1.507914e+04
1.769370e+03,1.510955e+04
1.770334e+03,1.512729e+04
1.771298e+03,1.508904e+04
1.772263e+03,1.505359e+04
1.773227e+03,1.504247e+04
1.774191e+03,1.504130e+04
1.775155e+03,1.503039e+04
1.776120e+03,1.501138e+04
1.777084e+03,1.498087e+04
1.778048e+03,1.495033e+04
1.779012e+03,1.494960e+04
1.779977e+03,1.499400e+04
1.780941e+03,1.501765e+04
1.781905e+03,1.501412e+04
1.782869e+03,1.499707e+04
1.783833e+03,1.497021e+04
1.784798e+03,1.494442e+04
1.785762e+03,1.492071e+04
1.786726e+03,1.490455e+04
1.787690e+03,1.490525e+04
1.788655e+03,1.491104e+04
1.789619e+03,1.488955e+04
1.790583e+03,1.485442e+04
1.791547e+03,1.482331e+04
1.792512e+03,1.480193e+04
1.793476e+03,1.480622e+04
1.794440e+03,1.484392e+04
1.795404e+03,1.485567e+04
1.796369e+03,1.483301e+04
1.797333e+03,1.480979e+04
1.798297e+03,1.481089e+04
1.799261e+03,1.481442e+04
1.800225e+03,1.479658e+04
1.801190e+03,1.477402e+04
1.802154e+03,1.476520e+04
1.803118e+03,1.476100e+04
1.804082e+03,1.473952e+04
1.805047e+03,1.471625e+04
1.806011e+03,1.472200e+04
1.806975e+03,1.475525e+04
1.807939e+03,1.477017e+04
1.808904e+03,1.475024e+04
1.809868e+03,1.473460e+04
1.810832e+03,1.473163e+04
1.811796e+03,1.473318e+04
1.812760e+03,1.472999e+04
1.813725e+03,1.472720e+04
1.814689e+03,1.473897e+04
1.815653e+03,1.474254e+04
1.816617e+03,1.471600e+04
1.817582e+03,1.467271e+04
1.818546e+03,1.465746e+04
1.819510e+03,1.465439e+04
1.820474e+03,1.462716e+04
1.821439e+03,1.457323e+04
1.822403e+03,1.454517e+04
1.823367e+03,1.455286e+04
1.824331e+03,1.455847e+04
1.825296e+03,1.455192e+04
1.826260e+03,1.453834e+04
1.827224e+03,1.452952e+04
1.828188e+03,1.453117e+04
1.829152e+03,1.454350e+04
1.830117e+03,1.455182e+04
1.831081e+03,1.454100e+04
1.832045e+03,1.451570e+04
1.833009e+03,1.451134e+04
1.833974e+03,1.452374e+04
1.834938e+03,1.451850e+04
1.835902e+03,1.448014e+04
1.836866e+03,1.445213e+04
1.837831e+03,1.443346e+04
1.838795e+03,1.442671e+04
1.839759e+03,1.443960e+04
1.840723e+03,1.445050e+04
1.841688e+03,1.442206e+04
1.842652e+03,1.440696e+04
1.843616e+03,1.442222e+04
1.844580e+03,1.443687e+04
1.845544e+03,1.442805e+04
1.846509e+03,1.440511e+04
1.847473e+03,1.437310e+04
1.848437e+03,1.433893e+04
1.849401e+03,1.431946e+04
1.850366e+03,1.431680e+04
1.851330e+03,1.428959e+04
1.852294e+03,1.424641e+04
1.853258e+03,1.422498e+04
1.854223e+03,1.423563e+04
1.855187e+03,1.425144e+04
1.856151e+03,1.425529e+04
1.857115e+03,1.426005e+04
1.858079e+03,1.426899e+04
1.859044e+03,1.426685e+04
1.860008e+03,1.423323e+04
1.860972e+03,1.419764e+04
1.861936e+03,1.418661e+04
1.862901e+03,1.419294e+04
1.863865e+03,1.419920e+04
1.864829e+03,1.419576e+04
1.865793e+03,1.417578e+04
1.866758e+03,1.415053e+04
1.867722e+03,1.414302e+04
1.868686e+03,1.416157e+04
1.869650e+03,1.415621e+04
1.870615e+03,1.411248e+04
1.871579e+03,1.408450e+04
1.872543e+03,1.409455e+04
1.873507e+03,1.411826e+04
1.874471e+03,1.413639e+04
1.875436e+03,1.412748e+04
1.876400e+03,1.407848e+04
1.877364e+03,1.402631e+04
1.878328e+03,1.401329e+04
1.879293e+03,1.402371e+04
1.880257e+03,1.403578e+04
1.881221e+03,1.403815e+04
1.882185e+03,1.401087e+04
1.883150e+03,1.395661e+04
1.884114e+03,1.394024e+04
1.885078e+03,1.395254e+04
1.886042e+03,1.395667e+04
1.887006e+03,1.394105e+04
1.887971e+03,1.392145e+04
1.888935e+03,1.390338e+04
1.889899e+03,1.390424e+04
1.890863e+03,1.392349e+04
1.891828e+03,1.393817e+04
1.892792e+03,1.393826e+04
1.893756e+03,1.392447e+04
1.894720e+03,1.389683e+04
1.895685e+03,1.387884e+04
1.896649e+03,1.388884e+04
1.897613e+03,1.390881e+04
1.898577e+03,1.389409e+04
1.899542e+03,1.385940e+04
1.900506e+03,1.383145e+04
1.901470e+03,1.381232e+04
1.902434e+03,1.379875e+04
1.903398e+03,1.379120e+04
1.904363e+03,1.378013e+04
1.905327e+03,1.376372e+04
1.906291e+03,1.375854e+04
1.907255e+03,1.377157e+04
1.908220e+03,1.378496e+04
1.909184e+03,1.379966e+04
1.910148e+03,1.379780e+04
1.911112e+03,1.375370e+04
1.912077e+03,1.370711e+04
1.913041e+03,1.369685e+04
1.914005e+03,1.369592e+04
1.914969e+03,1.366957e+04
1.915933e+03,1.363057e+04
1.916898e+03,1.362869e+04
1.917862e+03,1.365022e+04
1.918826e+03,1.366225e+04
1.919790e+03,1.366291e+04
1.920755e+03,1.365393e+04
1.921719e+03,1.362853e+04
1.922683e+03,1.361189e+04
1.923647e+03,1.361432e+04
1.924612e+03,1.361600e+04
1.925576e+03,1.360168e+04
1.926540e+03,1.359792e+04
1.927504e+03,1.360284e+04
1.928469e+03,1.359962e+04
1.929433e+03,1.356205e+04
1.930397e+03,1.352030e+04
1.931361e+03,1.350037e+04
1.932325e+03,1.348449e+04
1.933290e+03,1.346243e+04
1.934254e+03,1.344920e+04
1.935218e+03,1.346072e+04
1.936182e+03,1.347692e+04
1.937147e+03,1.348596e+04
1.938111e+03,1.349041e+04
1.939075e+03,1.348273e+04
1.940039e+03,1.347062e+04
1.941004e+03,1.346222e+04
1.941968e+03,1.344995e+04
1.942932e+03,1.343146e+04
1.943896e+03,1.341145e+04
1.944860e+03,1.338380e+04
1.945825e+03,1.335289e+04
1.946789e+03,1.333770e+04
1.947753e+03,1.335793e+04
1.948717e+03,1.337471e+04
1.949682e+03,1.336858e+04
1.950646e+03,1.335798e+04
1.951610e+03,1.335408e+04
1.952574e+03,1.335269e+04
1.953539e+03,1.334872e+04
1.954503e+03,1.334140e+04
1.955467e+03,1.333420e+04
1.956431e+03,1.332845e+04
1.957396e+03,1.331496e+04
1.958360e+03,1.329654e+04
1.959324e+03,1.329399e+04
1.960288e+03,1.330892e+04
1.961252e+03,1.330391e+04
1.962217e+03,1.326769e+04
1.963181e+03,1.324394e+04
1.964145e+03,1.323116e+04
1.965109e+03,1.321298e+04
1.966074e+03,1.316623e+04
1.967038e+03,1.316836e+04
1.968002e+03,1.322186e+04
1.968966e+03,1.324665e+04
1.969931e+03,1.319794e+04
1.970895e+03,1.313765e+04
1.971859e+03,1.313053e+04
1.972823e+03,1.312772e+04
1.973787e+03,1.309652e+04
1.974752e+03,1.306353e+04
1.975716e+03,1.308842e+04
1.976680e+03,1.311985e+04
1.977644e+03,1.310623e+04
1.978609e+03,1.307301e+04
1.979573e+03,1.304184e+04
1.980537e+03,1.301651e+04
1.981501e+03,1.303842e+04
1.982466e+03,1.308786e+04
1.983430e+03,1.309484e+04
1.984394e+03,1.304597e+04
1.985358e+03,1.303115e+04
1.986323e+03,1.304284e+04
1.987287e+03,1.304740e+04
1.988251e+03,1.303376e+04
1.989215e+03,1.300477e+04
1.990179e+03,1.296039e+04
1.991144e+03,1.293103e+04
1.992108e+03,1.292948e+04
1.993072e+03,1.293604e+04
1.994036e+03,1.293806e+04
1.995001e+03,1.292830e+04
1.995965e+03,1.290060e+04
1.996929e+03,1.288120e+04
1.997893e+03,1.289289e+04
1.998858e+03,1.290998e+04
1.999822e+03,1.291721e+04
2.000786e+03,1.291127e+04
2.001750e+03,1.289345e+04
2.002714e+03,1.288163e+04
2.003679e+03,1.291697e+04
2.004643e+03,1.295166e+04
2.005607e+03,1.289691e+04
2.006571e+03,1.278729e+04
2.007536e+03,1.275437e+04
2.008500e+03,1.277755e+04
2.009464e+03,1.279326e+04
2.010428e+03,1.279543e+04
2.011393e+03,1.278105e+04
2.012357e+03,1.274763e+04
2.013321e+03,1.273875e+04
2.014285e+03,1.274748e+04
2.015250e+03,1.275412e+04
2.016214e+03,1.275535e+04
2.017178e+03,1.274278e+04
2.018142e+03,1.271854e+04
2.019106e+03,1.269214e+04
2.020071e+03,1.266130e+04
2.021035e+03,1.264061e+04
2.021999e+03,1.264294e+04
2.022963e+03,1.263855e+04
2.023928e+03,1.261877e+04
2.024892e+03,1.260129e+04
2.025856e+03,1.261237e+04
2.026820e+03,1.262158e+04
2.027785e+03,1.260605e+04
2.028749e+03,1.257933e+04
2.029713e+03,1.256259e+04
2.030677e+03,1.255594e+04
2.031641e+03,1.256083e+04
2.032606e+03,1.256792e+04
2.033570e+03,1.256360e+04
2.034534e+03,1.254746e+04
2.035498e+03,1.252552e+04
2.036463e+03,1.250147e+04
2.037427e+03,1.247691e+04
2.038391e+03,1.245930e+04
2.039355e+03,1.246091e+04
2.040320e+03,1.247627e+04
2.041284e+03,1.246814e+04
2.042248e+03,1.242333e+04
2.043212e+03,1.240255e+04
2.044177e+03,1.241541e+04
2.045141e+03,1.242269e+04
2.046105e+03,1.241599e+04
2.047069e+03,1.241029e+04
2.048033e+03,1.240781e+04
2.048998e+03,1.239956e+04
2.049962e+03,1.238861e+04
2.050926e+03,1.238171e+04
2.051890e+03,1.238956e+04
2.052854e+03,1.239063e+04
2.053819e+03,1.237313e+04
2.054783e+03,1.234140e+04
2.055747e+03,1.229934e+04
2.056711e+03,1.227113e+04
2.057676e+03,1.229336e+04
2.058640e+03,1.231489e+04
2.059604e+03,1.229492e+04
2.060568e+03,1.226105e+04
2.061533e+03,1.227144e+04
2.062497e+03,1.228774e+04
2.063461e+03,1.226189e+04
2.064425e+03,1.222422e+04
2.065390e+03,1.222440e+04
2.066354e+03,1.223656e+04
2.067318e+03,1.221167e+04
2.068282e+03,1.217010e+04
2.069247e+03,1.214701e+04
2.070211e+03,1.213815e+04
2.071175e+03,1.214517e+04
2.072139e+03,1.215941e+04
2.073104e+03,1.215376e+04
2.074068e+03,1.212771e+04
2.075032e+03,1.209995e+04
2.075996e+03,1.207133e+04
2.076960e+03,1.207486e+04
2.077925e+03,1.211463e+04
2.078889e+03,1.212043e+04
2.079853e+03,1.208743e+04
2.080817e+03,1.207771e+04
2.081782e+03,1.209510e+04
2.082746e+03,1.208400e+04
2.083710e+03,1.201434e+04
2.084674e+03,1.196773e+04
2.085639e+03,1.195533e+04
2.086603e+03,1.196470e+04
2.087567e+03,1.197742e+04
2.088531e+03,1.198981e+04
2.089496e+03,1.199681e+04
2.090460e+03,1.199188e+04
2.091424e+03,1.199196e+04
2.092388e+03,1.199407e+04
2.093353e+03,1.198556e+04
2.094317e+03,1.197929e+04
2.095281e+03,1.196530e+04
2.096245e+03,1.195353e+04
2.097209e+03,1.197425e+04
2.098174e+03,1.197515e+04
2.099138e+03,1.193709e+04
2.100102e+03,1.188729e+04
2.101066e+03,1.184331e+04
2.102031e+03,1.181089e+04
2.102995e+03,1.179861e+04
2.103959e+03,1.179996e+04
2.104923e+03,1.182096e+04
2.105887e+03,1.185169e+04
2.106852e+03,1.184845e+04
2.107816e+03,1.183064e+04
2.108780e+03,1.183879e+04
2.109744e+03,1.185051e+04
2.110708e+03,1.180736e+04
2.111673e+03,1.175054e+04
2.112637e+03,1.172916e+04
2.113601e+03,1.172455e+04
2.114565e+03,1.171400e+04
2.115530e+03,1.169639e+04
2.116494e+03,1.165410e+04
2.117458e+03,1.161853e+04
2.118422e+03,1.164216e+04
2.119387e+03,1.170439e+04
2.120351e+03,1.175688e+04
2.121315e+03,1.178808e+04
2.122279e+03,1.179390e+04
2.123244e+03,1.177514e+04
2.124208e+03,1.172152e+04
2.125172e+03,1.165061e+04
2.126136e+03,1.161117e+04
2.127101e+03,1.161954e+04
2.128065e+03,1.159769e+04
2.129029e+03,1.155077e+04
2.129993e+03,1.154771e+04
2.130958e+03,1.159062e+04
2.131922e+03,1.160690e+04
2.132886e+03,1.159331e+04
2.133850e+03,1.157810e+04
2.134814e+03,1.157539e+04
2.135779e+03,1.157387e+04
2.136743e+03,1.156058e+04
2.137707e+03,1.154767e+04
2.138671e+03,1.153957e+04
2.139636e+03,1.152677e+04
2.140600e+03,1.149222e+04
2.141564e+03,1.148301e+04
2.142528e+03,1.150524e+04
2.143493e+03,1.152496e+04
2.144457e+03,1.152648e+04
2.145421e+03,1.150164e+04
2.146385e+03,1.144522e+04
2.147350e+03,1.139777e+04
2.148314e+03,1.137468e+04
2.149278e+03,1.138276e+04
2.150242e+03,1.144856e+04
2.151207e+03,1.146906e+04
2.152171e+03,1.142004e+04
2.153135e+03,1.136019e+04
2.154099e+03,1.135718e+04
2.155063e+03,1.134461e+04
2.156028e+03,1.130536e+04
2.156992e+03,1.128308e+04
2.157956e+03,1.131275e+04
2.158920e+03,1.132527e+04
2.159885e+03,1.127400e+04
2.160849e+03,1.124118e+04
2.161813e+03,1.127863e+04
2.162777e+03,1.131228e+04
2.163741e+03,1.126161e+04
2.164706e+03,1.122308e+04
2.165670e+03,1.124996e+04
2.166634e+03,1.128944e+04
2.167598e+03,1.126121e+04
2.168563e+03,1.124090e+04
2.169527e+03,1.125779e+04
2.170491e+03,1.127146e+04
2.171455e+03,1.125202e+04
2.172420e+03,1.122482e+04
2.173384e+03,1.120326e+04
2.174348e+03,1.119252e+04
2.175312e+03,1.120238e+04
2.176277e+03,1.120661e+04
2.177241e+03,1.117889e+04
2.178205e+03,1.113812e+04
2.179169e+03,1.109732e+04
2.180134e+03,1.106950e+04
2.181098e+03,1.106375e+04
2.182062e+03,1.107360e+04
2.183026e+03,1.108758e+04
2.183990e+03,1.109777e+04
2.184955e+03,1.109148e+04
2.185919e+03,1.108156e+04
2.186883e+03,1.107368e+04
2.187847e+03,1.106195e+04
2.188812e+03,1.104297e+04
2.189776e+03,1.102548e+04
2.190740e+03,1.101506e+04
2.191704e+03,1.100270e+04
2.192668e+03,1.098237e+04
2.193633e+03,1.096563e+04
2.194597e+03,1.097597e+04
2.195561e+03,1.098894e+04
2.196525e+03,1.097268e+04
2.197490e+03,1.094657e+04
2.198454e+03,1.095656e+04
2.199418e+03,1.096324e+04
2.200382e+03,1.092845e+04
2.201347e+03,1.088891e+04
2.202311e+03,1.090104e+04
2.203275e+03,1.092843e+04
2.204239e+03,1.092403e+04
2.205204e+03,1.090257e+04
2.206168e+03,1.091052e+04
2.207132e+03,1.092272e+04
2.208096e+03,1.089059e+04
2.209061e+03,1.083677e+04
2.210025e+03,1.078842e+04
2.210989e+03,1.074876e+04
2.211953e+03,1.073042e+04
2.212917e+03,1.073873e+04
2.213882e+03,1.074450e+04
2.214846e+03,1.074950e+04
2.215810e+03,1.078799e+04
2.216774e+03,1.081451e+04
2.217739e+03,1.080972e+04
2.218703e+03,1.078845e+04
2.219667e+03,1.076700e+04
2.220631e+03,1.074165e+04
2.221595e+03,1.069670e+04
2.222560e+03,1.065167e+04
2.223524e+03,1.065161e+04
2.224488e+03,1.065504e+04
2.225452e+03,1.059594e+04
2.226417e+03,1.054206e+04
2.227381e+03,1.057061e+04
2.228345e+03,1.063499e+04
2.229309e+03,1.067974e+04
2.230274e+03,1.069476e+04
2.231238e+03,1.066696e+04
2.232202e+03,1.062353e+04
2.233166e+03,1.061777e+04
2.234131e+03,1.062458e+04
2.235095e+03,1.062164e+04
2.236059e+03,1.060995e+04
2.237023e+03,1.057373e+04
2.237988e+03,1.054434e+04
2.238952e+03,1.054231e+04
2.239916e+03,1.054473e+04
2.240880e+03,1.054335e+04
2.241844e+03,1.052657e+04
2.242809e+03,1.047204e+04
2.243773e+03,1.042564e+04
2.244737e+03,1.043078e+04
2.245701e+03,1.045584e+04
2.246666e+03,1.049440e+04
2.247630e+03,1.050453e+04
2.248594e+03,1.044715e+04
2.249558e+03,1.039229e+04
2.250522e+03,1.040439e+04
2.251487e+03,1.044110e+04
2.252451e+03,1.048263e+04
2.253415e+03,1.049725e+04
2.254379e+03,1.045146e+04
2.255344e+03,1.040250e+04
2.256308e+03,1.037600e+04
2.257272e+03,1.035499e+04
2.258236e+03,1.031097e+04
2.259201e+03,1.028883e+04
2.260165e+03,1.029939e+04
2.261129e+03,1.031709e+04
2.262093e+03,1.031900e+04
2.263058e+03,1.031984e+04
2.264022e+03,1.033398e+04
2.264986e+03,1.034933e+04
2.265950e+03,1.035280e+04
2.266915e+03,1.034025e+04
2.267879e+03,1.030176e+04
2.268843e+03,1.025506e+04
2.269807e+03,1.021843e+04
2.270771e+03,1.019194e+04
2.271736e+03,1.017722e+04
2.272700e+03,1.018132e+04
2.273664e+03,1.019778e+04
2.274628e+03,1.020859e+04
2.275593e+03,1.019922e+04
2.276557e+03,1.019744e+04
2.277521e+03,1.021594e+04
2.278485e+03,1.022475e+04
2.279449e+03,1.019630e+04
2.280414e+03,1.019191e+04
2.281378e+03,1.021223e+04
2.282342e+03,1.021227e+04
2.283306e+03,1.013769e+04
2.284271e+03,1.008913e+04
2.285235e+03,1.006288e+04
2.286199e+03,1.003828e+04
2.287163e+03,1.001914e+04
2.288128e+03,1.004379e+04
2.289092e+03,1.009570e+04
2.290056e+03,1.009789e+04
2.291020e+03,1.003269e+04
2.291985e+03,9.994726e+03
2.292949e+03,9.992150e+03
2.293913e+03,1.000225e+04
2.294877e+03,1.001829e+04
2.295842e+03,1.004495e+04
2.296806e+03,1.007351e+04
2.297770e+03,1.008833e+04
2.298734e+03,1.008540e+04
2.299698e+03,1.005801e+04
2.300663e+03,1.001598e+04
2.301627e+03,1.001143e+04
2.302591e+03,1.001873e+04
2.303555e+03,9.977771e+03
2.304520e+03,9.906157e+03
2.305484e+03,9.876007e+03
2.306448e+03,9.879077e+03
2.307412e+03,9.904920e+03
2.308376e+03,9.930739e+03
2.309341e+03,9.902134e+03
2.310305e+03,9.853478e+03
2.311269e+03,9.836376e+03
2.312233e+03,9.842745e+03
2.313198e+03,9.853277e+03
2.314162e+03,9.860532e+03
2.315126e+03,9.863746e+03
2.316090e+03,9.856109e+03
2.317055e+03,9.821562e+03
2.318019e+03,9.791769e+03
2.318983e+03,9.794505e+03
2.319947e+03,9.800583e+03
2.320912e+03,9.802653e+03
2.321876e+03,9.799147e+03
2.322840e+03,9.779549e+03
2.323804e+03,9.759357e+03
2.324769e+03,9.746558e+03
2.325733e+03,9.745828e+03
2.326697e+03,9.759415e+03
2.327661e+03,9.772880e+03
2.328625e+03,9.776669e+03
2.329590e+03,9.758671e+03
2.330554e+03,9.709327e+03
2.331518e+03,9.675056e+03
2.332482e+03,9.661851e+03
2.333447e+03,9.653375e+03
2.334411e+03,9.640443e+03
2.335375e+03,9.633135e+03
2.336339e+03,9.631624e+03
2.337303e+03,9.624239e+03
2.338268e+03,9.591214e+03
2.339232e+03,9.588556e+03
2.340196e+03,9.613123e+03
2.341160e+03,9.622202e+03
2.342125e+03,9.601549e+03
2.343089e+03,9.602661e+03
2.344053e+03,9.609339e+03
2.345017e+03,9.614543e+03
2.345982e+03,9.618431e+03
2.346946e+03,9.603472e+03
2.347910e+03,9.582804e+03
2.348874e+03,9.569387e+03
2.349839e+03,9.552110e+03
2.350803e+03,9.513535e+03
2.351767e+03,9.474365e+03
2.352731e+03,9.475811e+03
2.353696e+03,9.501800e+03
2.354660e+03,9.521002e+03
2.355624e+03,9.525849e+03
2.356588e+03,9.507535e+03
2.357552e+03,9.486482e+03
2.358517e+03,9.478361e+03
2.359481e+03,9.478263e+03
2.360445e+03,9.483155e+03
2.361409e+03,9.477881e+03
2.362374e+03,9.455875e+03
2.363338e+03,9.420254e+03
2.364302e+03,9.376686e+03
2.365266e+03,9.350266e+03
2.366230e+03,9.340520e+03
2.367195e+03,9.342402e+03
2.368159e+03,9.358801e+03
2.369123e+03,9.358493e+03
2.370087e+03,9.345175e+03
2.371052e+03,9.334576e+03
2.372016e+03,9.339138e+03
2.372980e+03,9.332497e+03
2.373944e+03,9.310870e+03
2.374909e+03,9.288991e+03
2.375873e+03,9.268167e+03
2.376837e+03,9.287557e+03
2.377801e+03,9.333209e+03
2.378766e+03,9.322771e+03
2.379730e+03,9.251021e+03
2.380694e+03,9.214916e+03
2.381658e+03,9.209515e+03
2.382623e+03,9.207297e+03
2.383587e+03,9.205239e+03
2.384551e+03,9.209958e+03
2.385515e+03,9.214843e+03
2.386479e+03,9.226266e+03
2.387444e+03,9.233582e+03
2.388408e+03,9.215372e+03
2.389372e+03,9.192324e+03
2.390336e+03,9.177473e+03
2.391301e+03,9.166989e+03
2.392265e+03,9.160603e+03
2.393229e+03,9.144054e+03
2.394193e+03,9.105088e+03
2.395157e+03,9.076399e+03
2.396122e+03,9.089441e+03
2.397086e+03,9.100708e+03
2.398050e+03,9.100360e+03
2.399014e+03,9.091763e+03
2.399979e+03,9.070187e+03
2.400943e+03,9.058466e+03
2.401907e+03,9.056939e+03
2.402871e+03,9.053528e+03
2.403836e+03,9.048907e+03
2.404800e+03,9.041553e+03
2.405764e+03,9.030076e+03
2.406728e+03,9.034076e+03
2.407693e+03,9.044541e+03
2.408657e+03,9.029152e+03
2.409621e+03,8.998808e+03
2.410585e+03,8.980776e+03
2.411550e+03,8.975981e+03
2.412514e+03,8.977810e+03
2.413478e+03,8.981104e+03
2.414442e+03,8.976085e+03
2.415406e+03,8.966046e+03
2.416371e+03,8.951391e+03
2.417335e+03,8.938304e+03
2.418299e+03,8.934662e+03
2.419263e+03,8.934100e+03
2.420228e+03,8.932626e+03
2.421192e+03,8.927462e+03
2.422156e+03,8.914074e+03
2.423120e+03,8.912348e+03
2.424084e+03,8.921271e+03
2.425049e+03,8.915104e+03
2.426013e+03,8.884049e+03
2.426977e+03,8.861450e+03
2.427941e+03,8.856749e+03
2.428906e+03,8.849719e+03
2.429870e+03,8.826646e+03
2.430834e+03,8.819416e+03
2.431798e+03,8.827816e+03
2.432763e+03,8.835872e+03
2.433727e+03,8.837672e+03
2.434691e+03,8.815354e+03
2.435655e+03,8.782719e+03
2.436620e+03,8.770689e+03
2.437584e+03,8.773229e+03
2.438548e+03,8.782143e+03
2.439512e+03,8.791146e+03
2.440477e+03,8.790854e+03
2.441441e+03,8.777838e+03
2.442405e+03,8.756082e+03
2.443369e+03,8.732479e+03
2.444333e+03,8.714848e+03
2.445298e+03,8.696354e+03
2.446262e+03,8.655940e+03
2.447226e+03,8.635689e+03
2.448190e+03,8.647040e+03
2.449155e+03,8.667310e+03
2.450119e+03,8.704516e+03
2.451083e+03,8.708432e+03
2.452047e+03,8.680676e+03
2.453011e+03,8.666614e+03
2.453976e+03,8.681883e+03
2.454940e+03,8.667671e+03
2.455904e+03,8.641426e+03
2.456868e+03,8.638034e+03
2.457833e+03,8.644257e+03
2.458797e+03,8.628292e+03
2.459761e+03,8.604202e+03
2.460725e+03,8.576343e+03
2.461690e+03,8.561591e+03
2.462654e+03,8.618810e+03
2.463618e+03,8.651994e+03
2.464582e+03,8.602004e+03
2.465547e+03,8.547205e+03
2.466511e+03,8.543140e+03
2.467475e+03,8.550056e+03
2.468439e+03,8.557979e+03
2.469404e+03,8.553827e+03
2.470368e+03,8.533384e+03
2.471332e+03,8.519291e+03
2.472296e+03,8.506336e+03
2.473260e+03,8.490206e+03
2.474225e+03,8.470921e+03
2.475189e+03,8.463765e+03
2.476153e+03,8.471324e+03
2.477117e+03,8.487526e+03
2.478082e+03,8.499949e+03
2.479046e+03,8.478006e+03
2.480010e+03,8.439799e+03
2.480974e+03,8.408805e+03
2.481938e+03,8.392961e+03
2.482903e+03,8.416674e+03
2.483867e+03,8.439202e+03
2.484831e+03,8.437078e+03
2.485795e+03,8.421608e+03
2.486760e+03,8.402144e+03
2.487724e+03,8.383591e+03
2.488688e+03,8.369610e+03
2.489652e+03,8.361568e+03
2.490617e+03,8.354379e+03
2.491581e+03,8.349835e+03
2.492545e+03,8.350246e+03
2.493509e+03,8.341244e+03
2.494474e+03,8.317315e+03
2.495438e+03,8.309913e+03
2.496402e+03,8.313480e+03
2.497366e+03,8.324034e+03
2.498331e+03,8.330979e+03
2.499295e+03,8.310506e+03
2.500259e+03,8.276191e+03
2.501223e+03,8.247810e+03
2.502188e+03,8.229440e+03
2.503152e+03,8.224741e+03
2.504116e+03,8.230417e+03
2.505080e+03,8.245823e+03
2.506044e+03,8.259620e+03
2.507009e+03,8.258466e+03
2.507973e+03,8.251486e+03
2.508937e+03,8.243537e+03
2.509901e+03,8.234811e+03
2.510865e+03,8.222659e+03
2.511830e+03,8.206319e+03
2.512794e+03,8.186651e+03
2.513758e+03,8.190085e+03
2.514722e+03,8.211773e+03
2.515687e+03,8.229510e+03
2.516651e+03,8.235527e+03
2.517615e+03,8.222505e+03
2.518579e+03,8.198750e+03
2.519544e+03,8.162859e+03
2.520508e+03,8.141875e+03
2.521472e+03,8.149201e+03
2.522436e+03,8.153896e+03
2.523401e+03,8.129326e+03
2.524365e+03,8.109327e+03
2.525329e+03,8.090177e+03
2.526293e+03,8.094188e+03
2.527258e+03,8.135002e+03
2.528222e+03,8.150292e+03
2.529186e+03,8.140401e+03
2.530150e+03,8.105353e+03
2.531115e+03,8.062600e+03
2.532079e+03,8.046411e+03
2.533043e+03,8.048298e+03
2.534007e+03,8.059876e+03
2.534971e+03,8.053000e+03
2.535936e+03,7.970936e+03
2.536900e+03,7.926028e+03
2.537864e+03,7.960916e+03
2.538828e+03,8.006304e+03
2.539792e+03,8.019021e+03
2.540757e+03,8.013340e+03
2.541721e+03,7.991157e+03
2.542685e+03,7.985101e+03
2.543649e+03,7.999554e+03
2.544614e+03,7.995990e+03
2.545578e+03,7.977562e+03
2.546542e+03,7.980040e+03
2.547506e+03,7.994436e+03
2.548471e+03,7.993747e+03
2.549435e+03,7.979839e+03
2.550399e+03,7.953053e+03
2.551363e+03,7.922944e+03
2.552328e+03,7.897750e+03
2.553292e+03,7.890473e+03
2.554256e+03,7.911321e+03
2.555220e+03,7.926273e+03
2.556185e+03,7.927122e+03
2.557149e+03,7.924883e+03
2.558113e+03,7.919594e+03
2.559077e+03,7.905552e+03
2.560042e+03,7.883116e+03
2.561006e+03,7.876278e+03
2.561970e+03,7.885241e+03
2.562934e+03,7.877448e+03
2.563898e+03,7.868456e+03
2.564863e+03,7.878994e+03
2.565827e+03,7.877571e+03
2.566791e+03,7.838702e+03
2.567755e+03,7.822919e+03
2.568719e+03,7.835229e+03
2.569684e+03,7.831398e+03
2.570648e+03,7.786212e+03
2.571612e+03,7.767203e+03
2.572576e+03,7.779690e+03
2.573541e+03,7.805610e+03
2.574505e+03,7.826013e+03
2.575469e+03,7.793943e+03
2.576433e+03,7.747531e+03
2.577398e+03,7.759072e+03
2.578362e+03,7.790218e+03
2.579326e+03,7.795260e+03
2.580290e+03,7.794229e+03
2.581255e+03,7.793107e+03
2.582219e+03,7.784177e+03
2.583183e+03,7.765068e+03
2.584147e+03,7.731937e+03
2.585112e+03,7.697612e+03
2.586076e+03,7.689785e+03
2.587040e+03,7.710461e+03
2.588004e+03,7.713878e+03
2.588969e+03,7.701719e+03
2.589933e+03,7.692607e+03
2.590897e+03,7.686959e+03
2.591861e+03,7.686079e+03
2.592825e+03,7.678267e+03
2.593790e+03,7.646661e+03
2.594754e+03,7.627448e+03
2.595718e+03,7.653533e+03
2.596682e+03,7.674542e+03
2.597646e+03,7.677015e+03
2.598611e+03,7.668154e+03
2.599575e+03,7.657894e+03
2.600539e+03,7.645830e+03
2.601503e+03,7.629235e+03
2.602468e+03,7.606393e+03
2.603432e+03,7.583733e+03
2.604396e+03,7.593312e+03
2.605360e+03,7.609354e+03
2.606325e+03,7.596758e+03
2.607289e+03,7.584843e+03
2.608253e+03,7.590252e+03
2.609217e+03,7.589545e+03
2.610182e+03,7.553151e+03
2.611146e+03,7.546731e+03
2.612110e+03,7.568728e+03
2.613074e+03,7.561765e+03
2.614039e+03,7.529472e+03
2.615003e+03,7.521909e+03
2.615967e+03,7.518321e+03
2.616931e+03,7.504229e+03
2.617896e+03,7.489626e+03
2.618860e+03,7.485281e+03
2.619824e+03,7.477999e+03
2.620788e+03,7.458278e+03
2.621752e+03,7.453435e+03
2.622717e+03,7.501872e+03
2.623681e+03,7.499968e+03
2.624645e+03,7.448576e+03
2.625609e+03,7.417132e+03
2.626573e+03,7.409649e+03
2.627538e+03,7.414646e+03
2.628502e+03,7.429928e+03
2.629466e+03,7.445693e+03
2.630430e+03,7.451998e+03
2.631395e+03,7.416313e+03
2.632359e+03,7.396334e+03
2.633323e+03,7.424521e+03
2.634287e+03,7.419901e+03
2.635252e+03,7.369078e+03
2.636216e+03,7.353862e+03
2.637180e+03,7.383804e+03
2.638144e+03,7.411182e+03
2.639109e+03,7.424692e+03
2.640073e+03,7.395476e+03
2.641037e+03,7.360688e+03
2.642001e+03,7.355891e+03
2.642966e+03,7.349188e+03
2.643930e+03,7.317424e+03
2.644894e+03,7.302439e+03
2.645858e+03,7.359899e+03
2.646823e+03,7.373919e+03
2.647787e+03,7.339584e+03
2.648751e+03,7.326544e+03
2.649715e+03,7.340127e+03
2.650679e+03,7.348276e+03
2.651644e+03,7.348119e+03
2.652608e+03,7.334642e+03
2.653572e+03,7.314349e+03
2.654536e+03,7.293090e+03
2.655500e+03,7.284972e+03
2.656465e+03,7.298526e+03
2.657429e+03,7.298699e+03
2.658393e+03,7.267767e+03
2.659357e+03,7.246331e+03
2.660322e+03,7.247780e+03
2.661286e+03,7.251232e+03
2.662250e+03,7.253134e+03
2.663214e+03,7.246724e+03
2.664179e+03,7.235466e+03
2.665143e+03,7.228224e+03
2.666107e+03,7.216912e+03
2.667071e+03,7.195453e+03
2.668036e+03,7.189703e+03
2.669000e+03,7.218073e+03
2.669964e+03,7.212559e+03
2.670928e+03,7.178418e+03
2.671893e+03,7.179948e+03
2.672857e+03,7.211627e+03
2.673821e+03,7.199007e+03
2.674785e+03,7.162629e+03
2.675750e+03,7.128297e+03
2.676714e+03,7.111688e+03
2.677678e+03,7.142193e+03
2.678642e+03,7.162837e+03
2.679606e+03,7.163256e+03
2.680571e+03,7.152400e+03
2.681535e+03,7.132298e+03
2.682499e+03,7.126143e+03
2.683463e+03,7.126600e+03
2.684427e+03,7.112688e+03
2.685392e+03,7.101834e+03
2.686356e+03,7.129675e+03
2.687320e+03,7.153008e+03
2.688284e+03,7.141678e+03
2.689249e+03,7.130953e+03
2.690213e+03,7.126068e+03
2.691177e+03,7.109577e+03
2.692141e+03,7.082169e+03
2.693106e+03,7.062229e+03
2.694070e+03,7.050792e+03
2.695034e+03,7.046175e+03
2.695998e+03,7.045999e+03
2.696963e+03,7.051544e+03
2.697927e+03,7.061767e+03
2.698891e+03,7.070581e+03
2.699855e+03,7.062814e+03
2.700820e+03,7.032262e+03
2.701784e+03,7.017836e+03
2.702748e+03,7.015709e+03
2.703712e+03,6.995561e+03
2.704677e+03,6.965970e+03
2.705641e+03,6.978554e+03
2.706605e+03,7.002834e+03
2.707569e+03,6.982394e+03
2.708533e+03,6.960383e+03
2.709498e+03,6.952706e+03
2.710462e+03,6.956716e+03
2.711426e+03,6.990898e+03
2.712390e+03,6.984240e+03
2.713354e+03,6.946440e+03
2.714319e+03,6.924991e+03
2.715283e+03,6.915896e+03
2.716247e+03,6.901447e+03
2.717211e+03,6.907383e+03
2.718176e+03,6.956321e+03
2.719140e+03,6.989217e+03
2.720104e+03,6.955489e+03
2.721068e+03,6.925847e+03
2.722033e+03,6.908700e+03
2.722997e+03,6.885674e+03
2.723961e+03,6.857460e+03
2.724925e+03,6.846833e+03
2.725890e+03,6.850774e+03
2.726854e+03,6.859490e+03
2.727818e+03,6.881320e+03
2.728782e+03,6.917313e+03
2.729747e+03,6.919448e+03
2.730711e+03,6.832587e+03
2.731675e+03,6.831313e+03
2.732639e+03,6.893314e+03
2.733604e+03,6.873002e+03
2.734568e+03,6.808117e+03
2.735532e+03,6.833198e+03
2.736496e+03,6.861759e+03
2.737460e+03,6.830183e+03
2.738425e+03,6.802486e+03
2.739389e+03,6.821434e+03
2.740353e+03,6.805775e+03
2.741317e+03,6.751087e+03
2.742281e+03,6.738740e+03
2.743246e+03,6.760535e+03
2.744210e+03,6.766578e+03
2.745174e+03,6.758485e+03
2.746138e+03,6.753441e+03
2.747103e+03,6.752912e+03
2.748067e+03,6.761084e+03
2.749031e+03,6.768406e+03
2.749995e+03,6.765905e+03
2.750960e+03,6.760627e+03
2.751924e+03,6.750755e+03
2.752888e+03,6.719875e+03
2.753852e+03,6.687109e+03
2.754817e+03,6.710750e+03
2.755781e+03,6.744021e+03
2.756745e+03,6.759880e+03
2.757709e+03,6.766392e+03
2.758674e+03,6.760175e+03
2.759638e+03,6.768222e+03
2.760602e+03,6.789913e+03
2.761566e+03,6.751306e+03
2.762531e+03,6.695140e+03
2.763495e+03,6.680154e+03
2.764459e+03,6.684774e+03
2.765423e+03,6.716487e+03
2.766387e+03,6.717939e+03
2.767352e+03,6.683354e+03
2.768316e+03,6.655619e+03
2.769280e+03,6.642752e+03
2.770244e+03,6.645963e+03
2.771208e+03,6.655958e+03
2.772173e+03,6.642920e+03
2.773137e+03,6.620175e+03
2.774101e+03,6.611910e+03
2.775065e+03,6.615649e+03
2.776030e+03,6.630445e+03
2.776994e+03,6.639312e+03
2.777958e+03,6.636346e+03
2.778922e+03,6.632658e+03
2.779887e+03,6.627170e+03
2.780851e+03,6.593471e+03
2.781815e+03,6.567841e+03
2.782779e+03,6.582506e+03
2.783744e+03,6.600422e+03
2.784708e+03,6.590602e+03
2.785672e+03,6.580508e+03
2.786636e+03,6.572335e+03
2.787601e+03,6.572942e+03
2.788565e+03,6.580753e+03
2.789529e+03,6.577239e+03
2.790493e+03,6.574129e+03
2.791458e+03,6.592414e+03
2.792422e+03,6.562427e+03
2.793386e+03,6.481899e+03
2.794350e+03,6.465643e+03
2.795314e+03,6.536404e+03
2.796279e+03,6.548151e+03
2.797243e+03,6.520753e+03
2.798207e+03,6.497393e+03
2.799171e+03,6.492870e+03
2.800135e+03,6.535833e+03
2.801100e+03,6.557771e+03
2.802064e+03,6.546023e+03
2.803028e+03,6.541577e+03
2.803992e+03,6.540675e+03
2.804957e+03,6.498907e+03
2.805921e+03,6.449278e+03
2.806885e+03,6.457481e+03
2.807849e+03,6.458929e+03
2.808814e+03,6.417958e+03
2.809778e+03,6.410542e+03
2.810742e+03,6.495416e+03
2.811706e+03,6.502008e+03
2.812671e+03,6.445140e+03
2.813635e+03,6.420622e+03
2.814599e+03,6.412110e+03
2.815563e+03,6.378455e+03
2.816528e+03,6.366549e+03
2.817492e+03,6.412710e+03
2.818456e+03,6.425225e+03
2.819420e+03,6.393334e+03
2.820385e+03,6.373111e+03
2.821349e+03,6.374350e+03
2.822313e+03,6.384683e+03
2.823277e+03,6.399344e+03
2.824241e+03,6.411037e+03
2.825206e+03,6.413104e+03
2.826170e+03,6.406240e+03
2.827134e+03,6.399950e+03
2.828098e+03,6.389341e+03
2.829063e+03,6.369628e+03
2.830027e+03,6.348094e+03
2.830991e+03,6.356091e+03
2.831955e+03,6.369479e+03
2.832919e+03,6.349574e+03
2.833884e+03,6.329905e+03
2.834848e+03,6.314686e+03
2.835812e+03,6.321813e+03
2.836776e+03,6.348630e+03
2.837741e+03,6.364820e+03
2.838705e+03,6.360853e+03
2.839669e+03,6.322283e+03
2.840633e+03,6.286788e+03
2.841598e+03,6.275878e+03
2.842562e+03,6.266558e+03
2.843526e+03,6.261889e+03
2.844490e+03,6.294935e+03
2.845455e+03,6.330367e+03
2.846419e+03,6.311372e+03
2.847383e+03,6.277804e+03
2.848347e+03,6.262573e+03
2.849312e+03,6.259435e+03
2.850276e+03,6.266331e+03
2.851240e+03,6.302506e+03
2.852204e+03,6.345849e+03
2.853168e+03,6.300625e+03
2.854133e+03,6.226713e+03
2.855097e+03,6.191175e+03
2.856061e+03,6.202910e+03
2.857025e+03,6.248556e+03
2.857990e+03,6.272829e+03
2.858954e+03,6.261470e+03
2.859918e+03,6.259815e+03
2.860882e+03,6.261491e+03
2.861846e+03,6.250746e+03
2.862811e+03,6.245823e+03
2.863775e+03,6.269877e+03
2.864739e+03,6.279505e+03
2.865703e+03,6.262013e+03
2.866668e+03,6.246695e+03
2.867632e+03,6.233887e+03
2.868596e+03,6.220051e+03
2.869560e+03,6.209330e+03
2.870525e+03,6.223643e+03
2.871489e+03,6.240763e+03
2.872453e+03,6.252074e+03
2.873417e+03,6.220845e+03
2.874382e+03,6.154745e+03
2.875346e+03,6.127030e+03
2.876310e+03,6.133084e+03
2.877274e+03,6.160450e+03
2.878239e+03,6.179460e+03
2.879203e+03,6.176119e+03
2.880167e+03,6.157755e+03
2.881131e+03,6.133106e+03
2.882095e+03,6.133110e+03
2.883060e+03,6.149547e+03
2.884024e+03,6.158021e+03
2.884988e+03,6.177663e+03
2.885952e+03,6.239803e+03
2.886917e+03,6.242714e+03
2.887881e+03,6.162628e+03
2.888845e+03,6.123006e+03
2.889809e+03,6.117355e+03
2.890773e+03,6.113375e+03
2.891738e+03,6.110747e+03
2.892702e+03,6.140455e+03
2.893666e+03,6.140823e+03
2.894630e+03,6.103651e+03
2.895595e+03,6.099023e+03
2.896559e+03,6.121189e+03
2.897523e+03,6.138026e+03
2.898487e+03,6.147263e+03
2.899452e+03,6.147299e+03
2.900416e+03,6.129385e+03
2.901380e+03,6.092734e+03
2.902344e+03,6.084637e+03
2.903309e+03,6.106189e+03
2.904273e+03,6.115548e+03
2.905237e+03,6.099625e+03
2.906201e+03,6.031443e+03
2.907166e+03,6.012950e+03
2.908130e+03,6.088156e+03
2.909094e+03,6.098773e+03
2.910058e+03,6.027044e+03
2.911022e+03,6.033923e+03
2.911987e+03,6.063680e+03
2.912951e+03,6.045169e+03
2.913915e+03,6.023158e+03
2.914879e+03,6.027756e+03
2.915844e+03,6.041865e+03
2.916808e+03,6.058184e+03
2.917772e+03,6.021394e+03
2.918736e+03,5.978900e+03
2.919700e+03,6.007668e+03
2.920665e+03,6.035397e+03
2.921629e+03,6.004805e+03
2.922593e+03,5.998530e+03
2.923557e+03,6.009425e+03
2.924522e+03,5.950334e+03
2.925486e+03,5.874276e+03
2.926450e+03,5.926384e+03
2.927414e+03,5.984445e+03
2.928379e+03,5.993459e+03
2.929343e+03,6.001184e+03
2.930307e+03,6.008028e+03
2.931271e+03,5.988706e+03
2.932236e+03,5.959716e+03
2.933200e+03,5.932803e+03
2.934164e+03,5.912768e+03
2.935128e+03,5.893952e+03
2.936093e+03,5.904788e+03
2.937057e+03,5.940185e+03
2.938021e+03,5.919751e+03
2.938985e+03,5.883491e+03
2.939949e+03,5.892440e+03
2.940914e+03,5.902396e+03
2.941878e+03,5.899927e+03
2.942842e+03,5.898006e+03
2.943806e+03,5.891769e+03
2.944771e+03,5.920369e+03
2.945735e+03,5.948425e+03
2.946699e+03,5.914942e+03
2.947663e+03,5.891485e+03
2.948627e+03,5.892888e+03
2.949592e+03,5.915968e+03
2.950556e+03,5.957863e+03
2.951520e+03,5.942982e+03
2.952484e+03,5.915344e+03
2.953449e+03,5.933461e+03
2.954413e+03,5.927278e+03
2.955377e+03,5.872737e+03
2.956341e+03,5.878656e+03
2.957306e+03,5.935050e+03
2.958270e+03,5.907981e+03
2.959234e+03,5.856007e+03
2.960198e+03,5.841281e+03
2.961163e+03,5.855067e+03
2.962127e+03,5.881838e+03
2.963091e+03,5.877533e+03
2.964055e+03,5.846766e+03
2.965020e+03,5.857688e+03
2.965984e+03,5.868350e+03
2.966948e+03,5.837074e+03
2.967912e+03,5.807157e+03
2.968876e+03,5.794977e+03
2.969841e+03,5.812003e+03
2.970805e+03,5.834893e+03
2.971769e+03,5.824492e+03
2.972733e+03,5.807376e+03
2.973698e+03,5.802154e+03
2.974662e+03,5.811412e+03
2.975626e+03,5.836695e+03
2.976590e+03,5.818149e+03
2.977554e+03,5.793567e+03
2.978519e+03,5.810965e+03
2.979483e+03,5.817155e+03
2.980447e+03,5.777630e+03
2.981411e+03,5.746392e+03
2.982376e+03,5.741149e+03
2.983340e+03,5.801075e+03
2.984304e+03,5.840845e+03
2.985268e+03,5.775170e+03
2.986233e+03,5.709307e+03
2.987197e+03,5.702885e+03
2.988161e+03,5.713194e+03
2.989125e+03,5.733740e+03
2.990090e+03,5.735468e+03
2.991054e+03,5.739899e+03
2.992018e+03,5.767506e+03
2.992982e+03,5.766339e+03
2.993947e+03,5.716757e+03
2.994911e+03,5.711780e+03
2.995875e+03,5.725797e+03
2.996839e+03,5.694201e+03
2.997803e+03,5.675969e+03
2.998768e+03,5.719992e+03
2.999732e+03,5.722292e+03
3.000696e+03,5.674070e+03
3.001660e+03,5.657647e+03
3.002625e+03,5.661335e+03
3.003589e+03,5.677056e+03
3.004553e+03,5.690935e+03
3.005517e+03,5.701991e+03
3.006481e+03,5.707343e+03
3.007446e+03,5.707831e+03
3.008410e+03,5.753305e+03
3.009374e+03,5.765150e+03
3.010338e+03,5.704750e+03
3.011303e+03,5.660837e+03
3.012267e+03,5.650833e+03
3.013231e+03,5.681554e+03
3.014195e+03,5.713218e+03
3.015160e+03,5.675338e+03
3.016124e+03,5.637158e+03
3.017088e+03,5.621087e+03
3.018052e+03,5.640534e+03
3.019017e+03,5.679650e+03
3.019981e+03,5.644156e+03
3.020945e+03,5.610259e+03
3.021909e+03,5.649674e+03
3.022874e+03,5.665746e+03
3.023838e+03,5.640401e+03
3.024802e+03,5.638269e+03
3.025766e+03,5.652328e+03
3.026730e+03,5.651576e+03
3.027695e+03,5.624713e+03
3.028659e+03,5.569056e+03
3.029623e+03,5.559387e+03
3.030587e+03,5.590489e+03
3.031552e+03,5.615650e+03
3.032516e+03,5.613517e+03
3.033480e+03,5.539096e+03
3.034444e+03,5.521729e+03
3.035408e+03,5.577128e+03
3.036373e+03,5.598042e+03
3.037337e+03,5.586818e+03
3.038301e+03,5.580614e+03
3.039265e+03,5.583648e+03
3.040230e+03,5.603952e+03
3.041194e+03,5.581898e+03
3.042158e+03,5.531742e+03
3.043122e+03,5.510519e+03
3.044087e+03,5.518788e+03
3.045051e+03,5.562924e+03
3.046015e+03,5.584612e+03
3.046979e+03,5.567863e+03
3.047944e+03,5.526276e+03
3.048908e+03,5.495997e+03
3.049872e+03,5.527089e+03
3.050836e+03,5.552272e+03
3.051801e+03,5.520807e+03
3.052765e+03,5.502517e+03
3.053729e+03,5.498618e+03
3.054693e+03,5.506943e+03
3.055657e+03,5.514276e+03
3.056622e+03,5.504016e+03
3.057586e+03,5.505023e+03
3.058550e+03,5.529123e+03
3.059514e+03,5.473752e+03
3.060479e+03,5.412552e+03
3.061443e+03,5.480922e+03
3.062407e+03,5.514998e+03
3.063371e+03,5.474353e+03
3.064335e+03,5.445318e+03
3.065300e+03,5.444752e+03
3.066264e+03,5.497458e+03
3.067228e+03,5.538518e+03
3.068192e+03,5.517535e+03
3.069157e+03,5.489950e+03
3.070121e+03,5.466890e+03
3.071085e+03,5.461121e+03
3.072049e+03,5.455829e+03
3.073014e+03,5.421479e+03
3.073978e+03,5.399782e+03
3.074942e+03,5.400744e+03
3.075906e+03,5.453191e+03
3.076871e+03,5.505740e+03
3.077835e+03,5.473062e+03
3.078799e+03,5.440559e+03
3.079763e+03,5.463758e+03
3.080728e+03,5.472528e+03
3.081692e+03,5.469854e+03
3.082656e+03,5.470637e+03
3.083620e+03,5.469882e+03
3.084584e+03,5.468297e+03
3.085549e+03,5.457729e+03
3.086513e+03,5.441315e+03
3.087477e+03,5.422682e+03
3.088441e+03,5.406490e+03
3.089406e+03,5.410186e+03
3.090370e+03,5.422531e+03
3.091334e+03,5.439034e+03
3.092298e+03,5.431734e+03
3.093262e+03,5.417984e+03
3.094227e+03,5.444030e+03
3.095191e+03,5.457838e+03
3.096155e+03,5.440205e+03
3.097119e+03,5.411810e+03
3.098084e+03,5.388834e+03
3.099048e+03,5.388060e+03
3.100012e+03,5.392911e+03
3.100976e+03,5.391505e+03
3.101941e+03,5.400713e+03
3.102905e+03,5.415034e+03
3.103869e+03,5.376020e+03
3.104833e+03,5.359702e+03
3.105798e+03,5.416249e+03
3.106762e+03,5.439263e+03
3.107726e+03,5.413421e+03
3.108690e+03,5.379023e+03
3.109655e+03,5.352671e+03
3.110619e+03,5.357094e+03
3.111583e+03,5.380530e+03
3.112547e+03,5.416093e+03
3.113511e+03,5.424376e+03
3.114476e+03,5.410902e+03
3.115440e+03,5.377769e+03
3.116404e+03,5.347172e+03
3.117368e+03,5.336736e+03
3.118333e+03,5.371855e+03
3.119297e+03,5.406897e+03
3.120261e+03,5.361911e+03
3.121225e+03,5.332058e+03
3.122189e+03,5.368638e+03
3.123154e+03,5.366987e+03
3.124118e+03,5.325048e+03
3.125082e+03,5.306557e+03
3.126046e+03,5.298870e+03
3.127011e+03,5.289683e+03
3.127975e+03,5.302011e+03
3.128939e+03,5.325569e+03
3.129903e+03,5.305377e+03
3.130868e+03,5.286946e+03
3.131832e+03,5.319288e+03
3.132796e+03,5.323335e+03
3.133760e+03,5.302042e+03
3.134725e+03,5.296122e+03
3.135689e+03,5.320778e+03
3.136653e+03,5.391140e+03
3.137617e+03,5.423915e+03
3.138582e+03,5.396744e+03
3.139546e+03,5.400238e+03
3.140510e+03,5.386171e+03
3.141474e+03,5.297393e+03
3.142438e+03,5.300310e+03
3.143403e+03,5.394563e+03
3.144367e+03,5.373842e+03
3.145331e+03,5.304718e+03
3.146295e+03,5.298002e+03
3.147260e+03,5.312501e+03
3.148224e+03,5.328223e+03
3.149188e+03,5.309323e+03
3.150152e+03,5.294077e+03
3.151116e+03,5.331307e+03
3.152081e+03,5.353546e+03
3.153045e+03,5.319742e+03
3.154009e+03,5.300762e+03
3.154973e+03,5.290509e+03
3.155938e+03,5.234638e+03
3.156902e+03,5.220744e+03
3.157866e+03,5.258127e+03
3.158830e+03,5.295042e+03
3.159795e+03,5.328718e+03
3.160759e+03,5.338483e+03
3.161723e+03,5.319627e+03
3.162687e+03,5.245388e+03
3.163652e+03,5.265875e+03
3.164616e+03,5.328214e+03
3.165580e+03,5.306267e+03
3.166544e+03,5.274822e+03
3.167509e+03,5.272069e+03
3.168473e+03,5.288673e+03
3.169437e+03,5.312006e+03
3.170401e+03,5.310557e+03
3.171365e+03,5.296159e+03
3.172330e+03,5.276973e+03
3.173294e+03,5.301528e+03
3.174258e+03,5.336873e+03
3.175222e+03,5.307995e+03
3.176187e+03,5.269644e+03
3.177151e+03,5.266528e+03
3.178115e+03,5.280204e+03
3.179079e+03,5.298600e+03
3.180043e+03,5.272532e+03
3.181008e+03,5.272260e+03
3.181972e+03,5.326607e+03
3.182936e+03,5.343078e+03
3.183900e+03,5.325323e+03
3.184865e+03,5.322512e+03
3.185829e+03,5.311597e+03
3.186793e+03,5.285747e+03
3.187757e+03,5.270779e+03
3.188722e+03,5.279583e+03
3.189686e+03,5.359958e+03
3.190650e+03,5.365110e+03
3.191614e+03,5.250839e+03
3.192579e+03,5.234049e+03
3.193543e+03,5.296204e+03
3.194507e+03,5.358985e+03
3.195471e+03,5.355609e+03
3.196436e+03,5.239830e+03
3.197400e+03,5.244055e+03
3.198364e+03,5.293610e+03
3.199328e+03,5.252396e+03
3.200292e+03,5.208814e+03
3.201257e+03,0.000000e+00
3.202221e+03,0.000000e+00
3.203185e+03,0.000000e+00
3.204149e+03,0.000000e+00
3.205114e+03,0.000000e+00
3.206078e+03,0.000000e+00
3.207042e+03,0.000000e+00
3.208006e+03,0.000000e+00
3.208970e+03,0.000000e+00
3.209935e+03,0.000000e+00
3.210899e+03,0.000000e+00
3.211863e+03,0.000000e+00
3.212827e+03,0.000000e+00
3.213792e+03,0.000000e+00
3.214756e+03,0.000000e+00
3.215720e+03,0.000000e+00
3.216684e+03,0.000000e+00
3.217649e+03,0.000000e+00
3.218613e+03,0.000000e+00
3.219577e+03,0.000000e+00
3.220541e+03,0.000000e+00
3.221506e+03,0.000000e+00
3.222470e+03,0.000000e+00
3.223434e+03,0.000000e+00
3.224398e+03,0.000000e+00
3.225363e+03,0.000000e+00
3.226327e+03,0.000000e+00
3.227291e+03,0.000000e+00
3.228255e+03,0.000000e+00
3.229219e+03,0.000000e+00
3.230184e+03,0.000000e+00
3.231148e+03,0.000000e+00
3.232112e+03,0.000000e+00
3.233076e+03,0.000000e+00
3.234041e+03,0.000000e+00
3.235005e+03,0.000000e+00
3.235969e+03,0.000000e+00
3.236933e+03,0.000000e+00
3.237897e+03,0.000000e+00
3.238862e+03,0.000000e+00
3.239826e+03,0.000000e+00
3.240790e+03,0.000000e+00
3.241754e+03,0.000000e+00
3.242719e+03,0.000000e+00
3.243683e+03,0.000000e+00
3.244647e+03,0.000000e+00
3.245611e+03,0.000000e+00
3.246576e+03,0.000000e+00
3.247540e+03,0.000000e+00
3.248504e+03,0.000000e+00
3.249468e+03,0.000000e+00
3.250433e+03,0.000000e+00
3.251397e+03,0.000000e+00
3.252361e+03,0.000000e+00
3.253325e+03,0.000000e+00
3.254290e+03,0.000000e+00
3.255254e+03,0.000000e+00
3.256218e+03,0.000000e+00
3.257182e+03,0.000000e+00
3.258146e+03,0.000000e+00
3.259111e+03,0.000000e+00
3.260075e+03,0.000000e+00
3.261039e+03,0.000000e+00
3.262003e+03,0.000000e+00
3.262968e+03,0.000000e+00
3.263932e+03,0.000000e+00
3.264896e+03,0.000000e+00
3.265860e+03,0.000000e+00
3.266824e+03,0.000000e+00
3.267789e+03,0.000000e+00
3.268753e+03,0.000000e+00
3.269717e+03,0.000000e+00
3.270681e+03,0.000000e+00
3.271646e+03,0.000000e+00
3.272610e+03,0.000000e+00
3.273574e+03,0.000000e+00
3.274538e+03,0.000000e+00
3.275503e+03,0.000000e+00
3.276467e+03,0.000000e+00
3.277431e+03,0.000000e+00
3.278395e+03,0.000000e+00
3.279360e+03,0.000000e+00
3.280324e+03,0.000000e+00
3.281288e+03,0.000000e+00
3.282252e+03,0.000000e+00
3.283217e+03,0.000000e+00
3.284181e+03,0.000000e+00
3.285145e+03,0.000000e+00
3.286109e+03,0.000000e+00
3.287073e+03,0.000000e+00
3.288038e+03,0.000000e+00
3.289002e+03,0.000000e+00
3.289966e+03,0.000000e+00
3.290930e+03,0.000000e+00
3.291895e+03,0.000000e+00
3.292859e+03,0.000000e+00
3.293823e+03,0.000000e+00
3.294787e+03,0.000000e+00
3.295751e+03,0.000000e+00
3.296716e+03,0.000000e+00
3.297680e+03,0.000000e+00
3.298644e+03,0.000000e+00
3.299608e+03,0.000000e+00
3.300573e+03,0.000000e+00
3.301537e+03,0.000000e+00
3.302501e+03,0.000000e+00
3.303465e+03,0.000000e+00
3.304430e+03,0.000000e+00
3.305394e+03,0.000000e+00
3.306358e+03,0.000000e+00
3.307322e+03,0.000000e+00
3.308287e+03,0.000000e+00
3.309251e+03,0.000000e+00
3.310215e+03,0.000000e+00
3.311179e+03,0.000000e+00
3.312144e+03,0.000000e+00
3.313108e+03,0.000000e+00
3.314072e+03,0.000000e+00
3.315036e+03,0.000000e+00
3.316000e+03,0.000000e+00
3.316965e+03,0.000000e+00
3.317929e+03,0.000000e+00
3.318893e+03,0.000000e+00
3.319857e+03,0.000000e+00
3.320822e+03,0.000000e+00
3.321786e+03,0.000000e+00
3.322750e+03,0.000000e+00
3.323714e+03,0.000000e+00
3.324678e+03,0.000000e+00
3.325643e+03,0.000000e+00
3.326607e+03,0.000000e+00
3.327571e+03,0.000000e+00
3.328535e+03,0.000000e+00
3.329500e+03,0.000000e+00
3.330464e+03,0.000000e+00
3.331428e+03,0.000000e+00
3.332392e+03,0.000000e+00
3.333357e+03,0.000000e+00
3.334321e+03,0.000000e+00
3.335285e+03,0.000000e+00
3.336249e+03,0.000000e+00
3.337214e+03,0.000000e+00
3.338178e+03,0.000000e+00
3.339142e+03,0.000000e+00
3.340106e+03,0.000000e+00
3.341071e+03,0.000000e+00
3.342035e+03,0.000000e+00
3.342999e+03,0.000000e+00
3.343963e+03,0.000000e+00
3.344927e+03,0.000000e+00
3.345892e+03,0.000000e+00
3.346856e+03,0.000000e+00
3.347820e+03,0.000000e+00
3.348784e+03,0.000000e+00
3.349749e+03,0.000000e+00
3.350713e+03,0.000000e+00
3.351677e+03,0.000000e+00
3.352641e+03,0.000000e+00
3.353605e+03,0.000000e+00
3.354570e+03,0.000000e+00
3.355534e+03,0.000000e+00
3.356498e+03,0.000000e+00
3.357462e+03,0.000000e+00
3.358427e+03,0.000000e+00
3.359391e+03,0.000000e+00
3.360355e+03,0.000000e+00
3.361319e+03,0.000000e+00
3.362284e+03,0.000000e+00
3.363248e+03,0.000000e+00
3.364212e+03,0.000000e+00
3.365176e+03,0.000000e+00
3.366141e+03,0.000000e+00
3.367105e+03,0.000000e+00
3.368069e+03,0.000000e+00
3.369033e+03,0.000000e+00
3.369998e+03,0.000000e+00
3.370962e+03,0.000000e+00
3.371926e+03,0.000000e+00
3.372890e+03,0.000000e+00
3.373854e+03,0.000000e+00
3.374819e+03,0.000000e+00
3.375783e+03,0.000000e+00
3.376747e+03,0.000000e+00
3.377711e+03,0.000000e+00
3.378676e+03,0.000000e+00
3.379640e+03,0.000000e+00
3.380604e+03,0.000000e+00
3.381568e+03,0.000000e+00
3.382532e+03,0.000000e+00
3.383497e+03,0.000000e+00
3.384461e+03,0.000000e+00
3.385425e+03,0.000000e+00
3.386389e+03,0.000000e+00
3.387354e+03,0.000000e+00
3.388318e+03,0.000000e+00
3.389282e+03,0.000000e+00
3.390246e+03,0.000000e+00
3.391211e+03,0.000000e+00
3.392175e+03,0.000000e+00
3.393139e+03,0.000000e+00
3.394103e+03,0.000000e+00
3.395068e+03,0.000000e+00
3.396032e+03,0.000000e+00
3.396996e+03,0.000000e+00
3.397960e+03,0.000000e+00
3.398925e+03,0.000000e+00
3.399889e+03,0.000000e+00
3.400853e+03,0.000000e+00
3.401817e+03,0.000000e+00
3.402781e+03,0.000000e+00
3.403746e+03,0.000000e+00
3.404710e+03,0.000000e+00
3.405674e+03,0.000000e+00
3.406638e+03,0.000000e+00
3.407603e+03,0.000000e+00
3.408567e+03,0.000000e+00
3.409531e+03,0.000000e+00
3.410495e+03,0.000000e+00
3.411459e+03,0.000000e+00
3.412424e+03,0.000000e+00
3.413388e+03,0.000000e+00
3.414352e+03,0.000000e+00
3.415316e+03,0.000000e+00
3.416281e+03,0.000000e+00
3.417245e+03,0.000000e+00
3.418209e+03,0.000000e+00
3.419173e+03,0.000000e+00
3.420138e+03,0.000000e+00
3.421102e+03,0.000000e+00
3.422066e+03,0.000000e+00
3.423030e+03,0.000000e+00
3.423995e+03,0.000000e+00
3.424959e+03,0.000000e+00
3.425923e+03,0.000000e+00
3.426887e+03,0.000000e+00
3.427852e+03,0.000000e+00
3.428816e+03,0.000000e+00
3.429780e+03,0.000000e+00
3.430744e+03,0.000000e+00
3.431708e+03,0.000000e+00
3.432673e+03,0.000000e+00
3.433637e+03,0.000000e+00
3.434601e+03,0.000000e+00
3.435565e+03,0.000000e+00
3.436530e+03,0.000000e+00
3.437494e+03,0.000000e+00
3.438458e+03,0.000000e+00
3.439422e+03,0.000000e+00
3.440386e+03,0.000000e+00
3.441351e+03,0.000000e+00
3.442315e+03,0.000000e+00
3.443279e+03,0.000000e+00
3.444243e+03,0.000000e+00
3.445208e+03,0.000000e+00
3.446172e+03,0.000000e+00
3.447136e+03,0.000000e+00
3.448100e+03,0.000000e+00
3.449065e+03,0.000000e+00
3.450029e+03,0.000000e+00
3.450993e+03,0.000000e+00
3.451957e+03,0.000000e+00
3.452922e+03,0.000000e+00
3.453886e+03,0.000000e+00
3.454850e+03,0.000000e+00
3.455814e+03,0.000000e+00
3.456779e+03,0.000000e+00
3.457743e+03,0.000000e+00
3.458707e+03,0.000000e+00
3.459671e+03,0.000000e+00
3.460635e+03,0.000000e+00
3.461600e+03,0.000000e+00
3.462564e+03,0.000000e+00
3.463528e+03,0.000000e+00
3.464492e+03,0.000000e+00
3.465457e+03,0.000000e+00
3.466421e+03,0.000000e+00
3.467385e+03,0.000000e+00
3.468349e+03,0.000000e+00
3.469313e+03,0.000000e+00
3.470278e+03,0.000000e+00
3.471242e+03,0.000000e+00
3.472206e+03,0.000000e+00
3.473170e+03,0.000000e+00
3.474135e+03,0.000000e+00
3.475099e+03,0.000000e+00
3.476063e+03,0.000000e+00
3.477027e+03,0.000000e+00
3.477992e+03,0.000000e+00
3.478956e+03,0.000000e+00
3.479920e+03,0.000000e+00
3.480884e+03,0.000000e+00
3.481849e+03,0.000000e+00
3.482813e+03,0.000000e+00
3.483777e+03,0.000000e+00
3.484741e+03,0.000000e+00
3.485706e+03,0.000000e+00
3.486670e+03,0.000000e+00
3.487634e+03,0.000000e+00
3.488598e+03,0.000000e+00
3.489563e+03,0.000000e+00
3.490527e+03,0.000000e+00
3.491491e+03,0.000000e+00
3.492455e+03,0.000000e+00
3.493419e+03,0.000000e+00
3.494384e+03,0.000000e+00
3.495348e+03,0.000000e+00
3.496312e+03,0.000000e+00
3.497276e+03,0.000000e+00
3.498240e+03,0.000000e+00
3.499205e+03,0.000000e+00
3.500169e+03,0.000000e+00
