9.931763e+01,0.000000e+00
1.002819e+02,0.000000e+00
1.012461e+02,0.000000e+00
1.022103e+02,0.000000e+00
1.031746e+02,0.000000e+00
1.041388e+02,0.000000e+00
1.051030e+02,0.000000e+00
1.060673e+02,0.000000e+00
1.070315e+02,0.000000e+00
1.079957e+02,0.000000e+00
1.089600e+02,0.000000e+00
1.099242e+02,0.000000e+00
1.108884e+02,0.000000e+00
1.118527e+02,0.000000e+00
1.128169e+02,0.000000e+00
1.137811e+02,0.000000e+00
1.147454e+02,0.000000e+00
1.157096e+02,0.000000e+00
1.166738e+02,0.000000e+00
1.176381e+02,0.000000e+00
1.186023e+02,0.000000e+00
1.195665e+02,0.000000e+00
1.205308e+02,0.000000e+00
1.214950e+02,0.000000e+00
1.224592e+02,0.000000e+00
1.234235e+02,0.000000e+00
1.243877e+02,0.000000e+00
1.253519e+02,0.000000e+00
1.263162e+02,0.000000e+00
1.272804e+02,0.000000e+00
1.282446e+02,0.000000e+00
1.292089e+02,0.000000e+00
1.301731e+02,0.000000e+00
1.311373e+02,0.000000e+00
1.321016e+02,0.000000e+00
1.330658e+02,0.000000e+00
1.340300e+02,0.000000e+00
1.349943e+02,0.000000e+00
1.359585e+02,0.000000e+00
1.369227e+02,0.000000e+00
1.378870e+02,0.000000e+00
1.388512e+02,0.000000e+00
1.398154e+02,0.000000e+00
1.407797e+02,0.000000e+00
1.417439e+02,0.000000e+00
1.427081e+02,0.000000e+00
1.436724e+02,0.000000e+00
1.446366e+02,0.000000e+00
1.456008e+02,0.000000e+00
1.465651e+02,0.000000e+00
1.475293e+02,0.000000e+00
1.484935e+02,0.000000e+00
1.494578e+02,0.000000e+00
1.504220e+02,0.000000e+00
1.513862e+02,0.000000e+00
1.523505e+02,0.000000e+00
1.533147e+02,0.000000e+00
1.542789e+02,0.000000e+00
1.552432e+02,0.000000e+00
1.562074e+02,0.000000e+00
1.571716e+02,0.000000e+00
1.581359e+02,0.000000e+00
1.591001e+02,0.000000e+00
1.600643e+02,0.000000e+00
1.610286e+02,0.000000e+00
1.619928e+02,0.000000e+00
1.629570e+02,0.000000e+00
1.639213e+02,0.000000e+00
1.648855e+02,0.000000e+00
1.658497e+02,0.000000e+00
1.668140e+02,0.000000e+00
1.677782e+02,0.000000e+00
1.687424e+02,0.000000e+00
1.697067e+02,0.000000e+00
1.706709e+02,0.000000e+00
1.716351e+02,0.000000e+00
1.725994e+02,0.000000e+00
1.735636e+02,0.000000e+00
1.745278e+02,0.000000e+00
1.754921e+02,0.000000e+00
1.764563e+02,0.000000e+00
1.774205e+02,0.000000e+00
1.783848e+02,0.000000e+00
1.793490e+02,0.000000e+00
1.803132e+02,0.000000e+00
1.812775e+02,0.000000e+00
1.822417e+02,0.000000e+00
1.832059e+02,0.000000e+00
1.841702e+02,0.000000e+00
1.851344e+02,0.000000e+00
1.860986e+02,0.000000e+00
1.870629e+02,0.000000e+00
1.880271e+02,0.000000e+00
1.889913e+02,0.000000e+00
1.899556e+02,0.000000e+00
1.909198e+02,0.000000e+00
1.918840e+02,0.000000e+00
1.928483e+02,0.000000e+00
1.938125e+02,0.000000e+00
1.947767e+02,0.000000e+00
1.957410e+02,0.000000e+00
1.967052e+02,0.000000e+00
1.976694e+02,0.000000e+00
1.986337e+02,0.000000e+00
1.995979e+02,1.577647e+03
2.005621e+02,1.571724e+03
2.015264e+02,1.569032e+03
2.024906e+02,1.574135e+03
2.034548e+02,1.578704e+03
2.044191e+02,1.580079e+03
2.053833e+02,1.578332e+03
2.063475e+02,1.575452e+03
2.073118e+02,1.573545e+03
2.082760e+02,1.572945e+03
2.092402e+02,1.572386e+03
2.102045e+02,1.572761e+03
2.111687e+02,1.573702e+03
2.121329e+02,1.574777e+03
2.130972e+02,1.575547e+03
2.140614e+02,1.575704e+03
2.150256e+02,1.575039e+03
2.159899e+02,1.573068e+03
2.169541e+02,1.571355e+03
2.179183e+02,1.570230e+03
2.188826e+02,1.569727e+03
2.198468e+02,1.570478e+03
2.208110e+02,1.574195e+03
2.217753e+02,1.580518e+03
2.227395e+02,1.583717e+03
2.237037e+02,1.581688e+03
2.246680e+02,1.577625e+03
2.256322e+02,1.574047e+03
2.265964e+02,1.571657e+03
2.275607e+02,1.570592e+03
2.285249e+02,1.571211e+03
2.294892e+02,1.573800e+03
2.304534e+02,1.576859e+03
2.314176e+02,1.579185e+03
2.323819e+02,1.580505e+03
2.333461e+02,1.580132e+03
2.343103e+02,1.576410e+03
2.352746e+02,1.571377e+03
2.362388e+02,1.568485e+03
2.372030e+02,1.568405e+03
2.381673e+02,1.569674e+03
2.391315e+02,1.570633e+03
2.400957e+02,1.571986e+03
2.410600e+02,1.573627e+03
2.420242e+02,1.576314e+03
2.429884e+02,1.580055e+03
2.439527e+02,1.583651e+03
2.449169e+02,1.585568e+03
2.458811e+02,1.585184e+03
2.468454e+02,1.586364e+03
2.478096e+02,1.590018e+03
2.487738e+02,1.594551e+03
2.497381e+02,1.598971e+03
2.507023e+02,1.603092e+03
2.516665e+02,1.607123e+03
2.526308e+02,1.611324e+03
2.535950e+02,1.616726e+03
2.545592e+02,1.619444e+03
2.555235e+02,1.619307e+03
2.564877e+02,1.616990e+03
2.574519e+02,1.613371e+03
2.584161e+02,1.609116e+03
2.593804e+02,1.604412e+03
2.603446e+02,1.598878e+03
2.613088e+02,1.588455e+03
2.622731e+02,1.579816e+03
2.632373e+02,1.575748e+03
2.642015e+02,1.575459e+03
2.651658e+02,1.575852e+03
2.661300e+02,1.574332e+03
2.670942e+02,1.571021e+03
2.680585e+02,1.568054e+03
2.690227e+02,1.565464e+03
2.699869e+02,1.563372e+03
2.709512e+02,1.561927e+03
2.719154e+02,1.561966e+03
2.728796e+02,1.562742e+03
2.738439e+02,1.562739e+03
2.748081e+02,1.561784e+03
2.757723e+02,1.562473e+03
2.767366e+02,1.566738e+03
2.777008e+02,1.572864e+03
2.786650e+02,1.576812e+03
2.796293e+02,1.575571e+03
2.805935e+02,1.572301e+03
2.815577e+02,1.572703e+03
2.825220e+02,1.578679e+03
2.834862e+02,1.586435e+03
2.844504e+02,1.589309e+03
2.854147e+02,1.586359e+03
2.863789e+02,1.581961e+03
2.873431e+02,1.575973e+03
2.883074e+02,1.569818e+03
2.892716e+02,1.566406e+03
2.902358e+02,1.567700e+03
2.912001e+02,1.573529e+03
2.921643e+02,1.574852e+03
2.931285e+02,1.568218e+03
2.940928e+02,1.561455e+03
2.950570e+02,1.557359e+03
2.960212e+02,1.555938e+03
2.969855e+02,1.556068e+03
2.979497e+02,1.557288e+03
2.989139e+02,1.561215e+03
2.998782e+02,1.563068e+03
3.008424e+02,1.562523e+03
3.018066e+02,1.561117e+03
3.027709e+02,1.559201e+03
3.037351e+02,1.556484e+03
3.046993e+02,1.553430e+03
3.056636e+02,1.551148e+03
3.066278e+02,1.549796e+03
3.075920e+02,1.549691e+03
3.085563e+02,1.551912e+03
3.095205e+02,1.555834e+03
3.104847e+02,1.559280e+03
3.114490e+02,1.560971e+03
3.124132e+02,1.560977e+03
3.133774e+02,1.559445e+03
3.143417e+02,1.555710e+03
3.153059e+02,1.551272e+03
3.162701e+02,1.548971e+03
3.172344e+02,1.550086e+03
3.181986e+02,1.550985e+03
3.191628e+02,1.550194e+03
3.201271e+02,1.548571e+03
3.210913e+02,1.547562e+03
3.220555e+02,1.547693e+03
3.230198e+02,1.548769e+03
3.239840e+02,1.550279e+03
3.249482e+02,1.552937e+03
3.259125e+02,1.555108e+03
3.268767e+02,1.556101e+03
3.278409e+02,1.556194e+03
3.288052e+02,1.556145e+03
3.297694e+02,1.556834e+03
3.307336e+02,1.558648e+03
3.316979e+02,1.558861e+03
3.326621e+02,1.556244e+03
3.336263e+02,1.552460e+03
3.345906e+02,1.547828e+03
3.355548e+02,1.542776e+03
3.365190e+02,1.539216e+03
3.374833e+02,1.539854e+03
3.384475e+02,1.545109e+03
3.394117e+02,1.549548e+03
3.403760e+02,1.550692e+03
3.413402e+02,1.549318e+03
3.423044e+02,1.547098e+03
3.432687e+02,1.541741e+03
3.442329e+02,1.536980e+03
3.451971e+02,1.536937e+03
3.461614e+02,1.541309e+03
3.471256e+02,1.545437e+03
3.480898e+02,1.545896e+03
3.490541e+02,1.541583e+03
3.500183e+02,1.538718e+03
3.509825e+02,1.539381e+03
3.519468e+02,1.541055e+03
3.529110e+02,1.541352e+03
3.538752e+02,1.539356e+03
3.548395e+02,1.535791e+03
3.558037e+02,1.532042e+03
3.567680e+02,1.526270e+03
3.577322e+02,1.523763e+03
3.586964e+02,1.527517e+03
3.596607e+02,1.534318e+03
3.606249e+02,1.540409e+03
3.615891e+02,1.544097e+03
3.625534e+02,1.544604e+03
3.635176e+02,1.540071e+03
3.644818e+02,1.528308e+03
3.654461e+02,1.517970e+03
3.664103e+02,1.516698e+03
3.673745e+02,1.523453e+03
3.683388e+02,1.529297e+03
3.693030e+02,1.528670e+03
3.702672e+02,1.525010e+03
3.712315e+02,1.524250e+03
3.721957e+02,1.527758e+03
3.731599e+02,1.532623e+03
3.741242e+02,1.534921e+03
3.750884e+02,1.534291e+03
3.760526e+02,1.533176e+03
3.770169e+02,1.530264e+03
3.779811e+02,1.526954e+03
3.789453e+02,1.525052e+03
3.799096e+02,1.525464e+03
3.808738e+02,1.527373e+03
3.818380e+02,1.528149e+03
3.828023e+02,1.527891e+03
3.837665e+02,1.527695e+03
3.847307e+02,1.527185e+03
3.856950e+02,1.526689e+03
3.866592e+02,1.526914e+03
3.876234e+02,1.528513e+03
3.885877e+02,1.531035e+03
3.895519e+02,1.533590e+03
3.905161e+02,1.536490e+03
3.914804e+02,1.538178e+03
3.924446e+02,1.536692e+03
3.934088e+02,1.531959e+03
3.943731e+02,1.526978e+03
3.953373e+02,1.521557e+03
3.963015e+02,1.516442e+03
3.972658e+02,1.512808e+03
3.982300e+02,1.511305e+03
3.991942e+02,1.511930e+03
4.001585e+02,1.513504e+03
4.011227e+02,1.517859e+03
4.020869e+02,1.519840e+03
4.030512e+02,1.515789e+03
4.040154e+02,1.508774e+03
4.049796e+02,1.503883e+03
4.059439e+02,1.504660e+03
4.069081e+02,1.509683e+03
4.078723e+02,1.514193e+03
4.088366e+02,1.518274e+03
4.098008e+02,1.520474e+03
4.107650e+02,1.519806e+03
4.117293e+02,1.516722e+03
4.126935e+02,1.514585e+03
4.136577e+02,1.515303e+03
4.146220e+02,1.517391e+03
4.155862e+02,1.518925e+03
4.165504e+02,1.519584e+03
4.175147e+02,1.519413e+03
4.184789e+02,1.518367e+03
4.194431e+02,1.514282e+03
4.204074e+02,1.511848e+03
4.213716e+02,1.512150e+03
4.223358e+02,1.513707e+03
4.233001e+02,1.515285e+03
4.242643e+02,1.516697e+03
4.252285e+02,1.517447e+03
4.261928e+02,1.515490e+03
4.271570e+02,1.509061e+03
4.281212e+02,1.504292e+03
4.290855e+02,1.505424e+03
4.300497e+02,1.509871e+03
4.310139e+02,1.512128e+03
4.319782e+02,1.507646e+03
4.329424e+02,1.501895e+03
4.339066e+02,1.501785e+03
4.348709e+02,1.507721e+03
4.358351e+02,1.514694e+03
4.367993e+02,1.518168e+03
4.377636e+02,1.517273e+03
4.387278e+02,1.514821e+03
4.396920e+02,1.509078e+03
4.406563e+02,1.503358e+03
4.416205e+02,1.499961e+03
4.425847e+02,1.499375e+03
4.435490e+02,1.500079e+03
4.445132e+02,1.500569e+03
4.454774e+02,1.501258e+03
4.464417e+02,1.500776e+03
4.474059e+02,1.496607e+03
4.483701e+02,1.491416e+03
4.493344e+02,1.488863e+03
4.502986e+02,1.491348e+03
4.512628e+02,1.495402e+03
4.522271e+02,1.499282e+03
4.531913e+02,1.502842e+03
4.541555e+02,1.505584e+03
4.551198e+02,1.507347e+03
4.560840e+02,1.508205e+03
4.570482e+02,1.505979e+03
4.580125e+02,1.497898e+03
4.589767e+02,1.490784e+03
4.599409e+02,1.486157e+03
4.609052e+02,1.483762e+03
4.618694e+02,1.483022e+03
4.628336e+02,1.484687e+03
4.637979e+02,1.488500e+03
4.647621e+02,1.490957e+03
4.657263e+02,1.491785e+03
4.666906e+02,1.492256e+03
4.676548e+02,1.493164e+03
4.686190e+02,1.494658e+03
4.695833e+02,1.495128e+03
4.705475e+02,1.493063e+03
4.715117e+02,1.489696e+03
4.724760e+02,1.486705e+03
4.734402e+02,1.484680e+03
4.744044e+02,1.483884e+03
4.753687e+02,1.484870e+03
4.763329e+02,1.488800e+03
4.772971e+02,1.492897e+03
4.782614e+02,1.497173e+03
4.792256e+02,1.501353e+03
4.801898e+02,1.504845e+03
4.811541e+02,1.506230e+03
4.821183e+02,1.507375e+03
4.830826e+02,1.512591e+03
4.840468e+02,1.522167e+03
4.850110e+02,1.528533e+03
4.859753e+02,1.526480e+03
4.869395e+02,1.515198e+03
4.879037e+02,1.506100e+03
4.888680e+02,1.499189e+03
4.898322e+02,1.494595e+03
4.907964e+02,1.494309e+03
4.917607e+02,1.497395e+03
4.927249e+02,1.499545e+03
4.936891e+02,1.495085e+03
4.946534e+02,1.483320e+03
4.956176e+02,1.476104e+03
4.965818e+02,1.476303e+03
4.975461e+02,1.479279e+03
4.985103e+02,1.480990e+03
4.994745e+02,1.481000e+03
5.004388e+02,1.480045e+03
5.014030e+02,1.478984e+03
5.023672e+02,1.477571e+03
5.033315e+02,1.474731e+03
5.042957e+02,1.469881e+03
5.052599e+02,1.464133e+03
5.062242e+02,1.460319e+03
5.071884e+02,1.459280e+03
5.081526e+02,1.459694e+03
5.091169e+02,1.463656e+03
5.100811e+02,1.468470e+03
5.110453e+02,1.470447e+03
5.120095e+02,1.466513e+03
5.129738e+02,1.461452e+03
5.139380e+02,1.462116e+03
5.149022e+02,1.468452e+03
5.158665e+02,1.474345e+03
5.168307e+02,1.476088e+03
5.177949e+02,1.473020e+03
5.187592e+02,1.468974e+03
5.197234e+02,1.463836e+03
5.206876e+02,1.460166e+03
5.216519e+02,1.459990e+03
5.226161e+02,1.462490e+03
5.235803e+02,1.464873e+03
5.245446e+02,1.464675e+03
5.255088e+02,1.462241e+03
5.264730e+02,1.459835e+03
5.274373e+02,1.456833e+03
5.284015e+02,1.454932e+03
5.293657e+02,1.456316e+03
5.303300e+02,1.461611e+03
5.312942e+02,1.464826e+03
5.322584e+02,1.464005e+03
5.332227e+02,1.462088e+03
5.341869e+02,1.461455e+03
5.351511e+02,1.462322e+03
5.361154e+02,1.463539e+03
5.370796e+02,1.463793e+03
5.380438e+02,1.462995e+03
5.390081e+02,1.462525e+03
5.399723e+02,1.463783e+03
5.409365e+02,1.464950e+03
5.419008e+02,1.463328e+03
5.428650e+02,1.455434e+03
5.438292e+02,1.449925e+03
5.447935e+02,1.455168e+03
5.457577e+02,1.466142e+03
5.467219e+02,1.471688e+03
5.476862e+02,1.466693e+03
5.486504e+02,1.455079e+03
5.496146e+02,1.448913e+03
5.505789e+02,1.452395e+03
5.515431e+02,1.454783e+03
5.525073e+02,1.453887e+03
5.534716e+02,1.451514e+03
5.544358e+02,1.449509e+03
5.554000e+02,1.447798e+03
5.563643e+02,1.446324e+03
5.573285e+02,1.444682e+03
5.582927e+02,1.442891e+03
5.592570e+02,1.442215e+03
5.602212e+02,1.443803e+03
5.611854e+02,1.447515e+03
5.621497e+02,1.451128e+03
5.631139e+02,1.455320e+03
5.640781e+02,1.457967e+03
5.650424e+02,1.458634e+03
5.660066e+02,1.457675e+03
5.669708e+02,1.456010e+03
5.679351e+02,1.453176e+03
5.688993e+02,1.450507e+03
5.698635e+02,1.451168e+03
5.708278e+02,1.455786e+03
5.717920e+02,1.460428e+03
5.727562e+02,1.460887e+03
5.737205e+02,1.454821e+03
5.746847e+02,1.451245e+03
5.756489e+02,1.451700e+03
5.766132e+02,1.452744e+03
5.775774e+02,1.452189e+03
5.785416e+02,1.449941e+03
5.795059e+02,1.448633e+03
5.804701e+02,1.450784e+03
5.814343e+02,1.455567e+03
5.823986e+02,1.460715e+03
5.833628e+02,1.466201e+03
5.843270e+02,1.471226e+03
5.852913e+02,1.474497e+03
5.862555e+02,1.473022e+03
5.872197e+02,1.474398e+03
5.881840e+02,1.481810e+03
5.891482e+02,1.489854e+03
5.901124e+02,1.494408e+03
5.910767e+02,1.494256e+03
5.920409e+02,1.490810e+03
5.930051e+02,1.484098e+03
5.939694e+02,1.474554e+03
5.949336e+02,1.465099e+03
5.958978e+02,1.456161e+03
5.968621e+02,1.448516e+03
5.978263e+02,1.444015e+03
5.987905e+02,1.447212e+03
5.997548e+02,1.448704e+03
6.007190e+02,1.447033e+03
6.016832e+02,1.443841e+03
6.026475e+02,1.440605e+03
6.036117e+02,1.437180e+03
6.045759e+02,1.434258e+03
6.055402e+02,1.432247e+03
6.065044e+02,1.431065e+03
6.074686e+02,1.432090e+03
6.084329e+02,1.437004e+03
6.093971e+02,1.444687e+03
6.103613e+02,1.448887e+03
6.113256e+02,1.446773e+03
6.122899e+02,1.444181e+03
6.132541e+02,1.442289e+03
6.142183e+02,1.440512e+03
6.151826e+02,1.437846e+03
6.161468e+02,1.432727e+03
6.171110e+02,1.427828e+03
6.180753e+02,1.426673e+03
6.190395e+02,1.428799e+03
6.200037e+02,1.431089e+03
6.209680e+02,1.431628e+03
6.219322e+02,1.430705e+03
6.228964e+02,1.430252e+03
6.238607e+02,1.430666e+03
6.248249e+02,1.430893e+03
6.257891e+02,1.430435e+03
6.267534e+02,1.428933e+03
6.277176e+02,1.426397e+03
6.286818e+02,1.422057e+03
6.296461e+02,1.417904e+03
6.306103e+02,1.416140e+03
6.315745e+02,1.416764e+03
6.325388e+02,1.418435e+03
6.335030e+02,1.419914e+03
6.344672e+02,1.420963e+03
6.354315e+02,1.422625e+03
6.363957e+02,1.425424e+03
6.373599e+02,1.427508e+03
6.383242e+02,1.428645e+03
6.392884e+02,1.428969e+03
6.402526e+02,1.428000e+03
6.412169e+02,1.423845e+03
6.421811e+02,1.419301e+03
6.431453e+02,1.417241e+03
6.441096e+02,1.417632e+03
6.450738e+02,1.418621e+03
6.460380e+02,1.418819e+03
6.470023e+02,1.418512e+03
6.479665e+02,1.418150e+03
6.489307e+02,1.416768e+03
6.498950e+02,1.415883e+03
6.508592e+02,1.417095e+03
6.518234e+02,1.420494e+03
6.527877e+02,1.422516e+03
6.537519e+02,1.421856e+03
6.547161e+02,1.420401e+03
6.556804e+02,1.419535e+03
6.566446e+02,1.419467e+03
6.576088e+02,1.419555e+03
6.585731e+02,1.419154e+03
6.595373e+02,1.418334e+03
6.605015e+02,1.417558e+03
6.614658e+02,1.416893e+03
6.624300e+02,1.416277e+03
6.633942e+02,1.415522e+03
6.643585e+02,1.414006e+03
6.653227e+02,1.413835e+03
6.662869e+02,1.413212e+03
6.672512e+02,1.414768e+03
6.682154e+02,1.420324e+03
6.691796e+02,1.429933e+03
6.701439e+02,1.442121e+03
6.711081e+02,1.453722e+03
6.720723e+02,1.467459e+03
6.730366e+02,1.491464e+03
6.740008e+02,1.527664e+03
6.749650e+02,1.566659e+03
6.759293e+02,1.599500e+03
6.768935e+02,1.629550e+03
6.778577e+02,1.643839e+03
6.788220e+02,1.636834e+03
6.797862e+02,1.618383e+03
6.807504e+02,1.590940e+03
6.817147e+02,1.551459e+03
6.826789e+02,1.518379e+03
6.836431e+02,1.500592e+03
6.846074e+02,1.491165e+03
6.855716e+02,1.483760e+03
6.865358e+02,1.477277e+03
6.875001e+02,1.472216e+03
6.884643e+02,1.470021e+03
6.894285e+02,1.470705e+03
6.903928e+02,1.469031e+03
6.913570e+02,1.463761e+03
6.923212e+02,1.456592e+03
6.932855e+02,1.449446e+03
6.942497e+02,1.443009e+03
6.952139e+02,1.436495e+03
6.961782e+02,1.428747e+03
6.971424e+02,1.421313e+03
6.981066e+02,1.414304e+03
6.990709e+02,1.407290e+03
7.000351e+02,1.402409e+03
7.009993e+02,1.404845e+03
7.019636e+02,1.411276e+03
7.029278e+02,1.412851e+03
7.038920e+02,1.407720e+03
7.048563e+02,1.400145e+03
7.058205e+02,1.395691e+03
7.067847e+02,1.395686e+03
7.077490e+02,1.396212e+03
7.087132e+02,1.397590e+03
7.096774e+02,1.400429e+03
7.106417e+02,1.404598e+03
7.116059e+02,1.410639e+03
7.125701e+02,1.414187e+03
7.135344e+02,1.412850e+03
7.144986e+02,1.409775e+03
7.154628e+02,1.407254e+03
7.164271e+02,1.405598e+03
7.173913e+02,1.404414e+03
7.183555e+02,1.403645e+03
7.193198e+02,1.403088e+03
7.202840e+02,1.402212e+03
7.212482e+02,1.401332e+03
7.222125e+02,1.399630e+03
7.231767e+02,1.395430e+03
7.241409e+02,1.385651e+03
7.251052e+02,1.380871e+03
7.260694e+02,1.385336e+03
7.270336e+02,1.391267e+03
7.279979e+02,1.395265e+03
7.289621e+02,1.396967e+03
7.299263e+02,1.397043e+03
7.308906e+02,1.393676e+03
7.318548e+02,1.389695e+03
7.328190e+02,1.388270e+03
7.337833e+02,1.389754e+03
7.347475e+02,1.392831e+03
7.357117e+02,1.394315e+03
7.366760e+02,1.395365e+03
7.376402e+02,1.404579e+03
7.386044e+02,1.420711e+03
7.395687e+02,1.450243e+03
7.405329e+02,1.500875e+03
7.414971e+02,1.579786e+03
7.424614e+02,1.649365e+03
7.434256e+02,1.725693e+03
7.443898e+02,1.781351e+03
7.453541e+02,1.801052e+03
7.463183e+02,1.784431e+03
7.472825e+02,1.745364e+03
7.482468e+02,1.673840e+03
7.492110e+02,1.593111e+03
7.501752e+02,1.525146e+03
7.511395e+02,1.472316e+03
7.521037e+02,1.432456e+03
7.530679e+02,1.404941e+03
7.540322e+02,1.388508e+03
7.549964e+02,1.378343e+03
7.559606e+02,1.375901e+03
7.569249e+02,1.375925e+03
7.578891e+02,1.375312e+03
7.588533e+02,1.374107e+03
7.598176e+02,1.374576e+03
7.607818e+02,1.377660e+03
7.617460e+02,1.379181e+03
7.627103e+02,1.376518e+03
7.636745e+02,1.371852e+03
7.646387e+02,1.370443e+03
7.656030e+02,1.377606e+03
7.665672e+02,1.386238e+03
7.675314e+02,1.389365e+03
7.684957e+02,1.387377e+03
7.694599e+02,1.384507e+03
7.704241e+02,1.384126e+03
7.713884e+02,1.385931e+03
7.723526e+02,1.387854e+03
7.733168e+02,1.390200e+03
7.742811e+02,1.393083e+03
7.752453e+02,1.396050e+03
7.762095e+02,1.398474e+03
7.771738e+02,1.399558e+03
7.781380e+02,1.398740e+03
7.791022e+02,1.396085e+03
7.800665e+02,1.391836e+03
7.810307e+02,1.386461e+03
7.819949e+02,1.380541e+03
7.829592e+02,1.373041e+03
7.839234e+02,1.367135e+03
7.848876e+02,1.365646e+03
7.858519e+02,1.366092e+03
7.868161e+02,1.364000e+03
7.877803e+02,1.356579e+03
7.887446e+02,1.348719e+03
7.897088e+02,1.349234e+03
7.906730e+02,1.357314e+03
7.916373e+02,1.363630e+03
7.926015e+02,1.364566e+03
7.935657e+02,1.361284e+03
7.945300e+02,1.357629e+03
7.954942e+02,1.353988e+03
7.964584e+02,1.350534e+03
7.974227e+02,1.348873e+03
7.983869e+02,1.348539e+03
7.993511e+02,1.347262e+03
8.003154e+02,1.342900e+03
8.012796e+02,1.339089e+03
8.022438e+02,1.336219e+03
8.032081e+02,1.335354e+03
8.041723e+02,1.337916e+03
8.051365e+02,1.344131e+03
8.061008e+02,1.350541e+03
8.070650e+02,1.355838e+03
8.080292e+02,1.358764e+03
8.089935e+02,1.356852e+03
8.099577e+02,1.350248e+03
8.109219e+02,1.342675e+03
8.118862e+02,1.337514e+03
8.128504e+02,1.334727e+03
8.138146e+02,1.333472e+03
8.147789e+02,1.333782e+03
8.157431e+02,1.334619e+03
8.167073e+02,1.335409e+03
8.176716e+02,1.336664e+03
8.186358e+02,1.339095e+03
8.196000e+02,1.344631e+03
8.205643e+02,1.349350e+03
8.215285e+02,1.350117e+03
8.224927e+02,1.347446e+03
8.234570e+02,1.346267e+03
8.244212e+02,1.349080e+03
8.253854e+02,1.352732e+03
8.263497e+02,1.354849e+03
8.273139e+02,1.355536e+03
8.282781e+02,1.356436e+03
8.292424e+02,1.359689e+03
8.302066e+02,1.364135e+03
8.311708e+02,1.367522e+03
8.321351e+02,1.370056e+03
8.330993e+02,1.373063e+03
8.340635e+02,1.377474e+03
8.350278e+02,1.381760e+03
8.359920e+02,1.380780e+03
8.369562e+02,1.373307e+03
8.379205e+02,1.367434e+03
8.388847e+02,1.366313e+03
8.398489e+02,1.368178e+03
8.408132e+02,1.368232e+03
8.417774e+02,1.364128e+03
8.427416e+02,1.361093e+03
8.437059e+02,1.361583e+03
8.446701e+02,1.362464e+03
8.456343e+02,1.360269e+03
8.465986e+02,1.352439e+03
8.475628e+02,1.345375e+03
8.485270e+02,1.340676e+03
8.494913e+02,1.338013e+03
8.504555e+02,1.338080e+03
8.514197e+02,1.341276e+03
8.523840e+02,1.343983e+03
8.533482e+02,1.341113e+03
8.543124e+02,1.335775e+03
8.552767e+02,1.334633e+03
8.562409e+02,1.338401e+03
8.572051e+02,1.342985e+03
8.581694e+02,1.344905e+03
8.591336e+02,1.344439e+03
8.600978e+02,1.342106e+03
8.610621e+02,1.337713e+03
8.620263e+02,1.333528e+03
8.629905e+02,1.330918e+03
8.639548e+02,1.329497e+03
8.649190e+02,1.327292e+03
8.658832e+02,1.323169e+03
8.668475e+02,1.321072e+03
8.678117e+02,1.324782e+03
8.687759e+02,1.332602e+03
8.697402e+02,1.336256e+03
8.707044e+02,1.329838e+03
8.716686e+02,1.323545e+03
8.726329e+02,1.322082e+03
8.735971e+02,1.324036e+03
8.745613e+02,1.326070e+03
8.755256e+02,1.328199e+03
8.764898e+02,1.329513e+03
8.774540e+02,1.326771e+03
8.784183e+02,1.322774e+03
8.793825e+02,1.323503e+03
8.803467e+02,1.332107e+03
8.813110e+02,1.341757e+03
8.822752e+02,1.344240e+03
8.832394e+02,1.341061e+03
8.842037e+02,1.335879e+03
8.851679e+02,1.328988e+03
8.861321e+02,1.321944e+03
8.870964e+02,1.317112e+03
8.880606e+02,1.314474e+03
8.890248e+02,1.312920e+03
8.899891e+02,1.313216e+03
8.909533e+02,1.314193e+03
8.919175e+02,1.314221e+03
8.928818e+02,1.312587e+03
8.938460e+02,1.313302e+03
8.948102e+02,1.319291e+03
8.957745e+02,1.323796e+03
8.967387e+02,1.321631e+03
8.977029e+02,1.312922e+03
8.986672e+02,1.307687e+03
8.996314e+02,1.311139e+03
9.005956e+02,1.315163e+03
9.015599e+02,1.315371e+03
9.025241e+02,1.312995e+03
9.034883e+02,1.312161e+03
9.044526e+02,1.317868e+03
9.054168e+02,1.321576e+03
9.063810e+02,1.316590e+03
9.073453e+02,1.307572e+03
9.083095e+02,1.301798e+03
9.092737e+02,1.302380e+03
9.102380e+02,1.305355e+03
9.112022e+02,1.307880e+03
9.121664e+02,1.309388e+03
9.131307e+02,1.308007e+03
9.140949e+02,1.303428e+03
9.150591e+02,1.299308e+03
9.160234e+02,1.300689e+03
9.169876e+02,1.306085e+03
9.179518e+02,1.308268e+03
9.189161e+02,1.305908e+03
9.198803e+02,1.302445e+03
9.208445e+02,1.301989e+03
9.218088e+02,1.305348e+03
9.227730e+02,1.308834e+03
9.237372e+02,1.312606e+03
9.247015e+02,1.315261e+03
9.256657e+02,1.315779e+03
9.266299e+02,1.313989e+03
9.275942e+02,1.312145e+03
9.285584e+02,1.309359e+03
9.295226e+02,1.307014e+03
9.304869e+02,1.306590e+03
9.314511e+02,1.307448e+03
9.324153e+02,1.306824e+03
9.333796e+02,1.300555e+03
9.343438e+02,1.297229e+03
9.353080e+02,1.302524e+03
9.362723e+02,1.310422e+03
9.372365e+02,1.312783e+03
9.382007e+02,1.305147e+03
9.391650e+02,1.297680e+03
9.401292e+02,1.293725e+03
9.410934e+02,1.292852e+03
9.420577e+02,1.295021e+03
9.430219e+02,1.300278e+03
9.439861e+02,1.305381e+03
9.449504e+02,1.307541e+03
9.459146e+02,1.309311e+03
9.468788e+02,1.313878e+03
9.478431e+02,1.320632e+03
9.488073e+02,1.326532e+03
9.497715e+02,1.330968e+03
9.507358e+02,1.333219e+03
9.517000e+02,1.330268e+03
9.526642e+02,1.322891e+03
9.536285e+02,1.314998e+03
9.545927e+02,1.308209e+03
9.555569e+02,1.302946e+03
9.565212e+02,1.301838e+03
9.574854e+02,1.305479e+03
9.584496e+02,1.308014e+03
9.594139e+02,1.306465e+03
9.603781e+02,1.301814e+03
9.613423e+02,1.297094e+03
9.623066e+02,1.292051e+03
9.632708e+02,1.288455e+03
9.642350e+02,1.286882e+03
9.651993e+02,1.287305e+03
9.661635e+02,1.289661e+03
9.671277e+02,1.295719e+03
9.680920e+02,1.298126e+03
9.690562e+02,1.294242e+03
9.700204e+02,1.289241e+03
9.709847e+02,1.287578e+03
9.719489e+02,1.290509e+03
9.729131e+02,1.292329e+03
9.738774e+02,1.293113e+03
9.748416e+02,1.293403e+03
9.758058e+02,1.292095e+03
9.767701e+02,1.289385e+03
9.777343e+02,1.288274e+03
9.786985e+02,1.292210e+03
9.796628e+02,1.294169e+03
9.806270e+02,1.289904e+03
9.815912e+02,1.282662e+03
9.825555e+02,1.277994e+03
9.835197e+02,1.278972e+03
9.844839e+02,1.281635e+03
9.854482e+02,1.286427e+03
9.864124e+02,1.291260e+03
9.873766e+02,1.293020e+03
9.883409e+02,1.290737e+03
9.893051e+02,1.288157e+03
9.902693e+02,1.287769e+03
9.912336e+02,1.288270e+03
9.921978e+02,1.287293e+03
9.931620e+02,1.284533e+03
9.941263e+02,1.282559e+03
9.950905e+02,1.283052e+03
9.960547e+02,1.285692e+03
9.970190e+02,1.291518e+03
9.979832e+02,1.299270e+03
9.989474e+02,1.304812e+03
9.999117e+02,1.305410e+03
1.000876e+03,1.304018e+03
1.001840e+03,1.304833e+03
1.002804e+03,1.307623e+03
1.003769e+03,1.310770e+03
1.004733e+03,1.313443e+03
1.005697e+03,1.315155e+03
1.006661e+03,1.315429e+03
1.007626e+03,1.314436e+03
1.008590e+03,1.312449e+03
1.009554e+03,1.309214e+03
1.010518e+03,1.304701e+03
1.011482e+03,1.298423e+03
1.012447e+03,1.290802e+03
1.013411e+03,1.285648e+03
1.014375e+03,1.283842e+03
1.015339e+03,1.283186e+03
1.016304e+03,1.281552e+03
1.017268e+03,1.279282e+03
1.018232e+03,1.279807e+03
1.019196e+03,1.283494e+03
1.020161e+03,1.285501e+03
1.021125e+03,1.283705e+03
1.022089e+03,1.280080e+03
1.023053e+03,1.279031e+03
1.024018e+03,1.280669e+03
1.024982e+03,1.281854e+03
1.025946e+03,1.281613e+03
1.026910e+03,1.280434e+03
1.027875e+03,1.279699e+03
1.028839e+03,1.280191e+03
1.029803e+03,1.280986e+03
1.030767e+03,1.282606e+03
1.031731e+03,1.283667e+03
1.032696e+03,1.282590e+03
1.033660e+03,1.279103e+03
1.034624e+03,1.277099e+03
1.035588e+03,1.277370e+03
1.036552e+03,1.278727e+03
1.037517e+03,1.280919e+03
1.038481e+03,1.283198e+03
1.039445e+03,1.284059e+03
1.040409e+03,1.282432e+03
1.041374e+03,1.281351e+03
1.042338e+03,1.283162e+03
1.043302e+03,1.285212e+03
1.044266e+03,1.283438e+03
1.045231e+03,1.273155e+03
1.046195e+03,1.267236e+03
1.047159e+03,1.269824e+03
1.048123e+03,1.273741e+03
1.049088e+03,1.273105e+03
1.050052e+03,1.267033e+03
1.051016e+03,1.266863e+03
1.051980e+03,1.279200e+03
1.052945e+03,1.290322e+03
1.053909e+03,1.293449e+03
1.054873e+03,1.290134e+03
1.055837e+03,1.288651e+03
1.056802e+03,1.291776e+03
1.057766e+03,1.294806e+03
1.058730e+03,1.299121e+03
1.059694e+03,1.302189e+03
1.060658e+03,1.300166e+03
1.061623e+03,1.287843e+03
1.062587e+03,1.280417e+03
1.063551e+03,1.283922e+03
1.064515e+03,1.289642e+03
1.065479e+03,1.290998e+03
1.066444e+03,1.287473e+03
1.067408e+03,1.285494e+03
1.068372e+03,1.288225e+03
1.069336e+03,1.290436e+03
1.070301e+03,1.288334e+03
1.071265e+03,1.282979e+03
1.072229e+03,1.279047e+03
1.073193e+03,1.277349e+03
1.074158e+03,1.277077e+03
1.075122e+03,1.280258e+03
1.076086e+03,1.283768e+03
1.077050e+03,1.283655e+03
1.078015e+03,1.277297e+03
1.078979e+03,1.274223e+03
1.079943e+03,1.278567e+03
1.080907e+03,1.284698e+03
1.081872e+03,1.288496e+03
1.082836e+03,1.289239e+03
1.083800e+03,1.289323e+03
1.084764e+03,1.290448e+03
1.085729e+03,1.290494e+03
1.086693e+03,1.286990e+03
1.087657e+03,1.281416e+03
1.088621e+03,1.277934e+03
1.089585e+03,1.278220e+03
1.090550e+03,1.279036e+03
1.091514e+03,1.281662e+03
1.092478e+03,1.284327e+03
1.093442e+03,1.284426e+03
1.094406e+03,1.280225e+03
1.095371e+03,1.278117e+03
1.096335e+03,1.279879e+03
1.097299e+03,1.283190e+03
1.098263e+03,1.286809e+03
1.099228e+03,1.290510e+03
1.100192e+03,1.294536e+03
1.101156e+03,1.300198e+03
1.102120e+03,1.304589e+03
1.103085e+03,1.306531e+03
1.104049e+03,1.306618e+03
1.105013e+03,1.306065e+03
1.105977e+03,1.305900e+03
1.106942e+03,1.304238e+03
1.107906e+03,1.299336e+03
1.108870e+03,1.293872e+03
1.109834e+03,1.290207e+03
1.110799e+03,1.288813e+03
1.111763e+03,1.288088e+03
1.112727e+03,1.289211e+03
1.113691e+03,1.290082e+03
1.114656e+03,1.288603e+03
1.115620e+03,1.285302e+03
1.116584e+03,1.284288e+03
1.117548e+03,1.286162e+03
1.118512e+03,1.288869e+03
1.119477e+03,1.293200e+03
1.120441e+03,1.297791e+03
1.121405e+03,1.300735e+03
1.122369e+03,1.300361e+03
1.123334e+03,1.301000e+03
1.124298e+03,1.305240e+03
1.125262e+03,1.308653e+03
1.126226e+03,1.306791e+03
1.127191e+03,1.298434e+03
1.128155e+03,1.297019e+03
1.129119e+03,1.307706e+03
1.130083e+03,1.317553e+03
1.131047e+03,1.320162e+03
1.132012e+03,1.318201e+03
1.132976e+03,1.321081e+03
1.133940e+03,1.327713e+03
1.134904e+03,1.341586e+03
1.135869e+03,1.366251e+03
1.136833e+03,1.395776e+03
1.137797e+03,1.424856e+03
1.138761e+03,1.456939e+03
1.139726e+03,1.477641e+03
1.140690e+03,1.487418e+03
1.141654e+03,1.483757e+03
1.142618e+03,1.462497e+03
1.143583e+03,1.426010e+03
1.144547e+03,1.390508e+03
1.145511e+03,1.354126e+03
1.146475e+03,1.325991e+03
1.147439e+03,1.309526e+03
1.148404e+03,1.301527e+03
1.149368e+03,1.296226e+03
1.150332e+03,1.293456e+03
1.151296e+03,1.294172e+03
1.152261e+03,1.298570e+03
1.153225e+03,1.302531e+03
1.154189e+03,1.303126e+03
1.155153e+03,1.301307e+03
1.156118e+03,1.301310e+03
1.157082e+03,1.303632e+03
1.158046e+03,1.305004e+03
1.159010e+03,1.303207e+03
1.159974e+03,1.299651e+03
1.160939e+03,1.297289e+03
1.161903e+03,1.295677e+03
1.162867e+03,1.293305e+03
1.163831e+03,1.289717e+03
1.164796e+03,1.286779e+03
1.165760e+03,1.288753e+03
1.166724e+03,1.293079e+03
1.167688e+03,1.291298e+03
1.168653e+03,1.283969e+03
1.169617e+03,1.277094e+03
1.170581e+03,1.274794e+03
1.171545e+03,1.274853e+03
1.172510e+03,1.273529e+03
1.173474e+03,1.272068e+03
1.174438e+03,1.272997e+03
1.175402e+03,1.276935e+03
1.176366e+03,1.282894e+03
1.177331e+03,1.290859e+03
1.178295e+03,1.300124e+03
1.179259e+03,1.310559e+03
1.180223e+03,1.321321e+03
1.181188e+03,1.329700e+03
1.182152e+03,1.335955e+03
1.183116e+03,1.337710e+03
1.184080e+03,1.331214e+03
1.185045e+03,1.320164e+03
1.186009e+03,1.310305e+03
1.186973e+03,1.303281e+03
1.187937e+03,1.298877e+03
1.188901e+03,1.297880e+03
1.189866e+03,1.298459e+03
1.190830e+03,1.299501e+03
1.191794e+03,1.300613e+03
1.192758e+03,1.299897e+03
1.193723e+03,1.295411e+03
1.194687e+03,1.291771e+03
1.195651e+03,1.290688e+03
1.196615e+03,1.291453e+03
1.197580e+03,1.292288e+03
1.198544e+03,1.292875e+03
1.199508e+03,1.292081e+03
1.200472e+03,1.290298e+03
1.201437e+03,1.287927e+03
1.202401e+03,1.285169e+03
1.203365e+03,1.282090e+03
1.204329e+03,1.280741e+03
1.205293e+03,1.281019e+03
1.206258e+03,1.282953e+03
1.207222e+03,1.286920e+03
1.208186e+03,1.291887e+03
1.209150e+03,1.295227e+03
1.210115e+03,1.296541e+03
1.211079e+03,1.295902e+03
1.212043e+03,1.293164e+03
1.213007e+03,1.289877e+03
1.213972e+03,1.288332e+03
1.214936e+03,1.288553e+03
1.215900e+03,1.288695e+03
1.216864e+03,1.288739e+03
1.217828e+03,1.288474e+03
1.218793e+03,1.287931e+03
1.219757e+03,1.286870e+03
1.220721e+03,1.284797e+03
1.221685e+03,1.281920e+03
1.222650e+03,1.277962e+03
1.223614e+03,1.272360e+03
1.224578e+03,1.266631e+03
1.225542e+03,1.262408e+03
1.226507e+03,1.259398e+03
1.227471e+03,1.256063e+03
1.228435e+03,1.252807e+03
1.229399e+03,1.252501e+03
1.230364e+03,1.262130e+03
1.231328e+03,1.269628e+03
1.232292e+03,1.267391e+03
1.233256e+03,1.260713e+03
1.234220e+03,1.255320e+03
1.235185e+03,1.252238e+03
1.236149e+03,1.251764e+03
1.237113e+03,1.256844e+03
1.238077e+03,1.262244e+03
1.239042e+03,1.263750e+03
1.240006e+03,1.261323e+03
1.240970e+03,1.259676e+03
1.241934e+03,1.258418e+03
1.242899e+03,1.258849e+03
1.243863e+03,1.263338e+03
1.244827e+03,1.267952e+03
1.245791e+03,1.266190e+03
1.246755e+03,1.256110e+03
1.247720e+03,1.251366e+03
1.248684e+03,1.252988e+03
1.249648e+03,1.257221e+03
1.250612e+03,1.262753e+03
1.251577e+03,1.267854e+03
1.252541e+03,1.266054e+03
1.253505e+03,1.258126e+03
1.254469e+03,1.250741e+03
1.255434e+03,1.245866e+03
1.256398e+03,1.244011e+03
1.257362e+03,1.246541e+03
1.258326e+03,1.251532e+03
1.259291e+03,1.256647e+03
1.260255e+03,1.261203e+03
1.261219e+03,1.263984e+03
1.262183e+03,1.264748e+03
1.263147e+03,1.264427e+03
1.264112e+03,1.262253e+03
1.265076e+03,1.259723e+03
1.266040e+03,1.258846e+03
1.267004e+03,1.260433e+03
1.267969e+03,1.262825e+03
1.268933e+03,1.268454e+03
1.269897e+03,1.273199e+03
1.270861e+03,1.272607e+03
1.271826e+03,1.266345e+03
1.272790e+03,1.261504e+03
1.273754e+03,1.259135e+03
1.274718e+03,1.257356e+03
1.275682e+03,1.256231e+03
1.276647e+03,1.256218e+03
1.277611e+03,1.257911e+03
1.278575e+03,1.261571e+03
1.279539e+03,1.262745e+03
1.280504e+03,1.261485e+03
1.281468e+03,1.262461e+03
1.282432e+03,1.269125e+03
1.283396e+03,1.278226e+03
1.284361e+03,1.281043e+03
1.285325e+03,1.278741e+03
1.286289e+03,1.277032e+03
1.287253e+03,1.277214e+03
1.288218e+03,1.279172e+03
1.289182e+03,1.283905e+03
1.290146e+03,1.290034e+03
1.291110e+03,1.297326e+03
1.292074e+03,1.304847e+03
1.293039e+03,1.309422e+03
1.294003e+03,1.307163e+03
1.294967e+03,1.304019e+03
1.295931e+03,1.301702e+03
1.296896e+03,1.301014e+03
1.297860e+03,1.302771e+03
1.298824e+03,1.307381e+03
1.299788e+03,1.312117e+03
1.300753e+03,1.318647e+03
1.301717e+03,1.322148e+03
1.302681e+03,1.319083e+03
1.303645e+03,1.312546e+03
1.304609e+03,1.312908e+03
1.305574e+03,1.321635e+03
1.306538e+03,1.322202e+03
1.307502e+03,1.311775e+03
1.308466e+03,1.299884e+03
1.309431e+03,1.296404e+03
1.310395e+03,1.298574e+03
1.311359e+03,1.295716e+03
1.312323e+03,1.288703e+03
1.313288e+03,1.284435e+03
1.314252e+03,1.287532e+03
1.315216e+03,1.292574e+03
1.316180e+03,1.294240e+03
1.317145e+03,1.294271e+03
1.318109e+03,1.293304e+03
1.319073e+03,1.291275e+03
1.320037e+03,1.292106e+03
1.321001e+03,1.299926e+03
1.321966e+03,1.308093e+03
1.322930e+03,1.315221e+03
1.323894e+03,1.321241e+03
1.324858e+03,1.325311e+03
1.325823e+03,1.324541e+03
1.326787e+03,1.328188e+03
1.327751e+03,1.335982e+03
1.328715e+03,1.347990e+03
1.329680e+03,1.364538e+03
1.330644e+03,1.385614e+03
1.331608e+03,1.411814e+03
1.332572e+03,1.442740e+03
1.333536e+03,1.474800e+03
1.334501e+03,1.507276e+03
1.335465e+03,1.536787e+03
1.336429e+03,1.563516e+03
1.337393e+03,1.583961e+03
1.338358e+03,1.593415e+03
1.339322e+03,1.591482e+03
1.340286e+03,1.578594e+03
1.341250e+03,1.551023e+03
1.342215e+03,1.517127e+03
1.343179e+03,1.476450e+03
1.344143e+03,1.435190e+03
1.345107e+03,1.398391e+03
1.346072e+03,1.365609e+03
1.347036e+03,1.339357e+03
1.348000e+03,1.319331e+03
1.348964e+03,1.306192e+03
1.349928e+03,1.302423e+03
1.350893e+03,1.304279e+03
1.351857e+03,1.301554e+03
1.352821e+03,1.294255e+03
1.353785e+03,1.291085e+03
1.354750e+03,1.293003e+03
1.355714e+03,1.294277e+03
1.356678e+03,1.288887e+03
1.357642e+03,1.281828e+03
1.358607e+03,1.280796e+03
1.359571e+03,1.283117e+03
1.360535e+03,1.282749e+03
1.361499e+03,1.276561e+03
1.362464e+03,1.271978e+03
1.363428e+03,1.274738e+03
1.364392e+03,1.278727e+03
1.365356e+03,1.278780e+03
1.366320e+03,1.274539e+03
1.367285e+03,1.270708e+03
1.368249e+03,1.267677e+03
1.369213e+03,1.265762e+03
1.370177e+03,1.265611e+03
1.371142e+03,1.265336e+03
1.372106e+03,1.262076e+03
1.373070e+03,1.256474e+03
1.374034e+03,1.253605e+03
1.374999e+03,1.253575e+03
1.375963e+03,1.254032e+03
1.376927e+03,1.253703e+03
1.377891e+03,1.253281e+03
1.378855e+03,1.254103e+03
1.379820e+03,1.254608e+03
1.380784e+03,1.252542e+03
1.381748e+03,1.247973e+03
1.382712e+03,1.243951e+03
1.383677e+03,1.240220e+03
1.384641e+03,1.237259e+03
1.385605e+03,1.234269e+03
1.386569e+03,1.232508e+03
1.387534e+03,1.234831e+03
1.388498e+03,1.242652e+03
1.389462e+03,1.247594e+03
1.390426e+03,1.249020e+03
1.391391e+03,1.247393e+03
1.392355e+03,1.242389e+03
1.393319e+03,1.236254e+03
1.394283e+03,1.232522e+03
1.395247e+03,1.230713e+03
1.396212e+03,1.230371e+03
1.397176e+03,1.231454e+03
1.398140e+03,1.232892e+03
1.399104e+03,1.233748e+03
1.400069e+03,1.234514e+03
1.401033e+03,1.235627e+03
1.401997e+03,1.236987e+03
1.402961e+03,1.238371e+03
1.403926e+03,1.240532e+03
1.404890e+03,1.240444e+03
1.405854e+03,1.237252e+03
1.406818e+03,1.234378e+03
1.407782e+03,1.234285e+03
1.408747e+03,1.236854e+03
1.409711e+03,1.241528e+03
1.410675e+03,1.246893e+03
1.411639e+03,1.249536e+03
1.412604e+03,1.248472e+03
1.413568e+03,1.246265e+03
1.414532e+03,1.244756e+03
1.415496e+03,1.244019e+03
1.416461e+03,1.243474e+03
1.417425e+03,1.242918e+03
1.418389e+03,1.243000e+03
1.419353e+03,1.244265e+03
1.420318e+03,1.245679e+03
1.421282e+03,1.247441e+03
1.422246e+03,1.250058e+03
1.423210e+03,1.254053e+03
1.424174e+03,1.259285e+03
1.425139e+03,1.263589e+03
1.426103e+03,1.266672e+03
1.427067e+03,1.268979e+03
1.428031e+03,1.270774e+03
1.428996e+03,1.271953e+03
1.429960e+03,1.271486e+03
1.430924e+03,1.270524e+03
1.431888e+03,1.270334e+03
1.432853e+03,1.270949e+03
1.433817e+03,1.271648e+03
1.434781e+03,1.272736e+03
1.435745e+03,1.273870e+03
1.436709e+03,1.274623e+03
1.437674e+03,1.274729e+03
1.438638e+03,1.274171e+03
1.439602e+03,1.273485e+03
1.440566e+03,1.274150e+03
1.441531e+03,1.276055e+03
1.442495e+03,1.278860e+03
1.443459e+03,1.281591e+03
1.444423e+03,1.288345e+03
1.445388e+03,1.307185e+03
1.446352e+03,1.328802e+03
1.447316e+03,1.345563e+03
1.448280e+03,1.356951e+03
1.449245e+03,1.362693e+03
1.450209e+03,1.361386e+03
1.451173e+03,1.355650e+03
1.452137e+03,1.343747e+03
1.453101e+03,1.328795e+03
1.454066e+03,1.313106e+03
1.455030e+03,1.297222e+03
1.455994e+03,1.285064e+03
1.456958e+03,1.276293e+03
1.457923e+03,1.269152e+03
1.458887e+03,1.262952e+03
1.459851e+03,1.256586e+03
1.460815e+03,1.246791e+03
1.461780e+03,1.237857e+03
1.462744e+03,1.234948e+03
1.463708e+03,1.237881e+03
1.464672e+03,1.241573e+03
1.465636e+03,1.248410e+03
1.466601e+03,1.250914e+03
1.467565e+03,1.246923e+03
1.468529e+03,1.241334e+03
1.469493e+03,1.238388e+03
1.470458e+03,1.237151e+03
1.471422e+03,1.235466e+03
1.472386e+03,1.233526e+03
1.473350e+03,1.230651e+03
1.474315e+03,1.225490e+03
1.475279e+03,1.222734e+03
1.476243e+03,1.228193e+03
1.477207e+03,1.234236e+03
1.478172e+03,1.235984e+03
1.479136e+03,1.233896e+03
1.480100e+03,1.230245e+03
1.481064e+03,1.224204e+03
1.482028e+03,1.220457e+03
1.482993e+03,1.219825e+03
1.483957e+03,1.221299e+03
1.484921e+03,1.225535e+03
1.485885e+03,1.229937e+03
1.486850e+03,1.228553e+03
1.487814e+03,1.223140e+03
1.488778e+03,1.217916e+03
1.489742e+03,1.213658e+03
1.490707e+03,1.212063e+03
1.491671e+03,1.217498e+03
1.492635e+03,1.222836e+03
1.493599e+03,1.224279e+03
1.494563e+03,1.222826e+03
1.495528e+03,1.221654e+03
1.496492e+03,1.220573e+03
1.497456e+03,1.220175e+03
1.498420e+03,1.220877e+03
1.499385e+03,1.221088e+03
1.500349e+03,1.218568e+03
1.501313e+03,1.216053e+03
1.502277e+03,1.215566e+03
1.503242e+03,1.216457e+03
1.504206e+03,1.217963e+03
1.505170e+03,1.220064e+03
1.506134e+03,1.221327e+03
1.507099e+03,1.221092e+03
1.508063e+03,1.222257e+03
1.509027e+03,1.226066e+03
1.509991e+03,1.231429e+03
1.510955e+03,1.235680e+03
1.511920e+03,1.240299e+03
1.512884e+03,1.247864e+03
1.513848e+03,1.259616e+03
1.514812e+03,1.277790e+03
1.515777e+03,1.298816e+03
1.516741e+03,1.330614e+03
1.517705e+03,1.372485e+03
1.518669e+03,1.430013e+03
1.519634e+03,1.512127e+03
1.520598e+03,1.617192e+03
1.521562e+03,1.726030e+03
1.522526e+03,1.836133e+03
1.523490e+03,1.924436e+03
1.524455e+03,1.985215e+03
1.525419e+03,2.009347e+03
1.526383e+03,1.979244e+03
1.527347e+03,1.916046e+03
1.528312e+03,1.828051e+03
1.529276e+03,1.723527e+03
1.530240e+03,1.626862e+03
1.531204e+03,1.534208e+03
1.532169e+03,1.462018e+03
1.533133e+03,1.413522e+03
1.534097e+03,1.377697e+03
1.535061e+03,1.347820e+03
1.536026e+03,1.323699e+03
1.536990e+03,1.307569e+03
1.537954e+03,1.296869e+03
1.538918e+03,1.287312e+03
1.539882e+03,1.278094e+03
1.540847e+03,1.267172e+03
1.541811e+03,1.250154e+03
1.542775e+03,1.235823e+03
1.543739e+03,1.227571e+03
1.544704e+03,1.223182e+03
1.545668e+03,1.219300e+03
1.546632e+03,1.215959e+03
1.547596e+03,1.212148e+03
1.548561e+03,1.208134e+03
1.549525e+03,1.205937e+03
1.550489e+03,1.207655e+03
1.551453e+03,1.209175e+03
1.552417e+03,1.209188e+03
1.553382e+03,1.207511e+03
1.554346e+03,1.203975e+03
1.555310e+03,1.199137e+03
1.556274e+03,1.195962e+03
1.557239e+03,1.194314e+03
1.558203e+03,1.192770e+03
1.559167e+03,1.191053e+03
1.560131e+03,1.188877e+03
1.561096e+03,1.186353e+03
1.562060e+03,1.183223e+03
1.563024e+03,1.177328e+03
1.563988e+03,1.171046e+03
1.564953e+03,1.169852e+03
1.565917e+03,1.175891e+03
1.566881e+03,1.179645e+03
1.567845e+03,1.180422e+03
1.568809e+03,1.181404e+03
1.569774e+03,1.185115e+03
1.570738e+03,1.188734e+03
1.571702e+03,1.187254e+03
1.572666e+03,1.183900e+03
1.573631e+03,1.183735e+03
1.574595e+03,1.187560e+03
1.575559e+03,1.188063e+03
1.576523e+03,1.183614e+03
1.577488e+03,1.178768e+03
1.578452e+03,1.173226e+03
1.579416e+03,1.168598e+03
1.580380e+03,1.167454e+03
1.581344e+03,1.168520e+03
1.582309e+03,1.169768e+03
1.583273e+03,1.171310e+03
1.584237e+03,1.173443e+03
1.585201e+03,1.177640e+03
1.586166e+03,1.178432e+03
1.587130e+03,1.172571e+03
1.588094e+03,1.167917e+03
1.589058e+03,1.168498e+03
1.590023e+03,1.172045e+03
1.590987e+03,1.174636e+03
1.591951e+03,1.176381e+03
1.592915e+03,1.175620e+03
1.593880e+03,1.172173e+03
1.594844e+03,1.169984e+03
1.595808e+03,1.174537e+03
1.596772e+03,1.175032e+03
1.597736e+03,1.166803e+03
1.598701e+03,1.159214e+03
1.599665e+03,1.162161e+03
1.600629e+03,1.171786e+03
1.601593e+03,1.170707e+03
1.602558e+03,1.162358e+03
1.603522e+03,1.157516e+03
1.604486e+03,1.159727e+03
1.605450e+03,1.162325e+03
1.606415e+03,1.163688e+03
1.607379e+03,1.164338e+03
1.608343e+03,1.164343e+03
1.609307e+03,1.163460e+03
1.610271e+03,1.160765e+03
1.611236e+03,1.156779e+03
1.612200e+03,1.155268e+03
1.613164e+03,1.156147e+03
1.614128e+03,1.155957e+03
1.615093e+03,1.151673e+03
1.616057e+03,1.147166e+03
1.617021e+03,1.142609e+03
1.617985e+03,1.138741e+03
1.618950e+03,1.136391e+03
1.619914e+03,1.135482e+03
1.620878e+03,1.136465e+03
1.621842e+03,1.138605e+03
1.622807e+03,1.137635e+03
1.623771e+03,1.132879e+03
1.624735e+03,1.130198e+03
1.625699e+03,1.135214e+03
1.626663e+03,1.138645e+03
1.627628e+03,1.136371e+03
1.628592e+03,1.131166e+03
1.629556e+03,1.126775e+03
1.630520e+03,1.123780e+03
1.631485e+03,1.122979e+03
1.632449e+03,1.123687e+03
1.633413e+03,1.123499e+03
1.634377e+03,1.121210e+03
1.635342e+03,1.118998e+03
1.636306e+03,1.118259e+03
1.637270e+03,1.117170e+03
1.638234e+03,1.114233e+03
1.639198e+03,1.111148e+03
1.640163e+03,1.112693e+03
1.641127e+03,1.117181e+03
1.642091e+03,1.117335e+03
1.643055e+03,1.112600e+03
1.644020e+03,1.108969e+03
1.644984e+03,1.111040e+03
1.645948e+03,1.111064e+03
1.646912e+03,1.106349e+03
1.647877e+03,1.101933e+03
1.648841e+03,1.103281e+03
1.649805e+03,1.107802e+03
1.650769e+03,1.104790e+03
1.651734e+03,1.097948e+03
1.652698e+03,1.098238e+03
1.653662e+03,1.109696e+03
1.654626e+03,1.115193e+03
1.655590e+03,1.106387e+03
1.656555e+03,1.098085e+03
1.657519e+03,1.094433e+03
1.658483e+03,1.094027e+03
1.659447e+03,1.095165e+03
1.660412e+03,1.096653e+03
1.661376e+03,1.097344e+03
1.662340e+03,1.097499e+03
1.663304e+03,1.097232e+03
1.664269e+03,1.094873e+03
1.665233e+03,1.093907e+03
1.666197e+03,1.094416e+03
1.667161e+03,1.095170e+03
1.668125e+03,1.096349e+03
1.669090e+03,1.096522e+03
1.670054e+03,1.092249e+03
1.671018e+03,1.086420e+03
1.671982e+03,1.082758e+03
1.672947e+03,1.081847e+03
1.673911e+03,1.083434e+03
1.674875e+03,1.088400e+03
1.675839e+03,1.088799e+03
1.676804e+03,1.083801e+03
1.677768e+03,1.077452e+03
1.678732e+03,1.070287e+03
1.679696e+03,1.065292e+03
1.680661e+03,1.065178e+03
1.681625e+03,1.068807e+03
1.682589e+03,1.076916e+03
1.683553e+03,1.090200e+03
1.684517e+03,1.092848e+03
1.685482e+03,1.085076e+03
1.686446e+03,1.078806e+03
1.687410e+03,1.077893e+03
1.688374e+03,1.078035e+03
1.689339e+03,1.076063e+03
1.690303e+03,1.073882e+03
1.691267e+03,1.072085e+03
1.692231e+03,1.071375e+03
1.693196e+03,1.073704e+03
1.694160e+03,1.077883e+03
1.695124e+03,1.076040e+03
1.696088e+03,1.069593e+03
1.697052e+03,1.066941e+03
1.698017e+03,1.075898e+03
1.698981e+03,1.080063e+03
1.699945e+03,1.071592e+03
1.700909e+03,1.062462e+03
1.701874e+03,1.059356e+03
1.702838e+03,1.061120e+03
1.703802e+03,1.066491e+03
1.704766e+03,1.072203e+03
1.705731e+03,1.071339e+03
1.706695e+03,1.064085e+03
1.707659e+03,1.062679e+03
1.708623e+03,1.074695e+03
1.709588e+03,1.077604e+03
1.710552e+03,1.066238e+03
1.711516e+03,1.054906e+03
1.712480e+03,1.060367e+03
1.713444e+03,1.068844e+03
1.714409e+03,1.062002e+03
1.715373e+03,1.050229e+03
1.716337e+03,1.050162e+03
1.717301e+03,1.062607e+03
1.718266e+03,1.068080e+03
1.719230e+03,1.066437e+03
1.720194e+03,1.062216e+03
1.721158e+03,1.056017e+03
1.722123e+03,1.052129e+03
1.723087e+03,1.056429e+03
1.724051e+03,1.060719e+03
1.725015e+03,1.061026e+03
1.725979e+03,1.059314e+03
1.726944e+03,1.057647e+03
1.727908e+03,1.055946e+03
1.728872e+03,1.053192e+03
1.729836e+03,1.049715e+03
1.730801e+03,1.048001e+03
1.731765e+03,1.049669e+03
1.732729e+03,1.052620e+03
1.733693e+03,1.057895e+03
1.734658e+03,1.060702e+03
1.735622e+03,1.058206e+03
1.736586e+03,1.053539e+03
1.737550e+03,1.051844e+03
1.738515e+03,1.050352e+03
1.739479e+03,1.044312e+03
1.740443e+03,1.035020e+03
1.741407e+03,1.031038e+03
1.742371e+03,1.032898e+03
1.743336e+03,1.036765e+03
1.744300e+03,1.042065e+03
1.745264e+03,1.044297e+03
1.746228e+03,1.037488e+03
1.747193e+03,1.031805e+03
1.748157e+03,1.034940e+03
1.749121e+03,1.039483e+03
1.750085e+03,1.039188e+03
1.751050e+03,1.034752e+03
1.752014e+03,1.030691e+03
1.752978e+03,1.027607e+03
1.753942e+03,1.026935e+03
1.754906e+03,1.028733e+03
1.755871e+03,1.028551e+03
1.756835e+03,1.023756e+03
1.757799e+03,1.019914e+03
1.758763e+03,1.018949e+03
1.759728e+03,1.019994e+03
1.760692e+03,1.023592e+03
1.761656e+03,1.027052e+03
1.762620e+03,1.026155e+03
1.763585e+03,1.023615e+03
1.764549e+03,1.023655e+03
1.765513e+03,1.025843e+03
1.766477e+03,1.028746e+03
1.767442e+03,1.032007e+03
1.768406e+03,1.031057e+03
1.769370e+03,1.023700e+03
1.770334e+03,1.018181e+03
1.771298e+03,1.020223e+03
1.772263e+03,1.020545e+03
1.773227e+03,1.016098e+03
1.774191e+03,1.011196e+03
1.775155e+03,1.010999e+03
1.776120e+03,1.014154e+03
1.777084e+03,1.021828e+03
1.778048e+03,1.030895e+03
1.779012e+03,1.032615e+03
1.779977e+03,1.024904e+03
1.780941e+03,1.019592e+03
1.781905e+03,1.016214e+03
1.782869e+03,1.015090e+03
1.783833e+03,1.017823e+03
1.784798e+03,1.018719e+03
1.785762e+03,1.010199e+03
1.786726e+03,1.003745e+03
1.787690e+03,1.005675e+03
1.788655e+03,1.012005e+03
1.789619e+03,1.017138e+03
1.790583e+03,1.019643e+03
1.791547e+03,1.013281e+03
1.792512e+03,1.000617e+03
1.793476e+03,9.955905e+02
1.794440e+03,1.002240e+03
1.795404e+03,1.005727e+03
1.796369e+03,1.004942e+03
1.797333e+03,1.005137e+03
1.798297e+03,1.011936e+03
1.799261e+03,1.016392e+03
1.800225e+03,1.008059e+03
1.801190e+03,9.988646e+02
1.802154e+03,9.976398e+02
1.803118e+03,1.000810e+03
1.804082e+03,9.998775e+02
1.805047e+03,9.964353e+02
1.806011e+03,9.921569e+02
1.806975e+03,9.876569e+02
1.807939e+03,9.878486e+02
1.808904e+03,9.947373e+02
1.809868e+03,9.992196e+02
1.810832e+03,1.000707e+03
1.811796e+03,1.000203e+03
1.812760e+03,9.968564e+02
1.813725e+03,9.932523e+02
1.814689e+03,9.916075e+02
1.815653e+03,9.899133e+02
1.816617e+03,9.860692e+02
1.817582e+03,9.814962e+02
1.818546e+03,9.815652e+02
1.819510e+03,9.839471e+02
1.820474e+03,9.828853e+02
1.821439e+03,9.777520e+02
1.822403e+03,9.776078e+02
1.823367e+03,9.846929e+02
1.824331e+03,9.883210e+02
1.825296e+03,9.864485e+02
1.826260e+03,9.833642e+02
1.827224e+03,9.834846e+02
1.828188e+03,9.837877e+02
1.829152e+03,9.807405e+02
1.830117e+03,9.779980e+02
1.831081e+03,9.794452e+02
1.832045e+03,9.827303e+02
1.833009e+03,9.808918e+02
1.833974e+03,9.775682e+02
1.834938e+03,9.792859e+02
1.835902e+03,9.876028e+02
1.836866e+03,9.875197e+02
1.837831e+03,9.780627e+02
1.838795e+03,9.741727e+02
1.839759e+03,9.796815e+02
1.840723e+03,9.845671e+02
1.841688e+03,9.787132e+02
1.842652e+03,9.743789e+02
1.843616e+03,9.761395e+02
1.844580e+03,9.787006e+02
1.845544e+03,9.765339e+02
1.846509e+03,9.725056e+02
1.847473e+03,9.716964e+02
1.848437e+03,9.725449e+02
1.849401e+03,9.719322e+02
1.850366e+03,9.698515e+02
1.851330e+03,9.706033e+02
1.852294e+03,9.736219e+02
1.853258e+03,9.693336e+02
1.854223e+03,9.540862e+02
1.855187e+03,9.450530e+02
1.856151e+03,9.536254e+02
1.857115e+03,9.634907e+02
1.858079e+03,9.724703e+02
1.859044e+03,9.775706e+02
1.860008e+03,9.741515e+02
1.860972e+03,9.676036e+02
1.861936e+03,9.609671e+02
1.862901e+03,9.561743e+02
1.863865e+03,9.552990e+02
1.864829e+03,9.572401e+02
1.865793e+03,9.590241e+02
1.866758e+03,9.604099e+02
1.867722e+03,9.594517e+02
1.868686e+03,9.548284e+02
1.869650e+03,9.511134e+02
1.870615e+03,9.483061e+02
1.871579e+03,9.461329e+02
1.872543e+03,9.449218e+02
1.873507e+03,9.455812e+02
1.874471e+03,9.494286e+02
1.875436e+03,9.527087e+02
1.876400e+03,9.553420e+02
1.877364e+03,9.553127e+02
1.878328e+03,9.471315e+02
1.879293e+03,9.364256e+02
1.880257e+03,9.344471e+02
1.881221e+03,9.378757e+02
1.882185e+03,9.404055e+02
1.883150e+03,9.417581e+02
1.884114e+03,9.442689e+02
1.885078e+03,9.472484e+02
1.886042e+03,9.475184e+02
1.887006e+03,9.439077e+02
1.887971e+03,9.390931e+02
1.888935e+03,9.317680e+02
1.889899e+03,9.304987e+02
1.890863e+03,9.377750e+02
1.891828e+03,9.455206e+02
1.892792e+03,9.464535e+02
1.893756e+03,9.445927e+02
1.894720e+03,9.421469e+02
1.895685e+03,9.409265e+02
1.896649e+03,9.427767e+02
1.897613e+03,9.459020e+02
1.898577e+03,9.452092e+02
1.899542e+03,9.422342e+02
1.900506e+03,9.403060e+02
1.901470e+03,9.400196e+02
1.902434e+03,9.363675e+02
1.903398e+03,9.296400e+02
1.904363e+03,9.245482e+02
1.905327e+03,9.222724e+02
1.906291e+03,9.232801e+02
1.907255e+03,9.312474e+02
1.908220e+03,9.357263e+02
1.909184e+03,9.342562e+02
1.910148e+03,9.314487e+02
1.911112e+03,9.327942e+02
1.912077e+03,9.347793e+02
1.913041e+03,9.347976e+02
1.914005e+03,9.331660e+02
1.914969e+03,9.292717e+02
1.915933e+03,9.244352e+02
1.916898e+03,9.245041e+02
1.917862e+03,9.270334e+02
1.918826e+03,9.259781e+02
1.919790e+03,9.204993e+02
1.920755e+03,9.181605e+02
1.921719e+03,9.183790e+02
1.922683e+03,9.203010e+02
1.923647e+03,9.241315e+02
1.924612e+03,9.269575e+02
1.925576e+03,9.260629e+02
1.926540e+03,9.264607e+02
1.927504e+03,9.285054e+02
1.928469e+03,9.303835e+02
1.929433e+03,9.316029e+02
1.930397e+03,9.305281e+02
1.931361e+03,9.225828e+02
1.932325e+03,9.154744e+02
1.933290e+03,9.167754e+02
1.934254e+03,9.231747e+02
1.935218e+03,9.262311e+02
1.936182e+03,9.257480e+02
1.937147e+03,9.212214e+02
1.938111e+03,9.139953e+02
1.939075e+03,9.112280e+02
1.940039e+03,9.126882e+02
1.941004e+03,9.148536e+02
1.941968e+03,9.164196e+02
1.942932e+03,9.143718e+02
1.943896e+03,9.051367e+02
1.944860e+03,9.028437e+02
1.945825e+03,9.096193e+02
1.946789e+03,9.153558e+02
1.947753e+03,9.096163e+02
1.948717e+03,9.050559e+02
1.949682e+03,9.076609e+02
1.950646e+03,9.109040e+02
1.951610e+03,9.117697e+02
1.952574e+03,9.099005e+02
1.953539e+03,9.015115e+02
1.954503e+03,8.928445e+02
1.955467e+03,8.911161e+02
1.956431e+03,8.942310e+02
1.957396e+03,8.968409e+02
1.958360e+03,8.989135e+02
1.959324e+03,9.013074e+02
1.960288e+03,9.040759e+02
1.961252e+03,9.054269e+02
1.962217e+03,9.050305e+02
1.963181e+03,8.983077e+02
1.964145e+03,8.862600e+02
1.965109e+03,8.799900e+02
1.966074e+03,8.906152e+02
1.967038e+03,8.973173e+02
1.968002e+03,8.974667e+02
1.968966e+03,8.938762e+02
1.969931e+03,8.864174e+02
1.970895e+03,8.801906e+02
1.971859e+03,8.821217e+02
1.972823e+03,8.841385e+02
1.973787e+03,8.818450e+02
1.974752e+03,8.785056e+02
1.975716e+03,8.799668e+02
1.976680e+03,8.823727e+02
1.977644e+03,8.813318e+02
1.978609e+03,8.795344e+02
1.979573e+03,8.809775e+02
1.980537e+03,8.845372e+02
1.981501e+03,8.884036e+02
1.982466e+03,8.916375e+02
1.983430e+03,8.907632e+02
1.984394e+03,8.850773e+02
1.985358e+03,8.809657e+02
1.986323e+03,8.781857e+02
1.987287e+03,8.758656e+02
1.988251e+03,8.733344e+02
1.989215e+03,8.740191e+02
1.990179e+03,8.797657e+02
1.991144e+03,8.799586e+02
1.992108e+03,8.716153e+02
1.993072e+03,8.660643e+02
1.994036e+03,8.744189e+02
1.995001e+03,8.821514e+02
1.995965e+03,8.858306e+02
1.996929e+03,8.861251e+02
1.997893e+03,8.816359e+02
1.998858e+03,8.750644e+02
1.999822e+03,8.650990e+02
2.000786e+03,8.585886e+02
2.001750e+03,8.643099e+02
2.002714e+03,8.764075e+02
2.003679e+03,8.806718e+02
2.004643e+03,8.799068e+02
2.005607e+03,8.787105e+02
2.006571e+03,8.773131e+02
2.007536e+03,8.724490e+02
2.008500e+03,8.659223e+02
2.009464e+03,8.636368e+02
2.010428e+03,8.661031e+02
2.011393e+03,8.671271e+02
2.012357e+03,8.660849e+02
2.013321e+03,8.663988e+02
2.014285e+03,8.676514e+02
2.015250e+03,8.686191e+02
2.016214e+03,8.700322e+02
2.017178e+03,8.680081e+02
2.018142e+03,8.622475e+02
2.019106e+03,8.576993e+02
2.020071e+03,8.568832e+02
2.021035e+03,8.575018e+02
2.021999e+03,8.595273e+02
2.022963e+03,8.602264e+02
2.023928e+03,8.586471e+02
2.024892e+03,8.564850e+02
2.025856e+03,8.579133e+02
2.026820e+03,8.557032e+02
2.027785e+03,8.420016e+02
2.028749e+03,8.285576e+02
2.029713e+03,8.368674e+02
2.030677e+03,8.524755e+02
2.031641e+03,8.546300e+02
2.032606e+03,8.499130e+02
2.033570e+03,8.518580e+02
2.034534e+03,8.578206e+02
2.035498e+03,8.558738e+02
2.036463e+03,8.494527e+02
2.037427e+03,8.469754e+02
2.038391e+03,8.492292e+02
2.039355e+03,8.456343e+02
2.040320e+03,8.380169e+02
2.041284e+03,8.337133e+02
2.042248e+03,8.341525e+02
2.043212e+03,8.337194e+02
2.044177e+03,8.320549e+02
2.045141e+03,8.337150e+02
2.046105e+03,8.390676e+02
2.047069e+03,8.424574e+02
2.048033e+03,8.381334e+02
2.048998e+03,8.366215e+02
2.049962e+03,8.392172e+02
2.050926e+03,8.420065e+02
2.051890e+03,8.433436e+02
2.052854e+03,8.422253e+02
2.053819e+03,8.363198e+02
2.054783e+03,8.330842e+02
2.055747e+03,8.392144e+02
2.056711e+03,8.449984e+02
2.057676e+03,8.383032e+02
2.058640e+03,8.312071e+02
2.059604e+03,8.296086e+02
2.060568e+03,8.302460e+02
2.061533e+03,8.282217e+02
2.062497e+03,8.270540e+02
2.063461e+03,8.319339e+02
2.064425e+03,8.383454e+02
2.065390e+03,8.401801e+02
2.066354e+03,8.388583e+02
2.067318e+03,8.365640e+02
2.068282e+03,8.340546e+02
2.069247e+03,8.322889e+02
2.070211e+03,8.307869e+02
2.071175e+03,8.281420e+02
2.072139e+03,8.244211e+02
2.073104e+03,8.183181e+02
2.074068e+03,8.102022e+02
2.075032e+03,8.087089e+02
2.075996e+03,8.124576e+02
2.076960e+03,8.174031e+02
2.077925e+03,8.226815e+02
2.078889e+03,8.272451e+02
2.079853e+03,8.312075e+02
2.080817e+03,8.300873e+02
2.081782e+03,8.237273e+02
2.082746e+03,8.192393e+02
2.083710e+03,8.205876e+02
2.084674e+03,8.220022e+02
2.085639e+03,8.236296e+02
2.086603e+03,8.249682e+02
2.087567e+03,8.237972e+02
2.088531e+03,8.231631e+02
2.089496e+03,8.235932e+02
2.090460e+03,8.213862e+02
2.091424e+03,8.154113e+02
2.092388e+03,8.101428e+02
2.093353e+03,8.065956e+02
2.094317e+03,8.068358e+02
2.095281e+03,8.117073e+02
2.096245e+03,8.161442e+02
2.097209e+03,8.153746e+02
2.098174e+03,8.118565e+02
2.099138e+03,8.061796e+02
2.100102e+03,8.022165e+02
2.101066e+03,8.071666e+02
2.102031e+03,8.122738e+02
2.102995e+03,8.084623e+02
2.103959e+03,8.018389e+02
2.104923e+03,7.951381e+02
2.105887e+03,7.913467e+02
2.106852e+03,7.966534e+02
2.107816e+03,8.040994e+02
2.108780e+03,8.073975e+02
2.109744e+03,8.069050e+02
2.110708e+03,8.017004e+02
2.111673e+03,7.959308e+02
2.112637e+03,7.959456e+02
2.113601e+03,7.986951e+02
2.114565e+03,7.980176e+02
2.115530e+03,7.954170e+02
2.116494e+03,7.931334e+02
2.117458e+03,7.931797e+02
2.118422e+03,7.983607e+02
2.119387e+03,8.062410e+02
2.120351e+03,8.056572e+02
2.121315e+03,7.984462e+02
2.122279e+03,7.935054e+02
2.123244e+03,7.914026e+02
2.124208e+03,7.910402e+02
2.125172e+03,7.919664e+02
2.126136e+03,7.909611e+02
2.127101e+03,7.870367e+02
2.128065e+03,7.894336e+02
2.129029e+03,7.965554e+02
2.129993e+03,7.958721e+02
2.130958e+03,7.841829e+02
2.131922e+03,7.784644e+02
2.132886e+03,7.805011e+02
2.133850e+03,7.865266e+02
2.134814e+03,7.963435e+02
2.135779e+03,8.027993e+02
2.136743e+03,8.023422e+02
2.137707e+03,7.999989e+02
2.138671e+03,7.963588e+02
2.139636e+03,7.922321e+02
2.140600e+03,7.869962e+02
2.141564e+03,7.834858e+02
2.142528e+03,7.819788e+02
2.143493e+03,7.824164e+02
2.144457e+03,7.857682e+02
2.145421e+03,7.842642e+02
2.146385e+03,7.740892e+02
2.147350e+03,7.694283e+02
2.148314e+03,7.750350e+02
2.149278e+03,7.826260e+02
2.150242e+03,7.885626e+02
2.151207e+03,7.900670e+02
2.152171e+03,7.861447e+02
2.153135e+03,7.798895e+02
2.154099e+03,7.737976e+02
2.155063e+03,7.671461e+02
2.156028e+03,7.589006e+02
2.156992e+03,7.555692e+02
2.157956e+03,7.637782e+02
2.158920e+03,7.728525e+02
2.159885e+03,7.787510e+02
2.160849e+03,7.824379e+02
2.161813e+03,7.847069e+02
2.162777e+03,7.835585e+02
2.163741e+03,7.733582e+02
2.164706e+03,7.652812e+02
2.165670e+03,7.642443e+02
2.166634e+03,7.673989e+02
2.167598e+03,7.739673e+02
2.168563e+03,7.790840e+02
2.169527e+03,7.798252e+02
2.170491e+03,7.788091e+02
2.171455e+03,7.813373e+02
2.172420e+03,7.816993e+02
2.173384e+03,7.746351e+02
2.174348e+03,7.672359e+02
2.175312e+03,7.649338e+02
2.176277e+03,7.645274e+02
2.177241e+03,7.648238e+02
2.178205e+03,7.632655e+02
2.179169e+03,7.573401e+02
2.180134e+03,7.519744e+02
2.181098e+03,7.528663e+02
2.182062e+03,7.580473e+02
2.183026e+03,7.665420e+02
2.183990e+03,7.739073e+02
2.184955e+03,7.719133e+02
2.185919e+03,7.678693e+02
2.186883e+03,7.682337e+02
2.187847e+03,7.681118e+02
2.188812e+03,7.581191e+02
2.189776e+03,7.483212e+02
2.190740e+03,7.539518e+02
2.191704e+03,7.606840e+02
2.192668e+03,7.523282e+02
2.193633e+03,7.405715e+02
2.194597e+03,7.417755e+02
2.195561e+03,7.498755e+02
2.196525e+03,7.616880e+02
2.197490e+03,7.708672e+02
2.198454e+03,7.612474e+02
2.199418e+03,7.481641e+02
2.200382e+03,7.463914e+02
2.201347e+03,7.499597e+02
2.202311e+03,7.461746e+02
2.203275e+03,7.428923e+02
2.204239e+03,7.507153e+02
2.205204e+03,7.592950e+02
2.206168e+03,7.529357e+02
2.207132e+03,7.424752e+02
2.208096e+03,7.414709e+02
2.209061e+03,7.432484e+02
2.210025e+03,7.406306e+02
2.210989e+03,7.369629e+02
2.211953e+03,7.405654e+02
2.212917e+03,7.439787e+02
2.213882e+03,7.347569e+02
2.214846e+03,7.227592e+02
2.215810e+03,7.314918e+02
2.216774e+03,7.441779e+02
2.217739e+03,7.466478e+02
2.218703e+03,7.431993e+02
2.219667e+03,7.369826e+02
2.220631e+03,7.332917e+02
2.221595e+03,7.386120e+02
2.222560e+03,7.461914e+02
2.223524e+03,7.471189e+02
2.224488e+03,7.448533e+02
2.225452e+03,7.437296e+02
2.226417e+03,7.418165e+02
2.227381e+03,7.345781e+02
2.228345e+03,7.274359e+02
2.229309e+03,7.279344e+02
2.230274e+03,7.306156e+02
2.231238e+03,7.319503e+02
2.232202e+03,7.311581e+02
2.233166e+03,7.247418e+02
2.234131e+03,7.201379e+02
2.235095e+03,7.232407e+02
2.236059e+03,7.289326e+02
2.237023e+03,7.299916e+02
2.237988e+03,7.286669e+02
2.238952e+03,7.260343e+02
2.239916e+03,7.233179e+02
2.240880e+03,7.236845e+02
2.241844e+03,7.241163e+02
2.242809e+03,7.215068e+02
2.243773e+03,7.195410e+02
2.244737e+03,7.218038e+02
2.245701e+03,7.258105e+02
2.246666e+03,7.321153e+02
2.247630e+03,7.345179e+02
2.248594e+03,7.266259e+02
2.249558e+03,7.180383e+02
2.250522e+03,7.180172e+02
2.251487e+03,7.202467e+02
2.252451e+03,7.215129e+02
2.253415e+03,7.214945e+02
2.254379e+03,7.214026e+02
2.255344e+03,7.193499e+02
2.256308e+03,7.138206e+02
2.257272e+03,7.104421e+02
2.258236e+03,7.177418e+02
2.259201e+03,7.242196e+02
2.260165e+03,7.255703e+02
2.261129e+03,7.252977e+02
2.262093e+03,7.266155e+02
2.263058e+03,7.260404e+02
2.264022e+03,7.231491e+02
2.264986e+03,7.201566e+02
2.265950e+03,7.167072e+02
2.266915e+03,7.156625e+02
2.267879e+03,7.176624e+02
2.268843e+03,7.193904e+02
2.269807e+03,7.211454e+02
2.270771e+03,7.194477e+02
2.271736e+03,7.112797e+02
2.272700e+03,7.083438e+02
2.273664e+03,7.137369e+02
2.274628e+03,7.190575e+02
2.275593e+03,7.209860e+02
2.276557e+03,7.198008e+02
2.277521e+03,7.159963e+02
2.278485e+03,7.131414e+02
2.279449e+03,7.136298e+02
2.280414e+03,7.126840e+02
2.281378e+03,7.100274e+02
2.282342e+03,7.090050e+02
2.283306e+03,7.129545e+02
2.284271e+03,7.133214e+02
2.285235e+03,7.100831e+02
2.286199e+03,7.047917e+02
2.287163e+03,6.975972e+02
2.288128e+03,6.969105e+02
2.289092e+03,7.012076e+02
2.290056e+03,7.007449e+02
2.291020e+03,6.932781e+02
2.291985e+03,6.913943e+02
2.292949e+03,6.951901e+02
2.293913e+03,6.983020e+02
2.294877e+03,6.996403e+02
2.295842e+03,7.007614e+02
2.296806e+03,7.013507e+02
2.297770e+03,7.008529e+02
2.298734e+03,6.999158e+02
2.299698e+03,7.019482e+02
2.300663e+03,7.064057e+02
2.301627e+03,7.081459e+02
2.302591e+03,7.058181e+02
2.303555e+03,6.950271e+02
2.304520e+03,6.799841e+02
2.305484e+03,6.801349e+02
2.306448e+03,6.882330e+02
2.307412e+03,6.921351e+02
2.308376e+03,6.921456e+02
2.309341e+03,6.881031e+02
2.310305e+03,6.845862e+02
2.311269e+03,6.906179e+02
2.312233e+03,6.989694e+02
2.313198e+03,6.955539e+02
2.314162e+03,6.882698e+02
2.315126e+03,6.853751e+02
2.316090e+03,6.849064e+02
2.317055e+03,6.858375e+02
2.318019e+03,6.876777e+02
2.318983e+03,6.913088e+02
2.319947e+03,6.920712e+02
2.320912e+03,6.842938e+02
2.321876e+03,6.769915e+02
2.322840e+03,6.783559e+02
2.323804e+03,6.793302e+02
2.324769e+03,6.748182e+02
2.325733e+03,6.728878e+02
2.326697e+03,6.814128e+02
2.327661e+03,6.881447e+02
2.328625e+03,6.891505e+02
2.329590e+03,6.873337e+02
2.330554e+03,6.835193e+02
2.331518e+03,6.820330e+02
2.332482e+03,6.836137e+02
2.333447e+03,6.829135e+02
2.334411e+03,6.741853e+02
2.335375e+03,6.727412e+02
2.336339e+03,6.790054e+02
2.337303e+03,6.822318e+02
2.338268e+03,6.764689e+02
2.339232e+03,6.712878e+02
2.340196e+03,6.670521e+02
2.341160e+03,6.644402e+02
2.342125e+03,6.635851e+02
2.343089e+03,6.653497e+02
2.344053e+03,6.686269e+02
2.345017e+03,6.743922e+02
2.345982e+03,6.815612e+02
2.346946e+03,6.772877e+02
2.347910e+03,6.675183e+02
2.348874e+03,6.676107e+02
2.349839e+03,6.742408e+02
2.350803e+03,6.769892e+02
2.351767e+03,6.765555e+02
2.352731e+03,6.714503e+02
2.353696e+03,6.659248e+02
2.354660e+03,6.670852e+02
2.355624e+03,6.696678e+02
2.356588e+03,6.628659e+02
2.357552e+03,6.579200e+02
2.358517e+03,6.676101e+02
2.359481e+03,6.803097e+02
2.360445e+03,6.832934e+02
2.361409e+03,6.801699e+02
2.362374e+03,6.702957e+02
2.363338e+03,6.620451e+02
2.364302e+03,6.698840e+02
2.365266e+03,6.710529e+02
2.366230e+03,6.567553e+02
2.367195e+03,6.455852e+02
2.368159e+03,6.530052e+02
2.369123e+03,6.588458e+02
2.370087e+03,6.610096e+02
2.371052e+03,6.631734e+02
2.372016e+03,6.682368e+02
2.372980e+03,6.694724e+02
2.373944e+03,6.664846e+02
2.374909e+03,6.618959e+02
2.375873e+03,6.551516e+02
2.376837e+03,6.569815e+02
2.377801e+03,6.644910e+02
2.378766e+03,6.618244e+02
2.379730e+03,6.480699e+02
2.380694e+03,6.459752e+02
2.381658e+03,6.514913e+02
2.382623e+03,6.533059e+02
2.383587e+03,6.516625e+02
2.384551e+03,6.496625e+02
2.385515e+03,6.473945e+02
2.386479e+03,6.451390e+02
2.387444e+03,6.442054e+02
2.388408e+03,6.482822e+02
2.389372e+03,6.534891e+02
2.390336e+03,6.557996e+02
2.391301e+03,6.558907e+02
2.392265e+03,6.531851e+02
2.393229e+03,6.492938e+02
2.394193e+03,6.451045e+02
2.395157e+03,6.411061e+02
2.396122e+03,6.358415e+02
2.397086e+03,6.364138e+02
2.398050e+03,6.465145e+02
2.399014e+03,6.524496e+02
2.399979e+03,6.474188e+02
2.400943e+03,6.460107e+02
2.401907e+03,6.508293e+02
2.402871e+03,6.487805e+02
2.403836e+03,6.371532e+02
2.404800e+03,6.337803e+02
2.405764e+03,6.391515e+02
2.406728e+03,6.442168e+02
2.407693e+03,6.475339e+02
2.408657e+03,6.504998e+02
2.409621e+03,6.529013e+02
2.410585e+03,6.497826e+02
2.411550e+03,6.439229e+02
2.412514e+03,6.425746e+02
2.413478e+03,6.435943e+02
2.414442e+03,6.403765e+02
2.415406e+03,6.375399e+02
2.416371e+03,6.404445e+02
2.417335e+03,6.453867e+02
2.418299e+03,6.475450e+02
2.419263e+03,6.481650e+02
2.420228e+03,6.476593e+02
2.421192e+03,6.466410e+02
2.422156e+03,6.461185e+02
2.423120e+03,6.449955e+02
2.424084e+03,6.424060e+02
2.425049e+03,6.389266e+02
2.426013e+03,6.346417e+02
2.426977e+03,6.333619e+02
2.427941e+03,6.358177e+02
2.428906e+03,6.382776e+02
2.429870e+03,6.395900e+02
2.430834e+03,6.374944e+02
2.431798e+03,6.331332e+02
2.432763e+03,6.319865e+02
2.433727e+03,6.337783e+02
2.434691e+03,6.346233e+02
2.435655e+03,6.347866e+02
2.436620e+03,6.349170e+02
2.437584e+03,6.351158e+02
2.438548e+03,6.352430e+02
2.439512e+03,6.366141e+02
2.440477e+03,6.417628e+02
2.441441e+03,6.441418e+02
2.442405e+03,6.287425e+02
2.443369e+03,6.191039e+02
2.444333e+03,6.269651e+02
2.445298e+03,6.373403e+02
2.446262e+03,6.376505e+02
2.447226e+03,6.364053e+02
2.448190e+03,6.355331e+02
2.449155e+03,6.347145e+02
2.450119e+03,6.345397e+02
2.451083e+03,6.330550e+02
2.452047e+03,6.303369e+02
2.453011e+03,6.295626e+02
2.453976e+03,6.320098e+02
2.454940e+03,6.269109e+02
2.455904e+03,6.180264e+02
2.456868e+03,6.156909e+02
2.457833e+03,6.181911e+02
2.458797e+03,6.219209e+02
2.459761e+03,6.244965e+02
2.460725e+03,6.208069e+02
2.461690e+03,6.157792e+02
2.462654e+03,6.182049e+02
2.463618e+03,6.201954e+02
2.464582e+03,6.170562e+02
2.465547e+03,6.130652e+02
2.466511e+03,6.087465e+02
2.467475e+03,6.094531e+02
2.468439e+03,6.164241e+02
2.469404e+03,6.208061e+02
2.470368e+03,6.159160e+02
2.471332e+03,6.129266e+02
2.472296e+03,6.117513e+02
2.473260e+03,6.118630e+02
2.474225e+03,6.133347e+02
2.475189e+03,6.153187e+02
2.476153e+03,6.179846e+02
2.477117e+03,6.205051e+02
2.478082e+03,6.224205e+02
2.479046e+03,6.233099e+02
2.480010e+03,6.230848e+02
2.480974e+03,6.213630e+02
2.481938e+03,6.199929e+02
2.482903e+03,6.221343e+02
2.483867e+03,6.245602e+02
2.484831e+03,6.255090e+02
2.485795e+03,6.251126e+02
2.486760e+03,6.238108e+02
2.487724e+03,6.210128e+02
2.488688e+03,6.168925e+02
2.489652e+03,6.140438e+02
2.490617e+03,6.146464e+02
2.491581e+03,6.111809e+02
2.492545e+03,6.050500e+02
2.493509e+03,6.034479e+02
2.494474e+03,6.066739e+02
2.495438e+03,6.099383e+02
2.496402e+03,6.123217e+02
2.497366e+03,6.106317e+02
2.498331e+03,6.078065e+02
2.499295e+03,6.108156e+02
2.500259e+03,6.137681e+02
2.501223e+03,6.123390e+02
2.502188e+03,6.092325e+02
2.503152e+03,6.055319e+02
2.504116e+03,6.034971e+02
2.505080e+03,6.035927e+02
2.506044e+03,6.056863e+02
2.507009e+03,6.120608e+02
2.507973e+03,6.137479e+02
2.508937e+03,6.111258e+02
2.509901e+03,6.090293e+02
2.510865e+03,6.085385e+02
2.511830e+03,6.052297e+02
2.512794e+03,6.006384e+02
2.513758e+03,6.016861e+02
2.514722e+03,6.062179e+02
2.515687e+03,6.068845e+02
2.516651e+03,6.061605e+02
2.517615e+03,6.070446e+02
2.518579e+03,6.074980e+02
2.519544e+03,6.032012e+02
2.520508e+03,6.007556e+02
2.521472e+03,6.029416e+02
2.522436e+03,6.049424e+02
2.523401e+03,6.026614e+02
2.524365e+03,6.017097e+02
2.525329e+03,6.018481e+02
2.526293e+03,6.010552e+02
2.527258e+03,5.991452e+02
2.528222e+03,6.008485e+02
2.529186e+03,6.043111e+02
2.530150e+03,6.030108e+02
2.531115e+03,5.994448e+02
2.532079e+03,6.035219e+02
2.533043e+03,6.074468e+02
2.534007e+03,6.020364e+02
2.534971e+03,5.943640e+02
2.535936e+03,5.944333e+02
2.536900e+03,5.960834e+02
2.537864e+03,5.974416e+02
2.538828e+03,5.971019e+02
2.539792e+03,5.924464e+02
2.540757e+03,5.902767e+02
2.541721e+03,5.912217e+02
2.542685e+03,5.912834e+02
2.543649e+03,5.904640e+02
2.544614e+03,5.925547e+02
2.545578e+03,5.965712e+02
2.546542e+03,6.009918e+02
2.547506e+03,6.046434e+02
2.548471e+03,6.036812e+02
2.549435e+03,6.000241e+02
2.550399e+03,5.932894e+02
2.551363e+03,5.902382e+02
2.552328e+03,5.996884e+02
2.553292e+03,6.076727e+02
2.554256e+03,6.099274e+02
2.555220e+03,6.070846e+02
2.556185e+03,5.997463e+02
2.557149e+03,5.963920e+02
2.558113e+03,5.986107e+02
2.559077e+03,6.038821e+02
2.560042e+03,6.091526e+02
2.561006e+03,6.030423e+02
2.561970e+03,5.922753e+02
2.562934e+03,5.888135e+02
2.563898e+03,5.891582e+02
2.564863e+03,5.895178e+02
2.565827e+03,5.901952e+02
2.566791e+03,5.933464e+02
2.567755e+03,5.965265e+02
2.568719e+03,5.984547e+02
2.569684e+03,5.987252e+02
2.570648e+03,5.967607e+02
2.571612e+03,5.952783e+02
2.572576e+03,5.949874e+02
2.573541e+03,5.966761e+02
2.574505e+03,5.987375e+02
2.575469e+03,5.948262e+02
2.576433e+03,5.893922e+02
2.577398e+03,5.907104e+02
2.578362e+03,5.937461e+02
2.579326e+03,5.910406e+02
2.580290e+03,5.890283e+02
2.581255e+03,5.903002e+02
2.582219e+03,5.911924e+02
2.583183e+03,5.899579e+02
2.584147e+03,5.853908e+02
2.585112e+03,5.787654e+02
2.586076e+03,5.764521e+02
2.587040e+03,5.791608e+02
2.588004e+03,5.827776e+02
2.588969e+03,5.860921e+02
2.589933e+03,5.883093e+02
2.590897e+03,5.886711e+02
2.591861e+03,5.840014e+02
2.592825e+03,5.777937e+02
2.593790e+03,5.710863e+02
2.594754e+03,5.675312e+02
2.595718e+03,5.705138e+02
2.596682e+03,5.754597e+02
2.597646e+03,5.814954e+02
2.598611e+03,5.823799e+02
2.599575e+03,5.788805e+02
2.600539e+03,5.774108e+02
2.601503e+03,5.778158e+02
2.602468e+03,5.768543e+02
2.603432e+03,5.755513e+02
2.604396e+03,5.776767e+02
2.605360e+03,5.802154e+02
2.606325e+03,5.795472e+02
2.607289e+03,5.783173e+02
2.608253e+03,5.778912e+02
2.609217e+03,5.777861e+02
2.610182e+03,5.779660e+02
2.611146e+03,5.713496e+02
2.612110e+03,5.598990e+02
2.613074e+03,5.582781e+02
2.614039e+03,5.663698e+02
2.615003e+03,5.700470e+02
2.615967e+03,5.702003e+02
2.616931e+03,5.686336e+02
2.617896e+03,5.680576e+02
2.618860e+03,5.746984e+02
2.619824e+03,5.771264e+02
2.620788e+03,5.707167e+02
2.621752e+03,5.650323e+02
2.622717e+03,5.652951e+02
2.623681e+03,5.706805e+02
2.624645e+03,5.797676e+02
2.625609e+03,5.833904e+02
2.626573e+03,5.819430e+02
2.627538e+03,5.808282e+02
2.628502e+03,5.796893e+02
2.629466e+03,5.770340e+02
2.630430e+03,5.740028e+02
2.631395e+03,5.698181e+02
2.632359e+03,5.707917e+02
2.633323e+03,5.823352e+02
2.634287e+03,5.854834e+02
2.635252e+03,5.768786e+02
2.636216e+03,5.709594e+02
2.637180e+03,5.699523e+02
2.638144e+03,5.692452e+02
2.639109e+03,5.679049e+02
2.640073e+03,5.624612e+02
2.641037e+03,5.584610e+02
2.642001e+03,5.651813e+02
2.642966e+03,5.713018e+02
2.643930e+03,5.696385e+02
2.644894e+03,5.694625e+02
2.645858e+03,5.811899e+02
2.646823e+03,5.859543e+02
2.647787e+03,5.826141e+02
2.648751e+03,5.719882e+02
2.649715e+03,5.562826e+02
2.650679e+03,5.555653e+02
2.651644e+03,5.639374e+02
2.652608e+03,5.738578e+02
2.653572e+03,5.789180e+02
2.654536e+03,5.609706e+02
2.655500e+03,5.518583e+02
2.656465e+03,5.650728e+02
2.657429e+03,5.751607e+02
2.658393e+03,5.728027e+02
2.659357e+03,5.753925e+02
2.660322e+03,5.842753e+02
2.661286e+03,5.860296e+02
2.662250e+03,5.828942e+02
2.663214e+03,5.818981e+02
2.664179e+03,5.815238e+02
2.665143e+03,5.815013e+02
2.666107e+03,5.780403e+02
2.667071e+03,5.687789e+02
2.668036e+03,5.611923e+02
2.669000e+03,5.570223e+02
2.669964e+03,5.644048e+02
2.670928e+03,5.798565e+02
2.671893e+03,5.814449e+02
2.672857e+03,5.719681e+02
2.673821e+03,5.703641e+02
2.674785e+03,5.713153e+02
2.675750e+03,5.688386e+02
2.676714e+03,5.666764e+02
2.677678e+03,5.715067e+02
2.678642e+03,5.708557e+02
2.679606e+03,5.617347e+02
2.680571e+03,5.571510e+02
2.681535e+03,5.589291e+02
2.682499e+03,5.635079e+02
2.683463e+03,5.694334e+02
2.684427e+03,5.750784e+02
2.685392e+03,5.789628e+02
2.686356e+03,5.784393e+02
2.687320e+03,5.723159e+02
2.688284e+03,5.527540e+02
2.689249e+03,5.422302e+02
2.690213e+03,5.443635e+02
2.691177e+03,5.480684e+02
2.692141e+03,5.507396e+02
2.693106e+03,5.596658e+02
2.694070e+03,5.698478e+02
2.695034e+03,5.672751e+02
2.695998e+03,5.588651e+02
2.696963e+03,5.540009e+02
2.697927e+03,5.533385e+02
2.698891e+03,5.569198e+02
2.699855e+03,5.578948e+02
2.700820e+03,5.521834e+02
2.701784e+03,5.513290e+02
2.702748e+03,5.557098e+02
2.703712e+03,5.614426e+02
2.704677e+03,5.663602e+02
2.705641e+03,5.639242e+02
2.706605e+03,5.598252e+02
2.707569e+03,5.597003e+02
2.708533e+03,5.594734e+02
2.709498e+03,5.573553e+02
2.710462e+03,5.514243e+02
2.711426e+03,5.374764e+02
2.712390e+03,5.431248e+02
2.713354e+03,5.616686e+02
2.714319e+03,5.613035e+02
2.715283e+03,5.496866e+02
2.716247e+03,5.436940e+02
2.717211e+03,5.453776e+02
2.718176e+03,5.563853e+02
2.719140e+03,5.654111e+02
2.720104e+03,5.635198e+02
2.721068e+03,5.614381e+02
2.722033e+03,5.606295e+02
2.722997e+03,5.626304e+02
2.723961e+03,5.654788e+02
2.724925e+03,5.612434e+02
2.725890e+03,5.546939e+02
2.726854e+03,5.522061e+02
2.727818e+03,5.511153e+02
2.728782e+03,5.492415e+02
2.729747e+03,5.468426e+02
2.730711e+03,5.434118e+02
2.731675e+03,5.423653e+02
2.732639e+03,5.439188e+02
2.733604e+03,5.498428e+02
2.734568e+03,5.567515e+02
2.735532e+03,5.556925e+02
2.736496e+03,5.509415e+02
2.737460e+03,5.451112e+02
2.738425e+03,5.452213e+02
2.739389e+03,5.582243e+02
2.740353e+03,5.609291e+02
2.741317e+03,5.507662e+02
2.742281e+03,5.466865e+02
2.743246e+03,5.478204e+02
2.744210e+03,5.481977e+02
2.745174e+03,5.456585e+02
2.746138e+03,5.331137e+02
2.747103e+03,5.301077e+02
2.748067e+03,5.443353e+02
2.749031e+03,5.545685e+02
2.749995e+03,5.482118e+02
2.750960e+03,5.410707e+02
2.751924e+03,5.352827e+02
2.752888e+03,5.376873e+02
2.753852e+03,5.445197e+02
2.754817e+03,5.497734e+02
2.755781e+03,5.540845e+02
2.756745e+03,5.585524e+02
2.757709e+03,5.567055e+02
2.758674e+03,5.462681e+02
2.759638e+03,5.442147e+02
2.760602e+03,5.522600e+02
2.761566e+03,5.490968e+02
2.762531e+03,5.409123e+02
2.763495e+03,5.363933e+02
2.764459e+03,5.346491e+02
2.765423e+03,5.371174e+02
2.766387e+03,5.396751e+02
2.767352e+03,5.417090e+02
2.768316e+03,5.400374e+02
2.769280e+03,5.342355e+02
2.770244e+03,5.317679e+02
2.771208e+03,5.323159e+02
2.772173e+03,5.324137e+02
2.773137e+03,5.346507e+02
2.774101e+03,5.449738e+02
2.775065e+03,5.531534e+02
2.776030e+03,5.542451e+02
2.776994e+03,5.560781e+02
2.777958e+03,5.581189e+02
2.778922e+03,5.538558e+02
2.779887e+03,5.457209e+02
2.780851e+03,5.385634e+02
2.781815e+03,5.341488e+02
2.782779e+03,5.335433e+02
2.783744e+03,5.354858e+02
2.784708e+03,5.393390e+02
2.785672e+03,5.430286e+02
2.786636e+03,5.457800e+02
2.787601e+03,5.445476e+02
2.788565e+03,5.420734e+02
2.789529e+03,5.448467e+02
2.790493e+03,5.499748e+02
2.791458e+03,5.589658e+02
2.792422e+03,5.590029e+02
2.793386e+03,5.491005e+02
2.794350e+03,5.373982e+02
2.795314e+03,5.258903e+02
2.796279e+03,5.351229e+02
2.797243e+03,5.487007e+02
2.798207e+03,5.397101e+02
2.799171e+03,5.273485e+02
2.800135e+03,5.360701e+02
2.801100e+03,5.461196e+02
2.802064e+03,5.540576e+02
2.803028e+03,5.533242e+02
2.803992e+03,5.465805e+02
2.804957e+03,5.507922e+02
2.805921e+03,5.575657e+02
2.806885e+03,5.434901e+02
2.807849e+03,5.357673e+02
2.808814e+03,5.479448e+02
2.809778e+03,5.548771e+02
2.810742e+03,5.425522e+02
2.811706e+03,5.368594e+02
2.812671e+03,5.366776e+02
2.813635e+03,5.363774e+02
2.814599e+03,5.364948e+02
2.815563e+03,5.407075e+02
2.816528e+03,5.440631e+02
2.817492e+03,5.440486e+02
2.818456e+03,5.422737e+02
2.819420e+03,5.391127e+02
2.820385e+03,5.371515e+02
2.821349e+03,5.383335e+02
2.822313e+03,5.519434e+02
2.823277e+03,5.613355e+02
2.824241e+03,5.528001e+02
2.825206e+03,5.449601e+02
2.826170e+03,5.503721e+02
2.827134e+03,5.533256e+02
2.828098e+03,5.520461e+02
2.829063e+03,5.513171e+02
2.830027e+03,5.512188e+02
2.830991e+03,5.528599e+02
2.831955e+03,5.548621e+02
2.832919e+03,5.522477e+02
2.833884e+03,5.568624e+02
2.834848e+03,5.689385e+02
2.835812e+03,5.728195e+02
2.836776e+03,5.691447e+02
2.837741e+03,5.772390e+02
2.838705e+03,5.875068e+02
2.839669e+03,5.899657e+02
2.840633e+03,5.863463e+02
2.841598e+03,5.760367e+02
2.842562e+03,5.843002e+02
2.843526e+03,6.183662e+02
2.844490e+03,6.152558e+02
2.845455e+03,5.970595e+02
2.846419e+03,6.066322e+02
2.847383e+03,6.229824e+02
2.848347e+03,6.232372e+02
2.849312e+03,6.218904e+02
2.850276e+03,6.214676e+02
2.851240e+03,6.227228e+02
2.852204e+03,6.234337e+02
2.853168e+03,6.100752e+02
2.854133e+03,5.973541e+02
2.855097e+03,6.128938e+02
2.856061e+03,6.176129e+02
2.857025e+03,5.992485e+02
2.857990e+03,5.908997e+02
2.858954e+03,6.030684e+02
2.859918e+03,5.865131e+02
2.860882e+03,5.690068e+02
2.861846e+03,6.002784e+02
2.862811e+03,6.288163e+02
2.863775e+03,5.990087e+02
2.864739e+03,5.802178e+02
2.865703e+03,5.903038e+02
2.866668e+03,5.937122e+02
2.867632e+03,5.910860e+02
2.868596e+03,5.892794e+02
2.869560e+03,5.879636e+02
2.870525e+03,5.847557e+02
2.871489e+03,5.899441e+02
2.872453e+03,6.054268e+02
2.873417e+03,6.078668e+02
2.874382e+03,5.987884e+02
2.875346e+03,6.106111e+02
2.876310e+03,6.283862e+02
2.877274e+03,6.237177e+02
2.878239e+03,6.228474e+02
2.879203e+03,6.348904e+02
2.880167e+03,6.492333e+02
2.881131e+03,6.639211e+02
2.882095e+03,6.616710e+02
2.883060e+03,6.511797e+02
2.884024e+03,6.485394e+02
2.884988e+03,6.421161e+02
2.885952e+03,6.176022e+02
2.886917e+03,6.025819e+02
2.887881e+03,6.051679e+02
2.888845e+03,6.041215e+02
2.889809e+03,5.998734e+02
2.890773e+03,5.928187e+02
2.891738e+03,5.881530e+02
2.892702e+03,5.972933e+02
2.893666e+03,6.028913e+02
2.894630e+03,6.017303e+02
2.895595e+03,5.947206e+02
2.896559e+03,5.855253e+02
2.897523e+03,5.881758e+02
2.898487e+03,5.956662e+02
2.899452e+03,6.033994e+02
2.900416e+03,6.056121e+02
2.901380e+03,6.017555e+02
2.902344e+03,6.038965e+02
2.903309e+03,6.119069e+02
2.904273e+03,6.050443e+02
2.905237e+03,5.919097e+02
2.906201e+03,5.810280e+02
2.907166e+03,5.739745e+02
2.908130e+03,5.707502e+02
2.909094e+03,5.764291e+02
2.910058e+03,5.897826e+02
2.911022e+03,5.876952e+02
2.911987e+03,5.810221e+02
2.912951e+03,5.822623e+02
2.913915e+03,5.816119e+02
2.914879e+03,5.688817e+02
2.915844e+03,5.684487e+02
2.916808e+03,5.796184e+02
2.917772e+03,5.779181e+02
2.918736e+03,5.707338e+02
2.919700e+03,5.690644e+02
2.920665e+03,5.703474e+02
2.921629e+03,5.759093e+02
2.922593e+03,5.780927e+02
2.923557e+03,5.767647e+02
2.924522e+03,5.688668e+02
2.925486e+03,5.621715e+02
2.926450e+03,5.837661e+02
2.927414e+03,5.956906e+02
2.928379e+03,5.752190e+02
2.929343e+03,5.681509e+02
2.930307e+03,5.750800e+02
2.931271e+03,5.736309e+02
2.932236e+03,5.680688e+02
2.933200e+03,5.675093e+02
2.934164e+03,5.664485e+02
2.935128e+03,5.621519e+02
2.936093e+03,5.554000e+02
2.937057e+03,5.481140e+02
2.938021e+03,5.475811e+02
2.938985e+03,5.505225e+02
2.939949e+03,5.508543e+02
2.940914e+03,5.508022e+02
2.941878e+03,5.515182e+02
2.942842e+03,5.487261e+02
2.943806e+03,5.419444e+02
2.944771e+03,5.484512e+02
2.945735e+03,5.603192e+02
2.946699e+03,5.716972e+02
2.947663e+03,5.659415e+02
2.948627e+03,5.394478e+02
2.949592e+03,5.361479e+02
2.950556e+03,5.603746e+02
2.951520e+03,5.588708e+02
2.952484e+03,5.475771e+02
2.953449e+03,5.434247e+02
2.954413e+03,5.471570e+02
2.955377e+03,5.591469e+02
2.956341e+03,5.652757e+02
2.957306e+03,5.658738e+02
2.958270e+03,5.796044e+02
2.959234e+03,5.865639e+02
2.960198e+03,5.716350e+02
2.961163e+03,5.633942e+02
2.962127e+03,5.748971e+02
2.963091e+03,5.786507e+02
2.964055e+03,5.733436e+02
2.965020e+03,5.656356e+02
2.965984e+03,5.608135e+02
2.966948e+03,5.622576e+02
2.967912e+03,5.596411e+02
2.968876e+03,5.452205e+02
2.969841e+03,5.567109e+02
2.970805e+03,5.743673e+02
2.971769e+03,5.577225e+02
2.972733e+03,5.399227e+02
2.973698e+03,5.463904e+02
2.974662e+03,5.485602e+02
2.975626e+03,5.394556e+02
2.976590e+03,5.497178e+02
2.977554e+03,5.629796e+02
2.978519e+03,5.563181e+02
2.979483e+03,5.461241e+02
2.980447e+03,5.430254e+02
2.981411e+03,5.480682e+02
2.982376e+03,5.605042e+02
2.983340e+03,5.704922e+02
2.984304e+03,5.715378e+02
2.985268e+03,5.572153e+02
2.986233e+03,5.439829e+02
2.987197e+03,5.411370e+02
2.988161e+03,5.395971e+02
2.989125e+03,5.409503e+02
2.990090e+03,5.525888e+02
2.991054e+03,5.589081e+02
2.992018e+03,5.464056e+02
2.992982e+03,5.383751e+02
2.993947e+03,5.451447e+02
2.994911e+03,5.537962e+02
2.995875e+03,5.615096e+02
2.996839e+03,5.631339e+02
2.997803e+03,5.613642e+02
2.998768e+03,5.586523e+02
2.999732e+03,5.541259e+02
3.000696e+03,5.495135e+02
3.001660e+03,5.580873e+02
3.002625e+03,5.673431e+02
3.003589e+03,5.655062e+02
3.004553e+03,5.616518e+02
3.005517e+03,5.609133e+02
3.006481e+03,5.523210e+02
3.007446e+03,5.416899e+02
3.008410e+03,5.602386e+02
3.009374e+03,5.734426e+02
3.010338e+03,5.607712e+02
3.011303e+03,5.552402e+02
3.012267e+03,5.665091e+02
3.013231e+03,5.704276e+02
3.014195e+03,5.673525e+02
3.015160e+03,5.560310e+02
3.016124e+03,5.526816e+02
3.017088e+03,5.614177e+02
3.018052e+03,5.658683e+02
3.019017e+03,5.634535e+02
3.019981e+03,5.632250e+02
3.020945e+03,5.634874e+02
3.021909e+03,5.628066e+02
3.022874e+03,5.607617e+02
3.023838e+03,5.576520e+02
3.024802e+03,5.593474e+02
3.025766e+03,5.636534e+02
3.026730e+03,5.643359e+02
3.027695e+03,5.623824e+02
3.028659e+03,5.583654e+02
3.029623e+03,5.611539e+02
3.030587e+03,5.698265e+02
3.031552e+03,5.822736e+02
3.032516e+03,5.874243e+02
3.033480e+03,5.649877e+02
3.034444e+03,5.509806e+02
3.035408e+03,5.512325e+02
3.036373e+03,5.493894e+02
3.037337e+03,5.463655e+02
3.038301e+03,5.547224e+02
3.039265e+03,5.632260e+02
3.040230e+03,5.648036e+02
3.041194e+03,5.647193e+02
3.042158e+03,5.633839e+02
3.043122e+03,5.601107e+02
3.044087e+03,5.579284e+02
3.045051e+03,5.598889e+02
3.046015e+03,5.653343e+02
3.046979e+03,5.752836e+02
3.047944e+03,5.850211e+02
3.048908e+03,5.862523e+02
3.049872e+03,5.636036e+02
3.050836e+03,5.488073e+02
3.051801e+03,5.650014e+02
3.052765e+03,5.766152e+02
3.053729e+03,5.790515e+02
3.054693e+03,5.767682e+02
3.055657e+03,5.784212e+02
3.056622e+03,5.899759e+02
3.057586e+03,5.878176e+02
3.058550e+03,5.661042e+02
3.059514e+03,5.631887e+02
3.060479e+03,5.721700e+02
3.061443e+03,5.813716e+02
3.062407e+03,5.840693e+02
3.063371e+03,5.798701e+02
3.064335e+03,5.871046e+02
3.065300e+03,6.001723e+02
3.066264e+03,5.751867e+02
3.067228e+03,5.562126e+02
3.068192e+03,5.738596e+02
3.069157e+03,5.876879e+02
3.070121e+03,5.927740e+02
3.071085e+03,5.958773e+02
3.072049e+03,5.932737e+02
3.073014e+03,5.632224e+02
3.073978e+03,5.629319e+02
3.074942e+03,6.031672e+02
3.075906e+03,6.071110e+02
3.076871e+03,5.895920e+02
3.077835e+03,5.761158e+02
3.078799e+03,5.733724e+02
3.079763e+03,5.887473e+02
3.080728e+03,6.004780e+02
3.081692e+03,6.022312e+02
3.082656e+03,5.761664e+02
3.083620e+03,5.559512e+02
3.084584e+03,5.596149e+02
3.085549e+03,5.687629e+02
3.086513e+03,5.778935e+02
3.087477e+03,5.668604e+02
3.088441e+03,5.555488e+02
3.089406e+03,5.676711e+02
3.090370e+03,5.832526e+02
3.091334e+03,5.966546e+02
3.092298e+03,6.007698e+02
3.093262e+03,5.973279e+02
3.094227e+03,5.767298e+02
3.095191e+03,5.747916e+02
3.096155e+03,6.067608e+02
3.097119e+03,6.015102e+02
3.098084e+03,5.765638e+02
3.099048e+03,5.711682e+02
3.100012e+03,5.800840e+02
3.100976e+03,6.049756e+02
3.101941e+03,6.110883e+02
3.102905e+03,5.992414e+02
3.103869e+03,5.948182e+02
3.104833e+03,6.007858e+02
3.105798e+03,6.183824e+02
3.106762e+03,6.222057e+02
3.107726e+03,6.096063e+02
3.108690e+03,6.055056e+02
3.109655e+03,6.067824e+02
3.110619e+03,6.146779e+02
3.111583e+03,6.096840e+02
3.112547e+03,5.930488e+02
3.113511e+03,5.863006e+02
3.114476e+03,5.892838e+02
3.115440e+03,6.077020e+02
3.116404e+03,6.186747e+02
3.117368e+03,6.124447e+02
3.118333e+03,6.162363e+02
3.119297e+03,6.217995e+02
3.120261e+03,6.125880e+02
3.121225e+03,6.108146e+02
3.122189e+03,6.293116e+02
3.123154e+03,6.172581e+02
3.124118e+03,5.853662e+02
3.125082e+03,6.002728e+02
3.126046e+03,6.177169e+02
3.127011e+03,6.148521e+02
3.127975e+03,6.171954e+02
3.128939e+03,6.255049e+02
3.129903e+03,6.260194e+02
3.130868e+03,6.225945e+02
3.131832e+03,6.131309e+02
3.132796e+03,6.164957e+02
3.133760e+03,6.266770e+02
3.134725e+03,6.063176e+02
3.135689e+03,5.865188e+02
3.136653e+03,5.970165e+02
3.137617e+03,6.145128e+02
3.138582e+03,6.325787e+02
3.139546e+03,6.176212e+02
3.140510e+03,5.994791e+02
3.141474e+03,6.145539e+02
3.142438e+03,6.211309e+02
3.143403e+03,6.133712e+02
3.144367e+03,6.112599e+02
3.145331e+03,6.143320e+02
3.146295e+03,6.234706e+02
3.147260e+03,6.314573e+02
3.148224e+03,6.342181e+02
3.149188e+03,6.197246e+02
3.150152e+03,6.053817e+02
3.151116e+03,6.130350e+02
3.152081e+03,6.213460e+02
3.153045e+03,6.193633e+02
3.154009e+03,6.352216e+02
3.154973e+03,6.564858e+02
3.155938e+03,6.528991e+02
3.156902e+03,6.430638e+02
3.157866e+03,6.329485e+02
3.158830e+03,6.235436e+02
3.159795e+03,6.207744e+02
3.160759e+03,6.423130e+02
3.161723e+03,6.635750e+02
3.162687e+03,6.793026e+02
3.163652e+03,6.479463e+02
3.164616e+03,6.078474e+02
3.165580e+03,6.305105e+02
3.166544e+03,6.691480e+02
3.167509e+03,7.003262e+02
3.168473e+03,6.713265e+02
3.169437e+03,6.118788e+02
3.170401e+03,6.285773e+02
3.171365e+03,6.488319e+02
3.172330e+03,6.416552e+02
3.173294e+03,6.393400e+02
3.174258e+03,6.408917e+02
3.175222e+03,6.375631e+02
3.176187e+03,6.293660e+02
3.177151e+03,6.152247e+02
3.178115e+03,6.309275e+02
3.179079e+03,6.617725e+02
3.180043e+03,6.518686e+02
3.181008e+03,6.445294e+02
3.181972e+03,6.568193e+02
3.182936e+03,6.621895e+02
3.183900e+03,6.603483e+02
3.184865e+03,6.572225e+02
3.185829e+03,6.625914e+02
3.186793e+03,7.021777e+02
3.187757e+03,6.875326e+02
3.188722e+03,6.488878e+02
3.189686e+03,6.585365e+02
3.190650e+03,6.699043e+02
3.191614e+03,6.632662e+02
3.192579e+03,6.630494e+02
3.193543e+03,6.693184e+02
3.194507e+03,6.794283e+02
3.195471e+03,6.782184e+02
3.196436e+03,6.565867e+02
3.197400e+03,6.517999e+02
3.198364e+03,6.534627e+02
3.199328e+03,6.396630e+02
3.200292e+03,6.400328e+02
3.201257e+03,0.000000e+00
3.202221e+03,0.000000e+00
3.203185e+03,0.000000e+00
3.204149e+03,0.000000e+00
3.205114e+03,0.000000e+00
3.206078e+03,0.000000e+00
3.207042e+03,0.000000e+00
3.208006e+03,0.000000e+00
3.208970e+03,0.000000e+00
3.209935e+03,0.000000e+00
3.210899e+03,0.000000e+00
3.211863e+03,0.000000e+00
3.212827e+03,0.000000e+00
3.213792e+03,0.000000e+00
3.214756e+03,0.000000e+00
3.215720e+03,0.000000e+00
3.216684e+03,0.000000e+00
3.217649e+03,0.000000e+00
3.218613e+03,0.000000e+00
3.219577e+03,0.000000e+00
3.220541e+03,0.000000e+00
3.221506e+03,0.000000e+00
3.222470e+03,0.000000e+00
3.223434e+03,0.000000e+00
3.224398e+03,0.000000e+00
3.225363e+03,0.000000e+00
3.226327e+03,0.000000e+00
3.227291e+03,0.000000e+00
3.228255e+03,0.000000e+00
3.229219e+03,0.000000e+00
3.230184e+03,0.000000e+00
3.231148e+03,0.000000e+00
3.232112e+03,0.000000e+00
3.233076e+03,0.000000e+00
3.234041e+03,0.000000e+00
3.235005e+03,0.000000e+00
3.235969e+03,0.000000e+00
3.236933e+03,0.000000e+00
3.237897e+03,0.000000e+00
3.238862e+03,0.000000e+00
3.239826e+03,0.000000e+00
3.240790e+03,0.000000e+00
3.241754e+03,0.000000e+00
3.242719e+03,0.000000e+00
3.243683e+03,0.000000e+00
3.244647e+03,0.000000e+00
3.245611e+03,0.000000e+00
3.246576e+03,0.000000e+00
3.247540e+03,0.000000e+00
3.248504e+03,0.000000e+00
3.249468e+03,0.000000e+00
3.250433e+03,0.000000e+00
3.251397e+03,0.000000e+00
3.252361e+03,0.000000e+00
3.253325e+03,0.000000e+00
3.254290e+03,0.000000e+00
3.255254e+03,0.000000e+00
3.256218e+03,0.000000e+00
3.257182e+03,0.000000e+00
3.258146e+03,0.000000e+00
3.259111e+03,0.000000e+00
3.260075e+03,0.000000e+00
3.261039e+03,0.000000e+00
3.262003e+03,0.000000e+00
3.262968e+03,0.000000e+00
3.263932e+03,0.000000e+00
3.264896e+03,0.000000e+00
3.265860e+03,0.000000e+00
3.266824e+03,0.000000e+00
3.267789e+03,0.000000e+00
3.268753e+03,0.000000e+00
3.269717e+03,0.000000e+00
3.270681e+03,0.000000e+00
3.271646e+03,0.000000e+00
3.272610e+03,0.000000e+00
3.273574e+03,0.000000e+00
3.274538e+03,0.000000e+00
3.275503e+03,0.000000e+00
3.276467e+03,0.000000e+00
3.277431e+03,0.000000e+00
3.278395e+03,0.000000e+00
3.279360e+03,0.000000e+00
3.280324e+03,0.000000e+00
3.281288e+03,0.000000e+00
3.282252e+03,0.000000e+00
3.283217e+03,0.000000e+00
3.284181e+03,0.000000e+00
3.285145e+03,0.000000e+00
3.286109e+03,0.000000e+00
3.287073e+03,0.000000e+00
3.288038e+03,0.000000e+00
3.289002e+03,0.000000e+00
3.289966e+03,0.000000e+00
3.290930e+03,0.000000e+00
3.291895e+03,0.000000e+00
3.292859e+03,0.000000e+00
3.293823e+03,0.000000e+00
3.294787e+03,0.000000e+00
3.295751e+03,0.000000e+00
3.296716e+03,0.000000e+00
3.297680e+03,0.000000e+00
3.298644e+03,0.000000e+00
3.299608e+03,0.000000e+00
3.300573e+03,0.000000e+00
3.301537e+03,0.000000e+00
3.302501e+03,0.000000e+00
3.303465e+03,0.000000e+00
3.304430e+03,0.000000e+00
3.305394e+03,0.000000e+00
3.306358e+03,0.000000e+00
3.307322e+03,0.000000e+00
3.308287e+03,0.000000e+00
3.309251e+03,0.000000e+00
3.310215e+03,0.000000e+00
3.311179e+03,0.000000e+00
3.312144e+03,0.000000e+00
3.313108e+03,0.000000e+00
3.314072e+03,0.000000e+00
3.315036e+03,0.000000e+00
3.316000e+03,0.000000e+00
3.316965e+03,0.000000e+00
3.317929e+03,0.000000e+00
3.318893e+03,0.000000e+00
3.319857e+03,0.000000e+00
3.320822e+03,0.000000e+00
3.321786e+03,0.000000e+00
3.322750e+03,0.000000e+00
3.323714e+03,0.000000e+00
3.324678e+03,0.000000e+00
3.325643e+03,0.000000e+00
3.326607e+03,0.000000e+00
3.327571e+03,0.000000e+00
3.328535e+03,0.000000e+00
3.329500e+03,0.000000e+00
3.330464e+03,0.000000e+00
3.331428e+03,0.000000e+00
3.332392e+03,0.000000e+00
3.333357e+03,0.000000e+00
3.334321e+03,0.000000e+00
3.335285e+03,0.000000e+00
3.336249e+03,0.000000e+00
3.337214e+03,0.000000e+00
3.338178e+03,0.000000e+00
3.339142e+03,0.000000e+00
3.340106e+03,0.000000e+00
3.341071e+03,0.000000e+00
3.342035e+03,0.000000e+00
3.342999e+03,0.000000e+00
3.343963e+03,0.000000e+00
3.344927e+03,0.000000e+00
3.345892e+03,0.000000e+00
3.346856e+03,0.000000e+00
3.347820e+03,0.000000e+00
3.348784e+03,0.000000e+00
3.349749e+03,0.000000e+00
3.350713e+03,0.000000e+00
3.351677e+03,0.000000e+00
3.352641e+03,0.000000e+00
3.353605e+03,0.000000e+00
3.354570e+03,0.000000e+00
3.355534e+03,0.000000e+00
3.356498e+03,0.000000e+00
3.357462e+03,0.000000e+00
3.358427e+03,0.000000e+00
3.359391e+03,0.000000e+00
3.360355e+03,0.000000e+00
3.361319e+03,0.000000e+00
3.362284e+03,0.000000e+00
3.363248e+03,0.000000e+00
3.364212e+03,0.000000e+00
3.365176e+03,0.000000e+00
3.366141e+03,0.000000e+00
3.367105e+03,0.000000e+00
3.368069e+03,0.000000e+00
3.369033e+03,0.000000e+00
3.369998e+03,0.000000e+00
3.370962e+03,0.000000e+00
3.371926e+03,0.000000e+00
3.372890e+03,0.000000e+00
3.373854e+03,0.000000e+00
3.374819e+03,0.000000e+00
3.375783e+03,0.000000e+00
3.376747e+03,0.000000e+00
3.377711e+03,0.000000e+00
3.378676e+03,0.000000e+00
3.379640e+03,0.000000e+00
3.380604e+03,0.000000e+00
3.381568e+03,0.000000e+00
3.382532e+03,0.000000e+00
3.383497e+03,0.000000e+00
3.384461e+03,0.000000e+00
3.385425e+03,0.000000e+00
3.386389e+03,0.000000e+00
3.387354e+03,0.000000e+00
3.388318e+03,0.000000e+00
3.389282e+03,0.000000e+00
3.390246e+03,0.000000e+00
3.391211e+03,0.000000e+00
3.392175e+03,0.000000e+00
3.393139e+03,0.000000e+00
3.394103e+03,0.000000e+00
3.395068e+03,0.000000e+00
3.396032e+03,0.000000e+00
3.396996e+03,0.000000e+00
3.397960e+03,0.000000e+00
3.398925e+03,0.000000e+00
3.399889e+03,0.000000e+00
3.400853e+03,0.000000e+00
3.401817e+03,0.000000e+00
3.402781e+03,0.000000e+00
3.403746e+03,0.000000e+00
3.404710e+03,0.000000e+00
3.405674e+03,0.000000e+00
3.406638e+03,0.000000e+00
3.407603e+03,0.000000e+00
3.408567e+03,0.000000e+00
3.409531e+03,0.000000e+00
3.410495e+03,0.000000e+00
3.411459e+03,0.000000e+00
3.412424e+03,0.000000e+00
3.413388e+03,0.000000e+00
3.414352e+03,0.000000e+00
3.415316e+03,0.000000e+00
3.416281e+03,0.000000e+00
3.417245e+03,0.000000e+00
3.418209e+03,0.000000e+00
3.419173e+03,0.000000e+00
3.420138e+03,0.000000e+00
3.421102e+03,0.000000e+00
3.422066e+03,0.000000e+00
3.423030e+03,0.000000e+00
3.423995e+03,0.000000e+00
3.424959e+03,0.000000e+00
3.425923e+03,0.000000e+00
3.426887e+03,0.000000e+00
3.427852e+03,0.000000e+00
3.428816e+03,0.000000e+00
3.429780e+03,0.000000e+00
3.430744e+03,0.000000e+00
3.431708e+03,0.000000e+00
3.432673e+03,0.000000e+00
3.433637e+03,0.000000e+00
3.434601e+03,0.000000e+00
3.435565e+03,0.000000e+00
3.436530e+03,0.000000e+00
3.437494e+03,0.000000e+00
3.438458e+03,0.000000e+00
3.439422e+03,0.000000e+00
3.440386e+03,0.000000e+00
3.441351e+03,0.000000e+00
3.442315e+03,0.000000e+00
3.443279e+03,0.000000e+00
3.444243e+03,0.000000e+00
3.445208e+03,0.000000e+00
3.446172e+03,0.000000e+00
3.447136e+03,0.000000e+00
3.448100e+03,0.000000e+00
3.449065e+03,0.000000e+00
3.450029e+03,0.000000e+00
3.450993e+03,0.000000e+00
3.451957e+03,0.000000e+00
3.452922e+03,0.000000e+00
3.453886e+03,0.000000e+00
3.454850e+03,0.000000e+00
3.455814e+03,0.000000e+00
3.456779e+03,0.000000e+00
3.457743e+03,0.000000e+00
3.458707e+03,0.000000e+00
3.459671e+03,0.000000e+00
3.460635e+03,0.000000e+00
3.461600e+03,0.000000e+00
3.462564e+03,0.000000e+00
3.463528e+03,0.000000e+00
3.464492e+03,0.000000e+00
3.465457e+03,0.000000e+00
3.466421e+03,0.000000e+00
3.467385e+03,0.000000e+00
3.468349e+03,0.000000e+00
3.469313e+03,0.000000e+00
3.470278e+03,0.000000e+00
3.471242e+03,0.000000e+00
3.472206e+03,0.000000e+00
3.473170e+03,0.000000e+00
3.474135e+03,0.000000e+00
3.475099e+03,0.000000e+00
3.476063e+03,0.000000e+00
3.477027e+03,0.000000e+00
3.477992e+03,0.000000e+00
3.478956e+03,0.000000e+00
3.479920e+03,0.000000e+00
3.480884e+03,0.000000e+00
3.481849e+03,0.000000e+00
3.482813e+03,0.000000e+00
3.483777e+03,0.000000e+00
3.484741e+03,0.000000e+00
3.485706e+03,0.000000e+00
3.486670e+03,0.000000e+00
3.487634e+03,0.000000e+00
3.488598e+03,0.000000e+00
3.489563e+03,0.000000e+00
3.490527e+03,0.000000e+00
3.491491e+03,0.000000e+00
3.492455e+03,0.000000e+00
3.493419e+03,0.000000e+00
3.494384e+03,0.000000e+00
3.495348e+03,0.000000e+00
3.496312e+03,0.000000e+00
3.497276e+03,0.000000e+00
3.498240e+03,0.000000e+00
3.499205e+03,0.000000e+00
3.500169e+03,0.000000e+00
