9.931763e+01,0.000000e+00
1.002819e+02,0.000000e+00
1.012461e+02,0.000000e+00
1.022103e+02,0.000000e+00
1.031746e+02,0.000000e+00
1.041388e+02,0.000000e+00
1.051030e+02,0.000000e+00
1.060673e+02,0.000000e+00
1.070315e+02,0.000000e+00
1.079957e+02,0.000000e+00
1.089600e+02,0.000000e+00
1.099242e+02,0.000000e+00
1.108884e+02,0.000000e+00
1.118527e+02,0.000000e+00
1.128169e+02,0.000000e+00
1.137811e+02,0.000000e+00
1.147454e+02,0.000000e+00
1.157096e+02,0.000000e+00
1.166738e+02,0.000000e+00
1.176381e+02,0.000000e+00
1.186023e+02,0.000000e+00
1.195665e+02,0.000000e+00
1.205308e+02,0.000000e+00
1.214950e+02,0.000000e+00
1.224592e+02,0.000000e+00
1.234235e+02,0.000000e+00
1.243877e+02,0.000000e+00
1.253519e+02,0.000000e+00
1.263162e+02,0.000000e+00
1.272804e+02,0.000000e+00
1.282446e+02,0.000000e+00
1.292089e+02,0.000000e+00
1.301731e+02,0.000000e+00
1.311373e+02,0.000000e+00
1.321016e+02,0.000000e+00
1.330658e+02,0.000000e+00
1.340300e+02,0.000000e+00
1.349943e+02,0.000000e+00
1.359585e+02,0.000000e+00
1.369227e+02,0.000000e+00
1.378870e+02,0.000000e+00
1.388512e+02,0.000000e+00
1.398154e+02,0.000000e+00
1.407797e+02,0.000000e+00
1.417439e+02,0.000000e+00
1.427081e+02,0.000000e+00
1.436724e+02,0.000000e+00
1.446366e+02,0.000000e+00
1.456008e+02,0.000000e+00
1.465651e+02,0.000000e+00
1.475293e+02,0.000000e+00
1.484935e+02,0.000000e+00
1.494578e+02,0.000000e+00
1.504220e+02,0.000000e+00
1.513862e+02,0.000000e+00
1.523505e+02,0.000000e+00
1.533147e+02,0.000000e+00
1.542789e+02,0.000000e+00
1.552432e+02,0.000000e+00
1.562074e+02,0.000000e+00
1.571716e+02,0.000000e+00
1.581359e+02,0.000000e+00
1.591001e+02,0.000000e+00
1.600643e+02,0.000000e+00
1.610286e+02,0.000000e+00
1.619928e+02,0.000000e+00
1.629570e+02,0.000000e+00
1.639213e+02,0.000000e+00
1.648855e+02,0.000000e+00
1.658497e+02,0.000000e+00
1.668140e+02,0.000000e+00
1.677782e+02,0.000000e+00
1.687424e+02,0.000000e+00
1.697067e+02,0.000000e+00
1.706709e+02,0.000000e+00
1.716351e+02,0.000000e+00
1.725994e+02,0.000000e+00
1.735636e+02,0.000000e+00
1.745278e+02,0.000000e+00
1.754921e+02,0.000000e+00
1.764563e+02,0.000000e+00
1.774205e+02,0.000000e+00
1.783848e+02,0.000000e+00
1.793490e+02,0.000000e+00
1.803132e+02,0.000000e+00
1.812775e+02,0.000000e+00
1.822417e+02,0.000000e+00
1.832059e+02,0.000000e+00
1.841702e+02,0.000000e+00
1.851344e+02,0.000000e+00
1.860986e+02,0.000000e+00
1.870629e+02,0.000000e+00
1.880271e+02,0.000000e+00
1.889913e+02,0.000000e+00
1.899556e+02,0.000000e+00
1.909198e+02,0.000000e+00
1.918840e+02,0.000000e+00
1.928483e+02,0.000000e+00
1.938125e+02,0.000000e+00
1.947767e+02,0.000000e+00
1.957410e+02,0.000000e+00
1.967052e+02,0.000000e+00
1.976694e+02,0.000000e+00
1.986337e+02,0.000000e+00
1.995979e+02,2.633145e+03
2.005621e+02,2.637724e+03
2.015264e+02,2.641192e+03
2.024906e+02,2.642850e+03
2.034548e+02,2.643737e+03
2.044191e+02,2.642512e+03
2.053833e+02,2.639372e+03
2.063475e+02,2.636220e+03
2.073118e+02,2.635438e+03
2.082760e+02,2.637905e+03
2.092402e+02,2.640156e+03
2.102045e+02,2.643966e+03
2.111687e+02,2.648257e+03
2.121329e+02,2.651874e+03
2.130972e+02,2.653788e+03
2.140614e+02,2.653830e+03
2.150256e+02,2.652373e+03
2.159899e+02,2.647883e+03
2.169541e+02,2.644887e+03
2.179183e+02,2.645842e+03
2.188826e+02,2.649854e+03
2.198468e+02,2.654593e+03
2.208110e+02,2.658804e+03
2.217753e+02,2.662124e+03
2.227395e+02,2.663471e+03
2.237037e+02,2.662603e+03
2.246680e+02,2.661403e+03
2.256322e+02,2.661488e+03
2.265964e+02,2.665928e+03
2.275607e+02,2.670170e+03
2.285249e+02,2.666908e+03
2.294892e+02,2.654311e+03
2.304534e+02,2.643643e+03
2.314176e+02,2.643437e+03
2.323819e+02,2.650927e+03
2.333461e+02,2.657315e+03
2.343103e+02,2.659588e+03
2.352746e+02,2.659777e+03
2.362388e+02,2.661100e+03
2.372030e+02,2.663979e+03
2.381673e+02,2.666486e+03
2.391315e+02,2.666821e+03
2.400957e+02,2.665423e+03
2.410600e+02,2.664100e+03
2.420242e+02,2.664884e+03
2.429884e+02,2.667681e+03
2.439527e+02,2.670111e+03
2.449169e+02,2.669467e+03
2.458811e+02,2.664703e+03
2.468454e+02,2.661541e+03
2.478096e+02,2.658815e+03
2.487738e+02,2.658303e+03
2.497381e+02,2.662620e+03
2.507023e+02,2.672049e+03
2.516665e+02,2.683014e+03
2.526308e+02,2.689541e+03
2.535950e+02,2.685047e+03
2.545592e+02,2.681462e+03
2.555235e+02,2.681380e+03
2.564877e+02,2.682612e+03
2.574519e+02,2.682441e+03
2.584161e+02,2.679279e+03
2.593804e+02,2.674027e+03
2.603446e+02,2.672136e+03
2.613088e+02,2.675901e+03
2.622731e+02,2.679786e+03
2.632373e+02,2.681464e+03
2.642015e+02,2.680710e+03
2.651658e+02,2.679815e+03
2.661300e+02,2.683065e+03
2.670942e+02,2.692743e+03
2.680585e+02,2.698811e+03
2.690227e+02,2.696520e+03
2.699869e+02,2.691161e+03
2.709512e+02,2.685907e+03
2.719154e+02,2.682338e+03
2.728796e+02,2.680209e+03
2.738439e+02,2.678454e+03
2.748081e+02,2.677034e+03
2.757723e+02,2.679231e+03
2.767366e+02,2.689028e+03
2.777008e+02,2.702810e+03
2.786650e+02,2.710301e+03
2.796293e+02,2.704053e+03
2.805935e+02,2.691289e+03
2.815577e+02,2.683933e+03
2.825220e+02,2.684665e+03
2.834862e+02,2.689690e+03
2.844504e+02,2.693219e+03
2.854147e+02,2.696625e+03
2.863789e+02,2.698317e+03
2.873431e+02,2.697687e+03
2.883074e+02,2.695891e+03
2.892716e+02,2.694391e+03
2.902358e+02,2.693481e+03
2.912001e+02,2.692817e+03
2.921643e+02,2.691638e+03
2.931285e+02,2.688825e+03
2.940928e+02,2.687589e+03
2.950570e+02,2.690083e+03
2.960212e+02,2.695370e+03
2.969855e+02,2.700258e+03
2.979497e+02,2.701195e+03
2.989139e+02,2.696329e+03
2.998782e+02,2.693652e+03
3.008424e+02,2.697200e+03
3.018066e+02,2.702459e+03
3.027709e+02,2.704859e+03
3.037351e+02,2.701776e+03
3.046993e+02,2.695989e+03
3.056636e+02,2.693608e+03
3.066278e+02,2.696718e+03
3.075920e+02,2.699731e+03
3.085563e+02,2.699149e+03
3.095205e+02,2.697044e+03
3.104847e+02,2.697011e+03
3.114490e+02,2.701253e+03
3.124132e+02,2.707413e+03
3.133774e+02,2.711492e+03
3.143417e+02,2.712709e+03
3.153059e+02,2.711381e+03
3.162701e+02,2.708454e+03
3.172344e+02,2.703816e+03
3.181986e+02,2.700521e+03
3.191628e+02,2.700095e+03
3.201271e+02,2.701846e+03
3.210913e+02,2.704334e+03
3.220555e+02,2.706804e+03
3.230198e+02,2.709073e+03
3.239840e+02,2.711224e+03
3.249482e+02,2.713036e+03
3.259125e+02,2.714618e+03
3.268767e+02,2.716417e+03
3.278409e+02,2.718242e+03
3.288052e+02,2.719401e+03
3.297694e+02,2.718925e+03
3.307336e+02,2.716298e+03
3.316979e+02,2.714501e+03
3.326621e+02,2.715831e+03
3.336263e+02,2.715831e+03
3.345906e+02,2.711797e+03
3.355548e+02,2.703773e+03
3.365190e+02,2.695954e+03
3.374833e+02,2.692230e+03
3.384475e+02,2.692591e+03
3.394117e+02,2.695190e+03
3.403760e+02,2.700414e+03
3.413402e+02,2.706464e+03
3.423044e+02,2.710425e+03
3.432687e+02,2.709478e+03
3.442329e+02,2.707436e+03
3.451971e+02,2.707570e+03
3.461614e+02,2.709266e+03
3.471256e+02,2.709970e+03
3.480898e+02,2.708427e+03
3.490541e+02,2.704494e+03
3.500183e+02,2.701834e+03
3.509825e+02,2.702628e+03
3.519468e+02,2.704756e+03
3.529110e+02,2.705380e+03
3.538752e+02,2.703313e+03
3.548395e+02,2.700301e+03
3.558037e+02,2.700698e+03
3.567680e+02,2.708950e+03
3.577322e+02,2.713370e+03
3.586964e+02,2.710455e+03
3.596607e+02,2.705333e+03
3.606249e+02,2.703152e+03
3.615891e+02,2.706608e+03
3.625534e+02,2.712004e+03
3.635176e+02,2.711917e+03
3.644818e+02,2.704873e+03
3.654461e+02,2.698367e+03
3.664103e+02,2.699267e+03
3.673745e+02,2.707378e+03
3.683388e+02,2.715293e+03
3.693030e+02,2.717655e+03
3.702672e+02,2.717249e+03
3.712315e+02,2.719750e+03
3.721957e+02,2.726591e+03
3.731599e+02,2.733597e+03
3.741242e+02,2.735211e+03
3.750884e+02,2.727444e+03
3.760526e+02,2.722351e+03
3.770169e+02,2.722209e+03
3.779811e+02,2.724073e+03
3.789453e+02,2.724324e+03
3.799096e+02,2.720995e+03
3.808738e+02,2.714647e+03
3.818380e+02,2.708112e+03
3.828023e+02,2.702134e+03
3.837665e+02,2.697531e+03
3.847307e+02,2.693408e+03
3.856950e+02,2.690210e+03
3.866592e+02,2.688929e+03
3.876234e+02,2.691263e+03
3.885877e+02,2.695813e+03
3.895519e+02,2.698758e+03
3.905161e+02,2.699518e+03
3.914804e+02,2.698301e+03
3.924446e+02,2.694713e+03
3.934088e+02,2.688171e+03
3.943731e+02,2.684333e+03
3.953373e+02,2.686555e+03
3.963015e+02,2.691722e+03
3.972658e+02,2.695773e+03
3.982300e+02,2.697670e+03
3.991942e+02,2.698390e+03
4.001585e+02,2.698315e+03
4.011227e+02,2.692218e+03
4.020869e+02,2.689435e+03
4.030512e+02,2.692348e+03
4.040154e+02,2.698030e+03
4.049796e+02,2.703135e+03
4.059439e+02,2.706314e+03
4.069081e+02,2.707247e+03
4.078723e+02,2.703953e+03
4.088366e+02,2.692714e+03
4.098008e+02,2.681764e+03
4.107650e+02,2.679552e+03
4.117293e+02,2.685522e+03
4.126935e+02,2.689652e+03
4.136577e+02,2.686696e+03
4.146220e+02,2.680272e+03
4.155862e+02,2.675307e+03
4.165504e+02,2.672844e+03
4.175147e+02,2.672824e+03
4.184789e+02,2.675042e+03
4.194431e+02,2.682563e+03
4.204074e+02,2.688478e+03
4.213716e+02,2.693438e+03
4.223358e+02,2.696425e+03
4.233001e+02,2.695887e+03
4.242643e+02,2.690814e+03
4.252285e+02,2.683478e+03
4.261928e+02,2.678777e+03
4.271570e+02,2.677679e+03
4.281212e+02,2.677774e+03
4.290855e+02,2.677508e+03
4.300497e+02,2.677068e+03
4.310139e+02,2.677502e+03
4.319782e+02,2.680710e+03
4.329424e+02,2.684885e+03
4.339066e+02,2.687414e+03
4.348709e+02,2.687752e+03
4.358351e+02,2.687054e+03
4.367993e+02,2.686616e+03
4.377636e+02,2.687144e+03
4.387278e+02,2.686446e+03
4.396920e+02,2.683413e+03
4.406563e+02,2.680606e+03
4.416205e+02,2.679929e+03
4.425847e+02,2.681664e+03
4.435490e+02,2.683813e+03
4.445132e+02,2.683584e+03
4.454774e+02,2.680684e+03
4.464417e+02,2.678844e+03
4.474059e+02,2.678778e+03
4.483701e+02,2.679466e+03
4.493344e+02,2.680280e+03
4.502986e+02,2.684015e+03
4.512628e+02,2.686183e+03
4.522271e+02,2.681465e+03
4.531913e+02,2.671416e+03
4.541555e+02,2.663188e+03
4.551198e+02,2.661397e+03
4.560840e+02,2.666211e+03
4.570482e+02,2.667538e+03
4.580125e+02,2.663617e+03
4.589767e+02,2.660325e+03
4.599409e+02,2.658055e+03
4.609052e+02,2.656531e+03
4.618694e+02,2.656347e+03
4.628336e+02,2.660756e+03
4.637979e+02,2.668949e+03
4.647621e+02,2.670682e+03
4.657263e+02,2.662727e+03
4.666906e+02,2.653050e+03
4.676548e+02,2.648354e+03
4.686190e+02,2.648730e+03
4.695833e+02,2.650991e+03
4.705475e+02,2.656337e+03
4.715117e+02,2.662068e+03
4.724760e+02,2.664070e+03
4.734402e+02,2.660957e+03
4.744044e+02,2.655105e+03
4.753687e+02,2.651919e+03
4.763329e+02,2.654624e+03
4.772971e+02,2.655124e+03
4.782614e+02,2.649005e+03
4.792256e+02,2.641316e+03
4.801898e+02,2.638389e+03
4.811541e+02,2.645247e+03
4.821183e+02,2.655526e+03
4.830826e+02,2.660128e+03
4.840468e+02,2.658561e+03
4.850110e+02,2.655271e+03
4.859753e+02,2.652743e+03
4.869395e+02,2.650872e+03
4.879037e+02,2.650715e+03
4.888680e+02,2.655175e+03
4.898322e+02,2.659461e+03
4.907964e+02,2.661551e+03
4.917607e+02,2.661327e+03
4.927249e+02,2.659194e+03
4.936891e+02,2.653691e+03
4.946534e+02,2.644250e+03
4.956176e+02,2.640287e+03
4.965818e+02,2.647010e+03
4.975461e+02,2.655094e+03
4.985103e+02,2.656049e+03
4.994745e+02,2.647638e+03
5.004388e+02,2.638537e+03
5.014030e+02,2.632238e+03
5.023672e+02,2.628592e+03
5.033315e+02,2.627194e+03
5.042957e+02,2.627895e+03
5.052599e+02,2.629603e+03
5.062242e+02,2.630722e+03
5.071884e+02,2.631791e+03
5.081526e+02,2.632512e+03
5.091169e+02,2.632348e+03
5.100811e+02,2.632747e+03
5.110453e+02,2.635118e+03
5.120095e+02,2.642073e+03
5.129738e+02,2.649561e+03
5.139380e+02,2.651690e+03
5.149022e+02,2.648626e+03
5.158665e+02,2.644981e+03
5.168307e+02,2.642084e+03
5.177949e+02,2.638654e+03
5.187592e+02,2.635000e+03
5.197234e+02,2.634508e+03
5.206876e+02,2.634631e+03
5.216519e+02,2.635289e+03
5.226161e+02,2.635992e+03
5.235803e+02,2.635169e+03
5.245446e+02,2.630169e+03
5.255088e+02,2.621798e+03
5.264730e+02,2.615972e+03
5.274373e+02,2.613230e+03
5.284015e+02,2.612207e+03
5.293657e+02,2.611887e+03
5.303300e+02,2.612597e+03
5.312942e+02,2.612127e+03
5.322584e+02,2.610626e+03
5.332227e+02,2.609296e+03
5.341869e+02,2.608714e+03
5.351511e+02,2.608500e+03
5.361154e+02,2.607727e+03
5.370796e+02,2.604900e+03
5.380438e+02,2.599103e+03
5.390081e+02,2.596629e+03
5.399723e+02,2.600603e+03
5.409365e+02,2.607490e+03
5.419008e+02,2.613502e+03
5.428650e+02,2.617849e+03
5.438292e+02,2.620265e+03
5.447935e+02,2.620543e+03
5.457577e+02,2.618925e+03
5.467219e+02,2.615463e+03
5.476862e+02,2.609907e+03
5.486504e+02,2.603411e+03
5.496146e+02,2.600043e+03
5.505789e+02,2.603759e+03
5.515431e+02,2.604109e+03
5.525073e+02,2.597247e+03
5.534716e+02,2.588011e+03
5.544358e+02,2.582093e+03
5.554000e+02,2.581092e+03
5.563643e+02,2.582937e+03
5.573285e+02,2.586825e+03
5.582927e+02,2.592126e+03
5.592570e+02,2.596410e+03
5.602212e+02,2.598384e+03
5.611854e+02,2.597857e+03
5.621497e+02,2.597897e+03
5.631139e+02,2.598906e+03
5.640781e+02,2.598799e+03
5.650424e+02,2.598356e+03
5.660066e+02,2.597385e+03
5.669708e+02,2.594685e+03
5.679351e+02,2.587088e+03
5.688993e+02,2.578488e+03
5.698635e+02,2.577203e+03
5.708278e+02,2.584560e+03
5.717920e+02,2.592837e+03
5.727562e+02,2.593927e+03
5.737205e+02,2.583635e+03
5.746847e+02,2.578174e+03
5.756489e+02,2.579931e+03
5.766132e+02,2.583357e+03
5.775774e+02,2.586820e+03
5.785416e+02,2.589923e+03
5.795059e+02,2.590774e+03
5.804701e+02,2.586647e+03
5.814343e+02,2.578921e+03
5.823986e+02,2.571450e+03
5.833628e+02,2.564572e+03
5.843270e+02,2.559890e+03
5.852913e+02,2.559492e+03
5.862555e+02,2.567698e+03
5.872197e+02,2.573813e+03
5.881840e+02,2.576283e+03
5.891482e+02,2.577150e+03
5.901124e+02,2.578108e+03
5.910767e+02,2.579633e+03
5.920409e+02,2.581277e+03
5.930051e+02,2.583352e+03
5.939694e+02,2.585179e+03
5.949336e+02,2.583683e+03
5.958978e+02,2.577376e+03
5.968621e+02,2.568156e+03
5.978263e+02,2.560542e+03
5.987905e+02,2.555014e+03
5.997548e+02,2.551511e+03
6.007190e+02,2.551095e+03
6.016832e+02,2.552840e+03
6.026475e+02,2.555202e+03
6.036117e+02,2.557011e+03
6.045759e+02,2.558766e+03
6.055402e+02,2.561199e+03
6.065044e+02,2.563888e+03
6.074686e+02,2.566439e+03
6.084329e+02,2.569742e+03
6.093971e+02,2.573262e+03
6.103613e+02,2.573094e+03
6.113256e+02,2.565512e+03
6.122899e+02,2.558355e+03
6.132541e+02,2.551799e+03
6.142183e+02,2.546630e+03
6.151826e+02,2.544275e+03
6.161468e+02,2.548748e+03
6.171110e+02,2.555270e+03
6.180753e+02,2.557336e+03
6.190395e+02,2.555022e+03
6.200037e+02,2.550996e+03
6.209680e+02,2.546293e+03
6.219322e+02,2.541377e+03
6.228964e+02,2.538775e+03
6.238607e+02,2.541780e+03
6.248249e+02,2.543173e+03
6.257891e+02,2.537524e+03
6.267534e+02,2.526993e+03
6.277176e+02,2.519974e+03
6.286818e+02,2.523581e+03
6.296461e+02,2.531740e+03
6.306103e+02,2.538631e+03
6.315745e+02,2.543972e+03
6.325388e+02,2.547264e+03
6.335030e+02,2.547068e+03
6.344672e+02,2.542811e+03
6.354315e+02,2.540673e+03
6.363957e+02,2.541424e+03
6.373599e+02,2.542223e+03
6.383242e+02,2.542500e+03
6.392884e+02,2.542571e+03
6.402526e+02,2.542315e+03
6.412169e+02,2.541774e+03
6.421811e+02,2.540657e+03
6.431453e+02,2.538891e+03
6.441096e+02,2.536359e+03
6.450738e+02,2.532719e+03
6.460380e+02,2.527346e+03
6.470023e+02,2.520704e+03
6.479665e+02,2.516615e+03
6.489307e+02,2.514945e+03
6.498950e+02,2.514625e+03
6.508592e+02,2.514664e+03
6.518234e+02,2.514637e+03
6.527877e+02,2.515308e+03
6.537519e+02,2.519100e+03
6.547161e+02,2.522424e+03
6.556804e+02,2.522417e+03
6.566446e+02,2.519061e+03
6.576088e+02,2.514366e+03
6.585731e+02,2.509103e+03
6.595373e+02,2.503659e+03
6.605015e+02,2.500536e+03
6.614658e+02,2.500282e+03
6.624300e+02,2.501663e+03
6.633942e+02,2.503673e+03
6.643585e+02,2.506679e+03
6.653227e+02,2.508936e+03
6.662869e+02,2.509913e+03
6.672512e+02,2.509834e+03
6.682154e+02,2.508792e+03
6.691796e+02,2.506514e+03
6.701439e+02,2.503408e+03
6.711081e+02,2.499000e+03
6.720723e+02,2.494232e+03
6.730366e+02,2.491821e+03
6.740008e+02,2.492621e+03
6.749650e+02,2.493900e+03
6.759293e+02,2.491850e+03
6.768935e+02,2.484414e+03
6.778577e+02,2.480851e+03
6.788220e+02,2.485246e+03
6.797862e+02,2.491925e+03
6.807504e+02,2.496469e+03
6.817147e+02,2.497864e+03
6.826789e+02,2.497419e+03
6.836431e+02,2.492731e+03
6.846074e+02,2.486841e+03
6.855716e+02,2.484677e+03
6.865358e+02,2.487375e+03
6.875001e+02,2.490681e+03
6.884643e+02,2.488430e+03
6.894285e+02,2.480800e+03
6.903928e+02,2.476624e+03
6.913570e+02,2.477645e+03
6.923212e+02,2.480424e+03
6.932855e+02,2.481552e+03
6.942497e+02,2.480546e+03
6.952139e+02,2.481051e+03
6.961782e+02,2.484674e+03
6.971424e+02,2.488172e+03
6.981066e+02,2.488223e+03
6.990709e+02,2.483298e+03
7.000351e+02,2.476923e+03
7.009993e+02,2.472348e+03
7.019636e+02,2.470103e+03
7.029278e+02,2.470517e+03
7.038920e+02,2.473573e+03
7.048563e+02,2.476536e+03
7.058205e+02,2.476760e+03
7.067847e+02,2.474871e+03
7.077490e+02,2.471476e+03
7.087132e+02,2.466093e+03
7.096774e+02,2.461805e+03
7.106417e+02,2.459283e+03
7.116059e+02,2.458614e+03
7.125701e+02,2.456854e+03
7.135344e+02,2.450656e+03
7.144986e+02,2.445426e+03
7.154628e+02,2.446683e+03
7.164271e+02,2.454723e+03
7.173913e+02,2.463938e+03
7.183555e+02,2.469996e+03
7.193198e+02,2.472771e+03
7.202840e+02,2.471130e+03
7.212482e+02,2.464391e+03
7.222125e+02,2.457065e+03
7.231767e+02,2.453409e+03
7.241409e+02,2.453675e+03
7.251052e+02,2.454909e+03
7.260694e+02,2.459723e+03
7.270336e+02,2.463183e+03
7.279979e+02,2.462123e+03
7.289621e+02,2.456053e+03
7.299263e+02,2.451166e+03
7.308906e+02,2.451342e+03
7.318548e+02,2.452859e+03
7.328190e+02,2.452371e+03
7.337833e+02,2.449432e+03
7.347475e+02,2.444690e+03
7.357117e+02,2.438228e+03
7.366760e+02,2.430782e+03
7.376402e+02,2.426074e+03
7.386044e+02,2.424769e+03
7.395687e+02,2.425162e+03
7.405329e+02,2.425597e+03
7.414971e+02,2.426047e+03
7.424614e+02,2.425933e+03
7.434256e+02,2.426937e+03
7.443898e+02,2.428430e+03
7.453541e+02,2.428566e+03
7.463183e+02,2.426353e+03
7.472825e+02,2.424094e+03
7.482468e+02,2.424909e+03
7.492110e+02,2.425391e+03
7.501752e+02,2.421831e+03
7.511395e+02,2.415548e+03
7.521037e+02,2.410398e+03
7.530679e+02,2.408833e+03
7.540322e+02,2.409834e+03
7.549964e+02,2.410601e+03
7.559606e+02,2.411626e+03
7.569249e+02,2.412613e+03
7.578891e+02,2.412987e+03
7.588533e+02,2.412856e+03
7.598176e+02,2.415707e+03
7.607818e+02,2.424696e+03
7.617460e+02,2.429474e+03
7.627103e+02,2.424786e+03
7.636745e+02,2.414308e+03
7.646387e+02,2.406992e+03
7.656030e+02,2.407898e+03
7.665672e+02,2.411915e+03
7.675314e+02,2.415094e+03
7.684957e+02,2.415683e+03
7.694599e+02,2.412599e+03
7.704241e+02,2.405417e+03
7.713884e+02,2.397020e+03
7.723526e+02,2.393661e+03
7.733168e+02,2.396247e+03
7.742811e+02,2.401229e+03
7.752453e+02,2.406392e+03
7.762095e+02,2.410663e+03
7.771738e+02,2.412644e+03
7.781380e+02,2.409688e+03
7.791022e+02,2.405776e+03
7.800665e+02,2.403028e+03
7.810307e+02,2.400765e+03
7.819949e+02,2.397556e+03
7.829592e+02,2.393537e+03
7.839234e+02,2.389640e+03
7.848876e+02,2.384903e+03
7.858519e+02,2.380071e+03
7.868161e+02,2.376663e+03
7.877803e+02,2.375266e+03
7.887446e+02,2.375617e+03
7.897088e+02,2.380028e+03
7.906730e+02,2.388294e+03
7.916373e+02,2.392168e+03
7.926015e+02,2.387056e+03
7.935657e+02,2.376327e+03
7.945300e+02,2.369845e+03
7.954942e+02,2.370352e+03
7.964584e+02,2.370827e+03
7.974227e+02,2.373715e+03
7.983869e+02,2.377755e+03
7.993511e+02,2.378460e+03
8.003154e+02,2.371302e+03
8.012796e+02,2.364860e+03
8.022438e+02,2.361912e+03
8.032081e+02,2.361376e+03
8.041723e+02,2.362609e+03
8.051365e+02,2.365182e+03
8.061008e+02,2.367059e+03
8.070650e+02,2.365457e+03
8.080292e+02,2.361670e+03
8.089935e+02,2.359397e+03
8.099577e+02,2.359775e+03
8.109219e+02,2.360570e+03
8.118862e+02,2.358081e+03
8.128504e+02,2.352495e+03
8.138146e+02,2.350787e+03
8.147789e+02,2.354098e+03
8.157431e+02,2.357494e+03
8.167073e+02,2.357146e+03
8.176716e+02,2.353137e+03
8.186358e+02,2.352292e+03
8.196000e+02,2.358073e+03
8.205643e+02,2.363477e+03
8.215285e+02,2.364664e+03
8.224927e+02,2.361733e+03
8.234570e+02,2.357390e+03
8.244212e+02,2.349740e+03
8.253854e+02,2.343273e+03
8.263497e+02,2.341127e+03
8.273139e+02,2.341607e+03
8.282781e+02,2.341353e+03
8.292424e+02,2.338557e+03
8.302066e+02,2.335848e+03
8.311708e+02,2.336600e+03
8.321351e+02,2.340233e+03
8.330993e+02,2.343874e+03
8.340635e+02,2.345632e+03
8.350278e+02,2.345788e+03
8.359920e+02,2.346135e+03
8.369562e+02,2.347042e+03
8.379205e+02,2.346435e+03
8.388847e+02,2.342810e+03
8.398489e+02,2.337847e+03
8.408132e+02,2.335502e+03
8.417774e+02,2.338545e+03
8.427416e+02,2.339452e+03
8.437059e+02,2.335391e+03
8.446701e+02,2.330028e+03
8.456343e+02,2.327492e+03
8.465986e+02,2.329273e+03
8.475628e+02,2.331404e+03
8.485270e+02,2.334300e+03
8.494913e+02,2.335917e+03
8.504555e+02,2.333359e+03
8.514197e+02,2.326093e+03
8.523840e+02,2.320001e+03
8.533482e+02,2.321237e+03
8.543124e+02,2.325896e+03
8.552767e+02,2.326790e+03
8.562409e+02,2.322804e+03
8.572051e+02,2.317292e+03
8.581694e+02,2.313959e+03
8.591336e+02,2.312991e+03
8.600978e+02,2.313350e+03
8.610621e+02,2.315917e+03
8.620263e+02,2.317657e+03
8.629905e+02,2.314821e+03
8.639548e+02,2.306075e+03
8.649190e+02,2.302274e+03
8.658832e+02,2.308499e+03
8.668475e+02,2.315131e+03
8.678117e+02,2.318274e+03
8.687759e+02,2.318006e+03
8.697402e+02,2.315932e+03
8.707044e+02,2.306704e+03
8.716686e+02,2.298988e+03
8.726329e+02,2.299003e+03
8.735971e+02,2.303864e+03
8.745613e+02,2.307200e+03
8.755256e+02,2.306149e+03
8.764898e+02,2.305007e+03
8.774540e+02,2.307353e+03
8.784183e+02,2.310537e+03
8.793825e+02,2.309302e+03
8.803467e+02,2.300653e+03
8.813110e+02,2.291405e+03
8.822752e+02,2.292532e+03
8.832394e+02,2.301293e+03
8.842037e+02,2.305727e+03
8.851679e+02,2.302131e+03
8.861321e+02,2.294965e+03
8.870964e+02,2.290850e+03
8.880606e+02,2.289830e+03
8.890248e+02,2.287592e+03
8.899891e+02,2.284378e+03
8.909533e+02,2.281364e+03
8.919175e+02,2.279006e+03
8.928818e+02,2.277145e+03
8.938460e+02,2.276485e+03
8.948102e+02,2.277695e+03
8.957745e+02,2.278223e+03
8.967387e+02,2.275993e+03
8.977029e+02,2.270704e+03
8.986672e+02,2.267846e+03
8.996314e+02,2.271401e+03
9.005956e+02,2.276366e+03
9.015599e+02,2.281877e+03
9.025241e+02,2.286443e+03
9.034883e+02,2.287572e+03
9.044526e+02,2.281059e+03
9.054168e+02,2.272841e+03
9.063810e+02,2.267645e+03
9.073453e+02,2.265755e+03
9.083095e+02,2.265753e+03
9.092737e+02,2.266803e+03
9.102380e+02,2.267104e+03
9.112022e+02,2.263819e+03
9.121664e+02,2.258403e+03
9.131307e+02,2.255152e+03
9.140949e+02,2.256097e+03
9.150591e+02,2.260152e+03
9.160234e+02,2.266074e+03
9.169876e+02,2.271959e+03
9.179518e+02,2.270606e+03
9.189161e+02,2.260196e+03
9.198803e+02,2.247817e+03
9.208445e+02,2.242082e+03
9.218088e+02,2.244764e+03
9.227730e+02,2.245233e+03
9.237372e+02,2.241586e+03
9.247015e+02,2.238220e+03
9.256657e+02,2.238637e+03
9.266299e+02,2.242909e+03
9.275942e+02,2.244296e+03
9.285584e+02,2.238084e+03
9.295226e+02,2.233635e+03
9.304869e+02,2.237250e+03
9.314511e+02,2.246145e+03
9.324153e+02,2.250143e+03
9.333796e+02,2.245517e+03
9.343438e+02,2.239169e+03
9.353080e+02,2.230440e+03
9.362723e+02,2.220848e+03
9.372365e+02,2.213234e+03
9.382007e+02,2.209040e+03
9.391650e+02,2.208995e+03
9.401292e+02,2.217426e+03
9.410934e+02,2.227908e+03
9.420577e+02,2.231717e+03
9.430219e+02,2.226117e+03
9.439861e+02,2.219395e+03
9.449504e+02,2.218141e+03
9.459146e+02,2.221224e+03
9.468788e+02,2.226656e+03
9.478431e+02,2.232525e+03
9.488073e+02,2.235897e+03
9.497715e+02,2.234973e+03
9.507358e+02,2.231302e+03
9.517000e+02,2.227959e+03
9.526642e+02,2.225549e+03
9.536285e+02,2.221901e+03
9.545927e+02,2.213983e+03
9.555569e+02,2.204176e+03
9.565212e+02,2.201231e+03
9.574854e+02,2.206046e+03
9.584496e+02,2.212708e+03
9.594139e+02,2.218468e+03
9.603781e+02,2.222448e+03
9.613423e+02,2.223698e+03
9.623066e+02,2.221813e+03
9.632708e+02,2.219727e+03
9.642350e+02,2.218514e+03
9.651993e+02,2.217909e+03
9.661635e+02,2.216631e+03
9.671277e+02,2.213155e+03
9.680920e+02,2.210955e+03
9.690562e+02,2.212045e+03
9.700204e+02,2.211913e+03
9.709847e+02,2.206752e+03
9.719489e+02,2.195178e+03
9.729131e+02,2.189445e+03
9.738774e+02,2.194835e+03
9.748416e+02,2.201720e+03
9.758058e+02,2.206282e+03
9.767701e+02,2.207856e+03
9.777343e+02,2.206909e+03
9.786985e+02,2.200111e+03
9.796628e+02,2.193960e+03
9.806270e+02,2.191856e+03
9.815912e+02,2.191937e+03
9.825555e+02,2.191211e+03
9.835197e+02,2.190305e+03
9.844839e+02,2.188358e+03
9.854482e+02,2.183343e+03
9.864124e+02,2.178313e+03
9.873766e+02,2.176543e+03
9.883409e+02,2.179395e+03
9.893051e+02,2.182670e+03
9.902693e+02,2.183336e+03
9.912336e+02,2.183555e+03
9.921978e+02,2.185197e+03
9.931620e+02,2.187670e+03
9.941263e+02,2.189245e+03
9.950905e+02,2.188069e+03
9.960547e+02,2.186242e+03
9.970190e+02,2.187539e+03
9.979832e+02,2.190571e+03
9.989474e+02,2.190438e+03
9.999117e+02,2.183375e+03
1.000876e+03,2.174494e+03
1.001840e+03,2.170938e+03
1.002804e+03,2.172381e+03
1.003769e+03,2.176853e+03
1.004733e+03,2.183614e+03
1.005697e+03,2.189380e+03
1.006661e+03,2.189002e+03
1.007626e+03,2.183754e+03
1.008590e+03,2.177958e+03
1.009554e+03,2.171791e+03
1.010518e+03,2.166554e+03
1.011482e+03,2.165935e+03
1.012447e+03,2.168856e+03
1.013411e+03,2.165690e+03
1.014375e+03,2.156614e+03
1.015339e+03,2.149301e+03
1.016304e+03,2.148591e+03
1.017268e+03,2.153327e+03
1.018232e+03,2.159019e+03
1.019196e+03,2.165864e+03
1.020161e+03,2.169538e+03
1.021125e+03,2.168298e+03
1.022089e+03,2.164224e+03
1.023053e+03,2.160471e+03
1.024018e+03,2.155678e+03
1.024982e+03,2.154216e+03
1.025946e+03,2.157365e+03
1.026910e+03,2.161770e+03
1.027875e+03,2.164686e+03
1.028839e+03,2.167553e+03
1.029803e+03,2.167866e+03
1.030767e+03,2.164848e+03
1.031731e+03,2.160781e+03
1.032696e+03,2.156375e+03
1.033660e+03,2.151317e+03
1.034624e+03,2.148526e+03
1.035588e+03,2.150079e+03
1.036552e+03,2.151823e+03
1.037517e+03,2.151500e+03
1.038481e+03,2.149104e+03
1.039445e+03,2.146887e+03
1.040409e+03,2.144607e+03
1.041374e+03,2.143112e+03
1.042338e+03,2.143272e+03
1.043302e+03,2.144793e+03
1.044266e+03,2.146983e+03
1.045231e+03,2.152498e+03
1.046195e+03,2.153186e+03
1.047159e+03,2.143873e+03
1.048123e+03,2.135016e+03
1.049088e+03,2.134768e+03
1.050052e+03,2.145408e+03
1.051016e+03,2.152005e+03
1.051980e+03,2.152006e+03
1.052945e+03,2.150094e+03
1.053909e+03,2.144922e+03
1.054873e+03,2.137230e+03
1.055837e+03,2.133382e+03
1.056802e+03,2.140734e+03
1.057766e+03,2.144827e+03
1.058730e+03,2.140751e+03
1.059694e+03,2.133466e+03
1.060658e+03,2.128866e+03
1.061623e+03,2.130272e+03
1.062587e+03,2.130155e+03
1.063551e+03,2.125320e+03
1.064515e+03,2.120740e+03
1.065479e+03,2.119774e+03
1.066444e+03,2.123289e+03
1.067408e+03,2.126812e+03
1.068372e+03,2.128781e+03
1.069336e+03,2.131496e+03
1.070301e+03,2.136462e+03
1.071265e+03,2.141844e+03
1.072229e+03,2.143723e+03
1.073193e+03,2.139675e+03
1.074158e+03,2.134090e+03
1.075122e+03,2.124891e+03
1.076086e+03,2.116367e+03
1.077050e+03,2.114869e+03
1.078015e+03,2.127370e+03
1.078979e+03,2.136118e+03
1.079943e+03,2.131879e+03
1.080907e+03,2.126385e+03
1.081872e+03,2.128444e+03
1.082836e+03,2.138203e+03
1.083800e+03,2.144449e+03
1.084764e+03,2.142640e+03
1.085729e+03,2.140204e+03
1.086693e+03,2.139267e+03
1.087657e+03,2.139872e+03
1.088621e+03,2.142219e+03
1.089585e+03,2.149770e+03
1.090550e+03,2.153831e+03
1.091514e+03,2.151516e+03
1.092478e+03,2.146743e+03
1.093442e+03,2.143572e+03
1.094406e+03,2.143976e+03
1.095371e+03,2.142394e+03
1.096335e+03,2.133173e+03
1.097299e+03,2.124572e+03
1.098263e+03,2.123460e+03
1.099228e+03,2.129325e+03
1.100192e+03,2.131571e+03
1.101156e+03,2.122860e+03
1.102120e+03,2.115705e+03
1.103085e+03,2.117378e+03
1.104049e+03,2.123729e+03
1.105013e+03,2.126150e+03
1.105977e+03,2.119809e+03
1.106942e+03,2.114524e+03
1.107906e+03,2.110756e+03
1.108870e+03,2.109592e+03
1.109834e+03,2.112968e+03
1.110799e+03,2.123093e+03
1.111763e+03,2.129434e+03
1.112727e+03,2.129907e+03
1.113691e+03,2.127922e+03
1.114656e+03,2.122513e+03
1.115620e+03,2.114765e+03
1.116584e+03,2.112230e+03
1.117548e+03,2.119073e+03
1.118512e+03,2.125008e+03
1.119477e+03,2.128976e+03
1.120441e+03,2.130477e+03
1.121405e+03,2.128999e+03
1.122369e+03,2.121328e+03
1.123334e+03,2.115786e+03
1.124298e+03,2.113741e+03
1.125262e+03,2.113374e+03
1.126226e+03,2.114145e+03
1.127191e+03,2.116608e+03
1.128155e+03,2.116618e+03
1.129119e+03,2.110579e+03
1.130083e+03,2.106085e+03
1.131047e+03,2.107538e+03
1.132012e+03,2.111834e+03
1.132976e+03,2.109702e+03
1.133940e+03,2.094729e+03
1.134904e+03,2.086530e+03
1.135869e+03,2.092657e+03
1.136833e+03,2.102683e+03
1.137797e+03,2.103923e+03
1.138761e+03,2.093000e+03
1.139726e+03,2.089504e+03
1.140690e+03,2.096757e+03
1.141654e+03,2.103497e+03
1.142618e+03,2.101790e+03
1.143583e+03,2.093466e+03
1.144547e+03,2.093348e+03
1.145511e+03,2.104787e+03
1.146475e+03,2.110864e+03
1.147439e+03,2.105174e+03
1.148404e+03,2.094119e+03
1.149368e+03,2.088323e+03
1.150332e+03,2.088010e+03
1.151296e+03,2.088063e+03
1.152261e+03,2.087026e+03
1.153225e+03,2.085201e+03
1.154189e+03,2.085073e+03
1.155153e+03,2.086877e+03
1.156118e+03,2.084278e+03
1.157082e+03,2.077797e+03
1.158046e+03,2.073404e+03
1.159010e+03,2.073108e+03
1.159974e+03,2.075648e+03
1.160939e+03,2.080236e+03
1.161903e+03,2.085606e+03
1.162867e+03,2.085173e+03
1.163831e+03,2.077221e+03
1.164796e+03,2.067994e+03
1.165760e+03,2.065123e+03
1.166724e+03,2.066887e+03
1.167688e+03,2.068637e+03
1.168653e+03,2.069958e+03
1.169617e+03,2.069705e+03
1.170581e+03,2.066813e+03
1.171545e+03,2.063036e+03
1.172510e+03,2.059856e+03
1.173474e+03,2.057907e+03
1.174438e+03,2.058511e+03
1.175402e+03,2.062006e+03
1.176366e+03,2.065780e+03
1.177331e+03,2.068577e+03
1.178295e+03,2.070171e+03
1.179259e+03,2.069300e+03
1.180223e+03,2.065873e+03
1.181188e+03,2.062111e+03
1.182152e+03,2.059110e+03
1.183116e+03,2.056606e+03
1.184080e+03,2.055188e+03
1.185045e+03,2.054765e+03
1.186009e+03,2.054737e+03
1.186973e+03,2.056194e+03
1.187937e+03,2.056723e+03
1.188901e+03,2.051985e+03
1.189866e+03,2.047798e+03
1.190830e+03,2.050161e+03
1.191794e+03,2.059361e+03
1.192758e+03,2.064615e+03
1.193723e+03,2.061907e+03
1.194687e+03,2.058568e+03
1.195651e+03,2.056013e+03
1.196615e+03,2.054525e+03
1.197580e+03,2.054787e+03
1.198544e+03,2.058887e+03
1.199508e+03,2.058401e+03
1.200472e+03,2.051424e+03
1.201437e+03,2.043203e+03
1.202401e+03,2.038508e+03
1.203365e+03,2.038390e+03
1.204329e+03,2.037458e+03
1.205293e+03,2.034773e+03
1.206258e+03,2.032770e+03
1.207222e+03,2.032017e+03
1.208186e+03,2.032469e+03
1.209150e+03,2.035236e+03
1.210115e+03,2.040115e+03
1.211079e+03,2.043144e+03
1.212043e+03,2.043822e+03
1.213007e+03,2.042486e+03
1.213972e+03,2.039371e+03
1.214936e+03,2.035453e+03
1.215900e+03,2.033378e+03
1.216864e+03,2.033223e+03
1.217828e+03,2.034183e+03
1.218793e+03,2.036470e+03
1.219757e+03,2.038703e+03
1.220721e+03,2.037463e+03
1.221685e+03,2.034414e+03
1.222650e+03,2.033270e+03
1.223614e+03,2.034408e+03
1.224578e+03,2.035535e+03
1.225542e+03,2.036531e+03
1.226507e+03,2.036613e+03
1.227471e+03,2.032755e+03
1.228435e+03,2.025780e+03
1.229399e+03,2.021098e+03
1.230364e+03,2.026008e+03
1.231328e+03,2.029889e+03
1.232292e+03,2.026235e+03
1.233256e+03,2.020108e+03
1.234220e+03,2.016969e+03
1.235185e+03,2.019143e+03
1.236149e+03,2.021808e+03
1.237113e+03,2.024619e+03
1.238077e+03,2.027575e+03
1.239042e+03,2.029672e+03
1.240006e+03,2.030011e+03
1.240970e+03,2.028550e+03
1.241934e+03,2.023129e+03
1.242899e+03,2.019844e+03
1.243863e+03,2.022083e+03
1.244827e+03,2.025608e+03
1.245791e+03,2.023586e+03
1.246755e+03,2.014312e+03
1.247720e+03,2.010212e+03
1.248684e+03,2.012746e+03
1.249648e+03,2.015573e+03
1.250612e+03,2.013730e+03
1.251577e+03,2.009159e+03
1.252541e+03,2.009796e+03
1.253505e+03,2.014793e+03
1.254469e+03,2.019829e+03
1.255434e+03,2.024294e+03
1.256398e+03,2.026628e+03
1.257362e+03,2.021331e+03
1.258326e+03,2.012933e+03
1.259291e+03,2.011622e+03
1.260255e+03,2.016581e+03
1.261219e+03,2.020242e+03
1.262183e+03,2.019073e+03
1.263147e+03,2.016148e+03
1.264112e+03,2.012096e+03
1.265076e+03,2.007990e+03
1.266040e+03,2.004932e+03
1.267004e+03,2.003183e+03
1.267969e+03,2.003070e+03
1.268933e+03,2.007129e+03
1.269897e+03,2.012416e+03
1.270861e+03,2.015430e+03
1.271826e+03,2.014954e+03
1.272790e+03,2.014900e+03
1.273754e+03,2.015942e+03
1.274718e+03,2.017794e+03
1.275682e+03,2.021916e+03
1.276647e+03,2.026854e+03
1.277611e+03,2.030818e+03
1.278575e+03,2.034040e+03
1.279539e+03,2.030944e+03
1.280504e+03,2.021605e+03
1.281468e+03,2.013180e+03
1.282432e+03,2.009159e+03
1.283396e+03,2.008429e+03
1.284361e+03,2.008996e+03
1.285325e+03,2.010089e+03
1.286289e+03,2.010154e+03
1.287253e+03,2.008635e+03
1.288218e+03,2.006949e+03
1.289182e+03,2.007495e+03
1.290146e+03,2.008595e+03
1.291110e+03,2.008576e+03
1.292074e+03,2.007561e+03
1.293039e+03,2.005637e+03
1.294003e+03,2.001534e+03
1.294967e+03,1.997302e+03
1.295931e+03,1.993384e+03
1.296896e+03,1.991182e+03
1.297860e+03,1.992541e+03
1.298824e+03,1.998895e+03
1.299788e+03,2.001483e+03
1.300753e+03,1.995634e+03
1.301717e+03,1.991789e+03
1.302681e+03,1.995405e+03
1.303645e+03,2.003297e+03
1.304609e+03,2.005882e+03
1.305574e+03,2.001370e+03
1.306538e+03,1.998445e+03
1.307502e+03,1.999493e+03
1.308466e+03,2.001819e+03
1.309431e+03,2.002186e+03
1.310395e+03,2.001184e+03
1.311359e+03,2.000136e+03
1.312323e+03,1.998430e+03
1.313288e+03,1.997085e+03
1.314252e+03,1.998050e+03
1.315216e+03,1.999305e+03
1.316180e+03,1.996033e+03
1.317145e+03,1.992645e+03
1.318109e+03,1.995508e+03
1.319073e+03,2.004197e+03
1.320037e+03,2.009071e+03
1.321001e+03,2.003522e+03
1.321966e+03,1.997060e+03
1.322930e+03,1.994070e+03
1.323894e+03,1.993901e+03
1.324858e+03,1.993887e+03
1.325823e+03,1.993667e+03
1.326787e+03,1.994287e+03
1.327751e+03,1.995633e+03
1.328715e+03,1.996482e+03
1.329680e+03,1.996495e+03
1.330644e+03,1.995701e+03
1.331608e+03,1.992450e+03
1.332572e+03,1.987042e+03
1.333536e+03,1.986513e+03
1.334501e+03,1.992993e+03
1.335465e+03,1.999917e+03
1.336429e+03,2.000556e+03
1.337393e+03,1.998204e+03
1.338358e+03,1.997799e+03
1.339322e+03,1.998823e+03
1.340286e+03,1.997689e+03
1.341250e+03,1.990033e+03
1.342215e+03,1.982853e+03
1.343179e+03,1.980432e+03
1.344143e+03,1.981316e+03
1.345107e+03,1.983199e+03
1.346072e+03,1.985885e+03
1.347036e+03,1.985679e+03
1.348000e+03,1.979685e+03
1.348964e+03,1.975157e+03
1.349928e+03,1.975920e+03
1.350893e+03,1.980220e+03
1.351857e+03,1.982784e+03
1.352821e+03,1.983230e+03
1.353785e+03,1.983148e+03
1.354750e+03,1.982485e+03
1.355714e+03,1.980486e+03
1.356678e+03,1.977206e+03
1.357642e+03,1.973575e+03
1.358607e+03,1.967892e+03
1.359571e+03,1.961997e+03
1.360535e+03,1.961467e+03
1.361499e+03,1.971345e+03
1.362464e+03,1.978033e+03
1.363428e+03,1.970262e+03
1.364392e+03,1.962114e+03
1.365356e+03,1.964668e+03
1.366320e+03,1.975816e+03
1.367285e+03,1.979384e+03
1.368249e+03,1.971875e+03
1.369213e+03,1.967388e+03
1.370177e+03,1.969278e+03
1.371142e+03,1.973237e+03
1.372106e+03,1.974388e+03
1.373070e+03,1.973082e+03
1.374034e+03,1.972383e+03
1.374999e+03,1.972536e+03
1.375963e+03,1.970866e+03
1.376927e+03,1.964446e+03
1.377891e+03,1.958688e+03
1.378855e+03,1.960843e+03
1.379820e+03,1.965739e+03
1.380784e+03,1.966362e+03
1.381748e+03,1.962318e+03
1.382712e+03,1.960446e+03
1.383677e+03,1.965424e+03
1.384641e+03,1.967669e+03
1.385605e+03,1.962914e+03
1.386569e+03,1.954062e+03
1.387534e+03,1.944740e+03
1.388498e+03,1.933773e+03
1.389462e+03,1.931514e+03
1.390426e+03,1.938868e+03
1.391391e+03,1.946263e+03
1.392355e+03,1.948420e+03
1.393319e+03,1.947361e+03
1.394283e+03,1.945288e+03
1.395247e+03,1.942414e+03
1.396212e+03,1.939531e+03
1.397176e+03,1.936808e+03
1.398140e+03,1.935489e+03
1.399104e+03,1.937362e+03
1.400069e+03,1.939006e+03
1.401033e+03,1.937210e+03
1.401997e+03,1.933751e+03
1.402961e+03,1.934071e+03
1.403926e+03,1.942700e+03
1.404890e+03,1.943738e+03
1.405854e+03,1.933694e+03
1.406818e+03,1.924280e+03
1.407782e+03,1.924773e+03
1.408747e+03,1.932864e+03
1.409711e+03,1.939402e+03
1.410675e+03,1.943277e+03
1.411639e+03,1.944321e+03
1.412604e+03,1.942689e+03
1.413568e+03,1.939283e+03
1.414532e+03,1.933304e+03
1.415496e+03,1.928344e+03
1.416461e+03,1.926766e+03
1.417425e+03,1.927763e+03
1.418389e+03,1.929791e+03
1.419353e+03,1.937320e+03
1.420318e+03,1.938197e+03
1.421282e+03,1.928950e+03
1.422246e+03,1.919016e+03
1.423210e+03,1.916180e+03
1.424174e+03,1.919486e+03
1.425139e+03,1.920187e+03
1.426103e+03,1.918161e+03
1.427067e+03,1.916923e+03
1.428031e+03,1.917902e+03
1.428996e+03,1.919684e+03
1.429960e+03,1.920720e+03
1.430924e+03,1.921222e+03
1.431888e+03,1.922381e+03
1.432853e+03,1.923661e+03
1.433817e+03,1.922039e+03
1.434781e+03,1.911089e+03
1.435745e+03,1.906921e+03
1.436709e+03,1.914476e+03
1.437674e+03,1.922902e+03
1.438638e+03,1.922779e+03
1.439602e+03,1.915664e+03
1.440566e+03,1.911938e+03
1.441531e+03,1.911078e+03
1.442495e+03,1.909754e+03
1.443459e+03,1.906117e+03
1.444423e+03,1.903146e+03
1.445388e+03,1.904736e+03
1.446352e+03,1.907183e+03
1.447316e+03,1.906729e+03
1.448280e+03,1.904483e+03
1.449245e+03,1.904188e+03
1.450209e+03,1.910402e+03
1.451173e+03,1.912577e+03
1.452137e+03,1.905909e+03
1.453101e+03,1.898320e+03
1.454066e+03,1.899199e+03
1.455030e+03,1.906955e+03
1.455994e+03,1.907167e+03
1.456958e+03,1.900913e+03
1.457923e+03,1.895530e+03
1.458887e+03,1.893045e+03
1.459851e+03,1.892756e+03
1.460815e+03,1.896405e+03
1.461780e+03,1.899613e+03
1.462744e+03,1.898344e+03
1.463708e+03,1.893682e+03
1.464672e+03,1.892117e+03
1.465636e+03,1.898591e+03
1.466601e+03,1.900380e+03
1.467565e+03,1.894268e+03
1.468529e+03,1.887084e+03
1.469493e+03,1.885473e+03
1.470458e+03,1.887239e+03
1.471422e+03,1.883769e+03
1.472386e+03,1.877607e+03
1.473350e+03,1.877885e+03
1.474315e+03,1.889530e+03
1.475279e+03,1.899221e+03
1.476243e+03,1.897098e+03
1.477207e+03,1.890618e+03
1.478172e+03,1.884573e+03
1.479136e+03,1.879740e+03
1.480100e+03,1.877475e+03
1.481064e+03,1.879175e+03
1.482028e+03,1.878403e+03
1.482993e+03,1.874251e+03
1.483957e+03,1.870037e+03
1.484921e+03,1.867439e+03
1.485885e+03,1.866849e+03
1.486850e+03,1.870870e+03
1.487814e+03,1.876534e+03
1.488778e+03,1.877666e+03
1.489742e+03,1.870564e+03
1.490707e+03,1.867030e+03
1.491671e+03,1.877339e+03
1.492635e+03,1.886848e+03
1.493599e+03,1.887995e+03
1.494563e+03,1.882971e+03
1.495528e+03,1.878092e+03
1.496492e+03,1.873104e+03
1.497456e+03,1.869706e+03
1.498420e+03,1.868666e+03
1.499385e+03,1.868437e+03
1.500349e+03,1.867963e+03
1.501313e+03,1.867717e+03
1.502277e+03,1.867137e+03
1.503242e+03,1.866893e+03
1.504206e+03,1.868516e+03
1.505170e+03,1.873231e+03
1.506134e+03,1.874212e+03
1.507099e+03,1.870615e+03
1.508063e+03,1.865927e+03
1.509027e+03,1.861093e+03
1.509991e+03,1.856681e+03
1.510955e+03,1.854990e+03
1.511920e+03,1.854171e+03
1.512884e+03,1.848444e+03
1.513848e+03,1.839408e+03
1.514812e+03,1.835490e+03
1.515777e+03,1.842610e+03
1.516741e+03,1.850516e+03
1.517705e+03,1.858385e+03
1.518669e+03,1.862844e+03
1.519634e+03,1.859894e+03
1.520598e+03,1.849902e+03
1.521562e+03,1.847329e+03
1.522526e+03,1.851254e+03
1.523490e+03,1.855057e+03
1.524455e+03,1.857095e+03
1.525419e+03,1.856503e+03
1.526383e+03,1.850366e+03
1.527347e+03,1.843262e+03
1.528312e+03,1.839634e+03
1.529276e+03,1.839996e+03
1.530240e+03,1.842482e+03
1.531204e+03,1.848301e+03
1.532169e+03,1.849626e+03
1.533133e+03,1.845063e+03
1.534097e+03,1.839772e+03
1.535061e+03,1.837265e+03
1.536026e+03,1.836458e+03
1.536990e+03,1.836498e+03
1.537954e+03,1.837248e+03
1.538918e+03,1.838867e+03
1.539882e+03,1.841744e+03
1.540847e+03,1.841021e+03
1.541811e+03,1.828179e+03
1.542775e+03,1.820460e+03
1.543739e+03,1.825419e+03
1.544704e+03,1.835941e+03
1.545668e+03,1.839629e+03
1.546632e+03,1.838180e+03
1.547596e+03,1.838205e+03
1.548561e+03,1.840000e+03
1.549525e+03,1.842842e+03
1.550489e+03,1.848831e+03
1.551453e+03,1.850953e+03
1.552417e+03,1.840670e+03
1.553382e+03,1.829625e+03
1.554346e+03,1.828782e+03
1.555310e+03,1.836889e+03
1.556274e+03,1.840303e+03
1.557239e+03,1.838892e+03
1.558203e+03,1.834266e+03
1.559167e+03,1.826502e+03
1.560131e+03,1.820966e+03
1.561096e+03,1.825152e+03
1.562060e+03,1.831461e+03
1.563024e+03,1.833557e+03
1.563988e+03,1.832783e+03
1.564953e+03,1.832611e+03
1.565917e+03,1.832763e+03
1.566881e+03,1.835639e+03
1.567845e+03,1.841682e+03
1.568809e+03,1.843286e+03
1.569774e+03,1.834565e+03
1.570738e+03,1.823574e+03
1.571702e+03,1.821178e+03
1.572666e+03,1.823077e+03
1.573631e+03,1.824273e+03
1.574595e+03,1.824647e+03
1.575559e+03,1.825188e+03
1.576523e+03,1.826004e+03
1.577488e+03,1.827723e+03
1.578452e+03,1.829719e+03
1.579416e+03,1.831110e+03
1.580380e+03,1.831999e+03
1.581344e+03,1.831932e+03
1.582309e+03,1.830330e+03
1.583273e+03,1.827311e+03
1.584237e+03,1.822005e+03
1.585201e+03,1.811268e+03
1.586166e+03,1.806715e+03
1.587130e+03,1.811418e+03
1.588094e+03,1.817337e+03
1.589058e+03,1.822500e+03
1.590023e+03,1.825754e+03
1.590987e+03,1.821936e+03
1.591951e+03,1.815119e+03
1.592915e+03,1.814670e+03
1.593880e+03,1.819739e+03
1.594844e+03,1.821924e+03
1.595808e+03,1.814727e+03
1.596772e+03,1.809086e+03
1.597736e+03,1.808193e+03
1.598701e+03,1.809208e+03
1.599665e+03,1.809701e+03
1.600629e+03,1.809571e+03
1.601593e+03,1.807820e+03
1.602558e+03,1.805127e+03
1.603522e+03,1.804115e+03
1.604486e+03,1.806023e+03
1.605450e+03,1.805762e+03
1.606415e+03,1.799427e+03
1.607379e+03,1.794050e+03
1.608343e+03,1.791915e+03
1.609307e+03,1.791801e+03
1.610271e+03,1.791821e+03
1.611236e+03,1.791960e+03
1.612200e+03,1.793828e+03
1.613164e+03,1.797540e+03
1.614128e+03,1.800736e+03
1.615093e+03,1.802184e+03
1.616057e+03,1.801985e+03
1.617021e+03,1.798398e+03
1.617985e+03,1.793958e+03
1.618950e+03,1.791108e+03
1.619914e+03,1.788968e+03
1.620878e+03,1.782200e+03
1.621842e+03,1.772851e+03
1.622807e+03,1.768316e+03
1.623771e+03,1.770460e+03
1.624735e+03,1.774463e+03
1.625699e+03,1.779008e+03
1.626663e+03,1.781705e+03
1.627628e+03,1.780027e+03
1.628592e+03,1.776957e+03
1.629556e+03,1.778820e+03
1.630520e+03,1.784937e+03
1.631485e+03,1.785441e+03
1.632449e+03,1.780943e+03
1.633413e+03,1.774978e+03
1.634377e+03,1.767731e+03
1.635342e+03,1.762982e+03
1.636306e+03,1.764676e+03
1.637270e+03,1.766802e+03
1.638234e+03,1.767078e+03
1.639198e+03,1.765573e+03
1.640163e+03,1.759609e+03
1.641127e+03,1.751790e+03
1.642091e+03,1.749866e+03
1.643055e+03,1.753601e+03
1.644020e+03,1.757980e+03
1.644984e+03,1.762847e+03
1.645948e+03,1.763486e+03
1.646912e+03,1.757550e+03
1.647877e+03,1.751257e+03
1.648841e+03,1.750600e+03
1.649805e+03,1.753587e+03
1.650769e+03,1.752823e+03
1.651734e+03,1.749810e+03
1.652698e+03,1.749258e+03
1.653662e+03,1.752361e+03
1.654626e+03,1.753110e+03
1.655590e+03,1.748102e+03
1.656555e+03,1.744227e+03
1.657519e+03,1.744516e+03
1.658483e+03,1.746439e+03
1.659447e+03,1.745382e+03
1.660412e+03,1.741748e+03
1.661376e+03,1.736180e+03
1.662340e+03,1.730700e+03
1.663304e+03,1.729613e+03
1.664269e+03,1.738257e+03
1.665233e+03,1.742099e+03
1.666197e+03,1.739436e+03
1.667161e+03,1.735237e+03
1.668125e+03,1.732447e+03
1.669090e+03,1.730252e+03
1.670054e+03,1.727071e+03
1.671018e+03,1.724068e+03
1.671982e+03,1.723572e+03
1.672947e+03,1.725721e+03
1.673911e+03,1.727398e+03
1.674875e+03,1.728073e+03
1.675839e+03,1.725205e+03
1.676804e+03,1.719008e+03
1.677768e+03,1.713342e+03
1.678732e+03,1.710563e+03
1.679696e+03,1.709218e+03
1.680661e+03,1.708095e+03
1.681625e+03,1.706794e+03
1.682589e+03,1.705808e+03
1.683553e+03,1.705701e+03
1.684517e+03,1.709212e+03
1.685482e+03,1.715960e+03
1.686446e+03,1.722232e+03
1.687410e+03,1.727217e+03
1.688374e+03,1.729096e+03
1.689339e+03,1.724282e+03
1.690303e+03,1.717969e+03
1.691267e+03,1.712159e+03
1.692231e+03,1.707968e+03
1.693196e+03,1.707122e+03
1.694160e+03,1.708664e+03
1.695124e+03,1.709973e+03
1.696088e+03,1.711004e+03
1.697052e+03,1.710881e+03
1.698017e+03,1.706044e+03
1.698981e+03,1.703131e+03
1.699945e+03,1.704518e+03
1.700909e+03,1.705560e+03
1.701874e+03,1.705492e+03
1.702838e+03,1.704984e+03
1.703802e+03,1.702376e+03
1.704766e+03,1.698288e+03
1.705731e+03,1.696186e+03
1.706695e+03,1.696591e+03
1.707659e+03,1.695352e+03
1.708623e+03,1.691034e+03
1.709588e+03,1.688866e+03
1.710552e+03,1.688512e+03
1.711516e+03,1.690193e+03
1.712480e+03,1.699314e+03
1.713444e+03,1.706442e+03
1.714409e+03,1.696826e+03
1.715373e+03,1.681535e+03
1.716337e+03,1.677606e+03
1.717301e+03,1.686038e+03
1.718266e+03,1.689110e+03
1.719230e+03,1.686517e+03
1.720194e+03,1.682546e+03
1.721158e+03,1.677862e+03
1.722123e+03,1.674524e+03
1.723087e+03,1.675260e+03
1.724051e+03,1.676457e+03
1.725015e+03,1.676637e+03
1.725979e+03,1.676588e+03
1.726944e+03,1.676515e+03
1.727908e+03,1.676531e+03
1.728872e+03,1.677019e+03
1.729836e+03,1.677516e+03
1.730801e+03,1.678525e+03
1.731765e+03,1.681490e+03
1.732729e+03,1.683203e+03
1.733693e+03,1.684348e+03
1.734658e+03,1.681250e+03
1.735622e+03,1.670101e+03
1.736586e+03,1.658752e+03
1.737550e+03,1.661479e+03
1.738515e+03,1.668857e+03
1.739479e+03,1.668747e+03
1.740443e+03,1.662068e+03
1.741407e+03,1.660974e+03
1.742371e+03,1.666564e+03
1.743336e+03,1.667464e+03
1.744300e+03,1.662767e+03
1.745264e+03,1.657760e+03
1.746228e+03,1.657201e+03
1.747193e+03,1.657534e+03
1.748157e+03,1.657865e+03
1.749121e+03,1.659076e+03
1.750085e+03,1.660108e+03
1.751050e+03,1.659647e+03
1.752014e+03,1.657770e+03
1.752978e+03,1.655609e+03
1.753942e+03,1.654469e+03
1.754906e+03,1.654286e+03
1.755871e+03,1.657209e+03
1.756835e+03,1.666262e+03
1.757799e+03,1.667548e+03
1.758763e+03,1.659441e+03
1.759728e+03,1.650451e+03
1.760692e+03,1.647513e+03
1.761656e+03,1.647904e+03
1.762620e+03,1.649563e+03
1.763585e+03,1.651415e+03
1.764549e+03,1.652669e+03
1.765513e+03,1.652573e+03
1.766477e+03,1.646748e+03
1.767442e+03,1.636974e+03
1.768406e+03,1.631493e+03
1.769370e+03,1.633183e+03
1.770334e+03,1.637259e+03
1.771298e+03,1.644408e+03
1.772263e+03,1.647710e+03
1.773227e+03,1.645564e+03
1.774191e+03,1.639618e+03
1.775155e+03,1.628154e+03
1.776120e+03,1.616428e+03
1.777084e+03,1.613692e+03
1.778048e+03,1.617807e+03
1.779012e+03,1.622002e+03
1.779977e+03,1.626450e+03
1.780941e+03,1.629380e+03
1.781905e+03,1.630063e+03
1.782869e+03,1.628504e+03
1.783833e+03,1.623904e+03
1.784798e+03,1.620266e+03
1.785762e+03,1.623002e+03
1.786726e+03,1.623060e+03
1.787690e+03,1.615444e+03
1.788655e+03,1.604604e+03
1.789619e+03,1.597494e+03
1.790583e+03,1.593500e+03
1.791547e+03,1.590256e+03
1.792512e+03,1.588524e+03
1.793476e+03,1.593267e+03
1.794440e+03,1.608651e+03
1.795404e+03,1.613715e+03
1.796369e+03,1.606677e+03
1.797333e+03,1.597953e+03
1.798297e+03,1.591626e+03
1.799261e+03,1.589821e+03
1.800225e+03,1.597816e+03
1.801190e+03,1.605815e+03
1.802154e+03,1.608179e+03
1.803118e+03,1.606098e+03
1.804082e+03,1.601476e+03
1.805047e+03,1.596784e+03
1.806011e+03,1.598184e+03
1.806975e+03,1.605270e+03
1.807939e+03,1.606664e+03
1.808904e+03,1.598011e+03
1.809868e+03,1.593701e+03
1.810832e+03,1.595897e+03
1.811796e+03,1.597556e+03
1.812760e+03,1.590790e+03
1.813725e+03,1.584319e+03
1.814689e+03,1.585596e+03
1.815653e+03,1.587920e+03
1.816617e+03,1.585602e+03
1.817582e+03,1.580917e+03
1.818546e+03,1.582695e+03
1.819510e+03,1.586927e+03
1.820474e+03,1.583323e+03
1.821439e+03,1.570731e+03
1.822403e+03,1.566668e+03
1.823367e+03,1.574515e+03
1.824331e+03,1.579486e+03
1.825296e+03,1.578714e+03
1.826260e+03,1.577694e+03
1.827224e+03,1.586143e+03
1.828188e+03,1.591659e+03
1.829152e+03,1.581408e+03
1.830117e+03,1.569737e+03
1.831081e+03,1.569309e+03
1.832045e+03,1.575301e+03
1.833009e+03,1.575971e+03
1.833974e+03,1.574375e+03
1.834938e+03,1.573881e+03
1.835902e+03,1.574567e+03
1.836866e+03,1.572901e+03
1.837831e+03,1.568551e+03
1.838795e+03,1.564467e+03
1.839759e+03,1.561879e+03
1.840723e+03,1.561884e+03
1.841688e+03,1.568335e+03
1.842652e+03,1.571401e+03
1.843616e+03,1.565465e+03
1.844580e+03,1.557884e+03
1.845544e+03,1.557803e+03
1.846509e+03,1.561682e+03
1.847473e+03,1.564385e+03
1.848437e+03,1.565165e+03
1.849401e+03,1.561770e+03
1.850366e+03,1.554616e+03
1.851330e+03,1.549295e+03
1.852294e+03,1.546287e+03
1.853258e+03,1.546475e+03
1.854223e+03,1.550528e+03
1.855187e+03,1.551666e+03
1.856151e+03,1.541412e+03
1.857115e+03,1.535452e+03
1.858079e+03,1.537120e+03
1.859044e+03,1.542093e+03
1.860008e+03,1.549217e+03
1.860972e+03,1.555464e+03
1.861936e+03,1.557559e+03
1.862901e+03,1.556390e+03
1.863865e+03,1.552150e+03
1.864829e+03,1.544480e+03
1.865793e+03,1.538196e+03
1.866758e+03,1.534016e+03
1.867722e+03,1.533205e+03
1.868686e+03,1.536791e+03
1.869650e+03,1.536482e+03
1.870615e+03,1.530256e+03
1.871579e+03,1.526139e+03
1.872543e+03,1.527119e+03
1.873507e+03,1.529849e+03
1.874471e+03,1.532217e+03
1.875436e+03,1.530971e+03
1.876400e+03,1.523872e+03
1.877364e+03,1.516313e+03
1.878328e+03,1.514169e+03
1.879293e+03,1.515753e+03
1.880257e+03,1.519099e+03
1.881221e+03,1.522482e+03
1.882185e+03,1.523100e+03
1.883150e+03,1.521220e+03
1.884114e+03,1.521479e+03
1.885078e+03,1.523006e+03
1.886042e+03,1.522703e+03
1.887006e+03,1.519588e+03
1.887971e+03,1.514654e+03
1.888935e+03,1.506420e+03
1.889899e+03,1.503307e+03
1.890863e+03,1.506939e+03
1.891828e+03,1.512437e+03
1.892792e+03,1.519518e+03
1.893756e+03,1.523026e+03
1.894720e+03,1.516439e+03
1.895685e+03,1.508546e+03
1.896649e+03,1.507367e+03
1.897613e+03,1.510267e+03
1.898577e+03,1.513015e+03
1.899542e+03,1.513838e+03
1.900506e+03,1.506172e+03
1.901470e+03,1.487479e+03
1.902434e+03,1.482347e+03
1.903398e+03,1.490098e+03
1.904363e+03,1.492641e+03
1.905327e+03,1.484896e+03
1.906291e+03,1.481074e+03
1.907255e+03,1.492959e+03
1.908220e+03,1.499519e+03
1.909184e+03,1.495911e+03
1.910148e+03,1.490949e+03
1.911112e+03,1.497108e+03
1.912077e+03,1.503302e+03
1.913041e+03,1.497441e+03
1.914005e+03,1.488291e+03
1.914969e+03,1.485443e+03
1.915933e+03,1.486649e+03
1.916898e+03,1.483328e+03
1.917862e+03,1.477984e+03
1.918826e+03,1.475693e+03
1.919790e+03,1.477779e+03
1.920755e+03,1.474511e+03
1.921719e+03,1.465563e+03
1.922683e+03,1.464493e+03
1.923647e+03,1.474843e+03
1.924612e+03,1.481095e+03
1.925576e+03,1.470676e+03
1.926540e+03,1.464452e+03
1.927504e+03,1.464519e+03
1.928469e+03,1.467888e+03
1.929433e+03,1.475612e+03
1.930397e+03,1.480978e+03
1.931361e+03,1.477596e+03
1.932325e+03,1.470839e+03
1.933290e+03,1.464190e+03
1.934254e+03,1.459734e+03
1.935218e+03,1.459953e+03
1.936182e+03,1.462981e+03
1.937147e+03,1.470805e+03
1.938111e+03,1.481807e+03
1.939075e+03,1.477796e+03
1.940039e+03,1.462249e+03
1.941004e+03,1.452730e+03
1.941968e+03,1.450829e+03
1.942932e+03,1.452376e+03
1.943896e+03,1.460144e+03
1.944860e+03,1.460550e+03
1.945825e+03,1.452578e+03
1.946789e+03,1.445428e+03
1.947753e+03,1.443337e+03
1.948717e+03,1.445788e+03
1.949682e+03,1.456145e+03
1.950646e+03,1.463411e+03
1.951610e+03,1.458835e+03
1.952574e+03,1.451387e+03
1.953539e+03,1.457695e+03
1.954503e+03,1.464829e+03
1.955467e+03,1.457454e+03
1.956431e+03,1.442521e+03
1.957396e+03,1.438120e+03
1.958360e+03,1.440046e+03
1.959324e+03,1.439011e+03
1.960288e+03,1.435380e+03
1.961252e+03,1.433495e+03
1.962217e+03,1.432857e+03
1.963181e+03,1.433197e+03
1.964145e+03,1.434003e+03
1.965109e+03,1.433363e+03
1.966074e+03,1.430141e+03
1.967038e+03,1.427106e+03
1.968002e+03,1.422713e+03
1.968966e+03,1.419498e+03
1.969931e+03,1.418987e+03
1.970895e+03,1.419532e+03
1.971859e+03,1.424584e+03
1.972823e+03,1.426511e+03
1.973787e+03,1.419666e+03
1.974752e+03,1.411674e+03
1.975716e+03,1.416598e+03
1.976680e+03,1.424411e+03
1.977644e+03,1.423609e+03
1.978609e+03,1.420038e+03
1.979573e+03,1.423670e+03
1.980537e+03,1.431228e+03
1.981501e+03,1.434191e+03
1.982466e+03,1.432321e+03
1.983430e+03,1.422690e+03
1.984394e+03,1.403486e+03
1.985358e+03,1.400330e+03
1.986323e+03,1.410439e+03
1.987287e+03,1.418498e+03
1.988251e+03,1.420135e+03
1.989215e+03,1.416537e+03
1.990179e+03,1.407488e+03
1.991144e+03,1.400286e+03
1.992108e+03,1.397194e+03
1.993072e+03,1.395938e+03
1.994036e+03,1.393348e+03
1.995001e+03,1.394016e+03
1.995965e+03,1.399988e+03
1.996929e+03,1.406314e+03
1.997893e+03,1.407400e+03
1.998858e+03,1.405664e+03
1.999822e+03,1.401254e+03
2.000786e+03,1.397305e+03
2.001750e+03,1.398351e+03
2.002714e+03,1.402604e+03
2.003679e+03,1.403867e+03
2.004643e+03,1.402841e+03
2.005607e+03,1.402093e+03
2.006571e+03,1.401267e+03
2.007536e+03,1.394234e+03
2.008500e+03,1.383895e+03
2.009464e+03,1.379311e+03
2.010428e+03,1.381511e+03
2.011393e+03,1.383184e+03
2.012357e+03,1.383642e+03
2.013321e+03,1.383971e+03
2.014285e+03,1.383584e+03
2.015250e+03,1.385014e+03
2.016214e+03,1.392828e+03
2.017178e+03,1.396768e+03
2.018142e+03,1.396797e+03
2.019106e+03,1.392415e+03
2.020071e+03,1.379641e+03
2.021035e+03,1.370972e+03
2.021999e+03,1.374970e+03
2.022963e+03,1.378939e+03
2.023928e+03,1.379135e+03
2.024892e+03,1.376949e+03
2.025856e+03,1.372619e+03
2.026820e+03,1.367412e+03
2.027785e+03,1.361156e+03
2.028749e+03,1.355668e+03
2.029713e+03,1.355580e+03
2.030677e+03,1.357407e+03
2.031641e+03,1.355544e+03
2.032606e+03,1.351878e+03
2.033570e+03,1.349377e+03
2.034534e+03,1.348181e+03
2.035498e+03,1.352877e+03
2.036463e+03,1.359554e+03
2.037427e+03,1.356698e+03
2.038391e+03,1.345140e+03
2.039355e+03,1.341104e+03
2.040320e+03,1.343199e+03
2.041284e+03,1.344541e+03
2.042248e+03,1.343225e+03
2.043212e+03,1.344019e+03
2.044177e+03,1.347966e+03
2.045141e+03,1.348854e+03
2.046105e+03,1.345539e+03
2.047069e+03,1.342340e+03
2.048033e+03,1.341497e+03
2.048998e+03,1.337955e+03
2.049962e+03,1.331393e+03
2.050926e+03,1.327975e+03
2.051890e+03,1.336125e+03
2.052854e+03,1.340865e+03
2.053819e+03,1.335727e+03
2.054783e+03,1.330459e+03
2.055747e+03,1.331344e+03
2.056711e+03,1.334472e+03
2.057676e+03,1.338043e+03
2.058640e+03,1.339160e+03
2.059604e+03,1.334423e+03
2.060568e+03,1.328030e+03
2.061533e+03,1.327569e+03
2.062497e+03,1.329073e+03
2.063461e+03,1.329560e+03
2.064425e+03,1.328268e+03
2.065390e+03,1.323079e+03
2.066354e+03,1.315780e+03
2.067318e+03,1.308433e+03
2.068282e+03,1.303501e+03
2.069247e+03,1.304918e+03
2.070211e+03,1.310846e+03
2.071175e+03,1.312453e+03
2.072139e+03,1.310697e+03
2.073104e+03,1.305855e+03
2.074068e+03,1.298654e+03
2.075032e+03,1.300415e+03
2.075996e+03,1.308332e+03
2.076960e+03,1.311641e+03
2.077925e+03,1.308302e+03
2.078889e+03,1.310400e+03
2.079853e+03,1.318990e+03
2.080817e+03,1.319278e+03
2.081782e+03,1.309964e+03
2.082746e+03,1.301694e+03
2.083710e+03,1.298897e+03
2.084674e+03,1.298919e+03
2.085639e+03,1.302338e+03
2.086603e+03,1.306067e+03
2.087567e+03,1.306279e+03
2.088531e+03,1.305799e+03
2.089496e+03,1.304833e+03
2.090460e+03,1.300608e+03
2.091424e+03,1.292426e+03
2.092388e+03,1.287589e+03
2.093353e+03,1.293255e+03
2.094317e+03,1.296643e+03
2.095281e+03,1.291863e+03
2.096245e+03,1.286339e+03
2.097209e+03,1.288578e+03
2.098174e+03,1.291767e+03
2.099138e+03,1.293776e+03
2.100102e+03,1.294359e+03
2.101066e+03,1.293045e+03
2.102031e+03,1.290045e+03
2.102995e+03,1.283645e+03
2.103959e+03,1.277808e+03
2.104923e+03,1.276755e+03
2.105887e+03,1.278285e+03
2.106852e+03,1.276799e+03
2.107816e+03,1.273184e+03
2.108780e+03,1.269496e+03
2.109744e+03,1.266175e+03
2.110708e+03,1.266986e+03
2.111673e+03,1.268974e+03
2.112637e+03,1.263659e+03
2.113601e+03,1.254918e+03
2.114565e+03,1.255335e+03
2.115530e+03,1.260858e+03
2.116494e+03,1.262940e+03
2.117458e+03,1.263007e+03
2.118422e+03,1.262945e+03
2.119387e+03,1.262146e+03
2.120351e+03,1.265612e+03
2.121315e+03,1.270429e+03
2.122279e+03,1.268361e+03
2.123244e+03,1.258850e+03
2.124208e+03,1.256264e+03
2.125172e+03,1.258689e+03
2.126136e+03,1.257198e+03
2.127101e+03,1.249364e+03
2.128065e+03,1.247148e+03
2.129029e+03,1.249525e+03
2.129993e+03,1.250777e+03
2.130958e+03,1.248599e+03
2.131922e+03,1.248416e+03
2.132886e+03,1.251569e+03
2.133850e+03,1.246811e+03
2.134814e+03,1.235031e+03
2.135779e+03,1.232110e+03
2.136743e+03,1.247492e+03
2.137707e+03,1.254066e+03
2.138671e+03,1.251295e+03
2.139636e+03,1.246123e+03
2.140600e+03,1.240306e+03
2.141564e+03,1.234837e+03
2.142528e+03,1.229770e+03
2.143493e+03,1.229167e+03
2.144457e+03,1.235400e+03
2.145421e+03,1.240497e+03
2.146385e+03,1.243511e+03
2.147350e+03,1.241927e+03
2.148314e+03,1.235214e+03
2.149278e+03,1.228842e+03
2.150242e+03,1.221775e+03
2.151207e+03,1.221677e+03
2.152171e+03,1.230784e+03
2.153135e+03,1.235280e+03
2.154099e+03,1.218901e+03
2.155063e+03,1.209369e+03
2.156028e+03,1.213947e+03
2.156992e+03,1.221929e+03
2.157956e+03,1.226785e+03
2.158920e+03,1.227409e+03
2.159885e+03,1.220743e+03
2.160849e+03,1.216862e+03
2.161813e+03,1.222194e+03
2.162777e+03,1.227455e+03
2.163741e+03,1.224135e+03
2.164706e+03,1.219858e+03
2.165670e+03,1.218821e+03
2.166634e+03,1.218537e+03
2.167598e+03,1.212020e+03
2.168563e+03,1.209885e+03
2.169527e+03,1.216903e+03
2.170491e+03,1.223902e+03
2.171455e+03,1.223540e+03
2.172420e+03,1.219213e+03
2.173384e+03,1.211449e+03
2.174348e+03,1.204699e+03
2.175312e+03,1.202252e+03
2.176277e+03,1.201607e+03
2.177241e+03,1.204170e+03
2.178205e+03,1.202531e+03
2.179169e+03,1.189781e+03
2.180134e+03,1.177113e+03
2.181098e+03,1.179592e+03
2.182062e+03,1.187964e+03
2.183026e+03,1.195458e+03
2.183990e+03,1.200955e+03
2.184955e+03,1.203367e+03
2.185919e+03,1.202430e+03
2.186883e+03,1.195781e+03
2.187847e+03,1.188483e+03
2.188812e+03,1.186812e+03
2.189776e+03,1.189324e+03
2.190740e+03,1.199490e+03
2.191704e+03,1.206195e+03
2.192668e+03,1.195616e+03
2.193633e+03,1.179711e+03
2.194597e+03,1.174047e+03
2.195561e+03,1.174326e+03
2.196525e+03,1.176887e+03
2.197490e+03,1.179705e+03
2.198454e+03,1.177171e+03
2.199418e+03,1.175830e+03
2.200382e+03,1.183626e+03
2.201347e+03,1.193337e+03
2.202311e+03,1.189607e+03
2.203275e+03,1.181007e+03
2.204239e+03,1.174260e+03
2.205204e+03,1.169147e+03
2.206168e+03,1.168752e+03
2.207132e+03,1.169888e+03
2.208096e+03,1.166614e+03
2.209061e+03,1.161990e+03
2.210025e+03,1.160021e+03
2.210989e+03,1.160152e+03
2.211953e+03,1.164137e+03
2.212917e+03,1.169360e+03
2.213882e+03,1.169473e+03
2.214846e+03,1.166400e+03
2.215810e+03,1.164587e+03
2.216774e+03,1.163131e+03
2.217739e+03,1.164071e+03
2.218703e+03,1.165430e+03
2.219667e+03,1.159781e+03
2.220631e+03,1.156132e+03
2.221595e+03,1.166523e+03
2.222560e+03,1.177425e+03
2.223524e+03,1.165207e+03
2.224488e+03,1.147354e+03
2.225452e+03,1.144970e+03
2.226417e+03,1.149003e+03
2.227381e+03,1.153488e+03
2.228345e+03,1.156485e+03
2.229309e+03,1.151066e+03
2.230274e+03,1.144984e+03
2.231238e+03,1.147063e+03
2.232202e+03,1.150548e+03
2.233166e+03,1.144027e+03
2.234131e+03,1.137744e+03
2.235095e+03,1.139045e+03
2.236059e+03,1.144192e+03
2.237023e+03,1.150043e+03
2.237988e+03,1.153066e+03
2.238952e+03,1.150641e+03
2.239916e+03,1.144661e+03
2.240880e+03,1.135657e+03
2.241844e+03,1.129114e+03
2.242809e+03,1.129536e+03
2.243773e+03,1.132280e+03
2.244737e+03,1.132974e+03
2.245701e+03,1.132396e+03
2.246666e+03,1.131133e+03
2.247630e+03,1.128483e+03
2.248594e+03,1.124803e+03
2.249558e+03,1.121238e+03
2.250522e+03,1.114973e+03
2.251487e+03,1.114509e+03
2.252451e+03,1.126099e+03
2.253415e+03,1.134980e+03
2.254379e+03,1.121590e+03
2.255344e+03,1.111239e+03
2.256308e+03,1.115170e+03
2.257272e+03,1.121327e+03
2.258236e+03,1.116375e+03
2.259201e+03,1.112745e+03
2.260165e+03,1.114197e+03
2.261129e+03,1.116903e+03
2.262093e+03,1.118230e+03
2.263058e+03,1.118278e+03
2.264022e+03,1.118134e+03
2.264986e+03,1.117945e+03
2.265950e+03,1.116341e+03
2.266915e+03,1.114850e+03
2.267879e+03,1.112678e+03
2.268843e+03,1.112476e+03
2.269807e+03,1.119172e+03
2.270771e+03,1.119815e+03
2.271736e+03,1.107388e+03
2.272700e+03,1.099675e+03
2.273664e+03,1.100606e+03
2.274628e+03,1.103527e+03
2.275593e+03,1.106515e+03
2.276557e+03,1.106116e+03
2.277521e+03,1.102573e+03
2.278485e+03,1.101135e+03
2.279449e+03,1.107329e+03
2.280414e+03,1.105232e+03
2.281378e+03,1.094242e+03
2.282342e+03,1.089279e+03
2.283306e+03,1.104576e+03
2.284271e+03,1.107995e+03
2.285235e+03,1.100086e+03
2.286199e+03,1.091383e+03
2.287163e+03,1.086447e+03
2.288128e+03,1.084915e+03
2.289092e+03,1.085487e+03
2.290056e+03,1.086423e+03
2.291020e+03,1.087654e+03
2.291985e+03,1.085493e+03
2.292949e+03,1.081509e+03
2.293913e+03,1.082449e+03
2.294877e+03,1.088202e+03
2.295842e+03,1.093571e+03
2.296806e+03,1.097086e+03
2.297770e+03,1.093106e+03
2.298734e+03,1.083456e+03
2.299698e+03,1.076862e+03
2.300663e+03,1.073835e+03
2.301627e+03,1.073681e+03
2.302591e+03,1.074673e+03
2.303555e+03,1.074089e+03
2.304520e+03,1.071984e+03
2.305484e+03,1.065876e+03
2.306448e+03,1.059682e+03
2.307412e+03,1.059761e+03
2.308376e+03,1.063634e+03
2.309341e+03,1.068369e+03
2.310305e+03,1.071466e+03
2.311269e+03,1.068658e+03
2.312233e+03,1.065077e+03
2.313198e+03,1.068605e+03
2.314162e+03,1.073858e+03
2.315126e+03,1.077114e+03
2.316090e+03,1.076223e+03
2.317055e+03,1.063692e+03
2.318019e+03,1.052803e+03
2.318983e+03,1.057866e+03
2.319947e+03,1.064771e+03
2.320912e+03,1.064823e+03
2.321876e+03,1.062869e+03
2.322840e+03,1.061427e+03
2.323804e+03,1.060353e+03
2.324769e+03,1.060033e+03
2.325733e+03,1.060328e+03
2.326697e+03,1.060834e+03
2.327661e+03,1.060639e+03
2.328625e+03,1.058620e+03
2.329590e+03,1.054994e+03
2.330554e+03,1.049347e+03
2.331518e+03,1.047745e+03
2.332482e+03,1.051211e+03
2.333447e+03,1.052898e+03
2.334411e+03,1.046580e+03
2.335375e+03,1.047717e+03
2.336339e+03,1.056581e+03
2.337303e+03,1.059251e+03
2.338268e+03,1.045025e+03
2.339232e+03,1.040884e+03
2.340196e+03,1.045406e+03
2.341160e+03,1.046165e+03
2.342125e+03,1.039430e+03
2.343089e+03,1.035228e+03
2.344053e+03,1.032230e+03
2.345017e+03,1.031370e+03
2.345982e+03,1.032910e+03
2.346946e+03,1.034902e+03
2.347910e+03,1.037627e+03
2.348874e+03,1.039162e+03
2.349839e+03,1.038998e+03
2.350803e+03,1.040076e+03
2.351767e+03,1.040626e+03
2.352731e+03,1.034585e+03
2.353696e+03,1.026486e+03
2.354660e+03,1.019962e+03
2.355624e+03,1.016958e+03
2.356588e+03,1.026391e+03
2.357552e+03,1.037276e+03
2.358517e+03,1.040744e+03
2.359481e+03,1.038789e+03
2.360445e+03,1.028365e+03
2.361409e+03,1.019735e+03
2.362374e+03,1.019484e+03
2.363338e+03,1.019658e+03
2.364302e+03,1.011169e+03
2.365266e+03,1.009865e+03
2.366230e+03,1.021205e+03
2.367195e+03,1.028952e+03
2.368159e+03,1.016980e+03
2.369123e+03,1.009131e+03
2.370087e+03,1.009612e+03
2.371052e+03,1.011951e+03
2.372016e+03,1.014312e+03
2.372980e+03,1.015321e+03
2.373944e+03,1.014595e+03
2.374909e+03,1.013172e+03
2.375873e+03,1.011477e+03
2.376837e+03,1.009577e+03
2.377801e+03,1.007731e+03
2.378766e+03,1.006132e+03
2.379730e+03,1.004800e+03
2.380694e+03,1.003969e+03
2.381658e+03,1.003448e+03
2.382623e+03,9.989009e+02
2.383587e+03,9.929400e+02
2.384551e+03,9.956843e+02
2.385515e+03,1.002669e+03
2.386479e+03,1.009815e+03
2.387444e+03,1.014754e+03
2.388408e+03,1.012818e+03
2.389372e+03,1.008332e+03
2.390336e+03,1.004025e+03
2.391301e+03,1.000822e+03
2.392265e+03,9.992169e+02
2.393229e+03,9.993078e+02
2.394193e+03,1.002687e+03
2.395157e+03,1.003698e+03
2.396122e+03,9.976902e+02
2.397086e+03,9.914426e+02
2.398050e+03,9.874977e+02
2.399014e+03,9.842366e+02
2.399979e+03,9.803222e+02
2.400943e+03,9.806818e+02
2.401907e+03,9.857343e+02
2.402871e+03,9.860618e+02
2.403836e+03,9.799303e+02
2.404800e+03,9.826018e+02
2.405764e+03,9.937308e+02
2.406728e+03,9.959721e+02
2.407693e+03,9.883386e+02
2.408657e+03,9.822770e+02
2.409621e+03,9.785555e+02
2.410585e+03,9.750773e+02
2.411550e+03,9.722542e+02
2.412514e+03,9.699618e+02
2.413478e+03,9.687715e+02
2.414442e+03,9.718799e+02
2.415406e+03,9.760995e+02
2.416371e+03,9.779339e+02
2.417335e+03,9.782567e+02
2.418299e+03,9.746430e+02
2.419263e+03,9.761065e+02
2.420228e+03,9.900048e+02
2.421192e+03,1.000572e+03
2.422156e+03,9.900638e+02
2.423120e+03,9.768043e+02
2.424084e+03,9.631568e+02
2.425049e+03,9.543132e+02
2.426013e+03,9.557906e+02
2.426977e+03,9.595263e+02
2.427941e+03,9.654170e+02
2.428906e+03,9.703470e+02
2.429870e+03,9.731775e+02
2.430834e+03,9.713948e+02
2.431798e+03,9.663790e+02
2.432763e+03,9.648629e+02
2.433727e+03,9.662554e+02
2.434691e+03,9.583878e+02
2.435655e+03,9.474860e+02
2.436620e+03,9.472630e+02
2.437584e+03,9.537698e+02
2.438548e+03,9.590370e+02
2.439512e+03,9.622504e+02
2.440477e+03,9.619075e+02
2.441441e+03,9.600894e+02
2.442405e+03,9.635117e+02
2.443369e+03,9.621524e+02
2.444333e+03,9.508309e+02
2.445298e+03,9.416312e+02
2.446262e+03,9.469877e+02
2.447226e+03,9.533279e+02
2.448190e+03,9.588146e+02
2.449155e+03,9.600453e+02
2.450119e+03,9.526102e+02
2.451083e+03,9.452073e+02
2.452047e+03,9.383242e+02
2.453011e+03,9.389517e+02
2.453976e+03,9.496762e+02
2.454940e+03,9.517989e+02
2.455904e+03,9.480425e+02
2.456868e+03,9.419542e+02
2.457833e+03,9.356298e+02
2.458797e+03,9.389056e+02
2.459761e+03,9.447100e+02
2.460725e+03,9.415143e+02
2.461690e+03,9.350987e+02
2.462654e+03,9.337977e+02
2.463618e+03,9.336312e+02
2.464582e+03,9.320274e+02
2.465547e+03,9.325659e+02
2.466511e+03,9.430945e+02
2.467475e+03,9.418213e+02
2.468439e+03,9.232264e+02
2.469404e+03,9.124018e+02
2.470368e+03,9.357726e+02
2.471332e+03,9.433613e+02
2.472296e+03,9.349104e+02
2.473260e+03,9.295222e+02
2.474225e+03,9.324259e+02
2.475189e+03,9.325533e+02
2.476153e+03,9.312686e+02
2.477117e+03,9.299681e+02
2.478082e+03,9.287836e+02
2.479046e+03,9.297764e+02
2.480010e+03,9.303456e+02
2.480974e+03,9.266469e+02
2.481938e+03,9.223875e+02
2.482903e+03,9.222150e+02
2.483867e+03,9.240544e+02
2.484831e+03,9.266664e+02
2.485795e+03,9.282576e+02
2.486760e+03,9.284223e+02
2.487724e+03,9.260853e+02
2.488688e+03,9.214841e+02
2.489652e+03,9.188219e+02
2.490617e+03,9.203093e+02
2.491581e+03,9.217006e+02
2.492545e+03,9.232892e+02
2.493509e+03,9.243383e+02
2.494474e+03,9.240508e+02
2.495438e+03,9.223614e+02
2.496402e+03,9.191967e+02
2.497366e+03,9.127860e+02
2.498331e+03,9.066735e+02
2.499295e+03,9.100951e+02
2.500259e+03,9.143268e+02
2.501223e+03,9.121710e+02
2.502188e+03,9.100987e+02
2.503152e+03,9.170486e+02
2.504116e+03,9.216559e+02
2.505080e+03,9.205807e+02
2.506044e+03,9.185707e+02
2.507009e+03,9.168676e+02
2.507973e+03,9.181424e+02
2.508937e+03,9.221650e+02
2.509901e+03,9.189965e+02
2.510865e+03,9.052280e+02
2.511830e+03,9.001857e+02
2.512794e+03,9.015790e+02
2.513758e+03,9.078289e+02
2.514722e+03,9.151663e+02
2.515687e+03,9.084468e+02
2.516651e+03,9.011139e+02
2.517615e+03,9.092868e+02
2.518579e+03,9.183145e+02
2.519544e+03,9.062081e+02
2.520508e+03,8.936035e+02
2.521472e+03,8.881453e+02
2.522436e+03,8.869839e+02
2.523401e+03,8.916826e+02
2.524365e+03,8.938378e+02
2.525329e+03,8.923108e+02
2.526293e+03,8.904778e+02
2.527258e+03,8.897097e+02
2.528222e+03,8.916756e+02
2.529186e+03,8.952789e+02
2.530150e+03,8.971446e+02
2.531115e+03,8.981474e+02
2.532079e+03,9.012174e+02
2.533043e+03,9.025859e+02
2.534007e+03,8.976151e+02
2.534971e+03,8.907836e+02
2.535936e+03,8.903074e+02
2.536900e+03,8.882164e+02
2.537864e+03,8.810557e+02
2.538828e+03,8.758793e+02
2.539792e+03,8.748193e+02
2.540757e+03,8.759124e+02
2.541721e+03,8.789794e+02
2.542685e+03,8.878983e+02
2.543649e+03,9.018297e+02
2.544614e+03,8.985930e+02
2.545578e+03,8.847295e+02
2.546542e+03,8.866343e+02
2.547506e+03,8.963080e+02
2.548471e+03,8.894958e+02
2.549435e+03,8.819857e+02
2.550399e+03,8.907457e+02
2.551363e+03,8.991992e+02
2.552328e+03,8.908351e+02
2.553292e+03,8.887845e+02
2.554256e+03,9.042313e+02
2.555220e+03,9.073035e+02
2.556185e+03,8.927831e+02
2.557149e+03,8.865557e+02
2.558113e+03,8.924158e+02
2.559077e+03,8.900632e+02
2.560042e+03,8.818646e+02
2.561006e+03,8.817257e+02
2.561970e+03,8.876453e+02
2.562934e+03,8.935985e+02
2.563898e+03,8.955789e+02
2.564863e+03,8.850870e+02
2.565827e+03,8.745492e+02
2.566791e+03,8.776585e+02
2.567755e+03,8.785820e+02
2.568719e+03,8.718817e+02
2.569684e+03,8.674488e+02
2.570648e+03,8.713177e+02
2.571612e+03,8.716815e+02
2.572576e+03,8.695720e+02
2.573541e+03,8.667974e+02
2.574505e+03,8.637787e+02
2.575469e+03,8.669820e+02
2.576433e+03,8.727664e+02
2.577398e+03,8.779355e+02
2.578362e+03,8.802579e+02
2.579326e+03,8.737372e+02
2.580290e+03,8.681389e+02
2.581255e+03,8.672309e+02
2.582219e+03,8.668839e+02
2.583183e+03,8.651143e+02
2.584147e+03,8.627103e+02
2.585112e+03,8.608309e+02
2.586076e+03,8.571622e+02
2.587040e+03,8.512855e+02
2.588004e+03,8.543684e+02
2.588969e+03,8.623346e+02
2.589933e+03,8.690496e+02
2.590897e+03,8.724826e+02
2.591861e+03,8.641140e+02
2.592825e+03,8.567524e+02
2.593790e+03,8.583322e+02
2.594754e+03,8.624395e+02
2.595718e+03,8.657786e+02
2.596682e+03,8.675394e+02
2.597646e+03,8.669936e+02
2.598611e+03,8.665204e+02
2.599575e+03,8.672014e+02
2.600539e+03,8.683171e+02
2.601503e+03,8.689297e+02
2.602468e+03,8.676698e+02
2.603432e+03,8.647457e+02
2.604396e+03,8.612906e+02
2.605360e+03,8.578088e+02
2.606325e+03,8.533057e+02
2.607289e+03,8.485602e+02
2.608253e+03,8.431258e+02
2.609217e+03,8.445651e+02
2.610182e+03,8.590688e+02
2.611146e+03,8.670977e+02
2.612110e+03,8.677617e+02
2.613074e+03,8.570984e+02
2.614039e+03,8.395827e+02
2.615003e+03,8.428744e+02
2.615967e+03,8.536627e+02
2.616931e+03,8.543899e+02
2.617896e+03,8.493969e+02
2.618860e+03,8.373871e+02
2.619824e+03,8.350982e+02
2.620788e+03,8.492343e+02
2.621752e+03,8.550234e+02
2.622717e+03,8.314724e+02
2.623681e+03,8.281723e+02
2.624645e+03,8.436944e+02
2.625609e+03,8.482057e+02
2.626573e+03,8.415555e+02
2.627538e+03,8.397792e+02
2.628502e+03,8.399736e+02
2.629466e+03,8.348063e+02
2.630430e+03,8.304949e+02
2.631395e+03,8.394391e+02
2.632359e+03,8.442443e+02
2.633323e+03,8.366695e+02
2.634287e+03,8.352590e+02
2.635252e+03,8.442814e+02
2.636216e+03,8.475228e+02
2.637180e+03,8.414759e+02
2.638144e+03,8.355326e+02
2.639109e+03,8.308331e+02
2.640073e+03,8.348348e+02
2.641037e+03,8.402783e+02
2.642001e+03,8.327733e+02
2.642966e+03,8.237548e+02
2.643930e+03,8.193752e+02
2.644894e+03,8.183625e+02
2.645858e+03,8.214929e+02
2.646823e+03,8.265671e+02
2.647787e+03,8.323638e+02
2.648751e+03,8.356436e+02
2.649715e+03,8.356487e+02
2.650679e+03,8.276909e+02
2.651644e+03,8.183399e+02
2.652608e+03,8.168929e+02
2.653572e+03,8.207421e+02
2.654536e+03,8.312753e+02
2.655500e+03,8.378278e+02
2.656465e+03,8.359773e+02
2.657429e+03,8.335768e+02
2.658393e+03,8.329023e+02
2.659357e+03,8.295764e+02
2.660322e+03,8.238392e+02
2.661286e+03,8.119671e+02
2.662250e+03,7.998828e+02
2.663214e+03,8.112553e+02
2.664179e+03,8.267818e+02
2.665143e+03,8.200156e+02
2.666107e+03,8.133975e+02
2.667071e+03,8.191518e+02
2.668036e+03,8.253558e+02
2.669000e+03,8.251158e+02
2.669964e+03,8.233785e+02
2.670928e+03,8.201874e+02
2.671893e+03,8.129970e+02
2.672857e+03,8.045127e+02
2.673821e+03,8.074421e+02
2.674785e+03,8.118255e+02
2.675750e+03,8.061823e+02
2.676714e+03,8.007853e+02
2.677678e+03,8.106041e+02
2.678642e+03,8.150030e+02
2.679606e+03,8.093937e+02
2.680571e+03,8.087286e+02
2.681535e+03,8.149500e+02
2.682499e+03,8.088878e+02
2.683463e+03,7.953635e+02
2.684427e+03,7.995225e+02
2.685392e+03,8.114473e+02
2.686356e+03,8.152440e+02
2.687320e+03,8.131545e+02
2.688284e+03,8.017758e+02
2.689249e+03,7.950326e+02
2.690213e+03,7.951055e+02
2.691177e+03,7.959083e+02
2.692141e+03,7.965211e+02
2.693106e+03,8.015319e+02
2.694070e+03,8.083766e+02
2.695034e+03,8.106529e+02
2.695998e+03,8.089319e+02
2.696963e+03,7.991744e+02
2.697927e+03,7.952997e+02
2.698891e+03,8.038951e+02
2.699855e+03,8.099965e+02
2.700820e+03,8.062709e+02
2.701784e+03,8.038069e+02
2.702748e+03,8.026207e+02
2.703712e+03,7.973718e+02
2.704677e+03,7.905702e+02
2.705641e+03,7.932224e+02
2.706605e+03,8.001249e+02
2.707569e+03,8.061539e+02
2.708533e+03,8.073890e+02
2.709498e+03,8.013807e+02
2.710462e+03,7.971981e+02
2.711426e+03,8.005460e+02
2.712390e+03,8.035925e+02
2.713354e+03,8.066068e+02
2.714319e+03,8.147260e+02
2.715283e+03,8.229916e+02
2.716247e+03,8.180361e+02
2.717211e+03,8.075138e+02
2.718176e+03,7.963038e+02
2.719140e+03,7.910355e+02
2.720104e+03,7.998267e+02
2.721068e+03,8.001008e+02
2.722033e+03,7.900093e+02
2.722997e+03,7.859545e+02
2.723961e+03,7.870002e+02
2.724925e+03,7.866092e+02
2.725890e+03,7.857930e+02
2.726854e+03,7.847200e+02
2.727818e+03,7.862520e+02
2.728782e+03,7.910040e+02
2.729747e+03,7.958777e+02
2.730711e+03,8.005682e+02
2.731675e+03,8.025259e+02
2.732639e+03,8.012975e+02
2.733604e+03,7.883148e+02
2.734568e+03,7.724252e+02
2.735532e+03,7.820908e+02
2.736496e+03,7.962828e+02
2.737460e+03,8.005424e+02
2.738425e+03,7.977591e+02
2.739389e+03,7.882888e+02
2.740353e+03,7.743961e+02
2.741317e+03,7.588643e+02
2.742281e+03,7.681077e+02
2.743246e+03,7.920593e+02
2.744210e+03,7.935721e+02
2.745174e+03,7.843761e+02
2.746138e+03,7.779583e+02
2.747103e+03,7.774658e+02
2.748067e+03,7.840701e+02
2.749031e+03,7.893280e+02
2.749995e+03,7.886679e+02
2.750960e+03,7.841517e+02
2.751924e+03,7.773990e+02
2.752888e+03,7.722526e+02
2.753852e+03,7.698494e+02
2.754817e+03,7.782680e+02
2.755781e+03,7.820998e+02
2.756745e+03,7.698837e+02
2.757709e+03,7.646075e+02
2.758674e+03,7.724919e+02
2.759638e+03,7.763929e+02
2.760602e+03,7.740476e+02
2.761566e+03,7.752758e+02
2.762531e+03,7.787687e+02
2.763495e+03,7.817835e+02
2.764459e+03,7.817940e+02
2.765423e+03,7.737263e+02
2.766387e+03,7.688895e+02
2.767352e+03,7.699601e+02
2.768316e+03,7.647953e+02
2.769280e+03,7.511822e+02
2.770244e+03,7.571830e+02
2.771208e+03,7.734918e+02
2.772173e+03,7.803967e+02
2.773137e+03,7.781346e+02
2.774101e+03,7.634694e+02
2.775065e+03,7.549094e+02
2.776030e+03,7.612822e+02
2.776994e+03,7.642429e+02
2.777958e+03,7.626241e+02
2.778922e+03,7.647488e+02
2.779887e+03,7.704524e+02
2.780851e+03,7.822151e+02
2.781815e+03,7.848862e+02
2.782779e+03,7.694413e+02
2.783744e+03,7.543759e+02
2.784708e+03,7.491935e+02
2.785672e+03,7.517521e+02
2.786636e+03,7.611208e+02
2.787601e+03,7.719625e+02
2.788565e+03,7.819648e+02
2.789529e+03,7.834930e+02
2.790493e+03,7.813790e+02
2.791458e+03,7.792275e+02
2.792422e+03,7.718100e+02
2.793386e+03,7.595580e+02
2.794350e+03,7.487681e+02
2.795314e+03,7.407766e+02
2.796279e+03,7.515686e+02
2.797243e+03,7.669235e+02
2.798207e+03,7.650999e+02
2.799171e+03,7.584539e+02
2.800135e+03,7.602368e+02
2.801100e+03,7.636851e+02
2.802064e+03,7.683313e+02
2.803028e+03,7.636689e+02
2.803992e+03,7.519622e+02
2.804957e+03,7.487422e+02
2.805921e+03,7.502156e+02
2.806885e+03,7.445202e+02
2.807849e+03,7.439039e+02
2.808814e+03,7.537827e+02
2.809778e+03,7.649938e+02
2.810742e+03,7.762069e+02
2.811706e+03,7.699171e+02
2.812671e+03,7.515339e+02
2.813635e+03,7.428903e+02
2.814599e+03,7.417321e+02
2.815563e+03,7.498937e+02
2.816528e+03,7.518890e+02
2.817492e+03,7.357284e+02
2.818456e+03,7.288997e+02
2.819420e+03,7.330574e+02
2.820385e+03,7.416432e+02
2.821349e+03,7.508658e+02
2.822313e+03,7.465840e+02
2.823277e+03,7.399588e+02
2.824241e+03,7.393754e+02
2.825206e+03,7.416276e+02
2.826170e+03,7.459172e+02
2.827134e+03,7.522390e+02
2.828098e+03,7.584841e+02
2.829063e+03,7.554911e+02
2.830027e+03,7.477550e+02
2.830991e+03,7.469142e+02
2.831955e+03,7.457277e+02
2.832919e+03,7.309877e+02
2.833884e+03,7.292298e+02
2.834848e+03,7.417919e+02
2.835812e+03,7.370042e+02
2.836776e+03,7.166198e+02
2.837741e+03,7.227631e+02
2.838705e+03,7.380606e+02
2.839669e+03,7.424124e+02
2.840633e+03,7.464664e+02
2.841598e+03,7.571053e+02
2.842562e+03,7.572673e+02
2.843526e+03,7.429998e+02
2.844490e+03,7.410482e+02
2.845455e+03,7.469147e+02
2.846419e+03,7.555748e+02
2.847383e+03,7.609758e+02
2.848347e+03,7.482607e+02
2.849312e+03,7.524989e+02
2.850276e+03,7.782083e+02
2.851240e+03,7.714197e+02
2.852204e+03,7.389623e+02
2.853168e+03,7.392147e+02
2.854133e+03,7.528438e+02
2.855097e+03,7.553137e+02
2.856061e+03,7.576611e+02
2.857025e+03,7.627719e+02
2.857990e+03,7.633141e+02
2.858954e+03,7.572610e+02
2.859918e+03,7.599319e+02
2.860882e+03,7.624250e+02
2.861846e+03,7.478702e+02
2.862811e+03,7.358796e+02
2.863775e+03,7.482242e+02
2.864739e+03,7.541422e+02
2.865703e+03,7.457084e+02
2.866668e+03,7.567737e+02
2.867632e+03,7.769442e+02
2.868596e+03,7.712610e+02
2.869560e+03,7.580561e+02
2.870525e+03,7.597369e+02
2.871489e+03,7.648780e+02
2.872453e+03,7.700771e+02
2.873417e+03,7.609630e+02
2.874382e+03,7.407779e+02
2.875346e+03,7.371696e+02
2.876310e+03,7.445021e+02
2.877274e+03,7.556545e+02
2.878239e+03,7.622737e+02
2.879203e+03,7.613381e+02
2.880167e+03,7.579437e+02
2.881131e+03,7.542776e+02
2.882095e+03,7.632449e+02
2.883060e+03,7.734271e+02
2.884024e+03,7.650700e+02
2.884988e+03,7.544313e+02
2.885952e+03,7.576628e+02
2.886917e+03,7.526652e+02
2.887881e+03,7.349231e+02
2.888845e+03,7.405881e+02
2.889809e+03,7.604894e+02
2.890773e+03,7.734843e+02
2.891738e+03,7.784368e+02
2.892702e+03,7.712548e+02
2.893666e+03,7.649350e+02
2.894630e+03,7.617705e+02
2.895595e+03,7.559926e+02
2.896559e+03,7.494562e+02
2.897523e+03,7.580668e+02
2.898487e+03,7.683878e+02
2.899452e+03,7.638172e+02
2.900416e+03,7.603743e+02
2.901380e+03,7.614837e+02
2.902344e+03,7.602277e+02
2.903309e+03,7.557664e+02
2.904273e+03,7.525616e+02
2.905237e+03,7.500568e+02
2.906201e+03,7.460849e+02
2.907166e+03,7.480125e+02
2.908130e+03,7.588176e+02
2.909094e+03,7.664554e+02
2.910058e+03,7.679339e+02
2.911022e+03,7.641769e+02
2.911987e+03,7.546152e+02
2.912951e+03,7.373428e+02
2.913915e+03,7.225881e+02
2.914879e+03,7.182110e+02
2.915844e+03,7.120635e+02
2.916808e+03,7.073682e+02
2.917772e+03,7.272209e+02
2.918736e+03,7.533559e+02
2.919700e+03,7.577217e+02
2.920665e+03,7.526541e+02
2.921629e+03,7.373691e+02
2.922593e+03,7.370377e+02
2.923557e+03,7.480706e+02
2.924522e+03,7.457803e+02
2.925486e+03,7.348096e+02
2.926450e+03,7.221688e+02
2.927414e+03,7.157604e+02
2.928379e+03,7.200262e+02
2.929343e+03,7.375641e+02
2.930307e+03,7.606049e+02
2.931271e+03,7.456221e+02
2.932236e+03,7.182000e+02
2.933200e+03,7.296174e+02
2.934164e+03,7.346077e+02
2.935128e+03,7.132285e+02
2.936093e+03,7.047407e+02
2.937057e+03,7.116957e+02
2.938021e+03,7.090546e+02
2.938985e+03,7.051268e+02
2.939949e+03,7.197365e+02
2.940914e+03,7.256574e+02
2.941878e+03,7.146673e+02
2.942842e+03,7.150918e+02
2.943806e+03,7.292720e+02
2.944771e+03,7.281794e+02
2.945735e+03,7.211482e+02
2.946699e+03,7.214328e+02
2.947663e+03,7.218499e+02
2.948627e+03,7.188242e+02
2.949592e+03,7.224228e+02
2.950556e+03,7.327681e+02
2.951520e+03,7.227962e+02
2.952484e+03,7.052337e+02
2.953449e+03,6.920240e+02
2.954413e+03,6.941136e+02
2.955377e+03,7.159141e+02
2.956341e+03,7.341198e+02
2.957306e+03,7.429020e+02
2.958270e+03,7.357946e+02
2.959234e+03,7.191565e+02
2.960198e+03,6.997834e+02
2.961163e+03,6.900919e+02
2.962127e+03,6.948290e+02
2.963091e+03,7.002257e+02
2.964055e+03,7.018878e+02
2.965020e+03,6.915586e+02
2.965984e+03,6.851241e+02
2.966948e+03,6.937477e+02
2.967912e+03,6.986747e+02
2.968876e+03,6.901524e+02
2.969841e+03,6.917547e+02
2.970805e+03,6.969190e+02
2.971769e+03,6.909642e+02
2.972733e+03,6.900458e+02
2.973698e+03,7.081984e+02
2.974662e+03,7.124474e+02
2.975626e+03,6.933514e+02
2.976590e+03,6.899210e+02
2.977554e+03,6.937968e+02
2.978519e+03,6.927108e+02
2.979483e+03,6.878018e+02
2.980447e+03,6.784656e+02
2.981411e+03,6.851349e+02
2.982376e+03,7.066525e+02
2.983340e+03,7.060056e+02
2.984304e+03,6.979587e+02
2.985268e+03,6.992225e+02
2.986233e+03,6.944796e+02
2.987197e+03,6.712405e+02
2.988161e+03,6.684362e+02
2.989125e+03,6.825355e+02
2.990090e+03,6.946272e+02
2.991054e+03,6.994471e+02
2.992018e+03,6.932629e+02
2.992982e+03,6.821363e+02
2.993947e+03,6.670704e+02
2.994911e+03,6.718691e+02
2.995875e+03,6.816295e+02
2.996839e+03,6.655202e+02
2.997803e+03,6.590614e+02
2.998768e+03,6.876559e+02
2.999732e+03,7.014037e+02
3.000696e+03,6.916386e+02
3.001660e+03,6.783029e+02
3.002625e+03,6.694313e+02
3.003589e+03,6.726303e+02
3.004553e+03,6.799391e+02
3.005517e+03,6.882723e+02
3.006481e+03,6.984809e+02
3.007446e+03,7.043018e+02
3.008410e+03,6.870430e+02
3.009374e+03,6.672102e+02
3.010338e+03,6.577998e+02
3.011303e+03,6.590115e+02
3.012267e+03,6.693185e+02
3.013231e+03,6.740583e+02
3.014195e+03,6.735541e+02
3.015160e+03,6.669283e+02
3.016124e+03,6.662122e+02
3.017088e+03,6.742989e+02
3.018052e+03,6.835082e+02
3.019017e+03,6.906465e+02
3.019981e+03,6.889501e+02
3.020945e+03,6.845412e+02
3.021909e+03,6.848903e+02
3.022874e+03,6.713341e+02
3.023838e+03,6.444150e+02
3.024802e+03,6.447637e+02
3.025766e+03,6.613795e+02
3.026730e+03,6.595066e+02
3.027695e+03,6.593261e+02
3.028659e+03,6.702634e+02
3.029623e+03,6.739706e+02
3.030587e+03,6.694713e+02
3.031552e+03,6.568663e+02
3.032516e+03,6.470572e+02
3.033480e+03,6.611959e+02
3.034444e+03,6.628831e+02
3.035408e+03,6.490007e+02
3.036373e+03,6.565926e+02
3.037337e+03,6.758611e+02
3.038301e+03,6.731457e+02
3.039265e+03,6.653185e+02
3.040230e+03,6.594276e+02
3.041194e+03,6.475173e+02
3.042158e+03,6.343318e+02
3.043122e+03,6.367072e+02
3.044087e+03,6.484647e+02
3.045051e+03,6.657360e+02
3.046015e+03,6.718820e+02
3.046979e+03,6.607838e+02
3.047944e+03,6.677285e+02
3.048908e+03,6.771731e+02
3.049872e+03,6.618879e+02
3.050836e+03,6.483145e+02
3.051801e+03,6.538055e+02
3.052765e+03,6.726514e+02
3.053729e+03,6.928454e+02
3.054693e+03,6.570053e+02
3.055657e+03,6.341419e+02
3.056622e+03,6.717175e+02
3.057586e+03,6.919534e+02
3.058550e+03,6.716523e+02
3.059514e+03,6.513743e+02
3.060479e+03,6.398044e+02
3.061443e+03,6.541454e+02
3.062407e+03,6.556318e+02
3.063371e+03,6.362219e+02
3.064335e+03,6.394212e+02
3.065300e+03,6.605999e+02
3.066264e+03,6.585937e+02
3.067228e+03,6.539796e+02
3.068192e+03,6.605014e+02
3.069157e+03,6.537926e+02
3.070121e+03,6.393625e+02
3.071085e+03,6.587566e+02
3.072049e+03,6.796176e+02
3.073014e+03,6.363951e+02
3.073978e+03,6.197490e+02
3.074942e+03,6.475311e+02
3.075906e+03,6.478859e+02
3.076871e+03,6.362275e+02
3.077835e+03,6.423368e+02
3.078799e+03,6.453961e+02
3.079763e+03,6.276561e+02
3.080728e+03,6.361390e+02
3.081692e+03,6.627641e+02
3.082656e+03,6.663877e+02
3.083620e+03,6.594176e+02
3.084584e+03,6.510400e+02
3.085549e+03,6.415110e+02
3.086513e+03,6.322697e+02
3.087477e+03,6.429162e+02
3.088441e+03,6.602131e+02
3.089406e+03,6.759394e+02
3.090370e+03,6.758954e+02
3.091334e+03,6.616783e+02
3.092298e+03,6.448563e+02
3.093262e+03,6.306936e+02
3.094227e+03,6.296464e+02
3.095191e+03,6.296361e+02
3.096155e+03,6.267940e+02
3.097119e+03,6.309151e+02
3.098084e+03,6.414412e+02
3.099048e+03,6.557128e+02
3.100012e+03,6.705626e+02
3.100976e+03,6.885355e+02
3.101941e+03,6.692435e+02
3.102905e+03,6.230963e+02
3.103869e+03,6.278433e+02
3.104833e+03,6.440625e+02
3.105798e+03,6.452067e+02
3.106762e+03,6.432418e+02
3.107726e+03,6.426735e+02
3.108690e+03,6.433022e+02
3.109655e+03,6.475444e+02
3.110619e+03,6.680266e+02
3.111583e+03,6.627621e+02
3.112547e+03,6.341033e+02
3.113511e+03,6.351525e+02
3.114476e+03,6.541575e+02
3.115440e+03,6.703959e+02
3.116404e+03,6.719429e+02
3.117368e+03,6.498913e+02
3.118333e+03,6.423904e+02
3.119297e+03,6.484621e+02
3.120261e+03,6.650941e+02
3.121225e+03,6.757975e+02
3.122189e+03,6.715972e+02
3.123154e+03,6.637542e+02
3.124118e+03,6.536738e+02
3.125082e+03,6.407916e+02
3.126046e+03,6.359352e+02
3.127011e+03,6.430118e+02
3.127975e+03,6.450299e+02
3.128939e+03,6.427545e+02
3.129903e+03,6.532466e+02
3.130868e+03,6.666405e+02
3.131832e+03,6.769847e+02
3.132796e+03,6.804891e+02
3.133760e+03,6.752581e+02
3.134725e+03,6.530020e+02
3.135689e+03,6.353137e+02
3.136653e+03,6.420803e+02
3.137617e+03,6.517855e+02
3.138582e+03,6.586718e+02
3.139546e+03,6.608293e+02
3.140510e+03,6.606390e+02
3.141474e+03,6.631483e+02
3.142438e+03,6.608116e+02
3.143403e+03,6.543271e+02
3.144367e+03,6.584008e+02
3.145331e+03,6.663410e+02
3.146295e+03,6.646194e+02
3.147260e+03,6.697654e+02
3.148224e+03,6.838624e+02
3.149188e+03,6.779035e+02
3.150152e+03,6.644148e+02
3.151116e+03,6.590754e+02
3.152081e+03,6.660598e+02
3.153045e+03,6.855766e+02
3.154009e+03,6.896602e+02
3.154973e+03,6.792326e+02
3.155938e+03,6.487659e+02
3.156902e+03,6.361168e+02
3.157866e+03,6.470020e+02
3.158830e+03,6.385389e+02
3.159795e+03,6.202244e+02
3.160759e+03,6.207246e+02
3.161723e+03,6.264255e+02
3.162687e+03,6.381688e+02
3.163652e+03,6.206313e+02
3.164616e+03,6.047458e+02
3.165580e+03,6.530038e+02
3.166544e+03,6.858514e+02
3.167509e+03,6.729828e+02
3.168473e+03,6.662133e+02
3.169437e+03,6.680469e+02
3.170401e+03,6.630106e+02
3.171365e+03,6.572206e+02
3.172330e+03,6.537811e+02
3.173294e+03,6.566033e+02
3.174258e+03,6.591599e+02
3.175222e+03,6.470154e+02
3.176187e+03,6.366010e+02
3.177151e+03,6.399631e+02
3.178115e+03,6.453437e+02
3.179079e+03,6.497606e+02
3.180043e+03,6.439600e+02
3.181008e+03,6.460364e+02
3.181972e+03,6.618347e+02
3.182936e+03,6.501484e+02
3.183900e+03,6.234091e+02
3.184865e+03,6.267480e+02
3.185829e+03,6.447159e+02
3.186793e+03,6.927188e+02
3.187757e+03,6.795178e+02
3.188722e+03,6.389231e+02
3.189686e+03,6.533027e+02
3.190650e+03,6.639491e+02
3.191614e+03,6.475655e+02
3.192579e+03,6.464684e+02
3.193543e+03,6.561283e+02
3.194507e+03,6.445414e+02
3.195471e+03,6.411208e+02
3.196436e+03,6.583868e+02
3.197400e+03,6.723200e+02
3.198364e+03,6.755790e+02
3.199328e+03,6.604891e+02
3.200292e+03,6.479012e+02
3.201257e+03,0.000000e+00
3.202221e+03,0.000000e+00
3.203185e+03,0.000000e+00
3.204149e+03,0.000000e+00
3.205114e+03,0.000000e+00
3.206078e+03,0.000000e+00
3.207042e+03,0.000000e+00
3.208006e+03,0.000000e+00
3.208970e+03,0.000000e+00
3.209935e+03,0.000000e+00
3.210899e+03,0.000000e+00
3.211863e+03,0.000000e+00
3.212827e+03,0.000000e+00
3.213792e+03,0.000000e+00
3.214756e+03,0.000000e+00
3.215720e+03,0.000000e+00
3.216684e+03,0.000000e+00
3.217649e+03,0.000000e+00
3.218613e+03,0.000000e+00
3.219577e+03,0.000000e+00
3.220541e+03,0.000000e+00
3.221506e+03,0.000000e+00
3.222470e+03,0.000000e+00
3.223434e+03,0.000000e+00
3.224398e+03,0.000000e+00
3.225363e+03,0.000000e+00
3.226327e+03,0.000000e+00
3.227291e+03,0.000000e+00
3.228255e+03,0.000000e+00
3.229219e+03,0.000000e+00
3.230184e+03,0.000000e+00
3.231148e+03,0.000000e+00
3.232112e+03,0.000000e+00
3.233076e+03,0.000000e+00
3.234041e+03,0.000000e+00
3.235005e+03,0.000000e+00
3.235969e+03,0.000000e+00
3.236933e+03,0.000000e+00
3.237897e+03,0.000000e+00
3.238862e+03,0.000000e+00
3.239826e+03,0.000000e+00
3.240790e+03,0.000000e+00
3.241754e+03,0.000000e+00
3.242719e+03,0.000000e+00
3.243683e+03,0.000000e+00
3.244647e+03,0.000000e+00
3.245611e+03,0.000000e+00
3.246576e+03,0.000000e+00
3.247540e+03,0.000000e+00
3.248504e+03,0.000000e+00
3.249468e+03,0.000000e+00
3.250433e+03,0.000000e+00
3.251397e+03,0.000000e+00
3.252361e+03,0.000000e+00
3.253325e+03,0.000000e+00
3.254290e+03,0.000000e+00
3.255254e+03,0.000000e+00
3.256218e+03,0.000000e+00
3.257182e+03,0.000000e+00
3.258146e+03,0.000000e+00
3.259111e+03,0.000000e+00
3.260075e+03,0.000000e+00
3.261039e+03,0.000000e+00
3.262003e+03,0.000000e+00
3.262968e+03,0.000000e+00
3.263932e+03,0.000000e+00
3.264896e+03,0.000000e+00
3.265860e+03,0.000000e+00
3.266824e+03,0.000000e+00
3.267789e+03,0.000000e+00
3.268753e+03,0.000000e+00
3.269717e+03,0.000000e+00
3.270681e+03,0.000000e+00
3.271646e+03,0.000000e+00
3.272610e+03,0.000000e+00
3.273574e+03,0.000000e+00
3.274538e+03,0.000000e+00
3.275503e+03,0.000000e+00
3.276467e+03,0.000000e+00
3.277431e+03,0.000000e+00
3.278395e+03,0.000000e+00
3.279360e+03,0.000000e+00
3.280324e+03,0.000000e+00
3.281288e+03,0.000000e+00
3.282252e+03,0.000000e+00
3.283217e+03,0.000000e+00
3.284181e+03,0.000000e+00
3.285145e+03,0.000000e+00
3.286109e+03,0.000000e+00
3.287073e+03,0.000000e+00
3.288038e+03,0.000000e+00
3.289002e+03,0.000000e+00
3.289966e+03,0.000000e+00
3.290930e+03,0.000000e+00
3.291895e+03,0.000000e+00
3.292859e+03,0.000000e+00
3.293823e+03,0.000000e+00
3.294787e+03,0.000000e+00
3.295751e+03,0.000000e+00
3.296716e+03,0.000000e+00
3.297680e+03,0.000000e+00
3.298644e+03,0.000000e+00
3.299608e+03,0.000000e+00
3.300573e+03,0.000000e+00
3.301537e+03,0.000000e+00
3.302501e+03,0.000000e+00
3.303465e+03,0.000000e+00
3.304430e+03,0.000000e+00
3.305394e+03,0.000000e+00
3.306358e+03,0.000000e+00
3.307322e+03,0.000000e+00
3.308287e+03,0.000000e+00
3.309251e+03,0.000000e+00
3.310215e+03,0.000000e+00
3.311179e+03,0.000000e+00
3.312144e+03,0.000000e+00
3.313108e+03,0.000000e+00
3.314072e+03,0.000000e+00
3.315036e+03,0.000000e+00
3.316000e+03,0.000000e+00
3.316965e+03,0.000000e+00
3.317929e+03,0.000000e+00
3.318893e+03,0.000000e+00
3.319857e+03,0.000000e+00
3.320822e+03,0.000000e+00
3.321786e+03,0.000000e+00
3.322750e+03,0.000000e+00
3.323714e+03,0.000000e+00
3.324678e+03,0.000000e+00
3.325643e+03,0.000000e+00
3.326607e+03,0.000000e+00
3.327571e+03,0.000000e+00
3.328535e+03,0.000000e+00
3.329500e+03,0.000000e+00
3.330464e+03,0.000000e+00
3.331428e+03,0.000000e+00
3.332392e+03,0.000000e+00
3.333357e+03,0.000000e+00
3.334321e+03,0.000000e+00
3.335285e+03,0.000000e+00
3.336249e+03,0.000000e+00
3.337214e+03,0.000000e+00
3.338178e+03,0.000000e+00
3.339142e+03,0.000000e+00
3.340106e+03,0.000000e+00
3.341071e+03,0.000000e+00
3.342035e+03,0.000000e+00
3.342999e+03,0.000000e+00
3.343963e+03,0.000000e+00
3.344927e+03,0.000000e+00
3.345892e+03,0.000000e+00
3.346856e+03,0.000000e+00
3.347820e+03,0.000000e+00
3.348784e+03,0.000000e+00
3.349749e+03,0.000000e+00
3.350713e+03,0.000000e+00
3.351677e+03,0.000000e+00
3.352641e+03,0.000000e+00
3.353605e+03,0.000000e+00
3.354570e+03,0.000000e+00
3.355534e+03,0.000000e+00
3.356498e+03,0.000000e+00
3.357462e+03,0.000000e+00
3.358427e+03,0.000000e+00
3.359391e+03,0.000000e+00
3.360355e+03,0.000000e+00
3.361319e+03,0.000000e+00
3.362284e+03,0.000000e+00
3.363248e+03,0.000000e+00
3.364212e+03,0.000000e+00
3.365176e+03,0.000000e+00
3.366141e+03,0.000000e+00
3.367105e+03,0.000000e+00
3.368069e+03,0.000000e+00
3.369033e+03,0.000000e+00
3.369998e+03,0.000000e+00
3.370962e+03,0.000000e+00
3.371926e+03,0.000000e+00
3.372890e+03,0.000000e+00
3.373854e+03,0.000000e+00
3.374819e+03,0.000000e+00
3.375783e+03,0.000000e+00
3.376747e+03,0.000000e+00
3.377711e+03,0.000000e+00
3.378676e+03,0.000000e+00
3.379640e+03,0.000000e+00
3.380604e+03,0.000000e+00
3.381568e+03,0.000000e+00
3.382532e+03,0.000000e+00
3.383497e+03,0.000000e+00
3.384461e+03,0.000000e+00
3.385425e+03,0.000000e+00
3.386389e+03,0.000000e+00
3.387354e+03,0.000000e+00
3.388318e+03,0.000000e+00
3.389282e+03,0.000000e+00
3.390246e+03,0.000000e+00
3.391211e+03,0.000000e+00
3.392175e+03,0.000000e+00
3.393139e+03,0.000000e+00
3.394103e+03,0.000000e+00
3.395068e+03,0.000000e+00
3.396032e+03,0.000000e+00
3.396996e+03,0.000000e+00
3.397960e+03,0.000000e+00
3.398925e+03,0.000000e+00
3.399889e+03,0.000000e+00
3.400853e+03,0.000000e+00
3.401817e+03,0.000000e+00
3.402781e+03,0.000000e+00
3.403746e+03,0.000000e+00
3.404710e+03,0.000000e+00
3.405674e+03,0.000000e+00
3.406638e+03,0.000000e+00
3.407603e+03,0.000000e+00
3.408567e+03,0.000000e+00
3.409531e+03,0.000000e+00
3.410495e+03,0.000000e+00
3.411459e+03,0.000000e+00
3.412424e+03,0.000000e+00
3.413388e+03,0.000000e+00
3.414352e+03,0.000000e+00
3.415316e+03,0.000000e+00
3.416281e+03,0.000000e+00
3.417245e+03,0.000000e+00
3.418209e+03,0.000000e+00
3.419173e+03,0.000000e+00
3.420138e+03,0.000000e+00
3.421102e+03,0.000000e+00
3.422066e+03,0.000000e+00
3.423030e+03,0.000000e+00
3.423995e+03,0.000000e+00
3.424959e+03,0.000000e+00
3.425923e+03,0.000000e+00
3.426887e+03,0.000000e+00
3.427852e+03,0.000000e+00
3.428816e+03,0.000000e+00
3.429780e+03,0.000000e+00
3.430744e+03,0.000000e+00
3.431708e+03,0.000000e+00
3.432673e+03,0.000000e+00
3.433637e+03,0.000000e+00
3.434601e+03,0.000000e+00
3.435565e+03,0.000000e+00
3.436530e+03,0.000000e+00
3.437494e+03,0.000000e+00
3.438458e+03,0.000000e+00
3.439422e+03,0.000000e+00
3.440386e+03,0.000000e+00
3.441351e+03,0.000000e+00
3.442315e+03,0.000000e+00
3.443279e+03,0.000000e+00
3.444243e+03,0.000000e+00
3.445208e+03,0.000000e+00
3.446172e+03,0.000000e+00
3.447136e+03,0.000000e+00
3.448100e+03,0.000000e+00
3.449065e+03,0.000000e+00
3.450029e+03,0.000000e+00
3.450993e+03,0.000000e+00
3.451957e+03,0.000000e+00
3.452922e+03,0.000000e+00
3.453886e+03,0.000000e+00
3.454850e+03,0.000000e+00
3.455814e+03,0.000000e+00
3.456779e+03,0.000000e+00
3.457743e+03,0.000000e+00
3.458707e+03,0.000000e+00
3.459671e+03,0.000000e+00
3.460635e+03,0.000000e+00
3.461600e+03,0.000000e+00
3.462564e+03,0.000000e+00
3.463528e+03,0.000000e+00
3.464492e+03,0.000000e+00
3.465457e+03,0.000000e+00
3.466421e+03,0.000000e+00
3.467385e+03,0.000000e+00
3.468349e+03,0.000000e+00
3.469313e+03,0.000000e+00
3.470278e+03,0.000000e+00
3.471242e+03,0.000000e+00
3.472206e+03,0.000000e+00
3.473170e+03,0.000000e+00
3.474135e+03,0.000000e+00
3.475099e+03,0.000000e+00
3.476063e+03,0.000000e+00
3.477027e+03,0.000000e+00
3.477992e+03,0.000000e+00
3.478956e+03,0.000000e+00
3.479920e+03,0.000000e+00
3.480884e+03,0.000000e+00
3.481849e+03,0.000000e+00
3.482813e+03,0.000000e+00
3.483777e+03,0.000000e+00
3.484741e+03,0.000000e+00
3.485706e+03,0.000000e+00
3.486670e+03,0.000000e+00
3.487634e+03,0.000000e+00
3.488598e+03,0.000000e+00
3.489563e+03,0.000000e+00
3.490527e+03,0.000000e+00
3.491491e+03,0.000000e+00
3.492455e+03,0.000000e+00
3.493419e+03,0.000000e+00
3.494384e+03,0.000000e+00
3.495348e+03,0.000000e+00
3.496312e+03,0.000000e+00
3.497276e+03,0.000000e+00
3.498240e+03,0.000000e+00
3.499205e+03,0.000000e+00
3.500169e+03,0.000000e+00
