9.931763e+01,0.000000e+00
1.002819e+02,0.000000e+00
1.012461e+02,0.000000e+00
1.022103e+02,0.000000e+00
1.031746e+02,0.000000e+00
1.041388e+02,0.000000e+00
1.051030e+02,0.000000e+00
1.060673e+02,0.000000e+00
1.070315e+02,0.000000e+00
1.079957e+02,0.000000e+00
1.089600e+02,0.000000e+00
1.099242e+02,0.000000e+00
1.108884e+02,0.000000e+00
1.118527e+02,0.000000e+00
1.128169e+02,0.000000e+00
1.137811e+02,0.000000e+00
1.147454e+02,0.000000e+00
1.157096e+02,0.000000e+00
1.166738e+02,0.000000e+00
1.176381e+02,0.000000e+00
1.186023e+02,0.000000e+00
1.195665e+02,0.000000e+00
1.205308e+02,0.000000e+00
1.214950e+02,0.000000e+00
1.224592e+02,0.000000e+00
1.234235e+02,0.000000e+00
1.243877e+02,0.000000e+00
1.253519e+02,0.000000e+00
1.263162e+02,0.000000e+00
1.272804e+02,0.000000e+00
1.282446e+02,0.000000e+00
1.292089e+02,0.000000e+00
1.301731e+02,0.000000e+00
1.311373e+02,0.000000e+00
1.321016e+02,0.000000e+00
1.330658e+02,0.000000e+00
1.340300e+02,0.000000e+00
1.349943e+02,0.000000e+00
1.359585e+02,0.000000e+00
1.369227e+02,0.000000e+00
1.378870e+02,0.000000e+00
1.388512e+02,0.000000e+00
1.398154e+02,0.000000e+00
1.407797e+02,0.000000e+00
1.417439e+02,0.000000e+00
1.427081e+02,0.000000e+00
1.436724e+02,0.000000e+00
1.446366e+02,0.000000e+00
1.456008e+02,0.000000e+00
1.465651e+02,0.000000e+00
1.475293e+02,0.000000e+00
1.484935e+02,0.000000e+00
1.494578e+02,0.000000e+00
1.504220e+02,0.000000e+00
1.513862e+02,0.000000e+00
1.523505e+02,0.000000e+00
1.533147e+02,0.000000e+00
1.542789e+02,0.000000e+00
1.552432e+02,0.000000e+00
1.562074e+02,0.000000e+00
1.571716e+02,0.000000e+00
1.581359e+02,0.000000e+00
1.591001e+02,0.000000e+00
1.600643e+02,0.000000e+00
1.610286e+02,0.000000e+00
1.619928e+02,0.000000e+00
1.629570e+02,0.000000e+00
1.639213e+02,0.000000e+00
1.648855e+02,0.000000e+00
1.658497e+02,0.000000e+00
1.668140e+02,0.000000e+00
1.677782e+02,0.000000e+00
1.687424e+02,0.000000e+00
1.697067e+02,0.000000e+00
1.706709e+02,0.000000e+00
1.716351e+02,0.000000e+00
1.725994e+02,0.000000e+00
1.735636e+02,0.000000e+00
1.745278e+02,0.000000e+00
1.754921e+02,0.000000e+00
1.764563e+02,0.000000e+00
1.774205e+02,0.000000e+00
1.783848e+02,0.000000e+00
1.793490e+02,0.000000e+00
1.803132e+02,0.000000e+00
1.812775e+02,0.000000e+00
1.822417e+02,0.000000e+00
1.832059e+02,0.000000e+00
1.841702e+02,0.000000e+00
1.851344e+02,0.000000e+00
1.860986e+02,0.000000e+00
1.870629e+02,0.000000e+00
1.880271e+02,0.000000e+00
1.889913e+02,0.000000e+00
1.899556e+02,0.000000e+00
1.909198e+02,0.000000e+00
1.918840e+02,0.000000e+00
1.928483e+02,0.000000e+00
1.938125e+02,0.000000e+00
1.947767e+02,0.000000e+00
1.957410e+02,0.000000e+00
1.967052e+02,0.000000e+00
1.976694e+02,0.000000e+00
1.986337e+02,0.000000e+00
1.995979e+02,1.087707e+03
2.005621e+02,1.083526e+03
2.015264e+02,1.081434e+03
2.024906e+02,1.083028e+03
2.034548e+02,1.085548e+03
2.044191e+02,1.088863e+03
2.053833e+02,1.092414e+03
2.063475e+02,1.095268e+03
2.073118e+02,1.096572e+03
2.082760e+02,1.096106e+03
2.092402e+02,1.094653e+03
2.102045e+02,1.091089e+03
2.111687e+02,1.087928e+03
2.121329e+02,1.087181e+03
2.130972e+02,1.089949e+03
2.140614e+02,1.094490e+03
2.150256e+02,1.096582e+03
2.159899e+02,1.094312e+03
2.169541e+02,1.092555e+03
2.179183e+02,1.094047e+03
2.188826e+02,1.097925e+03
2.198468e+02,1.101415e+03
2.208110e+02,1.101746e+03
2.217753e+02,1.098909e+03
2.227395e+02,1.097283e+03
2.237037e+02,1.099595e+03
2.246680e+02,1.103047e+03
2.256322e+02,1.104776e+03
2.265964e+02,1.104119e+03
2.275607e+02,1.102662e+03
2.285249e+02,1.101723e+03
2.294892e+02,1.101236e+03
2.304534e+02,1.101745e+03
2.314176e+02,1.103878e+03
2.323819e+02,1.107020e+03
2.333461e+02,1.109330e+03
2.343103e+02,1.109765e+03
2.352746e+02,1.109328e+03
2.362388e+02,1.109846e+03
2.372030e+02,1.111911e+03
2.381673e+02,1.113868e+03
2.391315e+02,1.113272e+03
2.400957e+02,1.108313e+03
2.410600e+02,1.104360e+03
2.420242e+02,1.104568e+03
2.429884e+02,1.108299e+03
2.439527e+02,1.112524e+03
2.449169e+02,1.115010e+03
2.458811e+02,1.115292e+03
2.468454e+02,1.115372e+03
2.478096e+02,1.115084e+03
2.487738e+02,1.114747e+03
2.497381e+02,1.114313e+03
2.507023e+02,1.113834e+03
2.516665e+02,1.113812e+03
2.526308e+02,1.115023e+03
2.535950e+02,1.119709e+03
2.545592e+02,1.121843e+03
2.555235e+02,1.119807e+03
2.564877e+02,1.115851e+03
2.574519e+02,1.112721e+03
2.584161e+02,1.112150e+03
2.593804e+02,1.114078e+03
2.603446e+02,1.116175e+03
2.613088e+02,1.118320e+03
2.622731e+02,1.120092e+03
2.632373e+02,1.121490e+03
2.642015e+02,1.122189e+03
2.651658e+02,1.121855e+03
2.661300e+02,1.119763e+03
2.670942e+02,1.115606e+03
2.680585e+02,1.113540e+03
2.690227e+02,1.116316e+03
2.699869e+02,1.120458e+03
2.709512e+02,1.123389e+03
2.719154e+02,1.124188e+03
2.728796e+02,1.124521e+03
2.738439e+02,1.127091e+03
2.748081e+02,1.132921e+03
2.757723e+02,1.138773e+03
2.767366e+02,1.141485e+03
2.777008e+02,1.141258e+03
2.786650e+02,1.139967e+03
2.796293e+02,1.137036e+03
2.805935e+02,1.134066e+03
2.815577e+02,1.134042e+03
2.825220e+02,1.138122e+03
2.834862e+02,1.143692e+03
2.844504e+02,1.146249e+03
2.854147e+02,1.145660e+03
2.863789e+02,1.143663e+03
2.873431e+02,1.139928e+03
2.883074e+02,1.135436e+03
2.892716e+02,1.131762e+03
2.902358e+02,1.129436e+03
2.912001e+02,1.128310e+03
2.921643e+02,1.129168e+03
2.931285e+02,1.133778e+03
2.940928e+02,1.138969e+03
2.950570e+02,1.143934e+03
2.960212e+02,1.148101e+03
2.969855e+02,1.150667e+03
2.979497e+02,1.150611e+03
2.989139e+02,1.146855e+03
2.998782e+02,1.143747e+03
3.008424e+02,1.141544e+03
3.018066e+02,1.140583e+03
3.027709e+02,1.141078e+03
3.037351e+02,1.143213e+03
3.046993e+02,1.145810e+03
3.056636e+02,1.146934e+03
3.066278e+02,1.146384e+03
3.075920e+02,1.145341e+03
3.085563e+02,1.143257e+03
3.095205e+02,1.141152e+03
3.104847e+02,1.141077e+03
3.114490e+02,1.145557e+03
3.124132e+02,1.152032e+03
3.133774e+02,1.155132e+03
3.143417e+02,1.153230e+03
3.153059e+02,1.149402e+03
3.162701e+02,1.148523e+03
3.172344e+02,1.152753e+03
3.181986e+02,1.155072e+03
3.191628e+02,1.150506e+03
3.201271e+02,1.142722e+03
3.210913e+02,1.139090e+03
3.220555e+02,1.143498e+03
3.230198e+02,1.154307e+03
3.239840e+02,1.161065e+03
3.249482e+02,1.160749e+03
3.259125e+02,1.159570e+03
3.268767e+02,1.159459e+03
3.278409e+02,1.160187e+03
3.288052e+02,1.160529e+03
3.297694e+02,1.158930e+03
3.307336e+02,1.154635e+03
3.316979e+02,1.152398e+03
3.326621e+02,1.154490e+03
3.336263e+02,1.156909e+03
3.345906e+02,1.157753e+03
3.355548e+02,1.156902e+03
3.365190e+02,1.155894e+03
3.374833e+02,1.156250e+03
3.384475e+02,1.158010e+03
3.394117e+02,1.159867e+03
3.403760e+02,1.160798e+03
3.413402e+02,1.161278e+03
3.423044e+02,1.162307e+03
3.432687e+02,1.164512e+03
3.442329e+02,1.166936e+03
3.451971e+02,1.168667e+03
3.461614e+02,1.169376e+03
3.471256e+02,1.168900e+03
3.480898e+02,1.167406e+03
3.490541e+02,1.164840e+03
3.500183e+02,1.162728e+03
3.509825e+02,1.160833e+03
3.519468e+02,1.160053e+03
3.529110e+02,1.161380e+03
3.538752e+02,1.164785e+03
3.548395e+02,1.168673e+03
3.558037e+02,1.170432e+03
3.567680e+02,1.168217e+03
3.577322e+02,1.166946e+03
3.586964e+02,1.167620e+03
3.596607e+02,1.169775e+03
3.606249e+02,1.172782e+03
3.615891e+02,1.176741e+03
3.625534e+02,1.180099e+03
3.635176e+02,1.179466e+03
3.644818e+02,1.173554e+03
3.654461e+02,1.167694e+03
3.664103e+02,1.165746e+03
3.673745e+02,1.167601e+03
3.683388e+02,1.170520e+03
3.693030e+02,1.173393e+03
3.702672e+02,1.176053e+03
3.712315e+02,1.178387e+03
3.721957e+02,1.180194e+03
3.731599e+02,1.181856e+03
3.741242e+02,1.184410e+03
3.750884e+02,1.190413e+03
3.760526e+02,1.195313e+03
3.770169e+02,1.199414e+03
3.779811e+02,1.201811e+03
3.789453e+02,1.200881e+03
3.799096e+02,1.195363e+03
3.808738e+02,1.186651e+03
3.818380e+02,1.180401e+03
3.828023e+02,1.178499e+03
3.837665e+02,1.177856e+03
3.847307e+02,1.177851e+03
3.856950e+02,1.178161e+03
3.866592e+02,1.178062e+03
3.876234e+02,1.176268e+03
3.885877e+02,1.173592e+03
3.895519e+02,1.173021e+03
3.905161e+02,1.175734e+03
3.914804e+02,1.178339e+03
3.924446e+02,1.176593e+03
3.934088e+02,1.169660e+03
3.943731e+02,1.163945e+03
3.953373e+02,1.161194e+03
3.963015e+02,1.160543e+03
3.972658e+02,1.161077e+03
3.982300e+02,1.162717e+03
3.991942e+02,1.165389e+03
4.001585e+02,1.167934e+03
4.011227e+02,1.170236e+03
4.020869e+02,1.171604e+03
4.030512e+02,1.171350e+03
4.040154e+02,1.169730e+03
4.049796e+02,1.167340e+03
4.059439e+02,1.163461e+03
4.069081e+02,1.159158e+03
4.078723e+02,1.159159e+03
4.088366e+02,1.165543e+03
4.098008e+02,1.171740e+03
4.107650e+02,1.173721e+03
4.117293e+02,1.172012e+03
4.126935e+02,1.170308e+03
4.136577e+02,1.169423e+03
4.146220e+02,1.169369e+03
4.155862e+02,1.170845e+03
4.165504e+02,1.174276e+03
4.175147e+02,1.177762e+03
4.184789e+02,1.178195e+03
4.194431e+02,1.170644e+03
4.204074e+02,1.165828e+03
4.213716e+02,1.164573e+03
4.223358e+02,1.165811e+03
4.233001e+02,1.169025e+03
4.242643e+02,1.174615e+03
4.252285e+02,1.180902e+03
4.261928e+02,1.183132e+03
4.271570e+02,1.179060e+03
4.281212e+02,1.176243e+03
4.290855e+02,1.179085e+03
4.300497e+02,1.185300e+03
4.310139e+02,1.190122e+03
4.319782e+02,1.191915e+03
4.329424e+02,1.191997e+03
4.339066e+02,1.191500e+03
4.348709e+02,1.190365e+03
4.358351e+02,1.188543e+03
4.367993e+02,1.185909e+03
4.377636e+02,1.181848e+03
4.387278e+02,1.178861e+03
4.396920e+02,1.177064e+03
4.406563e+02,1.176475e+03
4.416205e+02,1.177501e+03
4.425847e+02,1.180113e+03
4.435490e+02,1.182821e+03
4.445132e+02,1.183498e+03
4.454774e+02,1.181850e+03
4.464417e+02,1.180465e+03
4.474059e+02,1.179729e+03
4.483701e+02,1.179288e+03
4.493344e+02,1.178934e+03
4.502986e+02,1.178973e+03
4.512628e+02,1.179246e+03
4.522271e+02,1.179898e+03
4.531913e+02,1.180766e+03
4.541555e+02,1.181025e+03
4.551198e+02,1.179933e+03
4.560840e+02,1.177545e+03
4.570482e+02,1.175973e+03
4.580125e+02,1.176710e+03
4.589767e+02,1.177822e+03
4.599409e+02,1.178293e+03
4.609052e+02,1.177824e+03
4.618694e+02,1.176777e+03
4.628336e+02,1.175867e+03
4.637979e+02,1.175050e+03
4.647621e+02,1.172878e+03
4.657263e+02,1.168628e+03
4.666906e+02,1.164578e+03
4.676548e+02,1.162724e+03
4.686190e+02,1.163502e+03
4.695833e+02,1.163902e+03
4.705475e+02,1.161444e+03
4.715117e+02,1.158243e+03
4.724760e+02,1.158000e+03
4.734402e+02,1.162222e+03
4.744044e+02,1.168747e+03
4.753687e+02,1.172410e+03
4.763329e+02,1.171556e+03
4.772971e+02,1.170275e+03
4.782614e+02,1.168474e+03
4.792256e+02,1.166943e+03
4.801898e+02,1.166625e+03
4.811541e+02,1.168391e+03
4.821183e+02,1.170880e+03
4.830826e+02,1.172058e+03
4.840468e+02,1.171747e+03
4.850110e+02,1.171366e+03
4.859753e+02,1.172031e+03
4.869395e+02,1.173762e+03
4.879037e+02,1.174897e+03
4.888680e+02,1.175211e+03
4.898322e+02,1.175401e+03
4.907964e+02,1.176163e+03
4.917607e+02,1.177413e+03
4.927249e+02,1.178332e+03
4.936891e+02,1.177973e+03
4.946534e+02,1.176223e+03
4.956176e+02,1.174348e+03
4.965818e+02,1.172257e+03
4.975461e+02,1.170300e+03
4.985103e+02,1.168606e+03
4.994745e+02,1.166980e+03
5.004388e+02,1.165245e+03
5.014030e+02,1.163006e+03
5.023672e+02,1.161056e+03
5.033315e+02,1.160836e+03
5.042957e+02,1.162858e+03
5.052599e+02,1.165837e+03
5.062242e+02,1.167191e+03
5.071884e+02,1.165405e+03
5.081526e+02,1.164795e+03
5.091169e+02,1.167149e+03
5.100811e+02,1.170728e+03
5.110453e+02,1.173214e+03
5.120095e+02,1.173271e+03
5.129738e+02,1.172706e+03
5.139380e+02,1.174056e+03
5.149022e+02,1.177323e+03
5.158665e+02,1.180253e+03
5.168307e+02,1.181241e+03
5.177949e+02,1.179739e+03
5.187592e+02,1.177599e+03
5.197234e+02,1.176653e+03
5.206876e+02,1.175241e+03
5.216519e+02,1.171803e+03
5.226161e+02,1.167162e+03
5.235803e+02,1.163545e+03
5.245446e+02,1.163672e+03
5.255088e+02,1.166788e+03
5.264730e+02,1.167252e+03
5.274373e+02,1.163813e+03
5.284015e+02,1.159683e+03
5.293657e+02,1.157523e+03
5.303300e+02,1.157541e+03
5.312942e+02,1.157401e+03
5.322584e+02,1.157865e+03
5.332227e+02,1.158180e+03
5.341869e+02,1.156461e+03
5.351511e+02,1.152303e+03
5.361154e+02,1.148300e+03
5.370796e+02,1.148558e+03
5.380438e+02,1.154423e+03
5.390081e+02,1.159914e+03
5.399723e+02,1.166158e+03
5.409365e+02,1.170723e+03
5.419008e+02,1.170266e+03
5.428650e+02,1.160404e+03
5.438292e+02,1.152487e+03
5.447935e+02,1.155980e+03
5.457577e+02,1.165792e+03
5.467219e+02,1.170810e+03
5.476862e+02,1.166076e+03
5.486504e+02,1.155010e+03
5.496146e+02,1.147790e+03
5.505789e+02,1.145513e+03
5.515431e+02,1.145547e+03
5.525073e+02,1.150053e+03
5.534716e+02,1.156463e+03
5.544358e+02,1.160372e+03
5.554000e+02,1.157457e+03
5.563643e+02,1.152582e+03
5.573285e+02,1.150558e+03
5.582927e+02,1.150984e+03
5.592570e+02,1.151872e+03
5.602212e+02,1.152186e+03
5.611854e+02,1.151839e+03
5.621497e+02,1.151924e+03
5.631139e+02,1.151676e+03
5.640781e+02,1.152050e+03
5.650424e+02,1.154967e+03
5.660066e+02,1.159516e+03
5.669708e+02,1.162352e+03
5.679351e+02,1.160368e+03
5.688993e+02,1.156012e+03
5.698635e+02,1.153823e+03
5.708278e+02,1.154357e+03
5.717920e+02,1.155415e+03
5.727562e+02,1.154733e+03
5.737205e+02,1.151479e+03
5.746847e+02,1.148239e+03
5.756489e+02,1.142940e+03
5.766132e+02,1.138935e+03
5.775774e+02,1.139012e+03
5.785416e+02,1.143341e+03
5.795059e+02,1.147992e+03
5.804701e+02,1.150047e+03
5.814343e+02,1.149996e+03
5.823986e+02,1.149107e+03
5.833628e+02,1.147388e+03
5.843270e+02,1.145897e+03
5.852913e+02,1.146099e+03
5.862555e+02,1.151074e+03
5.872197e+02,1.152996e+03
5.881840e+02,1.148551e+03
5.891482e+02,1.142844e+03
5.901124e+02,1.140420e+03
5.910767e+02,1.142917e+03
5.920409e+02,1.146521e+03
5.930051e+02,1.147037e+03
5.939694e+02,1.144955e+03
5.949336e+02,1.143724e+03
5.958978e+02,1.144727e+03
5.968621e+02,1.146764e+03
5.978263e+02,1.147139e+03
5.987905e+02,1.143468e+03
5.997548e+02,1.141292e+03
6.007190e+02,1.141416e+03
6.016832e+02,1.143346e+03
6.026475e+02,1.146552e+03
6.036117e+02,1.151414e+03
6.045759e+02,1.155862e+03
6.055402e+02,1.157109e+03
6.065044e+02,1.155279e+03
6.074686e+02,1.152673e+03
6.084329e+02,1.150280e+03
6.093971e+02,1.148319e+03
6.103613e+02,1.147323e+03
6.113256e+02,1.149993e+03
6.122899e+02,1.150801e+03
6.132541e+02,1.147229e+03
6.142183e+02,1.141302e+03
6.151826e+02,1.136542e+03
6.161468e+02,1.134759e+03
6.171110e+02,1.135254e+03
6.180753e+02,1.138049e+03
6.190395e+02,1.142709e+03
6.200037e+02,1.146017e+03
6.209680e+02,1.145727e+03
6.219322e+02,1.142203e+03
6.228964e+02,1.139770e+03
6.238607e+02,1.139382e+03
6.248249e+02,1.138924e+03
6.257891e+02,1.137092e+03
6.267534e+02,1.134117e+03
6.277176e+02,1.131558e+03
6.286818e+02,1.129793e+03
6.296461e+02,1.129533e+03
6.306103e+02,1.132232e+03
6.315745e+02,1.137647e+03
6.325388e+02,1.143345e+03
6.335030e+02,1.147641e+03
6.344672e+02,1.150404e+03
6.354315e+02,1.150057e+03
6.363957e+02,1.143104e+03
6.373599e+02,1.136434e+03
6.383242e+02,1.134456e+03
6.392884e+02,1.136737e+03
6.402526e+02,1.137947e+03
6.412169e+02,1.135608e+03
6.421811e+02,1.131904e+03
6.431453e+02,1.128406e+03
6.441096e+02,1.125378e+03
6.450738e+02,1.123097e+03
6.460380e+02,1.122110e+03
6.470023e+02,1.122677e+03
6.479665e+02,1.123760e+03
6.489307e+02,1.124823e+03
6.498950e+02,1.126518e+03
6.508592e+02,1.130322e+03
6.518234e+02,1.136672e+03
6.527877e+02,1.139283e+03
6.537519e+02,1.134221e+03
6.547161e+02,1.127353e+03
6.556804e+02,1.122752e+03
6.566446e+02,1.120976e+03
6.576088e+02,1.120581e+03
6.585731e+02,1.119966e+03
6.595373e+02,1.119429e+03
6.605015e+02,1.121340e+03
6.614658e+02,1.126755e+03
6.624300e+02,1.132417e+03
6.633942e+02,1.135143e+03
6.643585e+02,1.133737e+03
6.653227e+02,1.132068e+03
6.662869e+02,1.129566e+03
6.672512e+02,1.126910e+03
6.682154e+02,1.124483e+03
6.691796e+02,1.122218e+03
6.701439e+02,1.120147e+03
6.711081e+02,1.118394e+03
6.720723e+02,1.116910e+03
6.730366e+02,1.115552e+03
6.740008e+02,1.114401e+03
6.749650e+02,1.113849e+03
6.759293e+02,1.114629e+03
6.768935e+02,1.117776e+03
6.778577e+02,1.119691e+03
6.788220e+02,1.120447e+03
6.797862e+02,1.120467e+03
6.807504e+02,1.119170e+03
6.817147e+02,1.115827e+03
6.826789e+02,1.113295e+03
6.836431e+02,1.113109e+03
6.846074e+02,1.113603e+03
6.855716e+02,1.112934e+03
6.865358e+02,1.111039e+03
6.875001e+02,1.109622e+03
6.884643e+02,1.111186e+03
6.894285e+02,1.115736e+03
6.903928e+02,1.118801e+03
6.913570e+02,1.119333e+03
6.923212e+02,1.118831e+03
6.932855e+02,1.119216e+03
6.942497e+02,1.122409e+03
6.952139e+02,1.123489e+03
6.961782e+02,1.119568e+03
6.971424e+02,1.115128e+03
6.981066e+02,1.113425e+03
6.990709e+02,1.114673e+03
7.000351e+02,1.115955e+03
7.009993e+02,1.115556e+03
7.019636e+02,1.114383e+03
7.029278e+02,1.113824e+03
7.038920e+02,1.114057e+03
7.048563e+02,1.114249e+03
7.058205e+02,1.113626e+03
7.067847e+02,1.112364e+03
7.077490e+02,1.111227e+03
7.087132e+02,1.110433e+03
7.096774e+02,1.110618e+03
7.106417e+02,1.111641e+03
7.116059e+02,1.113720e+03
7.125701e+02,1.114553e+03
7.135344e+02,1.112657e+03
7.144986e+02,1.110173e+03
7.154628e+02,1.108804e+03
7.164271e+02,1.108714e+03
7.173913e+02,1.109112e+03
7.183555e+02,1.109560e+03
7.193198e+02,1.109904e+03
7.202840e+02,1.109320e+03
7.212482e+02,1.107604e+03
7.222125e+02,1.106157e+03
7.231767e+02,1.106367e+03
7.241409e+02,1.108699e+03
7.251052e+02,1.110483e+03
7.260694e+02,1.111638e+03
7.270336e+02,1.112201e+03
7.279979e+02,1.112744e+03
7.289621e+02,1.113314e+03
7.299263e+02,1.112320e+03
7.308906e+02,1.106700e+03
7.318548e+02,1.100247e+03
7.328190e+02,1.097830e+03
7.337833e+02,1.099692e+03
7.347475e+02,1.102078e+03
7.357117e+02,1.101190e+03
7.366760e+02,1.097581e+03
7.376402e+02,1.095217e+03
7.386044e+02,1.094477e+03
7.395687e+02,1.094615e+03
7.405329e+02,1.095175e+03
7.414971e+02,1.096736e+03
7.424614e+02,1.095859e+03
7.434256e+02,1.090036e+03
7.443898e+02,1.085302e+03
7.453541e+02,1.084196e+03
7.463183e+02,1.086133e+03
7.472825e+02,1.088837e+03
7.482468e+02,1.093807e+03
7.492110e+02,1.097700e+03
7.501752e+02,1.096261e+03
7.511395e+02,1.090397e+03
7.521037e+02,1.084518e+03
7.530679e+02,1.081872e+03
7.540322e+02,1.081789e+03
7.549964e+02,1.081490e+03
7.559606e+02,1.081122e+03
7.569249e+02,1.080938e+03
7.578891e+02,1.081246e+03
7.588533e+02,1.082222e+03
7.598176e+02,1.082731e+03
7.607818e+02,1.080010e+03
7.617460e+02,1.077837e+03
7.627103e+02,1.078684e+03
7.636745e+02,1.082101e+03
7.646387e+02,1.085137e+03
7.656030e+02,1.086083e+03
7.665672e+02,1.086543e+03
7.675314e+02,1.087834e+03
7.684957e+02,1.088896e+03
7.694599e+02,1.087957e+03
7.704241e+02,1.083967e+03
7.713884e+02,1.078581e+03
7.723526e+02,1.075437e+03
7.733168e+02,1.074872e+03
7.742811e+02,1.075949e+03
7.752453e+02,1.077918e+03
7.762095e+02,1.080308e+03
7.771738e+02,1.082618e+03
7.781380e+02,1.085470e+03
7.791022e+02,1.086532e+03
7.800665e+02,1.084447e+03
7.810307e+02,1.081023e+03
7.819949e+02,1.079067e+03
7.829592e+02,1.082200e+03
7.839234e+02,1.084641e+03
7.848876e+02,1.082278e+03
7.858519e+02,1.077213e+03
7.868161e+02,1.072910e+03
7.877803e+02,1.070754e+03
7.887446e+02,1.070107e+03
7.897088e+02,1.070957e+03
7.906730e+02,1.073417e+03
7.916373e+02,1.075555e+03
7.926015e+02,1.076200e+03
7.935657e+02,1.075355e+03
7.945300e+02,1.074475e+03
7.954942e+02,1.074465e+03
7.964584e+02,1.073206e+03
7.974227e+02,1.070335e+03
7.983869e+02,1.067800e+03
7.993511e+02,1.066705e+03
8.003154e+02,1.067074e+03
8.012796e+02,1.066812e+03
8.022438e+02,1.065404e+03
8.032081e+02,1.064187e+03
8.041723e+02,1.064411e+03
8.051365e+02,1.066238e+03
8.061008e+02,1.068076e+03
8.070650e+02,1.068631e+03
8.080292e+02,1.068065e+03
8.089935e+02,1.066901e+03
8.099577e+02,1.065553e+03
8.109219e+02,1.064631e+03
8.118862e+02,1.064730e+03
8.128504e+02,1.065813e+03
8.138146e+02,1.067308e+03
8.147789e+02,1.069665e+03
8.157431e+02,1.070352e+03
8.167073e+02,1.066786e+03
8.176716e+02,1.058049e+03
8.186358e+02,1.053729e+03
8.196000e+02,1.057945e+03
8.205643e+02,1.062644e+03
8.215285e+02,1.063637e+03
8.224927e+02,1.061324e+03
8.234570e+02,1.060051e+03
8.244212e+02,1.062465e+03
8.253854e+02,1.064947e+03
8.263497e+02,1.064897e+03
8.273139e+02,1.062525e+03
8.282781e+02,1.059583e+03
8.292424e+02,1.057041e+03
8.302066e+02,1.055450e+03
8.311708e+02,1.055670e+03
8.321351e+02,1.057362e+03
8.330993e+02,1.058756e+03
8.340635e+02,1.058620e+03
8.350278e+02,1.057492e+03
8.359920e+02,1.057603e+03
8.369562e+02,1.059392e+03
8.379205e+02,1.060295e+03
8.388847e+02,1.059376e+03
8.398489e+02,1.057154e+03
8.408132e+02,1.054676e+03
8.417774e+02,1.050009e+03
8.427416e+02,1.047525e+03
8.437059e+02,1.049365e+03
8.446701e+02,1.052686e+03
8.456343e+02,1.054561e+03
8.465986e+02,1.053932e+03
8.475628e+02,1.052918e+03
8.485270e+02,1.052532e+03
8.494913e+02,1.051917e+03
8.504555e+02,1.049939e+03
8.514197e+02,1.046407e+03
8.523840e+02,1.043451e+03
8.533482e+02,1.043007e+03
8.543124e+02,1.043958e+03
8.552767e+02,1.044219e+03
8.562409e+02,1.043458e+03
8.572051e+02,1.042908e+03
8.581694e+02,1.044846e+03
8.591336e+02,1.049039e+03
8.600978e+02,1.050732e+03
8.610621e+02,1.049668e+03
8.620263e+02,1.047452e+03
8.629905e+02,1.044605e+03
8.639548e+02,1.040636e+03
8.649190e+02,1.038023e+03
8.658832e+02,1.038052e+03
8.668475e+02,1.038728e+03
8.678117e+02,1.038904e+03
8.687759e+02,1.038727e+03
8.697402e+02,1.039730e+03
8.707044e+02,1.041787e+03
8.716686e+02,1.044140e+03
8.726329e+02,1.048365e+03
8.735971e+02,1.053202e+03
8.745613e+02,1.055961e+03
8.755256e+02,1.054662e+03
8.764898e+02,1.052839e+03
8.774540e+02,1.052922e+03
8.784183e+02,1.053677e+03
8.793825e+02,1.053008e+03
8.803467e+02,1.049960e+03
8.813110e+02,1.045881e+03
8.822752e+02,1.041693e+03
8.832394e+02,1.038087e+03
8.842037e+02,1.037296e+03
8.851679e+02,1.039786e+03
8.861321e+02,1.042924e+03
8.870964e+02,1.043102e+03
8.880606e+02,1.040071e+03
8.890248e+02,1.037354e+03
8.899891e+02,1.035505e+03
8.909533e+02,1.034843e+03
8.919175e+02,1.035757e+03
8.928818e+02,1.038965e+03
8.938460e+02,1.040332e+03
8.948102e+02,1.038097e+03
8.957745e+02,1.035390e+03
8.967387e+02,1.033895e+03
8.977029e+02,1.033340e+03
8.986672e+02,1.033324e+03
8.996314e+02,1.035468e+03
9.005956e+02,1.037630e+03
9.015599e+02,1.038552e+03
9.025241e+02,1.038439e+03
9.034883e+02,1.038339e+03
9.044526e+02,1.038898e+03
9.054168e+02,1.038814e+03
9.063810e+02,1.037834e+03
9.073453e+02,1.036713e+03
9.083095e+02,1.035876e+03
9.092737e+02,1.035203e+03
9.102380e+02,1.034219e+03
9.112022e+02,1.032168e+03
9.121664e+02,1.029479e+03
9.131307e+02,1.027516e+03
9.140949e+02,1.027031e+03
9.150591e+02,1.027722e+03
9.160234e+02,1.028818e+03
9.169876e+02,1.029657e+03
9.179518e+02,1.029089e+03
9.189161e+02,1.026876e+03
9.198803e+02,1.023986e+03
9.208445e+02,1.021300e+03
9.218088e+02,1.018859e+03
9.227730e+02,1.019663e+03
9.237372e+02,1.025057e+03
9.247015e+02,1.030101e+03
9.256657e+02,1.031120e+03
9.266299e+02,1.027795e+03
9.275942e+02,1.027333e+03
9.285584e+02,1.033667e+03
9.295226e+02,1.037689e+03
9.304869e+02,1.034622e+03
9.314511e+02,1.026831e+03
9.324153e+02,1.021418e+03
9.333796e+02,1.019483e+03
9.343438e+02,1.019247e+03
9.353080e+02,1.022293e+03
9.362723e+02,1.025553e+03
9.372365e+02,1.024934e+03
9.382007e+02,1.017015e+03
9.391650e+02,1.010685e+03
9.401292e+02,1.011315e+03
9.410934e+02,1.014933e+03
9.420577e+02,1.016668e+03
9.430219e+02,1.015111e+03
9.439861e+02,1.013162e+03
9.449504e+02,1.013962e+03
9.459146e+02,1.016110e+03
9.468788e+02,1.017233e+03
9.478431e+02,1.016398e+03
9.488073e+02,1.013503e+03
9.497715e+02,1.006448e+03
9.507358e+02,9.985424e+02
9.517000e+02,9.988480e+02
9.526642e+02,1.006993e+03
9.536285e+02,1.013927e+03
9.545927e+02,1.013023e+03
9.555569e+02,1.006814e+03
9.565212e+02,1.003464e+03
9.574854e+02,1.003352e+03
9.584496e+02,1.004789e+03
9.594139e+02,1.006955e+03
9.603781e+02,1.009201e+03
9.613423e+02,1.010818e+03
9.623066e+02,1.012072e+03
9.632708e+02,1.011466e+03
9.642350e+02,1.008094e+03
9.651993e+02,1.004209e+03
9.661635e+02,1.002675e+03
9.671277e+02,1.004345e+03
9.680920e+02,1.005548e+03
9.690562e+02,1.007157e+03
9.700204e+02,1.007123e+03
9.709847e+02,1.003247e+03
9.719489e+02,9.942302e+02
9.729131e+02,9.898157e+02
9.738774e+02,9.939887e+02
9.748416e+02,9.991512e+02
9.758058e+02,1.001974e+03
9.767701e+02,1.002501e+03
9.777343e+02,1.002884e+03
9.786985e+02,1.003123e+03
9.796628e+02,1.003336e+03
9.806270e+02,1.004253e+03
9.815912e+02,1.005146e+03
9.825555e+02,1.004860e+03
9.835197e+02,1.002808e+03
9.844839e+02,1.000817e+03
9.854482e+02,9.995500e+02
9.864124e+02,9.989656e+02
9.873766e+02,9.988010e+02
9.883409e+02,9.991066e+02
9.893051e+02,9.996868e+02
9.902693e+02,1.000207e+03
9.912336e+02,1.001153e+03
9.921978e+02,1.002856e+03
9.931620e+02,1.004992e+03
9.941263e+02,1.006957e+03
9.950905e+02,1.009289e+03
9.960547e+02,1.010890e+03
9.970190e+02,1.010056e+03
9.979832e+02,1.007004e+03
9.989474e+02,1.002961e+03
9.999117e+02,9.981503e+02
1.000876e+03,9.941121e+02
1.001840e+03,9.943438e+02
1.002804e+03,9.976251e+02
1.003769e+03,9.985753e+02
1.004733e+03,9.945658e+02
1.005697e+03,9.892090e+02
1.006661e+03,9.886057e+02
1.007626e+03,9.917090e+02
1.008590e+03,9.932763e+02
1.009554e+03,9.920936e+02
1.010518e+03,9.898816e+02
1.011482e+03,9.884976e+02
1.012447e+03,9.879327e+02
1.013411e+03,9.891355e+02
1.014375e+03,9.928663e+02
1.015339e+03,9.949326e+02
1.016304e+03,9.908801e+02
1.017268e+03,9.824178e+02
1.018232e+03,9.812629e+02
1.019196e+03,9.883773e+02
1.020161e+03,9.941503e+02
1.021125e+03,9.947103e+02
1.022089e+03,9.921711e+02
1.023053e+03,9.914247e+02
1.024018e+03,9.926134e+02
1.024982e+03,9.929075e+02
1.025946e+03,9.913302e+02
1.026910e+03,9.887220e+02
1.027875e+03,9.867755e+02
1.028839e+03,9.862557e+02
1.029803e+03,9.854549e+02
1.030767e+03,9.837637e+02
1.031731e+03,9.830165e+02
1.032696e+03,9.848610e+02
1.033660e+03,9.894094e+02
1.034624e+03,9.911146e+02
1.035588e+03,9.885178e+02
1.036552e+03,9.863058e+02
1.037517e+03,9.859147e+02
1.038481e+03,9.868427e+02
1.039445e+03,9.883630e+02
1.040409e+03,9.915499e+02
1.041374e+03,9.936445e+02
1.042338e+03,9.947975e+02
1.043302e+03,9.947311e+02
1.044266e+03,9.925994e+02
1.045231e+03,9.850144e+02
1.046195e+03,9.812948e+02
1.047159e+03,9.863908e+02
1.048123e+03,9.915279e+02
1.049088e+03,9.895020e+02
1.050052e+03,9.790319e+02
1.051016e+03,9.742773e+02
1.051980e+03,9.792604e+02
1.052945e+03,9.855689e+02
1.053909e+03,9.907435e+02
1.054873e+03,9.941859e+02
1.055837e+03,9.955912e+02
1.056802e+03,9.951168e+02
1.057766e+03,9.931237e+02
1.058730e+03,9.883655e+02
1.059694e+03,9.829471e+02
1.060658e+03,9.791464e+02
1.061623e+03,9.769268e+02
1.062587e+03,9.773009e+02
1.063551e+03,9.840511e+02
1.064515e+03,9.907014e+02
1.065479e+03,9.916000e+02
1.066444e+03,9.861134e+02
1.067408e+03,9.833108e+02
1.068372e+03,9.879871e+02
1.069336e+03,9.921188e+02
1.070301e+03,9.903646e+02
1.071265e+03,9.844667e+02
1.072229e+03,9.811123e+02
1.073193e+03,9.847339e+02
1.074158e+03,9.870211e+02
1.075122e+03,9.846593e+02
1.076086e+03,9.803563e+02
1.077050e+03,9.776126e+02
1.078015e+03,9.781287e+02
1.078979e+03,9.790168e+02
1.079943e+03,9.778322e+02
1.080907e+03,9.779443e+02
1.081872e+03,9.822166e+02
1.082836e+03,9.905912e+02
1.083800e+03,9.978486e+02
1.084764e+03,1.003436e+03
1.085729e+03,1.007666e+03
1.086693e+03,1.009409e+03
1.087657e+03,1.009722e+03
1.088621e+03,1.011474e+03
1.089585e+03,1.017127e+03
1.090550e+03,1.021473e+03
1.091514e+03,1.023251e+03
1.092478e+03,1.023875e+03
1.093442e+03,1.025260e+03
1.094406e+03,1.029581e+03
1.095371e+03,1.029227e+03
1.096335e+03,1.016803e+03
1.097299e+03,1.003752e+03
1.098263e+03,9.980888e+02
1.099228e+03,9.996909e+02
1.100192e+03,1.000096e+03
1.101156e+03,9.953193e+02
1.102120e+03,9.915729e+02
1.103085e+03,9.925233e+02
1.104049e+03,9.960372e+02
1.105013e+03,9.976975e+02
1.105977e+03,9.942603e+02
1.106942e+03,9.925090e+02
1.107906e+03,9.952299e+02
1.108870e+03,9.990995e+02
1.109834e+03,1.001136e+03
1.110799e+03,1.000890e+03
1.111763e+03,9.998348e+02
1.112727e+03,9.965161e+02
1.113691e+03,9.942509e+02
1.114656e+03,9.950382e+02
1.115620e+03,9.984716e+02
1.116584e+03,1.001395e+03
1.117548e+03,1.002561e+03
1.118512e+03,1.003611e+03
1.119477e+03,1.005526e+03
1.120441e+03,1.007423e+03
1.121405e+03,1.008097e+03
1.122369e+03,1.007274e+03
1.123334e+03,1.005715e+03
1.124298e+03,1.003679e+03
1.125262e+03,1.001022e+03
1.126226e+03,9.974166e+02
1.127191e+03,9.927264e+02
1.128155e+03,9.889475e+02
1.129119e+03,9.855088e+02
1.130083e+03,9.833538e+02
1.131047e+03,9.837584e+02
1.132012e+03,9.853271e+02
1.132976e+03,9.838768e+02
1.133940e+03,9.762136e+02
1.134904e+03,9.720875e+02
1.135869e+03,9.750668e+02
1.136833e+03,9.803235e+02
1.137797e+03,9.822643e+02
1.138761e+03,9.801039e+02
1.139726e+03,9.789160e+02
1.140690e+03,9.790299e+02
1.141654e+03,9.789279e+02
1.142618e+03,9.771443e+02
1.143583e+03,9.742520e+02
1.144547e+03,9.746611e+02
1.145511e+03,9.792739e+02
1.146475e+03,9.839144e+02
1.147439e+03,9.879695e+02
1.148404e+03,9.904574e+02
1.149368e+03,9.883340e+02
1.150332e+03,9.807820e+02
1.151296e+03,9.758284e+02
1.152261e+03,9.739405e+02
1.153225e+03,9.734940e+02
1.154189e+03,9.749383e+02
1.155153e+03,9.779596e+02
1.156118e+03,9.750247e+02
1.157082e+03,9.662557e+02
1.158046e+03,9.593854e+02
1.159010e+03,9.576269e+02
1.159974e+03,9.593998e+02
1.160939e+03,9.627952e+02
1.161903e+03,9.670627e+02
1.162867e+03,9.682480e+02
1.163831e+03,9.654040e+02
1.164796e+03,9.608879e+02
1.165760e+03,9.560736e+02
1.166724e+03,9.521595e+02
1.167688e+03,9.533073e+02
1.168653e+03,9.588290e+02
1.169617e+03,9.631723e+02
1.170581e+03,9.627616e+02
1.171545e+03,9.597928e+02
1.172510e+03,9.559869e+02
1.173474e+03,9.523016e+02
1.174438e+03,9.511073e+02
1.175402e+03,9.532513e+02
1.176366e+03,9.556135e+02
1.177331e+03,9.551755e+02
1.178295e+03,9.537282e+02
1.179259e+03,9.532833e+02
1.180223e+03,9.537595e+02
1.181188e+03,9.542546e+02
1.182152e+03,9.544214e+02
1.183116e+03,9.543786e+02
1.184080e+03,9.549036e+02
1.185045e+03,9.554963e+02
1.186009e+03,9.549008e+02
1.186973e+03,9.523534e+02
1.187937e+03,9.501392e+02
1.188901e+03,9.490223e+02
1.189866e+03,9.484461e+02
1.190830e+03,9.475881e+02
1.191794e+03,9.461684e+02
1.192758e+03,9.457230e+02
1.193723e+03,9.479471e+02
1.194687e+03,9.504737e+02
1.195651e+03,9.528082e+02
1.196615e+03,9.544922e+02
1.197580e+03,9.544742e+02
1.198544e+03,9.504768e+02
1.199508e+03,9.468940e+02
1.200472e+03,9.439489e+02
1.201437e+03,9.425478e+02
1.202401e+03,9.444189e+02
1.203365e+03,9.508237e+02
1.204329e+03,9.517402e+02
1.205293e+03,9.440319e+02
1.206258e+03,9.383541e+02
1.207222e+03,9.396017e+02
1.208186e+03,9.456439e+02
1.209150e+03,9.510198e+02
1.210115e+03,9.556682e+02
1.211079e+03,9.565517e+02
1.212043e+03,9.525486e+02
1.213007e+03,9.478113e+02
1.213972e+03,9.486679e+02
1.214936e+03,9.539258e+02
1.215900e+03,9.537474e+02
1.216864e+03,9.483074e+02
1.217828e+03,9.432962e+02
1.218793e+03,9.423270e+02
1.219757e+03,9.432560e+02
1.220721e+03,9.417737e+02
1.221685e+03,9.392969e+02
1.222650e+03,9.398317e+02
1.223614e+03,9.442875e+02
1.224578e+03,9.480168e+02
1.225542e+03,9.462062e+02
1.226507e+03,9.426437e+02
1.227471e+03,9.414323e+02
1.228435e+03,9.422636e+02
1.229399e+03,9.432097e+02
1.230364e+03,9.443882e+02
1.231328e+03,9.447850e+02
1.232292e+03,9.424000e+02
1.233256e+03,9.402930e+02
1.234220e+03,9.429391e+02
1.235185e+03,9.545964e+02
1.236149e+03,9.605424e+02
1.237113e+03,9.519650e+02
1.238077e+03,9.423220e+02
1.239042e+03,9.391214e+02
1.240006e+03,9.412724e+02
1.240970e+03,9.418105e+02
1.241934e+03,9.393990e+02
1.242899e+03,9.376785e+02
1.243863e+03,9.377560e+02
1.244827e+03,9.388845e+02
1.245791e+03,9.401612e+02
1.246755e+03,9.418360e+02
1.247720e+03,9.419581e+02
1.248684e+03,9.402411e+02
1.249648e+03,9.388644e+02
1.250612e+03,9.393361e+02
1.251577e+03,9.407668e+02
1.252541e+03,9.402982e+02
1.253505e+03,9.381342e+02
1.254469e+03,9.367157e+02
1.255434e+03,9.369523e+02
1.256398e+03,9.380605e+02
1.257362e+03,9.394718e+02
1.258326e+03,9.404562e+02
1.259291e+03,9.392911e+02
1.260255e+03,9.362705e+02
1.261219e+03,9.340632e+02
1.262183e+03,9.363270e+02
1.263147e+03,9.390795e+02
1.264112e+03,9.385978e+02
1.265076e+03,9.367015e+02
1.266040e+03,9.361036e+02
1.267004e+03,9.381183e+02
1.267969e+03,9.392718e+02
1.268933e+03,9.369052e+02
1.269897e+03,9.355862e+02
1.270861e+03,9.385414e+02
1.271826e+03,9.444780e+02
1.272790e+03,9.472272e+02
1.273754e+03,9.444560e+02
1.274718e+03,9.432062e+02
1.275682e+03,9.458486e+02
1.276647e+03,9.500609e+02
1.277611e+03,9.528303e+02
1.278575e+03,9.540084e+02
1.279539e+03,9.533933e+02
1.280504e+03,9.511934e+02
1.281468e+03,9.495639e+02
1.282432e+03,9.495754e+02
1.283396e+03,9.506525e+02
1.284361e+03,9.513702e+02
1.285325e+03,9.516786e+02
1.286289e+03,9.528322e+02
1.287253e+03,9.552032e+02
1.288218e+03,9.557711e+02
1.289182e+03,9.490051e+02
1.290146e+03,9.408963e+02
1.291110e+03,9.398769e+02
1.292074e+03,9.446705e+02
1.293039e+03,9.485540e+02
1.294003e+03,9.477562e+02
1.294967e+03,9.458633e+02
1.295931e+03,9.452931e+02
1.296896e+03,9.444335e+02
1.297860e+03,9.403225e+02
1.298824e+03,9.303804e+02
1.299788e+03,9.266227e+02
1.300753e+03,9.337946e+02
1.301717e+03,9.407438e+02
1.302681e+03,9.432396e+02
1.303645e+03,9.424969e+02
1.304609e+03,9.416876e+02
1.305574e+03,9.402529e+02
1.306538e+03,9.404689e+02
1.307502e+03,9.434924e+02
1.308466e+03,9.464139e+02
1.309431e+03,9.456351e+02
1.310395e+03,9.422527e+02
1.311359e+03,9.393103e+02
1.312323e+03,9.366215e+02
1.313288e+03,9.352134e+02
1.314252e+03,9.366244e+02
1.315216e+03,9.382865e+02
1.316180e+03,9.357191e+02
1.317145e+03,9.326779e+02
1.318109e+03,9.344543e+02
1.319073e+03,9.410511e+02
1.320037e+03,9.456406e+02
1.321001e+03,9.443138e+02
1.321966e+03,9.420998e+02
1.322930e+03,9.413811e+02
1.323894e+03,9.416405e+02
1.324858e+03,9.412368e+02
1.325823e+03,9.394852e+02
1.326787e+03,9.383607e+02
1.327751e+03,9.371811e+02
1.328715e+03,9.376000e+02
1.329680e+03,9.415111e+02
1.330644e+03,9.478185e+02
1.331608e+03,9.516125e+02
1.332572e+03,9.528932e+02
1.333536e+03,9.523758e+02
1.334501e+03,9.499288e+02
1.335465e+03,9.471488e+02
1.336429e+03,9.464386e+02
1.337393e+03,9.468416e+02
1.338358e+03,9.466708e+02
1.339322e+03,9.459990e+02
1.340286e+03,9.456477e+02
1.341250e+03,9.462471e+02
1.342215e+03,9.469182e+02
1.343179e+03,9.485446e+02
1.344143e+03,9.502415e+02
1.345107e+03,9.502692e+02
1.346072e+03,9.476970e+02
1.347036e+03,9.454160e+02
1.348000e+03,9.430898e+02
1.348964e+03,9.411927e+02
1.349928e+03,9.404476e+02
1.350893e+03,9.403845e+02
1.351857e+03,9.386188e+02
1.352821e+03,9.351027e+02
1.353785e+03,9.345748e+02
1.354750e+03,9.375258e+02
1.355714e+03,9.406051e+02
1.356678e+03,9.410667e+02
1.357642e+03,9.407277e+02
1.358607e+03,9.425001e+02
1.359571e+03,9.449445e+02
1.360535e+03,9.446406e+02
1.361499e+03,9.392255e+02
1.362464e+03,9.355259e+02
1.363428e+03,9.384742e+02
1.364392e+03,9.430071e+02
1.365356e+03,9.450643e+02
1.366320e+03,9.443358e+02
1.367285e+03,9.439970e+02
1.368249e+03,9.445537e+02
1.369213e+03,9.453759e+02
1.370177e+03,9.464485e+02
1.371142e+03,9.475584e+02
1.372106e+03,9.485721e+02
1.373070e+03,9.494559e+02
1.374034e+03,9.502090e+02
1.374999e+03,9.509519e+02
1.375963e+03,9.508536e+02
1.376927e+03,9.494122e+02
1.377891e+03,9.468974e+02
1.378855e+03,9.411100e+02
1.379820e+03,9.355311e+02
1.380784e+03,9.360788e+02
1.381748e+03,9.437047e+02
1.382712e+03,9.489117e+02
1.383677e+03,9.458305e+02
1.384641e+03,9.424092e+02
1.385605e+03,9.420027e+02
1.386569e+03,9.422314e+02
1.387534e+03,9.391257e+02
1.388498e+03,9.317064e+02
1.389462e+03,9.272443e+02
1.390426e+03,9.260126e+02
1.391391e+03,9.253538e+02
1.392355e+03,9.236550e+02
1.393319e+03,9.221244e+02
1.394283e+03,9.235809e+02
1.395247e+03,9.265368e+02
1.396212e+03,9.274276e+02
1.397176e+03,9.253448e+02
1.398140e+03,9.237945e+02
1.399104e+03,9.256088e+02
1.400069e+03,9.274787e+02
1.401033e+03,9.268354e+02
1.401997e+03,9.247239e+02
1.402961e+03,9.243767e+02
1.403926e+03,9.276380e+02
1.404890e+03,9.281155e+02
1.405854e+03,9.244904e+02
1.406818e+03,9.213104e+02
1.407782e+03,9.225074e+02
1.408747e+03,9.267388e+02
1.409711e+03,9.278862e+02
1.410675e+03,9.261837e+02
1.411639e+03,9.250920e+02
1.412604e+03,9.258514e+02
1.413568e+03,9.267686e+02
1.414532e+03,9.274556e+02
1.415496e+03,9.274199e+02
1.416461e+03,9.248439e+02
1.417425e+03,9.204177e+02
1.418389e+03,9.177411e+02
1.419353e+03,9.185402e+02
1.420318e+03,9.198439e+02
1.421282e+03,9.228287e+02
1.422246e+03,9.247740e+02
1.423210e+03,9.224896e+02
1.424174e+03,9.170971e+02
1.425139e+03,9.158251e+02
1.426103e+03,9.179874e+02
1.427067e+03,9.199923e+02
1.428031e+03,9.207390e+02
1.428996e+03,9.209900e+02
1.429960e+03,9.210815e+02
1.430924e+03,9.209794e+02
1.431888e+03,9.213194e+02
1.432853e+03,9.216974e+02
1.433817e+03,9.200558e+02
1.434781e+03,9.134208e+02
1.435745e+03,9.087537e+02
1.436709e+03,9.066301e+02
1.437674e+03,9.060782e+02
1.438638e+03,9.068715e+02
1.439602e+03,9.091374e+02
1.440566e+03,9.117970e+02
1.441531e+03,9.146243e+02
1.442495e+03,9.161796e+02
1.443459e+03,9.156249e+02
1.444423e+03,9.143908e+02
1.445388e+03,9.135450e+02
1.446352e+03,9.126965e+02
1.447316e+03,9.121844e+02
1.448280e+03,9.120586e+02
1.449245e+03,9.107311e+02
1.450209e+03,9.046411e+02
1.451173e+03,9.023113e+02
1.452137e+03,9.060265e+02
1.453101e+03,9.104211e+02
1.454066e+03,9.100920e+02
1.455030e+03,9.060645e+02
1.455994e+03,9.071109e+02
1.456958e+03,9.123611e+02
1.457923e+03,9.158961e+02
1.458887e+03,9.149442e+02
1.459851e+03,9.128943e+02
1.460815e+03,9.116948e+02
1.461780e+03,9.113363e+02
1.462744e+03,9.136630e+02
1.463708e+03,9.180026e+02
1.464672e+03,9.184017e+02
1.465636e+03,9.119700e+02
1.466601e+03,9.076295e+02
1.467565e+03,9.065803e+02
1.468529e+03,9.074102e+02
1.469493e+03,9.094258e+02
1.470458e+03,9.116861e+02
1.471422e+03,9.104355e+02
1.472386e+03,9.069408e+02
1.473350e+03,9.054412e+02
1.474315e+03,9.077469e+02
1.475279e+03,9.101151e+02
1.476243e+03,9.105138e+02
1.477207e+03,9.095244e+02
1.478172e+03,9.070352e+02
1.479136e+03,9.038559e+02
1.480100e+03,9.031282e+02
1.481064e+03,9.061235e+02
1.482028e+03,9.065342e+02
1.482993e+03,9.032814e+02
1.483957e+03,9.000078e+02
1.484921e+03,9.000739e+02
1.485885e+03,9.019827e+02
1.486850e+03,9.039677e+02
1.487814e+03,9.049982e+02
1.488778e+03,9.026270e+02
1.489742e+03,8.944760e+02
1.490707e+03,8.896971e+02
1.491671e+03,8.956920e+02
1.492635e+03,9.016893e+02
1.493599e+03,9.021302e+02
1.494563e+03,8.989921e+02
1.495528e+03,8.981406e+02
1.496492e+03,8.993438e+02
1.497456e+03,9.000071e+02
1.498420e+03,9.001274e+02
1.499385e+03,9.001996e+02
1.500349e+03,9.016747e+02
1.501313e+03,9.022437e+02
1.502277e+03,8.975766e+02
1.503242e+03,8.913807e+02
1.504206e+03,8.894710e+02
1.505170e+03,8.942615e+02
1.506134e+03,8.969005e+02
1.507099e+03,8.963215e+02
1.508063e+03,8.971367e+02
1.509027e+03,9.018881e+02
1.509991e+03,9.069590e+02
1.510955e+03,9.056788e+02
1.511920e+03,9.000886e+02
1.512884e+03,8.936887e+02
1.513848e+03,8.878322e+02
1.514812e+03,8.855870e+02
1.515777e+03,8.905672e+02
1.516741e+03,8.954308e+02
1.517705e+03,8.990184e+02
1.518669e+03,9.000173e+02
1.519634e+03,8.963779e+02
1.520598e+03,8.883926e+02
1.521562e+03,8.851242e+02
1.522526e+03,8.861563e+02
1.523490e+03,8.884874e+02
1.524455e+03,8.914027e+02
1.525419e+03,8.943576e+02
1.526383e+03,9.002284e+02
1.527347e+03,9.031669e+02
1.528312e+03,8.941409e+02
1.529276e+03,8.776505e+02
1.530240e+03,8.719008e+02
1.531204e+03,8.820284e+02
1.532169e+03,8.889860e+02
1.533133e+03,8.908369e+02
1.534097e+03,8.920707e+02
1.535061e+03,8.971013e+02
1.536026e+03,9.024893e+02
1.536990e+03,9.013062e+02
1.537954e+03,8.961774e+02
1.538918e+03,8.912781e+02
1.539882e+03,8.871312e+02
1.540847e+03,8.859006e+02
1.541811e+03,8.921712e+02
1.542775e+03,8.953569e+02
1.543739e+03,8.917924e+02
1.544704e+03,8.854309e+02
1.545668e+03,8.821813e+02
1.546632e+03,8.818438e+02
1.547596e+03,8.836501e+02
1.548561e+03,8.871605e+02
1.549525e+03,8.904900e+02
1.550489e+03,8.924911e+02
1.551453e+03,8.936512e+02
1.552417e+03,8.939359e+02
1.553382e+03,8.935904e+02
1.554346e+03,8.933329e+02
1.555310e+03,8.931193e+02
1.556274e+03,8.903222e+02
1.557239e+03,8.849799e+02
1.558203e+03,8.823822e+02
1.559167e+03,8.839357e+02
1.560131e+03,8.864182e+02
1.561096e+03,8.876794e+02
1.562060e+03,8.882562e+02
1.563024e+03,8.882081e+02
1.563988e+03,8.877938e+02
1.564953e+03,8.874325e+02
1.565917e+03,8.869011e+02
1.566881e+03,8.872618e+02
1.567845e+03,8.885070e+02
1.568809e+03,8.890206e+02
1.569774e+03,8.875375e+02
1.570738e+03,8.860065e+02
1.571702e+03,8.876080e+02
1.572666e+03,8.903715e+02
1.573631e+03,8.921105e+02
1.574595e+03,8.927703e+02
1.575559e+03,8.921905e+02
1.576523e+03,8.902867e+02
1.577488e+03,8.875615e+02
1.578452e+03,8.831013e+02
1.579416e+03,8.792908e+02
1.580380e+03,8.789803e+02
1.581344e+03,8.813533e+02
1.582309e+03,8.874820e+02
1.583273e+03,8.946950e+02
1.584237e+03,8.960639e+02
1.585201e+03,8.860615e+02
1.586166e+03,8.798525e+02
1.587130e+03,8.806843e+02
1.588094e+03,8.816605e+02
1.589058e+03,8.800058e+02
1.590023e+03,8.771563e+02
1.590987e+03,8.752889e+02
1.591951e+03,8.746287e+02
1.592915e+03,8.753185e+02
1.593880e+03,8.767640e+02
1.594844e+03,8.776584e+02
1.595808e+03,8.773570e+02
1.596772e+03,8.767747e+02
1.597736e+03,8.758113e+02
1.598701e+03,8.758209e+02
1.599665e+03,8.788016e+02
1.600629e+03,8.833021e+02
1.601593e+03,8.828303e+02
1.602558e+03,8.786408e+02
1.603522e+03,8.743461e+02
1.604486e+03,8.707631e+02
1.605450e+03,8.681614e+02
1.606415e+03,8.679355e+02
1.607379e+03,8.677941e+02
1.608343e+03,8.663190e+02
1.609307e+03,8.646949e+02
1.610271e+03,8.654863e+02
1.611236e+03,8.680344e+02
1.612200e+03,8.700359e+02
1.613164e+03,8.715652e+02
1.614128e+03,8.728284e+02
1.615093e+03,8.741639e+02
1.616057e+03,8.744496e+02
1.617021e+03,8.720433e+02
1.617985e+03,8.693264e+02
1.618950e+03,8.684276e+02
1.619914e+03,8.684169e+02
1.620878e+03,8.639709e+02
1.621842e+03,8.569967e+02
1.622807e+03,8.552737e+02
1.623771e+03,8.605771e+02
1.624735e+03,8.656629e+02
1.625699e+03,8.667355e+02
1.626663e+03,8.658774e+02
1.627628e+03,8.624130e+02
1.628592e+03,8.586640e+02
1.629556e+03,8.594055e+02
1.630520e+03,8.636847e+02
1.631485e+03,8.614409e+02
1.632449e+03,8.544727e+02
1.633413e+03,8.515918e+02
1.634377e+03,8.589221e+02
1.635342e+03,8.639708e+02
1.636306e+03,8.595787e+02
1.637270e+03,8.545755e+02
1.638234e+03,8.528757e+02
1.639198e+03,8.531135e+02
1.640163e+03,8.505218e+02
1.641127e+03,8.469952e+02
1.642091e+03,8.496290e+02
1.643055e+03,8.579324e+02
1.644020e+03,8.634548e+02
1.644984e+03,8.593103e+02
1.645948e+03,8.555493e+02
1.646912e+03,8.549396e+02
1.647877e+03,8.548073e+02
1.648841e+03,8.528038e+02
1.649805e+03,8.497499e+02
1.650769e+03,8.474783e+02
1.651734e+03,8.461565e+02
1.652698e+03,8.471583e+02
1.653662e+03,8.512183e+02
1.654626e+03,8.522766e+02
1.655590e+03,8.457566e+02
1.656555e+03,8.415236e+02
1.657519e+03,8.428339e+02
1.658483e+03,8.473334e+02
1.659447e+03,8.531418e+02
1.660412e+03,8.579974e+02
1.661376e+03,8.568441e+02
1.662340e+03,8.516697e+02
1.663304e+03,8.484816e+02
1.664269e+03,8.502927e+02
1.665233e+03,8.512578e+02
1.666197e+03,8.512545e+02
1.667161e+03,8.494000e+02
1.668125e+03,8.444606e+02
1.669090e+03,8.395332e+02
1.670054e+03,8.407369e+02
1.671018e+03,8.442082e+02
1.671982e+03,8.451213e+02
1.672947e+03,8.430114e+02
1.673911e+03,8.398790e+02
1.674875e+03,8.341337e+02
1.675839e+03,8.333137e+02
1.676804e+03,8.393425e+02
1.677768e+03,8.460646e+02
1.678732e+03,8.478620e+02
1.679696e+03,8.473715e+02
1.680661e+03,8.449316e+02
1.681625e+03,8.426104e+02
1.682589e+03,8.451737e+02
1.683553e+03,8.533389e+02
1.684517e+03,8.526823e+02
1.685482e+03,8.434742e+02
1.686446e+03,8.384314e+02
1.687410e+03,8.421171e+02
1.688374e+03,8.464915e+02
1.689339e+03,8.456412e+02
1.690303e+03,8.432390e+02
1.691267e+03,8.407949e+02
1.692231e+03,8.389008e+02
1.693196e+03,8.390198e+02
1.694160e+03,8.402542e+02
1.695124e+03,8.365506e+02
1.696088e+03,8.291107e+02
1.697052e+03,8.247807e+02
1.698017e+03,8.273936e+02
1.698981e+03,8.312111e+02
1.699945e+03,8.363278e+02
1.700909e+03,8.388491e+02
1.701874e+03,8.364620e+02
1.702838e+03,8.323636e+02
1.703802e+03,8.329761e+02
1.704766e+03,8.356747e+02
1.705731e+03,8.356941e+02
1.706695e+03,8.329552e+02
1.707659e+03,8.329930e+02
1.708623e+03,8.382937e+02
1.709588e+03,8.434053e+02
1.710552e+03,8.475699e+02
1.711516e+03,8.490191e+02
1.712480e+03,8.452952e+02
1.713444e+03,8.392440e+02
1.714409e+03,8.333380e+02
1.715373e+03,8.281165e+02
1.716337e+03,8.239667e+02
1.717301e+03,8.210496e+02
1.718266e+03,8.197944e+02
1.719230e+03,8.200023e+02
1.720194e+03,8.216318e+02
1.721158e+03,8.247802e+02
1.722123e+03,8.271635e+02
1.723087e+03,8.274109e+02
1.724051e+03,8.259489e+02
1.725015e+03,8.212379e+02
1.725979e+03,8.173259e+02
1.726944e+03,8.220388e+02
1.727908e+03,8.321118e+02
1.728872e+03,8.326415e+02
1.729836e+03,8.253860e+02
1.730801e+03,8.193307e+02
1.731765e+03,8.183612e+02
1.732729e+03,8.179119e+02
1.733693e+03,8.176292e+02
1.734658e+03,8.172941e+02
1.735622e+03,8.163766e+02
1.736586e+03,8.161652e+02
1.737550e+03,8.208474e+02
1.738515e+03,8.257784e+02
1.739479e+03,8.234015e+02
1.740443e+03,8.154536e+02
1.741407e+03,8.153640e+02
1.742371e+03,8.247161e+02
1.743336e+03,8.263245e+02
1.744300e+03,8.189526e+02
1.745264e+03,8.115329e+02
1.746228e+03,8.094487e+02
1.747193e+03,8.104527e+02
1.748157e+03,8.178278e+02
1.749121e+03,8.239481e+02
1.750085e+03,8.215548e+02
1.751050e+03,8.133047e+02
1.752014e+03,8.103763e+02
1.752978e+03,8.113228e+02
1.753942e+03,8.125570e+02
1.754906e+03,8.132834e+02
1.755871e+03,8.124415e+02
1.756835e+03,8.087052e+02
1.757799e+03,8.049800e+02
1.758763e+03,8.024780e+02
1.759728e+03,8.011418e+02
1.760692e+03,8.019835e+02
1.761656e+03,8.025736e+02
1.762620e+03,7.979720e+02
1.763585e+03,7.926047e+02
1.764549e+03,7.935040e+02
1.765513e+03,8.001953e+02
1.766477e+03,8.040402e+02
1.767442e+03,8.055293e+02
1.768406e+03,8.061166e+02
1.769370e+03,8.060287e+02
1.770334e+03,8.068221e+02
1.771298e+03,8.118062e+02
1.772263e+03,8.125223e+02
1.773227e+03,8.053271e+02
1.774191e+03,7.969130e+02
1.775155e+03,7.976264e+02
1.776120e+03,8.017182e+02
1.777084e+03,8.004207e+02
1.778048e+03,7.953809e+02
1.779012e+03,7.919337e+02
1.779977e+03,7.909579e+02
1.780941e+03,7.901238e+02
1.781905e+03,7.890905e+02
1.782869e+03,7.885715e+02
1.783833e+03,7.892529e+02
1.784798e+03,7.896889e+02
1.785762e+03,7.886855e+02
1.786726e+03,7.873433e+02
1.787690e+03,7.864073e+02
1.788655e+03,7.855472e+02
1.789619e+03,7.830912e+02
1.790583e+03,7.803775e+02
1.791547e+03,7.808403e+02
1.792512e+03,7.837687e+02
1.793476e+03,7.839348e+02
1.794440e+03,7.781770e+02
1.795404e+03,7.784799e+02
1.796369e+03,7.854326e+02
1.797333e+03,7.894453e+02
1.798297e+03,7.829594e+02
1.799261e+03,7.757364e+02
1.800225e+03,7.718357e+02
1.801190e+03,7.726608e+02
1.802154e+03,7.812136e+02
1.803118e+03,7.927914e+02
1.804082e+03,7.948069e+02
1.805047e+03,7.907242e+02
1.806011e+03,7.872101e+02
1.806975e+03,7.850158e+02
1.807939e+03,7.831826e+02
1.808904e+03,7.815349e+02
1.809868e+03,7.786288e+02
1.810832e+03,7.743484e+02
1.811796e+03,7.728347e+02
1.812760e+03,7.802245e+02
1.813725e+03,7.874067e+02
1.814689e+03,7.887590e+02
1.815653e+03,7.870164e+02
1.816617e+03,7.838730e+02
1.817582e+03,7.797063e+02
1.818546e+03,7.744818e+02
1.819510e+03,7.693467e+02
1.820474e+03,7.673087e+02
1.821439e+03,7.690188e+02
1.822403e+03,7.713533e+02
1.823367e+03,7.746584e+02
1.824331e+03,7.754321e+02
1.825296e+03,7.728172e+02
1.826260e+03,7.694258e+02
1.827224e+03,7.660805e+02
1.828188e+03,7.654858e+02
1.829152e+03,7.716226e+02
1.830117e+03,7.774111e+02
1.831081e+03,7.760043e+02
1.832045e+03,7.703531e+02
1.833009e+03,7.706247e+02
1.833974e+03,7.742833e+02
1.834938e+03,7.750912e+02
1.835902e+03,7.711779e+02
1.836866e+03,7.677830e+02
1.837831e+03,7.648710e+02
1.838795e+03,7.614990e+02
1.839759e+03,7.576639e+02
1.840723e+03,7.569737e+02
1.841688e+03,7.661837e+02
1.842652e+03,7.722753e+02
1.843616e+03,7.694859e+02
1.844580e+03,7.640844e+02
1.845544e+03,7.638782e+02
1.846509e+03,7.652480e+02
1.847473e+03,7.595016e+02
1.848437e+03,7.510746e+02
1.849401e+03,7.492699e+02
1.850366e+03,7.543768e+02
1.851330e+03,7.548456e+02
1.852294e+03,7.517087e+02
1.853258e+03,7.528698e+02
1.854223e+03,7.608998e+02
1.855187e+03,7.663400e+02
1.856151e+03,7.627684e+02
1.857115e+03,7.585948e+02
1.858079e+03,7.550440e+02
1.859044e+03,7.523090e+02
1.860008e+03,7.508716e+02
1.860972e+03,7.507650e+02
1.861936e+03,7.535233e+02
1.862901e+03,7.564339e+02
1.863865e+03,7.544728e+02
1.864829e+03,7.482898e+02
1.865793e+03,7.481238e+02
1.866758e+03,7.523595e+02
1.867722e+03,7.558177e+02
1.868686e+03,7.571888e+02
1.869650e+03,7.553821e+02
1.870615e+03,7.492908e+02
1.871579e+03,7.451915e+02
1.872543e+03,7.451057e+02
1.873507e+03,7.472516e+02
1.874471e+03,7.533205e+02
1.875436e+03,7.550563e+02
1.876400e+03,7.468799e+02
1.877364e+03,7.371838e+02
1.878328e+03,7.364208e+02
1.879293e+03,7.401316e+02
1.880257e+03,7.389698e+02
1.881221e+03,7.354988e+02
1.882185e+03,7.365511e+02
1.883150e+03,7.427135e+02
1.884114e+03,7.450861e+02
1.885078e+03,7.438137e+02
1.886042e+03,7.407628e+02
1.887006e+03,7.359086e+02
1.887971e+03,7.335053e+02
1.888935e+03,7.371969e+02
1.889899e+03,7.385467e+02
1.890863e+03,7.346522e+02
1.891828e+03,7.307918e+02
1.892792e+03,7.345491e+02
1.893756e+03,7.388079e+02
1.894720e+03,7.379335e+02
1.895685e+03,7.357705e+02
1.896649e+03,7.358651e+02
1.897613e+03,7.369434e+02
1.898577e+03,7.357830e+02
1.899542e+03,7.330775e+02
1.900506e+03,7.299303e+02
1.901470e+03,7.263422e+02
1.902434e+03,7.226504e+02
1.903398e+03,7.190167e+02
1.904363e+03,7.182828e+02
1.905327e+03,7.214700e+02
1.906291e+03,7.249182e+02
1.907255e+03,7.268678e+02
1.908220e+03,7.277576e+02
1.909184e+03,7.275156e+02
1.910148e+03,7.268806e+02
1.911112e+03,7.269485e+02
1.912077e+03,7.272728e+02
1.913041e+03,7.281207e+02
1.914005e+03,7.282252e+02
1.914969e+03,7.252491e+02
1.915933e+03,7.208718e+02
1.916898e+03,7.235567e+02
1.917862e+03,7.287733e+02
1.918826e+03,7.250584e+02
1.919790e+03,7.104596e+02
1.920755e+03,7.053731e+02
1.921719e+03,7.089808e+02
1.922683e+03,7.117469e+02
1.923647e+03,7.119378e+02
1.924612e+03,7.129835e+02
1.925576e+03,7.190493e+02
1.926540e+03,7.210207e+02
1.927504e+03,7.165104e+02
1.928469e+03,7.112891e+02
1.929433e+03,7.100952e+02
1.930397e+03,7.103067e+02
1.931361e+03,7.109054e+02
1.932325e+03,7.112162e+02
1.933290e+03,7.107516e+02
1.934254e+03,7.105706e+02
1.935218e+03,7.125468e+02
1.936182e+03,7.148558e+02
1.937147e+03,7.153439e+02
1.938111e+03,7.142910e+02
1.939075e+03,7.132067e+02
1.940039e+03,7.123958e+02
1.941004e+03,7.115048e+02
1.941968e+03,7.100600e+02
1.942932e+03,7.088522e+02
1.943896e+03,7.083657e+02
1.944860e+03,7.086457e+02
1.945825e+03,7.101307e+02
1.946789e+03,7.100750e+02
1.947753e+03,7.040634e+02
1.948717e+03,6.987570e+02
1.949682e+03,6.958933e+02
1.950646e+03,6.961512e+02
1.951610e+03,7.017158e+02
1.952574e+03,7.079583e+02
1.953539e+03,7.081693e+02
1.954503e+03,7.050486e+02
1.955467e+03,7.004223e+02
1.956431e+03,6.960670e+02
1.957396e+03,6.974330e+02
1.958360e+03,7.015900e+02
1.959324e+03,7.006892e+02
1.960288e+03,6.957371e+02
1.961252e+03,6.957416e+02
1.962217e+03,7.012992e+02
1.963181e+03,7.031434e+02
1.964145e+03,7.010751e+02
1.965109e+03,6.990804e+02
1.966074e+03,6.996212e+02
1.967038e+03,6.999010e+02
1.968002e+03,6.988298e+02
1.968966e+03,6.982418e+02
1.969931e+03,6.999111e+02
1.970895e+03,6.998459e+02
1.971859e+03,6.923207e+02
1.972823e+03,6.878011e+02
1.973787e+03,6.915905e+02
1.974752e+03,6.971880e+02
1.975716e+03,6.953028e+02
1.976680e+03,6.902274e+02
1.977644e+03,6.859218e+02
1.978609e+03,6.833350e+02
1.979573e+03,6.831447e+02
1.980537e+03,6.849178e+02
1.981501e+03,6.901541e+02
1.982466e+03,6.963289e+02
1.983430e+03,6.944366e+02
1.984394e+03,6.826326e+02
1.985358e+03,6.795886e+02
1.986323e+03,6.837196e+02
1.987287e+03,6.859883e+02
1.988251e+03,6.834597e+02
1.989215e+03,6.794161e+02
1.990179e+03,6.736908e+02
1.991144e+03,6.721819e+02
1.992108e+03,6.770314e+02
1.993072e+03,6.809763e+02
1.994036e+03,6.763091e+02
1.995001e+03,6.729817e+02
1.995965e+03,6.739667e+02
1.996929e+03,6.761279e+02
1.997893e+03,6.766521e+02
1.998858e+03,6.758510e+02
1.999822e+03,6.731896e+02
2.000786e+03,6.701523e+02
2.001750e+03,6.681866e+02
2.002714e+03,6.678428e+02
2.003679e+03,6.704557e+02
2.004643e+03,6.737084e+02
2.005607e+03,6.740125e+02
2.006571e+03,6.722795e+02
2.007536e+03,6.713828e+02
2.008500e+03,6.712149e+02
2.009464e+03,6.716678e+02
2.010428e+03,6.726068e+02
2.011393e+03,6.709252e+02
2.012357e+03,6.660714e+02
2.013321e+03,6.661570e+02
2.014285e+03,6.707257e+02
2.015250e+03,6.728675e+02
2.016214e+03,6.653538e+02
2.017178e+03,6.634135e+02
2.018142e+03,6.684195e+02
2.019106e+03,6.722651e+02
2.020071e+03,6.702748e+02
2.021035e+03,6.670777e+02
2.021999e+03,6.641161e+02
2.022963e+03,6.615099e+02
2.023928e+03,6.596025e+02
2.024892e+03,6.582187e+02
2.025856e+03,6.574985e+02
2.026820e+03,6.564902e+02
2.027785e+03,6.537007e+02
2.028749e+03,6.515737e+02
2.029713e+03,6.560633e+02
2.030677e+03,6.619085e+02
2.031641e+03,6.602436e+02
2.032606e+03,6.553738e+02
2.033570e+03,6.554612e+02
2.034534e+03,6.589521e+02
2.035498e+03,6.608657e+02
2.036463e+03,6.607023e+02
2.037427e+03,6.553506e+02
2.038391e+03,6.456749e+02
2.039355e+03,6.450058e+02
2.040320e+03,6.508167e+02
2.041284e+03,6.507462e+02
2.042248e+03,6.416971e+02
2.043212e+03,6.398177e+02
2.044177e+03,6.467892e+02
2.045141e+03,6.521841e+02
2.046105e+03,6.542869e+02
2.047069e+03,6.546858e+02
2.048033e+03,6.531846e+02
2.048998e+03,6.503600e+02
2.049962e+03,6.463340e+02
2.050926e+03,6.431047e+02
2.051890e+03,6.430046e+02
2.052854e+03,6.421107e+02
2.053819e+03,6.381113e+02
2.054783e+03,6.355189e+02
2.055747e+03,6.381992e+02
2.056711e+03,6.412308e+02
2.057676e+03,6.374489e+02
2.058640e+03,6.357129e+02
2.059604e+03,6.412339e+02
2.060568e+03,6.480439e+02
2.061533e+03,6.487742e+02
2.062497e+03,6.454271e+02
2.063461e+03,6.363854e+02
2.064425e+03,6.279277e+02
2.065390e+03,6.311800e+02
2.066354e+03,6.395427e+02
2.067318e+03,6.409600e+02
2.068282e+03,6.380159e+02
2.069247e+03,6.369861e+02
2.070211e+03,6.372639e+02
2.071175e+03,6.359758e+02
2.072139e+03,6.332606e+02
2.073104e+03,6.275126e+02
2.074068e+03,6.192526e+02
2.075032e+03,6.230368e+02
2.075996e+03,6.353180e+02
2.076960e+03,6.412077e+02
2.077925e+03,6.378199e+02
2.078889e+03,6.362491e+02
2.079853e+03,6.373831e+02
2.080817e+03,6.352393e+02
2.081782e+03,6.294369e+02
2.082746e+03,6.268487e+02
2.083710e+03,6.334059e+02
2.084674e+03,6.344692e+02
2.085639e+03,6.296180e+02
2.086603e+03,6.248669e+02
2.087567e+03,6.210895e+02
2.088531e+03,6.208401e+02
2.089496e+03,6.246515e+02
2.090460e+03,6.272015e+02
2.091424e+03,6.268507e+02
2.092388e+03,6.264723e+02
2.093353e+03,6.273949e+02
2.094317e+03,6.284498e+02
2.095281e+03,6.285633e+02
2.096245e+03,6.287512e+02
2.097209e+03,6.314074e+02
2.098174e+03,6.328931e+02
2.099138e+03,6.326488e+02
2.100102e+03,6.294478e+02
2.101066e+03,6.176879e+02
2.102031e+03,6.068237e+02
2.102995e+03,6.079996e+02
2.103959e+03,6.119109e+02
2.104923e+03,6.116536e+02
2.105887e+03,6.094147e+02
2.106852e+03,6.063104e+02
2.107816e+03,6.034464e+02
2.108780e+03,6.022719e+02
2.109744e+03,6.027072e+02
2.110708e+03,6.057538e+02
2.111673e+03,6.103877e+02
2.112637e+03,6.164727e+02
2.113601e+03,6.207668e+02
2.114565e+03,6.131402e+02
2.115530e+03,5.999166e+02
2.116494e+03,5.948051e+02
2.117458e+03,5.979755e+02
2.118422e+03,6.017418e+02
2.119387e+03,6.053322e+02
2.120351e+03,6.072910e+02
2.121315e+03,6.075742e+02
2.122279e+03,6.077486e+02
2.123244e+03,6.079510e+02
2.124208e+03,6.056050e+02
2.125172e+03,6.015286e+02
2.126136e+03,5.971168e+02
2.127101e+03,5.925333e+02
2.128065e+03,5.936342e+02
2.129029e+03,5.993072e+02
2.129993e+03,6.018479e+02
2.130958e+03,5.991453e+02
2.131922e+03,5.960429e+02
2.132886e+03,5.932520e+02
2.133850e+03,5.910662e+02
2.134814e+03,5.901364e+02
2.135779e+03,5.912676e+02
2.136743e+03,5.954113e+02
2.137707e+03,5.970682e+02
2.138671e+03,5.964107e+02
2.139636e+03,5.979305e+02
2.140600e+03,6.076868e+02
2.141564e+03,6.098010e+02
2.142528e+03,6.031133e+02
2.143493e+03,5.976553e+02
2.144457e+03,5.978402e+02
2.145421e+03,5.956680e+02
2.146385e+03,5.880121e+02
2.147350e+03,5.838842e+02
2.148314e+03,5.864001e+02
2.149278e+03,5.899178e+02
2.150242e+03,5.903337e+02
2.151207e+03,5.902350e+02
2.152171e+03,5.897687e+02
2.153135e+03,5.893397e+02
2.154099e+03,5.921648e+02
2.155063e+03,5.912579e+02
2.156028e+03,5.844313e+02
2.156992e+03,5.791809e+02
2.157956e+03,5.816191e+02
2.158920e+03,5.839405e+02
2.159885e+03,5.820961e+02
2.160849e+03,5.807148e+02
2.161813e+03,5.824385e+02
2.162777e+03,5.840496e+02
2.163741e+03,5.832621e+02
2.164706e+03,5.808405e+02
2.165670e+03,5.771948e+02
2.166634e+03,5.742874e+02
2.167598e+03,5.729894e+02
2.168563e+03,5.740858e+02
2.169527e+03,5.776154e+02
2.170491e+03,5.813199e+02
2.171455e+03,5.856539e+02
2.172420e+03,5.867776e+02
2.173384e+03,5.802223e+02
2.174348e+03,5.736298e+02
2.175312e+03,5.730289e+02
2.176277e+03,5.748641e+02
2.177241e+03,5.772855e+02
2.178205e+03,5.788187e+02
2.179169e+03,5.787717e+02
2.180134e+03,5.780286e+02
2.181098e+03,5.769379e+02
2.182062e+03,5.756195e+02
2.183026e+03,5.734747e+02
2.183990e+03,5.714921e+02
2.184955e+03,5.710102e+02
2.185919e+03,5.718773e+02
2.186883e+03,5.737713e+02
2.187847e+03,5.762653e+02
2.188812e+03,5.811898e+02
2.189776e+03,5.848836e+02
2.190740e+03,5.805811e+02
2.191704e+03,5.748306e+02
2.192668e+03,5.743041e+02
2.193633e+03,5.760188e+02
2.194597e+03,5.762095e+02
2.195561e+03,5.756551e+02
2.196525e+03,5.747370e+02
2.197490e+03,5.734816e+02
2.198454e+03,5.725978e+02
2.199418e+03,5.705883e+02
2.200382e+03,5.657086e+02
2.201347e+03,5.608102e+02
2.202311e+03,5.602977e+02
2.203275e+03,5.619145e+02
2.204239e+03,5.633485e+02
2.205204e+03,5.642513e+02
2.206168e+03,5.660724e+02
2.207132e+03,5.671829e+02
2.208096e+03,5.641061e+02
2.209061e+03,5.591554e+02
2.210025e+03,5.539977e+02
2.210989e+03,5.501347e+02
2.211953e+03,5.511533e+02
2.212917e+03,5.549258e+02
2.213882e+03,5.578036e+02
2.214846e+03,5.597850e+02
2.215810e+03,5.624592e+02
2.216774e+03,5.633363e+02
2.217739e+03,5.611328e+02
2.218703e+03,5.577428e+02
2.219667e+03,5.564282e+02
2.220631e+03,5.551033e+02
2.221595e+03,5.503914e+02
2.222560e+03,5.458436e+02
2.223524e+03,5.487924e+02
2.224488e+03,5.528772e+02
2.225452e+03,5.495972e+02
2.226417e+03,5.448543e+02
2.227381e+03,5.445052e+02
2.228345e+03,5.459908e+02
2.229309e+03,5.453021e+02
2.230274e+03,5.441713e+02
2.231238e+03,5.445328e+02
2.232202e+03,5.452907e+02
2.233166e+03,5.446367e+02
2.234131e+03,5.450718e+02
2.235095e+03,5.486077e+02
2.236059e+03,5.528700e+02
2.237023e+03,5.547281e+02
2.237988e+03,5.544042e+02
2.238952e+03,5.516733e+02
2.239916e+03,5.482072e+02
2.240880e+03,5.471682e+02
2.241844e+03,5.461133e+02
2.242809e+03,5.421523e+02
2.243773e+03,5.394205e+02
2.244737e+03,5.441093e+02
2.245701e+03,5.488286e+02
2.246666e+03,5.471266e+02
2.247630e+03,5.429159e+02
2.248594e+03,5.377253e+02
2.249558e+03,5.341716e+02
2.250522e+03,5.364885e+02
2.251487e+03,5.383747e+02
2.252451e+03,5.358809e+02
2.253415e+03,5.319689e+02
2.254379e+03,5.289252e+02
2.255344e+03,5.291679e+02
2.256308e+03,5.347181e+02
2.257272e+03,5.393102e+02
2.258236e+03,5.349371e+02
2.259201e+03,5.303441e+02
2.260165e+03,5.280521e+02
2.261129e+03,5.274034e+02
2.262093e+03,5.281783e+02
2.263058e+03,5.302103e+02
2.264022e+03,5.343855e+02
2.264986e+03,5.368196e+02
2.265950e+03,5.321140e+02
2.266915e+03,5.294532e+02
2.267879e+03,5.315642e+02
2.268843e+03,5.333035e+02
2.269807e+03,5.332440e+02
2.270771e+03,5.324164e+02
2.271736e+03,5.313659e+02
2.272700e+03,5.299089e+02
2.273664e+03,5.272432e+02
2.274628e+03,5.251668e+02
2.275593e+03,5.243174e+02
2.276557e+03,5.244824e+02
2.277521e+03,5.261043e+02
2.278485e+03,5.271224e+02
2.279449e+03,5.257904e+02
2.280414e+03,5.255775e+02
2.281378e+03,5.265768e+02
2.282342e+03,5.274113e+02
2.283306e+03,5.267568e+02
2.284271e+03,5.266583e+02
2.285235e+03,5.267787e+02
2.286199e+03,5.241335e+02
2.287163e+03,5.172113e+02
2.288128e+03,5.129419e+02
2.289092e+03,5.108726e+02
2.290056e+03,5.104171e+02
2.291020e+03,5.117610e+02
2.291985e+03,5.138026e+02
2.292949e+03,5.165463e+02
2.293913e+03,5.165042e+02
2.294877e+03,5.136038e+02
2.295842e+03,5.137838e+02
2.296806e+03,5.163712e+02
2.297770e+03,5.164011e+02
2.298734e+03,5.145026e+02
2.299698e+03,5.153502e+02
2.300663e+03,5.184228e+02
2.301627e+03,5.156234e+02
2.302591e+03,5.099249e+02
2.303555e+03,5.095998e+02
2.304520e+03,5.132972e+02
2.305484e+03,5.143051e+02
2.306448e+03,5.131620e+02
2.307412e+03,5.097319e+02
2.308376e+03,5.053383e+02
2.309341e+03,5.031605e+02
2.310305e+03,5.027484e+02
2.311269e+03,5.044668e+02
2.312233e+03,5.071083e+02
2.313198e+03,5.087605e+02
2.314162e+03,5.091476e+02
2.315126e+03,5.073296e+02
2.316090e+03,5.054520e+02
2.317055e+03,5.070060e+02
2.318019e+03,5.086877e+02
2.318983e+03,5.064302e+02
2.319947e+03,5.037752e+02
2.320912e+03,5.034279e+02
2.321876e+03,5.045356e+02
2.322840e+03,5.075645e+02
2.323804e+03,5.088194e+02
2.324769e+03,5.053425e+02
2.325733e+03,5.039429e+02
2.326697e+03,5.120283e+02
2.327661e+03,5.162529e+02
2.328625e+03,5.115868e+02
2.329590e+03,5.076094e+02
2.330554e+03,5.128227e+02
2.331518e+03,5.141318e+02
2.332482e+03,5.094071e+02
2.333447e+03,5.036908e+02
2.334411e+03,4.971151e+02
2.335375e+03,4.977147e+02
2.336339e+03,5.054429e+02
2.337303e+03,5.095527e+02
2.338268e+03,5.042853e+02
2.339232e+03,4.981110e+02
2.340196e+03,4.917491e+02
2.341160e+03,4.884547e+02
2.342125e+03,4.890538e+02
2.343089e+03,4.975279e+02
2.344053e+03,5.094142e+02
2.345017e+03,5.078409e+02
2.345982e+03,4.929649e+02
2.346946e+03,4.847366e+02
2.347910e+03,4.825884e+02
2.348874e+03,4.862510e+02
2.349839e+03,4.924689e+02
2.350803e+03,4.944767e+02
2.351767e+03,4.933204e+02
2.352731e+03,4.881139e+02
2.353696e+03,4.833303e+02
2.354660e+03,4.864144e+02
2.355624e+03,4.922573e+02
2.356588e+03,4.935180e+02
2.357552e+03,4.935351e+02
2.358517e+03,4.954580e+02
2.359481e+03,4.975449e+02
2.360445e+03,4.981852e+02
2.361409e+03,4.962298e+02
2.362374e+03,4.895522e+02
2.363338e+03,4.844665e+02
2.364302e+03,4.909311e+02
2.365266e+03,4.953983e+02
2.366230e+03,4.934830e+02
2.367195e+03,4.901877e+02
2.368159e+03,4.873987e+02
2.369123e+03,4.862560e+02
2.370087e+03,4.874187e+02
2.371052e+03,4.895739e+02
2.372016e+03,4.935020e+02
2.372980e+03,4.933551e+02
2.373944e+03,4.891293e+02
2.374909e+03,4.872653e+02
2.375873e+03,4.909019e+02
2.376837e+03,4.910494e+02
2.377801e+03,4.885406e+02
2.378766e+03,4.864007e+02
2.379730e+03,4.851338e+02
2.380694e+03,4.862540e+02
2.381658e+03,4.877968e+02
2.382623e+03,4.804890e+02
2.383587e+03,4.691204e+02
2.384551e+03,4.728209e+02
2.385515e+03,4.818213e+02
2.386479e+03,4.779583e+02
2.387444e+03,4.705210e+02
2.388408e+03,4.765040e+02
2.389372e+03,4.837075e+02
2.390336e+03,4.775282e+02
2.391301e+03,4.687009e+02
2.392265e+03,4.647459e+02
2.393229e+03,4.663350e+02
2.394193e+03,4.765473e+02
2.395157e+03,4.834401e+02
2.396122e+03,4.778314e+02
2.397086e+03,4.705619e+02
2.398050e+03,4.643619e+02
2.399014e+03,4.645504e+02
2.399979e+03,4.753194e+02
2.400943e+03,4.823839e+02
2.401907e+03,4.834586e+02
2.402871e+03,4.795133e+02
2.403836e+03,4.707582e+02
2.404800e+03,4.688383e+02
2.405764e+03,4.738002e+02
2.406728e+03,4.785016e+02
2.407693e+03,4.812656e+02
2.408657e+03,4.798102e+02
2.409621e+03,4.755023e+02
2.410585e+03,4.725005e+02
2.411550e+03,4.712044e+02
2.412514e+03,4.714770e+02
2.413478e+03,4.726736e+02
2.414442e+03,4.739038e+02
2.415406e+03,4.745511e+02
2.416371e+03,4.744608e+02
2.417335e+03,4.727301e+02
2.418299e+03,4.642649e+02
2.419263e+03,4.592391e+02
2.420228e+03,4.638744e+02
2.421192e+03,4.703984e+02
2.422156e+03,4.732927e+02
2.423120e+03,4.731001e+02
2.424084e+03,4.689214e+02
2.425049e+03,4.666843e+02
2.426013e+03,4.725559e+02
2.426977e+03,4.723283e+02
2.427941e+03,4.654112e+02
2.428906e+03,4.632615e+02
2.429870e+03,4.696049e+02
2.430834e+03,4.711425e+02
2.431798e+03,4.686490e+02
2.432763e+03,4.676378e+02
2.433727e+03,4.681659e+02
2.434691e+03,4.650224e+02
2.435655e+03,4.603179e+02
2.436620e+03,4.583242e+02
2.437584e+03,4.586364e+02
2.438548e+03,4.627871e+02
2.439512e+03,4.654228e+02
2.440477e+03,4.603905e+02
2.441441e+03,4.530522e+02
2.442405e+03,4.499730e+02
2.443369e+03,4.506124e+02
2.444333e+03,4.552647e+02
2.445298e+03,4.586276e+02
2.446262e+03,4.542633e+02
2.447226e+03,4.500253e+02
2.448190e+03,4.474884e+02
2.449155e+03,4.473445e+02
2.450119e+03,4.526185e+02
2.451083e+03,4.555802e+02
2.452047e+03,4.560786e+02
2.453011e+03,4.545993e+02
2.453976e+03,4.513371e+02
2.454940e+03,4.489552e+02
2.455904e+03,4.479757e+02
2.456868e+03,4.494850e+02
2.457833e+03,4.523463e+02
2.458797e+03,4.550299e+02
2.459761e+03,4.569879e+02
2.460725e+03,4.573713e+02
2.461690e+03,4.558990e+02
2.462654e+03,4.492474e+02
2.463618e+03,4.446223e+02
2.464582e+03,4.467600e+02
2.465547e+03,4.510567e+02
2.466511e+03,4.546758e+02
2.467475e+03,4.552856e+02
2.468439e+03,4.525266e+02
2.469404e+03,4.484734e+02
2.470368e+03,4.432056e+02
2.471332e+03,4.404613e+02
2.472296e+03,4.400829e+02
2.473260e+03,4.437411e+02
2.474225e+03,4.523694e+02
2.475189e+03,4.535896e+02
2.476153e+03,4.497560e+02
2.477117e+03,4.453102e+02
2.478082e+03,4.419134e+02
2.479046e+03,4.455812e+02
2.480010e+03,4.510038e+02
2.480974e+03,4.511659e+02
2.481938e+03,4.488253e+02
2.482903e+03,4.463354e+02
2.483867e+03,4.447544e+02
2.484831e+03,4.447639e+02
2.485795e+03,4.439617e+02
2.486760e+03,4.373243e+02
2.487724e+03,4.381955e+02
2.488688e+03,4.488394e+02
2.489652e+03,4.544672e+02
2.490617e+03,4.439497e+02
2.491581e+03,4.352058e+02
2.492545e+03,4.290304e+02
2.493509e+03,4.293748e+02
2.494474e+03,4.357030e+02
2.495438e+03,4.384981e+02
2.496402e+03,4.395703e+02
2.497366e+03,4.441940e+02
2.498331e+03,4.492329e+02
2.499295e+03,4.465668e+02
2.500259e+03,4.425587e+02
2.501223e+03,4.436613e+02
2.502188e+03,4.455576e+02
2.503152e+03,4.437338e+02
2.504116e+03,4.405120e+02
2.505080e+03,4.364969e+02
2.506044e+03,4.343262e+02
2.507009e+03,4.379726e+02
2.507973e+03,4.373143e+02
2.508937e+03,4.326871e+02
2.509901e+03,4.303139e+02
2.510865e+03,4.317201e+02
2.511830e+03,4.313396e+02
2.512794e+03,4.299965e+02
2.513758e+03,4.317796e+02
2.514722e+03,4.353654e+02
2.515687e+03,4.357532e+02
2.516651e+03,4.349805e+02
2.517615e+03,4.352153e+02
2.518579e+03,4.358190e+02
2.519544e+03,4.354851e+02
2.520508e+03,4.366840e+02
2.521472e+03,4.408639e+02
2.522436e+03,4.426373e+02
2.523401e+03,4.346454e+02
2.524365e+03,4.323777e+02
2.525329e+03,4.360148e+02
2.526293e+03,4.358810e+02
2.527258e+03,4.297014e+02
2.528222e+03,4.294372e+02
2.529186e+03,4.322856e+02
2.530150e+03,4.279407e+02
2.531115e+03,4.202544e+02
2.532079e+03,4.233437e+02
2.533043e+03,4.309050e+02
2.534007e+03,4.368040e+02
2.534971e+03,4.383588e+02
2.535936e+03,4.277646e+02
2.536900e+03,4.206288e+02
2.537864e+03,4.228978e+02
2.538828e+03,4.253565e+02
2.539792e+03,4.225382e+02
2.540757e+03,4.195132e+02
2.541721e+03,4.169384e+02
2.542685e+03,4.167433e+02
2.543649e+03,4.189648e+02
2.544614e+03,4.227747e+02
2.545578e+03,4.274554e+02
2.546542e+03,4.333839e+02
2.547506e+03,4.381885e+02
2.548471e+03,4.326543e+02
2.549435e+03,4.258593e+02
2.550399e+03,4.260548e+02
2.551363e+03,4.288464e+02
2.552328e+03,4.324356e+02
2.553292e+03,4.332964e+02
2.554256e+03,4.293517e+02
2.555220e+03,4.265608e+02
2.556185e+03,4.259325e+02
2.557149e+03,4.260755e+02
2.558113e+03,4.269077e+02
2.559077e+03,4.302232e+02
2.560042e+03,4.347329e+02
2.561006e+03,4.375669e+02
2.561970e+03,4.384327e+02
2.562934e+03,4.355575e+02
2.563898e+03,4.302887e+02
2.564863e+03,4.221046e+02
2.565827e+03,4.159651e+02
2.566791e+03,4.192874e+02
2.567755e+03,4.208931e+02
2.568719e+03,4.172822e+02
2.569684e+03,4.144731e+02
2.570648e+03,4.149782e+02
2.571612e+03,4.201195e+02
2.572576e+03,4.286119e+02
2.573541e+03,4.301336e+02
2.574505e+03,4.252292e+02
2.575469e+03,4.266548e+02
2.576433e+03,4.298576e+02
2.577398e+03,4.280542e+02
2.578362e+03,4.247487e+02
2.579326e+03,4.250314e+02
2.580290e+03,4.252582e+02
2.581255e+03,4.238335e+02
2.582219e+03,4.204971e+02
2.583183e+03,4.120816e+02
2.584147e+03,4.100541e+02
2.585112e+03,4.148066e+02
2.586076e+03,4.154723e+02
2.587040e+03,4.102890e+02
2.588004e+03,4.146664e+02
2.588969e+03,4.222331e+02
2.589933e+03,4.190971e+02
2.590897e+03,4.113572e+02
2.591861e+03,4.113873e+02
2.592825e+03,4.136478e+02
2.593790e+03,4.130517e+02
2.594754e+03,4.181528e+02
2.595718e+03,4.406820e+02
2.596682e+03,4.487219e+02
2.597646e+03,4.348473e+02
2.598611e+03,4.208590e+02
2.599575e+03,4.108026e+02
2.600539e+03,4.077315e+02
2.601503e+03,4.102906e+02
2.602468e+03,4.107169e+02
2.603432e+03,4.099812e+02
2.604396e+03,4.116913e+02
2.605360e+03,4.122455e+02
2.606325e+03,4.057972e+02
2.607289e+03,3.998750e+02
2.608253e+03,3.975272e+02
2.609217e+03,3.986368e+02
2.610182e+03,4.043782e+02
2.611146e+03,4.067473e+02
2.612110e+03,4.062530e+02
2.613074e+03,4.093310e+02
2.614039e+03,4.158877e+02
2.615003e+03,4.196880e+02
2.615967e+03,4.195386e+02
2.616931e+03,4.130518e+02
2.617896e+03,4.066562e+02
2.618860e+03,4.114640e+02
2.619824e+03,4.129875e+02
2.620788e+03,4.053745e+02
2.621752e+03,3.990290e+02
2.622717e+03,4.000421e+02
2.623681e+03,4.051811e+02
2.624645e+03,4.128138e+02
2.625609e+03,4.112374e+02
2.626573e+03,4.027094e+02
2.627538e+03,4.115555e+02
2.628502e+03,4.217665e+02
2.629466e+03,4.059755e+02
2.630430e+03,3.852594e+02
2.631395e+03,3.881658e+02
2.632359e+03,3.971557e+02
2.633323e+03,4.096942e+02
2.634287e+03,4.113885e+02
2.635252e+03,4.001724e+02
2.636216e+03,3.969536e+02
2.637180e+03,4.046353e+02
2.638144e+03,4.050558e+02
2.639109e+03,4.005803e+02
2.640073e+03,3.986974e+02
2.641037e+03,3.984752e+02
2.642001e+03,3.962211e+02
2.642966e+03,3.963832e+02
2.643930e+03,4.021312e+02
2.644894e+03,4.052930e+02
2.645858e+03,3.989361e+02
2.646823e+03,3.896404e+02
2.647787e+03,3.788338e+02
2.648751e+03,3.791002e+02
2.649715e+03,3.902751e+02
2.650679e+03,3.986742e+02
2.651644e+03,4.032807e+02
2.652608e+03,4.020871e+02
2.653572e+03,3.998422e+02
2.654536e+03,4.042222e+02
2.655500e+03,4.095103e+02
2.656465e+03,4.142155e+02
2.657429e+03,4.144146e+02
2.658393e+03,4.086386e+02
2.659357e+03,4.019167e+02
2.660322e+03,3.956450e+02
2.661286e+03,3.902704e+02
2.662250e+03,3.862383e+02
2.663214e+03,3.858589e+02
2.664179e+03,3.871356e+02
2.665143e+03,3.884419e+02
2.666107e+03,3.897193e+02
2.667071e+03,3.911124e+02
2.668036e+03,3.916624e+02
2.669000e+03,3.885219e+02
2.669964e+03,3.917598e+02
2.670928e+03,4.000057e+02
2.671893e+03,4.042071e+02
2.672857e+03,4.039724e+02
2.673821e+03,3.968239e+02
2.674785e+03,3.909243e+02
2.675750e+03,3.965518e+02
2.676714e+03,4.029552e+02
2.677678e+03,3.949394e+02
2.678642e+03,3.901934e+02
2.679606e+03,3.927842e+02
2.680571e+03,3.925904e+02
2.681535e+03,3.878740e+02
2.682499e+03,3.855786e+02
2.683463e+03,3.854755e+02
2.684427e+03,3.844804e+02
2.685392e+03,3.841005e+02
2.686356e+03,3.879633e+02
2.687320e+03,3.916783e+02
2.688284e+03,3.926665e+02
2.689249e+03,3.925357e+02
2.690213e+03,3.917197e+02
2.691177e+03,3.879710e+02
2.692141e+03,3.803061e+02
2.693106e+03,3.859591e+02
2.694070e+03,3.974907e+02
2.695034e+03,3.949397e+02
2.695998e+03,3.865976e+02
2.696963e+03,3.871263e+02
2.697927e+03,3.887825e+02
2.698891e+03,3.869273e+02
2.699855e+03,3.870788e+02
2.700820e+03,3.933819e+02
2.701784e+03,3.940745e+02
2.702748e+03,3.888926e+02
2.703712e+03,3.878809e+02
2.704677e+03,3.896768e+02
2.705641e+03,3.885421e+02
2.706605e+03,3.871681e+02
2.707569e+03,3.886890e+02
2.708533e+03,3.894576e+02
2.709498e+03,3.877734e+02
2.710462e+03,3.839349e+02
2.711426e+03,3.757637e+02
2.712390e+03,3.821387e+02
2.713354e+03,3.983471e+02
2.714319e+03,4.037436e+02
2.715283e+03,4.009208e+02
2.716247e+03,3.955552e+02
2.717211e+03,3.889383e+02
2.718176e+03,3.814858e+02
2.719140e+03,3.769900e+02
2.720104e+03,3.784922e+02
2.721068e+03,3.834318e+02
2.722033e+03,3.906260e+02
2.722997e+03,3.871259e+02
2.723961e+03,3.764867e+02
2.724925e+03,3.759341e+02
2.725890e+03,3.800216e+02
2.726854e+03,3.795215e+02
2.727818e+03,3.806251e+02
2.728782e+03,3.870229e+02
2.729747e+03,3.893761e+02
2.730711e+03,3.788403e+02
2.731675e+03,3.795809e+02
2.732639e+03,3.884038e+02
2.733604e+03,3.868042e+02
2.734568e+03,3.779350e+02
2.735532e+03,3.681170e+02
2.736496e+03,3.631123e+02
2.737460e+03,3.672757e+02
2.738425e+03,3.735670e+02
2.739389e+03,3.786052e+02
2.740353e+03,3.780743e+02
2.741317e+03,3.721336e+02
2.742281e+03,3.734155e+02
2.743246e+03,3.798136e+02
2.744210e+03,3.834081e+02
2.745174e+03,3.831288e+02
2.746138e+03,3.751392e+02
2.747103e+03,3.704206e+02
2.748067e+03,3.733155e+02
2.749031e+03,3.767231e+02
2.749995e+03,3.766456e+02
2.750960e+03,3.794238e+02
2.751924e+03,3.833120e+02
2.752888e+03,3.820811e+02
2.753852e+03,3.781745e+02
2.754817e+03,3.774291e+02
2.755781e+03,3.771686e+02
2.756745e+03,3.765000e+02
2.757709e+03,3.707533e+02
2.758674e+03,3.582031e+02
2.759638e+03,3.564574e+02
2.760602e+03,3.677729e+02
2.761566e+03,3.718918e+02
2.762531e+03,3.716111e+02
2.763495e+03,3.702443e+02
2.764459e+03,3.687482e+02
2.765423e+03,3.676099e+02
2.766387e+03,3.683047e+02
2.767352e+03,3.712070e+02
2.768316e+03,3.742556e+02
2.769280e+03,3.768405e+02
2.770244e+03,3.755311e+02
2.771208e+03,3.708979e+02
2.772173e+03,3.622850e+02
2.773137e+03,3.564249e+02
2.774101e+03,3.638392e+02
2.775065e+03,3.704781e+02
2.776030e+03,3.701852e+02
2.776994e+03,3.734063e+02
2.777958e+03,3.793618e+02
2.778922e+03,3.789137e+02
2.779887e+03,3.746470e+02
2.780851e+03,3.752860e+02
2.781815e+03,3.753215e+02
2.782779e+03,3.707540e+02
2.783744e+03,3.692685e+02
2.784708e+03,3.775612e+02
2.785672e+03,3.784346e+02
2.786636e+03,3.711062e+02
2.787601e+03,3.624974e+02
2.788565e+03,3.564715e+02
2.789529e+03,3.653820e+02
2.790493e+03,3.767356e+02
2.791458e+03,3.808215e+02
2.792422e+03,3.806738e+02
2.793386e+03,3.781786e+02
2.794350e+03,3.735240e+02
2.795314e+03,3.666074e+02
2.796279e+03,3.645277e+02
2.797243e+03,3.647916e+02
2.798207e+03,3.633203e+02
2.799171e+03,3.631141e+02
2.800135e+03,3.706119e+02
2.801100e+03,3.729674e+02
2.802064e+03,3.669111e+02
2.803028e+03,3.657174e+02
2.803992e+03,3.693227e+02
2.804957e+03,3.736282e+02
2.805921e+03,3.760165e+02
2.806885e+03,3.676999e+02
2.807849e+03,3.646794e+02
2.808814e+03,3.751317e+02
2.809778e+03,3.783616e+02
2.810742e+03,3.610331e+02
2.811706e+03,3.578685e+02
2.812671e+03,3.643188e+02
2.813635e+03,3.613013e+02
2.814599e+03,3.547502e+02
2.815563e+03,3.572631e+02
2.816528e+03,3.635291e+02
2.817492e+03,3.750072e+02
2.818456e+03,3.721073e+02
2.819420e+03,3.560123e+02
2.820385e+03,3.566386e+02
2.821349e+03,3.697796e+02
2.822313e+03,3.644296e+02
2.823277e+03,3.583839e+02
2.824241e+03,3.663028e+02
2.825206e+03,3.732347e+02
2.826170e+03,3.701078e+02
2.827134e+03,3.678177e+02
2.828098e+03,3.664443e+02
2.829063e+03,3.584359e+02
2.830027e+03,3.499847e+02
2.830991e+03,3.587733e+02
2.831955e+03,3.684347e+02
2.832919e+03,3.632139e+02
2.833884e+03,3.600529e+02
2.834848e+03,3.613834e+02
2.835812e+03,3.641968e+02
2.836776e+03,3.677582e+02
2.837741e+03,3.737303e+02
2.838705e+03,3.758350e+02
2.839669e+03,3.656096e+02
2.840633e+03,3.583182e+02
2.841598e+03,3.625718e+02
2.842562e+03,3.661598e+02
2.843526e+03,3.663457e+02
2.844490e+03,3.602980e+02
2.845455e+03,3.547756e+02
2.846419e+03,3.652388e+02
2.847383e+03,3.758496e+02
2.848347e+03,3.629237e+02
2.849312e+03,3.602358e+02
2.850276e+03,3.730363e+02
2.851240e+03,3.748559e+02
2.852204e+03,3.665712e+02
2.853168e+03,3.658676e+02
2.854133e+03,3.702374e+02
2.855097e+03,3.790048e+02
2.856061e+03,3.854554e+02
2.857025e+03,3.874690e+02
2.857990e+03,3.834943e+02
2.858954e+03,3.729466e+02
2.859918e+03,3.730007e+02
2.860882e+03,3.764159e+02
2.861846e+03,3.694466e+02
2.862811e+03,3.645551e+02
2.863775e+03,3.763983e+02
2.864739e+03,3.820560e+02
2.865703e+03,3.752714e+02
2.866668e+03,3.764005e+02
2.867632e+03,3.815836e+02
2.868596e+03,3.746661e+02
2.869560e+03,3.679729e+02
2.870525e+03,3.838034e+02
2.871489e+03,3.916476e+02
2.872453e+03,3.840400e+02
2.873417e+03,3.763499e+02
2.874382e+03,3.715548e+02
2.875346e+03,3.761219e+02
2.876310e+03,3.827138e+02
2.877274e+03,3.774402e+02
2.878239e+03,3.742503e+02
2.879203e+03,3.779285e+02
2.880167e+03,3.831626e+02
2.881131e+03,3.890180e+02
2.882095e+03,3.885533e+02
2.883060e+03,3.884609e+02
2.884024e+03,4.003500e+02
2.884988e+03,4.111926e+02
2.885952e+03,4.084355e+02
2.886917e+03,4.037979e+02
2.887881e+03,4.000991e+02
2.888845e+03,3.975041e+02
2.889809e+03,3.970672e+02
2.890773e+03,4.017427e+02
2.891738e+03,4.067298e+02
2.892702e+03,4.092876e+02
2.893666e+03,4.066233e+02
2.894630e+03,3.986028e+02
2.895595e+03,3.917822e+02
2.896559e+03,3.869756e+02
2.897523e+03,3.816317e+02
2.898487e+03,3.842871e+02
2.899452e+03,4.207343e+02
2.900416e+03,4.273873e+02
2.901380e+03,3.942578e+02
2.902344e+03,3.795679e+02
2.903309e+03,3.901783e+02
2.904273e+03,3.946668e+02
2.905237e+03,3.919885e+02
2.906201e+03,3.803384e+02
2.907166e+03,3.705341e+02
2.908130e+03,3.669611e+02
2.909094e+03,3.698609e+02
2.910058e+03,3.781993e+02
2.911022e+03,3.808575e+02
2.911987e+03,3.782197e+02
2.912951e+03,3.693994e+02
2.913915e+03,3.654138e+02
2.914879e+03,3.764983e+02
2.915844e+03,3.844557e+02
2.916808e+03,3.869994e+02
2.917772e+03,3.830405e+02
2.918736e+03,3.771063e+02
2.919700e+03,3.752433e+02
2.920665e+03,3.750342e+02
2.921629e+03,3.764996e+02
2.922593e+03,3.753112e+02
2.923557e+03,3.726730e+02
2.924522e+03,3.749624e+02
2.925486e+03,3.787211e+02
2.926450e+03,3.755645e+02
2.927414e+03,3.693705e+02
2.928379e+03,3.591555e+02
2.929343e+03,3.623459e+02
2.930307e+03,3.759802e+02
2.931271e+03,3.796227e+02
2.932236e+03,3.777661e+02
2.933200e+03,3.801323e+02
2.934164e+03,3.778802e+02
2.935128e+03,3.670072e+02
2.936093e+03,3.536266e+02
2.937057e+03,3.419689e+02
2.938021e+03,3.559409e+02
2.938985e+03,3.771706e+02
2.939949e+03,3.729699e+02
2.940914e+03,3.667993e+02
2.941878e+03,3.676489e+02
2.942842e+03,3.620844e+02
2.943806e+03,3.482893e+02
2.944771e+03,3.415615e+02
2.945735e+03,3.442591e+02
2.946699e+03,3.661417e+02
2.947663e+03,3.746353e+02
2.948627e+03,3.603575e+02
2.949592e+03,3.547812e+02
2.950556e+03,3.617646e+02
2.951520e+03,3.430965e+02
2.952484e+03,3.252181e+02
2.953449e+03,3.340402e+02
2.954413e+03,3.542350e+02
2.955377e+03,3.786441e+02
2.956341e+03,3.970923e+02
2.957306e+03,4.068697e+02
2.958270e+03,4.081445e+02
2.959234e+03,3.997020e+02
2.960198e+03,3.830685e+02
2.961163e+03,3.624578e+02
2.962127e+03,3.368003e+02
2.963091e+03,3.360228e+02
2.964055e+03,3.525695e+02
2.965020e+03,3.555684e+02
2.965984e+03,3.484777e+02
2.966948e+03,3.324677e+02
2.967912e+03,3.261678e+02
2.968876e+03,3.401982e+02
2.969841e+03,3.550793e+02
2.970805e+03,3.634817e+02
2.971769e+03,3.525054e+02
2.972733e+03,3.387631e+02
2.973698e+03,3.339676e+02
2.974662e+03,3.349435e+02
2.975626e+03,3.412725e+02
2.976590e+03,3.356488e+02
2.977554e+03,3.271058e+02
2.978519e+03,3.279952e+02
2.979483e+03,3.283452e+02
2.980447e+03,3.203099e+02
2.981411e+03,3.215927e+02
2.982376e+03,3.331736e+02
2.983340e+03,3.384567e+02
2.984304e+03,3.392229e+02
2.985268e+03,3.380439e+02
2.986233e+03,3.340259e+02
2.987197e+03,3.251937e+02
2.988161e+03,3.222167e+02
2.989125e+03,3.252947e+02
2.990090e+03,3.338285e+02
2.991054e+03,3.373823e+02
2.992018e+03,3.269017e+02
2.992982e+03,3.199461e+02
2.993947e+03,3.241258e+02
2.994911e+03,3.312568e+02
2.995875e+03,3.377552e+02
2.996839e+03,3.364890e+02
2.997803e+03,3.357747e+02
2.998768e+03,3.415508e+02
2.999732e+03,3.466016e+02
3.000696e+03,3.492599e+02
3.001660e+03,3.461571e+02
3.002625e+03,3.379552e+02
3.003589e+03,3.246120e+02
3.004553e+03,3.217422e+02
3.005517e+03,3.374648e+02
3.006481e+03,3.486728e+02
3.007446e+03,3.507650e+02
3.008410e+03,3.380410e+02
3.009374e+03,3.248848e+02
3.010338e+03,3.199860e+02
3.011303e+03,3.240305e+02
3.012267e+03,3.364667e+02
3.013231e+03,3.304868e+02
3.014195e+03,3.157242e+02
3.015160e+03,3.089949e+02
3.016124e+03,3.076143e+02
3.017088e+03,3.094052e+02
3.018052e+03,3.077789e+02
3.019017e+03,3.032377e+02
3.019981e+03,3.164327e+02
3.020945e+03,3.260464e+02
3.021909e+03,3.114146e+02
3.022874e+03,3.042381e+02
3.023838e+03,3.099196e+02
3.024802e+03,3.142191e+02
3.025766e+03,3.159807e+02
3.026730e+03,3.132661e+02
3.027695e+03,3.156250e+02
3.028659e+03,3.273354e+02
3.029623e+03,3.340270e+02
3.030587e+03,3.342806e+02
3.031552e+03,3.259554e+02
3.032516e+03,3.166176e+02
3.033480e+03,3.179639e+02
3.034444e+03,3.110605e+02
3.035408e+03,2.960466e+02
3.036373e+03,3.123432e+02
3.037337e+03,3.434364e+02
3.038301e+03,3.324564e+02
3.039265e+03,3.195298e+02
3.040230e+03,3.282104e+02
3.041194e+03,3.345507e+02
3.042158e+03,3.349843e+02
3.043122e+03,3.231855e+02
3.044087e+03,3.092837e+02
3.045051e+03,3.051493e+02
3.046015e+03,3.061359e+02
3.046979e+03,3.125050e+02
3.047944e+03,3.197457e+02
3.048908e+03,3.242910e+02
3.049872e+03,3.204484e+02
3.050836e+03,3.159643e+02
3.051801e+03,3.155995e+02
3.052765e+03,3.188971e+02
3.053729e+03,3.223453e+02
3.054693e+03,3.086417e+02
3.055657e+03,3.000253e+02
3.056622e+03,3.111543e+02
3.057586e+03,3.210842e+02
3.058550e+03,3.233275e+02
3.059514e+03,3.217926e+02
3.060479e+03,3.199135e+02
3.061443e+03,3.259969e+02
3.062407e+03,3.216640e+02
3.063371e+03,3.042065e+02
3.064335e+03,3.029224e+02
3.065300e+03,3.144591e+02
3.066264e+03,3.080767e+02
3.067228e+03,3.078089e+02
3.068192e+03,3.334128e+02
3.069157e+03,3.391110e+02
3.070121e+03,3.254154e+02
3.071085e+03,3.136346e+02
3.072049e+03,3.057206e+02
3.073014e+03,3.036090e+02
3.073978e+03,3.066375e+02
3.074942e+03,3.140562e+02
3.075906e+03,3.072143e+02
3.076871e+03,2.968163e+02
3.077835e+03,2.996768e+02
3.078799e+03,3.067811e+02
3.079763e+03,3.131465e+02
3.080728e+03,3.214763e+02
3.081692e+03,3.297067e+02
3.082656e+03,3.316110e+02
3.083620e+03,3.279421e+02
3.084584e+03,3.199305e+02
3.085549e+03,3.199652e+02
3.086513e+03,3.296346e+02
3.087477e+03,3.182323e+02
3.088441e+03,3.058666e+02
3.089406e+03,3.195723e+02
3.090370e+03,3.204966e+02
3.091334e+03,3.047637e+02
3.092298e+03,2.884120e+02
3.093262e+03,2.807044e+02
3.094227e+03,3.145886e+02
3.095191e+03,3.312730e+02
3.096155e+03,3.081727e+02
3.097119e+03,2.972089e+02
3.098084e+03,2.975749e+02
3.099048e+03,2.996126e+02
3.100012e+03,3.017849e+02
3.100976e+03,3.033669e+02
3.101941e+03,3.049125e+02
3.102905e+03,3.076704e+02
3.103869e+03,3.180699e+02
3.104833e+03,3.236435e+02
3.105798e+03,3.174617e+02
3.106762e+03,3.123991e+02
3.107726e+03,3.123769e+02
3.108690e+03,3.233861e+02
3.109655e+03,3.359337e+02
3.110619e+03,3.411790e+02
3.111583e+03,3.363330e+02
3.112547e+03,3.238218e+02
3.113511e+03,3.121398e+02
3.114476e+03,3.057368e+02
3.115440e+03,3.185233e+02
3.116404e+03,3.304516e+02
3.117368e+03,3.354544e+02
3.118333e+03,3.258033e+02
3.119297e+03,3.169248e+02
3.120261e+03,3.371220e+02
3.121225e+03,3.451618e+02
3.122189e+03,3.173756e+02
3.123154e+03,3.128418e+02
3.124118e+03,3.280284e+02
3.125082e+03,3.249942e+02
3.126046e+03,3.184585e+02
3.127011e+03,3.156329e+02
3.127975e+03,3.243409e+02
3.128939e+03,3.386097e+02
3.129903e+03,3.319041e+02
3.130868e+03,3.178493e+02
3.131832e+03,3.000478e+02
3.132796e+03,2.998725e+02
3.133760e+03,3.123200e+02
3.134725e+03,3.033759e+02
3.135689e+03,2.942859e+02
3.136653e+03,3.062041e+02
3.137617e+03,3.178389e+02
3.138582e+03,3.232911e+02
3.139546e+03,3.326971e+02
3.140510e+03,3.404014e+02
3.141474e+03,3.423258e+02
3.142438e+03,3.375778e+02
3.143403e+03,3.278535e+02
3.144367e+03,3.135045e+02
3.145331e+03,3.025607e+02
3.146295e+03,3.122597e+02
3.147260e+03,3.275371e+02
3.148224e+03,3.431698e+02
3.149188e+03,3.353765e+02
3.150152e+03,3.172461e+02
3.151116e+03,3.052253e+02
3.152081e+03,3.029149e+02
3.153045e+03,3.108722e+02
3.154009e+03,3.210814e+02
3.154973e+03,3.296607e+02
3.155938e+03,3.288000e+02
3.156902e+03,3.269492e+02
3.157866e+03,3.255941e+02
3.158830e+03,3.095673e+02
3.159795e+03,2.904643e+02
3.160759e+03,2.997604e+02
3.161723e+03,3.129167e+02
3.162687e+03,3.203672e+02
3.163652e+03,3.211309e+02
3.164616e+03,3.205609e+02
3.165580e+03,3.274994e+02
3.166544e+03,3.395160e+02
3.167509e+03,3.545028e+02
3.168473e+03,3.448372e+02
3.169437e+03,3.200757e+02
3.170401e+03,3.147137e+02
3.171365e+03,3.125475e+02
3.172330e+03,3.069233e+02
3.173294e+03,3.218767e+02
3.174258e+03,3.403239e+02
3.175222e+03,3.245204e+02
3.176187e+03,3.065931e+02
3.177151e+03,3.071057e+02
3.178115e+03,3.127119e+02
3.179079e+03,3.204391e+02
3.180043e+03,3.308694e+02
3.181008e+03,3.223116e+02
3.181972e+03,2.912247e+02
3.182936e+03,2.849294e+02
3.183900e+03,2.985527e+02
3.184865e+03,3.121771e+02
3.185829e+03,3.239569e+02
3.186793e+03,3.385097e+02
3.187757e+03,3.243887e+02
3.188722e+03,3.013808e+02
3.189686e+03,3.146465e+02
3.190650e+03,3.289390e+02
3.191614e+03,3.296783e+02
3.192579e+03,3.459940e+02
3.193543e+03,3.693864e+02
3.194507e+03,3.660414e+02
3.195471e+03,3.509379e+02
3.196436e+03,3.276124e+02
3.197400e+03,3.199106e+02
3.198364e+03,3.203707e+02
3.199328e+03,3.140009e+02
3.200292e+03,3.148372e+02
3.201257e+03,0.000000e+00
3.202221e+03,0.000000e+00
3.203185e+03,0.000000e+00
3.204149e+03,0.000000e+00
3.205114e+03,0.000000e+00
3.206078e+03,0.000000e+00
3.207042e+03,0.000000e+00
3.208006e+03,0.000000e+00
3.208970e+03,0.000000e+00
3.209935e+03,0.000000e+00
3.210899e+03,0.000000e+00
3.211863e+03,0.000000e+00
3.212827e+03,0.000000e+00
3.213792e+03,0.000000e+00
3.214756e+03,0.000000e+00
3.215720e+03,0.000000e+00
3.216684e+03,0.000000e+00
3.217649e+03,0.000000e+00
3.218613e+03,0.000000e+00
3.219577e+03,0.000000e+00
3.220541e+03,0.000000e+00
3.221506e+03,0.000000e+00
3.222470e+03,0.000000e+00
3.223434e+03,0.000000e+00
3.224398e+03,0.000000e+00
3.225363e+03,0.000000e+00
3.226327e+03,0.000000e+00
3.227291e+03,0.000000e+00
3.228255e+03,0.000000e+00
3.229219e+03,0.000000e+00
3.230184e+03,0.000000e+00
3.231148e+03,0.000000e+00
3.232112e+03,0.000000e+00
3.233076e+03,0.000000e+00
3.234041e+03,0.000000e+00
3.235005e+03,0.000000e+00
3.235969e+03,0.000000e+00
3.236933e+03,0.000000e+00
3.237897e+03,0.000000e+00
3.238862e+03,0.000000e+00
3.239826e+03,0.000000e+00
3.240790e+03,0.000000e+00
3.241754e+03,0.000000e+00
3.242719e+03,0.000000e+00
3.243683e+03,0.000000e+00
3.244647e+03,0.000000e+00
3.245611e+03,0.000000e+00
3.246576e+03,0.000000e+00
3.247540e+03,0.000000e+00
3.248504e+03,0.000000e+00
3.249468e+03,0.000000e+00
3.250433e+03,0.000000e+00
3.251397e+03,0.000000e+00
3.252361e+03,0.000000e+00
3.253325e+03,0.000000e+00
3.254290e+03,0.000000e+00
3.255254e+03,0.000000e+00
3.256218e+03,0.000000e+00
3.257182e+03,0.000000e+00
3.258146e+03,0.000000e+00
3.259111e+03,0.000000e+00
3.260075e+03,0.000000e+00
3.261039e+03,0.000000e+00
3.262003e+03,0.000000e+00
3.262968e+03,0.000000e+00
3.263932e+03,0.000000e+00
3.264896e+03,0.000000e+00
3.265860e+03,0.000000e+00
3.266824e+03,0.000000e+00
3.267789e+03,0.000000e+00
3.268753e+03,0.000000e+00
3.269717e+03,0.000000e+00
3.270681e+03,0.000000e+00
3.271646e+03,0.000000e+00
3.272610e+03,0.000000e+00
3.273574e+03,0.000000e+00
3.274538e+03,0.000000e+00
3.275503e+03,0.000000e+00
3.276467e+03,0.000000e+00
3.277431e+03,0.000000e+00
3.278395e+03,0.000000e+00
3.279360e+03,0.000000e+00
3.280324e+03,0.000000e+00
3.281288e+03,0.000000e+00
3.282252e+03,0.000000e+00
3.283217e+03,0.000000e+00
3.284181e+03,0.000000e+00
3.285145e+03,0.000000e+00
3.286109e+03,0.000000e+00
3.287073e+03,0.000000e+00
3.288038e+03,0.000000e+00
3.289002e+03,0.000000e+00
3.289966e+03,0.000000e+00
3.290930e+03,0.000000e+00
3.291895e+03,0.000000e+00
3.292859e+03,0.000000e+00
3.293823e+03,0.000000e+00
3.294787e+03,0.000000e+00
3.295751e+03,0.000000e+00
3.296716e+03,0.000000e+00
3.297680e+03,0.000000e+00
3.298644e+03,0.000000e+00
3.299608e+03,0.000000e+00
3.300573e+03,0.000000e+00
3.301537e+03,0.000000e+00
3.302501e+03,0.000000e+00
3.303465e+03,0.000000e+00
3.304430e+03,0.000000e+00
3.305394e+03,0.000000e+00
3.306358e+03,0.000000e+00
3.307322e+03,0.000000e+00
3.308287e+03,0.000000e+00
3.309251e+03,0.000000e+00
3.310215e+03,0.000000e+00
3.311179e+03,0.000000e+00
3.312144e+03,0.000000e+00
3.313108e+03,0.000000e+00
3.314072e+03,0.000000e+00
3.315036e+03,0.000000e+00
3.316000e+03,0.000000e+00
3.316965e+03,0.000000e+00
3.317929e+03,0.000000e+00
3.318893e+03,0.000000e+00
3.319857e+03,0.000000e+00
3.320822e+03,0.000000e+00
3.321786e+03,0.000000e+00
3.322750e+03,0.000000e+00
3.323714e+03,0.000000e+00
3.324678e+03,0.000000e+00
3.325643e+03,0.000000e+00
3.326607e+03,0.000000e+00
3.327571e+03,0.000000e+00
3.328535e+03,0.000000e+00
3.329500e+03,0.000000e+00
3.330464e+03,0.000000e+00
3.331428e+03,0.000000e+00
3.332392e+03,0.000000e+00
3.333357e+03,0.000000e+00
3.334321e+03,0.000000e+00
3.335285e+03,0.000000e+00
3.336249e+03,0.000000e+00
3.337214e+03,0.000000e+00
3.338178e+03,0.000000e+00
3.339142e+03,0.000000e+00
3.340106e+03,0.000000e+00
3.341071e+03,0.000000e+00
3.342035e+03,0.000000e+00
3.342999e+03,0.000000e+00
3.343963e+03,0.000000e+00
3.344927e+03,0.000000e+00
3.345892e+03,0.000000e+00
3.346856e+03,0.000000e+00
3.347820e+03,0.000000e+00
3.348784e+03,0.000000e+00
3.349749e+03,0.000000e+00
3.350713e+03,0.000000e+00
3.351677e+03,0.000000e+00
3.352641e+03,0.000000e+00
3.353605e+03,0.000000e+00
3.354570e+03,0.000000e+00
3.355534e+03,0.000000e+00
3.356498e+03,0.000000e+00
3.357462e+03,0.000000e+00
3.358427e+03,0.000000e+00
3.359391e+03,0.000000e+00
3.360355e+03,0.000000e+00
3.361319e+03,0.000000e+00
3.362284e+03,0.000000e+00
3.363248e+03,0.000000e+00
3.364212e+03,0.000000e+00
3.365176e+03,0.000000e+00
3.366141e+03,0.000000e+00
3.367105e+03,0.000000e+00
3.368069e+03,0.000000e+00
3.369033e+03,0.000000e+00
3.369998e+03,0.000000e+00
3.370962e+03,0.000000e+00
3.371926e+03,0.000000e+00
3.372890e+03,0.000000e+00
3.373854e+03,0.000000e+00
3.374819e+03,0.000000e+00
3.375783e+03,0.000000e+00
3.376747e+03,0.000000e+00
3.377711e+03,0.000000e+00
3.378676e+03,0.000000e+00
3.379640e+03,0.000000e+00
3.380604e+03,0.000000e+00
3.381568e+03,0.000000e+00
3.382532e+03,0.000000e+00
3.383497e+03,0.000000e+00
3.384461e+03,0.000000e+00
3.385425e+03,0.000000e+00
3.386389e+03,0.000000e+00
3.387354e+03,0.000000e+00
3.388318e+03,0.000000e+00
3.389282e+03,0.000000e+00
3.390246e+03,0.000000e+00
3.391211e+03,0.000000e+00
3.392175e+03,0.000000e+00
3.393139e+03,0.000000e+00
3.394103e+03,0.000000e+00
3.395068e+03,0.000000e+00
3.396032e+03,0.000000e+00
3.396996e+03,0.000000e+00
3.397960e+03,0.000000e+00
3.398925e+03,0.000000e+00
3.399889e+03,0.000000e+00
3.400853e+03,0.000000e+00
3.401817e+03,0.000000e+00
3.402781e+03,0.000000e+00
3.403746e+03,0.000000e+00
3.404710e+03,0.000000e+00
3.405674e+03,0.000000e+00
3.406638e+03,0.000000e+00
3.407603e+03,0.000000e+00
3.408567e+03,0.000000e+00
3.409531e+03,0.000000e+00
3.410495e+03,0.000000e+00
3.411459e+03,0.000000e+00
3.412424e+03,0.000000e+00
3.413388e+03,0.000000e+00
3.414352e+03,0.000000e+00
3.415316e+03,0.000000e+00
3.416281e+03,0.000000e+00
3.417245e+03,0.000000e+00
3.418209e+03,0.000000e+00
3.419173e+03,0.000000e+00
3.420138e+03,0.000000e+00
3.421102e+03,0.000000e+00
3.422066e+03,0.000000e+00
3.423030e+03,0.000000e+00
3.423995e+03,0.000000e+00
3.424959e+03,0.000000e+00
3.425923e+03,0.000000e+00
3.426887e+03,0.000000e+00
3.427852e+03,0.000000e+00
3.428816e+03,0.000000e+00
3.429780e+03,0.000000e+00
3.430744e+03,0.000000e+00
3.431708e+03,0.000000e+00
3.432673e+03,0.000000e+00
3.433637e+03,0.000000e+00
3.434601e+03,0.000000e+00
3.435565e+03,0.000000e+00
3.436530e+03,0.000000e+00
3.437494e+03,0.000000e+00
3.438458e+03,0.000000e+00
3.439422e+03,0.000000e+00
3.440386e+03,0.000000e+00
3.441351e+03,0.000000e+00
3.442315e+03,0.000000e+00
3.443279e+03,0.000000e+00
3.444243e+03,0.000000e+00
3.445208e+03,0.000000e+00
3.446172e+03,0.000000e+00
3.447136e+03,0.000000e+00
3.448100e+03,0.000000e+00
3.449065e+03,0.000000e+00
3.450029e+03,0.000000e+00
3.450993e+03,0.000000e+00
3.451957e+03,0.000000e+00
3.452922e+03,0.000000e+00
3.453886e+03,0.000000e+00
3.454850e+03,0.000000e+00
3.455814e+03,0.000000e+00
3.456779e+03,0.000000e+00
3.457743e+03,0.000000e+00
3.458707e+03,0.000000e+00
3.459671e+03,0.000000e+00
3.460635e+03,0.000000e+00
3.461600e+03,0.000000e+00
3.462564e+03,0.000000e+00
3.463528e+03,0.000000e+00
3.464492e+03,0.000000e+00
3.465457e+03,0.000000e+00
3.466421e+03,0.000000e+00
3.467385e+03,0.000000e+00
3.468349e+03,0.000000e+00
3.469313e+03,0.000000e+00
3.470278e+03,0.000000e+00
3.471242e+03,0.000000e+00
3.472206e+03,0.000000e+00
3.473170e+03,0.000000e+00
3.474135e+03,0.000000e+00
3.475099e+03,0.000000e+00
3.476063e+03,0.000000e+00
3.477027e+03,0.000000e+00
3.477992e+03,0.000000e+00
3.478956e+03,0.000000e+00
3.479920e+03,0.000000e+00
3.480884e+03,0.000000e+00
3.481849e+03,0.000000e+00
3.482813e+03,0.000000e+00
3.483777e+03,0.000000e+00
3.484741e+03,0.000000e+00
3.485706e+03,0.000000e+00
3.486670e+03,0.000000e+00
3.487634e+03,0.000000e+00
3.488598e+03,0.000000e+00
3.489563e+03,0.000000e+00
3.490527e+03,0.000000e+00
3.491491e+03,0.000000e+00
3.492455e+03,0.000000e+00
3.493419e+03,0.000000e+00
3.494384e+03,0.000000e+00
3.495348e+03,0.000000e+00
3.496312e+03,0.000000e+00
3.497276e+03,0.000000e+00
3.498240e+03,0.000000e+00
3.499205e+03,0.000000e+00
3.500169e+03,0.000000e+00
