9.931763e+01,0.000000e+00
1.002819e+02,0.000000e+00
1.012461e+02,0.000000e+00
1.022103e+02,0.000000e+00
1.031746e+02,0.000000e+00
1.041388e+02,0.000000e+00
1.051030e+02,0.000000e+00
1.060673e+02,0.000000e+00
1.070315e+02,0.000000e+00
1.079957e+02,0.000000e+00
1.089600e+02,0.000000e+00
1.099242e+02,0.000000e+00
1.108884e+02,0.000000e+00
1.118527e+02,0.000000e+00
1.128169e+02,0.000000e+00
1.137811e+02,0.000000e+00
1.147454e+02,0.000000e+00
1.157096e+02,0.000000e+00
1.166738e+02,0.000000e+00
1.176381e+02,0.000000e+00
1.186023e+02,0.000000e+00
1.195665e+02,0.000000e+00
1.205308e+02,0.000000e+00
1.214950e+02,0.000000e+00
1.224592e+02,0.000000e+00
1.234235e+02,0.000000e+00
1.243877e+02,0.000000e+00
1.253519e+02,0.000000e+00
1.263162e+02,0.000000e+00
1.272804e+02,0.000000e+00
1.282446e+02,0.000000e+00
1.292089e+02,0.000000e+00
1.301731e+02,0.000000e+00
1.311373e+02,0.000000e+00
1.321016e+02,0.000000e+00
1.330658e+02,0.000000e+00
1.340300e+02,0.000000e+00
1.349943e+02,0.000000e+00
1.359585e+02,0.000000e+00
1.369227e+02,0.000000e+00
1.378870e+02,0.000000e+00
1.388512e+02,0.000000e+00
1.398154e+02,0.000000e+00
1.407797e+02,0.000000e+00
1.417439e+02,0.000000e+00
1.427081e+02,0.000000e+00
1.436724e+02,0.000000e+00
1.446366e+02,0.000000e+00
1.456008e+02,0.000000e+00
1.465651e+02,0.000000e+00
1.475293e+02,0.000000e+00
1.484935e+02,0.000000e+00
1.494578e+02,0.000000e+00
1.504220e+02,0.000000e+00
1.513862e+02,0.000000e+00
1.523505e+02,0.000000e+00
1.533147e+02,0.000000e+00
1.542789e+02,0.000000e+00
1.552432e+02,0.000000e+00
1.562074e+02,0.000000e+00
1.571716e+02,0.000000e+00
1.581359e+02,0.000000e+00
1.591001e+02,0.000000e+00
1.600643e+02,0.000000e+00
1.610286e+02,0.000000e+00
1.619928e+02,0.000000e+00
1.629570e+02,0.000000e+00
1.639213e+02,0.000000e+00
1.648855e+02,0.000000e+00
1.658497e+02,0.000000e+00
1.668140e+02,0.000000e+00
1.677782e+02,0.000000e+00
1.687424e+02,0.000000e+00
1.697067e+02,0.000000e+00
1.706709e+02,0.000000e+00
1.716351e+02,0.000000e+00
1.725994e+02,0.000000e+00
1.735636e+02,0.000000e+00
1.745278e+02,0.000000e+00
1.754921e+02,0.000000e+00
1.764563e+02,0.000000e+00
1.774205e+02,0.000000e+00
1.783848e+02,0.000000e+00
1.793490e+02,0.000000e+00
1.803132e+02,0.000000e+00
1.812775e+02,0.000000e+00
1.822417e+02,0.000000e+00
1.832059e+02,0.000000e+00
1.841702e+02,0.000000e+00
1.851344e+02,0.000000e+00
1.860986e+02,0.000000e+00
1.870629e+02,0.000000e+00
1.880271e+02,0.000000e+00
1.889913e+02,0.000000e+00
1.899556e+02,0.000000e+00
1.909198e+02,0.000000e+00
1.918840e+02,0.000000e+00
1.928483e+02,0.000000e+00
1.938125e+02,0.000000e+00
1.947767e+02,0.000000e+00
1.957410e+02,0.000000e+00
1.967052e+02,0.000000e+00
1.976694e+02,0.000000e+00
1.986337e+02,0.000000e+00
1.995979e+02,1.891684e+03
2.005621e+02,1.882191e+03
2.015264e+02,1.877313e+03
2.024906e+02,1.883186e+03
2.034548e+02,1.888672e+03
2.044191e+02,1.890911e+03
2.053833e+02,1.889645e+03
2.063475e+02,1.886309e+03
2.073118e+02,1.882246e+03
2.082760e+02,1.877232e+03
2.092402e+02,1.872262e+03
2.102045e+02,1.867832e+03
2.111687e+02,1.864494e+03
2.121329e+02,1.862578e+03
2.130972e+02,1.862065e+03
2.140614e+02,1.862059e+03
2.150256e+02,1.860961e+03
2.159899e+02,1.858047e+03
2.169541e+02,1.855547e+03
2.179183e+02,1.855298e+03
2.188826e+02,1.856493e+03
2.198468e+02,1.856844e+03
2.208110e+02,1.853856e+03
2.217753e+02,1.847427e+03
2.227395e+02,1.841690e+03
2.237037e+02,1.838558e+03
2.246680e+02,1.837055e+03
2.256322e+02,1.836019e+03
2.265964e+02,1.836545e+03
2.275607e+02,1.837270e+03
2.285249e+02,1.835798e+03
2.294892e+02,1.831518e+03
2.304534e+02,1.828314e+03
2.314176e+02,1.829401e+03
2.323819e+02,1.833373e+03
2.333461e+02,1.835399e+03
2.343103e+02,1.832237e+03
2.352746e+02,1.826820e+03
2.362388e+02,1.824814e+03
2.372030e+02,1.828333e+03
2.381673e+02,1.832960e+03
2.391315e+02,1.831497e+03
2.400957e+02,1.820436e+03
2.410600e+02,1.810185e+03
2.420242e+02,1.806271e+03
2.429884e+02,1.807717e+03
2.439527e+02,1.809545e+03
2.449169e+02,1.807510e+03
2.458811e+02,1.800519e+03
2.468454e+02,1.797555e+03
2.478096e+02,1.802715e+03
2.487738e+02,1.808991e+03
2.497381e+02,1.811248e+03
2.507023e+02,1.808579e+03
2.516665e+02,1.803645e+03
2.526308e+02,1.800543e+03
2.535950e+02,1.800613e+03
2.545592e+02,1.799417e+03
2.555235e+02,1.797467e+03
2.564877e+02,1.794578e+03
2.574519e+02,1.790493e+03
2.584161e+02,1.785064e+03
2.593804e+02,1.778752e+03
2.603446e+02,1.773800e+03
2.613088e+02,1.769886e+03
2.622731e+02,1.766732e+03
2.632373e+02,1.763662e+03
2.642015e+02,1.760585e+03
2.651658e+02,1.758733e+03
2.661300e+02,1.761256e+03
2.670942e+02,1.770153e+03
2.680585e+02,1.775522e+03
2.690227e+02,1.772577e+03
2.699869e+02,1.766753e+03
2.709512e+02,1.761731e+03
2.719154e+02,1.759904e+03
2.728796e+02,1.758776e+03
2.738439e+02,1.754137e+03
2.748081e+02,1.745297e+03
2.757723e+02,1.737261e+03
2.767366e+02,1.731068e+03
2.777008e+02,1.725934e+03
2.786650e+02,1.723326e+03
2.796293e+02,1.726119e+03
2.805935e+02,1.732111e+03
2.815577e+02,1.737539e+03
2.825220e+02,1.741939e+03
2.834862e+02,1.744245e+03
2.844504e+02,1.742232e+03
2.854147e+02,1.733290e+03
2.863789e+02,1.725529e+03
2.873431e+02,1.722362e+03
2.883074e+02,1.722698e+03
2.892716e+02,1.723774e+03
2.902358e+02,1.723950e+03
2.912001e+02,1.723003e+03
2.921643e+02,1.719926e+03
2.931285e+02,1.711867e+03
2.940928e+02,1.705125e+03
2.950570e+02,1.702880e+03
2.960212e+02,1.704609e+03
2.969855e+02,1.707371e+03
2.979497e+02,1.708364e+03
2.989139e+02,1.707719e+03
2.998782e+02,1.705819e+03
3.008424e+02,1.702548e+03
3.018066e+02,1.699257e+03
3.027709e+02,1.696268e+03
3.037351e+02,1.693343e+03
3.046993e+02,1.690611e+03
3.056636e+02,1.689073e+03
3.066278e+02,1.689909e+03
3.075920e+02,1.689984e+03
3.085563e+02,1.686950e+03
3.095205e+02,1.682382e+03
3.104847e+02,1.679131e+03
3.114490e+02,1.678424e+03
3.124132e+02,1.679151e+03
3.133774e+02,1.679806e+03
3.143417e+02,1.680427e+03
3.153059e+02,1.679908e+03
3.162701e+02,1.677388e+03
3.172344e+02,1.673479e+03
3.181986e+02,1.668325e+03
3.191628e+02,1.659686e+03
3.201271e+02,1.649993e+03
3.210913e+02,1.644191e+03
3.220555e+02,1.644932e+03
3.230198e+02,1.650906e+03
3.239840e+02,1.654097e+03
3.249482e+02,1.651614e+03
3.259125e+02,1.649208e+03
3.268767e+02,1.648995e+03
3.278409e+02,1.650554e+03
3.288052e+02,1.652260e+03
3.297694e+02,1.652947e+03
3.307336e+02,1.652727e+03
3.316979e+02,1.650594e+03
3.326621e+02,1.644053e+03
3.336263e+02,1.636891e+03
3.345906e+02,1.631109e+03
3.355548e+02,1.627633e+03
3.365190e+02,1.625762e+03
3.374833e+02,1.624465e+03
3.384475e+02,1.623584e+03
3.394117e+02,1.623434e+03
3.403760e+02,1.623683e+03
3.413402e+02,1.624346e+03
3.423044e+02,1.625631e+03
3.432687e+02,1.628497e+03
3.442329e+02,1.631302e+03
3.451971e+02,1.632408e+03
3.461614e+02,1.631339e+03
3.471256e+02,1.628216e+03
3.480898e+02,1.623275e+03
3.490541e+02,1.615865e+03
3.500183e+02,1.611085e+03
3.509825e+02,1.610844e+03
3.519468e+02,1.612888e+03
3.529110e+02,1.615868e+03
3.538752e+02,1.619022e+03
3.548395e+02,1.620998e+03
3.558037e+02,1.619680e+03
3.567680e+02,1.612860e+03
3.577322e+02,1.606308e+03
3.586964e+02,1.600246e+03
3.596607e+02,1.595586e+03
3.606249e+02,1.593026e+03
3.615891e+02,1.592865e+03
3.625534e+02,1.593657e+03
3.635176e+02,1.593518e+03
3.644818e+02,1.593385e+03
3.654461e+02,1.591796e+03
3.664103e+02,1.586875e+03
3.673745e+02,1.580113e+03
3.683388e+02,1.576272e+03
3.693030e+02,1.578519e+03
3.702672e+02,1.583100e+03
3.712315e+02,1.584309e+03
3.721957e+02,1.580525e+03
3.731599e+02,1.574572e+03
3.741242e+02,1.571362e+03
3.750884e+02,1.575942e+03
3.760526e+02,1.578492e+03
3.770169e+02,1.576115e+03
3.779811e+02,1.571601e+03
3.789453e+02,1.568633e+03
3.799096e+02,1.569189e+03
3.808738e+02,1.571619e+03
3.818380e+02,1.569886e+03
3.828023e+02,1.560803e+03
3.837665e+02,1.553130e+03
3.847307e+02,1.549178e+03
3.856950e+02,1.548228e+03
3.866592e+02,1.548487e+03
3.876234e+02,1.549229e+03
3.885877e+02,1.550318e+03
3.895519e+02,1.551839e+03
3.905161e+02,1.554318e+03
3.914804e+02,1.555710e+03
3.924446e+02,1.553346e+03
3.934088e+02,1.546822e+03
3.943731e+02,1.540784e+03
3.953373e+02,1.535878e+03
3.963015e+02,1.532178e+03
3.972658e+02,1.530090e+03
3.982300e+02,1.530058e+03
3.991942e+02,1.531857e+03
4.001585e+02,1.533662e+03
4.011227e+02,1.536597e+03
4.020869e+02,1.536909e+03
4.030512e+02,1.530410e+03
4.040154e+02,1.520907e+03
4.049796e+02,1.514709e+03
4.059439e+02,1.517086e+03
4.069081e+02,1.525300e+03
4.078723e+02,1.529145e+03
4.088366e+02,1.526495e+03
4.098008e+02,1.521952e+03
4.107650e+02,1.519223e+03
4.117293e+02,1.518301e+03
4.126935e+02,1.517376e+03
4.136577e+02,1.516052e+03
4.146220e+02,1.514244e+03
4.155862e+02,1.511382e+03
4.165504e+02,1.507215e+03
4.175147e+02,1.503266e+03
4.184789e+02,1.501890e+03
4.194431e+02,1.506346e+03
4.204074e+02,1.509437e+03
4.213716e+02,1.510250e+03
4.223358e+02,1.509918e+03
4.233001e+02,1.509971e+03
4.242643e+02,1.511545e+03
4.252285e+02,1.513229e+03
4.261928e+02,1.510910e+03
4.271570e+02,1.502697e+03
4.281212e+02,1.495071e+03
4.290855e+02,1.490059e+03
4.300497e+02,1.487215e+03
4.310139e+02,1.486198e+03
4.319782e+02,1.490033e+03
4.329424e+02,1.494575e+03
4.339066e+02,1.493891e+03
4.348709e+02,1.487292e+03
4.358351e+02,1.479486e+03
4.367993e+02,1.475220e+03
4.377636e+02,1.476861e+03
4.387278e+02,1.476215e+03
4.396920e+02,1.470418e+03
4.406563e+02,1.464656e+03
4.416205e+02,1.462955e+03
4.425847e+02,1.466181e+03
4.435490e+02,1.471036e+03
4.445132e+02,1.472880e+03
4.454774e+02,1.471079e+03
4.464417e+02,1.470500e+03
4.474059e+02,1.474002e+03
4.483701e+02,1.478186e+03
4.493344e+02,1.479047e+03
4.502986e+02,1.474034e+03
4.512628e+02,1.468021e+03
4.522271e+02,1.463827e+03
4.531913e+02,1.461356e+03
4.541555e+02,1.460191e+03
4.551198e+02,1.460226e+03
4.560840e+02,1.461538e+03
4.570482e+02,1.462104e+03
4.580125e+02,1.462631e+03
4.589767e+02,1.463048e+03
4.599409e+02,1.463208e+03
4.609052e+02,1.462486e+03
4.618694e+02,1.460139e+03
4.628336e+02,1.454032e+03
4.637979e+02,1.445010e+03
4.647621e+02,1.440960e+03
4.657263e+02,1.445959e+03
4.666906e+02,1.452684e+03
4.676548e+02,1.452167e+03
4.686190e+02,1.441452e+03
4.695833e+02,1.433384e+03
4.705475e+02,1.433796e+03
4.715117e+02,1.438628e+03
4.724760e+02,1.442498e+03
4.734402e+02,1.443764e+03
4.744044e+02,1.443064e+03
4.753687e+02,1.441380e+03
4.763329e+02,1.436295e+03
4.772971e+02,1.434195e+03
4.782614e+02,1.438839e+03
4.792256e+02,1.446010e+03
4.801898e+02,1.450259e+03
4.811541e+02,1.448039e+03
4.821183e+02,1.442486e+03
4.830826e+02,1.437904e+03
4.840468e+02,1.434247e+03
4.850110e+02,1.430212e+03
4.859753e+02,1.424975e+03
4.869395e+02,1.418334e+03
4.879037e+02,1.412964e+03
4.888680e+02,1.408172e+03
4.898322e+02,1.405398e+03
4.907964e+02,1.406878e+03
4.917607e+02,1.411927e+03
4.927249e+02,1.416913e+03
4.936891e+02,1.417512e+03
4.946534e+02,1.413273e+03
4.956176e+02,1.411780e+03
4.965818e+02,1.415908e+03
4.975461e+02,1.420581e+03
4.985103e+02,1.421362e+03
4.994745e+02,1.417225e+03
5.004388e+02,1.411943e+03
5.014030e+02,1.406832e+03
5.023672e+02,1.402149e+03
5.033315e+02,1.397599e+03
5.042957e+02,1.392835e+03
5.052599e+02,1.388923e+03
5.062242e+02,1.389095e+03
5.071884e+02,1.399512e+03
5.081526e+02,1.405106e+03
5.091169e+02,1.401562e+03
5.100811e+02,1.393984e+03
5.110453e+02,1.387825e+03
5.120095e+02,1.385493e+03
5.129738e+02,1.385405e+03
5.139380e+02,1.386102e+03
5.149022e+02,1.387609e+03
5.158665e+02,1.388585e+03
5.168307e+02,1.387744e+03
5.177949e+02,1.384447e+03
5.187592e+02,1.380879e+03
5.197234e+02,1.379315e+03
5.206876e+02,1.377487e+03
5.216519e+02,1.373037e+03
5.226161e+02,1.367256e+03
5.235803e+02,1.363689e+03
5.245446e+02,1.367278e+03
5.255088e+02,1.376507e+03
5.264730e+02,1.380210e+03
5.274373e+02,1.376296e+03
5.284015e+02,1.370091e+03
5.293657e+02,1.365727e+03
5.303300e+02,1.363430e+03
5.312942e+02,1.360909e+03
5.322584e+02,1.358037e+03
5.332227e+02,1.355562e+03
5.341869e+02,1.353815e+03
5.351511e+02,1.352623e+03
5.361154e+02,1.351708e+03
5.370796e+02,1.350721e+03
5.380438e+02,1.349458e+03
5.390081e+02,1.349871e+03
5.399723e+02,1.354664e+03
5.409365e+02,1.360049e+03
5.419008e+02,1.362018e+03
5.428650e+02,1.358588e+03
5.438292e+02,1.353830e+03
5.447935e+02,1.348319e+03
5.457577e+02,1.343161e+03
5.467219e+02,1.341337e+03
5.476862e+02,1.344579e+03
5.486504e+02,1.350616e+03
5.496146e+02,1.352664e+03
5.505789e+02,1.348400e+03
5.515431e+02,1.343443e+03
5.525073e+02,1.339081e+03
5.534716e+02,1.335702e+03
5.544358e+02,1.333160e+03
5.554000e+02,1.330031e+03
5.563643e+02,1.327845e+03
5.573285e+02,1.329449e+03
5.582927e+02,1.334077e+03
5.592570e+02,1.337190e+03
5.602212e+02,1.335722e+03
5.611854e+02,1.329624e+03
5.621497e+02,1.325966e+03
5.631139e+02,1.327004e+03
5.640781e+02,1.327834e+03
5.650424e+02,1.327636e+03
5.660066e+02,1.326543e+03
5.669708e+02,1.324989e+03
5.679351e+02,1.323277e+03
5.688993e+02,1.321511e+03
5.698635e+02,1.319539e+03
5.708278e+02,1.317417e+03
5.717920e+02,1.316043e+03
5.727562e+02,1.315956e+03
5.737205e+02,1.317176e+03
5.746847e+02,1.318543e+03
5.756489e+02,1.320889e+03
5.766132e+02,1.322393e+03
5.775774e+02,1.321714e+03
5.785416e+02,1.318864e+03
5.795059e+02,1.316000e+03
5.804701e+02,1.315625e+03
5.814343e+02,1.316677e+03
5.823986e+02,1.315216e+03
5.833628e+02,1.309997e+03
5.843270e+02,1.304145e+03
5.852913e+02,1.301846e+03
5.862555e+02,1.306820e+03
5.872197e+02,1.309828e+03
5.881840e+02,1.309386e+03
5.891482e+02,1.307662e+03
5.901124e+02,1.306465e+03
5.910767e+02,1.306361e+03
5.920409e+02,1.306471e+03
5.930051e+02,1.305817e+03
5.939694e+02,1.304395e+03
5.949336e+02,1.302787e+03
5.958978e+02,1.301202e+03
5.968621e+02,1.299557e+03
5.978263e+02,1.297738e+03
5.987905e+02,1.296170e+03
5.997548e+02,1.294302e+03
6.007190e+02,1.290872e+03
6.016832e+02,1.287806e+03
6.026475e+02,1.287298e+03
6.036117e+02,1.290781e+03
6.045759e+02,1.295379e+03
6.055402e+02,1.297877e+03
6.065044e+02,1.298237e+03
6.074686e+02,1.297720e+03
6.084329e+02,1.297297e+03
6.093971e+02,1.296727e+03
6.103613e+02,1.294161e+03
6.113256e+02,1.285475e+03
6.122899e+02,1.279382e+03
6.132541e+02,1.279036e+03
6.142183e+02,1.282046e+03
6.151826e+02,1.284433e+03
6.161468e+02,1.285471e+03
6.171110e+02,1.284882e+03
6.180753e+02,1.280545e+03
6.190395e+02,1.272859e+03
6.200037e+02,1.266798e+03
6.209680e+02,1.265621e+03
6.219322e+02,1.269224e+03
6.228964e+02,1.271842e+03
6.238607e+02,1.271882e+03
6.248249e+02,1.272388e+03
6.257891e+02,1.274575e+03
6.267534e+02,1.277490e+03
6.277176e+02,1.279140e+03
6.286818e+02,1.279418e+03
6.296461e+02,1.278326e+03
6.306103e+02,1.274955e+03
6.315745e+02,1.269654e+03
6.325388e+02,1.264611e+03
6.335030e+02,1.261235e+03
6.344672e+02,1.259355e+03
6.354315e+02,1.258238e+03
6.363957e+02,1.258381e+03
6.373599e+02,1.258098e+03
6.383242e+02,1.256686e+03
6.392884e+02,1.254436e+03
6.402526e+02,1.252553e+03
6.412169e+02,1.251469e+03
6.421811e+02,1.250786e+03
6.431453e+02,1.250590e+03
6.441096e+02,1.250663e+03
6.450738e+02,1.250028e+03
6.460380e+02,1.247332e+03
6.470023e+02,1.242751e+03
6.479665e+02,1.240586e+03
6.489307e+02,1.241388e+03
6.498950e+02,1.243157e+03
6.508592e+02,1.244498e+03
6.518234e+02,1.245316e+03
6.527877e+02,1.245312e+03
6.537519e+02,1.244746e+03
6.547161e+02,1.243321e+03
6.556804e+02,1.240012e+03
6.566446e+02,1.235174e+03
6.576088e+02,1.231180e+03
6.585731e+02,1.231160e+03
6.595373e+02,1.234264e+03
6.605015e+02,1.235110e+03
6.614658e+02,1.232599e+03
6.624300e+02,1.229570e+03
6.633942e+02,1.228965e+03
6.643585e+02,1.232368e+03
6.653227e+02,1.233928e+03
6.662869e+02,1.230868e+03
6.672512e+02,1.227737e+03
6.682154e+02,1.227772e+03
6.691796e+02,1.231207e+03
6.701439e+02,1.234967e+03
6.711081e+02,1.236807e+03
6.720723e+02,1.237488e+03
6.730366e+02,1.238393e+03
6.740008e+02,1.239835e+03
6.749650e+02,1.242350e+03
6.759293e+02,1.247568e+03
6.768935e+02,1.258634e+03
6.778577e+02,1.263598e+03
6.788220e+02,1.259410e+03
6.797862e+02,1.251885e+03
6.807504e+02,1.243567e+03
6.817147e+02,1.233793e+03
6.826789e+02,1.225629e+03
6.836431e+02,1.220113e+03
6.846074e+02,1.216373e+03
6.855716e+02,1.214699e+03
6.865358e+02,1.215145e+03
6.875001e+02,1.215301e+03
6.884643e+02,1.210832e+03
6.894285e+02,1.201867e+03
6.903928e+02,1.197800e+03
6.913570e+02,1.201065e+03
6.923212e+02,1.206936e+03
6.932855e+02,1.210596e+03
6.942497e+02,1.211551e+03
6.952139e+02,1.212206e+03
6.961782e+02,1.212066e+03
6.971424e+02,1.211688e+03
6.981066e+02,1.211458e+03
6.990709e+02,1.210992e+03
7.000351e+02,1.209251e+03
7.009993e+02,1.204795e+03
7.019636e+02,1.199490e+03
7.029278e+02,1.197339e+03
7.038920e+02,1.199091e+03
7.048563e+02,1.201393e+03
7.058205e+02,1.199842e+03
7.067847e+02,1.192881e+03
7.077490e+02,1.189225e+03
7.087132e+02,1.191953e+03
7.096774e+02,1.196775e+03
7.106417e+02,1.199457e+03
7.116059e+02,1.199486e+03
7.125701e+02,1.198361e+03
7.135344e+02,1.195953e+03
7.144986e+02,1.193301e+03
7.154628e+02,1.190851e+03
7.164271e+02,1.188627e+03
7.173913e+02,1.187051e+03
7.183555e+02,1.186906e+03
7.193198e+02,1.187858e+03
7.202840e+02,1.188638e+03
7.212482e+02,1.189388e+03
7.222125e+02,1.189681e+03
7.231767e+02,1.188788e+03
7.241409e+02,1.185848e+03
7.251052e+02,1.183140e+03
7.260694e+02,1.179314e+03
7.270336e+02,1.176658e+03
7.279979e+02,1.177584e+03
7.289621e+02,1.182374e+03
7.299263e+02,1.185975e+03
7.308906e+02,1.184611e+03
7.318548e+02,1.181650e+03
7.328190e+02,1.181510e+03
7.337833e+02,1.184398e+03
7.347475e+02,1.186816e+03
7.357117e+02,1.184637e+03
7.366760e+02,1.178643e+03
7.376402e+02,1.175073e+03
7.386044e+02,1.174358e+03
7.395687e+02,1.175810e+03
7.405329e+02,1.178844e+03
7.414971e+02,1.183719e+03
7.424614e+02,1.188799e+03
7.434256e+02,1.197621e+03
7.443898e+02,1.204763e+03
7.453541e+02,1.207118e+03
7.463183e+02,1.204083e+03
7.472825e+02,1.197676e+03
7.482468e+02,1.185850e+03
7.492110e+02,1.173081e+03
7.501752e+02,1.164671e+03
7.511395e+02,1.161022e+03
7.521037e+02,1.159480e+03
7.530679e+02,1.157633e+03
7.540322e+02,1.155321e+03
7.549964e+02,1.153694e+03
7.559606e+02,1.153153e+03
7.569249e+02,1.152858e+03
7.578891e+02,1.152242e+03
7.588533e+02,1.151382e+03
7.598176e+02,1.151314e+03
7.607818e+02,1.151371e+03
7.617460e+02,1.150979e+03
7.627103e+02,1.150909e+03
7.636745e+02,1.151179e+03
7.646387e+02,1.150466e+03
7.656030e+02,1.145879e+03
7.665672e+02,1.141814e+03
7.675314e+02,1.142393e+03
7.684957e+02,1.145854e+03
7.694599e+02,1.148164e+03
7.704241e+02,1.147276e+03
7.713884e+02,1.144642e+03
7.723526e+02,1.143291e+03
7.733168e+02,1.143566e+03
7.742811e+02,1.144612e+03
7.752453e+02,1.145574e+03
7.762095e+02,1.146065e+03
7.771738e+02,1.146125e+03
7.781380e+02,1.145034e+03
7.791022e+02,1.143492e+03
7.800665e+02,1.142311e+03
7.810307e+02,1.141194e+03
7.819949e+02,1.139506e+03
7.829592e+02,1.135904e+03
7.839234e+02,1.133680e+03
7.848876e+02,1.135702e+03
7.858519e+02,1.139553e+03
7.868161e+02,1.141295e+03
7.877803e+02,1.138941e+03
7.887446e+02,1.134832e+03
7.897088e+02,1.132539e+03
7.906730e+02,1.132206e+03
7.916373e+02,1.132102e+03
7.926015e+02,1.131190e+03
7.935657e+02,1.129032e+03
7.945300e+02,1.125759e+03
7.954942e+02,1.120481e+03
7.964584e+02,1.117783e+03
7.974227e+02,1.121421e+03
7.983869e+02,1.127763e+03
7.993511e+02,1.131105e+03
8.003154e+02,1.129177e+03
8.012796e+02,1.126411e+03
8.022438e+02,1.122683e+03
8.032081e+02,1.119844e+03
8.041723e+02,1.120020e+03
8.051365e+02,1.123637e+03
8.061008e+02,1.126857e+03
8.070650e+02,1.127029e+03
8.080292e+02,1.124460e+03
8.089935e+02,1.119053e+03
8.099577e+02,1.111282e+03
8.109219e+02,1.104620e+03
8.118862e+02,1.103260e+03
8.128504e+02,1.107008e+03
8.138146e+02,1.109852e+03
8.147789e+02,1.111148e+03
8.157431e+02,1.111982e+03
8.167073e+02,1.113732e+03
8.176716e+02,1.117476e+03
8.186358e+02,1.119395e+03
8.196000e+02,1.118113e+03
8.205643e+02,1.116082e+03
8.215285e+02,1.113581e+03
8.224927e+02,1.110625e+03
8.234570e+02,1.107588e+03
8.244212e+02,1.103271e+03
8.253854e+02,1.100100e+03
8.263497e+02,1.099660e+03
8.273139e+02,1.101201e+03
8.282781e+02,1.103281e+03
8.292424e+02,1.107097e+03
8.302066e+02,1.110647e+03
8.311708e+02,1.109514e+03
8.321351e+02,1.104614e+03
8.330993e+02,1.100677e+03
8.340635e+02,1.100013e+03
8.350278e+02,1.101575e+03
8.359920e+02,1.103033e+03
8.369562e+02,1.104767e+03
8.379205e+02,1.104352e+03
8.388847e+02,1.099946e+03
8.398489e+02,1.093582e+03
8.408132e+02,1.090309e+03
8.417774e+02,1.092870e+03
8.427416e+02,1.094258e+03
8.437059e+02,1.092895e+03
8.446701e+02,1.090535e+03
8.456343e+02,1.089068e+03
8.465986e+02,1.088736e+03
8.475628e+02,1.089042e+03
8.485270e+02,1.090708e+03
8.494913e+02,1.092430e+03
8.504555e+02,1.092723e+03
8.514197e+02,1.091326e+03
8.523840e+02,1.090191e+03
8.533482e+02,1.092112e+03
8.543124e+02,1.094750e+03
8.552767e+02,1.092877e+03
8.562409e+02,1.085892e+03
8.572051e+02,1.078682e+03
8.581694e+02,1.077395e+03
8.591336e+02,1.081531e+03
8.600978e+02,1.083010e+03
8.610621e+02,1.081300e+03
8.620263e+02,1.079162e+03
8.629905e+02,1.078336e+03
8.639548e+02,1.078523e+03
8.649190e+02,1.077863e+03
8.658832e+02,1.075455e+03
8.668475e+02,1.074456e+03
8.678117e+02,1.077922e+03
8.687759e+02,1.084476e+03
8.697402e+02,1.087360e+03
8.707044e+02,1.082656e+03
8.716686e+02,1.076833e+03
8.726329e+02,1.071238e+03
8.735971e+02,1.067056e+03
8.745613e+02,1.065857e+03
8.755256e+02,1.071696e+03
8.764898e+02,1.077373e+03
8.774540e+02,1.076407e+03
8.784183e+02,1.071855e+03
8.793825e+02,1.069539e+03
8.803467e+02,1.072073e+03
8.813110e+02,1.075393e+03
8.822752e+02,1.073722e+03
8.832394e+02,1.068791e+03
8.842037e+02,1.066170e+03
8.851679e+02,1.067017e+03
8.861321e+02,1.069111e+03
8.870964e+02,1.069793e+03
8.880606e+02,1.068932e+03
8.890248e+02,1.067746e+03
8.899891e+02,1.067066e+03
8.909533e+02,1.065654e+03
8.919175e+02,1.061321e+03
8.928818e+02,1.052157e+03
8.938460e+02,1.048922e+03
8.948102e+02,1.057539e+03
8.957745e+02,1.065152e+03
8.967387e+02,1.062911e+03
8.977029e+02,1.051168e+03
8.986672e+02,1.043620e+03
8.996314e+02,1.045299e+03
9.005956e+02,1.048471e+03
9.015599e+02,1.050313e+03
9.025241e+02,1.050744e+03
9.034883e+02,1.050513e+03
9.044526e+02,1.049472e+03
9.054168e+02,1.047729e+03
9.063810e+02,1.045508e+03
9.073453e+02,1.043791e+03
9.083095e+02,1.043613e+03
9.092737e+02,1.045688e+03
9.102380e+02,1.047385e+03
9.112022e+02,1.044733e+03
9.121664e+02,1.039512e+03
9.131307e+02,1.037065e+03
9.140949e+02,1.039461e+03
9.150591e+02,1.043063e+03
9.160234e+02,1.041206e+03
9.169876e+02,1.034194e+03
9.179518e+02,1.029451e+03
9.189161e+02,1.028205e+03
9.198803e+02,1.028526e+03
9.208445e+02,1.028871e+03
9.218088e+02,1.029579e+03
9.227730e+02,1.030492e+03
9.237372e+02,1.031586e+03
9.247015e+02,1.032193e+03
9.256657e+02,1.031722e+03
9.266299e+02,1.030029e+03
9.275942e+02,1.029260e+03
9.285584e+02,1.031395e+03
9.295226e+02,1.031611e+03
9.304869e+02,1.025599e+03
9.314511e+02,1.016294e+03
9.324153e+02,1.012760e+03
9.333796e+02,1.022902e+03
9.343438e+02,1.030520e+03
9.353080e+02,1.029399e+03
9.362723e+02,1.023162e+03
9.372365e+02,1.017351e+03
9.382007e+02,1.013487e+03
9.391650e+02,1.011643e+03
9.401292e+02,1.012949e+03
9.410934e+02,1.015592e+03
9.420577e+02,1.017439e+03
9.430219e+02,1.017867e+03
9.439861e+02,1.017243e+03
9.449504e+02,1.014908e+03
9.459146e+02,1.012938e+03
9.468788e+02,1.014141e+03
9.478431e+02,1.017994e+03
9.488073e+02,1.021405e+03
9.497715e+02,1.022284e+03
9.507358e+02,1.021477e+03
9.517000e+02,1.020645e+03
9.526642e+02,1.020088e+03
9.536285e+02,1.019079e+03
9.545927e+02,1.016954e+03
9.555569e+02,1.013826e+03
9.565212e+02,1.009763e+03
9.574854e+02,1.005052e+03
9.584496e+02,1.001512e+03
9.594139e+02,9.995529e+02
9.603781e+02,9.983942e+02
9.613423e+02,9.965746e+02
9.623066e+02,9.936685e+02
9.632708e+02,9.926910e+02
9.642350e+02,9.954266e+02
9.651993e+02,9.992111e+02
9.661635e+02,9.997286e+02
9.671277e+02,9.944099e+02
9.680920e+02,9.912591e+02
9.690562e+02,9.916533e+02
9.700204e+02,9.926851e+02
9.709847e+02,9.924011e+02
9.719489e+02,9.906752e+02
9.729131e+02,9.899322e+02
9.738774e+02,9.900848e+02
9.748416e+02,9.917527e+02
9.758058e+02,9.964357e+02
9.767701e+02,1.002815e+03
9.777343e+02,1.005551e+03
9.786985e+02,1.000625e+03
9.796628e+02,9.952608e+02
9.806270e+02,9.922560e+02
9.815912e+02,9.905563e+02
9.825555e+02,9.882543e+02
9.835197e+02,9.837902e+02
9.844839e+02,9.809924e+02
9.854482e+02,9.838420e+02
9.864124e+02,9.881895e+02
9.873766e+02,9.885018e+02
9.883409e+02,9.829850e+02
9.893051e+02,9.777816e+02
9.902693e+02,9.764128e+02
9.912336e+02,9.775255e+02
9.921978e+02,9.801114e+02
9.931620e+02,9.834315e+02
9.941263e+02,9.857776e+02
9.950905e+02,9.858167e+02
9.960547e+02,9.845509e+02
9.970190e+02,9.830956e+02
9.979832e+02,9.813290e+02
9.989474e+02,9.788734e+02
9.999117e+02,9.753933e+02
1.000876e+03,9.720311e+02
1.001840e+03,9.703572e+02
1.002804e+03,9.703588e+02
1.003769e+03,9.715226e+02
1.004733e+03,9.735982e+02
1.005697e+03,9.753653e+02
1.006661e+03,9.752275e+02
1.007626e+03,9.734512e+02
1.008590e+03,9.705814e+02
1.009554e+03,9.664394e+02
1.010518e+03,9.620032e+02
1.011482e+03,9.582125e+02
1.012447e+03,9.551804e+02
1.013411e+03,9.545141e+02
1.014375e+03,9.569113e+02
1.015339e+03,9.594387e+02
1.016304e+03,9.596028e+02
1.017268e+03,9.578084e+02
1.018232e+03,9.567552e+02
1.019196e+03,9.562561e+02
1.020161e+03,9.572476e+02
1.021125e+03,9.610027e+02
1.022089e+03,9.659484e+02
1.023053e+03,9.667844e+02
1.024018e+03,9.622398e+02
1.024982e+03,9.578231e+02
1.025946e+03,9.538861e+02
1.026910e+03,9.509816e+02
1.027875e+03,9.509219e+02
1.028839e+03,9.556682e+02
1.029803e+03,9.577028e+02
1.030767e+03,9.557079e+02
1.031731e+03,9.533172e+02
1.032696e+03,9.531334e+02
1.033660e+03,9.552195e+02
1.034624e+03,9.554890e+02
1.035588e+03,9.529947e+02
1.036552e+03,9.510500e+02
1.037517e+03,9.510036e+02
1.038481e+03,9.520223e+02
1.039445e+03,9.519498e+02
1.040409e+03,9.500967e+02
1.041374e+03,9.483558e+02
1.042338e+03,9.469305e+02
1.043302e+03,9.462465e+02
1.044266e+03,9.467156e+02
1.045231e+03,9.496428e+02
1.046195e+03,9.510779e+02
1.047159e+03,9.501485e+02
1.048123e+03,9.488646e+02
1.049088e+03,9.483349e+02
1.050052e+03,9.488181e+02
1.051016e+03,9.504726e+02
1.051980e+03,9.533547e+02
1.052945e+03,9.571362e+02
1.053909e+03,9.612479e+02
1.054873e+03,9.654326e+02
1.055837e+03,9.704021e+02
1.056802e+03,9.796760e+02
1.057766e+03,9.861576e+02
1.058730e+03,9.877757e+02
1.059694e+03,9.864808e+02
1.060658e+03,9.845402e+02
1.061623e+03,9.829603e+02
1.062587e+03,9.797240e+02
1.063551e+03,9.719070e+02
1.064515e+03,9.645490e+02
1.065479e+03,9.622680e+02
1.066444e+03,9.660609e+02
1.067408e+03,9.657779e+02
1.068372e+03,9.550217e+02
1.069336e+03,9.447584e+02
1.070301e+03,9.388807e+02
1.071265e+03,9.368541e+02
1.072229e+03,9.370948e+02
1.073193e+03,9.430839e+02
1.074158e+03,9.467545e+02
1.075122e+03,9.450032e+02
1.076086e+03,9.402990e+02
1.077050e+03,9.355540e+02
1.078015e+03,9.309636e+02
1.078979e+03,9.284190e+02
1.079943e+03,9.289598e+02
1.080907e+03,9.308414e+02
1.081872e+03,9.328952e+02
1.082836e+03,9.347500e+02
1.083800e+03,9.360372e+02
1.084764e+03,9.374933e+02
1.085729e+03,9.380401e+02
1.086693e+03,9.364167e+02
1.087657e+03,9.333185e+02
1.088621e+03,9.307887e+02
1.089585e+03,9.285753e+02
1.090550e+03,9.273420e+02
1.091514e+03,9.290762e+02
1.092478e+03,9.316516e+02
1.093442e+03,9.325240e+02
1.094406e+03,9.309689e+02
1.095371e+03,9.291859e+02
1.096335e+03,9.276337e+02
1.097299e+03,9.255985e+02
1.098263e+03,9.219288e+02
1.099228e+03,9.166937e+02
1.100192e+03,9.133411e+02
1.101156e+03,9.131086e+02
1.102120e+03,9.140142e+02
1.103085e+03,9.159054e+02
1.104049e+03,9.184184e+02
1.105013e+03,9.208676e+02
1.105977e+03,9.249537e+02
1.106942e+03,9.267961e+02
1.107906e+03,9.240325e+02
1.108870e+03,9.199977e+02
1.109834e+03,9.178713e+02
1.110799e+03,9.186557e+02
1.111763e+03,9.182867e+02
1.112727e+03,9.155165e+02
1.113691e+03,9.125509e+02
1.114656e+03,9.091227e+02
1.115620e+03,9.057863e+02
1.116584e+03,9.063563e+02
1.117548e+03,9.140520e+02
1.118512e+03,9.213597e+02
1.119477e+03,9.268104e+02
1.120441e+03,9.308845e+02
1.121405e+03,9.344241e+02
1.122369e+03,9.370409e+02
1.123334e+03,9.398395e+02
1.124298e+03,9.452383e+02
1.125262e+03,9.490224e+02
1.126226e+03,9.473802e+02
1.127191e+03,9.394600e+02
1.128155e+03,9.346885e+02
1.129119e+03,9.360320e+02
1.130083e+03,9.359130e+02
1.131047e+03,9.301070e+02
1.132012e+03,9.206779e+02
1.132976e+03,9.152423e+02
1.133940e+03,9.159290e+02
1.134904e+03,9.163548e+02
1.135869e+03,9.162498e+02
1.136833e+03,9.153991e+02
1.137797e+03,9.130063e+02
1.138761e+03,9.079431e+02
1.139726e+03,9.074238e+02
1.140690e+03,9.141083e+02
1.141654e+03,9.193360e+02
1.142618e+03,9.171979e+02
1.143583e+03,9.089437e+02
1.144547e+03,9.043124e+02
1.145511e+03,9.044579e+02
1.146475e+03,9.036198e+02
1.147439e+03,8.998093e+02
1.148404e+03,8.947152e+02
1.149368e+03,8.908242e+02
1.150332e+03,8.880300e+02
1.151296e+03,8.865601e+02
1.152261e+03,8.861912e+02
1.153225e+03,8.859072e+02
1.154189e+03,8.856044e+02
1.155153e+03,8.855742e+02
1.156118e+03,8.852086e+02
1.157082e+03,8.847868e+02
1.158046e+03,8.844844e+02
1.159010e+03,8.839510e+02
1.159974e+03,8.834977e+02
1.160939e+03,8.840748e+02
1.161903e+03,8.853047e+02
1.162867e+03,8.856456e+02
1.163831e+03,8.846715e+02
1.164796e+03,8.838840e+02
1.165760e+03,8.861616e+02
1.166724e+03,8.900350e+02
1.167688e+03,8.912086e+02
1.168653e+03,8.896936e+02
1.169617e+03,8.868207e+02
1.170581e+03,8.829124e+02
1.171545e+03,8.789756e+02
1.172510e+03,8.758226e+02
1.173474e+03,8.738807e+02
1.174438e+03,8.744716e+02
1.175402e+03,8.781884e+02
1.176366e+03,8.815920e+02
1.177331e+03,8.817695e+02
1.178295e+03,8.799962e+02
1.179259e+03,8.765453e+02
1.180223e+03,8.719468e+02
1.181188e+03,8.692503e+02
1.182152e+03,8.727537e+02
1.183116e+03,8.764057e+02
1.184080e+03,8.754550e+02
1.185045e+03,8.721000e+02
1.186009e+03,8.701176e+02
1.186973e+03,8.715917e+02
1.187937e+03,8.731395e+02
1.188901e+03,8.730183e+02
1.189866e+03,8.724719e+02
1.190830e+03,8.723337e+02
1.191794e+03,8.725295e+02
1.192758e+03,8.727816e+02
1.193723e+03,8.740605e+02
1.194687e+03,8.749918e+02
1.195651e+03,8.747963e+02
1.196615e+03,8.736550e+02
1.197580e+03,8.720680e+02
1.198544e+03,8.681541e+02
1.199508e+03,8.655416e+02
1.200472e+03,8.658955e+02
1.201437e+03,8.670483e+02
1.202401e+03,8.676019e+02
1.203365e+03,8.679957e+02
1.204329e+03,8.655272e+02
1.205293e+03,8.577539e+02
1.206258e+03,8.530762e+02
1.207222e+03,8.559238e+02
1.208186e+03,8.635641e+02
1.209150e+03,8.679939e+02
1.210115e+03,8.686996e+02
1.211079e+03,8.686459e+02
1.212043e+03,8.684314e+02
1.213007e+03,8.677239e+02
1.213972e+03,8.665285e+02
1.214936e+03,8.649979e+02
1.215900e+03,8.621476e+02
1.216864e+03,8.581227e+02
1.217828e+03,8.549368e+02
1.218793e+03,8.541589e+02
1.219757e+03,8.543385e+02
1.220721e+03,8.524722e+02
1.221685e+03,8.496174e+02
1.222650e+03,8.481824e+02
1.223614e+03,8.485313e+02
1.224578e+03,8.498100e+02
1.225542e+03,8.531025e+02
1.226507e+03,8.563214e+02
1.227471e+03,8.565816e+02
1.228435e+03,8.539733e+02
1.229399e+03,8.505040e+02
1.230364e+03,8.466825e+02
1.231328e+03,8.432402e+02
1.232292e+03,8.399991e+02
1.233256e+03,8.382504e+02
1.234220e+03,8.398184e+02
1.235185e+03,8.470777e+02
1.236149e+03,8.516543e+02
1.237113e+03,8.498363e+02
1.238077e+03,8.468787e+02
1.239042e+03,8.448127e+02
1.240006e+03,8.433477e+02
1.240970e+03,8.425936e+02
1.241934e+03,8.431690e+02
1.242899e+03,8.433587e+02
1.243863e+03,8.433771e+02
1.244827e+03,8.427063e+02
1.245791e+03,8.402131e+02
1.246755e+03,8.353724e+02
1.247720e+03,8.315547e+02
1.248684e+03,8.287418e+02
1.249648e+03,8.280219e+02
1.250612e+03,8.307361e+02
1.251577e+03,8.352851e+02
1.252541e+03,8.361131e+02
1.253505e+03,8.336897e+02
1.254469e+03,8.326845e+02
1.255434e+03,8.347623e+02
1.256398e+03,8.373671e+02
1.257362e+03,8.366776e+02
1.258326e+03,8.343004e+02
1.259291e+03,8.341148e+02
1.260255e+03,8.356754e+02
1.261219e+03,8.355369e+02
1.262183e+03,8.294388e+02
1.263147e+03,8.239596e+02
1.264112e+03,8.253875e+02
1.265076e+03,8.299966e+02
1.266040e+03,8.319523e+02
1.267004e+03,8.289860e+02
1.267969e+03,8.266788e+02
1.268933e+03,8.280226e+02
1.269897e+03,8.301226e+02
1.270861e+03,8.305546e+02
1.271826e+03,8.288275e+02
1.272790e+03,8.270652e+02
1.273754e+03,8.243961e+02
1.274718e+03,8.241144e+02
1.275682e+03,8.288838e+02
1.276647e+03,8.345742e+02
1.277611e+03,8.351486e+02
1.278575e+03,8.295410e+02
1.279539e+03,8.263792e+02
1.280504e+03,8.264171e+02
1.281468e+03,8.274356e+02
1.282432e+03,8.279455e+02
1.283396e+03,8.283064e+02
1.284361e+03,8.282089e+02
1.285325e+03,8.283763e+02
1.286289e+03,8.331862e+02
1.287253e+03,8.438268e+02
1.288218e+03,8.560112e+02
1.289182e+03,8.670724e+02
1.290146e+03,8.767321e+02
1.291110e+03,8.856739e+02
1.292074e+03,8.931928e+02
1.293039e+03,8.967094e+02
1.294003e+03,8.949250e+02
1.294967e+03,8.886622e+02
1.295931e+03,8.745524e+02
1.296896e+03,8.588210e+02
1.297860e+03,8.479115e+02
1.298824e+03,8.432406e+02
1.299788e+03,8.397453e+02
1.300753e+03,8.369833e+02
1.301717e+03,8.354447e+02
1.302681e+03,8.357783e+02
1.303645e+03,8.373015e+02
1.304609e+03,8.386830e+02
1.305574e+03,8.401117e+02
1.306538e+03,8.365800e+02
1.307502e+03,8.268428e+02
1.308466e+03,8.176179e+02
1.309431e+03,8.164249e+02
1.310395e+03,8.207285e+02
1.311359e+03,8.218793e+02
1.312323e+03,8.200118e+02
1.313288e+03,8.173803e+02
1.314252e+03,8.152874e+02
1.315216e+03,8.135706e+02
1.316180e+03,8.104738e+02
1.317145e+03,8.082183e+02
1.318109e+03,8.102073e+02
1.319073e+03,8.162802e+02
1.320037e+03,8.209315e+02
1.321001e+03,8.219443e+02
1.321966e+03,8.213967e+02
1.322930e+03,8.201379e+02
1.323894e+03,8.183820e+02
1.324858e+03,8.158770e+02
1.325823e+03,8.112148e+02
1.326787e+03,8.091815e+02
1.327751e+03,8.105977e+02
1.328715e+03,8.121497e+02
1.329680e+03,8.114129e+02
1.330644e+03,8.093890e+02
1.331608e+03,8.105897e+02
1.332572e+03,8.147357e+02
1.333536e+03,8.191412e+02
1.334501e+03,8.229348e+02
1.335465e+03,8.267866e+02
1.336429e+03,8.327730e+02
1.337393e+03,8.391594e+02
1.338358e+03,8.437700e+02
1.339322e+03,8.462426e+02
1.340286e+03,8.461165e+02
1.341250e+03,8.422784e+02
1.342215e+03,8.368031e+02
1.343179e+03,8.302037e+02
1.344143e+03,8.234876e+02
1.345107e+03,8.169033e+02
1.346072e+03,8.097816e+02
1.347036e+03,8.048683e+02
1.348000e+03,8.029471e+02
1.348964e+03,8.012870e+02
1.349928e+03,7.990589e+02
1.350893e+03,7.968516e+02
1.351857e+03,7.957518e+02
1.352821e+03,7.955099e+02
1.353785e+03,7.939052e+02
1.354750e+03,7.905477e+02
1.355714e+03,7.873492e+02
1.356678e+03,7.864569e+02
1.357642e+03,7.871033e+02
1.358607e+03,7.881231e+02
1.359571e+03,7.891785e+02
1.360535e+03,7.897906e+02
1.361499e+03,7.899426e+02
1.362464e+03,7.897464e+02
1.363428e+03,7.886013e+02
1.364392e+03,7.879519e+02
1.365356e+03,7.889498e+02
1.366320e+03,7.909765e+02
1.367285e+03,7.912858e+02
1.368249e+03,7.893879e+02
1.369213e+03,7.878143e+02
1.370177e+03,7.871462e+02
1.371142e+03,7.866849e+02
1.372106e+03,7.857623e+02
1.373070e+03,7.843707e+02
1.374034e+03,7.818888e+02
1.374999e+03,7.787631e+02
1.375963e+03,7.772997e+02
1.376927e+03,7.792014e+02
1.377891e+03,7.818130e+02
1.378855e+03,7.826442e+02
1.379820e+03,7.821238e+02
1.380784e+03,7.805502e+02
1.381748e+03,7.782263e+02
1.382712e+03,7.763831e+02
1.383677e+03,7.758661e+02
1.384641e+03,7.744485e+02
1.385605e+03,7.702480e+02
1.386569e+03,7.653494e+02
1.387534e+03,7.632712e+02
1.388498e+03,7.647039e+02
1.389462e+03,7.653496e+02
1.390426e+03,7.646364e+02
1.391391e+03,7.649955e+02
1.392355e+03,7.689401e+02
1.393319e+03,7.742292e+02
1.394283e+03,7.760330e+02
1.395247e+03,7.752509e+02
1.396212e+03,7.740811e+02
1.397176e+03,7.730444e+02
1.398140e+03,7.717927e+02
1.399104e+03,7.688954e+02
1.400069e+03,7.665829e+02
1.401033e+03,7.669391e+02
1.401997e+03,7.690090e+02
1.402961e+03,7.700344e+02
1.403926e+03,7.695208e+02
1.404890e+03,7.686093e+02
1.405854e+03,7.671446e+02
1.406818e+03,7.663301e+02
1.407782e+03,7.671801e+02
1.408747e+03,7.695259e+02
1.409711e+03,7.721226e+02
1.410675e+03,7.745639e+02
1.411639e+03,7.770394e+02
1.412604e+03,7.797524e+02
1.413568e+03,7.822902e+02
1.414532e+03,7.857654e+02
1.415496e+03,7.881882e+02
1.416461e+03,7.867590e+02
1.417425e+03,7.820883e+02
1.418389e+03,7.776755e+02
1.419353e+03,7.723242e+02
1.420318e+03,7.706255e+02
1.421282e+03,7.754664e+02
1.422246e+03,7.804075e+02
1.423210e+03,7.789959e+02
1.424174e+03,7.729105e+02
1.425139e+03,7.739986e+02
1.426103e+03,7.811613e+02
1.427067e+03,7.869955e+02
1.428031e+03,7.890937e+02
1.428996e+03,7.892834e+02
1.429960e+03,7.870345e+02
1.430924e+03,7.851605e+02
1.431888e+03,7.868787e+02
1.432853e+03,7.919237e+02
1.433817e+03,7.976410e+02
1.434781e+03,8.058939e+02
1.435745e+03,8.115974e+02
1.436709e+03,8.138895e+02
1.437674e+03,8.131475e+02
1.438638e+03,8.092367e+02
1.439602e+03,8.028425e+02
1.440566e+03,7.988332e+02
1.441531e+03,7.969050e+02
1.442495e+03,7.947144e+02
1.443459e+03,7.909593e+02
1.444423e+03,7.882135e+02
1.445388e+03,7.902349e+02
1.446352e+03,7.934446e+02
1.447316e+03,7.940936e+02
1.448280e+03,7.927042e+02
1.449245e+03,7.923168e+02
1.450209e+03,7.966778e+02
1.451173e+03,7.971598e+02
1.452137e+03,7.905948e+02
1.453101e+03,7.823850e+02
1.454066e+03,7.775719e+02
1.455030e+03,7.759268e+02
1.455994e+03,7.759560e+02
1.456958e+03,7.773052e+02
1.457923e+03,7.776052e+02
1.458887e+03,7.755897e+02
1.459851e+03,7.728904e+02
1.460815e+03,7.701891e+02
1.461780e+03,7.678521e+02
1.462744e+03,7.670369e+02
1.463708e+03,7.676302e+02
1.464672e+03,7.675330e+02
1.465636e+03,7.672272e+02
1.466601e+03,7.654953e+02
1.467565e+03,7.616312e+02
1.468529e+03,7.575623e+02
1.469493e+03,7.555206e+02
1.470458e+03,7.543662e+02
1.471422e+03,7.487263e+02
1.472386e+03,7.404998e+02
1.473350e+03,7.368593e+02
1.474315e+03,7.415400e+02
1.475279e+03,7.455609e+02
1.476243e+03,7.416420e+02
1.477207e+03,7.361719e+02
1.478172e+03,7.343170e+02
1.479136e+03,7.354460e+02
1.480100e+03,7.354503e+02
1.481064e+03,7.341761e+02
1.482028e+03,7.325875e+02
1.482993e+03,7.308087e+02
1.483957e+03,7.293866e+02
1.484921e+03,7.289620e+02
1.485885e+03,7.288749e+02
1.486850e+03,7.275748e+02
1.487814e+03,7.254200e+02
1.488778e+03,7.236644e+02
1.489742e+03,7.228723e+02
1.490707e+03,7.221308e+02
1.491671e+03,7.208976e+02
1.492635e+03,7.208470e+02
1.493599e+03,7.227416e+02
1.494563e+03,7.256914e+02
1.495528e+03,7.283612e+02
1.496492e+03,7.305505e+02
1.497456e+03,7.292211e+02
1.498420e+03,7.243779e+02
1.499385e+03,7.199975e+02
1.500349e+03,7.200929e+02
1.501313e+03,7.210330e+02
1.502277e+03,7.184193e+02
1.503242e+03,7.148381e+02
1.504206e+03,7.145508e+02
1.505170e+03,7.196761e+02
1.506134e+03,7.218039e+02
1.507099e+03,7.199746e+02
1.508063e+03,7.178532e+02
1.509027e+03,7.166189e+02
1.509991e+03,7.162527e+02
1.510955e+03,7.177386e+02
1.511920e+03,7.197971e+02
1.512884e+03,7.189079e+02
1.513848e+03,7.156110e+02
1.514812e+03,7.135673e+02
1.515777e+03,7.134490e+02
1.516741e+03,7.152182e+02
1.517705e+03,7.209625e+02
1.518669e+03,7.266937e+02
1.519634e+03,7.287155e+02
1.520598e+03,7.272584e+02
1.521562e+03,7.284993e+02
1.522526e+03,7.324354e+02
1.523490e+03,7.432202e+02
1.524455e+03,7.634678e+02
1.525419e+03,7.836721e+02
1.526383e+03,7.979553e+02
1.527347e+03,8.057229e+02
1.528312e+03,8.053978e+02
1.529276e+03,7.983344e+02
1.530240e+03,7.888965e+02
1.531204e+03,7.767806e+02
1.532169e+03,7.624728e+02
1.533133e+03,7.450480e+02
1.534097e+03,7.300023e+02
1.535061e+03,7.218748e+02
1.536026e+03,7.183860e+02
1.536990e+03,7.168844e+02
1.537954e+03,7.166564e+02
1.538918e+03,7.162406e+02
1.539882e+03,7.151769e+02
1.540847e+03,7.144213e+02
1.541811e+03,7.151636e+02
1.542775e+03,7.143670e+02
1.543739e+03,7.107717e+02
1.544704e+03,7.064232e+02
1.545668e+03,7.047672e+02
1.546632e+03,7.053287e+02
1.547596e+03,7.059911e+02
1.548561e+03,7.064029e+02
1.549525e+03,7.056192e+02
1.550489e+03,7.007301e+02
1.551453e+03,6.974538e+02
1.552417e+03,7.008002e+02
1.553382e+03,7.048000e+02
1.554346e+03,7.044513e+02
1.555310e+03,7.004944e+02
1.556274e+03,6.981845e+02
1.557239e+03,6.974387e+02
1.558203e+03,6.971672e+02
1.559167e+03,6.971647e+02
1.560131e+03,6.970350e+02
1.561096e+03,6.966761e+02
1.562060e+03,6.959864e+02
1.563024e+03,6.943252e+02
1.563988e+03,6.923304e+02
1.564953e+03,6.913942e+02
1.565917e+03,6.917726e+02
1.566881e+03,6.923779e+02
1.567845e+03,6.930855e+02
1.568809e+03,6.936681e+02
1.569774e+03,6.942886e+02
1.570738e+03,6.944018e+02
1.571702e+03,6.920856e+02
1.572666e+03,6.894316e+02
1.573631e+03,6.905272e+02
1.574595e+03,6.958082e+02
1.575559e+03,6.956397e+02
1.576523e+03,6.853204e+02
1.577488e+03,6.801729e+02
1.578452e+03,6.834001e+02
1.579416e+03,6.891697e+02
1.580380e+03,6.927777e+02
1.581344e+03,6.940631e+02
1.582309e+03,6.910423e+02
1.583273e+03,6.858511e+02
1.584237e+03,6.834850e+02
1.585201e+03,6.872527e+02
1.586166e+03,6.888781e+02
1.587130e+03,6.862729e+02
1.588094e+03,6.832352e+02
1.589058e+03,6.814211e+02
1.590023e+03,6.806068e+02
1.590987e+03,6.797426e+02
1.591951e+03,6.796501e+02
1.592915e+03,6.827513e+02
1.593880e+03,6.883254e+02
1.594844e+03,6.916248e+02
1.595808e+03,6.892477e+02
1.596772e+03,6.863957e+02
1.597736e+03,6.837508e+02
1.598701e+03,6.821759e+02
1.599665e+03,6.829412e+02
1.600629e+03,6.850949e+02
1.601593e+03,6.842626e+02
1.602558e+03,6.813887e+02
1.603522e+03,6.794387e+02
1.604486e+03,6.793605e+02
1.605450e+03,6.793623e+02
1.606415e+03,6.799169e+02
1.607379e+03,6.792144e+02
1.608343e+03,6.755367e+02
1.609307e+03,6.712198e+02
1.610271e+03,6.710997e+02
1.611236e+03,6.740743e+02
1.612200e+03,6.760135e+02
1.613164e+03,6.766901e+02
1.614128e+03,6.757824e+02
1.615093e+03,6.694218e+02
1.616057e+03,6.662993e+02
1.617021e+03,6.731739e+02
1.617985e+03,6.796066e+02
1.618950e+03,6.788511e+02
1.619914e+03,6.731134e+02
1.620878e+03,6.712139e+02
1.621842e+03,6.721375e+02
1.622807e+03,6.712050e+02
1.623771e+03,6.675739e+02
1.624735e+03,6.651693e+02
1.625699e+03,6.667374e+02
1.626663e+03,6.685462e+02
1.627628e+03,6.692138e+02
1.628592e+03,6.689814e+02
1.629556e+03,6.690395e+02
1.630520e+03,6.693168e+02
1.631485e+03,6.662855e+02
1.632449e+03,6.609097e+02
1.633413e+03,6.578283e+02
1.634377e+03,6.601495e+02
1.635342e+03,6.617872e+02
1.636306e+03,6.584061e+02
1.637270e+03,6.565392e+02
1.638234e+03,6.602730e+02
1.639198e+03,6.661359e+02
1.640163e+03,6.647101e+02
1.641127e+03,6.582802e+02
1.642091e+03,6.525905e+02
1.643055e+03,6.485425e+02
1.644020e+03,6.485837e+02
1.644984e+03,6.604163e+02
1.645948e+03,6.663203e+02
1.646912e+03,6.605555e+02
1.647877e+03,6.525322e+02
1.648841e+03,6.504403e+02
1.649805e+03,6.522007e+02
1.650769e+03,6.503522e+02
1.651734e+03,6.466649e+02
1.652698e+03,6.461747e+02
1.653662e+03,6.505020e+02
1.654626e+03,6.535536e+02
1.655590e+03,6.537927e+02
1.656555e+03,6.524195e+02
1.657519e+03,6.494232e+02
1.658483e+03,6.466286e+02
1.659447e+03,6.466490e+02
1.660412e+03,6.478857e+02
1.661376e+03,6.476461e+02
1.662340e+03,6.465243e+02
1.663304e+03,6.462598e+02
1.664269e+03,6.479550e+02
1.665233e+03,6.487706e+02
1.666197e+03,6.484266e+02
1.667161e+03,6.473298e+02
1.668125e+03,6.458270e+02
1.669090e+03,6.438940e+02
1.670054e+03,6.409928e+02
1.671018e+03,6.380061e+02
1.671982e+03,6.361917e+02
1.672947e+03,6.357512e+02
1.673911e+03,6.363544e+02
1.674875e+03,6.382060e+02
1.675839e+03,6.383600e+02
1.676804e+03,6.366224e+02
1.677768e+03,6.345449e+02
1.678732e+03,6.322387e+02
1.679696e+03,6.308262e+02
1.680661e+03,6.321442e+02
1.681625e+03,6.343544e+02
1.682589e+03,6.354550e+02
1.683553e+03,6.356520e+02
1.684517e+03,6.344011e+02
1.685482e+03,6.316627e+02
1.686446e+03,6.289899e+02
1.687410e+03,6.267639e+02
1.688374e+03,6.253333e+02
1.689339e+03,6.232534e+02
1.690303e+03,6.240230e+02
1.691267e+03,6.325881e+02
1.692231e+03,6.432019e+02
1.693196e+03,6.453544e+02
1.694160e+03,6.400511e+02
1.695124e+03,6.356583e+02
1.696088e+03,6.325801e+02
1.697052e+03,6.298694e+02
1.698017e+03,6.260790e+02
1.698981e+03,6.234570e+02
1.699945e+03,6.221066e+02
1.700909e+03,6.223676e+02
1.701874e+03,6.256842e+02
1.702838e+03,6.303738e+02
1.703802e+03,6.329899e+02
1.704766e+03,6.328514e+02
1.705731e+03,6.276531e+02
1.706695e+03,6.179249e+02
1.707659e+03,6.124631e+02
1.708623e+03,6.145729e+02
1.709588e+03,6.163361e+02
1.710552e+03,6.163139e+02
1.711516e+03,6.163574e+02
1.712480e+03,6.193190e+02
1.713444e+03,6.223010e+02
1.714409e+03,6.217985e+02
1.715373e+03,6.196999e+02
1.716337e+03,6.186400e+02
1.717301e+03,6.189188e+02
1.718266e+03,6.184608e+02
1.719230e+03,6.171174e+02
1.720194e+03,6.143693e+02
1.721158e+03,6.095125e+02
1.722123e+03,6.077649e+02
1.723087e+03,6.177253e+02
1.724051e+03,6.261276e+02
1.725015e+03,6.260182e+02
1.725979e+03,6.213341e+02
1.726944e+03,6.161227e+02
1.727908e+03,6.109086e+02
1.728872e+03,6.075609e+02
1.729836e+03,6.060303e+02
1.730801e+03,6.067337e+02
1.731765e+03,6.117303e+02
1.732729e+03,6.149129e+02
1.733693e+03,6.152966e+02
1.734658e+03,6.152679e+02
1.735622e+03,6.159738e+02
1.736586e+03,6.163615e+02
1.737550e+03,6.141368e+02
1.738515e+03,6.113145e+02
1.739479e+03,6.102230e+02
1.740443e+03,6.109965e+02
1.741407e+03,6.131736e+02
1.742371e+03,6.173194e+02
1.743336e+03,6.164912e+02
1.744300e+03,6.102662e+02
1.745264e+03,6.047114e+02
1.746228e+03,6.049954e+02
1.747193e+03,6.062266e+02
1.748157e+03,6.068796e+02
1.749121e+03,6.070978e+02
1.750085e+03,6.059600e+02
1.751050e+03,6.036929e+02
1.752014e+03,6.027394e+02
1.752978e+03,6.030336e+02
1.753942e+03,6.043201e+02
1.754906e+03,6.064422e+02
1.755871e+03,6.079383e+02
1.756835e+03,6.087656e+02
1.757799e+03,6.069152e+02
1.758763e+03,6.021430e+02
1.759728e+03,5.981396e+02
1.760692e+03,5.989542e+02
1.761656e+03,6.014089e+02
1.762620e+03,6.029477e+02
1.763585e+03,6.033103e+02
1.764549e+03,6.022121e+02
1.765513e+03,5.994728e+02
1.766477e+03,5.973118e+02
1.767442e+03,5.958214e+02
1.768406e+03,5.942252e+02
1.769370e+03,5.919733e+02
1.770334e+03,5.920854e+02
1.771298e+03,6.009753e+02
1.772263e+03,6.038217e+02
1.773227e+03,5.945428e+02
1.774191e+03,5.830865e+02
1.775155e+03,5.846667e+02
1.776120e+03,5.912499e+02
1.777084e+03,5.898302e+02
1.778048e+03,5.834343e+02
1.779012e+03,5.818113e+02
1.779977e+03,5.868697e+02
1.780941e+03,5.910706e+02
1.781905e+03,5.941771e+02
1.782869e+03,5.970256e+02
1.783833e+03,6.002822e+02
1.784798e+03,6.026960e+02
1.785762e+03,6.047160e+02
1.786726e+03,6.035873e+02
1.787690e+03,5.971361e+02
1.788655e+03,5.887255e+02
1.789619e+03,5.841130e+02
1.790583e+03,5.823820e+02
1.791547e+03,5.814220e+02
1.792512e+03,5.814255e+02
1.793476e+03,5.846254e+02
1.794440e+03,5.935557e+02
1.795404e+03,5.957530e+02
1.796369e+03,5.902402e+02
1.797333e+03,5.841406e+02
1.798297e+03,5.811730e+02
1.799261e+03,5.799366e+02
1.800225e+03,5.800113e+02
1.801190e+03,5.805182e+02
1.802154e+03,5.808516e+02
1.803118e+03,5.814960e+02
1.804082e+03,5.856468e+02
1.805047e+03,5.909855e+02
1.806011e+03,5.905588e+02
1.806975e+03,5.843219e+02
1.807939e+03,5.815895e+02
1.808904e+03,5.850556e+02
1.809868e+03,5.851078e+02
1.810832e+03,5.808083e+02
1.811796e+03,5.766284e+02
1.812760e+03,5.763633e+02
1.813725e+03,5.765117e+02
1.814689e+03,5.741666e+02
1.815653e+03,5.721428e+02
1.816617e+03,5.731129e+02
1.817582e+03,5.756604e+02
1.818546e+03,5.747025e+02
1.819510e+03,5.716838e+02
1.820474e+03,5.699396e+02
1.821439e+03,5.701215e+02
1.822403e+03,5.700919e+02
1.823367e+03,5.696246e+02
1.824331e+03,5.696169e+02
1.825296e+03,5.700911e+02
1.826260e+03,5.696193e+02
1.827224e+03,5.659363e+02
1.828188e+03,5.633917e+02
1.829152e+03,5.645759e+02
1.830117e+03,5.670817e+02
1.831081e+03,5.693758e+02
1.832045e+03,5.712258e+02
1.833009e+03,5.733039e+02
1.833974e+03,5.750443e+02
1.834938e+03,5.737625e+02
1.835902e+03,5.682454e+02
1.836866e+03,5.660168e+02
1.837831e+03,5.674122e+02
1.838795e+03,5.657091e+02
1.839759e+03,5.595302e+02
1.840723e+03,5.556029e+02
1.841688e+03,5.618634e+02
1.842652e+03,5.661215e+02
1.843616e+03,5.628412e+02
1.844580e+03,5.582148e+02
1.845544e+03,5.595339e+02
1.846509e+03,5.637479e+02
1.847473e+03,5.673334e+02
1.848437e+03,5.686660e+02
1.849401e+03,5.632670e+02
1.850366e+03,5.514641e+02
1.851330e+03,5.430074e+02
1.852294e+03,5.381077e+02
1.853258e+03,5.373592e+02
1.854223e+03,5.410612e+02
1.855187e+03,5.470574e+02
1.856151e+03,5.578357e+02
1.857115e+03,5.642552e+02
1.858079e+03,5.635214e+02
1.859044e+03,5.611462e+02
1.860008e+03,5.652366e+02
1.860972e+03,5.689413e+02
1.861936e+03,5.622755e+02
1.862901e+03,5.527894e+02
1.863865e+03,5.521222e+02
1.864829e+03,5.582092e+02
1.865793e+03,5.561535e+02
1.866758e+03,5.486409e+02
1.867722e+03,5.426038e+02
1.868686e+03,5.394167e+02
1.869650e+03,5.409523e+02
1.870615e+03,5.481220e+02
1.871579e+03,5.532065e+02
1.872543e+03,5.544487e+02
1.873507e+03,5.543125e+02
1.874471e+03,5.537141e+02
1.875436e+03,5.524171e+02
1.876400e+03,5.508182e+02
1.877364e+03,5.485372e+02
1.878328e+03,5.435293e+02
1.879293e+03,5.384088e+02
1.880257e+03,5.393350e+02
1.881221e+03,5.434450e+02
1.882185e+03,5.449014e+02
1.883150e+03,5.434719e+02
1.884114e+03,5.433020e+02
1.885078e+03,5.440861e+02
1.886042e+03,5.448668e+02
1.887006e+03,5.454414e+02
1.887971e+03,5.452189e+02
1.888935e+03,5.436285e+02
1.889899e+03,5.433428e+02
1.890863e+03,5.450632e+02
1.891828e+03,5.457777e+02
1.892792e+03,5.413083e+02
1.893756e+03,5.363860e+02
1.894720e+03,5.345910e+02
1.895685e+03,5.354555e+02
1.896649e+03,5.395679e+02
1.897613e+03,5.449058e+02
1.898577e+03,5.452418e+02
1.899542e+03,5.420455e+02
1.900506e+03,5.376852e+02
1.901470e+03,5.321825e+02
1.902434e+03,5.300716e+02
1.903398e+03,5.312838e+02
1.904363e+03,5.338307e+02
1.905327e+03,5.374163e+02
1.906291e+03,5.406568e+02
1.907255e+03,5.431453e+02
1.908220e+03,5.438482e+02
1.909184e+03,5.424583e+02
1.910148e+03,5.396847e+02
1.911112e+03,5.345959e+02
1.912077e+03,5.307045e+02
1.913041e+03,5.333245e+02
1.914005e+03,5.366395e+02
1.914969e+03,5.329691e+02
1.915933e+03,5.256821e+02
1.916898e+03,5.295734e+02
1.917862e+03,5.384475e+02
1.918826e+03,5.377287e+02
1.919790e+03,5.248893e+02
1.920755e+03,5.209882e+02
1.921719e+03,5.252651e+02
1.922683e+03,5.270780e+02
1.923647e+03,5.243881e+02
1.924612e+03,5.215630e+02
1.925576e+03,5.192601e+02
1.926540e+03,5.197828e+02
1.927504e+03,5.236267e+02
1.928469e+03,5.276446e+02
1.929433e+03,5.308318e+02
1.930397e+03,5.309694e+02
1.931361e+03,5.229651e+02
1.932325e+03,5.146567e+02
1.933290e+03,5.123596e+02
1.934254e+03,5.147057e+02
1.935218e+03,5.195816e+02
1.936182e+03,5.244454e+02
1.937147e+03,5.253298e+02
1.938111e+03,5.226368e+02
1.939075e+03,5.196751e+02
1.940039e+03,5.169050e+02
1.941004e+03,5.159931e+02
1.941968e+03,5.167551e+02
1.942932e+03,5.170896e+02
1.943896e+03,5.158734e+02
1.944860e+03,5.175299e+02
1.945825e+03,5.230045e+02
1.946789e+03,5.252174e+02
1.947753e+03,5.129240e+02
1.948717e+03,5.047493e+02
1.949682e+03,5.100972e+02
1.950646e+03,5.178199e+02
1.951610e+03,5.226892e+02
1.952574e+03,5.242861e+02
1.953539e+03,5.196824e+02
1.954503e+03,5.132610e+02
1.955467e+03,5.088807e+02
1.956431e+03,5.071859e+02
1.957396e+03,5.126490e+02
1.958360e+03,5.206481e+02
1.959324e+03,5.174584e+02
1.960288e+03,5.051078e+02
1.961252e+03,5.025765e+02
1.962217e+03,5.115910e+02
1.963181e+03,5.133917e+02
1.964145e+03,5.078087e+02
1.965109e+03,5.034959e+02
1.966074e+03,5.061725e+02
1.967038e+03,5.073754e+02
1.968002e+03,5.052645e+02
1.968966e+03,5.057721e+02
1.969931e+03,5.135209e+02
1.970895e+03,5.193370e+02
1.971859e+03,5.138704e+02
1.972823e+03,5.090125e+02
1.973787e+03,5.104055e+02
1.974752e+03,5.128577e+02
1.975716e+03,5.071552e+02
1.976680e+03,5.000993e+02
1.977644e+03,5.008712e+02
1.978609e+03,5.054438e+02
1.979573e+03,5.063484e+02
1.980537e+03,5.046548e+02
1.981501e+03,5.043244e+02
1.982466e+03,5.051387e+02
1.983430e+03,5.061041e+02
1.984394e+03,5.071475e+02
1.985358e+03,5.063362e+02
1.986323e+03,5.038622e+02
1.987287e+03,5.012830e+02
1.988251e+03,4.989113e+02
1.989215e+03,4.969662e+02
1.990179e+03,4.957321e+02
1.991144e+03,4.938159e+02
1.992108e+03,4.909127e+02
1.993072e+03,4.889987e+02
1.994036e+03,4.899112e+02
1.995001e+03,4.910685e+02
1.995965e+03,4.917511e+02
1.996929e+03,4.925189e+02
1.997893e+03,4.940579e+02
1.998858e+03,4.951000e+02
1.999822e+03,4.935479e+02
2.000786e+03,4.920200e+02
2.001750e+03,4.939287e+02
2.002714e+03,4.972975e+02
2.003679e+03,4.960006e+02
2.004643e+03,4.925378e+02
2.005607e+03,4.911517e+02
2.006571e+03,4.916349e+02
2.007536e+03,4.926571e+02
2.008500e+03,4.937169e+02
2.009464e+03,4.923565e+02
2.010428e+03,4.888589e+02
2.011393e+03,4.880612e+02
2.012357e+03,4.904122e+02
2.013321e+03,4.908725e+02
2.014285e+03,4.889977e+02
2.015250e+03,4.881981e+02
2.016214e+03,4.922481e+02
2.017178e+03,4.934892e+02
2.018142e+03,4.916348e+02
2.019106e+03,4.880010e+02
2.020071e+03,4.814464e+02
2.021035e+03,4.775678e+02
2.021999e+03,4.805614e+02
2.022963e+03,4.838534e+02
2.023928e+03,4.855607e+02
2.024892e+03,4.858336e+02
2.025856e+03,4.839484e+02
2.026820e+03,4.814112e+02
2.027785e+03,4.783549e+02
2.028749e+03,4.764710e+02
2.029713e+03,4.803468e+02
2.030677e+03,4.855197e+02
2.031641e+03,4.858434e+02
2.032606e+03,4.826201e+02
2.033570e+03,4.778378e+02
2.034534e+03,4.723219e+02
2.035498e+03,4.703518e+02
2.036463e+03,4.708697e+02
2.037427e+03,4.713299e+02
2.038391e+03,4.717325e+02
2.039355e+03,4.730922e+02
2.040320e+03,4.751956e+02
2.041284e+03,4.771367e+02
2.042248e+03,4.785545e+02
2.043212e+03,4.769035e+02
2.044177e+03,4.719354e+02
2.045141e+03,4.704160e+02
2.046105e+03,4.731469e+02
2.047069e+03,4.748210e+02
2.048033e+03,4.705598e+02
2.048998e+03,4.696191e+02
2.049962e+03,4.732030e+02
2.050926e+03,4.756242e+02
2.051890e+03,4.700518e+02
2.052854e+03,4.678168e+02
2.053819e+03,4.738499e+02
2.054783e+03,4.778572e+02
2.055747e+03,4.744004e+02
2.056711e+03,4.683392e+02
2.057676e+03,4.621702e+02
2.058640e+03,4.574855e+02
2.059604e+03,4.544536e+02
2.060568e+03,4.533658e+02
2.061533e+03,4.569627e+02
2.062497e+03,4.610630e+02
2.063461e+03,4.604829e+02
2.064425e+03,4.585209e+02
2.065390e+03,4.601275e+02
2.066354e+03,4.633507e+02
2.067318e+03,4.655536e+02
2.068282e+03,4.662025e+02
2.069247e+03,4.640433e+02
2.070211e+03,4.597611e+02
2.071175e+03,4.591406e+02
2.072139e+03,4.606379e+02
2.073104e+03,4.599300e+02
2.074068e+03,4.568178e+02
2.075032e+03,4.572564e+02
2.075996e+03,4.601581e+02
2.076960e+03,4.614893e+02
2.077925e+03,4.604347e+02
2.078889e+03,4.598626e+02
2.079853e+03,4.600327e+02
2.080817e+03,4.585893e+02
2.081782e+03,4.553444e+02
2.082746e+03,4.524635e+02
2.083710e+03,4.501779e+02
2.084674e+03,4.514234e+02
2.085639e+03,4.565992e+02
2.086603e+03,4.613336e+02
2.087567e+03,4.624794e+02
2.088531e+03,4.624253e+02
2.089496e+03,4.614833e+02
2.090460e+03,4.589304e+02
2.091424e+03,4.545981e+02
2.092388e+03,4.511042e+02
2.093353e+03,4.495570e+02
2.094317e+03,4.497360e+02
2.095281e+03,4.515536e+02
2.096245e+03,4.532613e+02
2.097209e+03,4.540995e+02
2.098174e+03,4.526519e+02
2.099138e+03,4.479568e+02
2.100102e+03,4.435346e+02
2.101066e+03,4.440908e+02
2.102031e+03,4.455857e+02
2.102995e+03,4.442278e+02
2.103959e+03,4.421177e+02
2.104923e+03,4.402605e+02
2.105887e+03,4.397440e+02
2.106852e+03,4.429637e+02
2.107816e+03,4.465316e+02
2.108780e+03,4.472937e+02
2.109744e+03,4.460320e+02
2.110708e+03,4.437853e+02
2.111673e+03,4.421802e+02
2.112637e+03,4.447335e+02
2.113601e+03,4.484348e+02
2.114565e+03,4.469996e+02
2.115530e+03,4.415703e+02
2.116494e+03,4.307085e+02
2.117458e+03,4.197109e+02
2.118422e+03,4.237534e+02
2.119387e+03,4.392433e+02
2.120351e+03,4.489908e+02
2.121315e+03,4.526703e+02
2.122279e+03,4.520829e+02
2.123244e+03,4.478125e+02
2.124208e+03,4.420869e+02
2.125172e+03,4.359207e+02
2.126136e+03,4.321831e+02
2.127101e+03,4.317582e+02
2.128065e+03,4.340252e+02
2.129029e+03,4.384808e+02
2.129993e+03,4.424108e+02
2.130958e+03,4.448080e+02
2.131922e+03,4.435928e+02
2.132886e+03,4.386923e+02
2.133850e+03,4.357796e+02
2.134814e+03,4.357829e+02
2.135779e+03,4.359223e+02
2.136743e+03,4.350441e+02
2.137707e+03,4.340740e+02
2.138671e+03,4.331557e+02
2.139636e+03,4.309481e+02
2.140600e+03,4.238627e+02
2.141564e+03,4.231638e+02
2.142528e+03,4.299096e+02
2.143493e+03,4.349559e+02
2.144457e+03,4.343612e+02
2.145421e+03,4.315723e+02
2.146385e+03,4.265634e+02
2.147350e+03,4.252702e+02
2.148314e+03,4.300482e+02
2.149278e+03,4.348174e+02
2.150242e+03,4.348596e+02
2.151207e+03,4.342388e+02
2.152171e+03,4.334012e+02
2.153135e+03,4.322415e+02
2.154099e+03,4.319925e+02
2.155063e+03,4.300805e+02
2.156028e+03,4.255752e+02
2.156992e+03,4.224467e+02
2.157956e+03,4.235023e+02
2.158920e+03,4.256312e+02
2.159885e+03,4.282137e+02
2.160849e+03,4.294155e+02
2.161813e+03,4.279474e+02
2.162777e+03,4.256926e+02
2.163741e+03,4.244899e+02
2.164706e+03,4.225887e+02
2.165670e+03,4.193172e+02
2.166634e+03,4.171134e+02
2.167598e+03,4.193786e+02
2.168563e+03,4.218029e+02
2.169527e+03,4.224286e+02
2.170491e+03,4.210455e+02
2.171455e+03,4.153608e+02
2.172420e+03,4.115442e+02
2.173384e+03,4.152684e+02
2.174348e+03,4.194644e+02
2.175312e+03,4.171906e+02
2.176277e+03,4.137307e+02
2.177241e+03,4.150511e+02
2.178205e+03,4.169980e+02
2.179169e+03,4.172799e+02
2.180134e+03,4.170014e+02
2.181098e+03,4.171587e+02
2.182062e+03,4.172262e+02
2.183026e+03,4.162429e+02
2.183990e+03,4.154336e+02
2.184955e+03,4.176954e+02
2.185919e+03,4.198728e+02
2.186883e+03,4.187951e+02
2.187847e+03,4.168297e+02
2.188812e+03,4.180445e+02
2.189776e+03,4.193685e+02
2.190740e+03,4.157596e+02
2.191704e+03,4.116417e+02
2.192668e+03,4.122554e+02
2.193633e+03,4.142846e+02
2.194597e+03,4.119276e+02
2.195561e+03,4.095756e+02
2.196525e+03,4.114382e+02
2.197490e+03,4.147778e+02
2.198454e+03,4.145717e+02
2.199418e+03,4.135619e+02
2.200382e+03,4.148413e+02
2.201347e+03,4.165418e+02
2.202311e+03,4.138119e+02
2.203275e+03,4.104024e+02
2.204239e+03,4.102633e+02
2.205204e+03,4.110464e+02
2.206168e+03,4.108011e+02
2.207132e+03,4.096039e+02
2.208096e+03,4.063385e+02
2.209061e+03,4.024579e+02
2.210025e+03,3.992616e+02
2.210989e+03,3.972739e+02
2.211953e+03,3.980703e+02
2.212917e+03,4.008001e+02
2.213882e+03,4.037800e+02
2.214846e+03,4.061428e+02
2.215810e+03,4.066638e+02
2.216774e+03,4.058045e+02
2.217739e+03,4.045908e+02
2.218703e+03,4.039099e+02
2.219667e+03,4.061903e+02
2.220631e+03,4.085197e+02
2.221595e+03,4.078087e+02
2.222560e+03,4.053735e+02
2.223524e+03,4.015638e+02
2.224488e+03,3.986027e+02
2.225452e+03,4.010610e+02
2.226417e+03,4.042589e+02
2.227381e+03,4.028236e+02
2.228345e+03,4.001280e+02
2.229309e+03,4.007193e+02
2.230274e+03,4.013140e+02
2.231238e+03,3.986132e+02
2.232202e+03,3.951387e+02
2.233166e+03,3.942351e+02
2.234131e+03,3.962800e+02
2.235095e+03,4.022212e+02
2.236059e+03,4.080205e+02
2.237023e+03,4.073159e+02
2.237988e+03,4.030779e+02
2.238952e+03,3.965474e+02
2.239916e+03,3.908218e+02
2.240880e+03,3.916049e+02
2.241844e+03,3.938327e+02
2.242809e+03,3.940248e+02
2.243773e+03,3.931683e+02
2.244737e+03,3.910234e+02
2.245701e+03,3.892910e+02
2.246666e+03,3.903463e+02
2.247630e+03,3.906642e+02
2.248594e+03,3.869512e+02
2.249558e+03,3.839265e+02
2.250522e+03,3.878044e+02
2.251487e+03,3.913910e+02
2.252451e+03,3.908060e+02
2.253415e+03,3.880514e+02
2.254379e+03,3.844383e+02
2.255344e+03,3.816796e+02
2.256308e+03,3.804281e+02
2.257272e+03,3.805099e+02
2.258236e+03,3.829098e+02
2.259201e+03,3.846682e+02
2.260165e+03,3.843358e+02
2.261129e+03,3.844951e+02
2.262093e+03,3.896343e+02
2.263058e+03,3.913940e+02
2.264022e+03,3.873060e+02
2.264986e+03,3.838989e+02
2.265950e+03,3.873008e+02
2.266915e+03,3.873904e+02
2.267879e+03,3.796259e+02
2.268843e+03,3.751651e+02
2.269807e+03,3.808952e+02
2.270771e+03,3.855517e+02
2.271736e+03,3.847520e+02
2.272700e+03,3.835744e+02
2.273664e+03,3.828138e+02
2.274628e+03,3.824720e+02
2.275593e+03,3.825568e+02
2.276557e+03,3.828975e+02
2.277521e+03,3.838091e+02
2.278485e+03,3.837794e+02
2.279449e+03,3.809779e+02
2.280414e+03,3.802701e+02
2.281378e+03,3.817774e+02
2.282342e+03,3.820436e+02
2.283306e+03,3.766241e+02
2.284271e+03,3.759516e+02
2.285235e+03,3.794994e+02
2.286199e+03,3.818431e+02
2.287163e+03,3.819230e+02
2.288128e+03,3.768190e+02
2.289092e+03,3.672460e+02
2.290056e+03,3.634101e+02
2.291020e+03,3.681757e+02
2.291985e+03,3.714669e+02
2.292949e+03,3.733099e+02
2.293913e+03,3.743033e+02
2.294877e+03,3.746483e+02
2.295842e+03,3.769942e+02
2.296806e+03,3.806382e+02
2.297770e+03,3.810789e+02
2.298734e+03,3.786431e+02
2.299698e+03,3.762656e+02
2.300663e+03,3.741837e+02
2.301627e+03,3.713163e+02
2.302591e+03,3.680954e+02
2.303555e+03,3.656215e+02
2.304520e+03,3.641482e+02
2.305484e+03,3.651739e+02
2.306448e+03,3.675423e+02
2.307412e+03,3.691717e+02
2.308376e+03,3.700027e+02
2.309341e+03,3.700652e+02
2.310305e+03,3.699227e+02
2.311269e+03,3.706727e+02
2.312233e+03,3.719844e+02
2.313198e+03,3.743102e+02
2.314162e+03,3.747925e+02
2.315126e+03,3.685283e+02
2.316090e+03,3.615402e+02
2.317055e+03,3.607654e+02
2.318019e+03,3.622764e+02
2.318983e+03,3.631040e+02
2.319947e+03,3.629319e+02
2.320912e+03,3.605332e+02
2.321876e+03,3.594048e+02
2.322840e+03,3.646865e+02
2.323804e+03,3.666390e+02
2.324769e+03,3.586366e+02
2.325733e+03,3.526737e+02
2.326697e+03,3.593400e+02
2.327661e+03,3.647812e+02
2.328625e+03,3.646928e+02
2.329590e+03,3.641106e+02
2.330554e+03,3.676189e+02
2.331518e+03,3.678429e+02
2.332482e+03,3.634797e+02
2.333447e+03,3.594455e+02
2.334411e+03,3.579704e+02
2.335375e+03,3.575138e+02
2.336339e+03,3.579622e+02
2.337303e+03,3.589637e+02
2.338268e+03,3.612570e+02
2.339232e+03,3.592960e+02
2.340196e+03,3.541512e+02
2.341160e+03,3.528165e+02
2.342125e+03,3.576078e+02
2.343089e+03,3.576663e+02
2.344053e+03,3.540003e+02
2.345017e+03,3.526044e+02
2.345982e+03,3.541229e+02
2.346946e+03,3.549608e+02
2.347910e+03,3.554534e+02
2.348874e+03,3.551371e+02
2.349839e+03,3.544298e+02
2.350803e+03,3.555557e+02
2.351767e+03,3.579169e+02
2.352731e+03,3.613001e+02
2.353696e+03,3.638982e+02
2.354660e+03,3.612726e+02
2.355624e+03,3.569775e+02
2.356588e+03,3.570488e+02
2.357552e+03,3.591117e+02
2.358517e+03,3.626786e+02
2.359481e+03,3.644302e+02
2.360445e+03,3.577221e+02
2.361409e+03,3.504910e+02
2.362374e+03,3.462629e+02
2.363338e+03,3.446427e+02
2.364302e+03,3.482422e+02
2.365266e+03,3.511152e+02
2.366230e+03,3.513935e+02
2.367195e+03,3.501246e+02
2.368159e+03,3.452930e+02
2.369123e+03,3.455076e+02
2.370087e+03,3.525498e+02
2.371052e+03,3.567420e+02
2.372016e+03,3.529935e+02
2.372980e+03,3.460260e+02
2.373944e+03,3.367642e+02
2.374909e+03,3.355312e+02
2.375873e+03,3.489591e+02
2.376837e+03,3.518654e+02
2.377801e+03,3.465351e+02
2.378766e+03,3.425372e+02
2.379730e+03,3.412562e+02
2.380694e+03,3.384424e+02
2.381658e+03,3.358409e+02
2.382623e+03,3.397436e+02
2.383587e+03,3.464531e+02
2.384551e+03,3.409434e+02
2.385515e+03,3.317773e+02
2.386479e+03,3.361950e+02
2.387444e+03,3.453438e+02
2.388408e+03,3.459951e+02
2.389372e+03,3.442436e+02
2.390336e+03,3.466243e+02
2.391301e+03,3.488197e+02
2.392265e+03,3.454005e+02
2.393229e+03,3.416182e+02
2.394193e+03,3.411437e+02
2.395157e+03,3.399761e+02
2.396122e+03,3.324040e+02
2.397086e+03,3.326830e+02
2.398050e+03,3.474979e+02
2.399014e+03,3.549186e+02
2.399979e+03,3.442300e+02
2.400943e+03,3.372636e+02
2.401907e+03,3.377982e+02
2.402871e+03,3.369820e+02
2.403836e+03,3.330836e+02
2.404800e+03,3.331232e+02
2.405764e+03,3.371525e+02
2.406728e+03,3.406302e+02
2.407693e+03,3.430960e+02
2.408657e+03,3.483765e+02
2.409621e+03,3.542319e+02
2.410585e+03,3.434380e+02
2.411550e+03,3.252462e+02
2.412514e+03,3.238143e+02
2.413478e+03,3.323595e+02
2.414442e+03,3.343315e+02
2.415406e+03,3.335538e+02
2.416371e+03,3.340601e+02
2.417335e+03,3.355721e+02
2.418299e+03,3.391903e+02
2.419263e+03,3.409896e+02
2.420228e+03,3.381996e+02
2.421192e+03,3.351583e+02
2.422156e+03,3.384336e+02
2.423120e+03,3.372058e+02
2.424084e+03,3.278895e+02
2.425049e+03,3.206667e+02
2.426013e+03,3.220475e+02
2.426977e+03,3.250085e+02
2.427941e+03,3.291263e+02
2.428906e+03,3.339028e+02
2.429870e+03,3.398134e+02
2.430834e+03,3.382469e+02
2.431798e+03,3.308060e+02
2.432763e+03,3.260224e+02
2.433727e+03,3.243869e+02
2.434691e+03,3.251080e+02
2.435655e+03,3.272391e+02
2.436620e+03,3.289601e+02
2.437584e+03,3.303225e+02
2.438548e+03,3.324903e+02
2.439512e+03,3.338004e+02
2.440477e+03,3.327840e+02
2.441441e+03,3.295706e+02
2.442405e+03,3.215935e+02
2.443369e+03,3.169219e+02
2.444333e+03,3.193947e+02
2.445298e+03,3.238337e+02
2.446262e+03,3.274145e+02
2.447226e+03,3.283796e+02
2.448190e+03,3.266324e+02
2.449155e+03,3.249058e+02
2.450119e+03,3.248434e+02
2.451083e+03,3.254200e+02
2.452047e+03,3.263786e+02
2.453011e+03,3.263703e+02
2.453976e+03,3.251740e+02
2.454940e+03,3.240688e+02
2.455904e+03,3.233576e+02
2.456868e+03,3.231906e+02
2.457833e+03,3.232965e+02
2.458797e+03,3.239033e+02
2.459761e+03,3.246819e+02
2.460725e+03,3.250149e+02
2.461690e+03,3.248097e+02
2.462654e+03,3.240837e+02
2.463618e+03,3.223308e+02
2.464582e+03,3.191357e+02
2.465547e+03,3.167650e+02
2.466511e+03,3.172305e+02
2.467475e+03,3.182924e+02
2.468439e+03,3.194322e+02
2.469404e+03,3.195504e+02
2.470368e+03,3.180193e+02
2.471332e+03,3.153695e+02
2.472296e+03,3.118657e+02
2.473260e+03,3.125400e+02
2.474225e+03,3.191097e+02
2.475189e+03,3.210637e+02
2.476153e+03,3.201186e+02
2.477117e+03,3.203598e+02
2.478082e+03,3.218420e+02
2.479046e+03,3.258227e+02
2.480010e+03,3.287206e+02
2.480974e+03,3.250143e+02
2.481938e+03,3.191252e+02
2.482903e+03,3.155497e+02
2.483867e+03,3.139635e+02
2.484831e+03,3.140402e+02
2.485795e+03,3.143954e+02
2.486760e+03,3.143834e+02
2.487724e+03,3.138678e+02
2.488688e+03,3.129141e+02
2.489652e+03,3.136424e+02
2.490617e+03,3.190449e+02
2.491581e+03,3.188027e+02
2.492545e+03,3.140983e+02
2.493509e+03,3.110666e+02
2.494474e+03,3.105124e+02
2.495438e+03,3.123306e+02
2.496402e+03,3.150546e+02
2.497366e+03,3.154691e+02
2.498331e+03,3.142882e+02
2.499295e+03,3.112853e+02
2.500259e+03,3.095953e+02
2.501223e+03,3.129708e+02
2.502188e+03,3.163301e+02
2.503152e+03,3.129118e+02
2.504116e+03,3.102107e+02
2.505080e+03,3.105106e+02
2.506044e+03,3.115784e+02
2.507009e+03,3.120977e+02
2.507973e+03,3.124634e+02
2.508937e+03,3.129356e+02
2.509901e+03,3.150805e+02
2.510865e+03,3.195710e+02
2.511830e+03,3.150306e+02
2.512794e+03,3.050735e+02
2.513758e+03,3.004759e+02
2.514722e+03,3.006991e+02
2.515687e+03,3.044041e+02
2.516651e+03,3.093042e+02
2.517615e+03,3.135053e+02
2.518579e+03,3.158461e+02
2.519544e+03,3.130613e+02
2.520508e+03,3.108744e+02
2.521472e+03,3.115932e+02
2.522436e+03,3.123785e+02
2.523401e+03,3.112492e+02
2.524365e+03,3.098013e+02
2.525329e+03,3.079234e+02
2.526293e+03,3.063974e+02
2.527258e+03,3.053808e+02
2.528222e+03,3.099984e+02
2.529186e+03,3.171747e+02
2.530150e+03,3.170685e+02
2.531115e+03,3.119951e+02
2.532079e+03,3.075511e+02
2.533043e+03,3.058661e+02
2.534007e+03,3.094574e+02
2.534971e+03,3.129508e+02
2.535936e+03,3.092010e+02
2.536900e+03,3.037149e+02
2.537864e+03,2.975308e+02
2.538828e+03,2.966414e+02
2.539792e+03,3.060826e+02
2.540757e+03,3.097002e+02
2.541721e+03,3.058602e+02
2.542685e+03,3.040323e+02
2.543649e+03,3.053297e+02
2.544614e+03,3.075248e+02
2.545578e+03,3.100433e+02
2.546542e+03,3.135567e+02
2.547506e+03,3.160033e+02
2.548471e+03,3.087023e+02
2.549435e+03,3.013233e+02
2.550399e+03,3.037341e+02
2.551363e+03,3.072882e+02
2.552328e+03,3.042805e+02
2.553292e+03,3.024706e+02
2.554256e+03,3.046011e+02
2.555220e+03,3.081870e+02
2.556185e+03,3.125526e+02
2.557149e+03,3.122939e+02
2.558113e+03,3.066930e+02
2.559077e+03,3.049301e+02
2.560042e+03,3.056229e+02
2.561006e+03,3.030529e+02
2.561970e+03,2.990487e+02
2.562934e+03,2.959558e+02
2.563898e+03,2.947933e+02
2.564863e+03,2.974816e+02
2.565827e+03,3.007336e+02
2.566791e+03,3.028782e+02
2.567755e+03,3.052321e+02
2.568719e+03,3.078427e+02
2.569684e+03,3.094595e+02
2.570648e+03,3.095711e+02
2.571612e+03,3.076905e+02
2.572576e+03,3.048960e+02
2.573541e+03,3.057306e+02
2.574505e+03,3.094091e+02
2.575469e+03,3.113798e+02
2.576433e+03,3.117564e+02
2.577398e+03,3.110796e+02
2.578362e+03,3.095577e+02
2.579326e+03,3.077645e+02
2.580290e+03,3.035197e+02
2.581255e+03,2.952962e+02
2.582219e+03,2.900045e+02
2.583183e+03,2.961555e+02
2.584147e+03,2.988741e+02
2.585112e+03,2.980829e+02
2.586076e+03,2.979820e+02
2.587040e+03,2.992985e+02
2.588004e+03,2.983277e+02
2.588969e+03,2.962225e+02
2.589933e+03,2.969252e+02
2.590897e+03,2.977104e+02
2.591861e+03,2.887017e+02
2.592825e+03,2.834052e+02
2.593790e+03,2.918097e+02
2.594754e+03,2.994462e+02
2.595718e+03,2.952435e+02
2.596682e+03,2.928989e+02
2.597646e+03,2.950173e+02
2.598611e+03,2.941848e+02
2.599575e+03,2.904684e+02
2.600539e+03,2.937339e+02
2.601503e+03,3.016003e+02
2.602468e+03,3.009774e+02
2.603432e+03,2.954272e+02
2.604396e+03,2.899838e+02
2.605360e+03,2.872081e+02
2.606325e+03,2.924712e+02
2.607289e+03,2.948315e+02
2.608253e+03,2.888301e+02
2.609217e+03,2.858835e+02
2.610182e+03,2.927013e+02
2.611146e+03,2.948146e+02
2.612110e+03,2.923639e+02
2.613074e+03,2.918638e+02
2.614039e+03,2.939315e+02
2.615003e+03,2.958961e+02
2.615967e+03,2.966644e+02
2.616931e+03,2.948315e+02
2.617896e+03,2.926306e+02
2.618860e+03,2.925366e+02
2.619824e+03,2.938767e+02
2.620788e+03,2.965414e+02
2.621752e+03,2.961329e+02
2.622717e+03,2.881513e+02
2.623681e+03,2.846145e+02
2.624645e+03,2.855782e+02
2.625609e+03,2.877081e+02
2.626573e+03,2.900145e+02
2.627538e+03,2.882968e+02
2.628502e+03,2.859649e+02
2.629466e+03,2.877860e+02
2.630430e+03,2.912749e+02
2.631395e+03,2.942960e+02
2.632359e+03,2.953741e+02
2.633323e+03,2.931191e+02
2.634287e+03,2.933029e+02
2.635252e+03,2.972692e+02
2.636216e+03,2.961127e+02
2.637180e+03,2.886653e+02
2.638144e+03,2.888016e+02
2.639109e+03,2.932806e+02
2.640073e+03,2.934675e+02
2.641037e+03,2.916042e+02
2.642001e+03,2.896187e+02
2.642966e+03,2.879981e+02
2.643930e+03,2.869011e+02
2.644894e+03,2.863939e+02
2.645858e+03,2.880933e+02
2.646823e+03,2.857933e+02
2.647787e+03,2.797936e+02
2.648751e+03,2.780289e+02
2.649715e+03,2.810704e+02
2.650679e+03,2.853890e+02
2.651644e+03,2.895174e+02
2.652608e+03,2.914206e+02
2.653572e+03,2.916923e+02
2.654536e+03,2.902738e+02
2.655500e+03,2.893455e+02
2.656465e+03,2.900464e+02
2.657429e+03,2.885150e+02
2.658393e+03,2.831351e+02
2.659357e+03,2.801977e+02
2.660322e+03,2.804835e+02
2.661286e+03,2.789516e+02
2.662250e+03,2.770378e+02
2.663214e+03,2.811560e+02
2.664179e+03,2.862963e+02
2.665143e+03,2.866087e+02
2.666107e+03,2.850068e+02
2.667071e+03,2.831480e+02
2.668036e+03,2.806915e+02
2.669000e+03,2.745992e+02
2.669964e+03,2.789097e+02
2.670928e+03,2.911494e+02
2.671893e+03,2.936451e+02
2.672857e+03,2.878207e+02
2.673821e+03,2.854958e+02
2.674785e+03,2.852866e+02
2.675750e+03,2.858671e+02
2.676714e+03,2.864413e+02
2.677678e+03,2.865688e+02
2.678642e+03,2.843088e+02
2.679606e+03,2.790461e+02
2.680571e+03,2.772823e+02
2.681535e+03,2.796617e+02
2.682499e+03,2.790990e+02
2.683463e+03,2.762836e+02
2.684427e+03,2.759919e+02
2.685392e+03,2.778842e+02
2.686356e+03,2.833683e+02
2.687320e+03,2.871029e+02
2.688284e+03,2.833319e+02
2.689249e+03,2.820023e+02
2.690213e+03,2.850349e+02
2.691177e+03,2.852938e+02
2.692141e+03,2.804061e+02
2.693106e+03,2.787195e+02
2.694070e+03,2.792390e+02
2.695034e+03,2.795621e+02
2.695998e+03,2.795920e+02
2.696963e+03,2.780305e+02
2.697927e+03,2.796466e+02
2.698891e+03,2.870030e+02
2.699855e+03,2.909742e+02
2.700820e+03,2.860764e+02
2.701784e+03,2.861800e+02
2.702748e+03,2.912224e+02
2.703712e+03,2.909139e+02
2.704677e+03,2.869344e+02
2.705641e+03,2.864438e+02
2.706605e+03,2.874397e+02
2.707569e+03,2.866358e+02
2.708533e+03,2.865107e+02
2.709498e+03,2.882969e+02
2.710462e+03,2.883756e+02
2.711426e+03,2.839687e+02
2.712390e+03,2.861190e+02
2.713354e+03,2.928285e+02
2.714319e+03,2.951922e+02
2.715283e+03,2.941432e+02
2.716247e+03,2.916364e+02
2.717211e+03,2.889953e+02
2.718176e+03,2.869070e+02
2.719140e+03,2.863749e+02
2.720104e+03,2.882256e+02
2.721068e+03,2.926752e+02
2.722033e+03,2.988341e+02
2.722997e+03,2.940125e+02
2.723961e+03,2.818090e+02
2.724925e+03,2.787081e+02
2.725890e+03,2.802794e+02
2.726854e+03,2.807298e+02
2.727818e+03,2.790112e+02
2.728782e+03,2.737692e+02
2.729747e+03,2.707984e+02
2.730711e+03,2.750096e+02
2.731675e+03,2.764691e+02
2.732639e+03,2.755197e+02
2.733604e+03,2.739199e+02
2.734568e+03,2.720745e+02
2.735532e+03,2.701464e+02
2.736496e+03,2.684068e+02
2.737460e+03,2.669649e+02
2.738425e+03,2.670891e+02
2.739389e+03,2.703905e+02
2.740353e+03,2.692332e+02
2.741317e+03,2.632038e+02
2.742281e+03,2.638415e+02
2.743246e+03,2.690349e+02
2.744210e+03,2.694246e+02
2.745174e+03,2.680835e+02
2.746138e+03,2.699733e+02
2.747103e+03,2.723999e+02
2.748067e+03,2.744471e+02
2.749031e+03,2.754342e+02
2.749995e+03,2.750059e+02
2.750960e+03,2.705294e+02
2.751924e+03,2.645486e+02
2.752888e+03,2.658898e+02
2.753852e+03,2.704673e+02
2.754817e+03,2.678043e+02
2.755781e+03,2.666071e+02
2.756745e+03,2.723811e+02
2.757709e+03,2.776715e+02
2.758674e+03,2.799115e+02
2.759638e+03,2.786379e+02
2.760602e+03,2.739747e+02
2.761566e+03,2.702137e+02
2.762531e+03,2.680544e+02
2.763495e+03,2.686163e+02
2.764459e+03,2.699184e+02
2.765423e+03,2.722427e+02
2.766387e+03,2.698609e+02
2.767352e+03,2.621254e+02
2.768316e+03,2.591010e+02
2.769280e+03,2.625551e+02
2.770244e+03,2.606088e+02
2.771208e+03,2.574574e+02
2.772173e+03,2.626631e+02
2.773137e+03,2.682739e+02
2.774101e+03,2.653800e+02
2.775065e+03,2.609009e+02
2.776030e+03,2.561822e+02
2.776994e+03,2.557360e+02
2.777958e+03,2.585304e+02
2.778922e+03,2.582144e+02
2.779887e+03,2.569752e+02
2.780851e+03,2.637381e+02
2.781815e+03,2.709496e+02
2.782779e+03,2.741862e+02
2.783744e+03,2.732525e+02
2.784708e+03,2.654427e+02
2.785672e+03,2.644019e+02
2.786636e+03,2.696657e+02
2.787601e+03,2.672086e+02
2.788565e+03,2.613015e+02
2.789529e+03,2.659662e+02
2.790493e+03,2.727942e+02
2.791458e+03,2.754877e+02
2.792422e+03,2.748144e+02
2.793386e+03,2.718287e+02
2.794350e+03,2.697994e+02
2.795314e+03,2.693057e+02
2.796279e+03,2.647589e+02
2.797243e+03,2.607115e+02
2.798207e+03,2.660131e+02
2.799171e+03,2.716103e+02
2.800135e+03,2.627545e+02
2.801100e+03,2.583423e+02
2.802064e+03,2.632693e+02
2.803028e+03,2.644394e+02
2.803992e+03,2.617675e+02
2.804957e+03,2.624665e+02
2.805921e+03,2.653358e+02
2.806885e+03,2.683768e+02
2.807849e+03,2.693414e+02
2.808814e+03,2.674175e+02
2.809778e+03,2.649517e+02
2.810742e+03,2.622388e+02
2.811706e+03,2.675805e+02
2.812671e+03,2.757350e+02
2.813635e+03,2.687364e+02
2.814599e+03,2.556740e+02
2.815563e+03,2.534915e+02
2.816528e+03,2.554085e+02
2.817492e+03,2.598238e+02
2.818456e+03,2.645727e+02
2.819420e+03,2.689961e+02
2.820385e+03,2.741734e+02
2.821349e+03,2.787392e+02
2.822313e+03,2.745202e+02
2.823277e+03,2.686756e+02
2.824241e+03,2.664262e+02
2.825206e+03,2.676911e+02
2.826170e+03,2.733427e+02
2.827134e+03,2.793606e+02
2.828098e+03,2.849010e+02
2.829063e+03,2.892464e+02
2.830027e+03,2.927635e+02
2.830991e+03,2.967896e+02
2.831955e+03,3.004046e+02
2.832919e+03,2.970597e+02
2.833884e+03,3.072259e+02
2.834848e+03,3.315174e+02
2.835812e+03,3.455050e+02
2.836776e+03,3.486816e+02
2.837741e+03,3.594544e+02
2.838705e+03,3.733146e+02
2.839669e+03,3.854900e+02
2.840633e+03,3.957410e+02
2.841598e+03,4.035802e+02
2.842562e+03,4.158424e+02
2.843526e+03,4.344440e+02
2.844490e+03,4.396650e+02
2.845455e+03,4.372630e+02
2.846419e+03,4.397221e+02
2.847383e+03,4.396334e+02
2.848347e+03,4.217338e+02
2.849312e+03,4.119226e+02
2.850276e+03,4.145522e+02
2.851240e+03,4.228679e+02
2.852204e+03,4.310982e+02
2.853168e+03,4.135372e+02
2.854133e+03,3.914389e+02
2.855097e+03,3.967948e+02
2.856061e+03,3.996452e+02
2.857025e+03,3.898288e+02
2.857990e+03,3.813695e+02
2.858954e+03,3.786447e+02
2.859918e+03,3.705324e+02
2.860882e+03,3.617407e+02
2.861846e+03,3.599556e+02
2.862811e+03,3.595502e+02
2.863775e+03,3.545766e+02
2.864739e+03,3.516566e+02
2.865703e+03,3.527861e+02
2.866668e+03,3.613394e+02
2.867632e+03,3.716474e+02
2.868596e+03,3.652899e+02
2.869560e+03,3.560743e+02
2.870525e+03,3.609536e+02
2.871489e+03,3.702536e+02
2.872453e+03,3.810686e+02
2.873417e+03,3.898557e+02
2.874382e+03,3.976885e+02
2.875346e+03,4.217521e+02
2.876310e+03,4.503651e+02
2.877274e+03,4.627927e+02
2.878239e+03,4.785117e+02
2.879203e+03,5.050494e+02
2.880167e+03,5.150761e+02
2.881131e+03,5.001494e+02
2.882095e+03,4.913637e+02
2.883060e+03,4.790175e+02
2.884024e+03,4.455141e+02
2.884988e+03,4.131318e+02
2.885952e+03,4.029593e+02
2.886917e+03,3.954760e+02
2.887881e+03,3.872209e+02
2.888845e+03,3.791194e+02
2.889809e+03,3.728405e+02
2.890773e+03,3.733984e+02
2.891738e+03,3.729583e+02
2.892702e+03,3.587284e+02
2.893666e+03,3.532172e+02
2.894630e+03,3.600051e+02
2.895595e+03,3.652772e+02
2.896559e+03,3.680602e+02
2.897523e+03,3.742508e+02
2.898487e+03,3.788294e+02
2.899452e+03,3.758403e+02
2.900416e+03,3.687330e+02
2.901380e+03,3.590620e+02
2.902344e+03,3.533433e+02
2.903309e+03,3.513857e+02
2.904273e+03,3.388470e+02
2.905237e+03,3.269043e+02
2.906201e+03,3.275172e+02
2.907166e+03,3.309521e+02
2.908130e+03,3.327875e+02
2.909094e+03,3.306915e+02
2.910058e+03,3.245003e+02
2.911022e+03,3.194414e+02
2.911987e+03,3.151138e+02
2.912951e+03,3.095498e+02
2.913915e+03,3.094133e+02
2.914879e+03,3.228141e+02
2.915844e+03,3.278574e+02
2.916808e+03,3.238509e+02
2.917772e+03,3.237639e+02
2.918736e+03,3.236323e+02
2.919700e+03,3.141979e+02
2.920665e+03,3.080233e+02
2.921629e+03,3.202309e+02
2.922593e+03,3.186447e+02
2.923557e+03,3.068768e+02
2.924522e+03,3.094525e+02
2.925486e+03,3.203722e+02
2.926450e+03,3.286146e+02
2.927414e+03,3.300636e+02
2.928379e+03,3.202165e+02
2.929343e+03,3.123692e+02
2.930307e+03,3.071889e+02
2.931271e+03,2.975777e+02
2.932236e+03,2.893294e+02
2.933200e+03,2.986558e+02
2.934164e+03,3.048393e+02
2.935128e+03,2.993036e+02
2.936093e+03,2.897138e+02
2.937057e+03,2.793842e+02
2.938021e+03,2.724283e+02
2.938985e+03,2.709499e+02
2.939949e+03,2.834856e+02
2.940914e+03,2.898232e+02
2.941878e+03,2.838956e+02
2.942842e+03,2.764811e+02
2.943806e+03,2.701729e+02
2.944771e+03,2.710981e+02
2.945735e+03,2.741789e+02
2.946699e+03,2.719756e+02
2.947663e+03,2.691925e+02
2.948627e+03,2.671449e+02
2.949592e+03,2.707503e+02
2.950556e+03,2.793481e+02
2.951520e+03,2.741036e+02
2.952484e+03,2.625192e+02
2.953449e+03,2.488778e+02
2.954413e+03,2.590826e+02
2.955377e+03,3.034854e+02
2.956341e+03,3.237344e+02
2.957306e+03,3.156729e+02
2.958270e+03,3.107424e+02
2.959234e+03,3.029733e+02
2.960198e+03,2.886142e+02
2.961163e+03,2.727026e+02
2.962127e+03,2.556488e+02
2.963091e+03,2.548872e+02
2.964055e+03,2.645894e+02
2.965020e+03,2.603026e+02
2.965984e+03,2.541567e+02
2.966948e+03,2.547773e+02
2.967912e+03,2.568431e+02
2.968876e+03,2.584937e+02
2.969841e+03,2.600357e+02
2.970805e+03,2.621168e+02
2.971769e+03,2.677327e+02
2.972733e+03,2.694562e+02
2.973698e+03,2.611366e+02
2.974662e+03,2.560424e+02
2.975626e+03,2.578356e+02
2.976590e+03,2.566384e+02
2.977554e+03,2.540163e+02
2.978519e+03,2.511382e+02
2.979483e+03,2.520884e+02
2.980447e+03,2.618451e+02
2.981411e+03,2.601529e+02
2.982376e+03,2.471312e+02
2.983340e+03,2.465598e+02
2.984304e+03,2.534673e+02
2.985268e+03,2.636084e+02
2.986233e+03,2.678174e+02
2.987197e+03,2.594373e+02
2.988161e+03,2.530649e+02
2.989125e+03,2.490721e+02
2.990090e+03,2.445433e+02
2.991054e+03,2.419216e+02
2.992018e+03,2.433753e+02
2.992982e+03,2.433420e+02
2.993947e+03,2.393589e+02
2.994911e+03,2.446529e+02
2.995875e+03,2.502153e+02
2.996839e+03,2.378746e+02
2.997803e+03,2.321659e+02
2.998768e+03,2.500610e+02
2.999732e+03,2.613677e+02
3.000696e+03,2.601772e+02
3.001660e+03,2.509064e+02
3.002625e+03,2.457951e+02
3.003589e+03,2.575262e+02
3.004553e+03,2.660569e+02
3.005517e+03,2.619485e+02
3.006481e+03,2.593680e+02
3.007446e+03,2.584611e+02
3.008410e+03,2.561616e+02
3.009374e+03,2.523706e+02
3.010338e+03,2.471395e+02
3.011303e+03,2.469901e+02
3.012267e+03,2.534836e+02
3.013231e+03,2.527587e+02
3.014195e+03,2.482524e+02
3.015160e+03,2.481318e+02
3.016124e+03,2.441354e+02
3.017088e+03,2.337752e+02
3.018052e+03,2.346132e+02
3.019017e+03,2.469192e+02
3.019981e+03,2.531357e+02
3.020945e+03,2.559155e+02
3.021909e+03,2.589891e+02
3.022874e+03,2.534824e+02
3.023838e+03,2.401684e+02
3.024802e+03,2.390255e+02
3.025766e+03,2.442422e+02
3.026730e+03,2.362899e+02
3.027695e+03,2.282288e+02
3.028659e+03,2.255228e+02
3.029623e+03,2.334651e+02
3.030587e+03,2.483123e+02
3.031552e+03,2.563346e+02
3.032516e+03,2.586040e+02
3.033480e+03,2.559377e+02
3.034444e+03,2.472942e+02
3.035408e+03,2.346351e+02
3.036373e+03,2.359736e+02
3.037337e+03,2.449739e+02
3.038301e+03,2.401481e+02
3.039265e+03,2.373662e+02
3.040230e+03,2.506294e+02
3.041194e+03,2.458761e+02
3.042158e+03,2.297079e+02
3.043122e+03,2.326730e+02
3.044087e+03,2.412927e+02
3.045051e+03,2.338416e+02
3.046015e+03,2.325695e+02
3.046979e+03,2.445984e+02
3.047944e+03,2.405997e+02
3.048908e+03,2.291148e+02
3.049872e+03,2.234146e+02
3.050836e+03,2.217146e+02
3.051801e+03,2.223073e+02
3.052765e+03,2.323254e+02
3.053729e+03,2.475941e+02
3.054693e+03,2.409349e+02
3.055657e+03,2.387366e+02
3.056622e+03,2.596255e+02
3.057586e+03,2.700877e+02
3.058550e+03,2.603195e+02
3.059514e+03,2.459200e+02
3.060479e+03,2.357925e+02
3.061443e+03,2.469743e+02
3.062407e+03,2.533664e+02
3.063371e+03,2.484736e+02
3.064335e+03,2.469352e+02
3.065300e+03,2.489192e+02
3.066264e+03,2.446758e+02
3.067228e+03,2.394965e+02
3.068192e+03,2.352107e+02
3.069157e+03,2.407256e+02
3.070121e+03,2.528135e+02
3.071085e+03,2.585480e+02
3.072049e+03,2.571585e+02
3.073014e+03,2.383575e+02
3.073978e+03,2.333399e+02
3.074942e+03,2.484270e+02
3.075906e+03,2.509040e+02
3.076871e+03,2.480123e+02
3.077835e+03,2.538192e+02
3.078799e+03,2.580302e+02
3.079763e+03,2.534288e+02
3.080728e+03,2.470426e+02
3.081692e+03,2.417518e+02
3.082656e+03,2.464134e+02
3.083620e+03,2.456534e+02
3.084584e+03,2.311793e+02
3.085549e+03,2.322578e+02
3.086513e+03,2.534640e+02
3.087477e+03,2.508916e+02
3.088441e+03,2.400580e+02
3.089406e+03,2.344575e+02
3.090370e+03,2.457119e+02
3.091334e+03,2.690258e+02
3.092298e+03,2.568981e+02
3.093262e+03,2.311173e+02
3.094227e+03,2.432030e+02
3.095191e+03,2.489868e+02
3.096155e+03,2.325834e+02
3.097119e+03,2.305749e+02
3.098084e+03,2.404556e+02
3.099048e+03,2.529490e+02
3.100012e+03,2.642036e+02
3.100976e+03,2.738270e+02
3.101941e+03,2.638365e+02
3.102905e+03,2.392411e+02
3.103869e+03,2.394335e+02
3.104833e+03,2.401006e+02
3.105798e+03,2.246725e+02
3.106762e+03,2.283549e+02
3.107726e+03,2.557800e+02
3.108690e+03,2.710928e+02
3.109655e+03,2.731452e+02
3.110619e+03,2.546819e+02
3.111583e+03,2.413332e+02
3.112547e+03,2.374245e+02
3.113511e+03,2.415549e+02
3.114476e+03,2.481490e+02
3.115440e+03,2.475612e+02
3.116404e+03,2.462314e+02
3.117368e+03,2.462208e+02
3.118333e+03,2.552914e+02
3.119297e+03,2.667293e+02
3.120261e+03,2.700643e+02
3.121225e+03,2.675739e+02
3.122189e+03,2.604564e+02
3.123154e+03,2.585234e+02
3.124118e+03,2.602781e+02
3.125082e+03,2.544849e+02
3.126046e+03,2.551223e+02
3.127011e+03,2.683500e+02
3.127975e+03,2.740026e+02
3.128939e+03,2.712135e+02
3.129903e+03,2.637490e+02
3.130868e+03,2.564993e+02
3.131832e+03,2.540562e+02
3.132796e+03,2.515857e+02
3.133760e+03,2.469797e+02
3.134725e+03,2.313345e+02
3.135689e+03,2.189405e+02
3.136653e+03,2.227690e+02
3.137617e+03,2.340867e+02
3.138582e+03,2.506198e+02
3.139546e+03,2.494501e+02
3.140510e+03,2.434370e+02
3.141474e+03,2.499703e+02
3.142438e+03,2.429895e+02
3.143403e+03,2.220513e+02
3.144367e+03,2.109273e+02
3.145331e+03,2.119005e+02
3.146295e+03,2.382979e+02
3.147260e+03,2.633558e+02
3.148224e+03,2.784657e+02
3.149188e+03,2.717256e+02
3.150152e+03,2.542127e+02
3.151116e+03,2.393031e+02
3.152081e+03,2.311344e+02
3.153045e+03,2.305441e+02
3.154009e+03,2.546723e+02
3.154973e+03,2.803022e+02
3.155938e+03,2.488899e+02
3.156902e+03,2.303365e+02
3.157866e+03,2.417027e+02
3.158830e+03,2.401438e+02
3.159795e+03,2.281934e+02
3.160759e+03,2.171278e+02
3.161723e+03,2.148509e+02
3.162687e+03,2.351685e+02
3.163652e+03,2.322065e+02
3.164616e+03,2.266794e+02
3.165580e+03,2.619181e+02
3.166544e+03,2.868080e+02
3.167509e+03,2.817423e+02
3.168473e+03,2.729577e+02
3.169437e+03,2.653473e+02
3.170401e+03,2.615266e+02
3.171365e+03,2.550893e+02
3.172330e+03,2.432518e+02
3.173294e+03,2.424434e+02
3.174258e+03,2.474991e+02
3.175222e+03,2.454471e+02
3.176187e+03,2.445867e+02
3.177151e+03,2.511395e+02
3.178115e+03,2.575522e+02
3.179079e+03,2.635033e+02
3.180043e+03,2.709523e+02
3.181008e+03,2.757582e+02
3.181972e+03,2.770307e+02
3.182936e+03,2.680594e+02
3.183900e+03,2.523698e+02
3.184865e+03,2.319822e+02
3.185829e+03,2.263242e+02
3.186793e+03,2.663869e+02
3.187757e+03,2.718111e+02
3.188722e+03,2.575127e+02
3.189686e+03,2.580733e+02
3.190650e+03,2.717064e+02
3.191614e+03,2.940745e+02
3.192579e+03,2.940677e+02
3.193543e+03,2.794983e+02
3.194507e+03,2.831177e+02
3.195471e+03,2.778549e+02
3.196436e+03,2.506189e+02
3.197400e+03,2.444943e+02
3.198364e+03,2.531521e+02
3.199328e+03,2.612229e+02
3.200292e+03,2.747632e+02
3.201257e+03,0.000000e+00
3.202221e+03,0.000000e+00
3.203185e+03,0.000000e+00
3.204149e+03,0.000000e+00
3.205114e+03,0.000000e+00
3.206078e+03,0.000000e+00
3.207042e+03,0.000000e+00
3.208006e+03,0.000000e+00
3.208970e+03,0.000000e+00
3.209935e+03,0.000000e+00
3.210899e+03,0.000000e+00
3.211863e+03,0.000000e+00
3.212827e+03,0.000000e+00
3.213792e+03,0.000000e+00
3.214756e+03,0.000000e+00
3.215720e+03,0.000000e+00
3.216684e+03,0.000000e+00
3.217649e+03,0.000000e+00
3.218613e+03,0.000000e+00
3.219577e+03,0.000000e+00
3.220541e+03,0.000000e+00
3.221506e+03,0.000000e+00
3.222470e+03,0.000000e+00
3.223434e+03,0.000000e+00
3.224398e+03,0.000000e+00
3.225363e+03,0.000000e+00
3.226327e+03,0.000000e+00
3.227291e+03,0.000000e+00
3.228255e+03,0.000000e+00
3.229219e+03,0.000000e+00
3.230184e+03,0.000000e+00
3.231148e+03,0.000000e+00
3.232112e+03,0.000000e+00
3.233076e+03,0.000000e+00
3.234041e+03,0.000000e+00
3.235005e+03,0.000000e+00
3.235969e+03,0.000000e+00
3.236933e+03,0.000000e+00
3.237897e+03,0.000000e+00
3.238862e+03,0.000000e+00
3.239826e+03,0.000000e+00
3.240790e+03,0.000000e+00
3.241754e+03,0.000000e+00
3.242719e+03,0.000000e+00
3.243683e+03,0.000000e+00
3.244647e+03,0.000000e+00
3.245611e+03,0.000000e+00
3.246576e+03,0.000000e+00
3.247540e+03,0.000000e+00
3.248504e+03,0.000000e+00
3.249468e+03,0.000000e+00
3.250433e+03,0.000000e+00
3.251397e+03,0.000000e+00
3.252361e+03,0.000000e+00
3.253325e+03,0.000000e+00
3.254290e+03,0.000000e+00
3.255254e+03,0.000000e+00
3.256218e+03,0.000000e+00
3.257182e+03,0.000000e+00
3.258146e+03,0.000000e+00
3.259111e+03,0.000000e+00
3.260075e+03,0.000000e+00
3.261039e+03,0.000000e+00
3.262003e+03,0.000000e+00
3.262968e+03,0.000000e+00
3.263932e+03,0.000000e+00
3.264896e+03,0.000000e+00
3.265860e+03,0.000000e+00
3.266824e+03,0.000000e+00
3.267789e+03,0.000000e+00
3.268753e+03,0.000000e+00
3.269717e+03,0.000000e+00
3.270681e+03,0.000000e+00
3.271646e+03,0.000000e+00
3.272610e+03,0.000000e+00
3.273574e+03,0.000000e+00
3.274538e+03,0.000000e+00
3.275503e+03,0.000000e+00
3.276467e+03,0.000000e+00
3.277431e+03,0.000000e+00
3.278395e+03,0.000000e+00
3.279360e+03,0.000000e+00
3.280324e+03,0.000000e+00
3.281288e+03,0.000000e+00
3.282252e+03,0.000000e+00
3.283217e+03,0.000000e+00
3.284181e+03,0.000000e+00
3.285145e+03,0.000000e+00
3.286109e+03,0.000000e+00
3.287073e+03,0.000000e+00
3.288038e+03,0.000000e+00
3.289002e+03,0.000000e+00
3.289966e+03,0.000000e+00
3.290930e+03,0.000000e+00
3.291895e+03,0.000000e+00
3.292859e+03,0.000000e+00
3.293823e+03,0.000000e+00
3.294787e+03,0.000000e+00
3.295751e+03,0.000000e+00
3.296716e+03,0.000000e+00
3.297680e+03,0.000000e+00
3.298644e+03,0.000000e+00
3.299608e+03,0.000000e+00
3.300573e+03,0.000000e+00
3.301537e+03,0.000000e+00
3.302501e+03,0.000000e+00
3.303465e+03,0.000000e+00
3.304430e+03,0.000000e+00
3.305394e+03,0.000000e+00
3.306358e+03,0.000000e+00
3.307322e+03,0.000000e+00
3.308287e+03,0.000000e+00
3.309251e+03,0.000000e+00
3.310215e+03,0.000000e+00
3.311179e+03,0.000000e+00
3.312144e+03,0.000000e+00
3.313108e+03,0.000000e+00
3.314072e+03,0.000000e+00
3.315036e+03,0.000000e+00
3.316000e+03,0.000000e+00
3.316965e+03,0.000000e+00
3.317929e+03,0.000000e+00
3.318893e+03,0.000000e+00
3.319857e+03,0.000000e+00
3.320822e+03,0.000000e+00
3.321786e+03,0.000000e+00
3.322750e+03,0.000000e+00
3.323714e+03,0.000000e+00
3.324678e+03,0.000000e+00
3.325643e+03,0.000000e+00
3.326607e+03,0.000000e+00
3.327571e+03,0.000000e+00
3.328535e+03,0.000000e+00
3.329500e+03,0.000000e+00
3.330464e+03,0.000000e+00
3.331428e+03,0.000000e+00
3.332392e+03,0.000000e+00
3.333357e+03,0.000000e+00
3.334321e+03,0.000000e+00
3.335285e+03,0.000000e+00
3.336249e+03,0.000000e+00
3.337214e+03,0.000000e+00
3.338178e+03,0.000000e+00
3.339142e+03,0.000000e+00
3.340106e+03,0.000000e+00
3.341071e+03,0.000000e+00
3.342035e+03,0.000000e+00
3.342999e+03,0.000000e+00
3.343963e+03,0.000000e+00
3.344927e+03,0.000000e+00
3.345892e+03,0.000000e+00
3.346856e+03,0.000000e+00
3.347820e+03,0.000000e+00
3.348784e+03,0.000000e+00
3.349749e+03,0.000000e+00
3.350713e+03,0.000000e+00
3.351677e+03,0.000000e+00
3.352641e+03,0.000000e+00
3.353605e+03,0.000000e+00
3.354570e+03,0.000000e+00
3.355534e+03,0.000000e+00
3.356498e+03,0.000000e+00
3.357462e+03,0.000000e+00
3.358427e+03,0.000000e+00
3.359391e+03,0.000000e+00
3.360355e+03,0.000000e+00
3.361319e+03,0.000000e+00
3.362284e+03,0.000000e+00
3.363248e+03,0.000000e+00
3.364212e+03,0.000000e+00
3.365176e+03,0.000000e+00
3.366141e+03,0.000000e+00
3.367105e+03,0.000000e+00
3.368069e+03,0.000000e+00
3.369033e+03,0.000000e+00
3.369998e+03,0.000000e+00
3.370962e+03,0.000000e+00
3.371926e+03,0.000000e+00
3.372890e+03,0.000000e+00
3.373854e+03,0.000000e+00
3.374819e+03,0.000000e+00
3.375783e+03,0.000000e+00
3.376747e+03,0.000000e+00
3.377711e+03,0.000000e+00
3.378676e+03,0.000000e+00
3.379640e+03,0.000000e+00
3.380604e+03,0.000000e+00
3.381568e+03,0.000000e+00
3.382532e+03,0.000000e+00
3.383497e+03,0.000000e+00
3.384461e+03,0.000000e+00
3.385425e+03,0.000000e+00
3.386389e+03,0.000000e+00
3.387354e+03,0.000000e+00
3.388318e+03,0.000000e+00
3.389282e+03,0.000000e+00
3.390246e+03,0.000000e+00
3.391211e+03,0.000000e+00
3.392175e+03,0.000000e+00
3.393139e+03,0.000000e+00
3.394103e+03,0.000000e+00
3.395068e+03,0.000000e+00
3.396032e+03,0.000000e+00
3.396996e+03,0.000000e+00
3.397960e+03,0.000000e+00
3.398925e+03,0.000000e+00
3.399889e+03,0.000000e+00
3.400853e+03,0.000000e+00
3.401817e+03,0.000000e+00
3.402781e+03,0.000000e+00
3.403746e+03,0.000000e+00
3.404710e+03,0.000000e+00
3.405674e+03,0.000000e+00
3.406638e+03,0.000000e+00
3.407603e+03,0.000000e+00
3.408567e+03,0.000000e+00
3.409531e+03,0.000000e+00
3.410495e+03,0.000000e+00
3.411459e+03,0.000000e+00
3.412424e+03,0.000000e+00
3.413388e+03,0.000000e+00
3.414352e+03,0.000000e+00
3.415316e+03,0.000000e+00
3.416281e+03,0.000000e+00
3.417245e+03,0.000000e+00
3.418209e+03,0.000000e+00
3.419173e+03,0.000000e+00
3.420138e+03,0.000000e+00
3.421102e+03,0.000000e+00
3.422066e+03,0.000000e+00
3.423030e+03,0.000000e+00
3.423995e+03,0.000000e+00
3.424959e+03,0.000000e+00
3.425923e+03,0.000000e+00
3.426887e+03,0.000000e+00
3.427852e+03,0.000000e+00
3.428816e+03,0.000000e+00
3.429780e+03,0.000000e+00
3.430744e+03,0.000000e+00
3.431708e+03,0.000000e+00
3.432673e+03,0.000000e+00
3.433637e+03,0.000000e+00
3.434601e+03,0.000000e+00
3.435565e+03,0.000000e+00
3.436530e+03,0.000000e+00
3.437494e+03,0.000000e+00
3.438458e+03,0.000000e+00
3.439422e+03,0.000000e+00
3.440386e+03,0.000000e+00
3.441351e+03,0.000000e+00
3.442315e+03,0.000000e+00
3.443279e+03,0.000000e+00
3.444243e+03,0.000000e+00
3.445208e+03,0.000000e+00
3.446172e+03,0.000000e+00
3.447136e+03,0.000000e+00
3.448100e+03,0.000000e+00
3.449065e+03,0.000000e+00
3.450029e+03,0.000000e+00
3.450993e+03,0.000000e+00
3.451957e+03,0.000000e+00
3.452922e+03,0.000000e+00
3.453886e+03,0.000000e+00
3.454850e+03,0.000000e+00
3.455814e+03,0.000000e+00
3.456779e+03,0.000000e+00
3.457743e+03,0.000000e+00
3.458707e+03,0.000000e+00
3.459671e+03,0.000000e+00
3.460635e+03,0.000000e+00
3.461600e+03,0.000000e+00
3.462564e+03,0.000000e+00
3.463528e+03,0.000000e+00
3.464492e+03,0.000000e+00
3.465457e+03,0.000000e+00
3.466421e+03,0.000000e+00
3.467385e+03,0.000000e+00
3.468349e+03,0.000000e+00
3.469313e+03,0.000000e+00
3.470278e+03,0.000000e+00
3.471242e+03,0.000000e+00
3.472206e+03,0.000000e+00
3.473170e+03,0.000000e+00
3.474135e+03,0.000000e+00
3.475099e+03,0.000000e+00
3.476063e+03,0.000000e+00
3.477027e+03,0.000000e+00
3.477992e+03,0.000000e+00
3.478956e+03,0.000000e+00
3.479920e+03,0.000000e+00
3.480884e+03,0.000000e+00
3.481849e+03,0.000000e+00
3.482813e+03,0.000000e+00
3.483777e+03,0.000000e+00
3.484741e+03,0.000000e+00
3.485706e+03,0.000000e+00
3.486670e+03,0.000000e+00
3.487634e+03,0.000000e+00
3.488598e+03,0.000000e+00
3.489563e+03,0.000000e+00
3.490527e+03,0.000000e+00
3.491491e+03,0.000000e+00
3.492455e+03,0.000000e+00
3.493419e+03,0.000000e+00
3.494384e+03,0.000000e+00
3.495348e+03,0.000000e+00
3.496312e+03,0.000000e+00
3.497276e+03,0.000000e+00
3.498240e+03,0.000000e+00
3.499205e+03,0.000000e+00
3.500169e+03,0.000000e+00
