9.931763e+01,0.000000e+00
1.002819e+02,0.000000e+00
1.012461e+02,0.000000e+00
1.022103e+02,0.000000e+00
1.031746e+02,0.000000e+00
1.041388e+02,0.000000e+00
1.051030e+02,0.000000e+00
1.060673e+02,0.000000e+00
1.070315e+02,0.000000e+00
1.079957e+02,0.000000e+00
1.089600e+02,0.000000e+00
1.099242e+02,0.000000e+00
1.108884e+02,0.000000e+00
1.118527e+02,0.000000e+00
1.128169e+02,0.000000e+00
1.137811e+02,0.000000e+00
1.147454e+02,0.000000e+00
1.157096e+02,0.000000e+00
1.166738e+02,0.000000e+00
1.176381e+02,0.000000e+00
1.186023e+02,0.000000e+00
1.195665e+02,0.000000e+00
1.205308e+02,0.000000e+00
1.214950e+02,0.000000e+00
1.224592e+02,0.000000e+00
1.234235e+02,0.000000e+00
1.243877e+02,0.000000e+00
1.253519e+02,0.000000e+00
1.263162e+02,0.000000e+00
1.272804e+02,0.000000e+00
1.282446e+02,0.000000e+00
1.292089e+02,0.000000e+00
1.301731e+02,0.000000e+00
1.311373e+02,0.000000e+00
1.321016e+02,0.000000e+00
1.330658e+02,0.000000e+00
1.340300e+02,0.000000e+00
1.349943e+02,0.000000e+00
1.359585e+02,0.000000e+00
1.369227e+02,0.000000e+00
1.378870e+02,0.000000e+00
1.388512e+02,0.000000e+00
1.398154e+02,0.000000e+00
1.407797e+02,0.000000e+00
1.417439e+02,0.000000e+00
1.427081e+02,0.000000e+00
1.436724e+02,0.000000e+00
1.446366e+02,0.000000e+00
1.456008e+02,0.000000e+00
1.465651e+02,0.000000e+00
1.475293e+02,0.000000e+00
1.484935e+02,0.000000e+00
1.494578e+02,0.000000e+00
1.504220e+02,0.000000e+00
1.513862e+02,0.000000e+00
1.523505e+02,0.000000e+00
1.533147e+02,0.000000e+00
1.542789e+02,0.000000e+00
1.552432e+02,0.000000e+00
1.562074e+02,0.000000e+00
1.571716e+02,0.000000e+00
1.581359e+02,0.000000e+00
1.591001e+02,0.000000e+00
1.600643e+02,0.000000e+00
1.610286e+02,0.000000e+00
1.619928e+02,0.000000e+00
1.629570e+02,0.000000e+00
1.639213e+02,0.000000e+00
1.648855e+02,0.000000e+00
1.658497e+02,0.000000e+00
1.668140e+02,0.000000e+00
1.677782e+02,0.000000e+00
1.687424e+02,0.000000e+00
1.697067e+02,0.000000e+00
1.706709e+02,0.000000e+00
1.716351e+02,0.000000e+00
1.725994e+02,0.000000e+00
1.735636e+02,0.000000e+00
1.745278e+02,0.000000e+00
1.754921e+02,0.000000e+00
1.764563e+02,0.000000e+00
1.774205e+02,0.000000e+00
1.783848e+02,0.000000e+00
1.793490e+02,0.000000e+00
1.803132e+02,0.000000e+00
1.812775e+02,0.000000e+00
1.822417e+02,0.000000e+00
1.832059e+02,0.000000e+00
1.841702e+02,0.000000e+00
1.851344e+02,0.000000e+00
1.860986e+02,0.000000e+00
1.870629e+02,0.000000e+00
1.880271e+02,0.000000e+00
1.889913e+02,0.000000e+00
1.899556e+02,0.000000e+00
1.909198e+02,0.000000e+00
1.918840e+02,0.000000e+00
1.928483e+02,0.000000e+00
1.938125e+02,0.000000e+00
1.947767e+02,0.000000e+00
1.957410e+02,0.000000e+00
1.967052e+02,0.000000e+00
1.976694e+02,0.000000e+00
1.986337e+02,0.000000e+00
1.995979e+02,2.287025e+03
2.005621e+02,2.289436e+03
2.015264e+02,2.289428e+03
2.024906e+02,2.282118e+03
2.034548e+02,2.276431e+03
2.044191e+02,2.274821e+03
2.053833e+02,2.276386e+03
2.063475e+02,2.278392e+03
2.073118e+02,2.277994e+03
2.082760e+02,2.274097e+03
2.092402e+02,2.271204e+03
2.102045e+02,2.271222e+03
2.111687e+02,2.272987e+03
2.121329e+02,2.275397e+03
2.130972e+02,2.277512e+03
2.140614e+02,2.279245e+03
2.150256e+02,2.281522e+03
2.159899e+02,2.285292e+03
2.169541e+02,2.288762e+03
2.179183e+02,2.291884e+03
2.188826e+02,2.294332e+03
2.198468e+02,2.295842e+03
2.208110e+02,2.295578e+03
2.217753e+02,2.293317e+03
2.227395e+02,2.290955e+03
2.237037e+02,2.289211e+03
2.246680e+02,2.288916e+03
2.256322e+02,2.290681e+03
2.265964e+02,2.297104e+03
2.275607e+02,2.304210e+03
2.285249e+02,2.306853e+03
2.294892e+02,2.304323e+03
2.304534e+02,2.301156e+03
2.314176e+02,2.298973e+03
2.323819e+02,2.297219e+03
2.333461e+02,2.295620e+03
2.343103e+02,2.294001e+03
2.352746e+02,2.293072e+03
2.362388e+02,2.293648e+03
2.372030e+02,2.295531e+03
2.381673e+02,2.297693e+03
2.391315e+02,2.299917e+03
2.400957e+02,2.305574e+03
2.410600e+02,2.309425e+03
2.420242e+02,2.308718e+03
2.429884e+02,2.304964e+03
2.439527e+02,2.301867e+03
2.449169e+02,2.301189e+03
2.458811e+02,2.302875e+03
2.468454e+02,2.303394e+03
2.478096e+02,2.300780e+03
2.487738e+02,2.298396e+03
2.497381e+02,2.299195e+03
2.507023e+02,2.303653e+03
2.516665e+02,2.309410e+03
2.526308e+02,2.312482e+03
2.535950e+02,2.308386e+03
2.545592e+02,2.304860e+03
2.555235e+02,2.302498e+03
2.564877e+02,2.301365e+03
2.574519e+02,2.301971e+03
2.584161e+02,2.305274e+03
2.593804e+02,2.311211e+03
2.603446e+02,2.315424e+03
2.613088e+02,2.314195e+03
2.622731e+02,2.312991e+03
2.632373e+02,2.312939e+03
2.642015e+02,2.313719e+03
2.651658e+02,2.315084e+03
2.661300e+02,2.318400e+03
2.670942e+02,2.325228e+03
2.680585e+02,2.329615e+03
2.690227e+02,2.328835e+03
2.699869e+02,2.325816e+03
2.709512e+02,2.322000e+03
2.719154e+02,2.317855e+03
2.728796e+02,2.314601e+03
2.738439e+02,2.314359e+03
2.748081e+02,2.318500e+03
2.757723e+02,2.323559e+03
2.767366e+02,2.325019e+03
2.777008e+02,2.322855e+03
2.786650e+02,2.320480e+03
2.796293e+02,2.319892e+03
2.805935e+02,2.320614e+03
2.815577e+02,2.321197e+03
2.825220e+02,2.321075e+03
2.834862e+02,2.320269e+03
2.844504e+02,2.319230e+03
2.854147e+02,2.318304e+03
2.863789e+02,2.317719e+03
2.873431e+02,2.318157e+03
2.883074e+02,2.319803e+03
2.892716e+02,2.322422e+03
2.902358e+02,2.325762e+03
2.912001e+02,2.329537e+03
2.921643e+02,2.330166e+03
2.931285e+02,2.324588e+03
2.940928e+02,2.319943e+03
2.950570e+02,2.320104e+03
2.960212e+02,2.324259e+03
2.969855e+02,2.328370e+03
2.979497e+02,2.327549e+03
2.989139e+02,2.318676e+03
2.998782e+02,2.314024e+03
3.008424e+02,2.317245e+03
3.018066e+02,2.324052e+03
3.027709e+02,2.331351e+03
3.037351e+02,2.338220e+03
3.046993e+02,2.343096e+03
3.056636e+02,2.343036e+03
3.066278e+02,2.336671e+03
3.075920e+02,2.329619e+03
3.085563e+02,2.322556e+03
3.095205e+02,2.316837e+03
3.104847e+02,2.315010e+03
3.114490e+02,2.320172e+03
3.124132e+02,2.328841e+03
3.133774e+02,2.334358e+03
3.143417e+02,2.335166e+03
3.153059e+02,2.333371e+03
3.162701e+02,2.332642e+03
3.172344e+02,2.334390e+03
3.181986e+02,2.335563e+03
3.191628e+02,2.334775e+03
3.201271e+02,2.332973e+03
3.210913e+02,2.331661e+03
3.220555e+02,2.331289e+03
3.230198e+02,2.331672e+03
3.239840e+02,2.332726e+03
3.249482e+02,2.334481e+03
3.259125e+02,2.336512e+03
3.268767e+02,2.339451e+03
3.278409e+02,2.342852e+03
3.288052e+02,2.345453e+03
3.297694e+02,2.345771e+03
3.307336e+02,2.343181e+03
3.316979e+02,2.341384e+03
3.326621e+02,2.341612e+03
3.336263e+02,2.341303e+03
3.345906e+02,2.339169e+03
3.355548e+02,2.335542e+03
3.365190e+02,2.332399e+03
3.374833e+02,2.331539e+03
3.384475e+02,2.332944e+03
3.394117e+02,2.334938e+03
3.403760e+02,2.335691e+03
3.413402e+02,2.336208e+03
3.423044e+02,2.338572e+03
3.432687e+02,2.346632e+03
3.442329e+02,2.354345e+03
3.451971e+02,2.354314e+03
3.461614e+02,2.345762e+03
3.471256e+02,2.335687e+03
3.480898e+02,2.330929e+03
3.490541e+02,2.334680e+03
3.500183e+02,2.336391e+03
3.509825e+02,2.334798e+03
3.519468e+02,2.333002e+03
3.529110e+02,2.333119e+03
3.538752e+02,2.335230e+03
3.548395e+02,2.337917e+03
3.558037e+02,2.339375e+03
3.567680e+02,2.338946e+03
3.577322e+02,2.338459e+03
3.586964e+02,2.338901e+03
3.596607e+02,2.340174e+03
3.606249e+02,2.341396e+03
3.615891e+02,2.340879e+03
3.625534e+02,2.338905e+03
3.635176e+02,2.338491e+03
3.644818e+02,2.341862e+03
3.654461e+02,2.344181e+03
3.664103e+02,2.341953e+03
3.673745e+02,2.337179e+03
3.683388e+02,2.335094e+03
3.693030e+02,2.337347e+03
3.702672e+02,2.341690e+03
3.712315e+02,2.345277e+03
3.721957e+02,2.347270e+03
3.731599e+02,2.348427e+03
3.741242e+02,2.350767e+03
3.750884e+02,2.358348e+03
3.760526e+02,2.364462e+03
3.770169e+02,2.368168e+03
3.779811e+02,2.369750e+03
3.789453e+02,2.369377e+03
3.799096e+02,2.366869e+03
3.808738e+02,2.362335e+03
3.818380e+02,2.356683e+03
3.828023e+02,2.349149e+03
3.837665e+02,2.343784e+03
3.847307e+02,2.342249e+03
3.856950e+02,2.343320e+03
3.866592e+02,2.344067e+03
3.876234e+02,2.341702e+03
3.885877e+02,2.337490e+03
3.895519e+02,2.335878e+03
3.905161e+02,2.338197e+03
3.914804e+02,2.340412e+03
3.924446e+02,2.337838e+03
3.934088e+02,2.330067e+03
3.943731e+02,2.322876e+03
3.953373e+02,2.316793e+03
3.963015e+02,2.312214e+03
3.972658e+02,2.309842e+03
3.982300e+02,2.310253e+03
3.991942e+02,2.313759e+03
4.001585e+02,2.319445e+03
4.011227e+02,2.331625e+03
4.020869e+02,2.339193e+03
4.030512e+02,2.336438e+03
4.040154e+02,2.327876e+03
4.049796e+02,2.320958e+03
4.059439e+02,2.320124e+03
4.069081e+02,2.324127e+03
4.078723e+02,2.329609e+03
4.088366e+02,2.338475e+03
4.098008e+02,2.343569e+03
4.107650e+02,2.339027e+03
4.117293e+02,2.326048e+03
4.126935e+02,2.315995e+03
4.136577e+02,2.314277e+03
4.146220e+02,2.317278e+03
4.155862e+02,2.319847e+03
4.165504e+02,2.320912e+03
4.175147e+02,2.321812e+03
4.184789e+02,2.324554e+03
4.194431e+02,2.334147e+03
4.204074e+02,2.339164e+03
4.213716e+02,2.336073e+03
4.223358e+02,2.329523e+03
4.233001e+02,2.324414e+03
4.242643e+02,2.323218e+03
4.252285e+02,2.324620e+03
4.261928e+02,2.325205e+03
4.271570e+02,2.324697e+03
4.281212e+02,2.324542e+03
4.290855e+02,2.325198e+03
4.300497e+02,2.326146e+03
4.310139e+02,2.326662e+03
4.319782e+02,2.325980e+03
4.329424e+02,2.325601e+03
4.339066e+02,2.328040e+03
4.348709e+02,2.333242e+03
4.358351e+02,2.336821e+03
4.367993e+02,2.333917e+03
4.377636e+02,2.319602e+03
4.387278e+02,2.312366e+03
4.396920e+02,2.319402e+03
4.406563e+02,2.329078e+03
4.416205e+02,2.332433e+03
4.425847e+02,2.327166e+03
4.435490e+02,2.318709e+03
4.445132e+02,2.314749e+03
4.454774e+02,2.316555e+03
4.464417e+02,2.318532e+03
4.474059e+02,2.318374e+03
4.483701e+02,2.317316e+03
4.493344e+02,2.317392e+03
4.502986e+02,2.320377e+03
4.512628e+02,2.324062e+03
4.522271e+02,2.327343e+03
4.531913e+02,2.330089e+03
4.541555e+02,2.331743e+03
4.551198e+02,2.331852e+03
4.560840e+02,2.330526e+03
4.570482e+02,2.327562e+03
4.580125e+02,2.322073e+03
4.589767e+02,2.317845e+03
4.599409e+02,2.315615e+03
4.609052e+02,2.314604e+03
4.618694e+02,2.313702e+03
4.628336e+02,2.312474e+03
4.637979e+02,2.311101e+03
4.647621e+02,2.309790e+03
4.657263e+02,2.309137e+03
4.666906e+02,2.309445e+03
4.676548e+02,2.310293e+03
4.686190e+02,2.311796e+03
4.695833e+02,2.311968e+03
4.705475e+02,2.308583e+03
4.715117e+02,2.303543e+03
4.724760e+02,2.300073e+03
4.734402e+02,2.299499e+03
4.744044e+02,2.300538e+03
4.753687e+02,2.299779e+03
4.763329e+02,2.294782e+03
4.772971e+02,2.291930e+03
4.782614e+02,2.293090e+03
4.792256e+02,2.296619e+03
4.801898e+02,2.300348e+03
4.811541e+02,2.303501e+03
4.821183e+02,2.305753e+03
4.830826e+02,2.307127e+03
4.840468e+02,2.307500e+03
4.850110e+02,2.305196e+03
4.859753e+02,2.298094e+03
4.869395e+02,2.285609e+03
4.879037e+02,2.279293e+03
4.888680e+02,2.284578e+03
4.898322e+02,2.291706e+03
4.907964e+02,2.296229e+03
4.917607e+02,2.297857e+03
4.927249e+02,2.297861e+03
4.936891e+02,2.296555e+03
4.946534e+02,2.293695e+03
4.956176e+02,2.292555e+03
4.965818e+02,2.294405e+03
4.975461e+02,2.297238e+03
4.985103e+02,2.299346e+03
4.994745e+02,2.300443e+03
5.004388e+02,2.299713e+03
5.014030e+02,2.296505e+03
5.023672e+02,2.292077e+03
5.033315e+02,2.287899e+03
5.042957e+02,2.284220e+03
5.052599e+02,2.281011e+03
5.062242e+02,2.278914e+03
5.071884e+02,2.278943e+03
5.081526e+02,2.279593e+03
5.091169e+02,2.280620e+03
5.100811e+02,2.282741e+03
5.110453e+02,2.286698e+03
5.120095e+02,2.295209e+03
5.129738e+02,2.303517e+03
5.139380e+02,2.304047e+03
5.149022e+02,2.297010e+03
5.158665e+02,2.290437e+03
5.168307e+02,2.287971e+03
5.177949e+02,2.288393e+03
5.187592e+02,2.287196e+03
5.197234e+02,2.286618e+03
5.206876e+02,2.286021e+03
5.216519e+02,2.285213e+03
5.226161e+02,2.284279e+03
5.235803e+02,2.283073e+03
5.245446e+02,2.280490e+03
5.255088e+02,2.276990e+03
5.264730e+02,2.276488e+03
5.274373e+02,2.280512e+03
5.284015e+02,2.284956e+03
5.293657e+02,2.286130e+03
5.303300e+02,2.284344e+03
5.312942e+02,2.279768e+03
5.322584e+02,2.269933e+03
5.332227e+02,2.260181e+03
5.341869e+02,2.255232e+03
5.351511e+02,2.255568e+03
5.361154e+02,2.258434e+03
5.370796e+02,2.260960e+03
5.380438e+02,2.263510e+03
5.390081e+02,2.265559e+03
5.399723e+02,2.266237e+03
5.409365e+02,2.267302e+03
5.419008e+02,2.270111e+03
5.428650e+02,2.275695e+03
5.438292e+02,2.279630e+03
5.447935e+02,2.278837e+03
5.457577e+02,2.274829e+03
5.467219e+02,2.270597e+03
5.476862e+02,2.267316e+03
5.486504e+02,2.264816e+03
5.496146e+02,2.262927e+03
5.505789e+02,2.262721e+03
5.515431e+02,2.261173e+03
5.525073e+02,2.256713e+03
5.534716e+02,2.252299e+03
5.544358e+02,2.251109e+03
5.554000e+02,2.256010e+03
5.563643e+02,2.262034e+03
5.573285e+02,2.264187e+03
5.582927e+02,2.262581e+03
5.592570e+02,2.259655e+03
5.602212e+02,2.256856e+03
5.611854e+02,2.254017e+03
5.621497e+02,2.252950e+03
5.631139e+02,2.255594e+03
5.640781e+02,2.257115e+03
5.650424e+02,2.256854e+03
5.660066e+02,2.255099e+03
5.669708e+02,2.252520e+03
5.679351e+02,2.249869e+03
5.688993e+02,2.246991e+03
5.698635e+02,2.242211e+03
5.708278e+02,2.235310e+03
5.717920e+02,2.231149e+03
5.727562e+02,2.234508e+03
5.737205e+02,2.248870e+03
5.746847e+02,2.256854e+03
5.756489e+02,2.254285e+03
5.766132e+02,2.248849e+03
5.775774e+02,2.244215e+03
5.785416e+02,2.241116e+03
5.795059e+02,2.239373e+03
5.804701e+02,2.239555e+03
5.814343e+02,2.241075e+03
5.823986e+02,2.242304e+03
5.833628e+02,2.243242e+03
5.843270e+02,2.243542e+03
5.852913e+02,2.242551e+03
5.862555e+02,2.239855e+03
5.872197e+02,2.236376e+03
5.881840e+02,2.228251e+03
5.891482e+02,2.221081e+03
5.901124e+02,2.220535e+03
5.910767e+02,2.228996e+03
5.920409e+02,2.239247e+03
5.930051e+02,2.243887e+03
5.939694e+02,2.243538e+03
5.949336e+02,2.242770e+03
5.958978e+02,2.243292e+03
5.968621e+02,2.243847e+03
5.978263e+02,2.241681e+03
5.987905e+02,2.233909e+03
5.997548e+02,2.227426e+03
6.007190e+02,2.221204e+03
6.016832e+02,2.217529e+03
6.026475e+02,2.219309e+03
6.036117e+02,2.229685e+03
6.045759e+02,2.241233e+03
6.055402e+02,2.244597e+03
6.065044e+02,2.240221e+03
6.074686e+02,2.234531e+03
6.084329e+02,2.230620e+03
6.093971e+02,2.228290e+03
6.103613e+02,2.225463e+03
6.113256e+02,2.220562e+03
6.122899e+02,2.217135e+03
6.132541e+02,2.216177e+03
6.142183e+02,2.216980e+03
6.151826e+02,2.218517e+03
6.161468e+02,2.222415e+03
6.171110e+02,2.226434e+03
6.180753e+02,2.226911e+03
6.190395e+02,2.223922e+03
6.200037e+02,2.219929e+03
6.209680e+02,2.216030e+03
6.219322e+02,2.212580e+03
6.228964e+02,2.210644e+03
6.238607e+02,2.209982e+03
6.248249e+02,2.210863e+03
6.257891e+02,2.214196e+03
6.267534e+02,2.218355e+03
6.277176e+02,2.220159e+03
6.286818e+02,2.218163e+03
6.296461e+02,2.214460e+03
6.306103e+02,2.210679e+03
6.315745e+02,2.207081e+03
6.325388e+02,2.203810e+03
6.335030e+02,2.199989e+03
6.344672e+02,2.195111e+03
6.354315e+02,2.195278e+03
6.363957e+02,2.205719e+03
6.373599e+02,2.214119e+03
6.383242e+02,2.213787e+03
6.392884e+02,2.205971e+03
6.402526e+02,2.199578e+03
6.412169e+02,2.197362e+03
6.421811e+02,2.197613e+03
6.431453e+02,2.200274e+03
6.441096e+02,2.204608e+03
6.450738e+02,2.207462e+03
6.460380e+02,2.205253e+03
6.470023e+02,2.198280e+03
6.479665e+02,2.194172e+03
6.489307e+02,2.192885e+03
6.498950e+02,2.193316e+03
6.508592e+02,2.195302e+03
6.518234e+02,2.198906e+03
6.527877e+02,2.200245e+03
6.537519e+02,2.197771e+03
6.547161e+02,2.193850e+03
6.556804e+02,2.189461e+03
6.566446e+02,2.185176e+03
6.576088e+02,2.182314e+03
6.585731e+02,2.183309e+03
6.595373e+02,2.187238e+03
6.605015e+02,2.188425e+03
6.614658e+02,2.185916e+03
6.624300e+02,2.181938e+03
6.633942e+02,2.178336e+03
6.643585e+02,2.174290e+03
6.653227e+02,2.172623e+03
6.662869e+02,2.174575e+03
6.672512e+02,2.177244e+03
6.682154e+02,2.179191e+03
6.691796e+02,2.179890e+03
6.701439e+02,2.179469e+03
6.711081e+02,2.177935e+03
6.720723e+02,2.175475e+03
6.730366e+02,2.172290e+03
6.740008e+02,2.168597e+03
6.749650e+02,2.165356e+03
6.759293e+02,2.164207e+03
6.768935e+02,2.167221e+03
6.778577e+02,2.167086e+03
6.788220e+02,2.160173e+03
6.797862e+02,2.154090e+03
6.807504e+02,2.154096e+03
6.817147e+02,2.161299e+03
6.826789e+02,2.166075e+03
6.836431e+02,2.161931e+03
6.846074e+02,2.154113e+03
6.855716e+02,2.148774e+03
6.865358e+02,2.147483e+03
6.875001e+02,2.148297e+03
6.884643e+02,2.149214e+03
6.894285e+02,2.150315e+03
6.903928e+02,2.151237e+03
6.913570e+02,2.151629e+03
6.923212e+02,2.151726e+03
6.932855e+02,2.152274e+03
6.942497e+02,2.155448e+03
6.952139e+02,2.156429e+03
6.961782e+02,2.151570e+03
6.971424e+02,2.146371e+03
6.981066e+02,2.144954e+03
6.990709e+02,2.147306e+03
7.000351e+02,2.148816e+03
7.009993e+02,2.146601e+03
7.019636e+02,2.142583e+03
7.029278e+02,2.139554e+03
7.038920e+02,2.137822e+03
7.048563e+02,2.136633e+03
7.058205e+02,2.136114e+03
7.067847e+02,2.138100e+03
7.077490e+02,2.137230e+03
7.087132e+02,2.130520e+03
7.096774e+02,2.125248e+03
7.106417e+02,2.126080e+03
7.116059e+02,2.134375e+03
7.125701e+02,2.140694e+03
7.135344e+02,2.141095e+03
7.144986e+02,2.140098e+03
7.154628e+02,2.142608e+03
7.164271e+02,2.148811e+03
7.173913e+02,2.153047e+03
7.183555e+02,2.146906e+03
7.193198e+02,2.133012e+03
7.202840e+02,2.126072e+03
7.212482e+02,2.129285e+03
7.222125e+02,2.135561e+03
7.231767e+02,2.136878e+03
7.241409e+02,2.129586e+03
7.251052e+02,2.125808e+03
7.260694e+02,2.129238e+03
7.270336e+02,2.133017e+03
7.279979e+02,2.134075e+03
7.289621e+02,2.132024e+03
7.299263e+02,2.128541e+03
7.308906e+02,2.121199e+03
7.318548e+02,2.114053e+03
7.328190e+02,2.113160e+03
7.337833e+02,2.118583e+03
7.347475e+02,2.124130e+03
7.357117e+02,2.123351e+03
7.366760e+02,2.117305e+03
7.376402e+02,2.113437e+03
7.386044e+02,2.112376e+03
7.395687e+02,2.113004e+03
7.405329e+02,2.114420e+03
7.414971e+02,2.117184e+03
7.424614e+02,2.117681e+03
7.434256e+02,2.115912e+03
7.443898e+02,2.114243e+03
7.453541e+02,2.112135e+03
7.463183e+02,2.108854e+03
7.472825e+02,2.106473e+03
7.482468e+02,2.108077e+03
7.492110e+02,2.110143e+03
7.501752e+02,2.109874e+03
7.511395e+02,2.107911e+03
7.521037e+02,2.105007e+03
7.530679e+02,2.099500e+03
7.540322e+02,2.091771e+03
7.549964e+02,2.089566e+03
7.559606e+02,2.094616e+03
7.569249e+02,2.101063e+03
7.578891e+02,2.105710e+03
7.588533e+02,2.108787e+03
7.598176e+02,2.110669e+03
7.607818e+02,2.107934e+03
7.617460e+02,2.104035e+03
7.627103e+02,2.101246e+03
7.636745e+02,2.099912e+03
7.646387e+02,2.098290e+03
7.656030e+02,2.093257e+03
7.665672e+02,2.089340e+03
7.675314e+02,2.091142e+03
7.684957e+02,2.095797e+03
7.694599e+02,2.097325e+03
7.704241e+02,2.092472e+03
7.713884e+02,2.084278e+03
7.723526e+02,2.079552e+03
7.733168e+02,2.079055e+03
7.742811e+02,2.079574e+03
7.752453e+02,2.077838e+03
7.762095e+02,2.074283e+03
7.771738e+02,2.075624e+03
7.781380e+02,2.088000e+03
7.791022e+02,2.095901e+03
7.800665e+02,2.095365e+03
7.810307e+02,2.089593e+03
7.819949e+02,2.083577e+03
7.829592e+02,2.078399e+03
7.839234e+02,2.074687e+03
7.848876e+02,2.072631e+03
7.858519e+02,2.071577e+03
7.868161e+02,2.070796e+03
7.877803e+02,2.069970e+03
7.887446e+02,2.069269e+03
7.897088e+02,2.069815e+03
7.906730e+02,2.072092e+03
7.916373e+02,2.074754e+03
7.926015e+02,2.076727e+03
7.935657e+02,2.076007e+03
7.945300e+02,2.069968e+03
7.954942e+02,2.054993e+03
7.964584e+02,2.046701e+03
7.974227e+02,2.054972e+03
7.983869e+02,2.069337e+03
7.993511e+02,2.074468e+03
8.003154e+02,2.062698e+03
8.012796e+02,2.052266e+03
8.022438e+02,2.047092e+03
8.032081e+02,2.045623e+03
8.041723e+02,2.047076e+03
8.051365e+02,2.051077e+03
8.061008e+02,2.054713e+03
8.070650e+02,2.054340e+03
8.080292e+02,2.051853e+03
8.089935e+02,2.053090e+03
8.099577e+02,2.059225e+03
8.109219e+02,2.063558e+03
8.118862e+02,2.055206e+03
8.128504e+02,2.034848e+03
8.138146e+02,2.025982e+03
8.147789e+02,2.032658e+03
8.157431e+02,2.041053e+03
8.167073e+02,2.039791e+03
8.176716e+02,2.027302e+03
8.186358e+02,2.020563e+03
8.196000e+02,2.022787e+03
8.205643e+02,2.027607e+03
8.215285e+02,2.032539e+03
8.224927e+02,2.037225e+03
8.234570e+02,2.040802e+03
8.244212e+02,2.045006e+03
8.253854e+02,2.046499e+03
8.263497e+02,2.039637e+03
8.273139e+02,2.027091e+03
8.282781e+02,2.017742e+03
8.292424e+02,2.020294e+03
8.302066e+02,2.028435e+03
8.311708e+02,2.033646e+03
8.321351e+02,2.035929e+03
8.330993e+02,2.034778e+03
8.340635e+02,2.028807e+03
8.350278e+02,2.019798e+03
8.359920e+02,2.013091e+03
8.369562e+02,2.008402e+03
8.379205e+02,2.008560e+03
8.388847e+02,2.017197e+03
8.398489e+02,2.029691e+03
8.408132e+02,2.033661e+03
8.417774e+02,2.019660e+03
8.427416e+02,2.009890e+03
8.437059e+02,2.010576e+03
8.446701e+02,2.014510e+03
8.456343e+02,2.013764e+03
8.465986e+02,2.003350e+03
8.475628e+02,1.995597e+03
8.485270e+02,1.996670e+03
8.494913e+02,2.001261e+03
8.504555e+02,2.004274e+03
8.514197e+02,2.004705e+03
8.523840e+02,2.004922e+03
8.533482e+02,2.006517e+03
8.543124e+02,2.008677e+03
8.552767e+02,2.010656e+03
8.562409e+02,2.012124e+03
8.572051e+02,2.012151e+03
8.581694e+02,2.009375e+03
8.591336e+02,2.004442e+03
8.600978e+02,2.002197e+03
8.610621e+02,2.003705e+03
8.620263e+02,2.005571e+03
8.629905e+02,2.004531e+03
8.639548e+02,1.999640e+03
8.649190e+02,1.995837e+03
8.658832e+02,1.995051e+03
8.668475e+02,1.994723e+03
8.678117e+02,1.993378e+03
8.687759e+02,1.991110e+03
8.697402e+02,1.989832e+03
8.707044e+02,1.990609e+03
8.716686e+02,1.989236e+03
8.726329e+02,1.982972e+03
8.735971e+02,1.975262e+03
8.745613e+02,1.971605e+03
8.755256e+02,1.977335e+03
8.764898e+02,1.985114e+03
8.774540e+02,1.990539e+03
8.784183e+02,1.993747e+03
8.793825e+02,1.994928e+03
8.803467e+02,1.993859e+03
8.813110e+02,1.991891e+03
8.822752e+02,1.990859e+03
8.832394e+02,1.990975e+03
8.842037e+02,1.991629e+03
8.851679e+02,1.992191e+03
8.861321e+02,1.992177e+03
8.870964e+02,1.991021e+03
8.880606e+02,1.988473e+03
8.890248e+02,1.987090e+03
8.899891e+02,1.988367e+03
8.909533e+02,1.990401e+03
8.919175e+02,1.991015e+03
8.928818e+02,1.990018e+03
8.938460e+02,1.988214e+03
8.948102e+02,1.983894e+03
8.957745e+02,1.979605e+03
8.967387e+02,1.977249e+03
8.977029e+02,1.976291e+03
8.986672e+02,1.974801e+03
8.996314e+02,1.974597e+03
9.005956e+02,1.974051e+03
9.015599e+02,1.970926e+03
9.025241e+02,1.966248e+03
9.034883e+02,1.963396e+03
9.044526e+02,1.965581e+03
9.054168e+02,1.967104e+03
9.063810e+02,1.966573e+03
9.073453e+02,1.964720e+03
9.083095e+02,1.960312e+03
9.092737e+02,1.950345e+03
9.102380e+02,1.941097e+03
9.112022e+02,1.941697e+03
9.121664e+02,1.948590e+03
9.131307e+02,1.953699e+03
9.140949e+02,1.955426e+03
9.150591e+02,1.955373e+03
9.160234e+02,1.953480e+03
9.169876e+02,1.949015e+03
9.179518e+02,1.944826e+03
9.189161e+02,1.941556e+03
9.198803e+02,1.937735e+03
9.208445e+02,1.931382e+03
9.218088e+02,1.922161e+03
9.227730e+02,1.919420e+03
9.237372e+02,1.925120e+03
9.247015e+02,1.931854e+03
9.256657e+02,1.934960e+03
9.266299e+02,1.934146e+03
9.275942e+02,1.933894e+03
9.285584e+02,1.934854e+03
9.295226e+02,1.934727e+03
9.304869e+02,1.932062e+03
9.314511e+02,1.928105e+03
9.324153e+02,1.925928e+03
9.333796e+02,1.928135e+03
9.343438e+02,1.929286e+03
9.353080e+02,1.926921e+03
9.362723e+02,1.921964e+03
9.372365e+02,1.916343e+03
9.382007e+02,1.909890e+03
9.391650e+02,1.906868e+03
9.401292e+02,1.913312e+03
9.410934e+02,1.921974e+03
9.420577e+02,1.922677e+03
9.430219e+02,1.912201e+03
9.439861e+02,1.902044e+03
9.449504e+02,1.903737e+03
9.459146e+02,1.911300e+03
9.468788e+02,1.914823e+03
9.478431e+02,1.912307e+03
9.488073e+02,1.907890e+03
9.497715e+02,1.906338e+03
9.507358e+02,1.906582e+03
9.517000e+02,1.905237e+03
9.526642e+02,1.903027e+03
9.536285e+02,1.902368e+03
9.545927e+02,1.905097e+03
9.555569e+02,1.909684e+03
9.565212e+02,1.911146e+03
9.574854e+02,1.910081e+03
9.584496e+02,1.908734e+03
9.594139e+02,1.906847e+03
9.603781e+02,1.904593e+03
9.613423e+02,1.904272e+03
9.623066e+02,1.906736e+03
9.632708e+02,1.907461e+03
9.642350e+02,1.905443e+03
9.651993e+02,1.902640e+03
9.661635e+02,1.900973e+03
9.671277e+02,1.899807e+03
9.680920e+02,1.899867e+03
9.690562e+02,1.903296e+03
9.700204e+02,1.905346e+03
9.709847e+02,1.902415e+03
9.719489e+02,1.893680e+03
9.729131e+02,1.887418e+03
9.738774e+02,1.884448e+03
9.748416e+02,1.883973e+03
9.758058e+02,1.886125e+03
9.767701e+02,1.889731e+03
9.777343e+02,1.891719e+03
9.786985e+02,1.889792e+03
9.796628e+02,1.887740e+03
9.806270e+02,1.888399e+03
9.815912e+02,1.889707e+03
9.825555e+02,1.888241e+03
9.835197e+02,1.881927e+03
9.844839e+02,1.876011e+03
9.854482e+02,1.871937e+03
9.864124e+02,1.870082e+03
9.873766e+02,1.871102e+03
9.883409e+02,1.875787e+03
9.893051e+02,1.879764e+03
9.902693e+02,1.879313e+03
9.912336e+02,1.877542e+03
9.921978e+02,1.877339e+03
9.931620e+02,1.878335e+03
9.941263e+02,1.878613e+03
9.950905e+02,1.876429e+03
9.960547e+02,1.873483e+03
9.970190e+02,1.871991e+03
9.979832e+02,1.871456e+03
9.989474e+02,1.870482e+03
9.999117e+02,1.869366e+03
1.000876e+03,1.867608e+03
1.001840e+03,1.862967e+03
1.002804e+03,1.856966e+03
1.003769e+03,1.853579e+03
1.004733e+03,1.854031e+03
1.005697e+03,1.855508e+03
1.006661e+03,1.853025e+03
1.007626e+03,1.848112e+03
1.008590e+03,1.848015e+03
1.009554e+03,1.853831e+03
1.010518e+03,1.860002e+03
1.011482e+03,1.861250e+03
1.012447e+03,1.857815e+03
1.013411e+03,1.850447e+03
1.014375e+03,1.839616e+03
1.015339e+03,1.832027e+03
1.016304e+03,1.832792e+03
1.017268e+03,1.839949e+03
1.018232e+03,1.842684e+03
1.019196e+03,1.840149e+03
1.020161e+03,1.837884e+03
1.021125e+03,1.838734e+03
1.022089e+03,1.841653e+03
1.023053e+03,1.841951e+03
1.024018e+03,1.837939e+03
1.024982e+03,1.836669e+03
1.025946e+03,1.840389e+03
1.026910e+03,1.844372e+03
1.027875e+03,1.842963e+03
1.028839e+03,1.834841e+03
1.029803e+03,1.830076e+03
1.030767e+03,1.829479e+03
1.031731e+03,1.831331e+03
1.032696e+03,1.834940e+03
1.033660e+03,1.840349e+03
1.034624e+03,1.841479e+03
1.035588e+03,1.835584e+03
1.036552e+03,1.831596e+03
1.037517e+03,1.833325e+03
1.038481e+03,1.838702e+03
1.039445e+03,1.841999e+03
1.040409e+03,1.843555e+03
1.041374e+03,1.842508e+03
1.042338e+03,1.837455e+03
1.043302e+03,1.831315e+03
1.044266e+03,1.827445e+03
1.045231e+03,1.826848e+03
1.046195e+03,1.826216e+03
1.047159e+03,1.826823e+03
1.048123e+03,1.827060e+03
1.049088e+03,1.825410e+03
1.050052e+03,1.822024e+03
1.051016e+03,1.820367e+03
1.051980e+03,1.821088e+03
1.052945e+03,1.822436e+03
1.053909e+03,1.823084e+03
1.054873e+03,1.822473e+03
1.055837e+03,1.821751e+03
1.056802e+03,1.822319e+03
1.057766e+03,1.822437e+03
1.058730e+03,1.822604e+03
1.059694e+03,1.822221e+03
1.060658e+03,1.819942e+03
1.061623e+03,1.813409e+03
1.062587e+03,1.810220e+03
1.063551e+03,1.815012e+03
1.064515e+03,1.820685e+03
1.065479e+03,1.821186e+03
1.066444e+03,1.816052e+03
1.067408e+03,1.813629e+03
1.068372e+03,1.817124e+03
1.069336e+03,1.821547e+03
1.070301e+03,1.825140e+03
1.071265e+03,1.826865e+03
1.072229e+03,1.825486e+03
1.073193e+03,1.816414e+03
1.074158e+03,1.809396e+03
1.075122e+03,1.808605e+03
1.076086e+03,1.810580e+03
1.077050e+03,1.811651e+03
1.078015e+03,1.812533e+03
1.078979e+03,1.812506e+03
1.079943e+03,1.808471e+03
1.080907e+03,1.805177e+03
1.081872e+03,1.805834e+03
1.082836e+03,1.810228e+03
1.083800e+03,1.814475e+03
1.084764e+03,1.818919e+03
1.085729e+03,1.822831e+03
1.086693e+03,1.824950e+03
1.087657e+03,1.825906e+03
1.088621e+03,1.827768e+03
1.089585e+03,1.832525e+03
1.090550e+03,1.835428e+03
1.091514e+03,1.835886e+03
1.092478e+03,1.835071e+03
1.093442e+03,1.833826e+03
1.094406e+03,1.832407e+03
1.095371e+03,1.830764e+03
1.096335e+03,1.827845e+03
1.097299e+03,1.824842e+03
1.098263e+03,1.822922e+03
1.099228e+03,1.821806e+03
1.100192e+03,1.819405e+03
1.101156e+03,1.813999e+03
1.102120e+03,1.808361e+03
1.103085e+03,1.803132e+03
1.104049e+03,1.798690e+03
1.105013e+03,1.795677e+03
1.105977e+03,1.796149e+03
1.106942e+03,1.795804e+03
1.107906e+03,1.791993e+03
1.108870e+03,1.788529e+03
1.109834e+03,1.789760e+03
1.110799e+03,1.798262e+03
1.111763e+03,1.802369e+03
1.112727e+03,1.796180e+03
1.113691e+03,1.790286e+03
1.114656e+03,1.789715e+03
1.115620e+03,1.794011e+03
1.116584e+03,1.798945e+03
1.117548e+03,1.807021e+03
1.118512e+03,1.810887e+03
1.119477e+03,1.806355e+03
1.120441e+03,1.797689e+03
1.121405e+03,1.791576e+03
1.122369e+03,1.789875e+03
1.123334e+03,1.788221e+03
1.124298e+03,1.789089e+03
1.125262e+03,1.788444e+03
1.126226e+03,1.782385e+03
1.127191e+03,1.769937e+03
1.128155e+03,1.762180e+03
1.129119e+03,1.760569e+03
1.130083e+03,1.760857e+03
1.131047e+03,1.762007e+03
1.132012e+03,1.763345e+03
1.132976e+03,1.764171e+03
1.133940e+03,1.765738e+03
1.134904e+03,1.763732e+03
1.135869e+03,1.755592e+03
1.136833e+03,1.746844e+03
1.137797e+03,1.744066e+03
1.138761e+03,1.750028e+03
1.139726e+03,1.753470e+03
1.140690e+03,1.753110e+03
1.141654e+03,1.752095e+03
1.142618e+03,1.752020e+03
1.143583e+03,1.752880e+03
1.144547e+03,1.753861e+03
1.145511e+03,1.755100e+03
1.146475e+03,1.755491e+03
1.147439e+03,1.754127e+03
1.148404e+03,1.752753e+03
1.149368e+03,1.754591e+03
1.150332e+03,1.759996e+03
1.151296e+03,1.762694e+03
1.152261e+03,1.761186e+03
1.153225e+03,1.756228e+03
1.154189e+03,1.748792e+03
1.155153e+03,1.740098e+03
1.156118e+03,1.734869e+03
1.157082e+03,1.733744e+03
1.158046e+03,1.733757e+03
1.159010e+03,1.733333e+03
1.159974e+03,1.731769e+03
1.160939e+03,1.725501e+03
1.161903e+03,1.715582e+03
1.162867e+03,1.712484e+03
1.163831e+03,1.718509e+03
1.164796e+03,1.726545e+03
1.165760e+03,1.730195e+03
1.166724e+03,1.730466e+03
1.167688e+03,1.728516e+03
1.168653e+03,1.724831e+03
1.169617e+03,1.721708e+03
1.170581e+03,1.721682e+03
1.171545e+03,1.722181e+03
1.172510e+03,1.718297e+03
1.173474e+03,1.712084e+03
1.174438e+03,1.707611e+03
1.175402e+03,1.705852e+03
1.176366e+03,1.706106e+03
1.177331e+03,1.709376e+03
1.178295e+03,1.713771e+03
1.179259e+03,1.717098e+03
1.180223e+03,1.718659e+03
1.181188e+03,1.718159e+03
1.182152e+03,1.714102e+03
1.183116e+03,1.709398e+03
1.184080e+03,1.705669e+03
1.185045e+03,1.703571e+03
1.186009e+03,1.704073e+03
1.186973e+03,1.710288e+03
1.187937e+03,1.714124e+03
1.188901e+03,1.709909e+03
1.189866e+03,1.703310e+03
1.190830e+03,1.698071e+03
1.191794e+03,1.694309e+03
1.192758e+03,1.692527e+03
1.193723e+03,1.694942e+03
1.194687e+03,1.698448e+03
1.195651e+03,1.702827e+03
1.196615e+03,1.706900e+03
1.197580e+03,1.707878e+03
1.198544e+03,1.702119e+03
1.199508e+03,1.696382e+03
1.200472e+03,1.691401e+03
1.201437e+03,1.687943e+03
1.202401e+03,1.686983e+03
1.203365e+03,1.689195e+03
1.204329e+03,1.692625e+03
1.205293e+03,1.698742e+03
1.206258e+03,1.701385e+03
1.207222e+03,1.696071e+03
1.208186e+03,1.686310e+03
1.209150e+03,1.684373e+03
1.210115e+03,1.690817e+03
1.211079e+03,1.693847e+03
1.212043e+03,1.691034e+03
1.213007e+03,1.686537e+03
1.213972e+03,1.686892e+03
1.214936e+03,1.691091e+03
1.215900e+03,1.688766e+03
1.216864e+03,1.680224e+03
1.217828e+03,1.672806e+03
1.218793e+03,1.671055e+03
1.219757e+03,1.672539e+03
1.220721e+03,1.673428e+03
1.221685e+03,1.674231e+03
1.222650e+03,1.675775e+03
1.223614e+03,1.677790e+03
1.224578e+03,1.679051e+03
1.225542e+03,1.678420e+03
1.226507e+03,1.677659e+03
1.227471e+03,1.679096e+03
1.228435e+03,1.681757e+03
1.229399e+03,1.682639e+03
1.230364e+03,1.680239e+03
1.231328e+03,1.676638e+03
1.232292e+03,1.673075e+03
1.233256e+03,1.670173e+03
1.234220e+03,1.667671e+03
1.235185e+03,1.665734e+03
1.236149e+03,1.664896e+03
1.237113e+03,1.665962e+03
1.238077e+03,1.667949e+03
1.239042e+03,1.669964e+03
1.240006e+03,1.671047e+03
1.240970e+03,1.669460e+03
1.241934e+03,1.662277e+03
1.242899e+03,1.657713e+03
1.243863e+03,1.659321e+03
1.244827e+03,1.662955e+03
1.245791e+03,1.662137e+03
1.246755e+03,1.655419e+03
1.247720e+03,1.653475e+03
1.248684e+03,1.657698e+03
1.249648e+03,1.661853e+03
1.250612e+03,1.661389e+03
1.251577e+03,1.657750e+03
1.252541e+03,1.656594e+03
1.253505e+03,1.657430e+03
1.254469e+03,1.657844e+03
1.255434e+03,1.657435e+03
1.256398e+03,1.656922e+03
1.257362e+03,1.656639e+03
1.258326e+03,1.656105e+03
1.259291e+03,1.654369e+03
1.260255e+03,1.651618e+03
1.261219e+03,1.650046e+03
1.262183e+03,1.655224e+03
1.263147e+03,1.659803e+03
1.264112e+03,1.655390e+03
1.265076e+03,1.647459e+03
1.266040e+03,1.644292e+03
1.267004e+03,1.649692e+03
1.267969e+03,1.653724e+03
1.268933e+03,1.653129e+03
1.269897e+03,1.651844e+03
1.270861e+03,1.650450e+03
1.271826e+03,1.648022e+03
1.272790e+03,1.646642e+03
1.273754e+03,1.647395e+03
1.274718e+03,1.648750e+03
1.275682e+03,1.652671e+03
1.276647e+03,1.655923e+03
1.277611e+03,1.652996e+03
1.278575e+03,1.642450e+03
1.279539e+03,1.634999e+03
1.280504e+03,1.631618e+03
1.281468e+03,1.631887e+03
1.282432e+03,1.635893e+03
1.283396e+03,1.641986e+03
1.284361e+03,1.646471e+03
1.285325e+03,1.649116e+03
1.286289e+03,1.650467e+03
1.287253e+03,1.650545e+03
1.288218e+03,1.649465e+03
1.289182e+03,1.647621e+03
1.290146e+03,1.645035e+03
1.291110e+03,1.641646e+03
1.292074e+03,1.637785e+03
1.293039e+03,1.633807e+03
1.294003e+03,1.627471e+03
1.294967e+03,1.623279e+03
1.295931e+03,1.626031e+03
1.296896e+03,1.631142e+03
1.297860e+03,1.633279e+03
1.298824e+03,1.630794e+03
1.299788e+03,1.628511e+03
1.300753e+03,1.626326e+03
1.301717e+03,1.624325e+03
1.302681e+03,1.622381e+03
1.303645e+03,1.620816e+03
1.304609e+03,1.620987e+03
1.305574e+03,1.622739e+03
1.306538e+03,1.622608e+03
1.307502e+03,1.620721e+03
1.308466e+03,1.618453e+03
1.309431e+03,1.616285e+03
1.310395e+03,1.614446e+03
1.311359e+03,1.613587e+03
1.312323e+03,1.612965e+03
1.313288e+03,1.612129e+03
1.314252e+03,1.611726e+03
1.315216e+03,1.611905e+03
1.316180e+03,1.611328e+03
1.317145e+03,1.611537e+03
1.318109e+03,1.614885e+03
1.319073e+03,1.620783e+03
1.320037e+03,1.624341e+03
1.321001e+03,1.622018e+03
1.321966e+03,1.619109e+03
1.322930e+03,1.617950e+03
1.323894e+03,1.618651e+03
1.324858e+03,1.620471e+03
1.325823e+03,1.625319e+03
1.326787e+03,1.626110e+03
1.327751e+03,1.620175e+03
1.328715e+03,1.614857e+03
1.329680e+03,1.615806e+03
1.330644e+03,1.621321e+03
1.331608e+03,1.623703e+03
1.332572e+03,1.622946e+03
1.333536e+03,1.620662e+03
1.334501e+03,1.616907e+03
1.335465e+03,1.612538e+03
1.336429e+03,1.608894e+03
1.337393e+03,1.606180e+03
1.338358e+03,1.604072e+03
1.339322e+03,1.602749e+03
1.340286e+03,1.602871e+03
1.341250e+03,1.607212e+03
1.342215e+03,1.610047e+03
1.343179e+03,1.608480e+03
1.344143e+03,1.605947e+03
1.345107e+03,1.605118e+03
1.346072e+03,1.606000e+03
1.347036e+03,1.606984e+03
1.348000e+03,1.607818e+03
1.348964e+03,1.608395e+03
1.349928e+03,1.609683e+03
1.350893e+03,1.610838e+03
1.351857e+03,1.607483e+03
1.352821e+03,1.599575e+03
1.353785e+03,1.596174e+03
1.354750e+03,1.598239e+03
1.355714e+03,1.600430e+03
1.356678e+03,1.598210e+03
1.357642e+03,1.594829e+03
1.358607e+03,1.594719e+03
1.359571e+03,1.596254e+03
1.360535e+03,1.595878e+03
1.361499e+03,1.591590e+03
1.362464e+03,1.589019e+03
1.363428e+03,1.593071e+03
1.364392e+03,1.598299e+03
1.365356e+03,1.600405e+03
1.366320e+03,1.598582e+03
1.367285e+03,1.594553e+03
1.368249e+03,1.586781e+03
1.369213e+03,1.582525e+03
1.370177e+03,1.584092e+03
1.371142e+03,1.587448e+03
1.372106e+03,1.587712e+03
1.373070e+03,1.585407e+03
1.374034e+03,1.584797e+03
1.374999e+03,1.586066e+03
1.375963e+03,1.587000e+03
1.376927e+03,1.586213e+03
1.377891e+03,1.584844e+03
1.378855e+03,1.583448e+03
1.379820e+03,1.582127e+03
1.380784e+03,1.581223e+03
1.381748e+03,1.581221e+03
1.382712e+03,1.581707e+03
1.383677e+03,1.583566e+03
1.384641e+03,1.582871e+03
1.385605e+03,1.575768e+03
1.386569e+03,1.566805e+03
1.387534e+03,1.563456e+03
1.388498e+03,1.566928e+03
1.389462e+03,1.571284e+03
1.390426e+03,1.576479e+03
1.391391e+03,1.577565e+03
1.392355e+03,1.570266e+03
1.393319e+03,1.559606e+03
1.394283e+03,1.553738e+03
1.395247e+03,1.551949e+03
1.396212e+03,1.553743e+03
1.397176e+03,1.559156e+03
1.398140e+03,1.565084e+03
1.399104e+03,1.571331e+03
1.400069e+03,1.575199e+03
1.401033e+03,1.574499e+03
1.401997e+03,1.570195e+03
1.402961e+03,1.564920e+03
1.403926e+03,1.556706e+03
1.404890e+03,1.552291e+03
1.405854e+03,1.553201e+03
1.406818e+03,1.555924e+03
1.407782e+03,1.558399e+03
1.408747e+03,1.560837e+03
1.409711e+03,1.562534e+03
1.410675e+03,1.562636e+03
1.411639e+03,1.561052e+03
1.412604e+03,1.557897e+03
1.413568e+03,1.554256e+03
1.414532e+03,1.551269e+03
1.415496e+03,1.548938e+03
1.416461e+03,1.546064e+03
1.417425e+03,1.542756e+03
1.418389e+03,1.541149e+03
1.419353e+03,1.545596e+03
1.420318e+03,1.545370e+03
1.421282e+03,1.537434e+03
1.422246e+03,1.529985e+03
1.423210e+03,1.530543e+03
1.424174e+03,1.537598e+03
1.425139e+03,1.538590e+03
1.426103e+03,1.533813e+03
1.427067e+03,1.529027e+03
1.428031e+03,1.526042e+03
1.428996e+03,1.525268e+03
1.429960e+03,1.529720e+03
1.430924e+03,1.534047e+03
1.431888e+03,1.531265e+03
1.432853e+03,1.522863e+03
1.433817e+03,1.517463e+03
1.434781e+03,1.520479e+03
1.435745e+03,1.522479e+03
1.436709e+03,1.521276e+03
1.437674e+03,1.518913e+03
1.438638e+03,1.518107e+03
1.439602e+03,1.518930e+03
1.440566e+03,1.516630e+03
1.441531e+03,1.511523e+03
1.442495e+03,1.508771e+03
1.443459e+03,1.510306e+03
1.444423e+03,1.513174e+03
1.445388e+03,1.515850e+03
1.446352e+03,1.516795e+03
1.447316e+03,1.514444e+03
1.448280e+03,1.509702e+03
1.449245e+03,1.504842e+03
1.450209e+03,1.495608e+03
1.451173e+03,1.493946e+03
1.452137e+03,1.504368e+03
1.453101e+03,1.515740e+03
1.454066e+03,1.517358e+03
1.455030e+03,1.510857e+03
1.455994e+03,1.509331e+03
1.456958e+03,1.511943e+03
1.457923e+03,1.513024e+03
1.458887e+03,1.509622e+03
1.459851e+03,1.505734e+03
1.460815e+03,1.503549e+03
1.461780e+03,1.503139e+03
1.462744e+03,1.507462e+03
1.463708e+03,1.515506e+03
1.464672e+03,1.518137e+03
1.465636e+03,1.511582e+03
1.466601e+03,1.507718e+03
1.467565e+03,1.508599e+03
1.468529e+03,1.510779e+03
1.469493e+03,1.510457e+03
1.470458e+03,1.508052e+03
1.471422e+03,1.507454e+03
1.472386e+03,1.508134e+03
1.473350e+03,1.506724e+03
1.474315e+03,1.501017e+03
1.475279e+03,1.495600e+03
1.476243e+03,1.494194e+03
1.477207e+03,1.492924e+03
1.478172e+03,1.488412e+03
1.479136e+03,1.482091e+03
1.480100e+03,1.480496e+03
1.481064e+03,1.486167e+03
1.482028e+03,1.486195e+03
1.482993e+03,1.478204e+03
1.483957e+03,1.470415e+03
1.484921e+03,1.471127e+03
1.485885e+03,1.476056e+03
1.486850e+03,1.476634e+03
1.487814e+03,1.474464e+03
1.488778e+03,1.474493e+03
1.489742e+03,1.479671e+03
1.490707e+03,1.482156e+03
1.491671e+03,1.478094e+03
1.492635e+03,1.473880e+03
1.493599e+03,1.471316e+03
1.494563e+03,1.469987e+03
1.495528e+03,1.470573e+03
1.496492e+03,1.472685e+03
1.497456e+03,1.471224e+03
1.498420e+03,1.466203e+03
1.499385e+03,1.461965e+03
1.500349e+03,1.462346e+03
1.501313e+03,1.464483e+03
1.502277e+03,1.466506e+03
1.503242e+03,1.467861e+03
1.504206e+03,1.467607e+03
1.505170e+03,1.464565e+03
1.506134e+03,1.462873e+03
1.507099e+03,1.463317e+03
1.508063e+03,1.463554e+03
1.509027e+03,1.463003e+03
1.509991e+03,1.461038e+03
1.510955e+03,1.454294e+03
1.511920e+03,1.446049e+03
1.512884e+03,1.446006e+03
1.513848e+03,1.454014e+03
1.514812e+03,1.460225e+03
1.515777e+03,1.456656e+03
1.516741e+03,1.452398e+03
1.517705e+03,1.448458e+03
1.518669e+03,1.446787e+03
1.519634e+03,1.451052e+03
1.520598e+03,1.460339e+03
1.521562e+03,1.459593e+03
1.522526e+03,1.449193e+03
1.523490e+03,1.442549e+03
1.524455e+03,1.444832e+03
1.525419e+03,1.448743e+03
1.526383e+03,1.449161e+03
1.527347e+03,1.447005e+03
1.528312e+03,1.442391e+03
1.529276e+03,1.436786e+03
1.530240e+03,1.433233e+03
1.531204e+03,1.430672e+03
1.532169e+03,1.432649e+03
1.533133e+03,1.440786e+03
1.534097e+03,1.447241e+03
1.535061e+03,1.444061e+03
1.536026e+03,1.436821e+03
1.536990e+03,1.437372e+03
1.537954e+03,1.442063e+03
1.538918e+03,1.443762e+03
1.539882e+03,1.440444e+03
1.540847e+03,1.436394e+03
1.541811e+03,1.430037e+03
1.542775e+03,1.426021e+03
1.543739e+03,1.426849e+03
1.544704e+03,1.430420e+03
1.545668e+03,1.433402e+03
1.546632e+03,1.435926e+03
1.547596e+03,1.437939e+03
1.548561e+03,1.439366e+03
1.549525e+03,1.440052e+03
1.550489e+03,1.439457e+03
1.551453e+03,1.437745e+03
1.552417e+03,1.433117e+03
1.553382e+03,1.428980e+03
1.554346e+03,1.428745e+03
1.555310e+03,1.432155e+03
1.556274e+03,1.435549e+03
1.557239e+03,1.438694e+03
1.558203e+03,1.436781e+03
1.559167e+03,1.428259e+03
1.560131e+03,1.421346e+03
1.561096e+03,1.425911e+03
1.562060e+03,1.433058e+03
1.563024e+03,1.436365e+03
1.563988e+03,1.436223e+03
1.564953e+03,1.433973e+03
1.565917e+03,1.428032e+03
1.566881e+03,1.426121e+03
1.567845e+03,1.428633e+03
1.568809e+03,1.430128e+03
1.569774e+03,1.427389e+03
1.570738e+03,1.423217e+03
1.571702e+03,1.421085e+03
1.572666e+03,1.419901e+03
1.573631e+03,1.418307e+03
1.574595e+03,1.416586e+03
1.575559e+03,1.415785e+03
1.576523e+03,1.416321e+03
1.577488e+03,1.417414e+03
1.578452e+03,1.418274e+03
1.579416e+03,1.418736e+03
1.580380e+03,1.418915e+03
1.581344e+03,1.419090e+03
1.582309e+03,1.421034e+03
1.583273e+03,1.423460e+03
1.584237e+03,1.422627e+03
1.585201e+03,1.415727e+03
1.586166e+03,1.410248e+03
1.587130e+03,1.406541e+03
1.588094e+03,1.404324e+03
1.589058e+03,1.404287e+03
1.590023e+03,1.405400e+03
1.590987e+03,1.404315e+03
1.591951e+03,1.403045e+03
1.592915e+03,1.406758e+03
1.593880e+03,1.414294e+03
1.594844e+03,1.417836e+03
1.595808e+03,1.410066e+03
1.596772e+03,1.404071e+03
1.597736e+03,1.403321e+03
1.598701e+03,1.404741e+03
1.599665e+03,1.405706e+03
1.600629e+03,1.406245e+03
1.601593e+03,1.406992e+03
1.602558e+03,1.407413e+03
1.603522e+03,1.405807e+03
1.604486e+03,1.401466e+03
1.605450e+03,1.395779e+03
1.606415e+03,1.386914e+03
1.607379e+03,1.381126e+03
1.608343e+03,1.381355e+03
1.609307e+03,1.384456e+03
1.610271e+03,1.384373e+03
1.611236e+03,1.382175e+03
1.612200e+03,1.385394e+03
1.613164e+03,1.393310e+03
1.614128e+03,1.397627e+03
1.615093e+03,1.388635e+03
1.616057e+03,1.382217e+03
1.617021e+03,1.386508e+03
1.617985e+03,1.391125e+03
1.618950e+03,1.390169e+03
1.619914e+03,1.385007e+03
1.620878e+03,1.380151e+03
1.621842e+03,1.375835e+03
1.622807e+03,1.371731e+03
1.623771e+03,1.368029e+03
1.624735e+03,1.367564e+03
1.625699e+03,1.375093e+03
1.626663e+03,1.380698e+03
1.627628e+03,1.378846e+03
1.628592e+03,1.374847e+03
1.629556e+03,1.378473e+03
1.630520e+03,1.387897e+03
1.631485e+03,1.385787e+03
1.632449e+03,1.374598e+03
1.633413e+03,1.366208e+03
1.634377e+03,1.366637e+03
1.635342e+03,1.367269e+03
1.636306e+03,1.363383e+03
1.637270e+03,1.361191e+03
1.638234e+03,1.364762e+03
1.639198e+03,1.370397e+03
1.640163e+03,1.366795e+03
1.641127e+03,1.357595e+03
1.642091e+03,1.354490e+03
1.643055e+03,1.357581e+03
1.644020e+03,1.359480e+03
1.644984e+03,1.352067e+03
1.645948e+03,1.349516e+03
1.646912e+03,1.358158e+03
1.647877e+03,1.366997e+03
1.648841e+03,1.366476e+03
1.649805e+03,1.359384e+03
1.650769e+03,1.352066e+03
1.651734e+03,1.345548e+03
1.652698e+03,1.343075e+03
1.653662e+03,1.345370e+03
1.654626e+03,1.349152e+03
1.655590e+03,1.357596e+03
1.656555e+03,1.359833e+03
1.657519e+03,1.351346e+03
1.658483e+03,1.341126e+03
1.659447e+03,1.342198e+03
1.660412e+03,1.348742e+03
1.661376e+03,1.352084e+03
1.662340e+03,1.352125e+03
1.663304e+03,1.349251e+03
1.664269e+03,1.337670e+03
1.665233e+03,1.332323e+03
1.666197e+03,1.334348e+03
1.667161e+03,1.338287e+03
1.668125e+03,1.342801e+03
1.669090e+03,1.345434e+03
1.670054e+03,1.340731e+03
1.671018e+03,1.332876e+03
1.671982e+03,1.327019e+03
1.672947e+03,1.324011e+03
1.673911e+03,1.323891e+03
1.674875e+03,1.326654e+03
1.675839e+03,1.329205e+03
1.676804e+03,1.331948e+03
1.677768e+03,1.333187e+03
1.678732e+03,1.328178e+03
1.679696e+03,1.322940e+03
1.680661e+03,1.325056e+03
1.681625e+03,1.328831e+03
1.682589e+03,1.326033e+03
1.683553e+03,1.316663e+03
1.684517e+03,1.314375e+03
1.685482e+03,1.318736e+03
1.686446e+03,1.321762e+03
1.687410e+03,1.320615e+03
1.688374e+03,1.320095e+03
1.689339e+03,1.327351e+03
1.690303e+03,1.332238e+03
1.691267e+03,1.326429e+03
1.692231e+03,1.316250e+03
1.693196e+03,1.311245e+03
1.694160e+03,1.310614e+03
1.695124e+03,1.312471e+03
1.696088e+03,1.316314e+03
1.697052e+03,1.319344e+03
1.698017e+03,1.320470e+03
1.698981e+03,1.317829e+03
1.699945e+03,1.306492e+03
1.700909e+03,1.297615e+03
1.701874e+03,1.299075e+03
1.702838e+03,1.306618e+03
1.703802e+03,1.311146e+03
1.704766e+03,1.312086e+03
1.705731e+03,1.308592e+03
1.706695e+03,1.301266e+03
1.707659e+03,1.295200e+03
1.708623e+03,1.290319e+03
1.709588e+03,1.291642e+03
1.710552e+03,1.300624e+03
1.711516e+03,1.306924e+03
1.712480e+03,1.296832e+03
1.713444e+03,1.284233e+03
1.714409e+03,1.287605e+03
1.715373e+03,1.298007e+03
1.716337e+03,1.301474e+03
1.717301e+03,1.297844e+03
1.718266e+03,1.294602e+03
1.719230e+03,1.291483e+03
1.720194e+03,1.290538e+03
1.721158e+03,1.292451e+03
1.722123e+03,1.293653e+03
1.723087e+03,1.291175e+03
1.724051e+03,1.287793e+03
1.725015e+03,1.284990e+03
1.725979e+03,1.282653e+03
1.726944e+03,1.279555e+03
1.727908e+03,1.276265e+03
1.728872e+03,1.275550e+03
1.729836e+03,1.276485e+03
1.730801e+03,1.277117e+03
1.731765e+03,1.276948e+03
1.732729e+03,1.276633e+03
1.733693e+03,1.276137e+03
1.734658e+03,1.275952e+03
1.735622e+03,1.276157e+03
1.736586e+03,1.276681e+03
1.737550e+03,1.279419e+03
1.738515e+03,1.281139e+03
1.739479e+03,1.276317e+03
1.740443e+03,1.266321e+03
1.741407e+03,1.261172e+03
1.742371e+03,1.261454e+03
1.743336e+03,1.261699e+03
1.744300e+03,1.261404e+03
1.745264e+03,1.261847e+03
1.746228e+03,1.266104e+03
1.747193e+03,1.269927e+03
1.748157e+03,1.271926e+03
1.749121e+03,1.272949e+03
1.750085e+03,1.271849e+03
1.751050e+03,1.268313e+03
1.752014e+03,1.264762e+03
1.752978e+03,1.261622e+03
1.753942e+03,1.258951e+03
1.754906e+03,1.256523e+03
1.755871e+03,1.255347e+03
1.756835e+03,1.255690e+03
1.757799e+03,1.254192e+03
1.758763e+03,1.251043e+03
1.759728e+03,1.250015e+03
1.760692e+03,1.256616e+03
1.761656e+03,1.264654e+03
1.762620e+03,1.268858e+03
1.763585e+03,1.268993e+03
1.764549e+03,1.264982e+03
1.765513e+03,1.256493e+03
1.766477e+03,1.248346e+03
1.767442e+03,1.241119e+03
1.768406e+03,1.236377e+03
1.769370e+03,1.234859e+03
1.770334e+03,1.234678e+03
1.771298e+03,1.233210e+03
1.772263e+03,1.234928e+03
1.773227e+03,1.243089e+03
1.774191e+03,1.251219e+03
1.775155e+03,1.248363e+03
1.776120e+03,1.240908e+03
1.777084e+03,1.238591e+03
1.778048e+03,1.240278e+03
1.779012e+03,1.241477e+03
1.779977e+03,1.242138e+03
1.780941e+03,1.242646e+03
1.781905e+03,1.242401e+03
1.782869e+03,1.239584e+03
1.783833e+03,1.232022e+03
1.784798e+03,1.226565e+03
1.785762e+03,1.229375e+03
1.786726e+03,1.232995e+03
1.787690e+03,1.234264e+03
1.788655e+03,1.233990e+03
1.789619e+03,1.232799e+03
1.790583e+03,1.231076e+03
1.791547e+03,1.228715e+03
1.792512e+03,1.226260e+03
1.793476e+03,1.226033e+03
1.794440e+03,1.229186e+03
1.795404e+03,1.228236e+03
1.796369e+03,1.222190e+03
1.797333e+03,1.219228e+03
1.798297e+03,1.226638e+03
1.799261e+03,1.234534e+03
1.800225e+03,1.239033e+03
1.801190e+03,1.236467e+03
1.802154e+03,1.222527e+03
1.803118e+03,1.203492e+03
1.804082e+03,1.196980e+03
1.805047e+03,1.199345e+03
1.806011e+03,1.201885e+03
1.806975e+03,1.203619e+03
1.807939e+03,1.207952e+03
1.808904e+03,1.216860e+03
1.809868e+03,1.220912e+03
1.810832e+03,1.219461e+03
1.811796e+03,1.215098e+03
1.812760e+03,1.205467e+03
1.813725e+03,1.198207e+03
1.814689e+03,1.201253e+03
1.815653e+03,1.206111e+03
1.816617e+03,1.206341e+03
1.817582e+03,1.203422e+03
1.818546e+03,1.201634e+03
1.819510e+03,1.200278e+03
1.820474e+03,1.197492e+03
1.821439e+03,1.193297e+03
1.822403e+03,1.192805e+03
1.823367e+03,1.197566e+03
1.824331e+03,1.199608e+03
1.825296e+03,1.197229e+03
1.826260e+03,1.194543e+03
1.827224e+03,1.197491e+03
1.828188e+03,1.199808e+03
1.829152e+03,1.194643e+03
1.830117e+03,1.189615e+03
1.831081e+03,1.192370e+03
1.832045e+03,1.198852e+03
1.833009e+03,1.198209e+03
1.833974e+03,1.194129e+03
1.834938e+03,1.191974e+03
1.835902e+03,1.192481e+03
1.836866e+03,1.189257e+03
1.837831e+03,1.181814e+03
1.838795e+03,1.176316e+03
1.839759e+03,1.174583e+03
1.840723e+03,1.174852e+03
1.841688e+03,1.176045e+03
1.842652e+03,1.177821e+03
1.843616e+03,1.179576e+03
1.844580e+03,1.181000e+03
1.845544e+03,1.183087e+03
1.846509e+03,1.184880e+03
1.847473e+03,1.184606e+03
1.848437e+03,1.182311e+03
1.849401e+03,1.176978e+03
1.850366e+03,1.168948e+03
1.851330e+03,1.165597e+03
1.852294e+03,1.166891e+03
1.853258e+03,1.169855e+03
1.854223e+03,1.173923e+03
1.855187e+03,1.176781e+03
1.856151e+03,1.176854e+03
1.857115e+03,1.174677e+03
1.858079e+03,1.169376e+03
1.859044e+03,1.164670e+03
1.860008e+03,1.167245e+03
1.860972e+03,1.170794e+03
1.861936e+03,1.167887e+03
1.862901e+03,1.162326e+03
1.863865e+03,1.159124e+03
1.864829e+03,1.157277e+03
1.865793e+03,1.154859e+03
1.866758e+03,1.152412e+03
1.867722e+03,1.150072e+03
1.868686e+03,1.147215e+03
1.869650e+03,1.147973e+03
1.870615e+03,1.153309e+03
1.871579e+03,1.154554e+03
1.872543e+03,1.149459e+03
1.873507e+03,1.146057e+03
1.874471e+03,1.154165e+03
1.875436e+03,1.158761e+03
1.876400e+03,1.151114e+03
1.877364e+03,1.141621e+03
1.878328e+03,1.143473e+03
1.879293e+03,1.150774e+03
1.880257e+03,1.153562e+03
1.881221e+03,1.151853e+03
1.882185e+03,1.145265e+03
1.883150e+03,1.134161e+03
1.884114e+03,1.130826e+03
1.885078e+03,1.133904e+03
1.886042e+03,1.135824e+03
1.887006e+03,1.133992e+03
1.887971e+03,1.134778e+03
1.888935e+03,1.144036e+03
1.889899e+03,1.147824e+03
1.890863e+03,1.141279e+03
1.891828e+03,1.133657e+03
1.892792e+03,1.136057e+03
1.893756e+03,1.140412e+03
1.894720e+03,1.143244e+03
1.895685e+03,1.143958e+03
1.896649e+03,1.138808e+03
1.897613e+03,1.130077e+03
1.898577e+03,1.126917e+03
1.899542e+03,1.127950e+03
1.900506e+03,1.131056e+03
1.901470e+03,1.136283e+03
1.902434e+03,1.131597e+03
1.903398e+03,1.117801e+03
1.904363e+03,1.111542e+03
1.905327e+03,1.117628e+03
1.906291e+03,1.125388e+03
1.907255e+03,1.131726e+03
1.908220e+03,1.133832e+03
1.909184e+03,1.130483e+03
1.910148e+03,1.125729e+03
1.911112e+03,1.124305e+03
1.912077e+03,1.123599e+03
1.913041e+03,1.121031e+03
1.914005e+03,1.118066e+03
1.914969e+03,1.116510e+03
1.915933e+03,1.115648e+03
1.916898e+03,1.111938e+03
1.917862e+03,1.107341e+03
1.918826e+03,1.105731e+03
1.919790e+03,1.108144e+03
1.920755e+03,1.108965e+03
1.921719e+03,1.107732e+03
1.922683e+03,1.109563e+03
1.923647e+03,1.116041e+03
1.924612e+03,1.118028e+03
1.925576e+03,1.105615e+03
1.926540e+03,1.097892e+03
1.927504e+03,1.097157e+03
1.928469e+03,1.099108e+03
1.929433e+03,1.100933e+03
1.930397e+03,1.102578e+03
1.931361e+03,1.105080e+03
1.932325e+03,1.106284e+03
1.933290e+03,1.104527e+03
1.934254e+03,1.101674e+03
1.935218e+03,1.099717e+03
1.936182e+03,1.097899e+03
1.937147e+03,1.096405e+03
1.938111e+03,1.095719e+03
1.939075e+03,1.096902e+03
1.940039e+03,1.100169e+03
1.941004e+03,1.104193e+03
1.941968e+03,1.107870e+03
1.942932e+03,1.108108e+03
1.943896e+03,1.104352e+03
1.944860e+03,1.096714e+03
1.945825e+03,1.085321e+03
1.946789e+03,1.077907e+03
1.947753e+03,1.083173e+03
1.948717e+03,1.088041e+03
1.949682e+03,1.086280e+03
1.950646e+03,1.084331e+03
1.951610e+03,1.086714e+03
1.952574e+03,1.089910e+03
1.953539e+03,1.089331e+03
1.954503e+03,1.085992e+03
1.955467e+03,1.080008e+03
1.956431e+03,1.073651e+03
1.957396e+03,1.071825e+03
1.958360e+03,1.073593e+03
1.959324e+03,1.079747e+03
1.960288e+03,1.088817e+03
1.961252e+03,1.090008e+03
1.962217e+03,1.081694e+03
1.963181e+03,1.074682e+03
1.964145e+03,1.069408e+03
1.965109e+03,1.065175e+03
1.966074e+03,1.060561e+03
1.967038e+03,1.061808e+03
1.968002e+03,1.069674e+03
1.968966e+03,1.072995e+03
1.969931e+03,1.064490e+03
1.970895e+03,1.056606e+03
1.971859e+03,1.062349e+03
1.972823e+03,1.069250e+03
1.973787e+03,1.072156e+03
1.974752e+03,1.070924e+03
1.975716e+03,1.061664e+03
1.976680e+03,1.051801e+03
1.977644e+03,1.052295e+03
1.978609e+03,1.057998e+03
1.979573e+03,1.059167e+03
1.980537e+03,1.056998e+03
1.981501e+03,1.055910e+03
1.982466e+03,1.056230e+03
1.983430e+03,1.058834e+03
1.984394e+03,1.064126e+03
1.985358e+03,1.062635e+03
1.986323e+03,1.055374e+03
1.987287e+03,1.049379e+03
1.988251e+03,1.046604e+03
1.989215e+03,1.045305e+03
1.990179e+03,1.045696e+03
1.991144e+03,1.045651e+03
1.992108e+03,1.044995e+03
1.993072e+03,1.044610e+03
1.994036e+03,1.045011e+03
1.995001e+03,1.044953e+03
1.995965e+03,1.044187e+03
1.996929e+03,1.042938e+03
1.997893e+03,1.038390e+03
1.998858e+03,1.035376e+03
1.999822e+03,1.042822e+03
2.000786e+03,1.049266e+03
2.001750e+03,1.043803e+03
2.002714e+03,1.033331e+03
2.003679e+03,1.032717e+03
2.004643e+03,1.035977e+03
2.005607e+03,1.033666e+03
2.006571e+03,1.027700e+03
2.007536e+03,1.026101e+03
2.008500e+03,1.027900e+03
2.009464e+03,1.030592e+03
2.010428e+03,1.033658e+03
2.011393e+03,1.032925e+03
2.012357e+03,1.027748e+03
2.013321e+03,1.026927e+03
2.014285e+03,1.030042e+03
2.015250e+03,1.032209e+03
2.016214e+03,1.031413e+03
2.017178e+03,1.028421e+03
2.018142e+03,1.023283e+03
2.019106e+03,1.019364e+03
2.020071e+03,1.018708e+03
2.021035e+03,1.018279e+03
2.021999e+03,1.015998e+03
2.022963e+03,1.014490e+03
2.023928e+03,1.015394e+03
2.024892e+03,1.016990e+03
2.025856e+03,1.018346e+03
2.026820e+03,1.017892e+03
2.027785e+03,1.013788e+03
2.028749e+03,1.008867e+03
2.029713e+03,1.008180e+03
2.030677e+03,1.009156e+03
2.031641e+03,1.007578e+03
2.032606e+03,1.005016e+03
2.033570e+03,1.003447e+03
2.034534e+03,1.003439e+03
2.035498e+03,1.011601e+03
2.036463e+03,1.023116e+03
2.037427e+03,1.025466e+03
2.038391e+03,1.018954e+03
2.039355e+03,1.012101e+03
2.040320e+03,1.005437e+03
2.041284e+03,1.000980e+03
2.042248e+03,9.989446e+02
2.043212e+03,9.939684e+02
2.044177e+03,9.854841e+02
2.045141e+03,9.843788e+02
2.046105e+03,9.919000e+02
2.047069e+03,9.997079e+02
2.048033e+03,1.005567e+03
2.048998e+03,1.005884e+03
2.049962e+03,1.000399e+03
2.050926e+03,9.936145e+02
2.051890e+03,9.848339e+02
2.052854e+03,9.817805e+02
2.053819e+03,9.881884e+02
2.054783e+03,9.936752e+02
2.055747e+03,9.939315e+02
2.056711e+03,9.912792e+02
2.057676e+03,9.837446e+02
2.058640e+03,9.792688e+02
2.059604e+03,9.817449e+02
2.060568e+03,9.870316e+02
2.061533e+03,9.927651e+02
2.062497e+03,9.956138e+02
2.063461e+03,9.898135e+02
2.064425e+03,9.809980e+02
2.065390e+03,9.754942e+02
2.066354e+03,9.730155e+02
2.067318e+03,9.751033e+02
2.068282e+03,9.795219e+02
2.069247e+03,9.817502e+02
2.070211e+03,9.814127e+02
2.071175e+03,9.752480e+02
2.072139e+03,9.671406e+02
2.073104e+03,9.679105e+02
2.074068e+03,9.779302e+02
2.075032e+03,9.802841e+02
2.075996e+03,9.760646e+02
2.076960e+03,9.711581e+02
2.077925e+03,9.665981e+02
2.078889e+03,9.642878e+02
2.079853e+03,9.644244e+02
2.080817e+03,9.602172e+02
2.081782e+03,9.513304e+02
2.082746e+03,9.472458e+02
2.083710e+03,9.557221e+02
2.084674e+03,9.586355e+02
2.085639e+03,9.555623e+02
2.086603e+03,9.528464e+02
2.087567e+03,9.518351e+02
2.088531e+03,9.528004e+02
2.089496e+03,9.561342e+02
2.090460e+03,9.548847e+02
2.091424e+03,9.447792e+02
2.092388e+03,9.396010e+02
2.093353e+03,9.533158e+02
2.094317e+03,9.630300e+02
2.095281e+03,9.602554e+02
2.096245e+03,9.542207e+02
2.097209e+03,9.533168e+02
2.098174e+03,9.538055e+02
2.099138e+03,9.546263e+02
2.100102e+03,9.550811e+02
2.101066e+03,9.546511e+02
2.102031e+03,9.529821e+02
2.102995e+03,9.489329e+02
2.103959e+03,9.442783e+02
2.104923e+03,9.388320e+02
2.105887e+03,9.359611e+02
2.106852e+03,9.412287e+02
2.107816e+03,9.495691e+02
2.108780e+03,9.579409e+02
2.109744e+03,9.632491e+02
2.110708e+03,9.550052e+02
2.111673e+03,9.421458e+02
2.112637e+03,9.377253e+02
2.113601e+03,9.377352e+02
2.114565e+03,9.331270e+02
2.115530e+03,9.262097e+02
2.116494e+03,9.211183e+02
2.117458e+03,9.197692e+02
2.118422e+03,9.214775e+02
2.119387e+03,9.254446e+02
2.120351e+03,9.342419e+02
2.121315e+03,9.447280e+02
2.122279e+03,9.484969e+02
2.123244e+03,9.452331e+02
2.124208e+03,9.383002e+02
2.125172e+03,9.293040e+02
2.126136e+03,9.224972e+02
2.127101e+03,9.191152e+02
2.128065e+03,9.161656e+02
2.129029e+03,9.137673e+02
2.129993e+03,9.159327e+02
2.130958e+03,9.225101e+02
2.131922e+03,9.223926e+02
2.132886e+03,9.145709e+02
2.133850e+03,9.120611e+02
2.134814e+03,9.167877e+02
2.135779e+03,9.205362e+02
2.136743e+03,9.204529e+02
2.137707e+03,9.156420e+02
2.138671e+03,9.068748e+02
2.139636e+03,9.035272e+02
2.140600e+03,9.163976e+02
2.141564e+03,9.200042e+02
2.142528e+03,9.125448e+02
2.143493e+03,9.059738e+02
2.144457e+03,9.049725e+02
2.145421e+03,9.024031e+02
2.146385e+03,8.948362e+02
2.147350e+03,8.946693e+02
2.148314e+03,9.070191e+02
2.149278e+03,9.174371e+02
2.150242e+03,9.144175e+02
2.151207e+03,9.067657e+02
2.152171e+03,8.943011e+02
2.153135e+03,8.879602e+02
2.154099e+03,9.076125e+02
2.155063e+03,9.178109e+02
2.156028e+03,9.094706e+02
2.156992e+03,8.997803e+02
2.157956e+03,8.985010e+02
2.158920e+03,9.007037e+02
2.159885e+03,9.060469e+02
2.160849e+03,9.092910e+02
2.161813e+03,9.074530e+02
2.162777e+03,9.036097e+02
2.163741e+03,9.005479e+02
2.164706e+03,8.957892e+02
2.165670e+03,8.882125e+02
2.166634e+03,8.834223e+02
2.167598e+03,8.897074e+02
2.168563e+03,8.962729e+02
2.169527e+03,8.985255e+02
2.170491e+03,8.953052e+02
2.171455e+03,8.812211e+02
2.172420e+03,8.688710e+02
2.173384e+03,8.664680e+02
2.174348e+03,8.695114e+02
2.175312e+03,8.775638e+02
2.176277e+03,8.849765e+02
2.177241e+03,8.866550e+02
2.178205e+03,8.842491e+02
2.179169e+03,8.774708e+02
2.180134e+03,8.714846e+02
2.181098e+03,8.740013e+02
2.182062e+03,8.785726e+02
2.183026e+03,8.809017e+02
2.183990e+03,8.798885e+02
2.184955e+03,8.699394e+02
2.185919e+03,8.608060e+02
2.186883e+03,8.599164e+02
2.187847e+03,8.634938e+02
2.188812e+03,8.702722e+02
2.189776e+03,8.768486e+02
2.190740e+03,8.793459e+02
2.191704e+03,8.783533e+02
2.192668e+03,8.726198e+02
2.193633e+03,8.660767e+02
2.194597e+03,8.635504e+02
2.195561e+03,8.645193e+02
2.196525e+03,8.697777e+02
2.197490e+03,8.743309e+02
2.198454e+03,8.650013e+02
2.199418e+03,8.552792e+02
2.200382e+03,8.587560e+02
2.201347e+03,8.675533e+02
2.202311e+03,8.672590e+02
2.203275e+03,8.635810e+02
2.204239e+03,8.614449e+02
2.205204e+03,8.594724e+02
2.206168e+03,8.566727e+02
2.207132e+03,8.543218e+02
2.208096e+03,8.536177e+02
2.209061e+03,8.530739e+02
2.210025e+03,8.527188e+02
2.210989e+03,8.513770e+02
2.211953e+03,8.464174e+02
2.212917e+03,8.416244e+02
2.213882e+03,8.365982e+02
2.214846e+03,8.342042e+02
2.215810e+03,8.469371e+02
2.216774e+03,8.592183e+02
2.217739e+03,8.578721e+02
2.218703e+03,8.499659e+02
2.219667e+03,8.447986e+02
2.220631e+03,8.425192e+02
2.221595e+03,8.439203e+02
2.222560e+03,8.458481e+02
2.223524e+03,8.464492e+02
2.224488e+03,8.431375e+02
2.225452e+03,8.262668e+02
2.226417e+03,8.113759e+02
2.227381e+03,8.175898e+02
2.228345e+03,8.314784e+02
2.229309e+03,8.360485e+02
2.230274e+03,8.359834e+02
2.231238e+03,8.351401e+02
2.232202e+03,8.338596e+02
2.233166e+03,8.330125e+02
2.234131e+03,8.334451e+02
2.235095e+03,8.357664e+02
2.236059e+03,8.382242e+02
2.237023e+03,8.379834e+02
2.237988e+03,8.360954e+02
2.238952e+03,8.330554e+02
2.239916e+03,8.291698e+02
2.240880e+03,8.261242e+02
2.241844e+03,8.222003e+02
2.242809e+03,8.139603e+02
2.243773e+03,8.085557e+02
2.244737e+03,8.176662e+02
2.245701e+03,8.264940e+02
2.246666e+03,8.214172e+02
2.247630e+03,8.121829e+02
2.248594e+03,8.023386e+02
2.249558e+03,7.978312e+02
2.250522e+03,8.097479e+02
2.251487e+03,8.213245e+02
2.252451e+03,8.236453e+02
2.253415e+03,8.213062e+02
2.254379e+03,8.185016e+02
2.255344e+03,8.159249e+02
2.256308e+03,8.141151e+02
2.257272e+03,8.123907e+02
2.258236e+03,8.100924e+02
2.259201e+03,8.072179e+02
2.260165e+03,8.028196e+02
2.261129e+03,8.004459e+02
2.262093e+03,8.055697e+02
2.263058e+03,8.095010e+02
2.264022e+03,8.108343e+02
2.264986e+03,8.097180e+02
2.265950e+03,8.038535e+02
2.266915e+03,7.979566e+02
2.267879e+03,7.923937e+02
2.268843e+03,7.887543e+02
2.269807e+03,7.894428e+02
2.270771e+03,7.904788e+02
2.271736e+03,7.905500e+02
2.272700e+03,7.911118e+02
2.273664e+03,7.916281e+02
2.274628e+03,7.929239e+02
2.275593e+03,7.960854e+02
2.276557e+03,7.967209e+02
2.277521e+03,7.947545e+02
2.278485e+03,7.932031e+02
2.279449e+03,7.937252e+02
2.280414e+03,7.935723e+02
2.281378e+03,7.925362e+02
2.282342e+03,7.926715e+02
2.283306e+03,7.959474e+02
2.284271e+03,7.960521e+02
2.285235e+03,7.931359e+02
2.286199e+03,7.918382e+02
2.287163e+03,7.960276e+02
2.288128e+03,7.968040e+02
2.289092e+03,7.935187e+02
2.290056e+03,7.864117e+02
2.291020e+03,7.757156e+02
2.291985e+03,7.785110e+02
2.292949e+03,7.931262e+02
2.293913e+03,7.980790e+02
2.294877e+03,7.910146e+02
2.295842e+03,7.834388e+02
2.296806e+03,7.761263e+02
2.297770e+03,7.745112e+02
2.298734e+03,7.768760e+02
2.299698e+03,7.755436e+02
2.300663e+03,7.710483e+02
2.301627e+03,7.678193e+02
2.302591e+03,7.648690e+02
2.303555e+03,7.590616e+02
2.304520e+03,7.525043e+02
2.305484e+03,7.574186e+02
2.306448e+03,7.669528e+02
2.307412e+03,7.686911e+02
2.308376e+03,7.649363e+02
2.309341e+03,7.614880e+02
2.310305e+03,7.586122e+02
2.311269e+03,7.567151e+02
2.312233e+03,7.568846e+02
2.313198e+03,7.627451e+02
2.314162e+03,7.682037e+02
2.315126e+03,7.655589e+02
2.316090e+03,7.607429e+02
2.317055e+03,7.588383e+02
2.318019e+03,7.602782e+02
2.318983e+03,7.680452e+02
2.319947e+03,7.737409e+02
2.320912e+03,7.711271e+02
2.321876e+03,7.655769e+02
2.322840e+03,7.589711e+02
2.323804e+03,7.540048e+02
2.324769e+03,7.514785e+02
2.325733e+03,7.538694e+02
2.326697e+03,7.683768e+02
2.327661e+03,7.742267e+02
2.328625e+03,7.631947e+02
2.329590e+03,7.523575e+02
2.330554e+03,7.546813e+02
2.331518e+03,7.537938e+02
2.332482e+03,7.470002e+02
2.333447e+03,7.421122e+02
2.334411e+03,7.442097e+02
2.335375e+03,7.447447e+02
2.336339e+03,7.432850e+02
2.337303e+03,7.417331e+02
2.338268e+03,7.388997e+02
2.339232e+03,7.430712e+02
2.340196e+03,7.526874e+02
2.341160e+03,7.547398e+02
2.342125e+03,7.446514e+02
2.343089e+03,7.449010e+02
2.344053e+03,7.515401e+02
2.345017e+03,7.532922e+02
2.345982e+03,7.492960e+02
2.346946e+03,7.443577e+02
2.347910e+03,7.401610e+02
2.348874e+03,7.401415e+02
2.349839e+03,7.425698e+02
2.350803e+03,7.451570e+02
2.351767e+03,7.465217e+02
2.352731e+03,7.407406e+02
2.353696e+03,7.336246e+02
2.354660e+03,7.342767e+02
2.355624e+03,7.377149e+02
2.356588e+03,7.381010e+02
2.357552e+03,7.363666e+02
2.358517e+03,7.325452e+02
2.359481e+03,7.282653e+02
2.360445e+03,7.229097e+02
2.361409e+03,7.213832e+02
2.362374e+03,7.280381e+02
2.363338e+03,7.346193e+02
2.364302e+03,7.351389e+02
2.365266e+03,7.327753e+02
2.366230e+03,7.268416e+02
2.367195e+03,7.226468e+02
2.368159e+03,7.244069e+02
2.369123e+03,7.271412e+02
2.370087e+03,7.310126e+02
2.371052e+03,7.317133e+02
2.372016e+03,7.259756e+02
2.372980e+03,7.198312e+02
2.373944e+03,7.137493e+02
2.374909e+03,7.131895e+02
2.375873e+03,7.222988e+02
2.376837e+03,7.246702e+02
2.377801e+03,7.215660e+02
2.378766e+03,7.173320e+02
2.379730e+03,7.128273e+02
2.380694e+03,7.076165e+02
2.381658e+03,7.034006e+02
2.382623e+03,7.046897e+02
2.383587e+03,7.091976e+02
2.384551e+03,7.098521e+02
2.385515e+03,7.086533e+02
2.386479e+03,7.102959e+02
2.387444e+03,7.127694e+02
2.388408e+03,7.138864e+02
2.389372e+03,7.131266e+02
2.390336e+03,7.078635e+02
2.391301e+03,7.029552e+02
2.392265e+03,7.032467e+02
2.393229e+03,7.052721e+02
2.394193e+03,7.084622e+02
2.395157e+03,7.082412e+02
2.396122e+03,6.978245e+02
2.397086e+03,6.931202e+02
2.398050e+03,7.003682e+02
2.399014e+03,7.062152e+02
2.399979e+03,7.048649e+02
2.400943e+03,7.058343e+02
2.401907e+03,7.107609e+02
2.402871e+03,7.106310e+02
2.403836e+03,7.036586e+02
2.404800e+03,7.033182e+02
2.405764e+03,7.095773e+02
2.406728e+03,7.089545e+02
2.407693e+03,7.008747e+02
2.408657e+03,6.948202e+02
2.409621e+03,6.912553e+02
2.410585e+03,6.876877e+02
2.411550e+03,6.853420e+02
2.412514e+03,6.871968e+02
2.413478e+03,6.909385e+02
2.414442e+03,6.896168e+02
2.415406e+03,6.880770e+02
2.416371e+03,6.933337e+02
2.417335e+03,6.981260e+02
2.418299e+03,6.871617e+02
2.419263e+03,6.778354e+02
2.420228e+03,6.801565e+02
2.421192e+03,6.846888e+02
2.422156e+03,6.827531e+02
2.423120e+03,6.816212e+02
2.424084e+03,6.822596e+02
2.425049e+03,6.843640e+02
2.426013e+03,6.901153e+02
2.426977e+03,6.934088e+02
2.427941e+03,6.941531e+02
2.428906e+03,6.900355e+02
2.429870e+03,6.782173e+02
2.430834e+03,6.800079e+02
2.431798e+03,6.923301e+02
2.432763e+03,6.946786e+02
2.433727e+03,6.864994e+02
2.434691e+03,6.791009e+02
2.435655e+03,6.732979e+02
2.436620e+03,6.707484e+02
2.437584e+03,6.709447e+02
2.438548e+03,6.761523e+02
2.439512e+03,6.804037e+02
2.440477e+03,6.770053e+02
2.441441e+03,6.706486e+02
2.442405e+03,6.669185e+02
2.443369e+03,6.664089e+02
2.444333e+03,6.697931e+02
2.445298e+03,6.731723e+02
2.446262e+03,6.733819e+02
2.447226e+03,6.707747e+02
2.448190e+03,6.657079e+02
2.449155e+03,6.634261e+02
2.450119e+03,6.698819e+02
2.451083e+03,6.743330e+02
2.452047e+03,6.764832e+02
2.453011e+03,6.769769e+02
2.453976e+03,6.763302e+02
2.454940e+03,6.699465e+02
2.455904e+03,6.607855e+02
2.456868e+03,6.563210e+02
2.457833e+03,6.554024e+02
2.458797e+03,6.544388e+02
2.459761e+03,6.552718e+02
2.460725e+03,6.617440e+02
2.461690e+03,6.678758e+02
2.462654e+03,6.621627e+02
2.463618e+03,6.562989e+02
2.464582e+03,6.582772e+02
2.465547e+03,6.617836e+02
2.466511e+03,6.598263e+02
2.467475e+03,6.582564e+02
2.468439e+03,6.585496e+02
2.469404e+03,6.574709e+02
2.470368e+03,6.536400e+02
2.471332e+03,6.475895e+02
2.472296e+03,6.397067e+02
2.473260e+03,6.386188e+02
2.474225e+03,6.472499e+02
2.475189e+03,6.488495e+02
2.476153e+03,6.463251e+02
2.477117e+03,6.468290e+02
2.478082e+03,6.497615e+02
2.479046e+03,6.523812e+02
2.480010e+03,6.555817e+02
2.480974e+03,6.627916e+02
2.481938e+03,6.682644e+02
2.482903e+03,6.605946e+02
2.483867e+03,6.534069e+02
2.484831e+03,6.542882e+02
2.485795e+03,6.556553e+02
2.486760e+03,6.513649e+02
2.487724e+03,6.472949e+02
2.488688e+03,6.446454e+02
2.489652e+03,6.445165e+02
2.490617e+03,6.487402e+02
2.491581e+03,6.511184e+02
2.492545e+03,6.517498e+02
2.493509e+03,6.480017e+02
2.494474e+03,6.400633e+02
2.495438e+03,6.403409e+02
2.496402e+03,6.453531e+02
2.497366e+03,6.488321e+02
2.498331e+03,6.497772e+02
2.499295e+03,6.432999e+02
2.500259e+03,6.376588e+02
2.501223e+03,6.413997e+02
2.502188e+03,6.469937e+02
2.503152e+03,6.463701e+02
2.504116e+03,6.455063e+02
2.505080e+03,6.465165e+02
2.506044e+03,6.461494e+02
2.507009e+03,6.394084e+02
2.507973e+03,6.370506e+02
2.508937e+03,6.392531e+02
2.509901e+03,6.385350e+02
2.510865e+03,6.324568e+02
2.511830e+03,6.347451e+02
2.512794e+03,6.410711e+02
2.513758e+03,6.392180e+02
2.514722e+03,6.331658e+02
2.515687e+03,6.347029e+02
2.516651e+03,6.376200e+02
2.517615e+03,6.351414e+02
2.518579e+03,6.309079e+02
2.519544e+03,6.288046e+02
2.520508e+03,6.283137e+02
2.521472e+03,6.297235e+02
2.522436e+03,6.291202e+02
2.523401e+03,6.194988e+02
2.524365e+03,6.183400e+02
2.525329e+03,6.257145e+02
2.526293e+03,6.305443e+02
2.527258e+03,6.308611e+02
2.528222e+03,6.275681e+02
2.529186e+03,6.224162e+02
2.530150e+03,6.205842e+02
2.531115e+03,6.218718e+02
2.532079e+03,6.263672e+02
2.533043e+03,6.296745e+02
2.534007e+03,6.270569e+02
2.534971e+03,6.215862e+02
2.535936e+03,6.154131e+02
2.536900e+03,6.135622e+02
2.537864e+03,6.184375e+02
2.538828e+03,6.221174e+02
2.539792e+03,6.186835e+02
2.540757e+03,6.181871e+02
2.541721e+03,6.214778e+02
2.542685e+03,6.204216e+02
2.543649e+03,6.153570e+02
2.544614e+03,6.195117e+02
2.545578e+03,6.283881e+02
2.546542e+03,6.284803e+02
2.547506e+03,6.230989e+02
2.548471e+03,6.170110e+02
2.549435e+03,6.141135e+02
2.550399e+03,6.188449e+02
2.551363e+03,6.259847e+02
2.552328e+03,6.343524e+02
2.553292e+03,6.360228e+02
2.554256e+03,6.263439e+02
2.555220e+03,6.182302e+02
2.556185e+03,6.140901e+02
2.557149e+03,6.107971e+02
2.558113e+03,6.083878e+02
2.559077e+03,6.140255e+02
2.560042e+03,6.237014e+02
2.561006e+03,6.216046e+02
2.561970e+03,6.154159e+02
2.562934e+03,6.248474e+02
2.563898e+03,6.333516e+02
2.564863e+03,6.165403e+02
2.565827e+03,5.986904e+02
2.566791e+03,5.991903e+02
2.567755e+03,6.051585e+02
2.568719e+03,6.118743e+02
2.569684e+03,6.175287e+02
2.570648e+03,6.224841e+02
2.571612e+03,6.179211e+02
2.572576e+03,6.073376e+02
2.573541e+03,6.095556e+02
2.574505e+03,6.216397e+02
2.575469e+03,6.188076e+02
2.576433e+03,6.093972e+02
2.577398e+03,6.067592e+02
2.578362e+03,6.069631e+02
2.579326e+03,6.044529e+02
2.580290e+03,6.030453e+02
2.581255e+03,6.039058e+02
2.582219e+03,6.056940e+02
2.583183e+03,6.113444e+02
2.584147e+03,6.077936e+02
2.585112e+03,5.961782e+02
2.586076e+03,5.883825e+02
2.587040e+03,5.861870e+02
2.588004e+03,5.872970e+02
2.588969e+03,5.896991e+02
2.589933e+03,5.906750e+02
2.590897e+03,5.898384e+02
2.591861e+03,5.810978e+02
2.592825e+03,5.791091e+02
2.593790e+03,5.955641e+02
2.594754e+03,6.087626e+02
2.595718e+03,6.010445e+02
2.596682e+03,5.976893e+02
2.597646e+03,6.035467e+02
2.598611e+03,6.056617e+02
2.599575e+03,6.034305e+02
2.600539e+03,6.031563e+02
2.601503e+03,6.028558e+02
2.602468e+03,5.923060e+02
2.603432e+03,5.787858e+02
2.604396e+03,5.793017e+02
2.605360e+03,5.845828e+02
2.606325e+03,5.877265e+02
2.607289e+03,5.890668e+02
2.608253e+03,5.889715e+02
2.609217e+03,5.883640e+02
2.610182e+03,5.863354e+02
2.611146e+03,5.853651e+02
2.612110e+03,5.856641e+02
2.613074e+03,5.868489e+02
2.614039e+03,5.886231e+02
2.615003e+03,5.877981e+02
2.615967e+03,5.852492e+02
2.616931e+03,5.838134e+02
2.617896e+03,5.826152e+02
2.618860e+03,5.782137e+02
2.619824e+03,5.775730e+02
2.620788e+03,5.833167e+02
2.621752e+03,5.863904e+02
2.622717e+03,5.793823e+02
2.623681e+03,5.805433e+02
2.624645e+03,5.889581e+02
2.625609e+03,5.910931e+02
2.626573e+03,5.873901e+02
2.627538e+03,5.897084e+02
2.628502e+03,5.914748e+02
2.629466e+03,5.802401e+02
2.630430e+03,5.675956e+02
2.631395e+03,5.720739e+02
2.632359e+03,5.749117e+02
2.633323e+03,5.680069e+02
2.634287e+03,5.676782e+02
2.635252e+03,5.774746e+02
2.636216e+03,5.800439e+02
2.637180e+03,5.728124e+02
2.638144e+03,5.778759e+02
2.639109e+03,5.884130e+02
2.640073e+03,5.842966e+02
2.641037e+03,5.741030e+02
2.642001e+03,5.657418e+02
2.642966e+03,5.608703e+02
2.643930e+03,5.597977e+02
2.644894e+03,5.620820e+02
2.645858e+03,5.720157e+02
2.646823e+03,5.747220e+02
2.647787e+03,5.699762e+02
2.648751e+03,5.671581e+02
2.649715e+03,5.672469e+02
2.650679e+03,5.639677e+02
2.651644e+03,5.619962e+02
2.652608e+03,5.698761e+02
2.653572e+03,5.784113e+02
2.654536e+03,5.704770e+02
2.655500e+03,5.654722e+02
2.656465e+03,5.713448e+02
2.657429e+03,5.753272e+02
2.658393e+03,5.726974e+02
2.659357e+03,5.696613e+02
2.660322e+03,5.679006e+02
2.661286e+03,5.668972e+02
2.662250e+03,5.671042e+02
2.663214e+03,5.738943e+02
2.664179e+03,5.785026e+02
2.665143e+03,5.645629e+02
2.666107e+03,5.554644e+02
2.667071e+03,5.647361e+02
2.668036e+03,5.699382e+02
2.669000e+03,5.537800e+02
2.669964e+03,5.472459e+02
2.670928e+03,5.502082e+02
2.671893e+03,5.564014e+02
2.672857e+03,5.635390e+02
2.673821e+03,5.653180e+02
2.674785e+03,5.630787e+02
2.675750e+03,5.585343e+02
2.676714e+03,5.551061e+02
2.677678e+03,5.583928e+02
2.678642e+03,5.588793e+02
2.679606e+03,5.544291e+02
2.680571e+03,5.529452e+02
2.681535e+03,5.554075e+02
2.682499e+03,5.580330e+02
2.683463e+03,5.587041e+02
2.684427e+03,5.509272e+02
2.685392e+03,5.432595e+02
2.686356e+03,5.558455e+02
2.687320e+03,5.678836e+02
2.688284e+03,5.642938e+02
2.689249e+03,5.589465e+02
2.690213e+03,5.550430e+02
2.691177e+03,5.551488e+02
2.692141e+03,5.615056e+02
2.693106e+03,5.604929e+02
2.694070e+03,5.545360e+02
2.695034e+03,5.483932e+02
2.695998e+03,5.431308e+02
2.696963e+03,5.391091e+02
2.697927e+03,5.393220e+02
2.698891e+03,5.448913e+02
2.699855e+03,5.492092e+02
2.700820e+03,5.495912e+02
2.701784e+03,5.464485e+02
2.702748e+03,5.408329e+02
2.703712e+03,5.423781e+02
2.704677e+03,5.487623e+02
2.705641e+03,5.559191e+02
2.706605e+03,5.591157e+02
2.707569e+03,5.452800e+02
2.708533e+03,5.380336e+02
2.709498e+03,5.485654e+02
2.710462e+03,5.573933e+02
2.711426e+03,5.564933e+02
2.712390e+03,5.532233e+02
2.713354e+03,5.478252e+02
2.714319e+03,5.373687e+02
2.715283e+03,5.270904e+02
2.716247e+03,5.329485e+02
2.717211e+03,5.425223e+02
2.718176e+03,5.472594e+02
2.719140e+03,5.477891e+02
2.720104e+03,5.409503e+02
2.721068e+03,5.462108e+02
2.722033e+03,5.636898e+02
2.722997e+03,5.573691e+02
2.723961e+03,5.340390e+02
2.724925e+03,5.269141e+02
2.725890e+03,5.310878e+02
2.726854e+03,5.416945e+02
2.727818e+03,5.510828e+02
2.728782e+03,5.552139e+02
2.729747e+03,5.526008e+02
2.730711e+03,5.379314e+02
2.731675e+03,5.287074e+02
2.732639e+03,5.253313e+02
2.733604e+03,5.298260e+02
2.734568e+03,5.373550e+02
2.735532e+03,5.345635e+02
2.736496e+03,5.334589e+02
2.737460e+03,5.454105e+02
2.738425e+03,5.499008e+02
2.739389e+03,5.307560e+02
2.740353e+03,5.211058e+02
2.741317e+03,5.257081e+02
2.742281e+03,5.257296e+02
2.743246e+03,5.226006e+02
2.744210e+03,5.242204e+02
2.745174e+03,5.274266e+02
2.746138e+03,5.298285e+02
2.747103e+03,5.317178e+02
2.748067e+03,5.337044e+02
2.749031e+03,5.346146e+02
2.749995e+03,5.319578e+02
2.750960e+03,5.367558e+02
2.751924e+03,5.441797e+02
2.752888e+03,5.349135e+02
2.753852e+03,5.211553e+02
2.754817e+03,5.395193e+02
2.755781e+03,5.536662e+02
2.756745e+03,5.411003e+02
2.757709e+03,5.276441e+02
2.758674e+03,5.212177e+02
2.759638e+03,5.204073e+02
2.760602e+03,5.245103e+02
2.761566e+03,5.208755e+02
2.762531e+03,5.168169e+02
2.763495e+03,5.261448e+02
2.764459e+03,5.370797e+02
2.765423e+03,5.409111e+02
2.766387e+03,5.354340e+02
2.767352e+03,5.214136e+02
2.768316e+03,5.132348e+02
2.769280e+03,5.135497e+02
2.770244e+03,5.175490e+02
2.771208e+03,5.234844e+02
2.772173e+03,5.280596e+02
2.773137e+03,5.297850e+02
2.774101e+03,5.271973e+02
2.775065e+03,5.232604e+02
2.776030e+03,5.175025e+02
2.776994e+03,5.181780e+02
2.777958e+03,5.234626e+02
2.778922e+03,5.226334e+02
2.779887e+03,5.176700e+02
2.780851e+03,5.113096e+02
2.781815e+03,5.131240e+02
2.782779e+03,5.308098e+02
2.783744e+03,5.419766e+02
2.784708e+03,5.284364e+02
2.785672e+03,5.230215e+02
2.786636e+03,5.271642e+02
2.787601e+03,5.266561e+02
2.788565e+03,5.244141e+02
2.789529e+03,5.336129e+02
2.790493e+03,5.406905e+02
2.791458e+03,5.281116e+02
2.792422e+03,5.196359e+02
2.793386e+03,5.208967e+02
2.794350e+03,5.224103e+02
2.795314e+03,5.213518e+02
2.796279e+03,5.132790e+02
2.797243e+03,5.045451e+02
2.798207e+03,5.053130e+02
2.799171e+03,5.123257e+02
2.800135e+03,5.270261e+02
2.801100e+03,5.340793e+02
2.802064e+03,5.295442e+02
2.803028e+03,5.239444e+02
2.803992e+03,5.190606e+02
2.804957e+03,5.179285e+02
2.805921e+03,5.182550e+02
2.806885e+03,5.135302e+02
2.807849e+03,5.113141e+02
2.808814e+03,5.152555e+02
2.809778e+03,5.178883e+02
2.810742e+03,5.158381e+02
2.811706e+03,5.113261e+02
2.812671e+03,5.057540e+02
2.813635e+03,5.046452e+02
2.814599e+03,5.065974e+02
2.815563e+03,5.124453e+02
2.816528e+03,5.150222e+02
2.817492e+03,5.089746e+02
2.818456e+03,5.046407e+02
2.819420e+03,5.032415e+02
2.820385e+03,5.095712e+02
2.821349e+03,5.195253e+02
2.822313e+03,5.124337e+02
2.823277e+03,5.043086e+02
2.824241e+03,5.081040e+02
2.825206e+03,5.118041e+02
2.826170e+03,5.081993e+02
2.827134e+03,5.058391e+02
2.828098e+03,5.059864e+02
2.829063e+03,5.127729e+02
2.830027e+03,5.208702e+02
2.830991e+03,5.184149e+02
2.831955e+03,5.147444e+02
2.832919e+03,5.137901e+02
2.833884e+03,5.198084e+02
2.834848e+03,5.314305e+02
2.835812e+03,5.257701e+02
2.836776e+03,5.054787e+02
2.837741e+03,5.067315e+02
2.838705e+03,5.156923e+02
2.839669e+03,5.169989e+02
2.840633e+03,5.148940e+02
2.841598e+03,5.112707e+02
2.842562e+03,5.139891e+02
2.843526e+03,5.252524e+02
2.844490e+03,5.144202e+02
2.845455e+03,4.976504e+02
2.846419e+03,5.071399e+02
2.847383e+03,5.229280e+02
2.848347e+03,5.239977e+02
2.849312e+03,5.233192e+02
2.850276e+03,5.231194e+02
2.851240e+03,5.211224e+02
2.852204e+03,5.179725e+02
2.853168e+03,5.212086e+02
2.854133e+03,5.268496e+02
2.855097e+03,5.341193e+02
2.856061e+03,5.319684e+02
2.857025e+03,5.175438e+02
2.857990e+03,5.082487e+02
2.858954e+03,5.095572e+02
2.859918e+03,5.151049e+02
2.860882e+03,5.222501e+02
2.861846e+03,5.271072e+02
2.862811e+03,5.289542e+02
2.863775e+03,5.254670e+02
2.864739e+03,5.252660e+02
2.865703e+03,5.308008e+02
2.866668e+03,5.307863e+02
2.867632e+03,5.282007e+02
2.868596e+03,5.355968e+02
2.869560e+03,5.419398e+02
2.870525e+03,5.281160e+02
2.871489e+03,5.227059e+02
2.872453e+03,5.322281e+02
2.873417e+03,5.400528e+02
2.874382e+03,5.424141e+02
2.875346e+03,5.264122e+02
2.876310e+03,5.079288e+02
2.877274e+03,5.081668e+02
2.878239e+03,5.175605e+02
2.879203e+03,5.308668e+02
2.880167e+03,5.381049e+02
2.881131e+03,5.365311e+02
2.882095e+03,5.457497e+02
2.883060e+03,5.557100e+02
2.884024e+03,5.488264e+02
2.884988e+03,5.407987e+02
2.885952e+03,5.468353e+02
2.886917e+03,5.498036e+02
2.887881e+03,5.461201e+02
2.888845e+03,5.483678e+02
2.889809e+03,5.513679e+02
2.890773e+03,5.383152e+02
2.891738e+03,5.254301e+02
2.892702e+03,5.375468e+02
2.893666e+03,5.431786e+02
2.894630e+03,5.371791e+02
2.895595e+03,5.382915e+02
2.896559e+03,5.452927e+02
2.897523e+03,5.455701e+02
2.898487e+03,5.446003e+02
2.899452e+03,5.517598e+02
2.900416e+03,5.500563e+02
2.901380e+03,5.368979e+02
2.902344e+03,5.347070e+02
2.903309e+03,5.445529e+02
2.904273e+03,5.403304e+02
2.905237e+03,5.325093e+02
2.906201e+03,5.319797e+02
2.907166e+03,5.350833e+02
2.908130e+03,5.399077e+02
2.909094e+03,5.453723e+02
2.910058e+03,5.495026e+02
2.911022e+03,5.376312e+02
2.911987e+03,5.238968e+02
2.912951e+03,5.241432e+02
2.913915e+03,5.249535e+02
2.914879e+03,5.158721e+02
2.915844e+03,5.090201e+02
2.916808e+03,5.058256e+02
2.917772e+03,5.015061e+02
2.918736e+03,5.020469e+02
2.919700e+03,5.212221e+02
2.920665e+03,5.345972e+02
2.921629e+03,5.176293e+02
2.922593e+03,5.106534e+02
2.923557e+03,5.135162e+02
2.924522e+03,5.109349e+02
2.925486e+03,5.076356e+02
2.926450e+03,5.231934e+02
2.927414e+03,5.319270e+02
2.928379e+03,5.189257e+02
2.929343e+03,5.097959e+02
2.930307e+03,5.066450e+02
2.931271e+03,5.047714e+02
2.932236e+03,5.054516e+02
2.933200e+03,5.185681e+02
2.934164e+03,5.205329e+02
2.935128e+03,5.003225e+02
2.936093e+03,4.954757e+02
2.937057e+03,5.070023e+02
2.938021e+03,5.069384e+02
2.938985e+03,5.018640e+02
2.939949e+03,5.067311e+02
2.940914e+03,5.036936e+02
2.941878e+03,4.876685e+02
2.942842e+03,4.815836e+02
2.943806e+03,4.882784e+02
2.944771e+03,5.069136e+02
2.945735e+03,5.201379e+02
2.946699e+03,4.964756e+02
2.947663e+03,4.844411e+02
2.948627e+03,4.981595e+02
2.949592e+03,5.049160e+02
2.950556e+03,4.995964e+02
2.951520e+03,4.965769e+02
2.952484e+03,4.952730e+02
2.953449e+03,4.939195e+02
2.954413e+03,5.001215e+02
2.955377e+03,5.173217e+02
2.956341e+03,5.270399e+02
2.957306e+03,5.277164e+02
2.958270e+03,5.334090e+02
2.959234e+03,5.283227e+02
2.960198e+03,5.007572e+02
2.961163e+03,4.816247e+02
2.962127e+03,4.848205e+02
2.963091e+03,4.865537e+02
2.964055e+03,4.864289e+02
2.965020e+03,4.947569e+02
2.965984e+03,4.974568e+02
2.966948e+03,4.827838e+02
2.967912e+03,4.715815e+02
2.968876e+03,4.726085e+02
2.969841e+03,4.852524e+02
2.970805e+03,4.971910e+02
2.971769e+03,4.831850e+02
2.972733e+03,4.708209e+02
2.973698e+03,4.815502e+02
2.974662e+03,4.871200e+02
2.975626e+03,4.801044e+02
2.976590e+03,4.804289e+02
2.977554e+03,4.837476e+02
2.978519e+03,4.832545e+02
2.979483e+03,4.826082e+02
2.980447e+03,4.851001e+02
2.981411e+03,4.869931e+02
2.982376e+03,4.871003e+02
2.983340e+03,4.819109e+02
2.984304e+03,4.742529e+02
2.985268e+03,4.668199e+02
2.986233e+03,4.624410e+02
2.987197e+03,4.641183e+02
2.988161e+03,4.608837e+02
2.989125e+03,4.571992e+02
2.990090e+03,4.712800e+02
2.991054e+03,4.795020e+02
2.992018e+03,4.612350e+02
2.992982e+03,4.516857e+02
2.993947e+03,4.670244e+02
2.994911e+03,4.766476e+02
2.995875e+03,4.769807e+02
2.996839e+03,4.610273e+02
2.997803e+03,4.471523e+02
2.998768e+03,4.474571e+02
2.999732e+03,4.528431e+02
3.000696e+03,4.614738e+02
3.001660e+03,4.662544e+02
3.002625e+03,4.629150e+02
3.003589e+03,4.474266e+02
3.004553e+03,4.392447e+02
3.005517e+03,4.482604e+02
3.006481e+03,4.534530e+02
3.007446e+03,4.544520e+02
3.008410e+03,4.635859e+02
3.009374e+03,4.649652e+02
3.010338e+03,4.490169e+02
3.011303e+03,4.515515e+02
3.012267e+03,4.831815e+02
3.013231e+03,4.822430e+02
3.014195e+03,4.614415e+02
3.015160e+03,4.430102e+02
3.016124e+03,4.313757e+02
3.017088e+03,4.263927e+02
3.018052e+03,4.363510e+02
3.019017e+03,4.577691e+02
3.019981e+03,4.641696e+02
3.020945e+03,4.579673e+02
3.021909e+03,4.371917e+02
3.022874e+03,4.389602e+02
3.023838e+03,4.644406e+02
3.024802e+03,4.644926e+02
3.025766e+03,4.485939e+02
3.026730e+03,4.499607e+02
3.027695e+03,4.476073e+02
3.028659e+03,4.321411e+02
3.029623e+03,4.303809e+02
3.030587e+03,4.415403e+02
3.031552e+03,4.500234e+02
3.032516e+03,4.549567e+02
3.033480e+03,4.589690e+02
3.034444e+03,4.504460e+02
3.035408e+03,4.310644e+02
3.036373e+03,4.323701e+02
3.037337e+03,4.469959e+02
3.038301e+03,4.571381e+02
3.039265e+03,4.565885e+02
3.040230e+03,4.276894e+02
3.041194e+03,4.343593e+02
3.042158e+03,4.637228e+02
3.043122e+03,4.578125e+02
3.044087e+03,4.414523e+02
3.045051e+03,4.528646e+02
3.046015e+03,4.535464e+02
3.046979e+03,4.320695e+02
3.047944e+03,4.487013e+02
3.048908e+03,4.774179e+02
3.049872e+03,4.776571e+02
3.050836e+03,4.621916e+02
3.051801e+03,4.342773e+02
3.052765e+03,4.383883e+02
3.053729e+03,4.672253e+02
3.054693e+03,4.501335e+02
3.055657e+03,4.350036e+02
3.056622e+03,4.560218e+02
3.057586e+03,4.621627e+02
3.058550e+03,4.385869e+02
3.059514e+03,4.236667e+02
3.060479e+03,4.189071e+02
3.061443e+03,4.292032e+02
3.062407e+03,4.286751e+02
3.063371e+03,4.124899e+02
3.064335e+03,4.117345e+02
3.065300e+03,4.238612e+02
3.066264e+03,4.219538e+02
3.067228e+03,4.212821e+02
3.068192e+03,4.319695e+02
3.069157e+03,4.429263e+02
3.070121e+03,4.510107e+02
3.071085e+03,4.511684e+02
3.072049e+03,4.452814e+02
3.073014e+03,4.295039e+02
3.073978e+03,4.184015e+02
3.074942e+03,4.161942e+02
3.075906e+03,4.320407e+02
3.076871e+03,4.498849e+02
3.077835e+03,4.443750e+02
3.078799e+03,4.378676e+02
3.079763e+03,4.447163e+02
3.080728e+03,4.502726e+02
3.081692e+03,4.528575e+02
3.082656e+03,4.510729e+02
3.083620e+03,4.464645e+02
3.084584e+03,4.406143e+02
3.085549e+03,4.353375e+02
3.086513e+03,4.312642e+02
3.087477e+03,4.221927e+02
3.088441e+03,4.185387e+02
3.089406e+03,4.356678e+02
3.090370e+03,4.497020e+02
3.091334e+03,4.558751e+02
3.092298e+03,4.457531e+02
3.093262e+03,4.348732e+02
3.094227e+03,4.676990e+02
3.095191e+03,4.826158e+02
3.096155e+03,4.559755e+02
3.097119e+03,4.416518e+02
3.098084e+03,4.405672e+02
3.099048e+03,4.464775e+02
3.100012e+03,4.521214e+02
3.100976e+03,4.537225e+02
3.101941e+03,4.421551e+02
3.102905e+03,4.238043e+02
3.103869e+03,4.363580e+02
3.104833e+03,4.484632e+02
3.105798e+03,4.402965e+02
3.106762e+03,4.373859e+02
3.107726e+03,4.450506e+02
3.108690e+03,4.397702e+02
3.109655e+03,4.318809e+02
3.110619e+03,4.391385e+02
3.111583e+03,4.335385e+02
3.112547e+03,4.152125e+02
3.113511e+03,4.108588e+02
3.114476e+03,4.193102e+02
3.115440e+03,4.496063e+02
3.116404e+03,4.607170e+02
3.117368e+03,4.312723e+02
3.118333e+03,4.257020e+02
3.119297e+03,4.372226e+02
3.120261e+03,4.527799e+02
3.121225e+03,4.557088e+02
3.122189e+03,4.366441e+02
3.123154e+03,4.327353e+02
3.124118e+03,4.446748e+02
3.125082e+03,4.665267e+02
3.126046e+03,4.763439e+02
3.127011e+03,4.646771e+02
3.127975e+03,4.472375e+02
3.128939e+03,4.319820e+02
3.129903e+03,4.459556e+02
3.130868e+03,4.631483e+02
3.131832e+03,4.586811e+02
3.132796e+03,4.627348e+02
3.133760e+03,4.697016e+02
3.134725e+03,4.382141e+02
3.135689e+03,4.079519e+02
3.136653e+03,4.157633e+02
3.137617e+03,4.422943e+02
3.138582e+03,4.822975e+02
3.139546e+03,4.610692e+02
3.140510e+03,4.266245e+02
3.141474e+03,4.311435e+02
3.142438e+03,4.517832e+02
3.143403e+03,4.753614e+02
3.144367e+03,4.517745e+02
3.145331e+03,4.159650e+02
3.146295e+03,4.303013e+02
3.147260e+03,4.466690e+02
3.148224e+03,4.518147e+02
3.149188e+03,4.367215e+02
3.150152e+03,4.235627e+02
3.151116e+03,4.401902e+02
3.152081e+03,4.563822e+02
3.153045e+03,4.577134e+02
3.154009e+03,4.713956e+02
3.154973e+03,4.862293e+02
3.155938e+03,4.738752e+02
3.156902e+03,4.564902e+02
3.157866e+03,4.407850e+02
3.158830e+03,4.170907e+02
3.159795e+03,3.977318e+02
3.160759e+03,4.210768e+02
3.161723e+03,4.473281e+02
3.162687e+03,4.638008e+02
3.163652e+03,4.350118e+02
3.164616e+03,4.007229e+02
3.165580e+03,4.381997e+02
3.166544e+03,4.790570e+02
3.167509e+03,4.933626e+02
3.168473e+03,4.752445e+02
3.169437e+03,4.441211e+02
3.170401e+03,4.606772e+02
3.171365e+03,4.736242e+02
3.172330e+03,4.606719e+02
3.173294e+03,4.581146e+02
3.174258e+03,4.580844e+02
3.175222e+03,4.350296e+02
3.176187e+03,4.203094e+02
3.177151e+03,4.364679e+02
3.178115e+03,4.500466e+02
3.179079e+03,4.562594e+02
3.180043e+03,4.447072e+02
3.181008e+03,4.439495e+02
3.181972e+03,4.631893e+02
3.182936e+03,4.678163e+02
3.183900e+03,4.593765e+02
3.184865e+03,4.492187e+02
3.185829e+03,4.420806e+02
3.186793e+03,4.469957e+02
3.187757e+03,4.341152e+02
3.188722e+03,4.230508e+02
3.189686e+03,4.622216e+02
3.190650e+03,4.836834e+02
3.191614e+03,4.638683e+02
3.192579e+03,4.605235e+02
3.193543e+03,4.705402e+02
3.194507e+03,4.694436e+02
3.195471e+03,4.491396e+02
3.196436e+03,4.021386e+02
3.197400e+03,4.046337e+02
3.198364e+03,4.365771e+02
3.199328e+03,4.626879e+02
3.200292e+03,4.619307e+02
3.201257e+03,0.000000e+00
3.202221e+03,0.000000e+00
3.203185e+03,0.000000e+00
3.204149e+03,0.000000e+00
3.205114e+03,0.000000e+00
3.206078e+03,0.000000e+00
3.207042e+03,0.000000e+00
3.208006e+03,0.000000e+00
3.208970e+03,0.000000e+00
3.209935e+03,0.000000e+00
3.210899e+03,0.000000e+00
3.211863e+03,0.000000e+00
3.212827e+03,0.000000e+00
3.213792e+03,0.000000e+00
3.214756e+03,0.000000e+00
3.215720e+03,0.000000e+00
3.216684e+03,0.000000e+00
3.217649e+03,0.000000e+00
3.218613e+03,0.000000e+00
3.219577e+03,0.000000e+00
3.220541e+03,0.000000e+00
3.221506e+03,0.000000e+00
3.222470e+03,0.000000e+00
3.223434e+03,0.000000e+00
3.224398e+03,0.000000e+00
3.225363e+03,0.000000e+00
3.226327e+03,0.000000e+00
3.227291e+03,0.000000e+00
3.228255e+03,0.000000e+00
3.229219e+03,0.000000e+00
3.230184e+03,0.000000e+00
3.231148e+03,0.000000e+00
3.232112e+03,0.000000e+00
3.233076e+03,0.000000e+00
3.234041e+03,0.000000e+00
3.235005e+03,0.000000e+00
3.235969e+03,0.000000e+00
3.236933e+03,0.000000e+00
3.237897e+03,0.000000e+00
3.238862e+03,0.000000e+00
3.239826e+03,0.000000e+00
3.240790e+03,0.000000e+00
3.241754e+03,0.000000e+00
3.242719e+03,0.000000e+00
3.243683e+03,0.000000e+00
3.244647e+03,0.000000e+00
3.245611e+03,0.000000e+00
3.246576e+03,0.000000e+00
3.247540e+03,0.000000e+00
3.248504e+03,0.000000e+00
3.249468e+03,0.000000e+00
3.250433e+03,0.000000e+00
3.251397e+03,0.000000e+00
3.252361e+03,0.000000e+00
3.253325e+03,0.000000e+00
3.254290e+03,0.000000e+00
3.255254e+03,0.000000e+00
3.256218e+03,0.000000e+00
3.257182e+03,0.000000e+00
3.258146e+03,0.000000e+00
3.259111e+03,0.000000e+00
3.260075e+03,0.000000e+00
3.261039e+03,0.000000e+00
3.262003e+03,0.000000e+00
3.262968e+03,0.000000e+00
3.263932e+03,0.000000e+00
3.264896e+03,0.000000e+00
3.265860e+03,0.000000e+00
3.266824e+03,0.000000e+00
3.267789e+03,0.000000e+00
3.268753e+03,0.000000e+00
3.269717e+03,0.000000e+00
3.270681e+03,0.000000e+00
3.271646e+03,0.000000e+00
3.272610e+03,0.000000e+00
3.273574e+03,0.000000e+00
3.274538e+03,0.000000e+00
3.275503e+03,0.000000e+00
3.276467e+03,0.000000e+00
3.277431e+03,0.000000e+00
3.278395e+03,0.000000e+00
3.279360e+03,0.000000e+00
3.280324e+03,0.000000e+00
3.281288e+03,0.000000e+00
3.282252e+03,0.000000e+00
3.283217e+03,0.000000e+00
3.284181e+03,0.000000e+00
3.285145e+03,0.000000e+00
3.286109e+03,0.000000e+00
3.287073e+03,0.000000e+00
3.288038e+03,0.000000e+00
3.289002e+03,0.000000e+00
3.289966e+03,0.000000e+00
3.290930e+03,0.000000e+00
3.291895e+03,0.000000e+00
3.292859e+03,0.000000e+00
3.293823e+03,0.000000e+00
3.294787e+03,0.000000e+00
3.295751e+03,0.000000e+00
3.296716e+03,0.000000e+00
3.297680e+03,0.000000e+00
3.298644e+03,0.000000e+00
3.299608e+03,0.000000e+00
3.300573e+03,0.000000e+00
3.301537e+03,0.000000e+00
3.302501e+03,0.000000e+00
3.303465e+03,0.000000e+00
3.304430e+03,0.000000e+00
3.305394e+03,0.000000e+00
3.306358e+03,0.000000e+00
3.307322e+03,0.000000e+00
3.308287e+03,0.000000e+00
3.309251e+03,0.000000e+00
3.310215e+03,0.000000e+00
3.311179e+03,0.000000e+00
3.312144e+03,0.000000e+00
3.313108e+03,0.000000e+00
3.314072e+03,0.000000e+00
3.315036e+03,0.000000e+00
3.316000e+03,0.000000e+00
3.316965e+03,0.000000e+00
3.317929e+03,0.000000e+00
3.318893e+03,0.000000e+00
3.319857e+03,0.000000e+00
3.320822e+03,0.000000e+00
3.321786e+03,0.000000e+00
3.322750e+03,0.000000e+00
3.323714e+03,0.000000e+00
3.324678e+03,0.000000e+00
3.325643e+03,0.000000e+00
3.326607e+03,0.000000e+00
3.327571e+03,0.000000e+00
3.328535e+03,0.000000e+00
3.329500e+03,0.000000e+00
3.330464e+03,0.000000e+00
3.331428e+03,0.000000e+00
3.332392e+03,0.000000e+00
3.333357e+03,0.000000e+00
3.334321e+03,0.000000e+00
3.335285e+03,0.000000e+00
3.336249e+03,0.000000e+00
3.337214e+03,0.000000e+00
3.338178e+03,0.000000e+00
3.339142e+03,0.000000e+00
3.340106e+03,0.000000e+00
3.341071e+03,0.000000e+00
3.342035e+03,0.000000e+00
3.342999e+03,0.000000e+00
3.343963e+03,0.000000e+00
3.344927e+03,0.000000e+00
3.345892e+03,0.000000e+00
3.346856e+03,0.000000e+00
3.347820e+03,0.000000e+00
3.348784e+03,0.000000e+00
3.349749e+03,0.000000e+00
3.350713e+03,0.000000e+00
3.351677e+03,0.000000e+00
3.352641e+03,0.000000e+00
3.353605e+03,0.000000e+00
3.354570e+03,0.000000e+00
3.355534e+03,0.000000e+00
3.356498e+03,0.000000e+00
3.357462e+03,0.000000e+00
3.358427e+03,0.000000e+00
3.359391e+03,0.000000e+00
3.360355e+03,0.000000e+00
3.361319e+03,0.000000e+00
3.362284e+03,0.000000e+00
3.363248e+03,0.000000e+00
3.364212e+03,0.000000e+00
3.365176e+03,0.000000e+00
3.366141e+03,0.000000e+00
3.367105e+03,0.000000e+00
3.368069e+03,0.000000e+00
3.369033e+03,0.000000e+00
3.369998e+03,0.000000e+00
3.370962e+03,0.000000e+00
3.371926e+03,0.000000e+00
3.372890e+03,0.000000e+00
3.373854e+03,0.000000e+00
3.374819e+03,0.000000e+00
3.375783e+03,0.000000e+00
3.376747e+03,0.000000e+00
3.377711e+03,0.000000e+00
3.378676e+03,0.000000e+00
3.379640e+03,0.000000e+00
3.380604e+03,0.000000e+00
3.381568e+03,0.000000e+00
3.382532e+03,0.000000e+00
3.383497e+03,0.000000e+00
3.384461e+03,0.000000e+00
3.385425e+03,0.000000e+00
3.386389e+03,0.000000e+00
3.387354e+03,0.000000e+00
3.388318e+03,0.000000e+00
3.389282e+03,0.000000e+00
3.390246e+03,0.000000e+00
3.391211e+03,0.000000e+00
3.392175e+03,0.000000e+00
3.393139e+03,0.000000e+00
3.394103e+03,0.000000e+00
3.395068e+03,0.000000e+00
3.396032e+03,0.000000e+00
3.396996e+03,0.000000e+00
3.397960e+03,0.000000e+00
3.398925e+03,0.000000e+00
3.399889e+03,0.000000e+00
3.400853e+03,0.000000e+00
3.401817e+03,0.000000e+00
3.402781e+03,0.000000e+00
3.403746e+03,0.000000e+00
3.404710e+03,0.000000e+00
3.405674e+03,0.000000e+00
3.406638e+03,0.000000e+00
3.407603e+03,0.000000e+00
3.408567e+03,0.000000e+00
3.409531e+03,0.000000e+00
3.410495e+03,0.000000e+00
3.411459e+03,0.000000e+00
3.412424e+03,0.000000e+00
3.413388e+03,0.000000e+00
3.414352e+03,0.000000e+00
3.415316e+03,0.000000e+00
3.416281e+03,0.000000e+00
3.417245e+03,0.000000e+00
3.418209e+03,0.000000e+00
3.419173e+03,0.000000e+00
3.420138e+03,0.000000e+00
3.421102e+03,0.000000e+00
3.422066e+03,0.000000e+00
3.423030e+03,0.000000e+00
3.423995e+03,0.000000e+00
3.424959e+03,0.000000e+00
3.425923e+03,0.000000e+00
3.426887e+03,0.000000e+00
3.427852e+03,0.000000e+00
3.428816e+03,0.000000e+00
3.429780e+03,0.000000e+00
3.430744e+03,0.000000e+00
3.431708e+03,0.000000e+00
3.432673e+03,0.000000e+00
3.433637e+03,0.000000e+00
3.434601e+03,0.000000e+00
3.435565e+03,0.000000e+00
3.436530e+03,0.000000e+00
3.437494e+03,0.000000e+00
3.438458e+03,0.000000e+00
3.439422e+03,0.000000e+00
3.440386e+03,0.000000e+00
3.441351e+03,0.000000e+00
3.442315e+03,0.000000e+00
3.443279e+03,0.000000e+00
3.444243e+03,0.000000e+00
3.445208e+03,0.000000e+00
3.446172e+03,0.000000e+00
3.447136e+03,0.000000e+00
3.448100e+03,0.000000e+00
3.449065e+03,0.000000e+00
3.450029e+03,0.000000e+00
3.450993e+03,0.000000e+00
3.451957e+03,0.000000e+00
3.452922e+03,0.000000e+00
3.453886e+03,0.000000e+00
3.454850e+03,0.000000e+00
3.455814e+03,0.000000e+00
3.456779e+03,0.000000e+00
3.457743e+03,0.000000e+00
3.458707e+03,0.000000e+00
3.459671e+03,0.000000e+00
3.460635e+03,0.000000e+00
3.461600e+03,0.000000e+00
3.462564e+03,0.000000e+00
3.463528e+03,0.000000e+00
3.464492e+03,0.000000e+00
3.465457e+03,0.000000e+00
3.466421e+03,0.000000e+00
3.467385e+03,0.000000e+00
3.468349e+03,0.000000e+00
3.469313e+03,0.000000e+00
3.470278e+03,0.000000e+00
3.471242e+03,0.000000e+00
3.472206e+03,0.000000e+00
3.473170e+03,0.000000e+00
3.474135e+03,0.000000e+00
3.475099e+03,0.000000e+00
3.476063e+03,0.000000e+00
3.477027e+03,0.000000e+00
3.477992e+03,0.000000e+00
3.478956e+03,0.000000e+00
3.479920e+03,0.000000e+00
3.480884e+03,0.000000e+00
3.481849e+03,0.000000e+00
3.482813e+03,0.000000e+00
3.483777e+03,0.000000e+00
3.484741e+03,0.000000e+00
3.485706e+03,0.000000e+00
3.486670e+03,0.000000e+00
3.487634e+03,0.000000e+00
3.488598e+03,0.000000e+00
3.489563e+03,0.000000e+00
3.490527e+03,0.000000e+00
3.491491e+03,0.000000e+00
3.492455e+03,0.000000e+00
3.493419e+03,0.000000e+00
3.494384e+03,0.000000e+00
3.495348e+03,0.000000e+00
3.496312e+03,0.000000e+00
3.497276e+03,0.000000e+00
3.498240e+03,0.000000e+00
3.499205e+03,0.000000e+00
3.500169e+03,0.000000e+00
