9.931763e+01,0.000000e+00
1.002819e+02,0.000000e+00
1.012461e+02,0.000000e+00
1.022103e+02,0.000000e+00
1.031746e+02,0.000000e+00
1.041388e+02,0.000000e+00
1.051030e+02,0.000000e+00
1.060673e+02,0.000000e+00
1.070315e+02,0.000000e+00
1.079957e+02,0.000000e+00
1.089600e+02,0.000000e+00
1.099242e+02,0.000000e+00
1.108884e+02,0.000000e+00
1.118527e+02,0.000000e+00
1.128169e+02,0.000000e+00
1.137811e+02,0.000000e+00
1.147454e+02,0.000000e+00
1.157096e+02,0.000000e+00
1.166738e+02,0.000000e+00
1.176381e+02,0.000000e+00
1.186023e+02,0.000000e+00
1.195665e+02,0.000000e+00
1.205308e+02,0.000000e+00
1.214950e+02,0.000000e+00
1.224592e+02,0.000000e+00
1.234235e+02,0.000000e+00
1.243877e+02,0.000000e+00
1.253519e+02,0.000000e+00
1.263162e+02,0.000000e+00
1.272804e+02,0.000000e+00
1.282446e+02,0.000000e+00
1.292089e+02,0.000000e+00
1.301731e+02,0.000000e+00
1.311373e+02,0.000000e+00
1.321016e+02,0.000000e+00
1.330658e+02,0.000000e+00
1.340300e+02,0.000000e+00
1.349943e+02,0.000000e+00
1.359585e+02,0.000000e+00
1.369227e+02,0.000000e+00
1.378870e+02,0.000000e+00
1.388512e+02,0.000000e+00
1.398154e+02,0.000000e+00
1.407797e+02,0.000000e+00
1.417439e+02,0.000000e+00
1.427081e+02,0.000000e+00
1.436724e+02,0.000000e+00
1.446366e+02,0.000000e+00
1.456008e+02,0.000000e+00
1.465651e+02,0.000000e+00
1.475293e+02,0.000000e+00
1.484935e+02,0.000000e+00
1.494578e+02,0.000000e+00
1.504220e+02,0.000000e+00
1.513862e+02,0.000000e+00
1.523505e+02,0.000000e+00
1.533147e+02,0.000000e+00
1.542789e+02,0.000000e+00
1.552432e+02,0.000000e+00
1.562074e+02,0.000000e+00
1.571716e+02,0.000000e+00
1.581359e+02,0.000000e+00
1.591001e+02,0.000000e+00
1.600643e+02,0.000000e+00
1.610286e+02,0.000000e+00
1.619928e+02,0.000000e+00
1.629570e+02,0.000000e+00
1.639213e+02,0.000000e+00
1.648855e+02,0.000000e+00
1.658497e+02,0.000000e+00
1.668140e+02,0.000000e+00
1.677782e+02,0.000000e+00
1.687424e+02,0.000000e+00
1.697067e+02,0.000000e+00
1.706709e+02,0.000000e+00
1.716351e+02,0.000000e+00
1.725994e+02,0.000000e+00
1.735636e+02,0.000000e+00
1.745278e+02,0.000000e+00
1.754921e+02,0.000000e+00
1.764563e+02,0.000000e+00
1.774205e+02,0.000000e+00
1.783848e+02,0.000000e+00
1.793490e+02,0.000000e+00
1.803132e+02,0.000000e+00
1.812775e+02,0.000000e+00
1.822417e+02,0.000000e+00
1.832059e+02,0.000000e+00
1.841702e+02,0.000000e+00
1.851344e+02,0.000000e+00
1.860986e+02,0.000000e+00
1.870629e+02,0.000000e+00
1.880271e+02,0.000000e+00
1.889913e+02,0.000000e+00
1.899556e+02,0.000000e+00
1.909198e+02,0.000000e+00
1.918840e+02,0.000000e+00
1.928483e+02,0.000000e+00
1.938125e+02,0.000000e+00
1.947767e+02,0.000000e+00
1.957410e+02,0.000000e+00
1.967052e+02,0.000000e+00
1.976694e+02,0.000000e+00
1.986337e+02,0.000000e+00
1.995979e+02,1.558035e+03
2.005621e+02,1.558160e+03
2.015264e+02,1.560230e+03
2.024906e+02,1.568345e+03
2.034548e+02,1.574844e+03
2.044191e+02,1.576724e+03
2.053833e+02,1.574320e+03
2.063475e+02,1.570426e+03
2.073118e+02,1.567982e+03
2.082760e+02,1.567534e+03
2.092402e+02,1.566961e+03
2.102045e+02,1.565800e+03
2.111687e+02,1.565640e+03
2.121329e+02,1.567992e+03
2.130972e+02,1.573927e+03
2.140614e+02,1.581060e+03
2.150256e+02,1.583542e+03
2.159899e+02,1.578150e+03
2.169541e+02,1.572923e+03
2.179183e+02,1.571205e+03
2.188826e+02,1.572390e+03
2.198468e+02,1.574697e+03
2.208110e+02,1.577395e+03
2.217753e+02,1.580244e+03
2.227395e+02,1.581779e+03
2.237037e+02,1.582217e+03
2.246680e+02,1.581894e+03
2.256322e+02,1.580789e+03
2.265964e+02,1.579243e+03
2.275607e+02,1.577606e+03
2.285249e+02,1.575367e+03
2.294892e+02,1.572051e+03
2.304534e+02,1.570721e+03
2.314176e+02,1.574471e+03
2.323819e+02,1.581803e+03
2.333461e+02,1.587638e+03
2.343103e+02,1.590594e+03
2.352746e+02,1.591446e+03
2.362388e+02,1.590959e+03
2.372030e+02,1.588574e+03
2.381673e+02,1.584643e+03
2.391315e+02,1.580834e+03
2.400957e+02,1.576576e+03
2.410600e+02,1.574386e+03
2.420242e+02,1.577113e+03
2.429884e+02,1.583926e+03
2.439527e+02,1.590787e+03
2.449169e+02,1.594595e+03
2.458811e+02,1.594601e+03
2.468454e+02,1.594336e+03
2.478096e+02,1.592919e+03
2.487738e+02,1.591845e+03
2.497381e+02,1.592563e+03
2.507023e+02,1.595294e+03
2.516665e+02,1.598688e+03
2.526308e+02,1.600412e+03
2.535950e+02,1.596865e+03
2.545592e+02,1.594621e+03
2.555235e+02,1.596469e+03
2.564877e+02,1.599540e+03
2.574519e+02,1.600059e+03
2.584161e+02,1.595440e+03
2.593804e+02,1.586748e+03
2.603446e+02,1.582872e+03
2.613088e+02,1.587797e+03
2.622731e+02,1.593648e+03
2.632373e+02,1.598750e+03
2.642015e+02,1.602486e+03
2.651658e+02,1.604811e+03
2.661300e+02,1.605867e+03
2.670942e+02,1.605926e+03
2.680585e+02,1.606217e+03
2.690227e+02,1.607222e+03
2.699869e+02,1.608283e+03
2.709512e+02,1.608888e+03
2.719154e+02,1.609568e+03
2.728796e+02,1.609987e+03
2.738439e+02,1.608944e+03
2.748081e+02,1.606037e+03
2.757723e+02,1.604915e+03
2.767366e+02,1.608543e+03
2.777008e+02,1.614830e+03
2.786650e+02,1.618355e+03
2.796293e+02,1.615434e+03
2.805935e+02,1.609676e+03
2.815577e+02,1.607157e+03
2.825220e+02,1.609425e+03
2.834862e+02,1.613896e+03
2.844504e+02,1.616381e+03
2.854147e+02,1.617032e+03
2.863789e+02,1.616796e+03
2.873431e+02,1.616029e+03
2.883074e+02,1.615109e+03
2.892716e+02,1.614205e+03
2.902358e+02,1.613042e+03
2.912001e+02,1.611406e+03
2.921643e+02,1.609947e+03
2.931285e+02,1.607836e+03
2.940928e+02,1.607181e+03
2.950570e+02,1.609703e+03
2.960212e+02,1.614685e+03
2.969855e+02,1.619453e+03
2.979497e+02,1.621080e+03
2.989139e+02,1.618441e+03
2.998782e+02,1.616286e+03
3.008424e+02,1.615992e+03
3.018066e+02,1.616525e+03
3.027709e+02,1.616646e+03
3.037351e+02,1.615635e+03
3.046993e+02,1.613700e+03
3.056636e+02,1.611231e+03
3.066278e+02,1.607770e+03
3.075920e+02,1.605717e+03
3.085563e+02,1.606581e+03
3.095205e+02,1.609898e+03
3.104847e+02,1.614073e+03
3.114490e+02,1.619166e+03
3.124132e+02,1.623953e+03
3.133774e+02,1.625736e+03
3.143417e+02,1.623049e+03
3.153059e+02,1.619021e+03
3.162701e+02,1.619132e+03
3.172344e+02,1.626427e+03
3.181986e+02,1.631011e+03
3.191628e+02,1.626717e+03
3.201271e+02,1.617854e+03
3.210913e+02,1.612763e+03
3.220555e+02,1.615542e+03
3.230198e+02,1.624725e+03
3.239840e+02,1.631311e+03
3.249482e+02,1.635661e+03
3.259125e+02,1.637170e+03
3.268767e+02,1.633311e+03
3.278409e+02,1.625924e+03
3.288052e+02,1.619662e+03
3.297694e+02,1.619539e+03
3.307336e+02,1.627365e+03
3.316979e+02,1.631203e+03
3.326621e+02,1.626842e+03
3.336263e+02,1.620867e+03
3.345906e+02,1.616487e+03
3.355548e+02,1.614889e+03
3.365190e+02,1.614996e+03
3.374833e+02,1.615473e+03
3.384475e+02,1.616181e+03
3.394117e+02,1.617189e+03
3.403760e+02,1.617333e+03
3.413402e+02,1.617553e+03
3.423044e+02,1.619716e+03
3.432687e+02,1.626988e+03
3.442329e+02,1.634456e+03
3.451971e+02,1.636650e+03
3.461614e+02,1.633013e+03
3.471256e+02,1.627686e+03
3.480898e+02,1.624611e+03
3.490541e+02,1.625188e+03
3.500183e+02,1.625689e+03
3.509825e+02,1.626828e+03
3.519468e+02,1.628273e+03
3.529110e+02,1.628940e+03
3.538752e+02,1.628289e+03
3.548395e+02,1.627416e+03
3.558037e+02,1.629198e+03
3.567680e+02,1.637580e+03
3.577322e+02,1.642055e+03
3.586964e+02,1.639148e+03
3.596607e+02,1.633623e+03
3.606249e+02,1.630421e+03
3.615891e+02,1.632097e+03
3.625534e+02,1.635983e+03
3.635176e+02,1.637075e+03
3.644818e+02,1.635459e+03
3.654461e+02,1.632457e+03
3.664103e+02,1.627866e+03
3.673745e+02,1.622953e+03
3.683388e+02,1.621667e+03
3.693030e+02,1.626449e+03
3.702672e+02,1.634216e+03
3.712315e+02,1.640939e+03
3.721957e+02,1.645705e+03
3.731599e+02,1.648962e+03
3.741242e+02,1.651985e+03
3.750884e+02,1.658138e+03
3.760526e+02,1.661470e+03
3.770169e+02,1.659422e+03
3.779811e+02,1.654514e+03
3.789453e+02,1.649597e+03
3.799096e+02,1.645864e+03
3.808738e+02,1.642944e+03
3.818380e+02,1.640010e+03
3.828023e+02,1.638096e+03
3.837665e+02,1.636268e+03
3.847307e+02,1.633921e+03
3.856950e+02,1.631175e+03
3.866592e+02,1.628309e+03
3.876234e+02,1.624370e+03
3.885877e+02,1.620206e+03
3.895519e+02,1.618794e+03
3.905161e+02,1.621025e+03
3.914804e+02,1.624195e+03
3.924446e+02,1.625830e+03
3.934088e+02,1.626507e+03
3.943731e+02,1.625867e+03
3.953373e+02,1.622205e+03
3.963015e+02,1.617392e+03
3.972658e+02,1.614190e+03
3.982300e+02,1.613835e+03
3.991942e+02,1.616021e+03
4.001585e+02,1.618607e+03
4.011227e+02,1.621898e+03
4.020869e+02,1.623980e+03
4.030512e+02,1.623781e+03
4.040154e+02,1.621693e+03
4.049796e+02,1.618654e+03
4.059439e+02,1.614087e+03
4.069081e+02,1.609059e+03
4.078723e+02,1.608195e+03
4.088366e+02,1.612966e+03
4.098008e+02,1.618175e+03
4.107650e+02,1.621203e+03
4.117293e+02,1.622443e+03
4.126935e+02,1.623908e+03
4.136577e+02,1.627502e+03
4.146220e+02,1.631353e+03
4.155862e+02,1.632214e+03
4.165504e+02,1.629207e+03
4.175147e+02,1.624764e+03
4.184789e+02,1.622649e+03
4.194431e+02,1.626103e+03
4.204074e+02,1.627911e+03
4.213716e+02,1.626719e+03
4.223358e+02,1.624260e+03
4.233001e+02,1.622468e+03
4.242643e+02,1.622462e+03
4.252285e+02,1.623456e+03
4.261928e+02,1.623100e+03
4.271570e+02,1.620549e+03
4.281212e+02,1.618953e+03
4.290855e+02,1.619387e+03
4.300497e+02,1.621342e+03
4.310139e+02,1.624247e+03
4.319782e+02,1.629295e+03
4.329424e+02,1.634986e+03
4.339066e+02,1.640287e+03
4.348709e+02,1.644931e+03
4.358351e+02,1.646453e+03
4.367993e+02,1.641868e+03
4.377636e+02,1.627087e+03
4.387278e+02,1.617187e+03
4.396920e+02,1.614255e+03
4.406563e+02,1.614928e+03
4.416205e+02,1.617690e+03
4.425847e+02,1.621947e+03
4.435490e+02,1.625920e+03
4.445132e+02,1.627414e+03
4.454774e+02,1.626442e+03
4.464417e+02,1.623958e+03
4.474059e+02,1.617027e+03
4.483701e+02,1.609370e+03
4.493344e+02,1.606076e+03
4.502986e+02,1.611975e+03
4.512628e+02,1.619158e+03
4.522271e+02,1.621930e+03
4.531913e+02,1.620992e+03
4.541555e+02,1.619572e+03
4.551198e+02,1.619574e+03
4.560840e+02,1.621088e+03
4.570482e+02,1.620853e+03
4.580125e+02,1.618342e+03
4.589767e+02,1.616061e+03
4.599409e+02,1.613708e+03
4.609052e+02,1.611249e+03
4.618694e+02,1.609643e+03
4.628336e+02,1.611467e+03
4.637979e+02,1.616146e+03
4.647621e+02,1.616522e+03
4.657263e+02,1.610088e+03
4.666906e+02,1.602819e+03
4.676548e+02,1.600247e+03
4.686190e+02,1.603158e+03
4.695833e+02,1.606254e+03
4.705475e+02,1.607599e+03
4.715117e+02,1.607976e+03
4.724760e+02,1.609074e+03
4.734402e+02,1.611700e+03
4.744044e+02,1.614559e+03
4.753687e+02,1.614125e+03
4.763329e+02,1.606544e+03
4.772971e+02,1.601731e+03
4.782614e+02,1.602625e+03
4.792256e+02,1.606545e+03
4.801898e+02,1.609989e+03
4.811541e+02,1.610815e+03
4.821183e+02,1.610630e+03
4.830826e+02,1.612387e+03
4.840468e+02,1.616143e+03
4.850110e+02,1.618422e+03
4.859753e+02,1.616943e+03
4.869395e+02,1.611290e+03
4.879037e+02,1.606796e+03
4.888680e+02,1.603376e+03
4.898322e+02,1.601428e+03
4.907964e+02,1.601832e+03
4.917607e+02,1.604351e+03
4.927249e+02,1.607511e+03
4.936891e+02,1.610626e+03
4.946534e+02,1.613804e+03
4.956176e+02,1.613666e+03
4.965818e+02,1.606927e+03
4.975461e+02,1.599943e+03
4.985103e+02,1.598364e+03
4.994745e+02,1.603469e+03
5.004388e+02,1.607198e+03
5.014030e+02,1.604931e+03
5.023672e+02,1.599788e+03
5.033315e+02,1.597035e+03
5.042957e+02,1.598380e+03
5.052599e+02,1.601590e+03
5.062242e+02,1.602285e+03
5.071884e+02,1.599610e+03
5.081526e+02,1.596219e+03
5.091169e+02,1.590268e+03
5.100811e+02,1.585005e+03
5.110453e+02,1.584174e+03
5.120095e+02,1.591602e+03
5.129738e+02,1.601745e+03
5.139380e+02,1.607637e+03
5.149022e+02,1.609377e+03
5.158665e+02,1.609827e+03
5.168307e+02,1.609740e+03
5.177949e+02,1.608337e+03
5.187592e+02,1.606220e+03
5.197234e+02,1.605551e+03
5.206876e+02,1.604682e+03
5.216519e+02,1.602565e+03
5.226161e+02,1.599651e+03
5.235803e+02,1.597055e+03
5.245446e+02,1.595834e+03
5.255088e+02,1.595737e+03
5.264730e+02,1.594833e+03
5.274373e+02,1.592355e+03
5.284015e+02,1.590290e+03
5.293657e+02,1.590979e+03
5.303300e+02,1.595121e+03
5.312942e+02,1.596564e+03
5.322584e+02,1.592931e+03
5.332227e+02,1.587858e+03
5.341869e+02,1.584238e+03
5.351511e+02,1.582388e+03
5.361154e+02,1.581233e+03
5.370796e+02,1.579348e+03
5.380438e+02,1.576325e+03
5.390081e+02,1.575258e+03
5.399723e+02,1.578565e+03
5.409365e+02,1.583143e+03
5.419008e+02,1.585555e+03
5.428650e+02,1.584012e+03
5.438292e+02,1.581977e+03
5.447935e+02,1.581617e+03
5.457577e+02,1.582180e+03
5.467219e+02,1.581959e+03
5.476862e+02,1.580176e+03
5.486504e+02,1.577512e+03
5.496146e+02,1.576260e+03
5.505789e+02,1.577737e+03
5.515431e+02,1.578418e+03
5.525073e+02,1.577863e+03
5.534716e+02,1.577090e+03
5.544358e+02,1.576747e+03
5.554000e+02,1.576502e+03
5.563643e+02,1.576194e+03
5.573285e+02,1.575372e+03
5.582927e+02,1.574019e+03
5.592570e+02,1.573291e+03
5.602212e+02,1.574309e+03
5.611854e+02,1.576920e+03
5.621497e+02,1.578750e+03
5.631139e+02,1.579084e+03
5.640781e+02,1.578436e+03
5.650424e+02,1.577061e+03
5.660066e+02,1.575319e+03
5.669708e+02,1.573888e+03
5.679351e+02,1.574325e+03
5.688993e+02,1.575334e+03
5.698635e+02,1.573941e+03
5.708278e+02,1.569917e+03
5.717920e+02,1.566037e+03
5.727562e+02,1.564507e+03
5.737205e+02,1.565820e+03
5.746847e+02,1.566500e+03
5.756489e+02,1.564457e+03
5.766132e+02,1.563072e+03
5.775774e+02,1.565721e+03
5.785416e+02,1.572521e+03
5.795059e+02,1.577823e+03
5.804701e+02,1.575798e+03
5.814343e+02,1.568574e+03
5.823986e+02,1.562841e+03
5.833628e+02,1.559864e+03
5.843270e+02,1.558858e+03
5.852913e+02,1.558688e+03
5.862555e+02,1.560291e+03
5.872197e+02,1.561340e+03
5.881840e+02,1.562097e+03
5.891482e+02,1.561880e+03
5.901124e+02,1.559173e+03
5.910767e+02,1.552925e+03
5.920409e+02,1.548233e+03
5.930051e+02,1.552674e+03
5.939694e+02,1.564146e+03
5.949336e+02,1.570851e+03
5.958978e+02,1.568322e+03
5.968621e+02,1.560393e+03
5.978263e+02,1.556055e+03
5.987905e+02,1.559809e+03
5.997548e+02,1.562459e+03
6.007190e+02,1.562727e+03
6.016832e+02,1.562050e+03
6.026475e+02,1.562075e+03
6.036117e+02,1.563947e+03
6.045759e+02,1.564956e+03
6.055402e+02,1.559503e+03
6.065044e+02,1.548474e+03
6.074686e+02,1.541977e+03
6.084329e+02,1.545756e+03
6.093971e+02,1.557592e+03
6.103613e+02,1.565766e+03
6.113256e+02,1.570167e+03
6.122899e+02,1.570837e+03
6.132541e+02,1.564641e+03
6.142183e+02,1.555036e+03
6.151826e+02,1.547906e+03
6.161468e+02,1.548554e+03
6.171110e+02,1.551915e+03
6.180753e+02,1.550881e+03
6.190395e+02,1.545787e+03
6.200037e+02,1.541204e+03
6.209680e+02,1.540105e+03
6.219322e+02,1.542448e+03
6.228964e+02,1.542877e+03
6.238607e+02,1.537748e+03
6.248249e+02,1.534335e+03
6.257891e+02,1.535481e+03
6.267534e+02,1.539569e+03
6.277176e+02,1.542685e+03
6.286818e+02,1.543392e+03
6.296461e+02,1.543074e+03
6.306103e+02,1.542995e+03
6.315745e+02,1.543260e+03
6.325388e+02,1.543504e+03
6.335030e+02,1.543057e+03
6.344672e+02,1.541634e+03
6.354315e+02,1.540952e+03
6.363957e+02,1.541315e+03
6.373599e+02,1.541314e+03
6.383242e+02,1.540561e+03
6.392884e+02,1.539323e+03
6.402526e+02,1.538259e+03
6.412169e+02,1.537995e+03
6.421811e+02,1.537621e+03
6.431453e+02,1.535891e+03
6.441096e+02,1.532934e+03
6.450738e+02,1.530212e+03
6.460380e+02,1.529143e+03
6.470023e+02,1.530060e+03
6.479665e+02,1.533078e+03
6.489307e+02,1.539671e+03
6.498950e+02,1.545434e+03
6.508592e+02,1.546043e+03
6.518234e+02,1.540980e+03
6.527877e+02,1.536041e+03
6.537519e+02,1.530664e+03
6.547161e+02,1.526881e+03
6.556804e+02,1.527745e+03
6.566446e+02,1.532912e+03
6.576088e+02,1.537453e+03
6.585731e+02,1.536092e+03
6.595373e+02,1.529769e+03
6.605015e+02,1.523499e+03
6.614658e+02,1.517033e+03
6.624300e+02,1.512659e+03
6.633942e+02,1.512809e+03
6.643585e+02,1.519123e+03
6.653227e+02,1.525811e+03
6.662869e+02,1.536066e+03
6.672512e+02,1.543868e+03
6.682154e+02,1.543840e+03
6.691796e+02,1.535348e+03
6.701439e+02,1.526795e+03
6.711081e+02,1.526082e+03
6.720723e+02,1.529359e+03
6.730366e+02,1.528076e+03
6.740008e+02,1.520822e+03
6.749650e+02,1.512203e+03
6.759293e+02,1.507640e+03
6.768935e+02,1.508582e+03
6.778577e+02,1.510084e+03
6.788220e+02,1.514206e+03
6.797862e+02,1.518118e+03
6.807504e+02,1.518885e+03
6.817147e+02,1.515288e+03
6.826789e+02,1.512105e+03
6.836431e+02,1.511393e+03
6.846074e+02,1.511246e+03
6.855716e+02,1.509799e+03
6.865358e+02,1.507021e+03
6.875001e+02,1.504322e+03
6.884643e+02,1.502869e+03
6.894285e+02,1.502730e+03
6.903928e+02,1.505059e+03
6.913570e+02,1.511668e+03
6.923212e+02,1.517680e+03
6.932855e+02,1.517686e+03
6.942497e+02,1.508005e+03
6.952139e+02,1.500947e+03
6.961782e+02,1.496111e+03
6.971424e+02,1.493922e+03
6.981066e+02,1.495207e+03
6.990709e+02,1.499543e+03
7.000351e+02,1.503631e+03
7.009993e+02,1.505915e+03
7.019636e+02,1.507184e+03
7.029278e+02,1.508595e+03
7.038920e+02,1.510294e+03
7.048563e+02,1.510687e+03
7.058205e+02,1.507583e+03
7.067847e+02,1.499843e+03
7.077490e+02,1.494658e+03
7.087132e+02,1.493560e+03
7.096774e+02,1.495374e+03
7.106417e+02,1.498919e+03
7.116059e+02,1.505226e+03
7.125701e+02,1.507157e+03
7.135344e+02,1.498928e+03
7.144986e+02,1.488330e+03
7.154628e+02,1.482232e+03
7.164271e+02,1.481555e+03
7.173913e+02,1.482817e+03
7.183555e+02,1.482406e+03
7.193198e+02,1.480865e+03
7.202840e+02,1.482106e+03
7.212482e+02,1.487666e+03
7.222125e+02,1.492961e+03
7.231767e+02,1.492338e+03
7.241409e+02,1.481521e+03
7.251052e+02,1.475537e+03
7.260694e+02,1.479715e+03
7.270336e+02,1.484328e+03
7.279979e+02,1.483666e+03
7.289621e+02,1.477016e+03
7.299263e+02,1.471516e+03
7.308906e+02,1.471310e+03
7.318548e+02,1.472872e+03
7.328190e+02,1.472653e+03
7.337833e+02,1.470287e+03
7.347475e+02,1.467201e+03
7.357117e+02,1.463918e+03
7.366760e+02,1.461025e+03
7.376402e+02,1.463408e+03
7.386044e+02,1.473318e+03
7.395687e+02,1.483001e+03
7.405329e+02,1.485254e+03
7.414971e+02,1.477615e+03
7.424614e+02,1.472565e+03
7.434256e+02,1.472473e+03
7.443898e+02,1.474149e+03
7.453541e+02,1.475877e+03
7.463183e+02,1.476754e+03
7.472825e+02,1.476701e+03
7.482468e+02,1.475801e+03
7.492110e+02,1.474129e+03
7.501752e+02,1.472362e+03
7.511395e+02,1.471003e+03
7.521037e+02,1.469553e+03
7.530679e+02,1.466419e+03
7.540322e+02,1.461702e+03
7.549964e+02,1.459234e+03
7.559606e+02,1.459724e+03
7.569249e+02,1.461314e+03
7.578891e+02,1.463309e+03
7.588533e+02,1.465983e+03
7.598176e+02,1.467143e+03
7.607818e+02,1.463409e+03
7.617460e+02,1.459210e+03
7.627103e+02,1.457246e+03
7.636745e+02,1.457288e+03
7.646387e+02,1.456572e+03
7.656030e+02,1.451278e+03
7.665672e+02,1.446755e+03
7.675314e+02,1.448499e+03
7.684957e+02,1.453932e+03
7.694599e+02,1.456830e+03
7.704241e+02,1.453516e+03
7.713884e+02,1.446721e+03
7.723526e+02,1.442774e+03
7.733168e+02,1.442164e+03
7.742811e+02,1.443305e+03
7.752453e+02,1.445162e+03
7.762095e+02,1.446998e+03
7.771738e+02,1.447388e+03
7.781380e+02,1.443449e+03
7.791022e+02,1.440557e+03
7.800665e+02,1.442111e+03
7.810307e+02,1.445584e+03
7.819949e+02,1.446669e+03
7.829592e+02,1.442490e+03
7.839234e+02,1.438595e+03
7.848876e+02,1.436851e+03
7.858519e+02,1.436893e+03
7.868161e+02,1.438851e+03
7.877803e+02,1.443407e+03
7.887446e+02,1.447888e+03
7.897088e+02,1.448579e+03
7.906730e+02,1.446368e+03
7.916373e+02,1.443777e+03
7.926015e+02,1.440555e+03
7.935657e+02,1.436752e+03
7.945300e+02,1.434326e+03
7.954942e+02,1.434280e+03
7.964584e+02,1.434719e+03
7.974227e+02,1.437945e+03
7.983869e+02,1.442208e+03
7.993511e+02,1.443621e+03
8.003154e+02,1.439164e+03
8.012796e+02,1.434832e+03
8.022438e+02,1.432387e+03
8.032081e+02,1.431183e+03
8.041723e+02,1.430227e+03
8.051365e+02,1.429029e+03
8.061008e+02,1.429080e+03
8.070650e+02,1.433248e+03
8.080292e+02,1.438375e+03
8.089935e+02,1.439304e+03
8.099577e+02,1.435708e+03
8.109219e+02,1.430828e+03
8.118862e+02,1.427934e+03
8.128504e+02,1.426934e+03
8.138146e+02,1.425110e+03
8.147789e+02,1.421907e+03
8.157431e+02,1.418194e+03
8.167073e+02,1.414713e+03
8.176716e+02,1.411905e+03
8.186358e+02,1.411296e+03
8.196000e+02,1.414852e+03
8.205643e+02,1.418608e+03
8.215285e+02,1.420150e+03
8.224927e+02,1.419629e+03
8.234570e+02,1.419334e+03
8.244212e+02,1.420897e+03
8.253854e+02,1.422031e+03
8.263497e+02,1.420724e+03
8.273139e+02,1.417131e+03
8.282781e+02,1.412923e+03
8.292424e+02,1.408376e+03
8.302066e+02,1.405416e+03
8.311708e+02,1.407995e+03
8.321351e+02,1.414879e+03
8.330993e+02,1.419509e+03
8.340635e+02,1.417780e+03
8.350278e+02,1.411830e+03
8.359920e+02,1.408643e+03
8.369562e+02,1.408761e+03
8.379205e+02,1.408985e+03
8.388847e+02,1.408068e+03
8.398489e+02,1.406787e+03
8.408132e+02,1.406983e+03
8.417774e+02,1.411294e+03
8.427416e+02,1.412803e+03
8.437059e+02,1.407844e+03
8.446701e+02,1.401389e+03
8.456343e+02,1.399210e+03
8.465986e+02,1.405030e+03
8.475628e+02,1.408838e+03
8.485270e+02,1.405967e+03
8.494913e+02,1.400110e+03
8.504555e+02,1.394759e+03
8.514197e+02,1.390884e+03
8.523840e+02,1.388621e+03
8.533482e+02,1.388373e+03
8.543124e+02,1.389277e+03
8.552767e+02,1.390259e+03
8.562409e+02,1.391009e+03
8.572051e+02,1.391052e+03
8.581694e+02,1.389743e+03
8.591336e+02,1.387469e+03
8.600978e+02,1.386848e+03
8.610621e+02,1.388556e+03
8.620263e+02,1.390516e+03
8.629905e+02,1.390872e+03
8.639548e+02,1.389068e+03
8.649190e+02,1.386285e+03
8.658832e+02,1.381463e+03
8.668475e+02,1.378431e+03
8.678117e+02,1.380389e+03
8.687759e+02,1.385962e+03
8.697402e+02,1.388751e+03
8.707044e+02,1.384035e+03
8.716686e+02,1.379632e+03
8.726329e+02,1.379049e+03
8.735971e+02,1.381598e+03
8.745613e+02,1.385351e+03
8.755256e+02,1.392703e+03
8.764898e+02,1.398434e+03
8.774540e+02,1.397464e+03
8.784183e+02,1.392212e+03
8.793825e+02,1.386445e+03
8.803467e+02,1.381083e+03
8.813110e+02,1.377746e+03
8.822752e+02,1.380197e+03
8.832394e+02,1.387060e+03
8.842037e+02,1.392861e+03
8.851679e+02,1.396047e+03
8.861321e+02,1.396237e+03
8.870964e+02,1.391814e+03
8.880606e+02,1.382301e+03
8.890248e+02,1.376568e+03
8.899891e+02,1.376966e+03
8.909533e+02,1.379327e+03
8.919175e+02,1.379377e+03
8.928818e+02,1.376335e+03
8.938460e+02,1.374456e+03
8.948102e+02,1.374488e+03
8.957745e+02,1.374178e+03
8.967387e+02,1.371744e+03
8.977029e+02,1.367039e+03
8.986672e+02,1.364283e+03
8.996314e+02,1.367873e+03
9.005956e+02,1.370889e+03
9.015599e+02,1.369194e+03
9.025241e+02,1.364139e+03
9.034883e+02,1.360093e+03
9.044526e+02,1.358798e+03
9.054168e+02,1.358168e+03
9.063810e+02,1.358778e+03
9.073453e+02,1.360340e+03
9.083095e+02,1.361016e+03
9.092737e+02,1.359242e+03
9.102380e+02,1.356447e+03
9.112022e+02,1.353621e+03
9.121664e+02,1.351141e+03
9.131307e+02,1.350705e+03
9.140949e+02,1.353371e+03
9.150591e+02,1.357422e+03
9.160234e+02,1.359430e+03
9.169876e+02,1.358946e+03
9.179518e+02,1.358362e+03
9.189161e+02,1.358105e+03
9.198803e+02,1.357630e+03
9.208445e+02,1.357078e+03
9.218088e+02,1.357117e+03
9.227730e+02,1.355031e+03
9.237372e+02,1.349353e+03
9.247015e+02,1.343616e+03
9.256657e+02,1.339832e+03
9.266299e+02,1.337897e+03
9.275942e+02,1.338364e+03
9.285584e+02,1.344556e+03
9.295226e+02,1.348557e+03
9.304869e+02,1.346041e+03
9.314511e+02,1.339330e+03
9.324153e+02,1.335257e+03
9.333796e+02,1.337045e+03
9.343438e+02,1.338310e+03
9.353080e+02,1.336336e+03
9.362723e+02,1.332442e+03
9.372365e+02,1.329177e+03
9.382007e+02,1.328504e+03
9.391650e+02,1.328273e+03
9.401292e+02,1.326575e+03
9.410934e+02,1.325006e+03
9.420577e+02,1.325597e+03
9.430219e+02,1.328874e+03
9.439861e+02,1.331644e+03
9.449504e+02,1.331894e+03
9.459146e+02,1.331115e+03
9.468788e+02,1.330435e+03
9.478431e+02,1.329245e+03
9.488073e+02,1.326843e+03
9.497715e+02,1.322139e+03
9.507358e+02,1.316935e+03
9.517000e+02,1.315468e+03
9.526642e+02,1.317931e+03
9.536285e+02,1.321198e+03
9.545927e+02,1.323386e+03
9.555569e+02,1.324353e+03
9.565212e+02,1.323462e+03
9.574854e+02,1.321127e+03
9.584496e+02,1.318578e+03
9.594139e+02,1.315261e+03
9.603781e+02,1.312009e+03
9.613423e+02,1.312616e+03
9.623066e+02,1.318374e+03
9.632708e+02,1.322142e+03
9.642350e+02,1.322466e+03
9.651993e+02,1.321134e+03
9.661635e+02,1.320052e+03
9.671277e+02,1.318867e+03
9.680920e+02,1.317621e+03
9.690562e+02,1.316118e+03
9.700204e+02,1.314565e+03
9.709847e+02,1.313770e+03
9.719489e+02,1.314529e+03
9.729131e+02,1.314045e+03
9.738774e+02,1.311558e+03
9.748416e+02,1.309273e+03
9.758058e+02,1.306859e+03
9.767701e+02,1.304362e+03
9.777343e+02,1.303958e+03
9.786985e+02,1.308341e+03
9.796628e+02,1.311918e+03
9.806270e+02,1.313317e+03
9.815912e+02,1.312666e+03
9.825555e+02,1.310258e+03
9.835197e+02,1.304541e+03
9.844839e+02,1.300572e+03
9.854482e+02,1.302505e+03
9.864124e+02,1.306503e+03
9.873766e+02,1.307945e+03
9.883409e+02,1.305703e+03
9.893051e+02,1.301964e+03
9.902693e+02,1.295664e+03
9.912336e+02,1.290065e+03
9.921978e+02,1.289203e+03
9.931620e+02,1.292593e+03
9.941263e+02,1.295662e+03
9.950905e+02,1.294602e+03
9.960547e+02,1.292141e+03
9.970190e+02,1.291782e+03
9.979832e+02,1.293023e+03
9.989474e+02,1.293982e+03
9.999117e+02,1.294363e+03
1.000876e+03,1.294008e+03
1.001840e+03,1.292074e+03
1.002804e+03,1.289224e+03
1.003769e+03,1.286229e+03
1.004733e+03,1.282719e+03
1.005697e+03,1.280263e+03
1.006661e+03,1.283275e+03
1.007626e+03,1.290129e+03
1.008590e+03,1.292157e+03
1.009554e+03,1.287311e+03
1.010518e+03,1.280812e+03
1.011482e+03,1.279159e+03
1.012447e+03,1.281650e+03
1.013411e+03,1.282836e+03
1.014375e+03,1.283063e+03
1.015339e+03,1.283318e+03
1.016304e+03,1.283809e+03
1.017268e+03,1.284427e+03
1.018232e+03,1.285332e+03
1.019196e+03,1.286391e+03
1.020161e+03,1.287628e+03
1.021125e+03,1.289860e+03
1.022089e+03,1.292073e+03
1.023053e+03,1.289461e+03
1.024018e+03,1.279759e+03
1.024982e+03,1.274667e+03
1.025946e+03,1.277808e+03
1.026910e+03,1.282966e+03
1.027875e+03,1.282172e+03
1.028839e+03,1.273392e+03
1.029803e+03,1.269217e+03
1.030767e+03,1.271809e+03
1.031731e+03,1.275557e+03
1.032696e+03,1.276202e+03
1.033660e+03,1.273459e+03
1.034624e+03,1.271412e+03
1.035588e+03,1.270330e+03
1.036552e+03,1.270474e+03
1.037517e+03,1.272366e+03
1.038481e+03,1.274909e+03
1.039445e+03,1.275199e+03
1.040409e+03,1.271286e+03
1.041374e+03,1.268478e+03
1.042338e+03,1.268263e+03
1.043302e+03,1.269753e+03
1.044266e+03,1.271587e+03
1.045231e+03,1.274944e+03
1.046195e+03,1.276145e+03
1.047159e+03,1.274577e+03
1.048123e+03,1.271907e+03
1.049088e+03,1.268535e+03
1.050052e+03,1.264434e+03
1.051016e+03,1.263157e+03
1.051980e+03,1.267475e+03
1.052945e+03,1.271441e+03
1.053909e+03,1.272146e+03
1.054873e+03,1.269747e+03
1.055837e+03,1.267174e+03
1.056802e+03,1.264373e+03
1.057766e+03,1.262573e+03
1.058730e+03,1.263214e+03
1.059694e+03,1.264739e+03
1.060658e+03,1.264892e+03
1.061623e+03,1.262424e+03
1.062587e+03,1.261262e+03
1.063551e+03,1.263094e+03
1.064515e+03,1.265545e+03
1.065479e+03,1.267389e+03
1.066444e+03,1.268894e+03
1.067408e+03,1.267683e+03
1.068372e+03,1.258746e+03
1.069336e+03,1.251657e+03
1.070301e+03,1.250926e+03
1.071265e+03,1.254822e+03
1.072229e+03,1.258487e+03
1.073193e+03,1.263146e+03
1.074158e+03,1.264976e+03
1.075122e+03,1.260322e+03
1.076086e+03,1.253588e+03
1.077050e+03,1.250482e+03
1.078015e+03,1.254274e+03
1.078979e+03,1.258019e+03
1.079943e+03,1.259859e+03
1.080907e+03,1.261120e+03
1.081872e+03,1.262320e+03
1.082836e+03,1.263174e+03
1.083800e+03,1.263673e+03
1.084764e+03,1.261660e+03
1.085729e+03,1.262156e+03
1.086693e+03,1.270139e+03
1.087657e+03,1.282040e+03
1.088621e+03,1.288983e+03
1.089585e+03,1.284261e+03
1.090550e+03,1.279829e+03
1.091514e+03,1.280021e+03
1.092478e+03,1.282357e+03
1.093442e+03,1.284239e+03
1.094406e+03,1.286198e+03
1.095371e+03,1.285445e+03
1.096335e+03,1.278535e+03
1.097299e+03,1.270653e+03
1.098263e+03,1.264986e+03
1.099228e+03,1.261506e+03
1.100192e+03,1.258375e+03
1.101156e+03,1.254467e+03
1.102120e+03,1.251473e+03
1.103085e+03,1.250282e+03
1.104049e+03,1.250557e+03
1.105013e+03,1.251561e+03
1.105977e+03,1.255281e+03
1.106942e+03,1.257212e+03
1.107906e+03,1.256032e+03
1.108870e+03,1.253313e+03
1.109834e+03,1.249943e+03
1.110799e+03,1.245314e+03
1.111763e+03,1.242914e+03
1.112727e+03,1.243719e+03
1.113691e+03,1.246644e+03
1.114656e+03,1.252397e+03
1.115620e+03,1.260256e+03
1.116584e+03,1.265246e+03
1.117548e+03,1.263564e+03
1.118512e+03,1.262092e+03
1.119477e+03,1.264442e+03
1.120441e+03,1.267318e+03
1.121405e+03,1.265840e+03
1.122369e+03,1.256246e+03
1.123334e+03,1.248084e+03
1.124298e+03,1.241555e+03
1.125262e+03,1.236719e+03
1.126226e+03,1.234051e+03
1.127191e+03,1.233927e+03
1.128155e+03,1.233370e+03
1.129119e+03,1.231682e+03
1.130083e+03,1.229900e+03
1.131047e+03,1.228249e+03
1.132012e+03,1.226462e+03
1.132976e+03,1.224477e+03
1.133940e+03,1.221462e+03
1.134904e+03,1.219972e+03
1.135869e+03,1.221928e+03
1.136833e+03,1.224595e+03
1.137797e+03,1.224664e+03
1.138761e+03,1.221626e+03
1.139726e+03,1.219443e+03
1.140690e+03,1.218029e+03
1.141654e+03,1.217167e+03
1.142618e+03,1.216777e+03
1.143583e+03,1.216845e+03
1.144547e+03,1.216452e+03
1.145511e+03,1.215179e+03
1.146475e+03,1.215088e+03
1.147439e+03,1.217254e+03
1.148404e+03,1.220147e+03
1.149368e+03,1.220406e+03
1.150332e+03,1.217598e+03
1.151296e+03,1.214781e+03
1.152261e+03,1.211446e+03
1.153225e+03,1.208487e+03
1.154189e+03,1.207947e+03
1.155153e+03,1.209915e+03
1.156118e+03,1.211460e+03
1.157082e+03,1.213020e+03
1.158046e+03,1.212253e+03
1.159010e+03,1.206791e+03
1.159974e+03,1.199764e+03
1.160939e+03,1.198793e+03
1.161903e+03,1.202559e+03
1.162867e+03,1.203648e+03
1.163831e+03,1.200388e+03
1.164796e+03,1.195990e+03
1.165760e+03,1.194715e+03
1.166724e+03,1.195344e+03
1.167688e+03,1.193364e+03
1.168653e+03,1.189165e+03
1.169617e+03,1.186425e+03
1.170581e+03,1.187884e+03
1.171545e+03,1.191828e+03
1.172510e+03,1.198287e+03
1.173474e+03,1.204946e+03
1.174438e+03,1.204969e+03
1.175402e+03,1.195382e+03
1.176366e+03,1.184966e+03
1.177331e+03,1.181169e+03
1.178295e+03,1.181490e+03
1.179259e+03,1.183665e+03
1.180223e+03,1.186746e+03
1.181188e+03,1.188850e+03
1.182152e+03,1.188222e+03
1.183116e+03,1.187036e+03
1.184080e+03,1.187038e+03
1.185045e+03,1.188018e+03
1.186009e+03,1.189532e+03
1.186973e+03,1.193373e+03
1.187937e+03,1.194320e+03
1.188901e+03,1.186030e+03
1.189866e+03,1.176739e+03
1.190830e+03,1.173645e+03
1.191794e+03,1.177365e+03
1.192758e+03,1.180455e+03
1.193723e+03,1.182542e+03
1.194687e+03,1.183502e+03
1.195651e+03,1.181904e+03
1.196615e+03,1.178954e+03
1.197580e+03,1.177751e+03
1.198544e+03,1.180248e+03
1.199508e+03,1.179718e+03
1.200472e+03,1.173910e+03
1.201437e+03,1.168045e+03
1.202401e+03,1.167222e+03
1.203365e+03,1.172755e+03
1.204329e+03,1.174958e+03
1.205293e+03,1.172147e+03
1.206258e+03,1.169828e+03
1.207222e+03,1.170523e+03
1.208186e+03,1.172936e+03
1.209150e+03,1.173330e+03
1.210115e+03,1.171145e+03
1.211079e+03,1.168901e+03
1.212043e+03,1.167069e+03
1.213007e+03,1.165823e+03
1.213972e+03,1.166047e+03
1.214936e+03,1.167755e+03
1.215900e+03,1.169062e+03
1.216864e+03,1.169994e+03
1.217828e+03,1.171148e+03
1.218793e+03,1.173448e+03
1.219757e+03,1.175361e+03
1.220721e+03,1.173107e+03
1.221685e+03,1.168461e+03
1.222650e+03,1.165730e+03
1.223614e+03,1.165707e+03
1.224578e+03,1.166193e+03
1.225542e+03,1.165869e+03
1.226507e+03,1.165427e+03
1.227471e+03,1.165577e+03
1.228435e+03,1.165883e+03
1.229399e+03,1.165412e+03
1.230364e+03,1.163835e+03
1.231328e+03,1.161863e+03
1.232292e+03,1.160411e+03
1.233256e+03,1.159418e+03
1.234220e+03,1.158044e+03
1.235185e+03,1.156117e+03
1.236149e+03,1.154827e+03
1.237113e+03,1.153778e+03
1.238077e+03,1.154321e+03
1.239042e+03,1.157665e+03
1.240006e+03,1.162722e+03
1.240970e+03,1.164702e+03
1.241934e+03,1.161298e+03
1.242899e+03,1.159008e+03
1.243863e+03,1.160753e+03
1.244827e+03,1.162945e+03
1.245791e+03,1.159485e+03
1.246755e+03,1.148357e+03
1.247720e+03,1.144296e+03
1.248684e+03,1.149024e+03
1.249648e+03,1.154456e+03
1.250612e+03,1.155232e+03
1.251577e+03,1.152621e+03
1.252541e+03,1.150975e+03
1.253505e+03,1.150138e+03
1.254469e+03,1.150164e+03
1.255434e+03,1.151414e+03
1.256398e+03,1.152628e+03
1.257362e+03,1.151160e+03
1.258326e+03,1.148445e+03
1.259291e+03,1.147990e+03
1.260255e+03,1.149413e+03
1.261219e+03,1.149914e+03
1.262183e+03,1.147337e+03
1.263147e+03,1.144969e+03
1.264112e+03,1.145736e+03
1.265076e+03,1.147908e+03
1.266040e+03,1.148461e+03
1.267004e+03,1.145916e+03
1.267969e+03,1.144783e+03
1.268933e+03,1.148877e+03
1.269897e+03,1.153632e+03
1.270861e+03,1.155402e+03
1.271826e+03,1.153472e+03
1.272790e+03,1.150784e+03
1.273754e+03,1.145789e+03
1.274718e+03,1.143929e+03
1.275682e+03,1.148644e+03
1.276647e+03,1.155009e+03
1.277611e+03,1.156039e+03
1.278575e+03,1.150703e+03
1.279539e+03,1.146874e+03
1.280504e+03,1.145392e+03
1.281468e+03,1.144621e+03
1.282432e+03,1.143468e+03
1.283396e+03,1.141844e+03
1.284361e+03,1.137916e+03
1.285325e+03,1.132804e+03
1.286289e+03,1.133474e+03
1.287253e+03,1.141890e+03
1.288218e+03,1.149790e+03
1.289182e+03,1.147981e+03
1.290146e+03,1.142539e+03
1.291110e+03,1.141587e+03
1.292074e+03,1.144236e+03
1.293039e+03,1.144944e+03
1.294003e+03,1.137366e+03
1.294967e+03,1.131410e+03
1.295931e+03,1.134687e+03
1.296896e+03,1.140382e+03
1.297860e+03,1.139980e+03
1.298824e+03,1.129681e+03
1.299788e+03,1.125125e+03
1.300753e+03,1.131156e+03
1.301717e+03,1.136568e+03
1.302681e+03,1.136867e+03
1.303645e+03,1.133641e+03
1.304609e+03,1.131495e+03
1.305574e+03,1.130235e+03
1.306538e+03,1.128001e+03
1.307502e+03,1.124838e+03
1.308466e+03,1.122401e+03
1.309431e+03,1.121906e+03
1.310395e+03,1.123170e+03
1.311359e+03,1.126247e+03
1.312323e+03,1.130121e+03
1.313288e+03,1.131950e+03
1.314252e+03,1.130328e+03
1.315216e+03,1.128924e+03
1.316180e+03,1.131807e+03
1.317145e+03,1.136160e+03
1.318109e+03,1.137982e+03
1.319073e+03,1.136449e+03
1.320037e+03,1.134910e+03
1.321001e+03,1.135426e+03
1.321966e+03,1.135437e+03
1.322930e+03,1.133481e+03
1.323894e+03,1.131189e+03
1.324858e+03,1.130827e+03
1.325823e+03,1.133099e+03
1.326787e+03,1.135866e+03
1.327751e+03,1.139775e+03
1.328715e+03,1.141573e+03
1.329680e+03,1.138670e+03
1.330644e+03,1.132421e+03
1.331608e+03,1.128018e+03
1.332572e+03,1.125394e+03
1.333536e+03,1.125738e+03
1.334501e+03,1.129546e+03
1.335465e+03,1.133059e+03
1.336429e+03,1.132280e+03
1.337393e+03,1.129310e+03
1.338358e+03,1.126723e+03
1.339322e+03,1.124659e+03
1.340286e+03,1.122661e+03
1.341250e+03,1.119201e+03
1.342215e+03,1.117246e+03
1.343179e+03,1.120741e+03
1.344143e+03,1.125965e+03
1.345107e+03,1.127968e+03
1.346072e+03,1.125081e+03
1.347036e+03,1.122753e+03
1.348000e+03,1.120508e+03
1.348964e+03,1.119067e+03
1.349928e+03,1.119101e+03
1.350893e+03,1.120546e+03
1.351857e+03,1.123132e+03
1.352821e+03,1.126489e+03
1.353785e+03,1.127343e+03
1.354750e+03,1.125134e+03
1.355714e+03,1.120875e+03
1.356678e+03,1.113985e+03
1.357642e+03,1.107533e+03
1.358607e+03,1.106161e+03
1.359571e+03,1.108073e+03
1.360535e+03,1.109576e+03
1.361499e+03,1.109426e+03
1.362464e+03,1.109577e+03
1.363428e+03,1.111145e+03
1.364392e+03,1.113522e+03
1.365356e+03,1.116104e+03
1.366320e+03,1.118234e+03
1.367285e+03,1.119126e+03
1.368249e+03,1.119264e+03
1.369213e+03,1.117953e+03
1.370177e+03,1.114376e+03
1.371142e+03,1.110837e+03
1.372106e+03,1.110414e+03
1.373070e+03,1.112675e+03
1.374034e+03,1.114900e+03
1.374999e+03,1.117156e+03
1.375963e+03,1.118264e+03
1.376927e+03,1.117397e+03
1.377891e+03,1.115375e+03
1.378855e+03,1.111604e+03
1.379820e+03,1.107701e+03
1.380784e+03,1.106354e+03
1.381748e+03,1.108200e+03
1.382712e+03,1.109479e+03
1.383677e+03,1.107531e+03
1.384641e+03,1.105474e+03
1.385605e+03,1.104793e+03
1.386569e+03,1.104168e+03
1.387534e+03,1.101515e+03
1.388498e+03,1.096380e+03
1.389462e+03,1.092210e+03
1.390426e+03,1.088734e+03
1.391391e+03,1.087012e+03
1.392355e+03,1.089104e+03
1.393319e+03,1.092398e+03
1.394283e+03,1.089337e+03
1.395247e+03,1.083151e+03
1.396212e+03,1.082689e+03
1.397176e+03,1.090284e+03
1.398140e+03,1.097034e+03
1.399104e+03,1.095734e+03
1.400069e+03,1.093306e+03
1.401033e+03,1.095000e+03
1.401997e+03,1.099000e+03
1.402961e+03,1.099724e+03
1.403926e+03,1.094998e+03
1.404890e+03,1.091336e+03
1.405854e+03,1.089174e+03
1.406818e+03,1.088584e+03
1.407782e+03,1.090251e+03
1.408747e+03,1.093525e+03
1.409711e+03,1.094796e+03
1.410675e+03,1.093887e+03
1.411639e+03,1.092773e+03
1.412604e+03,1.092231e+03
1.413568e+03,1.091451e+03
1.414532e+03,1.089710e+03
1.415496e+03,1.088152e+03
1.416461e+03,1.087532e+03
1.417425e+03,1.087297e+03
1.418389e+03,1.086420e+03
1.419353e+03,1.084171e+03
1.420318e+03,1.082327e+03
1.421282e+03,1.081908e+03
1.422246e+03,1.081375e+03
1.423210e+03,1.078778e+03
1.424174e+03,1.074883e+03
1.425139e+03,1.074624e+03
1.426103e+03,1.077201e+03
1.427067e+03,1.078052e+03
1.428031e+03,1.075381e+03
1.428996e+03,1.072913e+03
1.429960e+03,1.076062e+03
1.430924e+03,1.079498e+03
1.431888e+03,1.075631e+03
1.432853e+03,1.066369e+03
1.433817e+03,1.062335e+03
1.434781e+03,1.073819e+03
1.435745e+03,1.079658e+03
1.436709e+03,1.074250e+03
1.437674e+03,1.066147e+03
1.438638e+03,1.063384e+03
1.439602e+03,1.065671e+03
1.440566e+03,1.066768e+03
1.441531e+03,1.066711e+03
1.442495e+03,1.067200e+03
1.443459e+03,1.068865e+03
1.444423e+03,1.070274e+03
1.445388e+03,1.069412e+03
1.446352e+03,1.067620e+03
1.447316e+03,1.066582e+03
1.448280e+03,1.066733e+03
1.449245e+03,1.067229e+03
1.450209e+03,1.068510e+03
1.451173e+03,1.069196e+03
1.452137e+03,1.068598e+03
1.453101e+03,1.066835e+03
1.454066e+03,1.063871e+03
1.455030e+03,1.060123e+03
1.455994e+03,1.058499e+03
1.456958e+03,1.058858e+03
1.457923e+03,1.060636e+03
1.458887e+03,1.063699e+03
1.459851e+03,1.066366e+03
1.460815e+03,1.067309e+03
1.461780e+03,1.066772e+03
1.462744e+03,1.065002e+03
1.463708e+03,1.062547e+03
1.464672e+03,1.061159e+03
1.465636e+03,1.062378e+03
1.466601e+03,1.062673e+03
1.467565e+03,1.061248e+03
1.468529e+03,1.059644e+03
1.469493e+03,1.059388e+03
1.470458e+03,1.059647e+03
1.471422e+03,1.057534e+03
1.472386e+03,1.054045e+03
1.473350e+03,1.052350e+03
1.474315e+03,1.053856e+03
1.475279e+03,1.055093e+03
1.476243e+03,1.052784e+03
1.477207e+03,1.050029e+03
1.478172e+03,1.050481e+03
1.479136e+03,1.053097e+03
1.480100e+03,1.051897e+03
1.481064e+03,1.045045e+03
1.482028e+03,1.042929e+03
1.482993e+03,1.047790e+03
1.483957e+03,1.052951e+03
1.484921e+03,1.051842e+03
1.485885e+03,1.046829e+03
1.486850e+03,1.040679e+03
1.487814e+03,1.034239e+03
1.488778e+03,1.029995e+03
1.489742e+03,1.029027e+03
1.490707e+03,1.029534e+03
1.491671e+03,1.033679e+03
1.492635e+03,1.037250e+03
1.493599e+03,1.037643e+03
1.494563e+03,1.035786e+03
1.495528e+03,1.034638e+03
1.496492e+03,1.034027e+03
1.497456e+03,1.034159e+03
1.498420e+03,1.035339e+03
1.499385e+03,1.035787e+03
1.500349e+03,1.031951e+03
1.501313e+03,1.028952e+03
1.502277e+03,1.033275e+03
1.503242e+03,1.040212e+03
1.504206e+03,1.042382e+03
1.505170e+03,1.036203e+03
1.506134e+03,1.034263e+03
1.507099e+03,1.038814e+03
1.508063e+03,1.041606e+03
1.509027e+03,1.039106e+03
1.509991e+03,1.034246e+03
1.510955e+03,1.032255e+03
1.511920e+03,1.031768e+03
1.512884e+03,1.029729e+03
1.513848e+03,1.026458e+03
1.514812e+03,1.023582e+03
1.515777e+03,1.019521e+03
1.516741e+03,1.017450e+03
1.517705e+03,1.021063e+03
1.518669e+03,1.024712e+03
1.519634e+03,1.023297e+03
1.520598e+03,1.017093e+03
1.521562e+03,1.015833e+03
1.522526e+03,1.018903e+03
1.523490e+03,1.020461e+03
1.524455e+03,1.018399e+03
1.525419e+03,1.016225e+03
1.526383e+03,1.017848e+03
1.527347e+03,1.020415e+03
1.528312e+03,1.022551e+03
1.529276e+03,1.024101e+03
1.530240e+03,1.023431e+03
1.531204e+03,1.018953e+03
1.532169e+03,1.015390e+03
1.533133e+03,1.013039e+03
1.534097e+03,1.011958e+03
1.535061e+03,1.012202e+03
1.536026e+03,1.013490e+03
1.536990e+03,1.017121e+03
1.537954e+03,1.021321e+03
1.538918e+03,1.022129e+03
1.539882e+03,1.018084e+03
1.540847e+03,1.014540e+03
1.541811e+03,1.012140e+03
1.542775e+03,1.011081e+03
1.543739e+03,1.012511e+03
1.544704e+03,1.014797e+03
1.545668e+03,1.014852e+03
1.546632e+03,1.013239e+03
1.547596e+03,1.012117e+03
1.548561e+03,1.011451e+03
1.549525e+03,1.010300e+03
1.550489e+03,1.005898e+03
1.551453e+03,1.003416e+03
1.552417e+03,1.008234e+03
1.553382e+03,1.013294e+03
1.554346e+03,1.012363e+03
1.555310e+03,1.006639e+03
1.556274e+03,1.005268e+03
1.557239e+03,1.008067e+03
1.558203e+03,1.010673e+03
1.559167e+03,1.012084e+03
1.560131e+03,1.012944e+03
1.561096e+03,1.014503e+03
1.562060e+03,1.015349e+03
1.563024e+03,1.013395e+03
1.563988e+03,1.009922e+03
1.564953e+03,1.007803e+03
1.565917e+03,1.007160e+03
1.566881e+03,1.008066e+03
1.567845e+03,1.010692e+03
1.568809e+03,1.011588e+03
1.569774e+03,1.008507e+03
1.570738e+03,1.003881e+03
1.571702e+03,9.997448e+02
1.572666e+03,9.967324e+02
1.573631e+03,9.963386e+02
1.574595e+03,9.989360e+02
1.575559e+03,1.000569e+03
1.576523e+03,1.000294e+03
1.577488e+03,1.001054e+03
1.578452e+03,1.003107e+03
1.579416e+03,1.004965e+03
1.580380e+03,1.005617e+03
1.581344e+03,1.005122e+03
1.582309e+03,1.003166e+03
1.583273e+03,1.000403e+03
1.584237e+03,9.978698e+02
1.585201e+03,9.953947e+02
1.586166e+03,9.948773e+02
1.587130e+03,9.981599e+02
1.588094e+03,9.989988e+02
1.589058e+03,9.938320e+02
1.590023e+03,9.869445e+02
1.590987e+03,9.884805e+02
1.591951e+03,9.945328e+02
1.592915e+03,9.930958e+02
1.593880e+03,9.838528e+02
1.594844e+03,9.785860e+02
1.595808e+03,9.871351e+02
1.596772e+03,9.937362e+02
1.597736e+03,9.955381e+02
1.598701e+03,9.948051e+02
1.599665e+03,9.921414e+02
1.600629e+03,9.886824e+02
1.601593e+03,9.906719e+02
1.602558e+03,9.959461e+02
1.603522e+03,9.975651e+02
1.604486e+03,9.929665e+02
1.605450e+03,9.876720e+02
1.606415e+03,9.829013e+02
1.607379e+03,9.802549e+02
1.608343e+03,9.811216e+02
1.609307e+03,9.829280e+02
1.610271e+03,9.799398e+02
1.611236e+03,9.737612e+02
1.612200e+03,9.736002e+02
1.613164e+03,9.790078e+02
1.614128e+03,9.828260e+02
1.615093e+03,9.787565e+02
1.616057e+03,9.756484e+02
1.617021e+03,9.776910e+02
1.617985e+03,9.796136e+02
1.618950e+03,9.781881e+02
1.619914e+03,9.745717e+02
1.620878e+03,9.735214e+02
1.621842e+03,9.743549e+02
1.622807e+03,9.737401e+02
1.623771e+03,9.711679e+02
1.624735e+03,9.689393e+02
1.625699e+03,9.672059e+02
1.626663e+03,9.666174e+02
1.627628e+03,9.673908e+02
1.628592e+03,9.685544e+02
1.629556e+03,9.701531e+02
1.630520e+03,9.722804e+02
1.631485e+03,9.725035e+02
1.632449e+03,9.708712e+02
1.633413e+03,9.679995e+02
1.634377e+03,9.636512e+02
1.635342e+03,9.596896e+02
1.636306e+03,9.569552e+02
1.637270e+03,9.547666e+02
1.638234e+03,9.524783e+02
1.639198e+03,9.509086e+02
1.640163e+03,9.517321e+02
1.641127e+03,9.547084e+02
1.642091e+03,9.586830e+02
1.643055e+03,9.630282e+02
1.644020e+03,9.666732e+02
1.644984e+03,9.694019e+02
1.645948e+03,9.703541e+02
1.646912e+03,9.702879e+02
1.647877e+03,9.677330e+02
1.648841e+03,9.600838e+02
1.649805e+03,9.498507e+02
1.650769e+03,9.445167e+02
1.651734e+03,9.430883e+02
1.652698e+03,9.438942e+02
1.653662e+03,9.465903e+02
1.654626e+03,9.486398e+02
1.655590e+03,9.492781e+02
1.656555e+03,9.494209e+02
1.657519e+03,9.494510e+02
1.658483e+03,9.501315e+02
1.659447e+03,9.534389e+02
1.660412e+03,9.565186e+02
1.661376e+03,9.531656e+02
1.662340e+03,9.455939e+02
1.663304e+03,9.406122e+02
1.664269e+03,9.405666e+02
1.665233e+03,9.422813e+02
1.666197e+03,9.464806e+02
1.667161e+03,9.487035e+02
1.668125e+03,9.463588e+02
1.669090e+03,9.417863e+02
1.670054e+03,9.375591e+02
1.671018e+03,9.340648e+02
1.671982e+03,9.324092e+02
1.672947e+03,9.326023e+02
1.673911e+03,9.319200e+02
1.674875e+03,9.289149e+02
1.675839e+03,9.290697e+02
1.676804e+03,9.339737e+02
1.677768e+03,9.387701e+02
1.678732e+03,9.381635e+02
1.679696e+03,9.356844e+02
1.680661e+03,9.340988e+02
1.681625e+03,9.325974e+02
1.682589e+03,9.304908e+02
1.683553e+03,9.280521e+02
1.684517e+03,9.273168e+02
1.685482e+03,9.281205e+02
1.686446e+03,9.296043e+02
1.687410e+03,9.316635e+02
1.688374e+03,9.332272e+02
1.689339e+03,9.346913e+02
1.690303e+03,9.337966e+02
1.691267e+03,9.264131e+02
1.692231e+03,9.180783e+02
1.693196e+03,9.194883e+02
1.694160e+03,9.284631e+02
1.695124e+03,9.305074e+02
1.696088e+03,9.263531e+02
1.697052e+03,9.229166e+02
1.698017e+03,9.236699e+02
1.698981e+03,9.234284e+02
1.699945e+03,9.187831e+02
1.700909e+03,9.156143e+02
1.701874e+03,9.185497e+02
1.702838e+03,9.247148e+02
1.703802e+03,9.270162e+02
1.704766e+03,9.263148e+02
1.705731e+03,9.246053e+02
1.706695e+03,9.225139e+02
1.707659e+03,9.218915e+02
1.708623e+03,9.251808e+02
1.709588e+03,9.248734e+02
1.710552e+03,9.188914e+02
1.711516e+03,9.123771e+02
1.712480e+03,9.086144e+02
1.713444e+03,9.081487e+02
1.714409e+03,9.160822e+02
1.715373e+03,9.259026e+02
1.716337e+03,9.264726e+02
1.717301e+03,9.178194e+02
1.718266e+03,9.128112e+02
1.719230e+03,9.111418e+02
1.720194e+03,9.092045e+02
1.721158e+03,9.058470e+02
1.722123e+03,9.022324e+02
1.723087e+03,8.977056e+02
1.724051e+03,8.951359e+02
1.725015e+03,8.971863e+02
1.725979e+03,9.009103e+02
1.726944e+03,9.013137e+02
1.727908e+03,8.994650e+02
1.728872e+03,8.999954e+02
1.729836e+03,9.022164e+02
1.730801e+03,9.044502e+02
1.731765e+03,9.078763e+02
1.732729e+03,9.069173e+02
1.733693e+03,8.990159e+02
1.734658e+03,8.931769e+02
1.735622e+03,8.937955e+02
1.736586e+03,8.971896e+02
1.737550e+03,8.984857e+02
1.738515e+03,8.991833e+02
1.739479e+03,9.020742e+02
1.740443e+03,9.062581e+02
1.741407e+03,9.062220e+02
1.742371e+03,9.013269e+02
1.743336e+03,8.988466e+02
1.744300e+03,8.992148e+02
1.745264e+03,8.983113e+02
1.746228e+03,8.913285e+02
1.747193e+03,8.860187e+02
1.748157e+03,8.883422e+02
1.749121e+03,8.926511e+02
1.750085e+03,8.942435e+02
1.751050e+03,8.933353e+02
1.752014e+03,8.930008e+02
1.752978e+03,8.933765e+02
1.753942e+03,8.944029e+02
1.754906e+03,8.959048e+02
1.755871e+03,8.970647e+02
1.756835e+03,8.986880e+02
1.757799e+03,8.949449e+02
1.758763e+03,8.846080e+02
1.759728e+03,8.762102e+02
1.760692e+03,8.794441e+02
1.761656e+03,8.865406e+02
1.762620e+03,8.919152e+02
1.763585e+03,8.942245e+02
1.764549e+03,8.913598e+02
1.765513e+03,8.831999e+02
1.766477e+03,8.793936e+02
1.767442e+03,8.795049e+02
1.768406e+03,8.795610e+02
1.769370e+03,8.785036e+02
1.770334e+03,8.769601e+02
1.771298e+03,8.719684e+02
1.772263e+03,8.708652e+02
1.773227e+03,8.776180e+02
1.774191e+03,8.851676e+02
1.775155e+03,8.821432e+02
1.776120e+03,8.747189e+02
1.777084e+03,8.726430e+02
1.778048e+03,8.743154e+02
1.779012e+03,8.736832e+02
1.779977e+03,8.692227e+02
1.780941e+03,8.695468e+02
1.781905e+03,8.741395e+02
1.782869e+03,8.775443e+02
1.783833e+03,8.776379e+02
1.784798e+03,8.756973e+02
1.785762e+03,8.706766e+02
1.786726e+03,8.656573e+02
1.787690e+03,8.619078e+02
1.788655e+03,8.597782e+02
1.789619e+03,8.602230e+02
1.790583e+03,8.622927e+02
1.791547e+03,8.642232e+02
1.792512e+03,8.658193e+02
1.793476e+03,8.667574e+02
1.794440e+03,8.671847e+02
1.795404e+03,8.643478e+02
1.796369e+03,8.576462e+02
1.797333e+03,8.527523e+02
1.798297e+03,8.538455e+02
1.799261e+03,8.565467e+02
1.800225e+03,8.578755e+02
1.801190e+03,8.591867e+02
1.802154e+03,8.624612e+02
1.803118e+03,8.657429e+02
1.804082e+03,8.633596e+02
1.805047e+03,8.578309e+02
1.806011e+03,8.536990e+02
1.806975e+03,8.515197e+02
1.807939e+03,8.515620e+02
1.808904e+03,8.541664e+02
1.809868e+03,8.563808e+02
1.810832e+03,8.582297e+02
1.811796e+03,8.589739e+02
1.812760e+03,8.562232e+02
1.813725e+03,8.540389e+02
1.814689e+03,8.570387e+02
1.815653e+03,8.597901e+02
1.816617e+03,8.580245e+02
1.817582e+03,8.530202e+02
1.818546e+03,8.476090e+02
1.819510e+03,8.423846e+02
1.820474e+03,8.392459e+02
1.821439e+03,8.386376e+02
1.822403e+03,8.367430e+02
1.823367e+03,8.321160e+02
1.824331e+03,8.333136e+02
1.825296e+03,8.417102e+02
1.826260e+03,8.485560e+02
1.827224e+03,8.462791e+02
1.828188e+03,8.427493e+02
1.829152e+03,8.411828e+02
1.830117e+03,8.403460e+02
1.831081e+03,8.394757e+02
1.832045e+03,8.382792e+02
1.833009e+03,8.370252e+02
1.833974e+03,8.360326e+02
1.834938e+03,8.341296e+02
1.835902e+03,8.305475e+02
1.836866e+03,8.299680e+02
1.837831e+03,8.327240e+02
1.838795e+03,8.315196e+02
1.839759e+03,8.249016e+02
1.840723e+03,8.214995e+02
1.841688e+03,8.332169e+02
1.842652e+03,8.399108e+02
1.843616e+03,8.320762e+02
1.844580e+03,8.216348e+02
1.845544e+03,8.228477e+02
1.846509e+03,8.292185e+02
1.847473e+03,8.282573e+02
1.848437e+03,8.237211e+02
1.849401e+03,8.229882e+02
1.850366e+03,8.264514e+02
1.851330e+03,8.290869e+02
1.852294e+03,8.309650e+02
1.853258e+03,8.299249e+02
1.854223e+03,8.250680e+02
1.855187e+03,8.207828e+02
1.856151e+03,8.175964e+02
1.857115e+03,8.172863e+02
1.858079e+03,8.208496e+02
1.859044e+03,8.245646e+02
1.860008e+03,8.241641e+02
1.860972e+03,8.230201e+02
1.861936e+03,8.262443e+02
1.862901e+03,8.293893e+02
1.863865e+03,8.246016e+02
1.864829e+03,8.129853e+02
1.865793e+03,8.082487e+02
1.866758e+03,8.090600e+02
1.867722e+03,8.110157e+02
1.868686e+03,8.131910e+02
1.869650e+03,8.139280e+02
1.870615e+03,8.126696e+02
1.871579e+03,8.109039e+02
1.872543e+03,8.092211e+02
1.873507e+03,8.092744e+02
1.874471e+03,8.147134e+02
1.875436e+03,8.172512e+02
1.876400e+03,8.119502e+02
1.877364e+03,8.052916e+02
1.878328e+03,8.053516e+02
1.879293e+03,8.086501e+02
1.880257e+03,8.080388e+02
1.881221e+03,8.052138e+02
1.882185e+03,8.050225e+02
1.883150e+03,8.080310e+02
1.884114e+03,8.059617e+02
1.885078e+03,7.996598e+02
1.886042e+03,7.971282e+02
1.887006e+03,8.011853e+02
1.887971e+03,8.042114e+02
1.888935e+03,8.041438e+02
1.889899e+03,8.035527e+02
1.890863e+03,8.025062e+02
1.891828e+03,8.008000e+02
1.892792e+03,7.983660e+02
1.893756e+03,7.958594e+02
1.894720e+03,7.956811e+02
1.895685e+03,7.953293e+02
1.896649e+03,7.894958e+02
1.897613e+03,7.808183e+02
1.898577e+03,7.805018e+02
1.899542e+03,7.852073e+02
1.900506e+03,7.871916e+02
1.901470e+03,7.848031e+02
1.902434e+03,7.842457e+02
1.903398e+03,7.854875e+02
1.904363e+03,7.871795e+02
1.905327e+03,7.892330e+02
1.906291e+03,7.898063e+02
1.907255e+03,7.835435e+02
1.908220e+03,7.827216e+02
1.909184e+03,7.908986e+02
1.910148e+03,7.994270e+02
1.911112e+03,8.004561e+02
1.912077e+03,7.980102e+02
1.913041e+03,7.936937e+02
1.914005e+03,7.891168e+02
1.914969e+03,7.858608e+02
1.915933e+03,7.835548e+02
1.916898e+03,7.806450e+02
1.917862e+03,7.777584e+02
1.918826e+03,7.756215e+02
1.919790e+03,7.745996e+02
1.920755e+03,7.761575e+02
1.921719e+03,7.796765e+02
1.922683e+03,7.808378e+02
1.923647e+03,7.789839e+02
1.924612e+03,7.773345e+02
1.925576e+03,7.773041e+02
1.926540e+03,7.778870e+02
1.927504e+03,7.786682e+02
1.928469e+03,7.788095e+02
1.929433e+03,7.789086e+02
1.930397e+03,7.763352e+02
1.931361e+03,7.652126e+02
1.932325e+03,7.547032e+02
1.933290e+03,7.528471e+02
1.934254e+03,7.570520e+02
1.935218e+03,7.608561e+02
1.936182e+03,7.638239e+02
1.937147e+03,7.662831e+02
1.938111e+03,7.685003e+02
1.939075e+03,7.705361e+02
1.940039e+03,7.725131e+02
1.941004e+03,7.728025e+02
1.941968e+03,7.706837e+02
1.942932e+03,7.665038e+02
1.943896e+03,7.580297e+02
1.944860e+03,7.565285e+02
1.945825e+03,7.637941e+02
1.946789e+03,7.700736e+02
1.947753e+03,7.674453e+02
1.948717e+03,7.626362e+02
1.949682e+03,7.558617e+02
1.950646e+03,7.522629e+02
1.951610e+03,7.564472e+02
1.952574e+03,7.631882e+02
1.953539e+03,7.657830e+02
1.954503e+03,7.657869e+02
1.955467e+03,7.647873e+02
1.956431e+03,7.631956e+02
1.957396e+03,7.602612e+02
1.958360e+03,7.570999e+02
1.959324e+03,7.592836e+02
1.960288e+03,7.653214e+02
1.961252e+03,7.611468e+02
1.962217e+03,7.444454e+02
1.963181e+03,7.373881e+02
1.964145e+03,7.403411e+02
1.965109e+03,7.461456e+02
1.966074e+03,7.561385e+02
1.967038e+03,7.598802e+02
1.968002e+03,7.550788e+02
1.968966e+03,7.490079e+02
1.969931e+03,7.441932e+02
1.970895e+03,7.418962e+02
1.971859e+03,7.465602e+02
1.972823e+03,7.511862e+02
1.973787e+03,7.525145e+02
1.974752e+03,7.515612e+02
1.975716e+03,7.492216e+02
1.976680e+03,7.462064e+02
1.977644e+03,7.435248e+02
1.978609e+03,7.416770e+02
1.979573e+03,7.411687e+02
1.980537e+03,7.412083e+02
1.981501e+03,7.392904e+02
1.982466e+03,7.363351e+02
1.983430e+03,7.346976e+02
1.984394e+03,7.342977e+02
1.985358e+03,7.379571e+02
1.986323e+03,7.442484e+02
1.987287e+03,7.440377e+02
1.988251e+03,7.327458e+02
1.989215e+03,7.255849e+02
1.990179e+03,7.248961e+02
1.991144e+03,7.262592e+02
1.992108e+03,7.291767e+02
1.993072e+03,7.311735e+02
1.994036e+03,7.277662e+02
1.995001e+03,7.269588e+02
1.995965e+03,7.317811e+02
1.996929e+03,7.365042e+02
1.997893e+03,7.328138e+02
1.998858e+03,7.285793e+02
1.999822e+03,7.335127e+02
2.000786e+03,7.386949e+02
2.001750e+03,7.362043e+02
2.002714e+03,7.300717e+02
2.003679e+03,7.285126e+02
2.004643e+03,7.284200e+02
2.005607e+03,7.243428e+02
2.006571e+03,7.180887e+02
2.007536e+03,7.175382e+02
2.008500e+03,7.210959e+02
2.009464e+03,7.247855e+02
2.010428e+03,7.276037e+02
2.011393e+03,7.236904e+02
2.012357e+03,7.120127e+02
2.013321e+03,7.090101e+02
2.014285e+03,7.147616e+02
2.015250e+03,7.202842e+02
2.016214e+03,7.220126e+02
2.017178e+03,7.215896e+02
2.018142e+03,7.191130e+02
2.019106e+03,7.167262e+02
2.020071e+03,7.151635e+02
2.021035e+03,7.145316e+02
2.021999e+03,7.163085e+02
2.022963e+03,7.156642e+02
2.023928e+03,7.103535e+02
2.024892e+03,7.044048e+02
2.025856e+03,7.011078e+02
2.026820e+03,7.004865e+02
2.027785e+03,7.030826e+02
2.028749e+03,7.062794e+02
2.029713e+03,7.066552e+02
2.030677e+03,7.058138e+02
2.031641e+03,7.058012e+02
2.032606e+03,7.057599e+02
2.033570e+03,7.039978e+02
2.034534e+03,7.009219e+02
2.035498e+03,6.986232e+02
2.036463e+03,6.971240e+02
2.037427e+03,6.964439e+02
2.038391e+03,6.968453e+02
2.039355e+03,6.959856e+02
2.040320e+03,6.945866e+02
2.041284e+03,6.956437e+02
2.042248e+03,6.996844e+02
2.043212e+03,7.017566e+02
2.044177e+03,7.015811e+02
2.045141e+03,7.040219e+02
2.046105e+03,7.094893e+02
2.047069e+03,7.112271e+02
2.048033e+03,7.023320e+02
2.048998e+03,6.949836e+02
2.049962e+03,6.903495e+02
2.050926e+03,6.875427e+02
2.051890e+03,6.868445e+02
2.052854e+03,6.863907e+02
2.053819e+03,6.848874e+02
2.054783e+03,6.845673e+02
2.055747e+03,6.885349e+02
2.056711e+03,6.913165e+02
2.057676e+03,6.840571e+02
2.058640e+03,6.785190e+02
2.059604e+03,6.817204e+02
2.060568e+03,6.860799e+02
2.061533e+03,6.760644e+02
2.062497e+03,6.664548e+02
2.063461e+03,6.778293e+02
2.064425e+03,6.938574e+02
2.065390e+03,6.876830e+02
2.066354e+03,6.723777e+02
2.067318e+03,6.748842e+02
2.068282e+03,6.867784e+02
2.069247e+03,6.885307e+02
2.070211e+03,6.814974e+02
2.071175e+03,6.742084e+02
2.072139e+03,6.682747e+02
2.073104e+03,6.688693e+02
2.074068e+03,6.759127e+02
2.075032e+03,6.766514e+02
2.075996e+03,6.727680e+02
2.076960e+03,6.742677e+02
2.077925e+03,6.826951e+02
2.078889e+03,6.823518e+02
2.079853e+03,6.721144e+02
2.080817e+03,6.671306e+02
2.081782e+03,6.689703e+02
2.082746e+03,6.721631e+02
2.083710e+03,6.774963e+02
2.084674e+03,6.772712e+02
2.085639e+03,6.714638e+02
2.086603e+03,6.657215e+02
2.087567e+03,6.613488e+02
2.088531e+03,6.584118e+02
2.089496e+03,6.563893e+02
2.090460e+03,6.559224e+02
2.091424e+03,6.592319e+02
2.092388e+03,6.621709e+02
2.093353e+03,6.595690e+02
2.094317e+03,6.602683e+02
2.095281e+03,6.672554e+02
2.096245e+03,6.736829e+02
2.097209e+03,6.734124e+02
2.098174e+03,6.688516e+02
2.099138e+03,6.605827e+02
2.100102e+03,6.531855e+02
2.101066e+03,6.523314e+02
2.102031e+03,6.536773e+02
2.102995e+03,6.543116e+02
2.103959e+03,6.541571e+02
2.104923e+03,6.525673e+02
2.105887e+03,6.512137e+02
2.106852e+03,6.511464e+02
2.107816e+03,6.525440e+02
2.108780e+03,6.572365e+02
2.109744e+03,6.620886e+02
2.110708e+03,6.582982e+02
2.111673e+03,6.512416e+02
2.112637e+03,6.476207e+02
2.113601e+03,6.465534e+02
2.114565e+03,6.478475e+02
2.115530e+03,6.499171e+02
2.116494e+03,6.480950e+02
2.117458e+03,6.447330e+02
2.118422e+03,6.466821e+02
2.119387e+03,6.519971e+02
2.120351e+03,6.526578e+02
2.121315e+03,6.491945e+02
2.122279e+03,6.454019e+02
2.123244e+03,6.415648e+02
2.124208e+03,6.397839e+02
2.125172e+03,6.399493e+02
2.126136e+03,6.412181e+02
2.127101e+03,6.436927e+02
2.128065e+03,6.445381e+02
2.129029e+03,6.435637e+02
2.129993e+03,6.391514e+02
2.130958e+03,6.303959e+02
2.131922e+03,6.282135e+02
2.132886e+03,6.340235e+02
2.133850e+03,6.369022e+02
2.134814e+03,6.362332e+02
2.135779e+03,6.334128e+02
2.136743e+03,6.267372e+02
2.137707e+03,6.235790e+02
2.138671e+03,6.243717e+02
2.139636e+03,6.257985e+02
2.140600e+03,6.264944e+02
2.141564e+03,6.269069e+02
2.142528e+03,6.270899e+02
2.143493e+03,6.293029e+02
2.144457e+03,6.357800e+02
2.145421e+03,6.364715e+02
2.146385e+03,6.271190e+02
2.147350e+03,6.216847e+02
2.148314e+03,6.245665e+02
2.149278e+03,6.292828e+02
2.150242e+03,6.324871e+02
2.151207e+03,6.335245e+02
2.152171e+03,6.319256e+02
2.153135e+03,6.293177e+02
2.154099e+03,6.283776e+02
2.155063e+03,6.257044e+02
2.156028e+03,6.202693e+02
2.156992e+03,6.159830e+02
2.157956e+03,6.144305e+02
2.158920e+03,6.151851e+02
2.159885e+03,6.190113e+02
2.160849e+03,6.227924e+02
2.161813e+03,6.260906e+02
2.162777e+03,6.259125e+02
2.163741e+03,6.161068e+02
2.164706e+03,6.073557e+02
2.165670e+03,6.040818e+02
2.166634e+03,6.043356e+02
2.167598e+03,6.076080e+02
2.168563e+03,6.103486e+02
2.169527e+03,6.100560e+02
2.170491e+03,6.095965e+02
2.171455e+03,6.152839e+02
2.172420e+03,6.190858e+02
2.173384e+03,6.138338e+02
2.174348e+03,6.085710e+02
2.175312e+03,6.121939e+02
2.176277e+03,6.167055e+02
2.177241e+03,6.140960e+02
2.178205e+03,6.085862e+02
2.179169e+03,6.011800e+02
2.180134e+03,5.966863e+02
2.181098e+03,6.071619e+02
2.182062e+03,6.150187e+02
2.183026e+03,6.057106e+02
2.183990e+03,5.933987e+02
2.184955e+03,6.030324e+02
2.185919e+03,6.152250e+02
2.186883e+03,6.130884e+02
2.187847e+03,6.060626e+02
2.188812e+03,6.062090e+02
2.189776e+03,6.084060e+02
2.190740e+03,6.064273e+02
2.191704e+03,6.033757e+02
2.192668e+03,6.027719e+02
2.193633e+03,6.029844e+02
2.194597e+03,6.016307e+02
2.195561e+03,5.996430e+02
2.196525e+03,5.970446e+02
2.197490e+03,5.949948e+02
2.198454e+03,5.970301e+02
2.199418e+03,5.991746e+02
2.200382e+03,5.974722e+02
2.201347e+03,5.951035e+02
2.202311e+03,5.971003e+02
2.203275e+03,6.008867e+02
2.204239e+03,6.047001e+02
2.205204e+03,6.061531e+02
2.206168e+03,6.007199e+02
2.207132e+03,5.938745e+02
2.208096e+03,5.927908e+02
2.209061e+03,5.930358e+02
2.210025e+03,5.900536e+02
2.210989e+03,5.859053e+02
2.211953e+03,5.836077e+02
2.212917e+03,5.835677e+02
2.213882e+03,5.850013e+02
2.214846e+03,5.860652e+02
2.215810e+03,5.833222e+02
2.216774e+03,5.793241e+02
2.217739e+03,5.775274e+02
2.218703e+03,5.774434e+02
2.219667e+03,5.788812e+02
2.220631e+03,5.802136e+02
2.221595e+03,5.789114e+02
2.222560e+03,5.773285e+02
2.223524e+03,5.808783e+02
2.224488e+03,5.842952e+02
2.225452e+03,5.799774e+02
2.226417e+03,5.739734e+02
2.227381e+03,5.708538e+02
2.228345e+03,5.706992e+02
2.229309e+03,5.753777e+02
2.230274e+03,5.800358e+02
2.231238e+03,5.809310e+02
2.232202e+03,5.790798e+02
2.233166e+03,5.747715e+02
2.234131e+03,5.710533e+02
2.235095e+03,5.696399e+02
2.236059e+03,5.703206e+02
2.237023e+03,5.743090e+02
2.237988e+03,5.781080e+02
2.238952e+03,5.795520e+02
2.239916e+03,5.783815e+02
2.240880e+03,5.727625e+02
2.241844e+03,5.673648e+02
2.242809e+03,5.652639e+02
2.243773e+03,5.653068e+02
2.244737e+03,5.673708e+02
2.245701e+03,5.692771e+02
2.246666e+03,5.691545e+02
2.247630e+03,5.679131e+02
2.248594e+03,5.661503e+02
2.249558e+03,5.650419e+02
2.250522e+03,5.669486e+02
2.251487e+03,5.671522e+02
2.252451e+03,5.618672e+02
2.253415e+03,5.555740e+02
2.254379e+03,5.521567e+02
2.255344e+03,5.531496e+02
2.256308e+03,5.601647e+02
2.257272e+03,5.671398e+02
2.258236e+03,5.676815e+02
2.259201e+03,5.667939e+02
2.260165e+03,5.658738e+02
2.261129e+03,5.650109e+02
2.262093e+03,5.655627e+02
2.263058e+03,5.631384e+02
2.264022e+03,5.562832e+02
2.264986e+03,5.518445e+02
2.265950e+03,5.559028e+02
2.266915e+03,5.595366e+02
2.267879e+03,5.601359e+02
2.268843e+03,5.573953e+02
2.269807e+03,5.503746e+02
2.270771e+03,5.458869e+02
2.271736e+03,5.473649e+02
2.272700e+03,5.484425e+02
2.273664e+03,5.466052e+02
2.274628e+03,5.459367e+02
2.275593e+03,5.490692e+02
2.276557e+03,5.502034e+02
2.277521e+03,5.488744e+02
2.278485e+03,5.482719e+02
2.279449e+03,5.501060e+02
2.280414e+03,5.525410e+02
2.281378e+03,5.553103e+02
2.282342e+03,5.566767e+02
2.283306e+03,5.563271e+02
2.284271e+03,5.491036e+02
2.285235e+03,5.359323e+02
2.286199e+03,5.306496e+02
2.287163e+03,5.422802e+02
2.288128e+03,5.475102e+02
2.289092e+03,5.458642e+02
2.290056e+03,5.399411e+02
2.291020e+03,5.302765e+02
2.291985e+03,5.285416e+02
2.292949e+03,5.341364e+02
2.293913e+03,5.362575e+02
2.294877e+03,5.341582e+02
2.295842e+03,5.376584e+02
2.296806e+03,5.453065e+02
2.297770e+03,5.440923e+02
2.298734e+03,5.359636e+02
2.299698e+03,5.319898e+02
2.300663e+03,5.324354e+02
2.301627e+03,5.364635e+02
2.302591e+03,5.410472e+02
2.303555e+03,5.390222e+02
2.304520e+03,5.323698e+02
2.305484e+03,5.283765e+02
2.306448e+03,5.275634e+02
2.307412e+03,5.322852e+02
2.308376e+03,5.383464e+02
2.309341e+03,5.333155e+02
2.310305e+03,5.254543e+02
2.311269e+03,5.278567e+02
2.312233e+03,5.336214e+02
2.313198e+03,5.285946e+02
2.314162e+03,5.219200e+02
2.315126e+03,5.261995e+02
2.316090e+03,5.313090e+02
2.317055e+03,5.231268e+02
2.318019e+03,5.146532e+02
2.318983e+03,5.203982e+02
2.319947e+03,5.258287e+02
2.320912e+03,5.178167e+02
2.321876e+03,5.106124e+02
2.322840e+03,5.175790e+02
2.323804e+03,5.243046e+02
2.324769e+03,5.240914e+02
2.325733e+03,5.232550e+02
2.326697e+03,5.254700e+02
2.327661e+03,5.290477e+02
2.328625e+03,5.335754e+02
2.329590e+03,5.365663e+02
2.330554e+03,5.384008e+02
2.331518e+03,5.342013e+02
2.332482e+03,5.227555e+02
2.333447e+03,5.136789e+02
2.334411e+03,5.111516e+02
2.335375e+03,5.146003e+02
2.336339e+03,5.235411e+02
2.337303e+03,5.293522e+02
2.338268e+03,5.275468e+02
2.339232e+03,5.244860e+02
2.340196e+03,5.204984e+02
2.341160e+03,5.157162e+02
2.342125e+03,5.095966e+02
2.343089e+03,5.142507e+02
2.344053e+03,5.248388e+02
2.345017e+03,5.229338e+02
2.345982e+03,5.088491e+02
2.346946e+03,5.070176e+02
2.347910e+03,5.135077e+02
2.348874e+03,5.180274e+02
2.349839e+03,5.192957e+02
2.350803e+03,5.176935e+02
2.351767e+03,5.145331e+02
2.352731e+03,5.120901e+02
2.353696e+03,5.098033e+02
2.354660e+03,5.043842e+02
2.355624e+03,4.992902e+02
2.356588e+03,5.021802e+02
2.357552e+03,5.074385e+02
2.358517e+03,5.107985e+02
2.359481e+03,5.124741e+02
2.360445e+03,5.132645e+02
2.361409e+03,5.097304e+02
2.362374e+03,4.971667e+02
2.363338e+03,4.879388e+02
2.364302e+03,5.009682e+02
2.365266e+03,5.093957e+02
2.366230e+03,5.047420e+02
2.367195e+03,4.979731e+02
2.368159e+03,4.939858e+02
2.369123e+03,4.947242e+02
2.370087e+03,5.012186e+02
2.371052e+03,5.049133e+02
2.372016e+03,5.003694e+02
2.372980e+03,4.975585e+02
2.373944e+03,4.966622e+02
2.374909e+03,4.953458e+02
2.375873e+03,4.922965e+02
2.376837e+03,4.938005e+02
2.377801e+03,4.983457e+02
2.378766e+03,4.981898e+02
2.379730e+03,4.925823e+02
2.380694e+03,4.841241e+02
2.381658e+03,4.763377e+02
2.382623e+03,4.803746e+02
2.383587e+03,4.917019e+02
2.384551e+03,4.966666e+02
2.385515e+03,4.975204e+02
2.386479e+03,4.979260e+02
2.387444e+03,4.979530e+02
2.388408e+03,4.974098e+02
2.389372e+03,4.961419e+02
2.390336e+03,4.927700e+02
2.391301e+03,4.899066e+02
2.392265e+03,4.903751e+02
2.393229e+03,4.918565e+02
2.394193e+03,4.941870e+02
2.395157e+03,4.934811e+02
2.396122e+03,4.842923e+02
2.397086e+03,4.785707e+02
2.398050e+03,4.804273e+02
2.399014e+03,4.843297e+02
2.399979e+03,4.888897e+02
2.400943e+03,4.923509e+02
2.401907e+03,4.945672e+02
2.402871e+03,4.922650e+02
2.403836e+03,4.847811e+02
2.404800e+03,4.823651e+02
2.405764e+03,4.850613e+02
2.406728e+03,4.830097e+02
2.407693e+03,4.765984e+02
2.408657e+03,4.768801e+02
2.409621e+03,4.825456e+02
2.410585e+03,4.848022e+02
2.411550e+03,4.842735e+02
2.412514e+03,4.832803e+02
2.413478e+03,4.824111e+02
2.414442e+03,4.841523e+02
2.415406e+03,4.862167e+02
2.416371e+03,4.864006e+02
2.417335e+03,4.848197e+02
2.418299e+03,4.780702e+02
2.419263e+03,4.751769e+02
2.420228e+03,4.822530e+02
2.421192e+03,4.895916e+02
2.422156e+03,4.881616e+02
2.423120e+03,4.841466e+02
2.424084e+03,4.778170e+02
2.425049e+03,4.750299e+02
2.426013e+03,4.829992e+02
2.426977e+03,4.836786e+02
2.427941e+03,4.760624e+02
2.428906e+03,4.695401e+02
2.429870e+03,4.660730e+02
2.430834e+03,4.660166e+02
2.431798e+03,4.688607e+02
2.432763e+03,4.719984e+02
2.433727e+03,4.747012e+02
2.434691e+03,4.730436e+02
2.435655e+03,4.695507e+02
2.436620e+03,4.700560e+02
2.437584e+03,4.726076e+02
2.438548e+03,4.710156e+02
2.439512e+03,4.697818e+02
2.440477e+03,4.745204e+02
2.441441e+03,4.782556e+02
2.442405e+03,4.689428e+02
2.443369e+03,4.598683e+02
2.444333e+03,4.572228e+02
2.445298e+03,4.578875e+02
2.446262e+03,4.617237e+02
2.447226e+03,4.631235e+02
2.448190e+03,4.613349e+02
2.449155e+03,4.598892e+02
2.450119e+03,4.615522e+02
2.451083e+03,4.628188e+02
2.452047e+03,4.634305e+02
2.453011e+03,4.625282e+02
2.453976e+03,4.600110e+02
2.454940e+03,4.590020e+02
2.455904e+03,4.592281e+02
2.456868e+03,4.579368e+02
2.457833e+03,4.560557e+02
2.458797e+03,4.605564e+02
2.459761e+03,4.658725e+02
2.460725e+03,4.629730e+02
2.461690e+03,4.570659e+02
2.462654e+03,4.557319e+02
2.463618e+03,4.548080e+02
2.464582e+03,4.516588e+02
2.465547e+03,4.490598e+02
2.466511e+03,4.483024e+02
2.467475e+03,4.500558e+02
2.468439e+03,4.544576e+02
2.469404e+03,4.572792e+02
2.470368e+03,4.562141e+02
2.471332e+03,4.535735e+02
2.472296e+03,4.494311e+02
2.473260e+03,4.458354e+02
2.474225e+03,4.433454e+02
2.475189e+03,4.464158e+02
2.476153e+03,4.532988e+02
2.477117e+03,4.581944e+02
2.478082e+03,4.603853e+02
2.479046e+03,4.579661e+02
2.480010e+03,4.542316e+02
2.480974e+03,4.539086e+02
2.481938e+03,4.553574e+02
2.482903e+03,4.582855e+02
2.483867e+03,4.589006e+02
2.484831e+03,4.547434e+02
2.485795e+03,4.506905e+02
2.486760e+03,4.516277e+02
2.487724e+03,4.526523e+02
2.488688e+03,4.530513e+02
2.489652e+03,4.528524e+02
2.490617e+03,4.510836e+02
2.491581e+03,4.502124e+02
2.492545e+03,4.502769e+02
2.493509e+03,4.500865e+02
2.494474e+03,4.491619e+02
2.495438e+03,4.475852e+02
2.496402e+03,4.461270e+02
2.497366e+03,4.470988e+02
2.498331e+03,4.491530e+02
2.499295e+03,4.497738e+02
2.500259e+03,4.500592e+02
2.501223e+03,4.519651e+02
2.502188e+03,4.531680e+02
2.503152e+03,4.509265e+02
2.504116e+03,4.463638e+02
2.505080e+03,4.394933e+02
2.506044e+03,4.365685e+02
2.507009e+03,4.465326e+02
2.507973e+03,4.487740e+02
2.508937e+03,4.434800e+02
2.509901e+03,4.400385e+02
2.510865e+03,4.406059e+02
2.511830e+03,4.442470e+02
2.512794e+03,4.483895e+02
2.513758e+03,4.449469e+02
2.514722e+03,4.380055e+02
2.515687e+03,4.393253e+02
2.516651e+03,4.422953e+02
2.517615e+03,4.389908e+02
2.518579e+03,4.356172e+02
2.519544e+03,4.434126e+02
2.520508e+03,4.480914e+02
2.521472e+03,4.444867e+02
2.522436e+03,4.390465e+02
2.523401e+03,4.346652e+02
2.524365e+03,4.323463e+02
2.525329e+03,4.318351e+02
2.526293e+03,4.345307e+02
2.527258e+03,4.415707e+02
2.528222e+03,4.404843e+02
2.529186e+03,4.342058e+02
2.530150e+03,4.321418e+02
2.531115e+03,4.337263e+02
2.532079e+03,4.372916e+02
2.533043e+03,4.385546e+02
2.534007e+03,4.323282e+02
2.534971e+03,4.248587e+02
2.535936e+03,4.249019e+02
2.536900e+03,4.268666e+02
2.537864e+03,4.288073e+02
2.538828e+03,4.317004e+02
2.539792e+03,4.360056e+02
2.540757e+03,4.379428e+02
2.541721e+03,4.371833e+02
2.542685e+03,4.384908e+02
2.543649e+03,4.423104e+02
2.544614e+03,4.459987e+02
2.545578e+03,4.488792e+02
2.546542e+03,4.515963e+02
2.547506e+03,4.530235e+02
2.548471e+03,4.490638e+02
2.549435e+03,4.422541e+02
2.550399e+03,4.331942e+02
2.551363e+03,4.267914e+02
2.552328e+03,4.286182e+02
2.553292e+03,4.315448e+02
2.554256e+03,4.333683e+02
2.555220e+03,4.369951e+02
2.556185e+03,4.429920e+02
2.557149e+03,4.390987e+02
2.558113e+03,4.244111e+02
2.559077e+03,4.261656e+02
2.560042e+03,4.383014e+02
2.561006e+03,4.357859e+02
2.561970e+03,4.256931e+02
2.562934e+03,4.238597e+02
2.563898e+03,4.249067e+02
2.564863e+03,4.224152e+02
2.565827e+03,4.193838e+02
2.566791e+03,4.178141e+02
2.567755e+03,4.191319e+02
2.568719e+03,4.227977e+02
2.569684e+03,4.274694e+02
2.570648e+03,4.343551e+02
2.571612e+03,4.317820e+02
2.572576e+03,4.228820e+02
2.573541e+03,4.264315e+02
2.574505e+03,4.394079e+02
2.575469e+03,4.345511e+02
2.576433e+03,4.226588e+02
2.577398e+03,4.204685e+02
2.578362e+03,4.229919e+02
2.579326e+03,4.274474e+02
2.580290e+03,4.263651e+02
2.581255e+03,4.160951e+02
2.582219e+03,4.075461e+02
2.583183e+03,4.116108e+02
2.584147e+03,4.116424e+02
2.585112e+03,4.079410e+02
2.586076e+03,4.091033e+02
2.587040e+03,4.162688e+02
2.588004e+03,4.211310e+02
2.588969e+03,4.229362e+02
2.589933e+03,4.214550e+02
2.590897e+03,4.174980e+02
2.591861e+03,4.085517e+02
2.592825e+03,4.037451e+02
2.593790e+03,4.101810e+02
2.594754e+03,4.151711e+02
2.595718e+03,4.084588e+02
2.596682e+03,4.044734e+02
2.597646e+03,4.059363e+02
2.598611e+03,4.068511e+02
2.599575e+03,4.068394e+02
2.600539e+03,4.080523e+02
2.601503e+03,4.103447e+02
2.602468e+03,4.132356e+02
2.603432e+03,4.153382e+02
2.604396e+03,4.130804e+02
2.605360e+03,4.103825e+02
2.606325e+03,4.103125e+02
2.607289e+03,4.112076e+02
2.608253e+03,4.130753e+02
2.609217e+03,4.109171e+02
2.610182e+03,3.992278e+02
2.611146e+03,3.928077e+02
2.612110e+03,3.921675e+02
2.613074e+03,3.946246e+02
2.614039e+03,3.992842e+02
2.615003e+03,4.034478e+02
2.615967e+03,4.064058e+02
2.616931e+03,4.082852e+02
2.617896e+03,4.088573e+02
2.618860e+03,4.059217e+02
2.619824e+03,4.040742e+02
2.620788e+03,4.050421e+02
2.621752e+03,4.046770e+02
2.622717e+03,3.991172e+02
2.623681e+03,3.995209e+02
2.624645e+03,4.053472e+02
2.625609e+03,4.092327e+02
2.626573e+03,4.105444e+02
2.627538e+03,4.080593e+02
2.628502e+03,4.047466e+02
2.629466e+03,4.046245e+02
2.630430e+03,4.056381e+02
2.631395e+03,4.045331e+02
2.632359e+03,4.050366e+02
2.633323e+03,4.102430e+02
2.634287e+03,4.082708e+02
2.635252e+03,3.972084e+02
2.636216e+03,3.912508e+02
2.637180e+03,3.928572e+02
2.638144e+03,3.946717e+02
2.639109e+03,3.966162e+02
2.640073e+03,4.000243e+02
2.641037e+03,4.043689e+02
2.642001e+03,4.106297e+02
2.642966e+03,4.115415e+02
2.643930e+03,4.022741e+02
2.644894e+03,3.949995e+02
2.645858e+03,4.001070e+02
2.646823e+03,4.046919e+02
2.647787e+03,4.074014e+02
2.648751e+03,4.062450e+02
2.649715e+03,4.014251e+02
2.650679e+03,3.939888e+02
2.651644e+03,3.895610e+02
2.652608e+03,3.982620e+02
2.653572e+03,4.085877e+02
2.654536e+03,4.004513e+02
2.655500e+03,3.942174e+02
2.656465e+03,3.982608e+02
2.657429e+03,3.987570e+02
2.658393e+03,3.907071e+02
2.659357e+03,3.830444e+02
2.660322e+03,3.785152e+02
2.661286e+03,3.831042e+02
2.662250e+03,3.922690e+02
2.663214e+03,3.930776e+02
2.664179e+03,3.900638e+02
2.665143e+03,3.879172e+02
2.666107e+03,3.870471e+02
2.667071e+03,3.878437e+02
2.668036e+03,3.878826e+02
2.669000e+03,3.824987e+02
2.669964e+03,3.896288e+02
2.670928e+03,4.058841e+02
2.671893e+03,4.054268e+02
2.672857e+03,3.922833e+02
2.673821e+03,3.964839e+02
2.674785e+03,4.016458e+02
2.675750e+03,3.881906e+02
2.676714e+03,3.741483e+02
2.677678e+03,3.835039e+02
2.678642e+03,3.901194e+02
2.679606e+03,3.883774e+02
2.680571e+03,3.901764e+02
2.681535e+03,3.971967e+02
2.682499e+03,3.946850e+02
2.683463e+03,3.848930e+02
2.684427e+03,3.806280e+02
2.685392e+03,3.813293e+02
2.686356e+03,3.902767e+02
2.687320e+03,3.966431e+02
2.688284e+03,3.897800e+02
2.689249e+03,3.869313e+02
2.690213e+03,3.916058e+02
2.691177e+03,3.871447e+02
2.692141e+03,3.669563e+02
2.693106e+03,3.688622e+02
2.694070e+03,3.833830e+02
2.695034e+03,3.873247e+02
2.695998e+03,3.851206e+02
2.696963e+03,3.826470e+02
2.697927e+03,3.842694e+02
2.698891e+03,3.924383e+02
2.699855e+03,3.958534e+02
2.700820e+03,3.882665e+02
2.701784e+03,3.801041e+02
2.702748e+03,3.739058e+02
2.703712e+03,3.819521e+02
2.704677e+03,3.967750e+02
2.705641e+03,3.928340e+02
2.706605e+03,3.830486e+02
2.707569e+03,3.801499e+02
2.708533e+03,3.806342e+02
2.709498e+03,3.829515e+02
2.710462e+03,3.821841e+02
2.711426e+03,3.739959e+02
2.712390e+03,3.767995e+02
2.713354e+03,3.870133e+02
2.714319e+03,3.869767e+02
2.715283e+03,3.813923e+02
2.716247e+03,3.833862e+02
2.717211e+03,3.873468e+02
2.718176e+03,3.897506e+02
2.719140e+03,3.886071e+02
2.720104e+03,3.797899e+02
2.721068e+03,3.784120e+02
2.722033e+03,3.854008e+02
2.722997e+03,3.837877e+02
2.723961e+03,3.754882e+02
2.724925e+03,3.715287e+02
2.725890e+03,3.722498e+02
2.726854e+03,3.810860e+02
2.727818e+03,3.869794e+02
2.728782e+03,3.837864e+02
2.729747e+03,3.756820e+02
2.730711e+03,3.582917e+02
2.731675e+03,3.631329e+02
2.732639e+03,3.837912e+02
2.733604e+03,3.863842e+02
2.734568e+03,3.767023e+02
2.735532e+03,3.711323e+02
2.736496e+03,3.683217e+02
2.737460e+03,3.671287e+02
2.738425e+03,3.674851e+02
2.739389e+03,3.696535e+02
2.740353e+03,3.704337e+02
2.741317e+03,3.697827e+02
2.742281e+03,3.720616e+02
2.743246e+03,3.761693e+02
2.744210e+03,3.768125e+02
2.745174e+03,3.756865e+02
2.746138e+03,3.767635e+02
2.747103e+03,3.758038e+02
2.748067e+03,3.715467e+02
2.749031e+03,3.669289e+02
2.749995e+03,3.618599e+02
2.750960e+03,3.630061e+02
2.751924e+03,3.678730e+02
2.752888e+03,3.679243e+02
2.753852e+03,3.650790e+02
2.754817e+03,3.632453e+02
2.755781e+03,3.637513e+02
2.756745e+03,3.687213e+02
2.757709e+03,3.669420e+02
2.758674e+03,3.547001e+02
2.759638e+03,3.542236e+02
2.760602e+03,3.676251e+02
2.761566e+03,3.657148e+02
2.762531e+03,3.572658e+02
2.763495e+03,3.561223e+02
2.764459e+03,3.587435e+02
2.765423e+03,3.645384e+02
2.766387e+03,3.684172e+02
2.767352e+03,3.696490e+02
2.768316e+03,3.692552e+02
2.769280e+03,3.675840e+02
2.770244e+03,3.672984e+02
2.771208e+03,3.671318e+02
2.772173e+03,3.633004e+02
2.773137e+03,3.595530e+02
2.774101e+03,3.622559e+02
2.775065e+03,3.620913e+02
2.776030e+03,3.535519e+02
2.776994e+03,3.506403e+02
2.777958e+03,3.531919e+02
2.778922e+03,3.564067e+02
2.779887e+03,3.593548e+02
2.780851e+03,3.606945e+02
2.781815e+03,3.614638e+02
2.782779e+03,3.630143e+02
2.783744e+03,3.639357e+02
2.784708e+03,3.621970e+02
2.785672e+03,3.641510e+02
2.786636e+03,3.689084e+02
2.787601e+03,3.649599e+02
2.788565e+03,3.580995e+02
2.789529e+03,3.681802e+02
2.790493e+03,3.792970e+02
2.791458e+03,3.778640e+02
2.792422e+03,3.700341e+02
2.793386e+03,3.588196e+02
2.794350e+03,3.483468e+02
2.795314e+03,3.396719e+02
2.796279e+03,3.475182e+02
2.797243e+03,3.624392e+02
2.798207e+03,3.706777e+02
2.799171e+03,3.736716e+02
2.800135e+03,3.696985e+02
2.801100e+03,3.667378e+02
2.802064e+03,3.670116e+02
2.803028e+03,3.589702e+02
2.803992e+03,3.454741e+02
2.804957e+03,3.471455e+02
2.805921e+03,3.571479e+02
2.806885e+03,3.642487e+02
2.807849e+03,3.657411e+02
2.808814e+03,3.608288e+02
2.809778e+03,3.577678e+02
2.810742e+03,3.606949e+02
2.811706e+03,3.691104e+02
2.812671e+03,3.779377e+02
2.813635e+03,3.720658e+02
2.814599e+03,3.592011e+02
2.815563e+03,3.530287e+02
2.816528e+03,3.485919e+02
2.817492e+03,3.439764e+02
2.818456e+03,3.393959e+02
2.819420e+03,3.351276e+02
2.820385e+03,3.385869e+02
2.821349e+03,3.471469e+02
2.822313e+03,3.476339e+02
2.823277e+03,3.459960e+02
2.824241e+03,3.470038e+02
2.825206e+03,3.484061e+02
2.826170e+03,3.482970e+02
2.827134e+03,3.562910e+02
2.828098e+03,3.703374e+02
2.829063e+03,3.697802e+02
2.830027e+03,3.608415e+02
2.830991e+03,3.565725e+02
2.831955e+03,3.541698e+02
2.832919e+03,3.495244e+02
2.833884e+03,3.494284e+02
2.834848e+03,3.540402e+02
2.835812e+03,3.558652e+02
2.836776e+03,3.549942e+02
2.837741e+03,3.620226e+02
2.838705e+03,3.672494e+02
2.839669e+03,3.582197e+02
2.840633e+03,3.524086e+02
2.841598e+03,3.599132e+02
2.842562e+03,3.632640e+02
2.843526e+03,3.584882e+02
2.844490e+03,3.591476e+02
2.845455e+03,3.609420e+02
2.846419e+03,3.555421e+02
2.847383e+03,3.500916e+02
2.848347e+03,3.518842e+02
2.849312e+03,3.600954e+02
2.850276e+03,3.738212e+02
2.851240e+03,3.720063e+02
2.852204e+03,3.584369e+02
2.853168e+03,3.592704e+02
2.854133e+03,3.668197e+02
2.855097e+03,3.734626e+02
2.856061e+03,3.761107e+02
2.857025e+03,3.739252e+02
2.857990e+03,3.733253e+02
2.858954e+03,3.764638e+02
2.859918e+03,3.740082e+02
2.860882e+03,3.673979e+02
2.861846e+03,3.571323e+02
2.862811e+03,3.528646e+02
2.863775e+03,3.681928e+02
2.864739e+03,3.730939e+02
2.865703e+03,3.591398e+02
2.866668e+03,3.628867e+02
2.867632e+03,3.768811e+02
2.868596e+03,3.763440e+02
2.869560e+03,3.694767e+02
2.870525e+03,3.627870e+02
2.871489e+03,3.626474e+02
2.872453e+03,3.701372e+02
2.873417e+03,3.720140e+02
2.874382e+03,3.678094e+02
2.875346e+03,3.642909e+02
2.876310e+03,3.630391e+02
2.877274e+03,3.650773e+02
2.878239e+03,3.698668e+02
2.879203e+03,3.767502e+02
2.880167e+03,3.784956e+02
2.881131e+03,3.730828e+02
2.882095e+03,3.712690e+02
2.883060e+03,3.726796e+02
2.884024e+03,3.771053e+02
2.884988e+03,3.781331e+02
2.885952e+03,3.661006e+02
2.886917e+03,3.689146e+02
2.887881e+03,3.944588e+02
2.888845e+03,3.931247e+02
2.889809e+03,3.769436e+02
2.890773e+03,3.753000e+02
2.891738e+03,3.790486e+02
2.892702e+03,3.803039e+02
2.893666e+03,3.815884e+02
2.894630e+03,3.831316e+02
2.895595e+03,3.783558e+02
2.896559e+03,3.701469e+02
2.897523e+03,3.718874e+02
2.898487e+03,3.798947e+02
2.899452e+03,3.973013e+02
2.900416e+03,4.019076e+02
2.901380e+03,3.905766e+02
2.902344e+03,3.860970e+02
2.903309e+03,3.905956e+02
2.904273e+03,3.819023e+02
2.905237e+03,3.731984e+02
2.906201e+03,3.797631e+02
2.907166e+03,3.844427e+02
2.908130e+03,3.795235e+02
2.909094e+03,3.802645e+02
2.910058e+03,3.870902e+02
2.911022e+03,3.747736e+02
2.911987e+03,3.593458e+02
2.912951e+03,3.584184e+02
2.913915e+03,3.609264e+02
2.914879e+03,3.590951e+02
2.915844e+03,3.598492e+02
2.916808e+03,3.635533e+02
2.917772e+03,3.669350e+02
2.918736e+03,3.685857e+02
2.919700e+03,3.660253e+02
2.920665e+03,3.615661e+02
2.921629e+03,3.527402e+02
2.922593e+03,3.550935e+02
2.923557e+03,3.657704e+02
2.924522e+03,3.671755e+02
2.925486e+03,3.622673e+02
2.926450e+03,3.551479e+02
2.927414e+03,3.529341e+02
2.928379e+03,3.619261e+02
2.929343e+03,3.599091e+02
2.930307e+03,3.481152e+02
2.931271e+03,3.434964e+02
2.932236e+03,3.449251e+02
2.933200e+03,3.545425e+02
2.934164e+03,3.560916e+02
2.935128e+03,3.418613e+02
2.936093e+03,3.403637e+02
2.937057e+03,3.518829e+02
2.938021e+03,3.544416e+02
2.938985e+03,3.511108e+02
2.939949e+03,3.467056e+02
2.940914e+03,3.410284e+02
2.941878e+03,3.342291e+02
2.942842e+03,3.348418e+02
2.943806e+03,3.424933e+02
2.944771e+03,3.422400e+02
2.945735e+03,3.389489e+02
2.946699e+03,3.400032e+02
2.947663e+03,3.399482e+02
2.948627e+03,3.366037e+02
2.949592e+03,3.344304e+02
2.950556e+03,3.355935e+02
2.951520e+03,3.567060e+02
2.952484e+03,3.694045e+02
2.953449e+03,3.423136e+02
2.954413e+03,3.286146e+02
2.955377e+03,3.511465e+02
2.956341e+03,3.665994e+02
2.957306e+03,3.700240e+02
2.958270e+03,3.748457e+02
2.959234e+03,3.744540e+02
2.960198e+03,3.655868e+02
2.961163e+03,3.507877e+02
2.962127e+03,3.281031e+02
2.963091e+03,3.313721e+02
2.964055e+03,3.520089e+02
2.965020e+03,3.534067e+02
2.965984e+03,3.481266e+02
2.966948e+03,3.450660e+02
2.967912e+03,3.438476e+02
2.968876e+03,3.444065e+02
2.969841e+03,3.513911e+02
2.970805e+03,3.562406e+02
2.971769e+03,3.414279e+02
2.972733e+03,3.281378e+02
2.973698e+03,3.324833e+02
2.974662e+03,3.359989e+02
2.975626e+03,3.341269e+02
2.976590e+03,3.364997e+02
2.977554e+03,3.388054e+02
2.978519e+03,3.347223e+02
2.979483e+03,3.301774e+02
2.980447e+03,3.295150e+02
2.981411e+03,3.293922e+02
2.982376e+03,3.299250e+02
2.983340e+03,3.330204e+02
2.984304e+03,3.362607e+02
2.985268e+03,3.380668e+02
2.986233e+03,3.348658e+02
2.987197e+03,3.219493e+02
2.988161e+03,3.220248e+02
2.989125e+03,3.313508e+02
2.990090e+03,3.336445e+02
2.991054e+03,3.316307e+02
2.992018e+03,3.278678e+02
2.992982e+03,3.214219e+02
2.993947e+03,3.109604e+02
2.994911e+03,3.150585e+02
2.995875e+03,3.241791e+02
2.996839e+03,3.194847e+02
2.997803e+03,3.179152e+02
2.998768e+03,3.314592e+02
2.999732e+03,3.408413e+02
3.000696e+03,3.414487e+02
3.001660e+03,3.279482e+02
3.002625e+03,3.112784e+02
3.003589e+03,3.014066e+02
3.004553e+03,3.027364e+02
3.005517e+03,3.178876e+02
3.006481e+03,3.308678e+02
3.007446e+03,3.364430e+02
3.008410e+03,3.227558e+02
3.009374e+03,3.111415e+02
3.010338e+03,3.149463e+02
3.011303e+03,3.178492e+02
3.012267e+03,3.138315e+02
3.013231e+03,3.154276e+02
3.014195e+03,3.193013e+02
3.015160e+03,3.206145e+02
3.016124e+03,3.176750e+02
3.017088e+03,3.105283e+02
3.018052e+03,3.073269e+02
3.019017e+03,3.087110e+02
3.019981e+03,3.138145e+02
3.020945e+03,3.147474e+02
3.021909e+03,3.030646e+02
3.022874e+03,2.971511e+02
3.023838e+03,3.000089e+02
3.024802e+03,3.104484e+02
3.025766e+03,3.213035e+02
3.026730e+03,3.119034e+02
3.027695e+03,3.058601e+02
3.028659e+03,3.136485e+02
3.029623e+03,3.186170e+02
3.030587e+03,3.187392e+02
3.031552e+03,3.161342e+02
3.032516e+03,3.118341e+02
3.033480e+03,3.076433e+02
3.034444e+03,2.980349e+02
3.035408e+03,2.847343e+02
3.036373e+03,2.935737e+02
3.037337e+03,3.148508e+02
3.038301e+03,3.256314e+02
3.039265e+03,3.226033e+02
3.040230e+03,2.888269e+02
3.041194e+03,2.840509e+02
3.042158e+03,3.028686e+02
3.043122e+03,3.163164e+02
3.044087e+03,3.219067e+02
3.045051e+03,3.141442e+02
3.046015e+03,3.095996e+02
3.046979e+03,3.134272e+02
3.047944e+03,3.034925e+02
3.048908e+03,2.938537e+02
3.049872e+03,3.078841e+02
3.050836e+03,3.179528e+02
3.051801e+03,3.029743e+02
3.052765e+03,3.010739e+02
3.053729e+03,3.125383e+02
3.054693e+03,3.129105e+02
3.055657e+03,3.139775e+02
3.056622e+03,3.243770e+02
3.057586e+03,3.257797e+02
3.058550e+03,3.132812e+02
3.059514e+03,3.022692e+02
3.060479e+03,2.965397e+02
3.061443e+03,3.026673e+02
3.062407e+03,3.080312e+02
3.063371e+03,3.090385e+02
3.064335e+03,3.083624e+02
3.065300e+03,3.069094e+02
3.066264e+03,3.044302e+02
3.067228e+03,3.000982e+02
3.068192e+03,2.910001e+02
3.069157e+03,2.966948e+02
3.070121e+03,3.112283e+02
3.071085e+03,3.004910e+02
3.072049e+03,2.825670e+02
3.073014e+03,2.820168e+02
3.073978e+03,2.930156e+02
3.074942e+03,3.136890e+02
3.075906e+03,3.119105e+02
3.076871e+03,3.002400e+02
3.077835e+03,2.974851e+02
3.078799e+03,3.070166e+02
3.079763e+03,3.379976e+02
3.080728e+03,3.354115e+02
3.081692e+03,3.070945e+02
3.082656e+03,2.969057e+02
3.083620e+03,2.913680e+02
3.084584e+03,2.815952e+02
3.085549e+03,2.863951e+02
3.086513e+03,3.076418e+02
3.087477e+03,2.918824e+02
3.088441e+03,2.767769e+02
3.089406e+03,3.101092e+02
3.090370e+03,3.331877e+02
3.091334e+03,3.352210e+02
3.092298e+03,3.075490e+02
3.093262e+03,2.757494e+02
3.094227e+03,2.943795e+02
3.095191e+03,3.192087e+02
3.096155e+03,3.365629e+02
3.097119e+03,3.223462e+02
3.098084e+03,3.000633e+02
3.099048e+03,3.186814e+02
3.100012e+03,3.364071e+02
3.100976e+03,3.186626e+02
3.101941e+03,3.048273e+02
3.102905e+03,2.993466e+02
3.103869e+03,2.974199e+02
3.104833e+03,2.992953e+02
3.105798e+03,3.053376e+02
3.106762e+03,2.987045e+02
3.107726e+03,2.794958e+02
3.108690e+03,2.922005e+02
3.109655e+03,3.130368e+02
3.110619e+03,3.127580e+02
3.111583e+03,3.089358e+02
3.112547e+03,3.063802e+02
3.113511e+03,3.094146e+02
3.114476e+03,3.159659e+02
3.115440e+03,3.279264e+02
3.116404e+03,3.274508e+02
3.117368e+03,3.034637e+02
3.118333e+03,3.036542e+02
3.119297e+03,3.149557e+02
3.120261e+03,3.134418e+02
3.121225e+03,3.077748e+02
3.122189e+03,3.028931e+02
3.123154e+03,2.997496e+02
3.124118e+03,3.011113e+02
3.125082e+03,3.238109e+02
3.126046e+03,3.367795e+02
3.127011e+03,3.255047e+02
3.127975e+03,3.211854e+02
3.128939e+03,3.258709e+02
3.129903e+03,3.307907e+02
3.130868e+03,3.334420e+02
3.131832e+03,3.316116e+02
3.132796e+03,3.241852e+02
3.133760e+03,3.117368e+02
3.134725e+03,2.942278e+02
3.135689e+03,2.841176e+02
3.136653e+03,2.932785e+02
3.137617e+03,2.999218e+02
3.138582e+03,2.978933e+02
3.139546e+03,2.934678e+02
3.140510e+03,2.971541e+02
3.141474e+03,3.266830e+02
3.142438e+03,3.295062e+02
3.143403e+03,3.037511e+02
3.144367e+03,2.920763e+02
3.145331e+03,2.929780e+02
3.146295e+03,3.086551e+02
3.147260e+03,3.228625e+02
3.148224e+03,3.294286e+02
3.149188e+03,3.115539e+02
3.150152e+03,2.891493e+02
3.151116e+03,2.861518e+02
3.152081e+03,2.968683e+02
3.153045e+03,3.179638e+02
3.154009e+03,3.180763e+02
3.154973e+03,3.065875e+02
3.155938e+03,3.064473e+02
3.156902e+03,3.025691e+02
3.157866e+03,2.907766e+02
3.158830e+03,2.756309e+02
3.159795e+03,2.652404e+02
3.160759e+03,2.825865e+02
3.161723e+03,2.988243e+02
3.162687e+03,2.957543e+02
3.163652e+03,3.029378e+02
3.164616e+03,3.170818e+02
3.165580e+03,3.334127e+02
3.166544e+03,3.356367e+02
3.167509e+03,3.199413e+02
3.168473e+03,3.027052e+02
3.169437e+03,2.899390e+02
3.170401e+03,2.937710e+02
3.171365e+03,3.053040e+02
3.172330e+03,3.213828e+02
3.173294e+03,3.310517e+02
3.174258e+03,3.278776e+02
3.175222e+03,2.957374e+02
3.176187e+03,2.786589e+02
3.177151e+03,3.080642e+02
3.178115e+03,3.232213e+02
3.179079e+03,3.251310e+02
3.180043e+03,3.346070e+02
3.181008e+03,3.372285e+02
3.181972e+03,3.293555e+02
3.182936e+03,3.253509e+02
3.183900e+03,3.243529e+02
3.184865e+03,3.171347e+02
3.185829e+03,3.139092e+02
3.186793e+03,3.284549e+02
3.187757e+03,3.280252e+02
3.188722e+03,3.186545e+02
3.189686e+03,3.136835e+02
3.190650e+03,3.178590e+02
3.191614e+03,3.305249e+02
3.192579e+03,3.252751e+02
3.193543e+03,3.120781e+02
3.194507e+03,3.381564e+02
3.195471e+03,3.498344e+02
3.196436e+03,3.222903e+02
3.197400e+03,2.962675e+02
3.198364e+03,2.915197e+02
3.199328e+03,3.367202e+02
3.200292e+03,3.645653e+02
3.201257e+03,0.000000e+00
3.202221e+03,0.000000e+00
3.203185e+03,0.000000e+00
3.204149e+03,0.000000e+00
3.205114e+03,0.000000e+00
3.206078e+03,0.000000e+00
3.207042e+03,0.000000e+00
3.208006e+03,0.000000e+00
3.208970e+03,0.000000e+00
3.209935e+03,0.000000e+00
3.210899e+03,0.000000e+00
3.211863e+03,0.000000e+00
3.212827e+03,0.000000e+00
3.213792e+03,0.000000e+00
3.214756e+03,0.000000e+00
3.215720e+03,0.000000e+00
3.216684e+03,0.000000e+00
3.217649e+03,0.000000e+00
3.218613e+03,0.000000e+00
3.219577e+03,0.000000e+00
3.220541e+03,0.000000e+00
3.221506e+03,0.000000e+00
3.222470e+03,0.000000e+00
3.223434e+03,0.000000e+00
3.224398e+03,0.000000e+00
3.225363e+03,0.000000e+00
3.226327e+03,0.000000e+00
3.227291e+03,0.000000e+00
3.228255e+03,0.000000e+00
3.229219e+03,0.000000e+00
3.230184e+03,0.000000e+00
3.231148e+03,0.000000e+00
3.232112e+03,0.000000e+00
3.233076e+03,0.000000e+00
3.234041e+03,0.000000e+00
3.235005e+03,0.000000e+00
3.235969e+03,0.000000e+00
3.236933e+03,0.000000e+00
3.237897e+03,0.000000e+00
3.238862e+03,0.000000e+00
3.239826e+03,0.000000e+00
3.240790e+03,0.000000e+00
3.241754e+03,0.000000e+00
3.242719e+03,0.000000e+00
3.243683e+03,0.000000e+00
3.244647e+03,0.000000e+00
3.245611e+03,0.000000e+00
3.246576e+03,0.000000e+00
3.247540e+03,0.000000e+00
3.248504e+03,0.000000e+00
3.249468e+03,0.000000e+00
3.250433e+03,0.000000e+00
3.251397e+03,0.000000e+00
3.252361e+03,0.000000e+00
3.253325e+03,0.000000e+00
3.254290e+03,0.000000e+00
3.255254e+03,0.000000e+00
3.256218e+03,0.000000e+00
3.257182e+03,0.000000e+00
3.258146e+03,0.000000e+00
3.259111e+03,0.000000e+00
3.260075e+03,0.000000e+00
3.261039e+03,0.000000e+00
3.262003e+03,0.000000e+00
3.262968e+03,0.000000e+00
3.263932e+03,0.000000e+00
3.264896e+03,0.000000e+00
3.265860e+03,0.000000e+00
3.266824e+03,0.000000e+00
3.267789e+03,0.000000e+00
3.268753e+03,0.000000e+00
3.269717e+03,0.000000e+00
3.270681e+03,0.000000e+00
3.271646e+03,0.000000e+00
3.272610e+03,0.000000e+00
3.273574e+03,0.000000e+00
3.274538e+03,0.000000e+00
3.275503e+03,0.000000e+00
3.276467e+03,0.000000e+00
3.277431e+03,0.000000e+00
3.278395e+03,0.000000e+00
3.279360e+03,0.000000e+00
3.280324e+03,0.000000e+00
3.281288e+03,0.000000e+00
3.282252e+03,0.000000e+00
3.283217e+03,0.000000e+00
3.284181e+03,0.000000e+00
3.285145e+03,0.000000e+00
3.286109e+03,0.000000e+00
3.287073e+03,0.000000e+00
3.288038e+03,0.000000e+00
3.289002e+03,0.000000e+00
3.289966e+03,0.000000e+00
3.290930e+03,0.000000e+00
3.291895e+03,0.000000e+00
3.292859e+03,0.000000e+00
3.293823e+03,0.000000e+00
3.294787e+03,0.000000e+00
3.295751e+03,0.000000e+00
3.296716e+03,0.000000e+00
3.297680e+03,0.000000e+00
3.298644e+03,0.000000e+00
3.299608e+03,0.000000e+00
3.300573e+03,0.000000e+00
3.301537e+03,0.000000e+00
3.302501e+03,0.000000e+00
3.303465e+03,0.000000e+00
3.304430e+03,0.000000e+00
3.305394e+03,0.000000e+00
3.306358e+03,0.000000e+00
3.307322e+03,0.000000e+00
3.308287e+03,0.000000e+00
3.309251e+03,0.000000e+00
3.310215e+03,0.000000e+00
3.311179e+03,0.000000e+00
3.312144e+03,0.000000e+00
3.313108e+03,0.000000e+00
3.314072e+03,0.000000e+00
3.315036e+03,0.000000e+00
3.316000e+03,0.000000e+00
3.316965e+03,0.000000e+00
3.317929e+03,0.000000e+00
3.318893e+03,0.000000e+00
3.319857e+03,0.000000e+00
3.320822e+03,0.000000e+00
3.321786e+03,0.000000e+00
3.322750e+03,0.000000e+00
3.323714e+03,0.000000e+00
3.324678e+03,0.000000e+00
3.325643e+03,0.000000e+00
3.326607e+03,0.000000e+00
3.327571e+03,0.000000e+00
3.328535e+03,0.000000e+00
3.329500e+03,0.000000e+00
3.330464e+03,0.000000e+00
3.331428e+03,0.000000e+00
3.332392e+03,0.000000e+00
3.333357e+03,0.000000e+00
3.334321e+03,0.000000e+00
3.335285e+03,0.000000e+00
3.336249e+03,0.000000e+00
3.337214e+03,0.000000e+00
3.338178e+03,0.000000e+00
3.339142e+03,0.000000e+00
3.340106e+03,0.000000e+00
3.341071e+03,0.000000e+00
3.342035e+03,0.000000e+00
3.342999e+03,0.000000e+00
3.343963e+03,0.000000e+00
3.344927e+03,0.000000e+00
3.345892e+03,0.000000e+00
3.346856e+03,0.000000e+00
3.347820e+03,0.000000e+00
3.348784e+03,0.000000e+00
3.349749e+03,0.000000e+00
3.350713e+03,0.000000e+00
3.351677e+03,0.000000e+00
3.352641e+03,0.000000e+00
3.353605e+03,0.000000e+00
3.354570e+03,0.000000e+00
3.355534e+03,0.000000e+00
3.356498e+03,0.000000e+00
3.357462e+03,0.000000e+00
3.358427e+03,0.000000e+00
3.359391e+03,0.000000e+00
3.360355e+03,0.000000e+00
3.361319e+03,0.000000e+00
3.362284e+03,0.000000e+00
3.363248e+03,0.000000e+00
3.364212e+03,0.000000e+00
3.365176e+03,0.000000e+00
3.366141e+03,0.000000e+00
3.367105e+03,0.000000e+00
3.368069e+03,0.000000e+00
3.369033e+03,0.000000e+00
3.369998e+03,0.000000e+00
3.370962e+03,0.000000e+00
3.371926e+03,0.000000e+00
3.372890e+03,0.000000e+00
3.373854e+03,0.000000e+00
3.374819e+03,0.000000e+00
3.375783e+03,0.000000e+00
3.376747e+03,0.000000e+00
3.377711e+03,0.000000e+00
3.378676e+03,0.000000e+00
3.379640e+03,0.000000e+00
3.380604e+03,0.000000e+00
3.381568e+03,0.000000e+00
3.382532e+03,0.000000e+00
3.383497e+03,0.000000e+00
3.384461e+03,0.000000e+00
3.385425e+03,0.000000e+00
3.386389e+03,0.000000e+00
3.387354e+03,0.000000e+00
3.388318e+03,0.000000e+00
3.389282e+03,0.000000e+00
3.390246e+03,0.000000e+00
3.391211e+03,0.000000e+00
3.392175e+03,0.000000e+00
3.393139e+03,0.000000e+00
3.394103e+03,0.000000e+00
3.395068e+03,0.000000e+00
3.396032e+03,0.000000e+00
3.396996e+03,0.000000e+00
3.397960e+03,0.000000e+00
3.398925e+03,0.000000e+00
3.399889e+03,0.000000e+00
3.400853e+03,0.000000e+00
3.401817e+03,0.000000e+00
3.402781e+03,0.000000e+00
3.403746e+03,0.000000e+00
3.404710e+03,0.000000e+00
3.405674e+03,0.000000e+00
3.406638e+03,0.000000e+00
3.407603e+03,0.000000e+00
3.408567e+03,0.000000e+00
3.409531e+03,0.000000e+00
3.410495e+03,0.000000e+00
3.411459e+03,0.000000e+00
3.412424e+03,0.000000e+00
3.413388e+03,0.000000e+00
3.414352e+03,0.000000e+00
3.415316e+03,0.000000e+00
3.416281e+03,0.000000e+00
3.417245e+03,0.000000e+00
3.418209e+03,0.000000e+00
3.419173e+03,0.000000e+00
3.420138e+03,0.000000e+00
3.421102e+03,0.000000e+00
3.422066e+03,0.000000e+00
3.423030e+03,0.000000e+00
3.423995e+03,0.000000e+00
3.424959e+03,0.000000e+00
3.425923e+03,0.000000e+00
3.426887e+03,0.000000e+00
3.427852e+03,0.000000e+00
3.428816e+03,0.000000e+00
3.429780e+03,0.000000e+00
3.430744e+03,0.000000e+00
3.431708e+03,0.000000e+00
3.432673e+03,0.000000e+00
3.433637e+03,0.000000e+00
3.434601e+03,0.000000e+00
3.435565e+03,0.000000e+00
3.436530e+03,0.000000e+00
3.437494e+03,0.000000e+00
3.438458e+03,0.000000e+00
3.439422e+03,0.000000e+00
3.440386e+03,0.000000e+00
3.441351e+03,0.000000e+00
3.442315e+03,0.000000e+00
3.443279e+03,0.000000e+00
3.444243e+03,0.000000e+00
3.445208e+03,0.000000e+00
3.446172e+03,0.000000e+00
3.447136e+03,0.000000e+00
3.448100e+03,0.000000e+00
3.449065e+03,0.000000e+00
3.450029e+03,0.000000e+00
3.450993e+03,0.000000e+00
3.451957e+03,0.000000e+00
3.452922e+03,0.000000e+00
3.453886e+03,0.000000e+00
3.454850e+03,0.000000e+00
3.455814e+03,0.000000e+00
3.456779e+03,0.000000e+00
3.457743e+03,0.000000e+00
3.458707e+03,0.000000e+00
3.459671e+03,0.000000e+00
3.460635e+03,0.000000e+00
3.461600e+03,0.000000e+00
3.462564e+03,0.000000e+00
3.463528e+03,0.000000e+00
3.464492e+03,0.000000e+00
3.465457e+03,0.000000e+00
3.466421e+03,0.000000e+00
3.467385e+03,0.000000e+00
3.468349e+03,0.000000e+00
3.469313e+03,0.000000e+00
3.470278e+03,0.000000e+00
3.471242e+03,0.000000e+00
3.472206e+03,0.000000e+00
3.473170e+03,0.000000e+00
3.474135e+03,0.000000e+00
3.475099e+03,0.000000e+00
3.476063e+03,0.000000e+00
3.477027e+03,0.000000e+00
3.477992e+03,0.000000e+00
3.478956e+03,0.000000e+00
3.479920e+03,0.000000e+00
3.480884e+03,0.000000e+00
3.481849e+03,0.000000e+00
3.482813e+03,0.000000e+00
3.483777e+03,0.000000e+00
3.484741e+03,0.000000e+00
3.485706e+03,0.000000e+00
3.486670e+03,0.000000e+00
3.487634e+03,0.000000e+00
3.488598e+03,0.000000e+00
3.489563e+03,0.000000e+00
3.490527e+03,0.000000e+00
3.491491e+03,0.000000e+00
3.492455e+03,0.000000e+00
3.493419e+03,0.000000e+00
3.494384e+03,0.000000e+00
3.495348e+03,0.000000e+00
3.496312e+03,0.000000e+00
3.497276e+03,0.000000e+00
3.498240e+03,0.000000e+00
3.499205e+03,0.000000e+00
3.500169e+03,0.000000e+00
