9.931763e+01,0.000000e+00
1.002819e+02,0.000000e+00
1.012461e+02,0.000000e+00
1.022103e+02,0.000000e+00
1.031746e+02,0.000000e+00
1.041388e+02,0.000000e+00
1.051030e+02,0.000000e+00
1.060673e+02,0.000000e+00
1.070315e+02,0.000000e+00
1.079957e+02,0.000000e+00
1.089600e+02,0.000000e+00
1.099242e+02,0.000000e+00
1.108884e+02,0.000000e+00
1.118527e+02,0.000000e+00
1.128169e+02,0.000000e+00
1.137811e+02,0.000000e+00
1.147454e+02,0.000000e+00
1.157096e+02,0.000000e+00
1.166738e+02,0.000000e+00
1.176381e+02,0.000000e+00
1.186023e+02,0.000000e+00
1.195665e+02,0.000000e+00
1.205308e+02,0.000000e+00
1.214950e+02,0.000000e+00
1.224592e+02,0.000000e+00
1.234235e+02,0.000000e+00
1.243877e+02,0.000000e+00
1.253519e+02,0.000000e+00
1.263162e+02,0.000000e+00
1.272804e+02,0.000000e+00
1.282446e+02,0.000000e+00
1.292089e+02,0.000000e+00
1.301731e+02,0.000000e+00
1.311373e+02,0.000000e+00
1.321016e+02,0.000000e+00
1.330658e+02,0.000000e+00
1.340300e+02,0.000000e+00
1.349943e+02,0.000000e+00
1.359585e+02,0.000000e+00
1.369227e+02,0.000000e+00
1.378870e+02,0.000000e+00
1.388512e+02,0.000000e+00
1.398154e+02,0.000000e+00
1.407797e+02,0.000000e+00
1.417439e+02,0.000000e+00
1.427081e+02,0.000000e+00
1.436724e+02,0.000000e+00
1.446366e+02,0.000000e+00
1.456008e+02,0.000000e+00
1.465651e+02,0.000000e+00
1.475293e+02,0.000000e+00
1.484935e+02,0.000000e+00
1.494578e+02,0.000000e+00
1.504220e+02,0.000000e+00
1.513862e+02,0.000000e+00
1.523505e+02,0.000000e+00
1.533147e+02,0.000000e+00
1.542789e+02,0.000000e+00
1.552432e+02,0.000000e+00
1.562074e+02,0.000000e+00
1.571716e+02,0.000000e+00
1.581359e+02,0.000000e+00
1.591001e+02,0.000000e+00
1.600643e+02,0.000000e+00
1.610286e+02,0.000000e+00
1.619928e+02,0.000000e+00
1.629570e+02,0.000000e+00
1.639213e+02,0.000000e+00
1.648855e+02,0.000000e+00
1.658497e+02,0.000000e+00
1.668140e+02,0.000000e+00
1.677782e+02,0.000000e+00
1.687424e+02,0.000000e+00
1.697067e+02,0.000000e+00
1.706709e+02,0.000000e+00
1.716351e+02,0.000000e+00
1.725994e+02,0.000000e+00
1.735636e+02,0.000000e+00
1.745278e+02,0.000000e+00
1.754921e+02,0.000000e+00
1.764563e+02,0.000000e+00
1.774205e+02,0.000000e+00
1.783848e+02,0.000000e+00
1.793490e+02,0.000000e+00
1.803132e+02,0.000000e+00
1.812775e+02,0.000000e+00
1.822417e+02,0.000000e+00
1.832059e+02,0.000000e+00
1.841702e+02,0.000000e+00
1.851344e+02,0.000000e+00
1.860986e+02,0.000000e+00
1.870629e+02,0.000000e+00
1.880271e+02,0.000000e+00
1.889913e+02,0.000000e+00
1.899556e+02,0.000000e+00
1.909198e+02,0.000000e+00
1.918840e+02,0.000000e+00
1.928483e+02,0.000000e+00
1.938125e+02,0.000000e+00
1.947767e+02,0.000000e+00
1.957410e+02,0.000000e+00
1.967052e+02,0.000000e+00
1.976694e+02,0.000000e+00
1.986337e+02,0.000000e+00
1.995979e+02,2.299353e+03
2.005621e+02,2.303161e+03
2.015264e+02,2.305642e+03
2.024906e+02,2.304743e+03
2.034548e+02,2.304104e+03
2.044191e+02,2.304180e+03
2.053833e+02,2.304542e+03
2.063475e+02,2.304601e+03
2.073118e+02,2.303964e+03
2.082760e+02,2.302531e+03
2.092402e+02,2.300716e+03
2.102045e+02,2.300067e+03
2.111687e+02,2.299875e+03
2.121329e+02,2.299168e+03
2.130972e+02,2.296902e+03
2.140614e+02,2.293330e+03
2.150256e+02,2.290112e+03
2.159899e+02,2.287774e+03
2.169541e+02,2.285652e+03
2.179183e+02,2.283281e+03
2.188826e+02,2.280756e+03
2.198468e+02,2.279220e+03
2.208110e+02,2.281284e+03
2.217753e+02,2.286432e+03
2.227395e+02,2.286173e+03
2.237037e+02,2.275169e+03
2.246680e+02,2.261764e+03
2.256322e+02,2.253465e+03
2.265964e+02,2.254573e+03
2.275607e+02,2.258934e+03
2.285249e+02,2.259451e+03
2.294892e+02,2.255505e+03
2.304534e+02,2.251046e+03
2.314176e+02,2.247114e+03
2.323819e+02,2.243322e+03
2.333461e+02,2.240261e+03
2.343103e+02,2.238961e+03
2.352746e+02,2.238996e+03
2.362388e+02,2.239259e+03
2.372030e+02,2.239267e+03
2.381673e+02,2.237847e+03
2.391315e+02,2.234342e+03
2.400957e+02,2.229578e+03
2.410600e+02,2.224179e+03
2.420242e+02,2.218194e+03
2.429884e+02,2.212422e+03
2.439527e+02,2.208065e+03
2.449169e+02,2.205259e+03
2.458811e+02,2.203781e+03
2.468454e+02,2.202521e+03
2.478096e+02,2.200078e+03
2.487738e+02,2.198748e+03
2.497381e+02,2.201692e+03
2.507023e+02,2.209252e+03
2.516665e+02,2.217279e+03
2.526308e+02,2.218829e+03
2.535950e+02,2.203495e+03
2.545592e+02,2.192130e+03
2.555235e+02,2.188309e+03
2.564877e+02,2.188589e+03
2.574519e+02,2.188902e+03
2.584161e+02,2.187040e+03
2.593804e+02,2.183728e+03
2.603446e+02,2.183270e+03
2.613088e+02,2.188388e+03
2.622731e+02,2.192948e+03
2.632373e+02,2.194357e+03
2.642015e+02,2.192539e+03
2.651658e+02,2.190110e+03
2.661300e+02,2.190733e+03
2.670942e+02,2.195868e+03
2.680585e+02,2.200020e+03
2.690227e+02,2.202250e+03
2.699869e+02,2.203015e+03
2.709512e+02,2.202207e+03
2.719154e+02,2.200152e+03
2.728796e+02,2.197582e+03
2.738439e+02,2.195111e+03
2.748081e+02,2.193040e+03
2.757723e+02,2.192512e+03
2.767366e+02,2.193187e+03
2.777008e+02,2.193821e+03
2.786650e+02,2.193380e+03
2.796293e+02,2.191696e+03
2.805935e+02,2.189649e+03
2.815577e+02,2.187949e+03
2.825220e+02,2.186285e+03
2.834862e+02,2.184942e+03
2.844504e+02,2.185162e+03
2.854147e+02,2.189014e+03
2.863789e+02,2.192119e+03
2.873431e+02,2.193688e+03
2.883074e+02,2.194379e+03
2.892716e+02,2.194789e+03
2.902358e+02,2.194851e+03
2.912001e+02,2.194285e+03
2.921643e+02,2.192445e+03
2.931285e+02,2.186774e+03
2.940928e+02,2.183053e+03
2.950570e+02,2.184542e+03
2.960212e+02,2.190465e+03
2.969855e+02,2.197217e+03
2.979497e+02,2.201268e+03
2.989139e+02,2.202428e+03
2.998782e+02,2.202446e+03
3.008424e+02,2.202458e+03
3.018066e+02,2.202255e+03
3.027709e+02,2.200542e+03
3.037351e+02,2.196098e+03
3.046993e+02,2.190533e+03
3.056636e+02,2.187858e+03
3.066278e+02,2.190128e+03
3.075920e+02,2.191553e+03
3.085563e+02,2.187840e+03
3.095205e+02,2.181638e+03
3.104847e+02,2.178144e+03
3.114490e+02,2.181772e+03
3.124132e+02,2.188476e+03
3.133774e+02,2.189851e+03
3.143417e+02,2.183282e+03
3.153059e+02,2.173689e+03
3.162701e+02,2.168422e+03
3.172344e+02,2.169102e+03
3.181986e+02,2.170667e+03
3.191628e+02,2.172447e+03
3.201271e+02,2.174240e+03
3.210913e+02,2.174992e+03
3.220555e+02,2.173570e+03
3.230198e+02,2.170659e+03
3.239840e+02,2.172120e+03
3.249482e+02,2.184193e+03
3.259125e+02,2.193939e+03
3.268767e+02,2.196638e+03
3.278409e+02,2.193456e+03
3.288052e+02,2.188280e+03
3.297694e+02,2.184356e+03
3.307336e+02,2.182041e+03
3.316979e+02,2.178742e+03
3.326621e+02,2.171010e+03
3.336263e+02,2.164207e+03
3.345906e+02,2.162363e+03
3.355548e+02,2.167191e+03
3.365190e+02,2.173792e+03
3.374833e+02,2.175957e+03
3.384475e+02,2.172957e+03
3.394117e+02,2.170252e+03
3.403760e+02,2.168231e+03
3.413402e+02,2.167384e+03
3.423044e+02,2.168798e+03
3.432687e+02,2.175731e+03
3.442329e+02,2.182971e+03
3.451971e+02,2.184194e+03
3.461614e+02,2.178697e+03
3.471256e+02,2.172339e+03
3.480898e+02,2.171354e+03
3.490541e+02,2.179502e+03
3.500183e+02,2.182806e+03
3.509825e+02,2.177786e+03
3.519468e+02,2.170957e+03
3.529110e+02,2.167092e+03
3.538752e+02,2.167009e+03
3.548395e+02,2.168543e+03
3.558037e+02,2.168470e+03
3.567680e+02,2.165342e+03
3.577322e+02,2.163133e+03
3.586964e+02,2.163417e+03
3.596607e+02,2.165321e+03
3.606249e+02,2.167359e+03
3.615891e+02,2.168325e+03
3.625534e+02,2.167474e+03
3.635176e+02,2.164676e+03
3.644818e+02,2.160521e+03
3.654461e+02,2.155257e+03
3.664103e+02,2.148504e+03
3.673745e+02,2.141689e+03
3.683388e+02,2.138076e+03
3.693030e+02,2.139095e+03
3.702672e+02,2.142367e+03
3.712315e+02,2.144824e+03
3.721957e+02,2.145610e+03
3.731599e+02,2.145493e+03
3.741242e+02,2.146455e+03
3.750884e+02,2.153254e+03
3.760526e+02,2.157317e+03
3.770169e+02,2.156996e+03
3.779811e+02,2.153407e+03
3.789453e+02,2.147367e+03
3.799096e+02,2.138797e+03
3.808738e+02,2.128432e+03
3.818380e+02,2.119783e+03
3.828023e+02,2.114998e+03
3.837665e+02,2.111146e+03
3.847307e+02,2.106591e+03
3.856950e+02,2.101837e+03
3.866592e+02,2.098090e+03
3.876234e+02,2.096700e+03
3.885877e+02,2.096706e+03
3.895519e+02,2.095513e+03
3.905161e+02,2.092707e+03
3.914804e+02,2.088383e+03
3.924446e+02,2.082029e+03
3.934088e+02,2.072938e+03
3.943731e+02,2.066625e+03
3.953373e+02,2.066716e+03
3.963015e+02,2.069788e+03
3.972658e+02,2.070724e+03
3.982300e+02,2.067772e+03
3.991942e+02,2.063300e+03
4.001585e+02,2.062260e+03
4.011227e+02,2.068343e+03
4.020869e+02,2.072197e+03
4.030512e+02,2.069562e+03
4.040154e+02,2.063546e+03
4.049796e+02,2.059674e+03
4.059439e+02,2.062549e+03
4.069081e+02,2.069756e+03
4.078723e+02,2.072168e+03
4.088366e+02,2.067180e+03
4.098008e+02,2.060310e+03
4.107650e+02,2.056088e+03
4.117293e+02,2.054496e+03
4.126935e+02,2.053475e+03
4.136577e+02,2.050856e+03
4.146220e+02,2.048714e+03
4.155862e+02,2.051326e+03
4.165504e+02,2.060137e+03
4.175147e+02,2.070880e+03
4.184789e+02,2.076669e+03
4.194431e+02,2.072723e+03
4.204074e+02,2.069002e+03
4.213716e+02,2.064531e+03
4.223358e+02,2.060675e+03
4.233001e+02,2.059413e+03
4.242643e+02,2.062316e+03
4.252285e+02,2.067245e+03
4.261928e+02,2.068511e+03
4.271570e+02,2.064524e+03
4.281212e+02,2.060904e+03
4.290855e+02,2.060257e+03
4.300497e+02,2.061278e+03
4.310139e+02,2.061479e+03
4.319782e+02,2.059251e+03
4.329424e+02,2.056759e+03
4.339066e+02,2.056419e+03
4.348709e+02,2.058185e+03
4.358351e+02,2.060380e+03
4.367993e+02,2.061665e+03
4.377636e+02,2.062245e+03
4.387278e+02,2.061468e+03
4.396920e+02,2.058882e+03
4.406563e+02,2.055845e+03
4.416205e+02,2.052977e+03
4.425847e+02,2.050343e+03
4.435490e+02,2.047775e+03
4.445132e+02,2.044551e+03
4.454774e+02,2.040211e+03
4.464417e+02,2.039178e+03
4.474059e+02,2.045145e+03
4.483701e+02,2.053399e+03
4.493344e+02,2.058432e+03
4.502986e+02,2.058264e+03
4.512628e+02,2.056642e+03
4.522271e+02,2.056562e+03
4.531913e+02,2.057448e+03
4.541555e+02,2.056541e+03
4.551198e+02,2.051762e+03
4.560840e+02,2.043209e+03
4.570482e+02,2.035430e+03
4.580125e+02,2.027607e+03
4.589767e+02,2.022967e+03
4.599409e+02,2.023352e+03
4.609052e+02,2.027293e+03
4.618694e+02,2.031176e+03
4.628336e+02,2.032581e+03
4.637979e+02,2.031785e+03
4.647621e+02,2.030153e+03
4.657263e+02,2.027870e+03
4.666906e+02,2.026051e+03
4.676548e+02,2.024830e+03
4.686190e+02,2.023734e+03
4.695833e+02,2.023306e+03
4.705475e+02,2.025026e+03
4.715117e+02,2.026911e+03
4.724760e+02,2.025627e+03
4.734402e+02,2.019952e+03
4.744044e+02,2.012487e+03
4.753687e+02,2.009396e+03
4.763329e+02,2.015486e+03
4.772971e+02,2.018639e+03
4.782614e+02,2.014203e+03
4.792256e+02,2.007052e+03
4.801898e+02,2.003309e+03
4.811541e+02,2.007567e+03
4.821183e+02,2.014278e+03
4.830826e+02,2.014649e+03
4.840468e+02,2.008094e+03
4.850110e+02,2.001815e+03
4.859753e+02,2.000205e+03
4.869395e+02,2.003520e+03
4.879037e+02,2.008494e+03
4.888680e+02,2.020079e+03
4.898322e+02,2.029680e+03
4.907964e+02,2.031623e+03
4.917607e+02,2.026609e+03
4.927249e+02,2.019773e+03
4.936891e+02,2.015483e+03
4.946534e+02,2.013790e+03
4.956176e+02,2.012738e+03
4.965818e+02,2.012382e+03
4.975461e+02,2.012813e+03
4.985103e+02,2.013809e+03
4.994745e+02,2.015054e+03
5.004388e+02,2.016171e+03
5.014030e+02,2.018407e+03
5.023672e+02,2.020863e+03
5.033315e+02,2.021491e+03
5.042957e+02,2.019450e+03
5.052599e+02,2.015479e+03
5.062242e+02,2.011566e+03
5.071884e+02,2.006706e+03
5.081526e+02,2.004449e+03
5.091169e+02,2.008734e+03
5.100811e+02,2.014938e+03
5.110453e+02,2.016980e+03
5.120095e+02,2.010344e+03
5.129738e+02,2.001629e+03
5.139380e+02,2.000359e+03
5.149022e+02,2.006455e+03
5.158665e+02,2.011124e+03
5.168307e+02,2.008693e+03
5.177949e+02,1.998341e+03
5.187592e+02,1.988340e+03
5.197234e+02,1.980466e+03
5.206876e+02,1.974220e+03
5.216519e+02,1.969210e+03
5.226161e+02,1.965710e+03
5.235803e+02,1.964189e+03
5.245446e+02,1.967193e+03
5.255088e+02,1.973459e+03
5.264730e+02,1.973340e+03
5.274373e+02,1.964049e+03
5.284015e+02,1.952822e+03
5.293657e+02,1.945303e+03
5.303300e+02,1.941625e+03
5.312942e+02,1.939200e+03
5.322584e+02,1.939519e+03
5.332227e+02,1.941238e+03
5.341869e+02,1.943333e+03
5.351511e+02,1.945094e+03
5.361154e+02,1.944867e+03
5.370796e+02,1.939499e+03
5.380438e+02,1.926974e+03
5.390081e+02,1.918737e+03
5.399723e+02,1.919057e+03
5.409365e+02,1.923128e+03
5.419008e+02,1.925877e+03
5.428650e+02,1.925409e+03
5.438292e+02,1.924994e+03
5.447935e+02,1.927416e+03
5.457577e+02,1.931238e+03
5.467219e+02,1.933430e+03
5.476862e+02,1.932748e+03
5.486504e+02,1.929833e+03
5.496146e+02,1.926709e+03
5.505789e+02,1.923323e+03
5.515431e+02,1.919596e+03
5.525073e+02,1.915820e+03
5.534716e+02,1.912909e+03
5.544358e+02,1.911184e+03
5.554000e+02,1.909744e+03
5.563643e+02,1.909064e+03
5.573285e+02,1.910141e+03
5.582927e+02,1.912548e+03
5.592570e+02,1.914848e+03
5.602212e+02,1.916537e+03
5.611854e+02,1.917453e+03
5.621497e+02,1.917535e+03
5.631139e+02,1.913422e+03
5.640781e+02,1.910696e+03
5.650424e+02,1.914091e+03
5.660066e+02,1.921663e+03
5.669708e+02,1.926109e+03
5.679351e+02,1.921059e+03
5.688993e+02,1.911223e+03
5.698635e+02,1.904497e+03
5.708278e+02,1.901641e+03
5.717920e+02,1.901654e+03
5.727562e+02,1.903716e+03
5.737205e+02,1.908803e+03
5.746847e+02,1.910853e+03
5.756489e+02,1.907203e+03
5.766132e+02,1.902485e+03
5.775774e+02,1.899300e+03
5.785416e+02,1.898074e+03
5.795059e+02,1.897585e+03
5.804701e+02,1.897242e+03
5.814343e+02,1.896925e+03
5.823986e+02,1.895805e+03
5.833628e+02,1.893385e+03
5.843270e+02,1.891778e+03
5.852913e+02,1.893934e+03
5.862555e+02,1.905809e+03
5.872197e+02,1.912340e+03
5.881840e+02,1.909042e+03
5.891482e+02,1.902835e+03
5.901124e+02,1.899672e+03
5.910767e+02,1.901576e+03
5.920409e+02,1.904451e+03
5.930051e+02,1.903826e+03
5.939694e+02,1.900131e+03
5.949336e+02,1.896637e+03
5.958978e+02,1.894369e+03
5.968621e+02,1.892921e+03
5.978263e+02,1.891463e+03
5.987905e+02,1.888755e+03
5.997548e+02,1.888197e+03
6.007190e+02,1.891382e+03
6.016832e+02,1.896760e+03
6.026475e+02,1.902618e+03
6.036117e+02,1.909105e+03
6.045759e+02,1.913419e+03
6.055402e+02,1.910291e+03
6.065044e+02,1.900404e+03
6.074686e+02,1.892363e+03
6.084329e+02,1.891029e+03
6.093971e+02,1.894758e+03
6.103613e+02,1.894473e+03
6.113256e+02,1.884238e+03
6.122899e+02,1.876482e+03
6.132541e+02,1.874119e+03
6.142183e+02,1.875517e+03
6.151826e+02,1.877957e+03
6.161468e+02,1.882571e+03
6.171110e+02,1.886929e+03
6.180753e+02,1.886422e+03
6.190395e+02,1.881427e+03
6.200037e+02,1.877176e+03
6.209680e+02,1.876944e+03
6.219322e+02,1.880748e+03
6.228964e+02,1.883652e+03
6.238607e+02,1.886343e+03
6.248249e+02,1.886919e+03
6.257891e+02,1.881956e+03
6.267534e+02,1.873228e+03
6.277176e+02,1.867329e+03
6.286818e+02,1.870463e+03
6.296461e+02,1.876836e+03
6.306103e+02,1.880066e+03
6.315745e+02,1.880189e+03
6.325388e+02,1.879355e+03
6.335030e+02,1.878789e+03
6.344672e+02,1.878217e+03
6.354315e+02,1.877141e+03
6.363957e+02,1.873656e+03
6.373599e+02,1.870982e+03
6.383242e+02,1.872455e+03
6.392884e+02,1.877641e+03
6.402526e+02,1.880282e+03
6.412169e+02,1.875724e+03
6.421811e+02,1.869316e+03
6.431453e+02,1.866038e+03
6.441096e+02,1.866052e+03
6.450738e+02,1.867077e+03
6.460380e+02,1.867797e+03
6.470023e+02,1.868639e+03
6.479665e+02,1.867822e+03
6.489307e+02,1.863173e+03
6.498950e+02,1.858842e+03
6.508592e+02,1.858766e+03
6.518234e+02,1.863182e+03
6.527877e+02,1.865519e+03
6.537519e+02,1.863634e+03
6.547161e+02,1.860455e+03
6.556804e+02,1.858717e+03
6.566446e+02,1.858510e+03
6.576088e+02,1.857226e+03
6.585731e+02,1.850661e+03
6.595373e+02,1.840150e+03
6.605015e+02,1.834248e+03
6.614658e+02,1.834801e+03
6.624300e+02,1.837172e+03
6.633942e+02,1.836631e+03
6.643585e+02,1.830802e+03
6.653227e+02,1.827949e+03
6.662869e+02,1.830453e+03
6.672512e+02,1.833504e+03
6.682154e+02,1.834599e+03
6.691796e+02,1.833081e+03
6.701439e+02,1.829329e+03
6.711081e+02,1.821731e+03
6.720723e+02,1.812482e+03
6.730366e+02,1.806555e+03
6.740008e+02,1.805075e+03
6.749650e+02,1.805492e+03
6.759293e+02,1.804917e+03
6.768935e+02,1.803323e+03
6.778577e+02,1.801569e+03
6.788220e+02,1.799110e+03
6.797862e+02,1.797976e+03
6.807504e+02,1.799451e+03
6.817147e+02,1.803811e+03
6.826789e+02,1.806516e+03
6.836431e+02,1.804083e+03
6.846074e+02,1.799293e+03
6.855716e+02,1.795822e+03
6.865358e+02,1.794640e+03
6.875001e+02,1.793991e+03
6.884643e+02,1.790832e+03
6.894285e+02,1.785286e+03
6.903928e+02,1.783413e+03
6.913570e+02,1.787028e+03
6.923212e+02,1.792177e+03
6.932855e+02,1.795062e+03
6.942497e+02,1.796373e+03
6.952139e+02,1.795307e+03
6.961782e+02,1.787578e+03
6.971424e+02,1.779875e+03
6.981066e+02,1.777032e+03
6.990709e+02,1.779328e+03
7.000351e+02,1.782414e+03
7.009993e+02,1.784970e+03
7.019636e+02,1.787067e+03
7.029278e+02,1.787384e+03
7.038920e+02,1.785461e+03
7.048563e+02,1.782570e+03
7.058205e+02,1.780861e+03
7.067847e+02,1.781600e+03
7.077490e+02,1.781789e+03
7.087132e+02,1.783284e+03
7.096774e+02,1.784082e+03
7.106417e+02,1.779852e+03
7.116059e+02,1.767944e+03
7.125701e+02,1.760888e+03
7.135344e+02,1.766526e+03
7.144986e+02,1.776443e+03
7.154628e+02,1.783075e+03
7.164271e+02,1.784880e+03
7.173913e+02,1.784112e+03
7.183555e+02,1.782454e+03
7.193198e+02,1.779945e+03
7.202840e+02,1.776472e+03
7.212482e+02,1.771630e+03
7.222125e+02,1.768652e+03
7.231767e+02,1.771282e+03
7.241409e+02,1.782581e+03
7.251052e+02,1.789473e+03
7.260694e+02,1.788425e+03
7.270336e+02,1.785608e+03
7.279979e+02,1.784434e+03
7.289621e+02,1.785185e+03
7.299263e+02,1.786545e+03
7.308906e+02,1.788674e+03
7.318548e+02,1.790407e+03
7.328190e+02,1.790731e+03
7.337833e+02,1.789567e+03
7.347475e+02,1.787363e+03
7.357117e+02,1.784193e+03
7.366760e+02,1.780586e+03
7.376402e+02,1.779576e+03
7.386044e+02,1.782384e+03
7.395687e+02,1.784985e+03
7.405329e+02,1.783481e+03
7.414971e+02,1.776542e+03
7.424614e+02,1.770577e+03
7.434256e+02,1.765386e+03
7.443898e+02,1.763040e+03
7.453541e+02,1.764280e+03
7.463183e+02,1.768038e+03
7.472825e+02,1.772272e+03
7.482468e+02,1.778234e+03
7.492110e+02,1.783205e+03
7.501752e+02,1.784785e+03
7.511395e+02,1.783677e+03
7.521037e+02,1.781282e+03
7.530679e+02,1.777769e+03
7.540322e+02,1.772798e+03
7.549964e+02,1.766466e+03
7.559606e+02,1.757964e+03
7.569249e+02,1.752492e+03
7.578891e+02,1.754382e+03
7.588533e+02,1.764371e+03
7.598176e+02,1.771324e+03
7.607818e+02,1.772258e+03
7.617460e+02,1.770381e+03
7.627103e+02,1.766918e+03
7.636745e+02,1.762792e+03
7.646387e+02,1.758456e+03
7.656030e+02,1.751830e+03
7.665672e+02,1.746606e+03
7.675314e+02,1.746329e+03
7.684957e+02,1.748798e+03
7.694599e+02,1.749631e+03
7.704241e+02,1.746505e+03
7.713884e+02,1.741799e+03
7.723526e+02,1.740941e+03
7.733168e+02,1.744644e+03
7.742811e+02,1.750025e+03
7.752453e+02,1.755991e+03
7.762095e+02,1.761093e+03
7.771738e+02,1.760251e+03
7.781380e+02,1.743208e+03
7.791022e+02,1.731789e+03
7.800665e+02,1.736473e+03
7.810307e+02,1.749041e+03
7.819949e+02,1.755832e+03
7.829592e+02,1.749997e+03
7.839234e+02,1.742663e+03
7.848876e+02,1.737389e+03
7.858519e+02,1.734050e+03
7.868161e+02,1.732940e+03
7.877803e+02,1.734482e+03
7.887446e+02,1.737315e+03
7.897088e+02,1.740981e+03
7.906730e+02,1.745691e+03
7.916373e+02,1.748526e+03
7.926015e+02,1.747627e+03
7.935657e+02,1.743029e+03
7.945300e+02,1.736420e+03
7.954942e+02,1.726784e+03
7.964584e+02,1.719792e+03
7.974227e+02,1.718996e+03
7.983869e+02,1.722197e+03
7.993511e+02,1.724816e+03
8.003154e+02,1.726119e+03
8.012796e+02,1.724987e+03
8.022438e+02,1.719728e+03
8.032081e+02,1.714261e+03
8.041723e+02,1.712494e+03
8.051365e+02,1.715186e+03
8.061008e+02,1.717242e+03
8.070650e+02,1.712707e+03
8.080292e+02,1.705057e+03
8.089935e+02,1.701133e+03
8.099577e+02,1.702425e+03
8.109219e+02,1.706300e+03
8.118862e+02,1.711512e+03
8.128504e+02,1.717826e+03
8.138146e+02,1.717217e+03
8.147789e+02,1.707108e+03
8.157431e+02,1.695297e+03
8.167073e+02,1.688463e+03
8.176716e+02,1.688446e+03
8.186358e+02,1.688244e+03
8.196000e+02,1.687037e+03
8.205643e+02,1.686173e+03
8.215285e+02,1.685747e+03
8.224927e+02,1.685545e+03
8.234570e+02,1.684682e+03
8.244212e+02,1.681432e+03
8.253854e+02,1.678890e+03
8.263497e+02,1.679981e+03
8.273139e+02,1.682828e+03
8.282781e+02,1.683284e+03
8.292424e+02,1.677311e+03
8.302066e+02,1.670067e+03
8.311708e+02,1.669811e+03
8.321351e+02,1.675060e+03
8.330993e+02,1.677844e+03
8.340635e+02,1.672952e+03
8.350278e+02,1.663551e+03
8.359920e+02,1.660236e+03
8.369562e+02,1.664197e+03
8.379205e+02,1.668393e+03
8.388847e+02,1.670948e+03
8.398489e+02,1.672127e+03
8.408132e+02,1.672318e+03
8.417774e+02,1.670910e+03
8.427416e+02,1.668791e+03
8.437059e+02,1.664933e+03
8.446701e+02,1.661051e+03
8.456343e+02,1.658993e+03
8.465986e+02,1.658770e+03
8.475628e+02,1.660415e+03
8.485270e+02,1.666737e+03
8.494913e+02,1.673414e+03
8.504555e+02,1.675661e+03
8.514197e+02,1.672458e+03
8.523840e+02,1.668603e+03
8.533482e+02,1.668180e+03
8.543124e+02,1.669256e+03
8.552767e+02,1.667919e+03
8.562409e+02,1.663619e+03
8.572051e+02,1.659436e+03
8.581694e+02,1.659455e+03
8.591336e+02,1.663491e+03
8.600978e+02,1.666960e+03
8.610621e+02,1.670287e+03
8.620263e+02,1.671959e+03
8.629905e+02,1.669949e+03
8.639548e+02,1.663395e+03
8.649190e+02,1.657738e+03
8.658832e+02,1.653503e+03
8.668475e+02,1.651089e+03
8.678117e+02,1.651436e+03
8.687759e+02,1.653808e+03
8.697402e+02,1.655484e+03
8.707044e+02,1.654846e+03
8.716686e+02,1.653272e+03
8.726329e+02,1.651780e+03
8.735971e+02,1.650863e+03
8.745613e+02,1.650688e+03
8.755256e+02,1.652609e+03
8.764898e+02,1.654862e+03
8.774540e+02,1.656042e+03
8.784183e+02,1.656127e+03
8.793825e+02,1.654889e+03
8.803467e+02,1.651843e+03
8.813110e+02,1.649089e+03
8.822752e+02,1.650071e+03
8.832394e+02,1.654180e+03
8.842037e+02,1.658340e+03
8.851679e+02,1.661476e+03
8.861321e+02,1.663033e+03
8.870964e+02,1.662329e+03
8.880606e+02,1.659146e+03
8.890248e+02,1.655462e+03
8.899891e+02,1.651825e+03
8.909533e+02,1.649009e+03
8.919175e+02,1.647424e+03
8.928818e+02,1.647269e+03
8.938460e+02,1.647239e+03
8.948102e+02,1.646434e+03
8.957745e+02,1.645893e+03
8.967387e+02,1.646058e+03
8.977029e+02,1.646574e+03
8.986672e+02,1.648690e+03
8.996314e+02,1.656815e+03
9.005956e+02,1.664051e+03
9.015599e+02,1.667102e+03
9.025241e+02,1.666416e+03
9.034883e+02,1.664233e+03
9.044526e+02,1.659749e+03
9.054168e+02,1.654728e+03
9.063810e+02,1.652177e+03
9.073453e+02,1.651412e+03
9.083095e+02,1.649408e+03
9.092737e+02,1.643640e+03
9.102380e+02,1.637061e+03
9.112022e+02,1.632463e+03
9.121664e+02,1.629779e+03
9.131307e+02,1.629917e+03
9.140949e+02,1.633861e+03
9.150591e+02,1.639316e+03
9.160234e+02,1.641935e+03
9.169876e+02,1.641151e+03
9.179518e+02,1.639163e+03
9.189161e+02,1.636070e+03
9.198803e+02,1.633468e+03
9.208445e+02,1.634224e+03
9.218088e+02,1.639614e+03
9.227730e+02,1.642046e+03
9.237372e+02,1.640009e+03
9.247015e+02,1.637006e+03
9.256657e+02,1.635107e+03
9.266299e+02,1.634196e+03
9.275942e+02,1.634341e+03
9.285584e+02,1.635887e+03
9.295226e+02,1.637345e+03
9.304869e+02,1.639138e+03
9.314511e+02,1.640975e+03
9.324153e+02,1.641057e+03
9.333796e+02,1.636891e+03
9.343438e+02,1.633535e+03
9.353080e+02,1.633617e+03
9.362723e+02,1.634111e+03
9.372365e+02,1.631171e+03
9.382007e+02,1.621988e+03
9.391650e+02,1.614798e+03
9.401292e+02,1.614576e+03
9.410934e+02,1.617528e+03
9.420577e+02,1.619128e+03
9.430219e+02,1.618073e+03
9.439861e+02,1.615865e+03
9.449504e+02,1.613873e+03
9.459146e+02,1.612647e+03
9.468788e+02,1.611793e+03
9.478431e+02,1.610391e+03
9.488073e+02,1.608299e+03
9.497715e+02,1.607373e+03
9.507358e+02,1.606434e+03
9.517000e+02,1.600680e+03
9.526642e+02,1.591180e+03
9.536285e+02,1.584886e+03
9.545927e+02,1.587259e+03
9.555569e+02,1.594927e+03
9.565212e+02,1.596227e+03
9.574854e+02,1.591516e+03
9.584496e+02,1.588354e+03
9.594139e+02,1.589120e+03
9.603781e+02,1.592138e+03
9.613423e+02,1.594845e+03
9.623066e+02,1.597740e+03
9.632708e+02,1.598277e+03
9.642350e+02,1.595888e+03
9.651993e+02,1.591999e+03
9.661635e+02,1.587682e+03
9.671277e+02,1.581047e+03
9.680920e+02,1.577369e+03
9.690562e+02,1.579111e+03
9.700204e+02,1.580973e+03
9.709847e+02,1.578945e+03
9.719489e+02,1.572187e+03
9.729131e+02,1.568544e+03
9.738774e+02,1.570660e+03
9.748416e+02,1.573943e+03
9.758058e+02,1.576076e+03
9.767701e+02,1.576811e+03
9.777343e+02,1.577537e+03
9.786985e+02,1.580160e+03
9.796628e+02,1.580530e+03
9.806270e+02,1.574545e+03
9.815912e+02,1.566219e+03
9.825555e+02,1.562581e+03
9.835197e+02,1.571927e+03
9.844839e+02,1.578512e+03
9.854482e+02,1.573191e+03
9.864124e+02,1.563273e+03
9.873766e+02,1.555926e+03
9.883409e+02,1.552897e+03
9.893051e+02,1.553562e+03
9.902693e+02,1.560803e+03
9.912336e+02,1.569773e+03
9.921978e+02,1.574614e+03
9.931620e+02,1.574437e+03
9.941263e+02,1.572232e+03
9.950905e+02,1.570036e+03
9.960547e+02,1.567378e+03
9.970190e+02,1.562463e+03
9.979832e+02,1.556026e+03
9.989474e+02,1.551615e+03
9.999117e+02,1.553339e+03
1.000876e+03,1.557045e+03
1.001840e+03,1.555224e+03
1.002804e+03,1.549876e+03
1.003769e+03,1.546489e+03
1.004733e+03,1.546701e+03
1.005697e+03,1.548740e+03
1.006661e+03,1.551507e+03
1.007626e+03,1.554490e+03
1.008590e+03,1.554027e+03
1.009554e+03,1.548940e+03
1.010518e+03,1.543033e+03
1.011482e+03,1.540711e+03
1.012447e+03,1.541713e+03
1.013411e+03,1.545321e+03
1.014375e+03,1.552547e+03
1.015339e+03,1.558559e+03
1.016304e+03,1.558945e+03
1.017268e+03,1.554719e+03
1.018232e+03,1.552894e+03
1.019196e+03,1.553601e+03
1.020161e+03,1.554111e+03
1.021125e+03,1.553830e+03
1.022089e+03,1.553043e+03
1.023053e+03,1.550524e+03
1.024018e+03,1.544630e+03
1.024982e+03,1.542629e+03
1.025946e+03,1.546657e+03
1.026910e+03,1.552601e+03
1.027875e+03,1.556361e+03
1.028839e+03,1.558859e+03
1.029803e+03,1.558385e+03
1.030767e+03,1.552712e+03
1.031731e+03,1.548271e+03
1.032696e+03,1.550016e+03
1.033660e+03,1.558168e+03
1.034624e+03,1.562987e+03
1.035588e+03,1.562794e+03
1.036552e+03,1.563460e+03
1.037517e+03,1.568380e+03
1.038481e+03,1.575073e+03
1.039445e+03,1.575472e+03
1.040409e+03,1.564064e+03
1.041374e+03,1.555662e+03
1.042338e+03,1.553563e+03
1.043302e+03,1.555765e+03
1.044266e+03,1.559532e+03
1.045231e+03,1.567685e+03
1.046195e+03,1.571788e+03
1.047159e+03,1.568398e+03
1.048123e+03,1.564549e+03
1.049088e+03,1.565473e+03
1.050052e+03,1.572550e+03
1.051016e+03,1.577485e+03
1.051980e+03,1.577928e+03
1.052945e+03,1.578300e+03
1.053909e+03,1.580140e+03
1.054873e+03,1.582112e+03
1.055837e+03,1.581957e+03
1.056802e+03,1.578343e+03
1.057766e+03,1.575226e+03
1.058730e+03,1.573604e+03
1.059694e+03,1.573132e+03
1.060658e+03,1.572880e+03
1.061623e+03,1.571346e+03
1.062587e+03,1.573564e+03
1.063551e+03,1.584325e+03
1.064515e+03,1.595920e+03
1.065479e+03,1.602952e+03
1.066444e+03,1.605192e+03
1.067408e+03,1.605614e+03
1.068372e+03,1.600937e+03
1.069336e+03,1.598236e+03
1.070301e+03,1.602378e+03
1.071265e+03,1.610287e+03
1.072229e+03,1.613514e+03
1.073193e+03,1.605557e+03
1.074158e+03,1.598779e+03
1.075122e+03,1.598404e+03
1.076086e+03,1.600120e+03
1.077050e+03,1.598555e+03
1.078015e+03,1.591003e+03
1.078979e+03,1.587275e+03
1.079943e+03,1.592806e+03
1.080907e+03,1.599609e+03
1.081872e+03,1.600738e+03
1.082836e+03,1.595209e+03
1.083800e+03,1.592003e+03
1.084764e+03,1.595858e+03
1.085729e+03,1.600371e+03
1.086693e+03,1.601932e+03
1.087657e+03,1.601566e+03
1.088621e+03,1.602623e+03
1.089585e+03,1.606844e+03
1.090550e+03,1.610480e+03
1.091514e+03,1.614373e+03
1.092478e+03,1.617578e+03
1.093442e+03,1.618677e+03
1.094406e+03,1.617229e+03
1.095371e+03,1.615016e+03
1.096335e+03,1.610480e+03
1.097299e+03,1.606242e+03
1.098263e+03,1.605123e+03
1.099228e+03,1.606695e+03
1.100192e+03,1.604973e+03
1.101156e+03,1.593628e+03
1.102120e+03,1.584195e+03
1.103085e+03,1.582655e+03
1.104049e+03,1.585977e+03
1.105013e+03,1.587819e+03
1.105977e+03,1.587552e+03
1.106942e+03,1.585648e+03
1.107906e+03,1.580847e+03
1.108870e+03,1.575464e+03
1.109834e+03,1.571870e+03
1.110799e+03,1.571140e+03
1.111763e+03,1.568619e+03
1.112727e+03,1.558805e+03
1.113691e+03,1.552306e+03
1.114656e+03,1.556972e+03
1.115620e+03,1.570874e+03
1.116584e+03,1.579282e+03
1.117548e+03,1.574377e+03
1.118512e+03,1.570795e+03
1.119477e+03,1.574534e+03
1.120441e+03,1.580736e+03
1.121405e+03,1.582205e+03
1.122369e+03,1.575600e+03
1.123334e+03,1.569396e+03
1.124298e+03,1.564814e+03
1.125262e+03,1.560085e+03
1.126226e+03,1.553086e+03
1.127191e+03,1.543097e+03
1.128155e+03,1.538400e+03
1.129119e+03,1.541096e+03
1.130083e+03,1.545543e+03
1.131047e+03,1.550468e+03
1.132012e+03,1.555073e+03
1.132976e+03,1.557943e+03
1.133940e+03,1.559268e+03
1.134904e+03,1.557972e+03
1.135869e+03,1.552189e+03
1.136833e+03,1.546535e+03
1.137797e+03,1.546598e+03
1.138761e+03,1.555004e+03
1.139726e+03,1.561050e+03
1.140690e+03,1.563926e+03
1.141654e+03,1.565383e+03
1.142618e+03,1.566033e+03
1.143583e+03,1.566092e+03
1.144547e+03,1.566697e+03
1.145511e+03,1.568323e+03
1.146475e+03,1.568140e+03
1.147439e+03,1.564424e+03
1.148404e+03,1.560003e+03
1.149368e+03,1.559607e+03
1.150332e+03,1.563407e+03
1.151296e+03,1.567429e+03
1.152261e+03,1.570447e+03
1.153225e+03,1.573414e+03
1.154189e+03,1.579580e+03
1.155153e+03,1.588562e+03
1.156118e+03,1.590579e+03
1.157082e+03,1.585973e+03
1.158046e+03,1.581275e+03
1.159010e+03,1.578339e+03
1.159974e+03,1.577647e+03
1.160939e+03,1.581946e+03
1.161903e+03,1.589863e+03
1.162867e+03,1.594363e+03
1.163831e+03,1.593857e+03
1.164796e+03,1.590689e+03
1.165760e+03,1.587068e+03
1.166724e+03,1.583481e+03
1.167688e+03,1.580442e+03
1.168653e+03,1.578035e+03
1.169617e+03,1.576491e+03
1.170581e+03,1.577193e+03
1.171545e+03,1.577837e+03
1.172510e+03,1.574277e+03
1.173474e+03,1.568066e+03
1.174438e+03,1.561819e+03
1.175402e+03,1.555895e+03
1.176366e+03,1.551916e+03
1.177331e+03,1.554483e+03
1.178295e+03,1.558396e+03
1.179259e+03,1.555751e+03
1.180223e+03,1.546633e+03
1.181188e+03,1.538078e+03
1.182152e+03,1.535415e+03
1.183116e+03,1.533619e+03
1.184080e+03,1.527805e+03
1.185045e+03,1.521287e+03
1.186009e+03,1.519791e+03
1.186973e+03,1.527723e+03
1.187937e+03,1.536070e+03
1.188901e+03,1.541527e+03
1.189866e+03,1.545342e+03
1.190830e+03,1.548186e+03
1.191794e+03,1.549825e+03
1.192758e+03,1.550417e+03
1.193723e+03,1.549896e+03
1.194687e+03,1.549706e+03
1.195651e+03,1.550171e+03
1.196615e+03,1.551007e+03
1.197580e+03,1.551554e+03
1.198544e+03,1.550312e+03
1.199508e+03,1.548891e+03
1.200472e+03,1.548803e+03
1.201437e+03,1.548675e+03
1.202401e+03,1.547358e+03
1.203365e+03,1.544989e+03
1.204329e+03,1.543431e+03
1.205293e+03,1.541994e+03
1.206258e+03,1.542660e+03
1.207222e+03,1.546680e+03
1.208186e+03,1.552644e+03
1.209150e+03,1.557596e+03
1.210115e+03,1.561463e+03
1.211079e+03,1.559176e+03
1.212043e+03,1.549100e+03
1.213007e+03,1.536851e+03
1.213972e+03,1.528701e+03
1.214936e+03,1.524782e+03
1.215900e+03,1.524530e+03
1.216864e+03,1.527675e+03
1.217828e+03,1.529795e+03
1.218793e+03,1.527665e+03
1.219757e+03,1.524174e+03
1.220721e+03,1.524607e+03
1.221685e+03,1.527739e+03
1.222650e+03,1.529306e+03
1.223614e+03,1.527603e+03
1.224578e+03,1.526084e+03
1.225542e+03,1.532123e+03
1.226507e+03,1.538174e+03
1.227471e+03,1.532060e+03
1.228435e+03,1.516071e+03
1.229399e+03,1.503755e+03
1.230364e+03,1.506052e+03
1.231328e+03,1.509805e+03
1.232292e+03,1.509133e+03
1.233256e+03,1.506359e+03
1.234220e+03,1.503618e+03
1.235185e+03,1.501758e+03
1.236149e+03,1.499772e+03
1.237113e+03,1.497138e+03
1.238077e+03,1.494980e+03
1.239042e+03,1.492188e+03
1.240006e+03,1.488599e+03
1.240970e+03,1.488265e+03
1.241934e+03,1.494258e+03
1.242899e+03,1.497967e+03
1.243863e+03,1.498003e+03
1.244827e+03,1.495507e+03
1.245791e+03,1.491187e+03
1.246755e+03,1.484277e+03
1.247720e+03,1.480296e+03
1.248684e+03,1.479948e+03
1.249648e+03,1.480555e+03
1.250612e+03,1.480388e+03
1.251577e+03,1.479406e+03
1.252541e+03,1.477635e+03
1.253505e+03,1.475173e+03
1.254469e+03,1.474618e+03
1.255434e+03,1.477267e+03
1.256398e+03,1.479954e+03
1.257362e+03,1.476338e+03
1.258326e+03,1.470399e+03
1.259291e+03,1.471204e+03
1.260255e+03,1.477934e+03
1.261219e+03,1.483264e+03
1.262183e+03,1.483986e+03
1.263147e+03,1.482115e+03
1.264112e+03,1.476881e+03
1.265076e+03,1.470585e+03
1.266040e+03,1.466093e+03
1.267004e+03,1.463957e+03
1.267969e+03,1.464616e+03
1.268933e+03,1.471857e+03
1.269897e+03,1.479953e+03
1.270861e+03,1.484292e+03
1.271826e+03,1.483962e+03
1.272790e+03,1.482771e+03
1.273754e+03,1.479806e+03
1.274718e+03,1.478885e+03
1.275682e+03,1.482650e+03
1.276647e+03,1.487753e+03
1.277611e+03,1.489207e+03
1.278575e+03,1.486187e+03
1.279539e+03,1.484633e+03
1.280504e+03,1.485718e+03
1.281468e+03,1.486045e+03
1.282432e+03,1.482303e+03
1.283396e+03,1.477207e+03
1.284361e+03,1.478020e+03
1.285325e+03,1.483244e+03
1.286289e+03,1.488126e+03
1.287253e+03,1.491394e+03
1.288218e+03,1.493951e+03
1.289182e+03,1.498154e+03
1.290146e+03,1.501619e+03
1.291110e+03,1.500873e+03
1.292074e+03,1.496823e+03
1.293039e+03,1.492654e+03
1.294003e+03,1.488859e+03
1.294967e+03,1.485814e+03
1.295931e+03,1.484442e+03
1.296896e+03,1.484312e+03
1.297860e+03,1.484500e+03
1.298824e+03,1.484306e+03
1.299788e+03,1.485982e+03
1.300753e+03,1.491583e+03
1.301717e+03,1.495646e+03
1.302681e+03,1.495032e+03
1.303645e+03,1.491965e+03
1.304609e+03,1.493417e+03
1.305574e+03,1.499709e+03
1.306538e+03,1.504028e+03
1.307502e+03,1.505983e+03
1.308466e+03,1.507342e+03
1.309431e+03,1.509988e+03
1.310395e+03,1.513008e+03
1.311359e+03,1.511450e+03
1.312323e+03,1.506080e+03
1.313288e+03,1.503545e+03
1.314252e+03,1.508462e+03
1.315216e+03,1.515490e+03
1.316180e+03,1.518786e+03
1.317145e+03,1.520901e+03
1.318109e+03,1.525113e+03
1.319073e+03,1.531067e+03
1.320037e+03,1.534621e+03
1.321001e+03,1.532912e+03
1.321966e+03,1.530152e+03
1.322930e+03,1.527574e+03
1.323894e+03,1.526260e+03
1.324858e+03,1.527371e+03
1.325823e+03,1.534283e+03
1.326787e+03,1.534984e+03
1.327751e+03,1.526225e+03
1.328715e+03,1.516972e+03
1.329680e+03,1.512877e+03
1.330644e+03,1.513483e+03
1.331608e+03,1.517955e+03
1.332572e+03,1.525667e+03
1.333536e+03,1.529713e+03
1.334501e+03,1.527572e+03
1.335465e+03,1.524466e+03
1.336429e+03,1.530582e+03
1.337393e+03,1.538076e+03
1.338358e+03,1.531657e+03
1.339322e+03,1.514237e+03
1.340286e+03,1.501282e+03
1.341250e+03,1.505492e+03
1.342215e+03,1.509468e+03
1.343179e+03,1.505450e+03
1.344143e+03,1.498856e+03
1.345107e+03,1.494364e+03
1.346072e+03,1.492047e+03
1.347036e+03,1.491258e+03
1.348000e+03,1.493703e+03
1.348964e+03,1.493191e+03
1.349928e+03,1.486445e+03
1.350893e+03,1.477475e+03
1.351857e+03,1.475332e+03
1.352821e+03,1.479385e+03
1.353785e+03,1.481402e+03
1.354750e+03,1.480149e+03
1.355714e+03,1.478150e+03
1.356678e+03,1.478303e+03
1.357642e+03,1.479895e+03
1.358607e+03,1.481110e+03
1.359571e+03,1.481935e+03
1.360535e+03,1.483018e+03
1.361499e+03,1.485465e+03
1.362464e+03,1.486413e+03
1.363428e+03,1.484068e+03
1.364392e+03,1.480680e+03
1.365356e+03,1.475899e+03
1.366320e+03,1.469675e+03
1.367285e+03,1.467077e+03
1.368249e+03,1.470683e+03
1.369213e+03,1.473689e+03
1.370177e+03,1.475385e+03
1.371142e+03,1.475004e+03
1.372106e+03,1.470546e+03
1.373070e+03,1.462844e+03
1.374034e+03,1.458571e+03
1.374999e+03,1.457783e+03
1.375963e+03,1.456917e+03
1.376927e+03,1.453485e+03
1.377891e+03,1.450460e+03
1.378855e+03,1.452502e+03
1.379820e+03,1.455621e+03
1.380784e+03,1.453957e+03
1.381748e+03,1.447179e+03
1.382712e+03,1.442761e+03
1.383677e+03,1.444910e+03
1.384641e+03,1.445923e+03
1.385605e+03,1.442241e+03
1.386569e+03,1.436378e+03
1.387534e+03,1.432734e+03
1.388498e+03,1.432308e+03
1.389462e+03,1.428621e+03
1.390426e+03,1.420452e+03
1.391391e+03,1.414056e+03
1.392355e+03,1.414890e+03
1.393319e+03,1.419086e+03
1.394283e+03,1.418107e+03
1.395247e+03,1.413736e+03
1.396212e+03,1.410358e+03
1.397176e+03,1.409017e+03
1.398140e+03,1.408821e+03
1.399104e+03,1.411700e+03
1.400069e+03,1.412532e+03
1.401033e+03,1.405719e+03
1.401997e+03,1.394632e+03
1.402961e+03,1.388981e+03
1.403926e+03,1.392629e+03
1.404890e+03,1.392664e+03
1.405854e+03,1.386895e+03
1.406818e+03,1.382542e+03
1.407782e+03,1.386198e+03
1.408747e+03,1.395189e+03
1.409711e+03,1.398557e+03
1.410675e+03,1.396349e+03
1.411639e+03,1.391854e+03
1.412604e+03,1.386032e+03
1.413568e+03,1.380458e+03
1.414532e+03,1.375034e+03
1.415496e+03,1.372444e+03
1.416461e+03,1.377784e+03
1.417425e+03,1.387554e+03
1.418389e+03,1.390174e+03
1.419353e+03,1.375116e+03
1.420318e+03,1.366318e+03
1.421282e+03,1.368899e+03
1.422246e+03,1.373545e+03
1.423210e+03,1.372169e+03
1.424174e+03,1.366072e+03
1.425139e+03,1.362959e+03
1.426103e+03,1.362148e+03
1.427067e+03,1.360859e+03
1.428031e+03,1.358055e+03
1.428996e+03,1.356062e+03
1.429960e+03,1.357943e+03
1.430924e+03,1.360644e+03
1.431888e+03,1.360508e+03
1.432853e+03,1.358186e+03
1.433817e+03,1.357571e+03
1.434781e+03,1.363855e+03
1.435745e+03,1.366095e+03
1.436709e+03,1.360454e+03
1.437674e+03,1.352839e+03
1.438638e+03,1.348587e+03
1.439602e+03,1.347949e+03
1.440566e+03,1.349977e+03
1.441531e+03,1.354309e+03
1.442495e+03,1.359227e+03
1.443459e+03,1.364442e+03
1.444423e+03,1.367240e+03
1.445388e+03,1.362487e+03
1.446352e+03,1.355216e+03
1.447316e+03,1.351480e+03
1.448280e+03,1.351501e+03
1.449245e+03,1.350510e+03
1.450209e+03,1.344973e+03
1.451173e+03,1.342186e+03
1.452137e+03,1.343349e+03
1.453101e+03,1.345100e+03
1.454066e+03,1.344408e+03
1.455030e+03,1.341884e+03
1.455994e+03,1.342684e+03
1.456958e+03,1.346142e+03
1.457923e+03,1.347789e+03
1.458887e+03,1.345300e+03
1.459851e+03,1.341568e+03
1.460815e+03,1.338620e+03
1.461780e+03,1.335650e+03
1.462744e+03,1.332637e+03
1.463708e+03,1.329847e+03
1.464672e+03,1.327297e+03
1.465636e+03,1.325841e+03
1.466601e+03,1.323955e+03
1.467565e+03,1.320896e+03
1.468529e+03,1.318582e+03
1.469493e+03,1.318758e+03
1.470458e+03,1.320563e+03
1.471422e+03,1.322221e+03
1.472386e+03,1.323907e+03
1.473350e+03,1.325246e+03
1.474315e+03,1.325706e+03
1.475279e+03,1.326049e+03
1.476243e+03,1.327170e+03
1.477207e+03,1.327557e+03
1.478172e+03,1.326867e+03
1.479136e+03,1.325067e+03
1.480100e+03,1.321233e+03
1.481064e+03,1.314314e+03
1.482028e+03,1.310288e+03
1.482993e+03,1.310289e+03
1.483957e+03,1.312187e+03
1.484921e+03,1.314106e+03
1.485885e+03,1.316102e+03
1.486850e+03,1.318324e+03
1.487814e+03,1.320266e+03
1.488778e+03,1.321862e+03
1.489742e+03,1.323717e+03
1.490707e+03,1.323504e+03
1.491671e+03,1.318323e+03
1.492635e+03,1.315014e+03
1.493599e+03,1.317294e+03
1.494563e+03,1.321991e+03
1.495528e+03,1.320711e+03
1.496492e+03,1.313520e+03
1.497456e+03,1.308995e+03
1.498420e+03,1.308508e+03
1.499385e+03,1.309083e+03
1.500349e+03,1.309091e+03
1.501313e+03,1.308593e+03
1.502277e+03,1.305855e+03
1.503242e+03,1.303019e+03
1.504206e+03,1.304066e+03
1.505170e+03,1.311842e+03
1.506134e+03,1.313075e+03
1.507099e+03,1.305087e+03
1.508063e+03,1.298389e+03
1.509027e+03,1.297358e+03
1.509991e+03,1.298625e+03
1.510955e+03,1.295943e+03
1.511920e+03,1.291302e+03
1.512884e+03,1.290389e+03
1.513848e+03,1.293427e+03
1.514812e+03,1.295398e+03
1.515777e+03,1.289923e+03
1.516741e+03,1.286047e+03
1.517705e+03,1.288309e+03
1.518669e+03,1.292097e+03
1.519634e+03,1.294710e+03
1.520598e+03,1.295810e+03
1.521562e+03,1.292148e+03
1.522526e+03,1.283758e+03
1.523490e+03,1.277102e+03
1.524455e+03,1.274687e+03
1.525419e+03,1.273412e+03
1.526383e+03,1.270968e+03
1.527347e+03,1.268117e+03
1.528312e+03,1.266370e+03
1.529276e+03,1.265732e+03
1.530240e+03,1.263870e+03
1.531204e+03,1.259128e+03
1.532169e+03,1.256232e+03
1.533133e+03,1.255837e+03
1.534097e+03,1.256049e+03
1.535061e+03,1.255502e+03
1.536026e+03,1.254241e+03
1.536990e+03,1.252737e+03
1.537954e+03,1.251088e+03
1.538918e+03,1.249259e+03
1.539882e+03,1.247095e+03
1.540847e+03,1.244911e+03
1.541811e+03,1.241792e+03
1.542775e+03,1.239214e+03
1.543739e+03,1.237962e+03
1.544704e+03,1.238134e+03
1.545668e+03,1.240625e+03
1.546632e+03,1.244648e+03
1.547596e+03,1.245597e+03
1.548561e+03,1.243568e+03
1.549525e+03,1.241128e+03
1.550489e+03,1.239510e+03
1.551453e+03,1.237131e+03
1.552417e+03,1.229755e+03
1.553382e+03,1.224543e+03
1.554346e+03,1.229082e+03
1.555310e+03,1.241847e+03
1.556274e+03,1.247968e+03
1.557239e+03,1.247357e+03
1.558203e+03,1.241580e+03
1.559167e+03,1.230611e+03
1.560131e+03,1.221093e+03
1.561096e+03,1.220952e+03
1.562060e+03,1.223135e+03
1.563024e+03,1.221179e+03
1.563988e+03,1.217160e+03
1.564953e+03,1.216438e+03
1.565917e+03,1.220488e+03
1.566881e+03,1.223128e+03
1.567845e+03,1.223914e+03
1.568809e+03,1.224024e+03
1.569774e+03,1.224735e+03
1.570738e+03,1.224252e+03
1.571702e+03,1.216691e+03
1.572666e+03,1.208350e+03
1.573631e+03,1.209424e+03
1.574595e+03,1.221129e+03
1.575559e+03,1.227154e+03
1.576523e+03,1.222913e+03
1.577488e+03,1.222065e+03
1.578452e+03,1.227254e+03
1.579416e+03,1.232812e+03
1.580380e+03,1.232578e+03
1.581344e+03,1.229115e+03
1.582309e+03,1.227109e+03
1.583273e+03,1.226238e+03
1.584237e+03,1.225335e+03
1.585201e+03,1.225283e+03
1.586166e+03,1.221536e+03
1.587130e+03,1.210304e+03
1.588094e+03,1.201256e+03
1.589058e+03,1.199210e+03
1.590023e+03,1.201594e+03
1.590987e+03,1.204613e+03
1.591951e+03,1.207556e+03
1.592915e+03,1.206939e+03
1.593880e+03,1.202347e+03
1.594844e+03,1.197968e+03
1.595808e+03,1.194603e+03
1.596772e+03,1.193693e+03
1.597736e+03,1.197016e+03
1.598701e+03,1.201112e+03
1.599665e+03,1.203070e+03
1.600629e+03,1.202958e+03
1.601593e+03,1.200078e+03
1.602558e+03,1.195442e+03
1.603522e+03,1.191682e+03
1.604486e+03,1.189046e+03
1.605450e+03,1.190105e+03
1.606415e+03,1.201210e+03
1.607379e+03,1.210678e+03
1.608343e+03,1.213500e+03
1.609307e+03,1.212532e+03
1.610271e+03,1.212440e+03
1.611236e+03,1.213061e+03
1.612200e+03,1.215599e+03
1.613164e+03,1.219579e+03
1.614128e+03,1.220668e+03
1.615093e+03,1.213844e+03
1.616057e+03,1.206995e+03
1.617021e+03,1.202486e+03
1.617985e+03,1.198318e+03
1.618950e+03,1.193850e+03
1.619914e+03,1.189072e+03
1.620878e+03,1.183156e+03
1.621842e+03,1.176786e+03
1.622807e+03,1.172366e+03
1.623771e+03,1.170615e+03
1.624735e+03,1.168947e+03
1.625699e+03,1.164497e+03
1.626663e+03,1.160812e+03
1.627628e+03,1.159304e+03
1.628592e+03,1.158047e+03
1.629556e+03,1.155223e+03
1.630520e+03,1.151783e+03
1.631485e+03,1.150294e+03
1.632449e+03,1.150238e+03
1.633413e+03,1.149588e+03
1.634377e+03,1.146729e+03
1.635342e+03,1.145762e+03
1.636306e+03,1.150322e+03
1.637270e+03,1.155047e+03
1.638234e+03,1.157679e+03
1.639198e+03,1.158756e+03
1.640163e+03,1.158716e+03
1.641127e+03,1.157994e+03
1.642091e+03,1.156945e+03
1.643055e+03,1.155282e+03
1.644020e+03,1.153510e+03
1.644984e+03,1.150876e+03
1.645948e+03,1.149076e+03
1.646912e+03,1.149961e+03
1.647877e+03,1.149810e+03
1.648841e+03,1.144305e+03
1.649805e+03,1.136153e+03
1.650769e+03,1.134577e+03
1.651734e+03,1.137075e+03
1.652698e+03,1.137362e+03
1.653662e+03,1.132909e+03
1.654626e+03,1.130918e+03
1.655590e+03,1.136302e+03
1.656555e+03,1.138736e+03
1.657519e+03,1.134855e+03
1.658483e+03,1.129989e+03
1.659447e+03,1.132965e+03
1.660412e+03,1.138243e+03
1.661376e+03,1.134689e+03
1.662340e+03,1.124909e+03
1.663304e+03,1.117701e+03
1.664269e+03,1.116711e+03
1.665233e+03,1.115437e+03
1.666197e+03,1.113314e+03
1.667161e+03,1.111398e+03
1.668125e+03,1.110587e+03
1.669090e+03,1.110436e+03
1.670054e+03,1.111361e+03
1.671018e+03,1.111946e+03
1.671982e+03,1.110392e+03
1.672947e+03,1.106595e+03
1.673911e+03,1.101836e+03
1.674875e+03,1.094428e+03
1.675839e+03,1.091408e+03
1.676804e+03,1.094644e+03
1.677768e+03,1.099518e+03
1.678732e+03,1.103407e+03
1.679696e+03,1.104689e+03
1.680661e+03,1.098523e+03
1.681625e+03,1.090154e+03
1.682589e+03,1.088834e+03
1.683553e+03,1.095450e+03
1.684517e+03,1.097589e+03
1.685482e+03,1.095208e+03
1.686446e+03,1.091876e+03
1.687410e+03,1.088480e+03
1.688374e+03,1.085764e+03
1.689339e+03,1.085473e+03
1.690303e+03,1.084542e+03
1.691267e+03,1.079685e+03
1.692231e+03,1.074247e+03
1.693196e+03,1.074394e+03
1.694160e+03,1.078761e+03
1.695124e+03,1.078849e+03
1.696088e+03,1.075592e+03
1.697052e+03,1.075218e+03
1.698017e+03,1.083802e+03
1.698981e+03,1.087922e+03
1.699945e+03,1.081066e+03
1.700909e+03,1.073133e+03
1.701874e+03,1.069895e+03
1.702838e+03,1.070195e+03
1.703802e+03,1.070338e+03
1.704766e+03,1.070468e+03
1.705731e+03,1.073306e+03
1.706695e+03,1.078836e+03
1.707659e+03,1.079264e+03
1.708623e+03,1.070610e+03
1.709588e+03,1.065869e+03
1.710552e+03,1.066609e+03
1.711516e+03,1.068081e+03
1.712480e+03,1.066450e+03
1.713444e+03,1.063541e+03
1.714409e+03,1.061190e+03
1.715373e+03,1.059702e+03
1.716337e+03,1.059647e+03
1.717301e+03,1.061315e+03
1.718266e+03,1.059612e+03
1.719230e+03,1.054441e+03
1.720194e+03,1.052670e+03
1.721158e+03,1.056493e+03
1.722123e+03,1.059664e+03
1.723087e+03,1.056265e+03
1.724051e+03,1.052774e+03
1.725015e+03,1.053168e+03
1.725979e+03,1.055031e+03
1.726944e+03,1.054331e+03
1.727908e+03,1.051692e+03
1.728872e+03,1.049712e+03
1.729836e+03,1.047926e+03
1.730801e+03,1.045658e+03
1.731765e+03,1.042927e+03
1.732729e+03,1.039351e+03
1.733693e+03,1.033745e+03
1.734658e+03,1.030964e+03
1.735622e+03,1.034013e+03
1.736586e+03,1.038472e+03
1.737550e+03,1.037918e+03
1.738515e+03,1.035128e+03
1.739479e+03,1.033538e+03
1.740443e+03,1.032982e+03
1.741407e+03,1.031005e+03
1.742371e+03,1.027444e+03
1.743336e+03,1.024340e+03
1.744300e+03,1.021762e+03
1.745264e+03,1.018394e+03
1.746228e+03,1.011686e+03
1.747193e+03,1.007244e+03
1.748157e+03,1.011081e+03
1.749121e+03,1.015919e+03
1.750085e+03,1.015175e+03
1.751050e+03,1.010297e+03
1.752014e+03,1.008783e+03
1.752978e+03,1.010109e+03
1.753942e+03,1.012797e+03
1.754906e+03,1.016398e+03
1.755871e+03,1.019171e+03
1.756835e+03,1.021242e+03
1.757799e+03,1.018970e+03
1.758763e+03,1.012023e+03
1.759728e+03,1.005807e+03
1.760692e+03,1.006466e+03
1.761656e+03,1.008868e+03
1.762620e+03,1.007006e+03
1.763585e+03,1.003498e+03
1.764549e+03,1.002374e+03
1.765513e+03,1.003239e+03
1.766477e+03,1.005133e+03
1.767442e+03,1.008039e+03
1.768406e+03,1.010428e+03
1.769370e+03,1.012066e+03
1.770334e+03,1.012165e+03
1.771298e+03,1.007583e+03
1.772263e+03,1.004146e+03
1.773227e+03,1.003901e+03
1.774191e+03,1.005278e+03
1.775155e+03,1.007397e+03
1.776120e+03,1.008533e+03
1.777084e+03,1.004957e+03
1.778048e+03,9.986871e+02
1.779012e+03,9.950779e+02
1.779977e+03,9.947543e+02
1.780941e+03,9.975889e+02
1.781905e+03,1.003020e+03
1.782869e+03,1.005670e+03
1.783833e+03,1.002113e+03
1.784798e+03,9.991564e+02
1.785762e+03,1.002912e+03
1.786726e+03,1.005727e+03
1.787690e+03,1.003702e+03
1.788655e+03,9.994258e+02
1.789619e+03,9.981188e+02
1.790583e+03,9.976687e+02
1.791547e+03,9.912372e+02
1.792512e+03,9.808270e+02
1.793476e+03,9.785847e+02
1.794440e+03,9.892474e+02
1.795404e+03,9.941375e+02
1.796369e+03,9.919843e+02
1.797333e+03,9.875919e+02
1.798297e+03,9.827873e+02
1.799261e+03,9.787935e+02
1.800225e+03,9.750355e+02
1.801190e+03,9.736667e+02
1.802154e+03,9.778893e+02
1.803118e+03,9.839176e+02
1.804082e+03,9.810114e+02
1.805047e+03,9.731080e+02
1.806011e+03,9.680102e+02
1.806975e+03,9.664702e+02
1.807939e+03,9.664284e+02
1.808904e+03,9.676602e+02
1.809868e+03,9.688619e+02
1.810832e+03,9.703160e+02
1.811796e+03,9.698834e+02
1.812760e+03,9.626438e+02
1.813725e+03,9.566022e+02
1.814689e+03,9.590750e+02
1.815653e+03,9.630619e+02
1.816617e+03,9.635032e+02
1.817582e+03,9.611777e+02
1.818546e+03,9.566207e+02
1.819510e+03,9.516486e+02
1.820474e+03,9.520863e+02
1.821439e+03,9.588582e+02
1.822403e+03,9.586063e+02
1.823367e+03,9.485406e+02
1.824331e+03,9.416107e+02
1.825296e+03,9.395234e+02
1.826260e+03,9.402761e+02
1.827224e+03,9.469501e+02
1.828188e+03,9.519913e+02
1.829152e+03,9.488041e+02
1.830117e+03,9.434973e+02
1.831081e+03,9.407649e+02
1.832045e+03,9.394926e+02
1.833009e+03,9.366874e+02
1.833974e+03,9.345889e+02
1.834938e+03,9.371270e+02
1.835902e+03,9.453427e+02
1.836866e+03,9.468030e+02
1.837831e+03,9.409554e+02
1.838795e+03,9.345583e+02
1.839759e+03,9.293000e+02
1.840723e+03,9.268575e+02
1.841688e+03,9.311906e+02
1.842652e+03,9.337558e+02
1.843616e+03,9.305286e+02
1.844580e+03,9.256698e+02
1.845544e+03,9.248904e+02
1.846509e+03,9.253190e+02
1.847473e+03,9.195444e+02
1.848437e+03,9.116949e+02
1.849401e+03,9.109732e+02
1.850366e+03,9.176520e+02
1.851330e+03,9.162423e+02
1.852294e+03,9.083173e+02
1.853258e+03,9.055694e+02
1.854223e+03,9.113087e+02
1.855187e+03,9.179835e+02
1.856151e+03,9.243817e+02
1.857115e+03,9.264257e+02
1.858079e+03,9.222095e+02
1.859044e+03,9.167275e+02
1.860008e+03,9.167951e+02
1.860972e+03,9.176086e+02
1.861936e+03,9.123687e+02
1.862901e+03,9.060242e+02
1.863865e+03,9.060577e+02
1.864829e+03,9.106299e+02
1.865793e+03,9.082084e+02
1.866758e+03,9.016867e+02
1.867722e+03,8.994238e+02
1.868686e+03,9.046514e+02
1.869650e+03,9.053036e+02
1.870615e+03,8.990617e+02
1.871579e+03,8.959318e+02
1.872543e+03,8.992832e+02
1.873507e+03,9.034178e+02
1.874471e+03,9.038882e+02
1.875436e+03,9.011216e+02
1.876400e+03,8.943115e+02
1.877364e+03,8.877784e+02
1.878328e+03,8.875927e+02
1.879293e+03,8.902365e+02
1.880257e+03,8.878085e+02
1.881221e+03,8.829131e+02
1.882185e+03,8.821338e+02
1.883150e+03,8.860153e+02
1.884114e+03,8.893819e+02
1.885078e+03,8.917230e+02
1.886042e+03,8.905353e+02
1.887006e+03,8.844265e+02
1.887971e+03,8.799542e+02
1.888935e+03,8.806213e+02
1.889899e+03,8.806529e+02
1.890863e+03,8.780076e+02
1.891828e+03,8.753929e+02
1.892792e+03,8.779373e+02
1.893756e+03,8.799340e+02
1.894720e+03,8.766932e+02
1.895685e+03,8.720170e+02
1.896649e+03,8.670105e+02
1.897613e+03,8.632414e+02
1.898577e+03,8.710473e+02
1.899542e+03,8.843271e+02
1.900506e+03,8.889073e+02
1.901470e+03,8.817597e+02
1.902434e+03,8.741016e+02
1.903398e+03,8.662277e+02
1.904363e+03,8.641994e+02
1.905327e+03,8.702465e+02
1.906291e+03,8.747610e+02
1.907255e+03,8.699303e+02
1.908220e+03,8.670338e+02
1.909184e+03,8.685430e+02
1.910148e+03,8.705463e+02
1.911112e+03,8.693317e+02
1.912077e+03,8.675435e+02
1.913041e+03,8.677104e+02
1.914005e+03,8.681277e+02
1.914969e+03,8.669303e+02
1.915933e+03,8.644667e+02
1.916898e+03,8.620424e+02
1.917862e+03,8.594045e+02
1.918826e+03,8.545921e+02
1.919790e+03,8.474611e+02
1.920755e+03,8.472988e+02
1.921719e+03,8.532924e+02
1.922683e+03,8.578032e+02
1.923647e+03,8.595363e+02
1.924612e+03,8.611621e+02
1.925576e+03,8.658802e+02
1.926540e+03,8.660717e+02
1.927504e+03,8.590576e+02
1.928469e+03,8.530888e+02
1.929433e+03,8.584591e+02
1.930397e+03,8.638656e+02
1.931361e+03,8.603495e+02
1.932325e+03,8.534574e+02
1.933290e+03,8.460257e+02
1.934254e+03,8.407957e+02
1.935218e+03,8.465491e+02
1.936182e+03,8.557831e+02
1.937147e+03,8.556063e+02
1.938111e+03,8.471619e+02
1.939075e+03,8.457686e+02
1.940039e+03,8.503273e+02
1.941004e+03,8.495441e+02
1.941968e+03,8.417725e+02
1.942932e+03,8.399947e+02
1.943896e+03,8.525179e+02
1.944860e+03,8.568559e+02
1.945825e+03,8.509031e+02
1.946789e+03,8.446811e+02
1.947753e+03,8.454342e+02
1.948717e+03,8.464287e+02
1.949682e+03,8.448152e+02
1.950646e+03,8.427079e+02
1.951610e+03,8.412592e+02
1.952574e+03,8.402468e+02
1.953539e+03,8.398506e+02
1.954503e+03,8.391580e+02
1.955467e+03,8.372341e+02
1.956431e+03,8.348011e+02
1.957396e+03,8.319745e+02
1.958360e+03,8.299867e+02
1.959324e+03,8.345517e+02
1.960288e+03,8.444415e+02
1.961252e+03,8.477604e+02
1.962217e+03,8.431721e+02
1.963181e+03,8.362180e+02
1.964145e+03,8.277040e+02
1.965109e+03,8.221271e+02
1.966074e+03,8.241813e+02
1.967038e+03,8.254638e+02
1.968002e+03,8.243396e+02
1.968966e+03,8.226608e+02
1.969931e+03,8.212068e+02
1.970895e+03,8.200084e+02
1.971859e+03,8.206566e+02
1.972823e+03,8.211917e+02
1.973787e+03,8.200933e+02
1.974752e+03,8.186780e+02
1.975716e+03,8.211888e+02
1.976680e+03,8.227235e+02
1.977644e+03,8.158461e+02
1.978609e+03,8.064796e+02
1.979573e+03,8.051096e+02
1.980537e+03,8.083262e+02
1.981501e+03,8.030072e+02
1.982466e+03,7.931290e+02
1.983430e+03,7.915924e+02
1.984394e+03,7.999596e+02
1.985358e+03,8.073616e+02
1.986323e+03,8.130617e+02
1.987287e+03,8.121849e+02
1.988251e+03,8.015176e+02
1.989215e+03,7.938653e+02
1.990179e+03,7.909372e+02
1.991144e+03,7.913517e+02
1.992108e+03,7.954852e+02
1.993072e+03,7.986591e+02
1.994036e+03,7.959972e+02
1.995001e+03,7.930021e+02
1.995965e+03,7.909095e+02
1.996929e+03,7.901956e+02
1.997893e+03,7.911594e+02
1.998858e+03,7.928403e+02
1.999822e+03,7.969598e+02
2.000786e+03,7.984899e+02
2.001750e+03,7.913684e+02
2.002714e+03,7.818338e+02
2.003679e+03,7.851017e+02
2.004643e+03,7.933712e+02
2.005607e+03,7.947590e+02
2.006571e+03,7.907039e+02
2.007536e+03,7.858977e+02
2.008500e+03,7.814580e+02
2.009464e+03,7.821597e+02
2.010428e+03,7.877753e+02
2.011393e+03,7.869772e+02
2.012357e+03,7.784167e+02
2.013321e+03,7.766332e+02
2.014285e+03,7.816430e+02
2.015250e+03,7.860005e+02
2.016214e+03,7.859604e+02
2.017178e+03,7.857625e+02
2.018142e+03,7.860107e+02
2.019106e+03,7.836495e+02
2.020071e+03,7.754308e+02
2.021035e+03,7.679477e+02
2.021999e+03,7.642369e+02
2.022963e+03,7.616804e+02
2.023928e+03,7.593599e+02
2.024892e+03,7.591119e+02
2.025856e+03,7.667526e+02
2.026820e+03,7.723215e+02
2.027785e+03,7.688453e+02
2.028749e+03,7.615098e+02
2.029713e+03,7.555163e+02
2.030677e+03,7.525455e+02
2.031641e+03,7.578464e+02
2.032606e+03,7.655931e+02
2.033570e+03,7.654376e+02
2.034534e+03,7.594070e+02
2.035498e+03,7.568151e+02
2.036463e+03,7.563695e+02
2.037427e+03,7.546830e+02
2.038391e+03,7.519523e+02
2.039355e+03,7.488654e+02
2.040320e+03,7.459856e+02
2.041284e+03,7.456878e+02
2.042248e+03,7.483639e+02
2.043212e+03,7.486537e+02
2.044177e+03,7.461866e+02
2.045141e+03,7.468573e+02
2.046105e+03,7.512906e+02
2.047069e+03,7.549739e+02
2.048033e+03,7.559349e+02
2.048998e+03,7.536212e+02
2.049962e+03,7.478947e+02
2.050926e+03,7.437351e+02
2.051890e+03,7.450573e+02
2.052854e+03,7.478702e+02
2.053819e+03,7.513058e+02
2.054783e+03,7.536444e+02
2.055747e+03,7.554536e+02
2.056711e+03,7.542709e+02
2.057676e+03,7.431732e+02
2.058640e+03,7.337556e+02
2.059604e+03,7.316932e+02
2.060568e+03,7.334111e+02
2.061533e+03,7.361896e+02
2.062497e+03,7.383997e+02
2.063461e+03,7.375315e+02
2.064425e+03,7.357364e+02
2.065390e+03,7.365722e+02
2.066354e+03,7.380518e+02
2.067318e+03,7.350081e+02
2.068282e+03,7.311594e+02
2.069247e+03,7.347311e+02
2.070211e+03,7.434319e+02
2.071175e+03,7.420936e+02
2.072139e+03,7.348880e+02
2.073104e+03,7.318118e+02
2.074068e+03,7.337672e+02
2.075032e+03,7.335917e+02
2.075996e+03,7.316473e+02
2.076960e+03,7.309973e+02
2.077925e+03,7.321132e+02
2.078889e+03,7.325119e+02
2.079853e+03,7.320810e+02
2.080817e+03,7.304437e+02
2.081782e+03,7.275151e+02
2.082746e+03,7.233237e+02
2.083710e+03,7.171146e+02
2.084674e+03,7.132439e+02
2.085639e+03,7.123506e+02
2.086603e+03,7.134804e+02
2.087567e+03,7.159351e+02
2.088531e+03,7.181851e+02
2.089496e+03,7.198524e+02
2.090460e+03,7.200140e+02
2.091424e+03,7.192025e+02
2.092388e+03,7.184601e+02
2.093353e+03,7.168353e+02
2.094317e+03,7.178408e+02
2.095281e+03,7.229743e+02
2.096245e+03,7.258433e+02
2.097209e+03,7.157485e+02
2.098174e+03,7.079030e+02
2.099138e+03,7.100633e+02
2.100102e+03,7.144117e+02
2.101066e+03,7.120108e+02
2.102031e+03,7.081802e+02
2.102995e+03,7.077028e+02
2.103959e+03,7.083337e+02
2.104923e+03,7.083232e+02
2.105887e+03,7.087941e+02
2.106852e+03,7.118602e+02
2.107816e+03,7.135409e+02
2.108780e+03,7.097953e+02
2.109744e+03,7.034123e+02
2.110708e+03,7.012753e+02
2.111673e+03,7.022484e+02
2.112637e+03,7.057374e+02
2.113601e+03,7.088344e+02
2.114565e+03,7.040359e+02
2.115530e+03,6.955877e+02
2.116494e+03,6.924833e+02
2.117458e+03,6.954400e+02
2.118422e+03,7.006402e+02
2.119387e+03,7.064222e+02
2.120351e+03,7.052682e+02
2.121315e+03,6.990875e+02
2.122279e+03,6.969336e+02
2.123244e+03,6.993285e+02
2.124208e+03,6.986615e+02
2.125172e+03,6.959847e+02
2.126136e+03,6.941274e+02
2.127101e+03,6.939348e+02
2.128065e+03,6.916437e+02
2.129029e+03,6.874448e+02
2.129993e+03,6.834568e+02
2.130958e+03,6.794892e+02
2.131922e+03,6.808336e+02
2.132886e+03,6.884230e+02
2.133850e+03,6.910596e+02
2.134814e+03,6.884298e+02
2.135779e+03,6.861469e+02
2.136743e+03,6.860510e+02
2.137707e+03,6.841026e+02
2.138671e+03,6.804767e+02
2.139636e+03,6.775311e+02
2.140600e+03,6.767004e+02
2.141564e+03,6.763631e+02
2.142528e+03,6.766700e+02
2.143493e+03,6.745331e+02
2.144457e+03,6.671748e+02
2.145421e+03,6.619183e+02
2.146385e+03,6.606336e+02
2.147350e+03,6.620971e+02
2.148314e+03,6.666849e+02
2.149278e+03,6.721494e+02
2.150242e+03,6.781346e+02
2.151207e+03,6.805590e+02
2.152171e+03,6.784180e+02
2.153135e+03,6.735201e+02
2.154099e+03,6.670687e+02
2.155063e+03,6.597166e+02
2.156028e+03,6.510739e+02
2.156992e+03,6.456481e+02
2.157956e+03,6.458876e+02
2.158920e+03,6.501583e+02
2.159885e+03,6.602062e+02
2.160849e+03,6.674669e+02
2.161813e+03,6.672748e+02
2.162777e+03,6.641263e+02
2.163741e+03,6.607397e+02
2.164706e+03,6.571669e+02
2.165670e+03,6.537752e+02
2.166634e+03,6.518992e+02
2.167598e+03,6.538765e+02
2.168563e+03,6.552626e+02
2.169527e+03,6.535061e+02
2.170491e+03,6.502448e+02
2.171455e+03,6.473024e+02
2.172420e+03,6.450496e+02
2.173384e+03,6.431603e+02
2.174348e+03,6.433705e+02
2.175312e+03,6.492735e+02
2.176277e+03,6.547864e+02
2.177241e+03,6.528702e+02
2.178205e+03,6.491373e+02
2.179169e+03,6.472198e+02
2.180134e+03,6.464341e+02
2.181098e+03,6.461714e+02
2.182062e+03,6.447924e+02
2.183026e+03,6.395206e+02
2.183990e+03,6.353577e+02
2.184955e+03,6.433653e+02
2.185919e+03,6.520800e+02
2.186883e+03,6.516105e+02
2.187847e+03,6.470568e+02
2.188812e+03,6.447091e+02
2.189776e+03,6.425137e+02
2.190740e+03,6.367418e+02
2.191704e+03,6.306801e+02
2.192668e+03,6.275311e+02
2.193633e+03,6.266017e+02
2.194597e+03,6.265196e+02
2.195561e+03,6.289330e+02
2.196525e+03,6.362285e+02
2.197490e+03,6.440681e+02
2.198454e+03,6.452324e+02
2.199418e+03,6.418771e+02
2.200382e+03,6.355707e+02
2.201347e+03,6.293659e+02
2.202311e+03,6.272199e+02
2.203275e+03,6.280840e+02
2.204239e+03,6.318290e+02
2.205204e+03,6.352691e+02
2.206168e+03,6.343945e+02
2.207132e+03,6.324396e+02
2.208096e+03,6.332631e+02
2.209061e+03,6.343913e+02
2.210025e+03,6.342794e+02
2.210989e+03,6.326272e+02
2.211953e+03,6.275035e+02
2.212917e+03,6.232407e+02
2.213882e+03,6.217172e+02
2.214846e+03,6.227055e+02
2.215810e+03,6.304338e+02
2.216774e+03,6.365257e+02
2.217739e+03,6.345100e+02
2.218703e+03,6.281463e+02
2.219667e+03,6.204182e+02
2.220631e+03,6.153273e+02
2.221595e+03,6.181593e+02
2.222560e+03,6.226512e+02
2.223524e+03,6.179095e+02
2.224488e+03,6.122777e+02
2.225452e+03,6.190150e+02
2.226417e+03,6.273611e+02
2.227381e+03,6.246120e+02
2.228345e+03,6.190659e+02
2.229309e+03,6.221844e+02
2.230274e+03,6.263796e+02
2.231238e+03,6.250699e+02
2.232202e+03,6.211213e+02
2.233166e+03,6.188624e+02
2.234131e+03,6.173531e+02
2.235095e+03,6.156526e+02
2.236059e+03,6.137258e+02
2.237023e+03,6.096998e+02
2.237988e+03,6.075277e+02
2.238952e+03,6.100898e+02
2.239916e+03,6.138670e+02
2.240880e+03,6.169132e+02
2.241844e+03,6.169182e+02
2.242809e+03,6.111156e+02
2.243773e+03,6.040861e+02
2.244737e+03,5.975634e+02
2.245701e+03,5.944738e+02
2.246666e+03,5.995591e+02
2.247630e+03,6.055143e+02
2.248594e+03,6.093342e+02
2.249558e+03,6.107068e+02
2.250522e+03,6.066141e+02
2.251487e+03,6.024470e+02
2.252451e+03,5.995693e+02
2.253415e+03,5.984034e+02
2.254379e+03,6.020674e+02
2.255344e+03,6.058959e+02
2.256308e+03,6.082885e+02
2.257272e+03,6.098440e+02
2.258236e+03,6.122366e+02
2.259201e+03,6.114846e+02
2.260165e+03,6.055448e+02
2.261129e+03,5.995901e+02
2.262093e+03,5.985549e+02
2.263058e+03,5.976078e+02
2.264022e+03,5.955568e+02
2.264986e+03,5.947389e+02
2.265950e+03,5.983500e+02
2.266915e+03,5.985953e+02
2.267879e+03,5.919984e+02
2.268843e+03,5.862958e+02
2.269807e+03,5.861193e+02
2.270771e+03,5.859330e+02
2.271736e+03,5.833771e+02
2.272700e+03,5.823165e+02
2.273664e+03,5.831301e+02
2.274628e+03,5.858320e+02
2.275593e+03,5.922408e+02
2.276557e+03,5.937712e+02
2.277521e+03,5.895293e+02
2.278485e+03,5.844388e+02
2.279449e+03,5.787471e+02
2.280414e+03,5.790021e+02
2.281378e+03,5.852196e+02
2.282342e+03,5.889222e+02
2.283306e+03,5.832375e+02
2.284271e+03,5.782012e+02
2.285235e+03,5.739969e+02
2.286199e+03,5.752721e+02
2.287163e+03,5.879338e+02
2.288128e+03,5.875014e+02
2.289092e+03,5.750212e+02
2.290056e+03,5.685073e+02
2.291020e+03,5.726373e+02
2.291985e+03,5.755287e+02
2.292949e+03,5.769434e+02
2.293913e+03,5.736905e+02
2.294877e+03,5.662066e+02
2.295842e+03,5.641625e+02
2.296806e+03,5.668240e+02
2.297770e+03,5.689298e+02
2.298734e+03,5.702911e+02
2.299698e+03,5.730226e+02
2.300663e+03,5.765068e+02
2.301627e+03,5.715271e+02
2.302591e+03,5.621852e+02
2.303555e+03,5.593016e+02
2.304520e+03,5.615965e+02
2.305484e+03,5.619573e+02
2.306448e+03,5.615327e+02
2.307412e+03,5.620585e+02
2.308376e+03,5.627987e+02
2.309341e+03,5.628489e+02
2.310305e+03,5.614973e+02
2.311269e+03,5.570049e+02
2.312233e+03,5.525170e+02
2.313198e+03,5.526381e+02
2.314162e+03,5.548431e+02
2.315126e+03,5.581582e+02
2.316090e+03,5.597072e+02
2.317055e+03,5.545367e+02
2.318019e+03,5.487020e+02
2.318983e+03,5.472413e+02
2.319947e+03,5.475698e+02
2.320912e+03,5.492813e+02
2.321876e+03,5.511940e+02
2.322840e+03,5.524470e+02
2.323804e+03,5.527705e+02
2.324769e+03,5.519047e+02
2.325733e+03,5.510516e+02
2.326697e+03,5.507985e+02
2.327661e+03,5.500333e+02
2.328625e+03,5.477073e+02
2.329590e+03,5.463176e+02
2.330554e+03,5.494555e+02
2.331518e+03,5.500154e+02
2.332482e+03,5.467108e+02
2.333447e+03,5.449145e+02
2.334411e+03,5.490311e+02
2.335375e+03,5.486169e+02
2.336339e+03,5.434394e+02
2.337303e+03,5.416792e+02
2.338268e+03,5.488577e+02
2.339232e+03,5.507680e+02
2.340196e+03,5.479454e+02
2.341160e+03,5.422749e+02
2.342125e+03,5.334421e+02
2.343089e+03,5.327839e+02
2.344053e+03,5.376296e+02
2.345017e+03,5.408702e+02
2.345982e+03,5.417426e+02
2.346946e+03,5.423644e+02
2.347910e+03,5.427520e+02
2.348874e+03,5.403558e+02
2.349839e+03,5.366742e+02
2.350803e+03,5.389771e+02
2.351767e+03,5.438607e+02
2.352731e+03,5.444899e+02
2.353696e+03,5.421113e+02
2.354660e+03,5.367291e+02
2.355624e+03,5.310591e+02
2.356588e+03,5.299484e+02
2.357552e+03,5.319991e+02
2.358517e+03,5.370807e+02
2.359481e+03,5.426790e+02
2.360445e+03,5.474167e+02
2.361409e+03,5.476321e+02
2.362374e+03,5.397228e+02
2.363338e+03,5.314993e+02
2.364302e+03,5.323576e+02
2.365266e+03,5.328528e+02
2.366230e+03,5.296522e+02
2.367195e+03,5.272916e+02
2.368159e+03,5.298763e+02
2.369123e+03,5.302695e+02
2.370087e+03,5.278595e+02
2.371052e+03,5.277424e+02
2.372016e+03,5.340997e+02
2.372980e+03,5.384738e+02
2.373944e+03,5.398790e+02
2.374909e+03,5.338561e+02
2.375873e+03,5.150479e+02
2.376837e+03,5.122030e+02
2.377801e+03,5.216490e+02
2.378766e+03,5.263655e+02
2.379730e+03,5.242071e+02
2.380694e+03,5.244243e+02
2.381658e+03,5.257916e+02
2.382623e+03,5.225488e+02
2.383587e+03,5.170657e+02
2.384551e+03,5.193784e+02
2.385515e+03,5.242561e+02
2.386479e+03,5.223262e+02
2.387444e+03,5.184634e+02
2.388408e+03,5.221323e+02
2.389372e+03,5.257219e+02
2.390336e+03,5.190893e+02
2.391301e+03,5.114525e+02
2.392265e+03,5.111695e+02
2.393229e+03,5.140444e+02
2.394193e+03,5.193436e+02
2.395157e+03,5.211864e+02
2.396122e+03,5.123024e+02
2.397086e+03,5.081237e+02
2.398050e+03,5.150407e+02
2.399014e+03,5.179317e+02
2.399979e+03,5.093134e+02
2.400943e+03,5.053265e+02
2.401907e+03,5.086818e+02
2.402871e+03,5.077203e+02
2.403836e+03,5.000638e+02
2.404800e+03,4.973303e+02
2.405764e+03,4.999635e+02
2.406728e+03,5.048084e+02
2.407693e+03,5.100070e+02
2.408657e+03,5.092748e+02
2.409621e+03,5.043062e+02
2.410585e+03,5.023199e+02
2.411550e+03,5.019799e+02
2.412514e+03,4.971089e+02
2.413478e+03,4.916519e+02
2.414442e+03,4.991496e+02
2.415406e+03,5.100235e+02
2.416371e+03,5.142922e+02
2.417335e+03,5.139386e+02
2.418299e+03,5.083597e+02
2.419263e+03,5.037564e+02
2.420228e+03,5.033726e+02
2.421192e+03,5.049509e+02
2.422156e+03,5.095461e+02
2.423120e+03,5.100449e+02
2.424084e+03,5.038291e+02
2.425049e+03,4.974874e+02
2.426013e+03,4.950473e+02
2.426977e+03,4.937755e+02
2.427941e+03,4.937713e+02
2.428906e+03,4.939269e+02
2.429870e+03,4.934354e+02
2.430834e+03,4.955064e+02
2.431798e+03,4.990428e+02
2.432763e+03,4.957624e+02
2.433727e+03,4.862905e+02
2.434691e+03,4.835165e+02
2.435655e+03,4.856952e+02
2.436620e+03,4.901004e+02
2.437584e+03,4.949476e+02
2.438548e+03,4.961123e+02
2.439512e+03,4.963943e+02
2.440477e+03,4.991958e+02
2.441441e+03,5.007626e+02
2.442405e+03,4.948981e+02
2.443369e+03,4.884371e+02
2.444333e+03,4.845213e+02
2.445298e+03,4.829552e+02
2.446262e+03,4.841474e+02
2.447226e+03,4.874159e+02
2.448190e+03,4.929755e+02
2.449155e+03,4.954684e+02
2.450119e+03,4.890106e+02
2.451083e+03,4.866157e+02
2.452047e+03,4.876071e+02
2.453011e+03,4.851999e+02
2.453976e+03,4.777303e+02
2.454940e+03,4.748066e+02
2.455904e+03,4.763067e+02
2.456868e+03,4.833985e+02
2.457833e+03,4.921721e+02
2.458797e+03,4.898362e+02
2.459761e+03,4.839389e+02
2.460725e+03,4.851699e+02
2.461690e+03,4.887613e+02
2.462654e+03,4.891657e+02
2.463618e+03,4.857041e+02
2.464582e+03,4.773110e+02
2.465547e+03,4.713468e+02
2.466511e+03,4.771680e+02
2.467475e+03,4.808103e+02
2.468439e+03,4.791939e+02
2.469404e+03,4.742624e+02
2.470368e+03,4.624035e+02
2.471332e+03,4.614049e+02
2.472296e+03,4.700424e+02
2.473260e+03,4.749724e+02
2.474225e+03,4.726508e+02
2.475189e+03,4.687840e+02
2.476153e+03,4.651316e+02
2.477117e+03,4.672243e+02
2.478082e+03,4.729002e+02
2.479046e+03,4.775584e+02
2.480010e+03,4.792188e+02
2.480974e+03,4.736401e+02
2.481938e+03,4.673479e+02
2.482903e+03,4.709575e+02
2.483867e+03,4.738485e+02
2.484831e+03,4.700533e+02
2.485795e+03,4.646367e+02
2.486760e+03,4.596765e+02
2.487724e+03,4.596390e+02
2.488688e+03,4.652466e+02
2.489652e+03,4.688070e+02
2.490617e+03,4.644206e+02
2.491581e+03,4.622607e+02
2.492545e+03,4.621717e+02
2.493509e+03,4.610692e+02
2.494474e+03,4.584968e+02
2.495438e+03,4.593050e+02
2.496402e+03,4.623161e+02
2.497366e+03,4.654934e+02
2.498331e+03,4.684801e+02
2.499295e+03,4.721551e+02
2.500259e+03,4.733290e+02
2.501223e+03,4.691938e+02
2.502188e+03,4.650026e+02
2.503152e+03,4.678856e+02
2.504116e+03,4.685137e+02
2.505080e+03,4.638408e+02
2.506044e+03,4.609167e+02
2.507009e+03,4.662306e+02
2.507973e+03,4.689771e+02
2.508937e+03,4.690298e+02
2.509901e+03,4.675533e+02
2.510865e+03,4.645507e+02
2.511830e+03,4.628213e+02
2.512794e+03,4.621413e+02
2.513758e+03,4.638554e+02
2.514722e+03,4.666928e+02
2.515687e+03,4.653966e+02
2.516651e+03,4.637639e+02
2.517615e+03,4.662119e+02
2.518579e+03,4.691408e+02
2.519544e+03,4.668926e+02
2.520508e+03,4.659771e+02
2.521472e+03,4.694037e+02
2.522436e+03,4.705196e+02
2.523401e+03,4.616605e+02
2.524365e+03,4.562817e+02
2.525329e+03,4.546897e+02
2.526293e+03,4.530817e+02
2.527258e+03,4.506508e+02
2.528222e+03,4.534553e+02
2.529186e+03,4.585589e+02
2.530150e+03,4.557691e+02
2.531115e+03,4.487311e+02
2.532079e+03,4.488978e+02
2.533043e+03,4.538670e+02
2.534007e+03,4.620493e+02
2.534971e+03,4.665556e+02
2.535936e+03,4.536839e+02
2.536900e+03,4.435367e+02
2.537864e+03,4.429232e+02
2.538828e+03,4.477273e+02
2.539792e+03,4.583186e+02
2.540757e+03,4.590706e+02
2.541721e+03,4.485428e+02
2.542685e+03,4.399281e+02
2.543649e+03,4.353489e+02
2.544614e+03,4.444675e+02
2.545578e+03,4.596203e+02
2.546542e+03,4.575165e+02
2.547506e+03,4.463884e+02
2.548471e+03,4.453985e+02
2.549435e+03,4.487669e+02
2.550399e+03,4.523303e+02
2.551363e+03,4.549440e+02
2.552328e+03,4.559676e+02
2.553292e+03,4.554077e+02
2.554256e+03,4.522890e+02
2.555220e+03,4.534028e+02
2.556185e+03,4.597150e+02
2.557149e+03,4.602161e+02
2.558113e+03,4.531870e+02
2.559077e+03,4.496176e+02
2.560042e+03,4.487384e+02
2.561006e+03,4.474540e+02
2.561970e+03,4.467868e+02
2.562934e+03,4.488482e+02
2.563898e+03,4.503892e+02
2.564863e+03,4.460723e+02
2.565827e+03,4.417720e+02
2.566791e+03,4.442570e+02
2.567755e+03,4.452915e+02
2.568719e+03,4.420559e+02
2.569684e+03,4.402514e+02
2.570648e+03,4.427784e+02
2.571612e+03,4.481557e+02
2.572576e+03,4.553343e+02
2.573541e+03,4.559809e+02
2.574505e+03,4.499922e+02
2.575469e+03,4.433608e+02
2.576433e+03,4.374507e+02
2.577398e+03,4.348948e+02
2.578362e+03,4.344195e+02
2.579326e+03,4.353508e+02
2.580290e+03,4.373332e+02
2.581255e+03,4.404423e+02
2.582219e+03,4.401561e+02
2.583183e+03,4.295995e+02
2.584147e+03,4.233192e+02
2.585112e+03,4.223736e+02
2.586076e+03,4.224320e+02
2.587040e+03,4.224991e+02
2.588004e+03,4.250211e+02
2.588969e+03,4.286610e+02
2.589933e+03,4.312226e+02
2.590897e+03,4.332212e+02
2.591861e+03,4.358639e+02
2.592825e+03,4.382706e+02
2.593790e+03,4.399933e+02
2.594754e+03,4.399582e+02
2.595718e+03,4.372003e+02
2.596682e+03,4.326161e+02
2.597646e+03,4.258864e+02
2.598611e+03,4.249409e+02
2.599575e+03,4.298979e+02
2.600539e+03,4.316281e+02
2.601503e+03,4.293252e+02
2.602468e+03,4.237744e+02
2.603432e+03,4.188986e+02
2.604396e+03,4.261969e+02
2.605360e+03,4.359536e+02
2.606325e+03,4.408768e+02
2.607289e+03,4.414475e+02
2.608253e+03,4.383171e+02
2.609217e+03,4.323791e+02
2.610182e+03,4.206913e+02
2.611146e+03,4.180169e+02
2.612110e+03,4.236438e+02
2.613074e+03,4.272849e+02
2.614039e+03,4.283185e+02
2.615003e+03,4.329275e+02
2.615967e+03,4.366971e+02
2.616931e+03,4.334218e+02
2.617896e+03,4.276589e+02
2.618860e+03,4.228173e+02
2.619824e+03,4.217074e+02
2.620788e+03,4.253321e+02
2.621752e+03,4.268584e+02
2.622717e+03,4.208395e+02
2.623681e+03,4.201770e+02
2.624645e+03,4.242326e+02
2.625609e+03,4.235858e+02
2.626573e+03,4.186350e+02
2.627538e+03,4.157979e+02
2.628502e+03,4.153023e+02
2.629466e+03,4.168594e+02
2.630430e+03,4.186291e+02
2.631395e+03,4.171230e+02
2.632359e+03,4.166294e+02
2.633323e+03,4.192701e+02
2.634287e+03,4.210256e+02
2.635252e+03,4.212182e+02
2.636216e+03,4.201348e+02
2.637180e+03,4.180148e+02
2.638144e+03,4.218058e+02
2.639109e+03,4.278452e+02
2.640073e+03,4.245429e+02
2.641037e+03,4.191499e+02
2.642001e+03,4.226455e+02
2.642966e+03,4.251806e+02
2.643930e+03,4.207190e+02
2.644894e+03,4.166011e+02
2.645858e+03,4.193084e+02
2.646823e+03,4.189504e+02
2.647787e+03,4.152268e+02
2.648751e+03,4.139128e+02
2.649715e+03,4.155149e+02
2.650679e+03,4.187451e+02
2.651644e+03,4.221422e+02
2.652608e+03,4.242233e+02
2.653572e+03,4.236417e+02
2.654536e+03,4.143789e+02
2.655500e+03,4.095252e+02
2.656465e+03,4.148669e+02
2.657429e+03,4.176997e+02
2.658393e+03,4.132967e+02
2.659357e+03,4.111609e+02
2.660322e+03,4.127270e+02
2.661286e+03,4.139889e+02
2.662250e+03,4.148660e+02
2.663214e+03,4.162266e+02
2.664179e+03,4.168535e+02
2.665143e+03,4.128447e+02
2.666107e+03,4.130332e+02
2.667071e+03,4.231294e+02
2.668036e+03,4.286254e+02
2.669000e+03,4.181092e+02
2.669964e+03,4.104530e+02
2.670928e+03,4.061410e+02
2.671893e+03,4.026267e+02
2.672857e+03,4.002735e+02
2.673821e+03,4.024956e+02
2.674785e+03,4.070754e+02
2.675750e+03,4.126578e+02
2.676714e+03,4.158669e+02
2.677678e+03,4.096032e+02
2.678642e+03,4.046571e+02
2.679606e+03,4.032896e+02
2.680571e+03,4.060695e+02
2.681535e+03,4.122074e+02
2.682499e+03,4.150345e+02
2.683463e+03,4.131958e+02
2.684427e+03,4.038996e+02
2.685392e+03,3.953007e+02
2.686356e+03,4.076885e+02
2.687320e+03,4.187103e+02
2.688284e+03,4.099012e+02
2.689249e+03,4.039850e+02
2.690213e+03,4.057274e+02
2.691177e+03,4.071107e+02
2.692141e+03,4.061424e+02
2.693106e+03,4.030469e+02
2.694070e+03,3.992039e+02
2.695034e+03,3.980374e+02
2.695998e+03,3.979462e+02
2.696963e+03,3.960648e+02
2.697927e+03,3.945198e+02
2.698891e+03,3.940604e+02
2.699855e+03,3.926322e+02
2.700820e+03,3.885176e+02
2.701784e+03,3.916975e+02
2.702748e+03,4.009590e+02
2.703712e+03,4.002089e+02
2.704677e+03,3.935753e+02
2.705641e+03,3.982289e+02
2.706605e+03,4.061064e+02
2.707569e+03,4.066686e+02
2.708533e+03,4.067718e+02
2.709498e+03,4.101498e+02
2.710462e+03,4.083792e+02
2.711426e+03,3.948668e+02
2.712390e+03,3.911479e+02
2.713354e+03,3.946872e+02
2.714319e+03,3.926314e+02
2.715283e+03,3.878835e+02
2.716247e+03,3.905583e+02
2.717211e+03,3.941373e+02
2.718176e+03,3.937889e+02
2.719140e+03,3.933635e+02
2.720104e+03,3.958999e+02
2.721068e+03,3.962793e+02
2.722033e+03,3.941136e+02
2.722997e+03,3.939337e+02
2.723961e+03,3.947614e+02
2.724925e+03,3.903612e+02
2.725890e+03,3.857368e+02
2.726854e+03,3.893507e+02
2.727818e+03,3.934924e+02
2.728782e+03,3.937750e+02
2.729747e+03,3.903994e+02
2.730711e+03,3.790467e+02
2.731675e+03,3.824600e+02
2.732639e+03,3.962130e+02
2.733604e+03,3.950388e+02
2.734568e+03,3.854490e+02
2.735532e+03,3.891437e+02
2.736496e+03,3.934934e+02
2.737460e+03,3.886114e+02
2.738425e+03,3.848326e+02
2.739389e+03,3.889688e+02
2.740353e+03,3.925271e+02
2.741317e+03,3.936549e+02
2.742281e+03,3.834979e+02
2.743246e+03,3.684258e+02
2.744210e+03,3.704655e+02
2.745174e+03,3.794749e+02
2.746138e+03,3.850025e+02
2.747103e+03,3.892758e+02
2.748067e+03,3.938764e+02
2.749031e+03,3.960972e+02
2.749995e+03,3.937830e+02
2.750960e+03,3.879215e+02
2.751924e+03,3.814540e+02
2.752888e+03,3.851166e+02
2.753852e+03,3.923952e+02
2.754817e+03,3.868639e+02
2.755781e+03,3.816197e+02
2.756745e+03,3.848705e+02
2.757709e+03,3.852347e+02
2.758674e+03,3.787641e+02
2.759638e+03,3.748963e+02
2.760602e+03,3.761242e+02
2.761566e+03,3.850345e+02
2.762531e+03,3.944106e+02
2.763495e+03,3.884483e+02
2.764459e+03,3.801730e+02
2.765423e+03,3.849809e+02
2.766387e+03,3.861206e+02
2.767352e+03,3.804364e+02
2.768316e+03,3.794445e+02
2.769280e+03,3.852090e+02
2.770244e+03,3.825943e+02
2.771208e+03,3.765926e+02
2.772173e+03,3.779317e+02
2.773137e+03,3.807982e+02
2.774101e+03,3.787978e+02
2.775065e+03,3.781425e+02
2.776030e+03,3.813236e+02
2.776994e+03,3.860847e+02
2.777958e+03,3.904220e+02
2.778922e+03,3.842149e+02
2.779887e+03,3.728637e+02
2.780851e+03,3.719623e+02
2.781815e+03,3.737910e+02
2.782779e+03,3.727783e+02
2.783744e+03,3.723481e+02
2.784708e+03,3.748866e+02
2.785672e+03,3.749520e+02
2.786636e+03,3.721166e+02
2.787601e+03,3.672696e+02
2.788565e+03,3.632901e+02
2.789529e+03,3.691914e+02
2.790493e+03,3.770060e+02
2.791458e+03,3.825571e+02
2.792422e+03,3.798268e+02
2.793386e+03,3.691606e+02
2.794350e+03,3.628947e+02
2.795314e+03,3.638363e+02
2.796279e+03,3.656089e+02
2.797243e+03,3.669869e+02
2.798207e+03,3.663459e+02
2.799171e+03,3.664161e+02
2.800135e+03,3.708238e+02
2.801100e+03,3.763657e+02
2.802064e+03,3.829638e+02
2.803028e+03,3.800679e+02
2.803992e+03,3.700804e+02
2.804957e+03,3.673959e+02
2.805921e+03,3.701361e+02
2.806885e+03,3.767563e+02
2.807849e+03,3.781423e+02
2.808814e+03,3.701633e+02
2.809778e+03,3.643133e+02
2.810742e+03,3.671988e+02
2.811706e+03,3.670575e+02
2.812671e+03,3.644723e+02
2.813635e+03,3.645220e+02
2.814599e+03,3.651330e+02
2.815563e+03,3.620122e+02
2.816528e+03,3.578056e+02
2.817492e+03,3.520405e+02
2.818456e+03,3.528788e+02
2.819420e+03,3.593647e+02
2.820385e+03,3.611201e+02
2.821349e+03,3.587266e+02
2.822313e+03,3.559492e+02
2.823277e+03,3.548280e+02
2.824241e+03,3.565677e+02
2.825206e+03,3.582147e+02
2.826170e+03,3.578495e+02
2.827134e+03,3.612494e+02
2.828098e+03,3.674954e+02
2.829063e+03,3.658315e+02
2.830027e+03,3.617463e+02
2.830991e+03,3.713769e+02
2.831955e+03,3.792576e+02
2.832919e+03,3.664569e+02
2.833884e+03,3.618616e+02
2.834848e+03,3.686123e+02
2.835812e+03,3.708238e+02
2.836776e+03,3.671951e+02
2.837741e+03,3.609742e+02
2.838705e+03,3.586993e+02
2.839669e+03,3.685764e+02
2.840633e+03,3.768701e+02
2.841598e+03,3.759808e+02
2.842562e+03,3.764790e+02
2.843526e+03,3.808528e+02
2.844490e+03,3.743943e+02
2.845455e+03,3.655244e+02
2.846419e+03,3.719084e+02
2.847383e+03,3.803637e+02
2.848347e+03,3.740528e+02
2.849312e+03,3.708669e+02
2.850276e+03,3.737527e+02
2.851240e+03,3.745892e+02
2.852204e+03,3.731213e+02
2.853168e+03,3.741889e+02
2.854133e+03,3.779352e+02
2.855097e+03,3.882387e+02
2.856061e+03,3.943442e+02
2.857025e+03,3.932608e+02
2.857990e+03,3.821586e+02
2.858954e+03,3.598546e+02
2.859918e+03,3.575568e+02
2.860882e+03,3.669508e+02
2.861846e+03,3.740055e+02
2.862811e+03,3.776389e+02
2.863775e+03,3.760298e+02
2.864739e+03,3.732467e+02
2.865703e+03,3.702997e+02
2.866668e+03,3.831501e+02
2.867632e+03,4.021147e+02
2.868596e+03,3.970902e+02
2.869560e+03,3.843712e+02
2.870525e+03,3.815097e+02
2.871489e+03,3.831170e+02
2.872453e+03,3.874008e+02
2.873417e+03,3.848310e+02
2.874382e+03,3.766245e+02
2.875346e+03,3.779938e+02
2.876310e+03,3.845670e+02
2.877274e+03,3.904074e+02
2.878239e+03,3.927781e+02
2.879203e+03,3.908158e+02
2.880167e+03,3.901293e+02
2.881131e+03,3.930431e+02
2.882095e+03,3.883340e+02
2.883060e+03,3.809744e+02
2.884024e+03,3.785723e+02
2.884988e+03,3.782393e+02
2.885952e+03,3.768182e+02
2.886917e+03,3.798745e+02
2.887881e+03,3.893874e+02
2.888845e+03,3.886823e+02
2.889809e+03,3.843572e+02
2.890773e+03,3.934367e+02
2.891738e+03,4.041693e+02
2.892702e+03,4.038867e+02
2.893666e+03,4.026452e+02
2.894630e+03,4.022606e+02
2.895595e+03,3.991830e+02
2.896559e+03,3.942979e+02
2.897523e+03,3.921029e+02
2.898487e+03,3.924487e+02
2.899452e+03,3.964286e+02
2.900416e+03,4.010544e+02
2.901380e+03,4.051614e+02
2.902344e+03,3.999761e+02
2.903309e+03,3.862813e+02
2.904273e+03,3.820340e+02
2.905237e+03,3.806619e+02
2.906201e+03,3.737378e+02
2.907166e+03,3.698853e+02
2.908130e+03,3.724678e+02
2.909094e+03,3.818012e+02
2.910058e+03,3.953601e+02
2.911022e+03,3.886888e+02
2.911987e+03,3.761537e+02
2.912951e+03,3.736744e+02
2.913915e+03,3.737240e+02
2.914879e+03,3.710021e+02
2.915844e+03,3.694836e+02
2.916808e+03,3.698396e+02
2.917772e+03,3.719783e+02
2.918736e+03,3.743192e+02
2.919700e+03,3.746802e+02
2.920665e+03,3.727090e+02
2.921629e+03,3.648170e+02
2.922593e+03,3.632834e+02
2.923557e+03,3.675222e+02
2.924522e+03,3.717423e+02
2.925486e+03,3.737162e+02
2.926450e+03,3.668046e+02
2.927414e+03,3.595011e+02
2.928379e+03,3.544917e+02
2.929343e+03,3.586699e+02
2.930307e+03,3.687503e+02
2.931271e+03,3.659263e+02
2.932236e+03,3.580714e+02
2.933200e+03,3.595594e+02
2.934164e+03,3.623763e+02
2.935128e+03,3.630197e+02
2.936093e+03,3.603549e+02
2.937057e+03,3.561039e+02
2.938021e+03,3.604907e+02
2.938985e+03,3.662265e+02
2.939949e+03,3.578845e+02
2.940914e+03,3.507269e+02
2.941878e+03,3.502206e+02
2.942842e+03,3.468305e+02
2.943806e+03,3.390359e+02
2.944771e+03,3.441493e+02
2.945735e+03,3.525477e+02
2.946699e+03,3.479690e+02
2.947663e+03,3.496776e+02
2.948627e+03,3.629311e+02
2.949592e+03,3.608433e+02
2.950556e+03,3.420670e+02
2.951520e+03,3.469937e+02
2.952484e+03,3.574116e+02
2.953449e+03,3.528648e+02
2.954413e+03,3.527928e+02
2.955377e+03,3.657278e+02
2.956341e+03,3.799903e+02
2.957306e+03,3.916860e+02
2.958270e+03,3.957714e+02
2.959234e+03,3.870219e+02
2.960198e+03,3.623327e+02
2.961163e+03,3.465859e+02
2.962127e+03,3.514001e+02
2.963091e+03,3.527700e+02
2.964055e+03,3.498887e+02
2.965020e+03,3.487195e+02
2.965984e+03,3.477554e+02
2.966948e+03,3.450634e+02
2.967912e+03,3.441524e+02
2.968876e+03,3.473072e+02
2.969841e+03,3.489234e+02
2.970805e+03,3.473093e+02
2.971769e+03,3.393084e+02
2.972733e+03,3.328402e+02
2.973698e+03,3.340440e+02
2.974662e+03,3.339830e+02
2.975626e+03,3.304068e+02
2.976590e+03,3.281198e+02
2.977554e+03,3.300967e+02
2.978519e+03,3.408051e+02
2.979483e+03,3.466842e+02
2.980447e+03,3.368976e+02
2.981411e+03,3.366456e+02
2.982376e+03,3.469001e+02
2.983340e+03,3.445680e+02
2.984304e+03,3.371396e+02
2.985268e+03,3.322852e+02
2.986233e+03,3.297584e+02
2.987197e+03,3.305711e+02
2.988161e+03,3.260469e+02
2.989125e+03,3.211147e+02
2.990090e+03,3.348285e+02
2.991054e+03,3.446496e+02
2.992018e+03,3.320703e+02
2.992982e+03,3.175284e+02
2.993947e+03,3.074331e+02
2.994911e+03,3.164561e+02
2.995875e+03,3.319346e+02
2.996839e+03,3.298203e+02
2.997803e+03,3.299095e+02
2.998768e+03,3.465614e+02
2.999732e+03,3.512166e+02
3.000696e+03,3.398289e+02
3.001660e+03,3.387270e+02
3.002625e+03,3.378195e+02
3.003589e+03,3.265232e+02
3.004553e+03,3.191973e+02
3.005517e+03,3.230444e+02
3.006481e+03,3.283288e+02
3.007446e+03,3.321077e+02
3.008410e+03,3.302771e+02
3.009374e+03,3.250940e+02
3.010338e+03,3.183824e+02
3.011303e+03,3.169760e+02
3.012267e+03,3.223344e+02
3.013231e+03,3.295916e+02
3.014195e+03,3.323871e+02
3.015160e+03,3.149284e+02
3.016124e+03,3.080258e+02
3.017088e+03,3.207447e+02
3.018052e+03,3.269211e+02
3.019017e+03,3.223009e+02
3.019981e+03,3.127527e+02
3.020945e+03,3.068462e+02
3.021909e+03,3.139784e+02
3.022874e+03,3.111448e+02
3.023838e+03,2.960258e+02
3.024802e+03,2.914029e+02
3.025766e+03,2.947355e+02
3.026730e+03,2.967127e+02
3.027695e+03,2.960453e+02
3.028659e+03,2.921014e+02
3.029623e+03,2.980938e+02
3.030587e+03,3.115679e+02
3.031552e+03,3.157974e+02
3.032516e+03,3.142671e+02
3.033480e+03,3.073062e+02
3.034444e+03,3.076486e+02
3.035408e+03,3.164724e+02
3.036373e+03,3.238246e+02
3.037337e+03,3.265057e+02
3.038301e+03,3.127517e+02
3.039265e+03,3.000695e+02
3.040230e+03,2.980163e+02
3.041194e+03,3.008969e+02
3.042158e+03,3.067762e+02
3.043122e+03,3.128539e+02
3.044087e+03,3.161322e+02
3.045051e+03,3.099581e+02
3.046015e+03,3.063475e+02
3.046979e+03,3.091351e+02
3.047944e+03,2.995489e+02
3.048908e+03,2.904533e+02
3.049872e+03,3.025117e+02
3.050836e+03,3.137872e+02
3.051801e+03,3.079026e+02
3.052765e+03,3.143466e+02
3.053729e+03,3.300565e+02
3.054693e+03,3.216201e+02
3.055657e+03,3.127331e+02
3.056622e+03,3.202272e+02
3.057586e+03,3.227382e+02
3.058550e+03,3.139581e+02
3.059514e+03,2.988270e+02
3.060479e+03,2.871239e+02
3.061443e+03,2.990792e+02
3.062407e+03,3.006490e+02
3.063371e+03,2.847464e+02
3.064335e+03,2.984650e+02
3.065300e+03,3.323528e+02
3.066264e+03,3.239589e+02
3.067228e+03,3.081905e+02
3.068192e+03,3.060836e+02
3.069157e+03,3.040510e+02
3.070121e+03,3.010291e+02
3.071085e+03,3.027248e+02
3.072049e+03,3.059123e+02
3.073014e+03,3.044071e+02
3.073978e+03,3.093301e+02
3.074942e+03,3.220498e+02
3.075906e+03,3.163892e+02
3.076871e+03,3.057448e+02
3.077835e+03,3.130436e+02
3.078799e+03,3.176295e+02
3.079763e+03,3.038812e+02
3.080728e+03,2.995736e+02
3.081692e+03,3.060969e+02
3.082656e+03,3.217545e+02
3.083620e+03,3.276670e+02
3.084584e+03,3.150558e+02
3.085549e+03,3.017720e+02
3.086513e+03,2.931284e+02
3.087477e+03,3.003246e+02
3.088441e+03,3.107888e+02
3.089406e+03,3.139101e+02
3.090370e+03,3.061003e+02
3.091334e+03,2.907208e+02
3.092298e+03,2.870590e+02
3.093262e+03,2.911803e+02
3.094227e+03,2.983607e+02
3.095191e+03,3.015003e+02
3.096155e+03,2.975343e+02
3.097119e+03,3.051089e+02
3.098084e+03,3.165953e+02
3.099048e+03,3.153114e+02
3.100012e+03,3.067927e+02
3.100976e+03,2.928992e+02
3.101941e+03,2.816439e+02
3.102905e+03,2.767563e+02
3.103869e+03,2.862229e+02
3.104833e+03,2.997513e+02
3.105798e+03,3.107842e+02
3.106762e+03,3.114730e+02
3.107726e+03,3.034628e+02
3.108690e+03,3.269253e+02
3.109655e+03,3.477919e+02
3.110619e+03,3.145289e+02
3.111583e+03,2.914079e+02
3.112547e+03,2.875160e+02
3.113511e+03,2.797521e+02
3.114476e+03,2.738593e+02
3.115440e+03,2.949042e+02
3.116404e+03,3.122263e+02
3.117368e+03,3.146005e+02
3.118333e+03,3.140099e+02
3.119297e+03,3.146705e+02
3.120261e+03,3.245069e+02
3.121225e+03,3.259076e+02
3.122189e+03,3.086920e+02
3.123154e+03,3.035252e+02
3.124118e+03,3.094981e+02
3.125082e+03,3.127471e+02
3.126046e+03,3.114058e+02
3.127011e+03,3.048399e+02
3.127975e+03,2.999284e+02
3.128939e+03,2.985047e+02
3.129903e+03,3.106643e+02
3.130868e+03,3.215785e+02
3.131832e+03,3.129743e+02
3.132796e+03,3.173381e+02
3.133760e+03,3.288937e+02
3.134725e+03,3.063418e+02
3.135689e+03,2.811673e+02
3.136653e+03,2.837303e+02
3.137617e+03,2.903487e+02
3.138582e+03,2.945793e+02
3.139546e+03,3.022216e+02
3.140510e+03,3.065146e+02
3.141474e+03,2.990652e+02
3.142438e+03,3.019581e+02
3.143403e+03,3.147825e+02
3.144367e+03,2.951580e+02
3.145331e+03,2.725471e+02
3.146295e+03,3.150694e+02
3.147260e+03,3.375011e+02
3.148224e+03,3.176721e+02
3.149188e+03,3.171141e+02
3.150152e+03,3.217238e+02
3.151116e+03,3.083287e+02
3.152081e+03,2.996150e+02
3.153045e+03,3.049419e+02
3.154009e+03,3.158456e+02
3.154973e+03,3.247541e+02
3.155938e+03,3.134632e+02
3.156902e+03,3.076254e+02
3.157866e+03,3.123806e+02
3.158830e+03,2.988651e+02
3.159795e+03,2.790309e+02
3.160759e+03,2.874499e+02
3.161723e+03,3.027165e+02
3.162687e+03,3.213366e+02
3.163652e+03,3.190368e+02
3.164616e+03,3.096520e+02
3.165580e+03,3.195288e+02
3.166544e+03,3.357242e+02
3.167509e+03,3.512913e+02
3.168473e+03,3.364742e+02
3.169437e+03,3.050452e+02
3.170401e+03,3.053055e+02
3.171365e+03,3.114539e+02
3.172330e+03,3.128213e+02
3.173294e+03,3.315800e+02
3.174258e+03,3.467751e+02
3.175222e+03,3.092971e+02
3.176187e+03,2.835031e+02
3.177151e+03,3.142582e+02
3.178115e+03,3.213905e+02
3.179079e+03,3.084715e+02
3.180043e+03,3.005125e+02
3.181008e+03,3.121655e+02
3.181972e+03,3.447408e+02
3.182936e+03,3.356606e+02
3.183900e+03,2.997537e+02
3.184865e+03,2.898134e+02
3.185829e+03,2.898015e+02
3.186793e+03,2.979787e+02
3.187757e+03,3.011516e+02
3.188722e+03,3.032731e+02
3.189686e+03,3.137021e+02
3.190650e+03,3.247799e+02
3.191614e+03,3.328405e+02
3.192579e+03,3.266946e+02
3.193543e+03,3.151991e+02
3.194507e+03,3.355587e+02
3.195471e+03,3.398633e+02
3.196436e+03,3.052844e+02
3.197400e+03,2.891013e+02
3.198364e+03,2.926598e+02
3.199328e+03,3.131433e+02
3.200292e+03,3.216768e+02
3.201257e+03,0.000000e+00
3.202221e+03,0.000000e+00
3.203185e+03,0.000000e+00
3.204149e+03,0.000000e+00
3.205114e+03,0.000000e+00
3.206078e+03,0.000000e+00
3.207042e+03,0.000000e+00
3.208006e+03,0.000000e+00
3.208970e+03,0.000000e+00
3.209935e+03,0.000000e+00
3.210899e+03,0.000000e+00
3.211863e+03,0.000000e+00
3.212827e+03,0.000000e+00
3.213792e+03,0.000000e+00
3.214756e+03,0.000000e+00
3.215720e+03,0.000000e+00
3.216684e+03,0.000000e+00
3.217649e+03,0.000000e+00
3.218613e+03,0.000000e+00
3.219577e+03,0.000000e+00
3.220541e+03,0.000000e+00
3.221506e+03,0.000000e+00
3.222470e+03,0.000000e+00
3.223434e+03,0.000000e+00
3.224398e+03,0.000000e+00
3.225363e+03,0.000000e+00
3.226327e+03,0.000000e+00
3.227291e+03,0.000000e+00
3.228255e+03,0.000000e+00
3.229219e+03,0.000000e+00
3.230184e+03,0.000000e+00
3.231148e+03,0.000000e+00
3.232112e+03,0.000000e+00
3.233076e+03,0.000000e+00
3.234041e+03,0.000000e+00
3.235005e+03,0.000000e+00
3.235969e+03,0.000000e+00
3.236933e+03,0.000000e+00
3.237897e+03,0.000000e+00
3.238862e+03,0.000000e+00
3.239826e+03,0.000000e+00
3.240790e+03,0.000000e+00
3.241754e+03,0.000000e+00
3.242719e+03,0.000000e+00
3.243683e+03,0.000000e+00
3.244647e+03,0.000000e+00
3.245611e+03,0.000000e+00
3.246576e+03,0.000000e+00
3.247540e+03,0.000000e+00
3.248504e+03,0.000000e+00
3.249468e+03,0.000000e+00
3.250433e+03,0.000000e+00
3.251397e+03,0.000000e+00
3.252361e+03,0.000000e+00
3.253325e+03,0.000000e+00
3.254290e+03,0.000000e+00
3.255254e+03,0.000000e+00
3.256218e+03,0.000000e+00
3.257182e+03,0.000000e+00
3.258146e+03,0.000000e+00
3.259111e+03,0.000000e+00
3.260075e+03,0.000000e+00
3.261039e+03,0.000000e+00
3.262003e+03,0.000000e+00
3.262968e+03,0.000000e+00
3.263932e+03,0.000000e+00
3.264896e+03,0.000000e+00
3.265860e+03,0.000000e+00
3.266824e+03,0.000000e+00
3.267789e+03,0.000000e+00
3.268753e+03,0.000000e+00
3.269717e+03,0.000000e+00
3.270681e+03,0.000000e+00
3.271646e+03,0.000000e+00
3.272610e+03,0.000000e+00
3.273574e+03,0.000000e+00
3.274538e+03,0.000000e+00
3.275503e+03,0.000000e+00
3.276467e+03,0.000000e+00
3.277431e+03,0.000000e+00
3.278395e+03,0.000000e+00
3.279360e+03,0.000000e+00
3.280324e+03,0.000000e+00
3.281288e+03,0.000000e+00
3.282252e+03,0.000000e+00
3.283217e+03,0.000000e+00
3.284181e+03,0.000000e+00
3.285145e+03,0.000000e+00
3.286109e+03,0.000000e+00
3.287073e+03,0.000000e+00
3.288038e+03,0.000000e+00
3.289002e+03,0.000000e+00
3.289966e+03,0.000000e+00
3.290930e+03,0.000000e+00
3.291895e+03,0.000000e+00
3.292859e+03,0.000000e+00
3.293823e+03,0.000000e+00
3.294787e+03,0.000000e+00
3.295751e+03,0.000000e+00
3.296716e+03,0.000000e+00
3.297680e+03,0.000000e+00
3.298644e+03,0.000000e+00
3.299608e+03,0.000000e+00
3.300573e+03,0.000000e+00
3.301537e+03,0.000000e+00
3.302501e+03,0.000000e+00
3.303465e+03,0.000000e+00
3.304430e+03,0.000000e+00
3.305394e+03,0.000000e+00
3.306358e+03,0.000000e+00
3.307322e+03,0.000000e+00
3.308287e+03,0.000000e+00
3.309251e+03,0.000000e+00
3.310215e+03,0.000000e+00
3.311179e+03,0.000000e+00
3.312144e+03,0.000000e+00
3.313108e+03,0.000000e+00
3.314072e+03,0.000000e+00
3.315036e+03,0.000000e+00
3.316000e+03,0.000000e+00
3.316965e+03,0.000000e+00
3.317929e+03,0.000000e+00
3.318893e+03,0.000000e+00
3.319857e+03,0.000000e+00
3.320822e+03,0.000000e+00
3.321786e+03,0.000000e+00
3.322750e+03,0.000000e+00
3.323714e+03,0.000000e+00
3.324678e+03,0.000000e+00
3.325643e+03,0.000000e+00
3.326607e+03,0.000000e+00
3.327571e+03,0.000000e+00
3.328535e+03,0.000000e+00
3.329500e+03,0.000000e+00
3.330464e+03,0.000000e+00
3.331428e+03,0.000000e+00
3.332392e+03,0.000000e+00
3.333357e+03,0.000000e+00
3.334321e+03,0.000000e+00
3.335285e+03,0.000000e+00
3.336249e+03,0.000000e+00
3.337214e+03,0.000000e+00
3.338178e+03,0.000000e+00
3.339142e+03,0.000000e+00
3.340106e+03,0.000000e+00
3.341071e+03,0.000000e+00
3.342035e+03,0.000000e+00
3.342999e+03,0.000000e+00
3.343963e+03,0.000000e+00
3.344927e+03,0.000000e+00
3.345892e+03,0.000000e+00
3.346856e+03,0.000000e+00
3.347820e+03,0.000000e+00
3.348784e+03,0.000000e+00
3.349749e+03,0.000000e+00
3.350713e+03,0.000000e+00
3.351677e+03,0.000000e+00
3.352641e+03,0.000000e+00
3.353605e+03,0.000000e+00
3.354570e+03,0.000000e+00
3.355534e+03,0.000000e+00
3.356498e+03,0.000000e+00
3.357462e+03,0.000000e+00
3.358427e+03,0.000000e+00
3.359391e+03,0.000000e+00
3.360355e+03,0.000000e+00
3.361319e+03,0.000000e+00
3.362284e+03,0.000000e+00
3.363248e+03,0.000000e+00
3.364212e+03,0.000000e+00
3.365176e+03,0.000000e+00
3.366141e+03,0.000000e+00
3.367105e+03,0.000000e+00
3.368069e+03,0.000000e+00
3.369033e+03,0.000000e+00
3.369998e+03,0.000000e+00
3.370962e+03,0.000000e+00
3.371926e+03,0.000000e+00
3.372890e+03,0.000000e+00
3.373854e+03,0.000000e+00
3.374819e+03,0.000000e+00
3.375783e+03,0.000000e+00
3.376747e+03,0.000000e+00
3.377711e+03,0.000000e+00
3.378676e+03,0.000000e+00
3.379640e+03,0.000000e+00
3.380604e+03,0.000000e+00
3.381568e+03,0.000000e+00
3.382532e+03,0.000000e+00
3.383497e+03,0.000000e+00
3.384461e+03,0.000000e+00
3.385425e+03,0.000000e+00
3.386389e+03,0.000000e+00
3.387354e+03,0.000000e+00
3.388318e+03,0.000000e+00
3.389282e+03,0.000000e+00
3.390246e+03,0.000000e+00
3.391211e+03,0.000000e+00
3.392175e+03,0.000000e+00
3.393139e+03,0.000000e+00
3.394103e+03,0.000000e+00
3.395068e+03,0.000000e+00
3.396032e+03,0.000000e+00
3.396996e+03,0.000000e+00
3.397960e+03,0.000000e+00
3.398925e+03,0.000000e+00
3.399889e+03,0.000000e+00
3.400853e+03,0.000000e+00
3.401817e+03,0.000000e+00
3.402781e+03,0.000000e+00
3.403746e+03,0.000000e+00
3.404710e+03,0.000000e+00
3.405674e+03,0.000000e+00
3.406638e+03,0.000000e+00
3.407603e+03,0.000000e+00
3.408567e+03,0.000000e+00
3.409531e+03,0.000000e+00
3.410495e+03,0.000000e+00
3.411459e+03,0.000000e+00
3.412424e+03,0.000000e+00
3.413388e+03,0.000000e+00
3.414352e+03,0.000000e+00
3.415316e+03,0.000000e+00
3.416281e+03,0.000000e+00
3.417245e+03,0.000000e+00
3.418209e+03,0.000000e+00
3.419173e+03,0.000000e+00
3.420138e+03,0.000000e+00
3.421102e+03,0.000000e+00
3.422066e+03,0.000000e+00
3.423030e+03,0.000000e+00
3.423995e+03,0.000000e+00
3.424959e+03,0.000000e+00
3.425923e+03,0.000000e+00
3.426887e+03,0.000000e+00
3.427852e+03,0.000000e+00
3.428816e+03,0.000000e+00
3.429780e+03,0.000000e+00
3.430744e+03,0.000000e+00
3.431708e+03,0.000000e+00
3.432673e+03,0.000000e+00
3.433637e+03,0.000000e+00
3.434601e+03,0.000000e+00
3.435565e+03,0.000000e+00
3.436530e+03,0.000000e+00
3.437494e+03,0.000000e+00
3.438458e+03,0.000000e+00
3.439422e+03,0.000000e+00
3.440386e+03,0.000000e+00
3.441351e+03,0.000000e+00
3.442315e+03,0.000000e+00
3.443279e+03,0.000000e+00
3.444243e+03,0.000000e+00
3.445208e+03,0.000000e+00
3.446172e+03,0.000000e+00
3.447136e+03,0.000000e+00
3.448100e+03,0.000000e+00
3.449065e+03,0.000000e+00
3.450029e+03,0.000000e+00
3.450993e+03,0.000000e+00
3.451957e+03,0.000000e+00
3.452922e+03,0.000000e+00
3.453886e+03,0.000000e+00
3.454850e+03,0.000000e+00
3.455814e+03,0.000000e+00
3.456779e+03,0.000000e+00
3.457743e+03,0.000000e+00
3.458707e+03,0.000000e+00
3.459671e+03,0.000000e+00
3.460635e+03,0.000000e+00
3.461600e+03,0.000000e+00
3.462564e+03,0.000000e+00
3.463528e+03,0.000000e+00
3.464492e+03,0.000000e+00
3.465457e+03,0.000000e+00
3.466421e+03,0.000000e+00
3.467385e+03,0.000000e+00
3.468349e+03,0.000000e+00
3.469313e+03,0.000000e+00
3.470278e+03,0.000000e+00
3.471242e+03,0.000000e+00
3.472206e+03,0.000000e+00
3.473170e+03,0.000000e+00
3.474135e+03,0.000000e+00
3.475099e+03,0.000000e+00
3.476063e+03,0.000000e+00
3.477027e+03,0.000000e+00
3.477992e+03,0.000000e+00
3.478956e+03,0.000000e+00
3.479920e+03,0.000000e+00
3.480884e+03,0.000000e+00
3.481849e+03,0.000000e+00
3.482813e+03,0.000000e+00
3.483777e+03,0.000000e+00
3.484741e+03,0.000000e+00
3.485706e+03,0.000000e+00
3.486670e+03,0.000000e+00
3.487634e+03,0.000000e+00
3.488598e+03,0.000000e+00
3.489563e+03,0.000000e+00
3.490527e+03,0.000000e+00
3.491491e+03,0.000000e+00
3.492455e+03,0.000000e+00
3.493419e+03,0.000000e+00
3.494384e+03,0.000000e+00
3.495348e+03,0.000000e+00
3.496312e+03,0.000000e+00
3.497276e+03,0.000000e+00
3.498240e+03,0.000000e+00
3.499205e+03,0.000000e+00
3.500169e+03,0.000000e+00
