9.931763e+01,0.000000e+00
1.002819e+02,0.000000e+00
1.012461e+02,0.000000e+00
1.022103e+02,0.000000e+00
1.031746e+02,0.000000e+00
1.041388e+02,0.000000e+00
1.051030e+02,0.000000e+00
1.060673e+02,0.000000e+00
1.070315e+02,0.000000e+00
1.079957e+02,0.000000e+00
1.089600e+02,0.000000e+00
1.099242e+02,0.000000e+00
1.108884e+02,0.000000e+00
1.118527e+02,0.000000e+00
1.128169e+02,0.000000e+00
1.137811e+02,0.000000e+00
1.147454e+02,0.000000e+00
1.157096e+02,0.000000e+00
1.166738e+02,0.000000e+00
1.176381e+02,0.000000e+00
1.186023e+02,0.000000e+00
1.195665e+02,0.000000e+00
1.205308e+02,0.000000e+00
1.214950e+02,0.000000e+00
1.224592e+02,0.000000e+00
1.234235e+02,0.000000e+00
1.243877e+02,0.000000e+00
1.253519e+02,0.000000e+00
1.263162e+02,0.000000e+00
1.272804e+02,0.000000e+00
1.282446e+02,0.000000e+00
1.292089e+02,0.000000e+00
1.301731e+02,0.000000e+00
1.311373e+02,0.000000e+00
1.321016e+02,0.000000e+00
1.330658e+02,0.000000e+00
1.340300e+02,0.000000e+00
1.349943e+02,0.000000e+00
1.359585e+02,0.000000e+00
1.369227e+02,0.000000e+00
1.378870e+02,0.000000e+00
1.388512e+02,0.000000e+00
1.398154e+02,0.000000e+00
1.407797e+02,0.000000e+00
1.417439e+02,0.000000e+00
1.427081e+02,0.000000e+00
1.436724e+02,0.000000e+00
1.446366e+02,0.000000e+00
1.456008e+02,0.000000e+00
1.465651e+02,0.000000e+00
1.475293e+02,0.000000e+00
1.484935e+02,0.000000e+00
1.494578e+02,0.000000e+00
1.504220e+02,0.000000e+00
1.513862e+02,0.000000e+00
1.523505e+02,0.000000e+00
1.533147e+02,0.000000e+00
1.542789e+02,0.000000e+00
1.552432e+02,0.000000e+00
1.562074e+02,0.000000e+00
1.571716e+02,0.000000e+00
1.581359e+02,0.000000e+00
1.591001e+02,0.000000e+00
1.600643e+02,0.000000e+00
1.610286e+02,0.000000e+00
1.619928e+02,0.000000e+00
1.629570e+02,0.000000e+00
1.639213e+02,0.000000e+00
1.648855e+02,0.000000e+00
1.658497e+02,0.000000e+00
1.668140e+02,0.000000e+00
1.677782e+02,0.000000e+00
1.687424e+02,0.000000e+00
1.697067e+02,0.000000e+00
1.706709e+02,0.000000e+00
1.716351e+02,0.000000e+00
1.725994e+02,0.000000e+00
1.735636e+02,0.000000e+00
1.745278e+02,0.000000e+00
1.754921e+02,0.000000e+00
1.764563e+02,0.000000e+00
1.774205e+02,0.000000e+00
1.783848e+02,0.000000e+00
1.793490e+02,0.000000e+00
1.803132e+02,0.000000e+00
1.812775e+02,0.000000e+00
1.822417e+02,0.000000e+00
1.832059e+02,0.000000e+00
1.841702e+02,0.000000e+00
1.851344e+02,0.000000e+00
1.860986e+02,0.000000e+00
1.870629e+02,0.000000e+00
1.880271e+02,0.000000e+00
1.889913e+02,0.000000e+00
1.899556e+02,0.000000e+00
1.909198e+02,0.000000e+00
1.918840e+02,0.000000e+00
1.928483e+02,0.000000e+00
1.938125e+02,0.000000e+00
1.947767e+02,0.000000e+00
1.957410e+02,0.000000e+00
1.967052e+02,0.000000e+00
1.976694e+02,0.000000e+00
1.986337e+02,0.000000e+00
1.995979e+02,7.201034e+03
2.005621e+02,7.197752e+03
2.015264e+02,7.200870e+03
2.024906e+02,7.219556e+03
2.034548e+02,7.236904e+03
2.044191e+02,7.247110e+03
2.053833e+02,7.249432e+03
2.063475e+02,7.247185e+03
2.073118e+02,7.243172e+03
2.082760e+02,7.235688e+03
2.092402e+02,7.232103e+03
2.102045e+02,7.238987e+03
2.111687e+02,7.251411e+03
2.121329e+02,7.265920e+03
2.130972e+02,7.280789e+03
2.140614e+02,7.292686e+03
2.150256e+02,7.295139e+03
2.159899e+02,7.281454e+03
2.169541e+02,7.269519e+03
2.179183e+02,7.266869e+03
2.188826e+02,7.271866e+03
2.198468e+02,7.280875e+03
2.208110e+02,7.294672e+03
2.217753e+02,7.311968e+03
2.227395e+02,7.319472e+03
2.237037e+02,7.311552e+03
2.246680e+02,7.299206e+03
2.256322e+02,7.290796e+03
2.265964e+02,7.290187e+03
2.275607e+02,7.295942e+03
2.285249e+02,7.308580e+03
2.294892e+02,7.330086e+03
2.304534e+02,7.349538e+03
2.314176e+02,7.351010e+03
2.323819e+02,7.337608e+03
2.333461e+02,7.328749e+03
2.343103e+02,7.334800e+03
2.352746e+02,7.350505e+03
2.362388e+02,7.365605e+03
2.372030e+02,7.377470e+03
2.381673e+02,7.381936e+03
2.391315e+02,7.375817e+03
2.400957e+02,7.353171e+03
2.410600e+02,7.335273e+03
2.420242e+02,7.335659e+03
2.429884e+02,7.352084e+03
2.439527e+02,7.371419e+03
2.449169e+02,7.383083e+03
2.458811e+02,7.384503e+03
2.468454e+02,7.385730e+03
2.478096e+02,7.382050e+03
2.487738e+02,7.381287e+03
2.497381e+02,7.391780e+03
2.507023e+02,7.414678e+03
2.516665e+02,7.441243e+03
2.526308e+02,7.456901e+03
2.535950e+02,7.447856e+03
2.545592e+02,7.437022e+03
2.555235e+02,7.423142e+03
2.564877e+02,7.410403e+03
2.574519e+02,7.405412e+03
2.584161e+02,7.414484e+03
2.593804e+02,7.436694e+03
2.603446e+02,7.450434e+03
2.613088e+02,7.436562e+03
2.622731e+02,7.426057e+03
2.632373e+02,7.430671e+03
2.642015e+02,7.447241e+03
2.651658e+02,7.463437e+03
2.661300e+02,7.468431e+03
2.670942e+02,7.462368e+03
2.680585e+02,7.458352e+03
2.690227e+02,7.459814e+03
2.699869e+02,7.462935e+03
2.709512e+02,7.464544e+03
2.719154e+02,7.465623e+03
2.728796e+02,7.467629e+03
2.738439e+02,7.472829e+03
2.748081e+02,7.483946e+03
2.757723e+02,7.497439e+03
2.767366e+02,7.503463e+03
2.777008e+02,7.501070e+03
2.786650e+02,7.499068e+03
2.796293e+02,7.505461e+03
2.805935e+02,7.516403e+03
2.815577e+02,7.522011e+03
2.825220e+02,7.517919e+03
2.834862e+02,7.509447e+03
2.844504e+02,7.508408e+03
2.854147e+02,7.524672e+03
2.863789e+02,7.536167e+03
2.873431e+02,7.535405e+03
2.883074e+02,7.527717e+03
2.892716e+02,7.521390e+03
2.902358e+02,7.519280e+03
2.912001e+02,7.520427e+03
2.921643e+02,7.524072e+03
2.931285e+02,7.536162e+03
2.940928e+02,7.548367e+03
2.950570e+02,7.554727e+03
2.960212e+02,7.554420e+03
2.969855e+02,7.551756e+03
2.979497e+02,7.554250e+03
2.989139e+02,7.568330e+03
2.998782e+02,7.575990e+03
3.008424e+02,7.576252e+03
3.018066e+02,7.575375e+03
3.027709e+02,7.575205e+03
3.037351e+02,7.575233e+03
3.046993e+02,7.574535e+03
3.056636e+02,7.573436e+03
3.066278e+02,7.573669e+03
3.075920e+02,7.573136e+03
3.085563e+02,7.569275e+03
3.095205e+02,7.565249e+03
3.104847e+02,7.565010e+03
3.114490e+02,7.567907e+03
3.124132e+02,7.572858e+03
3.133774e+02,7.580692e+03
3.143417e+02,7.592354e+03
3.153059e+02,7.602503e+03
3.162701e+02,7.606570e+03
3.172344e+02,7.604794e+03
3.181986e+02,7.604536e+03
3.191628e+02,7.609525e+03
3.201271e+02,7.618101e+03
3.210913e+02,7.626768e+03
3.220555e+02,7.633719e+03
3.230198e+02,7.638296e+03
3.239840e+02,7.639504e+03
3.249482e+02,7.631953e+03
3.259125e+02,7.625612e+03
3.268767e+02,7.624451e+03
3.278409e+02,7.627771e+03
3.288052e+02,7.632461e+03
3.297694e+02,7.635796e+03
3.307336e+02,7.637408e+03
3.316979e+02,7.638615e+03
3.326621e+02,7.640398e+03
3.336263e+02,7.639389e+03
3.345906e+02,7.633222e+03
3.355548e+02,7.623328e+03
3.365190e+02,7.616727e+03
3.374833e+02,7.621012e+03
3.384475e+02,7.636667e+03
3.394117e+02,7.653055e+03
3.403760e+02,7.666599e+03
3.413402e+02,7.675807e+03
3.423044e+02,7.679110e+03
3.432687e+02,7.666732e+03
3.442329e+02,7.653258e+03
3.451971e+02,7.652975e+03
3.461614e+02,7.664255e+03
3.471256e+02,7.673479e+03
3.480898e+02,7.671701e+03
3.490541e+02,7.656503e+03
3.500183e+02,7.646413e+03
3.509825e+02,7.644400e+03
3.519468e+02,7.649351e+03
3.529110e+02,7.661281e+03
3.538752e+02,7.678402e+03
3.548395e+02,7.694432e+03
3.558037e+02,7.699459e+03
3.567680e+02,7.682548e+03
3.577322e+02,7.673180e+03
3.586964e+02,7.681971e+03
3.596607e+02,7.700157e+03
3.606249e+02,7.715943e+03
3.615891e+02,7.720684e+03
3.625534e+02,7.715051e+03
3.635176e+02,7.705981e+03
3.644818e+02,7.695521e+03
3.654461e+02,7.684870e+03
3.664103e+02,7.675825e+03
3.673745e+02,7.671976e+03
3.683388e+02,7.676145e+03
3.693030e+02,7.689294e+03
3.702672e+02,7.705675e+03
3.712315e+02,7.718837e+03
3.721957e+02,7.726861e+03
3.731599e+02,7.730184e+03
3.741242e+02,7.732112e+03
3.750884e+02,7.739744e+03
3.760526e+02,7.745221e+03
3.770169e+02,7.743822e+03
3.779811e+02,7.739240e+03
3.789453e+02,7.736034e+03
3.799096e+02,7.736128e+03
3.808738e+02,7.737478e+03
3.818380e+02,7.734234e+03
3.828023e+02,7.724642e+03
3.837665e+02,7.719991e+03
3.847307e+02,7.725466e+03
3.856950e+02,7.737110e+03
3.866592e+02,7.745415e+03
3.876234e+02,7.739704e+03
3.885877e+02,7.725570e+03
3.895519e+02,7.721158e+03
3.905161e+02,7.730039e+03
3.914804e+02,7.741771e+03
3.924446e+02,7.746083e+03
3.934088e+02,7.744097e+03
3.943731e+02,7.740817e+03
3.953373e+02,7.735220e+03
3.963015e+02,7.728969e+03
3.972658e+02,7.724575e+03
3.982300e+02,7.723864e+03
3.991942e+02,7.728511e+03
4.001585e+02,7.736924e+03
4.011227e+02,7.751238e+03
4.020869e+02,7.761080e+03
4.030512e+02,7.759225e+03
4.040154e+02,7.749780e+03
4.049796e+02,7.741313e+03
4.059439e+02,7.738308e+03
4.069081e+02,7.739818e+03
4.078723e+02,7.743701e+03
4.088366e+02,7.749615e+03
4.098008e+02,7.752650e+03
4.107650e+02,7.753190e+03
4.117293e+02,7.752342e+03
4.126935e+02,7.752231e+03
4.136577e+02,7.753773e+03
4.146220e+02,7.756177e+03
4.155862e+02,7.758837e+03
4.165504e+02,7.761979e+03
4.175147e+02,7.765146e+03
4.184789e+02,7.767136e+03
4.194431e+02,7.765549e+03
4.204074e+02,7.764998e+03
4.213716e+02,7.766792e+03
4.223358e+02,7.768977e+03
4.233001e+02,7.769136e+03
4.242643e+02,7.766293e+03
4.252285e+02,7.763099e+03
4.261928e+02,7.765784e+03
4.271570e+02,7.778628e+03
4.281212e+02,7.789553e+03
4.290855e+02,7.790437e+03
4.300497e+02,7.783947e+03
4.310139e+02,7.776981e+03
4.319782e+02,7.770532e+03
4.329424e+02,7.767083e+03
4.339066e+02,7.769817e+03
4.348709e+02,7.778085e+03
4.358351e+02,7.786077e+03
4.367993e+02,7.788536e+03
4.377636e+02,7.783355e+03
4.387278e+02,7.779091e+03
4.396920e+02,7.777830e+03
4.406563e+02,7.778058e+03
4.416205e+02,7.776660e+03
4.425847e+02,7.772603e+03
4.435490e+02,7.769822e+03
4.445132e+02,7.777636e+03
4.454774e+02,7.801127e+03
4.464417e+02,7.816183e+03
4.474059e+02,7.807589e+03
4.483701e+02,7.788183e+03
4.493344e+02,7.775643e+03
4.502986e+02,7.778558e+03
4.512628e+02,7.786168e+03
4.522271e+02,7.792385e+03
4.531913e+02,7.797075e+03
4.541555e+02,7.799580e+03
4.551198e+02,7.798946e+03
4.560840e+02,7.795544e+03
4.570482e+02,7.789589e+03
4.580125e+02,7.782827e+03
4.589767e+02,7.778660e+03
4.599409e+02,7.776329e+03
4.609052e+02,7.773357e+03
4.618694e+02,7.767976e+03
4.628336e+02,7.757273e+03
4.637979e+02,7.742927e+03
4.647621e+02,7.736969e+03
4.657263e+02,7.746392e+03
4.666906e+02,7.762264e+03
4.676548e+02,7.771737e+03
4.686190e+02,7.771307e+03
4.695833e+02,7.772063e+03
4.705475e+02,7.780781e+03
4.715117e+02,7.790888e+03
4.724760e+02,7.791726e+03
4.734402e+02,7.779539e+03
4.744044e+02,7.762216e+03
4.753687e+02,7.758321e+03
4.763329e+02,7.783083e+03
4.772971e+02,7.798132e+03
4.782614e+02,7.791996e+03
4.792256e+02,7.776141e+03
4.801898e+02,7.763936e+03
4.811541e+02,7.759114e+03
4.821183e+02,7.759997e+03
4.830826e+02,7.766404e+03
4.840468e+02,7.778067e+03
4.850110e+02,7.788313e+03
4.859753e+02,7.794290e+03
4.869395e+02,7.795207e+03
4.879037e+02,7.794783e+03
4.888680e+02,7.789303e+03
4.898322e+02,7.787191e+03
4.907964e+02,7.798458e+03
4.917607e+02,7.820732e+03
4.927249e+02,7.839782e+03
4.936891e+02,7.838787e+03
4.946534e+02,7.815959e+03
4.956176e+02,7.798563e+03
4.965818e+02,7.788178e+03
4.975461e+02,7.784287e+03
4.985103e+02,7.786472e+03
4.994745e+02,7.795594e+03
5.004388e+02,7.799599e+03
5.014030e+02,7.790491e+03
5.023672e+02,7.776042e+03
5.033315e+02,7.769163e+03
5.042957e+02,7.773989e+03
5.052599e+02,7.783406e+03
5.062242e+02,7.783509e+03
5.071884e+02,7.765520e+03
5.081526e+02,7.754889e+03
5.091169e+02,7.760406e+03
5.100811e+02,7.774315e+03
5.110453e+02,7.786224e+03
5.120095e+02,7.792833e+03
5.129738e+02,7.797164e+03
5.139380e+02,7.803445e+03
5.149022e+02,7.811857e+03
5.158665e+02,7.817093e+03
5.168307e+02,7.812549e+03
5.177949e+02,7.794742e+03
5.187592e+02,7.778626e+03
5.197234e+02,7.774888e+03
5.206876e+02,7.774312e+03
5.216519e+02,7.772167e+03
5.226161e+02,7.770072e+03
5.235803e+02,7.771952e+03
5.245446e+02,7.783326e+03
5.255088e+02,7.802252e+03
5.264730e+02,7.815943e+03
5.274373e+02,7.824025e+03
5.284015e+02,7.826826e+03
5.293657e+02,7.821032e+03
5.303300e+02,7.806202e+03
5.312942e+02,7.791829e+03
5.322584e+02,7.784036e+03
5.332227e+02,7.780587e+03
5.341869e+02,7.776292e+03
5.351511e+02,7.768931e+03
5.361154e+02,7.761870e+03
5.370796e+02,7.762249e+03
5.380438e+02,7.773690e+03
5.390081e+02,7.782470e+03
5.399723e+02,7.784787e+03
5.409365e+02,7.786388e+03
5.419008e+02,7.791065e+03
5.428650e+02,7.799602e+03
5.438292e+02,7.804713e+03
5.447935e+02,7.799396e+03
5.457577e+02,7.788356e+03
5.467219e+02,7.782407e+03
5.476862e+02,7.786893e+03
5.486504e+02,7.797154e+03
5.496146e+02,7.799487e+03
5.505789e+02,7.787577e+03
5.515431e+02,7.776538e+03
5.525073e+02,7.773930e+03
5.534716e+02,7.778252e+03
5.544358e+02,7.783175e+03
5.554000e+02,7.780510e+03
5.563643e+02,7.776843e+03
5.573285e+02,7.778935e+03
5.582927e+02,7.785545e+03
5.592570e+02,7.794752e+03
5.602212e+02,7.808303e+03
5.611854e+02,7.825393e+03
5.621497e+02,7.830950e+03
5.631139e+02,7.809250e+03
5.640781e+02,7.786268e+03
5.650424e+02,7.772786e+03
5.660066e+02,7.767726e+03
5.669708e+02,7.763239e+03
5.679351e+02,7.755952e+03
5.688993e+02,7.747750e+03
5.698635e+02,7.740058e+03
5.708278e+02,7.733443e+03
5.717920e+02,7.732350e+03
5.727562e+02,7.739804e+03
5.737205e+02,7.757485e+03
5.746847e+02,7.771376e+03
5.756489e+02,7.781208e+03
5.766132e+02,7.786039e+03
5.775774e+02,7.784960e+03
5.785416e+02,7.778461e+03
5.795059e+02,7.770626e+03
5.804701e+02,7.763366e+03
5.814343e+02,7.757131e+03
5.823986e+02,7.754320e+03
5.833628e+02,7.756622e+03
5.843270e+02,7.760634e+03
5.852913e+02,7.760857e+03
5.862555e+02,7.750183e+03
5.872197e+02,7.746744e+03
5.881840e+02,7.756563e+03
5.891482e+02,7.768325e+03
5.901124e+02,7.772033e+03
5.910767e+02,7.763879e+03
5.920409e+02,7.753989e+03
5.930051e+02,7.753979e+03
5.939694e+02,7.761033e+03
5.949336e+02,7.761972e+03
5.958978e+02,7.751687e+03
5.968621e+02,7.735097e+03
5.978263e+02,7.724075e+03
5.987905e+02,7.723171e+03
5.997548e+02,7.725298e+03
6.007190e+02,7.733390e+03
6.016832e+02,7.744571e+03
6.026475e+02,7.753904e+03
6.036117e+02,7.757002e+03
6.045759e+02,7.757427e+03
6.055402e+02,7.761119e+03
6.065044e+02,7.766161e+03
6.074686e+02,7.763756e+03
6.084329e+02,7.749160e+03
6.093971e+02,7.727132e+03
6.103613e+02,7.717459e+03
6.113256e+02,7.739392e+03
6.122899e+02,7.754084e+03
6.132541e+02,7.748328e+03
6.142183e+02,7.731341e+03
6.151826e+02,7.719787e+03
6.161468e+02,7.730068e+03
6.171110e+02,7.746992e+03
6.180753e+02,7.747929e+03
6.190395e+02,7.733824e+03
6.200037e+02,7.719905e+03
6.209680e+02,7.714569e+03
6.219322e+02,7.718614e+03
6.228964e+02,7.726813e+03
6.238607e+02,7.746966e+03
6.248249e+02,7.761479e+03
6.257891e+02,7.760295e+03
6.267534e+02,7.745379e+03
6.277176e+02,7.728703e+03
6.286818e+02,7.715856e+03
6.296461e+02,7.707583e+03
6.306103e+02,7.705345e+03
6.315745e+02,7.708952e+03
6.325388e+02,7.713952e+03
6.335030e+02,7.715365e+03
6.344672e+02,7.711810e+03
6.354315e+02,7.710240e+03
6.363957e+02,7.709614e+03
6.373599e+02,7.708413e+03
6.383242e+02,7.708935e+03
6.392884e+02,7.711682e+03
6.402526e+02,7.712138e+03
6.412169e+02,7.707444e+03
6.421811e+02,7.700187e+03
6.431453e+02,7.692576e+03
6.441096e+02,7.684712e+03
6.450738e+02,7.676136e+03
6.460380e+02,7.665369e+03
6.470023e+02,7.653788e+03
6.479665e+02,7.654437e+03
6.489307e+02,7.671273e+03
6.498950e+02,7.690560e+03
6.508592e+02,7.701049e+03
6.518234e+02,7.701696e+03
6.527877e+02,7.698271e+03
6.537519e+02,7.689541e+03
6.547161e+02,7.679561e+03
6.556804e+02,7.671079e+03
6.566446e+02,7.664915e+03
6.576088e+02,7.660585e+03
6.585731e+02,7.657666e+03
6.595373e+02,7.656038e+03
6.605015e+02,7.655294e+03
6.614658e+02,7.655610e+03
6.624300e+02,7.656688e+03
6.633942e+02,7.658099e+03
6.643585e+02,7.658752e+03
6.653227e+02,7.661508e+03
6.662869e+02,7.664477e+03
6.672512e+02,7.668583e+03
6.682154e+02,7.676232e+03
6.691796e+02,7.686517e+03
6.701439e+02,7.693526e+03
6.711081e+02,7.692962e+03
6.720723e+02,7.686547e+03
6.730366e+02,7.676674e+03
6.740008e+02,7.664298e+03
6.749650e+02,7.653959e+03
6.759293e+02,7.653102e+03
6.768935e+02,7.670162e+03
6.778577e+02,7.674897e+03
6.788220e+02,7.654744e+03
6.797862e+02,7.636042e+03
6.807504e+02,7.635632e+03
6.817147e+02,7.656042e+03
6.826789e+02,7.672156e+03
6.836431e+02,7.669115e+03
6.846074e+02,7.656701e+03
6.855716e+02,7.648075e+03
6.865358e+02,7.646952e+03
6.875001e+02,7.647566e+03
6.884643e+02,7.642417e+03
6.894285e+02,7.631862e+03
6.903928e+02,7.620688e+03
6.913570e+02,7.605841e+03
6.923212e+02,7.593992e+03
6.932855e+02,7.594470e+03
6.942497e+02,7.620288e+03
6.952139e+02,7.638929e+03
6.961782e+02,7.646461e+03
6.971424e+02,7.647256e+03
6.981066e+02,7.640439e+03
6.990709e+02,7.623169e+03
7.000351e+02,7.603792e+03
7.009993e+02,7.591308e+03
7.019636e+02,7.586845e+03
7.029278e+02,7.590939e+03
7.038920e+02,7.603563e+03
7.048563e+02,7.614526e+03
7.058205e+02,7.610763e+03
7.067847e+02,7.587611e+03
7.077490e+02,7.577252e+03
7.087132e+02,7.596726e+03
7.096774e+02,7.622429e+03
7.106417e+02,7.626797e+03
7.116059e+02,7.601483e+03
7.125701e+02,7.583697e+03
7.135344e+02,7.593881e+03
7.144986e+02,7.612406e+03
7.154628e+02,7.619563e+03
7.164271e+02,7.611479e+03
7.173913e+02,7.597823e+03
7.183555e+02,7.585656e+03
7.193198e+02,7.575229e+03
7.202840e+02,7.570804e+03
7.212482e+02,7.575213e+03
7.222125e+02,7.582232e+03
7.231767e+02,7.583965e+03
7.241409e+02,7.575705e+03
7.251052e+02,7.569083e+03
7.260694e+02,7.563924e+03
7.270336e+02,7.559744e+03
7.279979e+02,7.557971e+03
7.289621e+02,7.558501e+03
7.299263e+02,7.560619e+03
7.308906e+02,7.567170e+03
7.318548e+02,7.572025e+03
7.328190e+02,7.568029e+03
7.337833e+02,7.555163e+03
7.347475e+02,7.540378e+03
7.357117e+02,7.530454e+03
7.366760e+02,7.526702e+03
7.376402e+02,7.531620e+03
7.386044e+02,7.549485e+03
7.395687e+02,7.565329e+03
7.405329e+02,7.563563e+03
7.414971e+02,7.537279e+03
7.424614e+02,7.520578e+03
7.434256e+02,7.521735e+03
7.443898e+02,7.531970e+03
7.453541e+02,7.547796e+03
7.463183e+02,7.563913e+03
7.472825e+02,7.571718e+03
7.482468e+02,7.564088e+03
7.492110e+02,7.549346e+03
7.501752e+02,7.536973e+03
7.511395e+02,7.530836e+03
7.521037e+02,7.531474e+03
7.530679e+02,7.539417e+03
7.540322e+02,7.551071e+03
7.549964e+02,7.552868e+03
7.559606e+02,7.544327e+03
7.569249e+02,7.533619e+03
7.578891e+02,7.525463e+03
7.588533e+02,7.520702e+03
7.598176e+02,7.518443e+03
7.607818e+02,7.508967e+03
7.617460e+02,7.499356e+03
7.627103e+02,7.498198e+03
7.636745e+02,7.505132e+03
7.646387e+02,7.509418e+03
7.656030e+02,7.502001e+03
7.665672e+02,7.493391e+03
7.675314e+02,7.488579e+03
7.684957e+02,7.483244e+03
7.694599e+02,7.475426e+03
7.704241e+02,7.468177e+03
7.713884e+02,7.464048e+03
7.723526e+02,7.463890e+03
7.733168e+02,7.469772e+03
7.742811e+02,7.477295e+03
7.752453e+02,7.479582e+03
7.762095e+02,7.475922e+03
7.771738e+02,7.477067e+03
7.781380e+02,7.486821e+03
7.791022e+02,7.490677e+03
7.800665e+02,7.487151e+03
7.810307e+02,7.479210e+03
7.819949e+02,7.470789e+03
7.829592e+02,7.462453e+03
7.839234e+02,7.459182e+03
7.848876e+02,7.465649e+03
7.858519e+02,7.475862e+03
7.868161e+02,7.480908e+03
7.877803e+02,7.476420e+03
7.887446e+02,7.466991e+03
7.897088e+02,7.460430e+03
7.906730e+02,7.458973e+03
7.916373e+02,7.460086e+03
7.926015e+02,7.459274e+03
7.935657e+02,7.453688e+03
7.945300e+02,7.447182e+03
7.954942e+02,7.443603e+03
7.964584e+02,7.437247e+03
7.974227e+02,7.431539e+03
7.983869e+02,7.431768e+03
7.993511e+02,7.436017e+03
8.003154e+02,7.443921e+03
8.012796e+02,7.442519e+03
8.022438e+02,7.426734e+03
8.032081e+02,7.408575e+03
8.041723e+02,7.396525e+03
8.051365e+02,7.391282e+03
8.061008e+02,7.391866e+03
8.070650e+02,7.400984e+03
8.080292e+02,7.411838e+03
8.089935e+02,7.416427e+03
8.099577e+02,7.415510e+03
8.109219e+02,7.412163e+03
8.118862e+02,7.406374e+03
8.128504e+02,7.398370e+03
8.138146e+02,7.398081e+03
8.147789e+02,7.407801e+03
8.157431e+02,7.415647e+03
8.167073e+02,7.413686e+03
8.176716e+02,7.404397e+03
8.186358e+02,7.394228e+03
8.196000e+02,7.372188e+03
8.205643e+02,7.358664e+03
8.215285e+02,7.364695e+03
8.224927e+02,7.386720e+03
8.234570e+02,7.400052e+03
8.244212e+02,7.393818e+03
8.253854e+02,7.381778e+03
8.263497e+02,7.367043e+03
8.273139e+02,7.350187e+03
8.282781e+02,7.336130e+03
8.292424e+02,7.331306e+03
8.302066e+02,7.334919e+03
8.311708e+02,7.347363e+03
8.321351e+02,7.366263e+03
8.330993e+02,7.378567e+03
8.340635e+02,7.374647e+03
8.350278e+02,7.359991e+03
8.359920e+02,7.354584e+03
8.369562e+02,7.360946e+03
8.379205e+02,7.364342e+03
8.388847e+02,7.358545e+03
8.398489e+02,7.347959e+03
8.408132e+02,7.342760e+03
8.417774e+02,7.349499e+03
8.427416e+02,7.349719e+03
8.437059e+02,7.337388e+03
8.446701e+02,7.320293e+03
8.456343e+02,7.306761e+03
8.465986e+02,7.296404e+03
8.475628e+02,7.290739e+03
8.485270e+02,7.292738e+03
8.494913e+02,7.298122e+03
8.504555e+02,7.304767e+03
8.514197e+02,7.313117e+03
8.523840e+02,7.319725e+03
8.533482e+02,7.318377e+03
8.543124e+02,7.311750e+03
8.552767e+02,7.305230e+03
8.562409e+02,7.299222e+03
8.572051e+02,7.294678e+03
8.581694e+02,7.297610e+03
8.591336e+02,7.307642e+03
8.600978e+02,7.306005e+03
8.610621e+02,7.291182e+03
8.620263e+02,7.274828e+03
8.629905e+02,7.261693e+03
8.639548e+02,7.248712e+03
8.649190e+02,7.246968e+03
8.658832e+02,7.272427e+03
8.668475e+02,7.294814e+03
8.678117e+02,7.296124e+03
8.687759e+02,7.280156e+03
8.697402e+02,7.271588e+03
8.707044e+02,7.273539e+03
8.716686e+02,7.273433e+03
8.726329e+02,7.273404e+03
8.735971e+02,7.272778e+03
8.745613e+02,7.267500e+03
8.755256e+02,7.252233e+03
8.764898e+02,7.240895e+03
8.774540e+02,7.243626e+03
8.784183e+02,7.253696e+03
8.793825e+02,7.260414e+03
8.803467e+02,7.259320e+03
8.813110e+02,7.254738e+03
8.822752e+02,7.252621e+03
8.832394e+02,7.253862e+03
8.842037e+02,7.256789e+03
8.851679e+02,7.259286e+03
8.861321e+02,7.259085e+03
8.870964e+02,7.253398e+03
8.880606e+02,7.241286e+03
8.890248e+02,7.232899e+03
8.899891e+02,7.234142e+03
8.909533e+02,7.236603e+03
8.919175e+02,7.229711e+03
8.928818e+02,7.209797e+03
8.938460e+02,7.196211e+03
8.948102e+02,7.185529e+03
8.957745e+02,7.181271e+03
8.967387e+02,7.192306e+03
8.977029e+02,7.215985e+03
8.986672e+02,7.224724e+03
8.996314e+02,7.205611e+03
9.005956e+02,7.189979e+03
9.015599e+02,7.194202e+03
9.025241e+02,7.210218e+03
9.034883e+02,7.218364e+03
9.044526e+02,7.204130e+03
9.054168e+02,7.183313e+03
9.063810e+02,7.168099e+03
9.073453e+02,7.160992e+03
9.083095e+02,7.160190e+03
9.092737e+02,7.163888e+03
9.102380e+02,7.166676e+03
9.112022e+02,7.161736e+03
9.121664e+02,7.151707e+03
9.131307e+02,7.144721e+03
9.140949e+02,7.145489e+03
9.150591e+02,7.154086e+03
9.160234e+02,7.169868e+03
9.169876e+02,7.187174e+03
9.179518e+02,7.187857e+03
9.189161e+02,7.167864e+03
9.198803e+02,7.141854e+03
9.208445e+02,7.128513e+03
9.218088e+02,7.132445e+03
9.227730e+02,7.129716e+03
9.237372e+02,7.114669e+03
9.247015e+02,7.099838e+03
9.256657e+02,7.093746e+03
9.266299e+02,7.096173e+03
9.275942e+02,7.099444e+03
9.285584e+02,7.103057e+03
9.295226e+02,7.104923e+03
9.304869e+02,7.105580e+03
9.314511e+02,7.105921e+03
9.324153e+02,7.105230e+03
9.333796e+02,7.098618e+03
9.343438e+02,7.095984e+03
9.353080e+02,7.105211e+03
9.362723e+02,7.114774e+03
9.372365e+02,7.110815e+03
9.382007e+02,7.084961e+03
9.391650e+02,7.063896e+03
9.401292e+02,7.060603e+03
9.410934e+02,7.067133e+03
9.420577e+02,7.074758e+03
9.430219e+02,7.080967e+03
9.439861e+02,7.081675e+03
9.449504e+02,7.070519e+03
9.459146e+02,7.059307e+03
9.468788e+02,7.062396e+03
9.478431e+02,7.076211e+03
9.488073e+02,7.085462e+03
9.497715e+02,7.078089e+03
9.507358e+02,7.061998e+03
9.517000e+02,7.054414e+03
9.526642e+02,7.056982e+03
9.536285e+02,7.058824e+03
9.545927e+02,7.050267e+03
9.555569e+02,7.035268e+03
9.565212e+02,7.027461e+03
9.574854e+02,7.029331e+03
9.584496e+02,7.037344e+03
9.594139e+02,7.048709e+03
9.603781e+02,7.058432e+03
9.613423e+02,7.057786e+03
9.623066e+02,7.044717e+03
9.632708e+02,7.032862e+03
9.642350e+02,7.026326e+03
9.651993e+02,7.024082e+03
9.661635e+02,7.022304e+03
9.671277e+02,7.018576e+03
9.680920e+02,7.015271e+03
9.690562e+02,7.014265e+03
9.700204e+02,7.010554e+03
9.709847e+02,7.001289e+03
9.719489e+02,6.986344e+03
9.729131e+02,6.978034e+03
9.738774e+02,6.983798e+03
9.748416e+02,6.992074e+03
9.758058e+02,6.995276e+03
9.767701e+02,6.992425e+03
9.777343e+02,6.989924e+03
9.786985e+02,6.990439e+03
9.796628e+02,6.987731e+03
9.806270e+02,6.980653e+03
9.815912e+02,6.969657e+03
9.825555e+02,6.955798e+03
9.835197e+02,6.937873e+03
9.844839e+02,6.925392e+03
9.854482e+02,6.925985e+03
9.864124e+02,6.933492e+03
9.873766e+02,6.940032e+03
9.883409e+02,6.944626e+03
9.893051e+02,6.946208e+03
9.902693e+02,6.938633e+03
9.912336e+02,6.931511e+03
9.921978e+02,6.935483e+03
9.931620e+02,6.948221e+03
9.941263e+02,6.957194e+03
9.950905e+02,6.950442e+03
9.960547e+02,6.938705e+03
9.970190e+02,6.936999e+03
9.979832e+02,6.942132e+03
9.989474e+02,6.942657e+03
9.999117e+02,6.933096e+03
1.000876e+03,6.919670e+03
1.001840e+03,6.909429e+03
1.002804e+03,6.903755e+03
1.003769e+03,6.901854e+03
1.004733e+03,6.901572e+03
1.005697e+03,6.902410e+03
1.006661e+03,6.906853e+03
1.007626e+03,6.913943e+03
1.008590e+03,6.915823e+03
1.009554e+03,6.909270e+03
1.010518e+03,6.899792e+03
1.011482e+03,6.897028e+03
1.012447e+03,6.899384e+03
1.013411e+03,6.894391e+03
1.014375e+03,6.884457e+03
1.015339e+03,6.875814e+03
1.016304e+03,6.871047e+03
1.017268e+03,6.868560e+03
1.018232e+03,6.861476e+03
1.019196e+03,6.847720e+03
1.020161e+03,6.838649e+03
1.021125e+03,6.841364e+03
1.022089e+03,6.852858e+03
1.023053e+03,6.859705e+03
1.024018e+03,6.858048e+03
1.024982e+03,6.858572e+03
1.025946e+03,6.863943e+03
1.026910e+03,6.866035e+03
1.027875e+03,6.856733e+03
1.028839e+03,6.834482e+03
1.029803e+03,6.820895e+03
1.030767e+03,6.817903e+03
1.031731e+03,6.821535e+03
1.032696e+03,6.829200e+03
1.033660e+03,6.840563e+03
1.034624e+03,6.846742e+03
1.035588e+03,6.847252e+03
1.036552e+03,6.848313e+03
1.037517e+03,6.850790e+03
1.038481e+03,6.852377e+03
1.039445e+03,6.851925e+03
1.040409e+03,6.851122e+03
1.041374e+03,6.845946e+03
1.042338e+03,6.835347e+03
1.043302e+03,6.823347e+03
1.044266e+03,6.813462e+03
1.045231e+03,6.806338e+03
1.046195e+03,6.798237e+03
1.047159e+03,6.787452e+03
1.048123e+03,6.779875e+03
1.049088e+03,6.780572e+03
1.050052e+03,6.793003e+03
1.051016e+03,6.803846e+03
1.051980e+03,6.814156e+03
1.052945e+03,6.820201e+03
1.053909e+03,6.815799e+03
1.054873e+03,6.800529e+03
1.055837e+03,6.784836e+03
1.056802e+03,6.766857e+03
1.057766e+03,6.756296e+03
1.058730e+03,6.765406e+03
1.059694e+03,6.779866e+03
1.060658e+03,6.779960e+03
1.061623e+03,6.754548e+03
1.062587e+03,6.736356e+03
1.063551e+03,6.733803e+03
1.064515e+03,6.736665e+03
1.065479e+03,6.736583e+03
1.066444e+03,6.734031e+03
1.067408e+03,6.734572e+03
1.068372e+03,6.741970e+03
1.069336e+03,6.749519e+03
1.070301e+03,6.750344e+03
1.071265e+03,6.744787e+03
1.072229e+03,6.740111e+03
1.073193e+03,6.740748e+03
1.074158e+03,6.738280e+03
1.075122e+03,6.727209e+03
1.076086e+03,6.713667e+03
1.077050e+03,6.706922e+03
1.078015e+03,6.716213e+03
1.078979e+03,6.724720e+03
1.079943e+03,6.724947e+03
1.080907e+03,6.724225e+03
1.081872e+03,6.726613e+03
1.082836e+03,6.730647e+03
1.083800e+03,6.730521e+03
1.084764e+03,6.721396e+03
1.085729e+03,6.715119e+03
1.086693e+03,6.719186e+03
1.087657e+03,6.728705e+03
1.088621e+03,6.732507e+03
1.089585e+03,6.724500e+03
1.090550e+03,6.712066e+03
1.091514e+03,6.696542e+03
1.092478e+03,6.683214e+03
1.093442e+03,6.676981e+03
1.094406e+03,6.681674e+03
1.095371e+03,6.685987e+03
1.096335e+03,6.683291e+03
1.097299e+03,6.680569e+03
1.098263e+03,6.683985e+03
1.099228e+03,6.692523e+03
1.100192e+03,6.696330e+03
1.101156e+03,6.686653e+03
1.102120e+03,6.678274e+03
1.103085e+03,6.680439e+03
1.104049e+03,6.687998e+03
1.105013e+03,6.690182e+03
1.105977e+03,6.684321e+03
1.106942e+03,6.675662e+03
1.107906e+03,6.660988e+03
1.108870e+03,6.647152e+03
1.109834e+03,6.640878e+03
1.110799e+03,6.645001e+03
1.111763e+03,6.647582e+03
1.112727e+03,6.646563e+03
1.113691e+03,6.646508e+03
1.114656e+03,6.649776e+03
1.115620e+03,6.655544e+03
1.116584e+03,6.658058e+03
1.117548e+03,6.645427e+03
1.118512e+03,6.637729e+03
1.119477e+03,6.647022e+03
1.120441e+03,6.661990e+03
1.121405e+03,6.666366e+03
1.122369e+03,6.654527e+03
1.123334e+03,6.640934e+03
1.124298e+03,6.624179e+03
1.125262e+03,6.609158e+03
1.126226e+03,6.599276e+03
1.127191e+03,6.595144e+03
1.128155e+03,6.595279e+03
1.129119e+03,6.599384e+03
1.130083e+03,6.605142e+03
1.131047e+03,6.613888e+03
1.132012e+03,6.621521e+03
1.132976e+03,6.618993e+03
1.133940e+03,6.600903e+03
1.134904e+03,6.582633e+03
1.135869e+03,6.567589e+03
1.136833e+03,6.555880e+03
1.137797e+03,6.547313e+03
1.138761e+03,6.544244e+03
1.139726e+03,6.543579e+03
1.140690e+03,6.544271e+03
1.141654e+03,6.547099e+03
1.142618e+03,6.553859e+03
1.143583e+03,6.563437e+03
1.144547e+03,6.561283e+03
1.145511e+03,6.542321e+03
1.146475e+03,6.530689e+03
1.147439e+03,6.534694e+03
1.148404e+03,6.547640e+03
1.149368e+03,6.556000e+03
1.150332e+03,6.558718e+03
1.151296e+03,6.559680e+03
1.152261e+03,6.556622e+03
1.153225e+03,6.545925e+03
1.154189e+03,6.526424e+03
1.155153e+03,6.502561e+03
1.156118e+03,6.491667e+03
1.157082e+03,6.496170e+03
1.158046e+03,6.502641e+03
1.159010e+03,6.502626e+03
1.159974e+03,6.498632e+03
1.160939e+03,6.495084e+03
1.161903e+03,6.490964e+03
1.162867e+03,6.489450e+03
1.163831e+03,6.491010e+03
1.164796e+03,6.491237e+03
1.165760e+03,6.487345e+03
1.166724e+03,6.480902e+03
1.167688e+03,6.472444e+03
1.168653e+03,6.462595e+03
1.169617e+03,6.453958e+03
1.170581e+03,6.449813e+03
1.171545e+03,6.447763e+03
1.172510e+03,6.441410e+03
1.173474e+03,6.434641e+03
1.174438e+03,6.436382e+03
1.175402e+03,6.449444e+03
1.176366e+03,6.461573e+03
1.177331e+03,6.460397e+03
1.178295e+03,6.454342e+03
1.179259e+03,6.452983e+03
1.180223e+03,6.455282e+03
1.181188e+03,6.455575e+03
1.182152e+03,6.452209e+03
1.183116e+03,6.444967e+03
1.184080e+03,6.433700e+03
1.185045e+03,6.421123e+03
1.186009e+03,6.409869e+03
1.186973e+03,6.402640e+03
1.187937e+03,6.397392e+03
1.188901e+03,6.390000e+03
1.189866e+03,6.384865e+03
1.190830e+03,6.385370e+03
1.191794e+03,6.390648e+03
1.192758e+03,6.395259e+03
1.193723e+03,6.404412e+03
1.194687e+03,6.411143e+03
1.195651e+03,6.407244e+03
1.196615e+03,6.397750e+03
1.197580e+03,6.395763e+03
1.198544e+03,6.404537e+03
1.199508e+03,6.407063e+03
1.200472e+03,6.406836e+03
1.201437e+03,6.401779e+03
1.202401e+03,6.388805e+03
1.203365e+03,6.367219e+03
1.204329e+03,6.357830e+03
1.205293e+03,6.364971e+03
1.206258e+03,6.370600e+03
1.207222e+03,6.364041e+03
1.208186e+03,6.350765e+03
1.209150e+03,6.351913e+03
1.210115e+03,6.367842e+03
1.211079e+03,6.373832e+03
1.212043e+03,6.364851e+03
1.213007e+03,6.350697e+03
1.213972e+03,6.344334e+03
1.214936e+03,6.346180e+03
1.215900e+03,6.350008e+03
1.216864e+03,6.355481e+03
1.217828e+03,6.356480e+03
1.218793e+03,6.347716e+03
1.219757e+03,6.335575e+03
1.220721e+03,6.330195e+03
1.221685e+03,6.330628e+03
1.222650e+03,6.331993e+03
1.223614e+03,6.331012e+03
1.224578e+03,6.328319e+03
1.225542e+03,6.326281e+03
1.226507e+03,6.325957e+03
1.227471e+03,6.329951e+03
1.228435e+03,6.334558e+03
1.229399e+03,6.330712e+03
1.230364e+03,6.308252e+03
1.231328e+03,6.285943e+03
1.232292e+03,6.279849e+03
1.233256e+03,6.281792e+03
1.234220e+03,6.276774e+03
1.235185e+03,6.260095e+03
1.236149e+03,6.247818e+03
1.237113e+03,6.239578e+03
1.238077e+03,6.241639e+03
1.239042e+03,6.261169e+03
1.240006e+03,6.291693e+03
1.240970e+03,6.302839e+03
1.241934e+03,6.282425e+03
1.242899e+03,6.263375e+03
1.243863e+03,6.252851e+03
1.244827e+03,6.248928e+03
1.245791e+03,6.249966e+03
1.246755e+03,6.258327e+03
1.247720e+03,6.256031e+03
1.248684e+03,6.240903e+03
1.249648e+03,6.228499e+03
1.250612e+03,6.229243e+03
1.251577e+03,6.237560e+03
1.252541e+03,6.236922e+03
1.253505e+03,6.227940e+03
1.254469e+03,6.220533e+03
1.255434e+03,6.218681e+03
1.256398e+03,6.220903e+03
1.257362e+03,6.224687e+03
1.258326e+03,6.228164e+03
1.259291e+03,6.231752e+03
1.260255e+03,6.233593e+03
1.261219e+03,6.228617e+03
1.262183e+03,6.210843e+03
1.263147e+03,6.195152e+03
1.264112e+03,6.194765e+03
1.265076e+03,6.201672e+03
1.266040e+03,6.202431e+03
1.267004e+03,6.191826e+03
1.267969e+03,6.183818e+03
1.268933e+03,6.187538e+03
1.269897e+03,6.196181e+03
1.270861e+03,6.200777e+03
1.271826e+03,6.197359e+03
1.272790e+03,6.195341e+03
1.273754e+03,6.198110e+03
1.274718e+03,6.201216e+03
1.275682e+03,6.208757e+03
1.276647e+03,6.216105e+03
1.277611e+03,6.214590e+03
1.278575e+03,6.202006e+03
1.279539e+03,6.190407e+03
1.280504e+03,6.182998e+03
1.281468e+03,6.179827e+03
1.282432e+03,6.180263e+03
1.283396e+03,6.181987e+03
1.284361e+03,6.176665e+03
1.285325e+03,6.165733e+03
1.286289e+03,6.162677e+03
1.287253e+03,6.170925e+03
1.288218e+03,6.177609e+03
1.289182e+03,6.169457e+03
1.290146e+03,6.155662e+03
1.291110e+03,6.148080e+03
1.292074e+03,6.146431e+03
1.293039e+03,6.143921e+03
1.294003e+03,6.134540e+03
1.294967e+03,6.124703e+03
1.295931e+03,6.119941e+03
1.296896e+03,6.118023e+03
1.297860e+03,6.114330e+03
1.298824e+03,6.105249e+03
1.299788e+03,6.103418e+03
1.300753e+03,6.116574e+03
1.301717e+03,6.124574e+03
1.302681e+03,6.117496e+03
1.303645e+03,6.101137e+03
1.304609e+03,6.092367e+03
1.305574e+03,6.089839e+03
1.306538e+03,6.088059e+03
1.307502e+03,6.089642e+03
1.308466e+03,6.091658e+03
1.309431e+03,6.089029e+03
1.310395e+03,6.082990e+03
1.311359e+03,6.075658e+03
1.312323e+03,6.065300e+03
1.313288e+03,6.054672e+03
1.314252e+03,6.047386e+03
1.315216e+03,6.045775e+03
1.316180e+03,6.053512e+03
1.317145e+03,6.064732e+03
1.318109e+03,6.069484e+03
1.319073e+03,6.064676e+03
1.320037e+03,6.060496e+03
1.321001e+03,6.065890e+03
1.321966e+03,6.067756e+03
1.322930e+03,6.060715e+03
1.323894e+03,6.050383e+03
1.324858e+03,6.043716e+03
1.325823e+03,6.043146e+03
1.326787e+03,6.038898e+03
1.327751e+03,6.025587e+03
1.328715e+03,6.016061e+03
1.329680e+03,6.021806e+03
1.330644e+03,6.038451e+03
1.331608e+03,6.044424e+03
1.332572e+03,6.040042e+03
1.333536e+03,6.036568e+03
1.334501e+03,6.036323e+03
1.335465e+03,6.035012e+03
1.336429e+03,6.029419e+03
1.337393e+03,6.023259e+03
1.338358e+03,6.021543e+03
1.339322e+03,6.023415e+03
1.340286e+03,6.023965e+03
1.341250e+03,6.020375e+03
1.342215e+03,6.015114e+03
1.343179e+03,6.014715e+03
1.344143e+03,6.015975e+03
1.345107e+03,6.009815e+03
1.346072e+03,5.989816e+03
1.347036e+03,5.979411e+03
1.348000e+03,5.981139e+03
1.348964e+03,5.984657e+03
1.349928e+03,5.989661e+03
1.350893e+03,5.994736e+03
1.351857e+03,5.990495e+03
1.352821e+03,5.976111e+03
1.353785e+03,5.964935e+03
1.354750e+03,5.957881e+03
1.355714e+03,5.952212e+03
1.356678e+03,5.951154e+03
1.357642e+03,5.951961e+03
1.358607e+03,5.944814e+03
1.359571e+03,5.932738e+03
1.360535e+03,5.923826e+03
1.361499e+03,5.921470e+03
1.362464e+03,5.924648e+03
1.363428e+03,5.940408e+03
1.364392e+03,5.957187e+03
1.365356e+03,5.963128e+03
1.366320e+03,5.956122e+03
1.367285e+03,5.947951e+03
1.368249e+03,5.940940e+03
1.369213e+03,5.933304e+03
1.370177e+03,5.923547e+03
1.371142e+03,5.915757e+03
1.372106e+03,5.917359e+03
1.373070e+03,5.926417e+03
1.374034e+03,5.927228e+03
1.374999e+03,5.921952e+03
1.375963e+03,5.919734e+03
1.376927e+03,5.927593e+03
1.377891e+03,5.933366e+03
1.378855e+03,5.916993e+03
1.379820e+03,5.893203e+03
1.380784e+03,5.882479e+03
1.381748e+03,5.889328e+03
1.382712e+03,5.896938e+03
1.383677e+03,5.899750e+03
1.384641e+03,5.896561e+03
1.385605e+03,5.882501e+03
1.386569e+03,5.864342e+03
1.387534e+03,5.853489e+03
1.388498e+03,5.851650e+03
1.389462e+03,5.852650e+03
1.390426e+03,5.855542e+03
1.391391e+03,5.853428e+03
1.392355e+03,5.840555e+03
1.393319e+03,5.826265e+03
1.394283e+03,5.829279e+03
1.395247e+03,5.842431e+03
1.396212e+03,5.850934e+03
1.397176e+03,5.851352e+03
1.398140e+03,5.849804e+03
1.399104e+03,5.848181e+03
1.400069e+03,5.844875e+03
1.401033e+03,5.839118e+03
1.401997e+03,5.831328e+03
1.402961e+03,5.822603e+03
1.403926e+03,5.810839e+03
1.404890e+03,5.802095e+03
1.405854e+03,5.798190e+03
1.406818e+03,5.797225e+03
1.407782e+03,5.798921e+03
1.408747e+03,5.803517e+03
1.409711e+03,5.804446e+03
1.410675e+03,5.800275e+03
1.411639e+03,5.799964e+03
1.412604e+03,5.807692e+03
1.413568e+03,5.814442e+03
1.414532e+03,5.816516e+03
1.415496e+03,5.814818e+03
1.416461e+03,5.802650e+03
1.417425e+03,5.782930e+03
1.418389e+03,5.772310e+03
1.419353e+03,5.785869e+03
1.420318e+03,5.790757e+03
1.421282e+03,5.784930e+03
1.422246e+03,5.774755e+03
1.423210e+03,5.762466e+03
1.424174e+03,5.750120e+03
1.425139e+03,5.746819e+03
1.426103e+03,5.750380e+03
1.427067e+03,5.756406e+03
1.428031e+03,5.764448e+03
1.428996e+03,5.772083e+03
1.429960e+03,5.778581e+03
1.430924e+03,5.779932e+03
1.431888e+03,5.769163e+03
1.432853e+03,5.749209e+03
1.433817e+03,5.733417e+03
1.434781e+03,5.727615e+03
1.435745e+03,5.725638e+03
1.436709e+03,5.727141e+03
1.437674e+03,5.726041e+03
1.438638e+03,5.717747e+03
1.439602e+03,5.705073e+03
1.440566e+03,5.701064e+03
1.441531e+03,5.704225e+03
1.442495e+03,5.705416e+03
1.443459e+03,5.699706e+03
1.444423e+03,5.694037e+03
1.445388e+03,5.695401e+03
1.446352e+03,5.698346e+03
1.447316e+03,5.701361e+03
1.448280e+03,5.705104e+03
1.449245e+03,5.703327e+03
1.450209e+03,5.685926e+03
1.451173e+03,5.675747e+03
1.452137e+03,5.675131e+03
1.453101e+03,5.675284e+03
1.454066e+03,5.668703e+03
1.455030e+03,5.657300e+03
1.455994e+03,5.654792e+03
1.456958e+03,5.660171e+03
1.457923e+03,5.667935e+03
1.458887e+03,5.675161e+03
1.459851e+03,5.680344e+03
1.460815e+03,5.681083e+03
1.461780e+03,5.678489e+03
1.462744e+03,5.678490e+03
1.463708e+03,5.681033e+03
1.464672e+03,5.675696e+03
1.465636e+03,5.658216e+03
1.466601e+03,5.646046e+03
1.467565e+03,5.642133e+03
1.468529e+03,5.641316e+03
1.469493e+03,5.636211e+03
1.470458e+03,5.627719e+03
1.471422e+03,5.625832e+03
1.472386e+03,5.630407e+03
1.473350e+03,5.637927e+03
1.474315e+03,5.647431e+03
1.475279e+03,5.652392e+03
1.476243e+03,5.642673e+03
1.477207e+03,5.630438e+03
1.478172e+03,5.630124e+03
1.479136e+03,5.638181e+03
1.480100e+03,5.634149e+03
1.481064e+03,5.614941e+03
1.482028e+03,5.597413e+03
1.482993e+03,5.583790e+03
1.483957e+03,5.576470e+03
1.484921e+03,5.578266e+03
1.485885e+03,5.585421e+03
1.486850e+03,5.592521e+03
1.487814e+03,5.597057e+03
1.488778e+03,5.597404e+03
1.489742e+03,5.594374e+03
1.490707e+03,5.585021e+03
1.491671e+03,5.561758e+03
1.492635e+03,5.546203e+03
1.493599e+03,5.547981e+03
1.494563e+03,5.559245e+03
1.495528e+03,5.562915e+03
1.496492e+03,5.558342e+03
1.497456e+03,5.552936e+03
1.498420e+03,5.549403e+03
1.499385e+03,5.547372e+03
1.500349e+03,5.547729e+03
1.501313e+03,5.548484e+03
1.502277e+03,5.544510e+03
1.503242e+03,5.539478e+03
1.504206e+03,5.540007e+03
1.505170e+03,5.549380e+03
1.506134e+03,5.550424e+03
1.507099e+03,5.539898e+03
1.508063e+03,5.532280e+03
1.509027e+03,5.534729e+03
1.509991e+03,5.538681e+03
1.510955e+03,5.525927e+03
1.511920e+03,5.504606e+03
1.512884e+03,5.495490e+03
1.513848e+03,5.501042e+03
1.514812e+03,5.509994e+03
1.515777e+03,5.516381e+03
1.516741e+03,5.517782e+03
1.517705e+03,5.507982e+03
1.518669e+03,5.496272e+03
1.519634e+03,5.491056e+03
1.520598e+03,5.491290e+03
1.521562e+03,5.498102e+03
1.522526e+03,5.508979e+03
1.523490e+03,5.506396e+03
1.524455e+03,5.483078e+03
1.525419e+03,5.458349e+03
1.526383e+03,5.451805e+03
1.527347e+03,5.451415e+03
1.528312e+03,5.449282e+03
1.529276e+03,5.447539e+03
1.530240e+03,5.449264e+03
1.531204e+03,5.455657e+03
1.532169e+03,5.454940e+03
1.533133e+03,5.444812e+03
1.534097e+03,5.434421e+03
1.535061e+03,5.430200e+03
1.536026e+03,5.429264e+03
1.536990e+03,5.430954e+03
1.537954e+03,5.433038e+03
1.538918e+03,5.428328e+03
1.539882e+03,5.412845e+03
1.540847e+03,5.405766e+03
1.541811e+03,5.421112e+03
1.542775e+03,5.430201e+03
1.543739e+03,5.425576e+03
1.544704e+03,5.414960e+03
1.545668e+03,5.409318e+03
1.546632e+03,5.408490e+03
1.547596e+03,5.409553e+03
1.548561e+03,5.411897e+03
1.549525e+03,5.414271e+03
1.550489e+03,5.413567e+03
1.551453e+03,5.412442e+03
1.552417e+03,5.411456e+03
1.553382e+03,5.410888e+03
1.554346e+03,5.413266e+03
1.555310e+03,5.418720e+03
1.556274e+03,5.419788e+03
1.557239e+03,5.415993e+03
1.558203e+03,5.408131e+03
1.559167e+03,5.396120e+03
1.560131e+03,5.386089e+03
1.561096e+03,5.387130e+03
1.562060e+03,5.390368e+03
1.563024e+03,5.387007e+03
1.563988e+03,5.380044e+03
1.564953e+03,5.376547e+03
1.565917e+03,5.376871e+03
1.566881e+03,5.379299e+03
1.567845e+03,5.382765e+03
1.568809e+03,5.387259e+03
1.569774e+03,5.396140e+03
1.570738e+03,5.401245e+03
1.571702e+03,5.387159e+03
1.572666e+03,5.364481e+03
1.573631e+03,5.345578e+03
1.574595e+03,5.333908e+03
1.575559e+03,5.330235e+03
1.576523e+03,5.337777e+03
1.577488e+03,5.346610e+03
1.578452e+03,5.352873e+03
1.579416e+03,5.355372e+03
1.580380e+03,5.352981e+03
1.581344e+03,5.348405e+03
1.582309e+03,5.348752e+03
1.583273e+03,5.351833e+03
1.584237e+03,5.350028e+03
1.585201e+03,5.338072e+03
1.586166e+03,5.330051e+03
1.587130e+03,5.326384e+03
1.588094e+03,5.325640e+03
1.589058e+03,5.331081e+03
1.590023e+03,5.336603e+03
1.590987e+03,5.322469e+03
1.591951e+03,5.300626e+03
1.592915e+03,5.297969e+03
1.593880e+03,5.312320e+03
1.594844e+03,5.321516e+03
1.595808e+03,5.315552e+03
1.596772e+03,5.305441e+03
1.597736e+03,5.292223e+03
1.598701e+03,5.282053e+03
1.599665e+03,5.279583e+03
1.600629e+03,5.283478e+03
1.601593e+03,5.293108e+03
1.602558e+03,5.304139e+03
1.603522e+03,5.301142e+03
1.604486e+03,5.276671e+03
1.605450e+03,5.254417e+03
1.606415e+03,5.247859e+03
1.607379e+03,5.245381e+03
1.608343e+03,5.240673e+03
1.609307e+03,5.237161e+03
1.610271e+03,5.244308e+03
1.611236e+03,5.258314e+03
1.612200e+03,5.266148e+03
1.613164e+03,5.268269e+03
1.614128e+03,5.265444e+03
1.615093e+03,5.250351e+03
1.616057e+03,5.238399e+03
1.617021e+03,5.235422e+03
1.617985e+03,5.233385e+03
1.618950e+03,5.229018e+03
1.619914e+03,5.223453e+03
1.620878e+03,5.222618e+03
1.621842e+03,5.224486e+03
1.622807e+03,5.216210e+03
1.623771e+03,5.196080e+03
1.624735e+03,5.180891e+03
1.625699e+03,5.177080e+03
1.626663e+03,5.179092e+03
1.627628e+03,5.186680e+03
1.628592e+03,5.192400e+03
1.629556e+03,5.189977e+03
1.630520e+03,5.183229e+03
1.631485e+03,5.179136e+03
1.632449e+03,5.176967e+03
1.633413e+03,5.174958e+03
1.634377e+03,5.172175e+03
1.635342e+03,5.171969e+03
1.636306e+03,5.181225e+03
1.637270e+03,5.187659e+03
1.638234e+03,5.185797e+03
1.639198e+03,5.177378e+03
1.640163e+03,5.160094e+03
1.641127e+03,5.138973e+03
1.642091e+03,5.125778e+03
1.643055e+03,5.120134e+03
1.644020e+03,5.120506e+03
1.644984e+03,5.127474e+03
1.645948e+03,5.136446e+03
1.646912e+03,5.151954e+03
1.647877e+03,5.162764e+03
1.648841e+03,5.158194e+03
1.649805e+03,5.143147e+03
1.650769e+03,5.130214e+03
1.651734e+03,5.118373e+03
1.652698e+03,5.106096e+03
1.653662e+03,5.090740e+03
1.654626e+03,5.078867e+03
1.655590e+03,5.072630e+03
1.656555e+03,5.070335e+03
1.657519e+03,5.074692e+03
1.658483e+03,5.082986e+03
1.659447e+03,5.089838e+03
1.660412e+03,5.092294e+03
1.661376e+03,5.087351e+03
1.662340e+03,5.078464e+03
1.663304e+03,5.072115e+03
1.664269e+03,5.068283e+03
1.665233e+03,5.064896e+03
1.666197e+03,5.060996e+03
1.667161e+03,5.055150e+03
1.668125e+03,5.047334e+03
1.669090e+03,5.039313e+03
1.670054e+03,5.031640e+03
1.671018e+03,5.027251e+03
1.671982e+03,5.035033e+03
1.672947e+03,5.054339e+03
1.673911e+03,5.060887e+03
1.674875e+03,5.047547e+03
1.675839e+03,5.035788e+03
1.676804e+03,5.031267e+03
1.677768e+03,5.030119e+03
1.678732e+03,5.025833e+03
1.679696e+03,5.021764e+03
1.680661e+03,5.021272e+03
1.681625e+03,5.020807e+03
1.682589e+03,5.019827e+03
1.683553e+03,5.020357e+03
1.684517e+03,5.015731e+03
1.685482e+03,5.005480e+03
1.686446e+03,4.997671e+03
1.687410e+03,4.994822e+03
1.688374e+03,4.994531e+03
1.689339e+03,4.994365e+03
1.690303e+03,4.996500e+03
1.691267e+03,5.006998e+03
1.692231e+03,5.017622e+03
1.693196e+03,5.008189e+03
1.694160e+03,4.981420e+03
1.695124e+03,4.969062e+03
1.696088e+03,4.971384e+03
1.697052e+03,4.976932e+03
1.698017e+03,4.977801e+03
1.698981e+03,4.978392e+03
1.699945e+03,4.979100e+03
1.700909e+03,4.976314e+03
1.701874e+03,4.971429e+03
1.702838e+03,4.968065e+03
1.703802e+03,4.969034e+03
1.704766e+03,4.969580e+03
1.705731e+03,4.965506e+03
1.706695e+03,4.957516e+03
1.707659e+03,4.948875e+03
1.708623e+03,4.939086e+03
1.709588e+03,4.938940e+03
1.710552e+03,4.949475e+03
1.711516e+03,4.954729e+03
1.712480e+03,4.935317e+03
1.713444e+03,4.910453e+03
1.714409e+03,4.903872e+03
1.715373e+03,4.908029e+03
1.716337e+03,4.911357e+03
1.717301e+03,4.914594e+03
1.718266e+03,4.910351e+03
1.719230e+03,4.897780e+03
1.720194e+03,4.891799e+03
1.721158e+03,4.896745e+03
1.722123e+03,4.899773e+03
1.723087e+03,4.887287e+03
1.724051e+03,4.875968e+03
1.725015e+03,4.876139e+03
1.725979e+03,4.882214e+03
1.726944e+03,4.885239e+03
1.727908e+03,4.885322e+03
1.728872e+03,4.882796e+03
1.729836e+03,4.876296e+03
1.730801e+03,4.866383e+03
1.731765e+03,4.848430e+03
1.732729e+03,4.842824e+03
1.733693e+03,4.857060e+03
1.734658e+03,4.866613e+03
1.735622e+03,4.858026e+03
1.736586e+03,4.843921e+03
1.737550e+03,4.841872e+03
1.738515e+03,4.846201e+03
1.739479e+03,4.852753e+03
1.740443e+03,4.859606e+03
1.741407e+03,4.861248e+03
1.742371e+03,4.857231e+03
1.743336e+03,4.853482e+03
1.744300e+03,4.850108e+03
1.745264e+03,4.843620e+03
1.746228e+03,4.831631e+03
1.747193e+03,4.821520e+03
1.748157e+03,4.820964e+03
1.749121e+03,4.824144e+03
1.750085e+03,4.822049e+03
1.751050e+03,4.812538e+03
1.752014e+03,4.799619e+03
1.752978e+03,4.787883e+03
1.753942e+03,4.787820e+03
1.754906e+03,4.800409e+03
1.755871e+03,4.806853e+03
1.756835e+03,4.798366e+03
1.757799e+03,4.789720e+03
1.758763e+03,4.788642e+03
1.759728e+03,4.788806e+03
1.760692e+03,4.781007e+03
1.761656e+03,4.772580e+03
1.762620e+03,4.767749e+03
1.763585e+03,4.765683e+03
1.764549e+03,4.765687e+03
1.765513e+03,4.765669e+03
1.766477e+03,4.761966e+03
1.767442e+03,4.756420e+03
1.768406e+03,4.751919e+03
1.769370e+03,4.749098e+03
1.770334e+03,4.751269e+03
1.771298e+03,4.766960e+03
1.772263e+03,4.771248e+03
1.773227e+03,4.755048e+03
1.774191e+03,4.734735e+03
1.775155e+03,4.733892e+03
1.776120e+03,4.740305e+03
1.777084e+03,4.734992e+03
1.778048e+03,4.722889e+03
1.779012e+03,4.719221e+03
1.779977e+03,4.728977e+03
1.780941e+03,4.732056e+03
1.781905e+03,4.726606e+03
1.782869e+03,4.724114e+03
1.783833e+03,4.730975e+03
1.784798e+03,4.739539e+03
1.785762e+03,4.751808e+03
1.786726e+03,4.753773e+03
1.787690e+03,4.735798e+03
1.788655e+03,4.711375e+03
1.789619e+03,4.708403e+03
1.790583e+03,4.715127e+03
1.791547e+03,4.702713e+03
1.792512e+03,4.675054e+03
1.793476e+03,4.660446e+03
1.794440e+03,4.663817e+03
1.795404e+03,4.666888e+03
1.796369e+03,4.667344e+03
1.797333e+03,4.667185e+03
1.798297e+03,4.666495e+03
1.799261e+03,4.669557e+03
1.800225e+03,4.684636e+03
1.801190e+03,4.694940e+03
1.802154e+03,4.689821e+03
1.803118e+03,4.675109e+03
1.804082e+03,4.669136e+03
1.805047e+03,4.669055e+03
1.806011e+03,4.664177e+03
1.806975e+03,4.653637e+03
1.807939e+03,4.645824e+03
1.808904e+03,4.637758e+03
1.809868e+03,4.643139e+03
1.810832e+03,4.665715e+03
1.811796e+03,4.684839e+03
1.812760e+03,4.684931e+03
1.813725e+03,4.674756e+03
1.814689e+03,4.651174e+03
1.815653e+03,4.628943e+03
1.816617e+03,4.619755e+03
1.817582e+03,4.620325e+03
1.818546e+03,4.624560e+03
1.819510e+03,4.627083e+03
1.820474e+03,4.611856e+03
1.821439e+03,4.577791e+03
1.822403e+03,4.567194e+03
1.823367e+03,4.589412e+03
1.824331e+03,4.601468e+03
1.825296e+03,4.595114e+03
1.826260e+03,4.584186e+03
1.827224e+03,4.578417e+03
1.828188e+03,4.580821e+03
1.829152e+03,4.596114e+03
1.830117e+03,4.611267e+03
1.831081e+03,4.616583e+03
1.832045e+03,4.612125e+03
1.833009e+03,4.598608e+03
1.833974e+03,4.584545e+03
1.834938e+03,4.580286e+03
1.835902e+03,4.587079e+03
1.836866e+03,4.583695e+03
1.837831e+03,4.568540e+03
1.838795e+03,4.562272e+03
1.839759e+03,4.571577e+03
1.840723e+03,4.583336e+03
1.841688e+03,4.590333e+03
1.842652e+03,4.590222e+03
1.843616e+03,4.578881e+03
1.844580e+03,4.562414e+03
1.845544e+03,4.547413e+03
1.846509e+03,4.535875e+03
1.847473e+03,4.531969e+03
1.848437e+03,4.532224e+03
1.849401e+03,4.530369e+03
1.850366e+03,4.526675e+03
1.851330e+03,4.523783e+03
1.852294e+03,4.522999e+03
1.853258e+03,4.523561e+03
1.854223e+03,4.525156e+03
1.855187e+03,4.526831e+03
1.856151e+03,4.523374e+03
1.857115e+03,4.524684e+03
1.858079e+03,4.534052e+03
1.859044e+03,4.540694e+03
1.860008e+03,4.533678e+03
1.860972e+03,4.521919e+03
1.861936e+03,4.510674e+03
1.862901e+03,4.502102e+03
1.863865e+03,4.495724e+03
1.864829e+03,4.489038e+03
1.865793e+03,4.488641e+03
1.866758e+03,4.492718e+03
1.867722e+03,4.490524e+03
1.868686e+03,4.476293e+03
1.869650e+03,4.466946e+03
1.870615e+03,4.461940e+03
1.871579e+03,4.463616e+03
1.872543e+03,4.476104e+03
1.873507e+03,4.486896e+03
1.874471e+03,4.475468e+03
1.875436e+03,4.462357e+03
1.876400e+03,4.460150e+03
1.877364e+03,4.462025e+03
1.878328e+03,4.460049e+03
1.879293e+03,4.455962e+03
1.880257e+03,4.453604e+03
1.881221e+03,4.449563e+03
1.882185e+03,4.437315e+03
1.883150e+03,4.417541e+03
1.884114e+03,4.412294e+03
1.885078e+03,4.418238e+03
1.886042e+03,4.420560e+03
1.887006e+03,4.414478e+03
1.887971e+03,4.407883e+03
1.888935e+03,4.402688e+03
1.889899e+03,4.407419e+03
1.890863e+03,4.424403e+03
1.891828e+03,4.434488e+03
1.892792e+03,4.413925e+03
1.893756e+03,4.387921e+03
1.894720e+03,4.378135e+03
1.895685e+03,4.379405e+03
1.896649e+03,4.384057e+03
1.897613e+03,4.389400e+03
1.898577e+03,4.394227e+03
1.899542e+03,4.397636e+03
1.900506e+03,4.395494e+03
1.901470e+03,4.385930e+03
1.902434e+03,4.377126e+03
1.903398e+03,4.369479e+03
1.904363e+03,4.366918e+03
1.905327e+03,4.371538e+03
1.906291e+03,4.374343e+03
1.907255e+03,4.366405e+03
1.908220e+03,4.356998e+03
1.909184e+03,4.347129e+03
1.910148e+03,4.339344e+03
1.911112e+03,4.339975e+03
1.912077e+03,4.343967e+03
1.913041e+03,4.350624e+03
1.914005e+03,4.354078e+03
1.914969e+03,4.346040e+03
1.915933e+03,4.330718e+03
1.916898e+03,4.323082e+03
1.917862e+03,4.320523e+03
1.918826e+03,4.315386e+03
1.919790e+03,4.307553e+03
1.920755e+03,4.301229e+03
1.921719e+03,4.294226e+03
1.922683e+03,4.293041e+03
1.923647e+03,4.300609e+03
1.924612e+03,4.311720e+03
1.925576e+03,4.333438e+03
1.926540e+03,4.339469e+03
1.927504e+03,4.320657e+03
1.928469e+03,4.299888e+03
1.929433e+03,4.295974e+03
1.930397e+03,4.298061e+03
1.931361e+03,4.303750e+03
1.932325e+03,4.306510e+03
1.933290e+03,4.300553e+03
1.934254e+03,4.294442e+03
1.935218e+03,4.306325e+03
1.936182e+03,4.321436e+03
1.937147e+03,4.319931e+03
1.938111e+03,4.303775e+03
1.939075e+03,4.287842e+03
1.940039e+03,4.273842e+03
1.941004e+03,4.256131e+03
1.941968e+03,4.232216e+03
1.942932e+03,4.224125e+03
1.943896e+03,4.249655e+03
1.944860e+03,4.259537e+03
1.945825e+03,4.250410e+03
1.946789e+03,4.239555e+03
1.947753e+03,4.236239e+03
1.948717e+03,4.233579e+03
1.949682e+03,4.225710e+03
1.950646e+03,4.222423e+03
1.951610e+03,4.231991e+03
1.952574e+03,4.246084e+03
1.953539e+03,4.260017e+03
1.954503e+03,4.264074e+03
1.955467e+03,4.243540e+03
1.956431e+03,4.211943e+03
1.957396e+03,4.203478e+03
1.958360e+03,4.208388e+03
1.959324e+03,4.205002e+03
1.960288e+03,4.195042e+03
1.961252e+03,4.191826e+03
1.962217e+03,4.194417e+03
1.963181e+03,4.189778e+03
1.964145e+03,4.178388e+03
1.965109e+03,4.176015e+03
1.966074e+03,4.206730e+03
1.967038e+03,4.216808e+03
1.968002e+03,4.194600e+03
1.968966e+03,4.172259e+03
1.969931e+03,4.165929e+03
1.970895e+03,4.161789e+03
1.971859e+03,4.154046e+03
1.972823e+03,4.148859e+03
1.973787e+03,4.147245e+03
1.974752e+03,4.145999e+03
1.975716e+03,4.140970e+03
1.976680e+03,4.135106e+03
1.977644e+03,4.136814e+03
1.978609e+03,4.142727e+03
1.979573e+03,4.143228e+03
1.980537e+03,4.138594e+03
1.981501e+03,4.131197e+03
1.982466e+03,4.123920e+03
1.983430e+03,4.124744e+03
1.984394e+03,4.134833e+03
1.985358e+03,4.131299e+03
1.986323e+03,4.115896e+03
1.987287e+03,4.103010e+03
1.988251e+03,4.096709e+03
1.989215e+03,4.089954e+03
1.990179e+03,4.081367e+03
1.991144e+03,4.080530e+03
1.992108e+03,4.091734e+03
1.993072e+03,4.105875e+03
1.994036e+03,4.121386e+03
1.995001e+03,4.125328e+03
1.995965e+03,4.112101e+03
1.996929e+03,4.097645e+03
1.997893e+03,4.098068e+03
1.998858e+03,4.097940e+03
1.999822e+03,4.077733e+03
2.000786e+03,4.056833e+03
2.001750e+03,4.057921e+03
2.002714e+03,4.072269e+03
2.003679e+03,4.072667e+03
2.004643e+03,4.065261e+03
2.005607e+03,4.063225e+03
2.006571e+03,4.065777e+03
2.007536e+03,4.061276e+03
2.008500e+03,4.052565e+03
2.009464e+03,4.047970e+03
2.010428e+03,4.048740e+03
2.011393e+03,4.043326e+03
2.012357e+03,4.029842e+03
2.013321e+03,4.029158e+03
2.014285e+03,4.038809e+03
2.015250e+03,4.044001e+03
2.016214e+03,4.033280e+03
2.017178e+03,4.027558e+03
2.018142e+03,4.029660e+03
2.019106e+03,4.025733e+03
2.020071e+03,4.000817e+03
2.021035e+03,3.986203e+03
2.021999e+03,4.006534e+03
2.022963e+03,4.019133e+03
2.023928e+03,4.007993e+03
2.024892e+03,3.990407e+03
2.025856e+03,3.981067e+03
2.026820e+03,3.977481e+03
2.027785e+03,3.976995e+03
2.028749e+03,3.979466e+03
2.029713e+03,3.994434e+03
2.030677e+03,4.008004e+03
2.031641e+03,3.990817e+03
2.032606e+03,3.962543e+03
2.033570e+03,3.958730e+03
2.034534e+03,3.972669e+03
2.035498e+03,3.983909e+03
2.036463e+03,3.990053e+03
2.037427e+03,3.980180e+03
2.038391e+03,3.957591e+03
2.039355e+03,3.949466e+03
2.040320e+03,3.952792e+03
2.041284e+03,3.950609e+03
2.042248e+03,3.937807e+03
2.043212e+03,3.935668e+03
2.044177e+03,3.947719e+03
2.045141e+03,3.953591e+03
2.046105e+03,3.949477e+03
2.047069e+03,3.943497e+03
2.048033e+03,3.932388e+03
2.048998e+03,3.930913e+03
2.049962e+03,3.942642e+03
2.050926e+03,3.950265e+03
2.051890e+03,3.936807e+03
2.052854e+03,3.924979e+03
2.053819e+03,3.920208e+03
2.054783e+03,3.914984e+03
2.055747e+03,3.909047e+03
2.056711e+03,3.902693e+03
2.057676e+03,3.891014e+03
2.058640e+03,3.884599e+03
2.059604e+03,3.886508e+03
2.060568e+03,3.891579e+03
2.061533e+03,3.899981e+03
2.062497e+03,3.904726e+03
2.063461e+03,3.895129e+03
2.064425e+03,3.880095e+03
2.065390e+03,3.871859e+03
2.066354e+03,3.865879e+03
2.067318e+03,3.853300e+03
2.068282e+03,3.839526e+03
2.069247e+03,3.833675e+03
2.070211e+03,3.833237e+03
2.071175e+03,3.827480e+03
2.072139e+03,3.820014e+03
2.073104e+03,3.819698e+03
2.074068e+03,3.827099e+03
2.075032e+03,3.826329e+03
2.075996e+03,3.819184e+03
2.076960e+03,3.821995e+03
2.077925e+03,3.837270e+03
2.078889e+03,3.846022e+03
2.079853e+03,3.847082e+03
2.080817e+03,3.849353e+03
2.081782e+03,3.852961e+03
2.082746e+03,3.845165e+03
2.083710e+03,3.817924e+03
2.084674e+03,3.794958e+03
2.085639e+03,3.779721e+03
2.086603e+03,3.776012e+03
2.087567e+03,3.787793e+03
2.088531e+03,3.793154e+03
2.089496e+03,3.786730e+03
2.090460e+03,3.777166e+03
2.091424e+03,3.775411e+03
2.092388e+03,3.773133e+03
2.093353e+03,3.756356e+03
2.094317e+03,3.748717e+03
2.095281e+03,3.754989e+03
2.096245e+03,3.763927e+03
2.097209e+03,3.771550e+03
2.098174e+03,3.768043e+03
2.099138e+03,3.748838e+03
2.100102e+03,3.728937e+03
2.101066e+03,3.724434e+03
2.102031e+03,3.725879e+03
2.102995e+03,3.728125e+03
2.103959e+03,3.728771e+03
2.104923e+03,3.723575e+03
2.105887e+03,3.720695e+03
2.106852e+03,3.729471e+03
2.107816e+03,3.739484e+03
2.108780e+03,3.743685e+03
2.109744e+03,3.742683e+03
2.110708e+03,3.740401e+03
2.111673e+03,3.738346e+03
2.112637e+03,3.733872e+03
2.113601e+03,3.725232e+03
2.114565e+03,3.712110e+03
2.115530e+03,3.696841e+03
2.116494e+03,3.680698e+03
2.117458e+03,3.672374e+03
2.118422e+03,3.682274e+03
2.119387e+03,3.703219e+03
2.120351e+03,3.713472e+03
2.121315e+03,3.712598e+03
2.122279e+03,3.710235e+03
2.123244e+03,3.707013e+03
2.124208e+03,3.702881e+03
2.125172e+03,3.697295e+03
2.126136e+03,3.679587e+03
2.127101e+03,3.645524e+03
2.128065e+03,3.639615e+03
2.129029e+03,3.657132e+03
2.129993e+03,3.667653e+03
2.130958e+03,3.661819e+03
2.131922e+03,3.664000e+03
2.132886e+03,3.679059e+03
2.133850e+03,3.674392e+03
2.134814e+03,3.651135e+03
2.135779e+03,3.631395e+03
2.136743e+03,3.617414e+03
2.137707e+03,3.614938e+03
2.138671e+03,3.625034e+03
2.139636e+03,3.636594e+03
2.140600e+03,3.648214e+03
2.141564e+03,3.649895e+03
2.142528e+03,3.641663e+03
2.143493e+03,3.630910e+03
2.144457e+03,3.616569e+03
2.145421e+03,3.608640e+03
2.146385e+03,3.614782e+03
2.147350e+03,3.606083e+03
2.148314e+03,3.573924e+03
2.149278e+03,3.551916e+03
2.150242e+03,3.559000e+03
2.151207e+03,3.578832e+03
2.152171e+03,3.610662e+03
2.153135e+03,3.631005e+03
2.154099e+03,3.625159e+03
2.155063e+03,3.605019e+03
2.156028e+03,3.571169e+03
2.156992e+03,3.549416e+03
2.157956e+03,3.563829e+03
2.158920e+03,3.574836e+03
2.159885e+03,3.561155e+03
2.160849e+03,3.548971e+03
2.161813e+03,3.552065e+03
2.162777e+03,3.556381e+03
2.163741e+03,3.549392e+03
2.164706e+03,3.543353e+03
2.165670e+03,3.547074e+03
2.166634e+03,3.554077e+03
2.167598e+03,3.551369e+03
2.168563e+03,3.552031e+03
2.169527e+03,3.560231e+03
2.170491e+03,3.566246e+03
2.171455e+03,3.568427e+03
2.172420e+03,3.561715e+03
2.173384e+03,3.537799e+03
2.174348e+03,3.515334e+03
2.175312e+03,3.508733e+03
2.176277e+03,3.507774e+03
2.177241e+03,3.505967e+03
2.178205e+03,3.502848e+03
2.179169e+03,3.499734e+03
2.180134e+03,3.498905e+03
2.181098e+03,3.503448e+03
2.182062e+03,3.505202e+03
2.183026e+03,3.494812e+03
2.183990e+03,3.480959e+03
2.184955e+03,3.475437e+03
2.185919e+03,3.475730e+03
2.186883e+03,3.479626e+03
2.187847e+03,3.482875e+03
2.188812e+03,3.481429e+03
2.189776e+03,3.479847e+03
2.190740e+03,3.482951e+03
2.191704e+03,3.484660e+03
2.192668e+03,3.483508e+03
2.193633e+03,3.477366e+03
2.194597e+03,3.453417e+03
2.195561e+03,3.433134e+03
2.196525e+03,3.436939e+03
2.197490e+03,3.449168e+03
2.198454e+03,3.442323e+03
2.199418e+03,3.429005e+03
2.200382e+03,3.420678e+03
2.201347e+03,3.419209e+03
2.202311e+03,3.426707e+03
2.203275e+03,3.436884e+03
2.204239e+03,3.442675e+03
2.205204e+03,3.441105e+03
2.206168e+03,3.429775e+03
2.207132e+03,3.417068e+03
2.208096e+03,3.412313e+03
2.209061e+03,3.406817e+03
2.210025e+03,3.390856e+03
2.210989e+03,3.373500e+03
2.211953e+03,3.369872e+03
2.212917e+03,3.380063e+03
2.213882e+03,3.395897e+03
2.214846e+03,3.410727e+03
2.215810e+03,3.420429e+03
2.216774e+03,3.418343e+03
2.217739e+03,3.404265e+03
2.218703e+03,3.387478e+03
2.219667e+03,3.382436e+03
2.220631e+03,3.382085e+03
2.221595e+03,3.377909e+03
2.222560e+03,3.372098e+03
2.223524e+03,3.372345e+03
2.224488e+03,3.370093e+03
2.225452e+03,3.350329e+03
2.226417e+03,3.330651e+03
2.227381e+03,3.330798e+03
2.228345e+03,3.338677e+03
2.229309e+03,3.332513e+03
2.230274e+03,3.324846e+03
2.231238e+03,3.330043e+03
2.232202e+03,3.338415e+03
2.233166e+03,3.339681e+03
2.234131e+03,3.338276e+03
2.235095e+03,3.336333e+03
2.236059e+03,3.333677e+03
2.237023e+03,3.326999e+03
2.237988e+03,3.321216e+03
2.238952e+03,3.319837e+03
2.239916e+03,3.316434e+03
2.240880e+03,3.304656e+03
2.241844e+03,3.291222e+03
2.242809e+03,3.278124e+03
2.243773e+03,3.270538e+03
2.244737e+03,3.273596e+03
2.245701e+03,3.281088e+03
2.246666e+03,3.292397e+03
2.247630e+03,3.297244e+03
2.248594e+03,3.288822e+03
2.249558e+03,3.279276e+03
2.250522e+03,3.277627e+03
2.251487e+03,3.279147e+03
2.252451e+03,3.279352e+03
2.253415e+03,3.274246e+03
2.254379e+03,3.262436e+03
2.255344e+03,3.250928e+03
2.256308e+03,3.243599e+03
2.257272e+03,3.236624e+03
2.258236e+03,3.221068e+03
2.259201e+03,3.213413e+03
2.260165e+03,3.217231e+03
2.261129e+03,3.226861e+03
2.262093e+03,3.247895e+03
2.263058e+03,3.252057e+03
2.264022e+03,3.232032e+03
2.264986e+03,3.217188e+03
2.265950e+03,3.229617e+03
2.266915e+03,3.240070e+03
2.267879e+03,3.238438e+03
2.268843e+03,3.227850e+03
2.269807e+03,3.211762e+03
2.270771e+03,3.195170e+03
2.271736e+03,3.177118e+03
2.272700e+03,3.176273e+03
2.273664e+03,3.196950e+03
2.274628e+03,3.214223e+03
2.275593e+03,3.216909e+03
2.276557e+03,3.210488e+03
2.277521e+03,3.197968e+03
2.278485e+03,3.187821e+03
2.279449e+03,3.184382e+03
2.280414e+03,3.181407e+03
2.281378e+03,3.178130e+03
2.282342e+03,3.176760e+03
2.283306e+03,3.179385e+03
2.284271e+03,3.172921e+03
2.285235e+03,3.157575e+03
2.286199e+03,3.145835e+03
2.287163e+03,3.148535e+03
2.288128e+03,3.146334e+03
2.289092e+03,3.137185e+03
2.290056e+03,3.132676e+03
2.291020e+03,3.136705e+03
2.291985e+03,3.135974e+03
2.292949e+03,3.133364e+03
2.293913e+03,3.137192e+03
2.294877e+03,3.145659e+03
2.295842e+03,3.144797e+03
2.296806e+03,3.134282e+03
2.297770e+03,3.130778e+03
2.298734e+03,3.132593e+03
2.299698e+03,3.130743e+03
2.300663e+03,3.125938e+03
2.301627e+03,3.114790e+03
2.302591e+03,3.101819e+03
2.303555e+03,3.102037e+03
2.304520e+03,3.111871e+03
2.305484e+03,3.113063e+03
2.306448e+03,3.109096e+03
2.307412e+03,3.102423e+03
2.308376e+03,3.094429e+03
2.309341e+03,3.091926e+03
2.310305e+03,3.091058e+03
2.311269e+03,3.088901e+03
2.312233e+03,3.087408e+03
2.313198e+03,3.086422e+03
2.314162e+03,3.083683e+03
2.315126e+03,3.075999e+03
2.316090e+03,3.068839e+03
2.317055e+03,3.076395e+03
2.318019e+03,3.080374e+03
2.318983e+03,3.052637e+03
2.319947e+03,3.027664e+03
2.320912e+03,3.040396e+03
2.321876e+03,3.056683e+03
2.322840e+03,3.047603e+03
2.323804e+03,3.032689e+03
2.324769e+03,3.017039e+03
2.325733e+03,3.011876e+03
2.326697e+03,3.027607e+03
2.327661e+03,3.047923e+03
2.328625e+03,3.068548e+03
2.329590e+03,3.076042e+03
2.330554e+03,3.061221e+03
2.331518e+03,3.041540e+03
2.332482e+03,3.018450e+03
2.333447e+03,3.004452e+03
2.334411e+03,3.010927e+03
2.335375e+03,3.010915e+03
2.336339e+03,3.003293e+03
2.337303e+03,2.998819e+03
2.338268e+03,3.001751e+03
2.339232e+03,3.001025e+03
2.340196e+03,2.998049e+03
2.341160e+03,2.996189e+03
2.342125e+03,2.995825e+03
2.343089e+03,3.003901e+03
2.344053e+03,3.012479e+03
2.345017e+03,3.003571e+03
2.345982e+03,2.979340e+03
2.346946e+03,2.969875e+03
2.347910e+03,2.972830e+03
2.348874e+03,2.977330e+03
2.349839e+03,2.978793e+03
2.350803e+03,2.973237e+03
2.351767e+03,2.966856e+03
2.352731e+03,2.974542e+03
2.353696e+03,2.986283e+03
2.354660e+03,2.981287e+03
2.355624e+03,2.966752e+03
2.356588e+03,2.951832e+03
2.357552e+03,2.943769e+03
2.358517e+03,2.952718e+03
2.359481e+03,2.965078e+03
2.360445e+03,2.964326e+03
2.361409e+03,2.955889e+03
2.362374e+03,2.939829e+03
2.363338e+03,2.925484e+03
2.364302e+03,2.933468e+03
2.365266e+03,2.934758e+03
2.366230e+03,2.916792e+03
2.367195e+03,2.901205e+03
2.368159e+03,2.903362e+03
2.369123e+03,2.905779e+03
2.370087e+03,2.908993e+03
2.371052e+03,2.908293e+03
2.372016e+03,2.898453e+03
2.372980e+03,2.896417e+03
2.373944e+03,2.901207e+03
2.374909e+03,2.902954e+03
2.375873e+03,2.898477e+03
2.376837e+03,2.895564e+03
2.377801e+03,2.894046e+03
2.378766e+03,2.889931e+03
2.379730e+03,2.882933e+03
2.380694e+03,2.876032e+03
2.381658e+03,2.871089e+03
2.382623e+03,2.865993e+03
2.383587e+03,2.862239e+03
2.384551e+03,2.873634e+03
2.385515e+03,2.885209e+03
2.386479e+03,2.868465e+03
2.387444e+03,2.843426e+03
2.388408e+03,2.836574e+03
2.389372e+03,2.842829e+03
2.390336e+03,2.861013e+03
2.391301e+03,2.876515e+03
2.392265e+03,2.873625e+03
2.393229e+03,2.862145e+03
2.394193e+03,2.847123e+03
2.395157e+03,2.832794e+03
2.396122e+03,2.821844e+03
2.397086e+03,2.814135e+03
2.398050e+03,2.809811e+03
2.399014e+03,2.811940e+03
2.399979e+03,2.822907e+03
2.400943e+03,2.832615e+03
2.401907e+03,2.838545e+03
2.402871e+03,2.839506e+03
2.403836e+03,2.836062e+03
2.404800e+03,2.835340e+03
2.405764e+03,2.836751e+03
2.406728e+03,2.831681e+03
2.407693e+03,2.819342e+03
2.408657e+03,2.811937e+03
2.409621e+03,2.810256e+03
2.410585e+03,2.810396e+03
2.411550e+03,2.809117e+03
2.412514e+03,2.796703e+03
2.413478e+03,2.779388e+03
2.414442e+03,2.774866e+03
2.415406e+03,2.776884e+03
2.416371e+03,2.778477e+03
2.417335e+03,2.778982e+03
2.418299e+03,2.774328e+03
2.419263e+03,2.771230e+03
2.420228e+03,2.773105e+03
2.421192e+03,2.776169e+03
2.422156e+03,2.775706e+03
2.423120e+03,2.784451e+03
2.424084e+03,2.805450e+03
2.425049e+03,2.810183e+03
2.426013e+03,2.775950e+03
2.426977e+03,2.758938e+03
2.427941e+03,2.765703e+03
2.428906e+03,2.769924e+03
2.429870e+03,2.762870e+03
2.430834e+03,2.746196e+03
2.431798e+03,2.725271e+03
2.432763e+03,2.728015e+03
2.433727e+03,2.750625e+03
2.434691e+03,2.743936e+03
2.435655e+03,2.723825e+03
2.436620e+03,2.726761e+03
2.437584e+03,2.741256e+03
2.438548e+03,2.731201e+03
2.439512e+03,2.720375e+03
2.440477e+03,2.735377e+03
2.441441e+03,2.750360e+03
2.442405e+03,2.725228e+03
2.443369e+03,2.702050e+03
2.444333e+03,2.702421e+03
2.445298e+03,2.707316e+03
2.446262e+03,2.696512e+03
2.447226e+03,2.694177e+03
2.448190e+03,2.706166e+03
2.449155e+03,2.713826e+03
2.450119e+03,2.704675e+03
2.451083e+03,2.697510e+03
2.452047e+03,2.691544e+03
2.453011e+03,2.684565e+03
2.453976e+03,2.677136e+03
2.454940e+03,2.670129e+03
2.455904e+03,2.666278e+03
2.456868e+03,2.668520e+03
2.457833e+03,2.673206e+03
2.458797e+03,2.678189e+03
2.459761e+03,2.679966e+03
2.460725e+03,2.668275e+03
2.461690e+03,2.654305e+03
2.462654e+03,2.659341e+03
2.463618e+03,2.661828e+03
2.464582e+03,2.647316e+03
2.465547e+03,2.638191e+03
2.466511e+03,2.660277e+03
2.467475e+03,2.672773e+03
2.468439e+03,2.666472e+03
2.469404e+03,2.653398e+03
2.470368e+03,2.639751e+03
2.471332e+03,2.627930e+03
2.472296e+03,2.616812e+03
2.473260e+03,2.613385e+03
2.474225e+03,2.620542e+03
2.475189e+03,2.625792e+03
2.476153e+03,2.629911e+03
2.477117e+03,2.624150e+03
2.478082e+03,2.614258e+03
2.479046e+03,2.626240e+03
2.480010e+03,2.644214e+03
2.480974e+03,2.648558e+03
2.481938e+03,2.645521e+03
2.482903e+03,2.639098e+03
2.483867e+03,2.634772e+03
2.484831e+03,2.635355e+03
2.485795e+03,2.633828e+03
2.486760e+03,2.626288e+03
2.487724e+03,2.614972e+03
2.488688e+03,2.601248e+03
2.489652e+03,2.594284e+03
2.490617e+03,2.602623e+03
2.491581e+03,2.597698e+03
2.492545e+03,2.583391e+03
2.493509e+03,2.575547e+03
2.494474e+03,2.574886e+03
2.495438e+03,2.581098e+03
2.496402e+03,2.589270e+03
2.497366e+03,2.587702e+03
2.498331e+03,2.581235e+03
2.499295e+03,2.577747e+03
2.500259e+03,2.575621e+03
2.501223e+03,2.576592e+03
2.502188e+03,2.579291e+03
2.503152e+03,2.587474e+03
2.504116e+03,2.584097e+03
2.505080e+03,2.564078e+03
2.506044e+03,2.546564e+03
2.507009e+03,2.541637e+03
2.507973e+03,2.544583e+03
2.508937e+03,2.555082e+03
2.509901e+03,2.558580e+03
2.510865e+03,2.550214e+03
2.511830e+03,2.547038e+03
2.512794e+03,2.545681e+03
2.513758e+03,2.541757e+03
2.514722e+03,2.538724e+03
2.515687e+03,2.545826e+03
2.516651e+03,2.552008e+03
2.517615e+03,2.544987e+03
2.518579e+03,2.533969e+03
2.519544e+03,2.527935e+03
2.520508e+03,2.527329e+03
2.521472e+03,2.533059e+03
2.522436e+03,2.539156e+03
2.523401e+03,2.544623e+03
2.524365e+03,2.540594e+03
2.525329e+03,2.525321e+03
2.526293e+03,2.520363e+03
2.527258e+03,2.533709e+03
2.528222e+03,2.533333e+03
2.529186e+03,2.523387e+03
2.530150e+03,2.519493e+03
2.531115e+03,2.519637e+03
2.532079e+03,2.502109e+03
2.533043e+03,2.488764e+03
2.534007e+03,2.505118e+03
2.534971e+03,2.520900e+03
2.535936e+03,2.489285e+03
2.536900e+03,2.468150e+03
2.537864e+03,2.478797e+03
2.538828e+03,2.493327e+03
2.539792e+03,2.495048e+03
2.540757e+03,2.491728e+03
2.541721e+03,2.484280e+03
2.542685e+03,2.480030e+03
2.543649e+03,2.480662e+03
2.544614e+03,2.487990e+03
2.545578e+03,2.494959e+03
2.546542e+03,2.486483e+03
2.547506e+03,2.470749e+03
2.548471e+03,2.462365e+03
2.549435e+03,2.461837e+03
2.550399e+03,2.475844e+03
2.551363e+03,2.483165e+03
2.552328e+03,2.460899e+03
2.553292e+03,2.446874e+03
2.554256e+03,2.456506e+03
2.555220e+03,2.461249e+03
2.556185e+03,2.454766e+03
2.557149e+03,2.456046e+03
2.558113e+03,2.467320e+03
2.559077e+03,2.472562e+03
2.560042e+03,2.469292e+03
2.561006e+03,2.448038e+03
2.561970e+03,2.427144e+03
2.562934e+03,2.443931e+03
2.563898e+03,2.464827e+03
2.564863e+03,2.444497e+03
2.565827e+03,2.417333e+03
2.566791e+03,2.408950e+03
2.567755e+03,2.413223e+03
2.568719e+03,2.424195e+03
2.569684e+03,2.433071e+03
2.570648e+03,2.437964e+03
2.571612e+03,2.432394e+03
2.572576e+03,2.421369e+03
2.573541e+03,2.417999e+03
2.574505e+03,2.420435e+03
2.575469e+03,2.426793e+03
2.576433e+03,2.432582e+03
2.577398e+03,2.435437e+03
2.578362e+03,2.433169e+03
2.579326e+03,2.420444e+03
2.580290e+03,2.402181e+03
2.581255e+03,2.377654e+03
2.582219e+03,2.364143e+03
2.583183e+03,2.390977e+03
2.584147e+03,2.393523e+03
2.585112e+03,2.374559e+03
2.586076e+03,2.372386e+03
2.587040e+03,2.392516e+03
2.588004e+03,2.399823e+03
2.588969e+03,2.396299e+03
2.589933e+03,2.392064e+03
2.590897e+03,2.386713e+03
2.591861e+03,2.371550e+03
2.592825e+03,2.364031e+03
2.593790e+03,2.377276e+03
2.594754e+03,2.385599e+03
2.595718e+03,2.367081e+03
2.596682e+03,2.357361e+03
2.597646e+03,2.362711e+03
2.598611e+03,2.364389e+03
2.599575e+03,2.362186e+03
2.600539e+03,2.354483e+03
2.601503e+03,2.344528e+03
2.602468e+03,2.349616e+03
2.603432e+03,2.360096e+03
2.604396e+03,2.358984e+03
2.605360e+03,2.355637e+03
2.606325e+03,2.356566e+03
2.607289e+03,2.354698e+03
2.608253e+03,2.346398e+03
2.609217e+03,2.345204e+03
2.610182e+03,2.358746e+03
2.611146e+03,2.357652e+03
2.612110e+03,2.344145e+03
2.613074e+03,2.339733e+03
2.614039e+03,2.345525e+03
2.615003e+03,2.342337e+03
2.615967e+03,2.330876e+03
2.616931e+03,2.315458e+03
2.617896e+03,2.303308e+03
2.618860e+03,2.305557e+03
2.619824e+03,2.308319e+03
2.620788e+03,2.305131e+03
2.621752e+03,2.302993e+03
2.622717e+03,2.309471e+03
2.623681e+03,2.309098e+03
2.624645e+03,2.302255e+03
2.625609e+03,2.305990e+03
2.626573e+03,2.318529e+03
2.627538e+03,2.322760e+03
2.628502e+03,2.319332e+03
2.629466e+03,2.306583e+03
2.630430e+03,2.291273e+03
2.631395e+03,2.279168e+03
2.632359e+03,2.272386e+03
2.633323e+03,2.272725e+03
2.634287e+03,2.279926e+03
2.635252e+03,2.293937e+03
2.636216e+03,2.308237e+03
2.637180e+03,2.318293e+03
2.638144e+03,2.309483e+03
2.639109e+03,2.290506e+03
2.640073e+03,2.291587e+03
2.641037e+03,2.302499e+03
2.642001e+03,2.307368e+03
2.642966e+03,2.301879e+03
2.643930e+03,2.282543e+03
2.644894e+03,2.266581e+03
2.645858e+03,2.269295e+03
2.646823e+03,2.270629e+03
2.647787e+03,2.267825e+03
2.648751e+03,2.263218e+03
2.649715e+03,2.257153e+03
2.650679e+03,2.256223e+03
2.651644e+03,2.258083e+03
2.652608e+03,2.259355e+03
2.653572e+03,2.258181e+03
2.654536e+03,2.248583e+03
2.655500e+03,2.245624e+03
2.656465e+03,2.257270e+03
2.657429e+03,2.256756e+03
2.658393e+03,2.233224e+03
2.659357e+03,2.213657e+03
2.660322e+03,2.205901e+03
2.661286e+03,2.212736e+03
2.662250e+03,2.227759e+03
2.663214e+03,2.235028e+03
2.664179e+03,2.238989e+03
2.665143e+03,2.252397e+03
2.666107e+03,2.254833e+03
2.667071e+03,2.235476e+03
2.668036e+03,2.214872e+03
2.669000e+03,2.195415e+03
2.669964e+03,2.196832e+03
2.670928e+03,2.214985e+03
2.671893e+03,2.229325e+03
2.672857e+03,2.237779e+03
2.673821e+03,2.231113e+03
2.674785e+03,2.221810e+03
2.675750e+03,2.227142e+03
2.676714e+03,2.233742e+03
2.677678e+03,2.223394e+03
2.678642e+03,2.209860e+03
2.679606e+03,2.195860e+03
2.680571e+03,2.193332e+03
2.681535e+03,2.202082e+03
2.682499e+03,2.208407e+03
2.683463e+03,2.208543e+03
2.684427e+03,2.198990e+03
2.685392e+03,2.188844e+03
2.686356e+03,2.196073e+03
2.687320e+03,2.203048e+03
2.688284e+03,2.199108e+03
2.689249e+03,2.191678e+03
2.690213e+03,2.181970e+03
2.691177e+03,2.173290e+03
2.692141e+03,2.168880e+03
2.693106e+03,2.184853e+03
2.694070e+03,2.209208e+03
2.695034e+03,2.209171e+03
2.695998e+03,2.197119e+03
2.696963e+03,2.193527e+03
2.697927e+03,2.190296e+03
2.698891e+03,2.180843e+03
2.699855e+03,2.171793e+03
2.700820e+03,2.168673e+03
2.701784e+03,2.163651e+03
2.702748e+03,2.155009e+03
2.703712e+03,2.143407e+03
2.704677e+03,2.133648e+03
2.705641e+03,2.154481e+03
2.706605e+03,2.177590e+03
2.707569e+03,2.157614e+03
2.708533e+03,2.140514e+03
2.709498e+03,2.148093e+03
2.710462e+03,2.148303e+03
2.711426e+03,2.123235e+03
2.712390e+03,2.124864e+03
2.713354e+03,2.146048e+03
2.714319e+03,2.155477e+03
2.715283e+03,2.154834e+03
2.716247e+03,2.149685e+03
2.717211e+03,2.145073e+03
2.718176e+03,2.145267e+03
2.719140e+03,2.144163e+03
2.720104e+03,2.135051e+03
2.721068e+03,2.131295e+03
2.722033e+03,2.134510e+03
2.722997e+03,2.138037e+03
2.723961e+03,2.139891e+03
2.724925e+03,2.138681e+03
2.725890e+03,2.136513e+03
2.726854e+03,2.135664e+03
2.727818e+03,2.133516e+03
2.728782e+03,2.126153e+03
2.729747e+03,2.115692e+03
2.730711e+03,2.098656e+03
2.731675e+03,2.102243e+03
2.732639e+03,2.121213e+03
2.733604e+03,2.125355e+03
2.734568e+03,2.118303e+03
2.735532e+03,2.112121e+03
2.736496e+03,2.104147e+03
2.737460e+03,2.092573e+03
2.738425e+03,2.087135e+03
2.739389e+03,2.094994e+03
2.740353e+03,2.097454e+03
2.741317e+03,2.093160e+03
2.742281e+03,2.091923e+03
2.743246e+03,2.093856e+03
2.744210e+03,2.089716e+03
2.745174e+03,2.086046e+03
2.746138e+03,2.104290e+03
2.747103e+03,2.115524e+03
2.748067e+03,2.110738e+03
2.749031e+03,2.096763e+03
2.749995e+03,2.067786e+03
2.750960e+03,2.059510e+03
2.751924e+03,2.065172e+03
2.752888e+03,2.059078e+03
2.753852e+03,2.048917e+03
2.754817e+03,2.061772e+03
2.755781e+03,2.073240e+03
2.756745e+03,2.068512e+03
2.757709e+03,2.058978e+03
2.758674e+03,2.046477e+03
2.759638e+03,2.044247e+03
2.760602e+03,2.055759e+03
2.761566e+03,2.074361e+03
2.762531e+03,2.091262e+03
2.763495e+03,2.083040e+03
2.764459e+03,2.069047e+03
2.765423e+03,2.073114e+03
2.766387e+03,2.068466e+03
2.767352e+03,2.051240e+03
2.768316e+03,2.048435e+03
2.769280e+03,2.064252e+03
2.770244e+03,2.057554e+03
2.771208e+03,2.043333e+03
2.772173e+03,2.053521e+03
2.773137e+03,2.064839e+03
2.774101e+03,2.049995e+03
2.775065e+03,2.045079e+03
2.776030e+03,2.068225e+03
2.776994e+03,2.068932e+03
2.777958e+03,2.047328e+03
2.778922e+03,2.036766e+03
2.779887e+03,2.037960e+03
2.780851e+03,2.052118e+03
2.781815e+03,2.052940e+03
2.782779e+03,2.023907e+03
2.783744e+03,2.003408e+03
2.784708e+03,2.016987e+03
2.785672e+03,2.025275e+03
2.786636e+03,2.024286e+03
2.787601e+03,2.017426e+03
2.788565e+03,2.009931e+03
2.789529e+03,2.010186e+03
2.790493e+03,2.015362e+03
2.791458e+03,2.027007e+03
2.792422e+03,2.029444e+03
2.793386e+03,2.022511e+03
2.794350e+03,2.014782e+03
2.795314e+03,2.007157e+03
2.796279e+03,2.002053e+03
2.797243e+03,2.001909e+03
2.798207e+03,2.016225e+03
2.799171e+03,2.031062e+03
2.800135e+03,2.023342e+03
2.801100e+03,2.017207e+03
2.802064e+03,2.019589e+03
2.803028e+03,2.016849e+03
2.803992e+03,2.008966e+03
2.804957e+03,2.006689e+03
2.805921e+03,2.008695e+03
2.806885e+03,2.013808e+03
2.807849e+03,2.008854e+03
2.808814e+03,1.987106e+03
2.809778e+03,1.978857e+03
2.810742e+03,2.006665e+03
2.811706e+03,2.007705e+03
2.812671e+03,1.986468e+03
2.813635e+03,1.970157e+03
2.814599e+03,1.961952e+03
2.815563e+03,1.976609e+03
2.816528e+03,1.987941e+03
2.817492e+03,1.982849e+03
2.818456e+03,1.971240e+03
2.819420e+03,1.955118e+03
2.820385e+03,1.946927e+03
2.821349e+03,1.948057e+03
2.822313e+03,1.955251e+03
2.823277e+03,1.960475e+03
2.824241e+03,1.955958e+03
2.825206e+03,1.950911e+03
2.826170e+03,1.951780e+03
2.827134e+03,1.962999e+03
2.828098e+03,1.979474e+03
2.829063e+03,1.972934e+03
2.830027e+03,1.954570e+03
2.830991e+03,1.951084e+03
2.831955e+03,1.953115e+03
2.832919e+03,1.950795e+03
2.833884e+03,1.944988e+03
2.834848e+03,1.935965e+03
2.835812e+03,1.932357e+03
2.836776e+03,1.935008e+03
2.837741e+03,1.943270e+03
2.838705e+03,1.949367e+03
2.839669e+03,1.940451e+03
2.840633e+03,1.944271e+03
2.841598e+03,1.979048e+03
2.842562e+03,1.987499e+03
2.843526e+03,1.955527e+03
2.844490e+03,1.934960e+03
2.845455e+03,1.928314e+03
2.846419e+03,1.948152e+03
2.847383e+03,1.968525e+03
2.848347e+03,1.957575e+03
2.849312e+03,1.942626e+03
2.850276e+03,1.928888e+03
2.851240e+03,1.935145e+03
2.852204e+03,1.953438e+03
2.853168e+03,1.950112e+03
2.854133e+03,1.940279e+03
2.855097e+03,1.945044e+03
2.856061e+03,1.956169e+03
2.857025e+03,1.967538e+03
2.857990e+03,1.967197e+03
2.858954e+03,1.952083e+03
2.859918e+03,1.938536e+03
2.860882e+03,1.929351e+03
2.861846e+03,1.928258e+03
2.862811e+03,1.927547e+03
2.863775e+03,1.916224e+03
2.864739e+03,1.920943e+03
2.865703e+03,1.949974e+03
2.866668e+03,1.949405e+03
2.867632e+03,1.930904e+03
2.868596e+03,1.934259e+03
2.869560e+03,1.943124e+03
2.870525e+03,1.941915e+03
2.871489e+03,1.935878e+03
2.872453e+03,1.925672e+03
2.873417e+03,1.917070e+03
2.874382e+03,1.909810e+03
2.875346e+03,1.903931e+03
2.876310e+03,1.904478e+03
2.877274e+03,1.920474e+03
2.878239e+03,1.930066e+03
2.879203e+03,1.924882e+03
2.880167e+03,1.907891e+03
2.881131e+03,1.881367e+03
2.882095e+03,1.876008e+03
2.883060e+03,1.888265e+03
2.884024e+03,1.912519e+03
2.884988e+03,1.926229e+03
2.885952e+03,1.901207e+03
2.886917e+03,1.897694e+03
2.887881e+03,1.932775e+03
2.888845e+03,1.922322e+03
2.889809e+03,1.890881e+03
2.890773e+03,1.900422e+03
2.891738e+03,1.916035e+03
2.892702e+03,1.893499e+03
2.893666e+03,1.896389e+03
2.894630e+03,1.932615e+03
2.895595e+03,1.913114e+03
2.896559e+03,1.853972e+03
2.897523e+03,1.849675e+03
2.898487e+03,1.870547e+03
2.899452e+03,1.896555e+03
2.900416e+03,1.903326e+03
2.901380e+03,1.888014e+03
2.902344e+03,1.895528e+03
2.903309e+03,1.926653e+03
2.904273e+03,1.916520e+03
2.905237e+03,1.894354e+03
2.906201e+03,1.893479e+03
2.907166e+03,1.890468e+03
2.908130e+03,1.874589e+03
2.909094e+03,1.866403e+03
2.910058e+03,1.868732e+03
2.911022e+03,1.864604e+03
2.911987e+03,1.865365e+03
2.912951e+03,1.884210e+03
2.913915e+03,1.893482e+03
2.914879e+03,1.865908e+03
2.915844e+03,1.855633e+03
2.916808e+03,1.866284e+03
2.917772e+03,1.876550e+03
2.918736e+03,1.879901e+03
2.919700e+03,1.863540e+03
2.920665e+03,1.844695e+03
2.921629e+03,1.826987e+03
2.922593e+03,1.840579e+03
2.923557e+03,1.875186e+03
2.924522e+03,1.867437e+03
2.925486e+03,1.841561e+03
2.926450e+03,1.865215e+03
2.927414e+03,1.878906e+03
2.928379e+03,1.849160e+03
2.929343e+03,1.835948e+03
2.930307e+03,1.840227e+03
2.931271e+03,1.835242e+03
2.932236e+03,1.827934e+03
2.933200e+03,1.834260e+03
2.934164e+03,1.836299e+03
2.935128e+03,1.824041e+03
2.936093e+03,1.825731e+03
2.937057e+03,1.841934e+03
2.938021e+03,1.848393e+03
2.938985e+03,1.845436e+03
2.939949e+03,1.821782e+03
2.940914e+03,1.812630e+03
2.941878e+03,1.829330e+03
2.942842e+03,1.830216e+03
2.943806e+03,1.806698e+03
2.944771e+03,1.788907e+03
2.945735e+03,1.782020e+03
2.946699e+03,1.796121e+03
2.947663e+03,1.805696e+03
2.948627e+03,1.800279e+03
2.949592e+03,1.797431e+03
2.950556e+03,1.801528e+03
2.951520e+03,1.801238e+03
2.952484e+03,1.797529e+03
2.953449e+03,1.790592e+03
2.954413e+03,1.800291e+03
2.955377e+03,1.836574e+03
2.956341e+03,1.847419e+03
2.957306e+03,1.830514e+03
2.958270e+03,1.824643e+03
2.959234e+03,1.815313e+03
2.960198e+03,1.793630e+03
2.961163e+03,1.784779e+03
2.962127e+03,1.797199e+03
2.963091e+03,1.806438e+03
2.964055e+03,1.808058e+03
2.965020e+03,1.804238e+03
2.965984e+03,1.803896e+03
2.966948e+03,1.811506e+03
2.967912e+03,1.812483e+03
2.968876e+03,1.799325e+03
2.969841e+03,1.783744e+03
2.970805e+03,1.769222e+03
2.971769e+03,1.762090e+03
2.972733e+03,1.764043e+03
2.973698e+03,1.778393e+03
2.974662e+03,1.778051e+03
2.975626e+03,1.755577e+03
2.976590e+03,1.762203e+03
2.977554e+03,1.781272e+03
2.978519e+03,1.788626e+03
2.979483e+03,1.787264e+03
2.980447e+03,1.780557e+03
2.981411e+03,1.767586e+03
2.982376e+03,1.753475e+03
2.983340e+03,1.769785e+03
2.984304e+03,1.782920e+03
2.985268e+03,1.758917e+03
2.986233e+03,1.734732e+03
2.987197e+03,1.730543e+03
2.988161e+03,1.738738e+03
2.989125e+03,1.752463e+03
2.990090e+03,1.748202e+03
2.991054e+03,1.738032e+03
2.992018e+03,1.730763e+03
2.992982e+03,1.730321e+03
2.993947e+03,1.741416e+03
2.994911e+03,1.777849e+03
2.995875e+03,1.805985e+03
2.996839e+03,1.765698e+03
2.997803e+03,1.718150e+03
2.998768e+03,1.704034e+03
2.999732e+03,1.706962e+03
3.000696e+03,1.724567e+03
3.001660e+03,1.723883e+03
3.002625e+03,1.727023e+03
3.003589e+03,1.761270e+03
3.004553e+03,1.772689e+03
3.005517e+03,1.735387e+03
3.006481e+03,1.737026e+03
3.007446e+03,1.763725e+03
3.008410e+03,1.735203e+03
3.009374e+03,1.709082e+03
3.010338e+03,1.721887e+03
3.011303e+03,1.747697e+03
3.012267e+03,1.774488e+03
3.013231e+03,1.765618e+03
3.014195e+03,1.734092e+03
3.015160e+03,1.697165e+03
3.016124e+03,1.680577e+03
3.017088e+03,1.688788e+03
3.018052e+03,1.698974e+03
3.019017e+03,1.706570e+03
3.019981e+03,1.742098e+03
3.020945e+03,1.760778e+03
3.021909e+03,1.719888e+03
3.022874e+03,1.687914e+03
3.023838e+03,1.678923e+03
3.024802e+03,1.679234e+03
3.025766e+03,1.684292e+03
3.026730e+03,1.689375e+03
3.027695e+03,1.692440e+03
3.028659e+03,1.693656e+03
3.029623e+03,1.690314e+03
3.030587e+03,1.683748e+03
3.031552e+03,1.676845e+03
3.032516e+03,1.670355e+03
3.033480e+03,1.666200e+03
3.034444e+03,1.672060e+03
3.035408e+03,1.689124e+03
3.036373e+03,1.716572e+03
3.037337e+03,1.741084e+03
3.038301e+03,1.716307e+03
3.039265e+03,1.694829e+03
3.040230e+03,1.708936e+03
3.041194e+03,1.722037e+03
3.042158e+03,1.724843e+03
3.043122e+03,1.693471e+03
3.044087e+03,1.659288e+03
3.045051e+03,1.663654e+03
3.046015e+03,1.673755e+03
3.046979e+03,1.683479e+03
3.047944e+03,1.671646e+03
3.048908e+03,1.655373e+03
3.049872e+03,1.658783e+03
3.050836e+03,1.668106e+03
3.051801e+03,1.673791e+03
3.052765e+03,1.683057e+03
3.053729e+03,1.692090e+03
3.054693e+03,1.691263e+03
3.055657e+03,1.688576e+03
3.056622e+03,1.688604e+03
3.057586e+03,1.678379e+03
3.058550e+03,1.656109e+03
3.059514e+03,1.663813e+03
3.060479e+03,1.685662e+03
3.061443e+03,1.693350e+03
3.062407e+03,1.687834e+03
3.063371e+03,1.672460e+03
3.064335e+03,1.672950e+03
3.065300e+03,1.685539e+03
3.066264e+03,1.675426e+03
3.067228e+03,1.668946e+03
3.068192e+03,1.685219e+03
3.069157e+03,1.682335e+03
3.070121e+03,1.662055e+03
3.071085e+03,1.647617e+03
3.072049e+03,1.644381e+03
3.073014e+03,1.671518e+03
3.073978e+03,1.694184e+03
3.074942e+03,1.702887e+03
3.075906e+03,1.689853e+03
3.076871e+03,1.669165e+03
3.077835e+03,1.659306e+03
3.078799e+03,1.657771e+03
3.079763e+03,1.664832e+03
3.080728e+03,1.671516e+03
3.081692e+03,1.675281e+03
3.082656e+03,1.666722e+03
3.083620e+03,1.655442e+03
3.084584e+03,1.648121e+03
3.085549e+03,1.642441e+03
3.086513e+03,1.638717e+03
3.087477e+03,1.623945e+03
3.088441e+03,1.623078e+03
3.089406e+03,1.684266e+03
3.090370e+03,1.693198e+03
3.091334e+03,1.644673e+03
3.092298e+03,1.631612e+03
3.093262e+03,1.641575e+03
3.094227e+03,1.642028e+03
3.095191e+03,1.643357e+03
3.096155e+03,1.649299e+03
3.097119e+03,1.642362e+03
3.098084e+03,1.630213e+03
3.099048e+03,1.625433e+03
3.100012e+03,1.626209e+03
3.100976e+03,1.632275e+03
3.101941e+03,1.643309e+03
3.102905e+03,1.654164e+03
3.103869e+03,1.637772e+03
3.104833e+03,1.619919e+03
3.105798e+03,1.618632e+03
3.106762e+03,1.614849e+03
3.107726e+03,1.605836e+03
3.108690e+03,1.586702e+03
3.109655e+03,1.584512e+03
3.110619e+03,1.660633e+03
3.111583e+03,1.680174e+03
3.112547e+03,1.639646e+03
3.113511e+03,1.660716e+03
3.114476e+03,1.706380e+03
3.115440e+03,1.677137e+03
3.116404e+03,1.640644e+03
3.117368e+03,1.618697e+03
3.118333e+03,1.653576e+03
3.119297e+03,1.695824e+03
3.120261e+03,1.662883e+03
3.121225e+03,1.618335e+03
3.122189e+03,1.596271e+03
3.123154e+03,1.609561e+03
3.124118e+03,1.645993e+03
3.125082e+03,1.677397e+03
3.126046e+03,1.676829e+03
3.127011e+03,1.632663e+03
3.127975e+03,1.636299e+03
3.128939e+03,1.675160e+03
3.129903e+03,1.640911e+03
3.130868e+03,1.600844e+03
3.131832e+03,1.621258e+03
3.132796e+03,1.629106e+03
3.133760e+03,1.619871e+03
3.134725e+03,1.604512e+03
3.135689e+03,1.601304e+03
3.136653e+03,1.627913e+03
3.137617e+03,1.637690e+03
3.138582e+03,1.617612e+03
3.139546e+03,1.609684e+03
3.140510e+03,1.610772e+03
3.141474e+03,1.624329e+03
3.142438e+03,1.623305e+03
3.143403e+03,1.607074e+03
3.144367e+03,1.596683e+03
3.145331e+03,1.594070e+03
3.146295e+03,1.602982e+03
3.147260e+03,1.622530e+03
3.148224e+03,1.649179e+03
3.149188e+03,1.659888e+03
3.150152e+03,1.657440e+03
3.151116e+03,1.645898e+03
3.152081e+03,1.634608e+03
3.153045e+03,1.623874e+03
3.154009e+03,1.629583e+03
3.154973e+03,1.640571e+03
3.155938e+03,1.627500e+03
3.156902e+03,1.612217e+03
3.157866e+03,1.598296e+03
3.158830e+03,1.556043e+03
3.159795e+03,1.523058e+03
3.160759e+03,1.618639e+03
3.161723e+03,1.696485e+03
3.162687e+03,1.664158e+03
3.163652e+03,1.645792e+03
3.164616e+03,1.639665e+03
3.165580e+03,1.629559e+03
3.166544e+03,1.641924e+03
3.167509e+03,1.684235e+03
3.168473e+03,1.677637e+03
3.169437e+03,1.636206e+03
3.170401e+03,1.620823e+03
3.171365e+03,1.614688e+03
3.172330e+03,1.612297e+03
3.173294e+03,1.599006e+03
3.174258e+03,1.587363e+03
3.175222e+03,1.605709e+03
3.176187e+03,1.616810e+03
3.177151e+03,1.599367e+03
3.178115e+03,1.579076e+03
3.179079e+03,1.570751e+03
3.180043e+03,1.610000e+03
3.181008e+03,1.656479e+03
3.181972e+03,1.694272e+03
3.182936e+03,1.670238e+03
3.183900e+03,1.615748e+03
3.184865e+03,1.639777e+03
3.185829e+03,1.653478e+03
3.186793e+03,1.585795e+03
3.187757e+03,1.566327e+03
3.188722e+03,1.592482e+03
3.189686e+03,1.658793e+03
3.190650e+03,1.691587e+03
3.191614e+03,1.667752e+03
3.192579e+03,1.645746e+03
3.193543e+03,1.628421e+03
3.194507e+03,1.587083e+03
3.195471e+03,1.566832e+03
3.196436e+03,1.587333e+03
3.197400e+03,1.596941e+03
3.198364e+03,1.611460e+03
3.199328e+03,1.672050e+03
3.200292e+03,1.686018e+03
3.201257e+03,0.000000e+00
3.202221e+03,0.000000e+00
3.203185e+03,0.000000e+00
3.204149e+03,0.000000e+00
3.205114e+03,0.000000e+00
3.206078e+03,0.000000e+00
3.207042e+03,0.000000e+00
3.208006e+03,0.000000e+00
3.208970e+03,0.000000e+00
3.209935e+03,0.000000e+00
3.210899e+03,0.000000e+00
3.211863e+03,0.000000e+00
3.212827e+03,0.000000e+00
3.213792e+03,0.000000e+00
3.214756e+03,0.000000e+00
3.215720e+03,0.000000e+00
3.216684e+03,0.000000e+00
3.217649e+03,0.000000e+00
3.218613e+03,0.000000e+00
3.219577e+03,0.000000e+00
3.220541e+03,0.000000e+00
3.221506e+03,0.000000e+00
3.222470e+03,0.000000e+00
3.223434e+03,0.000000e+00
3.224398e+03,0.000000e+00
3.225363e+03,0.000000e+00
3.226327e+03,0.000000e+00
3.227291e+03,0.000000e+00
3.228255e+03,0.000000e+00
3.229219e+03,0.000000e+00
3.230184e+03,0.000000e+00
3.231148e+03,0.000000e+00
3.232112e+03,0.000000e+00
3.233076e+03,0.000000e+00
3.234041e+03,0.000000e+00
3.235005e+03,0.000000e+00
3.235969e+03,0.000000e+00
3.236933e+03,0.000000e+00
3.237897e+03,0.000000e+00
3.238862e+03,0.000000e+00
3.239826e+03,0.000000e+00
3.240790e+03,0.000000e+00
3.241754e+03,0.000000e+00
3.242719e+03,0.000000e+00
3.243683e+03,0.000000e+00
3.244647e+03,0.000000e+00
3.245611e+03,0.000000e+00
3.246576e+03,0.000000e+00
3.247540e+03,0.000000e+00
3.248504e+03,0.000000e+00
3.249468e+03,0.000000e+00
3.250433e+03,0.000000e+00
3.251397e+03,0.000000e+00
3.252361e+03,0.000000e+00
3.253325e+03,0.000000e+00
3.254290e+03,0.000000e+00
3.255254e+03,0.000000e+00
3.256218e+03,0.000000e+00
3.257182e+03,0.000000e+00
3.258146e+03,0.000000e+00
3.259111e+03,0.000000e+00
3.260075e+03,0.000000e+00
3.261039e+03,0.000000e+00
3.262003e+03,0.000000e+00
3.262968e+03,0.000000e+00
3.263932e+03,0.000000e+00
3.264896e+03,0.000000e+00
3.265860e+03,0.000000e+00
3.266824e+03,0.000000e+00
3.267789e+03,0.000000e+00
3.268753e+03,0.000000e+00
3.269717e+03,0.000000e+00
3.270681e+03,0.000000e+00
3.271646e+03,0.000000e+00
3.272610e+03,0.000000e+00
3.273574e+03,0.000000e+00
3.274538e+03,0.000000e+00
3.275503e+03,0.000000e+00
3.276467e+03,0.000000e+00
3.277431e+03,0.000000e+00
3.278395e+03,0.000000e+00
3.279360e+03,0.000000e+00
3.280324e+03,0.000000e+00
3.281288e+03,0.000000e+00
3.282252e+03,0.000000e+00
3.283217e+03,0.000000e+00
3.284181e+03,0.000000e+00
3.285145e+03,0.000000e+00
3.286109e+03,0.000000e+00
3.287073e+03,0.000000e+00
3.288038e+03,0.000000e+00
3.289002e+03,0.000000e+00
3.289966e+03,0.000000e+00
3.290930e+03,0.000000e+00
3.291895e+03,0.000000e+00
3.292859e+03,0.000000e+00
3.293823e+03,0.000000e+00
3.294787e+03,0.000000e+00
3.295751e+03,0.000000e+00
3.296716e+03,0.000000e+00
3.297680e+03,0.000000e+00
3.298644e+03,0.000000e+00
3.299608e+03,0.000000e+00
3.300573e+03,0.000000e+00
3.301537e+03,0.000000e+00
3.302501e+03,0.000000e+00
3.303465e+03,0.000000e+00
3.304430e+03,0.000000e+00
3.305394e+03,0.000000e+00
3.306358e+03,0.000000e+00
3.307322e+03,0.000000e+00
3.308287e+03,0.000000e+00
3.309251e+03,0.000000e+00
3.310215e+03,0.000000e+00
3.311179e+03,0.000000e+00
3.312144e+03,0.000000e+00
3.313108e+03,0.000000e+00
3.314072e+03,0.000000e+00
3.315036e+03,0.000000e+00
3.316000e+03,0.000000e+00
3.316965e+03,0.000000e+00
3.317929e+03,0.000000e+00
3.318893e+03,0.000000e+00
3.319857e+03,0.000000e+00
3.320822e+03,0.000000e+00
3.321786e+03,0.000000e+00
3.322750e+03,0.000000e+00
3.323714e+03,0.000000e+00
3.324678e+03,0.000000e+00
3.325643e+03,0.000000e+00
3.326607e+03,0.000000e+00
3.327571e+03,0.000000e+00
3.328535e+03,0.000000e+00
3.329500e+03,0.000000e+00
3.330464e+03,0.000000e+00
3.331428e+03,0.000000e+00
3.332392e+03,0.000000e+00
3.333357e+03,0.000000e+00
3.334321e+03,0.000000e+00
3.335285e+03,0.000000e+00
3.336249e+03,0.000000e+00
3.337214e+03,0.000000e+00
3.338178e+03,0.000000e+00
3.339142e+03,0.000000e+00
3.340106e+03,0.000000e+00
3.341071e+03,0.000000e+00
3.342035e+03,0.000000e+00
3.342999e+03,0.000000e+00
3.343963e+03,0.000000e+00
3.344927e+03,0.000000e+00
3.345892e+03,0.000000e+00
3.346856e+03,0.000000e+00
3.347820e+03,0.000000e+00
3.348784e+03,0.000000e+00
3.349749e+03,0.000000e+00
3.350713e+03,0.000000e+00
3.351677e+03,0.000000e+00
3.352641e+03,0.000000e+00
3.353605e+03,0.000000e+00
3.354570e+03,0.000000e+00
3.355534e+03,0.000000e+00
3.356498e+03,0.000000e+00
3.357462e+03,0.000000e+00
3.358427e+03,0.000000e+00
3.359391e+03,0.000000e+00
3.360355e+03,0.000000e+00
3.361319e+03,0.000000e+00
3.362284e+03,0.000000e+00
3.363248e+03,0.000000e+00
3.364212e+03,0.000000e+00
3.365176e+03,0.000000e+00
3.366141e+03,0.000000e+00
3.367105e+03,0.000000e+00
3.368069e+03,0.000000e+00
3.369033e+03,0.000000e+00
3.369998e+03,0.000000e+00
3.370962e+03,0.000000e+00
3.371926e+03,0.000000e+00
3.372890e+03,0.000000e+00
3.373854e+03,0.000000e+00
3.374819e+03,0.000000e+00
3.375783e+03,0.000000e+00
3.376747e+03,0.000000e+00
3.377711e+03,0.000000e+00
3.378676e+03,0.000000e+00
3.379640e+03,0.000000e+00
3.380604e+03,0.000000e+00
3.381568e+03,0.000000e+00
3.382532e+03,0.000000e+00
3.383497e+03,0.000000e+00
3.384461e+03,0.000000e+00
3.385425e+03,0.000000e+00
3.386389e+03,0.000000e+00
3.387354e+03,0.000000e+00
3.388318e+03,0.000000e+00
3.389282e+03,0.000000e+00
3.390246e+03,0.000000e+00
3.391211e+03,0.000000e+00
3.392175e+03,0.000000e+00
3.393139e+03,0.000000e+00
3.394103e+03,0.000000e+00
3.395068e+03,0.000000e+00
3.396032e+03,0.000000e+00
3.396996e+03,0.000000e+00
3.397960e+03,0.000000e+00
3.398925e+03,0.000000e+00
3.399889e+03,0.000000e+00
3.400853e+03,0.000000e+00
3.401817e+03,0.000000e+00
3.402781e+03,0.000000e+00
3.403746e+03,0.000000e+00
3.404710e+03,0.000000e+00
3.405674e+03,0.000000e+00
3.406638e+03,0.000000e+00
3.407603e+03,0.000000e+00
3.408567e+03,0.000000e+00
3.409531e+03,0.000000e+00
3.410495e+03,0.000000e+00
3.411459e+03,0.000000e+00
3.412424e+03,0.000000e+00
3.413388e+03,0.000000e+00
3.414352e+03,0.000000e+00
3.415316e+03,0.000000e+00
3.416281e+03,0.000000e+00
3.417245e+03,0.000000e+00
3.418209e+03,0.000000e+00
3.419173e+03,0.000000e+00
3.420138e+03,0.000000e+00
3.421102e+03,0.000000e+00
3.422066e+03,0.000000e+00
3.423030e+03,0.000000e+00
3.423995e+03,0.000000e+00
3.424959e+03,0.000000e+00
3.425923e+03,0.000000e+00
3.426887e+03,0.000000e+00
3.427852e+03,0.000000e+00
3.428816e+03,0.000000e+00
3.429780e+03,0.000000e+00
3.430744e+03,0.000000e+00
3.431708e+03,0.000000e+00
3.432673e+03,0.000000e+00
3.433637e+03,0.000000e+00
3.434601e+03,0.000000e+00
3.435565e+03,0.000000e+00
3.436530e+03,0.000000e+00
3.437494e+03,0.000000e+00
3.438458e+03,0.000000e+00
3.439422e+03,0.000000e+00
3.440386e+03,0.000000e+00
3.441351e+03,0.000000e+00
3.442315e+03,0.000000e+00
3.443279e+03,0.000000e+00
3.444243e+03,0.000000e+00
3.445208e+03,0.000000e+00
3.446172e+03,0.000000e+00
3.447136e+03,0.000000e+00
3.448100e+03,0.000000e+00
3.449065e+03,0.000000e+00
3.450029e+03,0.000000e+00
3.450993e+03,0.000000e+00
3.451957e+03,0.000000e+00
3.452922e+03,0.000000e+00
3.453886e+03,0.000000e+00
3.454850e+03,0.000000e+00
3.455814e+03,0.000000e+00
3.456779e+03,0.000000e+00
3.457743e+03,0.000000e+00
3.458707e+03,0.000000e+00
3.459671e+03,0.000000e+00
3.460635e+03,0.000000e+00
3.461600e+03,0.000000e+00
3.462564e+03,0.000000e+00
3.463528e+03,0.000000e+00
3.464492e+03,0.000000e+00
3.465457e+03,0.000000e+00
3.466421e+03,0.000000e+00
3.467385e+03,0.000000e+00
3.468349e+03,0.000000e+00
3.469313e+03,0.000000e+00
3.470278e+03,0.000000e+00
3.471242e+03,0.000000e+00
3.472206e+03,0.000000e+00
3.473170e+03,0.000000e+00
3.474135e+03,0.000000e+00
3.475099e+03,0.000000e+00
3.476063e+03,0.000000e+00
3.477027e+03,0.000000e+00
3.477992e+03,0.000000e+00
3.478956e+03,0.000000e+00
3.479920e+03,0.000000e+00
3.480884e+03,0.000000e+00
3.481849e+03,0.000000e+00
3.482813e+03,0.000000e+00
3.483777e+03,0.000000e+00
3.484741e+03,0.000000e+00
3.485706e+03,0.000000e+00
3.486670e+03,0.000000e+00
3.487634e+03,0.000000e+00
3.488598e+03,0.000000e+00
3.489563e+03,0.000000e+00
3.490527e+03,0.000000e+00
3.491491e+03,0.000000e+00
3.492455e+03,0.000000e+00
3.493419e+03,0.000000e+00
3.494384e+03,0.000000e+00
3.495348e+03,0.000000e+00
3.496312e+03,0.000000e+00
3.497276e+03,0.000000e+00
3.498240e+03,0.000000e+00
3.499205e+03,0.000000e+00
3.500169e+03,0.000000e+00
