9.931763e+01,0.000000e+00
1.002819e+02,0.000000e+00
1.012461e+02,0.000000e+00
1.022103e+02,0.000000e+00
1.031746e+02,0.000000e+00
1.041388e+02,0.000000e+00
1.051030e+02,0.000000e+00
1.060673e+02,0.000000e+00
1.070315e+02,0.000000e+00
1.079957e+02,0.000000e+00
1.089600e+02,0.000000e+00
1.099242e+02,0.000000e+00
1.108884e+02,0.000000e+00
1.118527e+02,0.000000e+00
1.128169e+02,0.000000e+00
1.137811e+02,0.000000e+00
1.147454e+02,0.000000e+00
1.157096e+02,0.000000e+00
1.166738e+02,0.000000e+00
1.176381e+02,0.000000e+00
1.186023e+02,0.000000e+00
1.195665e+02,0.000000e+00
1.205308e+02,0.000000e+00
1.214950e+02,0.000000e+00
1.224592e+02,0.000000e+00
1.234235e+02,0.000000e+00
1.243877e+02,0.000000e+00
1.253519e+02,0.000000e+00
1.263162e+02,0.000000e+00
1.272804e+02,0.000000e+00
1.282446e+02,0.000000e+00
1.292089e+02,0.000000e+00
1.301731e+02,0.000000e+00
1.311373e+02,0.000000e+00
1.321016e+02,0.000000e+00
1.330658e+02,0.000000e+00
1.340300e+02,0.000000e+00
1.349943e+02,0.000000e+00
1.359585e+02,0.000000e+00
1.369227e+02,0.000000e+00
1.378870e+02,0.000000e+00
1.388512e+02,0.000000e+00
1.398154e+02,0.000000e+00
1.407797e+02,0.000000e+00
1.417439e+02,0.000000e+00
1.427081e+02,0.000000e+00
1.436724e+02,0.000000e+00
1.446366e+02,0.000000e+00
1.456008e+02,0.000000e+00
1.465651e+02,0.000000e+00
1.475293e+02,0.000000e+00
1.484935e+02,0.000000e+00
1.494578e+02,0.000000e+00
1.504220e+02,0.000000e+00
1.513862e+02,0.000000e+00
1.523505e+02,0.000000e+00
1.533147e+02,0.000000e+00
1.542789e+02,0.000000e+00
1.552432e+02,0.000000e+00
1.562074e+02,0.000000e+00
1.571716e+02,0.000000e+00
1.581359e+02,0.000000e+00
1.591001e+02,0.000000e+00
1.600643e+02,0.000000e+00
1.610286e+02,0.000000e+00
1.619928e+02,0.000000e+00
1.629570e+02,0.000000e+00
1.639213e+02,0.000000e+00
1.648855e+02,0.000000e+00
1.658497e+02,0.000000e+00
1.668140e+02,0.000000e+00
1.677782e+02,0.000000e+00
1.687424e+02,0.000000e+00
1.697067e+02,0.000000e+00
1.706709e+02,0.000000e+00
1.716351e+02,0.000000e+00
1.725994e+02,0.000000e+00
1.735636e+02,0.000000e+00
1.745278e+02,0.000000e+00
1.754921e+02,0.000000e+00
1.764563e+02,0.000000e+00
1.774205e+02,0.000000e+00
1.783848e+02,0.000000e+00
1.793490e+02,0.000000e+00
1.803132e+02,0.000000e+00
1.812775e+02,0.000000e+00
1.822417e+02,0.000000e+00
1.832059e+02,0.000000e+00
1.841702e+02,0.000000e+00
1.851344e+02,0.000000e+00
1.860986e+02,0.000000e+00
1.870629e+02,0.000000e+00
1.880271e+02,0.000000e+00
1.889913e+02,0.000000e+00
1.899556e+02,0.000000e+00
1.909198e+02,0.000000e+00
1.918840e+02,0.000000e+00
1.928483e+02,0.000000e+00
1.938125e+02,0.000000e+00
1.947767e+02,0.000000e+00
1.957410e+02,0.000000e+00
1.967052e+02,0.000000e+00
1.976694e+02,0.000000e+00
1.986337e+02,0.000000e+00
1.995979e+02,2.084532e+03
2.005621e+02,2.082640e+03
2.015264e+02,2.082310e+03
2.024906e+02,2.086324e+03
2.034548e+02,2.089483e+03
2.044191e+02,2.089008e+03
2.053833e+02,2.085303e+03
2.063475e+02,2.081339e+03
2.073118e+02,2.081036e+03
2.082760e+02,2.086517e+03
2.092402e+02,2.089093e+03
2.102045e+02,2.086985e+03
2.111687e+02,2.083953e+03
2.121329e+02,2.082581e+03
2.130972e+02,2.083885e+03
2.140614e+02,2.086148e+03
2.150256e+02,2.085446e+03
2.159899e+02,2.079046e+03
2.169541e+02,2.074194e+03
2.179183e+02,2.074631e+03
2.188826e+02,2.079185e+03
2.198468e+02,2.084255e+03
2.208110e+02,2.087951e+03
2.217753e+02,2.089976e+03
2.227395e+02,2.089094e+03
2.237037e+02,2.084606e+03
2.246680e+02,2.078578e+03
2.256322e+02,2.072344e+03
2.265964e+02,2.066313e+03
2.275607e+02,2.061371e+03
2.285249e+02,2.057686e+03
2.294892e+02,2.054927e+03
2.304534e+02,2.055369e+03
2.314176e+02,2.062581e+03
2.323819e+02,2.074437e+03
2.333461e+02,2.083050e+03
2.343103e+02,2.084946e+03
2.352746e+02,2.082679e+03
2.362388e+02,2.080043e+03
2.372030e+02,2.076979e+03
2.381673e+02,2.073510e+03
2.391315e+02,2.071154e+03
2.400957e+02,2.071885e+03
2.410600e+02,2.072997e+03
2.420242e+02,2.074616e+03
2.429884e+02,2.076821e+03
2.439527e+02,2.078237e+03
2.449169e+02,2.076883e+03
2.458811e+02,2.071850e+03
2.468454e+02,2.068995e+03
2.478096e+02,2.070108e+03
2.487738e+02,2.072113e+03
2.497381e+02,2.073063e+03
2.507023e+02,2.072576e+03
2.516665e+02,2.071138e+03
2.526308e+02,2.069276e+03
2.535950e+02,2.063831e+03
2.545592e+02,2.060162e+03
2.555235e+02,2.060761e+03
2.564877e+02,2.063200e+03
2.574519e+02,2.064534e+03
2.584161e+02,2.063054e+03
2.593804e+02,2.059513e+03
2.603446e+02,2.058696e+03
2.613088e+02,2.062437e+03
2.622731e+02,2.066372e+03
2.632373e+02,2.069673e+03
2.642015e+02,2.071667e+03
2.651658e+02,2.071959e+03
2.661300e+02,2.070065e+03
2.670942e+02,2.065999e+03
2.680585e+02,2.063562e+03
2.690227e+02,2.065551e+03
2.699869e+02,2.068264e+03
2.709512e+02,2.068799e+03
2.719154e+02,2.066324e+03
2.728796e+02,2.062800e+03
2.738439e+02,2.060896e+03
2.748081e+02,2.061438e+03
2.757723e+02,2.063068e+03
2.767366e+02,2.063116e+03
2.777008e+02,2.061185e+03
2.786650e+02,2.059184e+03
2.796293e+02,2.058958e+03
2.805935e+02,2.059729e+03
2.815577e+02,2.059481e+03
2.825220e+02,2.057414e+03
2.834862e+02,2.054099e+03
2.844504e+02,2.051047e+03
2.854147e+02,2.050503e+03
2.863789e+02,2.048042e+03
2.873431e+02,2.039943e+03
2.883074e+02,2.029453e+03
2.892716e+02,2.023174e+03
2.902358e+02,2.025054e+03
2.912001e+02,2.034879e+03
2.921643e+02,2.041509e+03
2.931285e+02,2.045389e+03
2.940928e+02,2.047188e+03
2.950570e+02,2.045329e+03
2.960212e+02,2.040181e+03
2.969855e+02,2.034725e+03
2.979497e+02,2.033538e+03
2.989139e+02,2.040444e+03
2.998782e+02,2.043321e+03
3.008424e+02,2.039494e+03
3.018066e+02,2.034350e+03
3.027709e+02,2.031066e+03
3.037351e+02,2.030556e+03
3.046993e+02,2.031693e+03
3.056636e+02,2.033432e+03
3.066278e+02,2.037094e+03
3.075920e+02,2.039185e+03
3.085563e+02,2.036546e+03
3.095205e+02,2.031476e+03
3.104847e+02,2.028344e+03
3.114490e+02,2.030153e+03
3.124132e+02,2.034191e+03
3.133774e+02,2.034881e+03
3.143417e+02,2.030297e+03
3.153059e+02,2.024087e+03
3.162701e+02,2.022459e+03
3.172344e+02,2.028249e+03
3.181986e+02,2.032359e+03
3.191628e+02,2.029993e+03
3.201271e+02,2.024269e+03
3.210913e+02,2.021408e+03
3.220555e+02,2.024671e+03
3.230198e+02,2.032525e+03
3.239840e+02,2.035508e+03
3.249482e+02,2.028558e+03
3.259125e+02,2.021855e+03
3.268767e+02,2.019091e+03
3.278409e+02,2.019525e+03
3.288052e+02,2.020263e+03
3.297694e+02,2.018362e+03
3.307336e+02,2.012934e+03
3.316979e+02,2.009448e+03
3.326621e+02,2.010568e+03
3.336263e+02,2.011430e+03
3.345906e+02,2.009264e+03
3.355548e+02,2.003919e+03
3.365190e+02,1.999058e+03
3.374833e+02,1.998754e+03
3.384475e+02,2.003305e+03
3.394117e+02,2.008299e+03
3.403760e+02,2.013100e+03
3.413402e+02,2.016455e+03
3.423044e+02,2.016423e+03
3.432687e+02,2.008460e+03
3.442329e+02,1.999306e+03
3.451971e+02,1.995067e+03
3.461614e+02,1.995389e+03
3.471256e+02,1.996433e+03
3.480898e+02,1.995782e+03
3.490541e+02,1.993277e+03
3.500183e+02,1.991872e+03
3.509825e+02,1.992555e+03
3.519468e+02,1.994713e+03
3.529110e+02,1.998039e+03
3.538752e+02,2.001988e+03
3.548395e+02,2.005158e+03
3.558037e+02,2.005333e+03
3.567680e+02,1.999491e+03
3.577322e+02,1.995784e+03
3.586964e+02,1.997062e+03
3.596607e+02,2.000949e+03
3.606249e+02,2.004338e+03
3.615891e+02,2.005196e+03
3.625534e+02,2.003311e+03
3.635176e+02,1.999159e+03
3.644818e+02,1.992294e+03
3.654461e+02,1.986201e+03
3.664103e+02,1.984213e+03
3.673745e+02,1.986528e+03
3.683388e+02,1.989945e+03
3.693030e+02,1.991344e+03
3.702672e+02,1.992372e+03
3.712315e+02,1.996910e+03
3.721957e+02,2.006113e+03
3.731599e+02,2.016096e+03
3.741242e+02,2.021565e+03
3.750884e+02,2.020721e+03
3.760526e+02,2.019799e+03
3.770169e+02,2.018720e+03
3.779811e+02,2.017389e+03
3.789453e+02,2.015681e+03
3.799096e+02,2.013424e+03
3.808738e+02,2.010432e+03
3.818380e+02,2.006558e+03
3.828023e+02,2.002061e+03
3.837665e+02,1.998150e+03
3.847307e+02,1.994552e+03
3.856950e+02,1.991407e+03
3.866592e+02,1.989004e+03
3.876234e+02,1.987965e+03
3.885877e+02,1.987660e+03
3.895519e+02,1.986230e+03
3.905161e+02,1.982949e+03
3.914804e+02,1.978964e+03
3.924446e+02,1.975771e+03
3.934088e+02,1.973876e+03
3.943731e+02,1.972405e+03
3.953373e+02,1.970987e+03
3.963015e+02,1.969730e+03
3.972658e+02,1.969174e+03
3.982300e+02,1.969896e+03
3.991942e+02,1.971578e+03
4.001585e+02,1.971623e+03
4.011227e+02,1.964432e+03
4.020869e+02,1.960620e+03
4.030512e+02,1.963414e+03
4.040154e+02,1.969348e+03
4.049796e+02,1.973732e+03
4.059439e+02,1.972587e+03
4.069081e+02,1.967893e+03
4.078723e+02,1.967714e+03
4.088366e+02,1.974118e+03
4.098008e+02,1.979944e+03
4.107650e+02,1.981142e+03
4.117293e+02,1.978362e+03
4.126935e+02,1.975601e+03
4.136577e+02,1.974168e+03
4.146220e+02,1.973505e+03
4.155862e+02,1.972979e+03
4.165504e+02,1.972555e+03
4.175147e+02,1.972133e+03
4.184789e+02,1.971451e+03
4.194431e+02,1.970130e+03
4.204074e+02,1.968809e+03
4.213716e+02,1.967371e+03
4.223358e+02,1.965927e+03
4.233001e+02,1.964784e+03
4.242643e+02,1.964381e+03
4.252285e+02,1.964230e+03
4.261928e+02,1.962335e+03
4.271570e+02,1.957243e+03
4.281212e+02,1.954197e+03
4.290855e+02,1.957331e+03
4.300497e+02,1.963811e+03
4.310139e+02,1.967641e+03
4.319782e+02,1.964684e+03
4.329424e+02,1.959765e+03
4.339066e+02,1.958523e+03
4.348709e+02,1.961189e+03
4.358351e+02,1.964417e+03
4.367993e+02,1.965212e+03
4.377636e+02,1.962980e+03
4.387278e+02,1.959838e+03
4.396920e+02,1.955739e+03
4.406563e+02,1.951329e+03
4.416205e+02,1.946455e+03
4.425847e+02,1.941038e+03
4.435490e+02,1.935945e+03
4.445132e+02,1.932715e+03
4.454774e+02,1.931947e+03
4.464417e+02,1.931686e+03
4.474059e+02,1.931390e+03
4.483701e+02,1.930758e+03
4.493344e+02,1.929783e+03
4.502986e+02,1.928445e+03
4.512628e+02,1.927541e+03
4.522271e+02,1.927452e+03
4.531913e+02,1.928169e+03
4.541555e+02,1.929812e+03
4.551198e+02,1.932752e+03
4.560840e+02,1.937084e+03
4.570482e+02,1.938506e+03
4.580125e+02,1.936264e+03
4.589767e+02,1.933656e+03
4.599409e+02,1.930998e+03
4.609052e+02,1.927847e+03
4.618694e+02,1.923976e+03
4.628336e+02,1.918581e+03
4.637979e+02,1.912172e+03
4.647621e+02,1.908769e+03
4.657263e+02,1.910991e+03
4.666906e+02,1.914718e+03
4.676548e+02,1.914359e+03
4.686190e+02,1.907906e+03
4.695833e+02,1.903327e+03
4.705475e+02,1.904956e+03
4.715117e+02,1.909245e+03
4.724760e+02,1.911140e+03
4.734402e+02,1.908992e+03
4.744044e+02,1.904510e+03
4.753687e+02,1.901376e+03
4.763329e+02,1.900151e+03
4.772971e+02,1.899620e+03
4.782614e+02,1.899800e+03
4.792256e+02,1.900574e+03
4.801898e+02,1.901671e+03
4.811541e+02,1.902997e+03
4.821183e+02,1.904096e+03
4.830826e+02,1.904654e+03
4.840468e+02,1.904553e+03
4.850110e+02,1.902821e+03
4.859753e+02,1.898213e+03
4.869395e+02,1.890343e+03
4.879037e+02,1.886606e+03
4.888680e+02,1.890876e+03
4.898322e+02,1.896268e+03
4.907964e+02,1.899686e+03
4.917607e+02,1.900922e+03
4.927249e+02,1.900793e+03
4.936891e+02,1.899862e+03
4.946534e+02,1.898068e+03
4.956176e+02,1.894997e+03
4.965818e+02,1.887576e+03
4.975461e+02,1.882151e+03
4.985103e+02,1.885248e+03
4.994745e+02,1.899742e+03
5.004388e+02,1.909239e+03
5.014030e+02,1.902853e+03
5.023672e+02,1.888210e+03
5.033315e+02,1.877482e+03
5.042957e+02,1.874323e+03
5.052599e+02,1.876408e+03
5.062242e+02,1.879597e+03
5.071884e+02,1.886585e+03
5.081526e+02,1.891288e+03
5.091169e+02,1.892523e+03
5.100811e+02,1.892017e+03
5.110453e+02,1.891271e+03
5.120095e+02,1.890966e+03
5.129738e+02,1.891024e+03
5.139380e+02,1.891209e+03
5.149022e+02,1.891590e+03
5.158665e+02,1.892414e+03
5.168307e+02,1.893676e+03
5.177949e+02,1.894345e+03
5.187592e+02,1.891546e+03
5.197234e+02,1.884566e+03
5.206876e+02,1.878143e+03
5.216519e+02,1.873960e+03
5.226161e+02,1.872059e+03
5.235803e+02,1.871685e+03
5.245446e+02,1.873142e+03
5.255088e+02,1.875960e+03
5.264730e+02,1.876604e+03
5.274373e+02,1.873951e+03
5.284015e+02,1.870884e+03
5.293657e+02,1.870088e+03
5.303300e+02,1.872106e+03
5.312942e+02,1.872219e+03
5.322584e+02,1.867612e+03
5.332227e+02,1.863035e+03
5.341869e+02,1.863716e+03
5.351511e+02,1.870113e+03
5.361154e+02,1.877029e+03
5.370796e+02,1.876819e+03
5.380438e+02,1.867110e+03
5.390081e+02,1.861149e+03
5.399723e+02,1.864354e+03
5.409365e+02,1.870203e+03
5.419008e+02,1.871951e+03
5.428650e+02,1.866699e+03
5.438292e+02,1.860355e+03
5.447935e+02,1.855078e+03
5.457577e+02,1.851115e+03
5.467219e+02,1.849493e+03
5.476862e+02,1.851018e+03
5.486504e+02,1.854230e+03
5.496146e+02,1.854744e+03
5.505789e+02,1.850252e+03
5.515431e+02,1.846404e+03
5.525073e+02,1.844587e+03
5.534716e+02,1.845242e+03
5.544358e+02,1.848089e+03
5.554000e+02,1.853630e+03
5.563643e+02,1.859794e+03
5.573285e+02,1.865698e+03
5.582927e+02,1.870791e+03
5.592570e+02,1.872574e+03
5.602212e+02,1.869266e+03
5.611854e+02,1.860767e+03
5.621497e+02,1.853180e+03
5.631139e+02,1.844385e+03
5.640781e+02,1.837748e+03
5.650424e+02,1.836898e+03
5.660066e+02,1.840321e+03
5.669708e+02,1.842277e+03
5.679351e+02,1.837840e+03
5.688993e+02,1.830684e+03
5.698635e+02,1.827746e+03
5.708278e+02,1.829916e+03
5.717920e+02,1.833390e+03
5.727562e+02,1.834186e+03
5.737205e+02,1.830565e+03
5.746847e+02,1.828581e+03
5.756489e+02,1.828853e+03
5.766132e+02,1.829592e+03
5.775774e+02,1.830408e+03
5.785416e+02,1.831222e+03
5.795059e+02,1.831282e+03
5.804701e+02,1.829304e+03
5.814343e+02,1.826012e+03
5.823986e+02,1.824048e+03
5.833628e+02,1.824307e+03
5.843270e+02,1.825175e+03
5.852913e+02,1.824256e+03
5.862555e+02,1.819354e+03
5.872197e+02,1.815982e+03
5.881840e+02,1.815043e+03
5.891482e+02,1.814680e+03
5.901124e+02,1.813138e+03
5.910767e+02,1.809689e+03
5.920409e+02,1.806606e+03
5.930051e+02,1.807014e+03
5.939694e+02,1.809986e+03
5.949336e+02,1.810889e+03
5.958978e+02,1.808008e+03
5.968621e+02,1.802822e+03
5.978263e+02,1.798847e+03
5.987905e+02,1.795535e+03
5.997548e+02,1.794841e+03
6.007190e+02,1.799863e+03
6.016832e+02,1.806906e+03
6.026475e+02,1.811188e+03
6.036117e+02,1.809613e+03
6.045759e+02,1.805764e+03
6.055402e+02,1.803368e+03
6.065044e+02,1.802131e+03
6.074686e+02,1.801827e+03
6.084329e+02,1.803103e+03
6.093971e+02,1.805578e+03
6.103613e+02,1.806484e+03
6.113256e+02,1.805692e+03
6.122899e+02,1.803520e+03
6.132541e+02,1.798859e+03
6.142183e+02,1.792927e+03
6.151826e+02,1.787861e+03
6.161468e+02,1.785006e+03
6.171110e+02,1.784004e+03
6.180753e+02,1.785151e+03
6.190395e+02,1.787936e+03
6.200037e+02,1.788838e+03
6.209680e+02,1.785136e+03
6.219322e+02,1.777407e+03
6.228964e+02,1.772556e+03
6.238607e+02,1.771957e+03
6.248249e+02,1.772679e+03
6.257891e+02,1.773529e+03
6.267534e+02,1.774210e+03
6.277176e+02,1.775213e+03
6.286818e+02,1.778884e+03
6.296461e+02,1.782753e+03
6.306103e+02,1.783594e+03
6.315745e+02,1.781621e+03
6.325388e+02,1.778961e+03
6.335030e+02,1.777111e+03
6.344672e+02,1.775873e+03
6.354315e+02,1.772307e+03
6.363957e+02,1.762266e+03
6.373599e+02,1.753841e+03
6.383242e+02,1.752475e+03
6.392884e+02,1.757597e+03
6.402526e+02,1.761875e+03
6.412169e+02,1.762579e+03
6.421811e+02,1.761610e+03
6.431453e+02,1.760654e+03
6.441096e+02,1.759788e+03
6.450738e+02,1.758397e+03
6.460380e+02,1.755344e+03
6.470023e+02,1.750896e+03
6.479665e+02,1.750164e+03
6.489307e+02,1.753868e+03
6.498950e+02,1.759327e+03
6.508592e+02,1.765416e+03
6.518234e+02,1.772406e+03
6.527877e+02,1.775592e+03
6.537519e+02,1.771998e+03
6.547161e+02,1.766193e+03
6.556804e+02,1.761275e+03
6.566446e+02,1.757760e+03
6.576088e+02,1.754751e+03
6.585731e+02,1.750864e+03
6.595373e+02,1.746504e+03
6.605015e+02,1.744238e+03
6.614658e+02,1.744572e+03
6.624300e+02,1.746405e+03
6.633942e+02,1.748923e+03
6.643585e+02,1.752850e+03
6.653227e+02,1.755226e+03
6.662869e+02,1.754994e+03
6.672512e+02,1.753551e+03
6.682154e+02,1.751436e+03
6.691796e+02,1.748582e+03
6.701439e+02,1.745859e+03
6.711081e+02,1.743857e+03
6.720723e+02,1.742534e+03
6.730366e+02,1.742090e+03
6.740008e+02,1.742788e+03
6.749650e+02,1.744001e+03
6.759293e+02,1.745430e+03
6.768935e+02,1.748415e+03
6.778577e+02,1.748329e+03
6.788220e+02,1.742241e+03
6.797862e+02,1.736259e+03
6.807504e+02,1.734053e+03
6.817147e+02,1.735977e+03
6.826789e+02,1.737760e+03
6.836431e+02,1.736896e+03
6.846074e+02,1.734850e+03
6.855716e+02,1.733779e+03
6.865358e+02,1.734373e+03
6.875001e+02,1.735664e+03
6.884643e+02,1.736466e+03
6.894285e+02,1.736852e+03
6.903928e+02,1.737345e+03
6.913570e+02,1.737901e+03
6.923212e+02,1.738242e+03
6.932855e+02,1.738318e+03
6.942497e+02,1.738737e+03
6.952139e+02,1.739166e+03
6.961782e+02,1.740196e+03
6.971424e+02,1.740413e+03
6.981066e+02,1.737340e+03
6.990709e+02,1.729927e+03
7.000351e+02,1.723237e+03
7.009993e+02,1.723226e+03
7.019636e+02,1.727814e+03
7.029278e+02,1.732087e+03
7.038920e+02,1.735144e+03
7.048563e+02,1.735704e+03
7.058205e+02,1.731980e+03
7.067847e+02,1.722902e+03
7.077490e+02,1.715626e+03
7.087132e+02,1.711080e+03
7.096774e+02,1.709374e+03
7.106417e+02,1.709653e+03
7.116059e+02,1.712350e+03
7.125701e+02,1.713369e+03
7.135344e+02,1.709562e+03
7.144986e+02,1.705446e+03
7.154628e+02,1.705261e+03
7.164271e+02,1.709363e+03
7.173913e+02,1.714430e+03
7.183555e+02,1.717826e+03
7.193198e+02,1.719515e+03
7.202840e+02,1.719400e+03
7.212482e+02,1.717489e+03
7.222125e+02,1.714908e+03
7.231767e+02,1.712431e+03
7.241409e+02,1.709315e+03
7.251052e+02,1.706960e+03
7.260694e+02,1.705712e+03
7.270336e+02,1.704770e+03
7.279979e+02,1.704360e+03
7.289621e+02,1.704468e+03
7.299263e+02,1.703945e+03
7.308906e+02,1.701732e+03
7.318548e+02,1.698628e+03
7.328190e+02,1.695372e+03
7.337833e+02,1.692187e+03
7.347475e+02,1.689547e+03
7.357117e+02,1.689160e+03
7.366760e+02,1.690907e+03
7.376402e+02,1.689585e+03
7.386044e+02,1.683960e+03
7.395687e+02,1.678286e+03
7.405329e+02,1.675673e+03
7.414971e+02,1.676469e+03
7.424614e+02,1.678437e+03
7.434256e+02,1.685018e+03
7.443898e+02,1.691372e+03
7.453541e+02,1.693956e+03
7.463183e+02,1.692146e+03
7.472825e+02,1.689537e+03
7.482468e+02,1.688987e+03
7.492110e+02,1.688031e+03
7.501752e+02,1.684062e+03
7.511395e+02,1.677958e+03
7.521037e+02,1.672282e+03
7.530679e+02,1.668996e+03
7.540322e+02,1.667174e+03
7.549964e+02,1.662438e+03
7.559606e+02,1.653870e+03
7.569249e+02,1.646978e+03
7.578891e+02,1.645765e+03
7.588533e+02,1.650765e+03
7.598176e+02,1.654632e+03
7.607818e+02,1.655796e+03
7.617460e+02,1.654756e+03
7.627103e+02,1.651260e+03
7.636745e+02,1.646771e+03
7.646387e+02,1.643698e+03
7.656030e+02,1.642294e+03
7.665672e+02,1.643045e+03
7.675314e+02,1.647461e+03
7.684957e+02,1.653235e+03
7.694599e+02,1.655696e+03
7.704241e+02,1.651762e+03
7.713884e+02,1.644766e+03
7.723526e+02,1.643486e+03
7.733168e+02,1.648974e+03
7.742811e+02,1.654391e+03
7.752453e+02,1.655687e+03
7.762095e+02,1.653004e+03
7.771738e+02,1.650305e+03
7.781380e+02,1.645616e+03
7.791022e+02,1.642166e+03
7.800665e+02,1.642675e+03
7.810307e+02,1.645147e+03
7.819949e+02,1.646120e+03
7.829592e+02,1.643014e+03
7.839234e+02,1.641154e+03
7.848876e+02,1.644290e+03
7.858519e+02,1.649640e+03
7.868161e+02,1.652834e+03
7.877803e+02,1.651806e+03
7.887446e+02,1.648565e+03
7.897088e+02,1.645987e+03
7.906730e+02,1.644588e+03
7.916373e+02,1.643906e+03
7.926015e+02,1.642917e+03
7.935657e+02,1.641203e+03
7.945300e+02,1.640178e+03
7.954942e+02,1.641227e+03
7.964584e+02,1.641198e+03
7.974227e+02,1.640992e+03
7.983869e+02,1.641250e+03
7.993511e+02,1.640873e+03
8.003154e+02,1.638733e+03
8.012796e+02,1.634999e+03
8.022438e+02,1.628065e+03
8.032081e+02,1.621841e+03
8.041723e+02,1.620288e+03
8.051365e+02,1.624201e+03
8.061008e+02,1.628237e+03
8.070650e+02,1.626504e+03
8.080292e+02,1.622247e+03
8.089935e+02,1.622680e+03
8.099577e+02,1.629198e+03
8.109219e+02,1.636647e+03
8.118862e+02,1.639116e+03
8.128504e+02,1.636743e+03
8.138146e+02,1.634073e+03
8.147789e+02,1.630792e+03
8.157431e+02,1.627665e+03
8.167073e+02,1.625520e+03
8.176716e+02,1.625069e+03
8.186358e+02,1.626636e+03
8.196000e+02,1.633639e+03
8.205643e+02,1.639229e+03
8.215285e+02,1.639375e+03
8.224927e+02,1.634464e+03
8.234570e+02,1.628919e+03
8.244212e+02,1.622432e+03
8.253854e+02,1.616969e+03
8.263497e+02,1.613450e+03
8.273139e+02,1.611291e+03
8.282781e+02,1.609892e+03
8.292424e+02,1.610905e+03
8.302066e+02,1.612596e+03
8.311708e+02,1.611064e+03
8.321351e+02,1.606999e+03
8.330993e+02,1.604104e+03
8.340635e+02,1.604250e+03
8.350278e+02,1.606086e+03
8.359920e+02,1.605556e+03
8.369562e+02,1.601984e+03
8.379205e+02,1.599844e+03
8.388847e+02,1.600378e+03
8.398489e+02,1.603454e+03
8.408132e+02,1.608682e+03
8.417774e+02,1.621064e+03
8.427416e+02,1.627847e+03
8.437059e+02,1.624315e+03
8.446701e+02,1.616611e+03
8.456343e+02,1.611299e+03
8.465986e+02,1.609982e+03
8.475628e+02,1.609201e+03
8.485270e+02,1.609092e+03
8.494913e+02,1.608228e+03
8.504555e+02,1.604587e+03
8.514197e+02,1.597793e+03
8.523840e+02,1.591894e+03
8.533482e+02,1.589749e+03
8.543124e+02,1.590389e+03
8.552767e+02,1.593026e+03
8.562409e+02,1.597284e+03
8.572051e+02,1.601228e+03
8.581694e+02,1.603544e+03
8.591336e+02,1.604446e+03
8.600978e+02,1.603510e+03
8.610621e+02,1.600758e+03
8.620263e+02,1.597291e+03
8.629905e+02,1.592932e+03
8.639548e+02,1.586890e+03
8.649190e+02,1.583786e+03
8.658832e+02,1.585448e+03
8.668475e+02,1.589154e+03
8.678117e+02,1.595864e+03
8.687759e+02,1.604200e+03
8.697402e+02,1.607500e+03
8.707044e+02,1.599138e+03
8.716686e+02,1.590622e+03
8.726329e+02,1.587666e+03
8.735971e+02,1.588283e+03
8.745613e+02,1.587922e+03
8.755256e+02,1.584854e+03
8.764898e+02,1.581418e+03
8.774540e+02,1.578505e+03
8.784183e+02,1.575807e+03
8.793825e+02,1.572769e+03
8.803467e+02,1.568903e+03
8.813110e+02,1.565712e+03
8.822752e+02,1.566359e+03
8.832394e+02,1.569936e+03
8.842037e+02,1.571795e+03
8.851679e+02,1.570304e+03
8.861321e+02,1.567313e+03
8.870964e+02,1.565473e+03
8.880606e+02,1.564696e+03
8.890248e+02,1.565051e+03
8.899891e+02,1.568102e+03
8.909533e+02,1.570516e+03
8.919175e+02,1.568192e+03
8.928818e+02,1.559274e+03
8.938460e+02,1.553963e+03
8.948102e+02,1.554193e+03
8.957745e+02,1.555162e+03
8.967387e+02,1.554291e+03
8.977029e+02,1.551349e+03
8.986672e+02,1.549025e+03
8.996314e+02,1.549672e+03
9.005956e+02,1.550519e+03
9.015599e+02,1.549246e+03
9.025241e+02,1.546726e+03
9.034883e+02,1.545893e+03
9.044526e+02,1.550027e+03
9.054168e+02,1.553288e+03
9.063810e+02,1.552500e+03
9.073453e+02,1.549932e+03
9.083095e+02,1.548234e+03
9.092737e+02,1.548016e+03
9.102380e+02,1.548203e+03
9.112022e+02,1.548718e+03
9.121664e+02,1.548780e+03
9.131307e+02,1.545830e+03
9.140949e+02,1.539384e+03
9.150591e+02,1.534110e+03
9.160234e+02,1.537380e+03
9.169876e+02,1.546955e+03
9.179518e+02,1.549749e+03
9.189161e+02,1.543238e+03
9.198803e+02,1.534233e+03
9.208445e+02,1.530514e+03
9.218088e+02,1.533307e+03
9.227730e+02,1.535293e+03
9.237372e+02,1.535452e+03
9.247015e+02,1.535958e+03
9.256657e+02,1.538883e+03
9.266299e+02,1.544311e+03
9.275942e+02,1.546565e+03
9.285584e+02,1.541742e+03
9.295226e+02,1.537716e+03
9.304869e+02,1.539108e+03
9.314511e+02,1.544089e+03
9.324153e+02,1.545932e+03
9.333796e+02,1.540211e+03
9.343438e+02,1.535694e+03
9.353080e+02,1.535116e+03
9.362723e+02,1.536302e+03
9.372365e+02,1.536781e+03
9.382007e+02,1.536284e+03
9.391650e+02,1.536604e+03
9.401292e+02,1.540560e+03
9.410934e+02,1.544579e+03
9.420577e+02,1.543129e+03
9.430219e+02,1.534340e+03
9.439861e+02,1.525809e+03
9.449504e+02,1.524662e+03
9.459146e+02,1.527876e+03
9.468788e+02,1.530597e+03
9.478431e+02,1.531293e+03
9.488073e+02,1.530339e+03
9.497715e+02,1.528122e+03
9.507358e+02,1.525643e+03
9.517000e+02,1.525450e+03
9.526642e+02,1.527751e+03
9.536285e+02,1.529248e+03
9.545927e+02,1.527124e+03
9.555569e+02,1.522593e+03
9.565212e+02,1.520038e+03
9.574854e+02,1.520038e+03
9.584496e+02,1.519562e+03
9.594139e+02,1.516084e+03
9.603781e+02,1.511609e+03
9.613423e+02,1.513370e+03
9.623066e+02,1.523391e+03
9.632708e+02,1.530408e+03
9.642350e+02,1.532235e+03
9.651993e+02,1.531109e+03
9.661635e+02,1.529253e+03
9.671277e+02,1.525230e+03
9.680920e+02,1.522846e+03
9.690562e+02,1.524641e+03
9.700204e+02,1.525129e+03
9.709847e+02,1.519542e+03
9.719489e+02,1.506135e+03
9.729131e+02,1.498283e+03
9.738774e+02,1.500093e+03
9.748416e+02,1.503930e+03
9.758058e+02,1.507020e+03
9.767701e+02,1.508794e+03
9.777343e+02,1.509054e+03
9.786985e+02,1.504288e+03
9.796628e+02,1.501432e+03
9.806270e+02,1.505615e+03
9.815912e+02,1.512857e+03
9.825555e+02,1.516533e+03
9.835197e+02,1.513413e+03
9.844839e+02,1.509847e+03
9.854482e+02,1.508457e+03
9.864124e+02,1.508285e+03
9.873766e+02,1.508009e+03
9.883409e+02,1.507495e+03
9.893051e+02,1.506537e+03
9.902693e+02,1.503732e+03
9.912336e+02,1.501287e+03
9.921978e+02,1.501339e+03
9.931620e+02,1.503519e+03
9.941263e+02,1.506055e+03
9.950905e+02,1.508812e+03
9.960547e+02,1.510944e+03
9.970190e+02,1.511353e+03
9.979832e+02,1.509938e+03
9.989474e+02,1.506921e+03
9.999117e+02,1.502185e+03
1.000876e+03,1.497434e+03
1.001840e+03,1.495502e+03
1.002804e+03,1.495956e+03
1.003769e+03,1.495917e+03
1.004733e+03,1.493731e+03
1.005697e+03,1.491155e+03
1.006661e+03,1.491531e+03
1.007626e+03,1.494269e+03
1.008590e+03,1.496819e+03
1.009554e+03,1.498496e+03
1.010518e+03,1.497332e+03
1.011482e+03,1.488631e+03
1.012447e+03,1.474135e+03
1.013411e+03,1.469934e+03
1.014375e+03,1.478057e+03
1.015339e+03,1.486713e+03
1.016304e+03,1.486735e+03
1.017268e+03,1.479792e+03
1.018232e+03,1.476530e+03
1.019196e+03,1.477097e+03
1.020161e+03,1.478918e+03
1.021125e+03,1.481932e+03
1.022089e+03,1.485265e+03
1.023053e+03,1.484464e+03
1.024018e+03,1.477390e+03
1.024982e+03,1.474642e+03
1.025946e+03,1.479637e+03
1.026910e+03,1.486115e+03
1.027875e+03,1.486482e+03
1.028839e+03,1.479573e+03
1.029803e+03,1.473883e+03
1.030767e+03,1.469691e+03
1.031731e+03,1.466570e+03
1.032696e+03,1.463842e+03
1.033660e+03,1.461319e+03
1.034624e+03,1.460334e+03
1.035588e+03,1.462061e+03
1.036552e+03,1.464364e+03
1.037517e+03,1.466355e+03
1.038481e+03,1.467568e+03
1.039445e+03,1.467795e+03
1.040409e+03,1.466616e+03
1.041374e+03,1.465252e+03
1.042338e+03,1.463920e+03
1.043302e+03,1.463141e+03
1.044266e+03,1.463378e+03
1.045231e+03,1.466680e+03
1.046195e+03,1.466836e+03
1.047159e+03,1.460853e+03
1.048123e+03,1.454868e+03
1.049088e+03,1.452898e+03
1.050052e+03,1.455754e+03
1.051016e+03,1.459922e+03
1.051980e+03,1.468047e+03
1.052945e+03,1.474402e+03
1.053909e+03,1.475282e+03
1.054873e+03,1.471419e+03
1.055837e+03,1.468227e+03
1.056802e+03,1.467637e+03
1.057766e+03,1.466760e+03
1.058730e+03,1.464771e+03
1.059694e+03,1.462676e+03
1.060658e+03,1.461553e+03
1.061623e+03,1.462933e+03
1.062587e+03,1.463324e+03
1.063551e+03,1.459672e+03
1.064515e+03,1.457122e+03
1.065479e+03,1.459988e+03
1.066444e+03,1.469255e+03
1.067408e+03,1.476410e+03
1.068372e+03,1.480225e+03
1.069336e+03,1.481653e+03
1.070301e+03,1.478048e+03
1.071265e+03,1.471327e+03
1.072229e+03,1.468489e+03
1.073193e+03,1.474064e+03
1.074158e+03,1.479568e+03
1.075122e+03,1.484328e+03
1.076086e+03,1.487159e+03
1.077050e+03,1.486583e+03
1.078015e+03,1.481105e+03
1.078979e+03,1.477678e+03
1.079943e+03,1.478417e+03
1.080907e+03,1.480634e+03
1.081872e+03,1.482047e+03
1.082836e+03,1.482063e+03
1.083800e+03,1.482389e+03
1.084764e+03,1.482613e+03
1.085729e+03,1.484794e+03
1.086693e+03,1.491240e+03
1.087657e+03,1.500000e+03
1.088621e+03,1.506460e+03
1.089585e+03,1.507714e+03
1.090550e+03,1.508279e+03
1.091514e+03,1.511093e+03
1.092478e+03,1.514076e+03
1.093442e+03,1.513950e+03
1.094406e+03,1.508128e+03
1.095371e+03,1.506253e+03
1.096335e+03,1.515879e+03
1.097299e+03,1.524733e+03
1.098263e+03,1.523660e+03
1.099228e+03,1.512658e+03
1.100192e+03,1.503555e+03
1.101156e+03,1.498195e+03
1.102120e+03,1.495093e+03
1.103085e+03,1.496359e+03
1.104049e+03,1.499215e+03
1.105013e+03,1.498199e+03
1.105977e+03,1.488211e+03
1.106942e+03,1.480197e+03
1.107906e+03,1.475959e+03
1.108870e+03,1.474495e+03
1.109834e+03,1.475177e+03
1.110799e+03,1.478468e+03
1.111763e+03,1.481876e+03
1.112727e+03,1.484596e+03
1.113691e+03,1.488339e+03
1.114656e+03,1.495403e+03
1.115620e+03,1.504826e+03
1.116584e+03,1.509614e+03
1.117548e+03,1.504725e+03
1.118512e+03,1.499394e+03
1.119477e+03,1.495061e+03
1.120441e+03,1.491871e+03
1.121405e+03,1.490297e+03
1.122369e+03,1.493900e+03
1.123334e+03,1.493785e+03
1.124298e+03,1.487836e+03
1.125262e+03,1.480512e+03
1.126226e+03,1.474366e+03
1.127191e+03,1.469305e+03
1.128155e+03,1.467394e+03
1.129119e+03,1.472242e+03
1.130083e+03,1.474450e+03
1.131047e+03,1.468545e+03
1.132012e+03,1.457249e+03
1.132976e+03,1.450676e+03
1.133940e+03,1.450791e+03
1.134904e+03,1.451759e+03
1.135869e+03,1.454302e+03
1.136833e+03,1.456574e+03
1.137797e+03,1.455941e+03
1.138761e+03,1.451268e+03
1.139726e+03,1.450077e+03
1.140690e+03,1.453429e+03
1.141654e+03,1.457477e+03
1.142618e+03,1.459943e+03
1.143583e+03,1.461098e+03
1.144547e+03,1.462811e+03
1.145511e+03,1.465977e+03
1.146475e+03,1.465463e+03
1.147439e+03,1.458190e+03
1.148404e+03,1.449131e+03
1.149368e+03,1.447291e+03
1.150332e+03,1.453302e+03
1.151296e+03,1.458276e+03
1.152261e+03,1.460664e+03
1.153225e+03,1.461325e+03
1.154189e+03,1.462607e+03
1.155153e+03,1.464607e+03
1.156118e+03,1.461945e+03
1.157082e+03,1.454944e+03
1.158046e+03,1.449619e+03
1.159010e+03,1.448182e+03
1.159974e+03,1.449510e+03
1.160939e+03,1.452061e+03
1.161903e+03,1.455279e+03
1.162867e+03,1.457725e+03
1.163831e+03,1.459054e+03
1.164796e+03,1.458770e+03
1.165760e+03,1.456059e+03
1.166724e+03,1.452007e+03
1.167688e+03,1.448622e+03
1.168653e+03,1.446080e+03
1.169617e+03,1.444604e+03
1.170581e+03,1.445428e+03
1.171545e+03,1.446532e+03
1.172510e+03,1.444781e+03
1.173474e+03,1.440981e+03
1.174438e+03,1.435802e+03
1.175402e+03,1.428867e+03
1.176366e+03,1.423868e+03
1.177331e+03,1.426676e+03
1.178295e+03,1.432164e+03
1.179259e+03,1.434047e+03
1.180223e+03,1.431596e+03
1.181188e+03,1.426864e+03
1.182152e+03,1.417602e+03
1.183116e+03,1.409899e+03
1.184080e+03,1.411035e+03
1.185045e+03,1.416567e+03
1.186009e+03,1.417796e+03
1.186973e+03,1.409358e+03
1.187937e+03,1.403420e+03
1.188901e+03,1.407304e+03
1.189866e+03,1.413475e+03
1.190830e+03,1.415045e+03
1.191794e+03,1.410925e+03
1.192758e+03,1.407813e+03
1.193723e+03,1.408787e+03
1.194687e+03,1.410276e+03
1.195651e+03,1.411141e+03
1.196615e+03,1.411119e+03
1.197580e+03,1.409697e+03
1.198544e+03,1.404046e+03
1.199508e+03,1.399330e+03
1.200472e+03,1.396253e+03
1.201437e+03,1.395254e+03
1.202401e+03,1.397573e+03
1.203365e+03,1.404408e+03
1.204329e+03,1.407711e+03
1.205293e+03,1.405770e+03
1.206258e+03,1.404163e+03
1.207222e+03,1.405578e+03
1.208186e+03,1.408401e+03
1.209150e+03,1.407528e+03
1.210115e+03,1.402007e+03
1.211079e+03,1.398303e+03
1.212043e+03,1.397909e+03
1.213007e+03,1.398806e+03
1.213972e+03,1.399660e+03
1.214936e+03,1.400642e+03
1.215900e+03,1.400253e+03
1.216864e+03,1.398581e+03
1.217828e+03,1.396514e+03
1.218793e+03,1.394135e+03
1.219757e+03,1.392421e+03
1.220721e+03,1.393574e+03
1.221685e+03,1.396777e+03
1.222650e+03,1.399380e+03
1.223614e+03,1.400256e+03
1.224578e+03,1.400000e+03
1.225542e+03,1.399953e+03
1.226507e+03,1.399479e+03
1.227471e+03,1.396442e+03
1.228435e+03,1.391366e+03
1.229399e+03,1.387868e+03
1.230364e+03,1.390386e+03
1.231328e+03,1.392761e+03
1.232292e+03,1.391577e+03
1.233256e+03,1.389410e+03
1.234220e+03,1.389014e+03
1.235185e+03,1.392079e+03
1.236149e+03,1.394251e+03
1.237113e+03,1.392209e+03
1.238077e+03,1.391596e+03
1.239042e+03,1.395983e+03
1.240006e+03,1.403999e+03
1.240970e+03,1.409139e+03
1.241934e+03,1.411049e+03
1.242899e+03,1.410445e+03
1.243863e+03,1.407098e+03
1.244827e+03,1.402455e+03
1.245791e+03,1.397664e+03
1.246755e+03,1.392033e+03
1.247720e+03,1.391418e+03
1.248684e+03,1.397451e+03
1.249648e+03,1.401696e+03
1.250612e+03,1.397334e+03
1.251577e+03,1.387777e+03
1.252541e+03,1.385702e+03
1.253505e+03,1.390035e+03
1.254469e+03,1.393907e+03
1.255434e+03,1.395721e+03
1.256398e+03,1.395783e+03
1.257362e+03,1.392292e+03
1.258326e+03,1.387354e+03
1.259291e+03,1.385912e+03
1.260255e+03,1.387509e+03
1.261219e+03,1.388427e+03
1.262183e+03,1.385835e+03
1.263147e+03,1.383879e+03
1.264112e+03,1.387014e+03
1.265076e+03,1.392013e+03
1.266040e+03,1.393214e+03
1.267004e+03,1.387509e+03
1.267969e+03,1.384741e+03
1.268933e+03,1.392546e+03
1.269897e+03,1.401297e+03
1.270861e+03,1.403716e+03
1.271826e+03,1.399192e+03
1.272790e+03,1.394756e+03
1.273754e+03,1.390033e+03
1.274718e+03,1.387170e+03
1.275682e+03,1.387208e+03
1.276647e+03,1.389732e+03
1.277611e+03,1.395319e+03
1.278575e+03,1.405238e+03
1.279539e+03,1.404735e+03
1.280504e+03,1.392815e+03
1.281468e+03,1.382292e+03
1.282432e+03,1.380510e+03
1.283396e+03,1.384422e+03
1.284361e+03,1.387231e+03
1.285325e+03,1.388834e+03
1.286289e+03,1.390238e+03
1.287253e+03,1.391640e+03
1.288218e+03,1.392119e+03
1.289182e+03,1.389991e+03
1.290146e+03,1.387439e+03
1.291110e+03,1.388436e+03
1.292074e+03,1.391906e+03
1.293039e+03,1.392906e+03
1.294003e+03,1.385160e+03
1.294967e+03,1.378707e+03
1.295931e+03,1.379927e+03
1.296896e+03,1.384161e+03
1.297860e+03,1.386106e+03
1.298824e+03,1.384289e+03
1.299788e+03,1.382789e+03
1.300753e+03,1.380521e+03
1.301717e+03,1.380044e+03
1.302681e+03,1.382972e+03
1.303645e+03,1.388170e+03
1.304609e+03,1.392967e+03
1.305574e+03,1.397188e+03
1.306538e+03,1.397660e+03
1.307502e+03,1.394118e+03
1.308466e+03,1.390029e+03
1.309431e+03,1.387657e+03
1.310395e+03,1.387199e+03
1.311359e+03,1.390358e+03
1.312323e+03,1.395668e+03
1.313288e+03,1.398922e+03
1.314252e+03,1.398735e+03
1.315216e+03,1.397296e+03
1.316180e+03,1.394027e+03
1.317145e+03,1.391626e+03
1.318109e+03,1.394108e+03
1.319073e+03,1.401113e+03
1.320037e+03,1.406047e+03
1.321001e+03,1.406333e+03
1.321966e+03,1.404356e+03
1.322930e+03,1.399878e+03
1.323894e+03,1.395083e+03
1.324858e+03,1.392990e+03
1.325823e+03,1.395145e+03
1.326787e+03,1.396250e+03
1.327751e+03,1.395587e+03
1.328715e+03,1.394144e+03
1.329680e+03,1.392442e+03
1.330644e+03,1.390891e+03
1.331608e+03,1.391191e+03
1.332572e+03,1.393097e+03
1.333536e+03,1.395851e+03
1.334501e+03,1.399394e+03
1.335465e+03,1.400151e+03
1.336429e+03,1.391654e+03
1.337393e+03,1.380277e+03
1.338358e+03,1.375874e+03
1.339322e+03,1.377596e+03
1.340286e+03,1.378937e+03
1.341250e+03,1.377934e+03
1.342215e+03,1.374378e+03
1.343179e+03,1.365869e+03
1.344143e+03,1.357471e+03
1.345107e+03,1.354152e+03
1.346072e+03,1.357110e+03
1.347036e+03,1.359569e+03
1.348000e+03,1.362512e+03
1.348964e+03,1.361722e+03
1.349928e+03,1.354002e+03
1.350893e+03,1.344373e+03
1.351857e+03,1.345202e+03
1.352821e+03,1.355669e+03
1.353785e+03,1.361676e+03
1.354750e+03,1.361266e+03
1.355714e+03,1.358032e+03
1.356678e+03,1.354315e+03
1.357642e+03,1.351349e+03
1.358607e+03,1.350612e+03
1.359571e+03,1.351162e+03
1.360535e+03,1.351324e+03
1.361499e+03,1.350754e+03
1.362464e+03,1.350024e+03
1.363428e+03,1.347950e+03
1.364392e+03,1.347508e+03
1.365356e+03,1.351849e+03
1.366320e+03,1.359495e+03
1.367285e+03,1.361532e+03
1.368249e+03,1.354762e+03
1.369213e+03,1.351822e+03
1.370177e+03,1.356289e+03
1.371142e+03,1.362487e+03
1.372106e+03,1.364216e+03
1.373070e+03,1.361753e+03
1.374034e+03,1.355619e+03
1.374999e+03,1.346840e+03
1.375963e+03,1.341135e+03
1.376927e+03,1.342219e+03
1.377891e+03,1.345289e+03
1.378855e+03,1.344904e+03
1.379820e+03,1.343309e+03
1.380784e+03,1.343939e+03
1.381748e+03,1.347615e+03
1.382712e+03,1.350375e+03
1.383677e+03,1.348964e+03
1.384641e+03,1.347439e+03
1.385605e+03,1.346975e+03
1.386569e+03,1.347084e+03
1.387534e+03,1.347561e+03
1.388498e+03,1.348980e+03
1.389462e+03,1.347908e+03
1.390426e+03,1.343500e+03
1.391391e+03,1.339466e+03
1.392355e+03,1.339183e+03
1.393319e+03,1.340410e+03
1.394283e+03,1.336563e+03
1.395247e+03,1.330321e+03
1.396212e+03,1.329463e+03
1.397176e+03,1.336088e+03
1.398140e+03,1.341156e+03
1.399104e+03,1.336876e+03
1.400069e+03,1.331116e+03
1.401033e+03,1.328998e+03
1.401997e+03,1.329410e+03
1.402961e+03,1.328723e+03
1.403926e+03,1.326663e+03
1.404890e+03,1.323314e+03
1.405854e+03,1.318124e+03
1.406818e+03,1.313881e+03
1.407782e+03,1.312410e+03
1.408747e+03,1.313977e+03
1.409711e+03,1.320496e+03
1.410675e+03,1.329496e+03
1.411639e+03,1.332557e+03
1.412604e+03,1.326919e+03
1.413568e+03,1.319748e+03
1.414532e+03,1.317025e+03
1.415496e+03,1.316110e+03
1.416461e+03,1.314173e+03
1.417425e+03,1.311102e+03
1.418389e+03,1.308593e+03
1.419353e+03,1.306771e+03
1.420318e+03,1.306208e+03
1.421282e+03,1.308501e+03
1.422246e+03,1.310687e+03
1.423210e+03,1.310036e+03
1.424174e+03,1.307095e+03
1.425139e+03,1.303758e+03
1.426103e+03,1.299874e+03
1.427067e+03,1.297142e+03
1.428031e+03,1.296205e+03
1.428996e+03,1.296985e+03
1.429960e+03,1.300833e+03
1.430924e+03,1.304789e+03
1.431888e+03,1.305626e+03
1.432853e+03,1.303736e+03
1.433817e+03,1.301834e+03
1.434781e+03,1.302110e+03
1.435745e+03,1.300593e+03
1.436709e+03,1.295074e+03
1.437674e+03,1.288893e+03
1.438638e+03,1.285434e+03
1.439602e+03,1.284875e+03
1.440566e+03,1.285530e+03
1.441531e+03,1.287144e+03
1.442495e+03,1.288488e+03
1.443459e+03,1.288827e+03
1.444423e+03,1.289078e+03
1.445388e+03,1.291453e+03
1.446352e+03,1.292818e+03
1.447316e+03,1.289213e+03
1.448280e+03,1.281912e+03
1.449245e+03,1.276576e+03
1.450209e+03,1.274796e+03
1.451173e+03,1.274672e+03
1.452137e+03,1.276167e+03
1.453101e+03,1.277400e+03
1.454066e+03,1.276722e+03
1.455030e+03,1.274595e+03
1.455994e+03,1.274426e+03
1.456958e+03,1.275941e+03
1.457923e+03,1.277510e+03
1.458887e+03,1.278224e+03
1.459851e+03,1.278415e+03
1.460815e+03,1.279058e+03
1.461780e+03,1.278432e+03
1.462744e+03,1.274693e+03
1.463708e+03,1.268707e+03
1.464672e+03,1.264990e+03
1.465636e+03,1.266232e+03
1.466601e+03,1.265802e+03
1.467565e+03,1.261891e+03
1.468529e+03,1.258527e+03
1.469493e+03,1.261049e+03
1.470458e+03,1.266494e+03
1.471422e+03,1.261749e+03
1.472386e+03,1.250276e+03
1.473350e+03,1.244555e+03
1.474315e+03,1.250165e+03
1.475279e+03,1.256309e+03
1.476243e+03,1.255881e+03
1.477207e+03,1.253345e+03
1.478172e+03,1.252312e+03
1.479136e+03,1.252635e+03
1.480100e+03,1.252315e+03
1.481064e+03,1.251387e+03
1.482028e+03,1.250323e+03
1.482993e+03,1.249433e+03
1.483957e+03,1.248140e+03
1.484921e+03,1.244456e+03
1.485885e+03,1.240352e+03
1.486850e+03,1.240189e+03
1.487814e+03,1.242102e+03
1.488778e+03,1.242879e+03
1.489742e+03,1.241783e+03
1.490707e+03,1.239344e+03
1.491671e+03,1.233699e+03
1.492635e+03,1.230660e+03
1.493599e+03,1.233525e+03
1.494563e+03,1.239244e+03
1.495528e+03,1.240098e+03
1.496492e+03,1.236079e+03
1.497456e+03,1.232940e+03
1.498420e+03,1.231752e+03
1.499385e+03,1.231557e+03
1.500349e+03,1.231561e+03
1.501313e+03,1.232346e+03
1.502277e+03,1.235715e+03
1.503242e+03,1.239236e+03
1.504206e+03,1.238953e+03
1.505170e+03,1.232302e+03
1.506134e+03,1.228404e+03
1.507099e+03,1.228143e+03
1.508063e+03,1.228789e+03
1.509027e+03,1.229662e+03
1.509991e+03,1.230073e+03
1.510955e+03,1.228548e+03
1.511920e+03,1.225779e+03
1.512884e+03,1.223696e+03
1.513848e+03,1.222788e+03
1.514812e+03,1.221961e+03
1.515777e+03,1.218964e+03
1.516741e+03,1.216320e+03
1.517705e+03,1.214719e+03
1.518669e+03,1.213795e+03
1.519634e+03,1.213491e+03
1.520598e+03,1.213648e+03
1.521562e+03,1.215586e+03
1.522526e+03,1.218846e+03
1.523490e+03,1.221921e+03
1.524455e+03,1.224799e+03
1.525419e+03,1.225250e+03
1.526383e+03,1.218053e+03
1.527347e+03,1.210309e+03
1.528312e+03,1.210715e+03
1.529276e+03,1.217319e+03
1.530240e+03,1.218302e+03
1.531204e+03,1.209357e+03
1.532169e+03,1.203974e+03
1.533133e+03,1.203191e+03
1.534097e+03,1.206157e+03
1.535061e+03,1.214237e+03
1.536026e+03,1.223444e+03
1.536990e+03,1.226563e+03
1.537954e+03,1.225643e+03
1.538918e+03,1.224040e+03
1.539882e+03,1.222300e+03
1.540847e+03,1.220633e+03
1.541811e+03,1.219760e+03
1.542775e+03,1.216916e+03
1.543739e+03,1.210260e+03
1.544704e+03,1.203843e+03
1.545668e+03,1.206261e+03
1.546632e+03,1.214966e+03
1.547596e+03,1.215887e+03
1.548561e+03,1.209789e+03
1.549525e+03,1.206564e+03
1.550489e+03,1.214132e+03
1.551453e+03,1.221270e+03
1.552417e+03,1.224051e+03
1.553382e+03,1.222750e+03
1.554346e+03,1.216665e+03
1.555310e+03,1.207130e+03
1.556274e+03,1.204567e+03
1.557239e+03,1.208699e+03
1.558203e+03,1.211483e+03
1.559167e+03,1.210962e+03
1.560131e+03,1.209931e+03
1.561096e+03,1.213406e+03
1.562060e+03,1.215308e+03
1.563024e+03,1.206333e+03
1.563988e+03,1.192843e+03
1.564953e+03,1.190135e+03
1.565917e+03,1.203527e+03
1.566881e+03,1.210700e+03
1.567845e+03,1.210636e+03
1.568809e+03,1.207633e+03
1.569774e+03,1.203240e+03
1.570738e+03,1.199104e+03
1.571702e+03,1.197153e+03
1.572666e+03,1.196878e+03
1.573631e+03,1.198681e+03
1.574595e+03,1.202787e+03
1.575559e+03,1.203732e+03
1.576523e+03,1.198112e+03
1.577488e+03,1.197964e+03
1.578452e+03,1.206221e+03
1.579416e+03,1.214975e+03
1.580380e+03,1.214193e+03
1.581344e+03,1.209439e+03
1.582309e+03,1.214458e+03
1.583273e+03,1.224140e+03
1.584237e+03,1.224790e+03
1.585201e+03,1.206779e+03
1.586166e+03,1.195188e+03
1.587130e+03,1.194988e+03
1.588094e+03,1.196311e+03
1.589058e+03,1.195892e+03
1.590023e+03,1.193828e+03
1.590987e+03,1.187806e+03
1.591951e+03,1.180929e+03
1.592915e+03,1.181421e+03
1.593880e+03,1.188309e+03
1.594844e+03,1.191501e+03
1.595808e+03,1.182444e+03
1.596772e+03,1.175669e+03
1.597736e+03,1.174488e+03
1.598701e+03,1.176585e+03
1.599665e+03,1.181272e+03
1.600629e+03,1.186919e+03
1.601593e+03,1.185065e+03
1.602558e+03,1.178340e+03
1.603522e+03,1.175269e+03
1.604486e+03,1.178914e+03
1.605450e+03,1.181998e+03
1.606415e+03,1.179718e+03
1.607379e+03,1.179706e+03
1.608343e+03,1.186127e+03
1.609307e+03,1.194274e+03
1.610271e+03,1.195231e+03
1.611236e+03,1.190458e+03
1.612200e+03,1.188108e+03
1.613164e+03,1.188162e+03
1.614128e+03,1.185658e+03
1.615093e+03,1.171548e+03
1.616057e+03,1.162998e+03
1.617021e+03,1.172413e+03
1.617985e+03,1.181245e+03
1.618950e+03,1.177651e+03
1.619914e+03,1.165339e+03
1.620878e+03,1.158333e+03
1.621842e+03,1.155663e+03
1.622807e+03,1.153171e+03
1.623771e+03,1.150221e+03
1.624735e+03,1.147672e+03
1.625699e+03,1.145514e+03
1.626663e+03,1.143400e+03
1.627628e+03,1.140618e+03
1.628592e+03,1.137628e+03
1.629556e+03,1.135873e+03
1.630520e+03,1.135756e+03
1.631485e+03,1.136845e+03
1.632449e+03,1.138583e+03
1.633413e+03,1.139141e+03
1.634377e+03,1.137568e+03
1.635342e+03,1.135748e+03
1.636306e+03,1.134051e+03
1.637270e+03,1.133017e+03
1.638234e+03,1.133514e+03
1.639198e+03,1.134127e+03
1.640163e+03,1.129925e+03
1.641127e+03,1.122794e+03
1.642091e+03,1.117048e+03
1.643055e+03,1.113193e+03
1.644020e+03,1.113388e+03
1.644984e+03,1.123746e+03
1.645948e+03,1.130220e+03
1.646912e+03,1.129378e+03
1.647877e+03,1.125882e+03
1.648841e+03,1.123142e+03
1.649805e+03,1.121248e+03
1.650769e+03,1.121143e+03
1.651734e+03,1.121556e+03
1.652698e+03,1.118918e+03
1.653662e+03,1.111177e+03
1.654626e+03,1.106422e+03
1.655590e+03,1.108582e+03
1.656555e+03,1.110992e+03
1.657519e+03,1.112673e+03
1.658483e+03,1.113657e+03
1.659447e+03,1.112568e+03
1.660412e+03,1.110119e+03
1.661376e+03,1.108541e+03
1.662340e+03,1.108108e+03
1.663304e+03,1.108283e+03
1.664269e+03,1.108797e+03
1.665233e+03,1.108542e+03
1.666197e+03,1.106485e+03
1.667161e+03,1.106399e+03
1.668125e+03,1.112280e+03
1.669090e+03,1.118102e+03
1.670054e+03,1.112713e+03
1.671018e+03,1.102665e+03
1.671982e+03,1.096936e+03
1.672947e+03,1.096334e+03
1.673911e+03,1.094435e+03
1.674875e+03,1.089196e+03
1.675839e+03,1.088012e+03
1.676804e+03,1.092781e+03
1.677768e+03,1.098946e+03
1.678732e+03,1.103464e+03
1.679696e+03,1.105626e+03
1.680661e+03,1.103321e+03
1.681625e+03,1.098487e+03
1.682589e+03,1.094653e+03
1.683553e+03,1.092350e+03
1.684517e+03,1.091385e+03
1.685482e+03,1.091521e+03
1.686446e+03,1.090054e+03
1.687410e+03,1.085749e+03
1.688374e+03,1.082298e+03
1.689339e+03,1.083340e+03
1.690303e+03,1.085070e+03
1.691267e+03,1.085064e+03
1.692231e+03,1.084495e+03
1.693196e+03,1.084732e+03
1.694160e+03,1.085500e+03
1.695124e+03,1.087648e+03
1.696088e+03,1.091065e+03
1.697052e+03,1.094209e+03
1.698017e+03,1.096661e+03
1.698981e+03,1.096271e+03
1.699945e+03,1.089535e+03
1.700909e+03,1.083831e+03
1.701874e+03,1.084451e+03
1.702838e+03,1.088859e+03
1.703802e+03,1.091088e+03
1.704766e+03,1.090943e+03
1.705731e+03,1.087792e+03
1.706695e+03,1.082328e+03
1.707659e+03,1.081447e+03
1.708623e+03,1.089388e+03
1.709588e+03,1.094884e+03
1.710552e+03,1.095995e+03
1.711516e+03,1.093711e+03
1.712480e+03,1.085836e+03
1.713444e+03,1.078298e+03
1.714409e+03,1.080111e+03
1.715373e+03,1.086084e+03
1.716337e+03,1.088347e+03
1.717301e+03,1.086933e+03
1.718266e+03,1.082354e+03
1.719230e+03,1.074558e+03
1.720194e+03,1.072277e+03
1.721158e+03,1.078234e+03
1.722123e+03,1.085608e+03
1.723087e+03,1.092945e+03
1.724051e+03,1.096111e+03
1.725015e+03,1.091666e+03
1.725979e+03,1.084252e+03
1.726944e+03,1.079677e+03
1.727908e+03,1.077307e+03
1.728872e+03,1.073833e+03
1.729836e+03,1.069663e+03
1.730801e+03,1.068097e+03
1.731765e+03,1.072974e+03
1.732729e+03,1.074952e+03
1.733693e+03,1.072570e+03
1.734658e+03,1.069055e+03
1.735622e+03,1.065230e+03
1.736586e+03,1.062148e+03
1.737550e+03,1.063197e+03
1.738515e+03,1.064685e+03
1.739479e+03,1.061194e+03
1.740443e+03,1.053586e+03
1.741407e+03,1.049497e+03
1.742371e+03,1.049473e+03
1.743336e+03,1.048062e+03
1.744300e+03,1.044808e+03
1.745264e+03,1.041949e+03
1.746228e+03,1.042330e+03
1.747193e+03,1.042955e+03
1.748157e+03,1.042525e+03
1.749121e+03,1.042530e+03
1.750085e+03,1.042890e+03
1.751050e+03,1.042721e+03
1.752014e+03,1.041841e+03
1.752978e+03,1.041031e+03
1.753942e+03,1.042060e+03
1.754906e+03,1.045049e+03
1.755871e+03,1.046080e+03
1.756835e+03,1.043492e+03
1.757799e+03,1.039309e+03
1.758763e+03,1.034484e+03
1.759728e+03,1.031379e+03
1.760692e+03,1.033993e+03
1.761656e+03,1.037232e+03
1.762620e+03,1.034115e+03
1.763585e+03,1.028826e+03
1.764549e+03,1.027858e+03
1.765513e+03,1.030756e+03
1.766477e+03,1.034375e+03
1.767442e+03,1.038250e+03
1.768406e+03,1.036938e+03
1.769370e+03,1.027744e+03
1.770334e+03,1.021018e+03
1.771298e+03,1.023689e+03
1.772263e+03,1.025540e+03
1.773227e+03,1.024317e+03
1.774191e+03,1.020902e+03
1.775155e+03,1.013693e+03
1.776120e+03,1.006594e+03
1.777084e+03,1.007632e+03
1.778048e+03,1.013791e+03
1.779012e+03,1.015823e+03
1.779977e+03,1.012124e+03
1.780941e+03,1.010204e+03
1.781905e+03,1.009637e+03
1.782869e+03,1.012066e+03
1.783833e+03,1.020667e+03
1.784798e+03,1.025192e+03
1.785762e+03,1.013516e+03
1.786726e+03,1.002787e+03
1.787690e+03,1.001945e+03
1.788655e+03,1.006355e+03
1.789619e+03,1.006854e+03
1.790583e+03,1.005741e+03
1.791547e+03,1.008352e+03
1.792512e+03,1.013932e+03
1.793476e+03,1.016460e+03
1.794440e+03,1.014277e+03
1.795404e+03,1.010395e+03
1.796369e+03,1.004493e+03
1.797333e+03,9.996465e+02
1.798297e+03,9.977802e+02
1.799261e+03,9.977149e+02
1.800225e+03,1.000154e+03
1.801190e+03,1.001702e+03
1.802154e+03,1.000370e+03
1.803118e+03,9.970269e+02
1.804082e+03,9.935449e+02
1.805047e+03,9.909359e+02
1.806011e+03,9.910734e+02
1.806975e+03,9.939089e+02
1.807939e+03,9.976124e+02
1.808904e+03,1.002906e+03
1.809868e+03,1.003595e+03
1.810832e+03,9.991340e+02
1.811796e+03,9.946364e+02
1.812760e+03,9.925291e+02
1.813725e+03,9.928928e+02
1.814689e+03,1.000132e+03
1.815653e+03,1.005392e+03
1.816617e+03,1.000411e+03
1.817582e+03,9.896035e+02
1.818546e+03,9.883606e+02
1.819510e+03,9.918831e+02
1.820474e+03,9.882944e+02
1.821439e+03,9.760610e+02
1.822403e+03,9.720443e+02
1.823367e+03,9.795765e+02
1.824331e+03,9.839734e+02
1.825296e+03,9.826085e+02
1.826260e+03,9.798354e+02
1.827224e+03,9.784191e+02
1.828188e+03,9.791633e+02
1.829152e+03,9.846551e+02
1.830117e+03,9.887444e+02
1.831081e+03,9.843406e+02
1.832045e+03,9.757122e+02
1.833009e+03,9.790081e+02
1.833974e+03,9.882754e+02
1.834938e+03,9.893329e+02
1.835902e+03,9.779402e+02
1.836866e+03,9.736036e+02
1.837831e+03,9.767719e+02
1.838795e+03,9.797613e+02
1.839759e+03,9.814590e+02
1.840723e+03,9.820368e+02
1.841688e+03,9.813443e+02
1.842652e+03,9.784174e+02
1.843616e+03,9.706216e+02
1.844580e+03,9.641311e+02
1.845544e+03,9.685547e+02
1.846509e+03,9.773397e+02
1.847473e+03,9.785532e+02
1.848437e+03,9.749881e+02
1.849401e+03,9.714800e+02
1.850366e+03,9.685838e+02
1.851330e+03,9.663265e+02
1.852294e+03,9.646368e+02
1.853258e+03,9.585477e+02
1.854223e+03,9.457885e+02
1.855187e+03,9.398119e+02
1.856151e+03,9.520251e+02
1.857115e+03,9.628400e+02
1.858079e+03,9.687920e+02
1.859044e+03,9.702872e+02
1.860008e+03,9.649636e+02
1.860972e+03,9.590094e+02
1.861936e+03,9.596637e+02
1.862901e+03,9.628380e+02
1.863865e+03,9.613954e+02
1.864829e+03,9.557064e+02
1.865793e+03,9.549005e+02
1.866758e+03,9.575248e+02
1.867722e+03,9.579704e+02
1.868686e+03,9.538352e+02
1.869650e+03,9.524222e+02
1.870615e+03,9.545436e+02
1.871579e+03,9.550774e+02
1.872543e+03,9.529794e+02
1.873507e+03,9.515994e+02
1.874471e+03,9.548777e+02
1.875436e+03,9.557888e+02
1.876400e+03,9.505821e+02
1.877364e+03,9.439567e+02
1.878328e+03,9.411082e+02
1.879293e+03,9.405046e+02
1.880257e+03,9.390970e+02
1.881221e+03,9.372357e+02
1.882185e+03,9.364166e+02
1.883150e+03,9.369099e+02
1.884114e+03,9.392761e+02
1.885078e+03,9.424012e+02
1.886042e+03,9.385576e+02
1.887006e+03,9.237510e+02
1.887971e+03,9.166105e+02
1.888935e+03,9.284416e+02
1.889899e+03,9.357981e+02
1.890863e+03,9.321358e+02
1.891828e+03,9.266160e+02
1.892792e+03,9.309328e+02
1.893756e+03,9.354297e+02
1.894720e+03,9.313314e+02
1.895685e+03,9.258592e+02
1.896649e+03,9.261884e+02
1.897613e+03,9.300168e+02
1.898577e+03,9.320558e+02
1.899542e+03,9.321537e+02
1.900506e+03,9.290847e+02
1.901470e+03,9.221783e+02
1.902434e+03,9.165936e+02
1.903398e+03,9.124753e+02
1.904363e+03,9.126057e+02
1.905327e+03,9.183419e+02
1.906291e+03,9.215674e+02
1.907255e+03,9.140980e+02
1.908220e+03,9.088787e+02
1.909184e+03,9.081028e+02
1.910148e+03,9.107843e+02
1.911112e+03,9.212205e+02
1.912077e+03,9.299376e+02
1.913041e+03,9.260250e+02
1.914005e+03,9.179882e+02
1.914969e+03,9.147159e+02
1.915933e+03,9.146381e+02
1.916898e+03,9.123160e+02
1.917862e+03,9.087214e+02
1.918826e+03,9.047589e+02
1.919790e+03,9.008177e+02
1.920755e+03,9.020989e+02
1.921719e+03,9.077245e+02
1.922683e+03,9.088336e+02
1.923647e+03,9.038378e+02
1.924612e+03,8.992883e+02
1.925576e+03,8.980148e+02
1.926540e+03,8.978050e+02
1.927504e+03,8.978161e+02
1.928469e+03,8.987229e+02
1.929433e+03,9.036449e+02
1.930397e+03,9.065223e+02
1.931361e+03,8.989509e+02
1.932325e+03,8.915054e+02
1.933290e+03,8.938251e+02
1.934254e+03,9.023073e+02
1.935218e+03,9.088070e+02
1.936182e+03,9.118461e+02
1.937147e+03,9.088885e+02
1.938111e+03,9.011129e+02
1.939075e+03,8.942955e+02
1.940039e+03,8.892422e+02
1.941004e+03,8.900557e+02
1.941968e+03,8.962562e+02
1.942932e+03,8.978242e+02
1.943896e+03,8.900522e+02
1.944860e+03,8.847949e+02
1.945825e+03,8.835826e+02
1.946789e+03,8.844980e+02
1.947753e+03,8.879061e+02
1.948717e+03,8.897104e+02
1.949682e+03,8.868337e+02
1.950646e+03,8.844063e+02
1.951610e+03,8.858562e+02
1.952574e+03,8.889035e+02
1.953539e+03,8.918653e+02
1.954503e+03,8.929799e+02
1.955467e+03,8.902405e+02
1.956431e+03,8.850759e+02
1.957396e+03,8.778300e+02
1.958360e+03,8.712584e+02
1.959324e+03,8.759694e+02
1.960288e+03,8.900125e+02
1.961252e+03,8.940331e+02
1.962217e+03,8.858447e+02
1.963181e+03,8.784377e+02
1.964145e+03,8.727408e+02
1.965109e+03,8.705531e+02
1.966074e+03,8.752672e+02
1.967038e+03,8.803838e+02
1.968002e+03,8.849254e+02
1.968966e+03,8.867239e+02
1.969931e+03,8.848088e+02
1.970895e+03,8.800970e+02
1.971859e+03,8.710505e+02
1.972823e+03,8.642765e+02
1.973787e+03,8.622166e+02
1.974752e+03,8.630325e+02
1.975716e+03,8.662034e+02
1.976680e+03,8.693048e+02
1.977644e+03,8.702947e+02
1.978609e+03,8.700477e+02
1.979573e+03,8.684388e+02
1.980537e+03,8.661270e+02
1.981501e+03,8.666906e+02
1.982466e+03,8.693120e+02
1.983430e+03,8.710120e+02
1.984394e+03,8.712457e+02
1.985358e+03,8.723301e+02
1.986323e+03,8.736657e+02
1.987287e+03,8.717254e+02
1.988251e+03,8.643281e+02
1.989215e+03,8.599127e+02
1.990179e+03,8.600261e+02
1.991144e+03,8.610811e+02
1.992108e+03,8.627877e+02
1.993072e+03,8.629045e+02
1.994036e+03,8.566575e+02
1.995001e+03,8.527411e+02
1.995965e+03,8.541301e+02
1.996929e+03,8.561484e+02
1.997893e+03,8.518454e+02
1.998858e+03,8.476636e+02
1.999822e+03,8.515569e+02
2.000786e+03,8.563629e+02
2.001750e+03,8.560292e+02
2.002714e+03,8.536829e+02
2.003679e+03,8.558519e+02
2.004643e+03,8.591151e+02
2.005607e+03,8.582878e+02
2.006571e+03,8.544730e+02
2.007536e+03,8.498906e+02
2.008500e+03,8.458601e+02
2.009464e+03,8.478802e+02
2.010428e+03,8.557653e+02
2.011393e+03,8.579791e+02
2.012357e+03,8.535316e+02
2.013321e+03,8.490659e+02
2.014285e+03,8.447581e+02
2.015250e+03,8.419222e+02
2.016214e+03,8.423774e+02
2.017178e+03,8.427105e+02
2.018142e+03,8.430458e+02
2.019106e+03,8.424404e+02
2.020071e+03,8.390010e+02
2.021035e+03,8.377585e+02
2.021999e+03,8.445715e+02
2.022963e+03,8.462736e+02
2.023928e+03,8.364058e+02
2.024892e+03,8.257653e+02
2.025856e+03,8.259626e+02
2.026820e+03,8.311263e+02
2.027785e+03,8.393812e+02
2.028749e+03,8.456458e+02
2.029713e+03,8.403044e+02
2.030677e+03,8.313288e+02
2.031641e+03,8.292171e+02
2.032606e+03,8.311888e+02
2.033570e+03,8.317325e+02
2.034534e+03,8.312492e+02
2.035498e+03,8.338339e+02
2.036463e+03,8.370082e+02
2.037427e+03,8.333453e+02
2.038391e+03,8.234363e+02
2.039355e+03,8.167297e+02
2.040320e+03,8.134489e+02
2.041284e+03,8.152916e+02
2.042248e+03,8.226352e+02
2.043212e+03,8.246240e+02
2.044177e+03,8.204561e+02
2.045141e+03,8.195901e+02
2.046105e+03,8.231498e+02
2.047069e+03,8.253112e+02
2.048033e+03,8.213846e+02
2.048998e+03,8.183275e+02
2.049962e+03,8.169919e+02
2.050926e+03,8.161488e+02
2.051890e+03,8.153709e+02
2.052854e+03,8.140727e+02
2.053819e+03,8.112093e+02
2.054783e+03,8.089794e+02
2.055747e+03,8.095421e+02
2.056711e+03,8.108589e+02
2.057676e+03,8.114387e+02
2.058640e+03,8.110191e+02
2.059604e+03,8.085602e+02
2.060568e+03,8.053600e+02
2.061533e+03,8.041418e+02
2.062497e+03,8.033930e+02
2.063461e+03,8.004213e+02
2.064425e+03,7.979789e+02
2.065390e+03,8.022639e+02
2.066354e+03,8.083691e+02
2.067318e+03,8.061942e+02
2.068282e+03,7.996269e+02
2.069247e+03,7.970535e+02
2.070211e+03,7.975201e+02
2.071175e+03,7.957433e+02
2.072139e+03,7.927513e+02
2.073104e+03,7.908051e+02
2.074068e+03,7.901517e+02
2.075032e+03,7.891473e+02
2.075996e+03,7.876116e+02
2.076960e+03,7.853897e+02
2.077925e+03,7.825562e+02
2.078889e+03,7.853860e+02
2.079853e+03,7.943857e+02
2.080817e+03,7.981083e+02
2.081782e+03,7.954203e+02
2.082746e+03,7.926180e+02
2.083710e+03,7.942017e+02
2.084674e+03,7.899811e+02
2.085639e+03,7.798762e+02
2.086603e+03,7.723090e+02
2.087567e+03,7.713456e+02
2.088531e+03,7.721246e+02
2.089496e+03,7.736599e+02
2.090460e+03,7.747834e+02
2.091424e+03,7.763880e+02
2.092388e+03,7.779791e+02
2.093353e+03,7.781411e+02
2.094317e+03,7.793541e+02
2.095281e+03,7.820831e+02
2.096245e+03,7.834260e+02
2.097209e+03,7.796802e+02
2.098174e+03,7.745693e+02
2.099138e+03,7.691620e+02
2.100102e+03,7.664308e+02
2.101066e+03,7.730158e+02
2.102031e+03,7.798281e+02
2.102995e+03,7.785533e+02
2.103959e+03,7.730768e+02
2.104923e+03,7.628105e+02
2.105887e+03,7.542411e+02
2.106852e+03,7.599963e+02
2.107816e+03,7.695096e+02
2.108780e+03,7.723408e+02
2.109744e+03,7.699515e+02
2.110708e+03,7.635969e+02
2.111673e+03,7.574614e+02
2.112637e+03,7.584155e+02
2.113601e+03,7.628376e+02
2.114565e+03,7.643425e+02
2.115530e+03,7.631860e+02
2.116494e+03,7.568438e+02
2.117458e+03,7.499371e+02
2.118422e+03,7.549270e+02
2.119387e+03,7.684550e+02
2.120351e+03,7.764589e+02
2.121315e+03,7.781799e+02
2.122279e+03,7.734689e+02
2.123244e+03,7.627084e+02
2.124208e+03,7.580256e+02
2.125172e+03,7.579715e+02
2.126136e+03,7.561895e+02
2.127101e+03,7.510464e+02
2.128065e+03,7.504340e+02
2.129029e+03,7.535808e+02
2.129993e+03,7.559261e+02
2.130958e+03,7.558602e+02
2.131922e+03,7.564070e+02
2.132886e+03,7.583611e+02
2.133850e+03,7.563319e+02
2.134814e+03,7.507717e+02
2.135779e+03,7.472099e+02
2.136743e+03,7.477932e+02
2.137707e+03,7.470317e+02
2.138671e+03,7.450211e+02
2.139636e+03,7.435095e+02
2.140600e+03,7.434621e+02
2.141564e+03,7.434697e+02
2.142528e+03,7.434597e+02
2.143493e+03,7.457172e+02
2.144457e+03,7.524500e+02
2.145421e+03,7.536071e+02
2.146385e+03,7.452125e+02
2.147350e+03,7.396843e+02
2.148314e+03,7.408994e+02
2.149278e+03,7.443058e+02
2.150242e+03,7.486650e+02
2.151207e+03,7.491766e+02
2.152171e+03,7.444367e+02
2.153135e+03,7.390567e+02
2.154099e+03,7.367689e+02
2.155063e+03,7.368983e+02
2.156028e+03,7.398985e+02
2.156992e+03,7.421395e+02
2.157956e+03,7.391020e+02
2.158920e+03,7.356488e+02
2.159885e+03,7.337764e+02
2.160849e+03,7.327399e+02
2.161813e+03,7.327693e+02
2.162777e+03,7.318923e+02
2.163741e+03,7.280262e+02
2.164706e+03,7.232397e+02
2.165670e+03,7.181873e+02
2.166634e+03,7.162018e+02
2.167598e+03,7.228590e+02
2.168563e+03,7.298933e+02
2.169527e+03,7.334316e+02
2.170491e+03,7.337219e+02
2.171455e+03,7.288522e+02
2.172420e+03,7.257624e+02
2.173384e+03,7.309523e+02
2.174348e+03,7.362903e+02
2.175312e+03,7.342275e+02
2.176277e+03,7.295371e+02
2.177241e+03,7.257057e+02
2.178205e+03,7.235469e+02
2.179169e+03,7.245402e+02
2.180134e+03,7.270081e+02
2.181098e+03,7.272916e+02
2.182062e+03,7.290142e+02
2.183026e+03,7.352247e+02
2.183990e+03,7.404908e+02
2.184955e+03,7.353580e+02
2.185919e+03,7.272320e+02
2.186883e+03,7.218635e+02
2.187847e+03,7.167377e+02
2.188812e+03,7.057086e+02
2.189776e+03,6.969427e+02
2.190740e+03,7.034473e+02
2.191704e+03,7.124659e+02
2.192668e+03,7.129108e+02
2.193633e+03,7.089854e+02
2.194597e+03,7.049529e+02
2.195561e+03,7.012758e+02
2.196525e+03,6.969161e+02
2.197490e+03,6.944080e+02
2.198454e+03,7.031027e+02
2.199418e+03,7.106440e+02
2.200382e+03,7.049811e+02
2.201347e+03,6.947266e+02
2.202311e+03,6.928581e+02
2.203275e+03,6.952695e+02
2.204239e+03,6.985641e+02
2.205204e+03,7.008079e+02
2.206168e+03,7.005506e+02
2.207132e+03,6.989953e+02
2.208096e+03,6.951834e+02
2.209061e+03,6.920432e+02
2.210025e+03,6.957839e+02
2.210989e+03,7.005582e+02
2.211953e+03,6.950576e+02
2.212917e+03,6.888660e+02
2.213882e+03,6.899971e+02
2.214846e+03,6.942195e+02
2.215810e+03,6.952103e+02
2.216774e+03,6.945689e+02
2.217739e+03,6.958596e+02
2.218703e+03,6.970901e+02
2.219667e+03,6.924391e+02
2.220631e+03,6.874579e+02
2.221595e+03,6.872226e+02
2.222560e+03,6.895458e+02
2.223524e+03,6.933948e+02
2.224488e+03,6.964939e+02
2.225452e+03,6.966163e+02
2.226417e+03,6.944697e+02
2.227381e+03,6.880161e+02
2.228345e+03,6.818237e+02
2.229309e+03,6.817357e+02
2.230274e+03,6.841768e+02
2.231238e+03,6.871999e+02
2.232202e+03,6.894252e+02
2.233166e+03,6.882573e+02
2.234131e+03,6.874613e+02
2.235095e+03,6.903610e+02
2.236059e+03,6.932620e+02
2.237023e+03,6.883517e+02
2.237988e+03,6.831518e+02
2.238952e+03,6.830651e+02
2.239916e+03,6.843124e+02
2.240880e+03,6.849469e+02
2.241844e+03,6.819467e+02
2.242809e+03,6.705427e+02
2.243773e+03,6.601575e+02
2.244737e+03,6.594687e+02
2.245701e+03,6.643458e+02
2.246666e+03,6.754672e+02
2.247630e+03,6.839382e+02
2.248594e+03,6.842560e+02
2.249558e+03,6.801135e+02
2.250522e+03,6.695892e+02
2.251487e+03,6.628594e+02
2.252451e+03,6.654742e+02
2.253415e+03,6.695356e+02
2.254379e+03,6.683467e+02
2.255344e+03,6.657362e+02
2.256308e+03,6.628485e+02
2.257272e+03,6.617228e+02
2.258236e+03,6.672259e+02
2.259201e+03,6.701988e+02
2.260165e+03,6.668150e+02
2.261129e+03,6.630184e+02
2.262093e+03,6.638356e+02
2.263058e+03,6.657346e+02
2.264022e+03,6.684651e+02
2.264986e+03,6.704660e+02
2.265950e+03,6.704130e+02
2.266915e+03,6.677982e+02
2.267879e+03,6.609847e+02
2.268843e+03,6.574031e+02
2.269807e+03,6.632008e+02
2.270771e+03,6.654418e+02
2.271736e+03,6.573392e+02
2.272700e+03,6.551406e+02
2.273664e+03,6.637890e+02
2.274628e+03,6.679559e+02
2.275593e+03,6.573696e+02
2.276557e+03,6.524231e+02
2.277521e+03,6.567448e+02
2.278485e+03,6.609812e+02
2.279449e+03,6.597530e+02
2.280414e+03,6.601356e+02
2.281378e+03,6.624395e+02
2.282342e+03,6.653419e+02
2.283306e+03,6.696252e+02
2.284271e+03,6.689612e+02
2.285235e+03,6.636033e+02
2.286199e+03,6.588202e+02
2.287163e+03,6.577600e+02
2.288128e+03,6.553560e+02
2.289092e+03,6.512416e+02
2.290056e+03,6.483055e+02
2.291020e+03,6.475559e+02
2.291985e+03,6.498538e+02
2.292949e+03,6.548436e+02
2.293913e+03,6.549910e+02
2.294877e+03,6.498748e+02
2.295842e+03,6.481760e+02
2.296806e+03,6.493979e+02
2.297770e+03,6.506910e+02
2.298734e+03,6.511552e+02
2.299698e+03,6.484217e+02
2.300663e+03,6.434150e+02
2.301627e+03,6.417242e+02
2.302591e+03,6.417223e+02
2.303555e+03,6.395767e+02
2.304520e+03,6.361027e+02
2.305484e+03,6.351746e+02
2.306448e+03,6.359222e+02
2.307412e+03,6.364847e+02
2.308376e+03,6.367459e+02
2.309341e+03,6.367048e+02
2.310305e+03,6.374537e+02
2.311269e+03,6.422594e+02
2.312233e+03,6.477005e+02
2.313198e+03,6.470892e+02
2.314162e+03,6.433253e+02
2.315126e+03,6.386900e+02
2.316090e+03,6.346638e+02
2.317055e+03,6.332263e+02
2.318019e+03,6.333134e+02
2.318983e+03,6.340553e+02
2.319947e+03,6.347102e+02
2.320912e+03,6.364085e+02
2.321876e+03,6.364451e+02
2.322840e+03,6.302326e+02
2.323804e+03,6.255959e+02
2.324769e+03,6.266521e+02
2.325733e+03,6.297449e+02
2.326697e+03,6.332338e+02
2.327661e+03,6.350426e+02
2.328625e+03,6.338264e+02
2.329590e+03,6.315950e+02
2.330554e+03,6.296822e+02
2.331518e+03,6.291432e+02
2.332482e+03,6.301949e+02
2.333447e+03,6.293051e+02
2.334411e+03,6.231537e+02
2.335375e+03,6.186611e+02
2.336339e+03,6.162894e+02
2.337303e+03,6.161412e+02
2.338268e+03,6.192087e+02
2.339232e+03,6.203147e+02
2.340196e+03,6.197748e+02
2.341160e+03,6.181261e+02
2.342125e+03,6.150855e+02
2.343089e+03,6.178607e+02
2.344053e+03,6.233817e+02
2.345017e+03,6.217664e+02
2.345982e+03,6.133234e+02
2.346946e+03,6.124519e+02
2.347910e+03,6.156517e+02
2.348874e+03,6.097191e+02
2.349839e+03,5.985408e+02
2.350803e+03,5.987819e+02
2.351767e+03,6.051975e+02
2.352731e+03,6.072029e+02
2.353696e+03,6.074175e+02
2.354660e+03,6.098583e+02
2.355624e+03,6.129676e+02
2.356588e+03,6.169690e+02
2.357552e+03,6.182760e+02
2.358517e+03,6.108723e+02
2.359481e+03,6.032018e+02
2.360445e+03,6.083837e+02
2.361409e+03,6.118601e+02
2.362374e+03,6.046033e+02
2.363338e+03,5.974340e+02
2.364302e+03,6.048690e+02
2.365266e+03,6.089415e+02
2.366230e+03,6.034431e+02
2.367195e+03,5.978885e+02
2.368159e+03,5.988779e+02
2.369123e+03,5.995515e+02
2.370087e+03,5.995433e+02
2.371052e+03,5.998527e+02
2.372016e+03,6.003356e+02
2.372980e+03,6.046685e+02
2.373944e+03,6.122273e+02
2.374909e+03,6.156463e+02
2.375873e+03,6.120831e+02
2.376837e+03,6.073669e+02
2.377801e+03,6.021971e+02
2.378766e+03,5.997610e+02
2.379730e+03,6.001730e+02
2.380694e+03,5.976591e+02
2.381658e+03,5.940115e+02
2.382623e+03,5.925774e+02
2.383587e+03,5.932249e+02
2.384551e+03,5.967511e+02
2.385515e+03,6.006868e+02
2.386479e+03,6.019734e+02
2.387444e+03,6.008351e+02
2.388408e+03,5.955886e+02
2.389372e+03,5.900964e+02
2.390336e+03,5.881185e+02
2.391301e+03,5.873161e+02
2.392265e+03,5.848817e+02
2.393229e+03,5.835378e+02
2.394193e+03,5.856945e+02
2.395157e+03,5.874297e+02
2.396122e+03,5.861872e+02
2.397086e+03,5.846160e+02
2.398050e+03,5.837305e+02
2.399014e+03,5.834471e+02
2.399979e+03,5.836109e+02
2.400943e+03,5.848073e+02
2.401907e+03,5.869907e+02
2.402871e+03,5.865711e+02
2.403836e+03,5.829167e+02
2.404800e+03,5.814166e+02
2.405764e+03,5.821611e+02
2.406728e+03,5.826309e+02
2.407693e+03,5.820165e+02
2.408657e+03,5.796566e+02
2.409621e+03,5.764678e+02
2.410585e+03,5.743773e+02
2.411550e+03,5.741585e+02
2.412514e+03,5.768817e+02
2.413478e+03,5.811245e+02
2.414442e+03,5.854831e+02
2.415406e+03,5.863820e+02
2.416371e+03,5.779971e+02
2.417335e+03,5.689159e+02
2.418299e+03,5.749249e+02
2.419263e+03,5.803693e+02
2.420228e+03,5.759896e+02
2.421192e+03,5.702612e+02
2.422156e+03,5.712058e+02
2.423120e+03,5.731378e+02
2.424084e+03,5.742369e+02
2.425049e+03,5.765065e+02
2.426013e+03,5.839081e+02
2.426977e+03,5.855793e+02
2.427941e+03,5.811193e+02
2.428906e+03,5.752364e+02
2.429870e+03,5.679336e+02
2.430834e+03,5.683229e+02
2.431798e+03,5.748004e+02
2.432763e+03,5.766373e+02
2.433727e+03,5.734528e+02
2.434691e+03,5.739001e+02
2.435655e+03,5.758882e+02
2.436620e+03,5.749594e+02
2.437584e+03,5.724048e+02
2.438548e+03,5.714602e+02
2.439512e+03,5.721100e+02
2.440477e+03,5.750284e+02
2.441441e+03,5.759509e+02
2.442405e+03,5.649669e+02
2.443369e+03,5.584791e+02
2.444333e+03,5.648693e+02
2.445298e+03,5.724295e+02
2.446262e+03,5.698715e+02
2.447226e+03,5.684160e+02
2.448190e+03,5.704361e+02
2.449155e+03,5.716008e+02
2.450119e+03,5.676304e+02
2.451083e+03,5.699360e+02
2.452047e+03,5.769932e+02
2.453011e+03,5.740114e+02
2.453976e+03,5.570367e+02
2.454940e+03,5.521966e+02
2.455904e+03,5.564078e+02
2.456868e+03,5.601562e+02
2.457833e+03,5.622084e+02
2.458797e+03,5.621423e+02
2.459761e+03,5.620120e+02
2.460725e+03,5.652282e+02
2.461690e+03,5.681387e+02
2.462654e+03,5.641631e+02
2.463618e+03,5.589482e+02
2.464582e+03,5.562445e+02
2.465547e+03,5.549968e+02
2.466511e+03,5.537353e+02
2.467475e+03,5.528766e+02
2.468439e+03,5.524902e+02
2.469404e+03,5.517179e+02
2.470368e+03,5.511542e+02
2.471332e+03,5.483589e+02
2.472296e+03,5.435273e+02
2.473260e+03,5.436770e+02
2.474225e+03,5.511765e+02
2.475189e+03,5.507313e+02
2.476153e+03,5.455963e+02
2.477117e+03,5.439818e+02
2.478082e+03,5.456426e+02
2.479046e+03,5.494957e+02
2.480010e+03,5.544478e+02
2.480974e+03,5.609847e+02
2.481938e+03,5.648973e+02
2.482903e+03,5.565203e+02
2.483867e+03,5.487960e+02
2.484831e+03,5.484595e+02
2.485795e+03,5.505734e+02
2.486760e+03,5.530722e+02
2.487724e+03,5.552031e+02
2.488688e+03,5.571320e+02
2.489652e+03,5.568776e+02
2.490617e+03,5.507991e+02
2.491581e+03,5.480760e+02
2.492545e+03,5.487339e+02
2.493509e+03,5.522957e+02
2.494474e+03,5.574369e+02
2.495438e+03,5.543012e+02
2.496402e+03,5.465215e+02
2.497366e+03,5.414676e+02
2.498331e+03,5.389983e+02
2.499295e+03,5.390691e+02
2.500259e+03,5.407565e+02
2.501223e+03,5.446937e+02
2.502188e+03,5.472247e+02
2.503152e+03,5.410644e+02
2.504116e+03,5.386463e+02
2.505080e+03,5.439135e+02
2.506044e+03,5.483250e+02
2.507009e+03,5.435411e+02
2.507973e+03,5.440512e+02
2.508937e+03,5.498421e+02
2.509901e+03,5.501566e+02
2.510865e+03,5.419238e+02
2.511830e+03,5.328910e+02
2.512794e+03,5.247654e+02
2.513758e+03,5.252962e+02
2.514722e+03,5.313765e+02
2.515687e+03,5.351854e+02
2.516651e+03,5.374294e+02
2.517615e+03,5.394301e+02
2.518579e+03,5.397243e+02
2.519544e+03,5.346556e+02
2.520508e+03,5.296823e+02
2.521472e+03,5.267571e+02
2.522436e+03,5.260580e+02
2.523401e+03,5.303447e+02
2.524365e+03,5.310211e+02
2.525329e+03,5.273970e+02
2.526293e+03,5.262386e+02
2.527258e+03,5.297062e+02
2.528222e+03,5.314728e+02
2.529186e+03,5.316569e+02
2.530150e+03,5.302006e+02
2.531115e+03,5.288612e+02
2.532079e+03,5.345959e+02
2.533043e+03,5.403345e+02
2.534007e+03,5.382014e+02
2.534971e+03,5.330219e+02
2.535936e+03,5.318761e+02
2.536900e+03,5.290817e+02
2.537864e+03,5.217756e+02
2.538828e+03,5.185628e+02
2.539792e+03,5.243609e+02
2.540757e+03,5.285819e+02
2.541721e+03,5.300148e+02
2.542685e+03,5.319305e+02
2.543649e+03,5.348796e+02
2.544614e+03,5.366480e+02
2.545578e+03,5.363570e+02
2.546542e+03,5.324773e+02
2.547506e+03,5.279434e+02
2.548471e+03,5.311503e+02
2.549435e+03,5.352902e+02
2.550399e+03,5.345840e+02
2.551363e+03,5.313423e+02
2.552328e+03,5.259045e+02
2.553292e+03,5.241117e+02
2.554256e+03,5.288265e+02
2.555220e+03,5.348098e+02
2.556185e+03,5.409149e+02
2.557149e+03,5.369358e+02
2.558113e+03,5.220305e+02
2.559077e+03,5.198888e+02
2.560042e+03,5.262852e+02
2.561006e+03,5.228002e+02
2.561970e+03,5.164654e+02
2.562934e+03,5.249898e+02
2.563898e+03,5.354577e+02
2.564863e+03,5.316313e+02
2.565827e+03,5.236895e+02
2.566791e+03,5.162440e+02
2.567755e+03,5.148407e+02
2.568719e+03,5.197153e+02
2.569684e+03,5.239437e+02
2.570648e+03,5.247200e+02
2.571612e+03,5.251297e+02
2.572576e+03,5.254255e+02
2.573541e+03,5.214604e+02
2.574505e+03,5.143519e+02
2.575469e+03,5.174285e+02
2.576433e+03,5.228233e+02
2.577398e+03,5.175504e+02
2.578362e+03,5.107961e+02
2.579326e+03,5.183031e+02
2.580290e+03,5.235562e+02
2.581255e+03,5.192231e+02
2.582219e+03,5.126885e+02
2.583183e+03,5.070377e+02
2.584147e+03,5.056137e+02
2.585112e+03,5.089816e+02
2.586076e+03,5.140699e+02
2.587040e+03,5.201572e+02
2.588004e+03,5.165242e+02
2.588969e+03,5.079556e+02
2.589933e+03,5.053228e+02
2.590897e+03,5.074056e+02
2.591861e+03,5.154705e+02
2.592825e+03,5.199794e+02
2.593790e+03,5.138418e+02
2.594754e+03,5.058598e+02
2.595718e+03,5.000665e+02
2.596682e+03,5.024067e+02
2.597646e+03,5.146141e+02
2.598611e+03,5.173026e+02
2.599575e+03,5.102833e+02
2.600539e+03,5.084029e+02
2.601503e+03,5.110425e+02
2.602468e+03,5.090308e+02
2.603432e+03,5.051745e+02
2.604396e+03,5.064106e+02
2.605360e+03,5.089790e+02
2.606325e+03,5.105098e+02
2.607289e+03,5.085915e+02
2.608253e+03,5.019996e+02
2.609217e+03,4.965944e+02
2.610182e+03,4.945453e+02
2.611146e+03,4.931837e+02
2.612110e+03,4.924892e+02
2.613074e+03,4.927070e+02
2.614039e+03,4.944745e+02
2.615003e+03,5.041364e+02
2.615967e+03,5.109958e+02
2.616931e+03,4.958918e+02
2.617896e+03,4.791018e+02
2.618860e+03,4.913321e+02
2.619824e+03,5.035840e+02
2.620788e+03,5.045562e+02
2.621752e+03,5.033536e+02
2.622717e+03,5.051800e+02
2.623681e+03,5.056759e+02
2.624645e+03,5.044447e+02
2.625609e+03,5.011881e+02
2.626573e+03,4.967867e+02
2.627538e+03,4.963726e+02
2.628502e+03,4.984936e+02
2.629466e+03,5.000145e+02
2.630430e+03,5.011732e+02
2.631395e+03,5.025275e+02
2.632359e+03,5.026402e+02
2.633323e+03,5.008621e+02
2.634287e+03,4.984152e+02
2.635252e+03,4.959081e+02
2.636216e+03,4.927169e+02
2.637180e+03,4.891874e+02
2.638144e+03,4.950622e+02
2.639109e+03,5.044671e+02
2.640073e+03,4.990825e+02
2.641037e+03,4.893211e+02
2.642001e+03,4.889770e+02
2.642966e+03,4.898049e+02
2.643930e+03,4.863858e+02
2.644894e+03,4.850775e+02
2.645858e+03,4.943341e+02
2.646823e+03,4.957457e+02
2.647787e+03,4.892119e+02
2.648751e+03,4.870259e+02
2.649715e+03,4.903888e+02
2.650679e+03,4.961284e+02
2.651644e+03,4.994923e+02
2.652608e+03,4.914134e+02
2.653572e+03,4.825953e+02
2.654536e+03,4.932606e+02
2.655500e+03,5.014920e+02
2.656465e+03,4.984688e+02
2.657429e+03,4.977793e+02
2.658393e+03,5.040462e+02
2.659357e+03,5.035083e+02
2.660322e+03,4.959442e+02
2.661286e+03,4.898507e+02
2.662250e+03,4.857574e+02
2.663214e+03,4.846675e+02
2.664179e+03,4.857190e+02
2.665143e+03,4.898906e+02
2.666107e+03,4.933351e+02
2.667071e+03,4.945171e+02
2.668036e+03,4.926058e+02
2.669000e+03,4.825907e+02
2.669964e+03,4.834500e+02
2.670928e+03,4.930287e+02
2.671893e+03,4.942062e+02
2.672857e+03,4.885622e+02
2.673821e+03,4.908627e+02
2.674785e+03,4.934412e+02
2.675750e+03,4.876127e+02
2.676714e+03,4.810856e+02
2.677678e+03,4.831549e+02
2.678642e+03,4.849151e+02
2.679606e+03,4.845765e+02
2.680571e+03,4.854187e+02
2.681535e+03,4.877388e+02
2.682499e+03,4.859008e+02
2.683463e+03,4.802764e+02
2.684427e+03,4.745859e+02
2.685392e+03,4.709264e+02
2.686356e+03,4.752974e+02
2.687320e+03,4.793214e+02
2.688284e+03,4.748778e+02
2.689249e+03,4.760822e+02
2.690213e+03,4.852905e+02
2.691177e+03,4.910247e+02
2.692141e+03,4.899369e+02
2.693106e+03,4.798083e+02
2.694070e+03,4.672821e+02
2.695034e+03,4.706249e+02
2.695998e+03,4.796725e+02
2.696963e+03,4.732531e+02
2.697927e+03,4.732047e+02
2.698891e+03,4.915429e+02
2.699855e+03,4.995885e+02
2.700820e+03,4.805768e+02
2.701784e+03,4.689519e+02
2.702748e+03,4.677477e+02
2.703712e+03,4.723237e+02
2.704677e+03,4.795103e+02
2.705641e+03,4.836182e+02
2.706605e+03,4.849069e+02
2.707569e+03,4.817153e+02
2.708533e+03,4.768898e+02
2.709498e+03,4.712644e+02
2.710462e+03,4.682145e+02
2.711426e+03,4.711337e+02
2.712390e+03,4.719315e+02
2.713354e+03,4.711884e+02
2.714319e+03,4.724155e+02
2.715283e+03,4.751497e+02
2.716247e+03,4.803148e+02
2.717211e+03,4.832955e+02
2.718176e+03,4.809085e+02
2.719140e+03,4.781822e+02
2.720104e+03,4.788250e+02
2.721068e+03,4.783756e+02
2.722033e+03,4.759735e+02
2.722997e+03,4.677121e+02
2.723961e+03,4.564750e+02
2.724925e+03,4.545047e+02
2.725890e+03,4.588214e+02
2.726854e+03,4.688492e+02
2.727818e+03,4.734631e+02
2.728782e+03,4.651665e+02
2.729747e+03,4.597334e+02
2.730711e+03,4.684619e+02
2.731675e+03,4.705302e+02
2.732639e+03,4.671674e+02
2.733604e+03,4.642560e+02
2.734568e+03,4.629459e+02
2.735532e+03,4.679697e+02
2.736496e+03,4.712484e+02
2.737460e+03,4.667800e+02
2.738425e+03,4.623410e+02
2.739389e+03,4.626977e+02
2.740353e+03,4.619421e+02
2.741317e+03,4.598804e+02
2.742281e+03,4.625399e+02
2.743246e+03,4.684326e+02
2.744210e+03,4.717707e+02
2.745174e+03,4.724790e+02
2.746138e+03,4.703474e+02
2.747103e+03,4.693022e+02
2.748067e+03,4.714283e+02
2.749031e+03,4.705852e+02
2.749995e+03,4.608226e+02
2.750960e+03,4.572365e+02
2.751924e+03,4.591402e+02
2.752888e+03,4.648024e+02
2.753852e+03,4.708815e+02
2.754817e+03,4.724709e+02
2.755781e+03,4.681926e+02
2.756745e+03,4.545179e+02
2.757709e+03,4.496708e+02
2.758674e+03,4.584604e+02
2.759638e+03,4.621761e+02
2.760602e+03,4.579746e+02
2.761566e+03,4.553415e+02
2.762531e+03,4.544691e+02
2.763495e+03,4.548366e+02
2.764459e+03,4.560795e+02
2.765423e+03,4.613579e+02
2.766387e+03,4.599632e+02
2.767352e+03,4.504464e+02
2.768316e+03,4.481826e+02
2.769280e+03,4.558674e+02
2.770244e+03,4.614483e+02
2.771208e+03,4.648023e+02
2.772173e+03,4.664843e+02
2.773137e+03,4.662924e+02
2.774101e+03,4.645561e+02
2.775065e+03,4.613760e+02
2.776030e+03,4.547148e+02
2.776994e+03,4.599212e+02
2.777958e+03,4.733725e+02
2.778922e+03,4.678300e+02
2.779887e+03,4.523828e+02
2.780851e+03,4.581967e+02
2.781815e+03,4.671707e+02
2.782779e+03,4.670289e+02
2.783744e+03,4.634029e+02
2.784708e+03,4.575698e+02
2.785672e+03,4.563304e+02
2.786636e+03,4.594146e+02
2.787601e+03,4.596684e+02
2.788565e+03,4.586454e+02
2.789529e+03,4.611101e+02
2.790493e+03,4.642718e+02
2.791458e+03,4.676647e+02
2.792422e+03,4.642086e+02
2.793386e+03,4.538219e+02
2.794350e+03,4.479595e+02
2.795314e+03,4.491968e+02
2.796279e+03,4.558541e+02
2.797243e+03,4.605132e+02
2.798207e+03,4.499581e+02
2.799171e+03,4.412285e+02
2.800135e+03,4.630374e+02
2.801100e+03,4.743221e+02
2.802064e+03,4.652056e+02
2.803028e+03,4.568404e+02
2.803992e+03,4.516432e+02
2.804957e+03,4.490499e+02
2.805921e+03,4.478190e+02
2.806885e+03,4.440055e+02
2.807849e+03,4.435503e+02
2.808814e+03,4.489954e+02
2.809778e+03,4.545938e+02
2.810742e+03,4.586663e+02
2.811706e+03,4.576461e+02
2.812671e+03,4.518204e+02
2.813635e+03,4.427798e+02
2.814599e+03,4.353402e+02
2.815563e+03,4.420728e+02
2.816528e+03,4.498355e+02
2.817492e+03,4.530733e+02
2.818456e+03,4.553769e+02
2.819420e+03,4.567833e+02
2.820385e+03,4.529696e+02
2.821349e+03,4.468899e+02
2.822313e+03,4.490760e+02
2.823277e+03,4.544120e+02
2.824241e+03,4.586608e+02
2.825206e+03,4.590963e+02
2.826170e+03,4.532184e+02
2.827134e+03,4.519946e+02
2.828098e+03,4.546901e+02
2.829063e+03,4.489190e+02
2.830027e+03,4.390128e+02
2.830991e+03,4.340195e+02
2.831955e+03,4.332789e+02
2.832919e+03,4.372240e+02
2.833884e+03,4.432376e+02
2.834848e+03,4.501526e+02
2.835812e+03,4.523583e+02
2.836776e+03,4.505973e+02
2.837741e+03,4.541178e+02
2.838705e+03,4.566098e+02
2.839669e+03,4.497399e+02
2.840633e+03,4.452699e+02
2.841598e+03,4.496597e+02
2.842562e+03,4.563126e+02
2.843526e+03,4.638115e+02
2.844490e+03,4.578938e+02
2.845455e+03,4.459052e+02
2.846419e+03,4.421643e+02
2.847383e+03,4.410781e+02
2.848347e+03,4.330850e+02
2.849312e+03,4.357901e+02
2.850276e+03,4.516491e+02
2.851240e+03,4.603265e+02
2.852204e+03,4.610349e+02
2.853168e+03,4.598253e+02
2.854133e+03,4.594671e+02
2.855097e+03,4.691692e+02
2.856061e+03,4.669203e+02
2.857025e+03,4.465846e+02
2.857990e+03,4.356219e+02
2.858954e+03,4.425866e+02
2.859918e+03,4.510800e+02
2.860882e+03,4.594644e+02
2.861846e+03,4.668105e+02
2.862811e+03,4.680373e+02
2.863775e+03,4.546053e+02
2.864739e+03,4.472816e+02
2.865703e+03,4.519678e+02
2.866668e+03,4.590068e+02
2.867632e+03,4.661616e+02
2.868596e+03,4.696847e+02
2.869560e+03,4.703771e+02
2.870525e+03,4.668328e+02
2.871489e+03,4.679710e+02
2.872453e+03,4.756317e+02
2.873417e+03,4.690610e+02
2.874382e+03,4.510541e+02
2.875346e+03,4.585510e+02
2.876310e+03,4.741492e+02
2.877274e+03,4.666090e+02
2.878239e+03,4.629842e+02
2.879203e+03,4.732288e+02
2.880167e+03,4.765331e+02
2.881131e+03,4.668498e+02
2.882095e+03,4.621216e+02
2.883060e+03,4.627359e+02
2.884024e+03,4.690912e+02
2.884988e+03,4.740031e+02
2.885952e+03,4.700850e+02
2.886917e+03,4.663507e+02
2.887881e+03,4.654860e+02
2.888845e+03,4.700301e+02
2.889809e+03,4.759859e+02
2.890773e+03,4.722612e+02
2.891738e+03,4.675338e+02
2.892702e+03,4.741963e+02
2.893666e+03,4.794608e+02
2.894630e+03,4.811801e+02
2.895595e+03,4.863942e+02
2.896559e+03,4.937113e+02
2.897523e+03,4.923624e+02
2.898487e+03,4.923984e+02
2.899452e+03,5.153268e+02
2.900416e+03,5.150794e+02
2.901380e+03,4.847422e+02
2.902344e+03,4.757781e+02
2.903309e+03,4.918185e+02
2.904273e+03,4.794789e+02
2.905237e+03,4.614690e+02
2.906201e+03,4.619576e+02
2.907166e+03,4.683080e+02
2.908130e+03,4.743701e+02
2.909094e+03,4.817207e+02
2.910058e+03,4.889686e+02
2.911022e+03,4.839900e+02
2.911987e+03,4.726057e+02
2.912951e+03,4.599994e+02
2.913915e+03,4.530020e+02
2.914879e+03,4.583137e+02
2.915844e+03,4.634946e+02
2.916808e+03,4.670026e+02
2.917772e+03,4.669864e+02
2.918736e+03,4.651112e+02
2.919700e+03,4.630733e+02
2.920665e+03,4.613478e+02
2.921629e+03,4.618864e+02
2.922593e+03,4.572026e+02
2.923557e+03,4.493071e+02
2.924522e+03,4.470170e+02
2.925486e+03,4.497653e+02
2.926450e+03,4.635848e+02
2.927414e+03,4.669430e+02
2.928379e+03,4.445644e+02
2.929343e+03,4.344906e+02
2.930307e+03,4.372867e+02
2.931271e+03,4.359716e+02
2.932236e+03,4.327718e+02
2.933200e+03,4.337441e+02
2.934164e+03,4.341797e+02
2.935128e+03,4.314123e+02
2.936093e+03,4.334003e+02
2.937057e+03,4.403297e+02
2.938021e+03,4.482451e+02
2.938985e+03,4.551363e+02
2.939949e+03,4.605455e+02
2.940914e+03,4.541675e+02
2.941878e+03,4.341687e+02
2.942842e+03,4.269892e+02
2.943806e+03,4.356534e+02
2.944771e+03,4.513243e+02
2.945735e+03,4.633268e+02
2.946699e+03,4.550468e+02
2.947663e+03,4.472127e+02
2.948627e+03,4.464413e+02
2.949592e+03,4.392628e+02
2.950556e+03,4.259742e+02
2.951520e+03,4.377352e+02
2.952484e+03,4.507413e+02
2.953449e+03,4.380050e+02
2.954413e+03,4.365539e+02
2.955377e+03,4.626206e+02
2.956341e+03,4.729929e+02
2.957306e+03,4.656662e+02
2.958270e+03,4.711151e+02
2.959234e+03,4.721623e+02
2.960198e+03,4.563020e+02
2.961163e+03,4.394468e+02
2.962127e+03,4.267553e+02
2.963091e+03,4.308277e+02
2.964055e+03,4.441230e+02
2.965020e+03,4.403098e+02
2.965984e+03,4.317593e+02
2.966948e+03,4.267000e+02
2.967912e+03,4.263927e+02
2.968876e+03,4.335220e+02
2.969841e+03,4.335959e+02
2.970805e+03,4.278590e+02
2.971769e+03,4.178802e+02
2.972733e+03,4.146977e+02
2.973698e+03,4.276587e+02
2.974662e+03,4.341170e+02
2.975626e+03,4.277065e+02
2.976590e+03,4.257274e+02
2.977554e+03,4.241591e+02
2.978519e+03,4.156740e+02
2.979483e+03,4.123536e+02
2.980447e+03,4.244303e+02
2.981411e+03,4.332724e+02
2.982376e+03,4.360020e+02
2.983340e+03,4.367827e+02
2.984304e+03,4.312678e+02
2.985268e+03,4.143188e+02
2.986233e+03,4.033767e+02
2.987197e+03,4.106088e+02
2.988161e+03,4.103038e+02
2.989125e+03,4.068358e+02
2.990090e+03,4.203287e+02
2.991054e+03,4.298509e+02
2.992018e+03,4.176527e+02
2.992982e+03,4.085407e+02
2.993947e+03,4.131615e+02
2.994911e+03,4.136570e+02
2.995875e+03,4.133275e+02
2.996839e+03,4.167134e+02
2.997803e+03,4.217567e+02
2.998768e+03,4.285454e+02
2.999732e+03,4.218401e+02
3.000696e+03,4.016812e+02
3.001660e+03,4.052885e+02
3.002625e+03,4.157011e+02
3.003589e+03,4.162550e+02
3.004553e+03,4.104873e+02
3.005517e+03,4.000236e+02
3.006481e+03,4.019041e+02
3.007446e+03,4.116013e+02
3.008410e+03,4.091745e+02
3.009374e+03,4.016364e+02
3.010338e+03,3.942318e+02
3.011303e+03,3.906666e+02
3.012267e+03,3.912429e+02
3.013231e+03,3.937977e+02
3.014195e+03,3.961890e+02
3.015160e+03,3.960573e+02
3.016124e+03,3.923679e+02
3.017088e+03,3.851993e+02
3.018052e+03,3.852357e+02
3.019017e+03,3.918839e+02
3.019981e+03,3.878658e+02
3.020945e+03,3.851579e+02
3.021909e+03,3.961701e+02
3.022874e+03,3.967337e+02
3.023838e+03,3.846298e+02
3.024802e+03,3.899001e+02
3.025766e+03,4.055882e+02
3.026730e+03,4.108757e+02
3.027695e+03,4.104726e+02
3.028659e+03,4.070670e+02
3.029623e+03,4.008315e+02
3.030587e+03,3.943050e+02
3.031552e+03,4.035248e+02
3.032516e+03,4.129712e+02
3.033480e+03,4.033828e+02
3.034444e+03,3.901102e+02
3.035408e+03,3.784125e+02
3.036373e+03,3.862567e+02
3.037337e+03,4.033185e+02
3.038301e+03,4.010450e+02
3.039265e+03,3.921836e+02
3.040230e+03,3.754247e+02
3.041194e+03,3.831791e+02
3.042158e+03,4.038470e+02
3.043122e+03,3.898166e+02
3.044087e+03,3.691134e+02
3.045051e+03,3.838592e+02
3.046015e+03,3.957138e+02
3.046979e+03,3.943936e+02
3.047944e+03,3.988444e+02
3.048908e+03,4.020404e+02
3.049872e+03,3.911862e+02
3.050836e+03,3.817257e+02
3.051801e+03,3.835184e+02
3.052765e+03,3.950811e+02
3.053729e+03,4.097934e+02
3.054693e+03,3.957508e+02
3.055657e+03,3.849664e+02
3.056622e+03,3.994854e+02
3.057586e+03,4.088979e+02
3.058550e+03,4.040679e+02
3.059514e+03,3.987870e+02
3.060479e+03,3.947743e+02
3.061443e+03,3.973407e+02
3.062407e+03,3.866694e+02
3.063371e+03,3.605108e+02
3.064335e+03,3.645866e+02
3.065300e+03,3.901383e+02
3.066264e+03,3.797977e+02
3.067228e+03,3.658578e+02
3.068192e+03,3.683500e+02
3.069157e+03,3.718685e+02
3.070121e+03,3.742963e+02
3.071085e+03,3.794423e+02
3.072049e+03,3.829242e+02
3.073014e+03,3.710612e+02
3.073978e+03,3.732600e+02
3.074942e+03,3.955502e+02
3.075906e+03,4.081283e+02
3.076871e+03,4.137010e+02
3.077835e+03,4.204100e+02
3.078799e+03,4.167045e+02
3.079763e+03,3.893098e+02
3.080728e+03,3.842129e+02
3.081692e+03,3.972432e+02
3.082656e+03,3.962728e+02
3.083620e+03,3.966778e+02
3.084584e+03,4.074217e+02
3.085549e+03,4.117506e+02
3.086513e+03,4.064249e+02
3.087477e+03,3.946058e+02
3.088441e+03,3.846681e+02
3.089406e+03,3.879023e+02
3.090370e+03,3.904218e+02
3.091334e+03,3.894337e+02
3.092298e+03,3.816351e+02
3.093262e+03,3.751671e+02
3.094227e+03,3.934952e+02
3.095191e+03,4.073227e+02
3.096155e+03,4.061300e+02
3.097119e+03,3.964922e+02
3.098084e+03,3.858576e+02
3.099048e+03,3.845800e+02
3.100012e+03,3.927986e+02
3.100976e+03,4.181158e+02
3.101941e+03,4.049225e+02
3.102905e+03,3.623383e+02
3.103869e+03,3.727748e+02
3.104833e+03,3.911947e+02
3.105798e+03,3.875290e+02
3.106762e+03,3.866884e+02
3.107726e+03,3.951546e+02
3.108690e+03,4.137594e+02
3.109655e+03,4.247719e+02
3.110619e+03,3.973360e+02
3.111583e+03,3.831107e+02
3.112547e+03,3.879625e+02
3.113511e+03,3.885078e+02
3.114476e+03,3.863580e+02
3.115440e+03,3.925356e+02
3.116404e+03,3.931612e+02
3.117368e+03,3.819289e+02
3.118333e+03,3.733909e+02
3.119297e+03,3.744859e+02
3.120261e+03,3.967817e+02
3.121225e+03,4.125285e+02
3.122189e+03,4.061757e+02
3.123154e+03,4.056785e+02
3.124118e+03,4.123105e+02
3.125082e+03,4.259674e+02
3.126046e+03,4.239634e+02
3.127011e+03,3.961734e+02
3.127975e+03,3.891743e+02
3.128939e+03,4.009541e+02
3.129903e+03,4.031724e+02
3.130868e+03,4.004883e+02
3.131832e+03,3.913708e+02
3.132796e+03,3.957997e+02
3.133760e+03,4.089760e+02
3.134725e+03,4.013222e+02
3.135689e+03,3.881810e+02
3.136653e+03,3.841783e+02
3.137617e+03,3.873801e+02
3.138582e+03,3.976113e+02
3.139546e+03,3.995504e+02
3.140510e+03,3.981442e+02
3.141474e+03,3.993957e+02
3.142438e+03,4.057765e+02
3.143403e+03,4.142183e+02
3.144367e+03,3.923753e+02
3.145331e+03,3.650518e+02
3.146295e+03,3.779252e+02
3.147260e+03,3.966414e+02
3.148224e+03,4.117617e+02
3.149188e+03,4.125547e+02
3.150152e+03,4.034110e+02
3.151116e+03,3.887021e+02
3.152081e+03,3.858244e+02
3.153045e+03,4.013183e+02
3.154009e+03,4.089201e+02
3.154973e+03,4.106612e+02
3.155938e+03,4.151582e+02
3.156902e+03,4.122573e+02
3.157866e+03,3.998729e+02
3.158830e+03,3.855290e+02
3.159795e+03,3.777494e+02
3.160759e+03,4.021373e+02
3.161723e+03,4.201790e+02
3.162687e+03,4.072067e+02
3.163652e+03,3.911708e+02
3.164616e+03,3.804651e+02
3.165580e+03,3.884350e+02
3.166544e+03,4.000463e+02
3.167509e+03,4.083542e+02
3.168473e+03,4.054846e+02
3.169437e+03,3.974335e+02
3.170401e+03,4.059337e+02
3.171365e+03,4.117246e+02
3.172330e+03,4.065055e+02
3.173294e+03,4.120018e+02
3.174258e+03,4.192753e+02
3.175222e+03,4.049370e+02
3.176187e+03,3.958193e+02
3.177151e+03,4.119336e+02
3.178115e+03,4.117430e+02
3.179079e+03,3.978057e+02
3.180043e+03,3.828712e+02
3.181008e+03,3.830376e+02
3.181972e+03,4.015551e+02
3.182936e+03,3.946183e+02
3.183900e+03,3.724005e+02
3.184865e+03,3.763327e+02
3.185829e+03,3.873698e+02
3.186793e+03,4.011639e+02
3.187757e+03,4.108579e+02
3.188722e+03,4.121522e+02
3.189686e+03,3.942131e+02
3.190650e+03,3.884452e+02
3.191614e+03,4.043445e+02
3.192579e+03,4.110938e+02
3.193543e+03,4.088568e+02
3.194507e+03,4.128943e+02
3.195471e+03,4.027458e+02
3.196436e+03,3.669100e+02
3.197400e+03,3.572968e+02
3.198364e+03,3.727402e+02
3.199328e+03,4.087372e+02
3.200292e+03,4.270090e+02
3.201257e+03,0.000000e+00
3.202221e+03,0.000000e+00
3.203185e+03,0.000000e+00
3.204149e+03,0.000000e+00
3.205114e+03,0.000000e+00
3.206078e+03,0.000000e+00
3.207042e+03,0.000000e+00
3.208006e+03,0.000000e+00
3.208970e+03,0.000000e+00
3.209935e+03,0.000000e+00
3.210899e+03,0.000000e+00
3.211863e+03,0.000000e+00
3.212827e+03,0.000000e+00
3.213792e+03,0.000000e+00
3.214756e+03,0.000000e+00
3.215720e+03,0.000000e+00
3.216684e+03,0.000000e+00
3.217649e+03,0.000000e+00
3.218613e+03,0.000000e+00
3.219577e+03,0.000000e+00
3.220541e+03,0.000000e+00
3.221506e+03,0.000000e+00
3.222470e+03,0.000000e+00
3.223434e+03,0.000000e+00
3.224398e+03,0.000000e+00
3.225363e+03,0.000000e+00
3.226327e+03,0.000000e+00
3.227291e+03,0.000000e+00
3.228255e+03,0.000000e+00
3.229219e+03,0.000000e+00
3.230184e+03,0.000000e+00
3.231148e+03,0.000000e+00
3.232112e+03,0.000000e+00
3.233076e+03,0.000000e+00
3.234041e+03,0.000000e+00
3.235005e+03,0.000000e+00
3.235969e+03,0.000000e+00
3.236933e+03,0.000000e+00
3.237897e+03,0.000000e+00
3.238862e+03,0.000000e+00
3.239826e+03,0.000000e+00
3.240790e+03,0.000000e+00
3.241754e+03,0.000000e+00
3.242719e+03,0.000000e+00
3.243683e+03,0.000000e+00
3.244647e+03,0.000000e+00
3.245611e+03,0.000000e+00
3.246576e+03,0.000000e+00
3.247540e+03,0.000000e+00
3.248504e+03,0.000000e+00
3.249468e+03,0.000000e+00
3.250433e+03,0.000000e+00
3.251397e+03,0.000000e+00
3.252361e+03,0.000000e+00
3.253325e+03,0.000000e+00
3.254290e+03,0.000000e+00
3.255254e+03,0.000000e+00
3.256218e+03,0.000000e+00
3.257182e+03,0.000000e+00
3.258146e+03,0.000000e+00
3.259111e+03,0.000000e+00
3.260075e+03,0.000000e+00
3.261039e+03,0.000000e+00
3.262003e+03,0.000000e+00
3.262968e+03,0.000000e+00
3.263932e+03,0.000000e+00
3.264896e+03,0.000000e+00
3.265860e+03,0.000000e+00
3.266824e+03,0.000000e+00
3.267789e+03,0.000000e+00
3.268753e+03,0.000000e+00
3.269717e+03,0.000000e+00
3.270681e+03,0.000000e+00
3.271646e+03,0.000000e+00
3.272610e+03,0.000000e+00
3.273574e+03,0.000000e+00
3.274538e+03,0.000000e+00
3.275503e+03,0.000000e+00
3.276467e+03,0.000000e+00
3.277431e+03,0.000000e+00
3.278395e+03,0.000000e+00
3.279360e+03,0.000000e+00
3.280324e+03,0.000000e+00
3.281288e+03,0.000000e+00
3.282252e+03,0.000000e+00
3.283217e+03,0.000000e+00
3.284181e+03,0.000000e+00
3.285145e+03,0.000000e+00
3.286109e+03,0.000000e+00
3.287073e+03,0.000000e+00
3.288038e+03,0.000000e+00
3.289002e+03,0.000000e+00
3.289966e+03,0.000000e+00
3.290930e+03,0.000000e+00
3.291895e+03,0.000000e+00
3.292859e+03,0.000000e+00
3.293823e+03,0.000000e+00
3.294787e+03,0.000000e+00
3.295751e+03,0.000000e+00
3.296716e+03,0.000000e+00
3.297680e+03,0.000000e+00
3.298644e+03,0.000000e+00
3.299608e+03,0.000000e+00
3.300573e+03,0.000000e+00
3.301537e+03,0.000000e+00
3.302501e+03,0.000000e+00
3.303465e+03,0.000000e+00
3.304430e+03,0.000000e+00
3.305394e+03,0.000000e+00
3.306358e+03,0.000000e+00
3.307322e+03,0.000000e+00
3.308287e+03,0.000000e+00
3.309251e+03,0.000000e+00
3.310215e+03,0.000000e+00
3.311179e+03,0.000000e+00
3.312144e+03,0.000000e+00
3.313108e+03,0.000000e+00
3.314072e+03,0.000000e+00
3.315036e+03,0.000000e+00
3.316000e+03,0.000000e+00
3.316965e+03,0.000000e+00
3.317929e+03,0.000000e+00
3.318893e+03,0.000000e+00
3.319857e+03,0.000000e+00
3.320822e+03,0.000000e+00
3.321786e+03,0.000000e+00
3.322750e+03,0.000000e+00
3.323714e+03,0.000000e+00
3.324678e+03,0.000000e+00
3.325643e+03,0.000000e+00
3.326607e+03,0.000000e+00
3.327571e+03,0.000000e+00
3.328535e+03,0.000000e+00
3.329500e+03,0.000000e+00
3.330464e+03,0.000000e+00
3.331428e+03,0.000000e+00
3.332392e+03,0.000000e+00
3.333357e+03,0.000000e+00
3.334321e+03,0.000000e+00
3.335285e+03,0.000000e+00
3.336249e+03,0.000000e+00
3.337214e+03,0.000000e+00
3.338178e+03,0.000000e+00
3.339142e+03,0.000000e+00
3.340106e+03,0.000000e+00
3.341071e+03,0.000000e+00
3.342035e+03,0.000000e+00
3.342999e+03,0.000000e+00
3.343963e+03,0.000000e+00
3.344927e+03,0.000000e+00
3.345892e+03,0.000000e+00
3.346856e+03,0.000000e+00
3.347820e+03,0.000000e+00
3.348784e+03,0.000000e+00
3.349749e+03,0.000000e+00
3.350713e+03,0.000000e+00
3.351677e+03,0.000000e+00
3.352641e+03,0.000000e+00
3.353605e+03,0.000000e+00
3.354570e+03,0.000000e+00
3.355534e+03,0.000000e+00
3.356498e+03,0.000000e+00
3.357462e+03,0.000000e+00
3.358427e+03,0.000000e+00
3.359391e+03,0.000000e+00
3.360355e+03,0.000000e+00
3.361319e+03,0.000000e+00
3.362284e+03,0.000000e+00
3.363248e+03,0.000000e+00
3.364212e+03,0.000000e+00
3.365176e+03,0.000000e+00
3.366141e+03,0.000000e+00
3.367105e+03,0.000000e+00
3.368069e+03,0.000000e+00
3.369033e+03,0.000000e+00
3.369998e+03,0.000000e+00
3.370962e+03,0.000000e+00
3.371926e+03,0.000000e+00
3.372890e+03,0.000000e+00
3.373854e+03,0.000000e+00
3.374819e+03,0.000000e+00
3.375783e+03,0.000000e+00
3.376747e+03,0.000000e+00
3.377711e+03,0.000000e+00
3.378676e+03,0.000000e+00
3.379640e+03,0.000000e+00
3.380604e+03,0.000000e+00
3.381568e+03,0.000000e+00
3.382532e+03,0.000000e+00
3.383497e+03,0.000000e+00
3.384461e+03,0.000000e+00
3.385425e+03,0.000000e+00
3.386389e+03,0.000000e+00
3.387354e+03,0.000000e+00
3.388318e+03,0.000000e+00
3.389282e+03,0.000000e+00
3.390246e+03,0.000000e+00
3.391211e+03,0.000000e+00
3.392175e+03,0.000000e+00
3.393139e+03,0.000000e+00
3.394103e+03,0.000000e+00
3.395068e+03,0.000000e+00
3.396032e+03,0.000000e+00
3.396996e+03,0.000000e+00
3.397960e+03,0.000000e+00
3.398925e+03,0.000000e+00
3.399889e+03,0.000000e+00
3.400853e+03,0.000000e+00
3.401817e+03,0.000000e+00
3.402781e+03,0.000000e+00
3.403746e+03,0.000000e+00
3.404710e+03,0.000000e+00
3.405674e+03,0.000000e+00
3.406638e+03,0.000000e+00
3.407603e+03,0.000000e+00
3.408567e+03,0.000000e+00
3.409531e+03,0.000000e+00
3.410495e+03,0.000000e+00
3.411459e+03,0.000000e+00
3.412424e+03,0.000000e+00
3.413388e+03,0.000000e+00
3.414352e+03,0.000000e+00
3.415316e+03,0.000000e+00
3.416281e+03,0.000000e+00
3.417245e+03,0.000000e+00
3.418209e+03,0.000000e+00
3.419173e+03,0.000000e+00
3.420138e+03,0.000000e+00
3.421102e+03,0.000000e+00
3.422066e+03,0.000000e+00
3.423030e+03,0.000000e+00
3.423995e+03,0.000000e+00
3.424959e+03,0.000000e+00
3.425923e+03,0.000000e+00
3.426887e+03,0.000000e+00
3.427852e+03,0.000000e+00
3.428816e+03,0.000000e+00
3.429780e+03,0.000000e+00
3.430744e+03,0.000000e+00
3.431708e+03,0.000000e+00
3.432673e+03,0.000000e+00
3.433637e+03,0.000000e+00
3.434601e+03,0.000000e+00
3.435565e+03,0.000000e+00
3.436530e+03,0.000000e+00
3.437494e+03,0.000000e+00
3.438458e+03,0.000000e+00
3.439422e+03,0.000000e+00
3.440386e+03,0.000000e+00
3.441351e+03,0.000000e+00
3.442315e+03,0.000000e+00
3.443279e+03,0.000000e+00
3.444243e+03,0.000000e+00
3.445208e+03,0.000000e+00
3.446172e+03,0.000000e+00
3.447136e+03,0.000000e+00
3.448100e+03,0.000000e+00
3.449065e+03,0.000000e+00
3.450029e+03,0.000000e+00
3.450993e+03,0.000000e+00
3.451957e+03,0.000000e+00
3.452922e+03,0.000000e+00
3.453886e+03,0.000000e+00
3.454850e+03,0.000000e+00
3.455814e+03,0.000000e+00
3.456779e+03,0.000000e+00
3.457743e+03,0.000000e+00
3.458707e+03,0.000000e+00
3.459671e+03,0.000000e+00
3.460635e+03,0.000000e+00
3.461600e+03,0.000000e+00
3.462564e+03,0.000000e+00
3.463528e+03,0.000000e+00
3.464492e+03,0.000000e+00
3.465457e+03,0.000000e+00
3.466421e+03,0.000000e+00
3.467385e+03,0.000000e+00
3.468349e+03,0.000000e+00
3.469313e+03,0.000000e+00
3.470278e+03,0.000000e+00
3.471242e+03,0.000000e+00
3.472206e+03,0.000000e+00
3.473170e+03,0.000000e+00
3.474135e+03,0.000000e+00
3.475099e+03,0.000000e+00
3.476063e+03,0.000000e+00
3.477027e+03,0.000000e+00
3.477992e+03,0.000000e+00
3.478956e+03,0.000000e+00
3.479920e+03,0.000000e+00
3.480884e+03,0.000000e+00
3.481849e+03,0.000000e+00
3.482813e+03,0.000000e+00
3.483777e+03,0.000000e+00
3.484741e+03,0.000000e+00
3.485706e+03,0.000000e+00
3.486670e+03,0.000000e+00
3.487634e+03,0.000000e+00
3.488598e+03,0.000000e+00
3.489563e+03,0.000000e+00
3.490527e+03,0.000000e+00
3.491491e+03,0.000000e+00
3.492455e+03,0.000000e+00
3.493419e+03,0.000000e+00
3.494384e+03,0.000000e+00
3.495348e+03,0.000000e+00
3.496312e+03,0.000000e+00
3.497276e+03,0.000000e+00
3.498240e+03,0.000000e+00
3.499205e+03,0.000000e+00
3.500169e+03,0.000000e+00
