9.931763e+01,0.000000e+00
1.002819e+02,0.000000e+00
1.012461e+02,0.000000e+00
1.022103e+02,0.000000e+00
1.031746e+02,0.000000e+00
1.041388e+02,0.000000e+00
1.051030e+02,0.000000e+00
1.060673e+02,0.000000e+00
1.070315e+02,0.000000e+00
1.079957e+02,0.000000e+00
1.089600e+02,0.000000e+00
1.099242e+02,0.000000e+00
1.108884e+02,0.000000e+00
1.118527e+02,0.000000e+00
1.128169e+02,0.000000e+00
1.137811e+02,0.000000e+00
1.147454e+02,0.000000e+00
1.157096e+02,0.000000e+00
1.166738e+02,0.000000e+00
1.176381e+02,0.000000e+00
1.186023e+02,0.000000e+00
1.195665e+02,0.000000e+00
1.205308e+02,0.000000e+00
1.214950e+02,0.000000e+00
1.224592e+02,0.000000e+00
1.234235e+02,0.000000e+00
1.243877e+02,0.000000e+00
1.253519e+02,0.000000e+00
1.263162e+02,0.000000e+00
1.272804e+02,0.000000e+00
1.282446e+02,0.000000e+00
1.292089e+02,0.000000e+00
1.301731e+02,0.000000e+00
1.311373e+02,0.000000e+00
1.321016e+02,0.000000e+00
1.330658e+02,0.000000e+00
1.340300e+02,0.000000e+00
1.349943e+02,0.000000e+00
1.359585e+02,0.000000e+00
1.369227e+02,0.000000e+00
1.378870e+02,0.000000e+00
1.388512e+02,0.000000e+00
1.398154e+02,0.000000e+00
1.407797e+02,0.000000e+00
1.417439e+02,0.000000e+00
1.427081e+02,0.000000e+00
1.436724e+02,0.000000e+00
1.446366e+02,0.000000e+00
1.456008e+02,0.000000e+00
1.465651e+02,0.000000e+00
1.475293e+02,0.000000e+00
1.484935e+02,0.000000e+00
1.494578e+02,0.000000e+00
1.504220e+02,0.000000e+00
1.513862e+02,0.000000e+00
1.523505e+02,0.000000e+00
1.533147e+02,0.000000e+00
1.542789e+02,0.000000e+00
1.552432e+02,0.000000e+00
1.562074e+02,0.000000e+00
1.571716e+02,0.000000e+00
1.581359e+02,0.000000e+00
1.591001e+02,0.000000e+00
1.600643e+02,0.000000e+00
1.610286e+02,0.000000e+00
1.619928e+02,0.000000e+00
1.629570e+02,0.000000e+00
1.639213e+02,0.000000e+00
1.648855e+02,0.000000e+00
1.658497e+02,0.000000e+00
1.668140e+02,0.000000e+00
1.677782e+02,0.000000e+00
1.687424e+02,0.000000e+00
1.697067e+02,0.000000e+00
1.706709e+02,0.000000e+00
1.716351e+02,0.000000e+00
1.725994e+02,0.000000e+00
1.735636e+02,0.000000e+00
1.745278e+02,0.000000e+00
1.754921e+02,0.000000e+00
1.764563e+02,0.000000e+00
1.774205e+02,0.000000e+00
1.783848e+02,0.000000e+00
1.793490e+02,0.000000e+00
1.803132e+02,0.000000e+00
1.812775e+02,0.000000e+00
1.822417e+02,0.000000e+00
1.832059e+02,0.000000e+00
1.841702e+02,0.000000e+00
1.851344e+02,0.000000e+00
1.860986e+02,0.000000e+00
1.870629e+02,0.000000e+00
1.880271e+02,0.000000e+00
1.889913e+02,0.000000e+00
1.899556e+02,0.000000e+00
1.909198e+02,0.000000e+00
1.918840e+02,0.000000e+00
1.928483e+02,0.000000e+00
1.938125e+02,0.000000e+00
1.947767e+02,0.000000e+00
1.957410e+02,0.000000e+00
1.967052e+02,0.000000e+00
1.976694e+02,0.000000e+00
1.986337e+02,0.000000e+00
1.995979e+02,6.832904e+03
2.005621e+02,6.830909e+03
2.015264e+02,6.832327e+03
2.024906e+02,6.840236e+03
2.034548e+02,6.849001e+03
2.044191e+02,6.855281e+03
2.053833e+02,6.858491e+03
2.063475e+02,6.860902e+03
2.073118e+02,6.866843e+03
2.082760e+02,6.879642e+03
2.092402e+02,6.885411e+03
2.102045e+02,6.880518e+03
2.111687e+02,6.874678e+03
2.121329e+02,6.874353e+03
2.130972e+02,6.881702e+03
2.140614e+02,6.892290e+03
2.150256e+02,6.896970e+03
2.159899e+02,6.890411e+03
2.169541e+02,6.887474e+03
2.179183e+02,6.897798e+03
2.188826e+02,6.917640e+03
2.198468e+02,6.935884e+03
2.208110e+02,6.943607e+03
2.217753e+02,6.940173e+03
2.227395e+02,6.933507e+03
2.237037e+02,6.926899e+03
2.246680e+02,6.920931e+03
2.256322e+02,6.914453e+03
2.265964e+02,6.908821e+03
2.275607e+02,6.905722e+03
2.285249e+02,6.905931e+03
2.294892e+02,6.909406e+03
2.304534e+02,6.917325e+03
2.314176e+02,6.929480e+03
2.323819e+02,6.943648e+03
2.333461e+02,6.956123e+03
2.343103e+02,6.967530e+03
2.352746e+02,6.978061e+03
2.362388e+02,6.986420e+03
2.372030e+02,6.990735e+03
2.381673e+02,6.989116e+03
2.391315e+02,6.982580e+03
2.400957e+02,6.969437e+03
2.410600e+02,6.960284e+03
2.420242e+02,6.962614e+03
2.429884e+02,6.975899e+03
2.439527e+02,6.993503e+03
2.449169e+02,7.009495e+03
2.458811e+02,7.022339e+03
2.468454e+02,7.033326e+03
2.478096e+02,7.044880e+03
2.487738e+02,7.053476e+03
2.497381e+02,7.054221e+03
2.507023e+02,7.046711e+03
2.516665e+02,7.037383e+03
2.526308e+02,7.035952e+03
2.535950e+02,7.046425e+03
2.545592e+02,7.054563e+03
2.555235e+02,7.060032e+03
2.564877e+02,7.064947e+03
2.574519e+02,7.073538e+03
2.584161e+02,7.090669e+03
2.593804e+02,7.115617e+03
2.603446e+02,7.129154e+03
2.613088e+02,7.109708e+03
2.622731e+02,7.092640e+03
2.632373e+02,7.088760e+03
2.642015e+02,7.096059e+03
2.651658e+02,7.106272e+03
2.661300e+02,7.115313e+03
2.670942e+02,7.126243e+03
2.680585e+02,7.132224e+03
2.690227e+02,7.125162e+03
2.699869e+02,7.115291e+03
2.709512e+02,7.109754e+03
2.719154e+02,7.114787e+03
2.728796e+02,7.124500e+03
2.738439e+02,7.130234e+03
2.748081e+02,7.132747e+03
2.757723e+02,7.136871e+03
2.767366e+02,7.138768e+03
2.777008e+02,7.136354e+03
2.786650e+02,7.134317e+03
2.796293e+02,7.135722e+03
2.805935e+02,7.141251e+03
2.815577e+02,7.151525e+03
2.825220e+02,7.167537e+03
2.834862e+02,7.183501e+03
2.844504e+02,7.189831e+03
2.854147e+02,7.185577e+03
2.863789e+02,7.178938e+03
2.873431e+02,7.171742e+03
2.883074e+02,7.166150e+03
2.892716e+02,7.164323e+03
2.902358e+02,7.166356e+03
2.912001e+02,7.171350e+03
2.921643e+02,7.175413e+03
2.931285e+02,7.179481e+03
2.940928e+02,7.184910e+03
2.950570e+02,7.192346e+03
2.960212e+02,7.200079e+03
2.969855e+02,7.205288e+03
2.979497e+02,7.205673e+03
2.989139e+02,7.200213e+03
2.998782e+02,7.196638e+03
3.008424e+02,7.198847e+03
3.018066e+02,7.205242e+03
3.027709e+02,7.213099e+03
3.037351e+02,7.220923e+03
3.046993e+02,7.226518e+03
3.056636e+02,7.227193e+03
3.066278e+02,7.222936e+03
3.075920e+02,7.217191e+03
3.085563e+02,7.207196e+03
3.095205e+02,7.197666e+03
3.104847e+02,7.197060e+03
3.114490e+02,7.212341e+03
3.124132e+02,7.235717e+03
3.133774e+02,7.253844e+03
3.143417e+02,7.264755e+03
3.153059e+02,7.268202e+03
3.162701e+02,7.265065e+03
3.172344e+02,7.254729e+03
3.181986e+02,7.247219e+03
3.191628e+02,7.247321e+03
3.201271e+02,7.252842e+03
3.210913e+02,7.259154e+03
3.220555e+02,7.263744e+03
3.230198e+02,7.266393e+03
3.239840e+02,7.269077e+03
3.249482e+02,7.268996e+03
3.259125e+02,7.270709e+03
3.268767e+02,7.277045e+03
3.278409e+02,7.287115e+03
3.288052e+02,7.297850e+03
3.297694e+02,7.306800e+03
3.307336e+02,7.313898e+03
3.316979e+02,7.318507e+03
3.326621e+02,7.321052e+03
3.336263e+02,7.319054e+03
3.345906e+02,7.309229e+03
3.355548e+02,7.292521e+03
3.365190e+02,7.279896e+03
3.374833e+02,7.285070e+03
3.384475e+02,7.309638e+03
3.394117e+02,7.331868e+03
3.403760e+02,7.340451e+03
3.413402e+02,7.339936e+03
3.423044e+02,7.339664e+03
3.432687e+02,7.338377e+03
3.442329e+02,7.338708e+03
3.451971e+02,7.342899e+03
3.461614e+02,7.349104e+03
3.471256e+02,7.352506e+03
3.480898e+02,7.351809e+03
3.490541e+02,7.348001e+03
3.500183e+02,7.344615e+03
3.509825e+02,7.341722e+03
3.519468e+02,7.342659e+03
3.529110e+02,7.349911e+03
3.538752e+02,7.362533e+03
3.548395e+02,7.375697e+03
3.558037e+02,7.382611e+03
3.567680e+02,7.377678e+03
3.577322e+02,7.376156e+03
3.586964e+02,7.385436e+03
3.596607e+02,7.400044e+03
3.606249e+02,7.411721e+03
3.615891e+02,7.413126e+03
3.625534e+02,7.405163e+03
3.635176e+02,7.394737e+03
3.644818e+02,7.383134e+03
3.654461e+02,7.373772e+03
3.664103e+02,7.371786e+03
3.673745e+02,7.379414e+03
3.683388e+02,7.392565e+03
3.693030e+02,7.410027e+03
3.702672e+02,7.427077e+03
3.712315e+02,7.438115e+03
3.721957e+02,7.441094e+03
3.731599e+02,7.438028e+03
3.741242e+02,7.434388e+03
3.750884e+02,7.431221e+03
3.760526e+02,7.434389e+03
3.770169e+02,7.449225e+03
3.779811e+02,7.467513e+03
3.789453e+02,7.479133e+03
3.799096e+02,7.478466e+03
3.808738e+02,7.467338e+03
3.818380e+02,7.454077e+03
3.828023e+02,7.436843e+03
3.837665e+02,7.427246e+03
3.847307e+02,7.431053e+03
3.856950e+02,7.443640e+03
3.866592e+02,7.453963e+03
3.876234e+02,7.451287e+03
3.885877e+02,7.440705e+03
3.895519e+02,7.438549e+03
3.905161e+02,7.447611e+03
3.914804e+02,7.459545e+03
3.924446e+02,7.466693e+03
3.934088e+02,7.470687e+03
3.943731e+02,7.473005e+03
3.953373e+02,7.472795e+03
3.963015e+02,7.470781e+03
3.972658e+02,7.467386e+03
3.982300e+02,7.463325e+03
3.991942e+02,7.462268e+03
4.001585e+02,7.468381e+03
4.011227e+02,7.485542e+03
4.020869e+02,7.500273e+03
4.030512e+02,7.507674e+03
4.040154e+02,7.508973e+03
4.049796e+02,7.508343e+03
4.059439e+02,7.506499e+03
4.069081e+02,7.504481e+03
4.078723e+02,7.507808e+03
4.088366e+02,7.518097e+03
4.098008e+02,7.525209e+03
4.107650e+02,7.525803e+03
4.117293e+02,7.521313e+03
4.126935e+02,7.516716e+03
4.136577e+02,7.513341e+03
4.146220e+02,7.510700e+03
4.155862e+02,7.507618e+03
4.165504e+02,7.503830e+03
4.175147e+02,7.501761e+03
4.184789e+02,7.504924e+03
4.194431e+02,7.524140e+03
4.204074e+02,7.534700e+03
4.213716e+02,7.529646e+03
4.223358e+02,7.518024e+03
4.233001e+02,7.509052e+03
4.242643e+02,7.507266e+03
4.252285e+02,7.511550e+03
4.261928e+02,7.519971e+03
4.271570e+02,7.537064e+03
4.281212e+02,7.549710e+03
4.290855e+02,7.545545e+03
4.300497e+02,7.530938e+03
4.310139e+02,7.521462e+03
4.319782e+02,7.528291e+03
4.329424e+02,7.541425e+03
4.339066e+02,7.547522e+03
4.348709e+02,7.544553e+03
4.358351e+02,7.539058e+03
4.367993e+02,7.537841e+03
4.377636e+02,7.544091e+03
4.387278e+02,7.547778e+03
4.396920e+02,7.548618e+03
4.406563e+02,7.549147e+03
4.416205e+02,7.550057e+03
4.425847e+02,7.551145e+03
4.435490e+02,7.552345e+03
4.445132e+02,7.554765e+03
4.454774e+02,7.559932e+03
4.464417e+02,7.564501e+03
4.474059e+02,7.563278e+03
4.483701e+02,7.560244e+03
4.493344e+02,7.562097e+03
4.502986e+02,7.577963e+03
4.512628e+02,7.594169e+03
4.522271e+02,7.601615e+03
4.531913e+02,7.600960e+03
4.541555e+02,7.594187e+03
4.551198e+02,7.579881e+03
4.560840e+02,7.558389e+03
4.570482e+02,7.547994e+03
4.580125e+02,7.564661e+03
4.589767e+02,7.583293e+03
4.599409e+02,7.591398e+03
4.609052e+02,7.588313e+03
4.618694e+02,7.582561e+03
4.628336e+02,7.582867e+03
4.637979e+02,7.588892e+03
4.647621e+02,7.592433e+03
4.657263e+02,7.594728e+03
4.666906e+02,7.597385e+03
4.676548e+02,7.597141e+03
4.686190e+02,7.589658e+03
4.695833e+02,7.588646e+03
4.705475e+02,7.603812e+03
4.715117e+02,7.625679e+03
4.724760e+02,7.641047e+03
4.734402e+02,7.645813e+03
4.744044e+02,7.644459e+03
4.753687e+02,7.646477e+03
4.763329e+02,7.654644e+03
4.772971e+02,7.662421e+03
4.782614e+02,7.660386e+03
4.792256e+02,7.660312e+03
4.801898e+02,7.677314e+03
4.811541e+02,7.727392e+03
4.821183e+02,7.787915e+03
4.830826e+02,7.826449e+03
4.840468e+02,7.841335e+03
4.850110e+02,7.849776e+03
4.859753e+02,7.864984e+03
4.869395e+02,7.887194e+03
4.879037e+02,7.891837e+03
4.888680e+02,7.869439e+03
4.898322e+02,7.839997e+03
4.907964e+02,7.812094e+03
4.917607e+02,7.787563e+03
4.927249e+02,7.766180e+03
4.936891e+02,7.746665e+03
4.946534e+02,7.728562e+03
4.956176e+02,7.716712e+03
4.965818e+02,7.717455e+03
4.975461e+02,7.719558e+03
4.985103e+02,7.711271e+03
4.994745e+02,7.687603e+03
5.004388e+02,7.666118e+03
5.014030e+02,7.660370e+03
5.023672e+02,7.663259e+03
5.033315e+02,7.660780e+03
5.042957e+02,7.647767e+03
5.052599e+02,7.628377e+03
5.062242e+02,7.613523e+03
5.071884e+02,7.604640e+03
5.081526e+02,7.601913e+03
5.091169e+02,7.611895e+03
5.100811e+02,7.627246e+03
5.110453e+02,7.637619e+03
5.120095e+02,7.637399e+03
5.129738e+02,7.634542e+03
5.139380e+02,7.640563e+03
5.149022e+02,7.655521e+03
5.158665e+02,7.667282e+03
5.168307e+02,7.665319e+03
5.177949e+02,7.646385e+03
5.187592e+02,7.631737e+03
5.197234e+02,7.636325e+03
5.206876e+02,7.642118e+03
5.216519e+02,7.640261e+03
5.226161e+02,7.633212e+03
5.235803e+02,7.628214e+03
5.245446e+02,7.632968e+03
5.255088e+02,7.645469e+03
5.264730e+02,7.651817e+03
5.274373e+02,7.650305e+03
5.284015e+02,7.644919e+03
5.293657e+02,7.636093e+03
5.303300e+02,7.623501e+03
5.312942e+02,7.612831e+03
5.322584e+02,7.610389e+03
5.332227e+02,7.612896e+03
5.341869e+02,7.614899e+03
5.351511e+02,7.614025e+03
5.361154e+02,7.612112e+03
5.370796e+02,7.613891e+03
5.380438e+02,7.622128e+03
5.390081e+02,7.627335e+03
5.399723e+02,7.626576e+03
5.409365e+02,7.624653e+03
5.419008e+02,7.623728e+03
5.428650e+02,7.621186e+03
5.438292e+02,7.619548e+03
5.447935e+02,7.620698e+03
5.457577e+02,7.624161e+03
5.467219e+02,7.630476e+03
5.476862e+02,7.641070e+03
5.486504e+02,7.651897e+03
5.496146e+02,7.650381e+03
5.505789e+02,7.625115e+03
5.515431e+02,7.604319e+03
5.525073e+02,7.597937e+03
5.534716e+02,7.603391e+03
5.544358e+02,7.612993e+03
5.554000e+02,7.621911e+03
5.563643e+02,7.630700e+03
5.573285e+02,7.640625e+03
5.582927e+02,7.650603e+03
5.592570e+02,7.659401e+03
5.602212e+02,7.668081e+03
5.611854e+02,7.675935e+03
5.621497e+02,7.677274e+03
5.631139e+02,7.661670e+03
5.640781e+02,7.645183e+03
5.650424e+02,7.636391e+03
5.660066e+02,7.634050e+03
5.669708e+02,7.630599e+03
5.679351e+02,7.618476e+03
5.688993e+02,7.604930e+03
5.698635e+02,7.604862e+03
5.708278e+02,7.620914e+03
5.717920e+02,7.640215e+03
5.727562e+02,7.648924e+03
5.737205e+02,7.640509e+03
5.746847e+02,7.636904e+03
5.756489e+02,7.641514e+03
5.766132e+02,7.645713e+03
5.775774e+02,7.644318e+03
5.785416e+02,7.637312e+03
5.795059e+02,7.631560e+03
5.804701e+02,7.633666e+03
5.814343e+02,7.641436e+03
5.823986e+02,7.648724e+03
5.833628e+02,7.655459e+03
5.843270e+02,7.660439e+03
5.852913e+02,7.661283e+03
5.862555e+02,7.653778e+03
5.872197e+02,7.648429e+03
5.881840e+02,7.639266e+03
5.891482e+02,7.633938e+03
5.901124e+02,7.642363e+03
5.910767e+02,7.669566e+03
5.920409e+02,7.696515e+03
5.930051e+02,7.699329e+03
5.939694e+02,7.681864e+03
5.949336e+02,7.670482e+03
5.958978e+02,7.675484e+03
5.968621e+02,7.688241e+03
5.978263e+02,7.689325e+03
5.987905e+02,7.667692e+03
5.997548e+02,7.649306e+03
6.007190e+02,7.631649e+03
6.016832e+02,7.621346e+03
6.026475e+02,7.626411e+03
6.036117e+02,7.655063e+03
6.045759e+02,7.687148e+03
6.055402e+02,7.697433e+03
6.065044e+02,7.686848e+03
6.074686e+02,7.672042e+03
6.084329e+02,7.660809e+03
6.093971e+02,7.653604e+03
6.103613e+02,7.648934e+03
6.113256e+02,7.649810e+03
6.122899e+02,7.650925e+03
6.132541e+02,7.650285e+03
6.142183e+02,7.649124e+03
6.151826e+02,7.650241e+03
6.161468e+02,7.660884e+03
6.171110e+02,7.673855e+03
6.180753e+02,7.678369e+03
6.190395e+02,7.674254e+03
6.200037e+02,7.665635e+03
6.209680e+02,7.652903e+03
6.219322e+02,7.637732e+03
6.228964e+02,7.633356e+03
6.238607e+02,7.648342e+03
6.248249e+02,7.664199e+03
6.257891e+02,7.675599e+03
6.267534e+02,7.680311e+03
6.277176e+02,7.678017e+03
6.286818e+02,7.667833e+03
6.296461e+02,7.655242e+03
6.306103e+02,7.644231e+03
6.315745e+02,7.635597e+03
6.325388e+02,7.630500e+03
6.335030e+02,7.628924e+03
6.344672e+02,7.629792e+03
6.354315e+02,7.630327e+03
6.363957e+02,7.626561e+03
6.373599e+02,7.623317e+03
6.383242e+02,7.626198e+03
6.392884e+02,7.635329e+03
6.402526e+02,7.642759e+03
6.412169e+02,7.644375e+03
6.421811e+02,7.643689e+03
6.431453e+02,7.644872e+03
6.441096e+02,7.647556e+03
6.450738e+02,7.648002e+03
6.460380e+02,7.642446e+03
6.470023e+02,7.632300e+03
6.479665e+02,7.627518e+03
6.489307e+02,7.627255e+03
6.498950e+02,7.629273e+03
6.508592e+02,7.631040e+03
6.518234e+02,7.631296e+03
6.527877e+02,7.632801e+03
6.537519e+02,7.640389e+03
6.547161e+02,7.647471e+03
6.556804e+02,7.649301e+03
6.566446e+02,7.645828e+03
6.576088e+02,7.639468e+03
6.585731e+02,7.631387e+03
6.595373e+02,7.621803e+03
6.605015e+02,7.611140e+03
6.614658e+02,7.598146e+03
6.624300e+02,7.588108e+03
6.633942e+02,7.586687e+03
6.643585e+02,7.597597e+03
6.653227e+02,7.606766e+03
6.662869e+02,7.612694e+03
6.672512e+02,7.615834e+03
6.682154e+02,7.614828e+03
6.691796e+02,7.608900e+03
6.701439e+02,7.604776e+03
6.711081e+02,7.613192e+03
6.720723e+02,7.626333e+03
6.730366e+02,7.626487e+03
6.740008e+02,7.611087e+03
6.749650e+02,7.591819e+03
6.759293e+02,7.583396e+03
6.768935e+02,7.592753e+03
6.778577e+02,7.595856e+03
6.788220e+02,7.589233e+03
6.797862e+02,7.583120e+03
6.807504e+02,7.581313e+03
6.817147e+02,7.582433e+03
6.826789e+02,7.584032e+03
6.836431e+02,7.584477e+03
6.846074e+02,7.582276e+03
6.855716e+02,7.576960e+03
6.865358e+02,7.570009e+03
6.875001e+02,7.564673e+03
6.884643e+02,7.565260e+03
6.894285e+02,7.571997e+03
6.903928e+02,7.576582e+03
6.913570e+02,7.576615e+03
6.923212e+02,7.574435e+03
6.932855e+02,7.573446e+03
6.942497e+02,7.576299e+03
6.952139e+02,7.581864e+03
6.961782e+02,7.593914e+03
6.971424e+02,7.604319e+03
6.981066e+02,7.603273e+03
6.990709e+02,7.586214e+03
7.000351e+02,7.566826e+03
7.009993e+02,7.560356e+03
7.019636e+02,7.564359e+03
7.029278e+02,7.570492e+03
7.038920e+02,7.576924e+03
7.048563e+02,7.579163e+03
7.058205e+02,7.572089e+03
7.067847e+02,7.554319e+03
7.077490e+02,7.542894e+03
7.087132e+02,7.545688e+03
7.096774e+02,7.555580e+03
7.106417e+02,7.559764e+03
7.116059e+02,7.554470e+03
7.125701e+02,7.552370e+03
7.135344e+02,7.561448e+03
7.144986e+02,7.575255e+03
7.154628e+02,7.588054e+03
7.164271e+02,7.597621e+03
7.173913e+02,7.601828e+03
7.183555e+02,7.596813e+03
7.193198e+02,7.583902e+03
7.202840e+02,7.570227e+03
7.212482e+02,7.556716e+03
7.222125e+02,7.547703e+03
7.231767e+02,7.547491e+03
7.241409e+02,7.559109e+03
7.251052e+02,7.564833e+03
7.260694e+02,7.559020e+03
7.270336e+02,7.551038e+03
7.279979e+02,7.547871e+03
7.289621e+02,7.550025e+03
7.299263e+02,7.551667e+03
7.308906e+02,7.548896e+03
7.318548e+02,7.543706e+03
7.328190e+02,7.540619e+03
7.337833e+02,7.539621e+03
7.347475e+02,7.535309e+03
7.357117e+02,7.519492e+03
7.366760e+02,7.495406e+03
7.376402e+02,7.486451e+03
7.386044e+02,7.497890e+03
7.395687e+02,7.513701e+03
7.405329e+02,7.519068e+03
7.414971e+02,7.510467e+03
7.424614e+02,7.504163e+03
7.434256e+02,7.508104e+03
7.443898e+02,7.514812e+03
7.453541e+02,7.516142e+03
7.463183e+02,7.508946e+03
7.472825e+02,7.501556e+03
7.482468e+02,7.502377e+03
7.492110e+02,7.503454e+03
7.501752e+02,7.497782e+03
7.511395e+02,7.488626e+03
7.521037e+02,7.482013e+03
7.530679e+02,7.481167e+03
7.540322e+02,7.483154e+03
7.549964e+02,7.479386e+03
7.559606e+02,7.469498e+03
7.569249e+02,7.461303e+03
7.578891e+02,7.460474e+03
7.588533e+02,7.468297e+03
7.598176e+02,7.475107e+03
7.607818e+02,7.469671e+03
7.617460e+02,7.462312e+03
7.627103e+02,7.461630e+03
7.636745e+02,7.467956e+03
7.646387e+02,7.472476e+03
7.656030e+02,7.465396e+03
7.665672e+02,7.459390e+03
7.675314e+02,7.465905e+03
7.684957e+02,7.476702e+03
7.694599e+02,7.476428e+03
7.704241e+02,7.455515e+03
7.713884e+02,7.426531e+03
7.723526e+02,7.422570e+03
7.733168e+02,7.448458e+03
7.742811e+02,7.471838e+03
7.752453e+02,7.471208e+03
7.762095e+02,7.449995e+03
7.771738e+02,7.442503e+03
7.781380e+02,7.460601e+03
7.791022e+02,7.471879e+03
7.800665e+02,7.471631e+03
7.810307e+02,7.463572e+03
7.819949e+02,7.452924e+03
7.829592e+02,7.438601e+03
7.839234e+02,7.429266e+03
7.848876e+02,7.429400e+03
7.858519e+02,7.434822e+03
7.868161e+02,7.440397e+03
7.877803e+02,7.444464e+03
7.887446e+02,7.446022e+03
7.897088e+02,7.444570e+03
7.906730e+02,7.443104e+03
7.916373e+02,7.444830e+03
7.926015e+02,7.447291e+03
7.935657e+02,7.445803e+03
7.945300e+02,7.440253e+03
7.954942e+02,7.432996e+03
7.964584e+02,7.423747e+03
7.974227e+02,7.418320e+03
7.983869e+02,7.418870e+03
7.993511e+02,7.419127e+03
8.003154e+02,7.412768e+03
8.012796e+02,7.404018e+03
8.022438e+02,7.393549e+03
8.032081e+02,7.387006e+03
8.041723e+02,7.389789e+03
8.051365e+02,7.402227e+03
8.061008e+02,7.415583e+03
8.070650e+02,7.425458e+03
8.080292e+02,7.428673e+03
8.089935e+02,7.420235e+03
8.099577e+02,7.401885e+03
8.109219e+02,7.384803e+03
8.118862e+02,7.380901e+03
8.128504e+02,7.389703e+03
8.138146e+02,7.397504e+03
8.147789e+02,7.403042e+03
8.157431e+02,7.405031e+03
8.167073e+02,7.403992e+03
8.176716e+02,7.403471e+03
8.186358e+02,7.402688e+03
8.196000e+02,7.395747e+03
8.205643e+02,7.393101e+03
8.215285e+02,7.399875e+03
8.224927e+02,7.413638e+03
8.234570e+02,7.419221e+03
8.244212e+02,7.406471e+03
8.253854e+02,7.390545e+03
8.263497e+02,7.376361e+03
8.273139e+02,7.363516e+03
8.282781e+02,7.354354e+03
8.292424e+02,7.358550e+03
8.302066e+02,7.368241e+03
8.311708e+02,7.367177e+03
8.321351e+02,7.357635e+03
8.330993e+02,7.351181e+03
8.340635e+02,7.352219e+03
8.350278e+02,7.358854e+03
8.359920e+02,7.370855e+03
8.369562e+02,7.391650e+03
8.379205e+02,7.399863e+03
8.388847e+02,7.382939e+03
8.398489e+02,7.352795e+03
8.408132e+02,7.338975e+03
8.417774e+02,7.357900e+03
8.427416e+02,7.367240e+03
8.437059e+02,7.356411e+03
8.446701e+02,7.337759e+03
8.456343e+02,7.324422e+03
8.465986e+02,7.317370e+03
8.475628e+02,7.315341e+03
8.485270e+02,7.322773e+03
8.494913e+02,7.332225e+03
8.504555e+02,7.336668e+03
8.514197e+02,7.335208e+03
8.523840e+02,7.333319e+03
8.533482e+02,7.335838e+03
8.543124e+02,7.338540e+03
8.552767e+02,7.332766e+03
8.562409e+02,7.317185e+03
8.572051e+02,7.300851e+03
8.581694e+02,7.298366e+03
8.591336e+02,7.308742e+03
8.600978e+02,7.304143e+03
8.610621e+02,7.280728e+03
8.620263e+02,7.262210e+03
8.629905e+02,7.266219e+03
8.639548e+02,7.291862e+03
8.649190e+02,7.304642e+03
8.658832e+02,7.301895e+03
8.668475e+02,7.296862e+03
8.678117e+02,7.295026e+03
8.687759e+02,7.294746e+03
8.697402e+02,7.292281e+03
8.707044e+02,7.277515e+03
8.716686e+02,7.263258e+03
8.726329e+02,7.263429e+03
8.735971e+02,7.271236e+03
8.745613e+02,7.270876e+03
8.755256e+02,7.249431e+03
8.764898e+02,7.230955e+03
8.774540e+02,7.231866e+03
8.784183e+02,7.243935e+03
8.793825e+02,7.253829e+03
8.803467e+02,7.255976e+03
8.813110e+02,7.256049e+03
8.822752e+02,7.264492e+03
8.832394e+02,7.279556e+03
8.842037e+02,7.289453e+03
8.851679e+02,7.289314e+03
8.861321e+02,7.282033e+03
8.870964e+02,7.271260e+03
8.880606e+02,7.256121e+03
8.890248e+02,7.245658e+03
8.899891e+02,7.245408e+03
8.909533e+02,7.247954e+03
8.919175e+02,7.243603e+03
8.928818e+02,7.228729e+03
8.938460e+02,7.223088e+03
8.948102e+02,7.233094e+03
8.957745e+02,7.241730e+03
8.967387e+02,7.236977e+03
8.977029e+02,7.218140e+03
8.986672e+02,7.208506e+03
8.996314e+02,7.225983e+03
9.005956e+02,7.244697e+03
9.015599e+02,7.252003e+03
9.025241e+02,7.249560e+03
9.034883e+02,7.246039e+03
9.044526e+02,7.244255e+03
9.054168e+02,7.239048e+03
9.063810e+02,7.230585e+03
9.073453e+02,7.224013e+03
9.083095e+02,7.221999e+03
9.092737e+02,7.223596e+03
9.102380e+02,7.225576e+03
9.112022e+02,7.228548e+03
9.121664e+02,7.229483e+03
9.131307e+02,7.220332e+03
9.140949e+02,7.200589e+03
9.150591e+02,7.182393e+03
9.160234e+02,7.177975e+03
9.169876e+02,7.182146e+03
9.179518e+02,7.183539e+03
9.189161e+02,7.181007e+03
9.198803e+02,7.175073e+03
9.208445e+02,7.168571e+03
9.218088e+02,7.164050e+03
9.227730e+02,7.157076e+03
9.237372e+02,7.142595e+03
9.247015e+02,7.131376e+03
9.256657e+02,7.131864e+03
9.266299e+02,7.144066e+03
9.275942e+02,7.153515e+03
9.285584e+02,7.157202e+03
9.295226e+02,7.158466e+03
9.304869e+02,7.159845e+03
9.314511e+02,7.161765e+03
9.324153e+02,7.161954e+03
9.333796e+02,7.158615e+03
9.343438e+02,7.154868e+03
9.353080e+02,7.148739e+03
9.362723e+02,7.140064e+03
9.372365e+02,7.132000e+03
9.382007e+02,7.131285e+03
9.391650e+02,7.131564e+03
9.401292e+02,7.128316e+03
9.410934e+02,7.124089e+03
9.420577e+02,7.120642e+03
9.430219e+02,7.117872e+03
9.439861e+02,7.112982e+03
9.449504e+02,7.106808e+03
9.459146e+02,7.101833e+03
9.468788e+02,7.094806e+03
9.478431e+02,7.082192e+03
9.488073e+02,7.068384e+03
9.497715e+02,7.061462e+03
9.507358e+02,7.060429e+03
9.517000e+02,7.063653e+03
9.526642e+02,7.072358e+03
9.536285e+02,7.078159e+03
9.545927e+02,7.073446e+03
9.555569e+02,7.060995e+03
9.565212e+02,7.049137e+03
9.574854e+02,7.040147e+03
9.584496e+02,7.038257e+03
9.594139e+02,7.043226e+03
9.603781e+02,7.050204e+03
9.613423e+02,7.051139e+03
9.623066e+02,7.044370e+03
9.632708e+02,7.042205e+03
9.642350e+02,7.051250e+03
9.651993e+02,7.064003e+03
9.661635e+02,7.066916e+03
9.671277e+02,7.052010e+03
9.680920e+02,7.040648e+03
9.690562e+02,7.035823e+03
9.700204e+02,7.030511e+03
9.709847e+02,7.021520e+03
9.719489e+02,7.010166e+03
9.729131e+02,6.999811e+03
9.738774e+02,6.988413e+03
9.748416e+02,6.983420e+03
9.758058e+02,6.987604e+03
9.767701e+02,6.997367e+03
9.777343e+02,7.004601e+03
9.786985e+02,7.006802e+03
9.796628e+02,7.005996e+03
9.806270e+02,7.005993e+03
9.815912e+02,7.003695e+03
9.825555e+02,6.994105e+03
9.835197e+02,6.972540e+03
9.844839e+02,6.954428e+03
9.854482e+02,6.946292e+03
9.864124e+02,6.946104e+03
9.873766e+02,6.951125e+03
9.883409e+02,6.962083e+03
9.893051e+02,6.972518e+03
9.902693e+02,6.978260e+03
9.912336e+02,6.982185e+03
9.921978e+02,6.984703e+03
9.931620e+02,6.984044e+03
9.941263e+02,6.980678e+03
9.950905e+02,6.972118e+03
9.960547e+02,6.964402e+03
9.970190e+02,6.968962e+03
9.979832e+02,6.981242e+03
9.989474e+02,6.985557e+03
9.999117e+02,6.971346e+03
1.000876e+03,6.951728e+03
1.001840e+03,6.945993e+03
1.002804e+03,6.952617e+03
1.003769e+03,6.961279e+03
1.004733e+03,6.966417e+03
1.005697e+03,6.969184e+03
1.006661e+03,6.973462e+03
1.007626e+03,6.978791e+03
1.008590e+03,6.979823e+03
1.009554e+03,6.973836e+03
1.010518e+03,6.964696e+03
1.011482e+03,6.960091e+03
1.012447e+03,6.958664e+03
1.013411e+03,6.949638e+03
1.014375e+03,6.935502e+03
1.015339e+03,6.922530e+03
1.016304e+03,6.912633e+03
1.017268e+03,6.904953e+03
1.018232e+03,6.898437e+03
1.019196e+03,6.892137e+03
1.020161e+03,6.887014e+03
1.021125e+03,6.885053e+03
1.022089e+03,6.887000e+03
1.023053e+03,6.889438e+03
1.024018e+03,6.889461e+03
1.024982e+03,6.892101e+03
1.025946e+03,6.899065e+03
1.026910e+03,6.902587e+03
1.027875e+03,6.895117e+03
1.028839e+03,6.875349e+03
1.029803e+03,6.864051e+03
1.030767e+03,6.864138e+03
1.031731e+03,6.868755e+03
1.032696e+03,6.872263e+03
1.033660e+03,6.873945e+03
1.034624e+03,6.875083e+03
1.035588e+03,6.878349e+03
1.036552e+03,6.881296e+03
1.037517e+03,6.880919e+03
1.038481e+03,6.876218e+03
1.039445e+03,6.870898e+03
1.040409e+03,6.865986e+03
1.041374e+03,6.859313e+03
1.042338e+03,6.851304e+03
1.043302e+03,6.843938e+03
1.044266e+03,6.838156e+03
1.045231e+03,6.835139e+03
1.046195e+03,6.829678e+03
1.047159e+03,6.822726e+03
1.048123e+03,6.815296e+03
1.049088e+03,6.805497e+03
1.050052e+03,6.793640e+03
1.051016e+03,6.794766e+03
1.051980e+03,6.825383e+03
1.052945e+03,6.850284e+03
1.053909e+03,6.848634e+03
1.054873e+03,6.824841e+03
1.055837e+03,6.807911e+03
1.056802e+03,6.810594e+03
1.057766e+03,6.811290e+03
1.058730e+03,6.805167e+03
1.059694e+03,6.796854e+03
1.060658e+03,6.790813e+03
1.061623e+03,6.789508e+03
1.062587e+03,6.790130e+03
1.063551e+03,6.796995e+03
1.064515e+03,6.802850e+03
1.065479e+03,6.799155e+03
1.066444e+03,6.785879e+03
1.067408e+03,6.779562e+03
1.068372e+03,6.788430e+03
1.069336e+03,6.798751e+03
1.070301e+03,6.800781e+03
1.071265e+03,6.795181e+03
1.072229e+03,6.790714e+03
1.073193e+03,6.790494e+03
1.074158e+03,6.789333e+03
1.075122e+03,6.786004e+03
1.076086e+03,6.781238e+03
1.077050e+03,6.777401e+03
1.078015e+03,6.779684e+03
1.078979e+03,6.782576e+03
1.079943e+03,6.782417e+03
1.080907e+03,6.782240e+03
1.081872e+03,6.782536e+03
1.082836e+03,6.781550e+03
1.083800e+03,6.778267e+03
1.084764e+03,6.769444e+03
1.085729e+03,6.764960e+03
1.086693e+03,6.771823e+03
1.087657e+03,6.784914e+03
1.088621e+03,6.792630e+03
1.089585e+03,6.791758e+03
1.090550e+03,6.783126e+03
1.091514e+03,6.762625e+03
1.092478e+03,6.742245e+03
1.093442e+03,6.734497e+03
1.094406e+03,6.746254e+03
1.095371e+03,6.757080e+03
1.096335e+03,6.763828e+03
1.097299e+03,6.765009e+03
1.098263e+03,6.755634e+03
1.099228e+03,6.736031e+03
1.100192e+03,6.725117e+03
1.101156e+03,6.735088e+03
1.102120e+03,6.743516e+03
1.103085e+03,6.741638e+03
1.104049e+03,6.733182e+03
1.105013e+03,6.726016e+03
1.105977e+03,6.720192e+03
1.106942e+03,6.718362e+03
1.107906e+03,6.726835e+03
1.108870e+03,6.736498e+03
1.109834e+03,6.737463e+03
1.110799e+03,6.725648e+03
1.111763e+03,6.719515e+03
1.112727e+03,6.724396e+03
1.113691e+03,6.734257e+03
1.114656e+03,6.746040e+03
1.115620e+03,6.759443e+03
1.116584e+03,6.773377e+03
1.117548e+03,6.785555e+03
1.118512e+03,6.795239e+03
1.119477e+03,6.801983e+03
1.120441e+03,6.806860e+03
1.121405e+03,6.812434e+03
1.122369e+03,6.822826e+03
1.123334e+03,6.828170e+03
1.124298e+03,6.825890e+03
1.125262e+03,6.823126e+03
1.126226e+03,6.824615e+03
1.127191e+03,6.831000e+03
1.128155e+03,6.841261e+03
1.129119e+03,6.860502e+03
1.130083e+03,6.873069e+03
1.131047e+03,6.869649e+03
1.132012e+03,6.853713e+03
1.132976e+03,6.841619e+03
1.133940e+03,6.834402e+03
1.134904e+03,6.828528e+03
1.135869e+03,6.826955e+03
1.136833e+03,6.826953e+03
1.137797e+03,6.825657e+03
1.138761e+03,6.826562e+03
1.139726e+03,6.820338e+03
1.140690e+03,6.801244e+03
1.141654e+03,6.784014e+03
1.142618e+03,6.777096e+03
1.143583e+03,6.779729e+03
1.144547e+03,6.782319e+03
1.145511e+03,6.784188e+03
1.146475e+03,6.787794e+03
1.147439e+03,6.793768e+03
1.148404e+03,6.802115e+03
1.149368e+03,6.811079e+03
1.150332e+03,6.820072e+03
1.151296e+03,6.827916e+03
1.152261e+03,6.832216e+03
1.153225e+03,6.827344e+03
1.154189e+03,6.812506e+03
1.155153e+03,6.791142e+03
1.156118e+03,6.766348e+03
1.157082e+03,6.740073e+03
1.158046e+03,6.723083e+03
1.159010e+03,6.720064e+03
1.159974e+03,6.722044e+03
1.160939e+03,6.707709e+03
1.161903e+03,6.678789e+03
1.162867e+03,6.655550e+03
1.163831e+03,6.641727e+03
1.164796e+03,6.634629e+03
1.165760e+03,6.638870e+03
1.166724e+03,6.649072e+03
1.167688e+03,6.645172e+03
1.168653e+03,6.628760e+03
1.169617e+03,6.615190e+03
1.170581e+03,6.615993e+03
1.171545e+03,6.624336e+03
1.172510e+03,6.632064e+03
1.173474e+03,6.639172e+03
1.174438e+03,6.643013e+03
1.175402e+03,6.641327e+03
1.176366e+03,6.639633e+03
1.177331e+03,6.646001e+03
1.178295e+03,6.654849e+03
1.179259e+03,6.656312e+03
1.180223e+03,6.649749e+03
1.181188e+03,6.644542e+03
1.182152e+03,6.653039e+03
1.183116e+03,6.658781e+03
1.184080e+03,6.648431e+03
1.185045e+03,6.630273e+03
1.186009e+03,6.617248e+03
1.186973e+03,6.617519e+03
1.187937e+03,6.618913e+03
1.188901e+03,6.614750e+03
1.189866e+03,6.609232e+03
1.190830e+03,6.604534e+03
1.191794e+03,6.599616e+03
1.192758e+03,6.594344e+03
1.193723e+03,6.592568e+03
1.194687e+03,6.591617e+03
1.195651e+03,6.586921e+03
1.196615e+03,6.580898e+03
1.197580e+03,6.580194e+03
1.198544e+03,6.591765e+03
1.199508e+03,6.588085e+03
1.200472e+03,6.561882e+03
1.201437e+03,6.532277e+03
1.202401e+03,6.516594e+03
1.203365e+03,6.518470e+03
1.204329e+03,6.518209e+03
1.205293e+03,6.512948e+03
1.206258e+03,6.510178e+03
1.207222e+03,6.512145e+03
1.208186e+03,6.517734e+03
1.209150e+03,6.526544e+03
1.210115e+03,6.537233e+03
1.211079e+03,6.545387e+03
1.212043e+03,6.551454e+03
1.213007e+03,6.552194e+03
1.213972e+03,6.544061e+03
1.214936e+03,6.530240e+03
1.215900e+03,6.519491e+03
1.216864e+03,6.512087e+03
1.217828e+03,6.504563e+03
1.218793e+03,6.493417e+03
1.219757e+03,6.483796e+03
1.220721e+03,6.487187e+03
1.221685e+03,6.499357e+03
1.222650e+03,6.507108e+03
1.223614e+03,6.504979e+03
1.224578e+03,6.495088e+03
1.225542e+03,6.474582e+03
1.226507e+03,6.454745e+03
1.227471e+03,6.450107e+03
1.228435e+03,6.456440e+03
1.229399e+03,6.458562e+03
1.230364e+03,6.450900e+03
1.231328e+03,6.438591e+03
1.232292e+03,6.424535e+03
1.233256e+03,6.412242e+03
1.234220e+03,6.401999e+03
1.235185e+03,6.394452e+03
1.236149e+03,6.392443e+03
1.237113e+03,6.399993e+03
1.238077e+03,6.411771e+03
1.239042e+03,6.422907e+03
1.240006e+03,6.430081e+03
1.240970e+03,6.430035e+03
1.241934e+03,6.416713e+03
1.242899e+03,6.407057e+03
1.243863e+03,6.410306e+03
1.244827e+03,6.415468e+03
1.245791e+03,6.403498e+03
1.246755e+03,6.368272e+03
1.247720e+03,6.354680e+03
1.248684e+03,6.368360e+03
1.249648e+03,6.384171e+03
1.250612e+03,6.384862e+03
1.251577e+03,6.374437e+03
1.252541e+03,6.368364e+03
1.253505e+03,6.365587e+03
1.254469e+03,6.363767e+03
1.255434e+03,6.363621e+03
1.256398e+03,6.363935e+03
1.257362e+03,6.357092e+03
1.258326e+03,6.348601e+03
1.259291e+03,6.354584e+03
1.260255e+03,6.372121e+03
1.261219e+03,6.383710e+03
1.262183e+03,6.379212e+03
1.263147e+03,6.371631e+03
1.264112e+03,6.366699e+03
1.265076e+03,6.365217e+03
1.266040e+03,6.367341e+03
1.267004e+03,6.373767e+03
1.267969e+03,6.382991e+03
1.268933e+03,6.399195e+03
1.269897e+03,6.419483e+03
1.270861e+03,6.438430e+03
1.271826e+03,6.451119e+03
1.272790e+03,6.459431e+03
1.273754e+03,6.462530e+03
1.274718e+03,6.467462e+03
1.275682e+03,6.480215e+03
1.276647e+03,6.495536e+03
1.277611e+03,6.504882e+03
1.278575e+03,6.506915e+03
1.279539e+03,6.505650e+03
1.280504e+03,6.504376e+03
1.281468e+03,6.502928e+03
1.282432e+03,6.499493e+03
1.283396e+03,6.493970e+03
1.284361e+03,6.485178e+03
1.285325e+03,6.472506e+03
1.286289e+03,6.460807e+03
1.287253e+03,6.451209e+03
1.288218e+03,6.435479e+03
1.289182e+03,6.398205e+03
1.290146e+03,6.357611e+03
1.291110e+03,6.339022e+03
1.292074e+03,6.339367e+03
1.293039e+03,6.339250e+03
1.294003e+03,6.330125e+03
1.294967e+03,6.315857e+03
1.295931e+03,6.295368e+03
1.296896e+03,6.275811e+03
1.297860e+03,6.263545e+03
1.298824e+03,6.259237e+03
1.299788e+03,6.257407e+03
1.300753e+03,6.258646e+03
1.301717e+03,6.259205e+03
1.302681e+03,6.257371e+03
1.303645e+03,6.254319e+03
1.304609e+03,6.254546e+03
1.305574e+03,6.256803e+03
1.306538e+03,6.252678e+03
1.307502e+03,6.243249e+03
1.308466e+03,6.233822e+03
1.309431e+03,6.227598e+03
1.310395e+03,6.223979e+03
1.311359e+03,6.220203e+03
1.312323e+03,6.213880e+03
1.313288e+03,6.204998e+03
1.314252e+03,6.195476e+03
1.315216e+03,6.190550e+03
1.316180e+03,6.194673e+03
1.317145e+03,6.203918e+03
1.318109e+03,6.213412e+03
1.319073e+03,6.219792e+03
1.320037e+03,6.219774e+03
1.321001e+03,6.206790e+03
1.321966e+03,6.193950e+03
1.322930e+03,6.190654e+03
1.323894e+03,6.193745e+03
1.324858e+03,6.193438e+03
1.325823e+03,6.186533e+03
1.326787e+03,6.182344e+03
1.327751e+03,6.178224e+03
1.328715e+03,6.178396e+03
1.329680e+03,6.188587e+03
1.330644e+03,6.205747e+03
1.331608e+03,6.213066e+03
1.332572e+03,6.211080e+03
1.333536e+03,6.214663e+03
1.334501e+03,6.227602e+03
1.335465e+03,6.240115e+03
1.336429e+03,6.243670e+03
1.337393e+03,6.243220e+03
1.338358e+03,6.245272e+03
1.339322e+03,6.249204e+03
1.340286e+03,6.250407e+03
1.341250e+03,6.247581e+03
1.342215e+03,6.240072e+03
1.343179e+03,6.225817e+03
1.344143e+03,6.213965e+03
1.345107e+03,6.212017e+03
1.346072e+03,6.222125e+03
1.347036e+03,6.223742e+03
1.348000e+03,6.211641e+03
1.348964e+03,6.196686e+03
1.349928e+03,6.183520e+03
1.350893e+03,6.174336e+03
1.351857e+03,6.171433e+03
1.352821e+03,6.173113e+03
1.353785e+03,6.170205e+03
1.354750e+03,6.160751e+03
1.355714e+03,6.148624e+03
1.356678e+03,6.139408e+03
1.357642e+03,6.133718e+03
1.358607e+03,6.130266e+03
1.359571e+03,6.126882e+03
1.360535e+03,6.119740e+03
1.361499e+03,6.106321e+03
1.362464e+03,6.097407e+03
1.363428e+03,6.102690e+03
1.364392e+03,6.112239e+03
1.365356e+03,6.116845e+03
1.366320e+03,6.113602e+03
1.367285e+03,6.106808e+03
1.368249e+03,6.097781e+03
1.369213e+03,6.089094e+03
1.370177e+03,6.082175e+03
1.371142e+03,6.073752e+03
1.372106e+03,6.056689e+03
1.373070e+03,6.033643e+03
1.374034e+03,6.026560e+03
1.374999e+03,6.035642e+03
1.375963e+03,6.048411e+03
1.376927e+03,6.060846e+03
1.377891e+03,6.067953e+03
1.378855e+03,6.060256e+03
1.379820e+03,6.044761e+03
1.380784e+03,6.029001e+03
1.381748e+03,6.016022e+03
1.382712e+03,6.010275e+03
1.383677e+03,6.018112e+03
1.384641e+03,6.020961e+03
1.385605e+03,6.008524e+03
1.386569e+03,5.989351e+03
1.387534e+03,5.977894e+03
1.388498e+03,5.976573e+03
1.389462e+03,5.972644e+03
1.390426e+03,5.963519e+03
1.391391e+03,5.956096e+03
1.392355e+03,5.958923e+03
1.393319e+03,5.965288e+03
1.394283e+03,5.955299e+03
1.395247e+03,5.936076e+03
1.396212e+03,5.926751e+03
1.397176e+03,5.932179e+03
1.398140e+03,5.940413e+03
1.399104e+03,5.945682e+03
1.400069e+03,5.947626e+03
1.401033e+03,5.945470e+03
1.401997e+03,5.940302e+03
1.402961e+03,5.934809e+03
1.403926e+03,5.926310e+03
1.404890e+03,5.923273e+03
1.405854e+03,5.928958e+03
1.406818e+03,5.936580e+03
1.407782e+03,5.941542e+03
1.408747e+03,5.945966e+03
1.409711e+03,5.952287e+03
1.410675e+03,5.956610e+03
1.411639e+03,5.955813e+03
1.412604e+03,5.949583e+03
1.413568e+03,5.942013e+03
1.414532e+03,5.941494e+03
1.415496e+03,5.940596e+03
1.416461e+03,5.927945e+03
1.417425e+03,5.904822e+03
1.418389e+03,5.884130e+03
1.419353e+03,5.868499e+03
1.420318e+03,5.855906e+03
1.421282e+03,5.848675e+03
1.422246e+03,5.845917e+03
1.423210e+03,5.846743e+03
1.424174e+03,5.851388e+03
1.425139e+03,5.857139e+03
1.426103e+03,5.861784e+03
1.427067e+03,5.859039e+03
1.428031e+03,5.845981e+03
1.428996e+03,5.833696e+03
1.429960e+03,5.834433e+03
1.430924e+03,5.837996e+03
1.431888e+03,5.835721e+03
1.432853e+03,5.827249e+03
1.433817e+03,5.813789e+03
1.434781e+03,5.788991e+03
1.435745e+03,5.771646e+03
1.436709e+03,5.762369e+03
1.437674e+03,5.757601e+03
1.438638e+03,5.758099e+03
1.439602e+03,5.764567e+03
1.440566e+03,5.766384e+03
1.441531e+03,5.763313e+03
1.442495e+03,5.759444e+03
1.443459e+03,5.755298e+03
1.444423e+03,5.750500e+03
1.445388e+03,5.744200e+03
1.446352e+03,5.735418e+03
1.447316e+03,5.723312e+03
1.448280e+03,5.711214e+03
1.449245e+03,5.704460e+03
1.450209e+03,5.709638e+03
1.451173e+03,5.711969e+03
1.452137e+03,5.705490e+03
1.453101e+03,5.695370e+03
1.454066e+03,5.687481e+03
1.455030e+03,5.682313e+03
1.455994e+03,5.682563e+03
1.456958e+03,5.687435e+03
1.457923e+03,5.692880e+03
1.458887e+03,5.696548e+03
1.459851e+03,5.696287e+03
1.460815e+03,5.686560e+03
1.461780e+03,5.673368e+03
1.462744e+03,5.666245e+03
1.463708e+03,5.665597e+03
1.464672e+03,5.661645e+03
1.465636e+03,5.652825e+03
1.466601e+03,5.647838e+03
1.467565e+03,5.648108e+03
1.468529e+03,5.651083e+03
1.469493e+03,5.653667e+03
1.470458e+03,5.654303e+03
1.471422e+03,5.651916e+03
1.472386e+03,5.648343e+03
1.473350e+03,5.647035e+03
1.474315e+03,5.649241e+03
1.475279e+03,5.647788e+03
1.476243e+03,5.628901e+03
1.477207e+03,5.611103e+03
1.478172e+03,5.615960e+03
1.479136e+03,5.637297e+03
1.480100e+03,5.641497e+03
1.481064e+03,5.621981e+03
1.482028e+03,5.615376e+03
1.482993e+03,5.628687e+03
1.483957e+03,5.646362e+03
1.484921e+03,5.653733e+03
1.485885e+03,5.654156e+03
1.486850e+03,5.649978e+03
1.487814e+03,5.642881e+03
1.488778e+03,5.641072e+03
1.489742e+03,5.650401e+03
1.490707e+03,5.654928e+03
1.491671e+03,5.650811e+03
1.492635e+03,5.645381e+03
1.493599e+03,5.637386e+03
1.494563e+03,5.628471e+03
1.495528e+03,5.629736e+03
1.496492e+03,5.639586e+03
1.497456e+03,5.636349e+03
1.498420e+03,5.619658e+03
1.499385e+03,5.601834e+03
1.500349e+03,5.589899e+03
1.501313e+03,5.583334e+03
1.502277e+03,5.583598e+03
1.503242e+03,5.586282e+03
1.504206e+03,5.584679e+03
1.505170e+03,5.574422e+03
1.506134e+03,5.569389e+03
1.507099e+03,5.573370e+03
1.508063e+03,5.573485e+03
1.509027e+03,5.563963e+03
1.509991e+03,5.550155e+03
1.510955e+03,5.542581e+03
1.511920e+03,5.537643e+03
1.512884e+03,5.526123e+03
1.513848e+03,5.510923e+03
1.514812e+03,5.502310e+03
1.515777e+03,5.502024e+03
1.516741e+03,5.505100e+03
1.517705e+03,5.513657e+03
1.518669e+03,5.520766e+03
1.519634e+03,5.521572e+03
1.520598e+03,5.515531e+03
1.521562e+03,5.510064e+03
1.522526e+03,5.503852e+03
1.523490e+03,5.500922e+03
1.524455e+03,5.504264e+03
1.525419e+03,5.505464e+03
1.526383e+03,5.495279e+03
1.527347e+03,5.481465e+03
1.528312e+03,5.472805e+03
1.529276e+03,5.470516e+03
1.530240e+03,5.468300e+03
1.531204e+03,5.462233e+03
1.532169e+03,5.459589e+03
1.533133e+03,5.460927e+03
1.534097e+03,5.466448e+03
1.535061e+03,5.479717e+03
1.536026e+03,5.492569e+03
1.536990e+03,5.488587e+03
1.537954e+03,5.475643e+03
1.538918e+03,5.467706e+03
1.539882e+03,5.467904e+03
1.540847e+03,5.468813e+03
1.541811e+03,5.469257e+03
1.542775e+03,5.464952e+03
1.543739e+03,5.454338e+03
1.544704e+03,5.443931e+03
1.545668e+03,5.445744e+03
1.546632e+03,5.457060e+03
1.547596e+03,5.461234e+03
1.548561e+03,5.458623e+03
1.549525e+03,5.458600e+03
1.550489e+03,5.466517e+03
1.551453e+03,5.473961e+03
1.552417e+03,5.477132e+03
1.553382e+03,5.477681e+03
1.554346e+03,5.478927e+03
1.555310e+03,5.481350e+03
1.556274e+03,5.479578e+03
1.557239e+03,5.473229e+03
1.558203e+03,5.467358e+03
1.559167e+03,5.463100e+03
1.560131e+03,5.462250e+03
1.561096e+03,5.471958e+03
1.562060e+03,5.481919e+03
1.563024e+03,5.479433e+03
1.563988e+03,5.471098e+03
1.564953e+03,5.473255e+03
1.565917e+03,5.492740e+03
1.566881e+03,5.497006e+03
1.567845e+03,5.481544e+03
1.568809e+03,5.473625e+03
1.569774e+03,5.493041e+03
1.570738e+03,5.519426e+03
1.571702e+03,5.526081e+03
1.572666e+03,5.521558e+03
1.573631e+03,5.516572e+03
1.574595e+03,5.514174e+03
1.575559e+03,5.510747e+03
1.576523e+03,5.505274e+03
1.577488e+03,5.502387e+03
1.578452e+03,5.499871e+03
1.579416e+03,5.498261e+03
1.580380e+03,5.500327e+03
1.581344e+03,5.505119e+03
1.582309e+03,5.513656e+03
1.583273e+03,5.523872e+03
1.584237e+03,5.528745e+03
1.585201e+03,5.522837e+03
1.586166e+03,5.521974e+03
1.587130e+03,5.531977e+03
1.588094e+03,5.534984e+03
1.589058e+03,5.523974e+03
1.590023e+03,5.504632e+03
1.590987e+03,5.481342e+03
1.591951e+03,5.460275e+03
1.592915e+03,5.456607e+03
1.593880e+03,5.466047e+03
1.594844e+03,5.463904e+03
1.595808e+03,5.425123e+03
1.596772e+03,5.396920e+03
1.597736e+03,5.396007e+03
1.598701e+03,5.400146e+03
1.599665e+03,5.388643e+03
1.600629e+03,5.365017e+03
1.601593e+03,5.338513e+03
1.602558e+03,5.312987e+03
1.603522e+03,5.302401e+03
1.604486e+03,5.312973e+03
1.605450e+03,5.322682e+03
1.606415e+03,5.325720e+03
1.607379e+03,5.325611e+03
1.608343e+03,5.321371e+03
1.609307e+03,5.315400e+03
1.610271e+03,5.313054e+03
1.611236e+03,5.312875e+03
1.612200e+03,5.312925e+03
1.613164e+03,5.313634e+03
1.614128e+03,5.310984e+03
1.615093e+03,5.296562e+03
1.616057e+03,5.284560e+03
1.617021e+03,5.278881e+03
1.617985e+03,5.275306e+03
1.618950e+03,5.275613e+03
1.619914e+03,5.276458e+03
1.620878e+03,5.258708e+03
1.621842e+03,5.229186e+03
1.622807e+03,5.213514e+03
1.623771e+03,5.217968e+03
1.624735e+03,5.223204e+03
1.625699e+03,5.212408e+03
1.626663e+03,5.204692e+03
1.627628e+03,5.208397e+03
1.628592e+03,5.212558e+03
1.629556e+03,5.208642e+03
1.630520e+03,5.199127e+03
1.631485e+03,5.176833e+03
1.632449e+03,5.146604e+03
1.633413e+03,5.131707e+03
1.634377e+03,5.148392e+03
1.635342e+03,5.164392e+03
1.636306e+03,5.168611e+03
1.637270e+03,5.168222e+03
1.638234e+03,5.165436e+03
1.639198e+03,5.160990e+03
1.640163e+03,5.152141e+03
1.641127e+03,5.142153e+03
1.642091e+03,5.137515e+03
1.643055e+03,5.137109e+03
1.644020e+03,5.139242e+03
1.644984e+03,5.150370e+03
1.645948e+03,5.149065e+03
1.646912e+03,5.125166e+03
1.647877e+03,5.102395e+03
1.648841e+03,5.103675e+03
1.649805e+03,5.121036e+03
1.650769e+03,5.129338e+03
1.651734e+03,5.130112e+03
1.652698e+03,5.128440e+03
1.653662e+03,5.123942e+03
1.654626e+03,5.115857e+03
1.655590e+03,5.099428e+03
1.656555e+03,5.088981e+03
1.657519e+03,5.093038e+03
1.658483e+03,5.101150e+03
1.659447e+03,5.091333e+03
1.660412e+03,5.072308e+03
1.661376e+03,5.068382e+03
1.662340e+03,5.076409e+03
1.663304e+03,5.078493e+03
1.664269e+03,5.053428e+03
1.665233e+03,5.046345e+03
1.666197e+03,5.062067e+03
1.667161e+03,5.075599e+03
1.668125e+03,5.074220e+03
1.669090e+03,5.065572e+03
1.670054e+03,5.061862e+03
1.671018e+03,5.058335e+03
1.671982e+03,5.046416e+03
1.672947e+03,5.027119e+03
1.673911e+03,5.021649e+03
1.674875e+03,5.031163e+03
1.675839e+03,5.042118e+03
1.676804e+03,5.056052e+03
1.677768e+03,5.063734e+03
1.678732e+03,5.046430e+03
1.679696e+03,5.024904e+03
1.680661e+03,5.017141e+03
1.681625e+03,5.016310e+03
1.682589e+03,5.017720e+03
1.683553e+03,5.023275e+03
1.684517e+03,5.019538e+03
1.685482e+03,5.006210e+03
1.686446e+03,4.996706e+03
1.687410e+03,4.995268e+03
1.688374e+03,4.997700e+03
1.689339e+03,5.002881e+03
1.690303e+03,5.008130e+03
1.691267e+03,5.011668e+03
1.692231e+03,5.014993e+03
1.693196e+03,5.020736e+03
1.694160e+03,5.025895e+03
1.695124e+03,5.017558e+03
1.696088e+03,4.998469e+03
1.697052e+03,4.981372e+03
1.698017e+03,4.966019e+03
1.698981e+03,4.956991e+03
1.699945e+03,4.956826e+03
1.700909e+03,4.956261e+03
1.701874e+03,4.953924e+03
1.702838e+03,4.954274e+03
1.703802e+03,4.962431e+03
1.704766e+03,4.972540e+03
1.705731e+03,4.980771e+03
1.706695e+03,4.986886e+03
1.707659e+03,4.981942e+03
1.708623e+03,4.958855e+03
1.709588e+03,4.947164e+03
1.710552e+03,4.949565e+03
1.711516e+03,4.952438e+03
1.712480e+03,4.943510e+03
1.713444e+03,4.931255e+03
1.714409e+03,4.927479e+03
1.715373e+03,4.928541e+03
1.716337e+03,4.926295e+03
1.717301e+03,4.921670e+03
1.718266e+03,4.926596e+03
1.719230e+03,4.939451e+03
1.720194e+03,4.942378e+03
1.721158e+03,4.929153e+03
1.722123e+03,4.910470e+03
1.723087e+03,4.882821e+03
1.724051e+03,4.866163e+03
1.725015e+03,4.877233e+03
1.725979e+03,4.898883e+03
1.726944e+03,4.904817e+03
1.727908e+03,4.898496e+03
1.728872e+03,4.893313e+03
1.729836e+03,4.888024e+03
1.730801e+03,4.882295e+03
1.731765e+03,4.876678e+03
1.732729e+03,4.871644e+03
1.733693e+03,4.866217e+03
1.734658e+03,4.865174e+03
1.735622e+03,4.871970e+03
1.736586e+03,4.879093e+03
1.737550e+03,4.874100e+03
1.738515e+03,4.864689e+03
1.739479e+03,4.859636e+03
1.740443e+03,4.859450e+03
1.741407e+03,4.862942e+03
1.742371e+03,4.871718e+03
1.743336e+03,4.867360e+03
1.744300e+03,4.848473e+03
1.745264e+03,4.828968e+03
1.746228e+03,4.820868e+03
1.747193e+03,4.816479e+03
1.748157e+03,4.811514e+03
1.749121e+03,4.814603e+03
1.750085e+03,4.830030e+03
1.751050e+03,4.847717e+03
1.752014e+03,4.846756e+03
1.752978e+03,4.834295e+03
1.753942e+03,4.824385e+03
1.754906e+03,4.818619e+03
1.755871e+03,4.811656e+03
1.756835e+03,4.797958e+03
1.757799e+03,4.786204e+03
1.758763e+03,4.782720e+03
1.759728e+03,4.784895e+03
1.760692e+03,4.794119e+03
1.761656e+03,4.802007e+03
1.762620e+03,4.794472e+03
1.763585e+03,4.780231e+03
1.764549e+03,4.772240e+03
1.765513e+03,4.768702e+03
1.766477e+03,4.772102e+03
1.767442e+03,4.781798e+03
1.768406e+03,4.785530e+03
1.769370e+03,4.778985e+03
1.770334e+03,4.773117e+03
1.771298e+03,4.772252e+03
1.772263e+03,4.767826e+03
1.773227e+03,4.757739e+03
1.774191e+03,4.747129e+03
1.775155e+03,4.742446e+03
1.776120e+03,4.740207e+03
1.777084e+03,4.736513e+03
1.778048e+03,4.732104e+03
1.779012e+03,4.728528e+03
1.779977e+03,4.727030e+03
1.780941e+03,4.726631e+03
1.781905e+03,4.725260e+03
1.782869e+03,4.725729e+03
1.783833e+03,4.732286e+03
1.784798e+03,4.733594e+03
1.785762e+03,4.712109e+03
1.786726e+03,4.695556e+03
1.787690e+03,4.699876e+03
1.788655e+03,4.714800e+03
1.789619e+03,4.722445e+03
1.790583e+03,4.723227e+03
1.791547e+03,4.711601e+03
1.792512e+03,4.692007e+03
1.793476e+03,4.685327e+03
1.794440e+03,4.696522e+03
1.795404e+03,4.703940e+03
1.796369e+03,4.705137e+03
1.797333e+03,4.701218e+03
1.798297e+03,4.691316e+03
1.799261e+03,4.681244e+03
1.800225e+03,4.669922e+03
1.801190e+03,4.662859e+03
1.802154e+03,4.668925e+03
1.803118e+03,4.678612e+03
1.804082e+03,4.663038e+03
1.805047e+03,4.636680e+03
1.806011e+03,4.632940e+03
1.806975e+03,4.652396e+03
1.807939e+03,4.659774e+03
1.808904e+03,4.646121e+03
1.809868e+03,4.631083e+03
1.810832e+03,4.617665e+03
1.811796e+03,4.608783e+03
1.812760e+03,4.607180e+03
1.813725e+03,4.608325e+03
1.814689e+03,4.611939e+03
1.815653e+03,4.615229e+03
1.816617e+03,4.616542e+03
1.817582e+03,4.615823e+03
1.818546e+03,4.610044e+03
1.819510e+03,4.601584e+03
1.820474e+03,4.596530e+03
1.821439e+03,4.596834e+03
1.822403e+03,4.601416e+03
1.823367e+03,4.612601e+03
1.824331e+03,4.615846e+03
1.825296e+03,4.607236e+03
1.826260e+03,4.596424e+03
1.827224e+03,4.595537e+03
1.828188e+03,4.597204e+03
1.829152e+03,4.593539e+03
1.830117e+03,4.588919e+03
1.831081e+03,4.587127e+03
1.832045e+03,4.585968e+03
1.833009e+03,4.586312e+03
1.833974e+03,4.588697e+03
1.834938e+03,4.585611e+03
1.835902e+03,4.572795e+03
1.836866e+03,4.562876e+03
1.837831e+03,4.555443e+03
1.838795e+03,4.552047e+03
1.839759e+03,4.555127e+03
1.840723e+03,4.561602e+03
1.841688e+03,4.570263e+03
1.842652e+03,4.576277e+03
1.843616e+03,4.576542e+03
1.844580e+03,4.570900e+03
1.845544e+03,4.559133e+03
1.846509e+03,4.545898e+03
1.847473e+03,4.538357e+03
1.848437e+03,4.534387e+03
1.849401e+03,4.530914e+03
1.850366e+03,4.528262e+03
1.851330e+03,4.523711e+03
1.852294e+03,4.518092e+03
1.853258e+03,4.503001e+03
1.854223e+03,4.474235e+03
1.855187e+03,4.457315e+03
1.856151e+03,4.467049e+03
1.857115e+03,4.482922e+03
1.858079e+03,4.503141e+03
1.859044e+03,4.517542e+03
1.860008e+03,4.515573e+03
1.860972e+03,4.506391e+03
1.861936e+03,4.493030e+03
1.862901e+03,4.481695e+03
1.863865e+03,4.479180e+03
1.864829e+03,4.481162e+03
1.865793e+03,4.475938e+03
1.866758e+03,4.466942e+03
1.867722e+03,4.459857e+03
1.868686e+03,4.455182e+03
1.869650e+03,4.451284e+03
1.870615e+03,4.445622e+03
1.871579e+03,4.446367e+03
1.872543e+03,4.458829e+03
1.873507e+03,4.472157e+03
1.874471e+03,4.474813e+03
1.875436e+03,4.468123e+03
1.876400e+03,4.451525e+03
1.877364e+03,4.435407e+03
1.878328e+03,4.434315e+03
1.879293e+03,4.439423e+03
1.880257e+03,4.429837e+03
1.881221e+03,4.412555e+03
1.882185e+03,4.407242e+03
1.883150e+03,4.416154e+03
1.884114e+03,4.414330e+03
1.885078e+03,4.402705e+03
1.886042e+03,4.397240e+03
1.887006e+03,4.403221e+03
1.887971e+03,4.407370e+03
1.888935e+03,4.407495e+03
1.889899e+03,4.409096e+03
1.890863e+03,4.412021e+03
1.891828e+03,4.408360e+03
1.892792e+03,4.386575e+03
1.893756e+03,4.363304e+03
1.894720e+03,4.354471e+03
1.895685e+03,4.356280e+03
1.896649e+03,4.363470e+03
1.897613e+03,4.372026e+03
1.898577e+03,4.374636e+03
1.899542e+03,4.373355e+03
1.900506e+03,4.371251e+03
1.901470e+03,4.368128e+03
1.902434e+03,4.360384e+03
1.903398e+03,4.348941e+03
1.904363e+03,4.351839e+03
1.905327e+03,4.376088e+03
1.906291e+03,4.390540e+03
1.907255e+03,4.364291e+03
1.908220e+03,4.345964e+03
1.909184e+03,4.346007e+03
1.910148e+03,4.348723e+03
1.911112e+03,4.340011e+03
1.912077e+03,4.329663e+03
1.913041e+03,4.326209e+03
1.914005e+03,4.324744e+03
1.914969e+03,4.318987e+03
1.915933e+03,4.311013e+03
1.916898e+03,4.310537e+03
1.917862e+03,4.313308e+03
1.918826e+03,4.306378e+03
1.919790e+03,4.288519e+03
1.920755e+03,4.283001e+03
1.921719e+03,4.286918e+03
1.922683e+03,4.290454e+03
1.923647e+03,4.293163e+03
1.924612e+03,4.294097e+03
1.925576e+03,4.292855e+03
1.926540e+03,4.288076e+03
1.927504e+03,4.275757e+03
1.928469e+03,4.265038e+03
1.929433e+03,4.266547e+03
1.930397e+03,4.268519e+03
1.931361e+03,4.260404e+03
1.932325e+03,4.251514e+03
1.933290e+03,4.252900e+03
1.934254e+03,4.261266e+03
1.935218e+03,4.258061e+03
1.936182e+03,4.248058e+03
1.937147e+03,4.246891e+03
1.938111e+03,4.255176e+03
1.939075e+03,4.257584e+03
1.940039e+03,4.256144e+03
1.941004e+03,4.249589e+03
1.941968e+03,4.235334e+03
1.942932e+03,4.219271e+03
1.943896e+03,4.199893e+03
1.944860e+03,4.195658e+03
1.945825e+03,4.211003e+03
1.946789e+03,4.225491e+03
1.947753e+03,4.220614e+03
1.948717e+03,4.212782e+03
1.949682e+03,4.206019e+03
1.950646e+03,4.202068e+03
1.951610e+03,4.205327e+03
1.952574e+03,4.207039e+03
1.953539e+03,4.187385e+03
1.954503e+03,4.164937e+03
1.955467e+03,4.162421e+03
1.956431e+03,4.172620e+03
1.957396e+03,4.174157e+03
1.958360e+03,4.169253e+03
1.959324e+03,4.165708e+03
1.960288e+03,4.165611e+03
1.961252e+03,4.163972e+03
1.962217e+03,4.157372e+03
1.963181e+03,4.163232e+03
1.964145e+03,4.179417e+03
1.965109e+03,4.186346e+03
1.966074e+03,4.166093e+03
1.967038e+03,4.158956e+03
1.968002e+03,4.166069e+03
1.968966e+03,4.168317e+03
1.969931e+03,4.155483e+03
1.970895e+03,4.140876e+03
1.971859e+03,4.141721e+03
1.972823e+03,4.142732e+03
1.973787e+03,4.134450e+03
1.974752e+03,4.122688e+03
1.975716e+03,4.120151e+03
1.976680e+03,4.116782e+03
1.977644e+03,4.099852e+03
1.978609e+03,4.081005e+03
1.979573e+03,4.076593e+03
1.980537e+03,4.082022e+03
1.981501e+03,4.087137e+03
1.982466e+03,4.091915e+03
1.983430e+03,4.095217e+03
1.984394e+03,4.095923e+03
1.985358e+03,4.099922e+03
1.986323e+03,4.105880e+03
1.987287e+03,4.109405e+03
1.988251e+03,4.108938e+03
1.989215e+03,4.103072e+03
1.990179e+03,4.092214e+03
1.991144e+03,4.081042e+03
1.992108e+03,4.071684e+03
1.993072e+03,4.067604e+03
1.994036e+03,4.074980e+03
1.995001e+03,4.078018e+03
1.995965e+03,4.071120e+03
1.996929e+03,4.065013e+03
1.997893e+03,4.071953e+03
1.998858e+03,4.076827e+03
1.999822e+03,4.059311e+03
2.000786e+03,4.040825e+03
2.001750e+03,4.048164e+03
2.002714e+03,4.067448e+03
2.003679e+03,4.054672e+03
2.004643e+03,4.027370e+03
2.005607e+03,4.018152e+03
2.006571e+03,4.022989e+03
2.007536e+03,4.013635e+03
2.008500e+03,3.996579e+03
2.009464e+03,3.992495e+03
2.010428e+03,4.003431e+03
2.011393e+03,4.008264e+03
2.012357e+03,4.004839e+03
2.013321e+03,4.004594e+03
2.014285e+03,4.005876e+03
2.015250e+03,4.009308e+03
2.016214e+03,4.021191e+03
2.017178e+03,4.024032e+03
2.018142e+03,4.017653e+03
2.019106e+03,4.008581e+03
2.020071e+03,3.997344e+03
2.021035e+03,3.988898e+03
2.021999e+03,3.985967e+03
2.022963e+03,3.984076e+03
2.023928e+03,3.983894e+03
2.024892e+03,3.983378e+03
2.025856e+03,3.978996e+03
2.026820e+03,3.973356e+03
2.027785e+03,3.966164e+03
2.028749e+03,3.960252e+03
2.029713e+03,3.966864e+03
2.030677e+03,3.974833e+03
2.031641e+03,3.963743e+03
2.032606e+03,3.943610e+03
2.033570e+03,3.932644e+03
2.034534e+03,3.928219e+03
2.035498e+03,3.922972e+03
2.036463e+03,3.917564e+03
2.037427e+03,3.911931e+03
2.038391e+03,3.908263e+03
2.039355e+03,3.905527e+03
2.040320e+03,3.904198e+03
2.041284e+03,3.903075e+03
2.042248e+03,3.900628e+03
2.043212e+03,3.901770e+03
2.044177e+03,3.908445e+03
2.045141e+03,3.912599e+03
2.046105e+03,3.912169e+03
2.047069e+03,3.909049e+03
2.048033e+03,3.897153e+03
2.048998e+03,3.892060e+03
2.049962e+03,3.896823e+03
2.050926e+03,3.902467e+03
2.051890e+03,3.908406e+03
2.052854e+03,3.903350e+03
2.053819e+03,3.877724e+03
2.054783e+03,3.853837e+03
2.055747e+03,3.846812e+03
2.056711e+03,3.847330e+03
2.057676e+03,3.848100e+03
2.058640e+03,3.849908e+03
2.059604e+03,3.849403e+03
2.060568e+03,3.849040e+03
2.061533e+03,3.858858e+03
2.062497e+03,3.869326e+03
2.063461e+03,3.871360e+03
2.064425e+03,3.866655e+03
2.065390e+03,3.855051e+03
2.066354e+03,3.838713e+03
2.067318e+03,3.819861e+03
2.068282e+03,3.803559e+03
2.069247e+03,3.796676e+03
2.070211e+03,3.796578e+03
2.071175e+03,3.793533e+03
2.072139e+03,3.789273e+03
2.073104e+03,3.786571e+03
2.074068e+03,3.786028e+03
2.075032e+03,3.788415e+03
2.075996e+03,3.791239e+03
2.076960e+03,3.787995e+03
2.077925e+03,3.777452e+03
2.078889e+03,3.782269e+03
2.079853e+03,3.804507e+03
2.080817e+03,3.802394e+03
2.081782e+03,3.772833e+03
2.082746e+03,3.755536e+03
2.083710e+03,3.778037e+03
2.084674e+03,3.782528e+03
2.085639e+03,3.768074e+03
2.086603e+03,3.756790e+03
2.087567e+03,3.752004e+03
2.088531e+03,3.757137e+03
2.089496e+03,3.772850e+03
2.090460e+03,3.780698e+03
2.091424e+03,3.778347e+03
2.092388e+03,3.771999e+03
2.093353e+03,3.753706e+03
2.094317e+03,3.748567e+03
2.095281e+03,3.763658e+03
2.096245e+03,3.778261e+03
2.097209e+03,3.772461e+03
2.098174e+03,3.758965e+03
2.099138e+03,3.745246e+03
2.100102e+03,3.731292e+03
2.101066e+03,3.712859e+03
2.102031e+03,3.697711e+03
2.102995e+03,3.696587e+03
2.103959e+03,3.699039e+03
2.104923e+03,3.696583e+03
2.105887e+03,3.695584e+03
2.106852e+03,3.702352e+03
2.107816e+03,3.707556e+03
2.108780e+03,3.704675e+03
2.109744e+03,3.696557e+03
2.110708e+03,3.694614e+03
2.111673e+03,3.695071e+03
2.112637e+03,3.683597e+03
2.113601e+03,3.665590e+03
2.114565e+03,3.664251e+03
2.115530e+03,3.669504e+03
2.116494e+03,3.653117e+03
2.117458e+03,3.627795e+03
2.118422e+03,3.626059e+03
2.119387e+03,3.641961e+03
2.120351e+03,3.668820e+03
2.121315e+03,3.696497e+03
2.122279e+03,3.699303e+03
2.123244e+03,3.676193e+03
2.124208e+03,3.658569e+03
2.125172e+03,3.647284e+03
2.126136e+03,3.641962e+03
2.127101e+03,3.643911e+03
2.128065e+03,3.636067e+03
2.129029e+03,3.619769e+03
2.129993e+03,3.612719e+03
2.130958e+03,3.614913e+03
2.131922e+03,3.618490e+03
2.132886e+03,3.623775e+03
2.133850e+03,3.630192e+03
2.134814e+03,3.640398e+03
2.135779e+03,3.641410e+03
2.136743e+03,3.620382e+03
2.137707e+03,3.609932e+03
2.138671e+03,3.612245e+03
2.139636e+03,3.611851e+03
2.140600e+03,3.597344e+03
2.141564e+03,3.588173e+03
2.142528e+03,3.586514e+03
2.143493e+03,3.585087e+03
2.144457e+03,3.580218e+03
2.145421e+03,3.568167e+03
2.146385e+03,3.545031e+03
2.147350e+03,3.535427e+03
2.148314e+03,3.549688e+03
2.149278e+03,3.566467e+03
2.150242e+03,3.566251e+03
2.151207e+03,3.566560e+03
2.152171e+03,3.569728e+03
2.153135e+03,3.567016e+03
2.154099e+03,3.553241e+03
2.155063e+03,3.539248e+03
2.156028e+03,3.527480e+03
2.156992e+03,3.522905e+03
2.157956e+03,3.527779e+03
2.158920e+03,3.532955e+03
2.159885e+03,3.535133e+03
2.160849e+03,3.534674e+03
2.161813e+03,3.531570e+03
2.162777e+03,3.525292e+03
2.163741e+03,3.514533e+03
2.164706e+03,3.503643e+03
2.165670e+03,3.498024e+03
2.166634e+03,3.495020e+03
2.167598e+03,3.484887e+03
2.168563e+03,3.480388e+03
2.169527e+03,3.485926e+03
2.170491e+03,3.489185e+03
2.171455e+03,3.478318e+03
2.172420e+03,3.467696e+03
2.173384e+03,3.467523e+03
2.174348e+03,3.471494e+03
2.175312e+03,3.473126e+03
2.176277e+03,3.474647e+03
2.177241e+03,3.481956e+03
2.178205e+03,3.487948e+03
2.179169e+03,3.492239e+03
2.180134e+03,3.491773e+03
2.181098e+03,3.472516e+03
2.182062e+03,3.451969e+03
2.183026e+03,3.437625e+03
2.183990e+03,3.430766e+03
2.184955e+03,3.441443e+03
2.185919e+03,3.452642e+03
2.186883e+03,3.447342e+03
2.187847e+03,3.436351e+03
2.188812e+03,3.434369e+03
2.189776e+03,3.437043e+03
2.190740e+03,3.437697e+03
2.191704e+03,3.438728e+03
2.192668e+03,3.450368e+03
2.193633e+03,3.460426e+03
2.194597e+03,3.443353e+03
2.195561e+03,3.422797e+03
2.196525e+03,3.419160e+03
2.197490e+03,3.422923e+03
2.198454e+03,3.419760e+03
2.199418e+03,3.412877e+03
2.200382e+03,3.406560e+03
2.201347e+03,3.401597e+03
2.202311e+03,3.393190e+03
2.203275e+03,3.385611e+03
2.204239e+03,3.378636e+03
2.205204e+03,3.375164e+03
2.206168e+03,3.395326e+03
2.207132e+03,3.417243e+03
2.208096e+03,3.404360e+03
2.209061e+03,3.377571e+03
2.210025e+03,3.359513e+03
2.210989e+03,3.347413e+03
2.211953e+03,3.339188e+03
2.212917e+03,3.339552e+03
2.213882e+03,3.344895e+03
2.214846e+03,3.348840e+03
2.215810e+03,3.338601e+03
2.216774e+03,3.328695e+03
2.217739e+03,3.342758e+03
2.218703e+03,3.363565e+03
2.219667e+03,3.357211e+03
2.220631e+03,3.340785e+03
2.221595e+03,3.326699e+03
2.222560e+03,3.316228e+03
2.223524e+03,3.314539e+03
2.224488e+03,3.315048e+03
2.225452e+03,3.310841e+03
2.226417e+03,3.306995e+03
2.227381e+03,3.308998e+03
2.228345e+03,3.313647e+03
2.229309e+03,3.312757e+03
2.230274e+03,3.308975e+03
2.231238e+03,3.305712e+03
2.232202e+03,3.302505e+03
2.233166e+03,3.300605e+03
2.234131e+03,3.303813e+03
2.235095e+03,3.315856e+03
2.236059e+03,3.326669e+03
2.237023e+03,3.315705e+03
2.237988e+03,3.300222e+03
2.238952e+03,3.291958e+03
2.239916e+03,3.284427e+03
2.240880e+03,3.272842e+03
2.241844e+03,3.259944e+03
2.242809e+03,3.243167e+03
2.243773e+03,3.234247e+03
2.244737e+03,3.249473e+03
2.245701e+03,3.269198e+03
2.246666e+03,3.281881e+03
2.247630e+03,3.282344e+03
2.248594e+03,3.262509e+03
2.249558e+03,3.243906e+03
2.250522e+03,3.249332e+03
2.251487e+03,3.257150e+03
2.252451e+03,3.253102e+03
2.253415e+03,3.244329e+03
2.254379e+03,3.247333e+03
2.255344e+03,3.244351e+03
2.256308e+03,3.228436e+03
2.257272e+03,3.208875e+03
2.258236e+03,3.184465e+03
2.259201e+03,3.177601e+03
2.260165e+03,3.195324e+03
2.261129e+03,3.216439e+03
2.262093e+03,3.227838e+03
2.263058e+03,3.225473e+03
2.264022e+03,3.209889e+03
2.264986e+03,3.198298e+03
2.265950e+03,3.199540e+03
2.266915e+03,3.207305e+03
2.267879e+03,3.221019e+03
2.268843e+03,3.219004e+03
2.269807e+03,3.191139e+03
2.270771e+03,3.163895e+03
2.271736e+03,3.144522e+03
2.272700e+03,3.144887e+03
2.273664e+03,3.168703e+03
2.274628e+03,3.181720e+03
2.275593e+03,3.161430e+03
2.276557e+03,3.149207e+03
2.277521e+03,3.153737e+03
2.278485e+03,3.159959e+03
2.279449e+03,3.161608e+03
2.280414e+03,3.159367e+03
2.281378e+03,3.153012e+03
2.282342e+03,3.147969e+03
2.283306e+03,3.145468e+03
2.284271e+03,3.140541e+03
2.285235e+03,3.132639e+03
2.286199e+03,3.123598e+03
2.287163e+03,3.116996e+03
2.288128e+03,3.124318e+03
2.289092e+03,3.140012e+03
2.290056e+03,3.135153e+03
2.291020e+03,3.102875e+03
2.291985e+03,3.088024e+03
2.292949e+03,3.092238e+03
2.293913e+03,3.098808e+03
2.294877e+03,3.104477e+03
2.295842e+03,3.113911e+03
2.296806e+03,3.124031e+03
2.297770e+03,3.123208e+03
2.298734e+03,3.113040e+03
2.299698e+03,3.104917e+03
2.300663e+03,3.100029e+03
2.301627e+03,3.096473e+03
2.302591e+03,3.090590e+03
2.303555e+03,3.074047e+03
2.304520e+03,3.052358e+03
2.305484e+03,3.049862e+03
2.306448e+03,3.058393e+03
2.307412e+03,3.061692e+03
2.308376e+03,3.061331e+03
2.309341e+03,3.069078e+03
2.310305e+03,3.076830e+03
2.311269e+03,3.076113e+03
2.312233e+03,3.070415e+03
2.313198e+03,3.053353e+03
2.314162e+03,3.038788e+03
2.315126e+03,3.048717e+03
2.316090e+03,3.062579e+03
2.317055e+03,3.058765e+03
2.318019e+03,3.050867e+03
2.318983e+03,3.050039e+03
2.319947e+03,3.047227e+03
2.320912e+03,3.034895e+03
2.321876e+03,3.025726e+03
2.322840e+03,3.033439e+03
2.323804e+03,3.036524e+03
2.324769e+03,3.024018e+03
2.325733e+03,3.011220e+03
2.326697e+03,3.003437e+03
2.327661e+03,3.005963e+03
2.328625e+03,3.020655e+03
2.329590e+03,3.028899e+03
2.330554e+03,3.020589e+03
2.331518e+03,3.009747e+03
2.332482e+03,2.997553e+03
2.333447e+03,2.992792e+03
2.334411e+03,3.004116e+03
2.335375e+03,3.010419e+03
2.336339e+03,3.010624e+03
2.337303e+03,3.009486e+03
2.338268e+03,3.008195e+03
2.339232e+03,2.998005e+03
2.340196e+03,2.982070e+03
2.341160e+03,2.976378e+03
2.342125e+03,2.985881e+03
2.343089e+03,2.992636e+03
2.344053e+03,2.992795e+03
2.345017e+03,2.986845e+03
2.345982e+03,2.976556e+03
2.346946e+03,2.964174e+03
2.347910e+03,2.954600e+03
2.348874e+03,2.956828e+03
2.349839e+03,2.963821e+03
2.350803e+03,2.960700e+03
2.351767e+03,2.953693e+03
2.352731e+03,2.954562e+03
2.353696e+03,2.959024e+03
2.354660e+03,2.954718e+03
2.355624e+03,2.946360e+03
2.356588e+03,2.945780e+03
2.357552e+03,2.947383e+03
2.358517e+03,2.945986e+03
2.359481e+03,2.943332e+03
2.360445e+03,2.937500e+03
2.361409e+03,2.934260e+03
2.362374e+03,2.940425e+03
2.363338e+03,2.940486e+03
2.364302e+03,2.916342e+03
2.365266e+03,2.899519e+03
2.366230e+03,2.896670e+03
2.367195e+03,2.898330e+03
2.368159e+03,2.899190e+03
2.369123e+03,2.897505e+03
2.370087e+03,2.895585e+03
2.371052e+03,2.894302e+03
2.372016e+03,2.893215e+03
2.372980e+03,2.898803e+03
2.373944e+03,2.909388e+03
2.374909e+03,2.913552e+03
2.375873e+03,2.907052e+03
2.376837e+03,2.901442e+03
2.377801e+03,2.896759e+03
2.378766e+03,2.891031e+03
2.379730e+03,2.883703e+03
2.380694e+03,2.864605e+03
2.381658e+03,2.842071e+03
2.382623e+03,2.833555e+03
2.383587e+03,2.835611e+03
2.384551e+03,2.839403e+03
2.385515e+03,2.842694e+03
2.386479e+03,2.844343e+03
2.387444e+03,2.846831e+03
2.388408e+03,2.857747e+03
2.389372e+03,2.868614e+03
2.390336e+03,2.869469e+03
2.391301e+03,2.862381e+03
2.392265e+03,2.839073e+03
2.393229e+03,2.820531e+03
2.394193e+03,2.822365e+03
2.395157e+03,2.825649e+03
2.396122e+03,2.819358e+03
2.397086e+03,2.812785e+03
2.398050e+03,2.809460e+03
2.399014e+03,2.811117e+03
2.399979e+03,2.820078e+03
2.400943e+03,2.821783e+03
2.401907e+03,2.812698e+03
2.402871e+03,2.811741e+03
2.403836e+03,2.824137e+03
2.404800e+03,2.828852e+03
2.405764e+03,2.823748e+03
2.406728e+03,2.807991e+03
2.407693e+03,2.784630e+03
2.408657e+03,2.782332e+03
2.409621e+03,2.796991e+03
2.410585e+03,2.799575e+03
2.411550e+03,2.791451e+03
2.412514e+03,2.775563e+03
2.413478e+03,2.759717e+03
2.414442e+03,2.774441e+03
2.415406e+03,2.792575e+03
2.416371e+03,2.780292e+03
2.417335e+03,2.760473e+03
2.418299e+03,2.768832e+03
2.419263e+03,2.778530e+03
2.420228e+03,2.773983e+03
2.421192e+03,2.766592e+03
2.422156e+03,2.766981e+03
2.423120e+03,2.772116e+03
2.424084e+03,2.780538e+03
2.425049e+03,2.775838e+03
2.426013e+03,2.742097e+03
2.426977e+03,2.730601e+03
2.427941e+03,2.747133e+03
2.428906e+03,2.755587e+03
2.429870e+03,2.742668e+03
2.430834e+03,2.737223e+03
2.431798e+03,2.738891e+03
2.432763e+03,2.737088e+03
2.433727e+03,2.730351e+03
2.434691e+03,2.722145e+03
2.435655e+03,2.715825e+03
2.436620e+03,2.720410e+03
2.437584e+03,2.730653e+03
2.438548e+03,2.737073e+03
2.439512e+03,2.738435e+03
2.440477e+03,2.732357e+03
2.441441e+03,2.721118e+03
2.442405e+03,2.705949e+03
2.443369e+03,2.699319e+03
2.444333e+03,2.709355e+03
2.445298e+03,2.717719e+03
2.446262e+03,2.701954e+03
2.447226e+03,2.691357e+03
2.448190e+03,2.692626e+03
2.449155e+03,2.693628e+03
2.450119e+03,2.688063e+03
2.451083e+03,2.684835e+03
2.452047e+03,2.682926e+03
2.453011e+03,2.678918e+03
2.453976e+03,2.672921e+03
2.454940e+03,2.672645e+03
2.455904e+03,2.677716e+03
2.456868e+03,2.681019e+03
2.457833e+03,2.680202e+03
2.458797e+03,2.671342e+03
2.459761e+03,2.663116e+03
2.460725e+03,2.667123e+03
2.461690e+03,2.674582e+03
2.462654e+03,2.676363e+03
2.463618e+03,2.669718e+03
2.464582e+03,2.651772e+03
2.465547e+03,2.642152e+03
2.466511e+03,2.665729e+03
2.467475e+03,2.679118e+03
2.468439e+03,2.672263e+03
2.469404e+03,2.661458e+03
2.470368e+03,2.661154e+03
2.471332e+03,2.651505e+03
2.472296e+03,2.631760e+03
2.473260e+03,2.617081e+03
2.474225e+03,2.612047e+03
2.475189e+03,2.615187e+03
2.476153e+03,2.624733e+03
2.477117e+03,2.626775e+03
2.478082e+03,2.624081e+03
2.479046e+03,2.637990e+03
2.480010e+03,2.649706e+03
2.480974e+03,2.628624e+03
2.481938e+03,2.603268e+03
2.482903e+03,2.618282e+03
2.483867e+03,2.633454e+03
2.484831e+03,2.625952e+03
2.485795e+03,2.612307e+03
2.486760e+03,2.606635e+03
2.487724e+03,2.598556e+03
2.488688e+03,2.587012e+03
2.489652e+03,2.583122e+03
2.490617e+03,2.595968e+03
2.491581e+03,2.599749e+03
2.492545e+03,2.597152e+03
2.493509e+03,2.597878e+03
2.494474e+03,2.601100e+03
2.495438e+03,2.596196e+03
2.496402e+03,2.588663e+03
2.497366e+03,2.595245e+03
2.498331e+03,2.605452e+03
2.499295e+03,2.596359e+03
2.500259e+03,2.580153e+03
2.501223e+03,2.569163e+03
2.502188e+03,2.564843e+03
2.503152e+03,2.576307e+03
2.504116e+03,2.579099e+03
2.505080e+03,2.565959e+03
2.506044e+03,2.552891e+03
2.507009e+03,2.544397e+03
2.507973e+03,2.550757e+03
2.508937e+03,2.570964e+03
2.509901e+03,2.574497e+03
2.510865e+03,2.551815e+03
2.511830e+03,2.542030e+03
2.512794e+03,2.541015e+03
2.513758e+03,2.547293e+03
2.514722e+03,2.555838e+03
2.515687e+03,2.545610e+03
2.516651e+03,2.529998e+03
2.517615e+03,2.521692e+03
2.518579e+03,2.520396e+03
2.519544e+03,2.532158e+03
2.520508e+03,2.541341e+03
2.521472e+03,2.543647e+03
2.522436e+03,2.538813e+03
2.523401e+03,2.520427e+03
2.524365e+03,2.505997e+03
2.525329e+03,2.494978e+03
2.526293e+03,2.498581e+03
2.527258e+03,2.523178e+03
2.528222e+03,2.516331e+03
2.529186e+03,2.490575e+03
2.530150e+03,2.487480e+03
2.531115e+03,2.501711e+03
2.532079e+03,2.509954e+03
2.533043e+03,2.511866e+03
2.534007e+03,2.506301e+03
2.534971e+03,2.497333e+03
2.535936e+03,2.494493e+03
2.536900e+03,2.491699e+03
2.537864e+03,2.486899e+03
2.538828e+03,2.478439e+03
2.539792e+03,2.456838e+03
2.540757e+03,2.454552e+03
2.541721e+03,2.474076e+03
2.542685e+03,2.482358e+03
2.543649e+03,2.478448e+03
2.544614e+03,2.482600e+03
2.545578e+03,2.490286e+03
2.546542e+03,2.490792e+03
2.547506e+03,2.487436e+03
2.548471e+03,2.485010e+03
2.549435e+03,2.483592e+03
2.550399e+03,2.484742e+03
2.551363e+03,2.484434e+03
2.552328e+03,2.479441e+03
2.553292e+03,2.478156e+03
2.554256e+03,2.486115e+03
2.555220e+03,2.481974e+03
2.556185e+03,2.461880e+03
2.557149e+03,2.454198e+03
2.558113e+03,2.462407e+03
2.559077e+03,2.455809e+03
2.560042e+03,2.438219e+03
2.561006e+03,2.434444e+03
2.561970e+03,2.441149e+03
2.562934e+03,2.437539e+03
2.563898e+03,2.434958e+03
2.564863e+03,2.451057e+03
2.565827e+03,2.460979e+03
2.566791e+03,2.442152e+03
2.567755e+03,2.429457e+03
2.568719e+03,2.428151e+03
2.569684e+03,2.429865e+03
2.570648e+03,2.434234e+03
2.571612e+03,2.432009e+03
2.572576e+03,2.426642e+03
2.573541e+03,2.423867e+03
2.574505e+03,2.421604e+03
2.575469e+03,2.420934e+03
2.576433e+03,2.418182e+03
2.577398e+03,2.409360e+03
2.578362e+03,2.400342e+03
2.579326e+03,2.397067e+03
2.580290e+03,2.403224e+03
2.581255e+03,2.420355e+03
2.582219e+03,2.426578e+03
2.583183e+03,2.396230e+03
2.584147e+03,2.373854e+03
2.585112e+03,2.365210e+03
2.586076e+03,2.370939e+03
2.587040e+03,2.389548e+03
2.588004e+03,2.401492e+03
2.588969e+03,2.405135e+03
2.589933e+03,2.401407e+03
2.590897e+03,2.394917e+03
2.591861e+03,2.394023e+03
2.592825e+03,2.393521e+03
2.593790e+03,2.389199e+03
2.594754e+03,2.381830e+03
2.595718e+03,2.370723e+03
2.596682e+03,2.361721e+03
2.597646e+03,2.354824e+03
2.598611e+03,2.351100e+03
2.599575e+03,2.352110e+03
2.600539e+03,2.354574e+03
2.601503e+03,2.357633e+03
2.602468e+03,2.363796e+03
2.603432e+03,2.368698e+03
2.604396e+03,2.363901e+03
2.605360e+03,2.358715e+03
2.606325e+03,2.361309e+03
2.607289e+03,2.360449e+03
2.608253e+03,2.351766e+03
2.609217e+03,2.341951e+03
2.610182e+03,2.328216e+03
2.611146e+03,2.324210e+03
2.612110e+03,2.329587e+03
2.613074e+03,2.332511e+03
2.614039e+03,2.333756e+03
2.615003e+03,2.344239e+03
2.615967e+03,2.354318e+03
2.616931e+03,2.355605e+03
2.617896e+03,2.350969e+03
2.618860e+03,2.335986e+03
2.619824e+03,2.327173e+03
2.620788e+03,2.330032e+03
2.621752e+03,2.330951e+03
2.622717e+03,2.322185e+03
2.623681e+03,2.319421e+03
2.624645e+03,2.321102e+03
2.625609e+03,2.311543e+03
2.626573e+03,2.294856e+03
2.627538e+03,2.320455e+03
2.628502e+03,2.351634e+03
2.629466e+03,2.325490e+03
2.630430e+03,2.284958e+03
2.631395e+03,2.287911e+03
2.632359e+03,2.294653e+03
2.633323e+03,2.292858e+03
2.634287e+03,2.289820e+03
2.635252e+03,2.288354e+03
2.636216e+03,2.293464e+03
2.637180e+03,2.303590e+03
2.638144e+03,2.303792e+03
2.639109e+03,2.296540e+03
2.640073e+03,2.292698e+03
2.641037e+03,2.291725e+03
2.642001e+03,2.283896e+03
2.642966e+03,2.279321e+03
2.643930e+03,2.284094e+03
2.644894e+03,2.287936e+03
2.645858e+03,2.282255e+03
2.646823e+03,2.279149e+03
2.647787e+03,2.277749e+03
2.648751e+03,2.279969e+03
2.649715e+03,2.284463e+03
2.650679e+03,2.286359e+03
2.651644e+03,2.281448e+03
2.652608e+03,2.259934e+03
2.653572e+03,2.238958e+03
2.654536e+03,2.253227e+03
2.655500e+03,2.263302e+03
2.656465e+03,2.253696e+03
2.657429e+03,2.244002e+03
2.658393e+03,2.238912e+03
2.659357e+03,2.239340e+03
2.660322e+03,2.246616e+03
2.661286e+03,2.245676e+03
2.662250e+03,2.238970e+03
2.663214e+03,2.233364e+03
2.664179e+03,2.229447e+03
2.665143e+03,2.227851e+03
2.666107e+03,2.231238e+03
2.667071e+03,2.241810e+03
2.668036e+03,2.250151e+03
2.669000e+03,2.245936e+03
2.669964e+03,2.247441e+03
2.670928e+03,2.252782e+03
2.671893e+03,2.247942e+03
2.672857e+03,2.235166e+03
2.673821e+03,2.217793e+03
2.674785e+03,2.203972e+03
2.675750e+03,2.203623e+03
2.676714e+03,2.210569e+03
2.677678e+03,2.222683e+03
2.678642e+03,2.226890e+03
2.679606e+03,2.220417e+03
2.680571e+03,2.216417e+03
2.681535e+03,2.216590e+03
2.682499e+03,2.215753e+03
2.683463e+03,2.211864e+03
2.684427e+03,2.203701e+03
2.685392e+03,2.197265e+03
2.686356e+03,2.207189e+03
2.687320e+03,2.212932e+03
2.688284e+03,2.195623e+03
2.689249e+03,2.184021e+03
2.690213e+03,2.183020e+03
2.691177e+03,2.182563e+03
2.692141e+03,2.182147e+03
2.693106e+03,2.182400e+03
2.694070e+03,2.182873e+03
2.695034e+03,2.180522e+03
2.695998e+03,2.177057e+03
2.696963e+03,2.172985e+03
2.697927e+03,2.176639e+03
2.698891e+03,2.190985e+03
2.699855e+03,2.197134e+03
2.700820e+03,2.185564e+03
2.701784e+03,2.180332e+03
2.702748e+03,2.179875e+03
2.703712e+03,2.162041e+03
2.704677e+03,2.136416e+03
2.705641e+03,2.145556e+03
2.706605e+03,2.164505e+03
2.707569e+03,2.155439e+03
2.708533e+03,2.150138e+03
2.709498e+03,2.163189e+03
2.710462e+03,2.172473e+03
2.711426e+03,2.169606e+03
2.712390e+03,2.167303e+03
2.713354e+03,2.165370e+03
2.714319e+03,2.162792e+03
2.715283e+03,2.159182e+03
2.716247e+03,2.153761e+03
2.717211e+03,2.149104e+03
2.718176e+03,2.146380e+03
2.719140e+03,2.148915e+03
2.720104e+03,2.163878e+03
2.721068e+03,2.160370e+03
2.722033e+03,2.136300e+03
2.722997e+03,2.119832e+03
2.723961e+03,2.113426e+03
2.724925e+03,2.131848e+03
2.725890e+03,2.154805e+03
2.726854e+03,2.148196e+03
2.727818e+03,2.140738e+03
2.728782e+03,2.146340e+03
2.729747e+03,2.150410e+03
2.730711e+03,2.147565e+03
2.731675e+03,2.134497e+03
2.732639e+03,2.114932e+03
2.733604e+03,2.100654e+03
2.734568e+03,2.091847e+03
2.735532e+03,2.091476e+03
2.736496e+03,2.093754e+03
2.737460e+03,2.095865e+03
2.738425e+03,2.096574e+03
2.739389e+03,2.092394e+03
2.740353e+03,2.097906e+03
2.741317e+03,2.115142e+03
2.742281e+03,2.119831e+03
2.743246e+03,2.114895e+03
2.744210e+03,2.102629e+03
2.745174e+03,2.091073e+03
2.746138e+03,2.099321e+03
2.747103e+03,2.107880e+03
2.748067e+03,2.110277e+03
2.749031e+03,2.108159e+03
2.749995e+03,2.097724e+03
2.750960e+03,2.092919e+03
2.751924e+03,2.093281e+03
2.752888e+03,2.098686e+03
2.753852e+03,2.101648e+03
2.754817e+03,2.078730e+03
2.755781e+03,2.061601e+03
2.756745e+03,2.069734e+03
2.757709e+03,2.075104e+03
2.758674e+03,2.066410e+03
2.759638e+03,2.066977e+03
2.760602e+03,2.079634e+03
2.761566e+03,2.079121e+03
2.762531e+03,2.071894e+03
2.763495e+03,2.059993e+03
2.764459e+03,2.055559e+03
2.765423e+03,2.089739e+03
2.766387e+03,2.098054e+03
2.767352e+03,2.069904e+03
2.768316e+03,2.061214e+03
2.769280e+03,2.082370e+03
2.770244e+03,2.071326e+03
2.771208e+03,2.043177e+03
2.772173e+03,2.026610e+03
2.773137e+03,2.019891e+03
2.774101e+03,2.026477e+03
2.775065e+03,2.041656e+03
2.776030e+03,2.067245e+03
2.776994e+03,2.077509e+03
2.777958e+03,2.071074e+03
2.778922e+03,2.054664e+03
2.779887e+03,2.037452e+03
2.780851e+03,2.041947e+03
2.781815e+03,2.047748e+03
2.782779e+03,2.043075e+03
2.783744e+03,2.034547e+03
2.784708e+03,2.022609e+03
2.785672e+03,2.011306e+03
2.786636e+03,2.001169e+03
2.787601e+03,1.990606e+03
2.788565e+03,1.986588e+03
2.789529e+03,2.018527e+03
2.790493e+03,2.048520e+03
2.791458e+03,2.037065e+03
2.792422e+03,2.017585e+03
2.793386e+03,2.001652e+03
2.794350e+03,1.999724e+03
2.795314e+03,2.012753e+03
2.796279e+03,2.013257e+03
2.797243e+03,2.009399e+03
2.798207e+03,2.021146e+03
2.799171e+03,2.032559e+03
2.800135e+03,2.015100e+03
2.801100e+03,2.002074e+03
2.802064e+03,2.002529e+03
2.803028e+03,2.014395e+03
2.803992e+03,2.030352e+03
2.804957e+03,2.019826e+03
2.805921e+03,1.998688e+03
2.806885e+03,1.992276e+03
2.807849e+03,1.996517e+03
2.808814e+03,2.008924e+03
2.809778e+03,2.010482e+03
2.810742e+03,1.988410e+03
2.811706e+03,1.983178e+03
2.812671e+03,1.987369e+03
2.813635e+03,1.976565e+03
2.814599e+03,1.960987e+03
2.815563e+03,1.963031e+03
2.816528e+03,1.972939e+03
2.817492e+03,1.991830e+03
2.818456e+03,1.995519e+03
2.819420e+03,1.982717e+03
2.820385e+03,1.979670e+03
2.821349e+03,1.985193e+03
2.822313e+03,1.972743e+03
2.823277e+03,1.959109e+03
2.824241e+03,1.956531e+03
2.825206e+03,1.955420e+03
2.826170e+03,1.951245e+03
2.827134e+03,1.954218e+03
2.828098e+03,1.962002e+03
2.829063e+03,1.958084e+03
2.830027e+03,1.950292e+03
2.830991e+03,1.964141e+03
2.831955e+03,1.977132e+03
2.832919e+03,1.956272e+03
2.833884e+03,1.954371e+03
2.834848e+03,1.975681e+03
2.835812e+03,1.981707e+03
2.836776e+03,1.970667e+03
2.837741e+03,1.956607e+03
2.838705e+03,1.947023e+03
2.839669e+03,1.950544e+03
2.840633e+03,1.953475e+03
2.841598e+03,1.948545e+03
2.842562e+03,1.943659e+03
2.843526e+03,1.942945e+03
2.844490e+03,1.948951e+03
2.845455e+03,1.956714e+03
2.846419e+03,1.962363e+03
2.847383e+03,1.962308e+03
2.848347e+03,1.943649e+03
2.849312e+03,1.935081e+03
2.850276e+03,1.940778e+03
2.851240e+03,1.940084e+03
2.852204e+03,1.931958e+03
2.853168e+03,1.931259e+03
2.854133e+03,1.936223e+03
2.855097e+03,1.953705e+03
2.856061e+03,1.958447e+03
2.857025e+03,1.941808e+03
2.857990e+03,1.923916e+03
2.858954e+03,1.911471e+03
2.859918e+03,1.897886e+03
2.860882e+03,1.894299e+03
2.861846e+03,1.921031e+03
2.862811e+03,1.942531e+03
2.863775e+03,1.918804e+03
2.864739e+03,1.906610e+03
2.865703e+03,1.920784e+03
2.866668e+03,1.919496e+03
2.867632e+03,1.909978e+03
2.868596e+03,1.921932e+03
2.869560e+03,1.937136e+03
2.870525e+03,1.934596e+03
2.871489e+03,1.934224e+03
2.872453e+03,1.940119e+03
2.873417e+03,1.929141e+03
2.874382e+03,1.903007e+03
2.875346e+03,1.892310e+03
2.876310e+03,1.889311e+03
2.877274e+03,1.869335e+03
2.878239e+03,1.867534e+03
2.879203e+03,1.894220e+03
2.880167e+03,1.904271e+03
2.881131e+03,1.885240e+03
2.882095e+03,1.909479e+03
2.883060e+03,1.947731e+03
2.884024e+03,1.951388e+03
2.884988e+03,1.941285e+03
2.885952e+03,1.934300e+03
2.886917e+03,1.922844e+03
2.887881e+03,1.907162e+03
2.888845e+03,1.909400e+03
2.889809e+03,1.920724e+03
2.890773e+03,1.917720e+03
2.891738e+03,1.907258e+03
2.892702e+03,1.898095e+03
2.893666e+03,1.891822e+03
2.894630e+03,1.888492e+03
2.895595e+03,1.882770e+03
2.896559e+03,1.876407e+03
2.897523e+03,1.883972e+03
2.898487e+03,1.898369e+03
2.899452e+03,1.922524e+03
2.900416e+03,1.921225e+03
2.901380e+03,1.890197e+03
2.902344e+03,1.885795e+03
2.903309e+03,1.910977e+03
2.904273e+03,1.909211e+03
2.905237e+03,1.887918e+03
2.906201e+03,1.848438e+03
2.907166e+03,1.836962e+03
2.908130e+03,1.872455e+03
2.909094e+03,1.894428e+03
2.910058e+03,1.891215e+03
2.911022e+03,1.874944e+03
2.911987e+03,1.861733e+03
2.912951e+03,1.868403e+03
2.913915e+03,1.874666e+03
2.914879e+03,1.863253e+03
2.915844e+03,1.862453e+03
2.916808e+03,1.871469e+03
2.917772e+03,1.856992e+03
2.918736e+03,1.840944e+03
2.919700e+03,1.864024e+03
2.920665e+03,1.877234e+03
2.921629e+03,1.826195e+03
2.922593e+03,1.817988e+03
2.923557e+03,1.847316e+03
2.924522e+03,1.855162e+03
2.925486e+03,1.849588e+03
2.926450e+03,1.857214e+03
2.927414e+03,1.860224e+03
2.928379e+03,1.847879e+03
2.929343e+03,1.839959e+03
2.930307e+03,1.836779e+03
2.931271e+03,1.835080e+03
2.932236e+03,1.831001e+03
2.933200e+03,1.804601e+03
2.934164e+03,1.791079e+03
2.935128e+03,1.802837e+03
2.936093e+03,1.815634e+03
2.937057e+03,1.826572e+03
2.938021e+03,1.846851e+03
2.938985e+03,1.864097e+03
2.939949e+03,1.848516e+03
2.940914e+03,1.829918e+03
2.941878e+03,1.820165e+03
2.942842e+03,1.814210e+03
2.943806e+03,1.808203e+03
2.944771e+03,1.816102e+03
2.945735e+03,1.831276e+03
2.946699e+03,1.848101e+03
2.947663e+03,1.855106e+03
2.948627e+03,1.847708e+03
2.949592e+03,1.840230e+03
2.950556e+03,1.837323e+03
2.951520e+03,1.837946e+03
2.952484e+03,1.836312e+03
2.953449e+03,1.829669e+03
2.954413e+03,1.816154e+03
2.955377e+03,1.796893e+03
2.956341e+03,1.797695e+03
2.957306e+03,1.816670e+03
2.958270e+03,1.829566e+03
2.959234e+03,1.827057e+03
2.960198e+03,1.807241e+03
2.961163e+03,1.791287e+03
2.962127e+03,1.784606e+03
2.963091e+03,1.774813e+03
2.964055e+03,1.765543e+03
2.965020e+03,1.779673e+03
2.965984e+03,1.798973e+03
2.966948e+03,1.806743e+03
2.967912e+03,1.814036e+03
2.968876e+03,1.829199e+03
2.969841e+03,1.806500e+03
2.970805e+03,1.773531e+03
2.971769e+03,1.788168e+03
2.972733e+03,1.811743e+03
2.973698e+03,1.816818e+03
2.974662e+03,1.809538e+03
2.975626e+03,1.790255e+03
2.976590e+03,1.780160e+03
2.977554e+03,1.773218e+03
2.978519e+03,1.755646e+03
2.979483e+03,1.751831e+03
2.980447e+03,1.786371e+03
2.981411e+03,1.792000e+03
2.982376e+03,1.766041e+03
2.983340e+03,1.767889e+03
2.984304e+03,1.775313e+03
2.985268e+03,1.765355e+03
2.986233e+03,1.759367e+03
2.987197e+03,1.774156e+03
2.988161e+03,1.765457e+03
2.989125e+03,1.743169e+03
2.990090e+03,1.743309e+03
2.991054e+03,1.749468e+03
2.992018e+03,1.747899e+03
2.992982e+03,1.744478e+03
2.993947e+03,1.742906e+03
2.994911e+03,1.755720e+03
2.995875e+03,1.769178e+03
2.996839e+03,1.755869e+03
2.997803e+03,1.739772e+03
2.998768e+03,1.739348e+03
2.999732e+03,1.729119e+03
3.000696e+03,1.708356e+03
3.001660e+03,1.706517e+03
3.002625e+03,1.709933e+03
3.003589e+03,1.705945e+03
3.004553e+03,1.700516e+03
3.005517e+03,1.697407e+03
3.006481e+03,1.713045e+03
3.007446e+03,1.738231e+03
3.008410e+03,1.746726e+03
3.009374e+03,1.740704e+03
3.010338e+03,1.725110e+03
3.011303e+03,1.716652e+03
3.012267e+03,1.717213e+03
3.013231e+03,1.720470e+03
3.014195e+03,1.724881e+03
3.015160e+03,1.733852e+03
3.016124e+03,1.730174e+03
3.017088e+03,1.709035e+03
3.018052e+03,1.715253e+03
3.019017e+03,1.745812e+03
3.019981e+03,1.724692e+03
3.020945e+03,1.699180e+03
3.021909e+03,1.711910e+03
3.022874e+03,1.719691e+03
3.023838e+03,1.713830e+03
3.024802e+03,1.737318e+03
3.025766e+03,1.768676e+03
3.026730e+03,1.730976e+03
3.027695e+03,1.704279e+03
3.028659e+03,1.724222e+03
3.029623e+03,1.739287e+03
3.030587e+03,1.741718e+03
3.031552e+03,1.730281e+03
3.032516e+03,1.717332e+03
3.033480e+03,1.724300e+03
3.034444e+03,1.723503e+03
3.035408e+03,1.713240e+03
3.036373e+03,1.727051e+03
3.037337e+03,1.748928e+03
3.038301e+03,1.721203e+03
3.039265e+03,1.693516e+03
3.040230e+03,1.690520e+03
3.041194e+03,1.702415e+03
3.042158e+03,1.719993e+03
3.043122e+03,1.720421e+03
3.044087e+03,1.708710e+03
3.045051e+03,1.678886e+03
3.046015e+03,1.672485e+03
3.046979e+03,1.706424e+03
3.047944e+03,1.687406e+03
3.048908e+03,1.657071e+03
3.049872e+03,1.682081e+03
3.050836e+03,1.708145e+03
3.051801e+03,1.695769e+03
3.052765e+03,1.700713e+03
3.053729e+03,1.716282e+03
3.054693e+03,1.679999e+03
3.055657e+03,1.654847e+03
3.056622e+03,1.682166e+03
3.057586e+03,1.702850e+03
3.058550e+03,1.699389e+03
3.059514e+03,1.674576e+03
3.060479e+03,1.651524e+03
3.061443e+03,1.671254e+03
3.062407e+03,1.679621e+03
3.063371e+03,1.663419e+03
3.064335e+03,1.657194e+03
3.065300e+03,1.665095e+03
3.066264e+03,1.694396e+03
3.067228e+03,1.710704e+03
3.068192e+03,1.684709e+03
3.069157e+03,1.672458e+03
3.070121e+03,1.676654e+03
3.071085e+03,1.678770e+03
3.072049e+03,1.680251e+03
3.073014e+03,1.689288e+03
3.073978e+03,1.694560e+03
3.074942e+03,1.692050e+03
3.075906e+03,1.679475e+03
3.076871e+03,1.662075e+03
3.077835e+03,1.642929e+03
3.078799e+03,1.640959e+03
3.079763e+03,1.675331e+03
3.080728e+03,1.686723e+03
3.081692e+03,1.678742e+03
3.082656e+03,1.677906e+03
3.083620e+03,1.677960e+03
3.084584e+03,1.675619e+03
3.085549e+03,1.682922e+03
3.086513e+03,1.702480e+03
3.087477e+03,1.717146e+03
3.088441e+03,1.715977e+03
3.089406e+03,1.682112e+03
3.090370e+03,1.669140e+03
3.091334e+03,1.681869e+03
3.092298e+03,1.687214e+03
3.093262e+03,1.683580e+03
3.094227e+03,1.661574e+03
3.095191e+03,1.655603e+03
3.096155e+03,1.680006e+03
3.097119e+03,1.684867e+03
3.098084e+03,1.676312e+03
3.099048e+03,1.668849e+03
3.100012e+03,1.664050e+03
3.100976e+03,1.662925e+03
3.101941e+03,1.667766e+03
3.102905e+03,1.674228e+03
3.103869e+03,1.653254e+03
3.104833e+03,1.637710e+03
3.105798e+03,1.648337e+03
3.106762e+03,1.664027e+03
3.107726e+03,1.679570e+03
3.108690e+03,1.688701e+03
3.109655e+03,1.689443e+03
3.110619e+03,1.679239e+03
3.111583e+03,1.662111e+03
3.112547e+03,1.642125e+03
3.113511e+03,1.621923e+03
3.114476e+03,1.615052e+03
3.115440e+03,1.678865e+03
3.116404e+03,1.711108e+03
3.117368e+03,1.667192e+03
3.118333e+03,1.655088e+03
3.119297e+03,1.652992e+03
3.120261e+03,1.614334e+03
3.121225e+03,1.593992e+03
3.122189e+03,1.621694e+03
3.123154e+03,1.649507e+03
3.124118e+03,1.664920e+03
3.125082e+03,1.649728e+03
3.126046e+03,1.639008e+03
3.127011e+03,1.648668e+03
3.127975e+03,1.648259e+03
3.128939e+03,1.636467e+03
3.129903e+03,1.623279e+03
3.130868e+03,1.612495e+03
3.131832e+03,1.603994e+03
3.132796e+03,1.608318e+03
3.133760e+03,1.621892e+03
3.134725e+03,1.623148e+03
3.135689e+03,1.625073e+03
3.136653e+03,1.641838e+03
3.137617e+03,1.642256e+03
3.138582e+03,1.617726e+03
3.139546e+03,1.603916e+03
3.140510e+03,1.602497e+03
3.141474e+03,1.621212e+03
3.142438e+03,1.634490e+03
3.143403e+03,1.636508e+03
3.144367e+03,1.603043e+03
3.145331e+03,1.571111e+03
3.146295e+03,1.622857e+03
3.147260e+03,1.656875e+03
3.148224e+03,1.643627e+03
3.149188e+03,1.629398e+03
3.150152e+03,1.619999e+03
3.151116e+03,1.615404e+03
3.152081e+03,1.630297e+03
3.153045e+03,1.667709e+03
3.154009e+03,1.665053e+03
3.154973e+03,1.642373e+03
3.155938e+03,1.647216e+03
3.156902e+03,1.639163e+03
3.157866e+03,1.607737e+03
3.158830e+03,1.593370e+03
3.159795e+03,1.606038e+03
3.160759e+03,1.678615e+03
3.161723e+03,1.724034e+03
3.162687e+03,1.676447e+03
3.163652e+03,1.639185e+03
3.164616e+03,1.626487e+03
3.165580e+03,1.656987e+03
3.166544e+03,1.686647e+03
3.167509e+03,1.697956e+03
3.168473e+03,1.689016e+03
3.169437e+03,1.664729e+03
3.170401e+03,1.618049e+03
3.171365e+03,1.596670e+03
3.172330e+03,1.624298e+03
3.173294e+03,1.629236e+03
3.174258e+03,1.623677e+03
3.175222e+03,1.647426e+03
3.176187e+03,1.657995e+03
3.177151e+03,1.627937e+03
3.178115e+03,1.619380e+03
3.179079e+03,1.635569e+03
3.180043e+03,1.679724e+03
3.181008e+03,1.693691e+03
3.181972e+03,1.663565e+03
3.182936e+03,1.629594e+03
3.183900e+03,1.608256e+03
3.184865e+03,1.652488e+03
3.185829e+03,1.688687e+03
3.186793e+03,1.676387e+03
3.187757e+03,1.628850e+03
3.188722e+03,1.582164e+03
3.189686e+03,1.616585e+03
3.190650e+03,1.649049e+03
3.191614e+03,1.645374e+03
3.192579e+03,1.652808e+03
3.193543e+03,1.665813e+03
3.194507e+03,1.646244e+03
3.195471e+03,1.621893e+03
3.196436e+03,1.600906e+03
3.197400e+03,1.579417e+03
3.198364e+03,1.575464e+03
3.199328e+03,1.622346e+03
3.200292e+03,1.657478e+03
3.201257e+03,0.000000e+00
3.202221e+03,0.000000e+00
3.203185e+03,0.000000e+00
3.204149e+03,0.000000e+00
3.205114e+03,0.000000e+00
3.206078e+03,0.000000e+00
3.207042e+03,0.000000e+00
3.208006e+03,0.000000e+00
3.208970e+03,0.000000e+00
3.209935e+03,0.000000e+00
3.210899e+03,0.000000e+00
3.211863e+03,0.000000e+00
3.212827e+03,0.000000e+00
3.213792e+03,0.000000e+00
3.214756e+03,0.000000e+00
3.215720e+03,0.000000e+00
3.216684e+03,0.000000e+00
3.217649e+03,0.000000e+00
3.218613e+03,0.000000e+00
3.219577e+03,0.000000e+00
3.220541e+03,0.000000e+00
3.221506e+03,0.000000e+00
3.222470e+03,0.000000e+00
3.223434e+03,0.000000e+00
3.224398e+03,0.000000e+00
3.225363e+03,0.000000e+00
3.226327e+03,0.000000e+00
3.227291e+03,0.000000e+00
3.228255e+03,0.000000e+00
3.229219e+03,0.000000e+00
3.230184e+03,0.000000e+00
3.231148e+03,0.000000e+00
3.232112e+03,0.000000e+00
3.233076e+03,0.000000e+00
3.234041e+03,0.000000e+00
3.235005e+03,0.000000e+00
3.235969e+03,0.000000e+00
3.236933e+03,0.000000e+00
3.237897e+03,0.000000e+00
3.238862e+03,0.000000e+00
3.239826e+03,0.000000e+00
3.240790e+03,0.000000e+00
3.241754e+03,0.000000e+00
3.242719e+03,0.000000e+00
3.243683e+03,0.000000e+00
3.244647e+03,0.000000e+00
3.245611e+03,0.000000e+00
3.246576e+03,0.000000e+00
3.247540e+03,0.000000e+00
3.248504e+03,0.000000e+00
3.249468e+03,0.000000e+00
3.250433e+03,0.000000e+00
3.251397e+03,0.000000e+00
3.252361e+03,0.000000e+00
3.253325e+03,0.000000e+00
3.254290e+03,0.000000e+00
3.255254e+03,0.000000e+00
3.256218e+03,0.000000e+00
3.257182e+03,0.000000e+00
3.258146e+03,0.000000e+00
3.259111e+03,0.000000e+00
3.260075e+03,0.000000e+00
3.261039e+03,0.000000e+00
3.262003e+03,0.000000e+00
3.262968e+03,0.000000e+00
3.263932e+03,0.000000e+00
3.264896e+03,0.000000e+00
3.265860e+03,0.000000e+00
3.266824e+03,0.000000e+00
3.267789e+03,0.000000e+00
3.268753e+03,0.000000e+00
3.269717e+03,0.000000e+00
3.270681e+03,0.000000e+00
3.271646e+03,0.000000e+00
3.272610e+03,0.000000e+00
3.273574e+03,0.000000e+00
3.274538e+03,0.000000e+00
3.275503e+03,0.000000e+00
3.276467e+03,0.000000e+00
3.277431e+03,0.000000e+00
3.278395e+03,0.000000e+00
3.279360e+03,0.000000e+00
3.280324e+03,0.000000e+00
3.281288e+03,0.000000e+00
3.282252e+03,0.000000e+00
3.283217e+03,0.000000e+00
3.284181e+03,0.000000e+00
3.285145e+03,0.000000e+00
3.286109e+03,0.000000e+00
3.287073e+03,0.000000e+00
3.288038e+03,0.000000e+00
3.289002e+03,0.000000e+00
3.289966e+03,0.000000e+00
3.290930e+03,0.000000e+00
3.291895e+03,0.000000e+00
3.292859e+03,0.000000e+00
3.293823e+03,0.000000e+00
3.294787e+03,0.000000e+00
3.295751e+03,0.000000e+00
3.296716e+03,0.000000e+00
3.297680e+03,0.000000e+00
3.298644e+03,0.000000e+00
3.299608e+03,0.000000e+00
3.300573e+03,0.000000e+00
3.301537e+03,0.000000e+00
3.302501e+03,0.000000e+00
3.303465e+03,0.000000e+00
3.304430e+03,0.000000e+00
3.305394e+03,0.000000e+00
3.306358e+03,0.000000e+00
3.307322e+03,0.000000e+00
3.308287e+03,0.000000e+00
3.309251e+03,0.000000e+00
3.310215e+03,0.000000e+00
3.311179e+03,0.000000e+00
3.312144e+03,0.000000e+00
3.313108e+03,0.000000e+00
3.314072e+03,0.000000e+00
3.315036e+03,0.000000e+00
3.316000e+03,0.000000e+00
3.316965e+03,0.000000e+00
3.317929e+03,0.000000e+00
3.318893e+03,0.000000e+00
3.319857e+03,0.000000e+00
3.320822e+03,0.000000e+00
3.321786e+03,0.000000e+00
3.322750e+03,0.000000e+00
3.323714e+03,0.000000e+00
3.324678e+03,0.000000e+00
3.325643e+03,0.000000e+00
3.326607e+03,0.000000e+00
3.327571e+03,0.000000e+00
3.328535e+03,0.000000e+00
3.329500e+03,0.000000e+00
3.330464e+03,0.000000e+00
3.331428e+03,0.000000e+00
3.332392e+03,0.000000e+00
3.333357e+03,0.000000e+00
3.334321e+03,0.000000e+00
3.335285e+03,0.000000e+00
3.336249e+03,0.000000e+00
3.337214e+03,0.000000e+00
3.338178e+03,0.000000e+00
3.339142e+03,0.000000e+00
3.340106e+03,0.000000e+00
3.341071e+03,0.000000e+00
3.342035e+03,0.000000e+00
3.342999e+03,0.000000e+00
3.343963e+03,0.000000e+00
3.344927e+03,0.000000e+00
3.345892e+03,0.000000e+00
3.346856e+03,0.000000e+00
3.347820e+03,0.000000e+00
3.348784e+03,0.000000e+00
3.349749e+03,0.000000e+00
3.350713e+03,0.000000e+00
3.351677e+03,0.000000e+00
3.352641e+03,0.000000e+00
3.353605e+03,0.000000e+00
3.354570e+03,0.000000e+00
3.355534e+03,0.000000e+00
3.356498e+03,0.000000e+00
3.357462e+03,0.000000e+00
3.358427e+03,0.000000e+00
3.359391e+03,0.000000e+00
3.360355e+03,0.000000e+00
3.361319e+03,0.000000e+00
3.362284e+03,0.000000e+00
3.363248e+03,0.000000e+00
3.364212e+03,0.000000e+00
3.365176e+03,0.000000e+00
3.366141e+03,0.000000e+00
3.367105e+03,0.000000e+00
3.368069e+03,0.000000e+00
3.369033e+03,0.000000e+00
3.369998e+03,0.000000e+00
3.370962e+03,0.000000e+00
3.371926e+03,0.000000e+00
3.372890e+03,0.000000e+00
3.373854e+03,0.000000e+00
3.374819e+03,0.000000e+00
3.375783e+03,0.000000e+00
3.376747e+03,0.000000e+00
3.377711e+03,0.000000e+00
3.378676e+03,0.000000e+00
3.379640e+03,0.000000e+00
3.380604e+03,0.000000e+00
3.381568e+03,0.000000e+00
3.382532e+03,0.000000e+00
3.383497e+03,0.000000e+00
3.384461e+03,0.000000e+00
3.385425e+03,0.000000e+00
3.386389e+03,0.000000e+00
3.387354e+03,0.000000e+00
3.388318e+03,0.000000e+00
3.389282e+03,0.000000e+00
3.390246e+03,0.000000e+00
3.391211e+03,0.000000e+00
3.392175e+03,0.000000e+00
3.393139e+03,0.000000e+00
3.394103e+03,0.000000e+00
3.395068e+03,0.000000e+00
3.396032e+03,0.000000e+00
3.396996e+03,0.000000e+00
3.397960e+03,0.000000e+00
3.398925e+03,0.000000e+00
3.399889e+03,0.000000e+00
3.400853e+03,0.000000e+00
3.401817e+03,0.000000e+00
3.402781e+03,0.000000e+00
3.403746e+03,0.000000e+00
3.404710e+03,0.000000e+00
3.405674e+03,0.000000e+00
3.406638e+03,0.000000e+00
3.407603e+03,0.000000e+00
3.408567e+03,0.000000e+00
3.409531e+03,0.000000e+00
3.410495e+03,0.000000e+00
3.411459e+03,0.000000e+00
3.412424e+03,0.000000e+00
3.413388e+03,0.000000e+00
3.414352e+03,0.000000e+00
3.415316e+03,0.000000e+00
3.416281e+03,0.000000e+00
3.417245e+03,0.000000e+00
3.418209e+03,0.000000e+00
3.419173e+03,0.000000e+00
3.420138e+03,0.000000e+00
3.421102e+03,0.000000e+00
3.422066e+03,0.000000e+00
3.423030e+03,0.000000e+00
3.423995e+03,0.000000e+00
3.424959e+03,0.000000e+00
3.425923e+03,0.000000e+00
3.426887e+03,0.000000e+00
3.427852e+03,0.000000e+00
3.428816e+03,0.000000e+00
3.429780e+03,0.000000e+00
3.430744e+03,0.000000e+00
3.431708e+03,0.000000e+00
3.432673e+03,0.000000e+00
3.433637e+03,0.000000e+00
3.434601e+03,0.000000e+00
3.435565e+03,0.000000e+00
3.436530e+03,0.000000e+00
3.437494e+03,0.000000e+00
3.438458e+03,0.000000e+00
3.439422e+03,0.000000e+00
3.440386e+03,0.000000e+00
3.441351e+03,0.000000e+00
3.442315e+03,0.000000e+00
3.443279e+03,0.000000e+00
3.444243e+03,0.000000e+00
3.445208e+03,0.000000e+00
3.446172e+03,0.000000e+00
3.447136e+03,0.000000e+00
3.448100e+03,0.000000e+00
3.449065e+03,0.000000e+00
3.450029e+03,0.000000e+00
3.450993e+03,0.000000e+00
3.451957e+03,0.000000e+00
3.452922e+03,0.000000e+00
3.453886e+03,0.000000e+00
3.454850e+03,0.000000e+00
3.455814e+03,0.000000e+00
3.456779e+03,0.000000e+00
3.457743e+03,0.000000e+00
3.458707e+03,0.000000e+00
3.459671e+03,0.000000e+00
3.460635e+03,0.000000e+00
3.461600e+03,0.000000e+00
3.462564e+03,0.000000e+00
3.463528e+03,0.000000e+00
3.464492e+03,0.000000e+00
3.465457e+03,0.000000e+00
3.466421e+03,0.000000e+00
3.467385e+03,0.000000e+00
3.468349e+03,0.000000e+00
3.469313e+03,0.000000e+00
3.470278e+03,0.000000e+00
3.471242e+03,0.000000e+00
3.472206e+03,0.000000e+00
3.473170e+03,0.000000e+00
3.474135e+03,0.000000e+00
3.475099e+03,0.000000e+00
3.476063e+03,0.000000e+00
3.477027e+03,0.000000e+00
3.477992e+03,0.000000e+00
3.478956e+03,0.000000e+00
3.479920e+03,0.000000e+00
3.480884e+03,0.000000e+00
3.481849e+03,0.000000e+00
3.482813e+03,0.000000e+00
3.483777e+03,0.000000e+00
3.484741e+03,0.000000e+00
3.485706e+03,0.000000e+00
3.486670e+03,0.000000e+00
3.487634e+03,0.000000e+00
3.488598e+03,0.000000e+00
3.489563e+03,0.000000e+00
3.490527e+03,0.000000e+00
3.491491e+03,0.000000e+00
3.492455e+03,0.000000e+00
3.493419e+03,0.000000e+00
3.494384e+03,0.000000e+00
3.495348e+03,0.000000e+00
3.496312e+03,0.000000e+00
3.497276e+03,0.000000e+00
3.498240e+03,0.000000e+00
3.499205e+03,0.000000e+00
3.500169e+03,0.000000e+00
