9.931763e+01,0.000000e+00
1.002819e+02,0.000000e+00
1.012461e+02,0.000000e+00
1.022103e+02,0.000000e+00
1.031746e+02,0.000000e+00
1.041388e+02,0.000000e+00
1.051030e+02,0.000000e+00
1.060673e+02,0.000000e+00
1.070315e+02,0.000000e+00
1.079957e+02,0.000000e+00
1.089600e+02,0.000000e+00
1.099242e+02,0.000000e+00
1.108884e+02,0.000000e+00
1.118527e+02,0.000000e+00
1.128169e+02,0.000000e+00
1.137811e+02,0.000000e+00
1.147454e+02,0.000000e+00
1.157096e+02,0.000000e+00
1.166738e+02,0.000000e+00
1.176381e+02,0.000000e+00
1.186023e+02,0.000000e+00
1.195665e+02,0.000000e+00
1.205308e+02,0.000000e+00
1.214950e+02,0.000000e+00
1.224592e+02,0.000000e+00
1.234235e+02,0.000000e+00
1.243877e+02,0.000000e+00
1.253519e+02,0.000000e+00
1.263162e+02,0.000000e+00
1.272804e+02,0.000000e+00
1.282446e+02,0.000000e+00
1.292089e+02,0.000000e+00
1.301731e+02,0.000000e+00
1.311373e+02,0.000000e+00
1.321016e+02,0.000000e+00
1.330658e+02,0.000000e+00
1.340300e+02,0.000000e+00
1.349943e+02,0.000000e+00
1.359585e+02,0.000000e+00
1.369227e+02,0.000000e+00
1.378870e+02,0.000000e+00
1.388512e+02,0.000000e+00
1.398154e+02,0.000000e+00
1.407797e+02,0.000000e+00
1.417439e+02,0.000000e+00
1.427081e+02,0.000000e+00
1.436724e+02,0.000000e+00
1.446366e+02,0.000000e+00
1.456008e+02,0.000000e+00
1.465651e+02,0.000000e+00
1.475293e+02,0.000000e+00
1.484935e+02,0.000000e+00
1.494578e+02,0.000000e+00
1.504220e+02,0.000000e+00
1.513862e+02,0.000000e+00
1.523505e+02,0.000000e+00
1.533147e+02,0.000000e+00
1.542789e+02,0.000000e+00
1.552432e+02,0.000000e+00
1.562074e+02,0.000000e+00
1.571716e+02,0.000000e+00
1.581359e+02,0.000000e+00
1.591001e+02,0.000000e+00
1.600643e+02,0.000000e+00
1.610286e+02,0.000000e+00
1.619928e+02,0.000000e+00
1.629570e+02,0.000000e+00
1.639213e+02,0.000000e+00
1.648855e+02,0.000000e+00
1.658497e+02,0.000000e+00
1.668140e+02,0.000000e+00
1.677782e+02,0.000000e+00
1.687424e+02,0.000000e+00
1.697067e+02,0.000000e+00
1.706709e+02,0.000000e+00
1.716351e+02,0.000000e+00
1.725994e+02,0.000000e+00
1.735636e+02,0.000000e+00
1.745278e+02,0.000000e+00
1.754921e+02,0.000000e+00
1.764563e+02,0.000000e+00
1.774205e+02,0.000000e+00
1.783848e+02,0.000000e+00
1.793490e+02,0.000000e+00
1.803132e+02,0.000000e+00
1.812775e+02,0.000000e+00
1.822417e+02,0.000000e+00
1.832059e+02,0.000000e+00
1.841702e+02,0.000000e+00
1.851344e+02,0.000000e+00
1.860986e+02,0.000000e+00
1.870629e+02,0.000000e+00
1.880271e+02,0.000000e+00
1.889913e+02,0.000000e+00
1.899556e+02,0.000000e+00
1.909198e+02,0.000000e+00
1.918840e+02,0.000000e+00
1.928483e+02,0.000000e+00
1.938125e+02,0.000000e+00
1.947767e+02,0.000000e+00
1.957410e+02,0.000000e+00
1.967052e+02,0.000000e+00
1.976694e+02,0.000000e+00
1.986337e+02,0.000000e+00
1.995979e+02,1.459257e+03
2.005621e+02,1.464281e+03
2.015264e+02,1.468222e+03
2.024906e+02,1.469642e+03
2.034548e+02,1.471074e+03
2.044191e+02,1.473312e+03
2.053833e+02,1.475794e+03
2.063475e+02,1.477222e+03
2.073118e+02,1.475823e+03
2.082760e+02,1.470142e+03
2.092402e+02,1.466183e+03
2.102045e+02,1.465600e+03
2.111687e+02,1.467093e+03
2.121329e+02,1.469823e+03
2.130972e+02,1.473422e+03
2.140614e+02,1.477155e+03
2.150256e+02,1.479775e+03
2.159899e+02,1.480975e+03
2.169541e+02,1.481740e+03
2.179183e+02,1.482746e+03
2.188826e+02,1.483778e+03
2.198468e+02,1.484593e+03
2.208110e+02,1.484749e+03
2.217753e+02,1.484088e+03
2.227395e+02,1.483447e+03
2.237037e+02,1.484685e+03
2.246680e+02,1.485920e+03
2.256322e+02,1.484901e+03
2.265964e+02,1.480510e+03
2.275607e+02,1.475748e+03
2.285249e+02,1.473801e+03
2.294892e+02,1.474981e+03
2.304534e+02,1.477615e+03
2.314176e+02,1.479946e+03
2.323819e+02,1.481889e+03
2.333461e+02,1.484801e+03
2.343103e+02,1.491625e+03
2.352746e+02,1.499803e+03
2.362388e+02,1.503641e+03
2.372030e+02,1.500385e+03
2.381673e+02,1.493164e+03
2.391315e+02,1.488920e+03
2.400957e+02,1.489800e+03
2.410600e+02,1.491809e+03
2.420242e+02,1.493895e+03
2.429884e+02,1.496457e+03
2.439527e+02,1.500068e+03
2.449169e+02,1.505173e+03
2.458811e+02,1.511862e+03
2.468454e+02,1.514548e+03
2.478096e+02,1.509274e+03
2.487738e+02,1.502907e+03
2.497381e+02,1.500301e+03
2.507023e+02,1.502381e+03
2.516665e+02,1.506934e+03
2.526308e+02,1.510340e+03
2.535950e+02,1.511060e+03
2.545592e+02,1.511036e+03
2.555235e+02,1.510668e+03
2.564877e+02,1.509960e+03
2.574519e+02,1.508833e+03
2.584161e+02,1.507206e+03
2.593804e+02,1.505502e+03
2.603446e+02,1.505896e+03
2.613088e+02,1.509884e+03
2.622731e+02,1.514001e+03
2.632373e+02,1.517656e+03
2.642015e+02,1.520311e+03
2.651658e+02,1.521511e+03
2.661300e+02,1.520366e+03
2.670942e+02,1.516541e+03
2.680585e+02,1.515133e+03
2.690227e+02,1.520279e+03
2.699869e+02,1.526564e+03
2.709512e+02,1.529962e+03
2.719154e+02,1.529211e+03
2.728796e+02,1.526345e+03
2.738439e+02,1.523583e+03
2.748081e+02,1.520975e+03
2.757723e+02,1.520021e+03
2.767366e+02,1.521229e+03
2.777008e+02,1.523443e+03
2.786650e+02,1.525127e+03
2.796293e+02,1.525848e+03
2.805935e+02,1.526386e+03
2.815577e+02,1.527969e+03
2.825220e+02,1.531057e+03
2.834862e+02,1.534162e+03
2.844504e+02,1.534703e+03
2.854147e+02,1.531735e+03
2.863789e+02,1.528881e+03
2.873431e+02,1.527565e+03
2.883074e+02,1.527642e+03
2.892716e+02,1.528191e+03
2.902358e+02,1.528323e+03
2.912001e+02,1.527838e+03
2.921643e+02,1.528364e+03
2.931285e+02,1.531427e+03
2.940928e+02,1.534652e+03
2.950570e+02,1.536806e+03
2.960212e+02,1.537585e+03
2.969855e+02,1.537460e+03
2.979497e+02,1.537041e+03
2.989139e+02,1.536066e+03
2.998782e+02,1.536440e+03
3.008424e+02,1.540877e+03
3.018066e+02,1.546096e+03
3.027709e+02,1.549044e+03
3.037351e+02,1.548136e+03
3.046993e+02,1.544783e+03
3.056636e+02,1.541547e+03
3.066278e+02,1.538219e+03
3.075920e+02,1.536344e+03
3.085563e+02,1.537238e+03
3.095205e+02,1.540368e+03
3.104847e+02,1.543948e+03
3.114490e+02,1.546649e+03
3.124132e+02,1.548731e+03
3.133774e+02,1.551464e+03
3.143417e+02,1.555393e+03
3.153059e+02,1.558619e+03
3.162701e+02,1.558820e+03
3.172344e+02,1.555247e+03
3.181986e+02,1.552594e+03
3.191628e+02,1.552946e+03
3.201271e+02,1.555290e+03
3.210913e+02,1.557482e+03
3.220555e+02,1.558313e+03
3.230198e+02,1.558052e+03
3.239840e+02,1.559328e+03
3.249482e+02,1.564393e+03
3.259125e+02,1.568484e+03
3.268767e+02,1.569802e+03
3.278409e+02,1.568859e+03
3.288052e+02,1.567258e+03
3.297694e+02,1.566550e+03
3.307336e+02,1.567144e+03
3.316979e+02,1.566159e+03
3.326621e+02,1.560251e+03
3.336263e+02,1.554692e+03
3.345906e+02,1.552672e+03
3.355548e+02,1.555433e+03
3.365190e+02,1.560408e+03
3.374833e+02,1.564908e+03
3.384475e+02,1.568811e+03
3.394117e+02,1.572077e+03
3.403760e+02,1.574331e+03
3.413402e+02,1.575409e+03
3.423044e+02,1.575249e+03
3.432687e+02,1.570809e+03
3.442329e+02,1.566776e+03
3.451971e+02,1.568367e+03
3.461614e+02,1.575299e+03
3.471256e+02,1.581827e+03
3.480898e+02,1.583777e+03
3.490541e+02,1.580015e+03
3.500183e+02,1.576387e+03
3.509825e+02,1.572273e+03
3.519468e+02,1.569361e+03
3.529110e+02,1.569054e+03
3.538752e+02,1.571370e+03
3.548395e+02,1.574767e+03
3.558037e+02,1.576976e+03
3.567680e+02,1.577089e+03
3.577322e+02,1.577578e+03
3.586964e+02,1.579380e+03
3.596607e+02,1.582137e+03
3.606249e+02,1.585120e+03
3.615891e+02,1.587836e+03
3.625534e+02,1.589308e+03
3.635176e+02,1.587995e+03
3.644818e+02,1.583319e+03
3.654461e+02,1.578750e+03
3.664103e+02,1.576936e+03
3.673745e+02,1.578185e+03
3.683388e+02,1.581002e+03
3.693030e+02,1.584134e+03
3.702672e+02,1.587650e+03
3.712315e+02,1.592590e+03
3.721957e+02,1.599330e+03
3.731599e+02,1.605880e+03
3.741242e+02,1.609697e+03
3.750884e+02,1.609511e+03
3.760526e+02,1.609949e+03
3.770169e+02,1.611489e+03
3.779811e+02,1.613364e+03
3.789453e+02,1.614790e+03
3.799096e+02,1.615391e+03
3.808738e+02,1.614846e+03
3.818380e+02,1.612340e+03
3.828023e+02,1.607580e+03
3.837665e+02,1.602575e+03
3.847307e+02,1.596434e+03
3.856950e+02,1.590127e+03
3.866592e+02,1.585879e+03
3.876234e+02,1.585885e+03
3.885877e+02,1.588842e+03
3.895519e+02,1.591000e+03
3.905161e+02,1.591697e+03
3.914804e+02,1.591786e+03
3.924446e+02,1.592671e+03
3.934088e+02,1.595272e+03
3.943731e+02,1.596695e+03
3.953373e+02,1.594937e+03
3.963015e+02,1.591696e+03
3.972658e+02,1.589667e+03
3.982300e+02,1.590137e+03
3.991942e+02,1.592399e+03
4.001585e+02,1.593099e+03
4.011227e+02,1.587326e+03
4.020869e+02,1.584495e+03
4.030512e+02,1.587069e+03
4.040154e+02,1.592491e+03
4.049796e+02,1.597436e+03
4.059439e+02,1.599712e+03
4.069081e+02,1.600009e+03
4.078723e+02,1.601100e+03
4.088366e+02,1.603268e+03
4.098008e+02,1.604509e+03
4.107650e+02,1.604066e+03
4.117293e+02,1.602276e+03
4.126935e+02,1.600684e+03
4.136577e+02,1.598866e+03
4.146220e+02,1.597758e+03
4.155862e+02,1.599575e+03
4.165504e+02,1.605145e+03
4.175147e+02,1.611789e+03
4.184789e+02,1.615157e+03
4.194431e+02,1.611785e+03
4.204074e+02,1.608934e+03
4.213716e+02,1.606635e+03
4.223358e+02,1.604872e+03
4.233001e+02,1.603680e+03
4.242643e+02,1.603227e+03
4.252285e+02,1.603497e+03
4.261928e+02,1.604055e+03
4.271570e+02,1.604583e+03
4.281212e+02,1.606540e+03
4.290855e+02,1.612151e+03
4.300497e+02,1.619400e+03
4.310139e+02,1.623934e+03
4.319782e+02,1.622324e+03
4.329424e+02,1.618735e+03
4.339066e+02,1.617937e+03
4.348709e+02,1.620129e+03
4.358351e+02,1.622719e+03
4.367993e+02,1.623252e+03
4.377636e+02,1.620663e+03
4.387278e+02,1.619002e+03
4.396920e+02,1.619862e+03
4.406563e+02,1.620998e+03
4.416205e+02,1.620284e+03
4.425847e+02,1.617152e+03
4.435490e+02,1.613406e+03
4.445132e+02,1.611791e+03
4.454774e+02,1.612960e+03
4.464417e+02,1.614366e+03
4.474059e+02,1.615148e+03
4.483701e+02,1.615417e+03
4.493344e+02,1.615618e+03
4.502986e+02,1.615843e+03
4.512628e+02,1.616619e+03
4.522271e+02,1.618656e+03
4.531913e+02,1.621675e+03
4.541555e+02,1.624538e+03
4.551198e+02,1.626689e+03
4.560840e+02,1.628201e+03
4.570482e+02,1.627449e+03
4.580125e+02,1.622919e+03
4.589767e+02,1.619054e+03
4.599409e+02,1.616832e+03
4.609052e+02,1.615783e+03
4.618694e+02,1.615108e+03
4.628336e+02,1.614871e+03
4.637979e+02,1.615046e+03
4.647621e+02,1.614208e+03
4.657263e+02,1.612192e+03
4.666906e+02,1.610329e+03
4.676548e+02,1.609008e+03
4.686190e+02,1.607589e+03
4.695833e+02,1.607554e+03
4.705475e+02,1.609500e+03
4.715117e+02,1.612855e+03
4.724760e+02,1.617677e+03
4.734402e+02,1.624323e+03
4.744044e+02,1.631107e+03
4.753687e+02,1.633673e+03
4.763329e+02,1.628576e+03
4.772971e+02,1.624520e+03
4.782614e+02,1.621371e+03
4.792256e+02,1.620410e+03
4.801898e+02,1.623265e+03
4.811541e+02,1.632067e+03
4.821183e+02,1.643456e+03
4.830826e+02,1.653782e+03
4.840468e+02,1.663005e+03
4.850110e+02,1.668985e+03
4.859753e+02,1.669674e+03
4.869395e+02,1.664518e+03
4.879037e+02,1.662113e+03
4.888680e+02,1.666363e+03
4.898322e+02,1.670386e+03
4.907964e+02,1.670302e+03
4.917607e+02,1.666310e+03
4.927249e+02,1.661000e+03
4.936891e+02,1.656572e+03
4.946534e+02,1.653038e+03
4.956176e+02,1.649138e+03
4.965818e+02,1.643937e+03
4.975461e+02,1.639426e+03
4.985103e+02,1.637268e+03
4.994745e+02,1.637811e+03
5.004388e+02,1.637650e+03
5.014030e+02,1.635421e+03
5.023672e+02,1.632074e+03
5.033315e+02,1.628523e+03
5.042957e+02,1.624816e+03
5.052599e+02,1.621540e+03
5.062242e+02,1.620596e+03
5.071884e+02,1.624383e+03
5.081526e+02,1.627620e+03
5.091169e+02,1.630262e+03
5.100811e+02,1.632327e+03
5.110453e+02,1.633350e+03
5.120095e+02,1.632708e+03
5.129738e+02,1.631897e+03
5.139380e+02,1.633054e+03
5.149022e+02,1.636199e+03
5.158665e+02,1.639203e+03
5.168307e+02,1.640466e+03
5.177949e+02,1.639198e+03
5.187592e+02,1.636762e+03
5.197234e+02,1.635024e+03
5.206876e+02,1.633024e+03
5.216519e+02,1.629760e+03
5.226161e+02,1.625828e+03
5.235803e+02,1.622673e+03
5.245446e+02,1.621536e+03
5.255088e+02,1.622173e+03
5.264730e+02,1.623121e+03
5.274373e+02,1.624676e+03
5.284015e+02,1.625948e+03
5.293657e+02,1.625892e+03
5.303300e+02,1.624659e+03
5.312942e+02,1.622273e+03
5.322584e+02,1.618297e+03
5.332227e+02,1.614520e+03
5.341869e+02,1.612137e+03
5.351511e+02,1.611113e+03
5.361154e+02,1.610919e+03
5.370796e+02,1.611387e+03
5.380438e+02,1.612999e+03
5.390081e+02,1.614239e+03
5.399723e+02,1.614137e+03
5.409365e+02,1.614372e+03
5.419008e+02,1.616294e+03
5.428650e+02,1.620708e+03
5.438292e+02,1.624327e+03
5.447935e+02,1.624737e+03
5.457577e+02,1.623185e+03
5.467219e+02,1.622578e+03
5.476862e+02,1.624368e+03
5.486504e+02,1.627206e+03
5.496146e+02,1.627003e+03
5.505789e+02,1.621419e+03
5.515431e+02,1.616187e+03
5.525073e+02,1.612692e+03
5.534716e+02,1.611281e+03
5.544358e+02,1.611650e+03
5.554000e+02,1.614466e+03
5.563643e+02,1.617512e+03
5.573285e+02,1.618372e+03
5.582927e+02,1.617115e+03
5.592570e+02,1.615284e+03
5.602212e+02,1.613547e+03
5.611854e+02,1.611807e+03
5.621497e+02,1.613740e+03
5.631139e+02,1.626311e+03
5.640781e+02,1.635228e+03
5.650424e+02,1.635071e+03
5.660066e+02,1.627759e+03
5.669708e+02,1.620225e+03
5.679351e+02,1.616180e+03
5.688993e+02,1.614765e+03
5.698635e+02,1.614609e+03
5.708278e+02,1.615821e+03
5.717920e+02,1.617934e+03
5.727562e+02,1.620143e+03
5.737205e+02,1.621892e+03
5.746847e+02,1.624259e+03
5.756489e+02,1.627865e+03
5.766132e+02,1.631123e+03
5.775774e+02,1.633429e+03
5.785416e+02,1.634742e+03
5.795059e+02,1.635283e+03
5.804701e+02,1.634944e+03
5.814343e+02,1.633926e+03
5.823986e+02,1.632700e+03
5.833628e+02,1.631269e+03
5.843270e+02,1.630369e+03
5.852913e+02,1.630929e+03
5.862555e+02,1.634725e+03
5.872197e+02,1.637317e+03
5.881840e+02,1.638479e+03
5.891482e+02,1.638313e+03
5.901124e+02,1.636333e+03
5.910767e+02,1.632024e+03
5.920409e+02,1.628353e+03
5.930051e+02,1.629776e+03
5.939694e+02,1.634957e+03
5.949336e+02,1.636526e+03
5.958978e+02,1.631379e+03
5.968621e+02,1.622699e+03
5.978263e+02,1.617933e+03
5.987905e+02,1.619033e+03
5.997548e+02,1.622588e+03
6.007190e+02,1.630894e+03
6.016832e+02,1.640955e+03
6.026475e+02,1.649160e+03
6.036117e+02,1.653851e+03
6.045759e+02,1.655761e+03
6.055402e+02,1.655313e+03
6.065044e+02,1.652409e+03
6.074686e+02,1.647842e+03
6.084329e+02,1.641678e+03
6.093971e+02,1.634814e+03
6.103613e+02,1.630906e+03
6.113256e+02,1.633995e+03
6.122899e+02,1.635962e+03
6.132541e+02,1.634270e+03
6.142183e+02,1.630596e+03
6.151826e+02,1.628010e+03
6.161468e+02,1.629668e+03
6.171110e+02,1.632637e+03
6.180753e+02,1.632340e+03
6.190395e+02,1.629004e+03
6.200037e+02,1.626337e+03
6.209680e+02,1.626914e+03
6.219322e+02,1.630680e+03
6.228964e+02,1.631708e+03
6.238607e+02,1.625972e+03
6.248249e+02,1.621454e+03
6.257891e+02,1.620512e+03
6.267534e+02,1.622047e+03
6.277176e+02,1.623696e+03
6.286818e+02,1.625023e+03
6.296461e+02,1.626571e+03
6.306103e+02,1.629235e+03
6.315745e+02,1.632918e+03
6.325388e+02,1.635978e+03
6.335030e+02,1.636473e+03
6.344672e+02,1.634006e+03
6.354315e+02,1.633705e+03
6.363957e+02,1.637820e+03
6.373599e+02,1.640693e+03
6.383242e+02,1.639389e+03
6.392884e+02,1.634568e+03
6.402526e+02,1.630391e+03
6.412169e+02,1.629145e+03
6.421811e+02,1.628365e+03
6.431453e+02,1.624888e+03
6.441096e+02,1.618997e+03
6.450738e+02,1.614098e+03
6.460380e+02,1.614613e+03
6.470023e+02,1.621076e+03
6.479665e+02,1.624601e+03
6.489307e+02,1.622836e+03
6.498950e+02,1.620478e+03
6.508592e+02,1.621542e+03
6.518234e+02,1.626187e+03
6.527877e+02,1.629260e+03
6.537519e+02,1.629924e+03
6.547161e+02,1.629073e+03
6.556804e+02,1.626377e+03
6.566446e+02,1.622353e+03
6.576088e+02,1.619442e+03
6.585731e+02,1.620832e+03
6.595373e+02,1.625656e+03
6.605015e+02,1.628963e+03
6.614658e+02,1.630409e+03
6.624300e+02,1.630080e+03
6.633942e+02,1.627609e+03
6.643585e+02,1.620931e+03
6.653227e+02,1.617295e+03
6.662869e+02,1.618025e+03
6.672512e+02,1.620204e+03
6.682154e+02,1.622784e+03
6.691796e+02,1.625283e+03
6.701439e+02,1.626338e+03
6.711081e+02,1.623063e+03
6.720723e+02,1.618018e+03
6.730366e+02,1.617381e+03
6.740008e+02,1.622527e+03
6.749650e+02,1.629219e+03
6.759293e+02,1.632495e+03
6.768935e+02,1.631526e+03
6.778577e+02,1.630234e+03
6.788220e+02,1.629017e+03
6.797862e+02,1.628088e+03
6.807504e+02,1.626345e+03
6.817147e+02,1.622729e+03
6.826789e+02,1.621338e+03
6.836431e+02,1.626675e+03
6.846074e+02,1.632919e+03
6.855716e+02,1.633409e+03
6.865358e+02,1.627375e+03
6.875001e+02,1.619705e+03
6.884643e+02,1.615753e+03
6.894285e+02,1.615559e+03
6.903928e+02,1.615921e+03
6.913570e+02,1.616460e+03
6.923212e+02,1.617064e+03
6.932855e+02,1.617974e+03
6.942497e+02,1.620668e+03
6.952139e+02,1.622019e+03
6.961782e+02,1.619101e+03
6.971424e+02,1.616363e+03
6.981066e+02,1.617293e+03
6.990709e+02,1.621946e+03
7.000351e+02,1.626066e+03
7.009993e+02,1.627375e+03
7.019636e+02,1.626952e+03
7.029278e+02,1.626073e+03
7.038920e+02,1.624814e+03
7.048563e+02,1.622890e+03
7.058205e+02,1.620395e+03
7.067847e+02,1.617967e+03
7.077490e+02,1.614890e+03
7.087132e+02,1.609365e+03
7.096774e+02,1.606214e+03
7.106417e+02,1.608746e+03
7.116059e+02,1.618479e+03
7.125701e+02,1.625598e+03
7.135344e+02,1.627719e+03
7.144986e+02,1.626606e+03
7.154628e+02,1.622111e+03
7.164271e+02,1.614480e+03
7.173913e+02,1.607474e+03
7.183555e+02,1.605102e+03
7.193198e+02,1.606624e+03
7.202840e+02,1.608966e+03
7.212482e+02,1.612221e+03
7.222125e+02,1.615711e+03
7.231767e+02,1.618703e+03
7.241409e+02,1.621489e+03
7.251052e+02,1.621611e+03
7.260694e+02,1.615862e+03
7.270336e+02,1.609833e+03
7.279979e+02,1.607107e+03
7.289621e+02,1.608017e+03
7.299263e+02,1.609298e+03
7.308906e+02,1.608810e+03
7.318548e+02,1.608099e+03
7.328190e+02,1.609856e+03
7.337833e+02,1.614050e+03
7.347475e+02,1.617505e+03
7.357117e+02,1.617080e+03
7.366760e+02,1.613379e+03
7.376402e+02,1.609714e+03
7.386044e+02,1.606178e+03
7.395687e+02,1.602997e+03
7.405329e+02,1.599752e+03
7.414971e+02,1.595658e+03
7.424614e+02,1.594454e+03
7.434256e+02,1.599372e+03
7.443898e+02,1.605709e+03
7.453541e+02,1.611107e+03
7.463183e+02,1.614547e+03
7.472825e+02,1.615999e+03
7.482468e+02,1.614336e+03
7.492110e+02,1.611613e+03
7.501752e+02,1.610824e+03
7.511395e+02,1.612468e+03
7.521037e+02,1.614680e+03
7.530679e+02,1.615680e+03
7.540322e+02,1.615043e+03
7.549964e+02,1.612186e+03
7.559606e+02,1.606765e+03
7.569249e+02,1.601599e+03
7.578891e+02,1.598406e+03
7.588533e+02,1.597402e+03
7.598176e+02,1.597522e+03
7.607818e+02,1.597145e+03
7.617460e+02,1.596862e+03
7.627103e+02,1.598686e+03
7.636745e+02,1.602172e+03
7.646387e+02,1.603961e+03
7.656030e+02,1.600777e+03
7.665672e+02,1.596753e+03
7.675314e+02,1.594726e+03
7.684957e+02,1.593426e+03
7.694599e+02,1.591076e+03
7.704241e+02,1.587131e+03
7.713884e+02,1.582991e+03
7.723526e+02,1.580822e+03
7.733168e+02,1.580909e+03
7.742811e+02,1.584113e+03
7.752453e+02,1.590762e+03
7.762095e+02,1.599560e+03
7.771738e+02,1.606403e+03
7.781380e+02,1.611843e+03
7.791022e+02,1.613132e+03
7.800665e+02,1.607938e+03
7.810307e+02,1.599528e+03
7.819949e+02,1.593020e+03
7.829592e+02,1.591632e+03
7.839234e+02,1.591388e+03
7.848876e+02,1.589875e+03
7.858519e+02,1.587762e+03
7.868161e+02,1.586368e+03
7.877803e+02,1.586252e+03
7.887446e+02,1.587002e+03
7.897088e+02,1.588250e+03
7.906730e+02,1.590651e+03
7.916373e+02,1.595827e+03
7.926015e+02,1.604454e+03
7.935657e+02,1.612160e+03
7.945300e+02,1.611191e+03
7.954942e+02,1.597626e+03
7.964584e+02,1.587315e+03
7.974227e+02,1.585487e+03
7.983869e+02,1.588481e+03
7.993511e+02,1.589997e+03
8.003154e+02,1.588292e+03
8.012796e+02,1.585407e+03
8.022438e+02,1.580301e+03
8.032081e+02,1.576258e+03
8.041723e+02,1.576482e+03
8.051365e+02,1.581567e+03
8.061008e+02,1.587473e+03
8.070650e+02,1.591990e+03
8.080292e+02,1.594544e+03
8.089935e+02,1.594407e+03
8.099577e+02,1.591983e+03
8.109219e+02,1.589057e+03
8.118862e+02,1.587370e+03
8.128504e+02,1.586859e+03
8.138146e+02,1.585379e+03
8.147789e+02,1.581951e+03
8.157431e+02,1.579171e+03
8.167073e+02,1.580020e+03
8.176716e+02,1.586436e+03
8.186358e+02,1.590273e+03
8.196000e+02,1.589416e+03
8.205643e+02,1.587668e+03
8.215285e+02,1.585526e+03
8.224927e+02,1.583016e+03
8.234570e+02,1.580693e+03
8.244212e+02,1.577262e+03
8.253854e+02,1.575417e+03
8.263497e+02,1.577805e+03
8.273139e+02,1.582651e+03
8.282781e+02,1.586109e+03
8.292424e+02,1.586458e+03
8.302066e+02,1.585215e+03
8.311708e+02,1.583809e+03
8.321351e+02,1.582164e+03
8.330993e+02,1.579646e+03
8.340635e+02,1.575168e+03
8.350278e+02,1.569887e+03
8.359920e+02,1.567913e+03
8.369562e+02,1.569674e+03
8.379205e+02,1.573114e+03
8.388847e+02,1.578818e+03
8.398489e+02,1.585091e+03
8.408132e+02,1.587225e+03
8.417774e+02,1.580711e+03
8.427416e+02,1.575935e+03
8.437059e+02,1.574955e+03
8.446701e+02,1.575700e+03
8.456343e+02,1.576136e+03
8.465986e+02,1.575677e+03
8.475628e+02,1.575122e+03
8.485270e+02,1.574071e+03
8.494913e+02,1.573349e+03
8.504555e+02,1.574834e+03
8.514197e+02,1.579236e+03
8.523840e+02,1.582543e+03
8.533482e+02,1.579967e+03
8.543124e+02,1.573854e+03
8.552767e+02,1.568248e+03
8.562409e+02,1.563727e+03
8.572051e+02,1.560751e+03
8.581694e+02,1.560690e+03
8.591336e+02,1.563513e+03
8.600978e+02,1.566681e+03
8.610621e+02,1.570760e+03
8.620263e+02,1.573714e+03
8.629905e+02,1.573411e+03
8.639548e+02,1.569116e+03
8.649190e+02,1.564278e+03
8.658832e+02,1.557943e+03
8.668475e+02,1.553863e+03
8.678117e+02,1.554391e+03
8.687759e+02,1.558633e+03
8.697402e+02,1.563112e+03
8.707044e+02,1.569086e+03
8.716686e+02,1.572033e+03
8.726329e+02,1.569401e+03
8.735971e+02,1.564005e+03
8.745613e+02,1.560359e+03
8.755256e+02,1.562055e+03
8.764898e+02,1.564721e+03
8.774540e+02,1.563907e+03
8.784183e+02,1.561728e+03
8.793825e+02,1.562448e+03
8.803467e+02,1.568043e+03
8.813110e+02,1.575070e+03
8.822752e+02,1.580406e+03
8.832394e+02,1.584223e+03
8.842037e+02,1.585641e+03
8.851679e+02,1.583905e+03
8.861321e+02,1.580330e+03
8.870964e+02,1.577000e+03
8.880606e+02,1.573854e+03
8.890248e+02,1.569486e+03
8.899891e+02,1.563447e+03
8.909533e+02,1.559097e+03
8.919175e+02,1.559974e+03
8.928818e+02,1.568129e+03
8.938460e+02,1.571879e+03
8.948102e+02,1.566966e+03
8.957745e+02,1.561445e+03
8.967387e+02,1.560588e+03
8.977029e+02,1.563780e+03
8.986672e+02,1.565055e+03
8.996314e+02,1.563852e+03
9.005956e+02,1.562493e+03
9.015599e+02,1.561865e+03
9.025241e+02,1.561362e+03
9.034883e+02,1.559888e+03
9.044526e+02,1.555676e+03
9.054168e+02,1.550906e+03
9.063810e+02,1.547555e+03
9.073453e+02,1.546252e+03
9.083095e+02,1.547037e+03
9.092737e+02,1.550230e+03
9.102380e+02,1.552715e+03
9.112022e+02,1.549665e+03
9.121664e+02,1.543340e+03
9.131307e+02,1.540286e+03
9.140949e+02,1.543058e+03
9.150591e+02,1.548238e+03
9.160234e+02,1.549826e+03
9.169876e+02,1.547505e+03
9.179518e+02,1.545664e+03
9.189161e+02,1.545058e+03
9.198803e+02,1.544605e+03
9.208445e+02,1.543582e+03
9.218088e+02,1.542380e+03
9.227730e+02,1.541966e+03
9.237372e+02,1.542560e+03
9.247015e+02,1.542268e+03
9.256657e+02,1.538934e+03
9.266299e+02,1.532145e+03
9.275942e+02,1.530828e+03
9.285584e+02,1.539958e+03
9.295226e+02,1.547931e+03
9.304869e+02,1.550755e+03
9.314511e+02,1.549648e+03
9.324153e+02,1.547708e+03
9.333796e+02,1.544250e+03
9.343438e+02,1.540910e+03
9.353080e+02,1.536484e+03
9.362723e+02,1.532223e+03
9.372365e+02,1.530870e+03
9.382007e+02,1.536798e+03
9.391650e+02,1.541628e+03
9.401292e+02,1.539687e+03
9.410934e+02,1.535210e+03
9.420577e+02,1.533400e+03
9.430219e+02,1.535656e+03
9.439861e+02,1.536288e+03
9.449504e+02,1.528674e+03
9.459146e+02,1.519139e+03
9.468788e+02,1.515732e+03
9.478431e+02,1.518336e+03
9.488073e+02,1.522536e+03
9.497715e+02,1.527787e+03
9.507358e+02,1.532317e+03
9.517000e+02,1.530170e+03
9.526642e+02,1.522362e+03
9.536285e+02,1.515621e+03
9.545927e+02,1.514521e+03
9.555569e+02,1.517013e+03
9.565212e+02,1.515910e+03
9.574854e+02,1.511586e+03
9.584496e+02,1.509529e+03
9.594139e+02,1.511488e+03
9.603781e+02,1.515716e+03
9.613423e+02,1.519437e+03
9.623066e+02,1.523201e+03
9.632708e+02,1.523900e+03
9.642350e+02,1.519998e+03
9.651993e+02,1.515004e+03
9.661635e+02,1.513412e+03
9.671277e+02,1.516722e+03
9.680920e+02,1.518424e+03
9.690562e+02,1.517316e+03
9.700204e+02,1.515586e+03
9.709847e+02,1.515931e+03
9.719489e+02,1.519928e+03
9.729131e+02,1.520258e+03
9.738774e+02,1.513382e+03
9.748416e+02,1.507215e+03
9.758058e+02,1.505308e+03
9.767701e+02,1.506317e+03
9.777343e+02,1.505268e+03
9.786985e+02,1.495731e+03
9.796628e+02,1.489919e+03
9.806270e+02,1.495830e+03
9.815912e+02,1.507579e+03
9.825555e+02,1.515388e+03
9.835197e+02,1.516023e+03
9.844839e+02,1.514498e+03
9.854482e+02,1.510984e+03
9.864124e+02,1.507632e+03
9.873766e+02,1.506934e+03
9.883409e+02,1.510002e+03
9.893051e+02,1.512847e+03
9.902693e+02,1.512331e+03
9.912336e+02,1.510865e+03
9.921978e+02,1.510898e+03
9.931620e+02,1.512036e+03
9.941263e+02,1.512078e+03
9.950905e+02,1.508252e+03
9.960547e+02,1.503586e+03
9.970190e+02,1.502631e+03
9.979832e+02,1.504302e+03
9.989474e+02,1.504374e+03
9.999117e+02,1.499370e+03
1.000876e+03,1.493859e+03
1.001840e+03,1.496035e+03
1.002804e+03,1.504023e+03
1.003769e+03,1.510121e+03
1.004733e+03,1.510886e+03
1.005697e+03,1.509343e+03
1.006661e+03,1.511186e+03
1.007626e+03,1.515224e+03
1.008590e+03,1.514743e+03
1.009554e+03,1.508018e+03
1.010518e+03,1.499509e+03
1.011482e+03,1.494301e+03
1.012447e+03,1.492108e+03
1.013411e+03,1.491202e+03
1.014375e+03,1.492324e+03
1.015339e+03,1.494023e+03
1.016304e+03,1.494936e+03
1.017268e+03,1.494983e+03
1.018232e+03,1.494590e+03
1.019196e+03,1.493586e+03
1.020161e+03,1.491583e+03
1.021125e+03,1.488160e+03
1.022089e+03,1.484967e+03
1.023053e+03,1.485697e+03
1.024018e+03,1.490692e+03
1.024982e+03,1.495189e+03
1.025946e+03,1.498219e+03
1.026910e+03,1.499426e+03
1.027875e+03,1.498958e+03
1.028839e+03,1.496923e+03
1.029803e+03,1.496029e+03
1.030767e+03,1.497014e+03
1.031731e+03,1.498034e+03
1.032696e+03,1.497438e+03
1.033660e+03,1.495011e+03
1.034624e+03,1.492467e+03
1.035588e+03,1.489527e+03
1.036552e+03,1.488141e+03
1.037517e+03,1.489681e+03
1.038481e+03,1.492586e+03
1.039445e+03,1.492335e+03
1.040409e+03,1.485668e+03
1.041374e+03,1.481484e+03
1.042338e+03,1.483389e+03
1.043302e+03,1.487821e+03
1.044266e+03,1.489701e+03
1.045231e+03,1.486823e+03
1.046195e+03,1.484985e+03
1.047159e+03,1.486152e+03
1.048123e+03,1.487288e+03
1.049088e+03,1.485411e+03
1.050052e+03,1.480076e+03
1.051016e+03,1.479215e+03
1.051980e+03,1.488786e+03
1.052945e+03,1.496317e+03
1.053909e+03,1.494880e+03
1.054873e+03,1.486300e+03
1.055837e+03,1.480206e+03
1.056802e+03,1.481534e+03
1.057766e+03,1.480987e+03
1.058730e+03,1.473880e+03
1.059694e+03,1.465616e+03
1.060658e+03,1.463053e+03
1.061623e+03,1.472396e+03
1.062587e+03,1.477533e+03
1.063551e+03,1.471902e+03
1.064515e+03,1.465338e+03
1.065479e+03,1.465081e+03
1.066444e+03,1.472370e+03
1.067408e+03,1.477924e+03
1.068372e+03,1.478949e+03
1.069336e+03,1.479386e+03
1.070301e+03,1.479599e+03
1.071265e+03,1.479710e+03
1.072229e+03,1.481073e+03
1.073193e+03,1.487067e+03
1.074158e+03,1.490501e+03
1.075122e+03,1.488142e+03
1.076086e+03,1.482905e+03
1.077050e+03,1.478361e+03
1.078015e+03,1.475336e+03
1.078979e+03,1.474723e+03
1.079943e+03,1.477357e+03
1.080907e+03,1.481460e+03
1.081872e+03,1.486344e+03
1.082836e+03,1.491487e+03
1.083800e+03,1.493562e+03
1.084764e+03,1.489068e+03
1.085729e+03,1.485014e+03
1.086693e+03,1.483922e+03
1.087657e+03,1.485420e+03
1.088621e+03,1.488538e+03
1.089585e+03,1.493999e+03
1.090550e+03,1.499200e+03
1.091514e+03,1.506020e+03
1.092478e+03,1.512143e+03
1.093442e+03,1.514498e+03
1.094406e+03,1.511664e+03
1.095371e+03,1.508682e+03
1.096335e+03,1.505007e+03
1.097299e+03,1.502180e+03
1.098263e+03,1.502697e+03
1.099228e+03,1.506031e+03
1.100192e+03,1.505145e+03
1.101156e+03,1.493281e+03
1.102120e+03,1.482654e+03
1.103085e+03,1.478523e+03
1.104049e+03,1.478915e+03
1.105013e+03,1.479557e+03
1.105977e+03,1.480074e+03
1.106942e+03,1.480739e+03
1.107906e+03,1.480770e+03
1.108870e+03,1.481658e+03
1.109834e+03,1.485332e+03
1.110799e+03,1.493327e+03
1.111763e+03,1.498544e+03
1.112727e+03,1.498692e+03
1.113691e+03,1.497807e+03
1.114656e+03,1.496656e+03
1.115620e+03,1.495604e+03
1.116584e+03,1.496936e+03
1.117548e+03,1.503094e+03
1.118512e+03,1.507651e+03
1.119477e+03,1.508619e+03
1.120441e+03,1.507472e+03
1.121405e+03,1.506672e+03
1.122369e+03,1.508738e+03
1.123334e+03,1.507430e+03
1.124298e+03,1.498733e+03
1.125262e+03,1.490692e+03
1.126226e+03,1.489887e+03
1.127191e+03,1.497603e+03
1.128155e+03,1.501886e+03
1.129119e+03,1.500575e+03
1.130083e+03,1.497970e+03
1.131047e+03,1.494744e+03
1.132012e+03,1.491075e+03
1.132976e+03,1.488727e+03
1.133940e+03,1.488305e+03
1.134904e+03,1.487839e+03
1.135869e+03,1.487400e+03
1.136833e+03,1.487336e+03
1.137797e+03,1.488186e+03
1.138761e+03,1.491138e+03
1.139726e+03,1.492341e+03
1.140690e+03,1.491348e+03
1.141654e+03,1.488741e+03
1.142618e+03,1.483956e+03
1.143583e+03,1.477701e+03
1.144547e+03,1.475153e+03
1.145511e+03,1.477239e+03
1.146475e+03,1.479122e+03
1.147439e+03,1.478840e+03
1.148404e+03,1.478586e+03
1.149368e+03,1.482358e+03
1.150332e+03,1.490507e+03
1.151296e+03,1.497692e+03
1.152261e+03,1.503180e+03
1.153225e+03,1.504649e+03
1.154189e+03,1.500528e+03
1.155153e+03,1.491971e+03
1.156118e+03,1.482803e+03
1.157082e+03,1.473443e+03
1.158046e+03,1.466701e+03
1.159010e+03,1.463723e+03
1.159974e+03,1.462755e+03
1.160939e+03,1.459988e+03
1.161903e+03,1.455526e+03
1.162867e+03,1.452554e+03
1.163831e+03,1.451743e+03
1.164796e+03,1.450458e+03
1.165760e+03,1.445556e+03
1.166724e+03,1.438658e+03
1.167688e+03,1.432816e+03
1.168653e+03,1.428404e+03
1.169617e+03,1.426471e+03
1.170581e+03,1.428907e+03
1.171545e+03,1.433118e+03
1.172510e+03,1.435351e+03
1.173474e+03,1.436339e+03
1.174438e+03,1.437245e+03
1.175402e+03,1.438158e+03
1.176366e+03,1.439330e+03
1.177331e+03,1.441539e+03
1.178295e+03,1.444137e+03
1.179259e+03,1.446469e+03
1.180223e+03,1.447983e+03
1.181188e+03,1.447789e+03
1.182152e+03,1.444252e+03
1.183116e+03,1.440084e+03
1.184080e+03,1.437697e+03
1.185045e+03,1.436504e+03
1.186009e+03,1.434831e+03
1.186973e+03,1.431797e+03
1.187937e+03,1.430128e+03
1.188901e+03,1.432214e+03
1.189866e+03,1.434770e+03
1.190830e+03,1.434455e+03
1.191794e+03,1.430598e+03
1.192758e+03,1.427292e+03
1.193723e+03,1.426193e+03
1.194687e+03,1.426044e+03
1.195651e+03,1.426113e+03
1.196615e+03,1.426429e+03
1.197580e+03,1.427240e+03
1.198544e+03,1.430141e+03
1.199508e+03,1.428797e+03
1.200472e+03,1.419886e+03
1.201437e+03,1.411066e+03
1.202401e+03,1.409624e+03
1.203365e+03,1.417235e+03
1.204329e+03,1.421591e+03
1.205293e+03,1.421375e+03
1.206258e+03,1.420598e+03
1.207222e+03,1.420576e+03
1.208186e+03,1.421128e+03
1.209150e+03,1.422301e+03
1.210115e+03,1.423776e+03
1.211079e+03,1.424552e+03
1.212043e+03,1.424393e+03
1.213007e+03,1.424448e+03
1.213972e+03,1.428163e+03
1.214936e+03,1.434517e+03
1.215900e+03,1.433250e+03
1.216864e+03,1.424726e+03
1.217828e+03,1.417175e+03
1.218793e+03,1.415918e+03
1.219757e+03,1.417618e+03
1.220721e+03,1.416175e+03
1.221685e+03,1.413136e+03
1.222650e+03,1.412822e+03
1.223614e+03,1.416099e+03
1.224578e+03,1.417478e+03
1.225542e+03,1.409752e+03
1.226507e+03,1.400089e+03
1.227471e+03,1.397172e+03
1.228435e+03,1.399856e+03
1.229399e+03,1.401984e+03
1.230364e+03,1.400867e+03
1.231328e+03,1.398815e+03
1.232292e+03,1.397151e+03
1.233256e+03,1.396302e+03
1.234220e+03,1.396174e+03
1.235185e+03,1.397549e+03
1.236149e+03,1.398180e+03
1.237113e+03,1.397302e+03
1.238077e+03,1.396181e+03
1.239042e+03,1.394027e+03
1.240006e+03,1.390608e+03
1.240970e+03,1.389034e+03
1.241934e+03,1.391532e+03
1.242899e+03,1.391557e+03
1.243863e+03,1.386523e+03
1.244827e+03,1.380643e+03
1.245791e+03,1.379660e+03
1.246755e+03,1.384447e+03
1.247720e+03,1.389816e+03
1.248684e+03,1.396578e+03
1.249648e+03,1.400290e+03
1.250612e+03,1.397080e+03
1.251577e+03,1.388996e+03
1.252541e+03,1.382807e+03
1.253505e+03,1.378369e+03
1.254469e+03,1.375867e+03
1.255434e+03,1.375661e+03
1.256398e+03,1.377315e+03
1.257362e+03,1.380928e+03
1.258326e+03,1.385036e+03
1.259291e+03,1.387510e+03
1.260255e+03,1.388075e+03
1.261219e+03,1.387301e+03
1.262183e+03,1.385683e+03
1.263147e+03,1.384316e+03
1.264112e+03,1.383306e+03
1.265076e+03,1.383056e+03
1.266040e+03,1.384324e+03
1.267004e+03,1.388250e+03
1.267969e+03,1.390500e+03
1.268933e+03,1.387768e+03
1.269897e+03,1.385916e+03
1.270861e+03,1.387443e+03
1.271826e+03,1.391339e+03
1.272790e+03,1.396452e+03
1.273754e+03,1.405339e+03
1.274718e+03,1.411785e+03
1.275682e+03,1.414646e+03
1.276647e+03,1.415906e+03
1.277611e+03,1.417951e+03
1.278575e+03,1.421077e+03
1.279539e+03,1.420177e+03
1.280504e+03,1.415257e+03
1.281468e+03,1.411713e+03
1.282432e+03,1.412514e+03
1.283396e+03,1.416164e+03
1.284361e+03,1.420425e+03
1.285325e+03,1.424176e+03
1.286289e+03,1.422950e+03
1.287253e+03,1.415288e+03
1.288218e+03,1.408010e+03
1.289182e+03,1.410436e+03
1.290146e+03,1.415466e+03
1.291110e+03,1.414115e+03
1.292074e+03,1.407424e+03
1.293039e+03,1.400642e+03
1.294003e+03,1.395514e+03
1.294967e+03,1.391034e+03
1.295931e+03,1.387399e+03
1.296896e+03,1.384624e+03
1.297860e+03,1.382495e+03
1.298824e+03,1.380865e+03
1.299788e+03,1.379258e+03
1.300753e+03,1.377424e+03
1.301717e+03,1.375519e+03
1.302681e+03,1.373469e+03
1.303645e+03,1.371534e+03
1.304609e+03,1.370706e+03
1.305574e+03,1.370728e+03
1.306538e+03,1.369865e+03
1.307502e+03,1.368559e+03
1.308466e+03,1.366720e+03
1.309431e+03,1.363023e+03
1.310395e+03,1.358447e+03
1.311359e+03,1.356281e+03
1.312323e+03,1.355707e+03
1.313288e+03,1.355569e+03
1.314252e+03,1.356427e+03
1.315216e+03,1.357241e+03
1.316180e+03,1.354527e+03
1.317145e+03,1.351985e+03
1.318109e+03,1.355241e+03
1.319073e+03,1.364028e+03
1.320037e+03,1.369354e+03
1.321001e+03,1.364338e+03
1.321966e+03,1.359289e+03
1.322930e+03,1.360395e+03
1.323894e+03,1.364503e+03
1.324858e+03,1.364775e+03
1.325823e+03,1.357920e+03
1.326787e+03,1.354778e+03
1.327751e+03,1.356078e+03
1.328715e+03,1.358624e+03
1.329680e+03,1.360672e+03
1.330644e+03,1.362515e+03
1.331608e+03,1.365313e+03
1.332572e+03,1.368858e+03
1.333536e+03,1.371972e+03
1.334501e+03,1.374095e+03
1.335465e+03,1.375696e+03
1.336429e+03,1.378643e+03
1.337393e+03,1.381657e+03
1.338358e+03,1.382135e+03
1.339322e+03,1.380451e+03
1.340286e+03,1.378787e+03
1.341250e+03,1.378839e+03
1.342215e+03,1.378299e+03
1.343179e+03,1.376929e+03
1.344143e+03,1.375359e+03
1.345107e+03,1.373100e+03
1.346072e+03,1.369174e+03
1.347036e+03,1.366833e+03
1.348000e+03,1.367029e+03
1.348964e+03,1.366010e+03
1.349928e+03,1.362042e+03
1.350893e+03,1.357386e+03
1.351857e+03,1.357002e+03
1.352821e+03,1.360376e+03
1.353785e+03,1.362123e+03
1.354750e+03,1.361395e+03
1.355714e+03,1.358454e+03
1.356678e+03,1.352211e+03
1.357642e+03,1.345990e+03
1.358607e+03,1.343584e+03
1.359571e+03,1.344376e+03
1.360535e+03,1.348041e+03
1.361499e+03,1.356537e+03
1.362464e+03,1.362262e+03
1.363428e+03,1.360173e+03
1.364392e+03,1.355891e+03
1.365356e+03,1.352081e+03
1.366320e+03,1.348368e+03
1.367285e+03,1.345094e+03
1.368249e+03,1.342388e+03
1.369213e+03,1.341462e+03
1.370177e+03,1.342990e+03
1.371142e+03,1.345416e+03
1.372106e+03,1.347471e+03
1.373070e+03,1.348974e+03
1.374034e+03,1.348266e+03
1.374999e+03,1.345828e+03
1.375963e+03,1.343110e+03
1.376927e+03,1.340474e+03
1.377891e+03,1.338305e+03
1.378855e+03,1.336070e+03
1.379820e+03,1.334708e+03
1.380784e+03,1.337071e+03
1.381748e+03,1.343753e+03
1.382712e+03,1.346391e+03
1.383677e+03,1.336675e+03
1.384641e+03,1.327894e+03
1.385605e+03,1.324366e+03
1.386569e+03,1.324177e+03
1.387534e+03,1.325212e+03
1.388498e+03,1.328265e+03
1.389462e+03,1.329027e+03
1.390426e+03,1.326996e+03
1.391391e+03,1.322289e+03
1.392355e+03,1.314259e+03
1.393319e+03,1.305547e+03
1.394283e+03,1.300772e+03
1.395247e+03,1.298929e+03
1.396212e+03,1.298478e+03
1.397176e+03,1.299137e+03
1.398140e+03,1.299758e+03
1.399104e+03,1.297488e+03
1.400069e+03,1.296528e+03
1.401033e+03,1.301893e+03
1.401997e+03,1.310559e+03
1.402961e+03,1.313709e+03
1.403926e+03,1.306373e+03
1.404890e+03,1.304879e+03
1.405854e+03,1.312777e+03
1.406818e+03,1.320219e+03
1.407782e+03,1.319358e+03
1.408747e+03,1.313010e+03
1.409711e+03,1.309546e+03
1.410675e+03,1.307949e+03
1.411639e+03,1.307029e+03
1.412604e+03,1.306749e+03
1.413568e+03,1.306308e+03
1.414532e+03,1.306067e+03
1.415496e+03,1.305321e+03
1.416461e+03,1.302248e+03
1.417425e+03,1.297165e+03
1.418389e+03,1.292814e+03
1.419353e+03,1.289587e+03
1.420318e+03,1.287563e+03
1.421282e+03,1.287628e+03
1.422246e+03,1.288670e+03
1.423210e+03,1.289841e+03
1.424174e+03,1.291193e+03
1.425139e+03,1.291773e+03
1.426103e+03,1.291273e+03
1.427067e+03,1.289826e+03
1.428031e+03,1.287330e+03
1.428996e+03,1.285624e+03
1.429960e+03,1.288593e+03
1.430924e+03,1.291195e+03
1.431888e+03,1.286917e+03
1.432853e+03,1.277090e+03
1.433817e+03,1.269558e+03
1.434781e+03,1.267739e+03
1.435745e+03,1.266714e+03
1.436709e+03,1.265124e+03
1.437674e+03,1.264095e+03
1.438638e+03,1.265887e+03
1.439602e+03,1.270277e+03
1.440566e+03,1.270829e+03
1.441531e+03,1.267681e+03
1.442495e+03,1.263098e+03
1.443459e+03,1.257010e+03
1.444423e+03,1.252990e+03
1.445388e+03,1.258199e+03
1.446352e+03,1.264255e+03
1.447316e+03,1.260425e+03
1.448280e+03,1.248894e+03
1.449245e+03,1.243234e+03
1.450209e+03,1.252770e+03
1.451173e+03,1.258948e+03
1.452137e+03,1.258212e+03
1.453101e+03,1.254453e+03
1.454066e+03,1.250794e+03
1.455030e+03,1.247668e+03
1.455994e+03,1.249010e+03
1.456958e+03,1.254089e+03
1.457923e+03,1.258123e+03
1.458887e+03,1.258933e+03
1.459851e+03,1.258232e+03
1.460815e+03,1.257368e+03
1.461780e+03,1.255471e+03
1.462744e+03,1.251641e+03
1.463708e+03,1.246620e+03
1.464672e+03,1.243685e+03
1.465636e+03,1.244809e+03
1.466601e+03,1.245463e+03
1.467565e+03,1.244654e+03
1.468529e+03,1.244301e+03
1.469493e+03,1.246828e+03
1.470458e+03,1.250650e+03
1.471422e+03,1.249808e+03
1.472386e+03,1.245801e+03
1.473350e+03,1.243319e+03
1.474315e+03,1.244037e+03
1.475279e+03,1.245272e+03
1.476243e+03,1.244399e+03
1.477207e+03,1.243855e+03
1.478172e+03,1.247908e+03
1.479136e+03,1.254662e+03
1.480100e+03,1.254646e+03
1.481064e+03,1.245620e+03
1.482028e+03,1.239005e+03
1.482993e+03,1.236315e+03
1.483957e+03,1.236715e+03
1.484921e+03,1.241649e+03
1.485885e+03,1.247495e+03
1.486850e+03,1.245699e+03
1.487814e+03,1.239169e+03
1.488778e+03,1.235484e+03
1.489742e+03,1.238321e+03
1.490707e+03,1.239216e+03
1.491671e+03,1.232226e+03
1.492635e+03,1.228010e+03
1.493599e+03,1.232175e+03
1.494563e+03,1.240760e+03
1.495528e+03,1.244437e+03
1.496492e+03,1.243068e+03
1.497456e+03,1.237510e+03
1.498420e+03,1.228463e+03
1.499385e+03,1.221490e+03
1.500349e+03,1.222135e+03
1.501313e+03,1.225476e+03
1.502277e+03,1.228039e+03
1.503242e+03,1.229667e+03
1.504206e+03,1.230266e+03
1.505170e+03,1.229516e+03
1.506134e+03,1.227479e+03
1.507099e+03,1.223449e+03
1.508063e+03,1.220520e+03
1.509027e+03,1.220073e+03
1.509991e+03,1.220807e+03
1.510955e+03,1.220904e+03
1.511920e+03,1.220389e+03
1.512884e+03,1.219610e+03
1.513848e+03,1.219003e+03
1.514812e+03,1.218230e+03
1.515777e+03,1.215937e+03
1.516741e+03,1.213138e+03
1.517705e+03,1.207780e+03
1.518669e+03,1.204026e+03
1.519634e+03,1.206625e+03
1.520598e+03,1.214883e+03
1.521562e+03,1.218855e+03
1.522526e+03,1.218399e+03
1.523490e+03,1.217326e+03
1.524455e+03,1.217223e+03
1.525419e+03,1.215741e+03
1.526383e+03,1.208875e+03
1.527347e+03,1.201375e+03
1.528312e+03,1.198126e+03
1.529276e+03,1.198943e+03
1.530240e+03,1.200132e+03
1.531204e+03,1.202154e+03
1.532169e+03,1.200379e+03
1.533133e+03,1.193317e+03
1.534097e+03,1.187860e+03
1.535061e+03,1.190401e+03
1.536026e+03,1.196535e+03
1.536990e+03,1.198482e+03
1.537954e+03,1.198197e+03
1.538918e+03,1.199479e+03
1.539882e+03,1.203460e+03
1.540847e+03,1.205828e+03
1.541811e+03,1.203358e+03
1.542775e+03,1.201002e+03
1.543739e+03,1.200455e+03
1.544704e+03,1.201406e+03
1.545668e+03,1.203757e+03
1.546632e+03,1.207089e+03
1.547596e+03,1.208299e+03
1.548561e+03,1.207656e+03
1.549525e+03,1.208051e+03
1.550489e+03,1.213016e+03
1.551453e+03,1.215717e+03
1.552417e+03,1.209108e+03
1.553382e+03,1.202315e+03
1.554346e+03,1.204773e+03
1.555310e+03,1.214790e+03
1.556274e+03,1.214329e+03
1.557239e+03,1.203553e+03
1.558203e+03,1.194750e+03
1.559167e+03,1.190764e+03
1.560131e+03,1.190825e+03
1.561096e+03,1.199655e+03
1.562060e+03,1.207529e+03
1.563024e+03,1.202295e+03
1.563988e+03,1.190784e+03
1.564953e+03,1.189639e+03
1.565917e+03,1.203996e+03
1.566881e+03,1.212450e+03
1.567845e+03,1.213889e+03
1.568809e+03,1.213770e+03
1.569774e+03,1.215131e+03
1.570738e+03,1.216734e+03
1.571702e+03,1.217016e+03
1.572666e+03,1.216312e+03
1.573631e+03,1.214732e+03
1.574595e+03,1.212735e+03
1.575559e+03,1.212393e+03
1.576523e+03,1.215532e+03
1.577488e+03,1.216008e+03
1.578452e+03,1.211062e+03
1.579416e+03,1.206266e+03
1.580380e+03,1.209960e+03
1.581344e+03,1.217239e+03
1.582309e+03,1.217969e+03
1.583273e+03,1.214746e+03
1.584237e+03,1.214045e+03
1.585201e+03,1.219934e+03
1.586166e+03,1.222410e+03
1.587130e+03,1.218472e+03
1.588094e+03,1.214114e+03
1.589058e+03,1.212531e+03
1.590023e+03,1.211891e+03
1.590987e+03,1.207193e+03
1.591951e+03,1.200844e+03
1.592915e+03,1.197653e+03
1.593880e+03,1.197348e+03
1.594844e+03,1.197451e+03
1.595808e+03,1.198652e+03
1.596772e+03,1.197955e+03
1.597736e+03,1.194343e+03
1.598701e+03,1.190519e+03
1.599665e+03,1.189484e+03
1.600629e+03,1.189718e+03
1.601593e+03,1.182765e+03
1.602558e+03,1.171663e+03
1.603522e+03,1.166904e+03
1.604486e+03,1.172897e+03
1.605450e+03,1.176127e+03
1.606415e+03,1.166076e+03
1.607379e+03,1.159341e+03
1.608343e+03,1.163444e+03
1.609307e+03,1.172175e+03
1.610271e+03,1.174842e+03
1.611236e+03,1.172367e+03
1.612200e+03,1.168963e+03
1.613164e+03,1.165532e+03
1.614128e+03,1.163239e+03
1.615093e+03,1.163044e+03
1.616057e+03,1.163006e+03
1.617021e+03,1.161964e+03
1.617985e+03,1.160755e+03
1.618950e+03,1.160192e+03
1.619914e+03,1.160253e+03
1.620878e+03,1.162241e+03
1.621842e+03,1.164819e+03
1.622807e+03,1.160428e+03
1.623771e+03,1.147705e+03
1.624735e+03,1.138565e+03
1.625699e+03,1.140352e+03
1.626663e+03,1.144956e+03
1.627628e+03,1.150693e+03
1.628592e+03,1.155143e+03
1.629556e+03,1.156286e+03
1.630520e+03,1.154798e+03
1.631485e+03,1.149383e+03
1.632449e+03,1.141454e+03
1.633413e+03,1.137566e+03
1.634377e+03,1.142229e+03
1.635342e+03,1.146494e+03
1.636306e+03,1.147336e+03
1.637270e+03,1.146482e+03
1.638234e+03,1.144079e+03
1.639198e+03,1.141104e+03
1.640163e+03,1.139794e+03
1.641127e+03,1.139595e+03
1.642091e+03,1.136541e+03
1.643055e+03,1.130558e+03
1.644020e+03,1.127862e+03
1.644984e+03,1.135557e+03
1.645948e+03,1.140051e+03
1.646912e+03,1.137687e+03
1.647877e+03,1.133800e+03
1.648841e+03,1.132968e+03
1.649805e+03,1.134252e+03
1.650769e+03,1.134823e+03
1.651734e+03,1.134493e+03
1.652698e+03,1.132558e+03
1.653662e+03,1.127941e+03
1.654626e+03,1.125804e+03
1.655590e+03,1.130382e+03
1.656555e+03,1.132314e+03
1.657519e+03,1.128616e+03
1.658483e+03,1.124042e+03
1.659447e+03,1.126472e+03
1.660412e+03,1.130815e+03
1.661376e+03,1.126196e+03
1.662340e+03,1.115749e+03
1.663304e+03,1.109731e+03
1.664269e+03,1.113392e+03
1.665233e+03,1.116896e+03
1.666197e+03,1.119757e+03
1.667161e+03,1.122708e+03
1.668125e+03,1.127218e+03
1.669090e+03,1.130678e+03
1.670054e+03,1.127723e+03
1.671018e+03,1.122084e+03
1.671982e+03,1.119499e+03
1.672947e+03,1.120242e+03
1.673911e+03,1.117318e+03
1.674875e+03,1.107613e+03
1.675839e+03,1.104829e+03
1.676804e+03,1.112105e+03
1.677768e+03,1.120014e+03
1.678732e+03,1.118556e+03
1.679696e+03,1.114719e+03
1.680661e+03,1.114301e+03
1.681625e+03,1.115584e+03
1.682589e+03,1.117211e+03
1.683553e+03,1.119601e+03
1.684517e+03,1.120067e+03
1.685482e+03,1.118475e+03
1.686446e+03,1.115904e+03
1.687410e+03,1.112628e+03
1.688374e+03,1.108711e+03
1.689339e+03,1.100793e+03
1.690303e+03,1.095979e+03
1.691267e+03,1.101356e+03
1.692231e+03,1.110506e+03
1.693196e+03,1.110776e+03
1.694160e+03,1.103771e+03
1.695124e+03,1.105968e+03
1.696088e+03,1.115867e+03
1.697052e+03,1.120483e+03
1.698017e+03,1.106791e+03
1.698981e+03,1.098360e+03
1.699945e+03,1.104954e+03
1.700909e+03,1.110592e+03
1.701874e+03,1.106719e+03
1.702838e+03,1.099524e+03
1.703802e+03,1.102077e+03
1.704766e+03,1.109425e+03
1.705731e+03,1.114340e+03
1.706695e+03,1.115881e+03
1.707659e+03,1.112419e+03
1.708623e+03,1.099762e+03
1.709588e+03,1.094875e+03
1.710552e+03,1.100501e+03
1.711516e+03,1.106985e+03
1.712480e+03,1.106328e+03
1.713444e+03,1.102204e+03
1.714409e+03,1.096863e+03
1.715373e+03,1.092466e+03
1.716337e+03,1.092863e+03
1.717301e+03,1.098391e+03
1.718266e+03,1.099111e+03
1.719230e+03,1.094883e+03
1.720194e+03,1.090799e+03
1.721158e+03,1.087946e+03
1.722123e+03,1.086973e+03
1.723087e+03,1.089614e+03
1.724051e+03,1.093070e+03
1.725015e+03,1.097862e+03
1.725979e+03,1.101054e+03
1.726944e+03,1.095317e+03
1.727908e+03,1.083997e+03
1.728872e+03,1.082744e+03
1.729836e+03,1.088806e+03
1.730801e+03,1.091918e+03
1.731765e+03,1.086643e+03
1.732729e+03,1.082578e+03
1.733693e+03,1.080241e+03
1.734658e+03,1.080798e+03
1.735622e+03,1.085805e+03
1.736586e+03,1.090966e+03
1.737550e+03,1.090188e+03
1.738515e+03,1.085917e+03
1.739479e+03,1.079479e+03
1.740443e+03,1.072195e+03
1.741407e+03,1.069580e+03
1.742371e+03,1.072311e+03
1.743336e+03,1.074184e+03
1.744300e+03,1.074550e+03
1.745264e+03,1.072501e+03
1.746228e+03,1.064545e+03
1.747193e+03,1.058898e+03
1.748157e+03,1.064370e+03
1.749121e+03,1.069627e+03
1.750085e+03,1.063802e+03
1.751050e+03,1.051394e+03
1.752014e+03,1.051387e+03
1.752978e+03,1.060041e+03
1.753942e+03,1.068303e+03
1.754906e+03,1.074364e+03
1.755871e+03,1.078528e+03
1.756835e+03,1.082484e+03
1.757799e+03,1.077317e+03
1.758763e+03,1.060950e+03
1.759728e+03,1.045822e+03
1.760692e+03,1.042904e+03
1.761656e+03,1.047164e+03
1.762620e+03,1.058016e+03
1.763585e+03,1.069621e+03
1.764549e+03,1.073911e+03
1.765513e+03,1.070520e+03
1.766477e+03,1.063685e+03
1.767442e+03,1.054797e+03
1.768406e+03,1.051312e+03
1.769370e+03,1.056489e+03
1.770334e+03,1.060709e+03
1.771298e+03,1.057668e+03
1.772263e+03,1.054270e+03
1.773227e+03,1.052262e+03
1.774191e+03,1.051934e+03
1.775155e+03,1.054637e+03
1.776120e+03,1.058202e+03
1.777084e+03,1.060621e+03
1.778048e+03,1.061217e+03
1.779012e+03,1.057476e+03
1.779977e+03,1.046976e+03
1.780941e+03,1.046742e+03
1.781905e+03,1.056036e+03
1.782869e+03,1.063290e+03
1.783833e+03,1.063853e+03
1.784798e+03,1.060691e+03
1.785762e+03,1.051672e+03
1.786726e+03,1.043871e+03
1.787690e+03,1.040954e+03
1.788655e+03,1.041247e+03
1.789619e+03,1.042396e+03
1.790583e+03,1.043547e+03
1.791547e+03,1.041582e+03
1.792512e+03,1.037505e+03
1.793476e+03,1.036995e+03
1.794440e+03,1.041927e+03
1.795404e+03,1.044020e+03
1.796369e+03,1.042468e+03
1.797333e+03,1.040847e+03
1.798297e+03,1.041532e+03
1.799261e+03,1.042709e+03
1.800225e+03,1.043248e+03
1.801190e+03,1.042894e+03
1.802154e+03,1.042134e+03
1.803118e+03,1.040443e+03
1.804082e+03,1.035633e+03
1.805047e+03,1.030014e+03
1.806011e+03,1.028936e+03
1.806975e+03,1.032364e+03
1.807939e+03,1.033709e+03
1.808904e+03,1.031405e+03
1.809868e+03,1.028677e+03
1.810832e+03,1.026169e+03
1.811796e+03,1.022983e+03
1.812760e+03,1.015112e+03
1.813725e+03,1.009968e+03
1.814689e+03,1.014916e+03
1.815653e+03,1.022529e+03
1.816617e+03,1.027915e+03
1.817582e+03,1.031014e+03
1.818546e+03,1.030083e+03
1.819510e+03,1.026943e+03
1.820474e+03,1.026506e+03
1.821439e+03,1.029664e+03
1.822403e+03,1.029241e+03
1.823367e+03,1.023609e+03
1.824331e+03,1.021370e+03
1.825296e+03,1.023732e+03
1.826260e+03,1.024810e+03
1.827224e+03,1.017764e+03
1.828188e+03,1.012674e+03
1.829152e+03,1.017830e+03
1.830117e+03,1.022901e+03
1.831081e+03,1.017531e+03
1.832045e+03,1.006670e+03
1.833009e+03,1.007483e+03
1.833974e+03,1.014985e+03
1.834938e+03,1.017619e+03
1.835902e+03,1.012137e+03
1.836866e+03,1.009544e+03
1.837831e+03,1.009971e+03
1.838795e+03,1.010354e+03
1.839759e+03,1.010511e+03
1.840723e+03,1.010765e+03
1.841688e+03,1.011311e+03
1.842652e+03,1.010769e+03
1.843616e+03,1.006956e+03
1.844580e+03,1.004014e+03
1.845544e+03,1.010134e+03
1.846509e+03,1.018326e+03
1.847473e+03,1.012879e+03
1.848437e+03,1.001020e+03
1.849401e+03,9.970772e+02
1.850366e+03,1.001691e+03
1.851330e+03,1.002175e+03
1.852294e+03,9.992501e+02
1.853258e+03,9.960335e+02
1.854223e+03,9.930553e+02
1.855187e+03,9.923039e+02
1.856151e+03,9.965696e+02
1.857115e+03,9.990490e+02
1.858079e+03,9.978824e+02
1.859044e+03,9.958600e+02
1.860008e+03,9.964401e+02
1.860972e+03,9.980793e+02
1.861936e+03,1.000971e+03
1.862901e+03,1.002371e+03
1.863865e+03,9.968564e+02
1.864829e+03,9.853569e+02
1.865793e+03,9.818557e+02
1.866758e+03,9.842565e+02
1.867722e+03,9.851051e+02
1.868686e+03,9.816534e+02
1.869650e+03,9.809081e+02
1.870615e+03,9.836912e+02
1.871579e+03,9.841050e+02
1.872543e+03,9.805612e+02
1.873507e+03,9.801193e+02
1.874471e+03,9.943469e+02
1.875436e+03,1.003112e+03
1.876400e+03,9.938878e+02
1.877364e+03,9.821797e+02
1.878328e+03,9.900869e+02
1.879293e+03,1.004990e+03
1.880257e+03,9.983408e+02
1.881221e+03,9.807386e+02
1.882185e+03,9.776271e+02
1.883150e+03,9.908856e+02
1.884114e+03,9.883073e+02
1.885078e+03,9.726480e+02
1.886042e+03,9.665055e+02
1.887006e+03,9.778544e+02
1.887971e+03,9.853198e+02
1.888935e+03,9.816163e+02
1.889899e+03,9.765787e+02
1.890863e+03,9.712477e+02
1.891828e+03,9.674368e+02
1.892792e+03,9.697753e+02
1.893756e+03,9.723566e+02
1.894720e+03,9.700817e+02
1.895685e+03,9.675600e+02
1.896649e+03,9.702297e+02
1.897613e+03,9.749540e+02
1.898577e+03,9.703669e+02
1.899542e+03,9.611937e+02
1.900506e+03,9.584389e+02
1.901470e+03,9.644456e+02
1.902434e+03,9.632208e+02
1.903398e+03,9.553723e+02
1.904363e+03,9.538685e+02
1.905327e+03,9.626662e+02
1.906291e+03,9.706736e+02
1.907255e+03,9.712515e+02
1.908220e+03,9.711739e+02
1.909184e+03,9.720303e+02
1.910148e+03,9.707574e+02
1.911112e+03,9.619771e+02
1.912077e+03,9.531486e+02
1.913041e+03,9.513283e+02
1.914005e+03,9.523205e+02
1.914969e+03,9.517761e+02
1.915933e+03,9.502218e+02
1.916898e+03,9.489748e+02
1.917862e+03,9.485118e+02
1.918826e+03,9.499473e+02
1.919790e+03,9.537871e+02
1.920755e+03,9.545574e+02
1.921719e+03,9.519011e+02
1.922683e+03,9.501652e+02
1.923647e+03,9.505966e+02
1.924612e+03,9.514828e+02
1.925576e+03,9.528791e+02
1.926540e+03,9.529766e+02
1.927504e+03,9.507276e+02
1.928469e+03,9.480193e+02
1.929433e+03,9.455752e+02
1.930397e+03,9.441249e+02
1.931361e+03,9.461846e+02
1.932325e+03,9.474892e+02
1.933290e+03,9.441316e+02
1.934254e+03,9.393593e+02
1.935218e+03,9.400111e+02
1.936182e+03,9.427205e+02
1.937147e+03,9.435551e+02
1.938111e+03,9.425117e+02
1.939075e+03,9.388584e+02
1.940039e+03,9.338718e+02
1.941004e+03,9.340399e+02
1.941968e+03,9.393279e+02
1.942932e+03,9.413835e+02
1.943896e+03,9.363460e+02
1.944860e+03,9.347889e+02
1.945825e+03,9.383478e+02
1.946789e+03,9.407780e+02
1.947753e+03,9.344357e+02
1.948717e+03,9.297382e+02
1.949682e+03,9.322443e+02
1.950646e+03,9.344201e+02
1.951610e+03,9.307639e+02
1.952574e+03,9.262438e+02
1.953539e+03,9.289991e+02
1.954503e+03,9.340494e+02
1.955467e+03,9.368289e+02
1.956431e+03,9.377888e+02
1.957396e+03,9.378479e+02
1.958360e+03,9.364780e+02
1.959324e+03,9.311430e+02
1.960288e+03,9.236716e+02
1.961252e+03,9.235016e+02
1.962217e+03,9.313016e+02
1.963181e+03,9.335309e+02
1.964145e+03,9.298511e+02
1.965109e+03,9.255439e+02
1.966074e+03,9.212150e+02
1.967038e+03,9.219881e+02
1.968002e+03,9.281177e+02
1.968966e+03,9.330388e+02
1.969931e+03,9.341012e+02
1.970895e+03,9.322667e+02
1.971859e+03,9.276621e+02
1.972823e+03,9.228494e+02
1.973787e+03,9.180567e+02
1.974752e+03,9.141619e+02
1.975716e+03,9.137096e+02
1.976680e+03,9.141700e+02
1.977644e+03,9.133340e+02
1.978609e+03,9.123531e+02
1.979573e+03,9.125511e+02
1.980537e+03,9.132872e+02
1.981501e+03,9.135720e+02
1.982466e+03,9.132882e+02
1.983430e+03,9.113054e+02
1.984394e+03,9.070499e+02
1.985358e+03,9.060929e+02
1.986323e+03,9.079028e+02
1.987287e+03,9.105926e+02
1.988251e+03,9.143006e+02
1.989215e+03,9.129177e+02
1.990179e+03,9.047813e+02
1.991144e+03,9.002607e+02
1.992108e+03,9.024139e+02
1.993072e+03,9.055391e+02
1.994036e+03,9.051401e+02
1.995001e+03,9.046008e+02
1.995965e+03,9.045433e+02
1.996929e+03,9.059302e+02
1.997893e+03,9.120658e+02
1.998858e+03,9.162478e+02
1.999822e+03,9.098363e+02
2.000786e+03,9.010604e+02
2.001750e+03,8.981194e+02
2.002714e+03,8.985637e+02
2.003679e+03,8.937376e+02
2.004643e+03,8.876420e+02
2.005607e+03,8.886016e+02
2.006571e+03,8.946856e+02
2.007536e+03,8.966771e+02
2.008500e+03,8.958316e+02
2.009464e+03,8.963434e+02
2.010428e+03,8.984286e+02
2.011393e+03,8.957592e+02
2.012357e+03,8.873834e+02
2.013321e+03,8.860407e+02
2.014285e+03,8.913406e+02
2.015250e+03,8.943735e+02
2.016214e+03,8.887448e+02
2.017178e+03,8.846180e+02
2.018142e+03,8.827994e+02
2.019106e+03,8.808354e+02
2.020071e+03,8.759953e+02
2.021035e+03,8.740718e+02
2.021999e+03,8.799343e+02
2.022963e+03,8.848045e+02
2.023928e+03,8.856049e+02
2.024892e+03,8.851672e+02
2.025856e+03,8.868929e+02
2.026820e+03,8.879682e+02
2.027785e+03,8.863636e+02
2.028749e+03,8.833966e+02
2.029713e+03,8.800403e+02
2.030677e+03,8.779662e+02
2.031641e+03,8.804092e+02
2.032606e+03,8.847655e+02
2.033570e+03,8.866470e+02
2.034534e+03,8.864009e+02
2.035498e+03,8.867537e+02
2.036463e+03,8.868425e+02
2.037427e+03,8.833771e+02
2.038391e+03,8.770159e+02
2.039355e+03,8.747747e+02
2.040320e+03,8.756741e+02
2.041284e+03,8.750186e+02
2.042248e+03,8.714578e+02
2.043212e+03,8.660001e+02
2.044177e+03,8.584887e+02
2.045141e+03,8.603800e+02
2.046105e+03,8.728786e+02
2.047069e+03,8.818913e+02
2.048033e+03,8.785443e+02
2.048998e+03,8.729121e+02
2.049962e+03,8.658230e+02
2.050926e+03,8.596066e+02
2.051890e+03,8.551597e+02
2.052854e+03,8.531010e+02
2.053819e+03,8.536487e+02
2.054783e+03,8.542795e+02
2.055747e+03,8.538436e+02
2.056711e+03,8.548564e+02
2.057676e+03,8.617531e+02
2.058640e+03,8.680824e+02
2.059604e+03,8.699212e+02
2.060568e+03,8.685537e+02
2.061533e+03,8.669326e+02
2.062497e+03,8.630430e+02
2.063461e+03,8.512419e+02
2.064425e+03,8.391689e+02
2.065390e+03,8.387759e+02
2.066354e+03,8.448166e+02
2.067318e+03,8.501791e+02
2.068282e+03,8.533381e+02
2.069247e+03,8.521150e+02
2.070211e+03,8.468535e+02
2.071175e+03,8.379304e+02
2.072139e+03,8.290656e+02
2.073104e+03,8.315922e+02
2.074068e+03,8.455811e+02
2.075032e+03,8.469969e+02
2.075996e+03,8.391006e+02
2.076960e+03,8.393348e+02
2.077925e+03,8.506008e+02
2.078889e+03,8.521188e+02
2.079853e+03,8.424779e+02
2.080817e+03,8.357761e+02
2.081782e+03,8.336692e+02
2.082746e+03,8.340516e+02
2.083710e+03,8.382745e+02
2.084674e+03,8.413259e+02
2.085639e+03,8.433968e+02
2.086603e+03,8.436118e+02
2.087567e+03,8.375347e+02
2.088531e+03,8.344056e+02
2.089496e+03,8.356887e+02
2.090460e+03,8.352898e+02
2.091424e+03,8.309563e+02
2.092388e+03,8.283672e+02
2.093353e+03,8.321202e+02
2.094317e+03,8.353959e+02
2.095281e+03,8.352529e+02
2.096245e+03,8.340143e+02
2.097209e+03,8.335038e+02
2.098174e+03,8.338934e+02
2.099138e+03,8.361107e+02
2.100102e+03,8.376883e+02
2.101066e+03,8.358876e+02
2.102031e+03,8.320500e+02
2.102995e+03,8.248025e+02
2.103959e+03,8.190184e+02
2.104923e+03,8.191870e+02
2.105887e+03,8.235807e+02
2.106852e+03,8.315007e+02
2.107816e+03,8.370072e+02
2.108780e+03,8.344628e+02
2.109744e+03,8.269792e+02
2.110708e+03,8.197913e+02
2.111673e+03,8.158317e+02
2.112637e+03,8.224689e+02
2.113601e+03,8.327996e+02
2.114565e+03,8.312643e+02
2.115530e+03,8.223762e+02
2.116494e+03,8.139011e+02
2.117458e+03,8.086218e+02
2.118422e+03,8.088882e+02
2.119387e+03,8.128386e+02
2.120351e+03,8.125678e+02
2.121315e+03,8.098419e+02
2.122279e+03,8.151886e+02
2.123244e+03,8.291121e+02
2.124208e+03,8.281374e+02
2.125172e+03,8.167102e+02
2.126136e+03,8.088466e+02
2.127101e+03,8.080906e+02
2.128065e+03,8.065731e+02
2.129029e+03,8.044301e+02
2.129993e+03,8.042256e+02
2.130958e+03,8.057224e+02
2.131922e+03,8.093293e+02
2.132886e+03,8.156691e+02
2.133850e+03,8.149840e+02
2.134814e+03,8.075753e+02
2.135779e+03,8.039200e+02
2.136743e+03,8.103713e+02
2.137707e+03,8.065450e+02
2.138671e+03,7.925280e+02
2.139636e+03,7.840064e+02
2.140600e+03,7.930182e+02
2.141564e+03,7.986526e+02
2.142528e+03,7.996037e+02
2.143493e+03,7.986802e+02
2.144457e+03,7.957079e+02
2.145421e+03,7.943500e+02
2.146385e+03,7.964474e+02
2.147350e+03,7.969857e+02
2.148314e+03,7.950128e+02
2.149278e+03,7.924792e+02
2.150242e+03,7.859682e+02
2.151207e+03,7.861291e+02
2.152171e+03,7.954063e+02
2.153135e+03,8.031555e+02
2.154099e+03,8.018868e+02
2.155063e+03,7.979885e+02
2.156028e+03,7.926836e+02
2.156992e+03,7.896125e+02
2.157956e+03,7.924074e+02
2.158920e+03,7.940136e+02
2.159885e+03,7.908918e+02
2.160849e+03,7.866331e+02
2.161813e+03,7.820151e+02
2.162777e+03,7.790107e+02
2.163741e+03,7.816399e+02
2.164706e+03,7.834700e+02
2.165670e+03,7.826899e+02
2.166634e+03,7.817264e+02
2.167598e+03,7.820108e+02
2.168563e+03,7.829609e+02
2.169527e+03,7.832262e+02
2.170491e+03,7.843361e+02
2.171455e+03,7.934187e+02
2.172420e+03,7.984022e+02
2.173384e+03,7.875276e+02
2.174348e+03,7.772999e+02
2.175312e+03,7.855789e+02
2.176277e+03,7.945748e+02
2.177241e+03,7.817133e+02
2.178205e+03,7.679786e+02
2.179169e+03,7.678430e+02
2.180134e+03,7.728386e+02
2.181098e+03,7.696019e+02
2.182062e+03,7.682108e+02
2.183026e+03,7.764725e+02
2.183990e+03,7.853055e+02
2.184955e+03,7.779711e+02
2.185919e+03,7.689941e+02
2.186883e+03,7.705471e+02
2.187847e+03,7.752002e+02
2.188812e+03,7.730394e+02
2.189776e+03,7.704984e+02
2.190740e+03,7.771971e+02
2.191704e+03,7.837536e+02
2.192668e+03,7.809731e+02
2.193633e+03,7.739469e+02
2.194597e+03,7.682259e+02
2.195561e+03,7.638792e+02
2.196525e+03,7.604779e+02
2.197490e+03,7.579427e+02
2.198454e+03,7.556423e+02
2.199418e+03,7.552200e+02
2.200382e+03,7.592655e+02
2.201347e+03,7.641718e+02
2.202311e+03,7.627371e+02
2.203275e+03,7.578578e+02
2.204239e+03,7.494404e+02
2.205204e+03,7.424267e+02
2.206168e+03,7.493528e+02
2.207132e+03,7.585486e+02
2.208096e+03,7.506246e+02
2.209061e+03,7.390314e+02
2.210025e+03,7.403422e+02
2.210989e+03,7.469413e+02
2.211953e+03,7.487932e+02
2.212917e+03,7.482598e+02
2.213882e+03,7.439080e+02
2.214846e+03,7.397568e+02
2.215810e+03,7.479557e+02
2.216774e+03,7.571945e+02
2.217739e+03,7.585740e+02
2.218703e+03,7.553443e+02
2.219667e+03,7.506663e+02
2.220631e+03,7.465142e+02
2.221595e+03,7.448171e+02
2.222560e+03,7.437751e+02
2.223524e+03,7.400853e+02
2.224488e+03,7.367275e+02
2.225452e+03,7.397488e+02
2.226417e+03,7.431297e+02
2.227381e+03,7.389133e+02
2.228345e+03,7.333099e+02
2.229309e+03,7.340256e+02
2.230274e+03,7.368943e+02
2.231238e+03,7.396841e+02
2.232202e+03,7.407057e+02
2.233166e+03,7.359814e+02
2.234131e+03,7.314801e+02
2.235095e+03,7.317473e+02
2.236059e+03,7.336788e+02
2.237023e+03,7.326221e+02
2.237988e+03,7.303730e+02
2.238952e+03,7.277297e+02
2.239916e+03,7.253076e+02
2.240880e+03,7.263588e+02
2.241844e+03,7.261092e+02
2.242809e+03,7.186993e+02
2.243773e+03,7.132280e+02
2.244737e+03,7.228880e+02
2.245701e+03,7.327678e+02
2.246666e+03,7.278098e+02
2.247630e+03,7.218131e+02
2.248594e+03,7.259241e+02
2.249558e+03,7.321749e+02
2.250522e+03,7.334227e+02
2.251487e+03,7.316275e+02
2.252451e+03,7.257322e+02
2.253415e+03,7.192175e+02
2.254379e+03,7.175695e+02
2.255344e+03,7.161033e+02
2.256308e+03,7.129464e+02
2.257272e+03,7.100400e+02
2.258236e+03,7.088591e+02
2.259201e+03,7.093936e+02
2.260165e+03,7.113107e+02
2.261129e+03,7.135494e+02
2.262093e+03,7.163632e+02
2.263058e+03,7.165226e+02
2.264022e+03,7.134296e+02
2.264986e+03,7.112897e+02
2.265950e+03,7.137529e+02
2.266915e+03,7.142262e+02
2.267879e+03,7.095814e+02
2.268843e+03,7.062112e+02
2.269807e+03,7.087762e+02
2.270771e+03,7.099098e+02
2.271736e+03,7.060220e+02
2.272700e+03,7.051505e+02
2.273664e+03,7.091447e+02
2.274628e+03,7.124467e+02
2.275593e+03,7.118155e+02
2.276557e+03,7.124745e+02
2.277521e+03,7.158408e+02
2.278485e+03,7.169309e+02
2.279449e+03,7.113665e+02
2.280414e+03,7.084733e+02
2.281378e+03,7.085571e+02
2.282342e+03,7.069149e+02
2.283306e+03,6.962596e+02
2.284271e+03,6.952797e+02
2.285235e+03,7.028506e+02
2.286199e+03,7.064667e+02
2.287163e+03,7.014326e+02
2.288128e+03,6.980593e+02
2.289092e+03,6.958512e+02
2.290056e+03,6.945720e+02
2.291020e+03,6.944271e+02
2.291985e+03,6.915826e+02
2.292949e+03,6.870999e+02
2.293913e+03,6.862344e+02
2.294877e+03,6.890105e+02
2.295842e+03,6.906048e+02
2.296806e+03,6.907838e+02
2.297770e+03,6.943300e+02
2.298734e+03,6.995198e+02
2.299698e+03,6.985419e+02
2.300663e+03,6.927314e+02
2.301627e+03,6.926124e+02
2.302591e+03,6.952502e+02
2.303555e+03,6.934320e+02
2.304520e+03,6.885331e+02
2.305484e+03,6.871514e+02
2.306448e+03,6.878970e+02
2.307412e+03,6.877130e+02
2.308376e+03,6.871279e+02
2.309341e+03,6.893847e+02
2.310305e+03,6.922478e+02
2.311269e+03,6.935291e+02
2.312233e+03,6.935414e+02
2.313198e+03,6.900374e+02
2.314162e+03,6.865952e+02
2.315126e+03,6.888636e+02
2.316090e+03,6.915126e+02
2.317055e+03,6.879157e+02
2.318019e+03,6.836025e+02
2.318983e+03,6.836784e+02
2.319947e+03,6.839958e+02
2.320912e+03,6.810179e+02
2.321876e+03,6.795307e+02
2.322840e+03,6.856888e+02
2.323804e+03,6.888864e+02
2.324769e+03,6.828523e+02
2.325733e+03,6.773919e+02
2.326697e+03,6.799835e+02
2.327661e+03,6.821141e+02
2.328625e+03,6.806995e+02
2.329590e+03,6.795570e+02
2.330554e+03,6.833541e+02
2.331518e+03,6.838373e+02
2.332482e+03,6.795638e+02
2.333447e+03,6.748536e+02
2.334411e+03,6.711829e+02
2.335375e+03,6.687820e+02
2.336339e+03,6.676379e+02
2.337303e+03,6.670020e+02
2.338268e+03,6.660869e+02
2.339232e+03,6.663353e+02
2.340196e+03,6.676746e+02
2.341160e+03,6.680115e+02
2.342125e+03,6.664920e+02
2.343089e+03,6.688185e+02
2.344053e+03,6.728953e+02
2.345017e+03,6.739271e+02
2.345982e+03,6.719127e+02
2.346946e+03,6.716725e+02
2.347910e+03,6.723993e+02
2.348874e+03,6.685297e+02
2.349839e+03,6.624334e+02
2.350803e+03,6.664958e+02
2.351767e+03,6.737959e+02
2.352731e+03,6.672522e+02
2.353696e+03,6.556727e+02
2.354660e+03,6.520662e+02
2.355624e+03,6.528881e+02
2.356588e+03,6.563223e+02
2.357552e+03,6.584980e+02
2.358517e+03,6.542742e+02
2.359481e+03,6.494759e+02
2.360445e+03,6.521404e+02
2.361409e+03,6.547282e+02
2.362374e+03,6.535046e+02
2.363338e+03,6.506271e+02
2.364302e+03,6.476200e+02
2.365266e+03,6.468531e+02
2.366230e+03,6.488217e+02
2.367195e+03,6.507386e+02
2.368159e+03,6.493775e+02
2.369123e+03,6.500668e+02
2.370087e+03,6.542137e+02
2.371052e+03,6.584422e+02
2.372016e+03,6.635187e+02
2.372980e+03,6.585128e+02
2.373944e+03,6.440221e+02
2.374909e+03,6.382861e+02
2.375873e+03,6.496238e+02
2.376837e+03,6.570721e+02
2.377801e+03,6.607956e+02
2.378766e+03,6.603849e+02
2.379730e+03,6.560148e+02
2.380694e+03,6.447963e+02
2.381658e+03,6.312697e+02
2.382623e+03,6.275237e+02
2.383587e+03,6.306569e+02
2.384551e+03,6.299836e+02
2.385515e+03,6.290572e+02
2.386479e+03,6.378055e+02
2.387444e+03,6.481473e+02
2.388408e+03,6.470675e+02
2.389372e+03,6.419205e+02
2.390336e+03,6.383184e+02
2.391301e+03,6.371141e+02
2.392265e+03,6.416500e+02
2.393229e+03,6.448611e+02
2.394193e+03,6.425538e+02
2.395157e+03,6.383755e+02
2.396122e+03,6.340852e+02
2.397086e+03,6.290042e+02
2.398050e+03,6.219648e+02
2.399014e+03,6.216700e+02
2.399979e+03,6.336215e+02
2.400943e+03,6.415797e+02
2.401907e+03,6.426956e+02
2.402871e+03,6.423690e+02
2.403836e+03,6.418572e+02
2.404800e+03,6.383210e+02
2.405764e+03,6.320555e+02
2.406728e+03,6.326606e+02
2.407693e+03,6.391410e+02
2.408657e+03,6.414737e+02
2.409621e+03,6.400182e+02
2.410585e+03,6.351791e+02
2.411550e+03,6.287006e+02
2.412514e+03,6.236660e+02
2.413478e+03,6.204114e+02
2.414442e+03,6.199882e+02
2.415406e+03,6.227596e+02
2.416371e+03,6.310261e+02
2.417335e+03,6.377231e+02
2.418299e+03,6.273143e+02
2.419263e+03,6.181931e+02
2.420228e+03,6.209407e+02
2.421192e+03,6.257766e+02
2.422156e+03,6.243333e+02
2.423120e+03,6.218597e+02
2.424084e+03,6.186520e+02
2.425049e+03,6.171202e+02
2.426013e+03,6.201408e+02
2.426977e+03,6.232433e+02
2.427941e+03,6.264563e+02
2.428906e+03,6.286713e+02
2.429870e+03,6.295649e+02
2.430834e+03,6.248665e+02
2.431798e+03,6.165977e+02
2.432763e+03,6.157653e+02
2.433727e+03,6.217255e+02
2.434691e+03,6.238731e+02
2.435655e+03,6.232301e+02
2.436620e+03,6.219404e+02
2.437584e+03,6.203354e+02
2.438548e+03,6.198654e+02
2.439512e+03,6.179756e+02
2.440477e+03,6.112988e+02
2.441441e+03,6.034667e+02
2.442405e+03,5.983571e+02
2.443369e+03,5.984568e+02
2.444333e+03,6.053973e+02
2.445298e+03,6.123525e+02
2.446262e+03,6.136376e+02
2.447226e+03,6.116722e+02
2.448190e+03,6.072206e+02
2.449155e+03,6.044123e+02
2.450119e+03,6.075924e+02
2.451083e+03,6.086514e+02
2.452047e+03,6.077704e+02
2.453011e+03,6.098886e+02
2.453976e+03,6.167628e+02
2.454940e+03,6.155519e+02
2.455904e+03,6.090992e+02
2.456868e+03,6.031537e+02
2.457833e+03,5.986212e+02
2.458797e+03,5.985549e+02
2.459761e+03,6.016818e+02
2.460725e+03,6.080157e+02
2.461690e+03,6.117115e+02
2.462654e+03,5.993112e+02
2.463618e+03,5.872652e+02
2.464582e+03,5.859345e+02
2.465547e+03,5.890417e+02
2.466511e+03,5.930986e+02
2.467475e+03,5.944247e+02
2.468439e+03,5.923281e+02
2.469404e+03,5.886416e+02
2.470368e+03,5.822275e+02
2.471332e+03,5.823712e+02
2.472296e+03,5.881657e+02
2.473260e+03,5.921840e+02
2.474225e+03,5.924584e+02
2.475189e+03,5.988409e+02
2.476153e+03,6.075978e+02
2.477117e+03,6.013159e+02
2.478082e+03,5.869044e+02
2.479046e+03,5.911108e+02
2.480010e+03,6.014000e+02
2.480974e+03,6.009310e+02
2.481938e+03,5.960196e+02
2.482903e+03,5.922887e+02
2.483867e+03,5.926259e+02
2.484831e+03,5.992159e+02
2.485795e+03,6.033534e+02
2.486760e+03,5.946996e+02
2.487724e+03,5.897362e+02
2.488688e+03,5.914031e+02
2.489652e+03,5.938153e+02
2.490617e+03,5.940754e+02
2.491581e+03,5.939876e+02
2.492545e+03,5.934667e+02
2.493509e+03,5.884908e+02
2.494474e+03,5.792122e+02
2.495438e+03,5.809078e+02
2.496402e+03,5.882144e+02
2.497366e+03,5.898820e+02
2.498331e+03,5.873328e+02
2.499295e+03,5.809551e+02
2.500259e+03,5.755021e+02
2.501223e+03,5.755988e+02
2.502188e+03,5.785663e+02
2.503152e+03,5.832985e+02
2.504116e+03,5.874898e+02
2.505080e+03,5.907898e+02
2.506044e+03,5.913931e+02
2.507009e+03,5.854094e+02
2.507973e+03,5.804338e+02
2.508937e+03,5.772011e+02
2.509901e+03,5.771135e+02
2.510865e+03,5.806512e+02
2.511830e+03,5.783889e+02
2.512794e+03,5.727188e+02
2.513758e+03,5.723514e+02
2.514722e+03,5.758680e+02
2.515687e+03,5.786790e+02
2.516651e+03,5.802122e+02
2.517615e+03,5.800225e+02
2.518579e+03,5.786702e+02
2.519544e+03,5.768867e+02
2.520508e+03,5.730860e+02
2.521472e+03,5.662276e+02
2.522436e+03,5.633719e+02
2.523401e+03,5.749325e+02
2.524365e+03,5.795583e+02
2.525329e+03,5.757632e+02
2.526293e+03,5.719066e+02
2.527258e+03,5.705128e+02
2.528222e+03,5.676034e+02
2.529186e+03,5.643829e+02
2.530150e+03,5.649557e+02
2.531115e+03,5.683493e+02
2.532079e+03,5.710361e+02
2.533043e+03,5.729576e+02
2.534007e+03,5.748782e+02
2.534971e+03,5.738351e+02
2.535936e+03,5.626817e+02
2.536900e+03,5.550968e+02
2.537864e+03,5.561311e+02
2.538828e+03,5.587585e+02
2.539792e+03,5.586471e+02
2.540757e+03,5.591273e+02
2.541721e+03,5.605604e+02
2.542685e+03,5.632966e+02
2.543649e+03,5.673654e+02
2.544614e+03,5.713295e+02
2.545578e+03,5.743756e+02
2.546542e+03,5.775556e+02
2.547506e+03,5.787581e+02
2.548471e+03,5.679236e+02
2.549435e+03,5.567661e+02
2.550399e+03,5.564152e+02
2.551363e+03,5.592851e+02
2.552328e+03,5.603398e+02
2.553292e+03,5.607762e+02
2.554256e+03,5.609698e+02
2.555220e+03,5.602382e+02
2.556185e+03,5.584028e+02
2.557149e+03,5.575055e+02
2.558113e+03,5.579864e+02
2.559077e+03,5.603538e+02
2.560042e+03,5.634002e+02
2.561006e+03,5.638793e+02
2.561970e+03,5.637057e+02
2.562934e+03,5.658808e+02
2.563898e+03,5.679093e+02
2.564863e+03,5.672066e+02
2.565827e+03,5.631296e+02
2.566791e+03,5.513288e+02
2.567755e+03,5.459781e+02
2.568719e+03,5.496472e+02
2.569684e+03,5.514955e+02
2.570648e+03,5.457670e+02
2.571612e+03,5.445646e+02
2.572576e+03,5.479766e+02
2.573541e+03,5.525364e+02
2.574505e+03,5.560320e+02
2.575469e+03,5.521191e+02
2.576433e+03,5.451816e+02
2.577398e+03,5.420173e+02
2.578362e+03,5.418157e+02
2.579326e+03,5.463441e+02
2.580290e+03,5.488273e+02
2.581255e+03,5.461554e+02
2.582219e+03,5.423192e+02
2.583183e+03,5.396962e+02
2.584147e+03,5.375239e+02
2.585112e+03,5.366125e+02
2.586076e+03,5.381608e+02
2.587040e+03,5.420789e+02
2.588004e+03,5.507166e+02
2.588969e+03,5.586047e+02
2.589933e+03,5.544578e+02
2.590897e+03,5.447769e+02
2.591861e+03,5.416580e+02
2.592825e+03,5.414420e+02
2.593790e+03,5.423610e+02
2.594754e+03,5.406666e+02
2.595718e+03,5.322462e+02
2.596682e+03,5.255289e+02
2.597646e+03,5.218095e+02
2.598611e+03,5.266592e+02
2.599575e+03,5.390343e+02
2.600539e+03,5.427001e+02
2.601503e+03,5.373190e+02
2.602468e+03,5.309749e+02
2.603432e+03,5.253151e+02
2.604396e+03,5.253500e+02
2.605360e+03,5.277972e+02
2.606325e+03,5.316666e+02
2.607289e+03,5.320078e+02
2.608253e+03,5.263856e+02
2.609217e+03,5.221399e+02
2.610182e+03,5.216937e+02
2.611146e+03,5.261320e+02
2.612110e+03,5.337606e+02
2.613074e+03,5.312924e+02
2.614039e+03,5.198981e+02
2.615003e+03,5.144379e+02
2.615967e+03,5.137828e+02
2.616931e+03,5.185374e+02
2.617896e+03,5.243654e+02
2.618860e+03,5.266955e+02
2.619824e+03,5.255788e+02
2.620788e+03,5.207810e+02
2.621752e+03,5.175731e+02
2.622717e+03,5.192260e+02
2.623681e+03,5.259627e+02
2.624645e+03,5.357635e+02
2.625609e+03,5.325638e+02
2.626573e+03,5.193024e+02
2.627538e+03,5.226974e+02
2.628502e+03,5.320781e+02
2.629466e+03,5.296371e+02
2.630430e+03,5.230274e+02
2.631395e+03,5.207165e+02
2.632359e+03,5.205563e+02
2.633323e+03,5.229909e+02
2.634287e+03,5.227745e+02
2.635252e+03,5.191265e+02
2.636216e+03,5.177580e+02
2.637180e+03,5.195652e+02
2.638144e+03,5.238486e+02
2.639109e+03,5.282908e+02
2.640073e+03,5.264211e+02
2.641037e+03,5.223646e+02
2.642001e+03,5.197161e+02
2.642966e+03,5.179955e+02
2.643930e+03,5.168287e+02
2.644894e+03,5.159361e+02
2.645858e+03,5.169124e+02
2.646823e+03,5.118966e+02
2.647787e+03,5.016750e+02
2.648751e+03,5.025593e+02
2.649715e+03,5.146166e+02
2.650679e+03,5.171974e+02
2.651644e+03,5.142211e+02
2.652608e+03,5.117705e+02
2.653572e+03,5.101432e+02
2.654536e+03,5.101367e+02
2.655500e+03,5.105135e+02
2.656465e+03,5.105331e+02
2.657429e+03,5.137372e+02
2.658393e+03,5.213087e+02
2.659357e+03,5.214921e+02
2.660322e+03,5.145833e+02
2.661286e+03,5.110361e+02
2.662250e+03,5.102507e+02
2.663214e+03,5.115408e+02
2.664179e+03,5.112598e+02
2.665143e+03,4.991381e+02
2.666107e+03,4.965125e+02
2.667071e+03,5.166614e+02
2.668036e+03,5.280118e+02
2.669000e+03,5.044650e+02
2.669964e+03,4.992543e+02
2.670928e+03,5.102872e+02
2.671893e+03,5.111424e+02
2.672857e+03,5.028827e+02
2.673821e+03,5.017925e+02
2.674785e+03,5.031637e+02
2.675750e+03,5.019150e+02
2.676714e+03,5.003599e+02
2.677678e+03,5.013040e+02
2.678642e+03,5.010008e+02
2.679606e+03,4.986012e+02
2.680571e+03,4.992261e+02
2.681535e+03,5.032396e+02
2.682499e+03,5.045287e+02
2.683463e+03,5.021306e+02
2.684427e+03,4.957033e+02
2.685392e+03,4.894371e+02
2.686356e+03,4.919142e+02
2.687320e+03,4.957560e+02
2.688284e+03,4.969100e+02
2.689249e+03,4.978162e+02
2.690213e+03,4.989305e+02
2.691177e+03,4.971632e+02
2.692141e+03,4.915597e+02
2.693106e+03,4.899575e+02
2.694070e+03,4.921617e+02
2.695034e+03,4.993482e+02
2.695998e+03,5.061657e+02
2.696963e+03,5.009023e+02
2.697927e+03,4.960490e+02
2.698891e+03,4.972413e+02
2.699855e+03,5.005313e+02
2.700820e+03,5.058971e+02
2.701784e+03,5.010406e+02
2.702748e+03,4.873421e+02
2.703712e+03,4.881904e+02
2.704677e+03,4.978809e+02
2.705641e+03,4.958043e+02
2.706605e+03,4.896791e+02
2.707569e+03,4.855526e+02
2.708533e+03,4.850309e+02
2.709498e+03,4.887359e+02
2.710462e+03,4.911668e+02
2.711426e+03,4.894654e+02
2.712390e+03,4.925737e+02
2.713354e+03,4.986313e+02
2.714319e+03,4.983137e+02
2.715283e+03,4.944217e+02
2.716247e+03,4.937092e+02
2.717211e+03,4.950306e+02
2.718176e+03,4.979291e+02
2.719140e+03,4.986810e+02
2.720104e+03,4.929260e+02
2.721068e+03,4.917438e+02
2.722033e+03,4.958025e+02
2.722997e+03,4.923160e+02
2.723961e+03,4.837707e+02
2.724925e+03,4.853691e+02
2.725890e+03,4.908030e+02
2.726854e+03,4.896927e+02
2.727818e+03,4.887604e+02
2.728782e+03,4.914777e+02
2.729747e+03,4.925161e+02
2.730711e+03,4.876577e+02
2.731675e+03,4.867655e+02
2.732639e+03,4.891557e+02
2.733604e+03,4.899547e+02
2.734568e+03,4.894070e+02
2.735532e+03,4.889966e+02
2.736496e+03,4.886284e+02
2.737460e+03,4.889832e+02
2.738425e+03,4.874494e+02
2.739389e+03,4.815011e+02
2.740353e+03,4.773623e+02
2.741317e+03,4.760671e+02
2.742281e+03,4.726805e+02
2.743246e+03,4.685650e+02
2.744210e+03,4.690045e+02
2.745174e+03,4.703856e+02
2.746138e+03,4.657747e+02
2.747103e+03,4.689619e+02
2.748067e+03,4.857450e+02
2.749031e+03,4.954995e+02
2.749995e+03,4.854426e+02
2.750960e+03,4.695640e+02
2.751924e+03,4.536307e+02
2.752888e+03,4.578951e+02
2.753852e+03,4.711717e+02
2.754817e+03,4.682429e+02
2.755781e+03,4.640361e+02
2.756745e+03,4.666282e+02
2.757709e+03,4.722276e+02
2.758674e+03,4.789749e+02
2.759638e+03,4.811804e+02
2.760602e+03,4.772730e+02
2.761566e+03,4.654481e+02
2.762531e+03,4.550065e+02
2.763495e+03,4.640687e+02
2.764459e+03,4.769173e+02
2.765423e+03,4.807515e+02
2.766387e+03,4.782186e+02
2.767352e+03,4.708456e+02
2.768316e+03,4.686175e+02
2.769280e+03,4.731696e+02
2.770244e+03,4.679270e+02
2.771208e+03,4.602081e+02
2.772173e+03,4.642954e+02
2.773137e+03,4.731394e+02
2.774101e+03,4.829405e+02
2.775065e+03,4.850143e+02
2.776030e+03,4.723667e+02
2.776994e+03,4.651231e+02
2.777958e+03,4.638525e+02
2.778922e+03,4.646461e+02
2.779887e+03,4.658319e+02
2.780851e+03,4.611776e+02
2.781815e+03,4.611540e+02
2.782779e+03,4.744739e+02
2.783744e+03,4.811773e+02
2.784708e+03,4.640320e+02
2.785672e+03,4.580027e+02
2.786636e+03,4.648217e+02
2.787601e+03,4.701154e+02
2.788565e+03,4.742820e+02
2.789529e+03,4.822913e+02
2.790493e+03,4.879869e+02
2.791458e+03,4.840751e+02
2.792422e+03,4.773677e+02
2.793386e+03,4.705169e+02
2.794350e+03,4.639470e+02
2.795314e+03,4.575891e+02
2.796279e+03,4.597481e+02
2.797243e+03,4.660007e+02
2.798207e+03,4.704542e+02
2.799171e+03,4.729758e+02
2.800135e+03,4.708827e+02
2.801100e+03,4.715116e+02
2.802064e+03,4.773308e+02
2.803028e+03,4.728806e+02
2.803992e+03,4.600880e+02
2.804957e+03,4.554407e+02
2.805921e+03,4.540955e+02
2.806885e+03,4.393827e+02
2.807849e+03,4.334802e+02
2.808814e+03,4.462050e+02
2.809778e+03,4.611216e+02
2.810742e+03,4.721317e+02
2.811706e+03,4.772971e+02
2.812671e+03,4.760599e+02
2.813635e+03,4.686098e+02
2.814599e+03,4.595246e+02
2.815563e+03,4.581728e+02
2.816528e+03,4.576917e+02
2.817492e+03,4.551618e+02
2.818456e+03,4.512850e+02
2.819420e+03,4.466801e+02
2.820385e+03,4.503622e+02
2.821349e+03,4.598029e+02
2.822313e+03,4.619704e+02
2.823277e+03,4.603563e+02
2.824241e+03,4.576214e+02
2.825206e+03,4.565412e+02
2.826170e+03,4.591662e+02
2.827134e+03,4.668068e+02
2.828098e+03,4.764735e+02
2.829063e+03,4.690955e+02
2.830027e+03,4.542115e+02
2.830991e+03,4.528865e+02
2.831955e+03,4.562357e+02
2.832919e+03,4.577053e+02
2.833884e+03,4.611917e+02
2.834848e+03,4.665104e+02
2.835812e+03,4.642648e+02
2.836776e+03,4.558201e+02
2.837741e+03,4.577203e+02
2.838705e+03,4.625200e+02
2.839669e+03,4.618605e+02
2.840633e+03,4.596501e+02
2.841598e+03,4.581443e+02
2.842562e+03,4.558590e+02
2.843526e+03,4.530140e+02
2.844490e+03,4.545107e+02
2.845455e+03,4.571108e+02
2.846419e+03,4.550040e+02
2.847383e+03,4.529887e+02
2.848347e+03,4.559039e+02
2.849312e+03,4.636199e+02
2.850276e+03,4.754779e+02
2.851240e+03,4.751953e+02
2.852204e+03,4.650482e+02
2.853168e+03,4.605827e+02
2.854133e+03,4.609404e+02
2.855097e+03,4.694993e+02
2.856061e+03,4.714430e+02
2.857025e+03,4.623811e+02
2.857990e+03,4.535171e+02
2.858954e+03,4.482408e+02
2.859918e+03,4.549406e+02
2.860882e+03,4.658739e+02
2.861846e+03,4.691163e+02
2.862811e+03,4.665233e+02
2.863775e+03,4.577162e+02
2.864739e+03,4.504450e+02
2.865703e+03,4.469681e+02
2.866668e+03,4.538057e+02
2.867632e+03,4.657377e+02
2.868596e+03,4.679995e+02
2.869560e+03,4.673043e+02
2.870525e+03,4.741693e+02
2.871489e+03,4.767990e+02
2.872453e+03,4.722082e+02
2.873417e+03,4.691900e+02
2.874382e+03,4.683741e+02
2.875346e+03,4.674572e+02
2.876310e+03,4.660586e+02
2.877274e+03,4.610877e+02
2.878239e+03,4.590939e+02
2.879203e+03,4.620049e+02
2.880167e+03,4.613519e+02
2.881131e+03,4.548633e+02
2.882095e+03,4.587380e+02
2.883060e+03,4.680742e+02
2.884024e+03,4.749211e+02
2.884988e+03,4.777640e+02
2.885952e+03,4.729981e+02
2.886917e+03,4.745663e+02
2.887881e+03,4.865636e+02
2.888845e+03,4.868085e+02
2.889809e+03,4.793295e+02
2.890773e+03,4.729465e+02
2.891738e+03,4.677544e+02
2.892702e+03,4.631669e+02
2.893666e+03,4.651656e+02
2.894630e+03,4.742749e+02
2.895595e+03,4.800905e+02
2.896559e+03,4.816053e+02
2.897523e+03,4.748544e+02
2.898487e+03,4.707350e+02
2.899452e+03,4.885153e+02
2.900416e+03,4.945417e+02
2.901380e+03,4.825223e+02
2.902344e+03,4.703986e+02
2.903309e+03,4.628176e+02
2.904273e+03,4.742247e+02
2.905237e+03,4.865782e+02
2.906201e+03,4.792513e+02
2.907166e+03,4.723161e+02
2.908130e+03,4.746351e+02
2.909094e+03,4.801078e+02
2.910058e+03,4.856305e+02
2.911022e+03,4.734961e+02
2.911987e+03,4.589623e+02
2.912951e+03,4.586958e+02
2.913915e+03,4.615508e+02
2.914879e+03,4.597525e+02
2.915844e+03,4.597892e+02
2.916808e+03,4.618535e+02
2.917772e+03,4.620770e+02
2.918736e+03,4.601546e+02
2.919700e+03,4.537483e+02
2.920665e+03,4.500404e+02
2.921629e+03,4.606721e+02
2.922593e+03,4.531946e+02
2.923557e+03,4.339161e+02
2.924522e+03,4.426043e+02
2.925486e+03,4.615891e+02
2.926450e+03,4.407616e+02
2.927414e+03,4.254237e+02
2.928379e+03,4.391974e+02
2.929343e+03,4.479505e+02
2.930307e+03,4.482207e+02
2.931271e+03,4.422813e+02
2.932236e+03,4.361526e+02
2.933200e+03,4.419629e+02
2.934164e+03,4.441266e+02
2.935128e+03,4.357352e+02
2.936093e+03,4.267892e+02
2.937057e+03,4.210427e+02
2.938021e+03,4.351932e+02
2.938985e+03,4.532208e+02
2.939949e+03,4.447713e+02
2.940914e+03,4.354781e+02
2.941878e+03,4.347848e+02
2.942842e+03,4.358785e+02
2.943806e+03,4.365002e+02
2.944771e+03,4.417910e+02
2.945735e+03,4.498661e+02
2.946699e+03,4.636669e+02
2.947663e+03,4.618727e+02
2.948627e+03,4.392561e+02
2.949592e+03,4.282581e+02
2.950556e+03,4.342192e+02
2.951520e+03,4.401550e+02
2.952484e+03,4.402988e+02
2.953449e+03,4.268184e+02
2.954413e+03,4.268656e+02
2.955377e+03,4.517378e+02
2.956341e+03,4.771572e+02
2.957306e+03,4.955538e+02
2.958270e+03,4.944464e+02
2.959234e+03,4.764964e+02
2.960198e+03,4.458168e+02
2.961163e+03,4.237746e+02
2.962127e+03,4.195565e+02
2.963091e+03,4.173148e+02
2.964055e+03,4.177271e+02
2.965020e+03,4.294012e+02
2.965984e+03,4.395420e+02
2.966948e+03,4.382418e+02
2.967912e+03,4.333299e+02
2.968876e+03,4.265944e+02
2.969841e+03,4.249830e+02
2.970805e+03,4.263620e+02
2.971769e+03,4.259814e+02
2.972733e+03,4.274961e+02
2.973698e+03,4.347816e+02
2.974662e+03,4.332335e+02
2.975626e+03,4.184108e+02
2.976590e+03,4.136842e+02
2.977554e+03,4.119308e+02
2.978519e+03,4.024933e+02
2.979483e+03,3.924742e+02
2.980447e+03,3.856754e+02
2.981411e+03,3.929070e+02
2.982376e+03,4.133002e+02
2.983340e+03,4.233817e+02
2.984304e+03,4.239233e+02
2.985268e+03,4.159073e+02
2.986233e+03,4.097648e+02
2.987197e+03,4.126637e+02
2.988161e+03,4.084503e+02
2.989125e+03,4.006717e+02
2.990090e+03,4.034354e+02
2.991054e+03,4.063351e+02
2.992018e+03,4.006717e+02
2.992982e+03,3.944614e+02
2.993947e+03,3.901479e+02
2.994911e+03,4.022799e+02
2.995875e+03,4.205096e+02
2.996839e+03,4.264906e+02
2.997803e+03,4.285486e+02
2.998768e+03,4.335890e+02
2.999732e+03,4.264840e+02
3.000696e+03,4.062214e+02
3.001660e+03,3.950450e+02
3.002625e+03,3.953366e+02
3.003589e+03,4.091664e+02
3.004553e+03,4.190055e+02
3.005517e+03,4.168966e+02
3.006481e+03,4.154687e+02
3.007446e+03,4.141659e+02
3.008410e+03,4.091206e+02
3.009374e+03,4.019760e+02
3.010338e+03,3.939987e+02
3.011303e+03,3.924879e+02
3.012267e+03,3.989171e+02
3.013231e+03,3.997872e+02
3.014195e+03,3.968413e+02
3.015160e+03,3.934019e+02
3.016124e+03,3.908108e+02
3.017088e+03,3.891032e+02
3.018052e+03,3.965298e+02
3.019017e+03,4.110438e+02
3.019981e+03,4.127603e+02
3.020945e+03,4.050757e+02
3.021909e+03,3.888192e+02
3.022874e+03,3.826487e+02
3.023838e+03,3.881537e+02
3.024802e+03,3.972706e+02
3.025766e+03,4.038919e+02
3.026730e+03,3.916926e+02
3.027695e+03,3.787115e+02
3.028659e+03,3.726075e+02
3.029623e+03,3.790343e+02
3.030587e+03,3.943851e+02
3.031552e+03,4.110846e+02
3.032516e+03,4.209067e+02
3.033480e+03,4.127705e+02
3.034444e+03,3.945760e+02
3.035408e+03,3.720622e+02
3.036373e+03,3.801626e+02
3.037337e+03,4.045889e+02
3.038301e+03,4.047009e+02
3.039265e+03,3.958943e+02
3.040230e+03,3.773702e+02
3.041194e+03,3.799164e+02
3.042158e+03,3.965380e+02
3.043122e+03,3.983356e+02
3.044087e+03,3.932758e+02
3.045051e+03,3.907010e+02
3.046015e+03,3.924479e+02
3.046979e+03,4.001740e+02
3.047944e+03,3.999865e+02
3.048908e+03,3.943333e+02
3.049872e+03,3.863300e+02
3.050836e+03,3.817418e+02
3.051801e+03,3.851133e+02
3.052765e+03,3.838871e+02
3.053729e+03,3.791057e+02
3.054693e+03,3.869856e+02
3.055657e+03,3.957174e+02
3.056622e+03,3.966581e+02
3.057586e+03,3.944403e+02
3.058550e+03,3.911855e+02
3.059514e+03,3.936202e+02
3.060479e+03,3.979026e+02
3.061443e+03,3.964804e+02
3.062407e+03,3.930558e+02
3.063371e+03,3.892299e+02
3.064335e+03,3.942149e+02
3.065300e+03,4.027936e+02
3.066264e+03,3.795894e+02
3.067228e+03,3.631172e+02
3.068192e+03,3.811060e+02
3.069157e+03,3.929382e+02
3.070121e+03,3.932706e+02
3.071085e+03,3.799959e+02
3.072049e+03,3.674001e+02
3.073014e+03,3.791552e+02
3.073978e+03,3.935643e+02
3.074942e+03,4.052003e+02
3.075906e+03,3.997838e+02
3.076871e+03,3.873483e+02
3.077835e+03,3.827998e+02
3.078799e+03,3.818976e+02
3.079763e+03,3.826471e+02
3.080728e+03,3.809211e+02
3.081692e+03,3.810607e+02
3.082656e+03,4.026445e+02
3.083620e+03,4.109948e+02
3.084584e+03,3.886300e+02
3.085549e+03,3.756438e+02
3.086513e+03,3.810309e+02
3.087477e+03,3.843327e+02
3.088441e+03,3.876855e+02
3.089406e+03,3.970263e+02
3.090370e+03,3.977252e+02
3.091334e+03,3.888198e+02
3.092298e+03,3.687844e+02
3.093262e+03,3.518700e+02
3.094227e+03,3.788387e+02
3.095191e+03,3.959385e+02
3.096155e+03,3.835191e+02
3.097119e+03,3.786877e+02
3.098084e+03,3.793516e+02
3.099048e+03,3.750406e+02
3.100012e+03,3.687440e+02
3.100976e+03,3.605497e+02
3.101941e+03,3.689846e+02
3.102905e+03,3.892134e+02
3.103869e+03,3.839555e+02
3.104833e+03,3.729141e+02
3.105798e+03,3.692256e+02
3.106762e+03,3.772674e+02
3.107726e+03,3.955381e+02
3.108690e+03,4.023557e+02
3.109655e+03,4.018027e+02
3.110619e+03,4.001812e+02
3.111583e+03,3.883887e+02
3.112547e+03,3.695703e+02
3.113511e+03,3.708201e+02
3.114476e+03,3.814148e+02
3.115440e+03,3.771940e+02
3.116404e+03,3.729095e+02
3.117368e+03,3.740878e+02
3.118333e+03,3.818580e+02
3.119297e+03,3.907959e+02
3.120261e+03,3.914771e+02
3.121225e+03,3.937280e+02
3.122189e+03,4.030041e+02
3.123154e+03,4.077552e+02
3.124118e+03,4.073114e+02
3.125082e+03,4.075096e+02
3.126046e+03,4.046337e+02
3.127011e+03,3.967880e+02
3.127975e+03,3.931418e+02
3.128939e+03,3.938346e+02
3.129903e+03,3.981950e+02
3.130868e+03,4.018458e+02
3.131832e+03,4.007556e+02
3.132796e+03,3.981649e+02
3.133760e+03,3.920023e+02
3.134725e+03,3.698275e+02
3.135689e+03,3.506217e+02
3.136653e+03,3.515027e+02
3.137617e+03,3.630020e+02
3.138582e+03,3.827975e+02
3.139546e+03,3.815989e+02
3.140510e+03,3.757050e+02
3.141474e+03,3.841956e+02
3.142438e+03,3.949805e+02
3.143403e+03,4.031602e+02
3.144367e+03,3.897232e+02
3.145331e+03,3.692176e+02
3.146295e+03,3.603253e+02
3.147260e+03,3.647994e+02
3.148224e+03,3.832365e+02
3.149188e+03,3.967054e+02
3.150152e+03,3.986746e+02
3.151116e+03,3.810464e+02
3.152081e+03,3.724106e+02
3.153045e+03,3.843359e+02
3.154009e+03,3.890517e+02
3.154973e+03,3.872568e+02
3.155938e+03,3.806436e+02
3.156902e+03,3.795141e+02
3.157866e+03,3.843301e+02
3.158830e+03,3.711163e+02
3.159795e+03,3.515905e+02
3.160759e+03,3.569088e+02
3.161723e+03,3.685113e+02
3.162687e+03,3.822393e+02
3.163652e+03,3.881681e+02
3.164616e+03,3.894207e+02
3.165580e+03,3.888955e+02
3.166544e+03,4.018334e+02
3.167509e+03,4.318240e+02
3.168473e+03,4.210141e+02
3.169437e+03,3.841490e+02
3.170401e+03,3.828910e+02
3.171365e+03,3.831836e+02
3.172330e+03,3.705200e+02
3.173294e+03,3.851741e+02
3.174258e+03,4.041699e+02
3.175222e+03,3.734746e+02
3.176187e+03,3.460396e+02
3.177151e+03,3.566219e+02
3.178115e+03,3.735393e+02
3.179079e+03,3.889441e+02
3.180043e+03,3.843374e+02
3.181008e+03,3.880399e+02
3.181972e+03,4.093762e+02
3.182936e+03,4.008139e+02
3.183900e+03,3.775377e+02
3.184865e+03,4.032506e+02
3.185829e+03,4.304232e+02
3.186793e+03,4.369591e+02
3.187757e+03,4.150167e+02
3.188722e+03,3.839003e+02
3.189686e+03,3.867681e+02
3.190650e+03,3.939614e+02
3.191614e+03,3.922347e+02
3.192579e+03,3.958704e+02
3.193543e+03,4.017360e+02
3.194507e+03,3.924891e+02
3.195471e+03,3.850627e+02
3.196436e+03,3.860878e+02
3.197400e+03,3.910067e+02
3.198364e+03,3.989329e+02
3.199328e+03,4.098820e+02
3.200292e+03,4.220110e+02
3.201257e+03,0.000000e+00
3.202221e+03,0.000000e+00
3.203185e+03,0.000000e+00
3.204149e+03,0.000000e+00
3.205114e+03,0.000000e+00
3.206078e+03,0.000000e+00
3.207042e+03,0.000000e+00
3.208006e+03,0.000000e+00
3.208970e+03,0.000000e+00
3.209935e+03,0.000000e+00
3.210899e+03,0.000000e+00
3.211863e+03,0.000000e+00
3.212827e+03,0.000000e+00
3.213792e+03,0.000000e+00
3.214756e+03,0.000000e+00
3.215720e+03,0.000000e+00
3.216684e+03,0.000000e+00
3.217649e+03,0.000000e+00
3.218613e+03,0.000000e+00
3.219577e+03,0.000000e+00
3.220541e+03,0.000000e+00
3.221506e+03,0.000000e+00
3.222470e+03,0.000000e+00
3.223434e+03,0.000000e+00
3.224398e+03,0.000000e+00
3.225363e+03,0.000000e+00
3.226327e+03,0.000000e+00
3.227291e+03,0.000000e+00
3.228255e+03,0.000000e+00
3.229219e+03,0.000000e+00
3.230184e+03,0.000000e+00
3.231148e+03,0.000000e+00
3.232112e+03,0.000000e+00
3.233076e+03,0.000000e+00
3.234041e+03,0.000000e+00
3.235005e+03,0.000000e+00
3.235969e+03,0.000000e+00
3.236933e+03,0.000000e+00
3.237897e+03,0.000000e+00
3.238862e+03,0.000000e+00
3.239826e+03,0.000000e+00
3.240790e+03,0.000000e+00
3.241754e+03,0.000000e+00
3.242719e+03,0.000000e+00
3.243683e+03,0.000000e+00
3.244647e+03,0.000000e+00
3.245611e+03,0.000000e+00
3.246576e+03,0.000000e+00
3.247540e+03,0.000000e+00
3.248504e+03,0.000000e+00
3.249468e+03,0.000000e+00
3.250433e+03,0.000000e+00
3.251397e+03,0.000000e+00
3.252361e+03,0.000000e+00
3.253325e+03,0.000000e+00
3.254290e+03,0.000000e+00
3.255254e+03,0.000000e+00
3.256218e+03,0.000000e+00
3.257182e+03,0.000000e+00
3.258146e+03,0.000000e+00
3.259111e+03,0.000000e+00
3.260075e+03,0.000000e+00
3.261039e+03,0.000000e+00
3.262003e+03,0.000000e+00
3.262968e+03,0.000000e+00
3.263932e+03,0.000000e+00
3.264896e+03,0.000000e+00
3.265860e+03,0.000000e+00
3.266824e+03,0.000000e+00
3.267789e+03,0.000000e+00
3.268753e+03,0.000000e+00
3.269717e+03,0.000000e+00
3.270681e+03,0.000000e+00
3.271646e+03,0.000000e+00
3.272610e+03,0.000000e+00
3.273574e+03,0.000000e+00
3.274538e+03,0.000000e+00
3.275503e+03,0.000000e+00
3.276467e+03,0.000000e+00
3.277431e+03,0.000000e+00
3.278395e+03,0.000000e+00
3.279360e+03,0.000000e+00
3.280324e+03,0.000000e+00
3.281288e+03,0.000000e+00
3.282252e+03,0.000000e+00
3.283217e+03,0.000000e+00
3.284181e+03,0.000000e+00
3.285145e+03,0.000000e+00
3.286109e+03,0.000000e+00
3.287073e+03,0.000000e+00
3.288038e+03,0.000000e+00
3.289002e+03,0.000000e+00
3.289966e+03,0.000000e+00
3.290930e+03,0.000000e+00
3.291895e+03,0.000000e+00
3.292859e+03,0.000000e+00
3.293823e+03,0.000000e+00
3.294787e+03,0.000000e+00
3.295751e+03,0.000000e+00
3.296716e+03,0.000000e+00
3.297680e+03,0.000000e+00
3.298644e+03,0.000000e+00
3.299608e+03,0.000000e+00
3.300573e+03,0.000000e+00
3.301537e+03,0.000000e+00
3.302501e+03,0.000000e+00
3.303465e+03,0.000000e+00
3.304430e+03,0.000000e+00
3.305394e+03,0.000000e+00
3.306358e+03,0.000000e+00
3.307322e+03,0.000000e+00
3.308287e+03,0.000000e+00
3.309251e+03,0.000000e+00
3.310215e+03,0.000000e+00
3.311179e+03,0.000000e+00
3.312144e+03,0.000000e+00
3.313108e+03,0.000000e+00
3.314072e+03,0.000000e+00
3.315036e+03,0.000000e+00
3.316000e+03,0.000000e+00
3.316965e+03,0.000000e+00
3.317929e+03,0.000000e+00
3.318893e+03,0.000000e+00
3.319857e+03,0.000000e+00
3.320822e+03,0.000000e+00
3.321786e+03,0.000000e+00
3.322750e+03,0.000000e+00
3.323714e+03,0.000000e+00
3.324678e+03,0.000000e+00
3.325643e+03,0.000000e+00
3.326607e+03,0.000000e+00
3.327571e+03,0.000000e+00
3.328535e+03,0.000000e+00
3.329500e+03,0.000000e+00
3.330464e+03,0.000000e+00
3.331428e+03,0.000000e+00
3.332392e+03,0.000000e+00
3.333357e+03,0.000000e+00
3.334321e+03,0.000000e+00
3.335285e+03,0.000000e+00
3.336249e+03,0.000000e+00
3.337214e+03,0.000000e+00
3.338178e+03,0.000000e+00
3.339142e+03,0.000000e+00
3.340106e+03,0.000000e+00
3.341071e+03,0.000000e+00
3.342035e+03,0.000000e+00
3.342999e+03,0.000000e+00
3.343963e+03,0.000000e+00
3.344927e+03,0.000000e+00
3.345892e+03,0.000000e+00
3.346856e+03,0.000000e+00
3.347820e+03,0.000000e+00
3.348784e+03,0.000000e+00
3.349749e+03,0.000000e+00
3.350713e+03,0.000000e+00
3.351677e+03,0.000000e+00
3.352641e+03,0.000000e+00
3.353605e+03,0.000000e+00
3.354570e+03,0.000000e+00
3.355534e+03,0.000000e+00
3.356498e+03,0.000000e+00
3.357462e+03,0.000000e+00
3.358427e+03,0.000000e+00
3.359391e+03,0.000000e+00
3.360355e+03,0.000000e+00
3.361319e+03,0.000000e+00
3.362284e+03,0.000000e+00
3.363248e+03,0.000000e+00
3.364212e+03,0.000000e+00
3.365176e+03,0.000000e+00
3.366141e+03,0.000000e+00
3.367105e+03,0.000000e+00
3.368069e+03,0.000000e+00
3.369033e+03,0.000000e+00
3.369998e+03,0.000000e+00
3.370962e+03,0.000000e+00
3.371926e+03,0.000000e+00
3.372890e+03,0.000000e+00
3.373854e+03,0.000000e+00
3.374819e+03,0.000000e+00
3.375783e+03,0.000000e+00
3.376747e+03,0.000000e+00
3.377711e+03,0.000000e+00
3.378676e+03,0.000000e+00
3.379640e+03,0.000000e+00
3.380604e+03,0.000000e+00
3.381568e+03,0.000000e+00
3.382532e+03,0.000000e+00
3.383497e+03,0.000000e+00
3.384461e+03,0.000000e+00
3.385425e+03,0.000000e+00
3.386389e+03,0.000000e+00
3.387354e+03,0.000000e+00
3.388318e+03,0.000000e+00
3.389282e+03,0.000000e+00
3.390246e+03,0.000000e+00
3.391211e+03,0.000000e+00
3.392175e+03,0.000000e+00
3.393139e+03,0.000000e+00
3.394103e+03,0.000000e+00
3.395068e+03,0.000000e+00
3.396032e+03,0.000000e+00
3.396996e+03,0.000000e+00
3.397960e+03,0.000000e+00
3.398925e+03,0.000000e+00
3.399889e+03,0.000000e+00
3.400853e+03,0.000000e+00
3.401817e+03,0.000000e+00
3.402781e+03,0.000000e+00
3.403746e+03,0.000000e+00
3.404710e+03,0.000000e+00
3.405674e+03,0.000000e+00
3.406638e+03,0.000000e+00
3.407603e+03,0.000000e+00
3.408567e+03,0.000000e+00
3.409531e+03,0.000000e+00
3.410495e+03,0.000000e+00
3.411459e+03,0.000000e+00
3.412424e+03,0.000000e+00
3.413388e+03,0.000000e+00
3.414352e+03,0.000000e+00
3.415316e+03,0.000000e+00
3.416281e+03,0.000000e+00
3.417245e+03,0.000000e+00
3.418209e+03,0.000000e+00
3.419173e+03,0.000000e+00
3.420138e+03,0.000000e+00
3.421102e+03,0.000000e+00
3.422066e+03,0.000000e+00
3.423030e+03,0.000000e+00
3.423995e+03,0.000000e+00
3.424959e+03,0.000000e+00
3.425923e+03,0.000000e+00
3.426887e+03,0.000000e+00
3.427852e+03,0.000000e+00
3.428816e+03,0.000000e+00
3.429780e+03,0.000000e+00
3.430744e+03,0.000000e+00
3.431708e+03,0.000000e+00
3.432673e+03,0.000000e+00
3.433637e+03,0.000000e+00
3.434601e+03,0.000000e+00
3.435565e+03,0.000000e+00
3.436530e+03,0.000000e+00
3.437494e+03,0.000000e+00
3.438458e+03,0.000000e+00
3.439422e+03,0.000000e+00
3.440386e+03,0.000000e+00
3.441351e+03,0.000000e+00
3.442315e+03,0.000000e+00
3.443279e+03,0.000000e+00
3.444243e+03,0.000000e+00
3.445208e+03,0.000000e+00
3.446172e+03,0.000000e+00
3.447136e+03,0.000000e+00
3.448100e+03,0.000000e+00
3.449065e+03,0.000000e+00
3.450029e+03,0.000000e+00
3.450993e+03,0.000000e+00
3.451957e+03,0.000000e+00
3.452922e+03,0.000000e+00
3.453886e+03,0.000000e+00
3.454850e+03,0.000000e+00
3.455814e+03,0.000000e+00
3.456779e+03,0.000000e+00
3.457743e+03,0.000000e+00
3.458707e+03,0.000000e+00
3.459671e+03,0.000000e+00
3.460635e+03,0.000000e+00
3.461600e+03,0.000000e+00
3.462564e+03,0.000000e+00
3.463528e+03,0.000000e+00
3.464492e+03,0.000000e+00
3.465457e+03,0.000000e+00
3.466421e+03,0.000000e+00
3.467385e+03,0.000000e+00
3.468349e+03,0.000000e+00
3.469313e+03,0.000000e+00
3.470278e+03,0.000000e+00
3.471242e+03,0.000000e+00
3.472206e+03,0.000000e+00
3.473170e+03,0.000000e+00
3.474135e+03,0.000000e+00
3.475099e+03,0.000000e+00
3.476063e+03,0.000000e+00
3.477027e+03,0.000000e+00
3.477992e+03,0.000000e+00
3.478956e+03,0.000000e+00
3.479920e+03,0.000000e+00
3.480884e+03,0.000000e+00
3.481849e+03,0.000000e+00
3.482813e+03,0.000000e+00
3.483777e+03,0.000000e+00
3.484741e+03,0.000000e+00
3.485706e+03,0.000000e+00
3.486670e+03,0.000000e+00
3.487634e+03,0.000000e+00
3.488598e+03,0.000000e+00
3.489563e+03,0.000000e+00
3.490527e+03,0.000000e+00
3.491491e+03,0.000000e+00
3.492455e+03,0.000000e+00
3.493419e+03,0.000000e+00
3.494384e+03,0.000000e+00
3.495348e+03,0.000000e+00
3.496312e+03,0.000000e+00
3.497276e+03,0.000000e+00
3.498240e+03,0.000000e+00
3.499205e+03,0.000000e+00
3.500169e+03,0.000000e+00
