9.931763e+01,0.000000e+00
1.002819e+02,0.000000e+00
1.012461e+02,0.000000e+00
1.022103e+02,0.000000e+00
1.031746e+02,0.000000e+00
1.041388e+02,0.000000e+00
1.051030e+02,0.000000e+00
1.060673e+02,0.000000e+00
1.070315e+02,0.000000e+00
1.079957e+02,0.000000e+00
1.089600e+02,0.000000e+00
1.099242e+02,0.000000e+00
1.108884e+02,0.000000e+00
1.118527e+02,0.000000e+00
1.128169e+02,0.000000e+00
1.137811e+02,0.000000e+00
1.147454e+02,0.000000e+00
1.157096e+02,0.000000e+00
1.166738e+02,0.000000e+00
1.176381e+02,0.000000e+00
1.186023e+02,0.000000e+00
1.195665e+02,0.000000e+00
1.205308e+02,0.000000e+00
1.214950e+02,0.000000e+00
1.224592e+02,0.000000e+00
1.234235e+02,0.000000e+00
1.243877e+02,0.000000e+00
1.253519e+02,0.000000e+00
1.263162e+02,0.000000e+00
1.272804e+02,0.000000e+00
1.282446e+02,0.000000e+00
1.292089e+02,0.000000e+00
1.301731e+02,0.000000e+00
1.311373e+02,0.000000e+00
1.321016e+02,0.000000e+00
1.330658e+02,0.000000e+00
1.340300e+02,0.000000e+00
1.349943e+02,0.000000e+00
1.359585e+02,0.000000e+00
1.369227e+02,0.000000e+00
1.378870e+02,0.000000e+00
1.388512e+02,0.000000e+00
1.398154e+02,0.000000e+00
1.407797e+02,0.000000e+00
1.417439e+02,0.000000e+00
1.427081e+02,0.000000e+00
1.436724e+02,0.000000e+00
1.446366e+02,0.000000e+00
1.456008e+02,0.000000e+00
1.465651e+02,0.000000e+00
1.475293e+02,0.000000e+00
1.484935e+02,0.000000e+00
1.494578e+02,0.000000e+00
1.504220e+02,0.000000e+00
1.513862e+02,0.000000e+00
1.523505e+02,0.000000e+00
1.533147e+02,0.000000e+00
1.542789e+02,0.000000e+00
1.552432e+02,0.000000e+00
1.562074e+02,0.000000e+00
1.571716e+02,0.000000e+00
1.581359e+02,0.000000e+00
1.591001e+02,0.000000e+00
1.600643e+02,0.000000e+00
1.610286e+02,0.000000e+00
1.619928e+02,0.000000e+00
1.629570e+02,0.000000e+00
1.639213e+02,0.000000e+00
1.648855e+02,0.000000e+00
1.658497e+02,0.000000e+00
1.668140e+02,0.000000e+00
1.677782e+02,0.000000e+00
1.687424e+02,0.000000e+00
1.697067e+02,0.000000e+00
1.706709e+02,0.000000e+00
1.716351e+02,0.000000e+00
1.725994e+02,0.000000e+00
1.735636e+02,0.000000e+00
1.745278e+02,0.000000e+00
1.754921e+02,0.000000e+00
1.764563e+02,0.000000e+00
1.774205e+02,0.000000e+00
1.783848e+02,0.000000e+00
1.793490e+02,0.000000e+00
1.803132e+02,0.000000e+00
1.812775e+02,0.000000e+00
1.822417e+02,0.000000e+00
1.832059e+02,0.000000e+00
1.841702e+02,0.000000e+00
1.851344e+02,0.000000e+00
1.860986e+02,0.000000e+00
1.870629e+02,0.000000e+00
1.880271e+02,0.000000e+00
1.889913e+02,0.000000e+00
1.899556e+02,0.000000e+00
1.909198e+02,0.000000e+00
1.918840e+02,0.000000e+00
1.928483e+02,0.000000e+00
1.938125e+02,0.000000e+00
1.947767e+02,0.000000e+00
1.957410e+02,0.000000e+00
1.967052e+02,0.000000e+00
1.976694e+02,0.000000e+00
1.986337e+02,0.000000e+00
1.995979e+02,4.079852e+03
2.005621e+02,4.090015e+03
2.015264e+02,4.098402e+03
2.024906e+02,4.103505e+03
2.034548e+02,4.107752e+03
2.044191e+02,4.110203e+03
2.053833e+02,4.110581e+03
2.063475e+02,4.109879e+03
2.073118e+02,4.109880e+03
2.082760e+02,4.111653e+03
2.092402e+02,4.110763e+03
2.102045e+02,4.106859e+03
2.111687e+02,4.103147e+03
2.121329e+02,4.101132e+03
2.130972e+02,4.100406e+03
2.140614e+02,4.100535e+03
2.150256e+02,4.102411e+03
2.159899e+02,4.107438e+03
2.169541e+02,4.113376e+03
2.179183e+02,4.120410e+03
2.188826e+02,4.127811e+03
2.198468e+02,4.134565e+03
2.208110e+02,4.139912e+03
2.217753e+02,4.143321e+03
2.227395e+02,4.144131e+03
2.237037e+02,4.142592e+03
2.246680e+02,4.140846e+03
2.256322e+02,4.140100e+03
2.265964e+02,4.142580e+03
2.275607e+02,4.146572e+03
2.285249e+02,4.149664e+03
2.294892e+02,4.151674e+03
2.304534e+02,4.154213e+03
2.314176e+02,4.156139e+03
2.323819e+02,4.156929e+03
2.333461e+02,4.157949e+03
2.343103e+02,4.160554e+03
2.352746e+02,4.164587e+03
2.362388e+02,4.169085e+03
2.372030e+02,4.173339e+03
2.381673e+02,4.175166e+03
2.391315e+02,4.173242e+03
2.400957e+02,4.167123e+03
2.410600e+02,4.162132e+03
2.420242e+02,4.162224e+03
2.429884e+02,4.167228e+03
2.439527e+02,4.173453e+03
2.449169e+02,4.176978e+03
2.458811e+02,4.176499e+03
2.468454e+02,4.178049e+03
2.478096e+02,4.182527e+03
2.487738e+02,4.188374e+03
2.497381e+02,4.194596e+03
2.507023e+02,4.201044e+03
2.516665e+02,4.207973e+03
2.526308e+02,4.215517e+03
2.535950e+02,4.224053e+03
2.545592e+02,4.228891e+03
2.555235e+02,4.230601e+03
2.564877e+02,4.229696e+03
2.574519e+02,4.226542e+03
2.584161e+02,4.221213e+03
2.593804e+02,4.214886e+03
2.603446e+02,4.213608e+03
2.613088e+02,4.220656e+03
2.622731e+02,4.227933e+03
2.632373e+02,4.232780e+03
2.642015e+02,4.234426e+03
2.651658e+02,4.234550e+03
2.661300e+02,4.236359e+03
2.670942e+02,4.241755e+03
2.680585e+02,4.246175e+03
2.690227e+02,4.248401e+03
2.699869e+02,4.249276e+03
2.709512e+02,4.248941e+03
2.719154e+02,4.248737e+03
2.728796e+02,4.248626e+03
2.738439e+02,4.247621e+03
2.748081e+02,4.245929e+03
2.757723e+02,4.247511e+03
2.767366e+02,4.252487e+03
2.777008e+02,4.258384e+03
2.786650e+02,4.263722e+03
2.796293e+02,4.270161e+03
2.805935e+02,4.277271e+03
2.815577e+02,4.283044e+03
2.825220e+02,4.286482e+03
2.834862e+02,4.287813e+03
2.844504e+02,4.288180e+03
2.854147e+02,4.289388e+03
2.863789e+02,4.289330e+03
2.873431e+02,4.287770e+03
2.883074e+02,4.285956e+03
2.892716e+02,4.285060e+03
2.902358e+02,4.285048e+03
2.912001e+02,4.285375e+03
2.921643e+02,4.283905e+03
2.931285e+02,4.277934e+03
2.940928e+02,4.274449e+03
2.950570e+02,4.276948e+03
2.960212e+02,4.284309e+03
2.969855e+02,4.292546e+03
2.979497e+02,4.298244e+03
2.989139e+02,4.301951e+03
2.998782e+02,4.304064e+03
3.008424e+02,4.305395e+03
3.018066e+02,4.307498e+03
3.027709e+02,4.310386e+03
3.037351e+02,4.313712e+03
3.046993e+02,4.316004e+03
3.056636e+02,4.315118e+03
3.066278e+02,4.310454e+03
3.075920e+02,4.306122e+03
3.085563e+02,4.303244e+03
3.095205e+02,4.302721e+03
3.104847e+02,4.304991e+03
3.114490e+02,4.310131e+03
3.124132e+02,4.316469e+03
3.133774e+02,4.322023e+03
3.143417e+02,4.326515e+03
3.153059e+02,4.328707e+03
3.162701e+02,4.328004e+03
3.172344e+02,4.324023e+03
3.181986e+02,4.322382e+03
3.191628e+02,4.326917e+03
3.201271e+02,4.335252e+03
3.210913e+02,4.342408e+03
3.220555e+02,4.345682e+03
3.230198e+02,4.345431e+03
3.239840e+02,4.346119e+03
3.249482e+02,4.346563e+03
3.259125e+02,4.348427e+03
3.268767e+02,4.353824e+03
3.278409e+02,4.361703e+03
3.288052e+02,4.368950e+03
3.297694e+02,4.372296e+03
3.307336e+02,4.370679e+03
3.316979e+02,4.370355e+03
3.326621e+02,4.373948e+03
3.336263e+02,4.376108e+03
3.345906e+02,4.373867e+03
3.355548e+02,4.367679e+03
3.365190e+02,4.362276e+03
3.374833e+02,4.362628e+03
3.384475e+02,4.368993e+03
3.394117e+02,4.375381e+03
3.403760e+02,4.378446e+03
3.413402e+02,4.378962e+03
3.423044e+02,4.378930e+03
3.432687e+02,4.374492e+03
3.442329e+02,4.371683e+03
3.451971e+02,4.378506e+03
3.461614e+02,4.393975e+03
3.471256e+02,4.405229e+03
3.480898e+02,4.402121e+03
3.490541e+02,4.379453e+03
3.500183e+02,4.363923e+03
3.509825e+02,4.358768e+03
3.519468e+02,4.360857e+03
3.529110e+02,4.367769e+03
3.538752e+02,4.377925e+03
3.548395e+02,4.389501e+03
3.558037e+02,4.401135e+03
3.567680e+02,4.415761e+03
3.577322e+02,4.425465e+03
3.586964e+02,4.428243e+03
3.596607e+02,4.428545e+03
3.606249e+02,4.430038e+03
3.615891e+02,4.433166e+03
3.625534e+02,4.435615e+03
3.635176e+02,4.435777e+03
3.644818e+02,4.435844e+03
3.654461e+02,4.433141e+03
3.664103e+02,4.423646e+03
3.673745e+02,4.411153e+03
3.683388e+02,4.407583e+03
3.693030e+02,4.421212e+03
3.702672e+02,4.441921e+03
3.712315e+02,4.455153e+03
3.721957e+02,4.457115e+03
3.731599e+02,4.452896e+03
3.741242e+02,4.451857e+03
3.750884e+02,4.464469e+03
3.760526e+02,4.471594e+03
3.770169e+02,4.465185e+03
3.779811e+02,4.453366e+03
3.789453e+02,4.446421e+03
3.799096e+02,4.449552e+03
3.808738e+02,4.459073e+03
3.818380e+02,4.462077e+03
3.828023e+02,4.454861e+03
3.837665e+02,4.449959e+03
3.847307e+02,4.450683e+03
3.856950e+02,4.455670e+03
3.866592e+02,4.461482e+03
3.876234e+02,4.467453e+03
3.885877e+02,4.472530e+03
3.895519e+02,4.473331e+03
3.905161e+02,4.467827e+03
3.914804e+02,4.459819e+03
3.924446e+02,4.453917e+03
3.934088e+02,4.451345e+03
3.943731e+02,4.449622e+03
3.953373e+02,4.446729e+03
3.963015e+02,4.444244e+03
3.972658e+02,4.445110e+03
3.982300e+02,4.451181e+03
3.991942e+02,4.461763e+03
4.001585e+02,4.471203e+03
4.011227e+02,4.475685e+03
4.020869e+02,4.479981e+03
4.030512e+02,4.483255e+03
4.040154e+02,4.485116e+03
4.049796e+02,4.486446e+03
4.059439e+02,4.487795e+03
4.069081e+02,4.488811e+03
4.078723e+02,4.488189e+03
4.088366e+02,4.483606e+03
4.098008e+02,4.478093e+03
4.107650e+02,4.476619e+03
4.117293e+02,4.479292e+03
4.126935e+02,4.481613e+03
4.136577e+02,4.481982e+03
4.146220e+02,4.480958e+03
4.155862e+02,4.478675e+03
4.165504e+02,4.475024e+03
4.175147e+02,4.472295e+03
4.184789e+02,4.473927e+03
4.194431e+02,4.488154e+03
4.204074e+02,4.496358e+03
4.213716e+02,4.492472e+03
4.223358e+02,4.484460e+03
4.233001e+02,4.481405e+03
4.242643e+02,4.488543e+03
4.252285e+02,4.501245e+03
4.261928e+02,4.507450e+03
4.271570e+02,4.504292e+03
4.281212e+02,4.502068e+03
4.290855e+02,4.505140e+03
4.300497e+02,4.511315e+03
4.310139e+02,4.516771e+03
4.319782e+02,4.521939e+03
4.329424e+02,4.526213e+03
4.339066e+02,4.527244e+03
4.348709e+02,4.524266e+03
4.358351e+02,4.520464e+03
4.367993e+02,4.519469e+03
4.377636e+02,4.524085e+03
4.387278e+02,4.524789e+03
4.396920e+02,4.517900e+03
4.406563e+02,4.510812e+03
4.416205e+02,4.508800e+03
4.425847e+02,4.512875e+03
4.435490e+02,4.518921e+03
4.445132e+02,4.521168e+03
4.454774e+02,4.518945e+03
4.464417e+02,4.519671e+03
4.474059e+02,4.526891e+03
4.483701e+02,4.535887e+03
4.493344e+02,4.541665e+03
4.502986e+02,4.543333e+03
4.512628e+02,4.543576e+03
4.522271e+02,4.544037e+03
4.531913e+02,4.544521e+03
4.541555e+02,4.543815e+03
4.551198e+02,4.540381e+03
4.560840e+02,4.534421e+03
4.570482e+02,4.531562e+03
4.580125e+02,4.536850e+03
4.589767e+02,4.544171e+03
4.599409e+02,4.550802e+03
4.609052e+02,4.555087e+03
4.618694e+02,4.556586e+03
4.628336e+02,4.553837e+03
4.637979e+02,4.547862e+03
4.647621e+02,4.546412e+03
4.657263e+02,4.554357e+03
4.666906e+02,4.564740e+03
4.676548e+02,4.567760e+03
4.686190e+02,4.560161e+03
4.695833e+02,4.554175e+03
4.705475e+02,4.555104e+03
4.715117e+02,4.558944e+03
4.724760e+02,4.559747e+03
4.734402e+02,4.555573e+03
4.744044e+02,4.549725e+03
4.753687e+02,4.549704e+03
4.763329e+02,4.560882e+03
4.772971e+02,4.569972e+03
4.782614e+02,4.572287e+03
4.792256e+02,4.572692e+03
4.801898e+02,4.576886e+03
4.811541e+02,4.587596e+03
4.821183e+02,4.601795e+03
4.830826e+02,4.616680e+03
4.840468e+02,4.632037e+03
4.850110e+02,4.644594e+03
4.859753e+02,4.652753e+03
4.869395e+02,4.655902e+03
4.879037e+02,4.658025e+03
4.888680e+02,4.662270e+03
4.898322e+02,4.664034e+03
4.907964e+02,4.660436e+03
4.917607e+02,4.652033e+03
4.927249e+02,4.641545e+03
4.936891e+02,4.629189e+03
4.946534e+02,4.614319e+03
4.956176e+02,4.606877e+03
4.965818e+02,4.612973e+03
4.975461e+02,4.621898e+03
4.985103e+02,4.623690e+03
4.994745e+02,4.615681e+03
5.004388e+02,4.606781e+03
5.014030e+02,4.601404e+03
5.023672e+02,4.599078e+03
5.033315e+02,4.598167e+03
5.042957e+02,4.597883e+03
5.052599e+02,4.598099e+03
5.062242e+02,4.600291e+03
5.071884e+02,4.610430e+03
5.081526e+02,4.615148e+03
5.091169e+02,4.608550e+03
5.100811e+02,4.598973e+03
5.110453e+02,4.595707e+03
5.120095e+02,4.607468e+03
5.129738e+02,4.622292e+03
5.139380e+02,4.622431e+03
5.149022e+02,4.608304e+03
5.158665e+02,4.595750e+03
5.168307e+02,4.592321e+03
5.177949e+02,4.595492e+03
5.187592e+02,4.593577e+03
5.197234e+02,4.588195e+03
5.206876e+02,4.583877e+03
5.216519e+02,4.582219e+03
5.226161e+02,4.583409e+03
5.235803e+02,4.586546e+03
5.245446e+02,4.592007e+03
5.255088e+02,4.599128e+03
5.264730e+02,4.603245e+03
5.274373e+02,4.603024e+03
5.284015e+02,4.601767e+03
5.293657e+02,4.602167e+03
5.303300e+02,4.605115e+03
5.312942e+02,4.604335e+03
5.322584e+02,4.598111e+03
5.332227e+02,4.591145e+03
5.341869e+02,4.586235e+03
5.351511e+02,4.583208e+03
5.361154e+02,4.581312e+03
5.370796e+02,4.580595e+03
5.380438e+02,4.581871e+03
5.390081e+02,4.583750e+03
5.399723e+02,4.585744e+03
5.409365e+02,4.589415e+03
5.419008e+02,4.595226e+03
5.428650e+02,4.603121e+03
5.438292e+02,4.610024e+03
5.447935e+02,4.615415e+03
5.457577e+02,4.618856e+03
5.467219e+02,4.618884e+03
5.476862e+02,4.614591e+03
5.486504e+02,4.607630e+03
5.496146e+02,4.603535e+03
5.505789e+02,4.604850e+03
5.515431e+02,4.604619e+03
5.525073e+02,4.602044e+03
5.534716e+02,4.600004e+03
5.544358e+02,4.600259e+03
5.554000e+02,4.601474e+03
5.563643e+02,4.603768e+03
5.573285e+02,4.608707e+03
5.582927e+02,4.615241e+03
5.592570e+02,4.619249e+03
5.602212e+02,4.617905e+03
5.611854e+02,4.610925e+03
5.621497e+02,4.609510e+03
5.631139e+02,4.621419e+03
5.640781e+02,4.629430e+03
5.650424e+02,4.628393e+03
5.660066e+02,4.620400e+03
5.669708e+02,4.612312e+03
5.679351e+02,4.608562e+03
5.688993e+02,4.607953e+03
5.698635e+02,4.607741e+03
5.708278e+02,4.608099e+03
5.717920e+02,4.610913e+03
5.727562e+02,4.617159e+03
5.737205e+02,4.627175e+03
5.746847e+02,4.635488e+03
5.756489e+02,4.642482e+03
5.766132e+02,4.646556e+03
5.775774e+02,4.646201e+03
5.785416e+02,4.641694e+03
5.795059e+02,4.637124e+03
5.804701e+02,4.635385e+03
5.814343e+02,4.636079e+03
5.823986e+02,4.639585e+03
5.833628e+02,4.647711e+03
5.843270e+02,4.654485e+03
5.852913e+02,4.650796e+03
5.862555e+02,4.620269e+03
5.872197e+02,4.604367e+03
5.881840e+02,4.612360e+03
5.891482e+02,4.628048e+03
5.901124e+02,4.638680e+03
5.910767e+02,4.640328e+03
5.920409e+02,4.638884e+03
5.930051e+02,4.638463e+03
5.939694e+02,4.638891e+03
5.949336e+02,4.642023e+03
5.958978e+02,4.649771e+03
5.968621e+02,4.658948e+03
5.978263e+02,4.662554e+03
5.987905e+02,4.654663e+03
5.997548e+02,4.649462e+03
6.007190e+02,4.651410e+03
6.016832e+02,4.656349e+03
6.026475e+02,4.657876e+03
6.036117e+02,4.650201e+03
6.045759e+02,4.641257e+03
6.055402e+02,4.641919e+03
6.065044e+02,4.650462e+03
6.074686e+02,4.657433e+03
6.084329e+02,4.659817e+03
6.093971e+02,4.658551e+03
6.103613e+02,4.655990e+03
6.113256e+02,4.650349e+03
6.122899e+02,4.645813e+03
6.132541e+02,4.644427e+03
6.142183e+02,4.644291e+03
6.151826e+02,4.642475e+03
6.161468e+02,4.637055e+03
6.171110e+02,4.631698e+03
6.180753e+02,4.629792e+03
6.190395e+02,4.630753e+03
6.200037e+02,4.633341e+03
6.209680e+02,4.637290e+03
6.219322e+02,4.643010e+03
6.228964e+02,4.645559e+03
6.238607e+02,4.638042e+03
6.248249e+02,4.633945e+03
6.257891e+02,4.638807e+03
6.267534e+02,4.648678e+03
6.277176e+02,4.654797e+03
6.286818e+02,4.651003e+03
6.296461e+02,4.645673e+03
6.306103e+02,4.649893e+03
6.315745e+02,4.662980e+03
6.325388e+02,4.674186e+03
6.335030e+02,4.673240e+03
6.344672e+02,4.658833e+03
6.354315e+02,4.650423e+03
6.363957e+02,4.650580e+03
6.373599e+02,4.651722e+03
6.383242e+02,4.652032e+03
6.392884e+02,4.651998e+03
6.402526e+02,4.650617e+03
6.412169e+02,4.645664e+03
6.421811e+02,4.640069e+03
6.431453e+02,4.635977e+03
6.441096e+02,4.633690e+03
6.450738e+02,4.633640e+03
6.460380e+02,4.638842e+03
6.470023e+02,4.650536e+03
6.479665e+02,4.656164e+03
6.489307e+02,4.650465e+03
6.498950e+02,4.643374e+03
6.508592e+02,4.642742e+03
6.518234e+02,4.648447e+03
6.527877e+02,4.652722e+03
6.537519e+02,4.656227e+03
6.547161e+02,4.657417e+03
6.556804e+02,4.654173e+03
6.566446e+02,4.647022e+03
6.576088e+02,4.639391e+03
6.585731e+02,4.633396e+03
6.595373e+02,4.629206e+03
6.605015e+02,4.627942e+03
6.614658e+02,4.629872e+03
6.624300e+02,4.634722e+03
6.633942e+02,4.643335e+03
6.643585e+02,4.660197e+03
6.653227e+02,4.667998e+03
6.662869e+02,4.656561e+03
6.672512e+02,4.642634e+03
6.682154e+02,4.636545e+03
6.691796e+02,4.639218e+03
6.701439e+02,4.645056e+03
6.711081e+02,4.653891e+03
6.720723e+02,4.662750e+03
6.730366e+02,4.664933e+03
6.740008e+02,4.659631e+03
6.749650e+02,4.651663e+03
6.759293e+02,4.647010e+03
6.768935e+02,4.648509e+03
6.778577e+02,4.646991e+03
6.788220e+02,4.640441e+03
6.797862e+02,4.634996e+03
6.807504e+02,4.632998e+03
6.817147e+02,4.633709e+03
6.826789e+02,4.634944e+03
6.836431e+02,4.634452e+03
6.846074e+02,4.632931e+03
6.855716e+02,4.633155e+03
6.865358e+02,4.636280e+03
6.875001e+02,4.639655e+03
6.884643e+02,4.638704e+03
6.894285e+02,4.633681e+03
6.903928e+02,4.632986e+03
6.913570e+02,4.639195e+03
6.923212e+02,4.645998e+03
6.932855e+02,4.646669e+03
6.942497e+02,4.636904e+03
6.952139e+02,4.633903e+03
6.961782e+02,4.643010e+03
6.971424e+02,4.654383e+03
6.981066e+02,4.659200e+03
6.990709e+02,4.654078e+03
7.000351e+02,4.646904e+03
7.009993e+02,4.648686e+03
7.019636e+02,4.655772e+03
7.029278e+02,4.655505e+03
7.038920e+02,4.644873e+03
7.048563e+02,4.632029e+03
7.058205e+02,4.630252e+03
7.067847e+02,4.647725e+03
7.077490e+02,4.654195e+03
7.087132e+02,4.641729e+03
7.096774e+02,4.628086e+03
7.106417e+02,4.624426e+03
7.116059e+02,4.632719e+03
7.125701e+02,4.637796e+03
7.135344e+02,4.631461e+03
7.144986e+02,4.624349e+03
7.154628e+02,4.627104e+03
7.164271e+02,4.640368e+03
7.173913e+02,4.653871e+03
7.183555e+02,4.657627e+03
7.193198e+02,4.652791e+03
7.202840e+02,4.645088e+03
7.212482e+02,4.634979e+03
7.222125e+02,4.626175e+03
7.231767e+02,4.621614e+03
7.241409e+02,4.620153e+03
7.251052e+02,4.622390e+03
7.260694e+02,4.634552e+03
7.270336e+02,4.644993e+03
7.279979e+02,4.647182e+03
7.289621e+02,4.640197e+03
7.299263e+02,4.633475e+03
7.308906e+02,4.630414e+03
7.318548e+02,4.629049e+03
7.328190e+02,4.628137e+03
7.337833e+02,4.627495e+03
7.347475e+02,4.626968e+03
7.357117e+02,4.628057e+03
7.366760e+02,4.631224e+03
7.376402e+02,4.632062e+03
7.386044e+02,4.629899e+03
7.395687e+02,4.627428e+03
7.405329e+02,4.625904e+03
7.414971e+02,4.625207e+03
7.424614e+02,4.624638e+03
7.434256e+02,4.624914e+03
7.443898e+02,4.629374e+03
7.453541e+02,4.640054e+03
7.463183e+02,4.653688e+03
7.472825e+02,4.661917e+03
7.482468e+02,4.660919e+03
7.492110e+02,4.653396e+03
7.501752e+02,4.640436e+03
7.511395e+02,4.625466e+03
7.521037e+02,4.615976e+03
7.530679e+02,4.619431e+03
7.540322e+02,4.632189e+03
7.549964e+02,4.634049e+03
7.559606e+02,4.622564e+03
7.569249e+02,4.612607e+03
7.578891e+02,4.615292e+03
7.588533e+02,4.632211e+03
7.598176e+02,4.640871e+03
7.607818e+02,4.623833e+03
7.617460e+02,4.608714e+03
7.627103e+02,4.611125e+03
7.636745e+02,4.627552e+03
7.646387e+02,4.639793e+03
7.656030e+02,4.638142e+03
7.665672e+02,4.631174e+03
7.675314e+02,4.619793e+03
7.684957e+02,4.604242e+03
7.694599e+02,4.592381e+03
7.704241e+02,4.593367e+03
7.713884e+02,4.604159e+03
7.723526e+02,4.612301e+03
7.733168e+02,4.618744e+03
7.742811e+02,4.623863e+03
7.752453e+02,4.624072e+03
7.762095e+02,4.619465e+03
7.771738e+02,4.619815e+03
7.781380e+02,4.631076e+03
7.791022e+02,4.636114e+03
7.800665e+02,4.630421e+03
7.810307e+02,4.618845e+03
7.819949e+02,4.608743e+03
7.829592e+02,4.602454e+03
7.839234e+02,4.600432e+03
7.848876e+02,4.604480e+03
7.858519e+02,4.611091e+03
7.868161e+02,4.614970e+03
7.877803e+02,4.613374e+03
7.887446e+02,4.609631e+03
7.897088e+02,4.610127e+03
7.906730e+02,4.615782e+03
7.916373e+02,4.621643e+03
7.926015e+02,4.623861e+03
7.935657e+02,4.621330e+03
7.945300e+02,4.618182e+03
7.954942e+02,4.618417e+03
7.964584e+02,4.612420e+03
7.974227e+02,4.596744e+03
7.983869e+02,4.582759e+03
7.993511e+02,4.578907e+03
8.003154e+02,4.587771e+03
8.012796e+02,4.593189e+03
8.022438e+02,4.593339e+03
8.032081e+02,4.592188e+03
8.041723e+02,4.592341e+03
8.051365e+02,4.593649e+03
8.061008e+02,4.595742e+03
8.070650e+02,4.598264e+03
8.080292e+02,4.599756e+03
8.089935e+02,4.600374e+03
8.099577e+02,4.601302e+03
8.109219e+02,4.601435e+03
8.118862e+02,4.597520e+03
8.128504e+02,4.589769e+03
8.138146e+02,4.586111e+03
8.147789e+02,4.587042e+03
8.157431e+02,4.588974e+03
8.167073e+02,4.590375e+03
8.176716e+02,4.593718e+03
8.186358e+02,4.596631e+03
8.196000e+02,4.597579e+03
8.205643e+02,4.598876e+03
8.215285e+02,4.599553e+03
8.224927e+02,4.599376e+03
8.234570e+02,4.598710e+03
8.244212e+02,4.597545e+03
8.253854e+02,4.596343e+03
8.263497e+02,4.593491e+03
8.273139e+02,4.588756e+03
8.282781e+02,4.584771e+03
8.292424e+02,4.586860e+03
8.302066e+02,4.592123e+03
8.311708e+02,4.594362e+03
8.321351e+02,4.594143e+03
8.330993e+02,4.594750e+03
8.340635e+02,4.597638e+03
8.350278e+02,4.600485e+03
8.359920e+02,4.596179e+03
8.369562e+02,4.582852e+03
8.379205e+02,4.573086e+03
8.388847e+02,4.571163e+03
8.398489e+02,4.575434e+03
8.408132e+02,4.581167e+03
8.417774e+02,4.593189e+03
8.427416e+02,4.598122e+03
8.437059e+02,4.588644e+03
8.446701e+02,4.574893e+03
8.456343e+02,4.568209e+03
8.465986e+02,4.573096e+03
8.475628e+02,4.577883e+03
8.485270e+02,4.581248e+03
8.494913e+02,4.581122e+03
8.504555e+02,4.573404e+03
8.514197e+02,4.557397e+03
8.523840e+02,4.545355e+03
8.533482e+02,4.550415e+03
8.543124e+02,4.564141e+03
8.552767e+02,4.571444e+03
8.562409e+02,4.569905e+03
8.572051e+02,4.565081e+03
8.581694e+02,4.563058e+03
8.591336e+02,4.564322e+03
8.600978e+02,4.568318e+03
8.610621e+02,4.577023e+03
8.620263e+02,4.583499e+03
8.629905e+02,4.580187e+03
8.639548e+02,4.564656e+03
8.649190e+02,4.553714e+03
8.658832e+02,4.552174e+03
8.668475e+02,4.553234e+03
8.678117e+02,4.553995e+03
8.687759e+02,4.554183e+03
8.697402e+02,4.555477e+03
8.707044e+02,4.554573e+03
8.716686e+02,4.553504e+03
8.726329e+02,4.558061e+03
8.735971e+02,4.565603e+03
8.745613e+02,4.569398e+03
8.755256e+02,4.565789e+03
8.764898e+02,4.562049e+03
8.774540e+02,4.562635e+03
8.784183e+02,4.564720e+03
8.793825e+02,4.563346e+03
8.803467e+02,4.555821e+03
8.813110e+02,4.547514e+03
8.822752e+02,4.546750e+03
8.832394e+02,4.552479e+03
8.842037e+02,4.557423e+03
8.851679e+02,4.558556e+03
8.861321e+02,4.557780e+03
8.870964e+02,4.560053e+03
8.880606e+02,4.565480e+03
8.890248e+02,4.563487e+03
8.899891e+02,4.552973e+03
8.909533e+02,4.541192e+03
8.919175e+02,4.533399e+03
8.928818e+02,4.529462e+03
8.938460e+02,4.529744e+03
8.948102e+02,4.536196e+03
8.957745e+02,4.542457e+03
8.967387e+02,4.545731e+03
8.977029e+02,4.545146e+03
8.986672e+02,4.542903e+03
8.996314e+02,4.541680e+03
9.005956e+02,4.541297e+03
9.015599e+02,4.540805e+03
9.025241e+02,4.539640e+03
9.034883e+02,4.538077e+03
9.044526e+02,4.537217e+03
9.054168e+02,4.532787e+03
9.063810e+02,4.520928e+03
9.073453e+02,4.508938e+03
9.083095e+02,4.506781e+03
9.092737e+02,4.520008e+03
9.102380e+02,4.535158e+03
9.112022e+02,4.536695e+03
9.121664e+02,4.528727e+03
9.131307e+02,4.522901e+03
9.140949e+02,4.524202e+03
9.150591e+02,4.529237e+03
9.160234e+02,4.528681e+03
9.169876e+02,4.521318e+03
9.179518e+02,4.518824e+03
9.189161e+02,4.524104e+03
9.198803e+02,4.528298e+03
9.208445e+02,4.522183e+03
9.218088e+02,4.505445e+03
9.227730e+02,4.493899e+03
9.237372e+02,4.486534e+03
9.247015e+02,4.483471e+03
9.256657e+02,4.486308e+03
9.266299e+02,4.495061e+03
9.275942e+02,4.500248e+03
9.285584e+02,4.499099e+03
9.295226e+02,4.495635e+03
9.304869e+02,4.490172e+03
9.314511e+02,4.484546e+03
9.324153e+02,4.482503e+03
9.333796e+02,4.486198e+03
9.343438e+02,4.491026e+03
9.353080e+02,4.498805e+03
9.362723e+02,4.503684e+03
9.372365e+02,4.498595e+03
9.382007e+02,4.475724e+03
9.391650e+02,4.459702e+03
9.401292e+02,4.467580e+03
9.410934e+02,4.484884e+03
9.420577e+02,4.494219e+03
9.430219e+02,4.490597e+03
9.439861e+02,4.482132e+03
9.449504e+02,4.474099e+03
9.459146e+02,4.468998e+03
9.468788e+02,4.467240e+03
9.478431e+02,4.466378e+03
9.488073e+02,4.464994e+03
9.497715e+02,4.465766e+03
9.507358e+02,4.467631e+03
9.517000e+02,4.466944e+03
9.526642e+02,4.465065e+03
9.536285e+02,4.462615e+03
9.545927e+02,4.458463e+03
9.555569e+02,4.453588e+03
9.565212e+02,4.452274e+03
9.574854e+02,4.456147e+03
9.584496e+02,4.461104e+03
9.594139e+02,4.463858e+03
9.603781e+02,4.463625e+03
9.613423e+02,4.460881e+03
9.623066e+02,4.454765e+03
9.632708e+02,4.452151e+03
9.642350e+02,4.457676e+03
9.651993e+02,4.465182e+03
9.661635e+02,4.463574e+03
9.671277e+02,4.444332e+03
9.680920e+02,4.433161e+03
9.690562e+02,4.436261e+03
9.700204e+02,4.440405e+03
9.709847e+02,4.436300e+03
9.719489e+02,4.422806e+03
9.729131e+02,4.414361e+03
9.738774e+02,4.415118e+03
9.748416e+02,4.418822e+03
9.758058e+02,4.421302e+03
9.767701e+02,4.421768e+03
9.777343e+02,4.423330e+03
9.786985e+02,4.430555e+03
9.796628e+02,4.433298e+03
9.806270e+02,4.424337e+03
9.815912e+02,4.410083e+03
9.825555e+02,4.401664e+03
9.835197e+02,4.408496e+03
9.844839e+02,4.416376e+03
9.854482e+02,4.422460e+03
9.864124e+02,4.425847e+03
9.873766e+02,4.422444e+03
9.883409e+02,4.410433e+03
9.893051e+02,4.401682e+03
9.902693e+02,4.407128e+03
9.912336e+02,4.417829e+03
9.921978e+02,4.422276e+03
9.931620e+02,4.418439e+03
9.941263e+02,4.412694e+03
9.950905e+02,4.409891e+03
9.960547e+02,4.408468e+03
9.970190e+02,4.406474e+03
9.979832e+02,4.403400e+03
9.989474e+02,4.399265e+03
9.999117e+02,4.395022e+03
1.000876e+03,4.392210e+03
1.001840e+03,4.393606e+03
1.002804e+03,4.398897e+03
1.003769e+03,4.403595e+03
1.004733e+03,4.404859e+03
1.005697e+03,4.403328e+03
1.006661e+03,4.399621e+03
1.007626e+03,4.394759e+03
1.008590e+03,4.392023e+03
1.009554e+03,4.391065e+03
1.010518e+03,4.389886e+03
1.011482e+03,4.387364e+03
1.012447e+03,4.383602e+03
1.013411e+03,4.380761e+03
1.014375e+03,4.381166e+03
1.015339e+03,4.381989e+03
1.016304e+03,4.379612e+03
1.017268e+03,4.374317e+03
1.018232e+03,4.370274e+03
1.019196e+03,4.367054e+03
1.020161e+03,4.363544e+03
1.021125e+03,4.359812e+03
1.022089e+03,4.357731e+03
1.023053e+03,4.359502e+03
1.024018e+03,4.364468e+03
1.024982e+03,4.368075e+03
1.025946e+03,4.368164e+03
1.026910e+03,4.365642e+03
1.027875e+03,4.364323e+03
1.028839e+03,4.367010e+03
1.029803e+03,4.369620e+03
1.030767e+03,4.372598e+03
1.031731e+03,4.374978e+03
1.032696e+03,4.374597e+03
1.033660e+03,4.370782e+03
1.034624e+03,4.370336e+03
1.035588e+03,4.377953e+03
1.036552e+03,4.383917e+03
1.037517e+03,4.383471e+03
1.038481e+03,4.376365e+03
1.039445e+03,4.365717e+03
1.040409e+03,4.344261e+03
1.041374e+03,4.332081e+03
1.042338e+03,4.339542e+03
1.043302e+03,4.355464e+03
1.044266e+03,4.364260e+03
1.045231e+03,4.362798e+03
1.046195e+03,4.358596e+03
1.047159e+03,4.350005e+03
1.048123e+03,4.341845e+03
1.049088e+03,4.337507e+03
1.050052e+03,4.338857e+03
1.051016e+03,4.340490e+03
1.051980e+03,4.340692e+03
1.052945e+03,4.341913e+03
1.053909e+03,4.343985e+03
1.054873e+03,4.344627e+03
1.055837e+03,4.342942e+03
1.056802e+03,4.342291e+03
1.057766e+03,4.338240e+03
1.058730e+03,4.325339e+03
1.059694e+03,4.311670e+03
1.060658e+03,4.307144e+03
1.061623e+03,4.322290e+03
1.062587e+03,4.330463e+03
1.063551e+03,4.321564e+03
1.064515e+03,4.310735e+03
1.065479e+03,4.308042e+03
1.066444e+03,4.315544e+03
1.067408e+03,4.322833e+03
1.068372e+03,4.327838e+03
1.069336e+03,4.332785e+03
1.070301e+03,4.336846e+03
1.071265e+03,4.339071e+03
1.072229e+03,4.340110e+03
1.073193e+03,4.342659e+03
1.074158e+03,4.340765e+03
1.075122e+03,4.329860e+03
1.076086e+03,4.315275e+03
1.077050e+03,4.303875e+03
1.078015e+03,4.298532e+03
1.078979e+03,4.299007e+03
1.079943e+03,4.310100e+03
1.080907e+03,4.321791e+03
1.081872e+03,4.324090e+03
1.082836e+03,4.315081e+03
1.083800e+03,4.309774e+03
1.084764e+03,4.316103e+03
1.085729e+03,4.324220e+03
1.086693e+03,4.329085e+03
1.087657e+03,4.331333e+03
1.088621e+03,4.334248e+03
1.089585e+03,4.340789e+03
1.090550e+03,4.343179e+03
1.091514e+03,4.341364e+03
1.092478e+03,4.336954e+03
1.093442e+03,4.330126e+03
1.094406e+03,4.319562e+03
1.095371e+03,4.312145e+03
1.096335e+03,4.310553e+03
1.097299e+03,4.309706e+03
1.098263e+03,4.305600e+03
1.099228e+03,4.297903e+03
1.100192e+03,4.292876e+03
1.101156e+03,4.293264e+03
1.102120e+03,4.293948e+03
1.103085e+03,4.293949e+03
1.104049e+03,4.293261e+03
1.105013e+03,4.291923e+03
1.105977e+03,4.291544e+03
1.106942e+03,4.289207e+03
1.107906e+03,4.280501e+03
1.108870e+03,4.272622e+03
1.109834e+03,4.273075e+03
1.110799e+03,4.285471e+03
1.111763e+03,4.294024e+03
1.112727e+03,4.292530e+03
1.113691e+03,4.292416e+03
1.114656e+03,4.300448e+03
1.115620e+03,4.315218e+03
1.116584e+03,4.325745e+03
1.117548e+03,4.327577e+03
1.118512e+03,4.325965e+03
1.119477e+03,4.318026e+03
1.120441e+03,4.309146e+03
1.121405e+03,4.308230e+03
1.122369e+03,4.329011e+03
1.123334e+03,4.337174e+03
1.124298e+03,4.323722e+03
1.125262e+03,4.306977e+03
1.126226e+03,4.300044e+03
1.127191e+03,4.304484e+03
1.128155e+03,4.307335e+03
1.129119e+03,4.303833e+03
1.130083e+03,4.303293e+03
1.131047e+03,4.310959e+03
1.132012e+03,4.322695e+03
1.132976e+03,4.327995e+03
1.133940e+03,4.324000e+03
1.134904e+03,4.318861e+03
1.135869e+03,4.315540e+03
1.136833e+03,4.312165e+03
1.137797e+03,4.306069e+03
1.138761e+03,4.297529e+03
1.139726e+03,4.290704e+03
1.140690e+03,4.285357e+03
1.141654e+03,4.280198e+03
1.142618e+03,4.273077e+03
1.143583e+03,4.265243e+03
1.144547e+03,4.265500e+03
1.145511e+03,4.276318e+03
1.146475e+03,4.285121e+03
1.147439e+03,4.287642e+03
1.148404e+03,4.287372e+03
1.149368e+03,4.288838e+03
1.150332e+03,4.291606e+03
1.151296e+03,4.295979e+03
1.152261e+03,4.300864e+03
1.153225e+03,4.300839e+03
1.154189e+03,4.293015e+03
1.155153e+03,4.280187e+03
1.156118e+03,4.272610e+03
1.157082e+03,4.271874e+03
1.158046e+03,4.269287e+03
1.159010e+03,4.258205e+03
1.159974e+03,4.243854e+03
1.160939e+03,4.238935e+03
1.161903e+03,4.240878e+03
1.162867e+03,4.238089e+03
1.163831e+03,4.227829e+03
1.164796e+03,4.214955e+03
1.165760e+03,4.204675e+03
1.166724e+03,4.197615e+03
1.167688e+03,4.195001e+03
1.168653e+03,4.196200e+03
1.169617e+03,4.196412e+03
1.170581e+03,4.192266e+03
1.171545e+03,4.187337e+03
1.172510e+03,4.186745e+03
1.173474e+03,4.189449e+03
1.174438e+03,4.191345e+03
1.175402e+03,4.190199e+03
1.176366e+03,4.190782e+03
1.177331e+03,4.201239e+03
1.178295e+03,4.214556e+03
1.179259e+03,4.221227e+03
1.180223e+03,4.220083e+03
1.181188e+03,4.215683e+03
1.182152e+03,4.208873e+03
1.183116e+03,4.201855e+03
1.184080e+03,4.198210e+03
1.185045e+03,4.196657e+03
1.186009e+03,4.193357e+03
1.186973e+03,4.186571e+03
1.187937e+03,4.182313e+03
1.188901e+03,4.182646e+03
1.189866e+03,4.185559e+03
1.190830e+03,4.189596e+03
1.191794e+03,4.193749e+03
1.192758e+03,4.195263e+03
1.193723e+03,4.195353e+03
1.194687e+03,4.194234e+03
1.195651e+03,4.188976e+03
1.196615e+03,4.181748e+03
1.197580e+03,4.178247e+03
1.198544e+03,4.181351e+03
1.199508e+03,4.177714e+03
1.200472e+03,4.165746e+03
1.201437e+03,4.151766e+03
1.202401e+03,4.141063e+03
1.203365e+03,4.134649e+03
1.204329e+03,4.132021e+03
1.205293e+03,4.133007e+03
1.206258e+03,4.136848e+03
1.207222e+03,4.143328e+03
1.208186e+03,4.151113e+03
1.209150e+03,4.157891e+03
1.210115e+03,4.162660e+03
1.211079e+03,4.163243e+03
1.212043e+03,4.159194e+03
1.213007e+03,4.153205e+03
1.213972e+03,4.151083e+03
1.214936e+03,4.152422e+03
1.215900e+03,4.145737e+03
1.216864e+03,4.131589e+03
1.217828e+03,4.119889e+03
1.218793e+03,4.116547e+03
1.219757e+03,4.118986e+03
1.220721e+03,4.125803e+03
1.221685e+03,4.134817e+03
1.222650e+03,4.137427e+03
1.223614e+03,4.129783e+03
1.224578e+03,4.120432e+03
1.225542e+03,4.119055e+03
1.226507e+03,4.121312e+03
1.227471e+03,4.121980e+03
1.228435e+03,4.119667e+03
1.229399e+03,4.114576e+03
1.230364e+03,4.108147e+03
1.231328e+03,4.099753e+03
1.232292e+03,4.087424e+03
1.233256e+03,4.076751e+03
1.234220e+03,4.073367e+03
1.235185e+03,4.082029e+03
1.236149e+03,4.089257e+03
1.237113e+03,4.092815e+03
1.238077e+03,4.094716e+03
1.239042e+03,4.091273e+03
1.240006e+03,4.082077e+03
1.240970e+03,4.078386e+03
1.241934e+03,4.084484e+03
1.242899e+03,4.088331e+03
1.243863e+03,4.089168e+03
1.244827e+03,4.087149e+03
1.245791e+03,4.080806e+03
1.246755e+03,4.068574e+03
1.247720e+03,4.061621e+03
1.248684e+03,4.061262e+03
1.249648e+03,4.063550e+03
1.250612e+03,4.066167e+03
1.251577e+03,4.067992e+03
1.252541e+03,4.066515e+03
1.253505e+03,4.061749e+03
1.254469e+03,4.056909e+03
1.255434e+03,4.053511e+03
1.256398e+03,4.052695e+03
1.257362e+03,4.057798e+03
1.258326e+03,4.063346e+03
1.259291e+03,4.058402e+03
1.260255e+03,4.043710e+03
1.261219e+03,4.030205e+03
1.262183e+03,4.026820e+03
1.263147e+03,4.029507e+03
1.264112e+03,4.036754e+03
1.265076e+03,4.046599e+03
1.266040e+03,4.055856e+03
1.267004e+03,4.064404e+03
1.267969e+03,4.070881e+03
1.268933e+03,4.074972e+03
1.269897e+03,4.080306e+03
1.270861e+03,4.086536e+03
1.271826e+03,4.090536e+03
1.272790e+03,4.092023e+03
1.273754e+03,4.090673e+03
1.274718e+03,4.090475e+03
1.275682e+03,4.095572e+03
1.276647e+03,4.101745e+03
1.277611e+03,4.101776e+03
1.278575e+03,4.094074e+03
1.279539e+03,4.088003e+03
1.280504e+03,4.085875e+03
1.281468e+03,4.086201e+03
1.282432e+03,4.087594e+03
1.283396e+03,4.089017e+03
1.284361e+03,4.087245e+03
1.285325e+03,4.082219e+03
1.286289e+03,4.077715e+03
1.287253e+03,4.074492e+03
1.288218e+03,4.070233e+03
1.289182e+03,4.062618e+03
1.290146e+03,4.054175e+03
1.291110e+03,4.048785e+03
1.292074e+03,4.046203e+03
1.293039e+03,4.042920e+03
1.294003e+03,4.037989e+03
1.294967e+03,4.029664e+03
1.295931e+03,4.014468e+03
1.296896e+03,3.999429e+03
1.297860e+03,3.991281e+03
1.298824e+03,3.991146e+03
1.299788e+03,3.993283e+03
1.300753e+03,3.999940e+03
1.301717e+03,4.003881e+03
1.302681e+03,4.001048e+03
1.303645e+03,3.994352e+03
1.304609e+03,3.992622e+03
1.305574e+03,3.995148e+03
1.306538e+03,3.996960e+03
1.307502e+03,3.999628e+03
1.308466e+03,4.001125e+03
1.309431e+03,3.996175e+03
1.310395e+03,3.987628e+03
1.311359e+03,3.985877e+03
1.312323e+03,3.987897e+03
1.313288e+03,3.986761e+03
1.314252e+03,3.980809e+03
1.315216e+03,3.974740e+03
1.316180e+03,3.968839e+03
1.317145e+03,3.966094e+03
1.318109e+03,3.971519e+03
1.319073e+03,3.983528e+03
1.320037e+03,3.989763e+03
1.321001e+03,3.982855e+03
1.321966e+03,3.972849e+03
1.322930e+03,3.962606e+03
1.323894e+03,3.955001e+03
1.324858e+03,3.952337e+03
1.325823e+03,3.955992e+03
1.326787e+03,3.961776e+03
1.327751e+03,3.971175e+03
1.328715e+03,3.975356e+03
1.329680e+03,3.966412e+03
1.330644e+03,3.949481e+03
1.331608e+03,3.947745e+03
1.332572e+03,3.959767e+03
1.333536e+03,3.972452e+03
1.334501e+03,3.981799e+03
1.335465e+03,3.988259e+03
1.336429e+03,3.996790e+03
1.337393e+03,4.003219e+03
1.338358e+03,3.997568e+03
1.339322e+03,3.982287e+03
1.340286e+03,3.969305e+03
1.341250e+03,3.965526e+03
1.342215e+03,3.963692e+03
1.343179e+03,3.963713e+03
1.344143e+03,3.966163e+03
1.345107e+03,3.969297e+03
1.346072e+03,3.971807e+03
1.347036e+03,3.973806e+03
1.348000e+03,3.975484e+03
1.348964e+03,3.973705e+03
1.349928e+03,3.967865e+03
1.350893e+03,3.960296e+03
1.351857e+03,3.953487e+03
1.352821e+03,3.946534e+03
1.353785e+03,3.938047e+03
1.354750e+03,3.927329e+03
1.355714e+03,3.918246e+03
1.356678e+03,3.919752e+03
1.357642e+03,3.924841e+03
1.358607e+03,3.916949e+03
1.359571e+03,3.902264e+03
1.360535e+03,3.896626e+03
1.361499e+03,3.909295e+03
1.362464e+03,3.921703e+03
1.363428e+03,3.925730e+03
1.364392e+03,3.927580e+03
1.365356e+03,3.929487e+03
1.366320e+03,3.929700e+03
1.367285e+03,3.927446e+03
1.368249e+03,3.923686e+03
1.369213e+03,3.919465e+03
1.370177e+03,3.915028e+03
1.371142e+03,3.910142e+03
1.372106e+03,3.904078e+03
1.373070e+03,3.897272e+03
1.374034e+03,3.893746e+03
1.374999e+03,3.894025e+03
1.375963e+03,3.894043e+03
1.376927e+03,3.890793e+03
1.377891e+03,3.887634e+03
1.378855e+03,3.889863e+03
1.379820e+03,3.892336e+03
1.380784e+03,3.887692e+03
1.381748e+03,3.876090e+03
1.382712e+03,3.867116e+03
1.383677e+03,3.863254e+03
1.384641e+03,3.858837e+03
1.385605e+03,3.849911e+03
1.386569e+03,3.840049e+03
1.387534e+03,3.836153e+03
1.388498e+03,3.840344e+03
1.389462e+03,3.840715e+03
1.390426e+03,3.835434e+03
1.391391e+03,3.829071e+03
1.392355e+03,3.825581e+03
1.393319e+03,3.824353e+03
1.394283e+03,3.822366e+03
1.395247e+03,3.819885e+03
1.396212e+03,3.818849e+03
1.397176e+03,3.819821e+03
1.398140e+03,3.821311e+03
1.399104e+03,3.821284e+03
1.400069e+03,3.820952e+03
1.401033e+03,3.823042e+03
1.401997e+03,3.825547e+03
1.402961e+03,3.822839e+03
1.403926e+03,3.811621e+03
1.404890e+03,3.801271e+03
1.405854e+03,3.791722e+03
1.406818e+03,3.787045e+03
1.407782e+03,3.791627e+03
1.408747e+03,3.803811e+03
1.409711e+03,3.815738e+03
1.410675e+03,3.824608e+03
1.411639e+03,3.827093e+03
1.412604e+03,3.822490e+03
1.413568e+03,3.814746e+03
1.414532e+03,3.804137e+03
1.415496e+03,3.796625e+03
1.416461e+03,3.800359e+03
1.417425e+03,3.809896e+03
1.418389e+03,3.808645e+03
1.419353e+03,3.779927e+03
1.420318e+03,3.762525e+03
1.421282e+03,3.765647e+03
1.422246e+03,3.773205e+03
1.423210e+03,3.770868e+03
1.424174e+03,3.761215e+03
1.425139e+03,3.758527e+03
1.426103e+03,3.761185e+03
1.427067e+03,3.764738e+03
1.428031e+03,3.768377e+03
1.428996e+03,3.770820e+03
1.429960e+03,3.770864e+03
1.430924e+03,3.767522e+03
1.431888e+03,3.757089e+03
1.432853e+03,3.742044e+03
1.433817e+03,3.732865e+03
1.434781e+03,3.740330e+03
1.435745e+03,3.743375e+03
1.436709e+03,3.735115e+03
1.437674e+03,3.724660e+03
1.438638e+03,3.722299e+03
1.439602e+03,3.727956e+03
1.440566e+03,3.729453e+03
1.441531e+03,3.726706e+03
1.442495e+03,3.722829e+03
1.443459e+03,3.718048e+03
1.444423e+03,3.713651e+03
1.445388e+03,3.711719e+03
1.446352e+03,3.708976e+03
1.447316e+03,3.701359e+03
1.448280e+03,3.691563e+03
1.449245e+03,3.687427e+03
1.450209e+03,3.696550e+03
1.451173e+03,3.702595e+03
1.452137e+03,3.700448e+03
1.453101e+03,3.695405e+03
1.454066e+03,3.693842e+03
1.455030e+03,3.695359e+03
1.455994e+03,3.695210e+03
1.456958e+03,3.693580e+03
1.457923e+03,3.692387e+03
1.458887e+03,3.691585e+03
1.459851e+03,3.689729e+03
1.460815e+03,3.684942e+03
1.461780e+03,3.678013e+03
1.462744e+03,3.672121e+03
1.463708e+03,3.667675e+03
1.464672e+03,3.660717e+03
1.465636e+03,3.649351e+03
1.466601e+03,3.641940e+03
1.467565e+03,3.638590e+03
1.468529e+03,3.641284e+03
1.469493e+03,3.654695e+03
1.470458e+03,3.673628e+03
1.471422e+03,3.679683e+03
1.472386e+03,3.676338e+03
1.473350e+03,3.674078e+03
1.474315e+03,3.676731e+03
1.475279e+03,3.676795e+03
1.476243e+03,3.665297e+03
1.477207e+03,3.652050e+03
1.478172e+03,3.645282e+03
1.479136e+03,3.644885e+03
1.480100e+03,3.647500e+03
1.481064e+03,3.655499e+03
1.482028e+03,3.658816e+03
1.482993e+03,3.656651e+03
1.483957e+03,3.650693e+03
1.484921e+03,3.635009e+03
1.485885e+03,3.619312e+03
1.486850e+03,3.626847e+03
1.487814e+03,3.647161e+03
1.488778e+03,3.659406e+03
1.489742e+03,3.656382e+03
1.490707e+03,3.650927e+03
1.491671e+03,3.651399e+03
1.492635e+03,3.649016e+03
1.493599e+03,3.634649e+03
1.494563e+03,3.614970e+03
1.495528e+03,3.612870e+03
1.496492e+03,3.626954e+03
1.497456e+03,3.632531e+03
1.498420e+03,3.628062e+03
1.499385e+03,3.621589e+03
1.500349e+03,3.616344e+03
1.501313e+03,3.614658e+03
1.502277e+03,3.621738e+03
1.503242e+03,3.631175e+03
1.504206e+03,3.632968e+03
1.505170e+03,3.621495e+03
1.506134e+03,3.615807e+03
1.507099e+03,3.619581e+03
1.508063e+03,3.619827e+03
1.509027e+03,3.610808e+03
1.509991e+03,3.597709e+03
1.510955e+03,3.587833e+03
1.511920e+03,3.581383e+03
1.512884e+03,3.581871e+03
1.513848e+03,3.589377e+03
1.514812e+03,3.595039e+03
1.515777e+03,3.586351e+03
1.516741e+03,3.580159e+03
1.517705e+03,3.585182e+03
1.518669e+03,3.592038e+03
1.519634e+03,3.594604e+03
1.520598e+03,3.592333e+03
1.521562e+03,3.584133e+03
1.522526e+03,3.569871e+03
1.523490e+03,3.564748e+03
1.524455e+03,3.575995e+03
1.525419e+03,3.587033e+03
1.526383e+03,3.581253e+03
1.527347e+03,3.569879e+03
1.528312e+03,3.562741e+03
1.529276e+03,3.561355e+03
1.530240e+03,3.563398e+03
1.531204e+03,3.570190e+03
1.532169e+03,3.570935e+03
1.533133e+03,3.563603e+03
1.534097e+03,3.556030e+03
1.535061e+03,3.553848e+03
1.536026e+03,3.554632e+03
1.536990e+03,3.555790e+03
1.537954e+03,3.557626e+03
1.538918e+03,3.561755e+03
1.539882e+03,3.569469e+03
1.540847e+03,3.568858e+03
1.541811e+03,3.543756e+03
1.542775e+03,3.525233e+03
1.543739e+03,3.525570e+03
1.544704e+03,3.535275e+03
1.545668e+03,3.537216e+03
1.546632e+03,3.534128e+03
1.547596e+03,3.538759e+03
1.548561e+03,3.550074e+03
1.549525e+03,3.557966e+03
1.550489e+03,3.551774e+03
1.551453e+03,3.545872e+03
1.552417e+03,3.549506e+03
1.553382e+03,3.553598e+03
1.554346e+03,3.550464e+03
1.555310e+03,3.542162e+03
1.556274e+03,3.542439e+03
1.557239e+03,3.550693e+03
1.558203e+03,3.554083e+03
1.559167e+03,3.549415e+03
1.560131e+03,3.542803e+03
1.561096e+03,3.538107e+03
1.562060e+03,3.536050e+03
1.563024e+03,3.539806e+03
1.563988e+03,3.545701e+03
1.564953e+03,3.544048e+03
1.565917e+03,3.527804e+03
1.566881e+03,3.529291e+03
1.567845e+03,3.551022e+03
1.568809e+03,3.567167e+03
1.569774e+03,3.562368e+03
1.570738e+03,3.548993e+03
1.571702e+03,3.540792e+03
1.572666e+03,3.535738e+03
1.573631e+03,3.530824e+03
1.574595e+03,3.526912e+03
1.575559e+03,3.529101e+03
1.576523e+03,3.539184e+03
1.577488e+03,3.554193e+03
1.578452e+03,3.574759e+03
1.579416e+03,3.588192e+03
1.580380e+03,3.575969e+03
1.581344e+03,3.551543e+03
1.582309e+03,3.539766e+03
1.583273e+03,3.538105e+03
1.584237e+03,3.538212e+03
1.585201e+03,3.538175e+03
1.586166e+03,3.539158e+03
1.587130e+03,3.541118e+03
1.588094e+03,3.542020e+03
1.589058e+03,3.542709e+03
1.590023e+03,3.541616e+03
1.590987e+03,3.531695e+03
1.591951e+03,3.518406e+03
1.592915e+03,3.512247e+03
1.593880e+03,3.512048e+03
1.594844e+03,3.511488e+03
1.595808e+03,3.512481e+03
1.596772e+03,3.506617e+03
1.597736e+03,3.488410e+03
1.598701e+03,3.472387e+03
1.599665e+03,3.472859e+03
1.600629e+03,3.484739e+03
1.601593e+03,3.488597e+03
1.602558e+03,3.485359e+03
1.603522e+03,3.477422e+03
1.604486e+03,3.464798e+03
1.605450e+03,3.450110e+03
1.606415e+03,3.426558e+03
1.607379e+03,3.414711e+03
1.608343e+03,3.425287e+03
1.609307e+03,3.446072e+03
1.610271e+03,3.457277e+03
1.611236e+03,3.459563e+03
1.612200e+03,3.455833e+03
1.613164e+03,3.448663e+03
1.614128e+03,3.444973e+03
1.615093e+03,3.451391e+03
1.616057e+03,3.455830e+03
1.617021e+03,3.449849e+03
1.617985e+03,3.443737e+03
1.618950e+03,3.447561e+03
1.619914e+03,3.455923e+03
1.620878e+03,3.442110e+03
1.621842e+03,3.413351e+03
1.622807e+03,3.396592e+03
1.623771e+03,3.398039e+03
1.624735e+03,3.403606e+03
1.625699e+03,3.407570e+03
1.626663e+03,3.409124e+03
1.627628e+03,3.406702e+03
1.628592e+03,3.401029e+03
1.629556e+03,3.395786e+03
1.630520e+03,3.392085e+03
1.631485e+03,3.385005e+03
1.632449e+03,3.375526e+03
1.633413e+03,3.369378e+03
1.634377e+03,3.369902e+03
1.635342e+03,3.372318e+03
1.636306e+03,3.377916e+03
1.637270e+03,3.381948e+03
1.638234e+03,3.382437e+03
1.639198e+03,3.379718e+03
1.640163e+03,3.369368e+03
1.641127e+03,3.356062e+03
1.642091e+03,3.354401e+03
1.643055e+03,3.363491e+03
1.644020e+03,3.370823e+03
1.644984e+03,3.369557e+03
1.645948e+03,3.364750e+03
1.646912e+03,3.356551e+03
1.647877e+03,3.349468e+03
1.648841e+03,3.347864e+03
1.649805e+03,3.350677e+03
1.650769e+03,3.356443e+03
1.651734e+03,3.362032e+03
1.652698e+03,3.358487e+03
1.653662e+03,3.340270e+03
1.654626e+03,3.329800e+03
1.655590e+03,3.339029e+03
1.656555e+03,3.346539e+03
1.657519e+03,3.348696e+03
1.658483e+03,3.346777e+03
1.659447e+03,3.336029e+03
1.660412e+03,3.321546e+03
1.661376e+03,3.317956e+03
1.662340e+03,3.323415e+03
1.663304e+03,3.327153e+03
1.664269e+03,3.322619e+03
1.665233e+03,3.318036e+03
1.666197e+03,3.312752e+03
1.667161e+03,3.306008e+03
1.668125e+03,3.296709e+03
1.669090e+03,3.289500e+03
1.670054e+03,3.296615e+03
1.671018e+03,3.307524e+03
1.671982e+03,3.306323e+03
1.672947e+03,3.292906e+03
1.673911e+03,3.290276e+03
1.674875e+03,3.301381e+03
1.675839e+03,3.305515e+03
1.676804e+03,3.300965e+03
1.677768e+03,3.295811e+03
1.678732e+03,3.298635e+03
1.679696e+03,3.299339e+03
1.680661e+03,3.281231e+03
1.681625e+03,3.257741e+03
1.682589e+03,3.251901e+03
1.683553e+03,3.265821e+03
1.684517e+03,3.279499e+03
1.685482e+03,3.292297e+03
1.686446e+03,3.299604e+03
1.687410e+03,3.299654e+03
1.688374e+03,3.295991e+03
1.689339e+03,3.286043e+03
1.690303e+03,3.278657e+03
1.691267e+03,3.283429e+03
1.692231e+03,3.291302e+03
1.693196e+03,3.282477e+03
1.694160e+03,3.259541e+03
1.695124e+03,3.249369e+03
1.696088e+03,3.251948e+03
1.697052e+03,3.257143e+03
1.698017e+03,3.258324e+03
1.698981e+03,3.260289e+03
1.699945e+03,3.265597e+03
1.700909e+03,3.266456e+03
1.701874e+03,3.259726e+03
1.702838e+03,3.251752e+03
1.703802e+03,3.254877e+03
1.704766e+03,3.261249e+03
1.705731e+03,3.257159e+03
1.706695e+03,3.242676e+03
1.707659e+03,3.234909e+03
1.708623e+03,3.240369e+03
1.709588e+03,3.246296e+03
1.710552e+03,3.249555e+03
1.711516e+03,3.250799e+03
1.712480e+03,3.253105e+03
1.713444e+03,3.252721e+03
1.714409e+03,3.245668e+03
1.715373e+03,3.235051e+03
1.716337e+03,3.222573e+03
1.717301e+03,3.209227e+03
1.718266e+03,3.205464e+03
1.719230e+03,3.210325e+03
1.720194e+03,3.215798e+03
1.721158e+03,3.219471e+03
1.722123e+03,3.220825e+03
1.723087e+03,3.218250e+03
1.724051e+03,3.214851e+03
1.725015e+03,3.212706e+03
1.725979e+03,3.211595e+03
1.726944e+03,3.209048e+03
1.727908e+03,3.205993e+03
1.728872e+03,3.207847e+03
1.729836e+03,3.211928e+03
1.730801e+03,3.211915e+03
1.731765e+03,3.201219e+03
1.732729e+03,3.199332e+03
1.733693e+03,3.212700e+03
1.734658e+03,3.221308e+03
1.735622e+03,3.214529e+03
1.736586e+03,3.201655e+03
1.737550e+03,3.193448e+03
1.738515e+03,3.189413e+03
1.739479e+03,3.191285e+03
1.740443e+03,3.197386e+03
1.741407e+03,3.199656e+03
1.742371e+03,3.198202e+03
1.743336e+03,3.190448e+03
1.744300e+03,3.176282e+03
1.745264e+03,3.163694e+03
1.746228e+03,3.160095e+03
1.747193e+03,3.160369e+03
1.748157e+03,3.166914e+03
1.749121e+03,3.174091e+03
1.750085e+03,3.173338e+03
1.751050e+03,3.165875e+03
1.752014e+03,3.166656e+03
1.752978e+03,3.172751e+03
1.753942e+03,3.174110e+03
1.754906e+03,3.168351e+03
1.755871e+03,3.165490e+03
1.756835e+03,3.168298e+03
1.757799e+03,3.165610e+03
1.758763e+03,3.158414e+03
1.759728e+03,3.150165e+03
1.760692e+03,3.138417e+03
1.761656e+03,3.131311e+03
1.762620e+03,3.141171e+03
1.763585e+03,3.156319e+03
1.764549e+03,3.158570e+03
1.765513e+03,3.146904e+03
1.766477e+03,3.143788e+03
1.767442e+03,3.148328e+03
1.768406e+03,3.149679e+03
1.769370e+03,3.144257e+03
1.770334e+03,3.139442e+03
1.771298e+03,3.136578e+03
1.772263e+03,3.134161e+03
1.773227e+03,3.132594e+03
1.774191e+03,3.132384e+03
1.775155e+03,3.135008e+03
1.776120e+03,3.137669e+03
1.777084e+03,3.136699e+03
1.778048e+03,3.133076e+03
1.779012e+03,3.129052e+03
1.779977e+03,3.125292e+03
1.780941e+03,3.123404e+03
1.781905e+03,3.121939e+03
1.782869e+03,3.118816e+03
1.783833e+03,3.111866e+03
1.784798e+03,3.108398e+03
1.785762e+03,3.117575e+03
1.786726e+03,3.124908e+03
1.787690e+03,3.123002e+03
1.788655e+03,3.117338e+03
1.789619e+03,3.118721e+03
1.790583e+03,3.122592e+03
1.791547e+03,3.115496e+03
1.792512e+03,3.100580e+03
1.793476e+03,3.097661e+03
1.794440e+03,3.114880e+03
1.795404e+03,3.116399e+03
1.796369e+03,3.099025e+03
1.797333e+03,3.082030e+03
1.798297e+03,3.077726e+03
1.799261e+03,3.076591e+03
1.800225e+03,3.068059e+03
1.801190e+03,3.063238e+03
1.802154e+03,3.073886e+03
1.803118e+03,3.090138e+03
1.804082e+03,3.083861e+03
1.805047e+03,3.065977e+03
1.806011e+03,3.059216e+03
1.806975e+03,3.065119e+03
1.807939e+03,3.069909e+03
1.808904e+03,3.065421e+03
1.809868e+03,3.084413e+03
1.810832e+03,3.133306e+03
1.811796e+03,3.164810e+03
1.812760e+03,3.125905e+03
1.813725e+03,3.078074e+03
1.814689e+03,3.056380e+03
1.815653e+03,3.048233e+03
1.816617e+03,3.045813e+03
1.817582e+03,3.047828e+03
1.818546e+03,3.049851e+03
1.819510e+03,3.052089e+03
1.820474e+03,3.057026e+03
1.821439e+03,3.065432e+03
1.822403e+03,3.068339e+03
1.823367e+03,3.065298e+03
1.824331e+03,3.055919e+03
1.825296e+03,3.038680e+03
1.826260e+03,3.026895e+03
1.827224e+03,3.043014e+03
1.828188e+03,3.058348e+03
1.829152e+03,3.049869e+03
1.830117e+03,3.037713e+03
1.831081e+03,3.039388e+03
1.832045e+03,3.048263e+03
1.833009e+03,3.049234e+03
1.833974e+03,3.046856e+03
1.834938e+03,3.044855e+03
1.835902e+03,3.042614e+03
1.836866e+03,3.036490e+03
1.837831e+03,3.025710e+03
1.838795e+03,3.019911e+03
1.839759e+03,3.022736e+03
1.840723e+03,3.024646e+03
1.841688e+03,3.014122e+03
1.842652e+03,3.005088e+03
1.843616e+03,3.000635e+03
1.844580e+03,2.998319e+03
1.845544e+03,2.997960e+03
1.846509e+03,2.999440e+03
1.847473e+03,3.002481e+03
1.848437e+03,3.006078e+03
1.849401e+03,3.010076e+03
1.850366e+03,3.014920e+03
1.851330e+03,3.004096e+03
1.852294e+03,2.981015e+03
1.853258e+03,2.967926e+03
1.854223e+03,2.970976e+03
1.855187e+03,2.976884e+03
1.856151e+03,2.980642e+03
1.857115e+03,2.982722e+03
1.858079e+03,2.982899e+03
1.859044e+03,2.980451e+03
1.860008e+03,2.973133e+03
1.860972e+03,2.966982e+03
1.861936e+03,2.969803e+03
1.862901e+03,2.976073e+03
1.863865e+03,2.976514e+03
1.864829e+03,2.969785e+03
1.865793e+03,2.958385e+03
1.866758e+03,2.945952e+03
1.867722e+03,2.941418e+03
1.868686e+03,2.948441e+03
1.869650e+03,2.950176e+03
1.870615e+03,2.943194e+03
1.871579e+03,2.938792e+03
1.872543e+03,2.941625e+03
1.873507e+03,2.946569e+03
1.874471e+03,2.947410e+03
1.875436e+03,2.944924e+03
1.876400e+03,2.940269e+03
1.877364e+03,2.935655e+03
1.878328e+03,2.933135e+03
1.879293e+03,2.932144e+03
1.880257e+03,2.932925e+03
1.881221e+03,2.932571e+03
1.882185e+03,2.925050e+03
1.883150e+03,2.910682e+03
1.884114e+03,2.908369e+03
1.885078e+03,2.916035e+03
1.886042e+03,2.926301e+03
1.887006e+03,2.938188e+03
1.887971e+03,2.942641e+03
1.888935e+03,2.934896e+03
1.889899e+03,2.928735e+03
1.890863e+03,2.925249e+03
1.891828e+03,2.924122e+03
1.892792e+03,2.933454e+03
1.893756e+03,2.938963e+03
1.894720e+03,2.926076e+03
1.895685e+03,2.910811e+03
1.896649e+03,2.908152e+03
1.897613e+03,2.912686e+03
1.898577e+03,2.910072e+03
1.899542e+03,2.903696e+03
1.900506e+03,2.900424e+03
1.901470e+03,2.901200e+03
1.902434e+03,2.899232e+03
1.903398e+03,2.894813e+03
1.904363e+03,2.889415e+03
1.905327e+03,2.883129e+03
1.906291e+03,2.884126e+03
1.907255e+03,2.906616e+03
1.908220e+03,2.915426e+03
1.909184e+03,2.901609e+03
1.910148e+03,2.884071e+03
1.911112e+03,2.881938e+03
1.912077e+03,2.886871e+03
1.913041e+03,2.898756e+03
1.914005e+03,2.906970e+03
1.914969e+03,2.898587e+03
1.915933e+03,2.878560e+03
1.916898e+03,2.859848e+03
1.917862e+03,2.845488e+03
1.918826e+03,2.841673e+03
1.919790e+03,2.850599e+03
1.920755e+03,2.861626e+03
1.921719e+03,2.872585e+03
1.922683e+03,2.867561e+03
1.923647e+03,2.843842e+03
1.924612e+03,2.829968e+03
1.925576e+03,2.852919e+03
1.926540e+03,2.861288e+03
1.927504e+03,2.843415e+03
1.928469e+03,2.825220e+03
1.929433e+03,2.832917e+03
1.930397e+03,2.844196e+03
1.931361e+03,2.842968e+03
1.932325e+03,2.837726e+03
1.933290e+03,2.835768e+03
1.934254e+03,2.837938e+03
1.935218e+03,2.843182e+03
1.936182e+03,2.846829e+03
1.937147e+03,2.843304e+03
1.938111e+03,2.834745e+03
1.939075e+03,2.833898e+03
1.940039e+03,2.840329e+03
1.941004e+03,2.841279e+03
1.941968e+03,2.833490e+03
1.942932e+03,2.828103e+03
1.943896e+03,2.830807e+03
1.944860e+03,2.831837e+03
1.945825e+03,2.831559e+03
1.946789e+03,2.829792e+03
1.947753e+03,2.822221e+03
1.948717e+03,2.816212e+03
1.949682e+03,2.814503e+03
1.950646e+03,2.814787e+03
1.951610e+03,2.817272e+03
1.952574e+03,2.818898e+03
1.953539e+03,2.814316e+03
1.954503e+03,2.806651e+03
1.955467e+03,2.798246e+03
1.956431e+03,2.791884e+03
1.957396e+03,2.797384e+03
1.958360e+03,2.807156e+03
1.959324e+03,2.800429e+03
1.960288e+03,2.781000e+03
1.961252e+03,2.776293e+03
1.962217e+03,2.787522e+03
1.963181e+03,2.790739e+03
1.964145e+03,2.785120e+03
1.965109e+03,2.779913e+03
1.966074e+03,2.783306e+03
1.967038e+03,2.781887e+03
1.968002e+03,2.770471e+03
1.968966e+03,2.761253e+03
1.969931e+03,2.760901e+03
1.970895e+03,2.762490e+03
1.971859e+03,2.764618e+03
1.972823e+03,2.768499e+03
1.973787e+03,2.773571e+03
1.974752e+03,2.778288e+03
1.975716e+03,2.785592e+03
1.976680e+03,2.787859e+03
1.977644e+03,2.772491e+03
1.978609e+03,2.752435e+03
1.979573e+03,2.745927e+03
1.980537e+03,2.749741e+03
1.981501e+03,2.760420e+03
1.982466e+03,2.773570e+03
1.983430e+03,2.774467e+03
1.984394e+03,2.760352e+03
1.985358e+03,2.753416e+03
1.986323e+03,2.751839e+03
1.987287e+03,2.745854e+03
1.988251e+03,2.730294e+03
1.989215e+03,2.722991e+03
1.990179e+03,2.728345e+03
1.991144e+03,2.730889e+03
1.992108e+03,2.727741e+03
1.993072e+03,2.724250e+03
1.994036e+03,2.723169e+03
1.995001e+03,2.720951e+03
1.995965e+03,2.715947e+03
1.996929e+03,2.712762e+03
1.997893e+03,2.715272e+03
1.998858e+03,2.718619e+03
1.999822e+03,2.720477e+03
2.000786e+03,2.719086e+03
2.001750e+03,2.714448e+03
2.002714e+03,2.709339e+03
2.003679e+03,2.702774e+03
2.004643e+03,2.697137e+03
2.005607e+03,2.701363e+03
2.006571e+03,2.712024e+03
2.007536e+03,2.710644e+03
2.008500e+03,2.701282e+03
2.009464e+03,2.694935e+03
2.010428e+03,2.693784e+03
2.011393e+03,2.695444e+03
2.012357e+03,2.699688e+03
2.013321e+03,2.701390e+03
2.014285e+03,2.698771e+03
2.015250e+03,2.697276e+03
2.016214e+03,2.703183e+03
2.017178e+03,2.703473e+03
2.018142e+03,2.697963e+03
2.019106e+03,2.691050e+03
2.020071e+03,2.682736e+03
2.021035e+03,2.677750e+03
2.021999e+03,2.680693e+03
2.022963e+03,2.681958e+03
2.023928e+03,2.679590e+03
2.024892e+03,2.673416e+03
2.025856e+03,2.656560e+03
2.026820e+03,2.643346e+03
2.027785e+03,2.643222e+03
2.028749e+03,2.648228e+03
2.029713e+03,2.650264e+03
2.030677e+03,2.650414e+03
2.031641e+03,2.647428e+03
2.032606e+03,2.643782e+03
2.033570e+03,2.644466e+03
2.034534e+03,2.647483e+03
2.035498e+03,2.647052e+03
2.036463e+03,2.643676e+03
2.037427e+03,2.635799e+03
2.038391e+03,2.625458e+03
2.039355e+03,2.622942e+03
2.040320e+03,2.627168e+03
2.041284e+03,2.633919e+03
2.042248e+03,2.641574e+03
2.043212e+03,2.632947e+03
2.044177e+03,2.606144e+03
2.045141e+03,2.603297e+03
2.046105e+03,2.629348e+03
2.047069e+03,2.646889e+03
2.048033e+03,2.628750e+03
2.048998e+03,2.614133e+03
2.049962e+03,2.607093e+03
2.050926e+03,2.601551e+03
2.051890e+03,2.589565e+03
2.052854e+03,2.585177e+03
2.053819e+03,2.594196e+03
2.054783e+03,2.600585e+03
2.055747e+03,2.597522e+03
2.056711e+03,2.591850e+03
2.057676e+03,2.587575e+03
2.058640e+03,2.585027e+03
2.059604e+03,2.581891e+03
2.060568e+03,2.579442e+03
2.061533e+03,2.582853e+03
2.062497e+03,2.588044e+03
2.063461e+03,2.593181e+03
2.064425e+03,2.594860e+03
2.065390e+03,2.585126e+03
2.066354e+03,2.569825e+03
2.067318e+03,2.557825e+03
2.068282e+03,2.552385e+03
2.069247e+03,2.557988e+03
2.070211e+03,2.570998e+03
2.071175e+03,2.572164e+03
2.072139e+03,2.565863e+03
2.073104e+03,2.561374e+03
2.074068e+03,2.559933e+03
2.075032e+03,2.558224e+03
2.075996e+03,2.555559e+03
2.076960e+03,2.552903e+03
2.077925e+03,2.550310e+03
2.078889e+03,2.551635e+03
2.079853e+03,2.557063e+03
2.080817e+03,2.566200e+03
2.081782e+03,2.577789e+03
2.082746e+03,2.575463e+03
2.083710e+03,2.545780e+03
2.084674e+03,2.528094e+03
2.085639e+03,2.525948e+03
2.086603e+03,2.530917e+03
2.087567e+03,2.539530e+03
2.088531e+03,2.542316e+03
2.089496e+03,2.536328e+03
2.090460e+03,2.528154e+03
2.091424e+03,2.524345e+03
2.092388e+03,2.523956e+03
2.093353e+03,2.525599e+03
2.094317e+03,2.529141e+03
2.095281e+03,2.532638e+03
2.096245e+03,2.533894e+03
2.097209e+03,2.526851e+03
2.098174e+03,2.524274e+03
2.099138e+03,2.535025e+03
2.100102e+03,2.545272e+03
2.101066e+03,2.537038e+03
2.102031e+03,2.523916e+03
2.102995e+03,2.518813e+03
2.103959e+03,2.514276e+03
2.104923e+03,2.502327e+03
2.105887e+03,2.490738e+03
2.106852e+03,2.485138e+03
2.107816e+03,2.486593e+03
2.108780e+03,2.501658e+03
2.109744e+03,2.519320e+03
2.110708e+03,2.510209e+03
2.111673e+03,2.490908e+03
2.112637e+03,2.482763e+03
2.113601e+03,2.480877e+03
2.114565e+03,2.477060e+03
2.115530e+03,2.471650e+03
2.116494e+03,2.462461e+03
2.117458e+03,2.455739e+03
2.118422e+03,2.459904e+03
2.119387e+03,2.471498e+03
2.120351e+03,2.487978e+03
2.121315e+03,2.503606e+03
2.122279e+03,2.504708e+03
2.123244e+03,2.490831e+03
2.124208e+03,2.476179e+03
2.125172e+03,2.463245e+03
2.126136e+03,2.459255e+03
2.127101e+03,2.467494e+03
2.128065e+03,2.462291e+03
2.129029e+03,2.445873e+03
2.129993e+03,2.441246e+03
2.130958e+03,2.450557e+03
2.131922e+03,2.458348e+03
2.132886e+03,2.464157e+03
2.133850e+03,2.463610e+03
2.134814e+03,2.458758e+03
2.135779e+03,2.451282e+03
2.136743e+03,2.436095e+03
2.137707e+03,2.431990e+03
2.138671e+03,2.440053e+03
2.139636e+03,2.445386e+03
2.140600e+03,2.438246e+03
2.141564e+03,2.432626e+03
2.142528e+03,2.429960e+03
2.143493e+03,2.428532e+03
2.144457e+03,2.426529e+03
2.145421e+03,2.424562e+03
2.146385e+03,2.423781e+03
2.147350e+03,2.422159e+03
2.148314e+03,2.420668e+03
2.149278e+03,2.418764e+03
2.150242e+03,2.407239e+03
2.151207e+03,2.405322e+03
2.152171e+03,2.416967e+03
2.153135e+03,2.424492e+03
2.154099e+03,2.414197e+03
2.155063e+03,2.404153e+03
2.156028e+03,2.399313e+03
2.156992e+03,2.396856e+03
2.157956e+03,2.391489e+03
2.158920e+03,2.386233e+03
2.159885e+03,2.379816e+03
2.160849e+03,2.381567e+03
2.161813e+03,2.400940e+03
2.162777e+03,2.416727e+03
2.163741e+03,2.410376e+03
2.164706e+03,2.394250e+03
2.165670e+03,2.371935e+03
2.166634e+03,2.356576e+03
2.167598e+03,2.365612e+03
2.168563e+03,2.377901e+03
2.169527e+03,2.382962e+03
2.170491e+03,2.380643e+03
2.171455e+03,2.367438e+03
2.172420e+03,2.357584e+03
2.173384e+03,2.363133e+03
2.174348e+03,2.371501e+03
2.175312e+03,2.371613e+03
2.176277e+03,2.368411e+03
2.177241e+03,2.366611e+03
2.178205e+03,2.365426e+03
2.179169e+03,2.366343e+03
2.180134e+03,2.368406e+03
2.181098e+03,2.368153e+03
2.182062e+03,2.367128e+03
2.183026e+03,2.365024e+03
2.183990e+03,2.360893e+03
2.184955e+03,2.352119e+03
2.185919e+03,2.342874e+03
2.186883e+03,2.334154e+03
2.187847e+03,2.327913e+03
2.188812e+03,2.328792e+03
2.189776e+03,2.334406e+03
2.190740e+03,2.347254e+03
2.191704e+03,2.355105e+03
2.192668e+03,2.342734e+03
2.193633e+03,2.324399e+03
2.194597e+03,2.319448e+03
2.195561e+03,2.320767e+03
2.196525e+03,2.321134e+03
2.197490e+03,2.320637e+03
2.198454e+03,2.318617e+03
2.199418e+03,2.317462e+03
2.200382e+03,2.321148e+03
2.201347e+03,2.326165e+03
2.202311e+03,2.322216e+03
2.203275e+03,2.315484e+03
2.204239e+03,2.310117e+03
2.205204e+03,2.304815e+03
2.206168e+03,2.303290e+03
2.207132e+03,2.302395e+03
2.208096e+03,2.293240e+03
2.209061e+03,2.282510e+03
2.210025e+03,2.281126e+03
2.210989e+03,2.283181e+03
2.211953e+03,2.278057e+03
2.212917e+03,2.277649e+03
2.213882e+03,2.289660e+03
2.214846e+03,2.303277e+03
2.215810e+03,2.300034e+03
2.216774e+03,2.289086e+03
2.217739e+03,2.284428e+03
2.218703e+03,2.282817e+03
2.219667e+03,2.274761e+03
2.220631e+03,2.268492e+03
2.221595e+03,2.274541e+03
2.222560e+03,2.280267e+03
2.223524e+03,2.260472e+03
2.224488e+03,2.238061e+03
2.225452e+03,2.246997e+03
2.226417e+03,2.263453e+03
2.227381e+03,2.263621e+03
2.228345e+03,2.257812e+03
2.229309e+03,2.254712e+03
2.230274e+03,2.253251e+03
2.231238e+03,2.254609e+03
2.232202e+03,2.255497e+03
2.233166e+03,2.252340e+03
2.234131e+03,2.249182e+03
2.235095e+03,2.248363e+03
2.236059e+03,2.248177e+03
2.237023e+03,2.244488e+03
2.237988e+03,2.240780e+03
2.238952e+03,2.239602e+03
2.239916e+03,2.236704e+03
2.240880e+03,2.227452e+03
2.241844e+03,2.217112e+03
2.242809e+03,2.206007e+03
2.243773e+03,2.202015e+03
2.244737e+03,2.221195e+03
2.245701e+03,2.238720e+03
2.246666e+03,2.229445e+03
2.247630e+03,2.215904e+03
2.248594e+03,2.215765e+03
2.249558e+03,2.219971e+03
2.250522e+03,2.217385e+03
2.251487e+03,2.217117e+03
2.252451e+03,2.223281e+03
2.253415e+03,2.224972e+03
2.254379e+03,2.206562e+03
2.255344e+03,2.195865e+03
2.256308e+03,2.207263e+03
2.257272e+03,2.217225e+03
2.258236e+03,2.192291e+03
2.259201e+03,2.176454e+03
2.260165e+03,2.184502e+03
2.261129e+03,2.196158e+03
2.262093e+03,2.194461e+03
2.263058e+03,2.189177e+03
2.264022e+03,2.184281e+03
2.264986e+03,2.184284e+03
2.265950e+03,2.195230e+03
2.266915e+03,2.200789e+03
2.267879e+03,2.194159e+03
2.268843e+03,2.184137e+03
2.269807e+03,2.176229e+03
2.270771e+03,2.171209e+03
2.271736e+03,2.170446e+03
2.272700e+03,2.170825e+03
2.273664e+03,2.168889e+03
2.274628e+03,2.169501e+03
2.275593e+03,2.176073e+03
2.276557e+03,2.179899e+03
2.277521e+03,2.181494e+03
2.278485e+03,2.179546e+03
2.279449e+03,2.171139e+03
2.280414e+03,2.163208e+03
2.281378e+03,2.155890e+03
2.282342e+03,2.149592e+03
2.283306e+03,2.140977e+03
2.284271e+03,2.137926e+03
2.285235e+03,2.139538e+03
2.286199e+03,2.141156e+03
2.287163e+03,2.145225e+03
2.288128e+03,2.143749e+03
2.289092e+03,2.135633e+03
2.290056e+03,2.129224e+03
2.291020e+03,2.127263e+03
2.291985e+03,2.127890e+03
2.292949e+03,2.131977e+03
2.293913e+03,2.134235e+03
2.294877e+03,2.133169e+03
2.295842e+03,2.131405e+03
2.296806e+03,2.128036e+03
2.297770e+03,2.123001e+03
2.298734e+03,2.118090e+03
2.299698e+03,2.121407e+03
2.300663e+03,2.131987e+03
2.301627e+03,2.138714e+03
2.302591e+03,2.139954e+03
2.303555e+03,2.133265e+03
2.304520e+03,2.121877e+03
2.305484e+03,2.118581e+03
2.306448e+03,2.118051e+03
2.307412e+03,2.107417e+03
2.308376e+03,2.092379e+03
2.309341e+03,2.092028e+03
2.310305e+03,2.097538e+03
2.311269e+03,2.099964e+03
2.312233e+03,2.099864e+03
2.313198e+03,2.090879e+03
2.314162e+03,2.082755e+03
2.315126e+03,2.090510e+03
2.316090e+03,2.100751e+03
2.317055e+03,2.100171e+03
2.318019e+03,2.095793e+03
2.318983e+03,2.089278e+03
2.319947e+03,2.086415e+03
2.320912e+03,2.100251e+03
2.321876e+03,2.109985e+03
2.322840e+03,2.090788e+03
2.323804e+03,2.076353e+03
2.324769e+03,2.085591e+03
2.325733e+03,2.096325e+03
2.326697e+03,2.089372e+03
2.327661e+03,2.084849e+03
2.328625e+03,2.087351e+03
2.329590e+03,2.086857e+03
2.330554e+03,2.079046e+03
2.331518e+03,2.068893e+03
2.332482e+03,2.056499e+03
2.333447e+03,2.049135e+03
2.334411e+03,2.052545e+03
2.335375e+03,2.055988e+03
2.336339e+03,2.058558e+03
2.337303e+03,2.055719e+03
2.338268e+03,2.040029e+03
2.339232e+03,2.033436e+03
2.340196e+03,2.035529e+03
2.341160e+03,2.039340e+03
2.342125e+03,2.043079e+03
2.343089e+03,2.048642e+03
2.344053e+03,2.053031e+03
2.345017e+03,2.058272e+03
2.345982e+03,2.063017e+03
2.346946e+03,2.044168e+03
2.347910e+03,2.015868e+03
2.348874e+03,2.014480e+03
2.349839e+03,2.030877e+03
2.350803e+03,2.038883e+03
2.351767e+03,2.039421e+03
2.352731e+03,2.026153e+03
2.353696e+03,2.011667e+03
2.354660e+03,2.015103e+03
2.355624e+03,2.024682e+03
2.356588e+03,2.023321e+03
2.357552e+03,2.021733e+03
2.358517e+03,2.032980e+03
2.359481e+03,2.043745e+03
2.360445e+03,2.033312e+03
2.361409e+03,2.019269e+03
2.362374e+03,2.009213e+03
2.363338e+03,2.003417e+03
2.364302e+03,2.011500e+03
2.365266e+03,2.015660e+03
2.366230e+03,2.008431e+03
2.367195e+03,2.000247e+03
2.368159e+03,1.995487e+03
2.369123e+03,1.994950e+03
2.370087e+03,2.000880e+03
2.371052e+03,2.003995e+03
2.372016e+03,1.997196e+03
2.372980e+03,1.999136e+03
2.373944e+03,2.008852e+03
2.374909e+03,2.011080e+03
2.375873e+03,1.999428e+03
2.376837e+03,1.991876e+03
2.377801e+03,1.987704e+03
2.378766e+03,1.980383e+03
2.379730e+03,1.969805e+03
2.380694e+03,1.974057e+03
2.381658e+03,1.986513e+03
2.382623e+03,1.982399e+03
2.383587e+03,1.968017e+03
2.384551e+03,1.970589e+03
2.385515e+03,1.978256e+03
2.386479e+03,1.970496e+03
2.387444e+03,1.958772e+03
2.388408e+03,1.962286e+03
2.389372e+03,1.970412e+03
2.390336e+03,1.970747e+03
2.391301e+03,1.968761e+03
2.392265e+03,1.970489e+03
2.393229e+03,1.968510e+03
2.394193e+03,1.956769e+03
2.395157e+03,1.947843e+03
2.396122e+03,1.954410e+03
2.397086e+03,1.954885e+03
2.398050e+03,1.940997e+03
2.399014e+03,1.935499e+03
2.399979e+03,1.949897e+03
2.400943e+03,1.956353e+03
2.401907e+03,1.949763e+03
2.402871e+03,1.939305e+03
2.403836e+03,1.927510e+03
2.404800e+03,1.926624e+03
2.405764e+03,1.935555e+03
2.406728e+03,1.939785e+03
2.407693e+03,1.936692e+03
2.408657e+03,1.929291e+03
2.409621e+03,1.920495e+03
2.410585e+03,1.916555e+03
2.411550e+03,1.917453e+03
2.412514e+03,1.920951e+03
2.413478e+03,1.925400e+03
2.414442e+03,1.929169e+03
2.415406e+03,1.929165e+03
2.416371e+03,1.919993e+03
2.417335e+03,1.909934e+03
2.418299e+03,1.912568e+03
2.419263e+03,1.916274e+03
2.420228e+03,1.913956e+03
2.421192e+03,1.911408e+03
2.422156e+03,1.917992e+03
2.423120e+03,1.920487e+03
2.424084e+03,1.914042e+03
2.425049e+03,1.902084e+03
2.426013e+03,1.882898e+03
2.426977e+03,1.880427e+03
2.427941e+03,1.897540e+03
2.428906e+03,1.907540e+03
2.429870e+03,1.900322e+03
2.430834e+03,1.903314e+03
2.431798e+03,1.913821e+03
2.432763e+03,1.908560e+03
2.433727e+03,1.887819e+03
2.434691e+03,1.874821e+03
2.435655e+03,1.868032e+03
2.436620e+03,1.864928e+03
2.437584e+03,1.864352e+03
2.438548e+03,1.864333e+03
2.439512e+03,1.868343e+03
2.440477e+03,1.881056e+03
2.441441e+03,1.890845e+03
2.442405e+03,1.880745e+03
2.443369e+03,1.868228e+03
2.444333e+03,1.862260e+03
2.445298e+03,1.859548e+03
2.446262e+03,1.854104e+03
2.447226e+03,1.859566e+03
2.448190e+03,1.879591e+03
2.449155e+03,1.889951e+03
2.450119e+03,1.868293e+03
2.451083e+03,1.857187e+03
2.452047e+03,1.855421e+03
2.453011e+03,1.851850e+03
2.453976e+03,1.844435e+03
2.454940e+03,1.842336e+03
2.455904e+03,1.845357e+03
2.456868e+03,1.849045e+03
2.457833e+03,1.851489e+03
2.458797e+03,1.852262e+03
2.459761e+03,1.852329e+03
2.460725e+03,1.851879e+03
2.461690e+03,1.849834e+03
2.462654e+03,1.842040e+03
2.463618e+03,1.836161e+03
2.464582e+03,1.838534e+03
2.465547e+03,1.842149e+03
2.466511e+03,1.836609e+03
2.467475e+03,1.831132e+03
2.468439e+03,1.827707e+03
2.469404e+03,1.825602e+03
2.470368e+03,1.830160e+03
2.471332e+03,1.826952e+03
2.472296e+03,1.815855e+03
2.473260e+03,1.812364e+03
2.474225e+03,1.821373e+03
2.475189e+03,1.826150e+03
2.476153e+03,1.827844e+03
2.477117e+03,1.822134e+03
2.478082e+03,1.812892e+03
2.479046e+03,1.816766e+03
2.480010e+03,1.823248e+03
2.480974e+03,1.817106e+03
2.481938e+03,1.809011e+03
2.482903e+03,1.817717e+03
2.483867e+03,1.822606e+03
2.484831e+03,1.811436e+03
2.485795e+03,1.798179e+03
2.486760e+03,1.795792e+03
2.487724e+03,1.792813e+03
2.488688e+03,1.787683e+03
2.489652e+03,1.787138e+03
2.490617e+03,1.796673e+03
2.491581e+03,1.800068e+03
2.492545e+03,1.798951e+03
2.493509e+03,1.797057e+03
2.494474e+03,1.794474e+03
2.495438e+03,1.802475e+03
2.496402e+03,1.812734e+03
2.497366e+03,1.803083e+03
2.498331e+03,1.785262e+03
2.499295e+03,1.779227e+03
2.500259e+03,1.781824e+03
2.501223e+03,1.795047e+03
2.502188e+03,1.804888e+03
2.503152e+03,1.789367e+03
2.504116e+03,1.778017e+03
2.505080e+03,1.780062e+03
2.506044e+03,1.783111e+03
2.507009e+03,1.778108e+03
2.507973e+03,1.772147e+03
2.508937e+03,1.766656e+03
2.509901e+03,1.763664e+03
2.510865e+03,1.763382e+03
2.511830e+03,1.756534e+03
2.512794e+03,1.746082e+03
2.513758e+03,1.746592e+03
2.514722e+03,1.754463e+03
2.515687e+03,1.754995e+03
2.516651e+03,1.754429e+03
2.517615e+03,1.759976e+03
2.518579e+03,1.766091e+03
2.519544e+03,1.765244e+03
2.520508e+03,1.763578e+03
2.521472e+03,1.764243e+03
2.522436e+03,1.763199e+03
2.523401e+03,1.755690e+03
2.524365e+03,1.750422e+03
2.525329e+03,1.746482e+03
2.526293e+03,1.744453e+03
2.527258e+03,1.746003e+03
2.528222e+03,1.746296e+03
2.529186e+03,1.744327e+03
2.530150e+03,1.735728e+03
2.531115e+03,1.725534e+03
2.532079e+03,1.729710e+03
2.533043e+03,1.737034e+03
2.534007e+03,1.733130e+03
2.534971e+03,1.727122e+03
2.535936e+03,1.737138e+03
2.536900e+03,1.743660e+03
2.537864e+03,1.739184e+03
2.538828e+03,1.733842e+03
2.539792e+03,1.729254e+03
2.540757e+03,1.727051e+03
2.541721e+03,1.727308e+03
2.542685e+03,1.731159e+03
2.543649e+03,1.738506e+03
2.544614e+03,1.738137e+03
2.545578e+03,1.730581e+03
2.546542e+03,1.722717e+03
2.547506e+03,1.716805e+03
2.548471e+03,1.719461e+03
2.549435e+03,1.721753e+03
2.550399e+03,1.715123e+03
2.551363e+03,1.706682e+03
2.552328e+03,1.702536e+03
2.553292e+03,1.701622e+03
2.554256e+03,1.704058e+03
2.555220e+03,1.710287e+03
2.556185e+03,1.719838e+03
2.557149e+03,1.718050e+03
2.558113e+03,1.702941e+03
2.559077e+03,1.698136e+03
2.560042e+03,1.700265e+03
2.561006e+03,1.697761e+03
2.561970e+03,1.696079e+03
2.562934e+03,1.706485e+03
2.563898e+03,1.714964e+03
2.564863e+03,1.698709e+03
2.565827e+03,1.682760e+03
2.566791e+03,1.693761e+03
2.567755e+03,1.703780e+03
2.568719e+03,1.703278e+03
2.569684e+03,1.701849e+03
2.570648e+03,1.706223e+03
2.571612e+03,1.695302e+03
2.572576e+03,1.674341e+03
2.573541e+03,1.664120e+03
2.574505e+03,1.664954e+03
2.575469e+03,1.678922e+03
2.576433e+03,1.694505e+03
2.577398e+03,1.694912e+03
2.578362e+03,1.690500e+03
2.579326e+03,1.698006e+03
2.580290e+03,1.700352e+03
2.581255e+03,1.689568e+03
2.582219e+03,1.675451e+03
2.583183e+03,1.663109e+03
2.584147e+03,1.653818e+03
2.585112e+03,1.650005e+03
2.586076e+03,1.652828e+03
2.587040e+03,1.661701e+03
2.588004e+03,1.671339e+03
2.588969e+03,1.675721e+03
2.589933e+03,1.663002e+03
2.590897e+03,1.645409e+03
2.591861e+03,1.648787e+03
2.592825e+03,1.657868e+03
2.593790e+03,1.662036e+03
2.594754e+03,1.666140e+03
2.595718e+03,1.676667e+03
2.596682e+03,1.675268e+03
2.597646e+03,1.656468e+03
2.598611e+03,1.646046e+03
2.599575e+03,1.647829e+03
2.600539e+03,1.659238e+03
2.601503e+03,1.673453e+03
2.602468e+03,1.669294e+03
2.603432e+03,1.653842e+03
2.604396e+03,1.637543e+03
2.605360e+03,1.627472e+03
2.606325e+03,1.634660e+03
2.607289e+03,1.637829e+03
2.608253e+03,1.626739e+03
2.609217e+03,1.621816e+03
2.610182e+03,1.634796e+03
2.611146e+03,1.630423e+03
2.612110e+03,1.611868e+03
2.613074e+03,1.613790e+03
2.614039e+03,1.635170e+03
2.615003e+03,1.633599e+03
2.615967e+03,1.620777e+03
2.616931e+03,1.618698e+03
2.617896e+03,1.620305e+03
2.618860e+03,1.611909e+03
2.619824e+03,1.610240e+03
2.620788e+03,1.621527e+03
2.621752e+03,1.627268e+03
2.622717e+03,1.613338e+03
2.623681e+03,1.612832e+03
2.624645e+03,1.624125e+03
2.625609e+03,1.624120e+03
2.626573e+03,1.614131e+03
2.627538e+03,1.617888e+03
2.628502e+03,1.624586e+03
2.629466e+03,1.613921e+03
2.630430e+03,1.599330e+03
2.631395e+03,1.596427e+03
2.632359e+03,1.600923e+03
2.633323e+03,1.615852e+03
2.634287e+03,1.619404e+03
2.635252e+03,1.608275e+03
2.636216e+03,1.604146e+03
2.637180e+03,1.609065e+03
2.638144e+03,1.605712e+03
2.639109e+03,1.596268e+03
2.640073e+03,1.587811e+03
2.641037e+03,1.584201e+03
2.642001e+03,1.591473e+03
2.642966e+03,1.594426e+03
2.643930e+03,1.582840e+03
2.644894e+03,1.575793e+03
2.645858e+03,1.594753e+03
2.646823e+03,1.599302e+03
2.647787e+03,1.588146e+03
2.648751e+03,1.582483e+03
2.649715e+03,1.584419e+03
2.650679e+03,1.585527e+03
2.651644e+03,1.586305e+03
2.652608e+03,1.587662e+03
2.653572e+03,1.588192e+03
2.654536e+03,1.586723e+03
2.655500e+03,1.583063e+03
2.656465e+03,1.576683e+03
2.657429e+03,1.571157e+03
2.658393e+03,1.565902e+03
2.659357e+03,1.572462e+03
2.660322e+03,1.590111e+03
2.661286e+03,1.584638e+03
2.662250e+03,1.565310e+03
2.663214e+03,1.560676e+03
2.664179e+03,1.562012e+03
2.665143e+03,1.558055e+03
2.666107e+03,1.557398e+03
2.667071e+03,1.565517e+03
2.668036e+03,1.570281e+03
2.669000e+03,1.558704e+03
2.669964e+03,1.559213e+03
2.670928e+03,1.569540e+03
2.671893e+03,1.571090e+03
2.672857e+03,1.565156e+03
2.673821e+03,1.560764e+03
2.674785e+03,1.555711e+03
2.675750e+03,1.548480e+03
2.676714e+03,1.542469e+03
2.677678e+03,1.541307e+03
2.678642e+03,1.539115e+03
2.679606e+03,1.534464e+03
2.680571e+03,1.544244e+03
2.681535e+03,1.568732e+03
2.682499e+03,1.567506e+03
2.683463e+03,1.545700e+03
2.684427e+03,1.539847e+03
2.685392e+03,1.543328e+03
2.686356e+03,1.547823e+03
2.687320e+03,1.546699e+03
2.688284e+03,1.528468e+03
2.689249e+03,1.520621e+03
2.690213e+03,1.527348e+03
2.691177e+03,1.534340e+03
2.692141e+03,1.539138e+03
2.693106e+03,1.536552e+03
2.694070e+03,1.532302e+03
2.695034e+03,1.543744e+03
2.695998e+03,1.556065e+03
2.696963e+03,1.532600e+03
2.697927e+03,1.518691e+03
2.698891e+03,1.537103e+03
2.699855e+03,1.546003e+03
2.700820e+03,1.522071e+03
2.701784e+03,1.515436e+03
2.702748e+03,1.525920e+03
2.703712e+03,1.518140e+03
2.704677e+03,1.498569e+03
2.705641e+03,1.493125e+03
2.706605e+03,1.498802e+03
2.707569e+03,1.516442e+03
2.708533e+03,1.526302e+03
2.709498e+03,1.519159e+03
2.710462e+03,1.504276e+03
2.711426e+03,1.479611e+03
2.712390e+03,1.492161e+03
2.713354e+03,1.529573e+03
2.714319e+03,1.535679e+03
2.715283e+03,1.521744e+03
2.716247e+03,1.517380e+03
2.717211e+03,1.514463e+03
2.718176e+03,1.507047e+03
2.719140e+03,1.499437e+03
2.720104e+03,1.493281e+03
2.721068e+03,1.490029e+03
2.722033e+03,1.490573e+03
2.722997e+03,1.500433e+03
2.723961e+03,1.514172e+03
2.724925e+03,1.512573e+03
2.725890e+03,1.503057e+03
2.726854e+03,1.489184e+03
2.727818e+03,1.486685e+03
2.728782e+03,1.504068e+03
2.729747e+03,1.512733e+03
2.730711e+03,1.490692e+03
2.731675e+03,1.485451e+03
2.732639e+03,1.493811e+03
2.733604e+03,1.491975e+03
2.734568e+03,1.484649e+03
2.735532e+03,1.494004e+03
2.736496e+03,1.499501e+03
2.737460e+03,1.485567e+03
2.738425e+03,1.474339e+03
2.739389e+03,1.480432e+03
2.740353e+03,1.480141e+03
2.741317e+03,1.471724e+03
2.742281e+03,1.473615e+03
2.743246e+03,1.483297e+03
2.744210e+03,1.489151e+03
2.745174e+03,1.488241e+03
2.746138e+03,1.472950e+03
2.747103e+03,1.468146e+03
2.748067e+03,1.484534e+03
2.749031e+03,1.493516e+03
2.749995e+03,1.474741e+03
2.750960e+03,1.467197e+03
2.751924e+03,1.467541e+03
2.752888e+03,1.463095e+03
2.753852e+03,1.456587e+03
2.754817e+03,1.459994e+03
2.755781e+03,1.459922e+03
2.756745e+03,1.445600e+03
2.757709e+03,1.440622e+03
2.758674e+03,1.450496e+03
2.759638e+03,1.456079e+03
2.760602e+03,1.454782e+03
2.761566e+03,1.455475e+03
2.762531e+03,1.458485e+03
2.763495e+03,1.462411e+03
2.764459e+03,1.464122e+03
2.765423e+03,1.458731e+03
2.766387e+03,1.459062e+03
2.767352e+03,1.468287e+03
2.768316e+03,1.460735e+03
2.769280e+03,1.432122e+03
2.770244e+03,1.440189e+03
2.771208e+03,1.463777e+03
2.772173e+03,1.453195e+03
2.773137e+03,1.432838e+03
2.774101e+03,1.431538e+03
2.775065e+03,1.435195e+03
2.776030e+03,1.438525e+03
2.776994e+03,1.448537e+03
2.777958e+03,1.461449e+03
2.778922e+03,1.460186e+03
2.779887e+03,1.448541e+03
2.780851e+03,1.430214e+03
2.781815e+03,1.419997e+03
2.782779e+03,1.429076e+03
2.783744e+03,1.439070e+03
2.784708e+03,1.438042e+03
2.785672e+03,1.428234e+03
2.786636e+03,1.412291e+03
2.787601e+03,1.408053e+03
2.788565e+03,1.414015e+03
2.789529e+03,1.429689e+03
2.790493e+03,1.440984e+03
2.791458e+03,1.428920e+03
2.792422e+03,1.416856e+03
2.793386e+03,1.411900e+03
2.794350e+03,1.415817e+03
2.795314e+03,1.427922e+03
2.796279e+03,1.437327e+03
2.797243e+03,1.438535e+03
2.798207e+03,1.424864e+03
2.799171e+03,1.411124e+03
2.800135e+03,1.415804e+03
2.801100e+03,1.421139e+03
2.802064e+03,1.424680e+03
2.803028e+03,1.418494e+03
2.803992e+03,1.405502e+03
2.804957e+03,1.405455e+03
2.805921e+03,1.411240e+03
2.806885e+03,1.404383e+03
2.807849e+03,1.399424e+03
2.808814e+03,1.403608e+03
2.809778e+03,1.406906e+03
2.810742e+03,1.405222e+03
2.811706e+03,1.404205e+03
2.812671e+03,1.400006e+03
2.813635e+03,1.382219e+03
2.814599e+03,1.362093e+03
2.815563e+03,1.361738e+03
2.816528e+03,1.373259e+03
2.817492e+03,1.401286e+03
2.818456e+03,1.411007e+03
2.819420e+03,1.400105e+03
2.820385e+03,1.389530e+03
2.821349e+03,1.382323e+03
2.822313e+03,1.370444e+03
2.823277e+03,1.361354e+03
2.824241e+03,1.357834e+03
2.825206e+03,1.365167e+03
2.826170e+03,1.391759e+03
2.827134e+03,1.408870e+03
2.828098e+03,1.411625e+03
2.829063e+03,1.403909e+03
2.830027e+03,1.393744e+03
2.830991e+03,1.401923e+03
2.831955e+03,1.412657e+03
2.832919e+03,1.408924e+03
2.833884e+03,1.408352e+03
2.834848e+03,1.412112e+03
2.835812e+03,1.397672e+03
2.836776e+03,1.369335e+03
2.837741e+03,1.377357e+03
2.838705e+03,1.395579e+03
2.839669e+03,1.393364e+03
2.840633e+03,1.391472e+03
2.841598e+03,1.403204e+03
2.842562e+03,1.395172e+03
2.843526e+03,1.360365e+03
2.844490e+03,1.367600e+03
2.845455e+03,1.389967e+03
2.846419e+03,1.377887e+03
2.847383e+03,1.360214e+03
2.848347e+03,1.368781e+03
2.849312e+03,1.383043e+03
2.850276e+03,1.398635e+03
2.851240e+03,1.407566e+03
2.852204e+03,1.408599e+03
2.853168e+03,1.397335e+03
2.854133e+03,1.384848e+03
2.855097e+03,1.391279e+03
2.856061e+03,1.390860e+03
2.857025e+03,1.374271e+03
2.857990e+03,1.360253e+03
2.858954e+03,1.354968e+03
2.859918e+03,1.355015e+03
2.860882e+03,1.356977e+03
2.861846e+03,1.352511e+03
2.862811e+03,1.352860e+03
2.863775e+03,1.372023e+03
2.864739e+03,1.386101e+03
2.865703e+03,1.388636e+03
2.866668e+03,1.394793e+03
2.867632e+03,1.400385e+03
2.868596e+03,1.386829e+03
2.869560e+03,1.372043e+03
2.870525e+03,1.384478e+03
2.871489e+03,1.396172e+03
2.872453e+03,1.399453e+03
2.873417e+03,1.390889e+03
2.874382e+03,1.373801e+03
2.875346e+03,1.366251e+03
2.876310e+03,1.367568e+03
2.877274e+03,1.377318e+03
2.878239e+03,1.381915e+03
2.879203e+03,1.375923e+03
2.880167e+03,1.367755e+03
2.881131e+03,1.361256e+03
2.882095e+03,1.377166e+03
2.883060e+03,1.396341e+03
2.884024e+03,1.384855e+03
2.884988e+03,1.371092e+03
2.885952e+03,1.382146e+03
2.886917e+03,1.390316e+03
2.887881e+03,1.390092e+03
2.888845e+03,1.381642e+03
2.889809e+03,1.370097e+03
2.890773e+03,1.363844e+03
2.891738e+03,1.360076e+03
2.892702e+03,1.359413e+03
2.893666e+03,1.362376e+03
2.894630e+03,1.368769e+03
2.895595e+03,1.375041e+03
2.896559e+03,1.378890e+03
2.897523e+03,1.369360e+03
2.898487e+03,1.360151e+03
2.899452e+03,1.368476e+03
2.900416e+03,1.375890e+03
2.901380e+03,1.377418e+03
2.902344e+03,1.379958e+03
2.903309e+03,1.383614e+03
2.904273e+03,1.374930e+03
2.905237e+03,1.365515e+03
2.906201e+03,1.367269e+03
2.907166e+03,1.373660e+03
2.908130e+03,1.381584e+03
2.909094e+03,1.385991e+03
2.910058e+03,1.384345e+03
2.911022e+03,1.367355e+03
2.911987e+03,1.349386e+03
2.912951e+03,1.345354e+03
2.913915e+03,1.343207e+03
2.914879e+03,1.333360e+03
2.915844e+03,1.328173e+03
2.916808e+03,1.328397e+03
2.917772e+03,1.326526e+03
2.918736e+03,1.321144e+03
2.919700e+03,1.304266e+03
2.920665e+03,1.298302e+03
2.921629e+03,1.338703e+03
2.922593e+03,1.337664e+03
2.923557e+03,1.304558e+03
2.924522e+03,1.303349e+03
2.925486e+03,1.319401e+03
2.926450e+03,1.310930e+03
2.927414e+03,1.307810e+03
2.928379e+03,1.326821e+03
2.929343e+03,1.337973e+03
2.930307e+03,1.338026e+03
2.931271e+03,1.324536e+03
2.932236e+03,1.310588e+03
2.933200e+03,1.322703e+03
2.934164e+03,1.328303e+03
2.935128e+03,1.312039e+03
2.936093e+03,1.307040e+03
2.937057e+03,1.316063e+03
2.938021e+03,1.326552e+03
2.938985e+03,1.329033e+03
2.939949e+03,1.294738e+03
2.940914e+03,1.272313e+03
2.941878e+03,1.277670e+03
2.942842e+03,1.288751e+03
2.943806e+03,1.297415e+03
2.944771e+03,1.302412e+03
2.945735e+03,1.304835e+03
2.946699e+03,1.303627e+03
2.947663e+03,1.308694e+03
2.948627e+03,1.320752e+03
2.949592e+03,1.318728e+03
2.950556e+03,1.302036e+03
2.951520e+03,1.297268e+03
2.952484e+03,1.291115e+03
2.953449e+03,1.266613e+03
2.954413e+03,1.264407e+03
2.955377e+03,1.302268e+03
2.956341e+03,1.325830e+03
2.957306e+03,1.328563e+03
2.958270e+03,1.325941e+03
2.959234e+03,1.320073e+03
2.960198e+03,1.316954e+03
2.961163e+03,1.310057e+03
2.962127e+03,1.292708e+03
2.963091e+03,1.267770e+03
2.964055e+03,1.244077e+03
2.965020e+03,1.251550e+03
2.965984e+03,1.272715e+03
2.966948e+03,1.294208e+03
2.967912e+03,1.295718e+03
2.968876e+03,1.260802e+03
2.969841e+03,1.251648e+03
2.970805e+03,1.257609e+03
2.971769e+03,1.257003e+03
2.972733e+03,1.253631e+03
2.973698e+03,1.249437e+03
2.974662e+03,1.255358e+03
2.975626e+03,1.275001e+03
2.976590e+03,1.281334e+03
2.977554e+03,1.279191e+03
2.978519e+03,1.276051e+03
2.979483e+03,1.263784e+03
2.980447e+03,1.233081e+03
2.981411e+03,1.230550e+03
2.982376e+03,1.259745e+03
2.983340e+03,1.277989e+03
2.984304e+03,1.283599e+03
2.985268e+03,1.277005e+03
2.986233e+03,1.262542e+03
2.987197e+03,1.238870e+03
2.988161e+03,1.230074e+03
2.989125e+03,1.237410e+03
2.990090e+03,1.260063e+03
2.991054e+03,1.273173e+03
2.992018e+03,1.256162e+03
2.992982e+03,1.238826e+03
2.993947e+03,1.232688e+03
2.994911e+03,1.247472e+03
2.995875e+03,1.268934e+03
2.996839e+03,1.269472e+03
2.997803e+03,1.266542e+03
2.998768e+03,1.273551e+03
2.999732e+03,1.277838e+03
3.000696e+03,1.275752e+03
3.001660e+03,1.241021e+03
3.002625e+03,1.207893e+03
3.003589e+03,1.210975e+03
3.004553e+03,1.220445e+03
3.005517e+03,1.222566e+03
3.006481e+03,1.241646e+03
3.007446e+03,1.264782e+03
3.008410e+03,1.244266e+03
3.009374e+03,1.214597e+03
3.010338e+03,1.198445e+03
3.011303e+03,1.200996e+03
3.012267e+03,1.221112e+03
3.013231e+03,1.223736e+03
3.014195e+03,1.218352e+03
3.015160e+03,1.226279e+03
3.016124e+03,1.229673e+03
3.017088e+03,1.222194e+03
3.018052e+03,1.230394e+03
3.019017e+03,1.253248e+03
3.019981e+03,1.259834e+03
3.020945e+03,1.255472e+03
3.021909e+03,1.245110e+03
3.022874e+03,1.230654e+03
3.023838e+03,1.213870e+03
3.024802e+03,1.207511e+03
3.025766e+03,1.209203e+03
3.026730e+03,1.212375e+03
3.027695e+03,1.214753e+03
3.028659e+03,1.215968e+03
3.029623e+03,1.216884e+03
3.030587e+03,1.217160e+03
3.031552e+03,1.209806e+03
3.032516e+03,1.202115e+03
3.033480e+03,1.207147e+03
3.034444e+03,1.211218e+03
3.035408e+03,1.213000e+03
3.036373e+03,1.225497e+03
3.037337e+03,1.238947e+03
3.038301e+03,1.214239e+03
3.039265e+03,1.195776e+03
3.040230e+03,1.215630e+03
3.041194e+03,1.221006e+03
3.042158e+03,1.211079e+03
3.043122e+03,1.193034e+03
3.044087e+03,1.182744e+03
3.045051e+03,1.206913e+03
3.046015e+03,1.219321e+03
3.046979e+03,1.206469e+03
3.047944e+03,1.211034e+03
3.048908e+03,1.218490e+03
3.049872e+03,1.200800e+03
3.050836e+03,1.191921e+03
3.051801e+03,1.217900e+03
3.052765e+03,1.228328e+03
3.053729e+03,1.219177e+03
3.054693e+03,1.212166e+03
3.055657e+03,1.216554e+03
3.056622e+03,1.236903e+03
3.057586e+03,1.245475e+03
3.058550e+03,1.235089e+03
3.059514e+03,1.202281e+03
3.060479e+03,1.176648e+03
3.061443e+03,1.217465e+03
3.062407e+03,1.238552e+03
3.063371e+03,1.219244e+03
3.064335e+03,1.207216e+03
3.065300e+03,1.204968e+03
3.066264e+03,1.179806e+03
3.067228e+03,1.166379e+03
3.068192e+03,1.191029e+03
3.069157e+03,1.199896e+03
3.070121e+03,1.193631e+03
3.071085e+03,1.210113e+03
3.072049e+03,1.225941e+03
3.073014e+03,1.188986e+03
3.073978e+03,1.180047e+03
3.074942e+03,1.213464e+03
3.075906e+03,1.197780e+03
3.076871e+03,1.163958e+03
3.077835e+03,1.164314e+03
3.078799e+03,1.172391e+03
3.079763e+03,1.170422e+03
3.080728e+03,1.189920e+03
3.081692e+03,1.217612e+03
3.082656e+03,1.193418e+03
3.083620e+03,1.173316e+03
3.084584e+03,1.188893e+03
3.085549e+03,1.203753e+03
3.086513e+03,1.208609e+03
3.087477e+03,1.175224e+03
3.088441e+03,1.144162e+03
3.089406e+03,1.166117e+03
3.090370e+03,1.186411e+03
3.091334e+03,1.194642e+03
3.092298e+03,1.200229e+03
3.093262e+03,1.203521e+03
3.094227e+03,1.200226e+03
3.095191e+03,1.193894e+03
3.096155e+03,1.185244e+03
3.097119e+03,1.182662e+03
3.098084e+03,1.180389e+03
3.099048e+03,1.160086e+03
3.100012e+03,1.152387e+03
3.100976e+03,1.190017e+03
3.101941e+03,1.192680e+03
3.102905e+03,1.163167e+03
3.103869e+03,1.168423e+03
3.104833e+03,1.173052e+03
3.105798e+03,1.153200e+03
3.106762e+03,1.171595e+03
3.107726e+03,1.234929e+03
3.108690e+03,1.245945e+03
3.109655e+03,1.227555e+03
3.110619e+03,1.197791e+03
3.111583e+03,1.185559e+03
3.112547e+03,1.191977e+03
3.113511e+03,1.193078e+03
3.114476e+03,1.190475e+03
3.115440e+03,1.191210e+03
3.116404e+03,1.195814e+03
3.117368e+03,1.208886e+03
3.118333e+03,1.207097e+03
3.119297e+03,1.199245e+03
3.120261e+03,1.202199e+03
3.121225e+03,1.201053e+03
3.122189e+03,1.186424e+03
3.123154e+03,1.182574e+03
3.124118e+03,1.187171e+03
3.125082e+03,1.192879e+03
3.126046e+03,1.181264e+03
3.127011e+03,1.143465e+03
3.127975e+03,1.141570e+03
3.128939e+03,1.168188e+03
3.129903e+03,1.166271e+03
3.130868e+03,1.161091e+03
3.131832e+03,1.175999e+03
3.132796e+03,1.192714e+03
3.133760e+03,1.204658e+03
3.134725e+03,1.194757e+03
3.135689e+03,1.177235e+03
3.136653e+03,1.163773e+03
3.137617e+03,1.168424e+03
3.138582e+03,1.196074e+03
3.139546e+03,1.190303e+03
3.140510e+03,1.166859e+03
3.141474e+03,1.140754e+03
3.142438e+03,1.145379e+03
3.143403e+03,1.174815e+03
3.144367e+03,1.151054e+03
3.145331e+03,1.111522e+03
3.146295e+03,1.118673e+03
3.147260e+03,1.150205e+03
3.148224e+03,1.198211e+03
3.149188e+03,1.200426e+03
3.150152e+03,1.186003e+03
3.151116e+03,1.196082e+03
3.152081e+03,1.199699e+03
3.153045e+03,1.180358e+03
3.154009e+03,1.171043e+03
3.154973e+03,1.169232e+03
3.155938e+03,1.157502e+03
3.156902e+03,1.161281e+03
3.157866e+03,1.181953e+03
3.158830e+03,1.184057e+03
3.159795e+03,1.171068e+03
3.160759e+03,1.133505e+03
3.161723e+03,1.123548e+03
3.162687e+03,1.201972e+03
3.163652e+03,1.217925e+03
3.164616e+03,1.197332e+03
3.165580e+03,1.192541e+03
3.166544e+03,1.194600e+03
3.167509e+03,1.198800e+03
3.168473e+03,1.195733e+03
3.169437e+03,1.187244e+03
3.170401e+03,1.178763e+03
3.171365e+03,1.173110e+03
3.172330e+03,1.172588e+03
3.173294e+03,1.162350e+03
3.174258e+03,1.153083e+03
3.175222e+03,1.171702e+03
3.176187e+03,1.172122e+03
3.177151e+03,1.121505e+03
3.178115e+03,1.117703e+03
3.179079e+03,1.153077e+03
3.180043e+03,1.185462e+03
3.181008e+03,1.196843e+03
3.181972e+03,1.186484e+03
3.182936e+03,1.192304e+03
3.183900e+03,1.205351e+03
3.184865e+03,1.186663e+03
3.185829e+03,1.160224e+03
3.186793e+03,1.132734e+03
3.187757e+03,1.138596e+03
3.188722e+03,1.159868e+03
3.189686e+03,1.152069e+03
3.190650e+03,1.155216e+03
3.191614e+03,1.181718e+03
3.192579e+03,1.164358e+03
3.193543e+03,1.123426e+03
3.194507e+03,1.143350e+03
3.195471e+03,1.165226e+03
3.196436e+03,1.163794e+03
3.197400e+03,1.152843e+03
3.198364e+03,1.145232e+03
3.199328e+03,1.160771e+03
3.200292e+03,1.176570e+03
3.201257e+03,0.000000e+00
3.202221e+03,0.000000e+00
3.203185e+03,0.000000e+00
3.204149e+03,0.000000e+00
3.205114e+03,0.000000e+00
3.206078e+03,0.000000e+00
3.207042e+03,0.000000e+00
3.208006e+03,0.000000e+00
3.208970e+03,0.000000e+00
3.209935e+03,0.000000e+00
3.210899e+03,0.000000e+00
3.211863e+03,0.000000e+00
3.212827e+03,0.000000e+00
3.213792e+03,0.000000e+00
3.214756e+03,0.000000e+00
3.215720e+03,0.000000e+00
3.216684e+03,0.000000e+00
3.217649e+03,0.000000e+00
3.218613e+03,0.000000e+00
3.219577e+03,0.000000e+00
3.220541e+03,0.000000e+00
3.221506e+03,0.000000e+00
3.222470e+03,0.000000e+00
3.223434e+03,0.000000e+00
3.224398e+03,0.000000e+00
3.225363e+03,0.000000e+00
3.226327e+03,0.000000e+00
3.227291e+03,0.000000e+00
3.228255e+03,0.000000e+00
3.229219e+03,0.000000e+00
3.230184e+03,0.000000e+00
3.231148e+03,0.000000e+00
3.232112e+03,0.000000e+00
3.233076e+03,0.000000e+00
3.234041e+03,0.000000e+00
3.235005e+03,0.000000e+00
3.235969e+03,0.000000e+00
3.236933e+03,0.000000e+00
3.237897e+03,0.000000e+00
3.238862e+03,0.000000e+00
3.239826e+03,0.000000e+00
3.240790e+03,0.000000e+00
3.241754e+03,0.000000e+00
3.242719e+03,0.000000e+00
3.243683e+03,0.000000e+00
3.244647e+03,0.000000e+00
3.245611e+03,0.000000e+00
3.246576e+03,0.000000e+00
3.247540e+03,0.000000e+00
3.248504e+03,0.000000e+00
3.249468e+03,0.000000e+00
3.250433e+03,0.000000e+00
3.251397e+03,0.000000e+00
3.252361e+03,0.000000e+00
3.253325e+03,0.000000e+00
3.254290e+03,0.000000e+00
3.255254e+03,0.000000e+00
3.256218e+03,0.000000e+00
3.257182e+03,0.000000e+00
3.258146e+03,0.000000e+00
3.259111e+03,0.000000e+00
3.260075e+03,0.000000e+00
3.261039e+03,0.000000e+00
3.262003e+03,0.000000e+00
3.262968e+03,0.000000e+00
3.263932e+03,0.000000e+00
3.264896e+03,0.000000e+00
3.265860e+03,0.000000e+00
3.266824e+03,0.000000e+00
3.267789e+03,0.000000e+00
3.268753e+03,0.000000e+00
3.269717e+03,0.000000e+00
3.270681e+03,0.000000e+00
3.271646e+03,0.000000e+00
3.272610e+03,0.000000e+00
3.273574e+03,0.000000e+00
3.274538e+03,0.000000e+00
3.275503e+03,0.000000e+00
3.276467e+03,0.000000e+00
3.277431e+03,0.000000e+00
3.278395e+03,0.000000e+00
3.279360e+03,0.000000e+00
3.280324e+03,0.000000e+00
3.281288e+03,0.000000e+00
3.282252e+03,0.000000e+00
3.283217e+03,0.000000e+00
3.284181e+03,0.000000e+00
3.285145e+03,0.000000e+00
3.286109e+03,0.000000e+00
3.287073e+03,0.000000e+00
3.288038e+03,0.000000e+00
3.289002e+03,0.000000e+00
3.289966e+03,0.000000e+00
3.290930e+03,0.000000e+00
3.291895e+03,0.000000e+00
3.292859e+03,0.000000e+00
3.293823e+03,0.000000e+00
3.294787e+03,0.000000e+00
3.295751e+03,0.000000e+00
3.296716e+03,0.000000e+00
3.297680e+03,0.000000e+00
3.298644e+03,0.000000e+00
3.299608e+03,0.000000e+00
3.300573e+03,0.000000e+00
3.301537e+03,0.000000e+00
3.302501e+03,0.000000e+00
3.303465e+03,0.000000e+00
3.304430e+03,0.000000e+00
3.305394e+03,0.000000e+00
3.306358e+03,0.000000e+00
3.307322e+03,0.000000e+00
3.308287e+03,0.000000e+00
3.309251e+03,0.000000e+00
3.310215e+03,0.000000e+00
3.311179e+03,0.000000e+00
3.312144e+03,0.000000e+00
3.313108e+03,0.000000e+00
3.314072e+03,0.000000e+00
3.315036e+03,0.000000e+00
3.316000e+03,0.000000e+00
3.316965e+03,0.000000e+00
3.317929e+03,0.000000e+00
3.318893e+03,0.000000e+00
3.319857e+03,0.000000e+00
3.320822e+03,0.000000e+00
3.321786e+03,0.000000e+00
3.322750e+03,0.000000e+00
3.323714e+03,0.000000e+00
3.324678e+03,0.000000e+00
3.325643e+03,0.000000e+00
3.326607e+03,0.000000e+00
3.327571e+03,0.000000e+00
3.328535e+03,0.000000e+00
3.329500e+03,0.000000e+00
3.330464e+03,0.000000e+00
3.331428e+03,0.000000e+00
3.332392e+03,0.000000e+00
3.333357e+03,0.000000e+00
3.334321e+03,0.000000e+00
3.335285e+03,0.000000e+00
3.336249e+03,0.000000e+00
3.337214e+03,0.000000e+00
3.338178e+03,0.000000e+00
3.339142e+03,0.000000e+00
3.340106e+03,0.000000e+00
3.341071e+03,0.000000e+00
3.342035e+03,0.000000e+00
3.342999e+03,0.000000e+00
3.343963e+03,0.000000e+00
3.344927e+03,0.000000e+00
3.345892e+03,0.000000e+00
3.346856e+03,0.000000e+00
3.347820e+03,0.000000e+00
3.348784e+03,0.000000e+00
3.349749e+03,0.000000e+00
3.350713e+03,0.000000e+00
3.351677e+03,0.000000e+00
3.352641e+03,0.000000e+00
3.353605e+03,0.000000e+00
3.354570e+03,0.000000e+00
3.355534e+03,0.000000e+00
3.356498e+03,0.000000e+00
3.357462e+03,0.000000e+00
3.358427e+03,0.000000e+00
3.359391e+03,0.000000e+00
3.360355e+03,0.000000e+00
3.361319e+03,0.000000e+00
3.362284e+03,0.000000e+00
3.363248e+03,0.000000e+00
3.364212e+03,0.000000e+00
3.365176e+03,0.000000e+00
3.366141e+03,0.000000e+00
3.367105e+03,0.000000e+00
3.368069e+03,0.000000e+00
3.369033e+03,0.000000e+00
3.369998e+03,0.000000e+00
3.370962e+03,0.000000e+00
3.371926e+03,0.000000e+00
3.372890e+03,0.000000e+00
3.373854e+03,0.000000e+00
3.374819e+03,0.000000e+00
3.375783e+03,0.000000e+00
3.376747e+03,0.000000e+00
3.377711e+03,0.000000e+00
3.378676e+03,0.000000e+00
3.379640e+03,0.000000e+00
3.380604e+03,0.000000e+00
3.381568e+03,0.000000e+00
3.382532e+03,0.000000e+00
3.383497e+03,0.000000e+00
3.384461e+03,0.000000e+00
3.385425e+03,0.000000e+00
3.386389e+03,0.000000e+00
3.387354e+03,0.000000e+00
3.388318e+03,0.000000e+00
3.389282e+03,0.000000e+00
3.390246e+03,0.000000e+00
3.391211e+03,0.000000e+00
3.392175e+03,0.000000e+00
3.393139e+03,0.000000e+00
3.394103e+03,0.000000e+00
3.395068e+03,0.000000e+00
3.396032e+03,0.000000e+00
3.396996e+03,0.000000e+00
3.397960e+03,0.000000e+00
3.398925e+03,0.000000e+00
3.399889e+03,0.000000e+00
3.400853e+03,0.000000e+00
3.401817e+03,0.000000e+00
3.402781e+03,0.000000e+00
3.403746e+03,0.000000e+00
3.404710e+03,0.000000e+00
3.405674e+03,0.000000e+00
3.406638e+03,0.000000e+00
3.407603e+03,0.000000e+00
3.408567e+03,0.000000e+00
3.409531e+03,0.000000e+00
3.410495e+03,0.000000e+00
3.411459e+03,0.000000e+00
3.412424e+03,0.000000e+00
3.413388e+03,0.000000e+00
3.414352e+03,0.000000e+00
3.415316e+03,0.000000e+00
3.416281e+03,0.000000e+00
3.417245e+03,0.000000e+00
3.418209e+03,0.000000e+00
3.419173e+03,0.000000e+00
3.420138e+03,0.000000e+00
3.421102e+03,0.000000e+00
3.422066e+03,0.000000e+00
3.423030e+03,0.000000e+00
3.423995e+03,0.000000e+00
3.424959e+03,0.000000e+00
3.425923e+03,0.000000e+00
3.426887e+03,0.000000e+00
3.427852e+03,0.000000e+00
3.428816e+03,0.000000e+00
3.429780e+03,0.000000e+00
3.430744e+03,0.000000e+00
3.431708e+03,0.000000e+00
3.432673e+03,0.000000e+00
3.433637e+03,0.000000e+00
3.434601e+03,0.000000e+00
3.435565e+03,0.000000e+00
3.436530e+03,0.000000e+00
3.437494e+03,0.000000e+00
3.438458e+03,0.000000e+00
3.439422e+03,0.000000e+00
3.440386e+03,0.000000e+00
3.441351e+03,0.000000e+00
3.442315e+03,0.000000e+00
3.443279e+03,0.000000e+00
3.444243e+03,0.000000e+00
3.445208e+03,0.000000e+00
3.446172e+03,0.000000e+00
3.447136e+03,0.000000e+00
3.448100e+03,0.000000e+00
3.449065e+03,0.000000e+00
3.450029e+03,0.000000e+00
3.450993e+03,0.000000e+00
3.451957e+03,0.000000e+00
3.452922e+03,0.000000e+00
3.453886e+03,0.000000e+00
3.454850e+03,0.000000e+00
3.455814e+03,0.000000e+00
3.456779e+03,0.000000e+00
3.457743e+03,0.000000e+00
3.458707e+03,0.000000e+00
3.459671e+03,0.000000e+00
3.460635e+03,0.000000e+00
3.461600e+03,0.000000e+00
3.462564e+03,0.000000e+00
3.463528e+03,0.000000e+00
3.464492e+03,0.000000e+00
3.465457e+03,0.000000e+00
3.466421e+03,0.000000e+00
3.467385e+03,0.000000e+00
3.468349e+03,0.000000e+00
3.469313e+03,0.000000e+00
3.470278e+03,0.000000e+00
3.471242e+03,0.000000e+00
3.472206e+03,0.000000e+00
3.473170e+03,0.000000e+00
3.474135e+03,0.000000e+00
3.475099e+03,0.000000e+00
3.476063e+03,0.000000e+00
3.477027e+03,0.000000e+00
3.477992e+03,0.000000e+00
3.478956e+03,0.000000e+00
3.479920e+03,0.000000e+00
3.480884e+03,0.000000e+00
3.481849e+03,0.000000e+00
3.482813e+03,0.000000e+00
3.483777e+03,0.000000e+00
3.484741e+03,0.000000e+00
3.485706e+03,0.000000e+00
3.486670e+03,0.000000e+00
3.487634e+03,0.000000e+00
3.488598e+03,0.000000e+00
3.489563e+03,0.000000e+00
3.490527e+03,0.000000e+00
3.491491e+03,0.000000e+00
3.492455e+03,0.000000e+00
3.493419e+03,0.000000e+00
3.494384e+03,0.000000e+00
3.495348e+03,0.000000e+00
3.496312e+03,0.000000e+00
3.497276e+03,0.000000e+00
3.498240e+03,0.000000e+00
3.499205e+03,0.000000e+00
3.500169e+03,0.000000e+00
