9.931763e+01,0.000000e+00
1.002819e+02,0.000000e+00
1.012461e+02,0.000000e+00
1.022103e+02,0.000000e+00
1.031746e+02,0.000000e+00
1.041388e+02,0.000000e+00
1.051030e+02,0.000000e+00
1.060673e+02,0.000000e+00
1.070315e+02,0.000000e+00
1.079957e+02,0.000000e+00
1.089600e+02,0.000000e+00
1.099242e+02,0.000000e+00
1.108884e+02,0.000000e+00
1.118527e+02,0.000000e+00
1.128169e+02,0.000000e+00
1.137811e+02,0.000000e+00
1.147454e+02,0.000000e+00
1.157096e+02,0.000000e+00
1.166738e+02,0.000000e+00
1.176381e+02,0.000000e+00
1.186023e+02,0.000000e+00
1.195665e+02,0.000000e+00
1.205308e+02,0.000000e+00
1.214950e+02,0.000000e+00
1.224592e+02,0.000000e+00
1.234235e+02,0.000000e+00
1.243877e+02,0.000000e+00
1.253519e+02,0.000000e+00
1.263162e+02,0.000000e+00
1.272804e+02,0.000000e+00
1.282446e+02,0.000000e+00
1.292089e+02,0.000000e+00
1.301731e+02,0.000000e+00
1.311373e+02,0.000000e+00
1.321016e+02,0.000000e+00
1.330658e+02,0.000000e+00
1.340300e+02,0.000000e+00
1.349943e+02,0.000000e+00
1.359585e+02,0.000000e+00
1.369227e+02,0.000000e+00
1.378870e+02,0.000000e+00
1.388512e+02,0.000000e+00
1.398154e+02,0.000000e+00
1.407797e+02,0.000000e+00
1.417439e+02,0.000000e+00
1.427081e+02,0.000000e+00
1.436724e+02,0.000000e+00
1.446366e+02,0.000000e+00
1.456008e+02,0.000000e+00
1.465651e+02,0.000000e+00
1.475293e+02,0.000000e+00
1.484935e+02,0.000000e+00
1.494578e+02,0.000000e+00
1.504220e+02,0.000000e+00
1.513862e+02,0.000000e+00
1.523505e+02,0.000000e+00
1.533147e+02,0.000000e+00
1.542789e+02,0.000000e+00
1.552432e+02,0.000000e+00
1.562074e+02,0.000000e+00
1.571716e+02,0.000000e+00
1.581359e+02,0.000000e+00
1.591001e+02,0.000000e+00
1.600643e+02,0.000000e+00
1.610286e+02,0.000000e+00
1.619928e+02,0.000000e+00
1.629570e+02,0.000000e+00
1.639213e+02,0.000000e+00
1.648855e+02,0.000000e+00
1.658497e+02,0.000000e+00
1.668140e+02,0.000000e+00
1.677782e+02,0.000000e+00
1.687424e+02,0.000000e+00
1.697067e+02,0.000000e+00
1.706709e+02,0.000000e+00
1.716351e+02,0.000000e+00
1.725994e+02,0.000000e+00
1.735636e+02,0.000000e+00
1.745278e+02,0.000000e+00
1.754921e+02,0.000000e+00
1.764563e+02,0.000000e+00
1.774205e+02,0.000000e+00
1.783848e+02,0.000000e+00
1.793490e+02,0.000000e+00
1.803132e+02,0.000000e+00
1.812775e+02,0.000000e+00
1.822417e+02,0.000000e+00
1.832059e+02,0.000000e+00
1.841702e+02,0.000000e+00
1.851344e+02,0.000000e+00
1.860986e+02,0.000000e+00
1.870629e+02,0.000000e+00
1.880271e+02,0.000000e+00
1.889913e+02,0.000000e+00
1.899556e+02,0.000000e+00
1.909198e+02,0.000000e+00
1.918840e+02,0.000000e+00
1.928483e+02,0.000000e+00
1.938125e+02,0.000000e+00
1.947767e+02,0.000000e+00
1.957410e+02,0.000000e+00
1.967052e+02,0.000000e+00
1.976694e+02,0.000000e+00
1.986337e+02,0.000000e+00
1.995979e+02,3.996031e+03
2.005621e+02,4.012671e+03
2.015264e+02,4.022298e+03
2.024906e+02,4.014276e+03
2.034548e+02,4.007777e+03
2.044191e+02,4.007368e+03
2.053833e+02,4.011721e+03
2.063475e+02,4.016493e+03
2.073118e+02,4.017634e+03
2.082760e+02,4.014259e+03
2.092402e+02,4.009843e+03
2.102045e+02,4.004699e+03
2.111687e+02,4.001289e+03
2.121329e+02,4.001103e+03
2.130972e+02,4.004298e+03
2.140614e+02,4.009115e+03
2.150256e+02,4.012662e+03
2.159899e+02,4.013840e+03
2.169541e+02,4.016402e+03
2.179183e+02,4.023766e+03
2.188826e+02,4.034270e+03
2.198468e+02,4.043419e+03
2.208110e+02,4.047310e+03
2.217753e+02,4.045554e+03
2.227395e+02,4.042013e+03
2.237037e+02,4.037855e+03
2.246680e+02,4.034566e+03
2.256322e+02,4.032898e+03
2.265964e+02,4.035657e+03
2.275607e+02,4.039688e+03
2.285249e+02,4.040484e+03
2.294892e+02,4.037358e+03
2.304534e+02,4.034910e+03
2.314176e+02,4.033873e+03
2.323819e+02,4.033473e+03
2.333461e+02,4.034774e+03
2.343103e+02,4.040640e+03
2.352746e+02,4.049188e+03
2.362388e+02,4.056129e+03
2.372030e+02,4.059639e+03
2.381673e+02,4.058954e+03
2.391315e+02,4.055424e+03
2.400957e+02,4.050490e+03
2.410600e+02,4.045174e+03
2.420242e+02,4.039167e+03
2.429884e+02,4.034163e+03
2.439527e+02,4.033387e+03
2.449169e+02,4.038199e+03
2.458811e+02,4.048687e+03
2.468454e+02,4.057611e+03
2.478096e+02,4.066281e+03
2.487738e+02,4.072864e+03
2.497381e+02,4.074779e+03
2.507023e+02,4.071819e+03
2.516665e+02,4.067421e+03
2.526308e+02,4.066875e+03
2.535950e+02,4.075576e+03
2.545592e+02,4.077898e+03
2.555235e+02,4.068969e+03
2.564877e+02,4.055757e+03
2.574519e+02,4.047078e+03
2.584161e+02,4.048933e+03
2.593804e+02,4.060856e+03
2.603446e+02,4.071601e+03
2.613088e+02,4.078327e+03
2.622731e+02,4.083839e+03
2.632373e+02,4.089282e+03
2.642015e+02,4.093520e+03
2.651658e+02,4.094752e+03
2.661300e+02,4.090831e+03
2.670942e+02,4.081491e+03
2.680585e+02,4.076208e+03
2.690227e+02,4.080106e+03
2.699869e+02,4.086791e+03
2.709512e+02,4.091782e+03
2.719154e+02,4.095142e+03
2.728796e+02,4.097463e+03
2.738439e+02,4.098742e+03
2.748081e+02,4.099350e+03
2.757723e+02,4.102362e+03
2.767366e+02,4.106992e+03
2.777008e+02,4.111232e+03
2.786650e+02,4.114795e+03
2.796293e+02,4.119339e+03
2.805935e+02,4.124659e+03
2.815577e+02,4.128795e+03
2.825220e+02,4.130365e+03
2.834862e+02,4.130846e+03
2.844504e+02,4.134352e+03
2.854147e+02,4.148312e+03
2.863789e+02,4.156318e+03
2.873431e+02,4.150428e+03
2.883074e+02,4.136284e+03
2.892716e+02,4.124356e+03
2.902358e+02,4.119765e+03
2.912001e+02,4.122004e+03
2.921643e+02,4.124399e+03
2.931285e+02,4.128187e+03
2.940928e+02,4.132729e+03
2.950570e+02,4.137756e+03
2.960212e+02,4.142275e+03
2.969855e+02,4.145054e+03
2.979497e+02,4.145297e+03
2.989139e+02,4.142813e+03
2.998782e+02,4.140637e+03
3.008424e+02,4.141713e+03
3.018066e+02,4.144120e+03
3.027709e+02,4.144876e+03
3.037351e+02,4.141947e+03
3.046993e+02,4.136795e+03
3.056636e+02,4.133073e+03
3.066278e+02,4.131940e+03
3.075920e+02,4.131641e+03
3.085563e+02,4.132146e+03
3.095205e+02,4.133779e+03
3.104847e+02,4.135235e+03
3.114490e+02,4.133672e+03
3.124132e+02,4.130104e+03
3.133774e+02,4.127916e+03
3.143417e+02,4.127669e+03
3.153059e+02,4.127122e+03
3.162701e+02,4.124651e+03
3.172344e+02,4.120083e+03
3.181986e+02,4.117863e+03
3.191628e+02,4.121558e+03
3.201271e+02,4.128805e+03
3.210913e+02,4.134299e+03
3.220555e+02,4.134804e+03
3.230198e+02,4.131303e+03
3.239840e+02,4.132546e+03
3.249482e+02,4.145939e+03
3.259125e+02,4.155995e+03
3.268767e+02,4.155522e+03
3.278409e+02,4.147157e+03
3.288052e+02,4.138651e+03
3.297694e+02,4.137545e+03
3.307336e+02,4.145867e+03
3.316979e+02,4.149964e+03
3.326621e+02,4.146874e+03
3.336263e+02,4.140488e+03
3.345906e+02,4.131620e+03
3.355548e+02,4.121437e+03
3.365190e+02,4.114361e+03
3.374833e+02,4.115780e+03
3.384475e+02,4.126278e+03
3.394117e+02,4.136796e+03
3.403760e+02,4.142638e+03
3.413402e+02,4.145393e+03
3.423044e+02,4.148503e+03
3.432687e+02,4.152080e+03
3.442329e+02,4.156054e+03
3.451971e+02,4.160511e+03
3.461614e+02,4.164363e+03
3.471256e+02,4.164655e+03
3.480898e+02,4.159711e+03
3.490541e+02,4.148031e+03
3.500183e+02,4.141244e+03
3.509825e+02,4.144162e+03
3.519468e+02,4.151196e+03
3.529110e+02,4.157247e+03
3.538752e+02,4.160151e+03
3.548395e+02,4.160646e+03
3.558037e+02,4.160951e+03
3.567680e+02,4.159587e+03
3.577322e+02,4.161034e+03
3.586964e+02,4.171722e+03
3.596607e+02,4.185094e+03
3.606249e+02,4.191988e+03
3.615891e+02,4.183363e+03
3.625534e+02,4.165178e+03
3.635176e+02,4.155083e+03
3.644818e+02,4.157136e+03
3.654461e+02,4.162610e+03
3.664103e+02,4.169838e+03
3.673745e+02,4.180117e+03
3.683388e+02,4.188950e+03
3.693030e+02,4.190525e+03
3.702672e+02,4.187951e+03
3.712315e+02,4.186788e+03
3.721957e+02,4.187817e+03
3.731599e+02,4.189591e+03
3.741242e+02,4.191463e+03
3.750884e+02,4.199799e+03
3.760526e+02,4.204545e+03
3.770169e+02,4.202145e+03
3.779811e+02,4.195553e+03
3.789453e+02,4.187705e+03
3.799096e+02,4.179385e+03
3.808738e+02,4.170890e+03
3.818380e+02,4.164927e+03
3.828023e+02,4.166595e+03
3.837665e+02,4.167838e+03
3.847307e+02,4.163150e+03
3.856950e+02,4.155326e+03
3.866592e+02,4.150899e+03
3.876234e+02,4.156266e+03
3.885877e+02,4.167689e+03
3.895519e+02,4.173850e+03
3.905161e+02,4.171776e+03
3.914804e+02,4.167040e+03
3.924446e+02,4.167031e+03
3.934088e+02,4.174497e+03
3.943731e+02,4.179243e+03
3.953373e+02,4.175166e+03
3.963015e+02,4.167211e+03
3.972658e+02,4.162991e+03
3.982300e+02,4.165999e+03
3.991942e+02,4.174635e+03
4.001585e+02,4.180923e+03
4.011227e+02,4.177276e+03
4.020869e+02,4.176889e+03
4.030512e+02,4.182526e+03
4.040154e+02,4.190606e+03
4.049796e+02,4.196978e+03
4.059439e+02,4.197922e+03
4.069081e+02,4.195315e+03
4.078723e+02,4.197256e+03
4.088366e+02,4.206018e+03
4.098008e+02,4.212129e+03
4.107650e+02,4.209108e+03
4.117293e+02,4.198350e+03
4.126935e+02,4.192096e+03
4.136577e+02,4.198221e+03
4.146220e+02,4.210196e+03
4.155862e+02,4.219336e+03
4.165504e+02,4.224066e+03
4.175147e+02,4.224922e+03
4.184789e+02,4.222434e+03
4.194431e+02,4.211940e+03
4.204074e+02,4.203198e+03
4.213716e+02,4.195134e+03
4.223358e+02,4.189176e+03
4.233001e+02,4.188143e+03
4.242643e+02,4.194850e+03
4.252285e+02,4.204672e+03
4.261928e+02,4.204696e+03
4.271570e+02,4.189799e+03
4.281212e+02,4.177596e+03
4.290855e+02,4.177291e+03
4.300497e+02,4.184252e+03
4.310139e+02,4.189257e+03
4.319782e+02,4.187786e+03
4.329424e+02,4.184878e+03
4.339066e+02,4.187121e+03
4.348709e+02,4.194569e+03
4.358351e+02,4.200343e+03
4.367993e+02,4.197276e+03
4.377636e+02,4.179566e+03
4.387278e+02,4.168946e+03
4.396920e+02,4.171377e+03
4.406563e+02,4.177684e+03
4.416205e+02,4.181505e+03
4.425847e+02,4.180957e+03
4.435490e+02,4.177569e+03
4.445132e+02,4.172882e+03
4.454774e+02,4.166733e+03
4.464417e+02,4.163370e+03
4.474059e+02,4.165412e+03
4.483701e+02,4.168853e+03
4.493344e+02,4.169423e+03
4.502986e+02,4.164326e+03
4.512628e+02,4.159942e+03
4.522271e+02,4.162170e+03
4.531913e+02,4.169563e+03
4.541555e+02,4.175324e+03
4.551198e+02,4.174673e+03
4.560840e+02,4.167780e+03
4.570482e+02,4.163375e+03
4.580125e+02,4.167409e+03
4.589767e+02,4.171790e+03
4.599409e+02,4.171610e+03
4.609052e+02,4.166408e+03
4.618694e+02,4.159665e+03
4.628336e+02,4.154976e+03
4.637979e+02,4.152336e+03
4.647621e+02,4.149158e+03
4.657263e+02,4.147434e+03
4.666906e+02,4.145209e+03
4.676548e+02,4.136958e+03
4.686190e+02,4.118342e+03
4.695833e+02,4.105878e+03
4.705475e+02,4.109217e+03
4.715117e+02,4.120153e+03
4.724760e+02,4.127636e+03
4.734402e+02,4.128273e+03
4.744044e+02,4.124200e+03
4.753687e+02,4.119545e+03
4.763329e+02,4.112561e+03
4.772971e+02,4.108041e+03
4.782614e+02,4.108879e+03
4.792256e+02,4.112024e+03
4.801898e+02,4.113137e+03
4.811541e+02,4.107974e+03
4.821183e+02,4.100826e+03
4.830826e+02,4.098551e+03
4.840468e+02,4.101106e+03
4.850110e+02,4.103222e+03
4.859753e+02,4.102067e+03
4.869395e+02,4.097118e+03
4.879037e+02,4.093531e+03
4.888680e+02,4.092972e+03
4.898322e+02,4.093197e+03
4.907964e+02,4.093466e+03
4.917607e+02,4.093832e+03
4.927249e+02,4.094285e+03
4.936891e+02,4.094427e+03
4.946534e+02,4.094066e+03
4.956176e+02,4.094307e+03
4.965818e+02,4.095148e+03
4.975461e+02,4.097152e+03
4.985103e+02,4.100936e+03
4.994745e+02,4.106771e+03
5.004388e+02,4.109235e+03
5.014030e+02,4.104222e+03
5.023672e+02,4.096031e+03
5.033315e+02,4.092177e+03
5.042957e+02,4.095212e+03
5.052599e+02,4.100261e+03
5.062242e+02,4.097288e+03
5.071884e+02,4.078015e+03
5.081526e+02,4.065045e+03
5.091169e+02,4.064325e+03
5.100811e+02,4.070688e+03
5.110453e+02,4.077756e+03
5.120095e+02,4.084884e+03
5.129738e+02,4.090795e+03
5.139380e+02,4.091230e+03
5.149022e+02,4.086490e+03
5.158665e+02,4.086792e+03
5.168307e+02,4.099089e+03
5.177949e+02,4.120682e+03
5.187592e+02,4.126611e+03
5.197234e+02,4.109003e+03
5.206876e+02,4.091608e+03
5.216519e+02,4.083656e+03
5.226161e+02,4.084483e+03
5.235803e+02,4.088800e+03
5.245446e+02,4.093929e+03
5.255088e+02,4.099427e+03
5.264730e+02,4.102283e+03
5.274373e+02,4.101595e+03
5.284015e+02,4.099547e+03
5.293657e+02,4.097352e+03
5.303300e+02,4.095461e+03
5.312942e+02,4.091602e+03
5.322584e+02,4.085753e+03
5.332227e+02,4.080390e+03
5.341869e+02,4.076043e+03
5.351511e+02,4.072239e+03
5.361154e+02,4.069912e+03
5.370796e+02,4.072470e+03
5.380438e+02,4.082804e+03
5.390081e+02,4.088635e+03
5.399723e+02,4.085760e+03
5.409365e+02,4.079893e+03
5.419008e+02,4.074947e+03
5.428650e+02,4.069444e+03
5.438292e+02,4.065469e+03
5.447935e+02,4.066295e+03
5.457577e+02,4.069652e+03
5.467219e+02,4.070630e+03
5.476862e+02,4.067130e+03
5.486504e+02,4.060550e+03
5.496146e+02,4.055344e+03
5.505789e+02,4.051892e+03
5.515431e+02,4.048898e+03
5.525073e+02,4.048462e+03
5.534716e+02,4.050401e+03
5.544358e+02,4.052273e+03
5.554000e+02,4.050238e+03
5.563643e+02,4.047341e+03
5.573285e+02,4.047235e+03
5.582927e+02,4.049088e+03
5.592570e+02,4.050173e+03
5.602212e+02,4.049403e+03
5.611854e+02,4.046455e+03
5.621497e+02,4.042961e+03
5.631139e+02,4.035210e+03
5.640781e+02,4.028425e+03
5.650424e+02,4.026856e+03
5.660066e+02,4.029493e+03
5.669708e+02,4.031466e+03
5.679351e+02,4.030703e+03
5.688993e+02,4.028177e+03
5.698635e+02,4.024040e+03
5.708278e+02,4.018406e+03
5.717920e+02,4.015707e+03
5.727562e+02,4.019755e+03
5.737205e+02,4.032961e+03
5.746847e+02,4.041168e+03
5.756489e+02,4.040934e+03
5.766132e+02,4.038010e+03
5.775774e+02,4.035819e+03
5.785416e+02,4.034968e+03
5.795059e+02,4.033857e+03
5.804701e+02,4.030036e+03
5.814343e+02,4.024804e+03
5.823986e+02,4.023365e+03
5.833628e+02,4.027887e+03
5.843270e+02,4.033644e+03
5.852913e+02,4.033753e+03
5.862555e+02,4.021887e+03
5.872197e+02,4.013855e+03
5.881840e+02,4.010056e+03
5.891482e+02,4.008839e+03
5.901124e+02,4.009771e+03
5.910767e+02,4.013148e+03
5.920409e+02,4.016136e+03
5.930051e+02,4.014131e+03
5.939694e+02,4.007961e+03
5.949336e+02,4.004847e+03
5.958978e+02,4.008249e+03
5.968621e+02,4.014390e+03
5.978263e+02,4.014822e+03
5.987905e+02,4.003925e+03
5.997548e+02,3.994973e+03
6.007190e+02,3.986943e+03
6.016832e+02,3.982884e+03
6.026475e+02,3.986392e+03
6.036117e+02,4.001127e+03
6.045759e+02,4.017811e+03
6.055402e+02,4.025781e+03
6.065044e+02,4.025043e+03
6.074686e+02,4.019636e+03
6.084329e+02,4.010667e+03
6.093971e+02,4.000082e+03
6.103613e+02,3.995565e+03
6.113256e+02,4.006242e+03
6.122899e+02,4.013753e+03
6.132541e+02,4.012903e+03
6.142183e+02,4.006854e+03
6.151826e+02,4.001492e+03
6.161468e+02,4.002253e+03
6.171110e+02,4.004899e+03
6.180753e+02,4.001548e+03
6.190395e+02,3.992688e+03
6.200037e+02,3.986596e+03
6.209680e+02,3.988810e+03
6.219322e+02,3.999337e+03
6.228964e+02,4.006994e+03
6.238607e+02,4.011628e+03
6.248249e+02,4.012519e+03
6.257891e+02,4.005438e+03
6.267534e+02,3.992226e+03
6.277176e+02,3.981164e+03
6.286818e+02,3.980399e+03
6.296461e+02,3.982991e+03
6.306103e+02,3.979574e+03
6.315745e+02,3.970838e+03
6.325388e+02,3.963983e+03
6.335030e+02,3.964897e+03
6.344672e+02,3.973388e+03
6.354315e+02,3.975763e+03
6.363957e+02,3.966356e+03
6.373599e+02,3.955124e+03
6.383242e+02,3.948978e+03
6.392884e+02,3.947641e+03
6.402526e+02,3.943959e+03
6.412169e+02,3.930860e+03
6.421811e+02,3.917147e+03
6.431453e+02,3.912801e+03
6.441096e+02,3.917323e+03
6.450738e+02,3.922400e+03
6.460380e+02,3.920428e+03
6.470023e+02,3.912053e+03
6.479665e+02,3.905418e+03
6.489307e+02,3.898265e+03
6.498950e+02,3.893847e+03
6.508592e+02,3.896558e+03
6.518234e+02,3.906906e+03
6.527877e+02,3.912056e+03
6.537519e+02,3.908566e+03
6.547161e+02,3.900932e+03
6.556804e+02,3.890969e+03
6.566446e+02,3.879769e+03
6.576088e+02,3.869921e+03
6.585731e+02,3.863492e+03
6.595373e+02,3.860328e+03
6.605015e+02,3.860559e+03
6.614658e+02,3.865604e+03
6.624300e+02,3.870447e+03
6.633942e+02,3.869976e+03
6.643585e+02,3.861393e+03
6.653227e+02,3.853836e+03
6.662869e+02,3.844443e+03
6.672512e+02,3.837023e+03
6.682154e+02,3.835552e+03
6.691796e+02,3.839844e+03
6.701439e+02,3.843203e+03
6.711081e+02,3.839278e+03
6.720723e+02,3.831489e+03
6.730366e+02,3.827860e+03
6.740008e+02,3.830310e+03
6.749650e+02,3.834319e+03
6.759293e+02,3.834543e+03
6.768935e+02,3.830300e+03
6.778577e+02,3.825858e+03
6.788220e+02,3.820521e+03
6.797862e+02,3.817778e+03
6.807504e+02,3.819664e+03
6.817147e+02,3.826532e+03
6.826789e+02,3.830087e+03
6.836431e+02,3.824470e+03
6.846074e+02,3.813809e+03
6.855716e+02,3.801983e+03
6.865358e+02,3.790799e+03
6.875001e+02,3.783309e+03
6.884643e+02,3.785046e+03
6.894285e+02,3.796039e+03
6.903928e+02,3.802242e+03
6.913570e+02,3.799892e+03
6.923212e+02,3.794801e+03
6.932855e+02,3.794073e+03
6.942497e+02,3.803307e+03
6.952139e+02,3.808884e+03
6.961782e+02,3.805267e+03
6.971424e+02,3.800618e+03
6.981066e+02,3.800468e+03
6.990709e+02,3.804476e+03
7.000351e+02,3.807651e+03
7.009993e+02,3.810138e+03
7.019636e+02,3.811531e+03
7.029278e+02,3.806741e+03
7.038920e+02,3.794184e+03
7.048563e+02,3.780442e+03
7.058205e+02,3.775586e+03
7.067847e+02,3.784705e+03
7.077490e+02,3.790452e+03
7.087132e+02,3.791398e+03
7.096774e+02,3.793056e+03
7.106417e+02,3.797362e+03
7.116059e+02,3.804862e+03
7.125701e+02,3.808797e+03
7.135344e+02,3.806722e+03
7.144986e+02,3.802108e+03
7.154628e+02,3.796876e+03
7.164271e+02,3.791078e+03
7.173913e+02,3.784891e+03
7.183555e+02,3.776416e+03
7.193198e+02,3.766953e+03
7.202840e+02,3.765783e+03
7.212482e+02,3.776431e+03
7.222125e+02,3.788895e+03
7.231767e+02,3.791478e+03
7.241409e+02,3.777702e+03
7.251052e+02,3.769069e+03
7.260694e+02,3.769282e+03
7.270336e+02,3.771288e+03
7.279979e+02,3.771826e+03
7.289621e+02,3.770406e+03
7.299263e+02,3.770719e+03
7.308906e+02,3.775002e+03
7.318548e+02,3.780719e+03
7.328190e+02,3.787573e+03
7.337833e+02,3.794820e+03
7.347475e+02,3.797905e+03
7.357117e+02,3.789799e+03
7.366760e+02,3.772687e+03
7.376402e+02,3.764883e+03
7.386044e+02,3.770179e+03
7.395687e+02,3.776865e+03
7.405329e+02,3.773797e+03
7.414971e+02,3.757083e+03
7.424614e+02,3.746090e+03
7.434256e+02,3.749997e+03
7.443898e+02,3.754885e+03
7.453541e+02,3.750991e+03
7.463183e+02,3.737075e+03
7.472825e+02,3.723582e+03
7.482468e+02,3.715970e+03
7.492110e+02,3.711393e+03
7.501752e+02,3.710708e+03
7.511395e+02,3.713975e+03
7.521037e+02,3.714857e+03
7.530679e+02,3.703708e+03
7.540322e+02,3.682149e+03
7.549964e+02,3.670479e+03
7.559606e+02,3.671471e+03
7.569249e+02,3.676029e+03
7.578891e+02,3.679292e+03
7.588533e+02,3.681678e+03
7.598176e+02,3.683217e+03
7.607818e+02,3.677638e+03
7.617460e+02,3.671511e+03
7.627103e+02,3.669621e+03
7.636745e+02,3.672016e+03
7.646387e+02,3.673917e+03
7.656030e+02,3.670715e+03
7.665672e+02,3.668078e+03
7.675314e+02,3.670832e+03
7.684957e+02,3.675251e+03
7.694599e+02,3.674991e+03
7.704241e+02,3.666638e+03
7.713884e+02,3.655202e+03
7.723526e+02,3.652178e+03
7.733168e+02,3.659099e+03
7.742811e+02,3.669282e+03
7.752453e+02,3.679281e+03
7.762095e+02,3.687016e+03
7.771738e+02,3.687700e+03
7.781380e+02,3.672171e+03
7.791022e+02,3.658083e+03
7.800665e+02,3.651673e+03
7.810307e+02,3.650212e+03
7.819949e+02,3.648736e+03
7.829592e+02,3.645406e+03
7.839234e+02,3.644969e+03
7.848876e+02,3.652205e+03
7.858519e+02,3.662177e+03
7.868161e+02,3.666606e+03
7.877803e+02,3.660793e+03
7.887446e+02,3.651758e+03
7.897088e+02,3.652127e+03
7.906730e+02,3.661522e+03
7.916373e+02,3.667263e+03
7.926015e+02,3.662784e+03
7.935657e+02,3.651526e+03
7.945300e+02,3.645591e+03
7.954942e+02,3.650056e+03
7.964584e+02,3.650721e+03
7.974227e+02,3.646750e+03
7.983869e+02,3.643126e+03
7.993511e+02,3.641721e+03
8.003154e+02,3.641934e+03
8.012796e+02,3.638636e+03
8.022438e+02,3.629038e+03
8.032081e+02,3.619688e+03
8.041723e+02,3.617035e+03
8.051365e+02,3.622214e+03
8.061008e+02,3.626697e+03
8.070650e+02,3.620580e+03
8.080292e+02,3.609323e+03
8.089935e+02,3.605833e+03
8.099577e+02,3.612742e+03
8.109219e+02,3.620250e+03
8.118862e+02,3.614513e+03
8.128504e+02,3.596185e+03
8.138146e+02,3.587641e+03
8.147789e+02,3.591692e+03
8.157431e+02,3.598385e+03
8.167073e+02,3.601224e+03
8.176716e+02,3.602030e+03
8.186358e+02,3.599707e+03
8.196000e+02,3.588466e+03
8.205643e+02,3.578972e+03
8.215285e+02,3.575517e+03
8.224927e+02,3.577013e+03
8.234570e+02,3.575990e+03
8.244212e+02,3.567590e+03
8.253854e+02,3.559001e+03
8.263497e+02,3.555261e+03
8.273139e+02,3.553721e+03
8.282781e+02,3.549050e+03
8.292424e+02,3.537681e+03
8.302066e+02,3.524761e+03
8.311708e+02,3.515542e+03
8.321351e+02,3.509876e+03
8.330993e+02,3.507655e+03
8.340635e+02,3.508820e+03
8.350278e+02,3.511594e+03
8.359920e+02,3.511694e+03
8.369562e+02,3.508954e+03
8.379205e+02,3.504791e+03
8.388847e+02,3.498499e+03
8.398489e+02,3.491923e+03
8.408132e+02,3.489253e+03
8.417774e+02,3.493696e+03
8.427416e+02,3.496301e+03
8.437059e+02,3.495947e+03
8.446701e+02,3.493649e+03
8.456343e+02,3.490647e+03
8.465986e+02,3.486388e+03
8.475628e+02,3.481975e+03
8.485270e+02,3.477577e+03
8.494913e+02,3.473192e+03
8.504555e+02,3.469378e+03
8.514197e+02,3.466679e+03
8.523840e+02,3.464555e+03
8.533482e+02,3.461069e+03
8.543124e+02,3.457070e+03
8.552767e+02,3.454889e+03
8.562409e+02,3.454577e+03
8.572051e+02,3.454946e+03
8.581694e+02,3.456406e+03
8.591336e+02,3.459167e+03
8.600978e+02,3.460331e+03
8.610621e+02,3.460824e+03
8.620263e+02,3.458051e+03
8.629905e+02,3.447741e+03
8.639548e+02,3.427915e+03
8.649190e+02,3.413948e+03
8.658832e+02,3.409592e+03
8.668475e+02,3.409440e+03
8.678117e+02,3.412921e+03
8.687759e+02,3.418773e+03
8.697402e+02,3.422505e+03
8.707044e+02,3.419437e+03
8.716686e+02,3.415249e+03
8.726329e+02,3.415320e+03
8.735971e+02,3.417707e+03
8.745613e+02,3.417243e+03
8.755256e+02,3.409937e+03
8.764898e+02,3.403817e+03
8.774540e+02,3.404049e+03
8.784183e+02,3.407867e+03
8.793825e+02,3.410903e+03
8.803467e+02,3.411286e+03
8.813110e+02,3.410990e+03
8.822752e+02,3.413864e+03
8.832394e+02,3.419386e+03
8.842037e+02,3.422967e+03
8.851679e+02,3.422511e+03
8.861321e+02,3.419568e+03
8.870964e+02,3.417628e+03
8.880606e+02,3.416687e+03
8.890248e+02,3.410537e+03
8.899891e+02,3.397811e+03
8.909533e+02,3.386283e+03
8.919175e+02,3.382902e+03
8.928818e+02,3.389646e+03
8.938460e+02,3.395328e+03
8.948102e+02,3.400686e+03
8.957745e+02,3.402431e+03
8.967387e+02,3.395709e+03
8.977029e+02,3.380391e+03
8.986672e+02,3.373482e+03
8.996314e+02,3.391927e+03
9.005956e+02,3.407044e+03
9.015599e+02,3.401631e+03
9.025241e+02,3.382066e+03
9.034883e+02,3.367529e+03
9.044526e+02,3.369817e+03
9.054168e+02,3.372965e+03
9.063810e+02,3.370003e+03
9.073453e+02,3.364156e+03
9.083095e+02,3.357602e+03
9.092737e+02,3.348630e+03
9.102380e+02,3.341177e+03
9.112022e+02,3.343826e+03
9.121664e+02,3.351566e+03
9.131307e+02,3.351890e+03
9.140949e+02,3.342078e+03
9.150591e+02,3.329481e+03
9.160234e+02,3.321029e+03
9.169876e+02,3.314662e+03
9.179518e+02,3.307258e+03
9.189161e+02,3.298117e+03
9.198803e+02,3.290443e+03
9.208445e+02,3.290164e+03
9.218088e+02,3.300010e+03
9.227730e+02,3.302732e+03
9.237372e+02,3.293823e+03
9.247015e+02,3.285027e+03
9.256657e+02,3.284745e+03
9.266299e+02,3.293156e+03
9.275942e+02,3.298507e+03
9.285584e+02,3.297419e+03
9.295226e+02,3.295806e+03
9.304869e+02,3.297365e+03
9.314511e+02,3.301090e+03
9.324153e+02,3.302019e+03
9.333796e+02,3.297940e+03
9.343438e+02,3.292903e+03
9.353080e+02,3.286498e+03
9.362723e+02,3.278657e+03
9.372365e+02,3.270461e+03
9.382007e+02,3.262604e+03
9.391650e+02,3.258574e+03
9.401292e+02,3.261290e+03
9.410934e+02,3.267511e+03
9.420577e+02,3.273288e+03
9.430219e+02,3.277379e+03
9.439861e+02,3.279660e+03
9.449504e+02,3.281534e+03
9.459146e+02,3.283611e+03
9.468788e+02,3.283585e+03
9.478431e+02,3.279763e+03
9.488073e+02,3.274708e+03
9.497715e+02,3.273622e+03
9.507358e+02,3.274660e+03
9.517000e+02,3.271827e+03
9.526642e+02,3.266427e+03
9.536285e+02,3.263155e+03
9.545927e+02,3.265266e+03
9.555569e+02,3.270468e+03
9.565212e+02,3.271338e+03
9.574854e+02,3.268907e+03
9.584496e+02,3.266771e+03
9.594139e+02,3.264881e+03
9.603781e+02,3.262285e+03
9.613423e+02,3.258789e+03
9.623066e+02,3.254190e+03
9.632708e+02,3.250648e+03
9.642350e+02,3.249699e+03
9.651993e+02,3.250302e+03
9.661635e+02,3.250279e+03
9.671277e+02,3.250363e+03
9.680920e+02,3.244743e+03
9.690562e+02,3.227733e+03
9.700204e+02,3.210532e+03
9.709847e+02,3.202513e+03
9.719489e+02,3.205944e+03
9.729131e+02,3.211941e+03
9.738774e+02,3.226977e+03
9.748416e+02,3.239726e+03
9.758058e+02,3.242357e+03
9.767701e+02,3.235930e+03
9.777343e+02,3.231439e+03
9.786985e+02,3.232521e+03
9.796628e+02,3.232669e+03
9.806270e+02,3.231819e+03
9.815912e+02,3.228456e+03
9.825555e+02,3.220076e+03
9.835197e+02,3.200340e+03
9.844839e+02,3.186401e+03
9.854482e+02,3.190183e+03
9.864124e+02,3.201660e+03
9.873766e+02,3.209227e+03
9.883409e+02,3.210288e+03
9.893051e+02,3.208148e+03
9.902693e+02,3.201450e+03
9.912336e+02,3.194846e+03
9.921978e+02,3.193913e+03
9.931620e+02,3.197422e+03
9.941263e+02,3.198124e+03
9.950905e+02,3.186753e+03
9.960547e+02,3.173062e+03
9.970190e+02,3.171108e+03
9.979832e+02,3.178090e+03
9.989474e+02,3.183198e+03
9.999117e+02,3.181895e+03
1.000876e+03,3.175918e+03
1.001840e+03,3.164074e+03
1.002804e+03,3.149558e+03
1.003769e+03,3.141544e+03
1.004733e+03,3.143277e+03
1.005697e+03,3.147694e+03
1.006661e+03,3.144036e+03
1.007626e+03,3.134502e+03
1.008590e+03,3.128539e+03
1.009554e+03,3.127293e+03
1.010518e+03,3.125895e+03
1.011482e+03,3.118578e+03
1.012447e+03,3.106370e+03
1.013411e+03,3.098779e+03
1.014375e+03,3.097957e+03
1.015339e+03,3.098521e+03
1.016304e+03,3.095643e+03
1.017268e+03,3.089777e+03
1.018232e+03,3.084927e+03
1.019196e+03,3.080543e+03
1.020161e+03,3.078595e+03
1.021125e+03,3.081463e+03
1.022089e+03,3.087240e+03
1.023053e+03,3.087843e+03
1.024018e+03,3.080675e+03
1.024982e+03,3.075831e+03
1.025946e+03,3.075895e+03
1.026910e+03,3.075557e+03
1.027875e+03,3.068727e+03
1.028839e+03,3.053689e+03
1.029803e+03,3.045288e+03
1.030767e+03,3.046079e+03
1.031731e+03,3.049643e+03
1.032696e+03,3.051177e+03
1.033660e+03,3.050310e+03
1.034624e+03,3.049003e+03
1.035588e+03,3.048130e+03
1.036552e+03,3.047464e+03
1.037517e+03,3.045973e+03
1.038481e+03,3.043172e+03
1.039445e+03,3.040364e+03
1.040409e+03,3.035947e+03
1.041374e+03,3.034664e+03
1.042338e+03,3.041719e+03
1.043302e+03,3.050961e+03
1.044266e+03,3.053322e+03
1.045231e+03,3.042559e+03
1.046195e+03,3.035403e+03
1.047159e+03,3.035476e+03
1.048123e+03,3.037281e+03
1.049088e+03,3.036386e+03
1.050052e+03,3.032841e+03
1.051016e+03,3.034214e+03
1.051980e+03,3.044897e+03
1.052945e+03,3.055255e+03
1.053909e+03,3.060868e+03
1.054873e+03,3.061062e+03
1.055837e+03,3.058902e+03
1.056802e+03,3.052099e+03
1.057766e+03,3.048172e+03
1.058730e+03,3.052370e+03
1.059694e+03,3.059214e+03
1.060658e+03,3.061052e+03
1.061623e+03,3.053614e+03
1.062587e+03,3.049660e+03
1.063551e+03,3.052260e+03
1.064515e+03,3.057853e+03
1.065479e+03,3.064660e+03
1.066444e+03,3.073376e+03
1.067408e+03,3.078927e+03
1.068372e+03,3.074123e+03
1.069336e+03,3.072425e+03
1.070301e+03,3.081720e+03
1.071265e+03,3.097409e+03
1.072229e+03,3.107217e+03
1.073193e+03,3.109388e+03
1.074158e+03,3.104963e+03
1.075122e+03,3.088252e+03
1.076086e+03,3.068025e+03
1.077050e+03,3.055912e+03
1.078015e+03,3.059814e+03
1.078979e+03,3.062230e+03
1.079943e+03,3.057894e+03
1.080907e+03,3.051196e+03
1.081872e+03,3.042806e+03
1.082836e+03,3.032102e+03
1.083800e+03,3.025083e+03
1.084764e+03,3.026349e+03
1.085729e+03,3.029761e+03
1.086693e+03,3.034461e+03
1.087657e+03,3.038418e+03
1.088621e+03,3.037739e+03
1.089585e+03,3.023016e+03
1.090550e+03,3.012728e+03
1.091514e+03,3.019096e+03
1.092478e+03,3.030643e+03
1.093442e+03,3.033725e+03
1.094406e+03,3.023543e+03
1.095371e+03,3.014868e+03
1.096335e+03,3.010147e+03
1.097299e+03,3.007027e+03
1.098263e+03,3.004789e+03
1.099228e+03,3.002875e+03
1.100192e+03,2.999440e+03
1.101156e+03,2.989172e+03
1.102120e+03,2.982156e+03
1.103085e+03,2.986477e+03
1.104049e+03,2.996340e+03
1.105013e+03,2.999937e+03
1.105977e+03,2.990197e+03
1.106942e+03,2.981638e+03
1.107906e+03,2.975314e+03
1.108870e+03,2.972208e+03
1.109834e+03,2.974263e+03
1.110799e+03,2.983936e+03
1.111763e+03,2.989471e+03
1.112727e+03,2.988156e+03
1.113691e+03,2.984729e+03
1.114656e+03,2.978374e+03
1.115620e+03,2.970316e+03
1.116584e+03,2.969084e+03
1.117548e+03,2.982397e+03
1.118512e+03,2.991521e+03
1.119477e+03,2.988065e+03
1.120441e+03,2.979686e+03
1.121405e+03,2.978528e+03
1.122369e+03,2.996228e+03
1.123334e+03,3.003753e+03
1.124298e+03,2.993868e+03
1.125262e+03,2.981149e+03
1.126226e+03,2.976240e+03
1.127191e+03,2.980525e+03
1.128155e+03,2.981767e+03
1.129119e+03,2.973053e+03
1.130083e+03,2.969550e+03
1.131047e+03,2.980358e+03
1.132012e+03,2.999271e+03
1.132976e+03,3.007703e+03
1.133940e+03,2.999548e+03
1.134904e+03,2.992698e+03
1.135869e+03,2.990433e+03
1.136833e+03,2.991434e+03
1.137797e+03,2.994647e+03
1.138761e+03,3.002499e+03
1.139726e+03,3.006843e+03
1.140690e+03,3.005910e+03
1.141654e+03,3.003744e+03
1.142618e+03,3.002060e+03
1.143583e+03,3.001132e+03
1.144547e+03,3.001409e+03
1.145511e+03,3.002593e+03
1.146475e+03,3.005784e+03
1.147439e+03,3.011299e+03
1.148404e+03,3.019040e+03
1.149368e+03,3.029008e+03
1.150332e+03,3.041523e+03
1.151296e+03,3.048608e+03
1.152261e+03,3.047505e+03
1.153225e+03,3.041698e+03
1.154189e+03,3.035325e+03
1.155153e+03,3.029938e+03
1.156118e+03,3.029076e+03
1.157082e+03,3.033820e+03
1.158046e+03,3.039803e+03
1.159010e+03,3.044138e+03
1.159974e+03,3.047019e+03
1.160939e+03,3.048816e+03
1.161903e+03,3.048990e+03
1.162867e+03,3.048142e+03
1.163831e+03,3.046208e+03
1.164796e+03,3.043340e+03
1.165760e+03,3.042457e+03
1.166724e+03,3.041597e+03
1.167688e+03,3.032487e+03
1.168653e+03,3.016073e+03
1.169617e+03,3.000338e+03
1.170581e+03,2.991930e+03
1.171545e+03,2.985786e+03
1.172510e+03,2.971923e+03
1.173474e+03,2.954796e+03
1.174438e+03,2.945751e+03
1.175402e+03,2.949028e+03
1.176366e+03,2.950203e+03
1.177331e+03,2.931430e+03
1.178295e+03,2.906808e+03
1.179259e+03,2.894454e+03
1.180223e+03,2.893843e+03
1.181188e+03,2.892904e+03
1.182152e+03,2.884062e+03
1.183116e+03,2.873547e+03
1.184080e+03,2.865398e+03
1.185045e+03,2.859973e+03
1.186009e+03,2.857087e+03
1.186973e+03,2.858971e+03
1.187937e+03,2.860423e+03
1.188901e+03,2.856947e+03
1.189866e+03,2.853161e+03
1.190830e+03,2.852798e+03
1.191794e+03,2.855733e+03
1.192758e+03,2.857890e+03
1.193723e+03,2.860764e+03
1.194687e+03,2.862559e+03
1.195651e+03,2.860366e+03
1.196615e+03,2.856031e+03
1.197580e+03,2.854406e+03
1.198544e+03,2.858377e+03
1.199508e+03,2.856431e+03
1.200472e+03,2.845800e+03
1.201437e+03,2.834038e+03
1.202401e+03,2.828102e+03
1.203365e+03,2.829587e+03
1.204329e+03,2.829806e+03
1.205293e+03,2.827468e+03
1.206258e+03,2.826196e+03
1.207222e+03,2.827853e+03
1.208186e+03,2.830606e+03
1.209150e+03,2.829709e+03
1.210115e+03,2.824131e+03
1.211079e+03,2.816029e+03
1.212043e+03,2.805585e+03
1.213007e+03,2.795159e+03
1.213972e+03,2.789093e+03
1.214936e+03,2.787190e+03
1.215900e+03,2.783057e+03
1.216864e+03,2.776860e+03
1.217828e+03,2.771899e+03
1.218793e+03,2.770179e+03
1.219757e+03,2.770854e+03
1.220721e+03,2.773168e+03
1.221685e+03,2.776790e+03
1.222650e+03,2.779730e+03
1.223614e+03,2.780583e+03
1.224578e+03,2.779907e+03
1.225542e+03,2.779265e+03
1.226507e+03,2.778550e+03
1.227471e+03,2.777390e+03
1.228435e+03,2.774834e+03
1.229399e+03,2.769793e+03
1.230364e+03,2.758875e+03
1.231328e+03,2.749978e+03
1.232292e+03,2.751860e+03
1.233256e+03,2.758241e+03
1.234220e+03,2.758871e+03
1.235185e+03,2.750036e+03
1.236149e+03,2.743585e+03
1.237113e+03,2.742204e+03
1.238077e+03,2.744387e+03
1.239042e+03,2.749931e+03
1.240006e+03,2.756630e+03
1.240970e+03,2.756748e+03
1.241934e+03,2.746061e+03
1.242899e+03,2.735866e+03
1.243863e+03,2.728333e+03
1.244827e+03,2.723708e+03
1.245791e+03,2.722544e+03
1.246755e+03,2.725723e+03
1.247720e+03,2.727448e+03
1.248684e+03,2.728006e+03
1.249648e+03,2.726777e+03
1.250612e+03,2.722074e+03
1.251577e+03,2.715311e+03
1.252541e+03,2.713103e+03
1.253505e+03,2.714570e+03
1.254469e+03,2.715240e+03
1.255434e+03,2.714347e+03
1.256398e+03,2.712803e+03
1.257362e+03,2.709863e+03
1.258326e+03,2.706196e+03
1.259291e+03,2.704657e+03
1.260255e+03,2.704531e+03
1.261219e+03,2.702707e+03
1.262183e+03,2.699016e+03
1.263147e+03,2.694340e+03
1.264112e+03,2.685515e+03
1.265076e+03,2.677006e+03
1.266040e+03,2.676158e+03
1.267004e+03,2.687996e+03
1.267969e+03,2.696222e+03
1.268933e+03,2.692146e+03
1.269897e+03,2.688550e+03
1.270861e+03,2.692347e+03
1.271826e+03,2.700885e+03
1.272790e+03,2.705943e+03
1.273754e+03,2.707826e+03
1.274718e+03,2.707278e+03
1.275682e+03,2.704785e+03
1.276647e+03,2.701932e+03
1.277611e+03,2.700184e+03
1.278575e+03,2.699610e+03
1.279539e+03,2.695599e+03
1.280504e+03,2.688735e+03
1.281468e+03,2.685112e+03
1.282432e+03,2.688520e+03
1.283396e+03,2.695638e+03
1.284361e+03,2.697613e+03
1.285325e+03,2.695283e+03
1.286289e+03,2.694532e+03
1.287253e+03,2.696671e+03
1.288218e+03,2.700336e+03
1.289182e+03,2.706679e+03
1.290146e+03,2.713102e+03
1.291110e+03,2.716553e+03
1.292074e+03,2.717567e+03
1.293039e+03,2.717646e+03
1.294003e+03,2.717215e+03
1.294967e+03,2.715223e+03
1.295931e+03,2.709673e+03
1.296896e+03,2.704823e+03
1.297860e+03,2.705105e+03
1.298824e+03,2.711889e+03
1.299788e+03,2.717606e+03
1.300753e+03,2.718958e+03
1.301717e+03,2.722824e+03
1.302681e+03,2.733448e+03
1.303645e+03,2.747852e+03
1.304609e+03,2.757214e+03
1.305574e+03,2.759567e+03
1.306538e+03,2.763267e+03
1.307502e+03,2.771396e+03
1.308466e+03,2.778809e+03
1.309431e+03,2.776686e+03
1.310395e+03,2.769363e+03
1.311359e+03,2.772702e+03
1.312323e+03,2.783649e+03
1.313288e+03,2.793047e+03
1.314252e+03,2.798156e+03
1.315216e+03,2.802170e+03
1.316180e+03,2.804990e+03
1.317145e+03,2.809025e+03
1.318109e+03,2.818075e+03
1.319073e+03,2.831057e+03
1.320037e+03,2.839561e+03
1.321001e+03,2.840068e+03
1.321966e+03,2.836227e+03
1.322930e+03,2.828938e+03
1.323894e+03,2.820244e+03
1.324858e+03,2.811798e+03
1.325823e+03,2.801500e+03
1.326787e+03,2.796346e+03
1.327751e+03,2.797338e+03
1.328715e+03,2.798950e+03
1.329680e+03,2.797434e+03
1.330644e+03,2.794428e+03
1.331608e+03,2.798745e+03
1.332572e+03,2.809162e+03
1.333536e+03,2.812446e+03
1.334501e+03,2.803887e+03
1.335465e+03,2.792270e+03
1.336429e+03,2.789548e+03
1.337393e+03,2.790696e+03
1.338358e+03,2.789111e+03
1.339322e+03,2.783794e+03
1.340286e+03,2.773602e+03
1.341250e+03,2.752508e+03
1.342215e+03,2.732760e+03
1.343179e+03,2.721008e+03
1.344143e+03,2.715294e+03
1.345107e+03,2.712829e+03
1.346072e+03,2.713976e+03
1.347036e+03,2.710203e+03
1.348000e+03,2.697615e+03
1.348964e+03,2.686135e+03
1.349928e+03,2.681719e+03
1.350893e+03,2.680435e+03
1.351857e+03,2.668705e+03
1.352821e+03,2.646650e+03
1.353785e+03,2.634103e+03
1.354750e+03,2.633257e+03
1.355714e+03,2.636004e+03
1.356678e+03,2.638367e+03
1.357642e+03,2.640679e+03
1.358607e+03,2.642939e+03
1.359571e+03,2.643696e+03
1.360535e+03,2.639753e+03
1.361499e+03,2.628430e+03
1.362464e+03,2.619346e+03
1.363428e+03,2.617275e+03
1.364392e+03,2.619562e+03
1.365356e+03,2.624929e+03
1.366320e+03,2.631390e+03
1.367285e+03,2.633202e+03
1.368249e+03,2.629538e+03
1.369213e+03,2.626383e+03
1.370177e+03,2.625852e+03
1.371142e+03,2.623948e+03
1.372106e+03,2.615232e+03
1.373070e+03,2.600665e+03
1.374034e+03,2.585348e+03
1.374999e+03,2.570748e+03
1.375963e+03,2.563412e+03
1.376927e+03,2.568992e+03
1.377891e+03,2.577222e+03
1.378855e+03,2.574523e+03
1.379820e+03,2.568791e+03
1.380784e+03,2.572266e+03
1.381748e+03,2.587216e+03
1.382712e+03,2.597912e+03
1.383677e+03,2.596469e+03
1.384641e+03,2.590665e+03
1.385605e+03,2.579099e+03
1.386569e+03,2.566955e+03
1.387534e+03,2.563686e+03
1.388498e+03,2.572074e+03
1.389462e+03,2.574538e+03
1.390426e+03,2.568944e+03
1.391391e+03,2.564268e+03
1.392355e+03,2.568378e+03
1.393319e+03,2.576039e+03
1.394283e+03,2.575034e+03
1.395247e+03,2.568174e+03
1.396212e+03,2.562663e+03
1.397176e+03,2.560260e+03
1.398140e+03,2.558429e+03
1.399104e+03,2.554450e+03
1.400069e+03,2.550646e+03
1.401033e+03,2.549826e+03
1.401997e+03,2.550430e+03
1.402961e+03,2.548013e+03
1.403926e+03,2.540804e+03
1.404890e+03,2.533709e+03
1.405854e+03,2.526979e+03
1.406818e+03,2.521958e+03
1.407782e+03,2.519641e+03
1.408747e+03,2.520519e+03
1.409711e+03,2.526252e+03
1.410675e+03,2.533645e+03
1.411639e+03,2.533526e+03
1.412604e+03,2.522836e+03
1.413568e+03,2.511796e+03
1.414532e+03,2.510835e+03
1.415496e+03,2.513101e+03
1.416461e+03,2.511163e+03
1.417425e+03,2.505348e+03
1.418389e+03,2.501261e+03
1.419353e+03,2.502771e+03
1.420318e+03,2.501760e+03
1.421282e+03,2.497210e+03
1.422246e+03,2.493151e+03
1.423210e+03,2.493160e+03
1.424174e+03,2.496597e+03
1.425139e+03,2.495956e+03
1.426103e+03,2.491098e+03
1.427067e+03,2.486651e+03
1.428031e+03,2.484371e+03
1.428996e+03,2.483261e+03
1.429960e+03,2.481718e+03
1.430924e+03,2.480338e+03
1.431888e+03,2.481233e+03
1.432853e+03,2.483520e+03
1.433817e+03,2.482270e+03
1.434781e+03,2.470738e+03
1.435745e+03,2.465461e+03
1.436709e+03,2.471762e+03
1.437674e+03,2.477286e+03
1.438638e+03,2.469698e+03
1.439602e+03,2.451934e+03
1.440566e+03,2.449314e+03
1.441531e+03,2.459929e+03
1.442495e+03,2.467043e+03
1.443459e+03,2.463829e+03
1.444423e+03,2.456882e+03
1.445388e+03,2.449354e+03
1.446352e+03,2.443111e+03
1.447316e+03,2.441452e+03
1.448280e+03,2.444908e+03
1.449245e+03,2.449708e+03
1.450209e+03,2.460234e+03
1.451173e+03,2.463839e+03
1.452137e+03,2.454904e+03
1.453101e+03,2.442153e+03
1.454066e+03,2.433189e+03
1.455030e+03,2.428409e+03
1.455994e+03,2.433053e+03
1.456958e+03,2.445115e+03
1.457923e+03,2.450675e+03
1.458887e+03,2.442661e+03
1.459851e+03,2.431599e+03
1.460815e+03,2.424569e+03
1.461780e+03,2.419815e+03
1.462744e+03,2.418190e+03
1.463708e+03,2.419454e+03
1.464672e+03,2.419004e+03
1.465636e+03,2.415223e+03
1.466601e+03,2.415031e+03
1.467565e+03,2.420591e+03
1.468529e+03,2.426568e+03
1.469493e+03,2.426637e+03
1.470458e+03,2.421903e+03
1.471422e+03,2.419767e+03
1.472386e+03,2.419742e+03
1.473350e+03,2.417796e+03
1.474315e+03,2.411009e+03
1.475279e+03,2.405714e+03
1.476243e+03,2.407460e+03
1.477207e+03,2.410025e+03
1.478172e+03,2.409254e+03
1.479136e+03,2.406313e+03
1.480100e+03,2.406383e+03
1.481064e+03,2.411395e+03
1.482028e+03,2.412012e+03
1.482993e+03,2.406593e+03
1.483957e+03,2.401882e+03
1.484921e+03,2.404758e+03
1.485885e+03,2.411159e+03
1.486850e+03,2.413682e+03
1.487814e+03,2.412656e+03
1.488778e+03,2.410120e+03
1.489742e+03,2.406605e+03
1.490707e+03,2.403097e+03
1.491671e+03,2.400413e+03
1.492635e+03,2.400262e+03
1.493599e+03,2.404030e+03
1.494563e+03,2.408420e+03
1.495528e+03,2.404083e+03
1.496492e+03,2.391172e+03
1.497456e+03,2.387482e+03
1.498420e+03,2.395550e+03
1.499385e+03,2.403469e+03
1.500349e+03,2.400587e+03
1.501313e+03,2.395206e+03
1.502277e+03,2.392648e+03
1.503242e+03,2.392520e+03
1.504206e+03,2.395134e+03
1.505170e+03,2.402297e+03
1.506134e+03,2.402503e+03
1.507099e+03,2.392726e+03
1.508063e+03,2.385059e+03
1.509027e+03,2.384381e+03
1.509991e+03,2.387349e+03
1.510955e+03,2.390852e+03
1.511920e+03,2.392896e+03
1.512884e+03,2.385953e+03
1.513848e+03,2.372659e+03
1.514812e+03,2.366909e+03
1.515777e+03,2.381848e+03
1.516741e+03,2.393868e+03
1.517705e+03,2.391389e+03
1.518669e+03,2.385169e+03
1.519634e+03,2.384190e+03
1.520598e+03,2.387811e+03
1.521562e+03,2.392516e+03
1.522526e+03,2.397345e+03
1.523490e+03,2.397084e+03
1.524455e+03,2.389496e+03
1.525419e+03,2.381433e+03
1.526383e+03,2.382427e+03
1.527347e+03,2.383515e+03
1.528312e+03,2.374024e+03
1.529276e+03,2.358726e+03
1.530240e+03,2.355800e+03
1.531204e+03,2.373069e+03
1.532169e+03,2.378264e+03
1.533133e+03,2.366753e+03
1.534097e+03,2.353527e+03
1.535061e+03,2.350719e+03
1.536026e+03,2.352214e+03
1.536990e+03,2.347552e+03
1.537954e+03,2.339376e+03
1.538918e+03,2.331332e+03
1.539882e+03,2.323401e+03
1.540847e+03,2.320555e+03
1.541811e+03,2.328465e+03
1.542775e+03,2.334734e+03
1.543739e+03,2.337370e+03
1.544704e+03,2.336771e+03
1.545668e+03,2.330970e+03
1.546632e+03,2.322100e+03
1.547596e+03,2.320094e+03
1.548561e+03,2.324259e+03
1.549525e+03,2.327243e+03
1.550489e+03,2.321801e+03
1.551453e+03,2.317351e+03
1.552417e+03,2.320544e+03
1.553382e+03,2.324408e+03
1.554346e+03,2.323535e+03
1.555310e+03,2.318993e+03
1.556274e+03,2.315789e+03
1.557239e+03,2.313757e+03
1.558203e+03,2.314614e+03
1.559167e+03,2.318955e+03
1.560131e+03,2.324126e+03
1.561096e+03,2.330375e+03
1.562060e+03,2.334618e+03
1.563024e+03,2.332673e+03
1.563988e+03,2.326819e+03
1.564953e+03,2.322083e+03
1.565917e+03,2.317966e+03
1.566881e+03,2.317214e+03
1.567845e+03,2.319691e+03
1.568809e+03,2.322605e+03
1.569774e+03,2.324561e+03
1.570738e+03,2.326843e+03
1.571702e+03,2.331831e+03
1.572666e+03,2.337581e+03
1.573631e+03,2.342235e+03
1.574595e+03,2.346168e+03
1.575559e+03,2.347838e+03
1.576523e+03,2.345563e+03
1.577488e+03,2.346277e+03
1.578452e+03,2.350579e+03
1.579416e+03,2.355066e+03
1.580380e+03,2.357404e+03
1.581344e+03,2.357793e+03
1.582309e+03,2.358312e+03
1.583273e+03,2.357333e+03
1.584237e+03,2.349312e+03
1.585201e+03,2.327296e+03
1.586166e+03,2.313359e+03
1.587130e+03,2.312943e+03
1.588094e+03,2.312788e+03
1.589058e+03,2.307843e+03
1.590023e+03,2.300582e+03
1.590987e+03,2.293355e+03
1.591951e+03,2.288284e+03
1.592915e+03,2.289695e+03
1.593880e+03,2.296160e+03
1.594844e+03,2.301505e+03
1.595808e+03,2.302405e+03
1.596772e+03,2.304043e+03
1.597736e+03,2.310780e+03
1.598701e+03,2.314994e+03
1.599665e+03,2.306353e+03
1.600629e+03,2.290031e+03
1.601593e+03,2.290126e+03
1.602558e+03,2.301276e+03
1.603522e+03,2.306624e+03
1.604486e+03,2.300318e+03
1.605450e+03,2.293198e+03
1.606415e+03,2.287542e+03
1.607379e+03,2.287294e+03
1.608343e+03,2.296413e+03
1.609307e+03,2.307485e+03
1.610271e+03,2.306679e+03
1.611236e+03,2.296111e+03
1.612200e+03,2.285802e+03
1.613164e+03,2.277306e+03
1.614128e+03,2.271074e+03
1.615093e+03,2.269270e+03
1.616057e+03,2.265948e+03
1.617021e+03,2.257066e+03
1.617985e+03,2.246759e+03
1.618950e+03,2.237398e+03
1.619914e+03,2.229652e+03
1.620878e+03,2.226909e+03
1.621842e+03,2.228042e+03
1.622807e+03,2.227830e+03
1.623771e+03,2.225610e+03
1.624735e+03,2.222111e+03
1.625699e+03,2.213298e+03
1.626663e+03,2.207053e+03
1.627628e+03,2.206538e+03
1.628592e+03,2.207571e+03
1.629556e+03,2.207642e+03
1.630520e+03,2.207324e+03
1.631485e+03,2.202215e+03
1.632449e+03,2.193218e+03
1.633413e+03,2.185227e+03
1.634377e+03,2.180765e+03
1.635342e+03,2.176669e+03
1.636306e+03,2.169619e+03
1.637270e+03,2.165940e+03
1.638234e+03,2.169705e+03
1.639198e+03,2.177325e+03
1.640163e+03,2.179118e+03
1.641127e+03,2.176996e+03
1.642091e+03,2.174341e+03
1.643055e+03,2.171293e+03
1.644020e+03,2.170903e+03
1.644984e+03,2.178371e+03
1.645948e+03,2.181800e+03
1.646912e+03,2.178485e+03
1.647877e+03,2.172599e+03
1.648841e+03,2.165391e+03
1.649805e+03,2.159886e+03
1.650769e+03,2.170675e+03
1.651734e+03,2.189557e+03
1.652698e+03,2.194872e+03
1.653662e+03,2.178092e+03
1.654626e+03,2.166415e+03
1.655590e+03,2.170749e+03
1.656555e+03,2.173974e+03
1.657519e+03,2.171657e+03
1.658483e+03,2.169351e+03
1.659447e+03,2.176875e+03
1.660412e+03,2.186277e+03
1.661376e+03,2.180860e+03
1.662340e+03,2.165679e+03
1.663304e+03,2.156797e+03
1.664269e+03,2.161150e+03
1.665233e+03,2.166831e+03
1.666197e+03,2.174165e+03
1.667161e+03,2.178933e+03
1.668125e+03,2.179651e+03
1.669090e+03,2.176532e+03
1.670054e+03,2.167704e+03
1.671018e+03,2.156742e+03
1.671982e+03,2.147403e+03
1.672947e+03,2.140888e+03
1.673911e+03,2.143098e+03
1.674875e+03,2.157681e+03
1.675839e+03,2.158305e+03
1.676804e+03,2.141035e+03
1.677768e+03,2.124813e+03
1.678732e+03,2.127237e+03
1.679696e+03,2.135083e+03
1.680661e+03,2.136675e+03
1.681625e+03,2.134665e+03
1.682589e+03,2.135155e+03
1.683553e+03,2.139293e+03
1.684517e+03,2.140978e+03
1.685482e+03,2.139937e+03
1.686446e+03,2.137419e+03
1.687410e+03,2.133556e+03
1.688374e+03,2.129855e+03
1.689339e+03,2.126207e+03
1.690303e+03,2.124236e+03
1.691267e+03,2.126213e+03
1.692231e+03,2.129735e+03
1.693196e+03,2.129126e+03
1.694160e+03,2.124739e+03
1.695124e+03,2.123709e+03
1.696088e+03,2.126534e+03
1.697052e+03,2.132175e+03
1.698017e+03,2.143253e+03
1.698981e+03,2.147877e+03
1.699945e+03,2.139269e+03
1.700909e+03,2.127665e+03
1.701874e+03,2.119018e+03
1.702838e+03,2.114327e+03
1.703802e+03,2.114223e+03
1.704766e+03,2.116126e+03
1.705731e+03,2.118562e+03
1.706695e+03,2.121333e+03
1.707659e+03,2.119476e+03
1.708623e+03,2.111456e+03
1.709588e+03,2.103115e+03
1.710552e+03,2.093580e+03
1.711516e+03,2.085515e+03
1.712480e+03,2.083738e+03
1.713444e+03,2.083185e+03
1.714409e+03,2.077283e+03
1.715373e+03,2.070680e+03
1.716337e+03,2.070462e+03
1.717301e+03,2.077348e+03
1.718266e+03,2.080681e+03
1.719230e+03,2.080064e+03
1.720194e+03,2.080192e+03
1.721158e+03,2.082300e+03
1.722123e+03,2.082954e+03
1.723087e+03,2.079026e+03
1.724051e+03,2.073795e+03
1.725015e+03,2.069112e+03
1.725979e+03,2.064913e+03
1.726944e+03,2.060005e+03
1.727908e+03,2.054642e+03
1.728872e+03,2.048278e+03
1.729836e+03,2.041717e+03
1.730801e+03,2.040569e+03
1.731765e+03,2.052618e+03
1.732729e+03,2.057435e+03
1.733693e+03,2.050156e+03
1.734658e+03,2.045128e+03
1.735622e+03,2.050120e+03
1.736586e+03,2.056319e+03
1.737550e+03,2.049227e+03
1.738515e+03,2.037280e+03
1.739479e+03,2.029911e+03
1.740443e+03,2.027728e+03
1.741407e+03,2.028872e+03
1.742371e+03,2.034657e+03
1.743336e+03,2.028176e+03
1.744300e+03,2.008509e+03
1.745264e+03,1.993853e+03
1.746228e+03,2.006098e+03
1.747193e+03,2.016308e+03
1.748157e+03,2.006089e+03
1.749121e+03,1.993782e+03
1.750085e+03,1.988622e+03
1.751050e+03,1.988431e+03
1.752014e+03,1.994568e+03
1.752978e+03,2.004562e+03
1.753942e+03,2.011199e+03
1.754906e+03,2.012819e+03
1.755871e+03,2.012097e+03
1.756835e+03,2.007742e+03
1.757799e+03,2.002394e+03
1.758763e+03,1.998435e+03
1.759728e+03,1.995554e+03
1.760692e+03,1.991581e+03
1.761656e+03,1.989478e+03
1.762620e+03,1.992217e+03
1.763585e+03,1.997499e+03
1.764549e+03,2.002053e+03
1.765513e+03,2.005010e+03
1.766477e+03,2.008858e+03
1.767442e+03,2.013125e+03
1.768406e+03,2.010145e+03
1.769370e+03,1.995937e+03
1.770334e+03,1.986761e+03
1.771298e+03,1.993620e+03
1.772263e+03,2.000143e+03
1.773227e+03,2.003504e+03
1.774191e+03,2.002808e+03
1.775155e+03,1.992856e+03
1.776120e+03,1.980066e+03
1.777084e+03,1.973455e+03
1.778048e+03,1.973075e+03
1.779012e+03,1.978269e+03
1.779977e+03,1.991673e+03
1.780941e+03,1.998299e+03
1.781905e+03,1.997358e+03
1.782869e+03,1.993653e+03
1.783833e+03,1.989130e+03
1.784798e+03,1.983526e+03
1.785762e+03,1.973714e+03
1.786726e+03,1.966244e+03
1.787690e+03,1.965930e+03
1.788655e+03,1.967995e+03
1.789619e+03,1.958927e+03
1.790583e+03,1.946612e+03
1.791547e+03,1.949801e+03
1.792512e+03,1.965783e+03
1.793476e+03,1.974077e+03
1.794440e+03,1.969957e+03
1.795404e+03,1.961389e+03
1.796369e+03,1.947718e+03
1.797333e+03,1.938535e+03
1.798297e+03,1.943349e+03
1.799261e+03,1.948041e+03
1.800225e+03,1.938797e+03
1.801190e+03,1.928887e+03
1.802154e+03,1.929014e+03
1.803118e+03,1.933876e+03
1.804082e+03,1.928645e+03
1.805047e+03,1.919080e+03
1.806011e+03,1.918227e+03
1.806975e+03,1.926376e+03
1.807939e+03,1.930265e+03
1.808904e+03,1.925801e+03
1.809868e+03,1.924286e+03
1.810832e+03,1.927629e+03
1.811796e+03,1.930026e+03
1.812760e+03,1.925370e+03
1.813725e+03,1.919706e+03
1.814689e+03,1.917760e+03
1.815653e+03,1.915741e+03
1.816617e+03,1.910068e+03
1.817582e+03,1.902750e+03
1.818546e+03,1.900198e+03
1.819510e+03,1.900531e+03
1.820474e+03,1.900055e+03
1.821439e+03,1.898542e+03
1.822403e+03,1.898177e+03
1.823367e+03,1.898943e+03
1.824331e+03,1.903362e+03
1.825296e+03,1.911546e+03
1.826260e+03,1.916019e+03
1.827224e+03,1.909931e+03
1.828188e+03,1.902885e+03
1.829152e+03,1.896644e+03
1.830117e+03,1.893310e+03
1.831081e+03,1.897027e+03
1.832045e+03,1.903268e+03
1.833009e+03,1.898432e+03
1.833974e+03,1.889835e+03
1.834938e+03,1.889100e+03
1.835902e+03,1.898592e+03
1.836866e+03,1.905504e+03
1.837831e+03,1.910006e+03
1.838795e+03,1.904511e+03
1.839759e+03,1.887615e+03
1.840723e+03,1.876488e+03
1.841688e+03,1.888523e+03
1.842652e+03,1.899755e+03
1.843616e+03,1.900946e+03
1.844580e+03,1.897545e+03
1.845544e+03,1.896043e+03
1.846509e+03,1.894993e+03
1.847473e+03,1.889568e+03
1.848437e+03,1.882847e+03
1.849401e+03,1.881527e+03
1.850366e+03,1.885942e+03
1.851330e+03,1.887070e+03
1.852294e+03,1.885773e+03
1.853258e+03,1.884982e+03
1.854223e+03,1.885678e+03
1.855187e+03,1.882882e+03
1.856151e+03,1.865401e+03
1.857115e+03,1.858689e+03
1.858079e+03,1.870401e+03
1.859044e+03,1.883279e+03
1.860008e+03,1.878080e+03
1.860972e+03,1.867552e+03
1.861936e+03,1.863314e+03
1.862901e+03,1.862335e+03
1.863865e+03,1.857569e+03
1.864829e+03,1.849168e+03
1.865793e+03,1.850893e+03
1.866758e+03,1.859508e+03
1.867722e+03,1.863079e+03
1.868686e+03,1.856760e+03
1.869650e+03,1.853371e+03
1.870615e+03,1.853602e+03
1.871579e+03,1.854140e+03
1.872543e+03,1.855198e+03
1.873507e+03,1.856501e+03
1.874471e+03,1.857936e+03
1.875436e+03,1.854865e+03
1.876400e+03,1.845093e+03
1.877364e+03,1.833215e+03
1.878328e+03,1.820753e+03
1.879293e+03,1.811761e+03
1.880257e+03,1.820724e+03
1.881221e+03,1.836007e+03
1.882185e+03,1.831196e+03
1.883150e+03,1.805262e+03
1.884114e+03,1.799193e+03
1.885078e+03,1.809421e+03
1.886042e+03,1.813698e+03
1.887006e+03,1.804503e+03
1.887971e+03,1.799334e+03
1.888935e+03,1.808120e+03
1.889899e+03,1.812518e+03
1.890863e+03,1.806418e+03
1.891828e+03,1.799345e+03
1.892792e+03,1.804983e+03
1.893756e+03,1.810984e+03
1.894720e+03,1.808891e+03
1.895685e+03,1.803686e+03
1.896649e+03,1.796564e+03
1.897613e+03,1.788825e+03
1.898577e+03,1.789983e+03
1.899542e+03,1.795625e+03
1.900506e+03,1.794660e+03
1.901470e+03,1.784328e+03
1.902434e+03,1.778087e+03
1.903398e+03,1.775968e+03
1.904363e+03,1.777512e+03
1.905327e+03,1.783490e+03
1.906291e+03,1.784795e+03
1.907255e+03,1.769661e+03
1.908220e+03,1.758425e+03
1.909184e+03,1.754969e+03
1.910148e+03,1.755445e+03
1.911112e+03,1.760762e+03
1.912077e+03,1.764966e+03
1.913041e+03,1.760513e+03
1.914005e+03,1.753870e+03
1.914969e+03,1.752346e+03
1.915933e+03,1.753843e+03
1.916898e+03,1.750067e+03
1.917862e+03,1.743807e+03
1.918826e+03,1.740575e+03
1.919790e+03,1.741841e+03
1.920755e+03,1.738264e+03
1.921719e+03,1.729210e+03
1.922683e+03,1.722992e+03
1.923647e+03,1.721968e+03
1.924612e+03,1.723210e+03
1.925576e+03,1.728154e+03
1.926540e+03,1.730236e+03
1.927504e+03,1.727140e+03
1.928469e+03,1.722514e+03
1.929433e+03,1.718080e+03
1.930397e+03,1.714591e+03
1.931361e+03,1.714460e+03
1.932325e+03,1.713740e+03
1.933290e+03,1.708477e+03
1.934254e+03,1.703453e+03
1.935218e+03,1.710254e+03
1.936182e+03,1.720638e+03
1.937147e+03,1.721907e+03
1.938111e+03,1.715360e+03
1.939075e+03,1.715837e+03
1.940039e+03,1.722292e+03
1.941004e+03,1.721129e+03
1.941968e+03,1.709802e+03
1.942932e+03,1.701274e+03
1.943896e+03,1.699784e+03
1.944860e+03,1.701877e+03
1.945825e+03,1.708256e+03
1.946789e+03,1.713172e+03
1.947753e+03,1.709602e+03
1.948717e+03,1.706197e+03
1.949682e+03,1.707845e+03
1.950646e+03,1.707055e+03
1.951610e+03,1.697025e+03
1.952574e+03,1.686216e+03
1.953539e+03,1.687580e+03
1.954503e+03,1.694491e+03
1.955467e+03,1.702213e+03
1.956431e+03,1.709120e+03
1.957396e+03,1.708886e+03
1.958360e+03,1.703978e+03
1.959324e+03,1.702532e+03
1.960288e+03,1.704557e+03
1.961252e+03,1.700405e+03
1.962217e+03,1.687930e+03
1.963181e+03,1.680266e+03
1.964145e+03,1.677776e+03
1.965109e+03,1.678909e+03
1.966074e+03,1.686695e+03
1.967038e+03,1.693356e+03
1.968002e+03,1.696998e+03
1.968966e+03,1.696109e+03
1.969931e+03,1.689193e+03
1.970895e+03,1.680557e+03
1.971859e+03,1.672836e+03
1.972823e+03,1.669282e+03
1.973787e+03,1.671391e+03
1.974752e+03,1.674672e+03
1.975716e+03,1.674250e+03
1.976680e+03,1.670692e+03
1.977644e+03,1.663000e+03
1.978609e+03,1.656054e+03
1.979573e+03,1.657179e+03
1.980537e+03,1.663537e+03
1.981501e+03,1.669476e+03
1.982466e+03,1.673267e+03
1.983430e+03,1.667467e+03
1.984394e+03,1.649707e+03
1.985358e+03,1.648337e+03
1.986323e+03,1.660103e+03
1.987287e+03,1.666063e+03
1.988251e+03,1.659228e+03
1.989215e+03,1.653254e+03
1.990179e+03,1.650428e+03
1.991144e+03,1.648793e+03
1.992108e+03,1.648699e+03
1.993072e+03,1.647754e+03
1.994036e+03,1.641749e+03
1.995001e+03,1.636559e+03
1.995965e+03,1.633506e+03
1.996929e+03,1.632899e+03
1.997893e+03,1.635910e+03
1.998858e+03,1.638379e+03
1.999822e+03,1.635247e+03
2.000786e+03,1.631330e+03
2.001750e+03,1.633300e+03
2.002714e+03,1.638161e+03
2.003679e+03,1.634757e+03
2.004643e+03,1.627409e+03
2.005607e+03,1.623470e+03
2.006571e+03,1.623331e+03
2.007536e+03,1.629090e+03
2.008500e+03,1.637265e+03
2.009464e+03,1.633030e+03
2.010428e+03,1.617239e+03
2.011393e+03,1.614496e+03
2.012357e+03,1.627053e+03
2.013321e+03,1.633744e+03
2.014285e+03,1.631978e+03
2.015250e+03,1.626830e+03
2.016214e+03,1.616480e+03
2.017178e+03,1.611353e+03
2.018142e+03,1.612634e+03
2.019106e+03,1.615352e+03
2.020071e+03,1.618655e+03
2.021035e+03,1.617528e+03
2.021999e+03,1.605951e+03
2.022963e+03,1.595292e+03
2.023928e+03,1.589908e+03
2.024892e+03,1.589060e+03
2.025856e+03,1.594648e+03
2.026820e+03,1.600802e+03
2.027785e+03,1.603151e+03
2.028749e+03,1.604319e+03
2.029713e+03,1.612458e+03
2.030677e+03,1.619453e+03
2.031641e+03,1.610068e+03
2.032606e+03,1.592858e+03
2.033570e+03,1.582082e+03
2.034534e+03,1.577008e+03
2.035498e+03,1.578688e+03
2.036463e+03,1.583626e+03
2.037427e+03,1.582457e+03
2.038391e+03,1.575800e+03
2.039355e+03,1.569791e+03
2.040320e+03,1.565144e+03
2.041284e+03,1.563857e+03
2.042248e+03,1.566026e+03
2.043212e+03,1.571185e+03
2.044177e+03,1.580169e+03
2.045141e+03,1.584549e+03
2.046105e+03,1.582743e+03
2.047069e+03,1.577647e+03
2.048033e+03,1.564814e+03
2.048998e+03,1.558355e+03
2.049962e+03,1.560201e+03
2.050926e+03,1.564928e+03
2.051890e+03,1.572916e+03
2.052854e+03,1.576050e+03
2.053819e+03,1.569907e+03
2.054783e+03,1.562562e+03
2.055747e+03,1.559347e+03
2.056711e+03,1.557717e+03
2.057676e+03,1.554814e+03
2.058640e+03,1.552704e+03
2.059604e+03,1.551407e+03
2.060568e+03,1.549933e+03
2.061533e+03,1.548489e+03
2.062497e+03,1.546352e+03
2.063461e+03,1.540766e+03
2.064425e+03,1.535775e+03
2.065390e+03,1.539960e+03
2.066354e+03,1.546758e+03
2.067318e+03,1.543654e+03
2.068282e+03,1.534599e+03
2.069247e+03,1.527676e+03
2.070211e+03,1.522377e+03
2.071175e+03,1.517791e+03
2.072139e+03,1.514033e+03
2.073104e+03,1.510738e+03
2.074068e+03,1.508018e+03
2.075032e+03,1.506521e+03
2.075996e+03,1.506246e+03
2.076960e+03,1.511392e+03
2.077925e+03,1.522405e+03
2.078889e+03,1.527703e+03
2.079853e+03,1.526822e+03
2.080817e+03,1.518541e+03
2.081782e+03,1.503238e+03
2.082746e+03,1.490155e+03
2.083710e+03,1.483613e+03
2.084674e+03,1.480142e+03
2.085639e+03,1.480389e+03
2.086603e+03,1.482738e+03
2.087567e+03,1.483515e+03
2.088531e+03,1.487566e+03
2.089496e+03,1.496783e+03
2.090460e+03,1.496542e+03
2.091424e+03,1.480166e+03
2.092388e+03,1.463210e+03
2.093353e+03,1.449893e+03
2.094317e+03,1.445811e+03
2.095281e+03,1.452720e+03
2.096245e+03,1.463209e+03
2.097209e+03,1.476724e+03
2.098174e+03,1.481245e+03
2.099138e+03,1.470826e+03
2.100102e+03,1.458043e+03
2.101066e+03,1.458658e+03
2.102031e+03,1.460478e+03
2.102995e+03,1.448445e+03
2.103959e+03,1.436712e+03
2.104923e+03,1.439872e+03
2.105887e+03,1.448764e+03
2.106852e+03,1.445352e+03
2.107816e+03,1.436656e+03
2.108780e+03,1.431704e+03
2.109744e+03,1.429620e+03
2.110708e+03,1.430791e+03
2.111673e+03,1.433657e+03
2.112637e+03,1.433824e+03
2.113601e+03,1.431474e+03
2.114565e+03,1.428835e+03
2.115530e+03,1.426272e+03
2.116494e+03,1.422921e+03
2.117458e+03,1.422529e+03
2.118422e+03,1.431431e+03
2.119387e+03,1.445856e+03
2.120351e+03,1.450309e+03
2.121315e+03,1.446535e+03
2.122279e+03,1.446298e+03
2.123244e+03,1.450497e+03
2.124208e+03,1.443927e+03
2.125172e+03,1.430573e+03
2.126136e+03,1.422472e+03
2.127101e+03,1.423050e+03
2.128065e+03,1.422258e+03
2.129029e+03,1.420024e+03
2.129993e+03,1.418247e+03
2.130958e+03,1.415913e+03
2.131922e+03,1.414342e+03
2.132886e+03,1.414085e+03
2.133850e+03,1.415123e+03
2.134814e+03,1.418554e+03
2.135779e+03,1.420081e+03
2.136743e+03,1.415765e+03
2.137707e+03,1.414869e+03
2.138671e+03,1.418029e+03
2.139636e+03,1.418418e+03
2.140600e+03,1.412062e+03
2.141564e+03,1.401352e+03
2.142528e+03,1.386132e+03
2.143493e+03,1.381461e+03
2.144457e+03,1.397410e+03
2.145421e+03,1.403084e+03
2.146385e+03,1.387859e+03
2.147350e+03,1.377628e+03
2.148314e+03,1.380402e+03
2.149278e+03,1.386398e+03
2.150242e+03,1.390625e+03
2.151207e+03,1.389909e+03
2.152171e+03,1.382596e+03
2.153135e+03,1.376118e+03
2.154099e+03,1.381308e+03
2.155063e+03,1.383929e+03
2.156028e+03,1.380991e+03
2.156992e+03,1.376625e+03
2.157956e+03,1.369979e+03
2.158920e+03,1.364892e+03
2.159885e+03,1.362836e+03
2.160849e+03,1.363468e+03
2.161813e+03,1.367356e+03
2.162777e+03,1.371912e+03
2.163741e+03,1.378783e+03
2.164706e+03,1.379566e+03
2.165670e+03,1.370723e+03
2.166634e+03,1.362758e+03
2.167598e+03,1.366799e+03
2.168563e+03,1.373391e+03
2.169527e+03,1.377826e+03
2.170491e+03,1.378473e+03
2.171455e+03,1.374381e+03
2.172420e+03,1.368109e+03
2.173384e+03,1.359429e+03
2.174348e+03,1.353642e+03
2.175312e+03,1.357262e+03
2.176277e+03,1.361861e+03
2.177241e+03,1.358985e+03
2.178205e+03,1.353769e+03
2.179169e+03,1.349011e+03
2.180134e+03,1.347119e+03
2.181098e+03,1.352165e+03
2.182062e+03,1.358690e+03
2.183026e+03,1.362290e+03
2.183990e+03,1.363239e+03
2.184955e+03,1.360012e+03
2.185919e+03,1.357256e+03
2.186883e+03,1.359299e+03
2.187847e+03,1.360942e+03
2.188812e+03,1.352746e+03
2.189776e+03,1.345213e+03
2.190740e+03,1.354504e+03
2.191704e+03,1.364438e+03
2.192668e+03,1.358011e+03
2.193633e+03,1.346445e+03
2.194597e+03,1.347719e+03
2.195561e+03,1.349885e+03
2.196525e+03,1.339904e+03
2.197490e+03,1.325968e+03
2.198454e+03,1.322403e+03
2.199418e+03,1.323534e+03
2.200382e+03,1.324445e+03
2.201347e+03,1.326153e+03
2.202311e+03,1.331089e+03
2.203275e+03,1.334496e+03
2.204239e+03,1.329121e+03
2.205204e+03,1.319849e+03
2.206168e+03,1.313873e+03
2.207132e+03,1.311108e+03
2.208096e+03,1.312886e+03
2.209061e+03,1.313861e+03
2.210025e+03,1.308031e+03
2.210989e+03,1.300070e+03
2.211953e+03,1.299683e+03
2.212917e+03,1.301176e+03
2.213882e+03,1.292311e+03
2.214846e+03,1.281656e+03
2.215810e+03,1.292066e+03
2.216774e+03,1.305168e+03
2.217739e+03,1.306324e+03
2.218703e+03,1.301115e+03
2.219667e+03,1.296070e+03
2.220631e+03,1.292343e+03
2.221595e+03,1.290281e+03
2.222560e+03,1.289602e+03
2.223524e+03,1.292433e+03
2.224488e+03,1.294780e+03
2.225452e+03,1.292008e+03
2.226417e+03,1.287106e+03
2.227381e+03,1.280002e+03
2.228345e+03,1.274902e+03
2.229309e+03,1.277383e+03
2.230274e+03,1.282425e+03
2.231238e+03,1.287216e+03
2.232202e+03,1.290408e+03
2.233166e+03,1.291241e+03
2.234131e+03,1.290121e+03
2.235095e+03,1.285894e+03
2.236059e+03,1.282398e+03
2.237023e+03,1.288072e+03
2.237988e+03,1.292719e+03
2.238952e+03,1.287790e+03
2.239916e+03,1.280462e+03
2.240880e+03,1.284360e+03
2.241844e+03,1.287250e+03
2.242809e+03,1.279038e+03
2.243773e+03,1.267951e+03
2.244737e+03,1.258688e+03
2.245701e+03,1.252779e+03
2.246666e+03,1.253540e+03
2.247630e+03,1.254735e+03
2.248594e+03,1.253290e+03
2.249558e+03,1.252365e+03
2.250522e+03,1.256096e+03
2.251487e+03,1.257939e+03
2.252451e+03,1.252406e+03
2.253415e+03,1.244631e+03
2.254379e+03,1.243648e+03
2.255344e+03,1.240064e+03
2.256308e+03,1.229489e+03
2.257272e+03,1.219640e+03
2.258236e+03,1.220330e+03
2.259201e+03,1.220032e+03
2.260165e+03,1.213563e+03
2.261129e+03,1.207994e+03
2.262093e+03,1.210682e+03
2.263058e+03,1.213691e+03
2.264022e+03,1.216134e+03
2.264986e+03,1.216800e+03
2.265950e+03,1.212129e+03
2.266915e+03,1.207940e+03
2.267879e+03,1.205111e+03
2.268843e+03,1.202288e+03
2.269807e+03,1.201058e+03
2.270771e+03,1.198164e+03
2.271736e+03,1.191738e+03
2.272700e+03,1.188175e+03
2.273664e+03,1.188082e+03
2.274628e+03,1.189165e+03
2.275593e+03,1.190082e+03
2.276557e+03,1.191971e+03
2.277521e+03,1.195968e+03
2.278485e+03,1.201531e+03
2.279449e+03,1.212342e+03
2.280414e+03,1.211320e+03
2.281378e+03,1.197785e+03
2.282342e+03,1.187652e+03
2.283306e+03,1.192591e+03
2.284271e+03,1.189190e+03
2.285235e+03,1.177849e+03
2.286199e+03,1.167506e+03
2.287163e+03,1.163218e+03
2.288128e+03,1.158852e+03
2.289092e+03,1.153712e+03
2.290056e+03,1.153000e+03
2.291020e+03,1.158633e+03
2.291985e+03,1.164743e+03
2.292949e+03,1.171487e+03
2.293913e+03,1.173413e+03
2.294877e+03,1.170327e+03
2.295842e+03,1.172925e+03
2.296806e+03,1.179473e+03
2.297770e+03,1.177232e+03
2.298734e+03,1.168316e+03
2.299698e+03,1.165063e+03
2.300663e+03,1.167399e+03
2.301627e+03,1.168350e+03
2.302591e+03,1.168124e+03
2.303555e+03,1.168418e+03
2.304520e+03,1.169557e+03
2.305484e+03,1.174306e+03
2.306448e+03,1.178395e+03
2.307412e+03,1.171625e+03
2.308376e+03,1.159528e+03
2.309341e+03,1.157883e+03
2.310305e+03,1.160653e+03
2.311269e+03,1.161320e+03
2.312233e+03,1.160643e+03
2.313198e+03,1.158163e+03
2.314162e+03,1.154213e+03
2.315126e+03,1.147694e+03
2.316090e+03,1.143146e+03
2.317055e+03,1.149309e+03
2.318019e+03,1.156854e+03
2.318983e+03,1.157220e+03
2.319947e+03,1.152835e+03
2.320912e+03,1.140657e+03
2.321876e+03,1.133964e+03
2.322840e+03,1.149562e+03
2.323804e+03,1.160272e+03
2.324769e+03,1.151380e+03
2.325733e+03,1.142349e+03
2.326697e+03,1.147418e+03
2.327661e+03,1.152502e+03
2.328625e+03,1.153327e+03
2.329590e+03,1.149982e+03
2.330554e+03,1.141162e+03
2.331518e+03,1.134755e+03
2.332482e+03,1.131742e+03
2.333447e+03,1.132329e+03
2.334411e+03,1.140449e+03
2.335375e+03,1.139636e+03
2.336339e+03,1.129471e+03
2.337303e+03,1.121973e+03
2.338268e+03,1.123418e+03
2.339232e+03,1.116854e+03
2.340196e+03,1.105138e+03
2.341160e+03,1.107690e+03
2.342125e+03,1.131655e+03
2.343089e+03,1.136743e+03
2.344053e+03,1.126647e+03
2.345017e+03,1.121358e+03
2.345982e+03,1.123730e+03
2.346946e+03,1.128811e+03
2.347910e+03,1.134457e+03
2.348874e+03,1.128741e+03
2.349839e+03,1.116265e+03
2.350803e+03,1.118382e+03
2.351767e+03,1.126311e+03
2.352731e+03,1.118614e+03
2.353696e+03,1.106032e+03
2.354660e+03,1.104758e+03
2.355624e+03,1.109093e+03
2.356588e+03,1.112846e+03
2.357552e+03,1.117409e+03
2.358517e+03,1.126804e+03
2.359481e+03,1.133479e+03
2.360445e+03,1.123902e+03
2.361409e+03,1.111998e+03
2.362374e+03,1.103832e+03
2.363338e+03,1.099288e+03
2.364302e+03,1.103330e+03
2.365266e+03,1.107109e+03
2.366230e+03,1.107075e+03
2.367195e+03,1.107191e+03
2.368159e+03,1.112407e+03
2.369123e+03,1.108948e+03
2.370087e+03,1.095379e+03
2.371052e+03,1.090167e+03
2.372016e+03,1.107506e+03
2.372980e+03,1.116839e+03
2.373944e+03,1.116564e+03
2.374909e+03,1.113000e+03
2.375873e+03,1.107462e+03
2.376837e+03,1.102537e+03
2.377801e+03,1.098655e+03
2.378766e+03,1.097771e+03
2.379730e+03,1.099609e+03
2.380694e+03,1.094834e+03
2.381658e+03,1.086723e+03
2.382623e+03,1.081198e+03
2.383587e+03,1.078163e+03
2.384551e+03,1.077068e+03
2.385515e+03,1.077020e+03
2.386479e+03,1.078421e+03
2.387444e+03,1.080506e+03
2.388408e+03,1.084310e+03
2.389372e+03,1.086213e+03
2.390336e+03,1.079226e+03
2.391301e+03,1.072311e+03
2.392265e+03,1.076806e+03
2.393229e+03,1.079477e+03
2.394193e+03,1.071163e+03
2.395157e+03,1.063784e+03
2.396122e+03,1.066535e+03
2.397086e+03,1.068416e+03
2.398050e+03,1.065968e+03
2.399014e+03,1.063949e+03
2.399979e+03,1.063724e+03
2.400943e+03,1.065399e+03
2.401907e+03,1.068692e+03
2.402871e+03,1.067451e+03
2.403836e+03,1.060609e+03
2.404800e+03,1.056553e+03
2.405764e+03,1.055701e+03
2.406728e+03,1.059649e+03
2.407693e+03,1.066588e+03
2.408657e+03,1.068576e+03
2.409621e+03,1.067216e+03
2.410585e+03,1.070179e+03
2.411550e+03,1.073472e+03
2.412514e+03,1.066666e+03
2.413478e+03,1.053520e+03
2.414442e+03,1.040041e+03
2.415406e+03,1.031909e+03
2.416371e+03,1.035352e+03
2.417335e+03,1.044073e+03
2.418299e+03,1.052465e+03
2.419263e+03,1.056073e+03
2.420228e+03,1.051301e+03
2.421192e+03,1.045215e+03
2.422156e+03,1.045755e+03
2.423120e+03,1.044803e+03
2.424084e+03,1.039245e+03
2.425049e+03,1.034272e+03
2.426013e+03,1.033765e+03
2.426977e+03,1.037238e+03
2.427941e+03,1.045026e+03
2.428906e+03,1.043659e+03
2.429870e+03,1.026841e+03
2.430834e+03,1.020843e+03
2.431798e+03,1.024182e+03
2.432763e+03,1.023292e+03
2.433727e+03,1.017341e+03
2.434691e+03,1.019304e+03
2.435655e+03,1.023596e+03
2.436620e+03,1.016883e+03
2.437584e+03,1.005636e+03
2.438548e+03,1.010843e+03
2.439512e+03,1.018046e+03
2.440477e+03,1.011358e+03
2.441441e+03,9.996068e+02
2.442405e+03,9.946234e+02
2.443369e+03,9.929525e+02
2.444333e+03,9.930037e+02
2.445298e+03,9.946475e+02
2.446262e+03,9.998449e+02
2.447226e+03,1.001329e+03
2.448190e+03,9.983934e+02
2.449155e+03,9.947991e+02
2.450119e+03,9.925969e+02
2.451083e+03,9.909835e+02
2.452047e+03,9.898398e+02
2.453011e+03,9.920706e+02
2.453976e+03,9.992789e+02
2.454940e+03,9.906502e+02
2.455904e+03,9.743507e+02
2.456868e+03,9.759481e+02
2.457833e+03,9.888562e+02
2.458797e+03,9.900449e+02
2.459761e+03,9.866149e+02
2.460725e+03,9.884092e+02
2.461690e+03,9.906611e+02
2.462654e+03,9.842688e+02
2.463618e+03,9.773811e+02
2.464582e+03,9.751343e+02
2.465547e+03,9.766640e+02
2.466511e+03,9.832812e+02
2.467475e+03,9.861229e+02
2.468439e+03,9.832428e+02
2.469404e+03,9.787670e+02
2.470368e+03,9.746008e+02
2.471332e+03,9.744517e+02
2.472296e+03,9.770363e+02
2.473260e+03,9.744944e+02
2.474225e+03,9.645045e+02
2.475189e+03,9.626451e+02
2.476153e+03,9.669537e+02
2.477117e+03,9.685798e+02
2.478082e+03,9.686012e+02
2.479046e+03,9.775360e+02
2.480010e+03,9.858954e+02
2.480974e+03,9.791577e+02
2.481938e+03,9.685609e+02
2.482903e+03,9.706741e+02
2.483867e+03,9.712961e+02
2.484831e+03,9.617051e+02
2.485795e+03,9.523415e+02
2.486760e+03,9.516310e+02
2.487724e+03,9.567665e+02
2.488688e+03,9.674017e+02
2.489652e+03,9.721227e+02
2.490617e+03,9.591525e+02
2.491581e+03,9.540736e+02
2.492545e+03,9.563052e+02
2.493509e+03,9.590650e+02
2.494474e+03,9.605295e+02
2.495438e+03,9.629648e+02
2.496402e+03,9.648198e+02
2.497366e+03,9.605438e+02
2.498331e+03,9.554085e+02
2.499295e+03,9.625207e+02
2.500259e+03,9.708951e+02
2.501223e+03,9.726151e+02
2.502188e+03,9.706868e+02
2.503152e+03,9.672067e+02
2.504116e+03,9.609594e+02
2.505080e+03,9.515116e+02
2.506044e+03,9.439078e+02
2.507009e+03,9.412028e+02
2.507973e+03,9.407376e+02
2.508937e+03,9.425303e+02
2.509901e+03,9.432015e+02
2.510865e+03,9.415016e+02
2.511830e+03,9.424807e+02
2.512794e+03,9.438612e+02
2.513758e+03,9.400500e+02
2.514722e+03,9.344271e+02
2.515687e+03,9.373063e+02
2.516651e+03,9.396820e+02
2.517615e+03,9.309581e+02
2.518579e+03,9.206453e+02
2.519544e+03,9.212167e+02
2.520508e+03,9.243093e+02
2.521472e+03,9.271315e+02
2.522436e+03,9.288542e+02
2.523401e+03,9.299794e+02
2.524365e+03,9.243717e+02
2.525329e+03,9.118319e+02
2.526293e+03,9.134658e+02
2.527258e+03,9.358982e+02
2.528222e+03,9.458996e+02
2.529186e+03,9.447679e+02
2.530150e+03,9.357608e+02
2.531115e+03,9.247145e+02
2.532079e+03,9.320236e+02
2.533043e+03,9.388220e+02
2.534007e+03,9.223193e+02
2.534971e+03,9.025836e+02
2.535936e+03,9.094568e+02
2.536900e+03,9.186901e+02
2.537864e+03,9.223129e+02
2.538828e+03,9.215062e+02
2.539792e+03,9.127685e+02
2.540757e+03,9.122391e+02
2.541721e+03,9.212151e+02
2.542685e+03,9.241341e+02
2.543649e+03,9.207133e+02
2.544614e+03,9.248923e+02
2.545578e+03,9.326180e+02
2.546542e+03,9.318718e+02
2.547506e+03,9.265371e+02
2.548471e+03,9.244467e+02
2.549435e+03,9.244019e+02
2.550399e+03,9.266877e+02
2.551363e+03,9.274122e+02
2.552328e+03,9.225908e+02
2.553292e+03,9.192368e+02
2.554256e+03,9.198875e+02
2.555220e+03,9.226904e+02
2.556185e+03,9.270072e+02
2.557149e+03,9.210961e+02
2.558113e+03,9.043240e+02
2.559077e+03,9.058036e+02
2.560042e+03,9.195392e+02
2.561006e+03,9.245182e+02
2.561970e+03,9.235194e+02
2.562934e+03,9.199390e+02
2.563898e+03,9.172513e+02
2.564863e+03,9.202701e+02
2.565827e+03,9.230070e+02
2.566791e+03,9.235624e+02
2.567755e+03,9.206243e+02
2.568719e+03,9.122021e+02
2.569684e+03,9.124609e+02
2.570648e+03,9.343531e+02
2.571612e+03,9.338975e+02
2.572576e+03,9.155637e+02
2.573541e+03,9.031548e+02
2.574505e+03,8.989200e+02
2.575469e+03,9.052620e+02
2.576433e+03,9.139480e+02
2.577398e+03,9.131877e+02
2.578362e+03,9.085666e+02
2.579326e+03,9.068495e+02
2.580290e+03,9.045901e+02
2.581255e+03,8.991635e+02
2.582219e+03,8.971168e+02
2.583183e+03,9.126835e+02
2.584147e+03,9.073563e+02
2.585112e+03,8.829891e+02
2.586076e+03,8.736126e+02
2.587040e+03,8.841249e+02
2.588004e+03,8.906380e+02
2.588969e+03,8.938099e+02
2.589933e+03,8.973110e+02
2.590897e+03,9.004932e+02
2.591861e+03,9.024271e+02
2.592825e+03,9.005223e+02
2.593790e+03,8.915864e+02
2.594754e+03,8.836533e+02
2.595718e+03,8.826354e+02
2.596682e+03,8.830098e+02
2.597646e+03,8.834191e+02
2.598611e+03,8.836345e+02
2.599575e+03,8.845344e+02
2.600539e+03,8.905795e+02
2.601503e+03,8.969153e+02
2.602468e+03,8.833796e+02
2.603432e+03,8.627435e+02
2.604396e+03,8.645731e+02
2.605360e+03,8.722565e+02
2.606325e+03,8.714656e+02
2.607289e+03,8.676423e+02
2.608253e+03,8.630646e+02
2.609217e+03,8.610969e+02
2.610182e+03,8.631485e+02
2.611146e+03,8.645310e+02
2.612110e+03,8.648909e+02
2.613074e+03,8.610563e+02
2.614039e+03,8.542646e+02
2.615003e+03,8.523712e+02
2.615967e+03,8.507175e+02
2.616931e+03,8.427141e+02
2.617896e+03,8.355429e+02
2.618860e+03,8.405733e+02
2.619824e+03,8.457958e+02
2.620788e+03,8.460967e+02
2.621752e+03,8.472177e+02
2.622717e+03,8.547692e+02
2.623681e+03,8.567317e+02
2.624645e+03,8.529122e+02
2.625609e+03,8.489583e+02
2.626573e+03,8.457532e+02
2.627538e+03,8.461509e+02
2.628502e+03,8.457929e+02
2.629466e+03,8.344969e+02
2.630430e+03,8.242258e+02
2.631395e+03,8.371038e+02
2.632359e+03,8.457360e+02
2.633323e+03,8.385037e+02
2.634287e+03,8.355668e+02
2.635252e+03,8.417185e+02
2.636216e+03,8.474865e+02
2.637180e+03,8.503721e+02
2.638144e+03,8.523475e+02
2.639109e+03,8.519918e+02
2.640073e+03,8.442961e+02
2.641037e+03,8.353074e+02
2.642001e+03,8.297000e+02
2.642966e+03,8.284582e+02
2.643930e+03,8.327537e+02
2.644894e+03,8.339679e+02
2.645858e+03,8.208171e+02
2.646823e+03,8.176812e+02
2.647787e+03,8.240641e+02
2.648751e+03,8.284891e+02
2.649715e+03,8.291527e+02
2.650679e+03,8.321469e+02
2.651644e+03,8.337970e+02
2.652608e+03,8.277659e+02
2.653572e+03,8.197453e+02
2.654536e+03,8.158769e+02
2.655500e+03,8.199194e+02
2.656465e+03,8.352789e+02
2.657429e+03,8.422384e+02
2.658393e+03,8.335241e+02
2.659357e+03,8.260091e+02
2.660322e+03,8.234789e+02
2.661286e+03,8.268851e+02
2.662250e+03,8.334841e+02
2.663214e+03,8.374781e+02
2.664179e+03,8.382659e+02
2.665143e+03,8.343100e+02
2.666107e+03,8.293741e+02
2.667071e+03,8.252429e+02
2.668036e+03,8.231166e+02
2.669000e+03,8.228460e+02
2.669964e+03,8.270379e+02
2.670928e+03,8.333478e+02
2.671893e+03,8.253807e+02
2.672857e+03,8.082048e+02
2.673821e+03,8.064199e+02
2.674785e+03,8.142291e+02
2.675750e+03,8.267387e+02
2.676714e+03,8.363483e+02
2.677678e+03,8.307188e+02
2.678642e+03,8.246534e+02
2.679606e+03,8.213801e+02
2.680571e+03,8.175680e+02
2.681535e+03,8.124720e+02
2.682499e+03,8.172718e+02
2.683463e+03,8.278035e+02
2.684427e+03,8.297551e+02
2.685392e+03,8.251807e+02
2.686356e+03,8.104843e+02
2.687320e+03,7.995643e+02
2.688284e+03,8.068187e+02
2.689249e+03,8.114273e+02
2.690213e+03,8.084694e+02
2.691177e+03,8.066465e+02
2.692141e+03,8.099907e+02
2.693106e+03,7.981122e+02
2.694070e+03,7.812188e+02
2.695034e+03,7.866490e+02
2.695998e+03,8.006434e+02
2.696963e+03,7.985060e+02
2.697927e+03,7.966263e+02
2.698891e+03,8.029604e+02
2.699855e+03,8.063029e+02
2.700820e+03,8.014806e+02
2.701784e+03,7.930568e+02
2.702748e+03,7.833235e+02
2.703712e+03,7.882772e+02
2.704677e+03,8.021409e+02
2.705641e+03,8.089094e+02
2.706605e+03,8.107460e+02
2.707569e+03,8.057763e+02
2.708533e+03,8.022321e+02
2.709498e+03,8.040433e+02
2.710462e+03,8.023373e+02
2.711426e+03,7.906455e+02
2.712390e+03,7.968217e+02
2.713354e+03,8.141954e+02
2.714319e+03,8.106533e+02
2.715283e+03,7.942563e+02
2.716247e+03,7.810812e+02
2.717211e+03,7.755121e+02
2.718176e+03,7.801422e+02
2.719140e+03,7.864089e+02
2.720104e+03,7.872202e+02
2.721068e+03,7.962354e+02
2.722033e+03,8.130327e+02
2.722997e+03,8.065825e+02
2.723961e+03,7.837222e+02
2.724925e+03,7.771980e+02
2.725890e+03,7.804647e+02
2.726854e+03,7.851920e+02
2.727818e+03,7.874248e+02
2.728782e+03,7.836977e+02
2.729747e+03,7.808402e+02
2.730711e+03,7.838568e+02
2.731675e+03,7.828127e+02
2.732639e+03,7.795907e+02
2.733604e+03,7.840287e+02
2.734568e+03,7.925190e+02
2.735532e+03,7.969442e+02
2.736496e+03,7.967173e+02
2.737460e+03,7.918818e+02
2.738425e+03,7.875817e+02
2.739389e+03,7.867116e+02
2.740353e+03,7.860761e+02
2.741317e+03,7.857147e+02
2.742281e+03,7.864901e+02
2.743246e+03,7.879683e+02
2.744210e+03,7.856896e+02
2.745174e+03,7.825867e+02
2.746138e+03,7.897911e+02
2.747103e+03,7.860329e+02
2.748067e+03,7.629849e+02
2.749031e+03,7.527125e+02
2.749995e+03,7.797960e+02
2.750960e+03,7.850928e+02
2.751924e+03,7.758590e+02
2.752888e+03,7.766369e+02
2.753852e+03,7.819083e+02
2.754817e+03,7.752194e+02
2.755781e+03,7.693609e+02
2.756745e+03,7.721292e+02
2.757709e+03,7.729448e+02
2.758674e+03,7.676329e+02
2.759638e+03,7.662708e+02
2.760602e+03,7.701900e+02
2.761566e+03,7.676629e+02
2.762531e+03,7.647293e+02
2.763495e+03,7.721699e+02
2.764459e+03,7.801495e+02
2.765423e+03,7.796138e+02
2.766387e+03,7.756849e+02
2.767352e+03,7.703275e+02
2.768316e+03,7.672449e+02
2.769280e+03,7.669201e+02
2.770244e+03,7.743336e+02
2.771208e+03,7.814645e+02
2.772173e+03,7.685662e+02
2.773137e+03,7.548986e+02
2.774101e+03,7.672527e+02
2.775065e+03,7.763405e+02
2.776030e+03,7.695427e+02
2.776994e+03,7.612557e+02
2.777958e+03,7.532759e+02
2.778922e+03,7.496160e+02
2.779887e+03,7.496924e+02
2.780851e+03,7.523857e+02
2.781815e+03,7.543063e+02
2.782779e+03,7.537050e+02
2.783744e+03,7.547562e+02
2.784708e+03,7.602205e+02
2.785672e+03,7.630071e+02
2.786636e+03,7.623784e+02
2.787601e+03,7.596620e+02
2.788565e+03,7.571537e+02
2.789529e+03,7.621641e+02
2.790493e+03,7.652261e+02
2.791458e+03,7.509388e+02
2.792422e+03,7.465081e+02
2.793386e+03,7.576747e+02
2.794350e+03,7.601403e+02
2.795314e+03,7.475645e+02
2.796279e+03,7.457277e+02
2.797243e+03,7.471697e+02
2.798207e+03,7.403400e+02
2.799171e+03,7.333513e+02
2.800135e+03,7.370375e+02
2.801100e+03,7.397723e+02
2.802064e+03,7.394921e+02
2.803028e+03,7.411063e+02
2.803992e+03,7.437901e+02
2.804957e+03,7.406501e+02
2.805921e+03,7.363334e+02
2.806885e+03,7.418325e+02
2.807849e+03,7.434609e+02
2.808814e+03,7.341857e+02
2.809778e+03,7.304417e+02
2.810742e+03,7.433229e+02
2.811706e+03,7.455818e+02
2.812671e+03,7.389426e+02
2.813635e+03,7.349901e+02
2.814599e+03,7.331772e+02
2.815563e+03,7.346224e+02
2.816528e+03,7.329893e+02
2.817492e+03,7.223801e+02
2.818456e+03,7.191467e+02
2.819420e+03,7.234337e+02
2.820385e+03,7.290992e+02
2.821349e+03,7.330070e+02
2.822313e+03,7.184842e+02
2.823277e+03,7.070858e+02
2.824241e+03,7.151833e+02
2.825206e+03,7.255885e+02
2.826170e+03,7.285782e+02
2.827134e+03,7.353852e+02
2.828098e+03,7.442067e+02
2.829063e+03,7.394983e+02
2.830027e+03,7.268984e+02
2.830991e+03,7.159811e+02
2.831955e+03,7.115539e+02
2.832919e+03,7.212925e+02
2.833884e+03,7.274240e+02
2.834848e+03,7.273052e+02
2.835812e+03,7.276027e+02
2.836776e+03,7.296034e+02
2.837741e+03,7.355548e+02
2.838705e+03,7.379536e+02
2.839669e+03,7.255572e+02
2.840633e+03,7.211153e+02
2.841598e+03,7.383895e+02
2.842562e+03,7.445007e+02
2.843526e+03,7.316784e+02
2.844490e+03,7.291572e+02
2.845455e+03,7.335547e+02
2.846419e+03,7.425342e+02
2.847383e+03,7.468011e+02
2.848347e+03,7.268343e+02
2.849312e+03,7.198476e+02
2.850276e+03,7.315643e+02
2.851240e+03,7.322889e+02
2.852204e+03,7.232803e+02
2.853168e+03,7.340734e+02
2.854133e+03,7.486063e+02
2.855097e+03,7.422039e+02
2.856061e+03,7.403320e+02
2.857025e+03,7.497963e+02
2.857990e+03,7.573051e+02
2.858954e+03,7.592930e+02
2.859918e+03,7.551127e+02
2.860882e+03,7.483015e+02
2.861846e+03,7.451623e+02
2.862811e+03,7.411113e+02
2.863775e+03,7.291101e+02
2.864739e+03,7.259859e+02
2.865703e+03,7.369897e+02
2.866668e+03,7.409726e+02
2.867632e+03,7.394019e+02
2.868596e+03,7.397637e+02
2.869560e+03,7.387234e+02
2.870525e+03,7.248710e+02
2.871489e+03,7.300518e+02
2.872453e+03,7.610303e+02
2.873417e+03,7.653116e+02
2.874382e+03,7.436562e+02
2.875346e+03,7.383365e+02
2.876310e+03,7.413585e+02
2.877274e+03,7.377800e+02
2.878239e+03,7.324797e+02
2.879203e+03,7.266915e+02
2.880167e+03,7.303076e+02
2.881131e+03,7.480076e+02
2.882095e+03,7.450561e+02
2.883060e+03,7.329442e+02
2.884024e+03,7.307034e+02
2.884988e+03,7.299217e+02
2.885952e+03,7.200316e+02
2.886917e+03,7.232223e+02
2.887881e+03,7.467135e+02
2.888845e+03,7.624453e+02
2.889809e+03,7.659477e+02
2.890773e+03,7.410856e+02
2.891738e+03,7.170261e+02
2.892702e+03,7.342220e+02
2.893666e+03,7.482049e+02
2.894630e+03,7.510079e+02
2.895595e+03,7.586249e+02
2.896559e+03,7.675400e+02
2.897523e+03,7.448743e+02
2.898487e+03,7.231536e+02
2.899452e+03,7.464455e+02
2.900416e+03,7.631020e+02
2.901380e+03,7.611678e+02
2.902344e+03,7.539757e+02
2.903309e+03,7.456570e+02
2.904273e+03,7.491141e+02
2.905237e+03,7.508417e+02
2.906201e+03,7.341578e+02
2.907166e+03,7.220140e+02
2.908130e+03,7.240275e+02
2.909094e+03,7.329343e+02
2.910058e+03,7.450142e+02
2.911022e+03,7.399650e+02
2.911987e+03,7.266572e+02
2.912951e+03,7.132430e+02
2.913915e+03,7.071842e+02
2.914879e+03,7.167461e+02
2.915844e+03,7.217464e+02
2.916808e+03,7.216225e+02
2.917772e+03,7.259984e+02
2.918736e+03,7.304326e+02
2.919700e+03,7.264601e+02
2.920665e+03,7.207296e+02
2.921629e+03,7.160776e+02
2.922593e+03,7.144008e+02
2.923557e+03,7.164752e+02
2.924522e+03,7.280110e+02
2.925486e+03,7.370612e+02
2.926450e+03,7.040638e+02
2.927414e+03,6.776950e+02
2.928379e+03,6.818044e+02
2.929343e+03,6.935158e+02
2.930307e+03,7.065349e+02
2.931271e+03,7.112523e+02
2.932236e+03,7.094963e+02
2.933200e+03,6.981890e+02
2.934164e+03,6.872452e+02
2.935128e+03,6.795707e+02
2.936093e+03,6.800185e+02
2.937057e+03,6.868040e+02
2.938021e+03,6.872202e+02
2.938985e+03,6.852285e+02
2.939949e+03,6.862809e+02
2.940914e+03,6.889619e+02
2.941878e+03,6.928102e+02
2.942842e+03,6.956957e+02
2.943806e+03,6.964264e+02
2.944771e+03,7.015225e+02
2.945735e+03,7.065418e+02
2.946699e+03,7.052792e+02
2.947663e+03,7.013220e+02
2.948627e+03,6.954636e+02
2.949592e+03,6.914147e+02
2.950556e+03,6.908484e+02
2.951520e+03,6.993396e+02
2.952484e+03,7.047401e+02
2.953449e+03,6.933561e+02
2.954413e+03,6.906996e+02
2.955377e+03,7.078511e+02
2.956341e+03,7.315951e+02
2.957306e+03,7.548944e+02
2.958270e+03,7.589504e+02
2.959234e+03,7.451184e+02
2.960198e+03,7.170453e+02
2.961163e+03,6.992948e+02
2.962127e+03,7.025347e+02
2.963091e+03,7.026996e+02
2.964055e+03,6.962571e+02
2.965020e+03,6.792790e+02
2.965984e+03,6.689907e+02
2.966948e+03,6.767552e+02
2.967912e+03,6.877230e+02
2.968876e+03,6.987887e+02
2.969841e+03,6.900919e+02
2.970805e+03,6.711962e+02
2.971769e+03,6.596224e+02
2.972733e+03,6.613044e+02
2.973698e+03,6.830052e+02
2.974662e+03,6.883956e+02
2.975626e+03,6.671636e+02
2.976590e+03,6.707863e+02
2.977554e+03,6.817728e+02
2.978519e+03,6.755302e+02
2.979483e+03,6.646144e+02
2.980447e+03,6.578458e+02
2.981411e+03,6.503115e+02
2.982376e+03,6.445705e+02
2.983340e+03,6.594078e+02
2.984304e+03,6.714929e+02
2.985268e+03,6.575963e+02
2.986233e+03,6.398376e+02
2.987197e+03,6.278873e+02
2.988161e+03,6.307207e+02
2.989125e+03,6.451102e+02
2.990090e+03,6.590873e+02
2.991054e+03,6.652366e+02
2.992018e+03,6.574947e+02
2.992982e+03,6.491143e+02
2.993947e+03,6.452747e+02
2.994911e+03,6.517418e+02
2.995875e+03,6.585322e+02
2.996839e+03,6.438437e+02
2.997803e+03,6.392310e+02
2.998768e+03,6.673116e+02
2.999732e+03,6.830823e+02
3.000696e+03,6.773010e+02
3.001660e+03,6.469327e+02
3.002625e+03,6.299216e+02
3.003589e+03,6.647783e+02
3.004553e+03,6.942387e+02
3.005517e+03,6.919625e+02
3.006481e+03,6.769090e+02
3.007446e+03,6.572344e+02
3.008410e+03,6.570214e+02
3.009374e+03,6.648278e+02
3.010338e+03,6.736672e+02
3.011303e+03,6.766018e+02
3.012267e+03,6.702978e+02
3.013231e+03,6.619811e+02
3.014195e+03,6.497170e+02
3.015160e+03,6.215013e+02
3.016124e+03,6.134836e+02
3.017088e+03,6.345037e+02
3.018052e+03,6.560775e+02
3.019017e+03,6.705658e+02
3.019981e+03,6.726080e+02
3.020945e+03,6.624221e+02
3.021909e+03,6.372073e+02
3.022874e+03,6.252926e+02
3.023838e+03,6.297376e+02
3.024802e+03,6.402184e+02
3.025766e+03,6.489632e+02
3.026730e+03,6.327956e+02
3.027695e+03,6.251909e+02
3.028659e+03,6.407419e+02
3.029623e+03,6.546458e+02
3.030587e+03,6.629860e+02
3.031552e+03,6.706299e+02
3.032516e+03,6.697768e+02
3.033480e+03,6.435901e+02
3.034444e+03,6.220814e+02
3.035408e+03,6.120652e+02
3.036373e+03,6.205847e+02
3.037337e+03,6.370584e+02
3.038301e+03,6.338267e+02
3.039265e+03,6.308456e+02
3.040230e+03,6.394587e+02
3.041194e+03,6.500187e+02
3.042158e+03,6.578769e+02
3.043122e+03,6.491317e+02
3.044087e+03,6.383274e+02
3.045051e+03,6.457461e+02
3.046015e+03,6.526328e+02
3.046979e+03,6.543441e+02
3.047944e+03,6.450988e+02
3.048908e+03,6.347197e+02
3.049872e+03,6.384399e+02
3.050836e+03,6.400242e+02
3.051801e+03,6.275891e+02
3.052765e+03,6.143064e+02
3.053729e+03,6.033829e+02
3.054693e+03,6.004603e+02
3.055657e+03,6.099899e+02
3.056622e+03,6.334631e+02
3.057586e+03,6.476236e+02
3.058550e+03,6.461809e+02
3.059514e+03,6.402577e+02
3.060479e+03,6.341229e+02
3.061443e+03,6.296722e+02
3.062407e+03,6.345098e+02
3.063371e+03,6.483939e+02
3.064335e+03,6.523122e+02
3.065300e+03,6.469097e+02
3.066264e+03,6.344948e+02
3.067228e+03,6.282036e+02
3.068192e+03,6.384193e+02
3.069157e+03,6.398226e+02
3.070121e+03,6.346104e+02
3.071085e+03,6.495651e+02
3.072049e+03,6.664757e+02
3.073014e+03,6.521789e+02
3.073978e+03,6.444044e+02
3.074942e+03,6.499130e+02
3.075906e+03,6.410764e+02
3.076871e+03,6.290187e+02
3.077835e+03,6.320280e+02
3.078799e+03,6.392448e+02
3.079763e+03,6.445988e+02
3.080728e+03,6.502502e+02
3.081692e+03,6.550381e+02
3.082656e+03,6.548044e+02
3.083620e+03,6.493795e+02
3.084584e+03,6.393590e+02
3.085549e+03,6.418881e+02
3.086513e+03,6.592200e+02
3.087477e+03,6.541580e+02
3.088441e+03,6.392705e+02
3.089406e+03,6.243055e+02
3.090370e+03,6.298823e+02
3.091334e+03,6.521750e+02
3.092298e+03,6.396742e+02
3.093262e+03,6.135499e+02
3.094227e+03,6.218998e+02
3.095191e+03,6.346676e+02
3.096155e+03,6.426074e+02
3.097119e+03,6.313828e+02
3.098084e+03,6.127849e+02
3.099048e+03,6.061641e+02
3.100012e+03,6.160272e+02
3.100976e+03,6.564522e+02
3.101941e+03,6.514738e+02
3.102905e+03,6.062559e+02
3.103869e+03,5.961524e+02
3.104833e+03,6.025081e+02
3.105798e+03,6.107513e+02
3.106762e+03,6.210817e+02
3.107726e+03,6.330429e+02
3.108690e+03,6.298915e+02
3.109655e+03,6.231415e+02
3.110619e+03,6.288583e+02
3.111583e+03,6.330703e+02
3.112547e+03,6.327773e+02
3.113511e+03,6.201705e+02
3.114476e+03,6.038194e+02
3.115440e+03,5.986061e+02
3.116404e+03,6.043683e+02
3.117368e+03,6.268977e+02
3.118333e+03,6.334222e+02
3.119297e+03,6.345344e+02
3.120261e+03,6.518200e+02
3.121225e+03,6.591044e+02
3.122189e+03,6.411419e+02
3.123154e+03,6.328560e+02
3.124118e+03,6.372913e+02
3.125082e+03,6.613743e+02
3.126046e+03,6.668698e+02
3.127011e+03,6.362929e+02
3.127975e+03,6.223144e+02
3.128939e+03,6.268646e+02
3.129903e+03,6.335263e+02
3.130868e+03,6.381251e+02
3.131832e+03,6.353814e+02
3.132796e+03,6.303665e+02
3.133760e+03,6.277536e+02
3.134725e+03,6.512269e+02
3.135689e+03,6.634238e+02
3.136653e+03,6.264696e+02
3.137617e+03,6.117722e+02
3.138582e+03,6.406423e+02
3.139546e+03,6.468698e+02
3.140510e+03,6.392276e+02
3.141474e+03,6.264222e+02
3.142438e+03,6.293626e+02
3.143403e+03,6.451673e+02
3.144367e+03,6.236715e+02
3.145331e+03,5.927543e+02
3.146295e+03,6.036829e+02
3.147260e+03,6.209377e+02
3.148224e+03,6.339503e+02
3.149188e+03,6.231617e+02
3.150152e+03,6.041808e+02
3.151116e+03,5.942827e+02
3.152081e+03,6.080997e+02
3.153045e+03,6.505101e+02
3.154009e+03,6.582346e+02
3.154973e+03,6.407903e+02
3.155938e+03,6.132303e+02
3.156902e+03,6.077584e+02
3.157866e+03,6.271598e+02
3.158830e+03,6.172250e+02
3.159795e+03,5.957618e+02
3.160759e+03,6.224864e+02
3.161723e+03,6.406414e+02
3.162687e+03,6.084281e+02
3.163652e+03,6.042512e+02
3.164616e+03,6.231105e+02
3.165580e+03,6.534667e+02
3.166544e+03,6.675208e+02
3.167509e+03,6.573021e+02
3.168473e+03,6.427582e+02
3.169437e+03,6.299338e+02
3.170401e+03,6.275372e+02
3.171365e+03,6.285377e+02
3.172330e+03,6.305550e+02
3.173294e+03,6.320731e+02
3.174258e+03,6.315846e+02
3.175222e+03,6.253394e+02
3.176187e+03,6.198558e+02
3.177151e+03,6.202116e+02
3.178115e+03,6.269916e+02
3.179079e+03,6.387947e+02
3.180043e+03,6.569232e+02
3.181008e+03,6.560571e+02
3.181972e+03,6.316390e+02
3.182936e+03,6.271700e+02
3.183900e+03,6.406414e+02
3.184865e+03,6.651082e+02
3.185829e+03,6.816708e+02
3.186793e+03,6.824755e+02
3.187757e+03,6.409667e+02
3.188722e+03,5.982467e+02
3.189686e+03,6.524410e+02
3.190650e+03,6.823876e+02
3.191614e+03,6.444177e+02
3.192579e+03,6.267719e+02
3.193543e+03,6.328405e+02
3.194507e+03,6.510908e+02
3.195471e+03,6.566352e+02
3.196436e+03,6.362401e+02
3.197400e+03,6.250959e+02
3.198364e+03,6.315057e+02
3.199328e+03,6.665369e+02
3.200292e+03,6.937839e+02
3.201257e+03,0.000000e+00
3.202221e+03,0.000000e+00
3.203185e+03,0.000000e+00
3.204149e+03,0.000000e+00
3.205114e+03,0.000000e+00
3.206078e+03,0.000000e+00
3.207042e+03,0.000000e+00
3.208006e+03,0.000000e+00
3.208970e+03,0.000000e+00
3.209935e+03,0.000000e+00
3.210899e+03,0.000000e+00
3.211863e+03,0.000000e+00
3.212827e+03,0.000000e+00
3.213792e+03,0.000000e+00
3.214756e+03,0.000000e+00
3.215720e+03,0.000000e+00
3.216684e+03,0.000000e+00
3.217649e+03,0.000000e+00
3.218613e+03,0.000000e+00
3.219577e+03,0.000000e+00
3.220541e+03,0.000000e+00
3.221506e+03,0.000000e+00
3.222470e+03,0.000000e+00
3.223434e+03,0.000000e+00
3.224398e+03,0.000000e+00
3.225363e+03,0.000000e+00
3.226327e+03,0.000000e+00
3.227291e+03,0.000000e+00
3.228255e+03,0.000000e+00
3.229219e+03,0.000000e+00
3.230184e+03,0.000000e+00
3.231148e+03,0.000000e+00
3.232112e+03,0.000000e+00
3.233076e+03,0.000000e+00
3.234041e+03,0.000000e+00
3.235005e+03,0.000000e+00
3.235969e+03,0.000000e+00
3.236933e+03,0.000000e+00
3.237897e+03,0.000000e+00
3.238862e+03,0.000000e+00
3.239826e+03,0.000000e+00
3.240790e+03,0.000000e+00
3.241754e+03,0.000000e+00
3.242719e+03,0.000000e+00
3.243683e+03,0.000000e+00
3.244647e+03,0.000000e+00
3.245611e+03,0.000000e+00
3.246576e+03,0.000000e+00
3.247540e+03,0.000000e+00
3.248504e+03,0.000000e+00
3.249468e+03,0.000000e+00
3.250433e+03,0.000000e+00
3.251397e+03,0.000000e+00
3.252361e+03,0.000000e+00
3.253325e+03,0.000000e+00
3.254290e+03,0.000000e+00
3.255254e+03,0.000000e+00
3.256218e+03,0.000000e+00
3.257182e+03,0.000000e+00
3.258146e+03,0.000000e+00
3.259111e+03,0.000000e+00
3.260075e+03,0.000000e+00
3.261039e+03,0.000000e+00
3.262003e+03,0.000000e+00
3.262968e+03,0.000000e+00
3.263932e+03,0.000000e+00
3.264896e+03,0.000000e+00
3.265860e+03,0.000000e+00
3.266824e+03,0.000000e+00
3.267789e+03,0.000000e+00
3.268753e+03,0.000000e+00
3.269717e+03,0.000000e+00
3.270681e+03,0.000000e+00
3.271646e+03,0.000000e+00
3.272610e+03,0.000000e+00
3.273574e+03,0.000000e+00
3.274538e+03,0.000000e+00
3.275503e+03,0.000000e+00
3.276467e+03,0.000000e+00
3.277431e+03,0.000000e+00
3.278395e+03,0.000000e+00
3.279360e+03,0.000000e+00
3.280324e+03,0.000000e+00
3.281288e+03,0.000000e+00
3.282252e+03,0.000000e+00
3.283217e+03,0.000000e+00
3.284181e+03,0.000000e+00
3.285145e+03,0.000000e+00
3.286109e+03,0.000000e+00
3.287073e+03,0.000000e+00
3.288038e+03,0.000000e+00
3.289002e+03,0.000000e+00
3.289966e+03,0.000000e+00
3.290930e+03,0.000000e+00
3.291895e+03,0.000000e+00
3.292859e+03,0.000000e+00
3.293823e+03,0.000000e+00
3.294787e+03,0.000000e+00
3.295751e+03,0.000000e+00
3.296716e+03,0.000000e+00
3.297680e+03,0.000000e+00
3.298644e+03,0.000000e+00
3.299608e+03,0.000000e+00
3.300573e+03,0.000000e+00
3.301537e+03,0.000000e+00
3.302501e+03,0.000000e+00
3.303465e+03,0.000000e+00
3.304430e+03,0.000000e+00
3.305394e+03,0.000000e+00
3.306358e+03,0.000000e+00
3.307322e+03,0.000000e+00
3.308287e+03,0.000000e+00
3.309251e+03,0.000000e+00
3.310215e+03,0.000000e+00
3.311179e+03,0.000000e+00
3.312144e+03,0.000000e+00
3.313108e+03,0.000000e+00
3.314072e+03,0.000000e+00
3.315036e+03,0.000000e+00
3.316000e+03,0.000000e+00
3.316965e+03,0.000000e+00
3.317929e+03,0.000000e+00
3.318893e+03,0.000000e+00
3.319857e+03,0.000000e+00
3.320822e+03,0.000000e+00
3.321786e+03,0.000000e+00
3.322750e+03,0.000000e+00
3.323714e+03,0.000000e+00
3.324678e+03,0.000000e+00
3.325643e+03,0.000000e+00
3.326607e+03,0.000000e+00
3.327571e+03,0.000000e+00
3.328535e+03,0.000000e+00
3.329500e+03,0.000000e+00
3.330464e+03,0.000000e+00
3.331428e+03,0.000000e+00
3.332392e+03,0.000000e+00
3.333357e+03,0.000000e+00
3.334321e+03,0.000000e+00
3.335285e+03,0.000000e+00
3.336249e+03,0.000000e+00
3.337214e+03,0.000000e+00
3.338178e+03,0.000000e+00
3.339142e+03,0.000000e+00
3.340106e+03,0.000000e+00
3.341071e+03,0.000000e+00
3.342035e+03,0.000000e+00
3.342999e+03,0.000000e+00
3.343963e+03,0.000000e+00
3.344927e+03,0.000000e+00
3.345892e+03,0.000000e+00
3.346856e+03,0.000000e+00
3.347820e+03,0.000000e+00
3.348784e+03,0.000000e+00
3.349749e+03,0.000000e+00
3.350713e+03,0.000000e+00
3.351677e+03,0.000000e+00
3.352641e+03,0.000000e+00
3.353605e+03,0.000000e+00
3.354570e+03,0.000000e+00
3.355534e+03,0.000000e+00
3.356498e+03,0.000000e+00
3.357462e+03,0.000000e+00
3.358427e+03,0.000000e+00
3.359391e+03,0.000000e+00
3.360355e+03,0.000000e+00
3.361319e+03,0.000000e+00
3.362284e+03,0.000000e+00
3.363248e+03,0.000000e+00
3.364212e+03,0.000000e+00
3.365176e+03,0.000000e+00
3.366141e+03,0.000000e+00
3.367105e+03,0.000000e+00
3.368069e+03,0.000000e+00
3.369033e+03,0.000000e+00
3.369998e+03,0.000000e+00
3.370962e+03,0.000000e+00
3.371926e+03,0.000000e+00
3.372890e+03,0.000000e+00
3.373854e+03,0.000000e+00
3.374819e+03,0.000000e+00
3.375783e+03,0.000000e+00
3.376747e+03,0.000000e+00
3.377711e+03,0.000000e+00
3.378676e+03,0.000000e+00
3.379640e+03,0.000000e+00
3.380604e+03,0.000000e+00
3.381568e+03,0.000000e+00
3.382532e+03,0.000000e+00
3.383497e+03,0.000000e+00
3.384461e+03,0.000000e+00
3.385425e+03,0.000000e+00
3.386389e+03,0.000000e+00
3.387354e+03,0.000000e+00
3.388318e+03,0.000000e+00
3.389282e+03,0.000000e+00
3.390246e+03,0.000000e+00
3.391211e+03,0.000000e+00
3.392175e+03,0.000000e+00
3.393139e+03,0.000000e+00
3.394103e+03,0.000000e+00
3.395068e+03,0.000000e+00
3.396032e+03,0.000000e+00
3.396996e+03,0.000000e+00
3.397960e+03,0.000000e+00
3.398925e+03,0.000000e+00
3.399889e+03,0.000000e+00
3.400853e+03,0.000000e+00
3.401817e+03,0.000000e+00
3.402781e+03,0.000000e+00
3.403746e+03,0.000000e+00
3.404710e+03,0.000000e+00
3.405674e+03,0.000000e+00
3.406638e+03,0.000000e+00
3.407603e+03,0.000000e+00
3.408567e+03,0.000000e+00
3.409531e+03,0.000000e+00
3.410495e+03,0.000000e+00
3.411459e+03,0.000000e+00
3.412424e+03,0.000000e+00
3.413388e+03,0.000000e+00
3.414352e+03,0.000000e+00
3.415316e+03,0.000000e+00
3.416281e+03,0.000000e+00
3.417245e+03,0.000000e+00
3.418209e+03,0.000000e+00
3.419173e+03,0.000000e+00
3.420138e+03,0.000000e+00
3.421102e+03,0.000000e+00
3.422066e+03,0.000000e+00
3.423030e+03,0.000000e+00
3.423995e+03,0.000000e+00
3.424959e+03,0.000000e+00
3.425923e+03,0.000000e+00
3.426887e+03,0.000000e+00
3.427852e+03,0.000000e+00
3.428816e+03,0.000000e+00
3.429780e+03,0.000000e+00
3.430744e+03,0.000000e+00
3.431708e+03,0.000000e+00
3.432673e+03,0.000000e+00
3.433637e+03,0.000000e+00
3.434601e+03,0.000000e+00
3.435565e+03,0.000000e+00
3.436530e+03,0.000000e+00
3.437494e+03,0.000000e+00
3.438458e+03,0.000000e+00
3.439422e+03,0.000000e+00
3.440386e+03,0.000000e+00
3.441351e+03,0.000000e+00
3.442315e+03,0.000000e+00
3.443279e+03,0.000000e+00
3.444243e+03,0.000000e+00
3.445208e+03,0.000000e+00
3.446172e+03,0.000000e+00
3.447136e+03,0.000000e+00
3.448100e+03,0.000000e+00
3.449065e+03,0.000000e+00
3.450029e+03,0.000000e+00
3.450993e+03,0.000000e+00
3.451957e+03,0.000000e+00
3.452922e+03,0.000000e+00
3.453886e+03,0.000000e+00
3.454850e+03,0.000000e+00
3.455814e+03,0.000000e+00
3.456779e+03,0.000000e+00
3.457743e+03,0.000000e+00
3.458707e+03,0.000000e+00
3.459671e+03,0.000000e+00
3.460635e+03,0.000000e+00
3.461600e+03,0.000000e+00
3.462564e+03,0.000000e+00
3.463528e+03,0.000000e+00
3.464492e+03,0.000000e+00
3.465457e+03,0.000000e+00
3.466421e+03,0.000000e+00
3.467385e+03,0.000000e+00
3.468349e+03,0.000000e+00
3.469313e+03,0.000000e+00
3.470278e+03,0.000000e+00
3.471242e+03,0.000000e+00
3.472206e+03,0.000000e+00
3.473170e+03,0.000000e+00
3.474135e+03,0.000000e+00
3.475099e+03,0.000000e+00
3.476063e+03,0.000000e+00
3.477027e+03,0.000000e+00
3.477992e+03,0.000000e+00
3.478956e+03,0.000000e+00
3.479920e+03,0.000000e+00
3.480884e+03,0.000000e+00
3.481849e+03,0.000000e+00
3.482813e+03,0.000000e+00
3.483777e+03,0.000000e+00
3.484741e+03,0.000000e+00
3.485706e+03,0.000000e+00
3.486670e+03,0.000000e+00
3.487634e+03,0.000000e+00
3.488598e+03,0.000000e+00
3.489563e+03,0.000000e+00
3.490527e+03,0.000000e+00
3.491491e+03,0.000000e+00
3.492455e+03,0.000000e+00
3.493419e+03,0.000000e+00
3.494384e+03,0.000000e+00
3.495348e+03,0.000000e+00
3.496312e+03,0.000000e+00
3.497276e+03,0.000000e+00
3.498240e+03,0.000000e+00
3.499205e+03,0.000000e+00
3.500169e+03,0.000000e+00
