9.931763e+01,0.000000e+00
1.002819e+02,0.000000e+00
1.012461e+02,0.000000e+00
1.022103e+02,0.000000e+00
1.031746e+02,0.000000e+00
1.041388e+02,0.000000e+00
1.051030e+02,0.000000e+00
1.060673e+02,0.000000e+00
1.070315e+02,0.000000e+00
1.079957e+02,0.000000e+00
1.089600e+02,0.000000e+00
1.099242e+02,0.000000e+00
1.108884e+02,0.000000e+00
1.118527e+02,0.000000e+00
1.128169e+02,0.000000e+00
1.137811e+02,0.000000e+00
1.147454e+02,0.000000e+00
1.157096e+02,0.000000e+00
1.166738e+02,0.000000e+00
1.176381e+02,0.000000e+00
1.186023e+02,0.000000e+00
1.195665e+02,0.000000e+00
1.205308e+02,0.000000e+00
1.214950e+02,0.000000e+00
1.224592e+02,0.000000e+00
1.234235e+02,0.000000e+00
1.243877e+02,0.000000e+00
1.253519e+02,0.000000e+00
1.263162e+02,0.000000e+00
1.272804e+02,0.000000e+00
1.282446e+02,0.000000e+00
1.292089e+02,0.000000e+00
1.301731e+02,0.000000e+00
1.311373e+02,0.000000e+00
1.321016e+02,0.000000e+00
1.330658e+02,0.000000e+00
1.340300e+02,0.000000e+00
1.349943e+02,0.000000e+00
1.359585e+02,0.000000e+00
1.369227e+02,0.000000e+00
1.378870e+02,0.000000e+00
1.388512e+02,0.000000e+00
1.398154e+02,0.000000e+00
1.407797e+02,0.000000e+00
1.417439e+02,0.000000e+00
1.427081e+02,0.000000e+00
1.436724e+02,0.000000e+00
1.446366e+02,0.000000e+00
1.456008e+02,0.000000e+00
1.465651e+02,0.000000e+00
1.475293e+02,0.000000e+00
1.484935e+02,0.000000e+00
1.494578e+02,0.000000e+00
1.504220e+02,0.000000e+00
1.513862e+02,0.000000e+00
1.523505e+02,0.000000e+00
1.533147e+02,0.000000e+00
1.542789e+02,0.000000e+00
1.552432e+02,0.000000e+00
1.562074e+02,0.000000e+00
1.571716e+02,0.000000e+00
1.581359e+02,0.000000e+00
1.591001e+02,0.000000e+00
1.600643e+02,0.000000e+00
1.610286e+02,0.000000e+00
1.619928e+02,0.000000e+00
1.629570e+02,0.000000e+00
1.639213e+02,0.000000e+00
1.648855e+02,0.000000e+00
1.658497e+02,0.000000e+00
1.668140e+02,0.000000e+00
1.677782e+02,0.000000e+00
1.687424e+02,0.000000e+00
1.697067e+02,0.000000e+00
1.706709e+02,0.000000e+00
1.716351e+02,0.000000e+00
1.725994e+02,0.000000e+00
1.735636e+02,0.000000e+00
1.745278e+02,0.000000e+00
1.754921e+02,0.000000e+00
1.764563e+02,0.000000e+00
1.774205e+02,0.000000e+00
1.783848e+02,0.000000e+00
1.793490e+02,0.000000e+00
1.803132e+02,0.000000e+00
1.812775e+02,0.000000e+00
1.822417e+02,0.000000e+00
1.832059e+02,0.000000e+00
1.841702e+02,0.000000e+00
1.851344e+02,0.000000e+00
1.860986e+02,0.000000e+00
1.870629e+02,0.000000e+00
1.880271e+02,0.000000e+00
1.889913e+02,0.000000e+00
1.899556e+02,0.000000e+00
1.909198e+02,0.000000e+00
1.918840e+02,0.000000e+00
1.928483e+02,0.000000e+00
1.938125e+02,0.000000e+00
1.947767e+02,0.000000e+00
1.957410e+02,0.000000e+00
1.967052e+02,0.000000e+00
1.976694e+02,0.000000e+00
1.986337e+02,0.000000e+00
1.995979e+02,1.045472e+03
2.005621e+02,1.048589e+03
2.015264e+02,1.050755e+03
2.024906e+02,1.050886e+03
2.034548e+02,1.050865e+03
2.044191e+02,1.051134e+03
2.053833e+02,1.051374e+03
2.063475e+02,1.050914e+03
2.073118e+02,1.048622e+03
2.082760e+02,1.043286e+03
2.092402e+02,1.039992e+03
2.102045e+02,1.040347e+03
2.111687e+02,1.042757e+03
2.121329e+02,1.046414e+03
2.130972e+02,1.051272e+03
2.140614e+02,1.056104e+03
2.150256e+02,1.058031e+03
2.159899e+02,1.055483e+03
2.169541e+02,1.052318e+03
2.179183e+02,1.049615e+03
2.188826e+02,1.047486e+03
2.198468e+02,1.046604e+03
2.208110e+02,1.048511e+03
2.217753e+02,1.052942e+03
2.227395e+02,1.055100e+03
2.237037e+02,1.053081e+03
2.246680e+02,1.049656e+03
2.256322e+02,1.047168e+03
2.265964e+02,1.046600e+03
2.275607e+02,1.047061e+03
2.285249e+02,1.047693e+03
2.294892e+02,1.048586e+03
2.304534e+02,1.049320e+03
2.314176e+02,1.048433e+03
2.323819e+02,1.046205e+03
2.333461e+02,1.044959e+03
2.343103e+02,1.046577e+03
2.352746e+02,1.049776e+03
2.362388e+02,1.051851e+03
2.372030e+02,1.051728e+03
2.381673e+02,1.050037e+03
2.391315e+02,1.048698e+03
2.400957e+02,1.048625e+03
2.410600e+02,1.048682e+03
2.420242e+02,1.048306e+03
2.429884e+02,1.047981e+03
2.439527e+02,1.048766e+03
2.449169e+02,1.051293e+03
2.458811e+02,1.055675e+03
2.468454e+02,1.058498e+03
2.478096e+02,1.059080e+03
2.487738e+02,1.058720e+03
2.497381e+02,1.058100e+03
2.507023e+02,1.057400e+03
2.516665e+02,1.056720e+03
2.526308e+02,1.056126e+03
2.535950e+02,1.054931e+03
2.545592e+02,1.053769e+03
2.555235e+02,1.052473e+03
2.564877e+02,1.051549e+03
2.574519e+02,1.051955e+03
2.584161e+02,1.054741e+03
2.593804e+02,1.059643e+03
2.603446e+02,1.062173e+03
2.613088e+02,1.058748e+03
2.622731e+02,1.055232e+03
2.632373e+02,1.052853e+03
2.642015e+02,1.051580e+03
2.651658e+02,1.051269e+03
2.661300e+02,1.052974e+03
2.670942e+02,1.057804e+03
2.680585e+02,1.060382e+03
2.690227e+02,1.057179e+03
2.699869e+02,1.052493e+03
2.709512e+02,1.049269e+03
2.719154e+02,1.049058e+03
2.728796e+02,1.050443e+03
2.738439e+02,1.051445e+03
2.748081e+02,1.052167e+03
2.757723e+02,1.053363e+03
2.767366e+02,1.054958e+03
2.777008e+02,1.056372e+03
2.786650e+02,1.057048e+03
2.796293e+02,1.056435e+03
2.805935e+02,1.055484e+03
2.815577e+02,1.055788e+03
2.825220e+02,1.057876e+03
2.834862e+02,1.060428e+03
2.844504e+02,1.061196e+03
2.854147e+02,1.059653e+03
2.863789e+02,1.058020e+03
2.873431e+02,1.056990e+03
2.883074e+02,1.056678e+03
2.892716e+02,1.057067e+03
2.902358e+02,1.058120e+03
2.912001e+02,1.059708e+03
2.921643e+02,1.059842e+03
2.931285e+02,1.056467e+03
2.940928e+02,1.054040e+03
2.950570e+02,1.054924e+03
2.960212e+02,1.058737e+03
2.969855e+02,1.063205e+03
2.979497e+02,1.066164e+03
2.989139e+02,1.067824e+03
2.998782e+02,1.067901e+03
3.008424e+02,1.065531e+03
3.018066e+02,1.062837e+03
3.027709e+02,1.061020e+03
3.037351e+02,1.060405e+03
3.046993e+02,1.060456e+03
3.056636e+02,1.060714e+03
3.066278e+02,1.061851e+03
3.075920e+02,1.062096e+03
3.085563e+02,1.059333e+03
3.095205e+02,1.055172e+03
3.104847e+02,1.052966e+03
3.114490e+02,1.054884e+03
3.124132e+02,1.059201e+03
3.133774e+02,1.062945e+03
3.143417e+02,1.065891e+03
3.153059e+02,1.067542e+03
3.162701e+02,1.067357e+03
3.172344e+02,1.065143e+03
3.181986e+02,1.063023e+03
3.191628e+02,1.061442e+03
3.201271e+02,1.060475e+03
3.210913e+02,1.060250e+03
3.220555e+02,1.060832e+03
3.230198e+02,1.062022e+03
3.239840e+02,1.063007e+03
3.249482e+02,1.063453e+03
3.259125e+02,1.063902e+03
3.268767e+02,1.064758e+03
3.278409e+02,1.065871e+03
3.288052e+02,1.066742e+03
3.297694e+02,1.066877e+03
3.307336e+02,1.066139e+03
3.316979e+02,1.065238e+03
3.326621e+02,1.063441e+03
3.336263e+02,1.061758e+03
3.345906e+02,1.060945e+03
3.355548e+02,1.061500e+03
3.365190e+02,1.062865e+03
3.374833e+02,1.064668e+03
3.384475e+02,1.066983e+03
3.394117e+02,1.068149e+03
3.403760e+02,1.066327e+03
3.413402e+02,1.062816e+03
3.423044e+02,1.060117e+03
3.432687e+02,1.058869e+03
3.442329e+02,1.058316e+03
3.451971e+02,1.057377e+03
3.461614e+02,1.055759e+03
3.471256e+02,1.054437e+03
3.480898e+02,1.054910e+03
3.490541e+02,1.058604e+03
3.500183e+02,1.060408e+03
3.509825e+02,1.059174e+03
3.519468e+02,1.057221e+03
3.529110e+02,1.056174e+03
3.538752e+02,1.056250e+03
3.548395e+02,1.056691e+03
3.558037e+02,1.056341e+03
3.567680e+02,1.053911e+03
3.577322e+02,1.052976e+03
3.586964e+02,1.054932e+03
3.596607e+02,1.058540e+03
3.606249e+02,1.062297e+03
3.615891e+02,1.065656e+03
3.625534e+02,1.067705e+03
3.635176e+02,1.066482e+03
3.644818e+02,1.060813e+03
3.654461e+02,1.055562e+03
3.664103e+02,1.054244e+03
3.673745e+02,1.056727e+03
3.683388e+02,1.060587e+03
3.693030e+02,1.065674e+03
3.702672e+02,1.070786e+03
3.712315e+02,1.074057e+03
3.721957e+02,1.074816e+03
3.731599e+02,1.074461e+03
3.741242e+02,1.075569e+03
3.750884e+02,1.082994e+03
3.760526e+02,1.086762e+03
3.770169e+02,1.082911e+03
3.779811e+02,1.075675e+03
3.789453e+02,1.070337e+03
3.799096e+02,1.069587e+03
3.808738e+02,1.071819e+03
3.818380e+02,1.071173e+03
3.828023e+02,1.065762e+03
3.837665e+02,1.060846e+03
3.847307e+02,1.057927e+03
3.856950e+02,1.056487e+03
3.866592e+02,1.055247e+03
3.876234e+02,1.052851e+03
3.885877e+02,1.049975e+03
3.895519e+02,1.048754e+03
3.905161e+02,1.049494e+03
3.914804e+02,1.051255e+03
3.924446e+02,1.054061e+03
3.934088e+02,1.059415e+03
3.943731e+02,1.061475e+03
3.953373e+02,1.055177e+03
3.963015e+02,1.045376e+03
3.972658e+02,1.039220e+03
3.982300e+02,1.039549e+03
3.991942e+02,1.044596e+03
4.001585e+02,1.048596e+03
4.011227e+02,1.049742e+03
4.020869e+02,1.051078e+03
4.030512e+02,1.053898e+03
4.040154e+02,1.056604e+03
4.049796e+02,1.056949e+03
4.059439e+02,1.052048e+03
4.069081e+02,1.043939e+03
4.078723e+02,1.040855e+03
4.088366e+02,1.045029e+03
4.098008e+02,1.049589e+03
4.107650e+02,1.050240e+03
4.117293e+02,1.047473e+03
4.126935e+02,1.045153e+03
4.136577e+02,1.044347e+03
4.146220e+02,1.044801e+03
4.155862e+02,1.046830e+03
4.165504e+02,1.050765e+03
4.175147e+02,1.054818e+03
4.184789e+02,1.056077e+03
4.194431e+02,1.051222e+03
4.204074e+02,1.047316e+03
4.213716e+02,1.044573e+03
4.223358e+02,1.042740e+03
4.233001e+02,1.041505e+03
4.242643e+02,1.040737e+03
4.252285e+02,1.040808e+03
4.261928e+02,1.042833e+03
4.271570e+02,1.047989e+03
4.281212e+02,1.052697e+03
4.290855e+02,1.055522e+03
4.300497e+02,1.056621e+03
4.310139e+02,1.056257e+03
4.319782e+02,1.053101e+03
4.329424e+02,1.049431e+03
4.339066e+02,1.047688e+03
4.348709e+02,1.047945e+03
4.358351e+02,1.049331e+03
4.367993e+02,1.051395e+03
4.377636e+02,1.055386e+03
4.387278e+02,1.056689e+03
4.396920e+02,1.053392e+03
4.406563e+02,1.049069e+03
4.416205e+02,1.046235e+03
4.425847e+02,1.045454e+03
4.435490e+02,1.045171e+03
4.445132e+02,1.042991e+03
4.454774e+02,1.038412e+03
4.464417e+02,1.035179e+03
4.474059e+02,1.034619e+03
4.483701e+02,1.035438e+03
4.493344e+02,1.036231e+03
4.502986e+02,1.037076e+03
4.512628e+02,1.038010e+03
4.522271e+02,1.039108e+03
4.531913e+02,1.040313e+03
4.541555e+02,1.041463e+03
4.551198e+02,1.042558e+03
4.560840e+02,1.043651e+03
4.570482e+02,1.043115e+03
4.580125e+02,1.039682e+03
4.589767e+02,1.036786e+03
4.599409e+02,1.035484e+03
4.609052e+02,1.035312e+03
4.618694e+02,1.035130e+03
4.628336e+02,1.034205e+03
4.637979e+02,1.032664e+03
4.647621e+02,1.031193e+03
4.657263e+02,1.030546e+03
4.666906e+02,1.029787e+03
4.676548e+02,1.026892e+03
4.686190e+02,1.020354e+03
4.695833e+02,1.016166e+03
4.705475e+02,1.017955e+03
4.715117e+02,1.022658e+03
4.724760e+02,1.026103e+03
4.734402e+02,1.026978e+03
4.744044e+02,1.026044e+03
4.753687e+02,1.024776e+03
4.763329e+02,1.022158e+03
4.772971e+02,1.020906e+03
4.782614e+02,1.022916e+03
4.792256e+02,1.026038e+03
4.801898e+02,1.027375e+03
4.811541e+02,1.024275e+03
4.821183e+02,1.019715e+03
4.830826e+02,1.018172e+03
4.840468e+02,1.019721e+03
4.850110e+02,1.021684e+03
4.859753e+02,1.022895e+03
4.869395e+02,1.023241e+03
4.879037e+02,1.022310e+03
4.888680e+02,1.017705e+03
4.898322e+02,1.014047e+03
4.907964e+02,1.015036e+03
4.917607e+02,1.020103e+03
4.927249e+02,1.025214e+03
4.936891e+02,1.025993e+03
4.946534e+02,1.022071e+03
4.956176e+02,1.019562e+03
4.965818e+02,1.020003e+03
4.975461e+02,1.020795e+03
4.985103e+02,1.019296e+03
4.994745e+02,1.014506e+03
5.004388e+02,1.010468e+03
5.014030e+02,1.009982e+03
5.023672e+02,1.011534e+03
5.033315e+02,1.012252e+03
5.042957e+02,1.011110e+03
5.052599e+02,1.009033e+03
5.062242e+02,1.008391e+03
5.071884e+02,1.010823e+03
5.081526e+02,1.012656e+03
5.091169e+02,1.013304e+03
5.100811e+02,1.013510e+03
5.110453e+02,1.013974e+03
5.120095e+02,1.015520e+03
5.129738e+02,1.017070e+03
5.139380e+02,1.016680e+03
5.149022e+02,1.014428e+03
5.158665e+02,1.012915e+03
5.168307e+02,1.013508e+03
5.177949e+02,1.015624e+03
5.187592e+02,1.015922e+03
5.197234e+02,1.015160e+03
5.206876e+02,1.013685e+03
5.216519e+02,1.010472e+03
5.226161e+02,1.006455e+03
5.235803e+02,1.003952e+03
5.245446e+02,1.006118e+03
5.255088e+02,1.011999e+03
5.264730e+02,1.014673e+03
5.274373e+02,1.013040e+03
5.284015e+02,1.009860e+03
5.293657e+02,1.007025e+03
5.303300e+02,1.004573e+03
5.312942e+02,1.002271e+03
5.322584e+02,1.000320e+03
5.332227e+02,9.990775e+02
5.341869e+02,9.988274e+02
5.351511e+02,9.994044e+02
5.361154e+02,1.000073e+03
5.370796e+02,1.000147e+03
5.380438e+02,9.997809e+02
5.390081e+02,9.987205e+02
5.399723e+02,9.958417e+02
5.409365e+02,9.930875e+02
5.419008e+02,9.921411e+02
5.428650e+02,9.937820e+02
5.438292e+02,9.953281e+02
5.447935e+02,9.952450e+02
5.457577e+02,9.940938e+02
5.467219e+02,9.930396e+02
5.476862e+02,9.925820e+02
5.486504e+02,9.925063e+02
5.496146e+02,9.922768e+02
5.505789e+02,9.919334e+02
5.515431e+02,9.912485e+02
5.525073e+02,9.903351e+02
5.534716e+02,9.896959e+02
5.544358e+02,9.895314e+02
5.554000e+02,9.888759e+02
5.563643e+02,9.888299e+02
5.573285e+02,9.915892e+02
5.582927e+02,9.965328e+02
5.592570e+02,1.000009e+03
5.602212e+02,9.996633e+02
5.611854e+02,9.954512e+02
5.621497e+02,9.919265e+02
5.631139e+02,9.887719e+02
5.640781e+02,9.861862e+02
5.650424e+02,9.850635e+02
5.660066e+02,9.850801e+02
5.669708e+02,9.848711e+02
5.679351e+02,9.838240e+02
5.688993e+02,9.822229e+02
5.698635e+02,9.800154e+02
5.708278e+02,9.771762e+02
5.717920e+02,9.754160e+02
5.727562e+02,9.763195e+02
5.737205e+02,9.809046e+02
5.746847e+02,9.838459e+02
5.756489e+02,9.843751e+02
5.766132e+02,9.838313e+02
5.775774e+02,9.826562e+02
5.785416e+02,9.810426e+02
5.795059e+02,9.797944e+02
5.804701e+02,9.802963e+02
5.814343e+02,9.817576e+02
5.823986e+02,9.811175e+02
5.833628e+02,9.773102e+02
5.843270e+02,9.731754e+02
5.852913e+02,9.725695e+02
5.862555e+02,9.793751e+02
5.872197e+02,9.839218e+02
5.881840e+02,9.848544e+02
5.891482e+02,9.842266e+02
5.901124e+02,9.838259e+02
5.910767e+02,9.842514e+02
5.920409e+02,9.843037e+02
5.930051e+02,9.818515e+02
5.939694e+02,9.774291e+02
5.949336e+02,9.747755e+02
5.958978e+02,9.754523e+02
5.968621e+02,9.779853e+02
5.978263e+02,9.790370e+02
5.987905e+02,9.777379e+02
5.997548e+02,9.761879e+02
6.007190e+02,9.741691e+02
6.016832e+02,9.723087e+02
6.026475e+02,9.711080e+02
6.036117e+02,9.705551e+02
6.045759e+02,9.705133e+02
6.055402e+02,9.713513e+02
6.065044e+02,9.727506e+02
6.074686e+02,9.729094e+02
6.084329e+02,9.708932e+02
6.093971e+02,9.674093e+02
6.103613e+02,9.654871e+02
6.113256e+02,9.673202e+02
6.122899e+02,9.685060e+02
6.132541e+02,9.679500e+02
6.142183e+02,9.662410e+02
6.151826e+02,9.644920e+02
6.161468e+02,9.632928e+02
6.171110e+02,9.626525e+02
6.180753e+02,9.625334e+02
6.190395e+02,9.627963e+02
6.200037e+02,9.629341e+02
6.209680e+02,9.625574e+02
6.219322e+02,9.618348e+02
6.228964e+02,9.615429e+02
6.238607e+02,9.622363e+02
6.248249e+02,9.626064e+02
6.257891e+02,9.623201e+02
6.267534e+02,9.610216e+02
6.277176e+02,9.584151e+02
6.286818e+02,9.522631e+02
6.296461e+02,9.464584e+02
6.306103e+02,9.462885e+02
6.315745e+02,9.513723e+02
6.325388e+02,9.567908e+02
6.335030e+02,9.585611e+02
6.344672e+02,9.564102e+02
6.354315e+02,9.544766e+02
6.363957e+02,9.525129e+02
6.373599e+02,9.505937e+02
6.383242e+02,9.489063e+02
6.392884e+02,9.475833e+02
6.402526e+02,9.467438e+02
6.412169e+02,9.462332e+02
6.421811e+02,9.462718e+02
6.431453e+02,9.474278e+02
6.441096e+02,9.495400e+02
6.450738e+02,9.516088e+02
6.460380e+02,9.530381e+02
6.470023e+02,9.540379e+02
6.479665e+02,9.539312e+02
6.489307e+02,9.515253e+02
6.498950e+02,9.491370e+02
6.508592e+02,9.488569e+02
6.518234e+02,9.507796e+02
6.527877e+02,9.518248e+02
6.537519e+02,9.518051e+02
6.547161e+02,9.507292e+02
6.556804e+02,9.481527e+02
6.566446e+02,9.443009e+02
6.576088e+02,9.404427e+02
6.585731e+02,9.376985e+02
6.595373e+02,9.359462e+02
6.605015e+02,9.342781e+02
6.614658e+02,9.323542e+02
6.624300e+02,9.313134e+02
6.633942e+02,9.326008e+02
6.643585e+02,9.380245e+02
6.653227e+02,9.409099e+02
6.662869e+02,9.388366e+02
6.672512e+02,9.358545e+02
6.682154e+02,9.344539e+02
6.691796e+02,9.348799e+02
6.701439e+02,9.357703e+02
6.711081e+02,9.369920e+02
6.720723e+02,9.379213e+02
6.730366e+02,9.367550e+02
6.740008e+02,9.331838e+02
6.749650e+02,9.295382e+02
6.759293e+02,9.290631e+02
6.768935e+02,9.339652e+02
6.778577e+02,9.359124e+02
6.788220e+02,9.325064e+02
6.797862e+02,9.284180e+02
6.807504e+02,9.260092e+02
6.817147e+02,9.250953e+02
6.826789e+02,9.260676e+02
6.836431e+02,9.314891e+02
6.846074e+02,9.373339e+02
6.855716e+02,9.388144e+02
6.865358e+02,9.353602e+02
6.875001e+02,9.307501e+02
6.884643e+02,9.294594e+02
6.894285e+02,9.314908e+02
6.903928e+02,9.330375e+02
6.913570e+02,9.339988e+02
6.923212e+02,9.335870e+02
6.932855e+02,9.308052e+02
6.942497e+02,9.238916e+02
6.952139e+02,9.190026e+02
6.961782e+02,9.160684e+02
6.971424e+02,9.150413e+02
6.981066e+02,9.163640e+02
6.990709e+02,9.197565e+02
7.000351e+02,9.227149e+02
7.009993e+02,9.241213e+02
7.019636e+02,9.243373e+02
7.029278e+02,9.231159e+02
7.038920e+02,9.202475e+02
7.048563e+02,9.171557e+02
7.058205e+02,9.161654e+02
7.067847e+02,9.186918e+02
7.077490e+02,9.196951e+02
7.087132e+02,9.182903e+02
7.096774e+02,9.167617e+02
7.106417e+02,9.165964e+02
7.116059e+02,9.183659e+02
7.125701e+02,9.180609e+02
7.135344e+02,9.123107e+02
7.144986e+02,9.057079e+02
7.154628e+02,9.023116e+02
7.164271e+02,9.026581e+02
7.173913e+02,9.046451e+02
7.183555e+02,9.066759e+02
7.193198e+02,9.086804e+02
7.202840e+02,9.106178e+02
7.212482e+02,9.127401e+02
7.222125e+02,9.144703e+02
7.231767e+02,9.150182e+02
7.241409e+02,9.137743e+02
7.251052e+02,9.122917e+02
7.260694e+02,9.107139e+02
7.270336e+02,9.086912e+02
7.279979e+02,9.058126e+02
7.289621e+02,9.019668e+02
7.299263e+02,8.990734e+02
7.308906e+02,8.982786e+02
7.318548e+02,8.984828e+02
7.328190e+02,8.991003e+02
7.337833e+02,8.998905e+02
7.347475e+02,8.999327e+02
7.357117e+02,8.981259e+02
7.366760e+02,8.948179e+02
7.376402e+02,8.919337e+02
7.386044e+02,8.893605e+02
7.395687e+02,8.879176e+02
7.405329e+02,8.884407e+02
7.414971e+02,8.916982e+02
7.424614e+02,8.933809e+02
7.434256e+02,8.935151e+02
7.443898e+02,8.931108e+02
7.453541e+02,8.914495e+02
7.463183e+02,8.884235e+02
7.472825e+02,8.865322e+02
7.482468e+02,8.887365e+02
7.492110e+02,8.917198e+02
7.501752e+02,8.920438e+02
7.511395e+02,8.901138e+02
7.521037e+02,8.880126e+02
7.530679e+02,8.871209e+02
7.540322e+02,8.870458e+02
7.549964e+02,8.863923e+02
7.559606e+02,8.850077e+02
7.569249e+02,8.843544e+02
7.578891e+02,8.857478e+02
7.588533e+02,8.894745e+02
7.598176e+02,8.916900e+02
7.607818e+02,8.898965e+02
7.617460e+02,8.876952e+02
7.627103e+02,8.870088e+02
7.636745e+02,8.876692e+02
7.646387e+02,8.878395e+02
7.656030e+02,8.858581e+02
7.665672e+02,8.837499e+02
7.675314e+02,8.829069e+02
7.684957e+02,8.826228e+02
7.694599e+02,8.820087e+02
7.704241e+02,8.811083e+02
7.713884e+02,8.801902e+02
7.723526e+02,8.789645e+02
7.733168e+02,8.775226e+02
7.742811e+02,8.768843e+02
7.752453e+02,8.770768e+02
7.762095e+02,8.777593e+02
7.771738e+02,8.787511e+02
7.781380e+02,8.807360e+02
7.791022e+02,8.814407e+02
7.800665e+02,8.810463e+02
7.810307e+02,8.794026e+02
7.819949e+02,8.761570e+02
7.829592e+02,8.677963e+02
7.839234e+02,8.618909e+02
7.848876e+02,8.642390e+02
7.858519e+02,8.708291e+02
7.868161e+02,8.750635e+02
7.877803e+02,8.737463e+02
7.887446e+02,8.702933e+02
7.897088e+02,8.701693e+02
7.906730e+02,8.731119e+02
7.916373e+02,8.749623e+02
7.926015e+02,8.739114e+02
7.935657e+02,8.705789e+02
7.945300e+02,8.671027e+02
7.954942e+02,8.634605e+02
7.964584e+02,8.607650e+02
7.974227e+02,8.606036e+02
7.983869e+02,8.619256e+02
7.993511e+02,8.623228e+02
8.003154e+02,8.599210e+02
8.012796e+02,8.584885e+02
8.022438e+02,8.604178e+02
8.032081e+02,8.632203e+02
8.041723e+02,8.645018e+02
8.051365e+02,8.635461e+02
8.061008e+02,8.622015e+02
8.070650e+02,8.615850e+02
8.080292e+02,8.612457e+02
8.089935e+02,8.609651e+02
8.099577e+02,8.609172e+02
8.109219e+02,8.608328e+02
8.118862e+02,8.602969e+02
8.128504e+02,8.593096e+02
8.138146e+02,8.578001e+02
8.147789e+02,8.552401e+02
8.157431e+02,8.531932e+02
8.167073e+02,8.535880e+02
8.176716e+02,8.577792e+02
8.186358e+02,8.592894e+02
8.196000e+02,8.549591e+02
8.205643e+02,8.507408e+02
8.215285e+02,8.489728e+02
8.224927e+02,8.493405e+02
8.234570e+02,8.492715e+02
8.244212e+02,8.478414e+02
8.253854e+02,8.461013e+02
8.263497e+02,8.438945e+02
8.273139e+02,8.415012e+02
8.282781e+02,8.401307e+02
8.292424e+02,8.416693e+02
8.302066e+02,8.445974e+02
8.311708e+02,8.468487e+02
8.321351e+02,8.483607e+02
8.330993e+02,8.485558e+02
8.340635e+02,8.466016e+02
8.350278e+02,8.434647e+02
8.359920e+02,8.427644e+02
8.369562e+02,8.451815e+02
8.379205e+02,8.465267e+02
8.388847e+02,8.451009e+02
8.398489e+02,8.419890e+02
8.408132e+02,8.397681e+02
8.417774e+02,8.379886e+02
8.427416e+02,8.374932e+02
8.437059e+02,8.402665e+02
8.446701e+02,8.434007e+02
8.456343e+02,8.434816e+02
8.465986e+02,8.372679e+02
8.475628e+02,8.333710e+02
8.485270e+02,8.372949e+02
8.494913e+02,8.435293e+02
8.504555e+02,8.464019e+02
8.514197e+02,8.446156e+02
8.523840e+02,8.416357e+02
8.533482e+02,8.396076e+02
8.543124e+02,8.382587e+02
8.552767e+02,8.373446e+02
8.562409e+02,8.367485e+02
8.572051e+02,8.361763e+02
8.581694e+02,8.355623e+02
8.591336e+02,8.350161e+02
8.600978e+02,8.344617e+02
8.610621e+02,8.340471e+02
8.620263e+02,8.337056e+02
8.629905e+02,8.332286e+02
8.639548e+02,8.323373e+02
8.649190e+02,8.305283e+02
8.658832e+02,8.264921e+02
8.668475e+02,8.240993e+02
8.678117e+02,8.265569e+02
8.687759e+02,8.325751e+02
8.697402e+02,8.358069e+02
8.707044e+02,8.334288e+02
8.716686e+02,8.299431e+02
8.726329e+02,8.257621e+02
8.735971e+02,8.223824e+02
8.745613e+02,8.220789e+02
8.755256e+02,8.289830e+02
8.764898e+02,8.359510e+02
8.774540e+02,8.379036e+02
8.784183e+02,8.363505e+02
8.793825e+02,8.334841e+02
8.803467e+02,8.297023e+02
8.813110e+02,8.267282e+02
8.822752e+02,8.274853e+02
8.832394e+02,8.312298e+02
8.842037e+02,8.347181e+02
8.851679e+02,8.369460e+02
8.861321e+02,8.385552e+02
8.870964e+02,8.414822e+02
8.880606e+02,8.459156e+02
8.890248e+02,8.456230e+02
8.899891e+02,8.390593e+02
8.909533e+02,8.311768e+02
8.919175e+02,8.264026e+02
8.928818e+02,8.253777e+02
8.938460e+02,8.243639e+02
8.948102e+02,8.224151e+02
8.957745e+02,8.210862e+02
8.967387e+02,8.219280e+02
8.977029e+02,8.246256e+02
8.986672e+02,8.260084e+02
8.996314e+02,8.258567e+02
9.005956e+02,8.252435e+02
9.015599e+02,8.244666e+02
9.025241e+02,8.233211e+02
9.034883e+02,8.215240e+02
9.044526e+02,8.175048e+02
9.054168e+02,8.137997e+02
9.063810e+02,8.136758e+02
9.073453e+02,8.156159e+02
9.083095e+02,8.159474e+02
9.092737e+02,8.122743e+02
9.102380e+02,8.074678e+02
9.112022e+02,8.035641e+02
9.121664e+02,8.011351e+02
9.131307e+02,8.030803e+02
9.140949e+02,8.108494e+02
9.150591e+02,8.191794e+02
9.160234e+02,8.190047e+02
9.169876e+02,8.110697e+02
9.179518e+02,8.056123e+02
9.189161e+02,8.042990e+02
9.198803e+02,8.044786e+02
9.208445e+02,8.036241e+02
9.218088e+02,8.018063e+02
9.227730e+02,8.006464e+02
9.237372e+02,7.999359e+02
9.247015e+02,7.998016e+02
9.256657e+02,8.006861e+02
9.266299e+02,8.026172e+02
9.275942e+02,8.031485e+02
9.285584e+02,8.009075e+02
9.295226e+02,7.985453e+02
9.304869e+02,7.974983e+02
9.314511e+02,7.973339e+02
9.324153e+02,7.962217e+02
9.333796e+02,7.925582e+02
9.343438e+02,7.895646e+02
9.353080e+02,7.877040e+02
9.362723e+02,7.867874e+02
9.372365e+02,7.871130e+02
9.382007e+02,7.910041e+02
9.391650e+02,7.933973e+02
9.401292e+02,7.904789e+02
9.410934e+02,7.854005e+02
9.420577e+02,7.811443e+02
9.430219e+02,7.783226e+02
9.439861e+02,7.773497e+02
9.449504e+02,7.806083e+02
9.459146e+02,7.856355e+02
9.468788e+02,7.884586e+02
9.478431e+02,7.882226e+02
9.488073e+02,7.863155e+02
9.497715e+02,7.833046e+02
9.507358e+02,7.802253e+02
9.517000e+02,7.793750e+02
9.526642e+02,7.809157e+02
9.536285e+02,7.836877e+02
9.545927e+02,7.877727e+02
9.555569e+02,7.916988e+02
9.565212e+02,7.892524e+02
9.574854e+02,7.804739e+02
9.584496e+02,7.741415e+02
9.594139e+02,7.736573e+02
9.603781e+02,7.767874e+02
9.613423e+02,7.787373e+02
9.623066e+02,7.794805e+02
9.632708e+02,7.792572e+02
9.642350e+02,7.778633e+02
9.651993e+02,7.763287e+02
9.661635e+02,7.758533e+02
9.671277e+02,7.767426e+02
9.680920e+02,7.773691e+02
9.690562e+02,7.785021e+02
9.700204e+02,7.783766e+02
9.709847e+02,7.750876e+02
9.719489e+02,7.675090e+02
9.729131e+02,7.639291e+02
9.738774e+02,7.684948e+02
9.748416e+02,7.732019e+02
9.758058e+02,7.736687e+02
9.767701e+02,7.706412e+02
9.777343e+02,7.695845e+02
9.786985e+02,7.746086e+02
9.796628e+02,7.778661e+02
9.806270e+02,7.749865e+02
9.815912e+02,7.690372e+02
9.825555e+02,7.653351e+02
9.835197e+02,7.677363e+02
9.844839e+02,7.698380e+02
9.854482e+02,7.683427e+02
9.864124e+02,7.656104e+02
9.873766e+02,7.638123e+02
9.883409e+02,7.634575e+02
9.893051e+02,7.647780e+02
9.902693e+02,7.704374e+02
9.912336e+02,7.764464e+02
9.921978e+02,7.770598e+02
9.931620e+02,7.721492e+02
9.941263e+02,7.676812e+02
9.950905e+02,7.688232e+02
9.960547e+02,7.722919e+02
9.970190e+02,7.751292e+02
9.979832e+02,7.766355e+02
9.989474e+02,7.750193e+02
9.999117e+02,7.676425e+02
1.000876e+03,7.591002e+02
1.001840e+03,7.575912e+02
1.002804e+03,7.612034e+02
1.003769e+03,7.624486e+02
1.004733e+03,7.579934e+02
1.005697e+03,7.519768e+02
1.006661e+03,7.508122e+02
1.007626e+03,7.536615e+02
1.008590e+03,7.567200e+02
1.009554e+03,7.591686e+02
1.010518e+03,7.608521e+02
1.011482e+03,7.620681e+02
1.012447e+03,7.626629e+02
1.013411e+03,7.609148e+02
1.014375e+03,7.569138e+02
1.015339e+03,7.538749e+02
1.016304e+03,7.541173e+02
1.017268e+03,7.568980e+02
1.018232e+03,7.583445e+02
1.019196e+03,7.582546e+02
1.020161e+03,7.575770e+02
1.021125e+03,7.568495e+02
1.022089e+03,7.560701e+02
1.023053e+03,7.546305e+02
1.024018e+03,7.521885e+02
1.024982e+03,7.490075e+02
1.025946e+03,7.441530e+02
1.026910e+03,7.397821e+02
1.027875e+03,7.396974e+02
1.028839e+03,7.461136e+02
1.029803e+03,7.500377e+02
1.030767e+03,7.506832e+02
1.031731e+03,7.500773e+02
1.032696e+03,7.492380e+02
1.033660e+03,7.480563e+02
1.034624e+03,7.474529e+02
1.035588e+03,7.475333e+02
1.036552e+03,7.486320e+02
1.037517e+03,7.515025e+02
1.038481e+03,7.550844e+02
1.039445e+03,7.561088e+02
1.040409e+03,7.532004e+02
1.041374e+03,7.500273e+02
1.042338e+03,7.465831e+02
1.043302e+03,7.438528e+02
1.044266e+03,7.430837e+02
1.045231e+03,7.466200e+02
1.046195e+03,7.476226e+02
1.047159e+03,7.431948e+02
1.048123e+03,7.390056e+02
1.049088e+03,7.396715e+02
1.050052e+03,7.464410e+02
1.051016e+03,7.500070e+02
1.051980e+03,7.453236e+02
1.052945e+03,7.424885e+02
1.053909e+03,7.476360e+02
1.054873e+03,7.575028e+02
1.055837e+03,7.611459e+02
1.056802e+03,7.516818e+02
1.057766e+03,7.442827e+02
1.058730e+03,7.436877e+02
1.059694e+03,7.460051e+02
1.060658e+03,7.461524e+02
1.061623e+03,7.421308e+02
1.062587e+03,7.393148e+02
1.063551e+03,7.389725e+02
1.064515e+03,7.395881e+02
1.065479e+03,7.399688e+02
1.066444e+03,7.401365e+02
1.067408e+03,7.409260e+02
1.068372e+03,7.434934e+02
1.069336e+03,7.456605e+02
1.070301e+03,7.459480e+02
1.071265e+03,7.445869e+02
1.072229e+03,7.430688e+02
1.073193e+03,7.408016e+02
1.074158e+03,7.393860e+02
1.075122e+03,7.398112e+02
1.076086e+03,7.410797e+02
1.077050e+03,7.421416e+02
1.078015e+03,7.431317e+02
1.078979e+03,7.444447e+02
1.079943e+03,7.466002e+02
1.080907e+03,7.485260e+02
1.081872e+03,7.487906e+02
1.082836e+03,7.470992e+02
1.083800e+03,7.465242e+02
1.084764e+03,7.484182e+02
1.085729e+03,7.512395e+02
1.086693e+03,7.552216e+02
1.087657e+03,7.593980e+02
1.088621e+03,7.616418e+02
1.089585e+03,7.583976e+02
1.090550e+03,7.566574e+02
1.091514e+03,7.609528e+02
1.092478e+03,7.667836e+02
1.093442e+03,7.687903e+02
1.094406e+03,7.647701e+02
1.095371e+03,7.616881e+02
1.096335e+03,7.623569e+02
1.097299e+03,7.628864e+02
1.098263e+03,7.603510e+02
1.099228e+03,7.547230e+02
1.100192e+03,7.498897e+02
1.101156e+03,7.465322e+02
1.102120e+03,7.439543e+02
1.103085e+03,7.422826e+02
1.104049e+03,7.412271e+02
1.105013e+03,7.402288e+02
1.105977e+03,7.394249e+02
1.106942e+03,7.385176e+02
1.107906e+03,7.374169e+02
1.108870e+03,7.363015e+02
1.109834e+03,7.347868e+02
1.110799e+03,7.319379e+02
1.111763e+03,7.324719e+02
1.112727e+03,7.413460e+02
1.113691e+03,7.497236e+02
1.114656e+03,7.530143e+02
1.115620e+03,7.516135e+02
1.116584e+03,7.492975e+02
1.117548e+03,7.437789e+02
1.118512e+03,7.397672e+02
1.119477e+03,7.394841e+02
1.120441e+03,7.410201e+02
1.121405e+03,7.415895e+02
1.122369e+03,7.404174e+02
1.123334e+03,7.394873e+02
1.124298e+03,7.399044e+02
1.125262e+03,7.398619e+02
1.126226e+03,7.381595e+02
1.127191e+03,7.347717e+02
1.128155e+03,7.303121e+02
1.129119e+03,7.215840e+02
1.130083e+03,7.159498e+02
1.131047e+03,7.181823e+02
1.132012e+03,7.250911e+02
1.132976e+03,7.264044e+02
1.133940e+03,7.180397e+02
1.134904e+03,7.123737e+02
1.135869e+03,7.129568e+02
1.136833e+03,7.153788e+02
1.137797e+03,7.141271e+02
1.138761e+03,7.072727e+02
1.139726e+03,7.054673e+02
1.140690e+03,7.109604e+02
1.141654e+03,7.165470e+02
1.142618e+03,7.177908e+02
1.143583e+03,7.153386e+02
1.144547e+03,7.140350e+02
1.145511e+03,7.143101e+02
1.146475e+03,7.138059e+02
1.147439e+03,7.113214e+02
1.148404e+03,7.085790e+02
1.149368e+03,7.087824e+02
1.150332e+03,7.122187e+02
1.151296e+03,7.148228e+02
1.152261e+03,7.159079e+02
1.153225e+03,7.155923e+02
1.154189e+03,7.144065e+02
1.155153e+03,7.126619e+02
1.156118e+03,7.103073e+02
1.157082e+03,7.075514e+02
1.158046e+03,7.051580e+02
1.159010e+03,7.030392e+02
1.159974e+03,7.016198e+02
1.160939e+03,7.023707e+02
1.161903e+03,7.047630e+02
1.162867e+03,7.063352e+02
1.163831e+03,7.065480e+02
1.164796e+03,7.057404e+02
1.165760e+03,7.036100e+02
1.166724e+03,7.011630e+02
1.167688e+03,7.018284e+02
1.168653e+03,7.050927e+02
1.169617e+03,7.066075e+02
1.170581e+03,7.030497e+02
1.171545e+03,6.972894e+02
1.172510e+03,6.922897e+02
1.173474e+03,6.885329e+02
1.174438e+03,6.873721e+02
1.175402e+03,6.893707e+02
1.176366e+03,6.917928e+02
1.177331e+03,6.924658e+02
1.178295e+03,6.921820e+02
1.179259e+03,6.915934e+02
1.180223e+03,6.907151e+02
1.181188e+03,6.897828e+02
1.182152e+03,6.885585e+02
1.183116e+03,6.877607e+02
1.184080e+03,6.884747e+02
1.185045e+03,6.901052e+02
1.186009e+03,6.914406e+02
1.186973e+03,6.923481e+02
1.187937e+03,6.929046e+02
1.188901e+03,6.935191e+02
1.189866e+03,6.933351e+02
1.190830e+03,6.906819e+02
1.191794e+03,6.852364e+02
1.192758e+03,6.819697e+02
1.193723e+03,6.836569e+02
1.194687e+03,6.863273e+02
1.195651e+03,6.890364e+02
1.196615e+03,6.913701e+02
1.197580e+03,6.924365e+02
1.198544e+03,6.910812e+02
1.199508e+03,6.892687e+02
1.200472e+03,6.876403e+02
1.201437e+03,6.857435e+02
1.202401e+03,6.831007e+02
1.203365e+03,6.796700e+02
1.204329e+03,6.771381e+02
1.205293e+03,6.752451e+02
1.206258e+03,6.747577e+02
1.207222e+03,6.763814e+02
1.208186e+03,6.791507e+02
1.209150e+03,6.799381e+02
1.210115e+03,6.782106e+02
1.211079e+03,6.781025e+02
1.212043e+03,6.806894e+02
1.213007e+03,6.838599e+02
1.213972e+03,6.856763e+02
1.214936e+03,6.863525e+02
1.215900e+03,6.855165e+02
1.216864e+03,6.833297e+02
1.217828e+03,6.818342e+02
1.218793e+03,6.824281e+02
1.219757e+03,6.841085e+02
1.220721e+03,6.858400e+02
1.221685e+03,6.872524e+02
1.222650e+03,6.865828e+02
1.223614e+03,6.830334e+02
1.224578e+03,6.796194e+02
1.225542e+03,6.801378e+02
1.226507e+03,6.818972e+02
1.227471e+03,6.810276e+02
1.228435e+03,6.779247e+02
1.229399e+03,6.758904e+02
1.230364e+03,6.783652e+02
1.231328e+03,6.806917e+02
1.232292e+03,6.800683e+02
1.233256e+03,6.784815e+02
1.234220e+03,6.784199e+02
1.235185e+03,6.815387e+02
1.236149e+03,6.828591e+02
1.237113e+03,6.795886e+02
1.238077e+03,6.760074e+02
1.239042e+03,6.738551e+02
1.240006e+03,6.728639e+02
1.240970e+03,6.728492e+02
1.241934e+03,6.746764e+02
1.242899e+03,6.758961e+02
1.243863e+03,6.761530e+02
1.244827e+03,6.758192e+02
1.245791e+03,6.751711e+02
1.246755e+03,6.740660e+02
1.247720e+03,6.736088e+02
1.248684e+03,6.740472e+02
1.249648e+03,6.744727e+02
1.250612e+03,6.742492e+02
1.251577e+03,6.733878e+02
1.252541e+03,6.719789e+02
1.253505e+03,6.700717e+02
1.254469e+03,6.687226e+02
1.255434e+03,6.684127e+02
1.256398e+03,6.684542e+02
1.257362e+03,6.682733e+02
1.258326e+03,6.674231e+02
1.259291e+03,6.641442e+02
1.260255e+03,6.590631e+02
1.261219e+03,6.562000e+02
1.262183e+03,6.611962e+02
1.263147e+03,6.669225e+02
1.264112e+03,6.680280e+02
1.265076e+03,6.661776e+02
1.266040e+03,6.632215e+02
1.267004e+03,6.587985e+02
1.267969e+03,6.564981e+02
1.268933e+03,6.595419e+02
1.269897e+03,6.637258e+02
1.270861e+03,6.659196e+02
1.271826e+03,6.657966e+02
1.272790e+03,6.662222e+02
1.273754e+03,6.685722e+02
1.274718e+03,6.694567e+02
1.275682e+03,6.677906e+02
1.276647e+03,6.655778e+02
1.277611e+03,6.656031e+02
1.278575e+03,6.684189e+02
1.279539e+03,6.676866e+02
1.280504e+03,6.630860e+02
1.281468e+03,6.596122e+02
1.282432e+03,6.604297e+02
1.283396e+03,6.636116e+02
1.284361e+03,6.641381e+02
1.285325e+03,6.625905e+02
1.286289e+03,6.620627e+02
1.287253e+03,6.633119e+02
1.288218e+03,6.650969e+02
1.289182e+03,6.670898e+02
1.290146e+03,6.686209e+02
1.291110e+03,6.683408e+02
1.292074e+03,6.668664e+02
1.293039e+03,6.661975e+02
1.294003e+03,6.689058e+02
1.294967e+03,6.703738e+02
1.295931e+03,6.678280e+02
1.296896e+03,6.639178e+02
1.297860e+03,6.612650e+02
1.298824e+03,6.602426e+02
1.299788e+03,6.595397e+02
1.300753e+03,6.580699e+02
1.301717e+03,6.583163e+02
1.302681e+03,6.624408e+02
1.303645e+03,6.684205e+02
1.304609e+03,6.701340e+02
1.305574e+03,6.666368e+02
1.306538e+03,6.632910e+02
1.307502e+03,6.610593e+02
1.308466e+03,6.598796e+02
1.309431e+03,6.597997e+02
1.310395e+03,6.605195e+02
1.311359e+03,6.611009e+02
1.312323e+03,6.612191e+02
1.313288e+03,6.605225e+02
1.314252e+03,6.589482e+02
1.315216e+03,6.575832e+02
1.316180e+03,6.564245e+02
1.317145e+03,6.563950e+02
1.318109e+03,6.595751e+02
1.319073e+03,6.656303e+02
1.320037e+03,6.690167e+02
1.321001e+03,6.646445e+02
1.321966e+03,6.606323e+02
1.322930e+03,6.614130e+02
1.323894e+03,6.648475e+02
1.324858e+03,6.665510e+02
1.325823e+03,6.659495e+02
1.326787e+03,6.646763e+02
1.327751e+03,6.620935e+02
1.328715e+03,6.597548e+02
1.329680e+03,6.586506e+02
1.330644e+03,6.587925e+02
1.331608e+03,6.604830e+02
1.332572e+03,6.635213e+02
1.333536e+03,6.662537e+02
1.334501e+03,6.681985e+02
1.335465e+03,6.689332e+02
1.336429e+03,6.675349e+02
1.337393e+03,6.653710e+02
1.338358e+03,6.644880e+02
1.339322e+03,6.646932e+02
1.340286e+03,6.645717e+02
1.341250e+03,6.635594e+02
1.342215e+03,6.618893e+02
1.343179e+03,6.593716e+02
1.344143e+03,6.570746e+02
1.345107e+03,6.557006e+02
1.346072e+03,6.551536e+02
1.347036e+03,6.553281e+02
1.348000e+03,6.568319e+02
1.348964e+03,6.574816e+02
1.349928e+03,6.565040e+02
1.350893e+03,6.546130e+02
1.351857e+03,6.528150e+02
1.352821e+03,6.509810e+02
1.353785e+03,6.495374e+02
1.354750e+03,6.484549e+02
1.355714e+03,6.477192e+02
1.356678e+03,6.478142e+02
1.357642e+03,6.485275e+02
1.358607e+03,6.495467e+02
1.359571e+03,6.504528e+02
1.360535e+03,6.502433e+02
1.361499e+03,6.479521e+02
1.362464e+03,6.469984e+02
1.363428e+03,6.506020e+02
1.364392e+03,6.549024e+02
1.365356e+03,6.569923e+02
1.366320e+03,6.565569e+02
1.367285e+03,6.551030e+02
1.368249e+03,6.519537e+02
1.369213e+03,6.500804e+02
1.370177e+03,6.500168e+02
1.371142e+03,6.514211e+02
1.372106e+03,6.551627e+02
1.373070e+03,6.604600e+02
1.374034e+03,6.603278e+02
1.374999e+03,6.555322e+02
1.375963e+03,6.522134e+02
1.376927e+03,6.542360e+02
1.377891e+03,6.570365e+02
1.378855e+03,6.553354e+02
1.379820e+03,6.515928e+02
1.380784e+03,6.487763e+02
1.381748e+03,6.475316e+02
1.382712e+03,6.471443e+02
1.383677e+03,6.478915e+02
1.384641e+03,6.481909e+02
1.385605e+03,6.473487e+02
1.386569e+03,6.457760e+02
1.387534e+03,6.440600e+02
1.388498e+03,6.420909e+02
1.389462e+03,6.412540e+02
1.390426e+03,6.416181e+02
1.391391e+03,6.414330e+02
1.392355e+03,6.394303e+02
1.393319e+03,6.368975e+02
1.394283e+03,6.361715e+02
1.395247e+03,6.366463e+02
1.396212e+03,6.368708e+02
1.397176e+03,6.364678e+02
1.398140e+03,6.372938e+02
1.399104e+03,6.419968e+02
1.400069e+03,6.464883e+02
1.401033e+03,6.486117e+02
1.401997e+03,6.484724e+02
1.402961e+03,6.466126e+02
1.403926e+03,6.416330e+02
1.404890e+03,6.383419e+02
1.405854e+03,6.376588e+02
1.406818e+03,6.373332e+02
1.407782e+03,6.357162e+02
1.408747e+03,6.333348e+02
1.409711e+03,6.310109e+02
1.410675e+03,6.286613e+02
1.411639e+03,6.276921e+02
1.412604e+03,6.287804e+02
1.413568e+03,6.298791e+02
1.414532e+03,6.282742e+02
1.415496e+03,6.271810e+02
1.416461e+03,6.307754e+02
1.417425e+03,6.371826e+02
1.418389e+03,6.396589e+02
1.419353e+03,6.333268e+02
1.420318e+03,6.286329e+02
1.421282e+03,6.267227e+02
1.422246e+03,6.264927e+02
1.423210e+03,6.274174e+02
1.424174e+03,6.292643e+02
1.425139e+03,6.298000e+02
1.426103e+03,6.289330e+02
1.427067e+03,6.270720e+02
1.428031e+03,6.241313e+02
1.428996e+03,6.219876e+02
1.429960e+03,6.236074e+02
1.430924e+03,6.258593e+02
1.431888e+03,6.252045e+02
1.432853e+03,6.220687e+02
1.433817e+03,6.195722e+02
1.434781e+03,6.191557e+02
1.435745e+03,6.186859e+02
1.436709e+03,6.174583e+02
1.437674e+03,6.161661e+02
1.438638e+03,6.157612e+02
1.439602e+03,6.163010e+02
1.440566e+03,6.164259e+02
1.441531e+03,6.161328e+02
1.442495e+03,6.162444e+02
1.443459e+03,6.171457e+02
1.444423e+03,6.175793e+02
1.445388e+03,6.154197e+02
1.446352e+03,6.125706e+02
1.447316e+03,6.110712e+02
1.448280e+03,6.112322e+02
1.449245e+03,6.122509e+02
1.450209e+03,6.163682e+02
1.451173e+03,6.174495e+02
1.452137e+03,6.125980e+02
1.453101e+03,6.072897e+02
1.454066e+03,6.074129e+02
1.455030e+03,6.121080e+02
1.455994e+03,6.143572e+02
1.456958e+03,6.143675e+02
1.457923e+03,6.134434e+02
1.458887e+03,6.116865e+02
1.459851e+03,6.099875e+02
1.460815e+03,6.079233e+02
1.461780e+03,6.070651e+02
1.462744e+03,6.110663e+02
1.463708e+03,6.188458e+02
1.464672e+03,6.215462e+02
1.465636e+03,6.161852e+02
1.466601e+03,6.109828e+02
1.467565e+03,6.062350e+02
1.468529e+03,6.033473e+02
1.469493e+03,6.043514e+02
1.470458e+03,6.079479e+02
1.471422e+03,6.096218e+02
1.472386e+03,6.098282e+02
1.473350e+03,6.097219e+02
1.474315e+03,6.094977e+02
1.475279e+03,6.092890e+02
1.476243e+03,6.096804e+02
1.477207e+03,6.094786e+02
1.478172e+03,6.070035e+02
1.479136e+03,6.033313e+02
1.480100e+03,6.032633e+02
1.481064e+03,6.084595e+02
1.482028e+03,6.107765e+02
1.482993e+03,6.090391e+02
1.483957e+03,6.059297e+02
1.484921e+03,6.033019e+02
1.485885e+03,6.010301e+02
1.486850e+03,5.983041e+02
1.487814e+03,5.956608e+02
1.488778e+03,5.950409e+02
1.489742e+03,5.980549e+02
1.490707e+03,5.994616e+02
1.491671e+03,5.958816e+02
1.492635e+03,5.929542e+02
1.493599e+03,5.931885e+02
1.494563e+03,5.952969e+02
1.495528e+03,5.966155e+02
1.496492e+03,5.970211e+02
1.497456e+03,5.950806e+02
1.498420e+03,5.909393e+02
1.499385e+03,5.882120e+02
1.500349e+03,5.911110e+02
1.501313e+03,5.952348e+02
1.502277e+03,5.975538e+02
1.503242e+03,5.979691e+02
1.504206e+03,5.961956e+02
1.505170e+03,5.913830e+02
1.506134e+03,5.863892e+02
1.507099e+03,5.801286e+02
1.508063e+03,5.772568e+02
1.509027e+03,5.804079e+02
1.509991e+03,5.857811e+02
1.510955e+03,5.870863e+02
1.511920e+03,5.855298e+02
1.512884e+03,5.836768e+02
1.513848e+03,5.820587e+02
1.514812e+03,5.806551e+02
1.515777e+03,5.762756e+02
1.516741e+03,5.752726e+02
1.517705e+03,5.845079e+02
1.518669e+03,5.939252e+02
1.519634e+03,5.945614e+02
1.520598e+03,5.869573e+02
1.521562e+03,5.843881e+02
1.522526e+03,5.864288e+02
1.523490e+03,5.886738e+02
1.524455e+03,5.898973e+02
1.525419e+03,5.899782e+02
1.526383e+03,5.883053e+02
1.527347e+03,5.859311e+02
1.528312e+03,5.833187e+02
1.529276e+03,5.811972e+02
1.530240e+03,5.813708e+02
1.531204e+03,5.850540e+02
1.532169e+03,5.868596e+02
1.533133e+03,5.861501e+02
1.534097e+03,5.846318e+02
1.535061e+03,5.831591e+02
1.536026e+03,5.819709e+02
1.536990e+03,5.818835e+02
1.537954e+03,5.826000e+02
1.538918e+03,5.837051e+02
1.539882e+03,5.852146e+02
1.540847e+03,5.857581e+02
1.541811e+03,5.842348e+02
1.542775e+03,5.821378e+02
1.543739e+03,5.796702e+02
1.544704e+03,5.776641e+02
1.545668e+03,5.777932e+02
1.546632e+03,5.795938e+02
1.547596e+03,5.806632e+02
1.548561e+03,5.809148e+02
1.549525e+03,5.809453e+02
1.550489e+03,5.808155e+02
1.551453e+03,5.805005e+02
1.552417e+03,5.798726e+02
1.553382e+03,5.791021e+02
1.554346e+03,5.783810e+02
1.555310e+03,5.778654e+02
1.556274e+03,5.783574e+02
1.557239e+03,5.797487e+02
1.558203e+03,5.795149e+02
1.559167e+03,5.769738e+02
1.560131e+03,5.741899e+02
1.561096e+03,5.725804e+02
1.562060e+03,5.720203e+02
1.563024e+03,5.731041e+02
1.563988e+03,5.749538e+02
1.564953e+03,5.754780e+02
1.565917e+03,5.738582e+02
1.566881e+03,5.735921e+02
1.567845e+03,5.748301e+02
1.568809e+03,5.754783e+02
1.569774e+03,5.743669e+02
1.570738e+03,5.723727e+02
1.571702e+03,5.700072e+02
1.572666e+03,5.678314e+02
1.573631e+03,5.665287e+02
1.574595e+03,5.663760e+02
1.575559e+03,5.675046e+02
1.576523e+03,5.709838e+02
1.577488e+03,5.729703e+02
1.578452e+03,5.720782e+02
1.579416e+03,5.707079e+02
1.580380e+03,5.722330e+02
1.581344e+03,5.749070e+02
1.582309e+03,5.751593e+02
1.583273e+03,5.738961e+02
1.584237e+03,5.733395e+02
1.585201e+03,5.749378e+02
1.586166e+03,5.750084e+02
1.587130e+03,5.720024e+02
1.588094e+03,5.694792e+02
1.589058e+03,5.695959e+02
1.590023e+03,5.704471e+02
1.590987e+03,5.663212e+02
1.591951e+03,5.604262e+02
1.592915e+03,5.612815e+02
1.593880e+03,5.684973e+02
1.594844e+03,5.735706e+02
1.595808e+03,5.715841e+02
1.596772e+03,5.689831e+02
1.597736e+03,5.668644e+02
1.598701e+03,5.654259e+02
1.599665e+03,5.648984e+02
1.600629e+03,5.650364e+02
1.601593e+03,5.649197e+02
1.602558e+03,5.645797e+02
1.603522e+03,5.642637e+02
1.604486e+03,5.641601e+02
1.605450e+03,5.630702e+02
1.606415e+03,5.591107e+02
1.607379e+03,5.562153e+02
1.608343e+03,5.557244e+02
1.609307e+03,5.569717e+02
1.610271e+03,5.598705e+02
1.611236e+03,5.635290e+02
1.612200e+03,5.628820e+02
1.613164e+03,5.589092e+02
1.614128e+03,5.577155e+02
1.615093e+03,5.671843e+02
1.616057e+03,5.730138e+02
1.617021e+03,5.667739e+02
1.617985e+03,5.588429e+02
1.618950e+03,5.552003e+02
1.619914e+03,5.551829e+02
1.620878e+03,5.570056e+02
1.621842e+03,5.600941e+02
1.622807e+03,5.620700e+02
1.623771e+03,5.625447e+02
1.624735e+03,5.617709e+02
1.625699e+03,5.579990e+02
1.626663e+03,5.548789e+02
1.627628e+03,5.536898e+02
1.628592e+03,5.533196e+02
1.629556e+03,5.531562e+02
1.630520e+03,5.532717e+02
1.631485e+03,5.518497e+02
1.632449e+03,5.493817e+02
1.633413e+03,5.484273e+02
1.634377e+03,5.511871e+02
1.635342e+03,5.525939e+02
1.636306e+03,5.489888e+02
1.637270e+03,5.456274e+02
1.638234e+03,5.448185e+02
1.639198e+03,5.458078e+02
1.640163e+03,5.471778e+02
1.641127e+03,5.486261e+02
1.642091e+03,5.479002e+02
1.643055e+03,5.450478e+02
1.644020e+03,5.439844e+02
1.644984e+03,5.489746e+02
1.645948e+03,5.521781e+02
1.646912e+03,5.522413e+02
1.647877e+03,5.500955e+02
1.648841e+03,5.452532e+02
1.649805e+03,5.395455e+02
1.650769e+03,5.400280e+02
1.651734e+03,5.441528e+02
1.652698e+03,5.452554e+02
1.653662e+03,5.408267e+02
1.654626e+03,5.386495e+02
1.655590e+03,5.426076e+02
1.656555e+03,5.457694e+02
1.657519e+03,5.464343e+02
1.658483e+03,5.459928e+02
1.659447e+03,5.458609e+02
1.660412e+03,5.455999e+02
1.661376e+03,5.444639e+02
1.662340e+03,5.430345e+02
1.663304e+03,5.427069e+02
1.664269e+03,5.452914e+02
1.665233e+03,5.457102e+02
1.666197e+03,5.431698e+02
1.667161e+03,5.404279e+02
1.668125e+03,5.393002e+02
1.669090e+03,5.384968e+02
1.670054e+03,5.353009e+02
1.671018e+03,5.316907e+02
1.671982e+03,5.309684e+02
1.672947e+03,5.332225e+02
1.673911e+03,5.336129e+02
1.674875e+03,5.309370e+02
1.675839e+03,5.295038e+02
1.676804e+03,5.302560e+02
1.677768e+03,5.318492e+02
1.678732e+03,5.337257e+02
1.679696e+03,5.348063e+02
1.680661e+03,5.331990e+02
1.681625e+03,5.304028e+02
1.682589e+03,5.292154e+02
1.683553e+03,5.299863e+02
1.684517e+03,5.291874e+02
1.685482e+03,5.268239e+02
1.686446e+03,5.253320e+02
1.687410e+03,5.254459e+02
1.688374e+03,5.267275e+02
1.689339e+03,5.298209e+02
1.690303e+03,5.329023e+02
1.691267e+03,5.355184e+02
1.692231e+03,5.369996e+02
1.693196e+03,5.351433e+02
1.694160e+03,5.304620e+02
1.695124e+03,5.282001e+02
1.696088e+03,5.282105e+02
1.697052e+03,5.278491e+02
1.698017e+03,5.243977e+02
1.698981e+03,5.223660e+02
1.699945e+03,5.231083e+02
1.700909e+03,5.247719e+02
1.701874e+03,5.273221e+02
1.702838e+03,5.300800e+02
1.703802e+03,5.305986e+02
1.704766e+03,5.295388e+02
1.705731e+03,5.287953e+02
1.706695e+03,5.286393e+02
1.707659e+03,5.275454e+02
1.708623e+03,5.244354e+02
1.709588e+03,5.232730e+02
1.710552e+03,5.244462e+02
1.711516e+03,5.264757e+02
1.712480e+03,5.297000e+02
1.713444e+03,5.318196e+02
1.714409e+03,5.290486e+02
1.715373e+03,5.244480e+02
1.716337e+03,5.229152e+02
1.717301e+03,5.247889e+02
1.718266e+03,5.227365e+02
1.719230e+03,5.167633e+02
1.720194e+03,5.124976e+02
1.721158e+03,5.115262e+02
1.722123e+03,5.114195e+02
1.723087e+03,5.103677e+02
1.724051e+03,5.098902e+02
1.725015e+03,5.111080e+02
1.725979e+03,5.131175e+02
1.726944e+03,5.143911e+02
1.727908e+03,5.151574e+02
1.728872e+03,5.162928e+02
1.729836e+03,5.176662e+02
1.730801e+03,5.196158e+02
1.731765e+03,5.247434e+02
1.732729e+03,5.241489e+02
1.733693e+03,5.146345e+02
1.734658e+03,5.067975e+02
1.735622e+03,5.056642e+02
1.736586e+03,5.076036e+02
1.737550e+03,5.081301e+02
1.738515e+03,5.081289e+02
1.739479e+03,5.087077e+02
1.740443e+03,5.098285e+02
1.741407e+03,5.110648e+02
1.742371e+03,5.126786e+02
1.743336e+03,5.110052e+02
1.744300e+03,5.058845e+02
1.745264e+03,5.023904e+02
1.746228e+03,5.060927e+02
1.747193e+03,5.100714e+02
1.748157e+03,5.116026e+02
1.749121e+03,5.116379e+02
1.750085e+03,5.096874e+02
1.751050e+03,5.062571e+02
1.752014e+03,5.044721e+02
1.752978e+03,5.040807e+02
1.753942e+03,5.044322e+02
1.754906e+03,5.053149e+02
1.755871e+03,5.053833e+02
1.756835e+03,5.040209e+02
1.757799e+03,5.018517e+02
1.758763e+03,4.993314e+02
1.759728e+03,4.972941e+02
1.760692e+03,4.957593e+02
1.761656e+03,4.956097e+02
1.762620e+03,4.994105e+02
1.763585e+03,5.037832e+02
1.764549e+03,5.030726e+02
1.765513e+03,4.972611e+02
1.766477e+03,4.978677e+02
1.767442e+03,5.037505e+02
1.768406e+03,5.068860e+02
1.769370e+03,5.044696e+02
1.770334e+03,5.022655e+02
1.771298e+03,5.028215e+02
1.772263e+03,5.037223e+02
1.773227e+03,5.049363e+02
1.774191e+03,5.052176e+02
1.775155e+03,5.018427e+02
1.776120e+03,4.969832e+02
1.777084e+03,4.929893e+02
1.778048e+03,4.906421e+02
1.779012e+03,4.921603e+02
1.779977e+03,4.997526e+02
1.780941e+03,5.000627e+02
1.781905e+03,4.930546e+02
1.782869e+03,4.870002e+02
1.783833e+03,4.852427e+02
1.784798e+03,4.861293e+02
1.785762e+03,4.918690e+02
1.786726e+03,4.958472e+02
1.787690e+03,4.944646e+02
1.788655e+03,4.904862e+02
1.789619e+03,4.885160e+02
1.790583e+03,4.879701e+02
1.791547e+03,4.875082e+02
1.792512e+03,4.872303e+02
1.793476e+03,4.882938e+02
1.794440e+03,4.918618e+02
1.795404e+03,4.916869e+02
1.796369e+03,4.871637e+02
1.797333e+03,4.834160e+02
1.798297e+03,4.839399e+02
1.799261e+03,4.854386e+02
1.800225e+03,4.849342e+02
1.801190e+03,4.852240e+02
1.802154e+03,4.894200e+02
1.803118e+03,4.945908e+02
1.804082e+03,4.913359e+02
1.805047e+03,4.839153e+02
1.806011e+03,4.826284e+02
1.806975e+03,4.878275e+02
1.807939e+03,4.895571e+02
1.808904e+03,4.850921e+02
1.809868e+03,4.824313e+02
1.810832e+03,4.826130e+02
1.811796e+03,4.825010e+02
1.812760e+03,4.781083e+02
1.813725e+03,4.744657e+02
1.814689e+03,4.769653e+02
1.815653e+03,4.793544e+02
1.816617e+03,4.756727e+02
1.817582e+03,4.691796e+02
1.818546e+03,4.715059e+02
1.819510e+03,4.788299e+02
1.820474e+03,4.831183e+02
1.821439e+03,4.830858e+02
1.822403e+03,4.818457e+02
1.823367e+03,4.793726e+02
1.824331e+03,4.779562e+02
1.825296e+03,4.778684e+02
1.826260e+03,4.772984e+02
1.827224e+03,4.746620e+02
1.828188e+03,4.721586e+02
1.829152e+03,4.701704e+02
1.830117e+03,4.691852e+02
1.831081e+03,4.700144e+02
1.832045e+03,4.718881e+02
1.833009e+03,4.739351e+02
1.833974e+03,4.756996e+02
1.834938e+03,4.750432e+02
1.835902e+03,4.709981e+02
1.836866e+03,4.688482e+02
1.837831e+03,4.686571e+02
1.838795e+03,4.689451e+02
1.839759e+03,4.696140e+02
1.840723e+03,4.709010e+02
1.841688e+03,4.739647e+02
1.842652e+03,4.758323e+02
1.843616e+03,4.754283e+02
1.844580e+03,4.732594e+02
1.845544e+03,4.683340e+02
1.846509e+03,4.635003e+02
1.847473e+03,4.657110e+02
1.848437e+03,4.709041e+02
1.849401e+03,4.711121e+02
1.850366e+03,4.661878e+02
1.851330e+03,4.615293e+02
1.852294e+03,4.575167e+02
1.853258e+03,4.568813e+02
1.854223e+03,4.607026e+02
1.855187e+03,4.631860e+02
1.856151e+03,4.592462e+02
1.857115e+03,4.576013e+02
1.858079e+03,4.604173e+02
1.859044e+03,4.640050e+02
1.860008e+03,4.647310e+02
1.860972e+03,4.644368e+02
1.861936e+03,4.648609e+02
1.862901e+03,4.653879e+02
1.863865e+03,4.649279e+02
1.864829e+03,4.632451e+02
1.865793e+03,4.607234e+02
1.866758e+03,4.577220e+02
1.867722e+03,4.545333e+02
1.868686e+03,4.507690e+02
1.869650e+03,4.496339e+02
1.870615e+03,4.516315e+02
1.871579e+03,4.531760e+02
1.872543e+03,4.535765e+02
1.873507e+03,4.537344e+02
1.874471e+03,4.537260e+02
1.875436e+03,4.534998e+02
1.876400e+03,4.532791e+02
1.877364e+03,4.530635e+02
1.878328e+03,4.527313e+02
1.879293e+03,4.523963e+02
1.880257e+03,4.519418e+02
1.881221e+03,4.515805e+02
1.882185e+03,4.524268e+02
1.883150e+03,4.546736e+02
1.884114e+03,4.546758e+02
1.885078e+03,4.525626e+02
1.886042e+03,4.496404e+02
1.887006e+03,4.458238e+02
1.887971e+03,4.449117e+02
1.888935e+03,4.510364e+02
1.889899e+03,4.531520e+02
1.890863e+03,4.476554e+02
1.891828e+03,4.419453e+02
1.892792e+03,4.458731e+02
1.893756e+03,4.504891e+02
1.894720e+03,4.477604e+02
1.895685e+03,4.435207e+02
1.896649e+03,4.439556e+02
1.897613e+03,4.471842e+02
1.898577e+03,4.474374e+02
1.899542e+03,4.459377e+02
1.900506e+03,4.453232e+02
1.901470e+03,4.460493e+02
1.902434e+03,4.454295e+02
1.903398e+03,4.436232e+02
1.904363e+03,4.439666e+02
1.905327e+03,4.475972e+02
1.906291e+03,4.503522e+02
1.907255e+03,4.495810e+02
1.908220e+03,4.475585e+02
1.909184e+03,4.441474e+02
1.910148e+03,4.418865e+02
1.911112e+03,4.454563e+02
1.912077e+03,4.494254e+02
1.913041e+03,4.488631e+02
1.914005e+03,4.462141e+02
1.914969e+03,4.439051e+02
1.915933e+03,4.417395e+02
1.916898e+03,4.389216e+02
1.917862e+03,4.357436e+02
1.918826e+03,4.321701e+02
1.919790e+03,4.283095e+02
1.920755e+03,4.273385e+02
1.921719e+03,4.289127e+02
1.922683e+03,4.309726e+02
1.923647e+03,4.332701e+02
1.924612e+03,4.348018e+02
1.925576e+03,4.348276e+02
1.926540e+03,4.338791e+02
1.927504e+03,4.311914e+02
1.928469e+03,4.305329e+02
1.929433e+03,4.399882e+02
1.930397e+03,4.470851e+02
1.931361e+03,4.390305e+02
1.932325e+03,4.278243e+02
1.933290e+03,4.223588e+02
1.934254e+03,4.214965e+02
1.935218e+03,4.233428e+02
1.936182e+03,4.260535e+02
1.937147e+03,4.268867e+02
1.938111e+03,4.261188e+02
1.939075e+03,4.268969e+02
1.940039e+03,4.289759e+02
1.941004e+03,4.289424e+02
1.941968e+03,4.261936e+02
1.942932e+03,4.246366e+02
1.943896e+03,4.258913e+02
1.944860e+03,4.275104e+02
1.945825e+03,4.295425e+02
1.946789e+03,4.302363e+02
1.947753e+03,4.265681e+02
1.948717e+03,4.233670e+02
1.949682e+03,4.227685e+02
1.950646e+03,4.226681e+02
1.951610e+03,4.221023e+02
1.952574e+03,4.209820e+02
1.953539e+03,4.172389e+02
1.954503e+03,4.146315e+02
1.955467e+03,4.182454e+02
1.956431e+03,4.253692e+02
1.957396e+03,4.295274e+02
1.958360e+03,4.308353e+02
1.959324e+03,4.284968e+02
1.960288e+03,4.236938e+02
1.961252e+03,4.227464e+02
1.962217e+03,4.263152e+02
1.963181e+03,4.237179e+02
1.964145e+03,4.152734e+02
1.965109e+03,4.092203e+02
1.966074e+03,4.107299e+02
1.967038e+03,4.135069e+02
1.968002e+03,4.170089e+02
1.968966e+03,4.186980e+02
1.969931e+03,4.168700e+02
1.970895e+03,4.146118e+02
1.971859e+03,4.140851e+02
1.972823e+03,4.153424e+02
1.973787e+03,4.192227e+02
1.974752e+03,4.219714e+02
1.975716e+03,4.159986e+02
1.976680e+03,4.079492e+02
1.977644e+03,4.061263e+02
1.978609e+03,4.075395e+02
1.979573e+03,4.058932e+02
1.980537e+03,4.027516e+02
1.981501e+03,4.053062e+02
1.982466e+03,4.112560e+02
1.983430e+03,4.127479e+02
1.984394e+03,4.084902e+02
1.985358e+03,4.078626e+02
1.986323e+03,4.102016e+02
1.987287e+03,4.117022e+02
1.988251e+03,4.109441e+02
1.989215e+03,4.109803e+02
1.990179e+03,4.126241e+02
1.991144e+03,4.130288e+02
1.992108e+03,4.115244e+02
1.993072e+03,4.103598e+02
1.994036e+03,4.120101e+02
1.995001e+03,4.124238e+02
1.995965e+03,4.102916e+02
1.996929e+03,4.077077e+02
1.997893e+03,4.059105e+02
1.998858e+03,4.048900e+02
1.999822e+03,4.061214e+02
2.000786e+03,4.065673e+02
2.001750e+03,4.026393e+02
2.002714e+03,3.977960e+02
2.003679e+03,4.016425e+02
2.004643e+03,4.080844e+02
2.005607e+03,4.061955e+02
2.006571e+03,3.987155e+02
2.007536e+03,3.981011e+02
2.008500e+03,4.018889e+02
2.009464e+03,4.019036e+02
2.010428e+03,3.976197e+02
2.011393e+03,3.942498e+02
2.012357e+03,3.919878e+02
2.013321e+03,3.931107e+02
2.014285e+03,3.971566e+02
2.015250e+03,4.004225e+02
2.016214e+03,4.012248e+02
2.017178e+03,4.007993e+02
2.018142e+03,3.992956e+02
2.019106e+03,3.966810e+02
2.020071e+03,3.911608e+02
2.021035e+03,3.889207e+02
2.021999e+03,3.961563e+02
2.022963e+03,4.006547e+02
2.023928e+03,3.973397e+02
2.024892e+03,3.919571e+02
2.025856e+03,3.895300e+02
2.026820e+03,3.893229e+02
2.027785e+03,3.912791e+02
2.028749e+03,3.936319e+02
2.029713e+03,3.947358e+02
2.030677e+03,3.943992e+02
2.031641e+03,3.908177e+02
2.032606e+03,3.863114e+02
2.033570e+03,3.844421e+02
2.034534e+03,3.849573e+02
2.035498e+03,3.888917e+02
2.036463e+03,3.940034e+02
2.037427e+03,3.937656e+02
2.038391e+03,3.884641e+02
2.039355e+03,3.899489e+02
2.040320e+03,3.958282e+02
2.041284e+03,3.942523e+02
2.042248e+03,3.822196e+02
2.043212e+03,3.769404e+02
2.044177e+03,3.799863e+02
2.045141e+03,3.832476e+02
2.046105e+03,3.853575e+02
2.047069e+03,3.852170e+02
2.048033e+03,3.786279e+02
2.048998e+03,3.770707e+02
2.049962e+03,3.819941e+02
2.050926e+03,3.861365e+02
2.051890e+03,3.835616e+02
2.052854e+03,3.807646e+02
2.053819e+03,3.790229e+02
2.054783e+03,3.787226e+02
2.055747e+03,3.809556e+02
2.056711e+03,3.836399e+02
2.057676e+03,3.851897e+02
2.058640e+03,3.856681e+02
2.059604e+03,3.845909e+02
2.060568e+03,3.829821e+02
2.061533e+03,3.827180e+02
2.062497e+03,3.828589e+02
2.063461e+03,3.830508e+02
2.064425e+03,3.823974e+02
2.065390e+03,3.782973e+02
2.066354e+03,3.731876e+02
2.067318e+03,3.719142e+02
2.068282e+03,3.734705e+02
2.069247e+03,3.752914e+02
2.070211e+03,3.769873e+02
2.071175e+03,3.769041e+02
2.072139e+03,3.754420e+02
2.073104e+03,3.730076e+02
2.074068e+03,3.698322e+02
2.075032e+03,3.681976e+02
2.075996e+03,3.677400e+02
2.076960e+03,3.675649e+02
2.077925e+03,3.674872e+02
2.078889e+03,3.676765e+02
2.079853e+03,3.681190e+02
2.080817e+03,3.697618e+02
2.081782e+03,3.724823e+02
2.082746e+03,3.728522e+02
2.083710e+03,3.687649e+02
2.084674e+03,3.647841e+02
2.085639e+03,3.613808e+02
2.086603e+03,3.613121e+02
2.087567e+03,3.686434e+02
2.088531e+03,3.730449e+02
2.089496e+03,3.727220e+02
2.090460e+03,3.711518e+02
2.091424e+03,3.704141e+02
2.092388e+03,3.694837e+02
2.093353e+03,3.664705e+02
2.094317e+03,3.648228e+02
2.095281e+03,3.653203e+02
2.096245e+03,3.668007e+02
2.097209e+03,3.700078e+02
2.098174e+03,3.710572e+02
2.099138e+03,3.681313e+02
2.100102e+03,3.643439e+02
2.101066e+03,3.632168e+02
2.102031e+03,3.625228e+02
2.102995e+03,3.593246e+02
2.103959e+03,3.566484e+02
2.104923e+03,3.574316e+02
2.105887e+03,3.601968e+02
2.106852e+03,3.625403e+02
2.107816e+03,3.642574e+02
2.108780e+03,3.656953e+02
2.109744e+03,3.666094e+02
2.110708e+03,3.666544e+02
2.111673e+03,3.661854e+02
2.112637e+03,3.653959e+02
2.113601e+03,3.638133e+02
2.114565e+03,3.600825e+02
2.115530e+03,3.552643e+02
2.116494e+03,3.510220e+02
2.117458e+03,3.484781e+02
2.118422e+03,3.481539e+02
2.119387e+03,3.497658e+02
2.120351e+03,3.555710e+02
2.121315e+03,3.630432e+02
2.122279e+03,3.638842e+02
2.123244e+03,3.577401e+02
2.124208e+03,3.548631e+02
2.125172e+03,3.543070e+02
2.126136e+03,3.516761e+02
2.127101e+03,3.456131e+02
2.128065e+03,3.465212e+02
2.129029e+03,3.530591e+02
2.129993e+03,3.548372e+02
2.130958e+03,3.494891e+02
2.131922e+03,3.465571e+02
2.132886e+03,3.472271e+02
2.133850e+03,3.463870e+02
2.134814e+03,3.439686e+02
2.135779e+03,3.435317e+02
2.136743e+03,3.475803e+02
2.137707e+03,3.473254e+02
2.138671e+03,3.427997e+02
2.139636e+03,3.407603e+02
2.140600e+03,3.481039e+02
2.141564e+03,3.489631e+02
2.142528e+03,3.420649e+02
2.143493e+03,3.374352e+02
2.144457e+03,3.395363e+02
2.145421e+03,3.413195e+02
2.146385e+03,3.409442e+02
2.147350e+03,3.402040e+02
2.148314e+03,3.395654e+02
2.149278e+03,3.403507e+02
2.150242e+03,3.459038e+02
2.151207e+03,3.468117e+02
2.152171e+03,3.408515e+02
2.153135e+03,3.353622e+02
2.154099e+03,3.379123e+02
2.155063e+03,3.396881e+02
2.156028e+03,3.384032e+02
2.156992e+03,3.376633e+02
2.157956e+03,3.404799e+02
2.158920e+03,3.426071e+02
2.159885e+03,3.411833e+02
2.160849e+03,3.413497e+02
2.161813e+03,3.470273e+02
2.162777e+03,3.511822e+02
2.163741e+03,3.455641e+02
2.164706e+03,3.397610e+02
2.165670e+03,3.373631e+02
2.166634e+03,3.375370e+02
2.167598e+03,3.422368e+02
2.168563e+03,3.441044e+02
2.169527e+03,3.387185e+02
2.170491e+03,3.329872e+02
2.171455e+03,3.367318e+02
2.172420e+03,3.405332e+02
2.173384e+03,3.375919e+02
2.174348e+03,3.334790e+02
2.175312e+03,3.323408e+02
2.176277e+03,3.321933e+02
2.177241e+03,3.308196e+02
2.178205e+03,3.302691e+02
2.179169e+03,3.326425e+02
2.180134e+03,3.355854e+02
2.181098e+03,3.347224e+02
2.182062e+03,3.339603e+02
2.183026e+03,3.358596e+02
2.183990e+03,3.386165e+02
2.184955e+03,3.413231e+02
2.185919e+03,3.413842e+02
2.186883e+03,3.346866e+02
2.187847e+03,3.278180e+02
2.188812e+03,3.312101e+02
2.189776e+03,3.370525e+02
2.190740e+03,3.367342e+02
2.191704e+03,3.337025e+02
2.192668e+03,3.302553e+02
2.193633e+03,3.271694e+02
2.194597e+03,3.254482e+02
2.195561e+03,3.249474e+02
2.196525e+03,3.258033e+02
2.197490e+03,3.266737e+02
2.198454e+03,3.244741e+02
2.199418e+03,3.217745e+02
2.200382e+03,3.207294e+02
2.201347e+03,3.213830e+02
2.202311e+03,3.248449e+02
2.203275e+03,3.283237e+02
2.204239e+03,3.280246e+02
2.205204e+03,3.265179e+02
2.206168e+03,3.292452e+02
2.207132e+03,3.320267e+02
2.208096e+03,3.273369e+02
2.209061e+03,3.209536e+02
2.210025e+03,3.200412e+02
2.210989e+03,3.211805e+02
2.211953e+03,3.187942e+02
2.212917e+03,3.162166e+02
2.213882e+03,3.156186e+02
2.214846e+03,3.164908e+02
2.215810e+03,3.200839e+02
2.216774e+03,3.227258e+02
2.217739e+03,3.211612e+02
2.218703e+03,3.184724e+02
2.219667e+03,3.207374e+02
2.220631e+03,3.238802e+02
2.221595e+03,3.238618e+02
2.222560e+03,3.219804e+02
2.223524e+03,3.197003e+02
2.224488e+03,3.170455e+02
2.225452e+03,3.136790e+02
2.226417e+03,3.106111e+02
2.227381e+03,3.082570e+02
2.228345e+03,3.073456e+02
2.229309e+03,3.098493e+02
2.230274e+03,3.125769e+02
2.231238e+03,3.124557e+02
2.232202e+03,3.115569e+02
2.233166e+03,3.137502e+02
2.234131e+03,3.165629e+02
2.235095e+03,3.182534e+02
2.236059e+03,3.186466e+02
2.237023e+03,3.150905e+02
2.237988e+03,3.132291e+02
2.238952e+03,3.181411e+02
2.239916e+03,3.228847e+02
2.240880e+03,3.162990e+02
2.241844e+03,3.087735e+02
2.242809e+03,3.080162e+02
2.243773e+03,3.094891e+02
2.244737e+03,3.097521e+02
2.245701e+03,3.084889e+02
2.246666e+03,3.037531e+02
2.247630e+03,3.000093e+02
2.248594e+03,3.009374e+02
2.249558e+03,3.041422e+02
2.250522e+03,3.089937e+02
2.251487e+03,3.124996e+02
2.252451e+03,3.125360e+02
2.253415e+03,3.110732e+02
2.254379e+03,3.107059e+02
2.255344e+03,3.094141e+02
2.256308e+03,3.062208e+02
2.257272e+03,3.031005e+02
2.258236e+03,3.015417e+02
2.259201e+03,3.015604e+02
2.260165e+03,3.030352e+02
2.261129e+03,3.048815e+02
2.262093e+03,3.078173e+02
2.263058e+03,3.074091e+02
2.264022e+03,3.022696e+02
2.264986e+03,2.980253e+02
2.265950e+03,2.986309e+02
2.266915e+03,2.999043e+02
2.267879e+03,3.000727e+02
2.268843e+03,3.017935e+02
2.269807e+03,3.083070e+02
2.270771e+03,3.102269e+02
2.271736e+03,3.024082e+02
2.272700e+03,2.974717e+02
2.273664e+03,2.988671e+02
2.274628e+03,3.001023e+02
2.275593e+03,2.978137e+02
2.276557e+03,2.961382e+02
2.277521e+03,2.959029e+02
2.278485e+03,2.967092e+02
2.279449e+03,2.991141e+02
2.280414e+03,3.006124e+02
2.281378e+03,3.010005e+02
2.282342e+03,3.004390e+02
2.283306e+03,2.979831e+02
2.284271e+03,2.957861e+02
2.285235e+03,2.938344e+02
2.286199e+03,2.929750e+02
2.287163e+03,2.946696e+02
2.288128e+03,2.929845e+02
2.289092e+03,2.882789e+02
2.290056e+03,2.876190e+02
2.291020e+03,2.929759e+02
2.291985e+03,2.962685e+02
2.292949e+03,2.975343e+02
2.293913e+03,2.961505e+02
2.294877e+03,2.928702e+02
2.295842e+03,2.964788e+02
2.296806e+03,3.052588e+02
2.297770e+03,3.038610e+02
2.298734e+03,2.944301e+02
2.299698e+03,2.896013e+02
2.300663e+03,2.894148e+02
2.301627e+03,2.900273e+02
2.302591e+03,2.904956e+02
2.303555e+03,2.886165e+02
2.304520e+03,2.853675e+02
2.305484e+03,2.844859e+02
2.306448e+03,2.859404e+02
2.307412e+03,2.910498e+02
2.308376e+03,2.964966e+02
2.309341e+03,2.917024e+02
2.310305e+03,2.842024e+02
2.311269e+03,2.852609e+02
2.312233e+03,2.897716e+02
2.313198e+03,2.884657e+02
2.314162e+03,2.859520e+02
2.315126e+03,2.885138e+02
2.316090e+03,2.912285e+02
2.317055e+03,2.871337e+02
2.318019e+03,2.826659e+02
2.318983e+03,2.837677e+02
2.319947e+03,2.866890e+02
2.320912e+03,2.907761e+02
2.321876e+03,2.932193e+02
2.322840e+03,2.905223e+02
2.323804e+03,2.873430e+02
2.324769e+03,2.854463e+02
2.325733e+03,2.849295e+02
2.326697e+03,2.866832e+02
2.327661e+03,2.877018e+02
2.328625e+03,2.869399e+02
2.329590e+03,2.849254e+02
2.330554e+03,2.816526e+02
2.331518e+03,2.784035e+02
2.332482e+03,2.752297e+02
2.333447e+03,2.745284e+02
2.334411e+03,2.788541e+02
2.335375e+03,2.824088e+02
2.336339e+03,2.847741e+02
2.337303e+03,2.850826e+02
2.338268e+03,2.819244e+02
2.339232e+03,2.789931e+02
2.340196e+03,2.765514e+02
2.341160e+03,2.757200e+02
2.342125e+03,2.768793e+02
2.343089e+03,2.791797e+02
2.344053e+03,2.818896e+02
2.345017e+03,2.838765e+02
2.345982e+03,2.849281e+02
2.346946e+03,2.841050e+02
2.347910e+03,2.822426e+02
2.348874e+03,2.801886e+02
2.349839e+03,2.785977e+02
2.350803e+03,2.805440e+02
2.351767e+03,2.839389e+02
2.352731e+03,2.845508e+02
2.353696e+03,2.832447e+02
2.354660e+03,2.799242e+02
2.355624e+03,2.768007e+02
2.356588e+03,2.790683e+02
2.357552e+03,2.823169e+02
2.358517e+03,2.827762e+02
2.359481e+03,2.817288e+02
2.360445e+03,2.794331e+02
2.361409e+03,2.777087e+02
2.362374e+03,2.779789e+02
2.363338e+03,2.778984e+02
2.364302e+03,2.753107e+02
2.365266e+03,2.724147e+02
2.366230e+03,2.690885e+02
2.367195e+03,2.682271e+02
2.368159e+03,2.744955e+02
2.369123e+03,2.773647e+02
2.370087e+03,2.755860e+02
2.371052e+03,2.722232e+02
2.372016e+03,2.669453e+02
2.372980e+03,2.665343e+02
2.373944e+03,2.707652e+02
2.374909e+03,2.735490e+02
2.375873e+03,2.729516e+02
2.376837e+03,2.712326e+02
2.377801e+03,2.688062e+02
2.378766e+03,2.672357e+02
2.379730e+03,2.667448e+02
2.380694e+03,2.687171e+02
2.381658e+03,2.712775e+02
2.382623e+03,2.668285e+02
2.383587e+03,2.587176e+02
2.384551e+03,2.582120e+02
2.385515e+03,2.623506e+02
2.386479e+03,2.688373e+02
2.387444e+03,2.744803e+02
2.388408e+03,2.737092e+02
2.389372e+03,2.708433e+02
2.390336e+03,2.697640e+02
2.391301e+03,2.695073e+02
2.392265e+03,2.704560e+02
2.393229e+03,2.694665e+02
2.394193e+03,2.637026e+02
2.395157e+03,2.590472e+02
2.396122e+03,2.599794e+02
2.397086e+03,2.612622e+02
2.398050e+03,2.611456e+02
2.399014e+03,2.613742e+02
2.399979e+03,2.623560e+02
2.400943e+03,2.655340e+02
2.401907e+03,2.712495e+02
2.402871e+03,2.703239e+02
2.403836e+03,2.607120e+02
2.404800e+03,2.579767e+02
2.405764e+03,2.625903e+02
2.406728e+03,2.653636e+02
2.407693e+03,2.651393e+02
2.408657e+03,2.630735e+02
2.409621e+03,2.600271e+02
2.410585e+03,2.587025e+02
2.411550e+03,2.585636e+02
2.412514e+03,2.576324e+02
2.413478e+03,2.563383e+02
2.414442e+03,2.551339e+02
2.415406e+03,2.555673e+02
2.416371e+03,2.603553e+02
2.417335e+03,2.650277e+02
2.418299e+03,2.609530e+02
2.419263e+03,2.568475e+02
2.420228e+03,2.576236e+02
2.421192e+03,2.592727e+02
2.422156e+03,2.586846e+02
2.423120e+03,2.569129e+02
2.424084e+03,2.536737e+02
2.425049e+03,2.516181e+02
2.426013e+03,2.527256e+02
2.426977e+03,2.556210e+02
2.427941e+03,2.601824e+02
2.428906e+03,2.604808e+02
2.429870e+03,2.540351e+02
2.430834e+03,2.500141e+02
2.431798e+03,2.487340e+02
2.432763e+03,2.510261e+02
2.433727e+03,2.559489e+02
2.434691e+03,2.568112e+02
2.435655e+03,2.553790e+02
2.436620e+03,2.557767e+02
2.437584e+03,2.567698e+02
2.438548e+03,2.532634e+02
2.439512e+03,2.500120e+02
2.440477e+03,2.520516e+02
2.441441e+03,2.554206e+02
2.442405e+03,2.549245e+02
2.443369e+03,2.542226e+02
2.444333e+03,2.553167e+02
2.445298e+03,2.563057e+02
2.446262e+03,2.560840e+02
2.447226e+03,2.534001e+02
2.448190e+03,2.481543e+02
2.449155e+03,2.442188e+02
2.450119e+03,2.446360e+02
2.451083e+03,2.454978e+02
2.452047e+03,2.466535e+02
2.453011e+03,2.480686e+02
2.453976e+03,2.499003e+02
2.454940e+03,2.494168e+02
2.455904e+03,2.478671e+02
2.456868e+03,2.493632e+02
2.457833e+03,2.521994e+02
2.458797e+03,2.495224e+02
2.459761e+03,2.453203e+02
2.460725e+03,2.453852e+02
2.461690e+03,2.467651e+02
2.462654e+03,2.449581e+02
2.463618e+03,2.425692e+02
2.464582e+03,2.411652e+02
2.465547e+03,2.409547e+02
2.466511e+03,2.430683e+02
2.467475e+03,2.436447e+02
2.468439e+03,2.417467e+02
2.469404e+03,2.403450e+02
2.470368e+03,2.423650e+02
2.471332e+03,2.428279e+02
2.472296e+03,2.416790e+02
2.473260e+03,2.414848e+02
2.474225e+03,2.429827e+02
2.475189e+03,2.463657e+02
2.476153e+03,2.505667e+02
2.477117e+03,2.509044e+02
2.478082e+03,2.485979e+02
2.479046e+03,2.478550e+02
2.480010e+03,2.481775e+02
2.480974e+03,2.501011e+02
2.481938e+03,2.507481e+02
2.482903e+03,2.427228e+02
2.483867e+03,2.375147e+02
2.484831e+03,2.415838e+02
2.485795e+03,2.465019e+02
2.486760e+03,2.439060e+02
2.487724e+03,2.458648e+02
2.488688e+03,2.545336e+02
2.489652e+03,2.582950e+02
2.490617e+03,2.475113e+02
2.491581e+03,2.399970e+02
2.492545e+03,2.360846e+02
2.493509e+03,2.375069e+02
2.494474e+03,2.436128e+02
2.495438e+03,2.472179e+02
2.496402e+03,2.486874e+02
2.497366e+03,2.488951e+02
2.498331e+03,2.475940e+02
2.499295e+03,2.411446e+02
2.500259e+03,2.359801e+02
2.501223e+03,2.386258e+02
2.502188e+03,2.422698e+02
2.503152e+03,2.372059e+02
2.504116e+03,2.366055e+02
2.505080e+03,2.447670e+02
2.506044e+03,2.506267e+02
2.507009e+03,2.444055e+02
2.507973e+03,2.393782e+02
2.508937e+03,2.364178e+02
2.509901e+03,2.373018e+02
2.510865e+03,2.427349e+02
2.511830e+03,2.434989e+02
2.512794e+03,2.408183e+02
2.513758e+03,2.378817e+02
2.514722e+03,2.359104e+02
2.515687e+03,2.392007e+02
2.516651e+03,2.421881e+02
2.517615e+03,2.384089e+02
2.518579e+03,2.334943e+02
2.519544e+03,2.344840e+02
2.520508e+03,2.374870e+02
2.521472e+03,2.412960e+02
2.522436e+03,2.436096e+02
2.523401e+03,2.414668e+02
2.524365e+03,2.403289e+02
2.525329e+03,2.402724e+02
2.526293e+03,2.398572e+02
2.527258e+03,2.389632e+02
2.528222e+03,2.374309e+02
2.529186e+03,2.355485e+02
2.530150e+03,2.342173e+02
2.531115e+03,2.334509e+02
2.532079e+03,2.324621e+02
2.533043e+03,2.322972e+02
2.534007e+03,2.344814e+02
2.534971e+03,2.357918e+02
2.535936e+03,2.300937e+02
2.536900e+03,2.266567e+02
2.537864e+03,2.290584e+02
2.538828e+03,2.313104e+02
2.539792e+03,2.292202e+02
2.540757e+03,2.313488e+02
2.541721e+03,2.382437e+02
2.542685e+03,2.374174e+02
2.543649e+03,2.292280e+02
2.544614e+03,2.331865e+02
2.545578e+03,2.443334e+02
2.546542e+03,2.454696e+02
2.547506e+03,2.405677e+02
2.548471e+03,2.382676e+02
2.549435e+03,2.375345e+02
2.550399e+03,2.377037e+02
2.551363e+03,2.381008e+02
2.552328e+03,2.378205e+02
2.553292e+03,2.396073e+02
2.554256e+03,2.456481e+02
2.555220e+03,2.470792e+02
2.556185e+03,2.425604e+02
2.557149e+03,2.381363e+02
2.558113e+03,2.350153e+02
2.559077e+03,2.337491e+02
2.560042e+03,2.337370e+02
2.561006e+03,2.338846e+02
2.561970e+03,2.342014e+02
2.562934e+03,2.336343e+02
2.563898e+03,2.334596e+02
2.564863e+03,2.357442e+02
2.565827e+03,2.375266e+02
2.566791e+03,2.357164e+02
2.567755e+03,2.359341e+02
2.568719e+03,2.394097e+02
2.569684e+03,2.403817e+02
2.570648e+03,2.349752e+02
2.571612e+03,2.343749e+02
2.572576e+03,2.376432e+02
2.573541e+03,2.350470e+02
2.574505e+03,2.275012e+02
2.575469e+03,2.289236e+02
2.576433e+03,2.331420e+02
2.577398e+03,2.304768e+02
2.578362e+03,2.258839e+02
2.579326e+03,2.255977e+02
2.580290e+03,2.273865e+02
2.581255e+03,2.303351e+02
2.582219e+03,2.312183e+02
2.583183e+03,2.256922e+02
2.584147e+03,2.215801e+02
2.585112e+03,2.197459e+02
2.586076e+03,2.222854e+02
2.587040e+03,2.291657e+02
2.588004e+03,2.327402e+02
2.588969e+03,2.332186e+02
2.589933e+03,2.320635e+02
2.590897e+03,2.293816e+02
2.591861e+03,2.224715e+02
2.592825e+03,2.176901e+02
2.593790e+03,2.193047e+02
2.594754e+03,2.223850e+02
2.595718e+03,2.242676e+02
2.596682e+03,2.244456e+02
2.597646e+03,2.225364e+02
2.598611e+03,2.221787e+02
2.599575e+03,2.236892e+02
2.600539e+03,2.231348e+02
2.601503e+03,2.211184e+02
2.602468e+03,2.226150e+02
2.603432e+03,2.251156e+02
2.604396e+03,2.232473e+02
2.605360e+03,2.203942e+02
2.606325e+03,2.182641e+02
2.607289e+03,2.183155e+02
2.608253e+03,2.214958e+02
2.609217e+03,2.236451e+02
2.610182e+03,2.219044e+02
2.611146e+03,2.215798e+02
2.612110e+03,2.227312e+02
2.613074e+03,2.228543e+02
2.614039e+03,2.218141e+02
2.615003e+03,2.208985e+02
2.615967e+03,2.187355e+02
2.616931e+03,2.121458e+02
2.617896e+03,2.072026e+02
2.618860e+03,2.156305e+02
2.619824e+03,2.222466e+02
2.620788e+03,2.214650e+02
2.621752e+03,2.171502e+02
2.622717e+03,2.087943e+02
2.623681e+03,2.072033e+02
2.624645e+03,2.120371e+02
2.625609e+03,2.171661e+02
2.626573e+03,2.214877e+02
2.627538e+03,2.228277e+02
2.628502e+03,2.219249e+02
2.629466e+03,2.200934e+02
2.630430e+03,2.174192e+02
2.631395e+03,2.117140e+02
2.632359e+03,2.097032e+02
2.633323e+03,2.155831e+02
2.634287e+03,2.176493e+02
2.635252e+03,2.135190e+02
2.636216e+03,2.130333e+02
2.637180e+03,2.175903e+02
2.638144e+03,2.196462e+02
2.639109e+03,2.194440e+02
2.640073e+03,2.175541e+02
2.641037e+03,2.152991e+02
2.642001e+03,2.130835e+02
2.642966e+03,2.121953e+02
2.643930e+03,2.134886e+02
2.644894e+03,2.143482e+02
2.645858e+03,2.127112e+02
2.646823e+03,2.106174e+02
2.647787e+03,2.083021e+02
2.648751e+03,2.083134e+02
2.649715e+03,2.105792e+02
2.650679e+03,2.122837e+02
2.651644e+03,2.136787e+02
2.652608e+03,2.152890e+02
2.653572e+03,2.166187e+02
2.654536e+03,2.166013e+02
2.655500e+03,2.170766e+02
2.656465e+03,2.192351e+02
2.657429e+03,2.177524e+02
2.658393e+03,2.106524e+02
2.659357e+03,2.047003e+02
2.660322e+03,2.014529e+02
2.661286e+03,2.012768e+02
2.662250e+03,2.038047e+02
2.663214e+03,2.110139e+02
2.664179e+03,2.177180e+02
2.665143e+03,2.176811e+02
2.666107e+03,2.142400e+02
2.667071e+03,2.086488e+02
2.668036e+03,2.061565e+02
2.669000e+03,2.114073e+02
2.669964e+03,2.148008e+02
2.670928e+03,2.157085e+02
2.671893e+03,2.118554e+02
2.672857e+03,2.054623e+02
2.673821e+03,2.060249e+02
2.674785e+03,2.092796e+02
2.675750e+03,2.099937e+02
2.676714e+03,2.114770e+02
2.677678e+03,2.215055e+02
2.678642e+03,2.235122e+02
2.679606e+03,2.134031e+02
2.680571e+03,2.092707e+02
2.681535e+03,2.137597e+02
2.682499e+03,2.116127e+02
2.683463e+03,2.045059e+02
2.684427e+03,2.032330e+02
2.685392e+03,2.056805e+02
2.686356e+03,2.101543e+02
2.687320e+03,2.130467e+02
2.688284e+03,2.102403e+02
2.689249e+03,2.091109e+02
2.690213e+03,2.110971e+02
2.691177e+03,2.115097e+02
2.692141e+03,2.089440e+02
2.693106e+03,2.036365e+02
2.694070e+03,1.984066e+02
2.695034e+03,2.014248e+02
2.695998e+03,2.071757e+02
2.696963e+03,2.049510e+02
2.697927e+03,2.042627e+02
2.698891e+03,2.101931e+02
2.699855e+03,2.126448e+02
2.700820e+03,2.052918e+02
2.701784e+03,2.044672e+02
2.702748e+03,2.106309e+02
2.703712e+03,2.148637e+02
2.704677e+03,2.165736e+02
2.705641e+03,2.147306e+02
2.706605e+03,2.122241e+02
2.707569e+03,2.114827e+02
2.708533e+03,2.120966e+02
2.709498e+03,2.141413e+02
2.710462e+03,2.129785e+02
2.711426e+03,2.045400e+02
2.712390e+03,2.038632e+02
2.713354e+03,2.085309e+02
2.714319e+03,2.058486e+02
2.715283e+03,1.999151e+02
2.716247e+03,2.037991e+02
2.717211e+03,2.078242e+02
2.718176e+03,2.045657e+02
2.719140e+03,2.023245e+02
2.720104e+03,2.074783e+02
2.721068e+03,2.130642e+02
2.722033e+03,2.174383e+02
2.722997e+03,2.106148e+02
2.723961e+03,1.972764e+02
2.724925e+03,1.982764e+02
2.725890e+03,2.057158e+02
2.726854e+03,2.083147e+02
2.727818e+03,2.098875e+02
2.728782e+03,2.128858e+02
2.729747e+03,2.124001e+02
2.730711e+03,2.026941e+02
2.731675e+03,2.001852e+02
2.732639e+03,2.035691e+02
2.733604e+03,2.053593e+02
2.734568e+03,2.056785e+02
2.735532e+03,2.071808e+02
2.736496e+03,2.074101e+02
2.737460e+03,2.047800e+02
2.738425e+03,2.011414e+02
2.739389e+03,1.967965e+02
2.740353e+03,1.958283e+02
2.741317e+03,1.988948e+02
2.742281e+03,2.014801e+02
2.743246e+03,2.032583e+02
2.744210e+03,2.039276e+02
2.745174e+03,2.029145e+02
2.746138e+03,1.974819e+02
2.747103e+03,1.951114e+02
2.748067e+03,1.987153e+02
2.749031e+03,2.018140e+02
2.749995e+03,2.011313e+02
2.750960e+03,1.988540e+02
2.751924e+03,1.957930e+02
2.752888e+03,1.937150e+02
2.753852e+03,1.936257e+02
2.754817e+03,2.010073e+02
2.755781e+03,2.069117e+02
2.756745e+03,2.060187e+02
2.757709e+03,2.029872e+02
2.758674e+03,1.992319e+02
2.759638e+03,2.001703e+02
2.760602e+03,2.061656e+02
2.761566e+03,2.073672e+02
2.762531e+03,2.054477e+02
2.763495e+03,2.009801e+02
2.764459e+03,1.991133e+02
2.765423e+03,2.123383e+02
2.766387e+03,2.132676e+02
2.767352e+03,1.971114e+02
2.768316e+03,1.878995e+02
2.769280e+03,1.904827e+02
2.770244e+03,1.939708e+02
2.771208e+03,1.972750e+02
2.772173e+03,1.982820e+02
2.773137e+03,1.989447e+02
2.774101e+03,2.030821e+02
2.775065e+03,2.034772e+02
2.776030e+03,1.950576e+02
2.776994e+03,1.945410e+02
2.777958e+03,2.009312e+02
2.778922e+03,2.011903e+02
2.779887e+03,1.978957e+02
2.780851e+03,2.024772e+02
2.781815e+03,2.062583e+02
2.782779e+03,2.035398e+02
2.783744e+03,1.997181e+02
2.784708e+03,1.980289e+02
2.785672e+03,1.944655e+02
2.786636e+03,1.889137e+02
2.787601e+03,1.820054e+02
2.788565e+03,1.771003e+02
2.789529e+03,1.873699e+02
2.790493e+03,1.988954e+02
2.791458e+03,1.986324e+02
2.792422e+03,1.971513e+02
2.793386e+03,1.974522e+02
2.794350e+03,1.976783e+02
2.795314e+03,1.972658e+02
2.796279e+03,1.978676e+02
2.797243e+03,2.003564e+02
2.798207e+03,2.071977e+02
2.799171e+03,2.134004e+02
2.800135e+03,2.113121e+02
2.801100e+03,2.091043e+02
2.802064e+03,2.086993e+02
2.803028e+03,2.058438e+02
2.803992e+03,2.001372e+02
2.804957e+03,1.873707e+02
2.805921e+03,1.755422e+02
2.806885e+03,1.812798e+02
2.807849e+03,1.903889e+02
2.808814e+03,1.950815e+02
2.809778e+03,2.003201e+02
2.810742e+03,2.101263e+02
2.811706e+03,2.108389e+02
2.812671e+03,2.036299e+02
2.813635e+03,1.933395e+02
2.814599e+03,1.851963e+02
2.815563e+03,1.947495e+02
2.816528e+03,2.003280e+02
2.817492e+03,1.889586e+02
2.818456e+03,1.820852e+02
2.819420e+03,1.821709e+02
2.820385e+03,1.885883e+02
2.821349e+03,1.971221e+02
2.822313e+03,1.905559e+02
2.823277e+03,1.833330e+02
2.824241e+03,1.867393e+02
2.825206e+03,1.931012e+02
2.826170e+03,1.988849e+02
2.827134e+03,2.025168e+02
2.828098e+03,2.030227e+02
2.829063e+03,1.984143e+02
2.830027e+03,1.915513e+02
2.830991e+03,1.864691e+02
2.831955e+03,1.862888e+02
2.832919e+03,1.968638e+02
2.833884e+03,2.086965e+02
2.834848e+03,2.192110e+02
2.835812e+03,2.144624e+02
2.836776e+03,1.973406e+02
2.837741e+03,1.936497e+02
2.838705e+03,1.971211e+02
2.839669e+03,2.013096e+02
2.840633e+03,2.024038e+02
2.841598e+03,1.978796e+02
2.842562e+03,1.983712e+02
2.843526e+03,2.066629e+02
2.844490e+03,2.039337e+02
2.845455e+03,1.962349e+02
2.846419e+03,1.947165e+02
2.847383e+03,1.962666e+02
2.848347e+03,1.973378e+02
2.849312e+03,2.026018e+02
2.850276e+03,2.125306e+02
2.851240e+03,2.169487e+02
2.852204e+03,2.159747e+02
2.853168e+03,2.115134e+02
2.854133e+03,2.093859e+02
2.855097e+03,2.244639e+02
2.856061e+03,2.268080e+02
2.857025e+03,2.081507e+02
2.857990e+03,1.970338e+02
2.858954e+03,2.021399e+02
2.859918e+03,2.104333e+02
2.860882e+03,2.178864e+02
2.861846e+03,2.193803e+02
2.862811e+03,2.149144e+02
2.863775e+03,2.004065e+02
2.864739e+03,1.957105e+02
2.865703e+03,2.070064e+02
2.866668e+03,2.130799e+02
2.867632e+03,2.153416e+02
2.868596e+03,2.227383e+02
2.869560e+03,2.279033e+02
2.870525e+03,2.165284e+02
2.871489e+03,2.105944e+02
2.872453e+03,2.152827e+02
2.873417e+03,2.152586e+02
2.874382e+03,2.098293e+02
2.875346e+03,2.076386e+02
2.876310e+03,2.103512e+02
2.877274e+03,2.238226e+02
2.878239e+03,2.319300e+02
2.879203e+03,2.290648e+02
2.880167e+03,2.256357e+02
2.881131e+03,2.249980e+02
2.882095e+03,2.211719e+02
2.883060e+03,2.185776e+02
2.884024e+03,2.248958e+02
2.884988e+03,2.300775e+02
2.885952e+03,2.228221e+02
2.886917e+03,2.232030e+02
2.887881e+03,2.365475e+02
2.888845e+03,2.342712e+02
2.889809e+03,2.244874e+02
2.890773e+03,2.272030e+02
2.891738e+03,2.344579e+02
2.892702e+03,2.428122e+02
2.893666e+03,2.402688e+02
2.894630e+03,2.258238e+02
2.895595e+03,2.238210e+02
2.896559e+03,2.320728e+02
2.897523e+03,2.356203e+02
2.898487e+03,2.360853e+02
2.899452e+03,2.355793e+02
2.900416e+03,2.307719e+02
2.901380e+03,2.217175e+02
2.902344e+03,2.232623e+02
2.903309e+03,2.351193e+02
2.904273e+03,2.343017e+02
2.905237e+03,2.268577e+02
2.906201e+03,2.182009e+02
2.907166e+03,2.153824e+02
2.908130e+03,2.212053e+02
2.909094e+03,2.237261e+02
2.910058e+03,2.211477e+02
2.911022e+03,2.219189e+02
2.911987e+03,2.211551e+02
2.912951e+03,2.125013e+02
2.913915e+03,2.059795e+02
2.914879e+03,2.101786e+02
2.915844e+03,2.112500e+02
2.916808e+03,2.085783e+02
2.917772e+03,2.082162e+02
2.918736e+03,2.076351e+02
2.919700e+03,2.005888e+02
2.920665e+03,1.970296e+02
2.921629e+03,2.087016e+02
2.922593e+03,2.134748e+02
2.923557e+03,2.120031e+02
2.924522e+03,2.135390e+02
2.925486e+03,2.158266e+02
2.926450e+03,2.105422e+02
2.927414e+03,2.054353e+02
2.928379e+03,2.030421e+02
2.929343e+03,2.103694e+02
2.930307e+03,2.237124e+02
2.931271e+03,2.222909e+02
2.932236e+03,2.133721e+02
2.933200e+03,2.077036e+02
2.934164e+03,2.039998e+02
2.935128e+03,2.014488e+02
2.936093e+03,1.992162e+02
2.937057e+03,1.982096e+02
2.938021e+03,2.108465e+02
2.938985e+03,2.251270e+02
2.939949e+03,2.200771e+02
2.940914e+03,2.082034e+02
2.941878e+03,1.950031e+02
2.942842e+03,1.912316e+02
2.943806e+03,1.968869e+02
2.944771e+03,1.944164e+02
2.945735e+03,1.902476e+02
2.946699e+03,1.952737e+02
2.947663e+03,1.970405e+02
2.948627e+03,1.915050e+02
2.949592e+03,1.900258e+02
2.950556e+03,1.946155e+02
2.951520e+03,2.012416e+02
2.952484e+03,2.046897e+02
2.953449e+03,1.980778e+02
2.954413e+03,2.015327e+02
2.955377e+03,2.236430e+02
2.956341e+03,2.320666e+02
2.957306e+03,2.258544e+02
2.958270e+03,2.319030e+02
2.959234e+03,2.324965e+02
2.960198e+03,2.136123e+02
2.961163e+03,1.988229e+02
2.962127e+03,1.991070e+02
2.963091e+03,1.963380e+02
2.964055e+03,1.918622e+02
2.965020e+03,1.962812e+02
2.965984e+03,2.003156e+02
2.966948e+03,1.967358e+02
2.967912e+03,1.922116e+02
2.968876e+03,1.888717e+02
2.969841e+03,1.912907e+02
2.970805e+03,1.932700e+02
2.971769e+03,1.802106e+02
2.972733e+03,1.734578e+02
2.973698e+03,1.906896e+02
2.974662e+03,1.960784e+02
2.975626e+03,1.798054e+02
2.976590e+03,1.820650e+02
2.977554e+03,1.913080e+02
2.978519e+03,1.912976e+02
2.979483e+03,1.892104e+02
2.980447e+03,1.905100e+02
2.981411e+03,1.878772e+02
2.982376e+03,1.816505e+02
2.983340e+03,1.821315e+02
2.984304e+03,1.843488e+02
2.985268e+03,1.837283e+02
2.986233e+03,1.796677e+02
2.987197e+03,1.702496e+02
2.988161e+03,1.655063e+02
2.989125e+03,1.672041e+02
2.990090e+03,1.798234e+02
2.991054e+03,1.882542e+02
2.992018e+03,1.796093e+02
2.992982e+03,1.750682e+02
2.993947e+03,1.841886e+02
2.994911e+03,1.844290e+02
2.995875e+03,1.793984e+02
2.996839e+03,1.738814e+02
2.997803e+03,1.743319e+02
2.998768e+03,1.856242e+02
2.999732e+03,1.914622e+02
3.000696e+03,1.887041e+02
3.001660e+03,1.825700e+02
3.002625e+03,1.766190e+02
3.003589e+03,1.742653e+02
3.004553e+03,1.741067e+02
3.005517e+03,1.756819e+02
3.006481e+03,1.756541e+02
3.007446e+03,1.749927e+02
3.008410e+03,1.791451e+02
3.009374e+03,1.845528e+02
3.010338e+03,1.894066e+02
3.011303e+03,1.903821e+02
3.012267e+03,1.861897e+02
3.013231e+03,1.760876e+02
3.014195e+03,1.659888e+02
3.015160e+03,1.660614e+02
3.016124e+03,1.686087e+02
3.017088e+03,1.702127e+02
3.018052e+03,1.752157e+02
3.019017e+03,1.822318e+02
3.019981e+03,1.748901e+02
3.020945e+03,1.634157e+02
3.021909e+03,1.543954e+02
3.022874e+03,1.599193e+02
3.023838e+03,1.778809e+02
3.024802e+03,1.800209e+02
3.025766e+03,1.713669e+02
3.026730e+03,1.684783e+02
3.027695e+03,1.628046e+02
3.028659e+03,1.499602e+02
3.029623e+03,1.606651e+02
3.030587e+03,1.886656e+02
3.031552e+03,1.885098e+02
3.032516e+03,1.798429e+02
3.033480e+03,1.908728e+02
3.034444e+03,1.856644e+02
3.035408e+03,1.619645e+02
3.036373e+03,1.651718e+02
3.037337e+03,1.833738e+02
3.038301e+03,1.714300e+02
3.039265e+03,1.592642e+02
3.040230e+03,1.647697e+02
3.041194e+03,1.714802e+02
3.042158e+03,1.750037e+02
3.043122e+03,1.622919e+02
3.044087e+03,1.515404e+02
3.045051e+03,1.729420e+02
3.046015e+03,1.875978e+02
3.046979e+03,1.839026e+02
3.047944e+03,1.811966e+02
3.048908e+03,1.793750e+02
3.049872e+03,1.778204e+02
3.050836e+03,1.726992e+02
3.051801e+03,1.593896e+02
3.052765e+03,1.581962e+02
3.053729e+03,1.693352e+02
3.054693e+03,1.789704e+02
3.055657e+03,1.860856e+02
3.056622e+03,1.910791e+02
3.057586e+03,1.844038e+02
3.058550e+03,1.643083e+02
3.059514e+03,1.650339e+02
3.060479e+03,1.772829e+02
3.061443e+03,1.904187e+02
3.062407e+03,1.853568e+02
3.063371e+03,1.611038e+02
3.064335e+03,1.579714e+02
3.065300e+03,1.721455e+02
3.066264e+03,1.695833e+02
3.067228e+03,1.671819e+02
3.068192e+03,1.774564e+02
3.069157e+03,1.771794e+02
3.070121e+03,1.667731e+02
3.071085e+03,1.557414e+02
3.072049e+03,1.498907e+02
3.073014e+03,1.625578e+02
3.073978e+03,1.749265e+02
3.074942e+03,1.821633e+02
3.075906e+03,1.724580e+02
3.076871e+03,1.613580e+02
3.077835e+03,1.745655e+02
3.078799e+03,1.825505e+02
3.079763e+03,1.624764e+02
3.080728e+03,1.614522e+02
3.081692e+03,1.757458e+02
3.082656e+03,1.803118e+02
3.083620e+03,1.750733e+02
3.084584e+03,1.611853e+02
3.085549e+03,1.601920e+02
3.086513e+03,1.755106e+02
3.087477e+03,1.815450e+02
3.088441e+03,1.803687e+02
3.089406e+03,1.707656e+02
3.090370e+03,1.731931e+02
3.091334e+03,1.871747e+02
3.092298e+03,1.842078e+02
3.093262e+03,1.721908e+02
3.094227e+03,1.654432e+02
3.095191e+03,1.653076e+02
3.096155e+03,1.733750e+02
3.097119e+03,1.694602e+02
3.098084e+03,1.612632e+02
3.099048e+03,1.656005e+02
3.100012e+03,1.745601e+02
3.100976e+03,1.851767e+02
3.101941e+03,1.780306e+02
3.102905e+03,1.579256e+02
3.103869e+03,1.616327e+02
3.104833e+03,1.705457e+02
3.105798e+03,1.718165e+02
3.106762e+03,1.763895e+02
3.107726e+03,1.859337e+02
3.108690e+03,1.833985e+02
3.109655e+03,1.754847e+02
3.110619e+03,1.693261e+02
3.111583e+03,1.631556e+02
3.112547e+03,1.581620e+02
3.113511e+03,1.674647e+02
3.114476e+03,1.809262e+02
3.115440e+03,1.739679e+02
3.116404e+03,1.700132e+02
3.117368e+03,1.791573e+02
3.118333e+03,1.738568e+02
3.119297e+03,1.631688e+02
3.120261e+03,1.626364e+02
3.121225e+03,1.682343e+02
3.122189e+03,1.775993e+02
3.123154e+03,1.773943e+02
3.124118e+03,1.709177e+02
3.125082e+03,1.786329e+02
3.126046e+03,1.836635e+02
3.127011e+03,1.776474e+02
3.127975e+03,1.800826e+02
3.128939e+03,1.889798e+02
3.129903e+03,1.831502e+02
3.130868e+03,1.746826e+02
3.131832e+03,1.739022e+02
3.132796e+03,1.740925e+02
3.133760e+03,1.723345e+02
3.134725e+03,1.544472e+02
3.135689e+03,1.459477e+02
3.136653e+03,1.722724e+02
3.137617e+03,1.869627e+02
3.138582e+03,1.764370e+02
3.139546e+03,1.714364e+02
3.140510e+03,1.685908e+02
3.141474e+03,1.624287e+02
3.142438e+03,1.707181e+02
3.143403e+03,1.899859e+02
3.144367e+03,1.681792e+02
3.145331e+03,1.356674e+02
3.146295e+03,1.480700e+02
3.147260e+03,1.625504e+02
3.148224e+03,1.690303e+02
3.149188e+03,1.846768e+02
3.150152e+03,1.924235e+02
3.151116e+03,1.682217e+02
3.152081e+03,1.542740e+02
3.153045e+03,1.686247e+02
3.154009e+03,1.811723e+02
3.154973e+03,1.889060e+02
3.155938e+03,1.874201e+02
3.156902e+03,1.903320e+02
3.157866e+03,1.993893e+02
3.158830e+03,1.858660e+02
3.159795e+03,1.658412e+02
3.160759e+03,1.906261e+02
3.161723e+03,2.083294e+02
3.162687e+03,1.829432e+02
3.163652e+03,1.691968e+02
3.164616e+03,1.705649e+02
3.165580e+03,1.920772e+02
3.166544e+03,2.082771e+02
3.167509e+03,2.095075e+02
3.168473e+03,1.993657e+02
3.169437e+03,1.855415e+02
3.170401e+03,1.925959e+02
3.171365e+03,1.896022e+02
3.172330e+03,1.625143e+02
3.173294e+03,1.626858e+02
3.174258e+03,1.788685e+02
3.175222e+03,1.816528e+02
3.176187e+03,1.794408e+02
3.177151e+03,1.780739e+02
3.178115e+03,1.720935e+02
3.179079e+03,1.649968e+02
3.180043e+03,1.650957e+02
3.181008e+03,1.759153e+02
3.181972e+03,1.965496e+02
3.182936e+03,2.001687e+02
3.183900e+03,1.926920e+02
3.184865e+03,1.984251e+02
3.185829e+03,2.023143e+02
3.186793e+03,1.948694e+02
3.187757e+03,1.806837e+02
3.188722e+03,1.690144e+02
3.189686e+03,1.792644e+02
3.190650e+03,1.916325e+02
3.191614e+03,1.973480e+02
3.192579e+03,1.938322e+02
3.193543e+03,1.847591e+02
3.194507e+03,1.799103e+02
3.195471e+03,1.688869e+02
3.196436e+03,1.459852e+02
3.197400e+03,1.441776e+02
3.198364e+03,1.578103e+02
3.199328e+03,1.749104e+02
3.200292e+03,1.910350e+02
3.201257e+03,0.000000e+00
3.202221e+03,0.000000e+00
3.203185e+03,0.000000e+00
3.204149e+03,0.000000e+00
3.205114e+03,0.000000e+00
3.206078e+03,0.000000e+00
3.207042e+03,0.000000e+00
3.208006e+03,0.000000e+00
3.208970e+03,0.000000e+00
3.209935e+03,0.000000e+00
3.210899e+03,0.000000e+00
3.211863e+03,0.000000e+00
3.212827e+03,0.000000e+00
3.213792e+03,0.000000e+00
3.214756e+03,0.000000e+00
3.215720e+03,0.000000e+00
3.216684e+03,0.000000e+00
3.217649e+03,0.000000e+00
3.218613e+03,0.000000e+00
3.219577e+03,0.000000e+00
3.220541e+03,0.000000e+00
3.221506e+03,0.000000e+00
3.222470e+03,0.000000e+00
3.223434e+03,0.000000e+00
3.224398e+03,0.000000e+00
3.225363e+03,0.000000e+00
3.226327e+03,0.000000e+00
3.227291e+03,0.000000e+00
3.228255e+03,0.000000e+00
3.229219e+03,0.000000e+00
3.230184e+03,0.000000e+00
3.231148e+03,0.000000e+00
3.232112e+03,0.000000e+00
3.233076e+03,0.000000e+00
3.234041e+03,0.000000e+00
3.235005e+03,0.000000e+00
3.235969e+03,0.000000e+00
3.236933e+03,0.000000e+00
3.237897e+03,0.000000e+00
3.238862e+03,0.000000e+00
3.239826e+03,0.000000e+00
3.240790e+03,0.000000e+00
3.241754e+03,0.000000e+00
3.242719e+03,0.000000e+00
3.243683e+03,0.000000e+00
3.244647e+03,0.000000e+00
3.245611e+03,0.000000e+00
3.246576e+03,0.000000e+00
3.247540e+03,0.000000e+00
3.248504e+03,0.000000e+00
3.249468e+03,0.000000e+00
3.250433e+03,0.000000e+00
3.251397e+03,0.000000e+00
3.252361e+03,0.000000e+00
3.253325e+03,0.000000e+00
3.254290e+03,0.000000e+00
3.255254e+03,0.000000e+00
3.256218e+03,0.000000e+00
3.257182e+03,0.000000e+00
3.258146e+03,0.000000e+00
3.259111e+03,0.000000e+00
3.260075e+03,0.000000e+00
3.261039e+03,0.000000e+00
3.262003e+03,0.000000e+00
3.262968e+03,0.000000e+00
3.263932e+03,0.000000e+00
3.264896e+03,0.000000e+00
3.265860e+03,0.000000e+00
3.266824e+03,0.000000e+00
3.267789e+03,0.000000e+00
3.268753e+03,0.000000e+00
3.269717e+03,0.000000e+00
3.270681e+03,0.000000e+00
3.271646e+03,0.000000e+00
3.272610e+03,0.000000e+00
3.273574e+03,0.000000e+00
3.274538e+03,0.000000e+00
3.275503e+03,0.000000e+00
3.276467e+03,0.000000e+00
3.277431e+03,0.000000e+00
3.278395e+03,0.000000e+00
3.279360e+03,0.000000e+00
3.280324e+03,0.000000e+00
3.281288e+03,0.000000e+00
3.282252e+03,0.000000e+00
3.283217e+03,0.000000e+00
3.284181e+03,0.000000e+00
3.285145e+03,0.000000e+00
3.286109e+03,0.000000e+00
3.287073e+03,0.000000e+00
3.288038e+03,0.000000e+00
3.289002e+03,0.000000e+00
3.289966e+03,0.000000e+00
3.290930e+03,0.000000e+00
3.291895e+03,0.000000e+00
3.292859e+03,0.000000e+00
3.293823e+03,0.000000e+00
3.294787e+03,0.000000e+00
3.295751e+03,0.000000e+00
3.296716e+03,0.000000e+00
3.297680e+03,0.000000e+00
3.298644e+03,0.000000e+00
3.299608e+03,0.000000e+00
3.300573e+03,0.000000e+00
3.301537e+03,0.000000e+00
3.302501e+03,0.000000e+00
3.303465e+03,0.000000e+00
3.304430e+03,0.000000e+00
3.305394e+03,0.000000e+00
3.306358e+03,0.000000e+00
3.307322e+03,0.000000e+00
3.308287e+03,0.000000e+00
3.309251e+03,0.000000e+00
3.310215e+03,0.000000e+00
3.311179e+03,0.000000e+00
3.312144e+03,0.000000e+00
3.313108e+03,0.000000e+00
3.314072e+03,0.000000e+00
3.315036e+03,0.000000e+00
3.316000e+03,0.000000e+00
3.316965e+03,0.000000e+00
3.317929e+03,0.000000e+00
3.318893e+03,0.000000e+00
3.319857e+03,0.000000e+00
3.320822e+03,0.000000e+00
3.321786e+03,0.000000e+00
3.322750e+03,0.000000e+00
3.323714e+03,0.000000e+00
3.324678e+03,0.000000e+00
3.325643e+03,0.000000e+00
3.326607e+03,0.000000e+00
3.327571e+03,0.000000e+00
3.328535e+03,0.000000e+00
3.329500e+03,0.000000e+00
3.330464e+03,0.000000e+00
3.331428e+03,0.000000e+00
3.332392e+03,0.000000e+00
3.333357e+03,0.000000e+00
3.334321e+03,0.000000e+00
3.335285e+03,0.000000e+00
3.336249e+03,0.000000e+00
3.337214e+03,0.000000e+00
3.338178e+03,0.000000e+00
3.339142e+03,0.000000e+00
3.340106e+03,0.000000e+00
3.341071e+03,0.000000e+00
3.342035e+03,0.000000e+00
3.342999e+03,0.000000e+00
3.343963e+03,0.000000e+00
3.344927e+03,0.000000e+00
3.345892e+03,0.000000e+00
3.346856e+03,0.000000e+00
3.347820e+03,0.000000e+00
3.348784e+03,0.000000e+00
3.349749e+03,0.000000e+00
3.350713e+03,0.000000e+00
3.351677e+03,0.000000e+00
3.352641e+03,0.000000e+00
3.353605e+03,0.000000e+00
3.354570e+03,0.000000e+00
3.355534e+03,0.000000e+00
3.356498e+03,0.000000e+00
3.357462e+03,0.000000e+00
3.358427e+03,0.000000e+00
3.359391e+03,0.000000e+00
3.360355e+03,0.000000e+00
3.361319e+03,0.000000e+00
3.362284e+03,0.000000e+00
3.363248e+03,0.000000e+00
3.364212e+03,0.000000e+00
3.365176e+03,0.000000e+00
3.366141e+03,0.000000e+00
3.367105e+03,0.000000e+00
3.368069e+03,0.000000e+00
3.369033e+03,0.000000e+00
3.369998e+03,0.000000e+00
3.370962e+03,0.000000e+00
3.371926e+03,0.000000e+00
3.372890e+03,0.000000e+00
3.373854e+03,0.000000e+00
3.374819e+03,0.000000e+00
3.375783e+03,0.000000e+00
3.376747e+03,0.000000e+00
3.377711e+03,0.000000e+00
3.378676e+03,0.000000e+00
3.379640e+03,0.000000e+00
3.380604e+03,0.000000e+00
3.381568e+03,0.000000e+00
3.382532e+03,0.000000e+00
3.383497e+03,0.000000e+00
3.384461e+03,0.000000e+00
3.385425e+03,0.000000e+00
3.386389e+03,0.000000e+00
3.387354e+03,0.000000e+00
3.388318e+03,0.000000e+00
3.389282e+03,0.000000e+00
3.390246e+03,0.000000e+00
3.391211e+03,0.000000e+00
3.392175e+03,0.000000e+00
3.393139e+03,0.000000e+00
3.394103e+03,0.000000e+00
3.395068e+03,0.000000e+00
3.396032e+03,0.000000e+00
3.396996e+03,0.000000e+00
3.397960e+03,0.000000e+00
3.398925e+03,0.000000e+00
3.399889e+03,0.000000e+00
3.400853e+03,0.000000e+00
3.401817e+03,0.000000e+00
3.402781e+03,0.000000e+00
3.403746e+03,0.000000e+00
3.404710e+03,0.000000e+00
3.405674e+03,0.000000e+00
3.406638e+03,0.000000e+00
3.407603e+03,0.000000e+00
3.408567e+03,0.000000e+00
3.409531e+03,0.000000e+00
3.410495e+03,0.000000e+00
3.411459e+03,0.000000e+00
3.412424e+03,0.000000e+00
3.413388e+03,0.000000e+00
3.414352e+03,0.000000e+00
3.415316e+03,0.000000e+00
3.416281e+03,0.000000e+00
3.417245e+03,0.000000e+00
3.418209e+03,0.000000e+00
3.419173e+03,0.000000e+00
3.420138e+03,0.000000e+00
3.421102e+03,0.000000e+00
3.422066e+03,0.000000e+00
3.423030e+03,0.000000e+00
3.423995e+03,0.000000e+00
3.424959e+03,0.000000e+00
3.425923e+03,0.000000e+00
3.426887e+03,0.000000e+00
3.427852e+03,0.000000e+00
3.428816e+03,0.000000e+00
3.429780e+03,0.000000e+00
3.430744e+03,0.000000e+00
3.431708e+03,0.000000e+00
3.432673e+03,0.000000e+00
3.433637e+03,0.000000e+00
3.434601e+03,0.000000e+00
3.435565e+03,0.000000e+00
3.436530e+03,0.000000e+00
3.437494e+03,0.000000e+00
3.438458e+03,0.000000e+00
3.439422e+03,0.000000e+00
3.440386e+03,0.000000e+00
3.441351e+03,0.000000e+00
3.442315e+03,0.000000e+00
3.443279e+03,0.000000e+00
3.444243e+03,0.000000e+00
3.445208e+03,0.000000e+00
3.446172e+03,0.000000e+00
3.447136e+03,0.000000e+00
3.448100e+03,0.000000e+00
3.449065e+03,0.000000e+00
3.450029e+03,0.000000e+00
3.450993e+03,0.000000e+00
3.451957e+03,0.000000e+00
3.452922e+03,0.000000e+00
3.453886e+03,0.000000e+00
3.454850e+03,0.000000e+00
3.455814e+03,0.000000e+00
3.456779e+03,0.000000e+00
3.457743e+03,0.000000e+00
3.458707e+03,0.000000e+00
3.459671e+03,0.000000e+00
3.460635e+03,0.000000e+00
3.461600e+03,0.000000e+00
3.462564e+03,0.000000e+00
3.463528e+03,0.000000e+00
3.464492e+03,0.000000e+00
3.465457e+03,0.000000e+00
3.466421e+03,0.000000e+00
3.467385e+03,0.000000e+00
3.468349e+03,0.000000e+00
3.469313e+03,0.000000e+00
3.470278e+03,0.000000e+00
3.471242e+03,0.000000e+00
3.472206e+03,0.000000e+00
3.473170e+03,0.000000e+00
3.474135e+03,0.000000e+00
3.475099e+03,0.000000e+00
3.476063e+03,0.000000e+00
3.477027e+03,0.000000e+00
3.477992e+03,0.000000e+00
3.478956e+03,0.000000e+00
3.479920e+03,0.000000e+00
3.480884e+03,0.000000e+00
3.481849e+03,0.000000e+00
3.482813e+03,0.000000e+00
3.483777e+03,0.000000e+00
3.484741e+03,0.000000e+00
3.485706e+03,0.000000e+00
3.486670e+03,0.000000e+00
3.487634e+03,0.000000e+00
3.488598e+03,0.000000e+00
3.489563e+03,0.000000e+00
3.490527e+03,0.000000e+00
3.491491e+03,0.000000e+00
3.492455e+03,0.000000e+00
3.493419e+03,0.000000e+00
3.494384e+03,0.000000e+00
3.495348e+03,0.000000e+00
3.496312e+03,0.000000e+00
3.497276e+03,0.000000e+00
3.498240e+03,0.000000e+00
3.499205e+03,0.000000e+00
3.500169e+03,0.000000e+00
