9.931763e+01,0.000000e+00
1.002819e+02,0.000000e+00
1.012461e+02,0.000000e+00
1.022103e+02,0.000000e+00
1.031746e+02,0.000000e+00
1.041388e+02,0.000000e+00
1.051030e+02,0.000000e+00
1.060673e+02,0.000000e+00
1.070315e+02,0.000000e+00
1.079957e+02,0.000000e+00
1.089600e+02,0.000000e+00
1.099242e+02,0.000000e+00
1.108884e+02,0.000000e+00
1.118527e+02,0.000000e+00
1.128169e+02,0.000000e+00
1.137811e+02,0.000000e+00
1.147454e+02,0.000000e+00
1.157096e+02,0.000000e+00
1.166738e+02,0.000000e+00
1.176381e+02,0.000000e+00
1.186023e+02,0.000000e+00
1.195665e+02,0.000000e+00
1.205308e+02,0.000000e+00
1.214950e+02,0.000000e+00
1.224592e+02,0.000000e+00
1.234235e+02,0.000000e+00
1.243877e+02,0.000000e+00
1.253519e+02,0.000000e+00
1.263162e+02,0.000000e+00
1.272804e+02,0.000000e+00
1.282446e+02,0.000000e+00
1.292089e+02,0.000000e+00
1.301731e+02,0.000000e+00
1.311373e+02,0.000000e+00
1.321016e+02,0.000000e+00
1.330658e+02,0.000000e+00
1.340300e+02,0.000000e+00
1.349943e+02,0.000000e+00
1.359585e+02,0.000000e+00
1.369227e+02,0.000000e+00
1.378870e+02,0.000000e+00
1.388512e+02,0.000000e+00
1.398154e+02,0.000000e+00
1.407797e+02,0.000000e+00
1.417439e+02,0.000000e+00
1.427081e+02,0.000000e+00
1.436724e+02,0.000000e+00
1.446366e+02,0.000000e+00
1.456008e+02,0.000000e+00
1.465651e+02,0.000000e+00
1.475293e+02,0.000000e+00
1.484935e+02,0.000000e+00
1.494578e+02,0.000000e+00
1.504220e+02,0.000000e+00
1.513862e+02,0.000000e+00
1.523505e+02,0.000000e+00
1.533147e+02,0.000000e+00
1.542789e+02,0.000000e+00
1.552432e+02,0.000000e+00
1.562074e+02,0.000000e+00
1.571716e+02,0.000000e+00
1.581359e+02,0.000000e+00
1.591001e+02,0.000000e+00
1.600643e+02,0.000000e+00
1.610286e+02,0.000000e+00
1.619928e+02,0.000000e+00
1.629570e+02,0.000000e+00
1.639213e+02,0.000000e+00
1.648855e+02,0.000000e+00
1.658497e+02,0.000000e+00
1.668140e+02,0.000000e+00
1.677782e+02,0.000000e+00
1.687424e+02,0.000000e+00
1.697067e+02,0.000000e+00
1.706709e+02,0.000000e+00
1.716351e+02,0.000000e+00
1.725994e+02,0.000000e+00
1.735636e+02,0.000000e+00
1.745278e+02,0.000000e+00
1.754921e+02,0.000000e+00
1.764563e+02,0.000000e+00
1.774205e+02,0.000000e+00
1.783848e+02,0.000000e+00
1.793490e+02,0.000000e+00
1.803132e+02,0.000000e+00
1.812775e+02,0.000000e+00
1.822417e+02,0.000000e+00
1.832059e+02,0.000000e+00
1.841702e+02,0.000000e+00
1.851344e+02,0.000000e+00
1.860986e+02,0.000000e+00
1.870629e+02,0.000000e+00
1.880271e+02,0.000000e+00
1.889913e+02,0.000000e+00
1.899556e+02,0.000000e+00
1.909198e+02,0.000000e+00
1.918840e+02,0.000000e+00
1.928483e+02,0.000000e+00
1.938125e+02,0.000000e+00
1.947767e+02,0.000000e+00
1.957410e+02,0.000000e+00
1.967052e+02,0.000000e+00
1.976694e+02,0.000000e+00
1.986337e+02,0.000000e+00
1.995979e+02,7.432727e+02
2.005621e+02,7.424269e+02
2.015264e+02,7.425393e+02
2.024906e+02,7.450572e+02
2.034548e+02,7.473187e+02
2.044191e+02,7.487900e+02
2.053833e+02,7.492303e+02
2.063475e+02,7.485720e+02
2.073118e+02,7.463152e+02
2.082760e+02,7.414552e+02
2.092402e+02,7.381992e+02
2.102045e+02,7.382667e+02
2.111687e+02,7.396951e+02
2.121329e+02,7.410771e+02
2.130972e+02,7.417217e+02
2.140614e+02,7.416783e+02
2.150256e+02,7.413024e+02
2.159899e+02,7.402167e+02
2.169541e+02,7.395662e+02
2.179183e+02,7.400042e+02
2.188826e+02,7.412770e+02
2.198468e+02,7.427207e+02
2.208110e+02,7.441058e+02
2.217753e+02,7.453164e+02
2.227395e+02,7.455584e+02
2.237037e+02,7.446918e+02
2.246680e+02,7.432130e+02
2.256322e+02,7.413045e+02
2.265964e+02,7.387188e+02
2.275607e+02,7.365745e+02
2.285249e+02,7.364627e+02
2.294892e+02,7.388020e+02
2.304534e+02,7.411818e+02
2.314176e+02,7.410482e+02
2.323819e+02,7.388851e+02
2.333461e+02,7.373846e+02
2.343103e+02,7.378830e+02
2.352746e+02,7.396943e+02
2.362388e+02,7.413743e+02
2.372030e+02,7.423720e+02
2.381673e+02,7.428322e+02
2.391315e+02,7.435936e+02
2.400957e+02,7.460693e+02
2.410600e+02,7.478137e+02
2.420242e+02,7.480160e+02
2.429884e+02,7.469725e+02
2.439527e+02,7.450090e+02
2.449169e+02,7.416380e+02
2.458811e+02,7.363969e+02
2.468454e+02,7.337271e+02
2.478096e+02,7.354172e+02
2.487738e+02,7.383163e+02
2.497381e+02,7.404774e+02
2.507023e+02,7.414958e+02
2.516665e+02,7.417678e+02
2.526308e+02,7.418383e+02
2.535950e+02,7.407375e+02
2.545592e+02,7.399967e+02
2.555235e+02,7.398045e+02
2.564877e+02,7.401545e+02
2.574519e+02,7.414362e+02
2.584161e+02,7.444068e+02
2.593804e+02,7.487341e+02
2.603446e+02,7.496518e+02
2.613088e+02,7.411386e+02
2.622731e+02,7.337833e+02
2.632373e+02,7.312574e+02
2.642015e+02,7.330648e+02
2.651658e+02,7.359774e+02
2.661300e+02,7.370287e+02
2.670942e+02,7.360555e+02
2.680585e+02,7.355280e+02
2.690227e+02,7.364643e+02
2.699869e+02,7.376490e+02
2.709512e+02,7.380994e+02
2.719154e+02,7.374769e+02
2.728796e+02,7.366009e+02
2.738439e+02,7.368944e+02
2.748081e+02,7.390165e+02
2.757723e+02,7.408585e+02
2.767366e+02,7.394753e+02
2.777008e+02,7.354978e+02
2.786650e+02,7.325606e+02
2.796293e+02,7.329727e+02
2.805935e+02,7.352751e+02
2.815577e+02,7.367437e+02
2.825220e+02,7.366720e+02
2.834862e+02,7.356179e+02
2.844504e+02,7.346383e+02
2.854147e+02,7.337703e+02
2.863789e+02,7.332045e+02
2.873431e+02,7.335110e+02
2.883074e+02,7.344469e+02
2.892716e+02,7.351141e+02
2.902358e+02,7.347078e+02
2.912001e+02,7.331250e+02
2.921643e+02,7.328275e+02
2.931285e+02,7.351755e+02
2.940928e+02,7.377219e+02
2.950570e+02,7.392674e+02
2.960212e+02,7.396688e+02
2.969855e+02,7.395475e+02
2.979497e+02,7.398787e+02
2.989139e+02,7.413880e+02
2.998782e+02,7.419534e+02
3.008424e+02,7.409423e+02
3.018066e+02,7.398035e+02
3.027709e+02,7.394387e+02
3.037351e+02,7.401825e+02
3.046993e+02,7.413372e+02
3.056636e+02,7.419493e+02
3.066278e+02,7.423186e+02
3.075920e+02,7.417482e+02
3.085563e+02,7.387615e+02
3.095205e+02,7.346445e+02
3.104847e+02,7.321224e+02
3.114490e+02,7.330515e+02
3.124132e+02,7.359817e+02
3.133774e+02,7.383151e+02
3.143417e+02,7.397759e+02
3.153059e+02,7.402443e+02
3.162701e+02,7.395590e+02
3.172344e+02,7.373776e+02
3.181986e+02,7.357848e+02
3.191628e+02,7.357577e+02
3.201271e+02,7.368006e+02
3.210913e+02,7.380775e+02
3.220555e+02,7.393177e+02
3.230198e+02,7.403105e+02
3.239840e+02,7.399117e+02
3.249482e+02,7.357701e+02
3.259125e+02,7.325406e+02
3.268767e+02,7.327277e+02
3.278409e+02,7.353746e+02
3.288052e+02,7.375831e+02
3.297694e+02,7.362260e+02
3.307336e+02,7.301827e+02
3.316979e+02,7.266061e+02
3.326621e+02,7.271844e+02
3.336263e+02,7.290317e+02
3.345906e+02,7.312063e+02
3.355548e+02,7.337477e+02
3.365190e+02,7.364097e+02
3.374833e+02,7.391862e+02
3.384475e+02,7.421796e+02
3.394117e+02,7.436541e+02
3.403760e+02,7.414156e+02
3.413402e+02,7.372618e+02
3.423044e+02,7.345605e+02
3.432687e+02,7.341490e+02
3.442329e+02,7.351157e+02
3.451971e+02,7.372001e+02
3.461614e+02,7.401899e+02
3.471256e+02,7.422921e+02
3.480898e+02,7.421614e+02
3.490541e+02,7.391236e+02
3.500183e+02,7.366757e+02
3.509825e+02,7.349208e+02
3.519468e+02,7.340281e+02
3.529110e+02,7.340559e+02
3.538752e+02,7.348715e+02
3.548395e+02,7.361717e+02
3.558037e+02,7.379057e+02
3.567680e+02,7.417580e+02
3.577322e+02,7.431166e+02
3.586964e+02,7.398400e+02
3.596607e+02,7.349443e+02
3.606249e+02,7.315839e+02
3.615891e+02,7.312761e+02
3.625534e+02,7.327730e+02
3.635176e+02,7.339201e+02
3.644818e+02,7.352132e+02
3.654461e+02,7.357693e+02
3.664103e+02,7.347355e+02
3.673745e+02,7.327717e+02
3.683388e+02,7.317018e+02
3.693030e+02,7.320596e+02
3.702672e+02,7.331686e+02
3.712315e+02,7.340593e+02
3.721957e+02,7.343917e+02
3.731599e+02,7.347734e+02
3.741242e+02,7.364469e+02
3.750884e+02,7.422986e+02
3.760526e+02,7.465305e+02
3.770169e+02,7.485006e+02
3.779811e+02,7.485457e+02
3.789453e+02,7.468092e+02
3.799096e+02,7.431253e+02
3.808738e+02,7.379742e+02
3.818380e+02,7.331985e+02
3.828023e+02,7.278090e+02
3.837665e+02,7.250400e+02
3.847307e+02,7.275540e+02
3.856950e+02,7.332669e+02
3.866592e+02,7.372821e+02
3.876234e+02,7.355428e+02
3.885877e+02,7.298586e+02
3.895519e+02,7.254774e+02
3.905161e+02,7.227324e+02
3.914804e+02,7.211248e+02
3.924446e+02,7.205291e+02
3.934088e+02,7.212846e+02
3.943731e+02,7.220959e+02
3.953373e+02,7.226549e+02
3.963015e+02,7.230030e+02
3.972658e+02,7.233132e+02
3.982300e+02,7.237756e+02
3.991942e+02,7.243361e+02
4.001585e+02,7.242275e+02
4.011227e+02,7.220084e+02
4.020869e+02,7.201899e+02
4.030512e+02,7.187501e+02
4.040154e+02,7.176645e+02
4.049796e+02,7.171728e+02
4.059439e+02,7.178352e+02
4.069081e+02,7.191149e+02
4.078723e+02,7.187614e+02
4.088366e+02,7.154209e+02
4.098008e+02,7.122927e+02
4.107650e+02,7.126415e+02
4.117293e+02,7.162003e+02
4.126935e+02,7.185609e+02
4.136577e+02,7.170149e+02
4.146220e+02,7.136784e+02
4.155862e+02,7.115636e+02
4.165504e+02,7.113401e+02
4.175147e+02,7.124810e+02
4.184789e+02,7.141471e+02
4.194431e+02,7.183909e+02
4.204074e+02,7.205104e+02
4.213716e+02,7.188104e+02
4.223358e+02,7.155402e+02
4.233001e+02,7.131096e+02
4.242643e+02,7.127402e+02
4.252285e+02,7.136254e+02
4.261928e+02,7.135314e+02
4.271570e+02,7.116362e+02
4.281212e+02,7.108038e+02
4.290855e+02,7.130753e+02
4.300497e+02,7.171700e+02
4.310139e+02,7.204228e+02
4.319782e+02,7.221503e+02
4.329424e+02,7.227595e+02
4.339066e+02,7.220930e+02
4.348709e+02,7.200371e+02
4.358351e+02,7.180092e+02
4.367993e+02,7.176180e+02
4.377636e+02,7.203344e+02
4.387278e+02,7.208597e+02
4.396920e+02,7.177810e+02
4.406563e+02,7.137454e+02
4.416205e+02,7.101764e+02
4.425847e+02,7.074460e+02
4.435490e+02,7.056658e+02
4.445132e+02,7.054080e+02
4.454774e+02,7.071594e+02
4.464417e+02,7.086153e+02
4.474059e+02,7.086982e+02
4.483701e+02,7.081544e+02
4.493344e+02,7.080820e+02
4.502986e+02,7.095240e+02
4.512628e+02,7.109078e+02
4.522271e+02,7.105729e+02
4.531913e+02,7.089531e+02
4.541555e+02,7.081401e+02
4.551198e+02,7.096541e+02
4.560840e+02,7.135390e+02
4.570482e+02,7.152332e+02
4.580125e+02,7.136400e+02
4.589767e+02,7.116281e+02
4.599409e+02,7.094239e+02
4.609052e+02,7.071430e+02
4.618694e+02,7.053799e+02
4.628336e+02,7.054277e+02
4.637979e+02,7.070186e+02
4.647621e+02,7.069327e+02
4.657263e+02,7.044705e+02
4.666906e+02,7.013274e+02
4.676548e+02,6.987333e+02
4.686190e+02,6.964279e+02
4.695833e+02,6.949028e+02
4.705475e+02,6.945570e+02
4.715117e+02,6.949244e+02
4.724760e+02,6.956445e+02
4.734402e+02,6.967149e+02
4.744044e+02,6.976818e+02
4.753687e+02,6.972116e+02
4.763329e+02,6.932369e+02
4.772971e+02,6.911112e+02
4.782614e+02,6.931132e+02
4.792256e+02,6.968589e+02
4.801898e+02,6.992999e+02
4.811541e+02,6.986540e+02
4.821183e+02,6.963433e+02
4.830826e+02,6.940266e+02
4.840468e+02,6.916145e+02
4.850110e+02,6.896959e+02
4.859753e+02,6.887470e+02
4.869395e+02,6.888033e+02
4.879037e+02,6.892842e+02
4.888680e+02,6.911064e+02
4.898322e+02,6.927355e+02
4.907964e+02,6.933520e+02
4.917607e+02,6.930001e+02
4.927249e+02,6.921870e+02
4.936891e+02,6.910388e+02
4.946534e+02,6.894621e+02
4.956176e+02,6.888600e+02
4.965818e+02,6.900599e+02
4.975461e+02,6.916176e+02
4.985103e+02,6.922936e+02
4.994745e+02,6.918508e+02
5.004388e+02,6.908016e+02
5.014030e+02,6.888976e+02
5.023672e+02,6.868428e+02
5.033315e+02,6.858386e+02
5.042957e+02,6.862845e+02
5.052599e+02,6.874397e+02
5.062242e+02,6.878410e+02
5.071884e+02,6.867413e+02
5.081526e+02,6.863250e+02
5.091169e+02,6.871530e+02
5.100811e+02,6.888174e+02
5.110453e+02,6.908082e+02
5.120095e+02,6.934948e+02
5.129738e+02,6.959760e+02
5.139380e+02,6.970714e+02
5.149022e+02,6.968126e+02
5.158665e+02,6.957256e+02
5.168307e+02,6.937256e+02
5.177949e+02,6.904857e+02
5.187592e+02,6.869393e+02
5.197234e+02,6.821721e+02
5.206876e+02,6.790120e+02
5.216519e+02,6.799206e+02
5.226161e+02,6.837783e+02
5.235803e+02,6.870790e+02
5.245446e+02,6.866858e+02
5.255088e+02,6.830984e+02
5.264730e+02,6.795967e+02
5.274373e+02,6.756008e+02
5.284015e+02,6.727450e+02
5.293657e+02,6.731533e+02
5.303300e+02,6.772910e+02
5.312942e+02,6.801637e+02
5.322584e+02,6.809769e+02
5.332227e+02,6.805394e+02
5.341869e+02,6.788630e+02
5.351511e+02,6.759453e+02
5.361154e+02,6.729982e+02
5.370796e+02,6.721837e+02
5.380438e+02,6.744792e+02
5.390081e+02,6.752735e+02
5.399723e+02,6.722711e+02
5.409365e+02,6.686487e+02
5.419008e+02,6.672170e+02
5.428650e+02,6.687059e+02
5.438292e+02,6.710183e+02
5.447935e+02,6.745215e+02
5.457577e+02,6.780475e+02
5.467219e+02,6.786613e+02
5.476862e+02,6.748054e+02
5.486504e+02,6.683093e+02
5.496146e+02,6.648421e+02
5.505789e+02,6.667250e+02
5.515431e+02,6.680401e+02
5.525073e+02,6.668005e+02
5.534716e+02,6.648441e+02
5.544358e+02,6.645405e+02
5.554000e+02,6.689440e+02
5.563643e+02,6.734244e+02
5.573285e+02,6.721002e+02
5.582927e+02,6.657241e+02
5.592570e+02,6.602255e+02
5.602212e+02,6.596583e+02
5.611854e+02,6.639129e+02
5.621497e+02,6.664049e+02
5.631139e+02,6.654733e+02
5.640781e+02,6.638839e+02
5.650424e+02,6.623468e+02
5.660066e+02,6.610154e+02
5.669708e+02,6.599787e+02
5.679351e+02,6.592211e+02
5.688993e+02,6.589426e+02
5.698635e+02,6.599050e+02
5.708278e+02,6.623493e+02
5.717920e+02,6.644941e+02
5.727562e+02,6.642998e+02
5.737205e+02,6.602888e+02
5.746847e+02,6.584277e+02
5.756489e+02,6.614296e+02
5.766132e+02,6.640380e+02
5.775774e+02,6.624977e+02
5.785416e+02,6.566223e+02
5.795059e+02,6.512866e+02
5.804701e+02,6.512250e+02
5.814343e+02,6.548515e+02
5.823986e+02,6.568992e+02
5.833628e+02,6.561817e+02
5.843270e+02,6.546319e+02
5.852913e+02,6.548787e+02
5.862555e+02,6.593075e+02
5.872197e+02,6.619249e+02
5.881840e+02,6.614300e+02
5.891482e+02,6.598253e+02
5.901124e+02,6.590027e+02
5.910767e+02,6.596902e+02
5.920409e+02,6.599395e+02
5.930051e+02,6.565266e+02
5.939694e+02,6.502952e+02
5.949336e+02,6.466463e+02
5.958978e+02,6.477226e+02
5.968621e+02,6.516212e+02
5.978263e+02,6.539935e+02
5.987905e+02,6.541852e+02
5.997548e+02,6.537020e+02
6.007190e+02,6.518734e+02
6.016832e+02,6.498337e+02
6.026475e+02,6.487543e+02
6.036117e+02,6.490573e+02
6.045759e+02,6.501484e+02
6.055402e+02,6.520255e+02
6.065044e+02,6.543804e+02
6.074686e+02,6.550617e+02
6.084329e+02,6.528087e+02
6.093971e+02,6.484897e+02
6.103613e+02,6.460812e+02
6.113256e+02,6.471141e+02
6.122899e+02,6.485970e+02
6.132541e+02,6.506041e+02
6.142183e+02,6.526191e+02
6.151826e+02,6.538849e+02
6.161468e+02,6.540914e+02
6.171110e+02,6.536433e+02
6.180753e+02,6.527906e+02
6.190395e+02,6.514874e+02
6.200037e+02,6.497679e+02
6.209680e+02,6.474347e+02
6.219322e+02,6.446583e+02
6.228964e+02,6.431526e+02
6.238607e+02,6.436710e+02
6.248249e+02,6.446298e+02
6.257891e+02,6.459950e+02
6.267534e+02,6.472224e+02
6.277176e+02,6.472439e+02
6.286818e+02,6.450814e+02
6.296461e+02,6.421546e+02
6.306103e+02,6.396574e+02
6.315745e+02,6.377258e+02
6.325388e+02,6.365623e+02
6.335030e+02,6.362340e+02
6.344672e+02,6.366509e+02
6.354315e+02,6.378078e+02
6.363957e+02,6.413214e+02
6.373599e+02,6.433287e+02
6.383242e+02,6.413181e+02
6.392884e+02,6.358585e+02
6.402526e+02,6.314693e+02
6.412169e+02,6.299207e+02
6.421811e+02,6.297754e+02
6.431453e+02,6.301729e+02
6.441096e+02,6.308577e+02
6.450738e+02,6.312556e+02
6.460380e+02,6.304852e+02
6.470023e+02,6.286172e+02
6.479665e+02,6.288281e+02
6.489307e+02,6.325085e+02
6.498950e+02,6.359749e+02
6.508592e+02,6.354466e+02
6.518234e+02,6.303746e+02
6.527877e+02,6.271652e+02
6.537519e+02,6.285135e+02
6.547161e+02,6.309164e+02
6.556804e+02,6.316794e+02
6.566446e+02,6.306464e+02
6.576088e+02,6.294694e+02
6.585731e+02,6.300127e+02
6.595373e+02,6.318770e+02
6.605015e+02,6.325129e+02
6.614658e+02,6.313712e+02
6.624300e+02,6.298998e+02
6.633942e+02,6.295313e+02
6.643585e+02,6.307775e+02
6.653227e+02,6.317584e+02
6.662869e+02,6.326287e+02
6.672512e+02,6.329478e+02
6.682154e+02,6.321814e+02
6.691796e+02,6.302296e+02
6.701439e+02,6.282805e+02
6.711081e+02,6.269403e+02
6.720723e+02,6.262767e+02
6.730366e+02,6.268272e+02
6.740008e+02,6.288182e+02
6.749650e+02,6.309744e+02
6.759293e+02,6.319144e+02
6.768935e+02,6.317320e+02
6.778577e+02,6.302610e+02
6.788220e+02,6.256526e+02
6.797862e+02,6.215383e+02
6.807504e+02,6.205809e+02
6.817147e+02,6.234359e+02
6.826789e+02,6.253968e+02
6.836431e+02,6.231700e+02
6.846074e+02,6.196719e+02
6.855716e+02,6.188279e+02
6.865358e+02,6.213407e+02
6.875001e+02,6.241478e+02
6.884643e+02,6.227349e+02
6.894285e+02,6.171893e+02
6.903928e+02,6.148838e+02
6.913570e+02,6.178713e+02
6.923212e+02,6.221617e+02
6.932855e+02,6.234675e+02
6.942497e+02,6.201136e+02
6.952139e+02,6.176033e+02
6.961782e+02,6.161933e+02
6.971424e+02,6.153593e+02
6.981066e+02,6.142839e+02
6.990709e+02,6.126075e+02
7.000351e+02,6.118267e+02
7.009993e+02,6.151593e+02
7.019636e+02,6.204521e+02
7.029278e+02,6.219658e+02
7.038920e+02,6.184909e+02
7.048563e+02,6.134531e+02
7.058205e+02,6.114403e+02
7.067847e+02,6.138804e+02
7.077490e+02,6.153139e+02
7.087132e+02,6.156563e+02
7.096774e+02,6.154186e+02
7.106417e+02,6.142050e+02
7.116059e+02,6.114177e+02
7.125701e+02,6.096788e+02
7.135344e+02,6.112756e+02
7.144986e+02,6.135128e+02
7.154628e+02,6.135858e+02
7.164271e+02,6.110490e+02
7.173913e+02,6.077952e+02
7.183555e+02,6.052709e+02
7.193198e+02,6.034995e+02
7.202840e+02,6.029364e+02
7.212482e+02,6.039042e+02
7.222125e+02,6.055156e+02
7.231767e+02,6.069114e+02
7.241409e+02,6.083477e+02
7.251052e+02,6.083412e+02
7.260694e+02,6.046240e+02
7.270336e+02,6.012027e+02
7.279979e+02,6.010064e+02
7.289621e+02,6.043682e+02
7.299263e+02,6.068573e+02
7.308906e+02,6.055456e+02
7.318548e+02,6.028756e+02
7.328190e+02,6.016048e+02
7.337833e+02,6.019973e+02
7.347475e+02,6.027038e+02
7.357117e+02,6.024811e+02
7.366760e+02,6.015295e+02
7.376402e+02,6.007476e+02
7.386044e+02,6.000410e+02
7.395687e+02,6.000101e+02
7.405329e+02,6.013747e+02
7.414971e+02,6.049260e+02
7.424614e+02,6.062910e+02
7.434256e+02,6.045110e+02
7.443898e+02,6.022050e+02
7.453541e+02,5.997680e+02
7.463183e+02,5.971430e+02
7.472825e+02,5.955040e+02
7.482468e+02,5.960263e+02
7.492110e+02,5.975219e+02
7.501752e+02,5.997101e+02
7.511395e+02,6.024197e+02
7.521037e+02,6.039863e+02
7.530679e+02,6.019260e+02
7.540322e+02,5.968078e+02
7.549964e+02,5.943658e+02
7.559606e+02,5.953665e+02
7.569249e+02,5.969128e+02
7.578891e+02,5.972059e+02
7.588533e+02,5.962258e+02
7.598176e+02,5.957952e+02
7.607818e+02,5.955801e+02
7.617460e+02,5.952564e+02
7.627103e+02,5.951482e+02
7.636745e+02,5.953217e+02
7.646387e+02,5.952738e+02
7.656030e+02,5.946442e+02
7.665672e+02,5.937921e+02
7.675314e+02,5.923684e+02
7.684957e+02,5.903593e+02
7.694599e+02,5.887966e+02
7.704241e+02,5.891469e+02
7.713884e+02,5.905400e+02
7.723526e+02,5.892587e+02
7.733168e+02,5.850029e+02
7.742811e+02,5.821339e+02
7.752453e+02,5.827109e+02
7.762095e+02,5.858448e+02
7.771738e+02,5.876106e+02
7.781380e+02,5.863761e+02
7.791022e+02,5.853250e+02
7.800665e+02,5.853909e+02
7.810307e+02,5.862720e+02
7.819949e+02,5.873928e+02
7.829592e+02,5.902590e+02
7.839234e+02,5.920668e+02
7.848876e+02,5.897516e+02
7.858519e+02,5.855888e+02
7.868161e+02,5.836469e+02
7.877803e+02,5.860773e+02
7.887446e+02,5.899842e+02
7.897088e+02,5.919039e+02
7.906730e+02,5.920883e+02
7.916373e+02,5.904567e+02
7.926015e+02,5.862227e+02
7.935657e+02,5.807930e+02
7.945300e+02,5.778680e+02
7.954942e+02,5.787077e+02
7.964584e+02,5.795333e+02
7.974227e+02,5.810357e+02
7.983869e+02,5.824519e+02
7.993511e+02,5.820141e+02
8.003154e+02,5.772775e+02
8.012796e+02,5.741909e+02
8.022438e+02,5.751909e+02
8.032081e+02,5.778450e+02
8.041723e+02,5.801754e+02
8.051365e+02,5.816576e+02
8.061008e+02,5.825912e+02
8.070650e+02,5.829847e+02
8.080292e+02,5.828180e+02
8.089935e+02,5.823673e+02
8.099577e+02,5.818253e+02
8.109219e+02,5.810336e+02
8.118862e+02,5.794697e+02
8.128504e+02,5.771741e+02
8.138146e+02,5.755221e+02
8.147789e+02,5.744894e+02
8.157431e+02,5.740510e+02
8.167073e+02,5.746949e+02
8.176716e+02,5.772972e+02
8.186358e+02,5.777330e+02
8.196000e+02,5.734968e+02
8.205643e+02,5.693196e+02
8.215285e+02,5.665391e+02
8.224927e+02,5.651814e+02
8.234570e+02,5.651407e+02
8.244212e+02,5.676518e+02
8.253854e+02,5.704207e+02
8.263497e+02,5.721046e+02
8.273139e+02,5.726056e+02
8.282781e+02,5.723698e+02
8.292424e+02,5.717660e+02
8.302066e+02,5.710043e+02
8.311708e+02,5.701449e+02
8.321351e+02,5.691798e+02
8.330993e+02,5.679691e+02
8.340635e+02,5.661374e+02
8.350278e+02,5.641570e+02
8.359920e+02,5.637473e+02
8.369562e+02,5.651525e+02
8.379205e+02,5.670631e+02
8.388847e+02,5.694716e+02
8.398489e+02,5.718914e+02
8.408132e+02,5.730075e+02
8.417774e+02,5.726808e+02
8.427416e+02,5.710085e+02
8.437059e+02,5.661238e+02
8.446701e+02,5.609084e+02
8.456343e+02,5.586847e+02
8.465986e+02,5.616930e+02
8.475628e+02,5.639406e+02
8.485270e+02,5.625811e+02
8.494913e+02,5.599109e+02
8.504555e+02,5.582557e+02
8.514197e+02,5.582384e+02
8.523840e+02,5.590977e+02
8.533482e+02,5.607227e+02
8.543124e+02,5.624756e+02
8.552767e+02,5.632170e+02
8.562409e+02,5.627567e+02
8.572051e+02,5.616501e+02
8.581694e+02,5.601359e+02
8.591336e+02,5.584235e+02
8.600978e+02,5.585779e+02
8.610621e+02,5.612561e+02
8.620263e+02,5.636169e+02
8.629905e+02,5.630574e+02
8.639548e+02,5.591182e+02
8.649190e+02,5.572614e+02
8.658832e+02,5.594045e+02
8.668475e+02,5.616160e+02
8.678117e+02,5.621535e+02
8.687759e+02,5.611937e+02
8.697402e+02,5.599460e+02
8.707044e+02,5.566500e+02
8.716686e+02,5.544227e+02
8.726329e+02,5.558048e+02
8.735971e+02,5.591988e+02
8.745613e+02,5.614191e+02
8.755256e+02,5.606082e+02
8.764898e+02,5.594578e+02
8.774540e+02,5.596511e+02
8.784183e+02,5.605453e+02
8.793825e+02,5.609759e+02
8.803467e+02,5.603533e+02
8.813110e+02,5.597610e+02
8.822752e+02,5.612108e+02
8.832394e+02,5.641011e+02
8.842037e+02,5.658388e+02
8.851679e+02,5.656260e+02
8.861321e+02,5.641850e+02
8.870964e+02,5.622567e+02
8.880606e+02,5.597377e+02
8.890248e+02,5.583041e+02
8.899891e+02,5.587292e+02
8.909533e+02,5.594773e+02
8.919175e+02,5.588206e+02
8.928818e+02,5.561687e+02
8.938460e+02,5.548254e+02
8.948102e+02,5.563092e+02
8.957745e+02,5.571762e+02
8.967387e+02,5.543904e+02
8.977029e+02,5.480873e+02
8.986672e+02,5.451114e+02
8.996314e+02,5.498857e+02
9.005956e+02,5.547599e+02
9.015599e+02,5.567607e+02
9.025241e+02,5.561327e+02
9.034883e+02,5.542476e+02
9.044526e+02,5.497927e+02
9.054168e+02,5.456835e+02
9.063810e+02,5.442370e+02
9.073453e+02,5.449538e+02
9.083095e+02,5.465957e+02
9.092737e+02,5.488286e+02
9.102380e+02,5.506364e+02
9.112022e+02,5.510316e+02
9.121664e+02,5.501462e+02
9.131307e+02,5.480550e+02
9.140949e+02,5.448605e+02
9.150591e+02,5.420724e+02
9.160234e+02,5.419355e+02
9.169876e+02,5.437525e+02
9.179518e+02,5.437959e+02
9.189161e+02,5.413765e+02
9.198803e+02,5.382662e+02
9.208445e+02,5.363530e+02
9.218088e+02,5.358525e+02
9.227730e+02,5.364816e+02
9.237372e+02,5.387750e+02
9.247015e+02,5.406520e+02
9.256657e+02,5.403820e+02
9.266299e+02,5.377748e+02
9.275942e+02,5.373229e+02
9.285584e+02,5.419964e+02
9.295226e+02,5.450226e+02
9.304869e+02,5.423538e+02
9.314511e+02,5.361189e+02
9.324153e+02,5.329539e+02
9.333796e+02,5.370770e+02
9.343438e+02,5.400090e+02
9.353080e+02,5.382682e+02
9.362723e+02,5.340569e+02
9.372365e+02,5.307586e+02
9.382007e+02,5.298218e+02
9.391650e+02,5.297336e+02
9.401292e+02,5.304911e+02
9.410934e+02,5.313018e+02
9.420577e+02,5.306231e+02
9.430219e+02,5.278741e+02
9.439861e+02,5.260832e+02
9.449504e+02,5.294473e+02
9.459146e+02,5.347439e+02
9.468788e+02,5.367662e+02
9.478431e+02,5.348148e+02
9.488073e+02,5.318006e+02
9.497715e+02,5.305557e+02
9.507358e+02,5.303560e+02
9.517000e+02,5.291663e+02
9.526642e+02,5.272292e+02
9.536285e+02,5.259372e+02
9.545927e+02,5.261854e+02
9.555569e+02,5.275627e+02
9.565212e+02,5.290839e+02
9.574854e+02,5.309612e+02
9.584496e+02,5.319987e+02
9.594139e+02,5.311768e+02
9.603781e+02,5.294372e+02
9.613423e+02,5.298882e+02
9.623066e+02,5.332569e+02
9.632708e+02,5.355391e+02
9.642350e+02,5.360897e+02
9.651993e+02,5.353865e+02
9.661635e+02,5.336264e+02
9.671277e+02,5.293765e+02
9.680920e+02,5.272016e+02
9.690562e+02,5.288115e+02
9.700204e+02,5.306326e+02
9.709847e+02,5.299011e+02
9.719489e+02,5.260281e+02
9.729131e+02,5.235604e+02
9.738774e+02,5.235186e+02
9.748416e+02,5.240795e+02
9.758058e+02,5.247249e+02
9.767701e+02,5.251434e+02
9.777343e+02,5.246489e+02
9.786985e+02,5.213356e+02
9.796628e+02,5.189421e+02
9.806270e+02,5.194940e+02
9.815912e+02,5.217254e+02
9.825555e+02,5.235475e+02
9.835197e+02,5.248409e+02
9.844839e+02,5.254647e+02
9.854482e+02,5.251714e+02
9.864124e+02,5.243770e+02
9.873766e+02,5.231432e+02
9.883409e+02,5.213790e+02
9.893051e+02,5.204240e+02
9.902693e+02,5.218490e+02
9.912336e+02,5.241145e+02
9.921978e+02,5.254699e+02
9.931620e+02,5.255774e+02
9.941263e+02,5.250067e+02
9.950905e+02,5.237573e+02
9.960547e+02,5.224161e+02
9.970190e+02,5.221984e+02
9.979832e+02,5.226016e+02
9.989474e+02,5.217966e+02
9.999117e+02,5.181843e+02
1.000876e+03,5.138430e+02
1.001840e+03,5.117808e+02
1.002804e+03,5.117432e+02
1.003769e+03,5.125985e+02
1.004733e+03,5.138682e+02
1.005697e+03,5.153190e+02
1.006661e+03,5.170285e+02
1.007626e+03,5.188216e+02
1.008590e+03,5.197389e+02
1.009554e+03,5.194855e+02
1.010518e+03,5.182368e+02
1.011482e+03,5.158173e+02
1.012447e+03,5.124805e+02
1.013411e+03,5.102169e+02
1.014375e+03,5.093326e+02
1.015339e+03,5.099949e+02
1.016304e+03,5.127689e+02
1.017268e+03,5.169327e+02
1.018232e+03,5.183139e+02
1.019196e+03,5.165547e+02
1.020161e+03,5.141083e+02
1.021125e+03,5.118038e+02
1.022089e+03,5.099765e+02
1.023053e+03,5.091628e+02
1.024018e+03,5.092667e+02
1.024982e+03,5.100659e+02
1.025946e+03,5.118379e+02
1.026910e+03,5.133516e+02
1.027875e+03,5.130676e+02
1.028839e+03,5.104476e+02
1.029803e+03,5.092083e+02
1.030767e+03,5.100542e+02
1.031731e+03,5.111512e+02
1.032696e+03,5.110347e+02
1.033660e+03,5.095854e+02
1.034624e+03,5.086796e+02
1.035588e+03,5.090757e+02
1.036552e+03,5.089837e+02
1.037517e+03,5.068597e+02
1.038481e+03,5.035117e+02
1.039445e+03,5.026749e+02
1.040409e+03,5.064088e+02
1.041374e+03,5.092777e+02
1.042338e+03,5.103845e+02
1.043302e+03,5.104426e+02
1.044266e+03,5.101907e+02
1.045231e+03,5.088600e+02
1.046195e+03,5.084893e+02
1.047159e+03,5.106086e+02
1.048123e+03,5.125931e+02
1.049088e+03,5.120894e+02
1.050052e+03,5.086314e+02
1.051016e+03,5.077711e+02
1.051980e+03,5.119430e+02
1.052945e+03,5.160787e+02
1.053909e+03,5.179660e+02
1.054873e+03,5.179081e+02
1.055837e+03,5.180336e+02
1.056802e+03,5.188084e+02
1.057766e+03,5.197123e+02
1.058730e+03,5.210180e+02
1.059694e+03,5.223621e+02
1.060658e+03,5.233186e+02
1.061623e+03,5.248154e+02
1.062587e+03,5.243635e+02
1.063551e+03,5.196409e+02
1.064515e+03,5.145189e+02
1.065479e+03,5.119342e+02
1.066444e+03,5.123951e+02
1.067408e+03,5.117818e+02
1.068372e+03,5.074473e+02
1.069336e+03,5.039359e+02
1.070301e+03,5.031220e+02
1.071265e+03,5.044802e+02
1.072229e+03,5.065238e+02
1.073193e+03,5.102548e+02
1.074158e+03,5.131164e+02
1.075122e+03,5.150552e+02
1.076086e+03,5.155060e+02
1.077050e+03,5.134020e+02
1.078015e+03,5.064375e+02
1.078979e+03,5.028242e+02
1.079943e+03,5.067440e+02
1.080907e+03,5.124341e+02
1.081872e+03,5.157512e+02
1.082836e+03,5.161835e+02
1.083800e+03,5.167040e+02
1.084764e+03,5.176723e+02
1.085729e+03,5.194068e+02
1.086693e+03,5.228326e+02
1.087657e+03,5.270010e+02
1.088621e+03,5.296561e+02
1.089585e+03,5.278039e+02
1.090550e+03,5.272572e+02
1.091514e+03,5.319308e+02
1.092478e+03,5.377791e+02
1.093442e+03,5.402168e+02
1.094406e+03,5.378326e+02
1.095371e+03,5.346391e+02
1.096335e+03,5.302436e+02
1.097299e+03,5.260586e+02
1.098263e+03,5.233118e+02
1.099228e+03,5.218795e+02
1.100192e+03,5.197490e+02
1.101156e+03,5.148439e+02
1.102120e+03,5.109340e+02
1.103085e+03,5.097606e+02
1.104049e+03,5.105792e+02
1.105013e+03,5.118032e+02
1.105977e+03,5.150396e+02
1.106942e+03,5.163607e+02
1.107906e+03,5.130066e+02
1.108870e+03,5.089019e+02
1.109834e+03,5.076995e+02
1.110799e+03,5.103578e+02
1.111763e+03,5.131481e+02
1.112727e+03,5.163818e+02
1.113691e+03,5.191482e+02
1.114656e+03,5.210441e+02
1.115620e+03,5.220350e+02
1.116584e+03,5.219854e+02
1.117548e+03,5.192449e+02
1.118512e+03,5.169910e+02
1.119477e+03,5.162381e+02
1.120441e+03,5.163444e+02
1.121405e+03,5.164107e+02
1.122369e+03,5.163506e+02
1.123334e+03,5.164051e+02
1.124298e+03,5.166647e+02
1.125262e+03,5.171490e+02
1.126226e+03,5.183345e+02
1.127191e+03,5.206049e+02
1.128155e+03,5.204800e+02
1.129119e+03,5.166005e+02
1.130083e+03,5.118319e+02
1.131047e+03,5.060976e+02
1.132012e+03,5.002483e+02
1.132976e+03,4.977680e+02
1.133940e+03,5.013863e+02
1.134904e+03,5.027502e+02
1.135869e+03,4.998654e+02
1.136833e+03,4.954674e+02
1.137797e+03,4.925905e+02
1.138761e+03,4.918261e+02
1.139726e+03,4.908589e+02
1.140690e+03,4.891683e+02
1.141654e+03,4.882111e+02
1.142618e+03,4.891829e+02
1.143583e+03,4.917136e+02
1.144547e+03,4.923633e+02
1.145511e+03,4.904653e+02
1.146475e+03,4.892397e+02
1.147439e+03,4.898187e+02
1.148404e+03,4.912350e+02
1.149368e+03,4.915276e+02
1.150332e+03,4.905045e+02
1.151296e+03,4.896376e+02
1.152261e+03,4.887910e+02
1.153225e+03,4.880595e+02
1.154189e+03,4.881642e+02
1.155153e+03,4.890782e+02
1.156118e+03,4.886111e+02
1.157082e+03,4.868828e+02
1.158046e+03,4.854460e+02
1.159010e+03,4.849077e+02
1.159974e+03,4.847345e+02
1.160939e+03,4.835623e+02
1.161903e+03,4.815375e+02
1.162867e+03,4.803647e+02
1.163831e+03,4.803838e+02
1.164796e+03,4.809207e+02
1.165760e+03,4.820692e+02
1.166724e+03,4.832372e+02
1.167688e+03,4.819854e+02
1.168653e+03,4.786587e+02
1.169617e+03,4.760706e+02
1.170581e+03,4.764153e+02
1.171545e+03,4.780363e+02
1.172510e+03,4.786508e+02
1.173474e+03,4.786130e+02
1.174438e+03,4.787276e+02
1.175402e+03,4.792448e+02
1.176366e+03,4.792302e+02
1.177331e+03,4.769048e+02
1.178295e+03,4.742238e+02
1.179259e+03,4.740449e+02
1.180223e+03,4.760804e+02
1.181188e+03,4.774843e+02
1.182152e+03,4.757816e+02
1.183116e+03,4.737613e+02
1.184080e+03,4.738534e+02
1.185045e+03,4.751071e+02
1.186009e+03,4.756272e+02
1.186973e+03,4.746545e+02
1.187937e+03,4.736429e+02
1.188901e+03,4.738145e+02
1.189866e+03,4.735863e+02
1.190830e+03,4.704640e+02
1.191794e+03,4.640743e+02
1.192758e+03,4.610895e+02
1.193723e+03,4.662489e+02
1.194687e+03,4.717482e+02
1.195651e+03,4.749649e+02
1.196615e+03,4.761323e+02
1.197580e+03,4.760277e+02
1.198544e+03,4.729022e+02
1.199508e+03,4.706178e+02
1.200472e+03,4.699886e+02
1.201437e+03,4.701693e+02
1.202401e+03,4.707210e+02
1.203365e+03,4.719522e+02
1.204329e+03,4.720561e+02
1.205293e+03,4.706627e+02
1.206258e+03,4.687455e+02
1.207222e+03,4.661966e+02
1.208186e+03,4.636943e+02
1.209150e+03,4.639513e+02
1.210115e+03,4.672120e+02
1.211079e+03,4.692235e+02
1.212043e+03,4.691439e+02
1.213007e+03,4.682057e+02
1.213972e+03,4.677872e+02
1.214936e+03,4.679727e+02
1.215900e+03,4.690152e+02
1.216864e+03,4.707965e+02
1.217828e+03,4.711499e+02
1.218793e+03,4.681420e+02
1.219757e+03,4.640653e+02
1.220721e+03,4.627690e+02
1.221685e+03,4.636106e+02
1.222650e+03,4.649902e+02
1.223614e+03,4.663951e+02
1.224578e+03,4.671065e+02
1.225542e+03,4.660793e+02
1.226507e+03,4.646161e+02
1.227471e+03,4.640747e+02
1.228435e+03,4.643315e+02
1.229399e+03,4.647846e+02
1.230364e+03,4.663940e+02
1.231328e+03,4.670007e+02
1.232292e+03,4.642484e+02
1.233256e+03,4.607161e+02
1.234220e+03,4.598108e+02
1.235185e+03,4.635404e+02
1.236149e+03,4.658004e+02
1.237113e+03,4.630755e+02
1.238077e+03,4.607006e+02
1.239042e+03,4.624759e+02
1.240006e+03,4.674761e+02
1.240970e+03,4.692593e+02
1.241934e+03,4.654037e+02
1.242899e+03,4.626580e+02
1.243863e+03,4.630777e+02
1.244827e+03,4.646013e+02
1.245791e+03,4.641429e+02
1.246755e+03,4.611039e+02
1.247720e+03,4.597716e+02
1.248684e+03,4.605565e+02
1.249648e+03,4.616972e+02
1.250612e+03,4.619193e+02
1.251577e+03,4.616164e+02
1.252541e+03,4.624678e+02
1.253505e+03,4.642678e+02
1.254469e+03,4.660302e+02
1.255434e+03,4.676621e+02
1.256398e+03,4.683563e+02
1.257362e+03,4.656739e+02
1.258326e+03,4.617197e+02
1.259291e+03,4.609275e+02
1.260255e+03,4.630607e+02
1.261219e+03,4.651276e+02
1.262183e+03,4.660067e+02
1.263147e+03,4.659820e+02
1.264112e+03,4.644651e+02
1.265076e+03,4.623825e+02
1.266040e+03,4.611042e+02
1.267004e+03,4.612947e+02
1.267969e+03,4.612013e+02
1.268933e+03,4.593453e+02
1.269897e+03,4.582785e+02
1.270861e+03,4.598413e+02
1.271826e+03,4.633684e+02
1.272790e+03,4.655071e+02
1.273754e+03,4.663458e+02
1.274718e+03,4.657310e+02
1.275682e+03,4.628419e+02
1.276647e+03,4.598430e+02
1.277611e+03,4.598733e+02
1.278575e+03,4.636159e+02
1.279539e+03,4.639015e+02
1.280504e+03,4.603511e+02
1.281468e+03,4.574720e+02
1.282432e+03,4.578962e+02
1.283396e+03,4.604722e+02
1.284361e+03,4.624869e+02
1.285325e+03,4.640357e+02
1.286289e+03,4.658280e+02
1.287253e+03,4.679889e+02
1.288218e+03,4.708974e+02
1.289182e+03,4.761153e+02
1.290146e+03,4.816349e+02
1.291110e+03,4.856732e+02
1.292074e+03,4.878911e+02
1.293039e+03,4.876514e+02
1.294003e+03,4.829103e+02
1.294967e+03,4.775396e+02
1.295931e+03,4.725693e+02
1.296896e+03,4.684262e+02
1.297860e+03,4.653786e+02
1.298824e+03,4.633227e+02
1.299788e+03,4.626884e+02
1.300753e+03,4.643995e+02
1.301717e+03,4.660912e+02
1.302681e+03,4.670656e+02
1.303645e+03,4.672992e+02
1.304609e+03,4.666004e+02
1.305574e+03,4.646337e+02
1.306538e+03,4.626939e+02
1.307502e+03,4.611447e+02
1.308466e+03,4.600287e+02
1.309431e+03,4.593086e+02
1.310395e+03,4.589272e+02
1.311359e+03,4.583947e+02
1.312323e+03,4.577138e+02
1.313288e+03,4.578368e+02
1.314252e+03,4.596603e+02
1.315216e+03,4.619984e+02
1.316180e+03,4.645331e+02
1.317145e+03,4.662288e+02
1.318109e+03,4.648864e+02
1.319073e+03,4.603113e+02
1.320037e+03,4.568728e+02
1.321001e+03,4.565504e+02
1.321966e+03,4.573786e+02
1.322930e+03,4.597866e+02
1.323894e+03,4.626921e+02
1.324858e+03,4.639326e+02
1.325823e+03,4.623313e+02
1.326787e+03,4.618791e+02
1.327751e+03,4.632112e+02
1.328715e+03,4.638523e+02
1.329680e+03,4.617117e+02
1.330644e+03,4.578871e+02
1.331608e+03,4.574774e+02
1.332572e+03,4.601873e+02
1.333536e+03,4.631077e+02
1.334501e+03,4.655116e+02
1.335465e+03,4.665487e+02
1.336429e+03,4.642710e+02
1.337393e+03,4.609298e+02
1.338358e+03,4.600821e+02
1.339322e+03,4.613778e+02
1.340286e+03,4.623226e+02
1.341250e+03,4.619454e+02
1.342215e+03,4.606497e+02
1.343179e+03,4.570071e+02
1.344143e+03,4.539362e+02
1.345107e+03,4.549857e+02
1.346072e+03,4.618239e+02
1.347036e+03,4.654373e+02
1.348000e+03,4.647289e+02
1.348964e+03,4.624226e+02
1.349928e+03,4.592523e+02
1.350893e+03,4.558143e+02
1.351857e+03,4.527732e+02
1.352821e+03,4.500927e+02
1.353785e+03,4.501533e+02
1.354750e+03,4.532178e+02
1.355714e+03,4.557212e+02
1.356678e+03,4.535513e+02
1.357642e+03,4.500977e+02
1.358607e+03,4.504748e+02
1.359571e+03,4.533093e+02
1.360535e+03,4.557423e+02
1.361499e+03,4.570531e+02
1.362464e+03,4.574459e+02
1.363428e+03,4.561769e+02
1.364392e+03,4.548882e+02
1.365356e+03,4.546288e+02
1.366320e+03,4.551256e+02
1.367285e+03,4.551943e+02
1.368249e+03,4.546501e+02
1.369213e+03,4.546468e+02
1.370177e+03,4.555118e+02
1.371142e+03,4.567329e+02
1.372106e+03,4.577482e+02
1.373070e+03,4.585907e+02
1.374034e+03,4.596738e+02
1.374999e+03,4.610333e+02
1.375963e+03,4.620120e+02
1.376927e+03,4.621910e+02
1.377891e+03,4.619376e+02
1.378855e+03,4.616975e+02
1.379820e+03,4.611038e+02
1.380784e+03,4.597841e+02
1.381748e+03,4.578037e+02
1.382712e+03,4.551774e+02
1.383677e+03,4.498409e+02
1.384641e+03,4.458696e+02
1.385605e+03,4.451032e+02
1.386569e+03,4.460678e+02
1.387534e+03,4.468171e+02
1.388498e+03,4.475432e+02
1.389462e+03,4.470010e+02
1.390426e+03,4.448439e+02
1.391391e+03,4.428531e+02
1.392355e+03,4.425021e+02
1.393319e+03,4.429044e+02
1.394283e+03,4.416258e+02
1.395247e+03,4.395758e+02
1.396212e+03,4.393514e+02
1.397176e+03,4.416476e+02
1.398140e+03,4.436059e+02
1.399104e+03,4.431847e+02
1.400069e+03,4.420270e+02
1.401033e+03,4.408511e+02
1.401997e+03,4.398189e+02
1.402961e+03,4.392098e+02
1.403926e+03,4.390277e+02
1.404890e+03,4.392886e+02
1.405854e+03,4.404012e+02
1.406818e+03,4.411198e+02
1.407782e+03,4.401256e+02
1.408747e+03,4.383389e+02
1.409711e+03,4.393375e+02
1.410675e+03,4.421088e+02
1.411639e+03,4.427684e+02
1.412604e+03,4.399653e+02
1.413568e+03,4.375951e+02
1.414532e+03,4.402276e+02
1.415496e+03,4.438447e+02
1.416461e+03,4.448424e+02
1.417425e+03,4.433744e+02
1.418389e+03,4.414223e+02
1.419353e+03,4.375609e+02
1.420318e+03,4.362866e+02
1.421282e+03,4.395309e+02
1.422246e+03,4.431553e+02
1.423210e+03,4.436420e+02
1.424174e+03,4.414982e+02
1.425139e+03,4.392482e+02
1.426103e+03,4.369397e+02
1.427067e+03,4.361718e+02
1.428031e+03,4.376937e+02
1.428996e+03,4.398882e+02
1.429960e+03,4.416449e+02
1.430924e+03,4.427574e+02
1.431888e+03,4.425265e+02
1.432853e+03,4.413766e+02
1.433817e+03,4.411959e+02
1.434781e+03,4.434693e+02
1.435745e+03,4.455789e+02
1.436709e+03,4.477428e+02
1.437674e+03,4.484508e+02
1.438638e+03,4.456087e+02
1.439602e+03,4.400213e+02
1.440566e+03,4.396660e+02
1.441531e+03,4.438853e+02
1.442495e+03,4.464087e+02
1.443459e+03,4.447047e+02
1.444423e+03,4.414885e+02
1.445388e+03,4.379774e+02
1.446352e+03,4.352738e+02
1.447316e+03,4.357337e+02
1.448280e+03,4.387944e+02
1.449245e+03,4.398092e+02
1.450209e+03,4.340754e+02
1.451173e+03,4.319485e+02
1.452137e+03,4.362598e+02
1.453101e+03,4.411860e+02
1.454066e+03,4.407234e+02
1.455030e+03,4.359228e+02
1.455994e+03,4.357674e+02
1.456958e+03,4.394840e+02
1.457923e+03,4.417895e+02
1.458887e+03,4.403346e+02
1.459851e+03,4.379778e+02
1.460815e+03,4.366702e+02
1.461780e+03,4.359439e+02
1.462744e+03,4.357423e+02
1.463708e+03,4.360683e+02
1.464672e+03,4.365713e+02
1.465636e+03,4.381768e+02
1.466601e+03,4.382216e+02
1.467565e+03,4.357572e+02
1.468529e+03,4.331255e+02
1.469493e+03,4.325794e+02
1.470458e+03,4.335002e+02
1.471422e+03,4.340656e+02
1.472386e+03,4.343491e+02
1.473350e+03,4.341602e+02
1.474315e+03,4.330956e+02
1.475279e+03,4.324964e+02
1.476243e+03,4.347202e+02
1.477207e+03,4.362404e+02
1.478172e+03,4.336332e+02
1.479136e+03,4.280938e+02
1.480100e+03,4.251305e+02
1.481064e+03,4.255881e+02
1.482028e+03,4.255164e+02
1.482993e+03,4.244724e+02
1.483957e+03,4.230115e+02
1.484921e+03,4.205358e+02
1.485885e+03,4.184327e+02
1.486850e+03,4.207168e+02
1.487814e+03,4.250981e+02
1.488778e+03,4.265176e+02
1.489742e+03,4.226092e+02
1.490707e+03,4.192367e+02
1.491671e+03,4.184157e+02
1.492635e+03,4.190189e+02
1.493599e+03,4.212289e+02
1.494563e+03,4.237072e+02
1.495528e+03,4.226049e+02
1.496492e+03,4.180126e+02
1.497456e+03,4.143899e+02
1.498420e+03,4.124275e+02
1.499385e+03,4.124323e+02
1.500349e+03,4.169082e+02
1.501313e+03,4.212754e+02
1.502277e+03,4.205652e+02
1.503242e+03,4.173565e+02
1.504206e+03,4.155666e+02
1.505170e+03,4.164181e+02
1.506134e+03,4.157260e+02
1.507099e+03,4.124904e+02
1.508063e+03,4.106908e+02
1.509027e+03,4.121143e+02
1.509991e+03,4.150590e+02
1.510955e+03,4.174311e+02
1.511920e+03,4.188384e+02
1.512884e+03,4.179842e+02
1.513848e+03,4.152470e+02
1.514812e+03,4.126153e+02
1.515777e+03,4.094049e+02
1.516741e+03,4.079211e+02
1.517705e+03,4.107520e+02
1.518669e+03,4.140936e+02
1.519634e+03,4.149196e+02
1.520598e+03,4.132923e+02
1.521562e+03,4.115022e+02
1.522526e+03,4.095420e+02
1.523490e+03,4.093069e+02
1.524455e+03,4.117893e+02
1.525419e+03,4.142421e+02
1.526383e+03,4.140938e+02
1.527347e+03,4.128395e+02
1.528312e+03,4.116522e+02
1.529276e+03,4.108065e+02
1.530240e+03,4.102738e+02
1.531204e+03,4.096065e+02
1.532169e+03,4.101855e+02
1.533133e+03,4.124213e+02
1.534097e+03,4.145644e+02
1.535061e+03,4.155195e+02
1.536026e+03,4.151809e+02
1.536990e+03,4.122161e+02
1.537954e+03,4.083744e+02
1.538918e+03,4.073535e+02
1.539882e+03,4.104204e+02
1.540847e+03,4.123682e+02
1.541811e+03,4.108685e+02
1.542775e+03,4.089665e+02
1.543739e+03,4.076392e+02
1.544704e+03,4.065151e+02
1.545668e+03,4.042081e+02
1.546632e+03,4.014605e+02
1.547596e+03,4.023486e+02
1.548561e+03,4.063916e+02
1.549525e+03,4.094775e+02
1.550489e+03,4.088201e+02
1.551453e+03,4.072252e+02
1.552417e+03,4.047149e+02
1.553382e+03,4.029310e+02
1.554346e+03,4.037340e+02
1.555310e+03,4.067157e+02
1.556274e+03,4.074827e+02
1.557239e+03,4.060454e+02
1.558203e+03,4.046104e+02
1.559167e+03,4.036659e+02
1.560131e+03,4.034854e+02
1.561096e+03,4.047173e+02
1.562060e+03,4.065426e+02
1.563024e+03,4.089356e+02
1.563988e+03,4.111941e+02
1.564953e+03,4.117955e+02
1.565917e+03,4.102961e+02
1.566881e+03,4.082825e+02
1.567845e+03,4.055380e+02
1.568809e+03,4.033185e+02
1.569774e+03,4.023956e+02
1.570738e+03,4.023034e+02
1.571702e+03,4.031768e+02
1.572666e+03,4.039952e+02
1.573631e+03,4.030453e+02
1.574595e+03,4.003253e+02
1.575559e+03,3.990138e+02
1.576523e+03,4.000883e+02
1.577488e+03,4.007802e+02
1.578452e+03,4.002321e+02
1.579416e+03,3.995786e+02
1.580380e+03,4.005263e+02
1.581344e+03,4.021378e+02
1.582309e+03,4.025573e+02
1.583273e+03,4.022164e+02
1.584237e+03,4.021611e+02
1.585201e+03,4.031555e+02
1.586166e+03,4.030992e+02
1.587130e+03,4.006646e+02
1.588094e+03,3.991276e+02
1.589058e+03,4.002589e+02
1.590023e+03,4.028013e+02
1.590987e+03,4.049638e+02
1.591951e+03,4.063363e+02
1.592915e+03,4.047643e+02
1.593880e+03,4.003510e+02
1.594844e+03,3.969639e+02
1.595808e+03,3.964632e+02
1.596772e+03,3.971569e+02
1.597736e+03,3.994081e+02
1.598701e+03,4.017488e+02
1.599665e+03,4.027375e+02
1.600629e+03,4.026924e+02
1.601593e+03,4.029198e+02
1.602558e+03,4.032770e+02
1.603522e+03,4.036257e+02
1.604486e+03,4.041958e+02
1.605450e+03,4.028282e+02
1.606415e+03,3.952402e+02
1.607379e+03,3.902065e+02
1.608343e+03,3.918350e+02
1.609307e+03,3.965805e+02
1.610271e+03,3.981263e+02
1.611236e+03,3.971930e+02
1.612200e+03,3.978183e+02
1.613164e+03,3.998485e+02
1.614128e+03,4.004044e+02
1.615093e+03,3.956478e+02
1.616057e+03,3.922614e+02
1.617021e+03,3.934721e+02
1.617985e+03,3.955274e+02
1.618950e+03,3.966559e+02
1.619914e+03,3.968106e+02
1.620878e+03,3.952345e+02
1.621842e+03,3.924883e+02
1.622807e+03,3.905611e+02
1.623771e+03,3.899365e+02
1.624735e+03,3.897489e+02
1.625699e+03,3.899861e+02
1.626663e+03,3.895661e+02
1.627628e+03,3.870818e+02
1.628592e+03,3.847230e+02
1.629556e+03,3.867772e+02
1.630520e+03,3.920941e+02
1.631485e+03,3.911103e+02
1.632449e+03,3.854369e+02
1.633413e+03,3.826696e+02
1.634377e+03,3.873231e+02
1.635342e+03,3.913000e+02
1.636306e+03,3.909121e+02
1.637270e+03,3.897802e+02
1.638234e+03,3.893479e+02
1.639198e+03,3.893826e+02
1.640163e+03,3.887794e+02
1.641127e+03,3.881168e+02
1.642091e+03,3.896877e+02
1.643055e+03,3.931889e+02
1.644020e+03,3.951339e+02
1.644984e+03,3.926401e+02
1.645948e+03,3.897579e+02
1.646912e+03,3.866972e+02
1.647877e+03,3.849631e+02
1.648841e+03,3.867287e+02
1.649805e+03,3.904252e+02
1.650769e+03,3.906466e+02
1.651734e+03,3.884816e+02
1.652698e+03,3.866801e+02
1.653662e+03,3.858353e+02
1.654626e+03,3.849459e+02
1.655590e+03,3.830869e+02
1.656555e+03,3.825660e+02
1.657519e+03,3.846539e+02
1.658483e+03,3.873785e+02
1.659447e+03,3.875003e+02
1.660412e+03,3.860158e+02
1.661376e+03,3.849276e+02
1.662340e+03,3.844248e+02
1.663304e+03,3.843405e+02
1.664269e+03,3.846055e+02
1.665233e+03,3.849330e+02
1.666197e+03,3.852475e+02
1.667161e+03,3.855220e+02
1.668125e+03,3.860899e+02
1.669090e+03,3.861897e+02
1.670054e+03,3.844041e+02
1.671018e+03,3.815952e+02
1.671982e+03,3.785117e+02
1.672947e+03,3.754576e+02
1.673911e+03,3.743139e+02
1.674875e+03,3.755951e+02
1.675839e+03,3.755883e+02
1.676804e+03,3.737995e+02
1.677768e+03,3.726391e+02
1.678732e+03,3.752604e+02
1.679696e+03,3.780665e+02
1.680661e+03,3.767619e+02
1.681625e+03,3.738750e+02
1.682589e+03,3.737849e+02
1.683553e+03,3.768788e+02
1.684517e+03,3.771055e+02
1.685482e+03,3.745363e+02
1.686446e+03,3.730890e+02
1.687410e+03,3.740367e+02
1.688374e+03,3.759549e+02
1.689339e+03,3.795362e+02
1.690303e+03,3.817361e+02
1.691267e+03,3.799394e+02
1.692231e+03,3.762673e+02
1.693196e+03,3.740543e+02
1.694160e+03,3.729388e+02
1.695124e+03,3.706145e+02
1.696088e+03,3.675231e+02
1.697052e+03,3.661827e+02
1.698017e+03,3.684859e+02
1.698981e+03,3.708214e+02
1.699945e+03,3.719776e+02
1.700909e+03,3.732269e+02
1.701874e+03,3.760649e+02
1.702838e+03,3.790364e+02
1.703802e+03,3.771258e+02
1.704766e+03,3.729560e+02
1.705731e+03,3.729247e+02
1.706695e+03,3.773873e+02
1.707659e+03,3.782131e+02
1.708623e+03,3.717606e+02
1.709588e+03,3.687932e+02
1.710552e+03,3.710641e+02
1.711516e+03,3.733994e+02
1.712480e+03,3.703222e+02
1.713444e+03,3.659983e+02
1.714409e+03,3.651171e+02
1.715373e+03,3.662978e+02
1.716337e+03,3.676875e+02
1.717301e+03,3.692710e+02
1.718266e+03,3.695235e+02
1.719230e+03,3.683859e+02
1.720194e+03,3.671385e+02
1.721158e+03,3.660438e+02
1.722123e+03,3.652276e+02
1.723087e+03,3.651895e+02
1.724051e+03,3.649508e+02
1.725015e+03,3.634355e+02
1.725979e+03,3.622361e+02
1.726944e+03,3.642862e+02
1.727908e+03,3.684507e+02
1.728872e+03,3.697901e+02
1.729836e+03,3.686628e+02
1.730801e+03,3.674348e+02
1.731765e+03,3.671278e+02
1.732729e+03,3.665760e+02
1.733693e+03,3.657606e+02
1.734658e+03,3.644035e+02
1.735622e+03,3.620731e+02
1.736586e+03,3.597749e+02
1.737550e+03,3.586642e+02
1.738515e+03,3.587068e+02
1.739479e+03,3.605181e+02
1.740443e+03,3.636057e+02
1.741407e+03,3.650908e+02
1.742371e+03,3.646519e+02
1.743336e+03,3.662193e+02
1.744300e+03,3.699867e+02
1.745264e+03,3.724645e+02
1.746228e+03,3.708178e+02
1.747193e+03,3.683631e+02
1.748157e+03,3.664938e+02
1.749121e+03,3.650108e+02
1.750085e+03,3.632519e+02
1.751050e+03,3.612631e+02
1.752014e+03,3.605201e+02
1.752978e+03,3.606488e+02
1.753942e+03,3.600465e+02
1.754906e+03,3.583660e+02
1.755871e+03,3.593063e+02
1.756835e+03,3.656726e+02
1.757799e+03,3.680562e+02
1.758763e+03,3.649287e+02
1.759728e+03,3.599225e+02
1.760692e+03,3.542888e+02
1.761656e+03,3.503691e+02
1.762620e+03,3.513753e+02
1.763585e+03,3.549560e+02
1.764549e+03,3.577225e+02
1.765513e+03,3.594622e+02
1.766477e+03,3.597557e+02
1.767442e+03,3.589636e+02
1.768406e+03,3.591284e+02
1.769370e+03,3.613429e+02
1.770334e+03,3.614206e+02
1.771298e+03,3.541823e+02
1.772263e+03,3.485477e+02
1.773227e+03,3.469094e+02
1.774191e+03,3.482641e+02
1.775155e+03,3.533261e+02
1.776120e+03,3.589393e+02
1.777084e+03,3.602359e+02
1.778048e+03,3.581333e+02
1.779012e+03,3.551925e+02
1.779977e+03,3.507823e+02
1.780941e+03,3.511674e+02
1.781905e+03,3.560531e+02
1.782869e+03,3.592015e+02
1.783833e+03,3.571490e+02
1.784798e+03,3.553422e+02
1.785762e+03,3.598335e+02
1.786726e+03,3.617633e+02
1.787690e+03,3.559861e+02
1.788655e+03,3.469133e+02
1.789619e+03,3.416751e+02
1.790583e+03,3.398626e+02
1.791547e+03,3.417931e+02
1.792512e+03,3.465600e+02
1.793476e+03,3.501146e+02
1.794440e+03,3.518274e+02
1.795404e+03,3.519664e+02
1.796369e+03,3.503512e+02
1.797333e+03,3.490024e+02
1.798297e+03,3.493281e+02
1.799261e+03,3.500130e+02
1.800225e+03,3.501912e+02
1.801190e+03,3.501266e+02
1.802154e+03,3.504342e+02
1.803118e+03,3.504189e+02
1.804082e+03,3.475435e+02
1.805047e+03,3.434514e+02
1.806011e+03,3.414544e+02
1.806975e+03,3.418808e+02
1.807939e+03,3.442865e+02
1.808904e+03,3.499863e+02
1.809868e+03,3.512984e+02
1.810832e+03,3.473553e+02
1.811796e+03,3.431391e+02
1.812760e+03,3.418479e+02
1.813725e+03,3.419745e+02
1.814689e+03,3.446734e+02
1.815653e+03,3.461490e+02
1.816617e+03,3.425562e+02
1.817582e+03,3.363319e+02
1.818546e+03,3.352746e+02
1.819510e+03,3.377200e+02
1.820474e+03,3.408710e+02
1.821439e+03,3.442338e+02
1.822403e+03,3.446906e+02
1.823367e+03,3.412757e+02
1.824331e+03,3.394701e+02
1.825296e+03,3.400573e+02
1.826260e+03,3.411140e+02
1.827224e+03,3.413431e+02
1.828188e+03,3.419656e+02
1.829152e+03,3.439035e+02
1.830117e+03,3.458329e+02
1.831081e+03,3.468605e+02
1.832045e+03,3.468553e+02
1.833009e+03,3.454273e+02
1.833974e+03,3.433770e+02
1.834938e+03,3.416133e+02
1.835902e+03,3.401718e+02
1.836866e+03,3.387032e+02
1.837831e+03,3.370805e+02
1.838795e+03,3.371548e+02
1.839759e+03,3.395298e+02
1.840723e+03,3.422081e+02
1.841688e+03,3.449193e+02
1.842652e+03,3.455750e+02
1.843616e+03,3.429435e+02
1.844580e+03,3.391086e+02
1.845544e+03,3.360227e+02
1.846509e+03,3.336565e+02
1.847473e+03,3.319233e+02
1.848437e+03,3.307542e+02
1.849401e+03,3.304440e+02
1.850366e+03,3.309922e+02
1.851330e+03,3.290498e+02
1.852294e+03,3.251571e+02
1.853258e+03,3.231123e+02
1.854223e+03,3.239023e+02
1.855187e+03,3.261988e+02
1.856151e+03,3.310656e+02
1.857115e+03,3.344463e+02
1.858079e+03,3.354072e+02
1.859044e+03,3.348713e+02
1.860008e+03,3.330283e+02
1.860972e+03,3.312517e+02
1.861936e+03,3.307829e+02
1.862901e+03,3.313768e+02
1.863865e+03,3.327606e+02
1.864829e+03,3.344367e+02
1.865793e+03,3.339776e+02
1.866758e+03,3.319532e+02
1.867722e+03,3.295250e+02
1.868686e+03,3.266808e+02
1.869650e+03,3.248306e+02
1.870615e+03,3.238188e+02
1.871579e+03,3.247027e+02
1.872543e+03,3.282065e+02
1.873507e+03,3.313374e+02
1.874471e+03,3.305882e+02
1.875436e+03,3.293173e+02
1.876400e+03,3.294150e+02
1.877364e+03,3.297433e+02
1.878328e+03,3.290247e+02
1.879293e+03,3.275311e+02
1.880257e+03,3.246628e+02
1.881221e+03,3.216981e+02
1.882185e+03,3.221353e+02
1.883150e+03,3.262196e+02
1.884114e+03,3.267959e+02
1.885078e+03,3.243772e+02
1.886042e+03,3.233894e+02
1.887006e+03,3.253309e+02
1.887971e+03,3.264760e+02
1.888935e+03,3.252214e+02
1.889899e+03,3.249371e+02
1.890863e+03,3.264706e+02
1.891828e+03,3.274888e+02
1.892792e+03,3.251316e+02
1.893756e+03,3.221862e+02
1.894720e+03,3.209536e+02
1.895685e+03,3.207625e+02
1.896649e+03,3.211701e+02
1.897613e+03,3.214826e+02
1.898577e+03,3.188548e+02
1.899542e+03,3.149511e+02
1.900506e+03,3.136014e+02
1.901470e+03,3.156000e+02
1.902434e+03,3.164078e+02
1.903398e+03,3.160812e+02
1.904363e+03,3.153564e+02
1.905327e+03,3.143842e+02
1.906291e+03,3.139388e+02
1.907255e+03,3.134606e+02
1.908220e+03,3.152529e+02
1.909184e+03,3.203901e+02
1.910148e+03,3.251909e+02
1.911112e+03,3.262669e+02
1.912077e+03,3.254151e+02
1.913041e+03,3.226283e+02
1.914005e+03,3.200149e+02
1.914969e+03,3.199081e+02
1.915933e+03,3.215952e+02
1.916898e+03,3.238571e+02
1.917862e+03,3.254434e+02
1.918826e+03,3.226800e+02
1.919790e+03,3.149087e+02
1.920755e+03,3.108362e+02
1.921719e+03,3.102133e+02
1.922683e+03,3.122003e+02
1.923647e+03,3.168231e+02
1.924612e+03,3.194204e+02
1.925576e+03,3.164490e+02
1.926540e+03,3.128684e+02
1.927504e+03,3.085978e+02
1.928469e+03,3.067130e+02
1.929433e+03,3.133262e+02
1.930397e+03,3.193111e+02
1.931361e+03,3.154883e+02
1.932325e+03,3.105183e+02
1.933290e+03,3.122372e+02
1.934254e+03,3.172180e+02
1.935218e+03,3.155191e+02
1.936182e+03,3.107616e+02
1.937147e+03,3.100557e+02
1.938111e+03,3.132054e+02
1.939075e+03,3.132091e+02
1.940039e+03,3.105997e+02
1.941004e+03,3.071561e+02
1.941968e+03,3.031288e+02
1.942932e+03,3.015669e+02
1.943896e+03,3.043936e+02
1.944860e+03,3.068045e+02
1.945825e+03,3.084957e+02
1.946789e+03,3.096459e+02
1.947753e+03,3.104764e+02
1.948717e+03,3.102111e+02
1.949682e+03,3.075949e+02
1.950646e+03,3.055541e+02
1.951610e+03,3.062546e+02
1.952574e+03,3.078271e+02
1.953539e+03,3.082083e+02
1.954503e+03,3.072707e+02
1.955467e+03,3.042103e+02
1.956431e+03,3.004987e+02
1.957396e+03,2.998773e+02
1.958360e+03,3.014165e+02
1.959324e+03,3.033380e+02
1.960288e+03,3.055101e+02
1.961252e+03,3.079116e+02
1.962217e+03,3.105590e+02
1.963181e+03,3.104409e+02
1.964145e+03,3.076652e+02
1.965109e+03,3.049530e+02
1.966074e+03,3.037422e+02
1.967038e+03,3.027051e+02
1.968002e+03,3.013869e+02
1.968966e+03,3.000208e+02
1.969931e+03,2.982082e+02
1.970895e+03,2.980045e+02
1.971859e+03,3.046644e+02
1.972823e+03,3.087672e+02
1.973787e+03,3.053281e+02
1.974752e+03,2.993106e+02
1.975716e+03,2.968798e+02
1.976680e+03,2.968585e+02
1.977644e+03,3.000308e+02
1.978609e+03,3.038209e+02
1.979573e+03,3.031030e+02
1.980537e+03,2.994647e+02
1.981501e+03,2.989480e+02
1.982466e+03,3.005543e+02
1.983430e+03,3.005684e+02
1.984394e+03,2.983281e+02
1.985358e+03,2.982468e+02
1.986323e+03,2.998501e+02
1.987287e+03,3.002837e+02
1.988251e+03,2.982783e+02
1.989215e+03,2.974624e+02
1.990179e+03,2.983676e+02
1.991144e+03,3.005361e+02
1.992108e+03,3.042777e+02
1.993072e+03,3.060681e+02
1.994036e+03,3.007128e+02
1.995001e+03,2.966828e+02
1.995965e+03,2.965349e+02
1.996929e+03,2.973642e+02
1.997893e+03,2.957495e+02
1.998858e+03,2.941374e+02
1.999822e+03,2.952920e+02
2.000786e+03,2.970640e+02
2.001750e+03,2.981201e+02
2.002714e+03,2.985211e+02
2.003679e+03,2.975469e+02
2.004643e+03,2.956982e+02
2.005607e+03,2.934932e+02
2.006571e+03,2.914627e+02
2.007536e+03,2.923817e+02
2.008500e+03,2.947789e+02
2.009464e+03,2.924032e+02
2.010428e+03,2.856332e+02
2.011393e+03,2.859039e+02
2.012357e+03,2.943592e+02
2.013321e+03,2.988109e+02
2.014285e+03,2.983441e+02
2.015250e+03,2.970399e+02
2.016214e+03,2.971510e+02
2.017178e+03,2.952716e+02
2.018142e+03,2.910353e+02
2.019106e+03,2.886339e+02
2.020071e+03,2.912778e+02
2.021035e+03,2.934423e+02
2.021999e+03,2.921563e+02
2.022963e+03,2.901904e+02
2.023928e+03,2.883085e+02
2.024892e+03,2.873264e+02
2.025856e+03,2.884684e+02
2.026820e+03,2.906956e+02
2.027785e+03,2.944570e+02
2.028749e+03,2.966352e+02
2.029713e+03,2.908234e+02
2.030677e+03,2.825742e+02
2.031641e+03,2.790923e+02
2.032606e+03,2.788266e+02
2.033570e+03,2.782459e+02
2.034534e+03,2.778498e+02
2.035498e+03,2.812769e+02
2.036463e+03,2.865206e+02
2.037427e+03,2.884156e+02
2.038391e+03,2.869800e+02
2.039355e+03,2.866156e+02
2.040320e+03,2.870693e+02
2.041284e+03,2.870785e+02
2.042248e+03,2.862612e+02
2.043212e+03,2.848724e+02
2.044177e+03,2.828572e+02
2.045141e+03,2.841340e+02
2.046105e+03,2.890857e+02
2.047069e+03,2.917840e+02
2.048033e+03,2.876328e+02
2.048998e+03,2.834022e+02
2.049962e+03,2.796154e+02
2.050926e+03,2.770386e+02
2.051890e+03,2.770015e+02
2.052854e+03,2.768475e+02
2.053819e+03,2.749327e+02
2.054783e+03,2.747997e+02
2.055747e+03,2.795220e+02
2.056711e+03,2.845673e+02
2.057676e+03,2.865961e+02
2.058640e+03,2.854469e+02
2.059604e+03,2.797887e+02
2.060568e+03,2.738844e+02
2.061533e+03,2.752469e+02
2.062497e+03,2.788922e+02
2.063461e+03,2.801786e+02
2.064425e+03,2.800962e+02
2.065390e+03,2.794640e+02
2.066354e+03,2.788794e+02
2.067318e+03,2.801846e+02
2.068282e+03,2.822426e+02
2.069247e+03,2.825342e+02
2.070211e+03,2.812657e+02
2.071175e+03,2.804335e+02
2.072139e+03,2.796963e+02
2.073104e+03,2.777698e+02
2.074068e+03,2.746915e+02
2.075032e+03,2.738749e+02
2.075996e+03,2.745516e+02
2.076960e+03,2.730607e+02
2.077925e+03,2.688448e+02
2.078889e+03,2.702001e+02
2.079853e+03,2.778463e+02
2.080817e+03,2.777101e+02
2.081782e+03,2.686861e+02
2.082746e+03,2.621035e+02
2.083710e+03,2.627833e+02
2.084674e+03,2.648210e+02
2.085639e+03,2.680488e+02
2.086603e+03,2.718210e+02
2.087567e+03,2.771936e+02
2.088531e+03,2.786234e+02
2.089496e+03,2.748065e+02
2.090460e+03,2.709191e+02
2.091424e+03,2.695747e+02
2.092388e+03,2.694702e+02
2.093353e+03,2.702141e+02
2.094317e+03,2.713072e+02
2.095281e+03,2.726702e+02
2.096245e+03,2.727765e+02
2.097209e+03,2.680135e+02
2.098174e+03,2.646265e+02
2.099138e+03,2.655852e+02
2.100102e+03,2.681277e+02
2.101066e+03,2.709397e+02
2.102031e+03,2.720486e+02
2.102995e+03,2.670359e+02
2.103959e+03,2.622393e+02
2.104923e+03,2.634011e+02
2.105887e+03,2.676723e+02
2.106852e+03,2.720379e+02
2.107816e+03,2.741774e+02
2.108780e+03,2.716851e+02
2.109744e+03,2.667175e+02
2.110708e+03,2.644342e+02
2.111673e+03,2.637813e+02
2.112637e+03,2.630121e+02
2.113601e+03,2.620827e+02
2.114565e+03,2.624394e+02
2.115530e+03,2.627398e+02
2.116494e+03,2.579705e+02
2.117458e+03,2.511857e+02
2.118422e+03,2.529096e+02
2.119387e+03,2.610216e+02
2.120351e+03,2.649301e+02
2.121315e+03,2.649857e+02
2.122279e+03,2.641051e+02
2.123244e+03,2.626566e+02
2.124208e+03,2.610641e+02
2.125172e+03,2.596612e+02
2.126136e+03,2.594547e+02
2.127101e+03,2.608705e+02
2.128065e+03,2.610215e+02
2.129029e+03,2.601729e+02
2.129993e+03,2.613173e+02
2.130958e+03,2.647696e+02
2.131922e+03,2.660315e+02
2.132886e+03,2.647775e+02
2.133850e+03,2.631833e+02
2.134814e+03,2.617881e+02
2.135779e+03,2.607093e+02
2.136743e+03,2.596104e+02
2.137707e+03,2.595616e+02
2.138671e+03,2.606347e+02
2.139636e+03,2.613287e+02
2.140600e+03,2.612582e+02
2.141564e+03,2.592439e+02
2.142528e+03,2.551191e+02
2.143493e+03,2.531109e+02
2.144457e+03,2.556014e+02
2.145421e+03,2.565155e+02
2.146385e+03,2.534079e+02
2.147350e+03,2.533666e+02
2.148314e+03,2.589365e+02
2.149278e+03,2.638242e+02
2.150242e+03,2.635942e+02
2.151207e+03,2.611129e+02
2.152171e+03,2.563014e+02
2.153135e+03,2.528942e+02
2.154099e+03,2.568283e+02
2.155063e+03,2.581044e+02
2.156028e+03,2.541114e+02
2.156992e+03,2.499550e+02
2.157956e+03,2.489097e+02
2.158920e+03,2.484161e+02
2.159885e+03,2.468662e+02
2.160849e+03,2.468336e+02
2.161813e+03,2.503024e+02
2.162777e+03,2.537375e+02
2.163741e+03,2.544506e+02
2.164706e+03,2.534806e+02
2.165670e+03,2.509351e+02
2.166634e+03,2.491121e+02
2.167598e+03,2.509597e+02
2.168563e+03,2.533450e+02
2.169527e+03,2.549089e+02
2.170491e+03,2.551473e+02
2.171455e+03,2.528952e+02
2.172420e+03,2.505462e+02
2.173384e+03,2.494352e+02
2.174348e+03,2.494470e+02
2.175312e+03,2.520177e+02
2.176277e+03,2.536206e+02
2.177241e+03,2.476806e+02
2.178205e+03,2.433955e+02
2.179169e+03,2.479198e+02
2.180134e+03,2.549597e+02
2.181098e+03,2.570423e+02
2.182062e+03,2.555894e+02
2.183026e+03,2.506419e+02
2.183990e+03,2.459800e+02
2.184955e+03,2.489326e+02
2.185919e+03,2.530016e+02
2.186883e+03,2.527728e+02
2.187847e+03,2.506270e+02
2.188812e+03,2.497637e+02
2.189776e+03,2.486857e+02
2.190740e+03,2.444273e+02
2.191704e+03,2.401440e+02
2.192668e+03,2.385242e+02
2.193633e+03,2.392282e+02
2.194597e+03,2.437231e+02
2.195561e+03,2.481415e+02
2.196525e+03,2.482827e+02
2.197490e+03,2.470537e+02
2.198454e+03,2.511505e+02
2.199418e+03,2.548222e+02
2.200382e+03,2.525103e+02
2.201347e+03,2.479476e+02
2.202311e+03,2.475089e+02
2.203275e+03,2.479184e+02
2.204239e+03,2.452671e+02
2.205204e+03,2.415708e+02
2.206168e+03,2.398797e+02
2.207132e+03,2.392900e+02
2.208096e+03,2.389811e+02
2.209061e+03,2.383188e+02
2.210025e+03,2.360063e+02
2.210989e+03,2.338814e+02
2.211953e+03,2.358618e+02
2.212917e+03,2.392411e+02
2.213882e+03,2.409045e+02
2.214846e+03,2.408956e+02
2.215810e+03,2.384844e+02
2.216774e+03,2.357081e+02
2.217739e+03,2.348167e+02
2.218703e+03,2.353567e+02
2.219667e+03,2.375988e+02
2.220631e+03,2.393887e+02
2.221595e+03,2.375442e+02
2.222560e+03,2.354444e+02
2.223524e+03,2.394279e+02
2.224488e+03,2.444837e+02
2.225452e+03,2.451699e+02
2.226417e+03,2.432912e+02
2.227381e+03,2.377271e+02
2.228345e+03,2.331203e+02
2.229309e+03,2.381582e+02
2.230274e+03,2.442574e+02
2.231238e+03,2.439855e+02
2.232202e+03,2.402802e+02
2.233166e+03,2.352664e+02
2.234131e+03,2.325179e+02
2.235095e+03,2.351137e+02
2.236059e+03,2.392725e+02
2.237023e+03,2.397857e+02
2.237988e+03,2.381511e+02
2.238952e+03,2.350115e+02
2.239916e+03,2.320286e+02
2.240880e+03,2.326134e+02
2.241844e+03,2.331129e+02
2.242809e+03,2.299877e+02
2.243773e+03,2.272886e+02
2.244737e+03,2.303744e+02
2.245701e+03,2.338955e+02
2.246666e+03,2.332612e+02
2.247630e+03,2.311975e+02
2.248594e+03,2.288541e+02
2.249558e+03,2.274649e+02
2.250522e+03,2.288773e+02
2.251487e+03,2.307889e+02
2.252451e+03,2.324511e+02
2.253415e+03,2.322741e+02
2.254379e+03,2.256445e+02
2.255344e+03,2.224210e+02
2.256308e+03,2.273211e+02
2.257272e+03,2.330708e+02
2.258236e+03,2.311392e+02
2.259201e+03,2.305105e+02
2.260165e+03,2.345134e+02
2.261129e+03,2.382387e+02
2.262093e+03,2.372746e+02
2.263058e+03,2.346557e+02
2.264022e+03,2.312171e+02
2.264986e+03,2.290982e+02
2.265950e+03,2.313834e+02
2.266915e+03,2.310949e+02
2.267879e+03,2.249588e+02
2.268843e+03,2.218218e+02
2.269807e+03,2.273529e+02
2.270771e+03,2.311595e+02
2.271736e+03,2.288137e+02
2.272700e+03,2.268310e+02
2.273664e+03,2.266271e+02
2.274628e+03,2.273822e+02
2.275593e+03,2.294736e+02
2.276557e+03,2.296098e+02
2.277521e+03,2.274305e+02
2.278485e+03,2.256591e+02
2.279449e+03,2.253428e+02
2.280414e+03,2.267692e+02
2.281378e+03,2.298035e+02
2.282342e+03,2.313122e+02
2.283306e+03,2.281684e+02
2.284271e+03,2.264402e+02
2.285235e+03,2.259071e+02
2.286199e+03,2.240009e+02
2.287163e+03,2.190981e+02
2.288128e+03,2.191029e+02
2.289092e+03,2.232683e+02
2.290056e+03,2.258344e+02
2.291020e+03,2.254131e+02
2.291985e+03,2.227873e+02
2.292949e+03,2.188255e+02
2.293913e+03,2.186309e+02
2.294877e+03,2.224842e+02
2.295842e+03,2.272460e+02
2.296806e+03,2.318071e+02
2.297770e+03,2.277739e+02
2.298734e+03,2.182191e+02
2.299698e+03,2.174980e+02
2.300663e+03,2.244770e+02
2.301627e+03,2.276156e+02
2.302591e+03,2.270993e+02
2.303555e+03,2.232161e+02
2.304520e+03,2.177704e+02
2.305484e+03,2.188810e+02
2.306448e+03,2.228679e+02
2.307412e+03,2.231216e+02
2.308376e+03,2.209811e+02
2.309341e+03,2.210511e+02
2.310305e+03,2.209153e+02
2.311269e+03,2.161421e+02
2.312233e+03,2.108275e+02
2.313198e+03,2.118895e+02
2.314162e+03,2.156479e+02
2.315126e+03,2.197036e+02
2.316090e+03,2.218051e+02
2.317055e+03,2.176601e+02
2.318019e+03,2.126685e+02
2.318983e+03,2.111890e+02
2.319947e+03,2.117902e+02
2.320912e+03,2.153335e+02
2.321876e+03,2.183241e+02
2.322840e+03,2.176340e+02
2.323804e+03,2.156536e+02
2.324769e+03,2.124734e+02
2.325733e+03,2.112832e+02
2.326697e+03,2.158884e+02
2.327661e+03,2.193241e+02
2.328625e+03,2.192751e+02
2.329590e+03,2.190004e+02
2.330554e+03,2.215522e+02
2.331518e+03,2.218104e+02
2.332482e+03,2.188795e+02
2.333447e+03,2.160207e+02
2.334411e+03,2.144371e+02
2.335375e+03,2.144765e+02
2.336339e+03,2.160437e+02
2.337303e+03,2.168138e+02
2.338268e+03,2.149855e+02
2.339232e+03,2.152302e+02
2.340196e+03,2.172171e+02
2.341160e+03,2.181249e+02
2.342125e+03,2.170747e+02
2.343089e+03,2.174387e+02
2.344053e+03,2.182163e+02
2.345017e+03,2.158233e+02
2.345982e+03,2.107283e+02
2.346946e+03,2.107335e+02
2.347910e+03,2.139063e+02
2.348874e+03,2.140895e+02
2.349839e+03,2.123967e+02
2.350803e+03,2.153639e+02
2.351767e+03,2.197057e+02
2.352731e+03,2.177023e+02
2.353696e+03,2.128435e+02
2.354660e+03,2.091973e+02
2.355624e+03,2.077485e+02
2.356588e+03,2.130413e+02
2.357552e+03,2.186260e+02
2.358517e+03,2.181056e+02
2.359481e+03,2.157222e+02
2.360445e+03,2.169429e+02
2.361409e+03,2.170486e+02
2.362374e+03,2.128501e+02
2.363338e+03,2.088521e+02
2.364302e+03,2.110591e+02
2.365266e+03,2.117586e+02
2.366230e+03,2.080354e+02
2.367195e+03,2.060218e+02
2.368159e+03,2.121832e+02
2.369123e+03,2.152267e+02
2.370087e+03,2.137322e+02
2.371052e+03,2.117752e+02
2.372016e+03,2.108627e+02
2.372980e+03,2.111578e+02
2.373944e+03,2.124176e+02
2.374909e+03,2.124100e+02
2.375873e+03,2.096739e+02
2.376837e+03,2.111511e+02
2.377801e+03,2.153590e+02
2.378766e+03,2.144900e+02
2.379730e+03,2.080207e+02
2.380694e+03,2.054024e+02
2.381658e+03,2.053611e+02
2.382623e+03,2.038361e+02
2.383587e+03,2.016597e+02
2.384551e+03,2.036848e+02
2.385515e+03,2.069129e+02
2.386479e+03,2.062779e+02
2.387444e+03,2.036627e+02
2.388408e+03,2.001028e+02
2.389372e+03,1.981888e+02
2.390336e+03,2.020030e+02
2.391301e+03,2.058912e+02
2.392265e+03,2.036197e+02
2.393229e+03,2.002454e+02
2.394193e+03,1.983844e+02
2.395157e+03,1.981969e+02
2.396122e+03,2.014842e+02
2.397086e+03,2.026718e+02
2.398050e+03,1.995280e+02
2.399014e+03,1.980856e+02
2.399979e+03,2.009815e+02
2.400943e+03,2.039723e+02
2.401907e+03,2.062639e+02
2.402871e+03,2.069056e+02
2.403836e+03,2.056973e+02
2.404800e+03,2.044949e+02
2.405764e+03,2.034655e+02
2.406728e+03,2.030853e+02
2.407693e+03,2.027958e+02
2.408657e+03,1.996485e+02
2.409621e+03,1.947504e+02
2.410585e+03,1.931079e+02
2.411550e+03,1.940055e+02
2.412514e+03,1.949194e+02
2.413478e+03,1.955511e+02
2.414442e+03,1.943853e+02
2.415406e+03,1.936141e+02
2.416371e+03,1.961447e+02
2.417335e+03,1.991786e+02
2.418299e+03,1.974014e+02
2.419263e+03,1.962588e+02
2.420228e+03,1.990801e+02
2.421192e+03,2.020479e+02
2.422156e+03,2.026650e+02
2.423120e+03,1.997113e+02
2.424084e+03,1.919289e+02
2.425049e+03,1.874285e+02
2.426013e+03,1.928908e+02
2.426977e+03,1.960668e+02
2.427941e+03,1.960585e+02
2.428906e+03,1.958102e+02
2.429870e+03,1.960269e+02
2.430834e+03,1.958744e+02
2.431798e+03,1.954245e+02
2.432763e+03,1.947416e+02
2.433727e+03,1.938599e+02
2.434691e+03,1.939224e+02
2.435655e+03,1.944985e+02
2.436620e+03,1.952059e+02
2.437584e+03,1.952349e+02
2.438548e+03,1.902658e+02
2.439512e+03,1.862944e+02
2.440477e+03,1.901925e+02
2.441441e+03,1.951190e+02
2.442405e+03,1.892664e+02
2.443369e+03,1.858665e+02
2.444333e+03,1.918214e+02
2.445298e+03,1.974887e+02
2.446262e+03,1.930866e+02
2.447226e+03,1.884656e+02
2.448190e+03,1.853917e+02
2.449155e+03,1.857949e+02
2.450119e+03,1.946228e+02
2.451083e+03,1.993222e+02
2.452047e+03,1.998146e+02
2.453011e+03,1.967568e+02
2.453976e+03,1.901404e+02
2.454940e+03,1.873561e+02
2.455904e+03,1.876508e+02
2.456868e+03,1.889883e+02
2.457833e+03,1.904873e+02
2.458797e+03,1.904064e+02
2.459761e+03,1.899567e+02
2.460725e+03,1.909849e+02
2.461690e+03,1.921160e+02
2.462654e+03,1.904016e+02
2.463618e+03,1.893015e+02
2.464582e+03,1.912422e+02
2.465547e+03,1.935609e+02
2.466511e+03,1.946813e+02
2.467475e+03,1.923156e+02
2.468439e+03,1.857899e+02
2.469404e+03,1.823782e+02
2.470368e+03,1.907766e+02
2.471332e+03,1.925140e+02
2.472296e+03,1.877639e+02
2.473260e+03,1.848375e+02
2.474225e+03,1.859504e+02
2.475189e+03,1.910553e+02
2.476153e+03,1.975514e+02
2.477117e+03,1.938017e+02
2.478082e+03,1.847841e+02
2.479046e+03,1.905626e+02
2.480010e+03,1.997245e+02
2.480974e+03,1.956840e+02
2.481938e+03,1.874738e+02
2.482903e+03,1.857894e+02
2.483867e+03,1.871015e+02
2.484831e+03,1.895770e+02
2.485795e+03,1.911869e+02
2.486760e+03,1.890032e+02
2.487724e+03,1.889013e+02
2.488688e+03,1.919294e+02
2.489652e+03,1.935615e+02
2.490617e+03,1.904787e+02
2.491581e+03,1.878083e+02
2.492545e+03,1.857396e+02
2.493509e+03,1.846171e+02
2.494474e+03,1.843814e+02
2.495438e+03,1.859093e+02
2.496402e+03,1.880725e+02
2.497366e+03,1.885098e+02
2.498331e+03,1.875191e+02
2.499295e+03,1.841709e+02
2.500259e+03,1.814361e+02
2.501223e+03,1.820211e+02
2.502188e+03,1.842113e+02
2.503152e+03,1.878501e+02
2.504116e+03,1.894617e+02
2.505080e+03,1.880126e+02
2.506044e+03,1.867538e+02
2.507009e+03,1.883399e+02
2.507973e+03,1.885091e+02
2.508937e+03,1.873275e+02
2.509901e+03,1.866267e+02
2.510865e+03,1.868480e+02
2.511830e+03,1.859980e+02
2.512794e+03,1.845209e+02
2.513758e+03,1.843934e+02
2.514722e+03,1.850866e+02
2.515687e+03,1.844953e+02
2.516651e+03,1.834762e+02
2.517615e+03,1.827032e+02
2.518579e+03,1.826762e+02
2.519544e+03,1.850643e+02
2.520508e+03,1.866600e+02
2.521472e+03,1.862927e+02
2.522436e+03,1.857570e+02
2.523401e+03,1.863470e+02
2.524365e+03,1.871320e+02
2.525329e+03,1.878260e+02
2.526293e+03,1.872839e+02
2.527258e+03,1.855291e+02
2.528222e+03,1.802931e+02
2.529186e+03,1.739497e+02
2.530150e+03,1.743210e+02
2.531115e+03,1.791687e+02
2.532079e+03,1.813938e+02
2.533043e+03,1.818444e+02
2.534007e+03,1.817608e+02
2.534971e+03,1.808215e+02
2.535936e+03,1.777413e+02
2.536900e+03,1.757543e+02
2.537864e+03,1.759456e+02
2.538828e+03,1.775501e+02
2.539792e+03,1.804846e+02
2.540757e+03,1.821421e+02
2.541721e+03,1.822390e+02
2.542685e+03,1.822419e+02
2.543649e+03,1.825220e+02
2.544614e+03,1.850100e+02
2.545578e+03,1.878791e+02
2.546542e+03,1.854878e+02
2.547506e+03,1.809745e+02
2.548471e+03,1.830661e+02
2.549435e+03,1.859212e+02
2.550399e+03,1.834524e+02
2.551363e+03,1.813058e+02
2.552328e+03,1.853389e+02
2.553292e+03,1.882632e+02
2.554256e+03,1.873325e+02
2.555220e+03,1.865494e+02
2.556185e+03,1.866908e+02
2.557149e+03,1.884643e+02
2.558113e+03,1.916178e+02
2.559077e+03,1.908989e+02
2.560042e+03,1.872866e+02
2.561006e+03,1.841047e+02
2.561970e+03,1.828290e+02
2.562934e+03,1.874199e+02
2.563898e+03,1.915105e+02
2.564863e+03,1.854677e+02
2.565827e+03,1.794791e+02
2.566791e+03,1.833767e+02
2.567755e+03,1.859112e+02
2.568719e+03,1.837776e+02
2.569684e+03,1.834533e+02
2.570648e+03,1.891701e+02
2.571612e+03,1.902848e+02
2.572576e+03,1.875277e+02
2.573541e+03,1.853566e+02
2.574505e+03,1.838946e+02
2.575469e+03,1.804378e+02
2.576433e+03,1.773978e+02
2.577398e+03,1.790737e+02
2.578362e+03,1.825432e+02
2.579326e+03,1.859072e+02
2.580290e+03,1.859654e+02
2.581255e+03,1.811230e+02
2.582219e+03,1.774865e+02
2.583183e+03,1.819721e+02
2.584147e+03,1.826457e+02
2.585112e+03,1.794101e+02
2.586076e+03,1.753049e+02
2.587040e+03,1.709113e+02
2.588004e+03,1.752988e+02
2.588969e+03,1.831864e+02
2.589933e+03,1.833078e+02
2.590897e+03,1.790869e+02
2.591861e+03,1.760899e+02
2.592825e+03,1.752226e+02
2.593790e+03,1.775415e+02
2.594754e+03,1.790442e+02
2.595718e+03,1.763460e+02
2.596682e+03,1.746246e+02
2.597646e+03,1.748337e+02
2.598611e+03,1.751004e+02
2.599575e+03,1.753500e+02
2.600539e+03,1.779260e+02
2.601503e+03,1.812072e+02
2.602468e+03,1.784657e+02
2.603432e+03,1.727428e+02
2.604396e+03,1.688621e+02
2.605360e+03,1.677997e+02
2.606325e+03,1.732413e+02
2.607289e+03,1.766982e+02
2.608253e+03,1.743316e+02
2.609217e+03,1.716821e+02
2.610182e+03,1.708640e+02
2.611146e+03,1.697671e+02
2.612110e+03,1.686174e+02
2.613074e+03,1.706128e+02
2.614039e+03,1.750498e+02
2.615003e+03,1.742420e+02
2.615967e+03,1.711730e+02
2.616931e+03,1.711784e+02
2.617896e+03,1.715497e+02
2.618860e+03,1.664144e+02
2.619824e+03,1.646160e+02
2.620788e+03,1.696005e+02
2.621752e+03,1.728157e+02
2.622717e+03,1.677431e+02
2.623681e+03,1.675344e+02
2.624645e+03,1.720495e+02
2.625609e+03,1.756581e+02
2.626573e+03,1.775660e+02
2.627538e+03,1.744440e+02
2.628502e+03,1.702445e+02
2.629466e+03,1.710154e+02
2.630430e+03,1.732242e+02
2.631395e+03,1.710373e+02
2.632359e+03,1.714321e+02
2.633323e+03,1.790317e+02
2.634287e+03,1.787681e+02
2.635252e+03,1.679481e+02
2.636216e+03,1.616579e+02
2.637180e+03,1.627710e+02
2.638144e+03,1.654500e+02
2.639109e+03,1.688988e+02
2.640073e+03,1.730332e+02
2.641037e+03,1.755453e+02
2.642001e+03,1.700685e+02
2.642966e+03,1.655063e+02
2.643930e+03,1.671794e+02
2.644894e+03,1.690430e+02
2.645858e+03,1.664241e+02
2.646823e+03,1.650146e+02
2.647787e+03,1.649930e+02
2.648751e+03,1.659719e+02
2.649715e+03,1.677057e+02
2.650679e+03,1.704724e+02
2.651644e+03,1.732508e+02
2.652608e+03,1.746778e+02
2.653572e+03,1.749201e+02
2.654536e+03,1.733588e+02
2.655500e+03,1.723019e+02
2.656465e+03,1.728331e+02
2.657429e+03,1.718655e+02
2.658393e+03,1.680148e+02
2.659357e+03,1.683759e+02
2.660322e+03,1.731146e+02
2.661286e+03,1.735691e+02
2.662250e+03,1.713900e+02
2.663214e+03,1.727100e+02
2.664179e+03,1.743017e+02
2.665143e+03,1.707624e+02
2.666107e+03,1.682958e+02
2.667071e+03,1.702416e+02
2.668036e+03,1.725825e+02
2.669000e+03,1.730126e+02
2.669964e+03,1.742067e+02
2.670928e+03,1.758556e+02
2.671893e+03,1.751428e+02
2.672857e+03,1.727456e+02
2.673821e+03,1.718605e+02
2.674785e+03,1.718193e+02
2.675750e+03,1.719321e+02
2.676714e+03,1.722606e+02
2.677678e+03,1.732028e+02
2.678642e+03,1.733591e+02
2.679606e+03,1.724254e+02
2.680571e+03,1.717917e+02
2.681535e+03,1.716317e+02
2.682499e+03,1.698264e+02
2.683463e+03,1.667720e+02
2.684427e+03,1.647394e+02
2.685392e+03,1.637255e+02
2.686356e+03,1.637035e+02
2.687320e+03,1.646004e+02
2.688284e+03,1.677118e+02
2.689249e+03,1.695081e+02
2.690213e+03,1.693348e+02
2.691177e+03,1.669071e+02
2.692141e+03,1.618784e+02
2.693106e+03,1.601059e+02
2.694070e+03,1.611678e+02
2.695034e+03,1.648490e+02
2.695998e+03,1.687452e+02
2.696963e+03,1.690494e+02
2.697927e+03,1.674806e+02
2.698891e+03,1.644767e+02
2.699855e+03,1.633388e+02
2.700820e+03,1.659474e+02
2.701784e+03,1.712200e+02
2.702748e+03,1.774977e+02
2.703712e+03,1.742031e+02
2.704677e+03,1.656357e+02
2.705641e+03,1.673018e+02
2.706605e+03,1.724028e+02
2.707569e+03,1.736307e+02
2.708533e+03,1.724622e+02
2.709498e+03,1.695318e+02
2.710462e+03,1.666686e+02
2.711426e+03,1.642896e+02
2.712390e+03,1.668032e+02
2.713354e+03,1.723974e+02
2.714319e+03,1.726338e+02
2.715283e+03,1.698485e+02
2.716247e+03,1.695017e+02
2.717211e+03,1.711759e+02
2.718176e+03,1.749290e+02
2.719140e+03,1.765420e+02
2.720104e+03,1.718459e+02
2.721068e+03,1.692284e+02
2.722033e+03,1.694473e+02
2.722997e+03,1.672374e+02
2.723961e+03,1.632371e+02
2.724925e+03,1.610941e+02
2.725890e+03,1.612897e+02
2.726854e+03,1.659109e+02
2.727818e+03,1.698366e+02
2.728782e+03,1.704041e+02
2.729747e+03,1.677271e+02
2.730711e+03,1.585654e+02
2.731675e+03,1.576914e+02
2.732639e+03,1.634794e+02
2.733604e+03,1.679135e+02
2.734568e+03,1.702969e+02
2.735532e+03,1.696556e+02
2.736496e+03,1.678961e+02
2.737460e+03,1.664164e+02
2.738425e+03,1.662859e+02
2.739389e+03,1.692645e+02
2.740353e+03,1.661333e+02
2.741317e+03,1.562822e+02
2.742281e+03,1.534719e+02
2.743246e+03,1.563094e+02
2.744210e+03,1.595137e+02
2.745174e+03,1.616828e+02
2.746138e+03,1.606075e+02
2.747103e+03,1.606105e+02
2.748067e+03,1.635763e+02
2.749031e+03,1.653811e+02
2.749995e+03,1.628082e+02
2.750960e+03,1.637147e+02
2.751924e+03,1.664776e+02
2.752888e+03,1.657552e+02
2.753852e+03,1.626770e+02
2.754817e+03,1.578221e+02
2.755781e+03,1.563706e+02
2.756745e+03,1.625592e+02
2.757709e+03,1.650286e+02
2.758674e+03,1.601544e+02
2.759638e+03,1.584787e+02
2.760602e+03,1.615350e+02
2.761566e+03,1.617333e+02
2.762531e+03,1.610050e+02
2.763495e+03,1.626281e+02
2.764459e+03,1.645687e+02
2.765423e+03,1.649738e+02
2.766387e+03,1.648969e+02
2.767352e+03,1.647237e+02
2.768316e+03,1.650104e+02
2.769280e+03,1.657941e+02
2.770244e+03,1.649922e+02
2.771208e+03,1.638718e+02
2.772173e+03,1.659979e+02
2.773137e+03,1.664994e+02
2.774101e+03,1.580467e+02
2.775065e+03,1.525014e+02
2.776030e+03,1.551376e+02
2.776994e+03,1.585938e+02
2.777958e+03,1.614817e+02
2.778922e+03,1.610225e+02
2.779887e+03,1.593835e+02
2.780851e+03,1.636607e+02
2.781815e+03,1.683247e+02
2.782779e+03,1.702813e+02
2.783744e+03,1.681202e+02
2.784708e+03,1.585323e+02
2.785672e+03,1.553560e+02
2.786636e+03,1.583479e+02
2.787601e+03,1.540419e+02
2.788565e+03,1.472410e+02
2.789529e+03,1.549357e+02
2.790493e+03,1.651960e+02
2.791458e+03,1.691233e+02
2.792422e+03,1.684348e+02
2.793386e+03,1.645375e+02
2.794350e+03,1.601191e+02
2.795314e+03,1.557951e+02
2.796279e+03,1.539229e+02
2.797243e+03,1.540977e+02
2.798207e+03,1.558520e+02
2.799171e+03,1.580722e+02
2.800135e+03,1.599685e+02
2.801100e+03,1.597227e+02
2.802064e+03,1.566771e+02
2.803028e+03,1.594961e+02
2.803992e+03,1.662445e+02
2.804957e+03,1.626051e+02
2.805921e+03,1.548906e+02
2.806885e+03,1.554335e+02
2.807849e+03,1.583201e+02
2.808814e+03,1.601632e+02
2.809778e+03,1.623863e+02
2.810742e+03,1.668441e+02
2.811706e+03,1.637331e+02
2.812671e+03,1.556793e+02
2.813635e+03,1.526486e+02
2.814599e+03,1.532705e+02
2.815563e+03,1.570398e+02
2.816528e+03,1.592355e+02
2.817492e+03,1.569462e+02
2.818456e+03,1.536134e+02
2.819420e+03,1.504707e+02
2.820385e+03,1.561720e+02
2.821349e+03,1.671237e+02
2.822313e+03,1.677556e+02
2.823277e+03,1.627399e+02
2.824241e+03,1.559036e+02
2.825206e+03,1.520166e+02
2.826170e+03,1.539651e+02
2.827134e+03,1.618592e+02
2.828098e+03,1.742066e+02
2.829063e+03,1.805354e+02
2.830027e+03,1.822804e+02
2.830991e+03,1.824321e+02
2.831955e+03,1.811849e+02
2.832919e+03,1.759169e+02
2.833884e+03,1.732370e+02
2.834848e+03,1.738571e+02
2.835812e+03,1.755659e+02
2.836776e+03,1.783601e+02
2.837741e+03,1.886586e+02
2.838705e+03,1.999133e+02
2.839669e+03,2.055432e+02
2.840633e+03,2.071562e+02
2.841598e+03,2.053979e+02
2.842562e+03,2.061704e+02
2.843526e+03,2.110659e+02
2.844490e+03,2.083985e+02
2.845455e+03,2.042157e+02
2.846419e+03,2.110295e+02
2.847383e+03,2.195665e+02
2.848347e+03,2.191424e+02
2.849312e+03,2.178680e+02
2.850276e+03,2.172969e+02
2.851240e+03,2.214430e+02
2.852204e+03,2.277620e+02
2.853168e+03,2.217824e+02
2.854133e+03,2.125995e+02
2.855097e+03,2.141262e+02
2.856061e+03,2.128515e+02
2.857025e+03,2.043253e+02
2.857990e+03,2.000554e+02
2.858954e+03,2.036930e+02
2.859918e+03,2.029087e+02
2.860882e+03,2.005440e+02
2.861846e+03,2.016459e+02
2.862811e+03,2.025719e+02
2.863775e+03,1.991335e+02
2.864739e+03,1.971674e+02
2.865703e+03,1.983070e+02
2.866668e+03,2.003921e+02
2.867632e+03,2.034885e+02
2.868596e+03,2.097995e+02
2.869560e+03,2.152197e+02
2.870525e+03,2.125833e+02
2.871489e+03,2.134527e+02
2.872453e+03,2.205026e+02
2.873417e+03,2.187621e+02
2.874382e+03,2.099226e+02
2.875346e+03,2.201365e+02
2.876310e+03,2.365959e+02
2.877274e+03,2.380527e+02
2.878239e+03,2.394839e+02
2.879203e+03,2.467396e+02
2.880167e+03,2.498837e+02
2.881131e+03,2.459666e+02
2.882095e+03,2.506557e+02
2.883060e+03,2.548802e+02
2.884024e+03,2.433752e+02
2.884988e+03,2.296440e+02
2.885952e+03,2.250656e+02
2.886917e+03,2.259199e+02
2.887881e+03,2.321426e+02
2.888845e+03,2.302725e+02
2.889809e+03,2.238463e+02
2.890773e+03,2.216735e+02
2.891738e+03,2.196124e+02
2.892702e+03,2.096631e+02
2.893666e+03,2.085826e+02
2.894630e+03,2.185849e+02
2.895595e+03,2.203896e+02
2.896559e+03,2.153450e+02
2.897523e+03,2.154251e+02
2.898487e+03,2.197566e+02
2.899452e+03,2.337051e+02
2.900416e+03,2.349287e+02
2.901380e+03,2.203338e+02
2.902344e+03,2.135004e+02
2.903309e+03,2.169868e+02
2.904273e+03,2.153180e+02
2.905237e+03,2.110820e+02
2.906201e+03,2.071517e+02
2.907166e+03,2.027653e+02
2.908130e+03,1.972770e+02
2.909094e+03,1.997007e+02
2.910058e+03,2.101566e+02
2.911022e+03,2.115100e+02
2.911987e+03,2.071116e+02
2.912951e+03,2.000995e+02
2.913915e+03,1.961919e+02
2.914879e+03,2.008661e+02
2.915844e+03,2.034992e+02
2.916808e+03,2.030967e+02
2.917772e+03,2.016292e+02
2.918736e+03,1.986855e+02
2.919700e+03,1.921726e+02
2.920665e+03,1.870370e+02
2.921629e+03,1.888390e+02
2.922593e+03,1.856656e+02
2.923557e+03,1.801429e+02
2.924522e+03,1.889186e+02
2.925486e+03,2.027417e+02
2.926450e+03,1.990652e+02
2.927414e+03,1.919725e+02
2.928379e+03,1.859473e+02
2.929343e+03,1.870779e+02
2.930307e+03,1.931716e+02
2.931271e+03,1.914523e+02
2.932236e+03,1.864135e+02
2.933200e+03,1.858499e+02
2.934164e+03,1.877110e+02
2.935128e+03,1.914140e+02
2.936093e+03,1.863791e+02
2.937057e+03,1.746001e+02
2.938021e+03,1.740686e+02
2.938985e+03,1.776525e+02
2.939949e+03,1.706266e+02
2.940914e+03,1.656887e+02
2.941878e+03,1.670874e+02
2.942842e+03,1.689388e+02
2.943806e+03,1.699727e+02
2.944771e+03,1.810513e+02
2.945735e+03,1.919839e+02
2.946699e+03,1.884531e+02
2.947663e+03,1.802132e+02
2.948627e+03,1.711792e+02
2.949592e+03,1.725103e+02
2.950556e+03,1.839510e+02
2.951520e+03,1.784911e+02
2.952484e+03,1.676189e+02
2.953449e+03,1.620094e+02
2.954413e+03,1.674608e+02
2.955377e+03,1.859025e+02
2.956341e+03,1.994806e+02
2.957306e+03,2.059873e+02
2.958270e+03,2.156242e+02
2.959234e+03,2.124203e+02
2.960198e+03,1.843716e+02
2.961163e+03,1.617714e+02
2.962127e+03,1.583971e+02
2.963091e+03,1.608969e+02
2.964055e+03,1.653651e+02
2.965020e+03,1.620991e+02
2.965984e+03,1.588283e+02
2.966948e+03,1.612076e+02
2.967912e+03,1.627898e+02
2.968876e+03,1.600454e+02
2.969841e+03,1.649925e+02
2.970805e+03,1.703287e+02
2.971769e+03,1.605137e+02
2.972733e+03,1.523110e+02
2.973698e+03,1.585317e+02
2.974662e+03,1.651585e+02
2.975626e+03,1.682328e+02
2.976590e+03,1.559856e+02
2.977554e+03,1.431665e+02
2.978519e+03,1.504231e+02
2.979483e+03,1.557574e+02
2.980447e+03,1.420648e+02
2.981411e+03,1.424237e+02
2.982376e+03,1.581059e+02
2.983340e+03,1.585301e+02
2.984304e+03,1.517154e+02
2.985268e+03,1.452384e+02
2.986233e+03,1.449470e+02
2.987197e+03,1.567754e+02
2.988161e+03,1.594237e+02
2.989125e+03,1.562059e+02
2.990090e+03,1.622087e+02
2.991054e+03,1.685342e+02
2.992018e+03,1.680172e+02
2.992982e+03,1.652800e+02
2.993947e+03,1.616272e+02
2.994911e+03,1.612707e+02
2.995875e+03,1.600007e+02
2.996839e+03,1.480317e+02
2.997803e+03,1.440414e+02
2.998768e+03,1.613990e+02
2.999732e+03,1.665008e+02
3.000696e+03,1.545499e+02
3.001660e+03,1.555872e+02
3.002625e+03,1.606087e+02
3.003589e+03,1.599094e+02
3.004553e+03,1.610397e+02
3.005517e+03,1.681484e+02
3.006481e+03,1.696165e+02
3.007446e+03,1.641138e+02
3.008410e+03,1.511806e+02
3.009374e+03,1.408765e+02
3.010338e+03,1.384312e+02
3.011303e+03,1.456585e+02
3.012267e+03,1.626617e+02
3.013231e+03,1.700725e+02
3.014195e+03,1.689115e+02
3.015160e+03,1.619676e+02
3.016124e+03,1.531541e+02
3.017088e+03,1.441329e+02
3.018052e+03,1.402028e+02
3.019017e+03,1.415553e+02
3.019981e+03,1.487522e+02
3.020945e+03,1.508784e+02
3.021909e+03,1.365197e+02
3.022874e+03,1.297756e+02
3.023838e+03,1.343468e+02
3.024802e+03,1.405137e+02
3.025766e+03,1.453693e+02
3.026730e+03,1.432955e+02
3.027695e+03,1.419714e+02
3.028659e+03,1.448909e+02
3.029623e+03,1.456545e+02
3.030587e+03,1.440283e+02
3.031552e+03,1.426340e+02
3.032516e+03,1.414938e+02
3.033480e+03,1.434011e+02
3.034444e+03,1.350537e+02
3.035408e+03,1.179658e+02
3.036373e+03,1.324987e+02
3.037337e+03,1.625062e+02
3.038301e+03,1.550707e+02
3.039265e+03,1.399893e+02
3.040230e+03,1.281398e+02
3.041194e+03,1.286617e+02
3.042158e+03,1.360637e+02
3.043122e+03,1.291436e+02
3.044087e+03,1.212588e+02
3.045051e+03,1.340830e+02
3.046015e+03,1.441752e+02
3.046979e+03,1.449061e+02
3.047944e+03,1.486664e+02
3.048908e+03,1.525249e+02
3.049872e+03,1.518453e+02
3.050836e+03,1.474958e+02
3.051801e+03,1.381623e+02
3.052765e+03,1.424576e+02
3.053729e+03,1.562622e+02
3.054693e+03,1.431540e+02
3.055657e+03,1.347977e+02
3.056622e+03,1.533817e+02
3.057586e+03,1.638834e+02
3.058550e+03,1.557318e+02
3.059514e+03,1.422698e+02
3.060479e+03,1.338183e+02
3.061443e+03,1.541260e+02
3.062407e+03,1.589712e+02
3.063371e+03,1.393300e+02
3.064335e+03,1.381990e+02
3.065300e+03,1.525287e+02
3.066264e+03,1.481177e+02
3.067228e+03,1.390389e+02
3.068192e+03,1.321255e+02
3.069157e+03,1.354078e+02
3.070121e+03,1.454626e+02
3.071085e+03,1.479028e+02
3.072049e+03,1.458413e+02
3.073014e+03,1.393567e+02
3.073978e+03,1.429203e+02
3.074942e+03,1.590595e+02
3.075906e+03,1.601453e+02
3.076871e+03,1.538479e+02
3.077835e+03,1.541415e+02
3.078799e+03,1.523634e+02
3.079763e+03,1.409163e+02
3.080728e+03,1.391488e+02
3.081692e+03,1.457098e+02
3.082656e+03,1.517611e+02
3.083620e+03,1.495039e+02
3.084584e+03,1.355591e+02
3.085549e+03,1.326236e+02
3.086513e+03,1.446479e+02
3.087477e+03,1.446913e+02
3.088441e+03,1.441535e+02
3.089406e+03,1.593815e+02
3.090370e+03,1.636833e+02
3.091334e+03,1.546008e+02
3.092298e+03,1.427793e+02
3.093262e+03,1.322188e+02
3.094227e+03,1.279121e+02
3.095191e+03,1.283952e+02
3.096155e+03,1.339896e+02
3.097119e+03,1.378080e+02
3.098084e+03,1.400102e+02
3.099048e+03,1.419713e+02
3.100012e+03,1.423482e+02
3.100976e+03,1.393537e+02
3.101941e+03,1.377271e+02
3.102905e+03,1.376508e+02
3.103869e+03,1.357328e+02
3.104833e+03,1.350134e+02
3.105798e+03,1.369135e+02
3.106762e+03,1.446383e+02
3.107726e+03,1.577254e+02
3.108690e+03,1.682913e+02
3.109655e+03,1.720878e+02
3.110619e+03,1.587423e+02
3.111583e+03,1.539613e+02
3.112547e+03,1.589427e+02
3.113511e+03,1.491010e+02
3.114476e+03,1.344516e+02
3.115440e+03,1.418761e+02
3.116404e+03,1.485685e+02
3.117368e+03,1.463637e+02
3.118333e+03,1.526455e+02
3.119297e+03,1.613535e+02
3.120261e+03,1.620455e+02
3.121225e+03,1.592209e+02
3.122189e+03,1.552969e+02
3.123154e+03,1.578213e+02
3.124118e+03,1.636711e+02
3.125082e+03,1.580056e+02
3.126046e+03,1.529631e+02
3.127011e+03,1.543386e+02
3.127975e+03,1.559826e+02
3.128939e+03,1.568647e+02
3.129903e+03,1.610109e+02
3.130868e+03,1.603283e+02
3.131832e+03,1.356494e+02
3.132796e+03,1.410757e+02
3.133760e+03,1.685270e+02
3.134725e+03,1.575787e+02
3.135689e+03,1.378272e+02
3.136653e+03,1.386359e+02
3.137617e+03,1.456680e+02
3.138582e+03,1.549244e+02
3.139546e+03,1.444074e+02
3.140510e+03,1.334793e+02
3.141474e+03,1.447792e+02
3.142438e+03,1.539324e+02
3.143403e+03,1.555424e+02
3.144367e+03,1.465033e+02
3.145331e+03,1.344750e+02
3.146295e+03,1.261234e+02
3.147260e+03,1.314765e+02
3.148224e+03,1.535519e+02
3.149188e+03,1.715646e+02
3.150152e+03,1.735431e+02
3.151116e+03,1.436512e+02
3.152081e+03,1.312212e+02
3.153045e+03,1.572225e+02
3.154009e+03,1.833983e+02
3.154973e+03,1.989725e+02
3.155938e+03,1.841558e+02
3.156902e+03,1.655195e+02
3.157866e+03,1.519340e+02
3.158830e+03,1.435122e+02
3.159795e+03,1.421819e+02
3.160759e+03,1.623015e+02
3.161723e+03,1.749143e+02
3.162687e+03,1.573583e+02
3.163652e+03,1.486033e+02
3.164616e+03,1.500027e+02
3.165580e+03,1.626804e+02
3.166544e+03,1.722968e+02
3.167509e+03,1.735022e+02
3.168473e+03,1.716843e+02
3.169437e+03,1.680761e+02
3.170401e+03,1.615013e+02
3.171365e+03,1.553419e+02
3.172330e+03,1.512143e+02
3.173294e+03,1.557859e+02
3.174258e+03,1.605683e+02
3.175222e+03,1.462409e+02
3.176187e+03,1.385015e+02
3.177151e+03,1.554987e+02
3.178115e+03,1.658707e+02
3.179079e+03,1.690522e+02
3.180043e+03,1.687491e+02
3.181008e+03,1.777525e+02
3.181972e+03,1.986676e+02
3.182936e+03,1.809603e+02
3.183900e+03,1.431272e+02
3.184865e+03,1.503843e+02
3.185829e+03,1.678858e+02
3.186793e+03,1.875865e+02
3.187757e+03,1.755736e+02
3.188722e+03,1.507888e+02
3.189686e+03,1.580810e+02
3.190650e+03,1.637638e+02
3.191614e+03,1.546193e+02
3.192579e+03,1.627569e+02
3.193543e+03,1.801376e+02
3.194507e+03,1.725316e+02
3.195471e+03,1.583028e+02
3.196436e+03,1.434801e+02
3.197400e+03,1.484984e+02
3.198364e+03,1.598691e+02
3.199328e+03,1.527584e+02
3.200292e+03,1.588963e+02
3.201257e+03,0.000000e+00
3.202221e+03,0.000000e+00
3.203185e+03,0.000000e+00
3.204149e+03,0.000000e+00
3.205114e+03,0.000000e+00
3.206078e+03,0.000000e+00
3.207042e+03,0.000000e+00
3.208006e+03,0.000000e+00
3.208970e+03,0.000000e+00
3.209935e+03,0.000000e+00
3.210899e+03,0.000000e+00
3.211863e+03,0.000000e+00
3.212827e+03,0.000000e+00
3.213792e+03,0.000000e+00
3.214756e+03,0.000000e+00
3.215720e+03,0.000000e+00
3.216684e+03,0.000000e+00
3.217649e+03,0.000000e+00
3.218613e+03,0.000000e+00
3.219577e+03,0.000000e+00
3.220541e+03,0.000000e+00
3.221506e+03,0.000000e+00
3.222470e+03,0.000000e+00
3.223434e+03,0.000000e+00
3.224398e+03,0.000000e+00
3.225363e+03,0.000000e+00
3.226327e+03,0.000000e+00
3.227291e+03,0.000000e+00
3.228255e+03,0.000000e+00
3.229219e+03,0.000000e+00
3.230184e+03,0.000000e+00
3.231148e+03,0.000000e+00
3.232112e+03,0.000000e+00
3.233076e+03,0.000000e+00
3.234041e+03,0.000000e+00
3.235005e+03,0.000000e+00
3.235969e+03,0.000000e+00
3.236933e+03,0.000000e+00
3.237897e+03,0.000000e+00
3.238862e+03,0.000000e+00
3.239826e+03,0.000000e+00
3.240790e+03,0.000000e+00
3.241754e+03,0.000000e+00
3.242719e+03,0.000000e+00
3.243683e+03,0.000000e+00
3.244647e+03,0.000000e+00
3.245611e+03,0.000000e+00
3.246576e+03,0.000000e+00
3.247540e+03,0.000000e+00
3.248504e+03,0.000000e+00
3.249468e+03,0.000000e+00
3.250433e+03,0.000000e+00
3.251397e+03,0.000000e+00
3.252361e+03,0.000000e+00
3.253325e+03,0.000000e+00
3.254290e+03,0.000000e+00
3.255254e+03,0.000000e+00
3.256218e+03,0.000000e+00
3.257182e+03,0.000000e+00
3.258146e+03,0.000000e+00
3.259111e+03,0.000000e+00
3.260075e+03,0.000000e+00
3.261039e+03,0.000000e+00
3.262003e+03,0.000000e+00
3.262968e+03,0.000000e+00
3.263932e+03,0.000000e+00
3.264896e+03,0.000000e+00
3.265860e+03,0.000000e+00
3.266824e+03,0.000000e+00
3.267789e+03,0.000000e+00
3.268753e+03,0.000000e+00
3.269717e+03,0.000000e+00
3.270681e+03,0.000000e+00
3.271646e+03,0.000000e+00
3.272610e+03,0.000000e+00
3.273574e+03,0.000000e+00
3.274538e+03,0.000000e+00
3.275503e+03,0.000000e+00
3.276467e+03,0.000000e+00
3.277431e+03,0.000000e+00
3.278395e+03,0.000000e+00
3.279360e+03,0.000000e+00
3.280324e+03,0.000000e+00
3.281288e+03,0.000000e+00
3.282252e+03,0.000000e+00
3.283217e+03,0.000000e+00
3.284181e+03,0.000000e+00
3.285145e+03,0.000000e+00
3.286109e+03,0.000000e+00
3.287073e+03,0.000000e+00
3.288038e+03,0.000000e+00
3.289002e+03,0.000000e+00
3.289966e+03,0.000000e+00
3.290930e+03,0.000000e+00
3.291895e+03,0.000000e+00
3.292859e+03,0.000000e+00
3.293823e+03,0.000000e+00
3.294787e+03,0.000000e+00
3.295751e+03,0.000000e+00
3.296716e+03,0.000000e+00
3.297680e+03,0.000000e+00
3.298644e+03,0.000000e+00
3.299608e+03,0.000000e+00
3.300573e+03,0.000000e+00
3.301537e+03,0.000000e+00
3.302501e+03,0.000000e+00
3.303465e+03,0.000000e+00
3.304430e+03,0.000000e+00
3.305394e+03,0.000000e+00
3.306358e+03,0.000000e+00
3.307322e+03,0.000000e+00
3.308287e+03,0.000000e+00
3.309251e+03,0.000000e+00
3.310215e+03,0.000000e+00
3.311179e+03,0.000000e+00
3.312144e+03,0.000000e+00
3.313108e+03,0.000000e+00
3.314072e+03,0.000000e+00
3.315036e+03,0.000000e+00
3.316000e+03,0.000000e+00
3.316965e+03,0.000000e+00
3.317929e+03,0.000000e+00
3.318893e+03,0.000000e+00
3.319857e+03,0.000000e+00
3.320822e+03,0.000000e+00
3.321786e+03,0.000000e+00
3.322750e+03,0.000000e+00
3.323714e+03,0.000000e+00
3.324678e+03,0.000000e+00
3.325643e+03,0.000000e+00
3.326607e+03,0.000000e+00
3.327571e+03,0.000000e+00
3.328535e+03,0.000000e+00
3.329500e+03,0.000000e+00
3.330464e+03,0.000000e+00
3.331428e+03,0.000000e+00
3.332392e+03,0.000000e+00
3.333357e+03,0.000000e+00
3.334321e+03,0.000000e+00
3.335285e+03,0.000000e+00
3.336249e+03,0.000000e+00
3.337214e+03,0.000000e+00
3.338178e+03,0.000000e+00
3.339142e+03,0.000000e+00
3.340106e+03,0.000000e+00
3.341071e+03,0.000000e+00
3.342035e+03,0.000000e+00
3.342999e+03,0.000000e+00
3.343963e+03,0.000000e+00
3.344927e+03,0.000000e+00
3.345892e+03,0.000000e+00
3.346856e+03,0.000000e+00
3.347820e+03,0.000000e+00
3.348784e+03,0.000000e+00
3.349749e+03,0.000000e+00
3.350713e+03,0.000000e+00
3.351677e+03,0.000000e+00
3.352641e+03,0.000000e+00
3.353605e+03,0.000000e+00
3.354570e+03,0.000000e+00
3.355534e+03,0.000000e+00
3.356498e+03,0.000000e+00
3.357462e+03,0.000000e+00
3.358427e+03,0.000000e+00
3.359391e+03,0.000000e+00
3.360355e+03,0.000000e+00
3.361319e+03,0.000000e+00
3.362284e+03,0.000000e+00
3.363248e+03,0.000000e+00
3.364212e+03,0.000000e+00
3.365176e+03,0.000000e+00
3.366141e+03,0.000000e+00
3.367105e+03,0.000000e+00
3.368069e+03,0.000000e+00
3.369033e+03,0.000000e+00
3.369998e+03,0.000000e+00
3.370962e+03,0.000000e+00
3.371926e+03,0.000000e+00
3.372890e+03,0.000000e+00
3.373854e+03,0.000000e+00
3.374819e+03,0.000000e+00
3.375783e+03,0.000000e+00
3.376747e+03,0.000000e+00
3.377711e+03,0.000000e+00
3.378676e+03,0.000000e+00
3.379640e+03,0.000000e+00
3.380604e+03,0.000000e+00
3.381568e+03,0.000000e+00
3.382532e+03,0.000000e+00
3.383497e+03,0.000000e+00
3.384461e+03,0.000000e+00
3.385425e+03,0.000000e+00
3.386389e+03,0.000000e+00
3.387354e+03,0.000000e+00
3.388318e+03,0.000000e+00
3.389282e+03,0.000000e+00
3.390246e+03,0.000000e+00
3.391211e+03,0.000000e+00
3.392175e+03,0.000000e+00
3.393139e+03,0.000000e+00
3.394103e+03,0.000000e+00
3.395068e+03,0.000000e+00
3.396032e+03,0.000000e+00
3.396996e+03,0.000000e+00
3.397960e+03,0.000000e+00
3.398925e+03,0.000000e+00
3.399889e+03,0.000000e+00
3.400853e+03,0.000000e+00
3.401817e+03,0.000000e+00
3.402781e+03,0.000000e+00
3.403746e+03,0.000000e+00
3.404710e+03,0.000000e+00
3.405674e+03,0.000000e+00
3.406638e+03,0.000000e+00
3.407603e+03,0.000000e+00
3.408567e+03,0.000000e+00
3.409531e+03,0.000000e+00
3.410495e+03,0.000000e+00
3.411459e+03,0.000000e+00
3.412424e+03,0.000000e+00
3.413388e+03,0.000000e+00
3.414352e+03,0.000000e+00
3.415316e+03,0.000000e+00
3.416281e+03,0.000000e+00
3.417245e+03,0.000000e+00
3.418209e+03,0.000000e+00
3.419173e+03,0.000000e+00
3.420138e+03,0.000000e+00
3.421102e+03,0.000000e+00
3.422066e+03,0.000000e+00
3.423030e+03,0.000000e+00
3.423995e+03,0.000000e+00
3.424959e+03,0.000000e+00
3.425923e+03,0.000000e+00
3.426887e+03,0.000000e+00
3.427852e+03,0.000000e+00
3.428816e+03,0.000000e+00
3.429780e+03,0.000000e+00
3.430744e+03,0.000000e+00
3.431708e+03,0.000000e+00
3.432673e+03,0.000000e+00
3.433637e+03,0.000000e+00
3.434601e+03,0.000000e+00
3.435565e+03,0.000000e+00
3.436530e+03,0.000000e+00
3.437494e+03,0.000000e+00
3.438458e+03,0.000000e+00
3.439422e+03,0.000000e+00
3.440386e+03,0.000000e+00
3.441351e+03,0.000000e+00
3.442315e+03,0.000000e+00
3.443279e+03,0.000000e+00
3.444243e+03,0.000000e+00
3.445208e+03,0.000000e+00
3.446172e+03,0.000000e+00
3.447136e+03,0.000000e+00
3.448100e+03,0.000000e+00
3.449065e+03,0.000000e+00
3.450029e+03,0.000000e+00
3.450993e+03,0.000000e+00
3.451957e+03,0.000000e+00
3.452922e+03,0.000000e+00
3.453886e+03,0.000000e+00
3.454850e+03,0.000000e+00
3.455814e+03,0.000000e+00
3.456779e+03,0.000000e+00
3.457743e+03,0.000000e+00
3.458707e+03,0.000000e+00
3.459671e+03,0.000000e+00
3.460635e+03,0.000000e+00
3.461600e+03,0.000000e+00
3.462564e+03,0.000000e+00
3.463528e+03,0.000000e+00
3.464492e+03,0.000000e+00
3.465457e+03,0.000000e+00
3.466421e+03,0.000000e+00
3.467385e+03,0.000000e+00
3.468349e+03,0.000000e+00
3.469313e+03,0.000000e+00
3.470278e+03,0.000000e+00
3.471242e+03,0.000000e+00
3.472206e+03,0.000000e+00
3.473170e+03,0.000000e+00
3.474135e+03,0.000000e+00
3.475099e+03,0.000000e+00
3.476063e+03,0.000000e+00
3.477027e+03,0.000000e+00
3.477992e+03,0.000000e+00
3.478956e+03,0.000000e+00
3.479920e+03,0.000000e+00
3.480884e+03,0.000000e+00
3.481849e+03,0.000000e+00
3.482813e+03,0.000000e+00
3.483777e+03,0.000000e+00
3.484741e+03,0.000000e+00
3.485706e+03,0.000000e+00
3.486670e+03,0.000000e+00
3.487634e+03,0.000000e+00
3.488598e+03,0.000000e+00
3.489563e+03,0.000000e+00
3.490527e+03,0.000000e+00
3.491491e+03,0.000000e+00
3.492455e+03,0.000000e+00
3.493419e+03,0.000000e+00
3.494384e+03,0.000000e+00
3.495348e+03,0.000000e+00
3.496312e+03,0.000000e+00
3.497276e+03,0.000000e+00
3.498240e+03,0.000000e+00
3.499205e+03,0.000000e+00
3.500169e+03,0.000000e+00
