9.931763e+01,0.000000e+00
1.002819e+02,0.000000e+00
1.012461e+02,0.000000e+00
1.022103e+02,0.000000e+00
1.031746e+02,0.000000e+00
1.041388e+02,0.000000e+00
1.051030e+02,0.000000e+00
1.060673e+02,0.000000e+00
1.070315e+02,0.000000e+00
1.079957e+02,0.000000e+00
1.089600e+02,0.000000e+00
1.099242e+02,0.000000e+00
1.108884e+02,0.000000e+00
1.118527e+02,0.000000e+00
1.128169e+02,0.000000e+00
1.137811e+02,0.000000e+00
1.147454e+02,0.000000e+00
1.157096e+02,0.000000e+00
1.166738e+02,0.000000e+00
1.176381e+02,0.000000e+00
1.186023e+02,0.000000e+00
1.195665e+02,0.000000e+00
1.205308e+02,0.000000e+00
1.214950e+02,0.000000e+00
1.224592e+02,0.000000e+00
1.234235e+02,0.000000e+00
1.243877e+02,0.000000e+00
1.253519e+02,0.000000e+00
1.263162e+02,0.000000e+00
1.272804e+02,0.000000e+00
1.282446e+02,0.000000e+00
1.292089e+02,0.000000e+00
1.301731e+02,0.000000e+00
1.311373e+02,0.000000e+00
1.321016e+02,0.000000e+00
1.330658e+02,0.000000e+00
1.340300e+02,0.000000e+00
1.349943e+02,0.000000e+00
1.359585e+02,0.000000e+00
1.369227e+02,0.000000e+00
1.378870e+02,0.000000e+00
1.388512e+02,0.000000e+00
1.398154e+02,0.000000e+00
1.407797e+02,0.000000e+00
1.417439e+02,0.000000e+00
1.427081e+02,0.000000e+00
1.436724e+02,0.000000e+00
1.446366e+02,0.000000e+00
1.456008e+02,0.000000e+00
1.465651e+02,0.000000e+00
1.475293e+02,0.000000e+00
1.484935e+02,0.000000e+00
1.494578e+02,0.000000e+00
1.504220e+02,0.000000e+00
1.513862e+02,0.000000e+00
1.523505e+02,0.000000e+00
1.533147e+02,0.000000e+00
1.542789e+02,0.000000e+00
1.552432e+02,0.000000e+00
1.562074e+02,0.000000e+00
1.571716e+02,0.000000e+00
1.581359e+02,0.000000e+00
1.591001e+02,0.000000e+00
1.600643e+02,0.000000e+00
1.610286e+02,0.000000e+00
1.619928e+02,0.000000e+00
1.629570e+02,0.000000e+00
1.639213e+02,0.000000e+00
1.648855e+02,0.000000e+00
1.658497e+02,0.000000e+00
1.668140e+02,0.000000e+00
1.677782e+02,0.000000e+00
1.687424e+02,0.000000e+00
1.697067e+02,0.000000e+00
1.706709e+02,0.000000e+00
1.716351e+02,0.000000e+00
1.725994e+02,0.000000e+00
1.735636e+02,0.000000e+00
1.745278e+02,0.000000e+00
1.754921e+02,0.000000e+00
1.764563e+02,0.000000e+00
1.774205e+02,0.000000e+00
1.783848e+02,0.000000e+00
1.793490e+02,0.000000e+00
1.803132e+02,0.000000e+00
1.812775e+02,0.000000e+00
1.822417e+02,0.000000e+00
1.832059e+02,0.000000e+00
1.841702e+02,0.000000e+00
1.851344e+02,0.000000e+00
1.860986e+02,0.000000e+00
1.870629e+02,0.000000e+00
1.880271e+02,0.000000e+00
1.889913e+02,0.000000e+00
1.899556e+02,0.000000e+00
1.909198e+02,0.000000e+00
1.918840e+02,0.000000e+00
1.928483e+02,0.000000e+00
1.938125e+02,0.000000e+00
1.947767e+02,0.000000e+00
1.957410e+02,0.000000e+00
1.967052e+02,0.000000e+00
1.976694e+02,0.000000e+00
1.986337e+02,0.000000e+00
1.995979e+02,4.081046e+02
2.005621e+02,4.083859e+02
2.015264e+02,4.083988e+02
2.024906e+02,4.072556e+02
2.034548e+02,4.066113e+02
2.044191e+02,4.071354e+02
2.053833e+02,4.085399e+02
2.063475e+02,4.099172e+02
2.073118e+02,4.101744e+02
2.082760e+02,4.086938e+02
2.092402e+02,4.080171e+02
2.102045e+02,4.097776e+02
2.111687e+02,4.119061e+02
2.121329e+02,4.127391e+02
2.130972e+02,4.113077e+02
2.140614e+02,4.083377e+02
2.150256e+02,4.057306e+02
2.159899e+02,4.032544e+02
2.169541e+02,4.017346e+02
2.179183e+02,4.015688e+02
2.188826e+02,4.025510e+02
2.198468e+02,4.040624e+02
2.208110e+02,4.062564e+02
2.217753e+02,4.090194e+02
2.227395e+02,4.102444e+02
2.237037e+02,4.088116e+02
2.246680e+02,4.062922e+02
2.256322e+02,4.039793e+02
2.265964e+02,4.020027e+02
2.275607e+02,4.006602e+02
2.285249e+02,4.003306e+02
2.294892e+02,4.011081e+02
2.304534e+02,4.024903e+02
2.314176e+02,4.044739e+02
2.323819e+02,4.067858e+02
2.333461e+02,4.083655e+02
2.343103e+02,4.084043e+02
2.352746e+02,4.076465e+02
2.362388e+02,4.075112e+02
2.372030e+02,4.084935e+02
2.381673e+02,4.096067e+02
2.391315e+02,4.092342e+02
2.400957e+02,4.064510e+02
2.410600e+02,4.039114e+02
2.420242e+02,4.029598e+02
2.429884e+02,4.033702e+02
2.439527e+02,4.039708e+02
2.449169e+02,4.037024e+02
2.458811e+02,4.022901e+02
2.468454e+02,4.025087e+02
2.478096e+02,4.065940e+02
2.487738e+02,4.107691e+02
2.497381e+02,4.120087e+02
2.507023e+02,4.098150e+02
2.516665e+02,4.061925e+02
2.526308e+02,4.043127e+02
2.535950e+02,4.060425e+02
2.545592e+02,4.070094e+02
2.555235e+02,4.066493e+02
2.564877e+02,4.056920e+02
2.574519e+02,4.050968e+02
2.584161e+02,4.055446e+02
2.593804e+02,4.069498e+02
2.603446e+02,4.077689e+02
2.613088e+02,4.073782e+02
2.622731e+02,4.066306e+02
2.632373e+02,4.054044e+02
2.642015e+02,4.037809e+02
2.651658e+02,4.023550e+02
2.661300e+02,4.018394e+02
2.670942e+02,4.024559e+02
2.680585e+02,4.035122e+02
2.690227e+02,4.063998e+02
2.699869e+02,4.089706e+02
2.709512e+02,4.093398e+02
2.719154e+02,4.062355e+02
2.728796e+02,4.019444e+02
2.738439e+02,3.995533e+02
2.748081e+02,3.994070e+02
2.757723e+02,4.004123e+02
2.767366e+02,4.025367e+02
2.777008e+02,4.051938e+02
2.786650e+02,4.065097e+02
2.796293e+02,4.049223e+02
2.805935e+02,4.019444e+02
2.815577e+02,4.000889e+02
2.825220e+02,3.999042e+02
2.834862e+02,4.007107e+02
2.844504e+02,4.015215e+02
2.854147e+02,4.029489e+02
2.863789e+02,4.037433e+02
2.873431e+02,4.033380e+02
2.883074e+02,4.021571e+02
2.892716e+02,4.008660e+02
2.902358e+02,3.996396e+02
2.912001e+02,3.984225e+02
2.921643e+02,3.982461e+02
2.931285e+02,4.002538e+02
2.940928e+02,4.023102e+02
2.950570e+02,4.033364e+02
2.960212e+02,4.032792e+02
2.969855e+02,4.028252e+02
2.979497e+02,4.028776e+02
2.989139e+02,4.038597e+02
2.998782e+02,4.045461e+02
3.008424e+02,4.048742e+02
3.018066e+02,4.051810e+02
3.027709e+02,4.055786e+02
3.037351e+02,4.060580e+02
3.046993e+02,4.065207e+02
3.056636e+02,4.068698e+02
3.066278e+02,4.071302e+02
3.075920e+02,4.074195e+02
3.085563e+02,4.078483e+02
3.095205e+02,4.084301e+02
3.104847e+02,4.089996e+02
3.114490e+02,4.092628e+02
3.124132e+02,4.093216e+02
3.133774e+02,4.095492e+02
3.143417e+02,4.100567e+02
3.153059e+02,4.104595e+02
3.162701e+02,4.104625e+02
3.172344e+02,4.103414e+02
3.181986e+02,4.096992e+02
3.191628e+02,4.076963e+02
3.201271e+02,4.051318e+02
3.210913e+02,4.034380e+02
3.220555e+02,4.031994e+02
3.230198e+02,4.043186e+02
3.239840e+02,4.064374e+02
3.249482e+02,4.114055e+02
3.259125e+02,4.154474e+02
3.268767e+02,4.167939e+02
3.278409e+02,4.160667e+02
3.288052e+02,4.151644e+02
3.297694e+02,4.161927e+02
3.307336e+02,4.199614e+02
3.316979e+02,4.211389e+02
3.326621e+02,4.169765e+02
3.336263e+02,4.119165e+02
3.345906e+02,4.076007e+02
3.355548e+02,4.044453e+02
3.365190e+02,4.031997e+02
3.374833e+02,4.060221e+02
3.384475e+02,4.135802e+02
3.394117e+02,4.186971e+02
3.403760e+02,4.164532e+02
3.413402e+02,4.103826e+02
3.423044e+02,4.069817e+02
3.432687e+02,4.096740e+02
3.442329e+02,4.138998e+02
3.451971e+02,4.149772e+02
3.461614e+02,4.126849e+02
3.471256e+02,4.103851e+02
3.480898e+02,4.113603e+02
3.490541e+02,4.175280e+02
3.500183e+02,4.209749e+02
3.509825e+02,4.200659e+02
3.519468e+02,4.175909e+02
3.529110e+02,4.153785e+02
3.538752e+02,4.138603e+02
3.548395e+02,4.129208e+02
3.558037e+02,4.125886e+02
3.567680e+02,4.135949e+02
3.577322e+02,4.140230e+02
3.586964e+02,4.132866e+02
3.596607e+02,4.122210e+02
3.606249e+02,4.116767e+02
3.615891e+02,4.121191e+02
3.625534e+02,4.129334e+02
3.635176e+02,4.128546e+02
3.644818e+02,4.116213e+02
3.654461e+02,4.104955e+02
3.664103e+02,4.102935e+02
3.673745e+02,4.110939e+02
3.683388e+02,4.126987e+02
3.693030e+02,4.147139e+02
3.702672e+02,4.173011e+02
3.712315e+02,4.213252e+02
3.721957e+02,4.272126e+02
3.731599e+02,4.331760e+02
3.741242e+02,4.365796e+02
3.750884e+02,4.353737e+02
3.760526e+02,4.346860e+02
3.770169e+02,4.356385e+02
3.779811e+02,4.369568e+02
3.789453e+02,4.371384e+02
3.799096e+02,4.354418e+02
3.808738e+02,4.320541e+02
3.818380e+02,4.275893e+02
3.828023e+02,4.203525e+02
3.837665e+02,4.147808e+02
3.847307e+02,4.130728e+02
3.856950e+02,4.139149e+02
3.866592e+02,4.142069e+02
3.876234e+02,4.115238e+02
3.885877e+02,4.068814e+02
3.895519e+02,4.032115e+02
3.905161e+02,4.006758e+02
3.914804e+02,3.990688e+02
3.924446e+02,3.984678e+02
3.934088e+02,3.990791e+02
3.943731e+02,3.999030e+02
3.953373e+02,4.010718e+02
3.963015e+02,4.021787e+02
3.972658e+02,4.025457e+02
3.982300e+02,4.019266e+02
3.991942e+02,4.008136e+02
4.001585e+02,4.002432e+02
4.011227e+02,4.003244e+02
4.020869e+02,4.005743e+02
4.030512e+02,4.008848e+02
4.040154e+02,4.011655e+02
4.049796e+02,4.014566e+02
4.059439e+02,4.019626e+02
4.069081e+02,4.024567e+02
4.078723e+02,4.018904e+02
4.088366e+02,3.993635e+02
4.098008e+02,3.970640e+02
4.107650e+02,3.970386e+02
4.117293e+02,3.991127e+02
4.126935e+02,4.008080e+02
4.136577e+02,4.008261e+02
4.146220e+02,4.000745e+02
4.155862e+02,4.000102e+02
4.165504e+02,4.010176e+02
4.175147e+02,4.023896e+02
4.184789e+02,4.029697e+02
4.194431e+02,4.009099e+02
4.204074e+02,4.002949e+02
4.213716e+02,4.026806e+02
4.223358e+02,4.059733e+02
4.233001e+02,4.078765e+02
4.242643e+02,4.072469e+02
4.252285e+02,4.051236e+02
4.261928e+02,4.036263e+02
4.271570e+02,4.024910e+02
4.281212e+02,4.027334e+02
4.290855e+02,4.059460e+02
4.300497e+02,4.108166e+02
4.310139e+02,4.144991e+02
4.319782e+02,4.154401e+02
4.329424e+02,4.151918e+02
4.339066e+02,4.157366e+02
4.348709e+02,4.171899e+02
4.358351e+02,4.179696e+02
4.367993e+02,4.163085e+02
4.377636e+02,4.104328e+02
4.387278e+02,4.068804e+02
4.396920e+02,4.071650e+02
4.406563e+02,4.087530e+02
4.416205e+02,4.102611e+02
4.425847e+02,4.112639e+02
4.435490e+02,4.113548e+02
4.445132e+02,4.096597e+02
4.454774e+02,4.057942e+02
4.464417e+02,4.022659e+02
4.474059e+02,3.989067e+02
4.483701e+02,3.964170e+02
4.493344e+02,3.957824e+02
4.502986e+02,3.983423e+02
4.512628e+02,4.018266e+02
4.522271e+02,4.049218e+02
4.531913e+02,4.076465e+02
4.541555e+02,4.102599e+02
4.551198e+02,4.131670e+02
4.560840e+02,4.163877e+02
4.570482e+02,4.169460e+02
4.580125e+02,4.132180e+02
4.589767e+02,4.088758e+02
4.599409e+02,4.044620e+02
4.609052e+02,4.001971e+02
4.618694e+02,3.966111e+02
4.628336e+02,3.942906e+02
4.637979e+02,3.932003e+02
4.647621e+02,3.927422e+02
4.657263e+02,3.933571e+02
4.666906e+02,3.942789e+02
4.676548e+02,3.944501e+02
4.686190e+02,3.934864e+02
4.695833e+02,3.928897e+02
4.705475e+02,3.938559e+02
4.715117e+02,3.952416e+02
4.724760e+02,3.951596e+02
4.734402e+02,3.929023e+02
4.744044e+02,3.896444e+02
4.753687e+02,3.881267e+02
4.763329e+02,3.896725e+02
4.772971e+02,3.910089e+02
4.782614e+02,3.917183e+02
4.792256e+02,3.919673e+02
4.801898e+02,3.918966e+02
4.811541e+02,3.912434e+02
4.821183e+02,3.904528e+02
4.830826e+02,3.900945e+02
4.840468e+02,3.901378e+02
4.850110e+02,3.906247e+02
4.859753e+02,3.918418e+02
4.869395e+02,3.938340e+02
4.879037e+02,3.950533e+02
4.888680e+02,3.945627e+02
4.898322e+02,3.941906e+02
4.907964e+02,3.953764e+02
4.917607e+02,3.979070e+02
4.927249e+02,4.002438e+02
4.936891e+02,4.010524e+02
4.946534e+02,4.002888e+02
4.956176e+02,3.981974e+02
4.965818e+02,3.929786e+02
4.975461e+02,3.882201e+02
4.985103e+02,3.872954e+02
4.994745e+02,3.913252e+02
5.004388e+02,3.942560e+02
5.014030e+02,3.922863e+02
5.023672e+02,3.878694e+02
5.033315e+02,3.851410e+02
5.042957e+02,3.854283e+02
5.052599e+02,3.874934e+02
5.062242e+02,3.887873e+02
5.071884e+02,3.889298e+02
5.081526e+02,3.890054e+02
5.091169e+02,3.890621e+02
5.100811e+02,3.892655e+02
5.110453e+02,3.896751e+02
5.120095e+02,3.901633e+02
5.129738e+02,3.911463e+02
5.139380e+02,3.936173e+02
5.149022e+02,3.975552e+02
5.158665e+02,4.010345e+02
5.168307e+02,4.031104e+02
5.177949e+02,4.035467e+02
5.187592e+02,4.019695e+02
5.197234e+02,3.967726e+02
5.206876e+02,3.919622e+02
5.216519e+02,3.892553e+02
5.226161e+02,3.884024e+02
5.235803e+02,3.882164e+02
5.245446e+02,3.880414e+02
5.255088e+02,3.878290e+02
5.264730e+02,3.871948e+02
5.274373e+02,3.859501e+02
5.284015e+02,3.845855e+02
5.293657e+02,3.834185e+02
5.303300e+02,3.824503e+02
5.312942e+02,3.816447e+02
5.322584e+02,3.811161e+02
5.332227e+02,3.809523e+02
5.341869e+02,3.813453e+02
5.351511e+02,3.822221e+02
5.361154e+02,3.829659e+02
5.370796e+02,3.825316e+02
5.380438e+02,3.804096e+02
5.390081e+02,3.794727e+02
5.399723e+02,3.816134e+02
5.409365e+02,3.842664e+02
5.419008e+02,3.847503e+02
5.428650e+02,3.814956e+02
5.438292e+02,3.783282e+02
5.447935e+02,3.776720e+02
5.457577e+02,3.785921e+02
5.467219e+02,3.791749e+02
5.476862e+02,3.786522e+02
5.486504e+02,3.773133e+02
5.496146e+02,3.760094e+02
5.505789e+02,3.745832e+02
5.515431e+02,3.734203e+02
5.525073e+02,3.723641e+02
5.534716e+02,3.718799e+02
5.544358e+02,3.724736e+02
5.554000e+02,3.749605e+02
5.563643e+02,3.779421e+02
5.573285e+02,3.804078e+02
5.582927e+02,3.822457e+02
5.592570e+02,3.828309e+02
5.602212e+02,3.814027e+02
5.611854e+02,3.779690e+02
5.621497e+02,3.768001e+02
5.631139e+02,3.814756e+02
5.640781e+02,3.849332e+02
5.650424e+02,3.842303e+02
5.660066e+02,3.803979e+02
5.669708e+02,3.772380e+02
5.679351e+02,3.780243e+02
5.688993e+02,3.806318e+02
5.698635e+02,3.810042e+02
5.708278e+02,3.787766e+02
5.717920e+02,3.759757e+02
5.727562e+02,3.742865e+02
5.737205e+02,3.739328e+02
5.746847e+02,3.736581e+02
5.756489e+02,3.728273e+02
5.766132e+02,3.724545e+02
5.775774e+02,3.735887e+02
5.785416e+02,3.762534e+02
5.795059e+02,3.786048e+02
5.804701e+02,3.790361e+02
5.814343e+02,3.779828e+02
5.823986e+02,3.767014e+02
5.833628e+02,3.753200e+02
5.843270e+02,3.741652e+02
5.852913e+02,3.736597e+02
5.862555e+02,3.744164e+02
5.872197e+02,3.749233e+02
5.881840e+02,3.748121e+02
5.891482e+02,3.745973e+02
5.901124e+02,3.747787e+02
5.910767e+02,3.755502e+02
5.920409e+02,3.763894e+02
5.930051e+02,3.768744e+02
5.939694e+02,3.769609e+02
5.949336e+02,3.765092e+02
5.958978e+02,3.754019e+02
5.968621e+02,3.738592e+02
5.978263e+02,3.724046e+02
5.987905e+02,3.706421e+02
5.997548e+02,3.695931e+02
6.007190e+02,3.697762e+02
6.016832e+02,3.706322e+02
6.026475e+02,3.715049e+02
6.036117e+02,3.722072e+02
6.045759e+02,3.725220e+02
6.055402e+02,3.718261e+02
6.065044e+02,3.702241e+02
6.074686e+02,3.691629e+02
6.084329e+02,3.695244e+02
6.093971e+02,3.709607e+02
6.103613e+02,3.715675e+02
6.113256e+02,3.706352e+02
6.122899e+02,3.696306e+02
6.132541e+02,3.682836e+02
6.142183e+02,3.670861e+02
6.151826e+02,3.668726e+02
6.161468e+02,3.688353e+02
6.171110e+02,3.715984e+02
6.180753e+02,3.739238e+02
6.190395e+02,3.756815e+02
6.200037e+02,3.758185e+02
6.209680e+02,3.733473e+02
6.219322e+02,3.684900e+02
6.228964e+02,3.648045e+02
6.238607e+02,3.621115e+02
6.248249e+02,3.608583e+02
6.257891e+02,3.618867e+02
6.267534e+02,3.644151e+02
6.277176e+02,3.663952e+02
6.286818e+02,3.668156e+02
6.296461e+02,3.665655e+02
6.306103e+02,3.663622e+02
6.315745e+02,3.663043e+02
6.325388e+02,3.666584e+02
6.335030e+02,3.677081e+02
6.344672e+02,3.694411e+02
6.354315e+02,3.705284e+02
6.363957e+02,3.708849e+02
6.373599e+02,3.704449e+02
6.383242e+02,3.687041e+02
6.392884e+02,3.659477e+02
6.402526e+02,3.643895e+02
6.412169e+02,3.660236e+02
6.421811e+02,3.683211e+02
6.431453e+02,3.688636e+02
6.441096e+02,3.675905e+02
6.450738e+02,3.657814e+02
6.460380e+02,3.645921e+02
6.470023e+02,3.641151e+02
6.479665e+02,3.637184e+02
6.489307e+02,3.630374e+02
6.498950e+02,3.627454e+02
6.508592e+02,3.636781e+02
6.518234e+02,3.659485e+02
6.527877e+02,3.674559e+02
6.537519e+02,3.674272e+02
6.547161e+02,3.669085e+02
6.556804e+02,3.667751e+02
6.566446e+02,3.670785e+02
6.576088e+02,3.671470e+02
6.585731e+02,3.659764e+02
6.595373e+02,3.638649e+02
6.605015e+02,3.626451e+02
6.614658e+02,3.626082e+02
6.624300e+02,3.631626e+02
6.633942e+02,3.638175e+02
6.643585e+02,3.647569e+02
6.653227e+02,3.652308e+02
6.662869e+02,3.646432e+02
6.672512e+02,3.639448e+02
6.682154e+02,3.639914e+02
6.691796e+02,3.648110e+02
6.701439e+02,3.651232e+02
6.711081e+02,3.635041e+02
6.720723e+02,3.608309e+02
6.730366e+02,3.588446e+02
6.740008e+02,3.578692e+02
6.749650e+02,3.576714e+02
6.759293e+02,3.582352e+02
6.768935e+02,3.603127e+02
6.778577e+02,3.610688e+02
6.788220e+02,3.594653e+02
6.797862e+02,3.574971e+02
6.807504e+02,3.560790e+02
6.817147e+02,3.550396e+02
6.826789e+02,3.552146e+02
6.836431e+02,3.584683e+02
6.846074e+02,3.622012e+02
6.855716e+02,3.633906e+02
6.865358e+02,3.616052e+02
6.875001e+02,3.588827e+02
6.884643e+02,3.572565e+02
6.894285e+02,3.567397e+02
6.903928e+02,3.572649e+02
6.913570e+02,3.594078e+02
6.923212e+02,3.615692e+02
6.932855e+02,3.620064e+02
6.942497e+02,3.597930e+02
6.952139e+02,3.579802e+02
6.961782e+02,3.562908e+02
6.971424e+02,3.551287e+02
6.981066e+02,3.546301e+02
6.990709e+02,3.547011e+02
7.000351e+02,3.555009e+02
7.009993e+02,3.585738e+02
7.019636e+02,3.625793e+02
7.029278e+02,3.640930e+02
7.038920e+02,3.624146e+02
7.048563e+02,3.592362e+02
7.058205e+02,3.565377e+02
7.067847e+02,3.543549e+02
7.077490e+02,3.530371e+02
7.087132e+02,3.528764e+02
7.096774e+02,3.537080e+02
7.106417e+02,3.554610e+02
7.116059e+02,3.585937e+02
7.125701e+02,3.602543e+02
7.135344e+02,3.581976e+02
7.144986e+02,3.553475e+02
7.154628e+02,3.543468e+02
7.164271e+02,3.555665e+02
7.173913e+02,3.576085e+02
7.183555e+02,3.596203e+02
7.193198e+02,3.614191e+02
7.202840e+02,3.618936e+02
7.212482e+02,3.607174e+02
7.222125e+02,3.592050e+02
7.231767e+02,3.586755e+02
7.241409e+02,3.593909e+02
7.251052e+02,3.600656e+02
7.260694e+02,3.615573e+02
7.270336e+02,3.622953e+02
7.279979e+02,3.610424e+02
7.289621e+02,3.576204e+02
7.299263e+02,3.546452e+02
7.308906e+02,3.531542e+02
7.318548e+02,3.526271e+02
7.328190e+02,3.529142e+02
7.337833e+02,3.538578e+02
7.347475e+02,3.546229e+02
7.357117e+02,3.544352e+02
7.366760e+02,3.534163e+02
7.376402e+02,3.520781e+02
7.386044e+02,3.502704e+02
7.395687e+02,3.486615e+02
7.405329e+02,3.477129e+02
7.414971e+02,3.474401e+02
7.424614e+02,3.476846e+02
7.434256e+02,3.495599e+02
7.443898e+02,3.512873e+02
7.453541e+02,3.514792e+02
7.463183e+02,3.501227e+02
7.472825e+02,3.491639e+02
7.482468e+02,3.502816e+02
7.492110e+02,3.518346e+02
7.501752e+02,3.521085e+02
7.511395e+02,3.512619e+02
7.521037e+02,3.502853e+02
7.530679e+02,3.498185e+02
7.540322e+02,3.497189e+02
7.549964e+02,3.496885e+02
7.559606e+02,3.498913e+02
7.569249e+02,3.498391e+02
7.578891e+02,3.489496e+02
7.588533e+02,3.471417e+02
7.598176e+02,3.468977e+02
7.607818e+02,3.494888e+02
7.617460e+02,3.517482e+02
7.627103e+02,3.530170e+02
7.636745e+02,3.533578e+02
7.646387e+02,3.527358e+02
7.656030e+02,3.500169e+02
7.665672e+02,3.471502e+02
7.675314e+02,3.455772e+02
7.684957e+02,3.449610e+02
7.694599e+02,3.446827e+02
7.704241e+02,3.447194e+02
7.713884e+02,3.449999e+02
7.723526e+02,3.449250e+02
7.733168e+02,3.445229e+02
7.742811e+02,3.442589e+02
7.752453e+02,3.441241e+02
7.762095e+02,3.440307e+02
7.771738e+02,3.441514e+02
7.781380e+02,3.443979e+02
7.791022e+02,3.447087e+02
7.800665e+02,3.457422e+02
7.810307e+02,3.468484e+02
7.819949e+02,3.469268e+02
7.829592e+02,3.442986e+02
7.839234e+02,3.422699e+02
7.848876e+02,3.431994e+02
7.858519e+02,3.455531e+02
7.868161e+02,3.467521e+02
7.877803e+02,3.454806e+02
7.887446e+02,3.433509e+02
7.897088e+02,3.428741e+02
7.906730e+02,3.439288e+02
7.916373e+02,3.447537e+02
7.926015e+02,3.446099e+02
7.935657e+02,3.437210e+02
7.945300e+02,3.429641e+02
7.954942e+02,3.425805e+02
7.964584e+02,3.421074e+02
7.974227e+02,3.419901e+02
7.983869e+02,3.419696e+02
7.993511e+02,3.412296e+02
8.003154e+02,3.385110e+02
8.012796e+02,3.367971e+02
8.022438e+02,3.371639e+02
8.032081e+02,3.386621e+02
8.041723e+02,3.409124e+02
8.051365e+02,3.438444e+02
8.061008e+02,3.457583e+02
8.070650e+02,3.443696e+02
8.080292e+02,3.412910e+02
8.089935e+02,3.393068e+02
8.099577e+02,3.389562e+02
8.109219e+02,3.396380e+02
8.118862e+02,3.413017e+02
8.128504e+02,3.438587e+02
8.138146e+02,3.442734e+02
8.147789e+02,3.417540e+02
8.157431e+02,3.387443e+02
8.167073e+02,3.373496e+02
8.176716e+02,3.381276e+02
8.186358e+02,3.383988e+02
8.196000e+02,3.373349e+02
8.205643e+02,3.364887e+02
8.215285e+02,3.365162e+02
8.224927e+02,3.372861e+02
8.234570e+02,3.378329e+02
8.244212e+02,3.377591e+02
8.253854e+02,3.375547e+02
8.263497e+02,3.373985e+02
8.273139e+02,3.372193e+02
8.282781e+02,3.370146e+02
8.292424e+02,3.371599e+02
8.302066e+02,3.373313e+02
8.311708e+02,3.368813e+02
8.321351e+02,3.358830e+02
8.330993e+02,3.345382e+02
8.340635e+02,3.325936e+02
8.350278e+02,3.307154e+02
8.359920e+02,3.314922e+02
8.369562e+02,3.355730e+02
8.379205e+02,3.389843e+02
8.388847e+02,3.404906e+02
8.398489e+02,3.405015e+02
8.408132e+02,3.399891e+02
8.417774e+02,3.385169e+02
8.427416e+02,3.370188e+02
8.437059e+02,3.351943e+02
8.446701e+02,3.335945e+02
8.456343e+02,3.328859e+02
8.465986e+02,3.335762e+02
8.475628e+02,3.342290e+02
8.485270e+02,3.343984e+02
8.494913e+02,3.342682e+02
8.504555e+02,3.338965e+02
8.514197e+02,3.333216e+02
8.523840e+02,3.332012e+02
8.533482e+02,3.344857e+02
8.543124e+02,3.363876e+02
8.552767e+02,3.374233e+02
8.562409e+02,3.373740e+02
8.572051e+02,3.369745e+02
8.581694e+02,3.371563e+02
8.591336e+02,3.378790e+02
8.600978e+02,3.379364e+02
8.610621e+02,3.371749e+02
8.620263e+02,3.365706e+02
8.629905e+02,3.368419e+02
8.639548e+02,3.379398e+02
8.649190e+02,3.383782e+02
8.658832e+02,3.376510e+02
8.668475e+02,3.372677e+02
8.678117e+02,3.384751e+02
8.687759e+02,3.407718e+02
8.697402e+02,3.416570e+02
8.707044e+02,3.389781e+02
8.716686e+02,3.366437e+02
8.726329e+02,3.366444e+02
8.735971e+02,3.380916e+02
8.745613e+02,3.391454e+02
8.755256e+02,3.390899e+02
8.764898e+02,3.387228e+02
8.774540e+02,3.381610e+02
8.784183e+02,3.376007e+02
8.793825e+02,3.375874e+02
8.803467e+02,3.384639e+02
8.813110e+02,3.392667e+02
8.822752e+02,3.384107e+02
8.832394e+02,3.365143e+02
8.842037e+02,3.356111e+02
8.851679e+02,3.361415e+02
8.861321e+02,3.372676e+02
8.870964e+02,3.380382e+02
8.880606e+02,3.384239e+02
8.890248e+02,3.383863e+02
8.899891e+02,3.379176e+02
8.909533e+02,3.374785e+02
8.919175e+02,3.374308e+02
8.928818e+02,3.378506e+02
8.938460e+02,3.383056e+02
8.948102e+02,3.390571e+02
8.957745e+02,3.393866e+02
8.967387e+02,3.387195e+02
8.977029e+02,3.370380e+02
8.986672e+02,3.356258e+02
8.996314e+02,3.353363e+02
9.005956e+02,3.349453e+02
9.015599e+02,3.335814e+02
9.025241e+02,3.315905e+02
9.034883e+02,3.300424e+02
9.044526e+02,3.296312e+02
9.054168e+02,3.293279e+02
9.063810e+02,3.284255e+02
9.073453e+02,3.275601e+02
9.083095e+02,3.278091e+02
9.092737e+02,3.300661e+02
9.102380e+02,3.320795e+02
9.112022e+02,3.300303e+02
9.121664e+02,3.258325e+02
9.131307e+02,3.250376e+02
9.140949e+02,3.295501e+02
9.150591e+02,3.353308e+02
9.160234e+02,3.360896e+02
9.169876e+02,3.323248e+02
9.179518e+02,3.299835e+02
9.189161e+02,3.300709e+02
9.198803e+02,3.307475e+02
9.208445e+02,3.300710e+02
9.218088e+02,3.279090e+02
9.227730e+02,3.264301e+02
9.237372e+02,3.255484e+02
9.247015e+02,3.253497e+02
9.256657e+02,3.262910e+02
9.266299e+02,3.284502e+02
9.275942e+02,3.288539e+02
9.285584e+02,3.253522e+02
9.295226e+02,3.225225e+02
9.304869e+02,3.226170e+02
9.314511e+02,3.248012e+02
9.324153e+02,3.262212e+02
9.333796e+02,3.259667e+02
9.343438e+02,3.257065e+02
9.353080e+02,3.261797e+02
9.362723e+02,3.266642e+02
9.372365e+02,3.261959e+02
9.382007e+02,3.239681e+02
9.391650e+02,3.222040e+02
9.401292e+02,3.223139e+02
9.410934e+02,3.231934e+02
9.420577e+02,3.234818e+02
9.430219e+02,3.227837e+02
9.439861e+02,3.218932e+02
9.449504e+02,3.212837e+02
9.459146e+02,3.211643e+02
9.468788e+02,3.219881e+02
9.478431e+02,3.234637e+02
9.488073e+02,3.242594e+02
9.497715e+02,3.225020e+02
9.507358e+02,3.196765e+02
9.517000e+02,3.193979e+02
9.526642e+02,3.216339e+02
9.536285e+02,3.241085e+02
9.545927e+02,3.254517e+02
9.555569e+02,3.257735e+02
9.565212e+02,3.252919e+02
9.574854e+02,3.241001e+02
9.584496e+02,3.228452e+02
9.594139e+02,3.215986e+02
9.603781e+02,3.203243e+02
9.613423e+02,3.188213e+02
9.623066e+02,3.166029e+02
9.632708e+02,3.169030e+02
9.642350e+02,3.215699e+02
9.651993e+02,3.274641e+02
9.661635e+02,3.299556e+02
9.671277e+02,3.271575e+02
9.680920e+02,3.252826e+02
9.690562e+02,3.250678e+02
9.700204e+02,3.250080e+02
9.709847e+02,3.238159e+02
9.719489e+02,3.210545e+02
9.729131e+02,3.199786e+02
9.738774e+02,3.228114e+02
9.748416e+02,3.252382e+02
9.758058e+02,3.250111e+02
9.767701e+02,3.225004e+02
9.777343e+02,3.203542e+02
9.786985e+02,3.183619e+02
9.796628e+02,3.173497e+02
9.806270e+02,3.184603e+02
9.815912e+02,3.205764e+02
9.825555e+02,3.218632e+02
9.835197e+02,3.214162e+02
9.844839e+02,3.209315e+02
9.854482e+02,3.212782e+02
9.864124e+02,3.219370e+02
9.873766e+02,3.219413e+02
9.883409e+02,3.208783e+02
9.893051e+02,3.208271e+02
9.902693e+02,3.249474e+02
9.912336e+02,3.296711e+02
9.921978e+02,3.299990e+02
9.931620e+02,3.259238e+02
9.941263e+02,3.226860e+02
9.950905e+02,3.261578e+02
9.960547e+02,3.312393e+02
9.970190e+02,3.308053e+02
9.979832e+02,3.258509e+02
9.989474e+02,3.211947e+02
9.999117e+02,3.200555e+02
1.000876e+03,3.204871e+02
1.001840e+03,3.191984e+02
1.002804e+03,3.168920e+02
1.003769e+03,3.159764e+02
1.004733e+03,3.174801e+02
1.005697e+03,3.193488e+02
1.006661e+03,3.180378e+02
1.007626e+03,3.143802e+02
1.008590e+03,3.118985e+02
1.009554e+03,3.111457e+02
1.010518e+03,3.117446e+02
1.011482e+03,3.140885e+02
1.012447e+03,3.177993e+02
1.013411e+03,3.198046e+02
1.014375e+03,3.200668e+02
1.015339e+03,3.197990e+02
1.016304e+03,3.197436e+02
1.017268e+03,3.197543e+02
1.018232e+03,3.190464e+02
1.019196e+03,3.174842e+02
1.020161e+03,3.158681e+02
1.021125e+03,3.144714e+02
1.022089e+03,3.134991e+02
1.023053e+03,3.133915e+02
1.024018e+03,3.142397e+02
1.024982e+03,3.147881e+02
1.025946e+03,3.144417e+02
1.026910e+03,3.141029e+02
1.027875e+03,3.154542e+02
1.028839e+03,3.196449e+02
1.029803e+03,3.217326e+02
1.030767e+03,3.207797e+02
1.031731e+03,3.193188e+02
1.032696e+03,3.190607e+02
1.033660e+03,3.200304e+02
1.034624e+03,3.208126e+02
1.035588e+03,3.215234e+02
1.036552e+03,3.220941e+02
1.037517e+03,3.226186e+02
1.038481e+03,3.228163e+02
1.039445e+03,3.218716e+02
1.040409e+03,3.184842e+02
1.041374e+03,3.161577e+02
1.042338e+03,3.158134e+02
1.043302e+03,3.167255e+02
1.044266e+03,3.179173e+02
1.045231e+03,3.198011e+02
1.046195e+03,3.211244e+02
1.047159e+03,3.218979e+02
1.048123e+03,3.222404e+02
1.049088e+03,3.218661e+02
1.050052e+03,3.206058e+02
1.051016e+03,3.208304e+02
1.051980e+03,3.252346e+02
1.052945e+03,3.282596e+02
1.053909e+03,3.263522e+02
1.054873e+03,3.209477e+02
1.055837e+03,3.180347e+02
1.056802e+03,3.206859e+02
1.057766e+03,3.226760e+02
1.058730e+03,3.221756e+02
1.059694e+03,3.207615e+02
1.060658e+03,3.203981e+02
1.061623e+03,3.222005e+02
1.062587e+03,3.234203e+02
1.063551e+03,3.231098e+02
1.064515e+03,3.226502e+02
1.065479e+03,3.231357e+02
1.066444e+03,3.247933e+02
1.067408e+03,3.257694e+02
1.068372e+03,3.250309e+02
1.069336e+03,3.243147e+02
1.070301e+03,3.242259e+02
1.071265e+03,3.245923e+02
1.072229e+03,3.250457e+02
1.073193e+03,3.256097e+02
1.074158e+03,3.261369e+02
1.075122e+03,3.267281e+02
1.076086e+03,3.272112e+02
1.077050e+03,3.274122e+02
1.078015e+03,3.273151e+02
1.078979e+03,3.274516e+02
1.079943e+03,3.272783e+02
1.080907e+03,3.277738e+02
1.081872e+03,3.299362e+02
1.082836e+03,3.337387e+02
1.083800e+03,3.368189e+02
1.084764e+03,3.370843e+02
1.085729e+03,3.383305e+02
1.086693e+03,3.430861e+02
1.087657e+03,3.500614e+02
1.088621e+03,3.558833e+02
1.089585e+03,3.583351e+02
1.090550e+03,3.612744e+02
1.091514e+03,3.676652e+02
1.092478e+03,3.742899e+02
1.093442e+03,3.775479e+02
1.094406e+03,3.763915e+02
1.095371e+03,3.737414e+02
1.096335e+03,3.694214e+02
1.097299e+03,3.642642e+02
1.098263e+03,3.580878e+02
1.099228e+03,3.510430e+02
1.100192e+03,3.458373e+02
1.101156e+03,3.437133e+02
1.102120e+03,3.426127e+02
1.103085e+03,3.426429e+02
1.104049e+03,3.430420e+02
1.105013e+03,3.423650e+02
1.105977e+03,3.389974e+02
1.106942e+03,3.364360e+02
1.107906e+03,3.351773e+02
1.108870e+03,3.350143e+02
1.109834e+03,3.358495e+02
1.110799e+03,3.378438e+02
1.111763e+03,3.401595e+02
1.112727e+03,3.431235e+02
1.113691e+03,3.461000e+02
1.114656e+03,3.494787e+02
1.115620e+03,3.528815e+02
1.116584e+03,3.536777e+02
1.117548e+03,3.479309e+02
1.118512e+03,3.437737e+02
1.119477e+03,3.448026e+02
1.120441e+03,3.479248e+02
1.121405e+03,3.484771e+02
1.122369e+03,3.438618e+02
1.123334e+03,3.406141e+02
1.124298e+03,3.403544e+02
1.125262e+03,3.401630e+02
1.126226e+03,3.376852e+02
1.127191e+03,3.325153e+02
1.128155e+03,3.289766e+02
1.129119e+03,3.279611e+02
1.130083e+03,3.272046e+02
1.131047e+03,3.259164e+02
1.132012e+03,3.241776e+02
1.132976e+03,3.225183e+02
1.133940e+03,3.211427e+02
1.134904e+03,3.193299e+02
1.135869e+03,3.164864e+02
1.136833e+03,3.139017e+02
1.137797e+03,3.131218e+02
1.138761e+03,3.147754e+02
1.139726e+03,3.162782e+02
1.140690e+03,3.176445e+02
1.141654e+03,3.186724e+02
1.142618e+03,3.191081e+02
1.143583e+03,3.190719e+02
1.144547e+03,3.193696e+02
1.145511e+03,3.200646e+02
1.146475e+03,3.208668e+02
1.147439e+03,3.218073e+02
1.148404e+03,3.226266e+02
1.149368e+03,3.226397e+02
1.150332e+03,3.217097e+02
1.151296e+03,3.210418e+02
1.152261e+03,3.206919e+02
1.153225e+03,3.200159e+02
1.154189e+03,3.186730e+02
1.155153e+03,3.168363e+02
1.156118e+03,3.146895e+02
1.157082e+03,3.123210e+02
1.158046e+03,3.102376e+02
1.159010e+03,3.084227e+02
1.159974e+03,3.072074e+02
1.160939e+03,3.079737e+02
1.161903e+03,3.102105e+02
1.162867e+03,3.106664e+02
1.163831e+03,3.085883e+02
1.164796e+03,3.060031e+02
1.165760e+03,3.052540e+02
1.166724e+03,3.057852e+02
1.167688e+03,3.061519e+02
1.168653e+03,3.062631e+02
1.169617e+03,3.060255e+02
1.170581e+03,3.052300e+02
1.171545e+03,3.043327e+02
1.172510e+03,3.039884e+02
1.173474e+03,3.040674e+02
1.174438e+03,3.042996e+02
1.175402e+03,3.046120e+02
1.176366e+03,3.045523e+02
1.177331e+03,3.032631e+02
1.178295e+03,3.017007e+02
1.179259e+03,3.010554e+02
1.180223e+03,3.012816e+02
1.181188e+03,3.016318e+02
1.182152e+03,3.025192e+02
1.183116e+03,3.026166e+02
1.184080e+03,3.001559e+02
1.185045e+03,2.965840e+02
1.186009e+03,2.943431e+02
1.186973e+03,2.946101e+02
1.187937e+03,2.955487e+02
1.188901e+03,2.969224e+02
1.189866e+03,2.982350e+02
1.190830e+03,2.990202e+02
1.191794e+03,2.991625e+02
1.192758e+03,2.990349e+02
1.193723e+03,2.978567e+02
1.194687e+03,2.975869e+02
1.195651e+03,3.002471e+02
1.196615e+03,3.042020e+02
1.197580e+03,3.053233e+02
1.198544e+03,3.006420e+02
1.199508e+03,2.971949e+02
1.200472e+03,2.958121e+02
1.201437e+03,2.956956e+02
1.202401e+03,2.964968e+02
1.203365e+03,2.985585e+02
1.204329e+03,2.992943e+02
1.205293e+03,2.980058e+02
1.206258e+03,2.970790e+02
1.207222e+03,2.977452e+02
1.208186e+03,2.992594e+02
1.209150e+03,2.994080e+02
1.210115e+03,2.979987e+02
1.211079e+03,2.958773e+02
1.212043e+03,2.929088e+02
1.213007e+03,2.907710e+02
1.213972e+03,2.924685e+02
1.214936e+03,2.971604e+02
1.215900e+03,2.989317e+02
1.216864e+03,2.977994e+02
1.217828e+03,2.960185e+02
1.218793e+03,2.947491e+02
1.219757e+03,2.938221e+02
1.220721e+03,2.926492e+02
1.221685e+03,2.916142e+02
1.222650e+03,2.919579e+02
1.223614e+03,2.939924e+02
1.224578e+03,2.955993e+02
1.225542e+03,2.941146e+02
1.226507e+03,2.919466e+02
1.227471e+03,2.919930e+02
1.228435e+03,2.939618e+02
1.229399e+03,2.959628e+02
1.230364e+03,2.969753e+02
1.231328e+03,2.980467e+02
1.232292e+03,3.008358e+02
1.233256e+03,3.037443e+02
1.234220e+03,3.042650e+02
1.235185e+03,3.010510e+02
1.236149e+03,2.985799e+02
1.237113e+03,2.981617e+02
1.238077e+03,2.984707e+02
1.239042e+03,2.988955e+02
1.240006e+03,2.992028e+02
1.240970e+03,2.986997e+02
1.241934e+03,2.964212e+02
1.242899e+03,2.950687e+02
1.243863e+03,2.955937e+02
1.244827e+03,2.969560e+02
1.245791e+03,2.977411e+02
1.246755e+03,2.978661e+02
1.247720e+03,2.978522e+02
1.248684e+03,2.976780e+02
1.249648e+03,2.977357e+02
1.250612e+03,2.983437e+02
1.251577e+03,2.992152e+02
1.252541e+03,2.992856e+02
1.253505e+03,2.986902e+02
1.254469e+03,2.990193e+02
1.255434e+03,3.009300e+02
1.256398e+03,3.026994e+02
1.257362e+03,3.016414e+02
1.258326e+03,2.991371e+02
1.259291e+03,2.978226e+02
1.260255e+03,2.977070e+02
1.261219e+03,2.976896e+02
1.262183e+03,2.971653e+02
1.263147e+03,2.967663e+02
1.264112e+03,2.971825e+02
1.265076e+03,2.978882e+02
1.266040e+03,2.979129e+02
1.267004e+03,2.966672e+02
1.267969e+03,2.961247e+02
1.268933e+03,2.977424e+02
1.269897e+03,2.997482e+02
1.270861e+03,3.009393e+02
1.271826e+03,3.010917e+02
1.272790e+03,3.008155e+02
1.273754e+03,2.997376e+02
1.274718e+03,2.991556e+02
1.275682e+03,2.997519e+02
1.276647e+03,3.006772e+02
1.277611e+03,3.007161e+02
1.278575e+03,2.996963e+02
1.279539e+03,2.986421e+02
1.280504e+03,2.976183e+02
1.281468e+03,2.974778e+02
1.282432e+03,2.990294e+02
1.283396e+03,3.012361e+02
1.284361e+03,3.008152e+02
1.285325e+03,2.985764e+02
1.286289e+03,2.985047e+02
1.287253e+03,3.016635e+02
1.288218e+03,3.052030e+02
1.289182e+03,3.068592e+02
1.290146e+03,3.071950e+02
1.291110e+03,3.066035e+02
1.292074e+03,3.053457e+02
1.293039e+03,3.039696e+02
1.294003e+03,3.021228e+02
1.294967e+03,3.008112e+02
1.295931e+03,3.008928e+02
1.296896e+03,3.016454e+02
1.297860e+03,3.023822e+02
1.298824e+03,3.031505e+02
1.299788e+03,3.030095e+02
1.300753e+03,3.006717e+02
1.301717e+03,2.992084e+02
1.302681e+03,3.003913e+02
1.303645e+03,3.030216e+02
1.304609e+03,3.034235e+02
1.305574e+03,3.010415e+02
1.306538e+03,2.993706e+02
1.307502e+03,2.990404e+02
1.308466e+03,2.995914e+02
1.309431e+03,3.008168e+02
1.310395e+03,3.024510e+02
1.311359e+03,3.038445e+02
1.312323e+03,3.047113e+02
1.313288e+03,3.039191e+02
1.314252e+03,3.001725e+02
1.315216e+03,2.974869e+02
1.316180e+03,3.013026e+02
1.317145e+03,3.074226e+02
1.318109e+03,3.107802e+02
1.319073e+03,3.106043e+02
1.320037e+03,3.094085e+02
1.321001e+03,3.067101e+02
1.321966e+03,3.047972e+02
1.322930e+03,3.055592e+02
1.323894e+03,3.076219e+02
1.324858e+03,3.082430e+02
1.325823e+03,3.062879e+02
1.326787e+03,3.055363e+02
1.327751e+03,3.063598e+02
1.328715e+03,3.073589e+02
1.329680e+03,3.075294e+02
1.330644e+03,3.072586e+02
1.331608e+03,3.084271e+02
1.332572e+03,3.108799e+02
1.333536e+03,3.131315e+02
1.334501e+03,3.148005e+02
1.335465e+03,3.154538e+02
1.336429e+03,3.140045e+02
1.337393e+03,3.118046e+02
1.338358e+03,3.109296e+02
1.339322e+03,3.112095e+02
1.340286e+03,3.113060e+02
1.341250e+03,3.109502e+02
1.342215e+03,3.098022e+02
1.343179e+03,3.067748e+02
1.344143e+03,3.037354e+02
1.345107e+03,3.027417e+02
1.346072e+03,3.044919e+02
1.347036e+03,3.053274e+02
1.348000e+03,3.050612e+02
1.348964e+03,3.038987e+02
1.349928e+03,3.015036e+02
1.350893e+03,2.989527e+02
1.351857e+03,2.989151e+02
1.352821e+03,3.012083e+02
1.353785e+03,3.028086e+02
1.354750e+03,3.032975e+02
1.355714e+03,3.029979e+02
1.356678e+03,3.015008e+02
1.357642e+03,3.001061e+02
1.358607e+03,3.010474e+02
1.359571e+03,3.033881e+02
1.360535e+03,3.050825e+02
1.361499e+03,3.052842e+02
1.362464e+03,3.055102e+02
1.363428e+03,3.072827e+02
1.364392e+03,3.087162e+02
1.365356e+03,3.074572e+02
1.366320e+03,3.038395e+02
1.367285e+03,3.028439e+02
1.368249e+03,3.053982e+02
1.369213e+03,3.090658e+02
1.370177e+03,3.142328e+02
1.371142e+03,3.185936e+02
1.372106e+03,3.187021e+02
1.373070e+03,3.152648e+02
1.374034e+03,3.135506e+02
1.374999e+03,3.135854e+02
1.375963e+03,3.142791e+02
1.376927e+03,3.154848e+02
1.377891e+03,3.161608e+02
1.378855e+03,3.143285e+02
1.379820e+03,3.117029e+02
1.380784e+03,3.107660e+02
1.381748e+03,3.119338e+02
1.382712e+03,3.126014e+02
1.383677e+03,3.120739e+02
1.384641e+03,3.104166e+02
1.385605e+03,3.069603e+02
1.386569e+03,3.028265e+02
1.387534e+03,2.994181e+02
1.388498e+03,2.963580e+02
1.389462e+03,2.972845e+02
1.390426e+03,3.029264e+02
1.391391e+03,3.069843e+02
1.392355e+03,3.048597e+02
1.393319e+03,2.997142e+02
1.394283e+03,2.972087e+02
1.395247e+03,2.966303e+02
1.396212e+03,2.968173e+02
1.397176e+03,2.975623e+02
1.398140e+03,2.974207e+02
1.399104e+03,2.934072e+02
1.400069e+03,2.901885e+02
1.401033e+03,2.918765e+02
1.401997e+03,2.966183e+02
1.402961e+03,2.989734e+02
1.403926e+03,2.974577e+02
1.404890e+03,2.965137e+02
1.405854e+03,2.965135e+02
1.406818e+03,2.968990e+02
1.407782e+03,2.973243e+02
1.408747e+03,2.978649e+02
1.409711e+03,2.988753e+02
1.410675e+03,2.998951e+02
1.411639e+03,2.992486e+02
1.412604e+03,2.962704e+02
1.413568e+03,2.937013e+02
1.414532e+03,2.942957e+02
1.415496e+03,2.960631e+02
1.416461e+03,2.980717e+02
1.417425e+03,2.995990e+02
1.418389e+03,2.988615e+02
1.419353e+03,2.919295e+02
1.420318e+03,2.886119e+02
1.421282e+03,2.916864e+02
1.422246e+03,2.952642e+02
1.423210e+03,2.940030e+02
1.424174e+03,2.889314e+02
1.425139e+03,2.871311e+02
1.426103e+03,2.881537e+02
1.427067e+03,2.889512e+02
1.428031e+03,2.885453e+02
1.428996e+03,2.875707e+02
1.429960e+03,2.862094e+02
1.430924e+03,2.847991e+02
1.431888e+03,2.834419e+02
1.432853e+03,2.823407e+02
1.433817e+03,2.821642e+02
1.434781e+03,2.846362e+02
1.435745e+03,2.858056e+02
1.436709e+03,2.841370e+02
1.437674e+03,2.823754e+02
1.438638e+03,2.836175e+02
1.439602e+03,2.874121e+02
1.440566e+03,2.874153e+02
1.441531e+03,2.840835e+02
1.442495e+03,2.827220e+02
1.443459e+03,2.856687e+02
1.444423e+03,2.888925e+02
1.445388e+03,2.881987e+02
1.446352e+03,2.857486e+02
1.447316e+03,2.833257e+02
1.448280e+03,2.813974e+02
1.449245e+03,2.805937e+02
1.450209e+03,2.819517e+02
1.451173e+03,2.831516e+02
1.452137e+03,2.836638e+02
1.453101e+03,2.840558e+02
1.454066e+03,2.851341e+02
1.455030e+03,2.867325e+02
1.455994e+03,2.872889e+02
1.456958e+03,2.869378e+02
1.457923e+03,2.866795e+02
1.458887e+03,2.868978e+02
1.459851e+03,2.868683e+02
1.460815e+03,2.851252e+02
1.461780e+03,2.834164e+02
1.462744e+03,2.839317e+02
1.463708e+03,2.864294e+02
1.464672e+03,2.880698e+02
1.465636e+03,2.892067e+02
1.466601e+03,2.882371e+02
1.467565e+03,2.838767e+02
1.468529e+03,2.799249e+02
1.469493e+03,2.806133e+02
1.470458e+03,2.844950e+02
1.471422e+03,2.859261e+02
1.472386e+03,2.855507e+02
1.473350e+03,2.856909e+02
1.474315e+03,2.874524e+02
1.475279e+03,2.883956e+02
1.476243e+03,2.861913e+02
1.477207e+03,2.832089e+02
1.478172e+03,2.810516e+02
1.479136e+03,2.797695e+02
1.480100e+03,2.790150e+02
1.481064e+03,2.788936e+02
1.482028e+03,2.792017e+02
1.482993e+03,2.801131e+02
1.483957e+03,2.805688e+02
1.484921e+03,2.786945e+02
1.485885e+03,2.761129e+02
1.486850e+03,2.766066e+02
1.487814e+03,2.786539e+02
1.488778e+03,2.787657e+02
1.489742e+03,2.750831e+02
1.490707e+03,2.727476e+02
1.491671e+03,2.755815e+02
1.492635e+03,2.778884e+02
1.493599e+03,2.762682e+02
1.494563e+03,2.726837e+02
1.495528e+03,2.731440e+02
1.496492e+03,2.774071e+02
1.497456e+03,2.795381e+02
1.498420e+03,2.789616e+02
1.499385e+03,2.773166e+02
1.500349e+03,2.750976e+02
1.501313e+03,2.730815e+02
1.502277e+03,2.715351e+02
1.503242e+03,2.707419e+02
1.504206e+03,2.713298e+02
1.505170e+03,2.739805e+02
1.506134e+03,2.756355e+02
1.507099e+03,2.762144e+02
1.508063e+03,2.759868e+02
1.509027e+03,2.748491e+02
1.509991e+03,2.734268e+02
1.510955e+03,2.729832e+02
1.511920e+03,2.730410e+02
1.512884e+03,2.723981e+02
1.513848e+03,2.711988e+02
1.514812e+03,2.704356e+02
1.515777e+03,2.703041e+02
1.516741e+03,2.706501e+02
1.517705e+03,2.717394e+02
1.518669e+03,2.730031e+02
1.519634e+03,2.741964e+02
1.520598e+03,2.752358e+02
1.521562e+03,2.754661e+02
1.522526e+03,2.748175e+02
1.523490e+03,2.732110e+02
1.524455e+03,2.704122e+02
1.525419e+03,2.681837e+02
1.526383e+03,2.691320e+02
1.527347e+03,2.706255e+02
1.528312e+03,2.698030e+02
1.529276e+03,2.675429e+02
1.530240e+03,2.677116e+02
1.531204e+03,2.719217e+02
1.532169e+03,2.738070e+02
1.533133e+03,2.724316e+02
1.534097e+03,2.708909e+02
1.535061e+03,2.720746e+02
1.536026e+03,2.740226e+02
1.536990e+03,2.728830e+02
1.537954e+03,2.699106e+02
1.538918e+03,2.671108e+02
1.539882e+03,2.647355e+02
1.540847e+03,2.639272e+02
1.541811e+03,2.663006e+02
1.542775e+03,2.685247e+02
1.543739e+03,2.701083e+02
1.544704e+03,2.707237e+02
1.545668e+03,2.686738e+02
1.546632e+03,2.650494e+02
1.547596e+03,2.655656e+02
1.548561e+03,2.698067e+02
1.549525e+03,2.733139e+02
1.550489e+03,2.730307e+02
1.551453e+03,2.722113e+02
1.552417e+03,2.723987e+02
1.553382e+03,2.725879e+02
1.554346e+03,2.719982e+02
1.555310e+03,2.707713e+02
1.556274e+03,2.693882e+02
1.557239e+03,2.678627e+02
1.558203e+03,2.680547e+02
1.559167e+03,2.705589e+02
1.560131e+03,2.725423e+02
1.561096e+03,2.707188e+02
1.562060e+03,2.681236e+02
1.563024e+03,2.668460e+02
1.563988e+03,2.668047e+02
1.564953e+03,2.675799e+02
1.565917e+03,2.695752e+02
1.566881e+03,2.707477e+02
1.567845e+03,2.709327e+02
1.568809e+03,2.708828e+02
1.569774e+03,2.711308e+02
1.570738e+03,2.711968e+02
1.571702e+03,2.699875e+02
1.572666e+03,2.684287e+02
1.573631e+03,2.678054e+02
1.574595e+03,2.683413e+02
1.575559e+03,2.689561e+02
1.576523e+03,2.699669e+02
1.577488e+03,2.698553e+02
1.578452e+03,2.677344e+02
1.579416e+03,2.659658e+02
1.580380e+03,2.678993e+02
1.581344e+03,2.716270e+02
1.582309e+03,2.740869e+02
1.583273e+03,2.752315e+02
1.584237e+03,2.749507e+02
1.585201e+03,2.725251e+02
1.586166e+03,2.704745e+02
1.587130e+03,2.687333e+02
1.588094e+03,2.680070e+02
1.589058e+03,2.691530e+02
1.590023e+03,2.707567e+02
1.590987e+03,2.693440e+02
1.591951e+03,2.663274e+02
1.592915e+03,2.647248e+02
1.593880e+03,2.646956e+02
1.594844e+03,2.653377e+02
1.595808e+03,2.668393e+02
1.596772e+03,2.683413e+02
1.597736e+03,2.700886e+02
1.598701e+03,2.713419e+02
1.599665e+03,2.712945e+02
1.600629e+03,2.701875e+02
1.601593e+03,2.687820e+02
1.602558e+03,2.672116e+02
1.603522e+03,2.658235e+02
1.604486e+03,2.646432e+02
1.605450e+03,2.640224e+02
1.606415e+03,2.649344e+02
1.607379e+03,2.656325e+02
1.608343e+03,2.653897e+02
1.609307e+03,2.645401e+02
1.610271e+03,2.635146e+02
1.611236e+03,2.624019e+02
1.612200e+03,2.615875e+02
1.613164e+03,2.612703e+02
1.614128e+03,2.619163e+02
1.615093e+03,2.648706e+02
1.616057e+03,2.671555e+02
1.617021e+03,2.673101e+02
1.617985e+03,2.668180e+02
1.618950e+03,2.667733e+02
1.619914e+03,2.667822e+02
1.620878e+03,2.645724e+02
1.621842e+03,2.609753e+02
1.622807e+03,2.593593e+02
1.623771e+03,2.604714e+02
1.624735e+03,2.615767e+02
1.625699e+03,2.606866e+02
1.626663e+03,2.600116e+02
1.627628e+03,2.604953e+02
1.628592e+03,2.611889e+02
1.629556e+03,2.609848e+02
1.630520e+03,2.602065e+02
1.631485e+03,2.595669e+02
1.632449e+03,2.593509e+02
1.633413e+03,2.610439e+02
1.634377e+03,2.667224e+02
1.635342e+03,2.705158e+02
1.636306e+03,2.689714e+02
1.637270e+03,2.662460e+02
1.638234e+03,2.638032e+02
1.639198e+03,2.617807e+02
1.640163e+03,2.603508e+02
1.641127e+03,2.595560e+02
1.642091e+03,2.596105e+02
1.643055e+03,2.603013e+02
1.644020e+03,2.605310e+02
1.644984e+03,2.587421e+02
1.645948e+03,2.578875e+02
1.646912e+03,2.593447e+02
1.647877e+03,2.606341e+02
1.648841e+03,2.590549e+02
1.649805e+03,2.560511e+02
1.650769e+03,2.568943e+02
1.651734e+03,2.599751e+02
1.652698e+03,2.612067e+02
1.653662e+03,2.591984e+02
1.654626e+03,2.575810e+02
1.655590e+03,2.576694e+02
1.656555e+03,2.575737e+02
1.657519e+03,2.568289e+02
1.658483e+03,2.559902e+02
1.659447e+03,2.556676e+02
1.660412e+03,2.555765e+02
1.661376e+03,2.554974e+02
1.662340e+03,2.554360e+02
1.663304e+03,2.552509e+02
1.664269e+03,2.542040e+02
1.665233e+03,2.541527e+02
1.666197e+03,2.554939e+02
1.667161e+03,2.561779e+02
1.668125e+03,2.547974e+02
1.669090e+03,2.529536e+02
1.670054e+03,2.535517e+02
1.671018e+03,2.549850e+02
1.671982e+03,2.552310e+02
1.672947e+03,2.540815e+02
1.673911e+03,2.523929e+02
1.674875e+03,2.496510e+02
1.675839e+03,2.482633e+02
1.676804e+03,2.487679e+02
1.677768e+03,2.500341e+02
1.678732e+03,2.515211e+02
1.679696e+03,2.526535e+02
1.680661e+03,2.519877e+02
1.681625e+03,2.510453e+02
1.682589e+03,2.529094e+02
1.683553e+03,2.579294e+02
1.684517e+03,2.576130e+02
1.685482e+03,2.521519e+02
1.686446e+03,2.488784e+02
1.687410e+03,2.503591e+02
1.688374e+03,2.524732e+02
1.689339e+03,2.524947e+02
1.690303e+03,2.516838e+02
1.691267e+03,2.500716e+02
1.692231e+03,2.487195e+02
1.693196e+03,2.501264e+02
1.694160e+03,2.535109e+02
1.695124e+03,2.528792e+02
1.696088e+03,2.489351e+02
1.697052e+03,2.466130e+02
1.698017e+03,2.496002e+02
1.698981e+03,2.515002e+02
1.699945e+03,2.498620e+02
1.700909e+03,2.479088e+02
1.701874e+03,2.474125e+02
1.702838e+03,2.480357e+02
1.703802e+03,2.487593e+02
1.704766e+03,2.496728e+02
1.705731e+03,2.517017e+02
1.706695e+03,2.547978e+02
1.707659e+03,2.561405e+02
1.708623e+03,2.547328e+02
1.709588e+03,2.534277e+02
1.710552e+03,2.524571e+02
1.711516e+03,2.514147e+02
1.712480e+03,2.495199e+02
1.713444e+03,2.478637e+02
1.714409e+03,2.479185e+02
1.715373e+03,2.490535e+02
1.716337e+03,2.507221e+02
1.717301e+03,2.529664e+02
1.718266e+03,2.518687e+02
1.719230e+03,2.475066e+02
1.720194e+03,2.458849e+02
1.721158e+03,2.489466e+02
1.722123e+03,2.519156e+02
1.723087e+03,2.512171e+02
1.724051e+03,2.496388e+02
1.725015e+03,2.486421e+02
1.725979e+03,2.477037e+02
1.726944e+03,2.456823e+02
1.727908e+03,2.429541e+02
1.728872e+03,2.406389e+02
1.729836e+03,2.389839e+02
1.730801e+03,2.390774e+02
1.731765e+03,2.431439e+02
1.732729e+03,2.446002e+02
1.733693e+03,2.415709e+02
1.734658e+03,2.398446e+02
1.735622e+03,2.425650e+02
1.736586e+03,2.463686e+02
1.737550e+03,2.461104e+02
1.738515e+03,2.442779e+02
1.739479e+03,2.440565e+02
1.740443e+03,2.452139e+02
1.741407e+03,2.446840e+02
1.742371e+03,2.420743e+02
1.743336e+03,2.418998e+02
1.744300e+03,2.444363e+02
1.745264e+03,2.467331e+02
1.746228e+03,2.466786e+02
1.747193e+03,2.463545e+02
1.748157e+03,2.469600e+02
1.749121e+03,2.477810e+02
1.750085e+03,2.482713e+02
1.751050e+03,2.480452e+02
1.752014e+03,2.458094e+02
1.752978e+03,2.426924e+02
1.753942e+03,2.415322e+02
1.754906e+03,2.427901e+02
1.755871e+03,2.437253e+02
1.756835e+03,2.433895e+02
1.757799e+03,2.435341e+02
1.758763e+03,2.448284e+02
1.759728e+03,2.460502e+02
1.760692e+03,2.456879e+02
1.761656e+03,2.449370e+02
1.762620e+03,2.450784e+02
1.763585e+03,2.453421e+02
1.764549e+03,2.443992e+02
1.765513e+03,2.421978e+02
1.766477e+03,2.420222e+02
1.767442e+03,2.433359e+02
1.768406e+03,2.417144e+02
1.769370e+03,2.349831e+02
1.770334e+03,2.311652e+02
1.771298e+03,2.366296e+02
1.772263e+03,2.419098e+02
1.773227e+03,2.449761e+02
1.774191e+03,2.457892e+02
1.775155e+03,2.425757e+02
1.776120e+03,2.381731e+02
1.777084e+03,2.373073e+02
1.778048e+03,2.389126e+02
1.779012e+03,2.394247e+02
1.779977e+03,2.381058e+02
1.780941e+03,2.384387e+02
1.781905e+03,2.402831e+02
1.782869e+03,2.421685e+02
1.783833e+03,2.438168e+02
1.784798e+03,2.443727e+02
1.785762e+03,2.425181e+02
1.786726e+03,2.402216e+02
1.787690e+03,2.384018e+02
1.788655e+03,2.369353e+02
1.789619e+03,2.351609e+02
1.790583e+03,2.336632e+02
1.791547e+03,2.340021e+02
1.792512e+03,2.358365e+02
1.793476e+03,2.370146e+02
1.794440e+03,2.373100e+02
1.795404e+03,2.359169e+02
1.796369e+03,2.325959e+02
1.797333e+03,2.309468e+02
1.798297e+03,2.339981e+02
1.799261e+03,2.377790e+02
1.800225e+03,2.399141e+02
1.801190e+03,2.412281e+02
1.802154e+03,2.429301e+02
1.803118e+03,2.437870e+02
1.804082e+03,2.385274e+02
1.805047e+03,2.307530e+02
1.806011e+03,2.296465e+02
1.806975e+03,2.354070e+02
1.807939e+03,2.379497e+02
1.808904e+03,2.345024e+02
1.809868e+03,2.336520e+02
1.810832e+03,2.364965e+02
1.811796e+03,2.383684e+02
1.812760e+03,2.338100e+02
1.813725e+03,2.294357e+02
1.814689e+03,2.304849e+02
1.815653e+03,2.326095e+02
1.816617e+03,2.322653e+02
1.817582e+03,2.306083e+02
1.818546e+03,2.320219e+02
1.819510e+03,2.347943e+02
1.820474e+03,2.349210e+02
1.821439e+03,2.318083e+02
1.822403e+03,2.294280e+02
1.823367e+03,2.279970e+02
1.824331e+03,2.279038e+02
1.825296e+03,2.291843e+02
1.826260e+03,2.307952e+02
1.827224e+03,2.327139e+02
1.828188e+03,2.341566e+02
1.829152e+03,2.344272e+02
1.830117e+03,2.339631e+02
1.831081e+03,2.327647e+02
1.832045e+03,2.312037e+02
1.833009e+03,2.304619e+02
1.833974e+03,2.306209e+02
1.834938e+03,2.318924e+02
1.835902e+03,2.344092e+02
1.836866e+03,2.343717e+02
1.837831e+03,2.315480e+02
1.838795e+03,2.291678e+02
1.839759e+03,2.279970e+02
1.840723e+03,2.275384e+02
1.841688e+03,2.269159e+02
1.842652e+03,2.277013e+02
1.843616e+03,2.309579e+02
1.844580e+03,2.341209e+02
1.845544e+03,2.345835e+02
1.846509e+03,2.333634e+02
1.847473e+03,2.316048e+02
1.848437e+03,2.297330e+02
1.849401e+03,2.287795e+02
1.850366e+03,2.287849e+02
1.851330e+03,2.270815e+02
1.852294e+03,2.240405e+02
1.853258e+03,2.223611e+02
1.854223e+03,2.227937e+02
1.855187e+03,2.237556e+02
1.856151e+03,2.247378e+02
1.857115e+03,2.256860e+02
1.858079e+03,2.265116e+02
1.859044e+03,2.274468e+02
1.860008e+03,2.291107e+02
1.860972e+03,2.308616e+02
1.861936e+03,2.326051e+02
1.862901e+03,2.335180e+02
1.863865e+03,2.323103e+02
1.864829e+03,2.291100e+02
1.865793e+03,2.251156e+02
1.866758e+03,2.214071e+02
1.867722e+03,2.216926e+02
1.868686e+03,2.281336e+02
1.869650e+03,2.304996e+02
1.870615e+03,2.274889e+02
1.871579e+03,2.235315e+02
1.872543e+03,2.195443e+02
1.873507e+03,2.176693e+02
1.874471e+03,2.226628e+02
1.875436e+03,2.257497e+02
1.876400e+03,2.214173e+02
1.877364e+03,2.161909e+02
1.878328e+03,2.189219e+02
1.879293e+03,2.250759e+02
1.880257e+03,2.253411e+02
1.881221e+03,2.222937e+02
1.882185e+03,2.217473e+02
1.883150e+03,2.241011e+02
1.884114e+03,2.267324e+02
1.885078e+03,2.292867e+02
1.886042e+03,2.292726e+02
1.887006e+03,2.255288e+02
1.887971e+03,2.227849e+02
1.888935e+03,2.230946e+02
1.889899e+03,2.234489e+02
1.890863e+03,2.231278e+02
1.891828e+03,2.222246e+02
1.892792e+03,2.204936e+02
1.893756e+03,2.188107e+02
1.894720e+03,2.172025e+02
1.895685e+03,2.170323e+02
1.896649e+03,2.208134e+02
1.897613e+03,2.266496e+02
1.898577e+03,2.285363e+02
1.899542e+03,2.275699e+02
1.900506e+03,2.256963e+02
1.901470e+03,2.230489e+02
1.902434e+03,2.218643e+02
1.903398e+03,2.220994e+02
1.904363e+03,2.224811e+02
1.905327e+03,2.227135e+02
1.906291e+03,2.231621e+02
1.907255e+03,2.252029e+02
1.908220e+03,2.247011e+02
1.909184e+03,2.201659e+02
1.910148e+03,2.160977e+02
1.911112e+03,2.183159e+02
1.912077e+03,2.217597e+02
1.913041e+03,2.222276e+02
1.914005e+03,2.213575e+02
1.914969e+03,2.205946e+02
1.915933e+03,2.201084e+02
1.916898e+03,2.215198e+02
1.917862e+03,2.233398e+02
1.918826e+03,2.215755e+02
1.919790e+03,2.155209e+02
1.920755e+03,2.141034e+02
1.921719e+03,2.169340e+02
1.922683e+03,2.177624e+02
1.923647e+03,2.153447e+02
1.924612e+03,2.129849e+02
1.925576e+03,2.112466e+02
1.926540e+03,2.116900e+02
1.927504e+03,2.147332e+02
1.928469e+03,2.182508e+02
1.929433e+03,2.223703e+02
1.930397e+03,2.238925e+02
1.931361e+03,2.170226e+02
1.932325e+03,2.100070e+02
1.933290e+03,2.102121e+02
1.934254e+03,2.144060e+02
1.935218e+03,2.139159e+02
1.936182e+03,2.113746e+02
1.937147e+03,2.119761e+02
1.938111e+03,2.155381e+02
1.939075e+03,2.164448e+02
1.940039e+03,2.153339e+02
1.941004e+03,2.160883e+02
1.941968e+03,2.189748e+02
1.942932e+03,2.201359e+02
1.943896e+03,2.175938e+02
1.944860e+03,2.166828e+02
1.945825e+03,2.180923e+02
1.946789e+03,2.192217e+02
1.947753e+03,2.176877e+02
1.948717e+03,2.159773e+02
1.949682e+03,2.148860e+02
1.950646e+03,2.142136e+02
1.951610e+03,2.139896e+02
1.952574e+03,2.139380e+02
1.953539e+03,2.137870e+02
1.954503e+03,2.134211e+02
1.955467e+03,2.123793e+02
1.956431e+03,2.114055e+02
1.957396e+03,2.130499e+02
1.958360e+03,2.159809e+02
1.959324e+03,2.171443e+02
1.960288e+03,2.164590e+02
1.961252e+03,2.148919e+02
1.962217e+03,2.122708e+02
1.963181e+03,2.113637e+02
1.964145e+03,2.120616e+02
1.965109e+03,2.124261e+02
1.966074e+03,2.110887e+02
1.967038e+03,2.105639e+02
1.968002e+03,2.109249e+02
1.968966e+03,2.112247e+02
1.969931e+03,2.108189e+02
1.970895e+03,2.109192e+02
1.971859e+03,2.145074e+02
1.972823e+03,2.163434e+02
1.973787e+03,2.136642e+02
1.974752e+03,2.091700e+02
1.975716e+03,2.058200e+02
1.976680e+03,2.037432e+02
1.977644e+03,2.036147e+02
1.978609e+03,2.049223e+02
1.979573e+03,2.075745e+02
1.980537e+03,2.105692e+02
1.981501e+03,2.096317e+02
1.982466e+03,2.063616e+02
1.983430e+03,2.056889e+02
1.984394e+03,2.081898e+02
1.985358e+03,2.109509e+02
1.986323e+03,2.135841e+02
1.987287e+03,2.134109e+02
1.988251e+03,2.088407e+02
1.989215e+03,2.061073e+02
1.990179e+03,2.062368e+02
1.991144e+03,2.067750e+02
1.992108e+03,2.073031e+02
1.993072e+03,2.073088e+02
1.994036e+03,2.054956e+02
1.995001e+03,2.042449e+02
1.995965e+03,2.041008e+02
1.996929e+03,2.049673e+02
1.997893e+03,2.082237e+02
1.998858e+03,2.105653e+02
1.999822e+03,2.072976e+02
2.000786e+03,2.033570e+02
2.001750e+03,2.033012e+02
2.002714e+03,2.057083e+02
2.003679e+03,2.082848e+02
2.004643e+03,2.098798e+02
2.005607e+03,2.072467e+02
2.006571e+03,2.023414e+02
2.007536e+03,2.040427e+02
2.008500e+03,2.099294e+02
2.009464e+03,2.121613e+02
2.010428e+03,2.101064e+02
2.011393e+03,2.086596e+02
2.012357e+03,2.082688e+02
2.013321e+03,2.060714e+02
2.014285e+03,2.020996e+02
2.015250e+03,2.004087e+02
2.016214e+03,2.065471e+02
2.017178e+03,2.077509e+02
2.018142e+03,2.030226e+02
2.019106e+03,1.996730e+02
2.020071e+03,2.022086e+02
2.021035e+03,2.049651e+02
2.021999e+03,2.052903e+02
2.022963e+03,2.050986e+02
2.023928e+03,2.051679e+02
2.024892e+03,2.050038e+02
2.025856e+03,2.035803e+02
2.026820e+03,2.021782e+02
2.027785e+03,2.013850e+02
2.028749e+03,2.012901e+02
2.029713e+03,2.026506e+02
2.030677e+03,2.044687e+02
2.031641e+03,2.052548e+02
2.032606e+03,2.054665e+02
2.033570e+03,2.061337e+02
2.034534e+03,2.069717e+02
2.035498e+03,2.076193e+02
2.036463e+03,2.073645e+02
2.037427e+03,2.032039e+02
2.038391e+03,1.955603e+02
2.039355e+03,1.942574e+02
2.040320e+03,1.978607e+02
2.041284e+03,2.002786e+02
2.042248e+03,2.001218e+02
2.043212e+03,1.998604e+02
2.044177e+03,1.997659e+02
2.045141e+03,1.997448e+02
2.046105e+03,1.997326e+02
2.047069e+03,1.995253e+02
2.048033e+03,1.990860e+02
2.048998e+03,1.976916e+02
2.049962e+03,1.952140e+02
2.050926e+03,1.937760e+02
2.051890e+03,1.962376e+02
2.052854e+03,1.976412e+02
2.053819e+03,1.962060e+02
2.054783e+03,1.940352e+02
2.055747e+03,1.915034e+02
2.056711e+03,1.907984e+02
2.057676e+03,1.973395e+02
2.058640e+03,2.017627e+02
2.059604e+03,1.979640e+02
2.060568e+03,1.920606e+02
2.061533e+03,1.931585e+02
2.062497e+03,1.971409e+02
2.063461e+03,2.011828e+02
2.064425e+03,2.041475e+02
2.065390e+03,2.042012e+02
2.066354e+03,2.022812e+02
2.067318e+03,1.996660e+02
2.068282e+03,1.968182e+02
2.069247e+03,1.941205e+02
2.070211e+03,1.917112e+02
2.071175e+03,1.910600e+02
2.072139e+03,1.916856e+02
2.073104e+03,1.923723e+02
2.074068e+03,1.930120e+02
2.075032e+03,1.953289e+02
2.075996e+03,1.984409e+02
2.076960e+03,1.982806e+02
2.077925e+03,1.940814e+02
2.078889e+03,1.917796e+02
2.079853e+03,1.918004e+02
2.080817e+03,1.908046e+02
2.081782e+03,1.884787e+02
2.082746e+03,1.869236e+02
2.083710e+03,1.871592e+02
2.084674e+03,1.879368e+02
2.085639e+03,1.892965e+02
2.086603e+03,1.910378e+02
2.087567e+03,1.930405e+02
2.088531e+03,1.948499e+02
2.089496e+03,1.965768e+02
2.090460e+03,1.964495e+02
2.091424e+03,1.929643e+02
2.092388e+03,1.910969e+02
2.093353e+03,1.960798e+02
2.094317e+03,1.992453e+02
2.095281e+03,1.974407e+02
2.096245e+03,1.946079e+02
2.097209e+03,1.963183e+02
2.098174e+03,1.954867e+02
2.099138e+03,1.879812e+02
2.100102e+03,1.809032e+02
2.101066e+03,1.834511e+02
2.102031e+03,1.882933e+02
2.102995e+03,1.893805e+02
2.103959e+03,1.887619e+02
2.104923e+03,1.872278e+02
2.105887e+03,1.859639e+02
2.106852e+03,1.875047e+02
2.107816e+03,1.892124e+02
2.108780e+03,1.881688e+02
2.109744e+03,1.857526e+02
2.110708e+03,1.857409e+02
2.111673e+03,1.867201e+02
2.112637e+03,1.859616e+02
2.113601e+03,1.843241e+02
2.114565e+03,1.851825e+02
2.115530e+03,1.867336e+02
2.116494e+03,1.835356e+02
2.117458e+03,1.778625e+02
2.118422e+03,1.782464e+02
2.119387e+03,1.832337e+02
2.120351e+03,1.855403e+02
2.121315e+03,1.854743e+02
2.122279e+03,1.853807e+02
2.123244e+03,1.854945e+02
2.124208e+03,1.854757e+02
2.125172e+03,1.852330e+02
2.126136e+03,1.839178e+02
2.127101e+03,1.811768e+02
2.128065e+03,1.801943e+02
2.129029e+03,1.807395e+02
2.129993e+03,1.810762e+02
2.130958e+03,1.807448e+02
2.131922e+03,1.836181e+02
2.132886e+03,1.903724e+02
2.133850e+03,1.919576e+02
2.134814e+03,1.879379e+02
2.135779e+03,1.854169e+02
2.136743e+03,1.877051e+02
2.137707e+03,1.870328e+02
2.138671e+03,1.833548e+02
2.139636e+03,1.820753e+02
2.140600e+03,1.896288e+02
2.141564e+03,1.897849e+02
2.142528e+03,1.811248e+02
2.143493e+03,1.763019e+02
2.144457e+03,1.817665e+02
2.145421e+03,1.847147e+02
2.146385e+03,1.807984e+02
2.147350e+03,1.793608e+02
2.148314e+03,1.832898e+02
2.149278e+03,1.875200e+02
2.150242e+03,1.891236e+02
2.151207e+03,1.890080e+02
2.152171e+03,1.869718e+02
2.153135e+03,1.854636e+02
2.154099e+03,1.882380e+02
2.155063e+03,1.891231e+02
2.156028e+03,1.865422e+02
2.156992e+03,1.836528e+02
2.157956e+03,1.818652e+02
2.158920e+03,1.813355e+02
2.159885e+03,1.830048e+02
2.160849e+03,1.834463e+02
2.161813e+03,1.799732e+02
2.162777e+03,1.774311e+02
2.163741e+03,1.822500e+02
2.164706e+03,1.859248e+02
2.165670e+03,1.852589e+02
2.166634e+03,1.833251e+02
2.167598e+03,1.833984e+02
2.168563e+03,1.825328e+02
2.169527e+03,1.786469e+02
2.170491e+03,1.754455e+02
2.171455e+03,1.788060e+02
2.172420e+03,1.822542e+02
2.173384e+03,1.808936e+02
2.174348e+03,1.791889e+02
2.175312e+03,1.817462e+02
2.176277e+03,1.842721e+02
2.177241e+03,1.807537e+02
2.178205e+03,1.777161e+02
2.179169e+03,1.804862e+02
2.180134e+03,1.838757e+02
2.181098e+03,1.783751e+02
2.182062e+03,1.731628e+02
2.183026e+03,1.744700e+02
2.183990e+03,1.787007e+02
2.184955e+03,1.822579e+02
2.185919e+03,1.842777e+02
2.186883e+03,1.839459e+02
2.187847e+03,1.819703e+02
2.188812e+03,1.774045e+02
2.189776e+03,1.735506e+02
2.190740e+03,1.757584e+02
2.191704e+03,1.787771e+02
2.192668e+03,1.775251e+02
2.193633e+03,1.745778e+02
2.194597e+03,1.735738e+02
2.195561e+03,1.727285e+02
2.196525e+03,1.694416e+02
2.197490e+03,1.666015e+02
2.198454e+03,1.716162e+02
2.199418e+03,1.774203e+02
2.200382e+03,1.775435e+02
2.201347e+03,1.748299e+02
2.202311e+03,1.730196e+02
2.203275e+03,1.719302e+02
2.204239e+03,1.711012e+02
2.205204e+03,1.709038e+02
2.206168e+03,1.736026e+02
2.207132e+03,1.762847e+02
2.208096e+03,1.734876e+02
2.209061e+03,1.698078e+02
2.210025e+03,1.709302e+02
2.210989e+03,1.740347e+02
2.211953e+03,1.755230e+02
2.212917e+03,1.758509e+02
2.213882e+03,1.747637e+02
2.214846e+03,1.730186e+02
2.215810e+03,1.717434e+02
2.216774e+03,1.714219e+02
2.217739e+03,1.730503e+02
2.218703e+03,1.752729e+02
2.219667e+03,1.758233e+02
2.220631e+03,1.753090e+02
2.221595e+03,1.737006e+02
2.222560e+03,1.722683e+02
2.223524e+03,1.732425e+02
2.224488e+03,1.750137e+02
2.225452e+03,1.766185e+02
2.226417e+03,1.771317e+02
2.227381e+03,1.747751e+02
2.228345e+03,1.714380e+02
2.229309e+03,1.680660e+02
2.230274e+03,1.665969e+02
2.231238e+03,1.696665e+02
2.232202e+03,1.741595e+02
2.233166e+03,1.760188e+02
2.234131e+03,1.764692e+02
2.235095e+03,1.764495e+02
2.236059e+03,1.760102e+02
2.237023e+03,1.754108e+02
2.237988e+03,1.737818e+02
2.238952e+03,1.696747e+02
2.239916e+03,1.664621e+02
2.240880e+03,1.711854e+02
2.241844e+03,1.757539e+02
2.242809e+03,1.734383e+02
2.243773e+03,1.699893e+02
2.244737e+03,1.717069e+02
2.245701e+03,1.739298e+02
2.246666e+03,1.727306e+02
2.247630e+03,1.702985e+02
2.248594e+03,1.671389e+02
2.249558e+03,1.652764e+02
2.250522e+03,1.684900e+02
2.251487e+03,1.709417e+02
2.252451e+03,1.690598e+02
2.253415e+03,1.666173e+02
2.254379e+03,1.683264e+02
2.255344e+03,1.701917e+02
2.256308e+03,1.708346e+02
2.257272e+03,1.703942e+02
2.258236e+03,1.683475e+02
2.259201e+03,1.659264e+02
2.260165e+03,1.631347e+02
2.261129e+03,1.617936e+02
2.262093e+03,1.655034e+02
2.263058e+03,1.675208e+02
2.264022e+03,1.658146e+02
2.264986e+03,1.643128e+02
2.265950e+03,1.663831e+02
2.266915e+03,1.671713e+02
2.267879e+03,1.646273e+02
2.268843e+03,1.632905e+02
2.269807e+03,1.659502e+02
2.270771e+03,1.681136e+02
2.271736e+03,1.680015e+02
2.272700e+03,1.678009e+02
2.273664e+03,1.678273e+02
2.274628e+03,1.684273e+02
2.275593e+03,1.704856e+02
2.276557e+03,1.703559e+02
2.277521e+03,1.675751e+02
2.278485e+03,1.649705e+02
2.279449e+03,1.631301e+02
2.280414e+03,1.645511e+02
2.281378e+03,1.691557e+02
2.282342e+03,1.713578e+02
2.283306e+03,1.654997e+02
2.284271e+03,1.635271e+02
2.285235e+03,1.650186e+02
2.286199e+03,1.646166e+02
2.287163e+03,1.595415e+02
2.288128e+03,1.591262e+02
2.289092e+03,1.626622e+02
2.290056e+03,1.630771e+02
2.291020e+03,1.586750e+02
2.291985e+03,1.592858e+02
2.292949e+03,1.644186e+02
2.293913e+03,1.669565e+02
2.294877e+03,1.660009e+02
2.295842e+03,1.642848e+02
2.296806e+03,1.620065e+02
2.297770e+03,1.592094e+02
2.298734e+03,1.566245e+02
2.299698e+03,1.569015e+02
2.300663e+03,1.596710e+02
2.301627e+03,1.631008e+02
2.302591e+03,1.656443e+02
2.303555e+03,1.633397e+02
2.304520e+03,1.578013e+02
2.305484e+03,1.550568e+02
2.306448e+03,1.549980e+02
2.307412e+03,1.581760e+02
2.308376e+03,1.626400e+02
2.309341e+03,1.636273e+02
2.310305e+03,1.633720e+02
2.311269e+03,1.657020e+02
2.312233e+03,1.681786e+02
2.313198e+03,1.650013e+02
2.314162e+03,1.608540e+02
2.315126e+03,1.615867e+02
2.316090e+03,1.634463e+02
2.317055e+03,1.622040e+02
2.318019e+03,1.604903e+02
2.318983e+03,1.609317e+02
2.319947e+03,1.613137e+02
2.320912e+03,1.599658e+02
2.321876e+03,1.583054e+02
2.322840e+03,1.565435e+02
2.323804e+03,1.565655e+02
2.324769e+03,1.600468e+02
2.325733e+03,1.637817e+02
2.326697e+03,1.666720e+02
2.327661e+03,1.657466e+02
2.328625e+03,1.590127e+02
2.329590e+03,1.538234e+02
2.330554e+03,1.560864e+02
2.331518e+03,1.576907e+02
2.332482e+03,1.574727e+02
2.333447e+03,1.557425e+02
2.334411e+03,1.506280e+02
2.335375e+03,1.506028e+02
2.336339e+03,1.558098e+02
2.337303e+03,1.585613e+02
2.338268e+03,1.540774e+02
2.339232e+03,1.524339e+02
2.340196e+03,1.535310e+02
2.341160e+03,1.566885e+02
2.342125e+03,1.621774e+02
2.343089e+03,1.631680e+02
2.344053e+03,1.605948e+02
2.345017e+03,1.589128e+02
2.345982e+03,1.586499e+02
2.346946e+03,1.576846e+02
2.347910e+03,1.563866e+02
2.348874e+03,1.551148e+02
2.349839e+03,1.540557e+02
2.350803e+03,1.544368e+02
2.351767e+03,1.553070e+02
2.352731e+03,1.540853e+02
2.353696e+03,1.523911e+02
2.354660e+03,1.529248e+02
2.355624e+03,1.542512e+02
2.356588e+03,1.535564e+02
2.357552e+03,1.536531e+02
2.358517e+03,1.587554e+02
2.359481e+03,1.634489e+02
2.360445e+03,1.587502e+02
2.361409e+03,1.543171e+02
2.362374e+03,1.552024e+02
2.363338e+03,1.579449e+02
2.364302e+03,1.623069e+02
2.365266e+03,1.626110e+02
2.366230e+03,1.560420e+02
2.367195e+03,1.511485e+02
2.368159e+03,1.551996e+02
2.369123e+03,1.592617e+02
2.370087e+03,1.624111e+02
2.371052e+03,1.620386e+02
2.372016e+03,1.539357e+02
2.372980e+03,1.528677e+02
2.373944e+03,1.587641e+02
2.374909e+03,1.612661e+02
2.375873e+03,1.559969e+02
2.376837e+03,1.542964e+02
2.377801e+03,1.552527e+02
2.378766e+03,1.542033e+02
2.379730e+03,1.507736e+02
2.380694e+03,1.510032e+02
2.381658e+03,1.534323e+02
2.382623e+03,1.537744e+02
2.383587e+03,1.526136e+02
2.384551e+03,1.530089e+02
2.385515e+03,1.536841e+02
2.386479e+03,1.522933e+02
2.387444e+03,1.501742e+02
2.388408e+03,1.486294e+02
2.389372e+03,1.483676e+02
2.390336e+03,1.511275e+02
2.391301e+03,1.534061e+02
2.392265e+03,1.504325e+02
2.393229e+03,1.475886e+02
2.394193e+03,1.482365e+02
2.395157e+03,1.498522e+02
2.396122e+03,1.524607e+02
2.397086e+03,1.516607e+02
2.398050e+03,1.450868e+02
2.399014e+03,1.429301e+02
2.399979e+03,1.505622e+02
2.400943e+03,1.554418e+02
2.401907e+03,1.554841e+02
2.402871e+03,1.535643e+02
2.403836e+03,1.502566e+02
2.404800e+03,1.484437e+02
2.405764e+03,1.481640e+02
2.406728e+03,1.471504e+02
2.407693e+03,1.457492e+02
2.408657e+03,1.484105e+02
2.409621e+03,1.536499e+02
2.410585e+03,1.531226e+02
2.411550e+03,1.484782e+02
2.412514e+03,1.442038e+02
2.413478e+03,1.412134e+02
2.414442e+03,1.431586e+02
2.415406e+03,1.466716e+02
2.416371e+03,1.480491e+02
2.417335e+03,1.483239e+02
2.418299e+03,1.486451e+02
2.419263e+03,1.486723e+02
2.420228e+03,1.478090e+02
2.421192e+03,1.479145e+02
2.422156e+03,1.532578e+02
2.423120e+03,1.552652e+02
2.424084e+03,1.514505e+02
2.425049e+03,1.471969e+02
2.426013e+03,1.445711e+02
2.426977e+03,1.464676e+02
2.427941e+03,1.529431e+02
2.428906e+03,1.537965e+02
2.429870e+03,1.450272e+02
2.430834e+03,1.418397e+02
2.431798e+03,1.437797e+02
2.432763e+03,1.468321e+02
2.433727e+03,1.500300e+02
2.434691e+03,1.494171e+02
2.435655e+03,1.465882e+02
2.436620e+03,1.444208e+02
2.437584e+03,1.434719e+02
2.438548e+03,1.458821e+02
2.439512e+03,1.493137e+02
2.440477e+03,1.517306e+02
2.441441e+03,1.524472e+02
2.442405e+03,1.491719e+02
2.443369e+03,1.462099e+02
2.444333e+03,1.455229e+02
2.445298e+03,1.461133e+02
2.446262e+03,1.485090e+02
2.447226e+03,1.491492e+02
2.448190e+03,1.475022e+02
2.449155e+03,1.456819e+02
2.450119e+03,1.440497e+02
2.451083e+03,1.452882e+02
2.452047e+03,1.489002e+02
2.453011e+03,1.504203e+02
2.453976e+03,1.487560e+02
2.454940e+03,1.477770e+02
2.455904e+03,1.475290e+02
2.456868e+03,1.483041e+02
2.457833e+03,1.492967e+02
2.458797e+03,1.477077e+02
2.459761e+03,1.454442e+02
2.460725e+03,1.449064e+02
2.461690e+03,1.455952e+02
2.462654e+03,1.480634e+02
2.463618e+03,1.496058e+02
2.464582e+03,1.485465e+02
2.465547e+03,1.470915e+02
2.466511e+03,1.481942e+02
2.467475e+03,1.458991e+02
2.468439e+03,1.385950e+02
2.469404e+03,1.348753e+02
2.470368e+03,1.454085e+02
2.471332e+03,1.458577e+02
2.472296e+03,1.369078e+02
2.473260e+03,1.338453e+02
2.474225e+03,1.410303e+02
2.475189e+03,1.465064e+02
2.476153e+03,1.497519e+02
2.477117e+03,1.461327e+02
2.478082e+03,1.393739e+02
2.479046e+03,1.427410e+02
2.480010e+03,1.491517e+02
2.480974e+03,1.488335e+02
2.481938e+03,1.458484e+02
2.482903e+03,1.453474e+02
2.483867e+03,1.444998e+02
2.484831e+03,1.413161e+02
2.485795e+03,1.392356e+02
2.486760e+03,1.431990e+02
2.487724e+03,1.445566e+02
2.488688e+03,1.419240e+02
2.489652e+03,1.403701e+02
2.490617e+03,1.434767e+02
2.491581e+03,1.440966e+02
2.492545e+03,1.426393e+02
2.493509e+03,1.411974e+02
2.494474e+03,1.400561e+02
2.495438e+03,1.385788e+02
2.496402e+03,1.376581e+02
2.497366e+03,1.406564e+02
2.498331e+03,1.445034e+02
2.499295e+03,1.413952e+02
2.500259e+03,1.383950e+02
2.501223e+03,1.424625e+02
2.502188e+03,1.472108e+02
2.503152e+03,1.455584e+02
2.504116e+03,1.426030e+02
2.505080e+03,1.397260e+02
2.506044e+03,1.393857e+02
2.507009e+03,1.465000e+02
2.507973e+03,1.482319e+02
2.508937e+03,1.447370e+02
2.509901e+03,1.430791e+02
2.510865e+03,1.450307e+02
2.511830e+03,1.471524e+02
2.512794e+03,1.487006e+02
2.513758e+03,1.471710e+02
2.514722e+03,1.441151e+02
2.515687e+03,1.430992e+02
2.516651e+03,1.432668e+02
2.517615e+03,1.435491e+02
2.518579e+03,1.442541e+02
2.519544e+03,1.475774e+02
2.520508e+03,1.480111e+02
2.521472e+03,1.434097e+02
2.522436e+03,1.390219e+02
2.523401e+03,1.390558e+02
2.524365e+03,1.389200e+02
2.525329e+03,1.381916e+02
2.526293e+03,1.365789e+02
2.527258e+03,1.338761e+02
2.528222e+03,1.356516e+02
2.529186e+03,1.400569e+02
2.530150e+03,1.407589e+02
2.531115e+03,1.393641e+02
2.532079e+03,1.425578e+02
2.533043e+03,1.466253e+02
2.534007e+03,1.479593e+02
2.534971e+03,1.468130e+02
2.535936e+03,1.423313e+02
2.536900e+03,1.370762e+02
2.537864e+03,1.312828e+02
2.538828e+03,1.296986e+02
2.539792e+03,1.360799e+02
2.540757e+03,1.396473e+02
2.541721e+03,1.393663e+02
2.542685e+03,1.423545e+02
2.543649e+03,1.489700e+02
2.544614e+03,1.557108e+02
2.545578e+03,1.601135e+02
2.546542e+03,1.567919e+02
2.547506e+03,1.490011e+02
2.548471e+03,1.412534e+02
2.549435e+03,1.378705e+02
2.550399e+03,1.444332e+02
2.551363e+03,1.523890e+02
2.552328e+03,1.547814e+02
2.553292e+03,1.566729e+02
2.554256e+03,1.602795e+02
2.555220e+03,1.595341e+02
2.556185e+03,1.536447e+02
2.557149e+03,1.488929e+02
2.558113e+03,1.467644e+02
2.559077e+03,1.500469e+02
2.560042e+03,1.556707e+02
2.561006e+03,1.508618e+02
2.561970e+03,1.415108e+02
2.562934e+03,1.400318e+02
2.563898e+03,1.423658e+02
2.564863e+03,1.453331e+02
2.565827e+03,1.463720e+02
2.566791e+03,1.409007e+02
2.567755e+03,1.387497e+02
2.568719e+03,1.420820e+02
2.569684e+03,1.449133e+02
2.570648e+03,1.443569e+02
2.571612e+03,1.455574e+02
2.572576e+03,1.481596e+02
2.573541e+03,1.478110e+02
2.574505e+03,1.448071e+02
2.575469e+03,1.443137e+02
2.576433e+03,1.451483e+02
2.577398e+03,1.462021e+02
2.578362e+03,1.464074e+02
2.579326e+03,1.424045e+02
2.580290e+03,1.406488e+02
2.581255e+03,1.438930e+02
2.582219e+03,1.470057e+02
2.583183e+03,1.461814e+02
2.584147e+03,1.448708e+02
2.585112e+03,1.435367e+02
2.586076e+03,1.430442e+02
2.587040e+03,1.434699e+02
2.588004e+03,1.426228e+02
2.588969e+03,1.406164e+02
2.589933e+03,1.377341e+02
2.590897e+03,1.349937e+02
2.591861e+03,1.334188e+02
2.592825e+03,1.352607e+02
2.593790e+03,1.434648e+02
2.594754e+03,1.479101e+02
2.595718e+03,1.392975e+02
2.596682e+03,1.335745e+02
2.597646e+03,1.338476e+02
2.598611e+03,1.364334e+02
2.599575e+03,1.402467e+02
2.600539e+03,1.411037e+02
2.601503e+03,1.395256e+02
2.602468e+03,1.407208e+02
2.603432e+03,1.423965e+02
2.604396e+03,1.380179e+02
2.605360e+03,1.342967e+02
2.606325e+03,1.405967e+02
2.607289e+03,1.433376e+02
2.608253e+03,1.360602e+02
2.609217e+03,1.299643e+02
2.610182e+03,1.302807e+02
2.611146e+03,1.307953e+02
2.612110e+03,1.313060e+02
2.613074e+03,1.352040e+02
2.614039e+03,1.412253e+02
2.615003e+03,1.378460e+02
2.615967e+03,1.302815e+02
2.616931e+03,1.255418e+02
2.617896e+03,1.249274e+02
2.618860e+03,1.354783e+02
2.619824e+03,1.407941e+02
2.620788e+03,1.344952e+02
2.621752e+03,1.292462e+02
2.622717e+03,1.329058e+02
2.623681e+03,1.367719e+02
2.624645e+03,1.399394e+02
2.625609e+03,1.389582e+02
2.626573e+03,1.348441e+02
2.627538e+03,1.343098e+02
2.628502e+03,1.355762e+02
2.629466e+03,1.359798e+02
2.630430e+03,1.351296e+02
2.631395e+03,1.306704e+02
2.632359e+03,1.277556e+02
2.633323e+03,1.286738e+02
2.634287e+03,1.298720e+02
2.635252e+03,1.304596e+02
2.636216e+03,1.316400e+02
2.637180e+03,1.334559e+02
2.638144e+03,1.344878e+02
2.639109e+03,1.347822e+02
2.640073e+03,1.336859e+02
2.641037e+03,1.334105e+02
2.642001e+03,1.392052e+02
2.642966e+03,1.425469e+02
2.643930e+03,1.380280e+02
2.644894e+03,1.347375e+02
2.645858e+03,1.423120e+02
2.646823e+03,1.426749e+02
2.647787e+03,1.357851e+02
2.648751e+03,1.318376e+02
2.649715e+03,1.320351e+02
2.650679e+03,1.328234e+02
2.651644e+03,1.335879e+02
2.652608e+03,1.329921e+02
2.653572e+03,1.326643e+02
2.654536e+03,1.361531e+02
2.655500e+03,1.390842e+02
2.656465e+03,1.398487e+02
2.657429e+03,1.397651e+02
2.658393e+03,1.392785e+02
2.659357e+03,1.372978e+02
2.660322e+03,1.343393e+02
2.661286e+03,1.336503e+02
2.662250e+03,1.346971e+02
2.663214e+03,1.367594e+02
2.664179e+03,1.383790e+02
2.665143e+03,1.374789e+02
2.666107e+03,1.363552e+02
2.667071e+03,1.364290e+02
2.668036e+03,1.355132e+02
2.669000e+03,1.309422e+02
2.669964e+03,1.297967e+02
2.670928e+03,1.316769e+02
2.671893e+03,1.327149e+02
2.672857e+03,1.330820e+02
2.673821e+03,1.370383e+02
2.674785e+03,1.397829e+02
2.675750e+03,1.358569e+02
2.676714e+03,1.309151e+02
2.677678e+03,1.305024e+02
2.678642e+03,1.331855e+02
2.679606e+03,1.390845e+02
2.680571e+03,1.396940e+02
2.681535e+03,1.341602e+02
2.682499e+03,1.325470e+02
2.683463e+03,1.344498e+02
2.684427e+03,1.348734e+02
2.685392e+03,1.348786e+02
2.686356e+03,1.372838e+02
2.687320e+03,1.384104e+02
2.688284e+03,1.340373e+02
2.689249e+03,1.314833e+02
2.690213e+03,1.321431e+02
2.691177e+03,1.325921e+02
2.692141e+03,1.318628e+02
2.693106e+03,1.333993e+02
2.694070e+03,1.356732e+02
2.695034e+03,1.342873e+02
2.695998e+03,1.316688e+02
2.696963e+03,1.326286e+02
2.697927e+03,1.333540e+02
2.698891e+03,1.318176e+02
2.699855e+03,1.296127e+02
2.700820e+03,1.271556e+02
2.701784e+03,1.277066e+02
2.702748e+03,1.309322e+02
2.703712e+03,1.317389e+02
2.704677e+03,1.310402e+02
2.705641e+03,1.335936e+02
2.706605e+03,1.362990e+02
2.707569e+03,1.343333e+02
2.708533e+03,1.324676e+02
2.709498e+03,1.327247e+02
2.710462e+03,1.345789e+02
2.711426e+03,1.392128e+02
2.712390e+03,1.399406e+02
2.713354e+03,1.375243e+02
2.714319e+03,1.345950e+02
2.715283e+03,1.324768e+02
2.716247e+03,1.350381e+02
2.717211e+03,1.383454e+02
2.718176e+03,1.397671e+02
2.719140e+03,1.397583e+02
2.720104e+03,1.386478e+02
2.721068e+03,1.350293e+02
2.722033e+03,1.289735e+02
2.722997e+03,1.239104e+02
2.723961e+03,1.207815e+02
2.724925e+03,1.253207e+02
2.725890e+03,1.313863e+02
2.726854e+03,1.297530e+02
2.727818e+03,1.260613e+02
2.728782e+03,1.229177e+02
2.729747e+03,1.225299e+02
2.730711e+03,1.280034e+02
2.731675e+03,1.312718e+02
2.732639e+03,1.324586e+02
2.733604e+03,1.321266e+02
2.734568e+03,1.311861e+02
2.735532e+03,1.318761e+02
2.736496e+03,1.320520e+02
2.737460e+03,1.298611e+02
2.738425e+03,1.290587e+02
2.739389e+03,1.328140e+02
2.740353e+03,1.325144e+02
2.741317e+03,1.273991e+02
2.742281e+03,1.273260e+02
2.743246e+03,1.307710e+02
2.744210e+03,1.314507e+02
2.745174e+03,1.301379e+02
2.746138e+03,1.255725e+02
2.747103e+03,1.258630e+02
2.748067e+03,1.342148e+02
2.749031e+03,1.391099e+02
2.749995e+03,1.329227e+02
2.750960e+03,1.283024e+02
2.751924e+03,1.258034e+02
2.752888e+03,1.273780e+02
2.753852e+03,1.308505e+02
2.754817e+03,1.325568e+02
2.755781e+03,1.331675e+02
2.756745e+03,1.330052e+02
2.757709e+03,1.316207e+02
2.758674e+03,1.287032e+02
2.759638e+03,1.308966e+02
2.760602e+03,1.386602e+02
2.761566e+03,1.411186e+02
2.762531e+03,1.400284e+02
2.763495e+03,1.375369e+02
2.764459e+03,1.346437e+02
2.765423e+03,1.319008e+02
2.766387e+03,1.295628e+02
2.767352e+03,1.277298e+02
2.768316e+03,1.284897e+02
2.769280e+03,1.319946e+02
2.770244e+03,1.316901e+02
2.771208e+03,1.290957e+02
2.772173e+03,1.271019e+02
2.773137e+03,1.265196e+02
2.774101e+03,1.296318e+02
2.775065e+03,1.310508e+02
2.776030e+03,1.275782e+02
2.776994e+03,1.287818e+02
2.777958e+03,1.337220e+02
2.778922e+03,1.324408e+02
2.779887e+03,1.273059e+02
2.780851e+03,1.257069e+02
2.781815e+03,1.263997e+02
2.782779e+03,1.283478e+02
2.783744e+03,1.303486e+02
2.784708e+03,1.316987e+02
2.785672e+03,1.325411e+02
2.786636e+03,1.322935e+02
2.787601e+03,1.262700e+02
2.788565e+03,1.191570e+02
2.789529e+03,1.257279e+02
2.790493e+03,1.358684e+02
2.791458e+03,1.451578e+02
2.792422e+03,1.447586e+02
2.793386e+03,1.343442e+02
2.794350e+03,1.261654e+02
2.795314e+03,1.233009e+02
2.796279e+03,1.284851e+02
2.797243e+03,1.359267e+02
2.798207e+03,1.365763e+02
2.799171e+03,1.347228e+02
2.800135e+03,1.344162e+02
2.801100e+03,1.353430e+02
2.802064e+03,1.377668e+02
2.803028e+03,1.376457e+02
2.803992e+03,1.350359e+02
2.804957e+03,1.301948e+02
2.805921e+03,1.258614e+02
2.806885e+03,1.268026e+02
2.807849e+03,1.303153e+02
2.808814e+03,1.348227e+02
2.809778e+03,1.375474e+02
2.810742e+03,1.362537e+02
2.811706e+03,1.409873e+02
2.812671e+03,1.473219e+02
2.813635e+03,1.390116e+02
2.814599e+03,1.256960e+02
2.815563e+03,1.274446e+02
2.816528e+03,1.306896e+02
2.817492e+03,1.296821e+02
2.818456e+03,1.282460e+02
2.819420e+03,1.269851e+02
2.820385e+03,1.251591e+02
2.821349e+03,1.242702e+02
2.822313e+03,1.328461e+02
2.823277e+03,1.396904e+02
2.824241e+03,1.358351e+02
2.825206e+03,1.310312e+02
2.826170e+03,1.305537e+02
2.827134e+03,1.362761e+02
2.828098e+03,1.459272e+02
2.829063e+03,1.419075e+02
2.830027e+03,1.315461e+02
2.830991e+03,1.302898e+02
2.831955e+03,1.330332e+02
2.832919e+03,1.384387e+02
2.833884e+03,1.413381e+02
2.834848e+03,1.412339e+02
2.835812e+03,1.419266e+02
2.836776e+03,1.435814e+02
2.837741e+03,1.432418e+02
2.838705e+03,1.394385e+02
2.839669e+03,1.281744e+02
2.840633e+03,1.245373e+02
2.841598e+03,1.375133e+02
2.842562e+03,1.446657e+02
2.843526e+03,1.403144e+02
2.844490e+03,1.386095e+02
2.845455e+03,1.382022e+02
2.846419e+03,1.363333e+02
2.847383e+03,1.353154e+02
2.848347e+03,1.380681e+02
2.849312e+03,1.438223e+02
2.850276e+03,1.519969e+02
2.851240e+03,1.498663e+02
2.852204e+03,1.401087e+02
2.853168e+03,1.390893e+02
2.854133e+03,1.427225e+02
2.855097e+03,1.480918e+02
2.856061e+03,1.494361e+02
2.857025e+03,1.453558e+02
2.857990e+03,1.414776e+02
2.858954e+03,1.394588e+02
2.859918e+03,1.433870e+02
2.860882e+03,1.507563e+02
2.861846e+03,1.584047e+02
2.862811e+03,1.618957e+02
2.863775e+03,1.546765e+02
2.864739e+03,1.514153e+02
2.865703e+03,1.561361e+02
2.866668e+03,1.571597e+02
2.867632e+03,1.566030e+02
2.868596e+03,1.636845e+02
2.869560e+03,1.713872e+02
2.870525e+03,1.710120e+02
2.871489e+03,1.688748e+02
2.872453e+03,1.666263e+02
2.873417e+03,1.606343e+02
2.874382e+03,1.523006e+02
2.875346e+03,1.550352e+02
2.876310e+03,1.621537e+02
2.877274e+03,1.638113e+02
2.878239e+03,1.629115e+02
2.879203e+03,1.607186e+02
2.880167e+03,1.615975e+02
2.881131e+03,1.672914e+02
2.882095e+03,1.670165e+02
2.883060e+03,1.657366e+02
2.884024e+03,1.722258e+02
2.884988e+03,1.778439e+02
2.885952e+03,1.734013e+02
2.886917e+03,1.718683e+02
2.887881e+03,1.767277e+02
2.888845e+03,1.812177e+02
2.889809e+03,1.845478e+02
2.890773e+03,1.855922e+02
2.891738e+03,1.844131e+02
2.892702e+03,1.781205e+02
2.893666e+03,1.770622e+02
2.894630e+03,1.826631e+02
2.895595e+03,1.849169e+02
2.896559e+03,1.833695e+02
2.897523e+03,1.771730e+02
2.898487e+03,1.733702e+02
2.899452e+03,1.842959e+02
2.900416e+03,1.893535e+02
2.901380e+03,1.844156e+02
2.902344e+03,1.751383e+02
2.903309e+03,1.641657e+02
2.904273e+03,1.619307e+02
2.905237e+03,1.647517e+02
2.906201e+03,1.695397e+02
2.907166e+03,1.692337e+02
2.908130e+03,1.607046e+02
2.909094e+03,1.615051e+02
2.910058e+03,1.730983e+02
2.911022e+03,1.739619e+02
2.911987e+03,1.698090e+02
2.912951e+03,1.672334e+02
2.913915e+03,1.645360e+02
2.914879e+03,1.595191e+02
2.915844e+03,1.589034e+02
2.916808e+03,1.623365e+02
2.917772e+03,1.608101e+02
2.918736e+03,1.588787e+02
2.919700e+03,1.654999e+02
2.920665e+03,1.697241e+02
2.921629e+03,1.600551e+02
2.922593e+03,1.559810e+02
2.923557e+03,1.581365e+02
2.924522e+03,1.658770e+02
2.925486e+03,1.725109e+02
2.926450e+03,1.582807e+02
2.927414e+03,1.459886e+02
2.928379e+03,1.463475e+02
2.929343e+03,1.511572e+02
2.930307e+03,1.573867e+02
2.931271e+03,1.559437e+02
2.932236e+03,1.527079e+02
2.933200e+03,1.623967e+02
2.934164e+03,1.664974e+02
2.935128e+03,1.573079e+02
2.936093e+03,1.456880e+02
2.937057e+03,1.359227e+02
2.938021e+03,1.444558e+02
2.938985e+03,1.584294e+02
2.939949e+03,1.563447e+02
2.940914e+03,1.499001e+02
2.941878e+03,1.439570e+02
2.942842e+03,1.424513e+02
2.943806e+03,1.452996e+02
2.944771e+03,1.505007e+02
2.945735e+03,1.553451e+02
2.946699e+03,1.569157e+02
2.947663e+03,1.550698e+02
2.948627e+03,1.501634e+02
2.949592e+03,1.478918e+02
2.950556e+03,1.493415e+02
2.951520e+03,1.544779e+02
2.952484e+03,1.553513e+02
2.953449e+03,1.412313e+02
2.954413e+03,1.423034e+02
2.955377e+03,1.711544e+02
2.956341e+03,1.850213e+02
2.957306e+03,1.804306e+02
2.958270e+03,1.789459e+02
2.959234e+03,1.723642e+02
2.960198e+03,1.542564e+02
2.961163e+03,1.402481e+02
2.962127e+03,1.369433e+02
2.963091e+03,1.448181e+02
2.964055e+03,1.571591e+02
2.965020e+03,1.533644e+02
2.965984e+03,1.443687e+02
2.966948e+03,1.381892e+02
2.967912e+03,1.330489e+02
2.968876e+03,1.273464e+02
2.969841e+03,1.329422e+02
2.970805e+03,1.421193e+02
2.971769e+03,1.398908e+02
2.972733e+03,1.339294e+02
2.973698e+03,1.294499e+02
2.974662e+03,1.289951e+02
2.975626e+03,1.335893e+02
2.976590e+03,1.340341e+02
2.977554e+03,1.323924e+02
2.978519e+03,1.318114e+02
2.979483e+03,1.297748e+02
2.980447e+03,1.240494e+02
2.981411e+03,1.204349e+02
2.982376e+03,1.205611e+02
2.983340e+03,1.260825e+02
2.984304e+03,1.323245e+02
2.985268e+03,1.348528e+02
2.986233e+03,1.352896e+02
2.987197e+03,1.341715e+02
2.988161e+03,1.311192e+02
2.989125e+03,1.287832e+02
2.990090e+03,1.372939e+02
2.991054e+03,1.422324e+02
2.992018e+03,1.314671e+02
2.992982e+03,1.222775e+02
2.993947e+03,1.213807e+02
2.994911e+03,1.225183e+02
2.995875e+03,1.259551e+02
2.996839e+03,1.328233e+02
2.997803e+03,1.353488e+02
2.998768e+03,1.284289e+02
2.999732e+03,1.238593e+02
3.000696e+03,1.236364e+02
3.001660e+03,1.183186e+02
3.002625e+03,1.144017e+02
3.003589e+03,1.180460e+02
3.004553e+03,1.241795e+02
3.005517e+03,1.307213e+02
3.006481e+03,1.324842e+02
3.007446e+03,1.301488e+02
3.008410e+03,1.298439e+02
3.009374e+03,1.284173e+02
3.010338e+03,1.239888e+02
3.011303e+03,1.223134e+02
3.012267e+03,1.249626e+02
3.013231e+03,1.288036e+02
3.014195e+03,1.297356e+02
3.015160e+03,1.196040e+02
3.016124e+03,1.097229e+02
3.017088e+03,1.040070e+02
3.018052e+03,1.067248e+02
3.019017e+03,1.168187e+02
3.019981e+03,1.304318e+02
3.020945e+03,1.326874e+02
3.021909e+03,1.066361e+02
3.022874e+03,9.938406e+01
3.023838e+03,1.163407e+02
3.024802e+03,1.197409e+02
3.025766e+03,1.133479e+02
3.026730e+03,1.133110e+02
3.027695e+03,1.161643e+02
3.028659e+03,1.202667e+02
3.029623e+03,1.249722e+02
3.030587e+03,1.288158e+02
3.031552e+03,1.196487e+02
3.032516e+03,1.113027e+02
3.033480e+03,1.291106e+02
3.034444e+03,1.274606e+02
3.035408e+03,1.027250e+02
3.036373e+03,1.037843e+02
3.037337e+03,1.214279e+02
3.038301e+03,1.222254e+02
3.039265e+03,1.184519e+02
3.040230e+03,1.134815e+02
3.041194e+03,1.148672e+02
3.042158e+03,1.201730e+02
3.043122e+03,1.202449e+02
3.044087e+03,1.175209e+02
3.045051e+03,1.142903e+02
3.046015e+03,1.125702e+02
3.046979e+03,1.134495e+02
3.047944e+03,1.206725e+02
3.048908e+03,1.278860e+02
3.049872e+03,1.252964e+02
3.050836e+03,1.202880e+02
3.051801e+03,1.165484e+02
3.052765e+03,1.233545e+02
3.053729e+03,1.365118e+02
3.054693e+03,1.263388e+02
3.055657e+03,1.202502e+02
3.056622e+03,1.377567e+02
3.057586e+03,1.445155e+02
3.058550e+03,1.304780e+02
3.059514e+03,1.214538e+02
3.060479e+03,1.190073e+02
3.061443e+03,1.285487e+02
3.062407e+03,1.289268e+02
3.063371e+03,1.162598e+02
3.064335e+03,1.142206e+02
3.065300e+03,1.209518e+02
3.066264e+03,1.161277e+02
3.067228e+03,1.104548e+02
3.068192e+03,1.099550e+02
3.069157e+03,1.162532e+02
3.070121e+03,1.257532e+02
3.071085e+03,1.254365e+02
3.072049e+03,1.199415e+02
3.073014e+03,1.127117e+02
3.073978e+03,1.086872e+02
3.074942e+03,1.093159e+02
3.075906e+03,1.154063e+02
3.076871e+03,1.190621e+02
3.077835e+03,1.064843e+02
3.078799e+03,9.993914e+01
3.079763e+03,1.159092e+02
3.080728e+03,1.301640e+02
3.081692e+03,1.368368e+02
3.082656e+03,1.227146e+02
3.083620e+03,1.107702e+02
3.084584e+03,1.135392e+02
3.085549e+03,1.184448e+02
3.086513e+03,1.220207e+02
3.087477e+03,1.220424e+02
3.088441e+03,1.196669e+02
3.089406e+03,1.132351e+02
3.090370e+03,1.203477e+02
3.091334e+03,1.388955e+02
3.092298e+03,1.301539e+02
3.093262e+03,1.113094e+02
3.094227e+03,1.214894e+02
3.095191e+03,1.358274e+02
3.096155e+03,1.467568e+02
3.097119e+03,1.370240e+02
3.098084e+03,1.196219e+02
3.099048e+03,1.206152e+02
3.100012e+03,1.257678e+02
3.100976e+03,1.255815e+02
3.101941e+03,1.169419e+02
3.102905e+03,1.034770e+02
3.103869e+03,1.049812e+02
3.104833e+03,1.087918e+02
3.105798e+03,1.058100e+02
3.106762e+03,1.145648e+02
3.107726e+03,1.364757e+02
3.108690e+03,1.367579e+02
3.109655e+03,1.294464e+02
3.110619e+03,1.349113e+02
3.111583e+03,1.293351e+02
3.112547e+03,1.127800e+02
3.113511e+03,1.100932e+02
3.114476e+03,1.167169e+02
3.115440e+03,1.264272e+02
3.116404e+03,1.279945e+02
3.117368e+03,1.139748e+02
3.118333e+03,1.195096e+02
3.119297e+03,1.342108e+02
3.120261e+03,1.403783e+02
3.121225e+03,1.370298e+02
3.122189e+03,1.235470e+02
3.123154e+03,1.247908e+02
3.124118e+03,1.382110e+02
3.125082e+03,1.465731e+02
3.126046e+03,1.492437e+02
3.127011e+03,1.467232e+02
3.127975e+03,1.400988e+02
3.128939e+03,1.316194e+02
3.129903e+03,1.268927e+02
3.130868e+03,1.249242e+02
3.131832e+03,1.272732e+02
3.132796e+03,1.277482e+02
3.133760e+03,1.250237e+02
3.134725e+03,1.154560e+02
3.135689e+03,1.072921e+02
3.136653e+03,1.077378e+02
3.137617e+03,1.142754e+02
3.138582e+03,1.263732e+02
3.139546e+03,1.269957e+02
3.140510e+03,1.265176e+02
3.141474e+03,1.396241e+02
3.142438e+03,1.385213e+02
3.143403e+03,1.220288e+02
3.144367e+03,1.104137e+02
3.145331e+03,1.047228e+02
3.146295e+03,1.059285e+02
3.147260e+03,1.162749e+02
3.148224e+03,1.356291e+02
3.149188e+03,1.320782e+02
3.150152e+03,1.209446e+02
3.151116e+03,1.230489e+02
3.152081e+03,1.291616e+02
3.153045e+03,1.347168e+02
3.154009e+03,1.404054e+02
3.154973e+03,1.432624e+02
3.155938e+03,1.343382e+02
3.156902e+03,1.278957e+02
3.157866e+03,1.277151e+02
3.158830e+03,1.314335e+02
3.159795e+03,1.368214e+02
3.160759e+03,1.408546e+02
3.161723e+03,1.416606e+02
3.162687e+03,1.381377e+02
3.163652e+03,1.200291e+02
3.164616e+03,1.051969e+02
3.165580e+03,1.279657e+02
3.166544e+03,1.501673e+02
3.167509e+03,1.556288e+02
3.168473e+03,1.512283e+02
3.169437e+03,1.424081e+02
3.170401e+03,1.376261e+02
3.171365e+03,1.389212e+02
3.172330e+03,1.477016e+02
3.173294e+03,1.466593e+02
3.174258e+03,1.367589e+02
3.175222e+03,1.205176e+02
3.176187e+03,1.106201e+02
3.177151e+03,1.158587e+02
3.178115e+03,1.223604e+02
3.179079e+03,1.297846e+02
3.180043e+03,1.410557e+02
3.181008e+03,1.530100e+02
3.181972e+03,1.641111e+02
3.182936e+03,1.551926e+02
3.183900e+03,1.358444e+02
3.184865e+03,1.348585e+02
3.185829e+03,1.400878e+02
3.186793e+03,1.535547e+02
3.187757e+03,1.407837e+02
3.188722e+03,1.206369e+02
3.189686e+03,1.376430e+02
3.190650e+03,1.504286e+02
3.191614e+03,1.431819e+02
3.192579e+03,1.450249e+02
3.193543e+03,1.534487e+02
3.194507e+03,1.523690e+02
3.195471e+03,1.429899e+02
3.196436e+03,1.240932e+02
3.197400e+03,1.202623e+02
3.198364e+03,1.285032e+02
3.199328e+03,1.419671e+02
3.200292e+03,1.525664e+02
3.201257e+03,0.000000e+00
3.202221e+03,0.000000e+00
3.203185e+03,0.000000e+00
3.204149e+03,0.000000e+00
3.205114e+03,0.000000e+00
3.206078e+03,0.000000e+00
3.207042e+03,0.000000e+00
3.208006e+03,0.000000e+00
3.208970e+03,0.000000e+00
3.209935e+03,0.000000e+00
3.210899e+03,0.000000e+00
3.211863e+03,0.000000e+00
3.212827e+03,0.000000e+00
3.213792e+03,0.000000e+00
3.214756e+03,0.000000e+00
3.215720e+03,0.000000e+00
3.216684e+03,0.000000e+00
3.217649e+03,0.000000e+00
3.218613e+03,0.000000e+00
3.219577e+03,0.000000e+00
3.220541e+03,0.000000e+00
3.221506e+03,0.000000e+00
3.222470e+03,0.000000e+00
3.223434e+03,0.000000e+00
3.224398e+03,0.000000e+00
3.225363e+03,0.000000e+00
3.226327e+03,0.000000e+00
3.227291e+03,0.000000e+00
3.228255e+03,0.000000e+00
3.229219e+03,0.000000e+00
3.230184e+03,0.000000e+00
3.231148e+03,0.000000e+00
3.232112e+03,0.000000e+00
3.233076e+03,0.000000e+00
3.234041e+03,0.000000e+00
3.235005e+03,0.000000e+00
3.235969e+03,0.000000e+00
3.236933e+03,0.000000e+00
3.237897e+03,0.000000e+00
3.238862e+03,0.000000e+00
3.239826e+03,0.000000e+00
3.240790e+03,0.000000e+00
3.241754e+03,0.000000e+00
3.242719e+03,0.000000e+00
3.243683e+03,0.000000e+00
3.244647e+03,0.000000e+00
3.245611e+03,0.000000e+00
3.246576e+03,0.000000e+00
3.247540e+03,0.000000e+00
3.248504e+03,0.000000e+00
3.249468e+03,0.000000e+00
3.250433e+03,0.000000e+00
3.251397e+03,0.000000e+00
3.252361e+03,0.000000e+00
3.253325e+03,0.000000e+00
3.254290e+03,0.000000e+00
3.255254e+03,0.000000e+00
3.256218e+03,0.000000e+00
3.257182e+03,0.000000e+00
3.258146e+03,0.000000e+00
3.259111e+03,0.000000e+00
3.260075e+03,0.000000e+00
3.261039e+03,0.000000e+00
3.262003e+03,0.000000e+00
3.262968e+03,0.000000e+00
3.263932e+03,0.000000e+00
3.264896e+03,0.000000e+00
3.265860e+03,0.000000e+00
3.266824e+03,0.000000e+00
3.267789e+03,0.000000e+00
3.268753e+03,0.000000e+00
3.269717e+03,0.000000e+00
3.270681e+03,0.000000e+00
3.271646e+03,0.000000e+00
3.272610e+03,0.000000e+00
3.273574e+03,0.000000e+00
3.274538e+03,0.000000e+00
3.275503e+03,0.000000e+00
3.276467e+03,0.000000e+00
3.277431e+03,0.000000e+00
3.278395e+03,0.000000e+00
3.279360e+03,0.000000e+00
3.280324e+03,0.000000e+00
3.281288e+03,0.000000e+00
3.282252e+03,0.000000e+00
3.283217e+03,0.000000e+00
3.284181e+03,0.000000e+00
3.285145e+03,0.000000e+00
3.286109e+03,0.000000e+00
3.287073e+03,0.000000e+00
3.288038e+03,0.000000e+00
3.289002e+03,0.000000e+00
3.289966e+03,0.000000e+00
3.290930e+03,0.000000e+00
3.291895e+03,0.000000e+00
3.292859e+03,0.000000e+00
3.293823e+03,0.000000e+00
3.294787e+03,0.000000e+00
3.295751e+03,0.000000e+00
3.296716e+03,0.000000e+00
3.297680e+03,0.000000e+00
3.298644e+03,0.000000e+00
3.299608e+03,0.000000e+00
3.300573e+03,0.000000e+00
3.301537e+03,0.000000e+00
3.302501e+03,0.000000e+00
3.303465e+03,0.000000e+00
3.304430e+03,0.000000e+00
3.305394e+03,0.000000e+00
3.306358e+03,0.000000e+00
3.307322e+03,0.000000e+00
3.308287e+03,0.000000e+00
3.309251e+03,0.000000e+00
3.310215e+03,0.000000e+00
3.311179e+03,0.000000e+00
3.312144e+03,0.000000e+00
3.313108e+03,0.000000e+00
3.314072e+03,0.000000e+00
3.315036e+03,0.000000e+00
3.316000e+03,0.000000e+00
3.316965e+03,0.000000e+00
3.317929e+03,0.000000e+00
3.318893e+03,0.000000e+00
3.319857e+03,0.000000e+00
3.320822e+03,0.000000e+00
3.321786e+03,0.000000e+00
3.322750e+03,0.000000e+00
3.323714e+03,0.000000e+00
3.324678e+03,0.000000e+00
3.325643e+03,0.000000e+00
3.326607e+03,0.000000e+00
3.327571e+03,0.000000e+00
3.328535e+03,0.000000e+00
3.329500e+03,0.000000e+00
3.330464e+03,0.000000e+00
3.331428e+03,0.000000e+00
3.332392e+03,0.000000e+00
3.333357e+03,0.000000e+00
3.334321e+03,0.000000e+00
3.335285e+03,0.000000e+00
3.336249e+03,0.000000e+00
3.337214e+03,0.000000e+00
3.338178e+03,0.000000e+00
3.339142e+03,0.000000e+00
3.340106e+03,0.000000e+00
3.341071e+03,0.000000e+00
3.342035e+03,0.000000e+00
3.342999e+03,0.000000e+00
3.343963e+03,0.000000e+00
3.344927e+03,0.000000e+00
3.345892e+03,0.000000e+00
3.346856e+03,0.000000e+00
3.347820e+03,0.000000e+00
3.348784e+03,0.000000e+00
3.349749e+03,0.000000e+00
3.350713e+03,0.000000e+00
3.351677e+03,0.000000e+00
3.352641e+03,0.000000e+00
3.353605e+03,0.000000e+00
3.354570e+03,0.000000e+00
3.355534e+03,0.000000e+00
3.356498e+03,0.000000e+00
3.357462e+03,0.000000e+00
3.358427e+03,0.000000e+00
3.359391e+03,0.000000e+00
3.360355e+03,0.000000e+00
3.361319e+03,0.000000e+00
3.362284e+03,0.000000e+00
3.363248e+03,0.000000e+00
3.364212e+03,0.000000e+00
3.365176e+03,0.000000e+00
3.366141e+03,0.000000e+00
3.367105e+03,0.000000e+00
3.368069e+03,0.000000e+00
3.369033e+03,0.000000e+00
3.369998e+03,0.000000e+00
3.370962e+03,0.000000e+00
3.371926e+03,0.000000e+00
3.372890e+03,0.000000e+00
3.373854e+03,0.000000e+00
3.374819e+03,0.000000e+00
3.375783e+03,0.000000e+00
3.376747e+03,0.000000e+00
3.377711e+03,0.000000e+00
3.378676e+03,0.000000e+00
3.379640e+03,0.000000e+00
3.380604e+03,0.000000e+00
3.381568e+03,0.000000e+00
3.382532e+03,0.000000e+00
3.383497e+03,0.000000e+00
3.384461e+03,0.000000e+00
3.385425e+03,0.000000e+00
3.386389e+03,0.000000e+00
3.387354e+03,0.000000e+00
3.388318e+03,0.000000e+00
3.389282e+03,0.000000e+00
3.390246e+03,0.000000e+00
3.391211e+03,0.000000e+00
3.392175e+03,0.000000e+00
3.393139e+03,0.000000e+00
3.394103e+03,0.000000e+00
3.395068e+03,0.000000e+00
3.396032e+03,0.000000e+00
3.396996e+03,0.000000e+00
3.397960e+03,0.000000e+00
3.398925e+03,0.000000e+00
3.399889e+03,0.000000e+00
3.400853e+03,0.000000e+00
3.401817e+03,0.000000e+00
3.402781e+03,0.000000e+00
3.403746e+03,0.000000e+00
3.404710e+03,0.000000e+00
3.405674e+03,0.000000e+00
3.406638e+03,0.000000e+00
3.407603e+03,0.000000e+00
3.408567e+03,0.000000e+00
3.409531e+03,0.000000e+00
3.410495e+03,0.000000e+00
3.411459e+03,0.000000e+00
3.412424e+03,0.000000e+00
3.413388e+03,0.000000e+00
3.414352e+03,0.000000e+00
3.415316e+03,0.000000e+00
3.416281e+03,0.000000e+00
3.417245e+03,0.000000e+00
3.418209e+03,0.000000e+00
3.419173e+03,0.000000e+00
3.420138e+03,0.000000e+00
3.421102e+03,0.000000e+00
3.422066e+03,0.000000e+00
3.423030e+03,0.000000e+00
3.423995e+03,0.000000e+00
3.424959e+03,0.000000e+00
3.425923e+03,0.000000e+00
3.426887e+03,0.000000e+00
3.427852e+03,0.000000e+00
3.428816e+03,0.000000e+00
3.429780e+03,0.000000e+00
3.430744e+03,0.000000e+00
3.431708e+03,0.000000e+00
3.432673e+03,0.000000e+00
3.433637e+03,0.000000e+00
3.434601e+03,0.000000e+00
3.435565e+03,0.000000e+00
3.436530e+03,0.000000e+00
3.437494e+03,0.000000e+00
3.438458e+03,0.000000e+00
3.439422e+03,0.000000e+00
3.440386e+03,0.000000e+00
3.441351e+03,0.000000e+00
3.442315e+03,0.000000e+00
3.443279e+03,0.000000e+00
3.444243e+03,0.000000e+00
3.445208e+03,0.000000e+00
3.446172e+03,0.000000e+00
3.447136e+03,0.000000e+00
3.448100e+03,0.000000e+00
3.449065e+03,0.000000e+00
3.450029e+03,0.000000e+00
3.450993e+03,0.000000e+00
3.451957e+03,0.000000e+00
3.452922e+03,0.000000e+00
3.453886e+03,0.000000e+00
3.454850e+03,0.000000e+00
3.455814e+03,0.000000e+00
3.456779e+03,0.000000e+00
3.457743e+03,0.000000e+00
3.458707e+03,0.000000e+00
3.459671e+03,0.000000e+00
3.460635e+03,0.000000e+00
3.461600e+03,0.000000e+00
3.462564e+03,0.000000e+00
3.463528e+03,0.000000e+00
3.464492e+03,0.000000e+00
3.465457e+03,0.000000e+00
3.466421e+03,0.000000e+00
3.467385e+03,0.000000e+00
3.468349e+03,0.000000e+00
3.469313e+03,0.000000e+00
3.470278e+03,0.000000e+00
3.471242e+03,0.000000e+00
3.472206e+03,0.000000e+00
3.473170e+03,0.000000e+00
3.474135e+03,0.000000e+00
3.475099e+03,0.000000e+00
3.476063e+03,0.000000e+00
3.477027e+03,0.000000e+00
3.477992e+03,0.000000e+00
3.478956e+03,0.000000e+00
3.479920e+03,0.000000e+00
3.480884e+03,0.000000e+00
3.481849e+03,0.000000e+00
3.482813e+03,0.000000e+00
3.483777e+03,0.000000e+00
3.484741e+03,0.000000e+00
3.485706e+03,0.000000e+00
3.486670e+03,0.000000e+00
3.487634e+03,0.000000e+00
3.488598e+03,0.000000e+00
3.489563e+03,0.000000e+00
3.490527e+03,0.000000e+00
3.491491e+03,0.000000e+00
3.492455e+03,0.000000e+00
3.493419e+03,0.000000e+00
3.494384e+03,0.000000e+00
3.495348e+03,0.000000e+00
3.496312e+03,0.000000e+00
3.497276e+03,0.000000e+00
3.498240e+03,0.000000e+00
3.499205e+03,0.000000e+00
3.500169e+03,0.000000e+00
