9.931763e+01,0.000000e+00
1.002819e+02,0.000000e+00
1.012461e+02,0.000000e+00
1.022103e+02,0.000000e+00
1.031746e+02,0.000000e+00
1.041388e+02,0.000000e+00
1.051030e+02,0.000000e+00
1.060673e+02,0.000000e+00
1.070315e+02,0.000000e+00
1.079957e+02,0.000000e+00
1.089600e+02,0.000000e+00
1.099242e+02,0.000000e+00
1.108884e+02,0.000000e+00
1.118527e+02,0.000000e+00
1.128169e+02,0.000000e+00
1.137811e+02,0.000000e+00
1.147454e+02,0.000000e+00
1.157096e+02,0.000000e+00
1.166738e+02,0.000000e+00
1.176381e+02,0.000000e+00
1.186023e+02,0.000000e+00
1.195665e+02,0.000000e+00
1.205308e+02,0.000000e+00
1.214950e+02,0.000000e+00
1.224592e+02,0.000000e+00
1.234235e+02,0.000000e+00
1.243877e+02,0.000000e+00
1.253519e+02,0.000000e+00
1.263162e+02,0.000000e+00
1.272804e+02,0.000000e+00
1.282446e+02,0.000000e+00
1.292089e+02,0.000000e+00
1.301731e+02,0.000000e+00
1.311373e+02,0.000000e+00
1.321016e+02,0.000000e+00
1.330658e+02,0.000000e+00
1.340300e+02,0.000000e+00
1.349943e+02,0.000000e+00
1.359585e+02,0.000000e+00
1.369227e+02,0.000000e+00
1.378870e+02,0.000000e+00
1.388512e+02,0.000000e+00
1.398154e+02,0.000000e+00
1.407797e+02,0.000000e+00
1.417439e+02,0.000000e+00
1.427081e+02,0.000000e+00
1.436724e+02,0.000000e+00
1.446366e+02,0.000000e+00
1.456008e+02,0.000000e+00
1.465651e+02,0.000000e+00
1.475293e+02,0.000000e+00
1.484935e+02,0.000000e+00
1.494578e+02,0.000000e+00
1.504220e+02,0.000000e+00
1.513862e+02,0.000000e+00
1.523505e+02,0.000000e+00
1.533147e+02,0.000000e+00
1.542789e+02,0.000000e+00
1.552432e+02,0.000000e+00
1.562074e+02,0.000000e+00
1.571716e+02,0.000000e+00
1.581359e+02,0.000000e+00
1.591001e+02,0.000000e+00
1.600643e+02,0.000000e+00
1.610286e+02,0.000000e+00
1.619928e+02,0.000000e+00
1.629570e+02,0.000000e+00
1.639213e+02,0.000000e+00
1.648855e+02,0.000000e+00
1.658497e+02,0.000000e+00
1.668140e+02,0.000000e+00
1.677782e+02,0.000000e+00
1.687424e+02,0.000000e+00
1.697067e+02,0.000000e+00
1.706709e+02,0.000000e+00
1.716351e+02,0.000000e+00
1.725994e+02,0.000000e+00
1.735636e+02,0.000000e+00
1.745278e+02,0.000000e+00
1.754921e+02,0.000000e+00
1.764563e+02,0.000000e+00
1.774205e+02,0.000000e+00
1.783848e+02,0.000000e+00
1.793490e+02,0.000000e+00
1.803132e+02,0.000000e+00
1.812775e+02,0.000000e+00
1.822417e+02,0.000000e+00
1.832059e+02,0.000000e+00
1.841702e+02,0.000000e+00
1.851344e+02,0.000000e+00
1.860986e+02,0.000000e+00
1.870629e+02,0.000000e+00
1.880271e+02,0.000000e+00
1.889913e+02,0.000000e+00
1.899556e+02,0.000000e+00
1.909198e+02,0.000000e+00
1.918840e+02,0.000000e+00
1.928483e+02,0.000000e+00
1.938125e+02,0.000000e+00
1.947767e+02,0.000000e+00
1.957410e+02,0.000000e+00
1.967052e+02,0.000000e+00
1.976694e+02,0.000000e+00
1.986337e+02,0.000000e+00
1.995979e+02,4.978842e+02
2.005621e+02,4.995246e+02
2.015264e+02,5.007303e+02
2.024906e+02,5.005071e+02
2.034548e+02,5.006845e+02
2.044191e+02,5.020003e+02
2.053833e+02,5.041176e+02
2.063475e+02,5.060054e+02
2.073118e+02,5.066540e+02
2.082760e+02,5.058211e+02
2.092402e+02,5.044161e+02
2.102045e+02,5.015763e+02
2.111687e+02,4.990125e+02
2.121329e+02,4.981583e+02
2.130972e+02,4.998792e+02
2.140614e+02,5.029194e+02
2.150256e+02,5.041503e+02
2.159899e+02,5.023542e+02
2.169541e+02,5.005297e+02
2.179183e+02,4.998045e+02
2.188826e+02,5.000390e+02
2.198468e+02,5.008487e+02
2.208110e+02,5.023977e+02
2.217753e+02,5.045758e+02
2.227395e+02,5.057426e+02
2.237037e+02,5.051251e+02
2.246680e+02,5.039462e+02
2.256322e+02,5.031749e+02
2.265964e+02,5.030373e+02
2.275607e+02,5.036143e+02
2.285249e+02,5.055809e+02
2.294892e+02,5.094057e+02
2.304534e+02,5.123491e+02
2.314176e+02,5.111787e+02
2.323819e+02,5.067714e+02
2.333461e+02,5.031401e+02
2.343103e+02,5.019145e+02
2.352746e+02,5.023213e+02
2.362388e+02,5.030531e+02
2.372030e+02,5.039990e+02
2.381673e+02,5.044428e+02
2.391315e+02,5.032780e+02
2.400957e+02,4.985537e+02
2.410600e+02,4.952068e+02
2.420242e+02,4.965221e+02
2.429884e+02,5.014981e+02
2.439527e+02,5.062007e+02
2.449169e+02,5.078076e+02
2.458811e+02,5.057318e+02
2.468454e+02,5.045013e+02
2.478096e+02,5.045914e+02
2.487738e+02,5.051549e+02
2.497381e+02,5.057109e+02
2.507023e+02,5.061547e+02
2.516665e+02,5.064982e+02
2.526308e+02,5.067124e+02
2.535950e+02,5.062991e+02
2.545592e+02,5.059204e+02
2.555235e+02,5.060435e+02
2.564877e+02,5.062509e+02
2.574519e+02,5.058911e+02
2.584161e+02,5.044122e+02
2.593804e+02,5.021547e+02
2.603446e+02,5.019848e+02
2.613088e+02,5.067452e+02
2.622731e+02,5.109867e+02
2.632373e+02,5.130253e+02
2.642015e+02,5.128098e+02
2.651658e+02,5.114561e+02
2.661300e+02,5.098937e+02
2.670942e+02,5.081489e+02
2.680585e+02,5.070090e+02
2.690227e+02,5.077030e+02
2.699869e+02,5.085103e+02
2.709512e+02,5.079284e+02
2.719154e+02,5.049067e+02
2.728796e+02,5.014765e+02
2.738439e+02,5.008600e+02
2.748081e+02,5.039568e+02
2.757723e+02,5.073201e+02
2.767366e+02,5.078564e+02
2.777008e+02,5.061164e+02
2.786650e+02,5.048388e+02
2.796293e+02,5.054735e+02
2.805935e+02,5.072345e+02
2.815577e+02,5.087072e+02
2.825220e+02,5.096051e+02
2.834862e+02,5.099234e+02
2.844504e+02,5.096537e+02
2.854147e+02,5.086933e+02
2.863789e+02,5.076745e+02
2.873431e+02,5.064157e+02
2.883074e+02,5.053603e+02
2.892716e+02,5.054739e+02
2.902358e+02,5.074958e+02
2.912001e+02,5.113772e+02
2.921643e+02,5.131367e+02
2.931285e+02,5.106316e+02
2.940928e+02,5.084029e+02
2.950570e+02,5.088780e+02
2.960212e+02,5.117872e+02
2.969855e+02,5.149420e+02
2.979497e+02,5.157360e+02
2.989139e+02,5.129225e+02
2.998782e+02,5.110872e+02
3.008424e+02,5.113880e+02
3.018066e+02,5.123964e+02
3.027709e+02,5.128851e+02
3.037351e+02,5.122479e+02
3.046993e+02,5.110032e+02
3.056636e+02,5.101176e+02
3.066278e+02,5.095920e+02
3.075920e+02,5.097202e+02
3.085563e+02,5.116609e+02
3.095205e+02,5.145607e+02
3.104847e+02,5.160663e+02
3.114490e+02,5.131282e+02
3.124132e+02,5.081158e+02
3.133774e+02,5.064680e+02
3.143417e+02,5.097245e+02
3.153059e+02,5.144980e+02
3.162701e+02,5.166298e+02
3.172344e+02,5.158771e+02
3.181986e+02,5.143972e+02
3.191628e+02,5.116695e+02
3.201271e+02,5.087088e+02
3.210913e+02,5.076027e+02
3.220555e+02,5.094961e+02
3.230198e+02,5.138307e+02
3.239840e+02,5.171439e+02
3.249482e+02,5.196624e+02
3.259125e+02,5.209956e+02
3.268767e+02,5.200694e+02
3.278409e+02,5.176315e+02
3.288052e+02,5.155967e+02
3.297694e+02,5.160480e+02
3.307336e+02,5.197546e+02
3.316979e+02,5.216674e+02
3.326621e+02,5.204941e+02
3.336263e+02,5.182158e+02
3.345906e+02,5.152921e+02
3.355548e+02,5.119015e+02
3.365190e+02,5.093720e+02
3.374833e+02,5.095424e+02
3.384475e+02,5.126871e+02
3.394117e+02,5.156496e+02
3.403760e+02,5.167856e+02
3.413402e+02,5.169672e+02
3.423044e+02,5.178475e+02
3.432687e+02,5.208494e+02
3.442329e+02,5.238940e+02
3.451971e+02,5.248858e+02
3.461614e+02,5.236322e+02
3.471256e+02,5.212670e+02
3.480898e+02,5.186635e+02
3.490541e+02,5.156183e+02
3.500183e+02,5.139674e+02
3.509825e+02,5.151492e+02
3.519468e+02,5.171533e+02
3.529110e+02,5.181895e+02
3.538752e+02,5.177009e+02
3.548395e+02,5.164142e+02
3.558037e+02,5.156912e+02
3.567680e+02,5.154890e+02
3.577322e+02,5.160751e+02
3.586964e+02,5.185119e+02
3.596607e+02,5.215487e+02
3.606249e+02,5.235971e+02
3.615891e+02,5.234177e+02
3.625534e+02,5.216692e+02
3.635176e+02,5.203530e+02
3.644818e+02,5.199338e+02
3.654461e+02,5.194411e+02
3.664103e+02,5.179205e+02
3.673745e+02,5.158880e+02
3.683388e+02,5.152588e+02
3.693030e+02,5.170580e+02
3.702672e+02,5.201771e+02
3.712315e+02,5.231584e+02
3.721957e+02,5.256844e+02
3.731599e+02,5.278929e+02
3.741242e+02,5.301961e+02
3.750884e+02,5.340664e+02
3.760526e+02,5.366961e+02
3.770169e+02,5.376525e+02
3.779811e+02,5.372059e+02
3.789453e+02,5.353895e+02
3.799096e+02,5.319791e+02
3.808738e+02,5.275548e+02
3.818380e+02,5.245758e+02
3.828023e+02,5.246423e+02
3.837665e+02,5.245525e+02
3.847307e+02,5.228696e+02
3.856950e+02,5.201933e+02
3.866592e+02,5.179622e+02
3.876234e+02,5.173939e+02
3.885877e+02,5.178690e+02
3.895519e+02,5.174563e+02
3.905161e+02,5.155923e+02
3.914804e+02,5.134565e+02
3.924446e+02,5.126264e+02
3.934088e+02,5.136200e+02
3.943731e+02,5.141014e+02
3.953373e+02,5.126791e+02
3.963015e+02,5.105153e+02
3.972658e+02,5.093844e+02
3.982300e+02,5.100438e+02
3.991942e+02,5.120050e+02
4.001585e+02,5.135054e+02
4.011227e+02,5.144719e+02
4.020869e+02,5.145818e+02
4.030512e+02,5.124607e+02
4.040154e+02,5.094435e+02
4.049796e+02,5.077739e+02
4.059439e+02,5.096362e+02
4.069081e+02,5.137088e+02
4.078723e+02,5.148533e+02
4.088366e+02,5.115509e+02
4.098008e+02,5.075518e+02
4.107650e+02,5.054870e+02
4.117293e+02,5.052389e+02
4.126935e+02,5.055132e+02
4.136577e+02,5.055990e+02
4.146220e+02,5.060025e+02
4.155862e+02,5.079240e+02
4.165504e+02,5.118062e+02
4.175147e+02,5.161476e+02
4.184789e+02,5.185300e+02
4.194431e+02,5.171461e+02
4.204074e+02,5.157712e+02
4.213716e+02,5.141783e+02
4.223358e+02,5.126996e+02
4.233001e+02,5.116989e+02
4.242643e+02,5.113921e+02
4.252285e+02,5.116777e+02
4.261928e+02,5.122761e+02
4.271570e+02,5.132681e+02
4.281212e+02,5.145212e+02
4.290855e+02,5.159588e+02
4.300497e+02,5.174973e+02
4.310139e+02,5.190822e+02
4.319782e+02,5.206730e+02
4.329424e+02,5.224415e+02
4.339066e+02,5.250397e+02
4.348709e+02,5.284680e+02
4.358351e+02,5.309637e+02
4.367993e+02,5.307618e+02
4.377636e+02,5.267462e+02
4.387278e+02,5.227572e+02
4.396920e+02,5.182667e+02
4.406563e+02,5.142652e+02
4.416205e+02,5.112809e+02
4.425847e+02,5.094450e+02
4.435490e+02,5.087173e+02
4.445132e+02,5.094568e+02
4.454774e+02,5.121107e+02
4.464417e+02,5.144763e+02
4.474059e+02,5.160639e+02
4.483701e+02,5.168683e+02
4.493344e+02,5.169440e+02
4.502986e+02,5.153889e+02
4.512628e+02,5.141635e+02
4.522271e+02,5.153004e+02
4.531913e+02,5.182471e+02
4.541555e+02,5.204747e+02
4.551198e+02,5.203469e+02
4.560840e+02,5.178801e+02
4.570482e+02,5.156347e+02
4.580125e+02,5.138564e+02
4.589767e+02,5.124963e+02
4.599409e+02,5.112295e+02
4.609052e+02,5.100229e+02
4.618694e+02,5.092188e+02
4.628336e+02,5.097991e+02
4.637979e+02,5.115277e+02
4.647621e+02,5.115659e+02
4.657263e+02,5.089282e+02
4.666906e+02,5.058725e+02
4.676548e+02,5.044493e+02
4.686190e+02,5.048175e+02
4.695833e+02,5.056287e+02
4.705475e+02,5.072467e+02
4.715117e+02,5.087945e+02
4.724760e+02,5.086996e+02
4.734402e+02,5.063450e+02
4.744044e+02,5.030260e+02
4.753687e+02,5.018559e+02
4.763329e+02,5.051460e+02
4.772971e+02,5.070513e+02
4.782614e+02,5.056876e+02
4.792256e+02,5.029097e+02
4.801898e+02,5.009728e+02
4.811541e+02,5.008380e+02
4.821183e+02,5.018345e+02
4.830826e+02,5.035357e+02
4.840468e+02,5.059862e+02
4.850110e+02,5.075124e+02
4.859753e+02,5.066615e+02
4.869395e+02,5.031913e+02
4.879037e+02,5.019563e+02
4.888680e+02,5.056824e+02
4.898322e+02,5.094043e+02
4.907964e+02,5.099408e+02
4.917607e+02,5.075948e+02
4.927249e+02,5.050461e+02
4.936891e+02,5.051155e+02
4.946534e+02,5.079999e+02
4.956176e+02,5.099167e+02
4.965818e+02,5.106139e+02
4.975461e+02,5.103721e+02
4.985103e+02,5.092899e+02
4.994745e+02,5.069997e+02
5.004388e+02,5.048495e+02
5.014030e+02,5.036457e+02
5.023672e+02,5.030868e+02
5.033315e+02,5.025619e+02
5.042957e+02,5.018445e+02
5.052599e+02,5.010415e+02
5.062242e+02,5.004682e+02
5.071884e+02,4.997263e+02
5.081526e+02,5.001196e+02
5.091169e+02,5.028978e+02
5.100811e+02,5.065415e+02
5.110453e+02,5.091830e+02
5.120095e+02,5.098984e+02
5.129738e+02,5.097035e+02
5.139380e+02,5.095106e+02
5.149022e+02,5.093480e+02
5.158665e+02,5.099837e+02
5.168307e+02,5.121908e+02
5.177949e+02,5.155975e+02
5.187592e+02,5.161018e+02
5.197234e+02,5.121257e+02
5.206876e+02,5.079304e+02
5.216519e+02,5.049909e+02
5.226161e+02,5.033156e+02
5.235803e+02,5.023634e+02
5.245446e+02,5.018346e+02
5.255088e+02,5.016979e+02
5.264730e+02,5.018604e+02
5.274373e+02,5.025602e+02
5.284015e+02,5.031349e+02
5.293657e+02,5.026943e+02
5.303300e+02,5.011100e+02
5.312942e+02,4.999456e+02
5.322584e+02,5.003162e+02
5.332227e+02,5.011490e+02
5.341869e+02,5.009486e+02
5.351511e+02,4.993992e+02
5.361154e+02,4.978338e+02
5.370796e+02,4.986853e+02
5.380438e+02,5.031376e+02
5.390081e+02,5.054401e+02
5.399723e+02,5.032208e+02
5.409365e+02,4.995460e+02
5.419008e+02,4.970857e+02
5.428650e+02,4.961556e+02
5.438292e+02,4.959576e+02
5.447935e+02,4.964953e+02
5.457577e+02,4.974823e+02
5.467219e+02,4.983526e+02
5.476862e+02,4.989001e+02
5.486504e+02,4.991524e+02
5.496146e+02,4.992264e+02
5.505789e+02,4.990620e+02
5.515431e+02,4.987461e+02
5.525073e+02,4.980089e+02
5.534716e+02,4.975258e+02
5.544358e+02,4.980430e+02
5.554000e+02,5.007099e+02
5.563643e+02,5.035797e+02
5.573285e+02,5.044722e+02
5.582927e+02,5.035582e+02
5.592570e+02,5.024450e+02
5.602212e+02,5.021768e+02
5.611854e+02,5.027050e+02
5.621497e+02,5.031481e+02
5.631139e+02,5.038744e+02
5.640781e+02,5.038856e+02
5.650424e+02,5.024159e+02
5.660066e+02,4.999996e+02
5.669708e+02,4.983051e+02
5.679351e+02,4.989938e+02
5.688993e+02,5.009212e+02
5.698635e+02,5.019853e+02
5.708278e+02,5.020555e+02
5.717920e+02,5.018306e+02
5.727562e+02,5.017083e+02
5.737205e+02,5.013588e+02
5.746847e+02,5.018588e+02
5.756489e+02,5.050521e+02
5.766132e+02,5.074413e+02
5.775774e+02,5.063415e+02
5.785416e+02,5.016572e+02
5.795059e+02,4.972701e+02
5.804701e+02,4.969581e+02
5.814343e+02,4.994509e+02
5.823986e+02,5.006677e+02
5.833628e+02,4.998045e+02
5.843270e+02,4.978578e+02
5.852913e+02,4.960493e+02
5.862555e+02,4.935436e+02
5.872197e+02,4.925520e+02
5.881840e+02,4.938473e+02
5.891482e+02,4.960419e+02
5.901124e+02,4.982916e+02
5.910767e+02,5.004694e+02
5.920409e+02,5.019579e+02
5.930051e+02,5.018733e+02
5.939694e+02,5.003691e+02
5.949336e+02,4.983520e+02
5.958978e+02,4.958192e+02
5.968621e+02,4.933425e+02
5.978263e+02,4.922700e+02
5.987905e+02,4.947202e+02
5.997548e+02,4.962530e+02
6.007190e+02,4.952332e+02
6.016832e+02,4.936767e+02
6.026475e+02,4.940442e+02
6.036117e+02,4.980038e+02
6.045759e+02,5.027086e+02
6.055402e+02,5.048305e+02
6.065044e+02,5.044888e+02
6.074686e+02,5.032488e+02
6.084329e+02,5.017709e+02
6.093971e+02,5.001227e+02
6.103613e+02,4.983894e+02
6.113256e+02,4.959214e+02
6.122899e+02,4.941468e+02
6.132541e+02,4.939892e+02
6.142183e+02,4.945892e+02
6.151826e+02,4.945132e+02
6.161468e+02,4.924023e+02
6.171110e+02,4.899741e+02
6.180753e+02,4.893385e+02
6.190395e+02,4.903184e+02
6.200037e+02,4.917522e+02
6.209680e+02,4.931075e+02
6.219322e+02,4.944116e+02
6.228964e+02,4.947964e+02
6.238607e+02,4.930028e+02
6.248249e+02,4.915237e+02
6.257891e+02,4.913998e+02
6.267534e+02,4.920400e+02
6.277176e+02,4.919742e+02
6.286818e+02,4.898467e+02
6.296461e+02,4.874032e+02
6.306103e+02,4.866663e+02
6.315745e+02,4.875958e+02
6.325388e+02,4.889424e+02
6.335030e+02,4.895977e+02
6.344672e+02,4.894410e+02
6.354315e+02,4.901353e+02
6.363957e+02,4.925414e+02
6.373599e+02,4.945663e+02
6.383242e+02,4.954795e+02
6.392884e+02,4.953653e+02
6.402526e+02,4.944055e+02
6.412169e+02,4.920389e+02
6.421811e+02,4.891937e+02
6.431453e+02,4.865272e+02
6.441096e+02,4.841612e+02
6.450738e+02,4.822468e+02
6.460380e+02,4.808513e+02
6.470023e+02,4.800631e+02
6.479665e+02,4.807515e+02
6.489307e+02,4.835879e+02
6.498950e+02,4.866982e+02
6.508592e+02,4.886339e+02
6.518234e+02,4.893497e+02
6.527877e+02,4.893758e+02
6.537519e+02,4.883605e+02
6.547161e+02,4.870418e+02
6.556804e+02,4.859707e+02
6.566446e+02,4.852241e+02
6.576088e+02,4.845305e+02
6.585731e+02,4.834935e+02
6.595373e+02,4.822219e+02
6.605015e+02,4.814743e+02
6.614658e+02,4.814862e+02
6.624300e+02,4.815920e+02
6.633942e+02,4.810708e+02
6.643585e+02,4.793871e+02
6.653227e+02,4.783983e+02
6.662869e+02,4.773396e+02
6.672512e+02,4.773632e+02
6.682154e+02,4.799972e+02
6.691796e+02,4.852464e+02
6.701439e+02,4.898141e+02
6.711081e+02,4.911127e+02
6.720723e+02,4.901151e+02
6.730366e+02,4.887751e+02
6.740008e+02,4.874596e+02
6.749650e+02,4.859142e+02
6.759293e+02,4.835099e+02
6.768935e+02,4.793242e+02
6.778577e+02,4.772745e+02
6.788220e+02,4.797243e+02
6.797862e+02,4.828234e+02
6.807504e+02,4.833761e+02
6.817147e+02,4.804224e+02
6.826789e+02,4.787051e+02
6.836431e+02,4.812239e+02
6.846074e+02,4.850717e+02
6.855716e+02,4.872513e+02
6.865358e+02,4.872786e+02
6.875001e+02,4.863362e+02
6.884643e+02,4.857697e+02
6.894285e+02,4.855889e+02
6.903928e+02,4.845506e+02
6.913570e+02,4.819672e+02
6.923212e+02,4.792194e+02
6.932855e+02,4.779248e+02
6.942497e+02,4.792542e+02
6.952139e+02,4.801375e+02
6.961782e+02,4.804121e+02
6.971424e+02,4.801992e+02
6.981066e+02,4.790612e+02
6.990709e+02,4.767623e+02
7.000351e+02,4.749535e+02
7.009993e+02,4.757845e+02
7.019636e+02,4.782797e+02
7.029278e+02,4.799408e+02
7.038920e+02,4.802639e+02
7.048563e+02,4.800250e+02
7.058205e+02,4.803441e+02
7.067847e+02,4.816762e+02
7.077490e+02,4.826935e+02
7.087132e+02,4.836602e+02
7.096774e+02,4.844659e+02
7.106417e+02,4.846705e+02
7.116059e+02,4.841433e+02
7.125701e+02,4.830970e+02
7.135344e+02,4.810378e+02
7.144986e+02,4.789772e+02
7.154628e+02,4.776314e+02
7.164271e+02,4.770978e+02
7.173913e+02,4.773071e+02
7.183555e+02,4.790739e+02
7.193198e+02,4.817950e+02
7.202840e+02,4.820474e+02
7.212482e+02,4.790043e+02
7.222125e+02,4.754152e+02
7.231767e+02,4.742226e+02
7.241409e+02,4.766294e+02
7.251052e+02,4.776667e+02
7.260694e+02,4.757510e+02
7.270336e+02,4.736773e+02
7.279979e+02,4.732294e+02
7.289621e+02,4.745919e+02
7.299263e+02,4.758595e+02
7.308906e+02,4.758317e+02
7.318548e+02,4.754274e+02
7.328190e+02,4.757491e+02
7.337833e+02,4.768940e+02
7.347475e+02,4.782482e+02
7.357117e+02,4.795748e+02
7.366760e+02,4.808880e+02
7.376402e+02,4.813082e+02
7.386044e+02,4.807172e+02
7.395687e+02,4.794987e+02
7.405329e+02,4.776710e+02
7.414971e+02,4.747919e+02
7.424614e+02,4.730581e+02
7.434256e+02,4.739466e+02
7.443898e+02,4.750640e+02
7.453541e+02,4.747150e+02
7.463183e+02,4.728100e+02
7.472825e+02,4.714100e+02
7.482468e+02,4.721551e+02
7.492110e+02,4.735426e+02
7.501752e+02,4.742159e+02
7.511395e+02,4.742973e+02
7.521037e+02,4.742339e+02
7.530679e+02,4.741181e+02
7.540322e+02,4.738627e+02
7.549964e+02,4.737703e+02
7.559606e+02,4.740027e+02
7.569249e+02,4.742416e+02
7.578891e+02,4.743523e+02
7.588533e+02,4.743975e+02
7.598176e+02,4.741517e+02
7.607818e+02,4.718672e+02
7.617460e+02,4.702741e+02
7.627103e+02,4.714621e+02
7.636745e+02,4.746390e+02
7.646387e+02,4.766273e+02
7.656030e+02,4.752760e+02
7.665672e+02,4.729122e+02
7.675314e+02,4.708585e+02
7.684957e+02,4.689773e+02
7.694599e+02,4.674341e+02
7.704241e+02,4.668119e+02
7.713884e+02,4.668426e+02
7.723526e+02,4.658072e+02
7.733168e+02,4.635177e+02
7.742811e+02,4.630849e+02
7.752453e+02,4.664514e+02
7.762095e+02,4.724488e+02
7.771738e+02,4.752944e+02
7.781380e+02,4.711339e+02
7.791022e+02,4.682367e+02
7.800665e+02,4.703040e+02
7.810307e+02,4.744938e+02
7.819949e+02,4.760912e+02
7.829592e+02,4.715811e+02
7.839234e+02,4.670385e+02
7.848876e+02,4.647450e+02
7.858519e+02,4.643926e+02
7.868161e+02,4.659726e+02
7.877803e+02,4.700035e+02
7.887446e+02,4.743164e+02
7.897088e+02,4.760165e+02
7.906730e+02,4.754543e+02
7.916373e+02,4.736274e+02
7.926015e+02,4.702252e+02
7.935657e+02,4.662290e+02
7.945300e+02,4.643896e+02
7.954942e+02,4.659362e+02
7.964584e+02,4.670050e+02
7.974227e+02,4.673244e+02
7.983869e+02,4.675062e+02
7.993511e+02,4.677660e+02
8.003154e+02,4.679457e+02
8.012796e+02,4.676199e+02
8.022438e+02,4.662081e+02
8.032081e+02,4.649447e+02
8.041723e+02,4.651903e+02
8.051365e+02,4.672434e+02
8.061008e+02,4.689628e+02
8.070650e+02,4.680010e+02
8.080292e+02,4.657040e+02
8.089935e+02,4.647676e+02
8.099577e+02,4.657000e+02
8.109219e+02,4.670466e+02
8.118862e+02,4.673116e+02
8.128504e+02,4.665055e+02
8.138146e+02,4.647734e+02
8.147789e+02,4.615286e+02
8.157431e+02,4.587827e+02
8.167073e+02,4.585201e+02
8.176716e+02,4.616136e+02
8.186358e+02,4.636176e+02
8.196000e+02,4.636892e+02
8.205643e+02,4.633705e+02
8.215285e+02,4.627829e+02
8.224927e+02,4.620166e+02
8.234570e+02,4.617966e+02
8.244212e+02,4.627465e+02
8.253854e+02,4.639448e+02
8.263497e+02,4.651001e+02
8.273139e+02,4.658536e+02
8.282781e+02,4.657049e+02
8.292424e+02,4.639124e+02
8.302066e+02,4.617451e+02
8.311708e+02,4.604914e+02
8.321351e+02,4.602104e+02
8.330993e+02,4.615187e+02
8.340635e+02,4.651051e+02
8.350278e+02,4.697272e+02
8.359920e+02,4.715399e+02
8.369562e+02,4.700794e+02
8.379205e+02,4.683161e+02
8.388847e+02,4.670662e+02
8.398489e+02,4.662284e+02
8.408132e+02,4.654553e+02
8.417774e+02,4.645716e+02
8.427416e+02,4.638477e+02
8.437059e+02,4.634573e+02
8.446701e+02,4.631763e+02
8.456343e+02,4.627495e+02
8.465986e+02,4.617845e+02
8.475628e+02,4.612718e+02
8.485270e+02,4.628577e+02
8.494913e+02,4.643555e+02
8.504555e+02,4.628531e+02
8.514197e+02,4.576295e+02
8.523840e+02,4.529933e+02
8.533482e+02,4.531060e+02
8.543124e+02,4.559547e+02
8.552767e+02,4.580162e+02
8.562409e+02,4.587315e+02
8.572051e+02,4.588150e+02
8.581694e+02,4.591143e+02
8.591336e+02,4.596401e+02
8.600978e+02,4.595896e+02
8.610621e+02,4.588512e+02
8.620263e+02,4.583241e+02
8.629905e+02,4.585956e+02
8.639548e+02,4.595519e+02
8.649190e+02,4.601825e+02
8.658832e+02,4.602769e+02
8.668475e+02,4.607713e+02
8.678117e+02,4.626318e+02
8.687759e+02,4.653954e+02
8.697402e+02,4.668253e+02
8.707044e+02,4.651157e+02
8.716686e+02,4.633422e+02
8.726329e+02,4.627641e+02
8.735971e+02,4.631900e+02
8.745613e+02,4.640284e+02
8.755256e+02,4.661216e+02
8.764898e+02,4.676613e+02
8.774540e+02,4.661512e+02
8.784183e+02,4.633161e+02
8.793825e+02,4.626190e+02
8.803467e+02,4.657743e+02
8.813110e+02,4.694879e+02
8.822752e+02,4.688318e+02
8.832394e+02,4.652933e+02
8.842037e+02,4.642062e+02
8.851679e+02,4.668868e+02
8.861321e+02,4.706134e+02
8.870964e+02,4.715203e+02
8.880606e+02,4.693897e+02
8.890248e+02,4.683427e+02
8.899891e+02,4.695240e+02
8.909533e+02,4.705611e+02
8.919175e+02,4.688228e+02
8.928818e+02,4.632937e+02
8.938460e+02,4.595623e+02
8.948102e+02,4.583532e+02
8.957745e+02,4.579337e+02
8.967387e+02,4.573296e+02
8.977029e+02,4.564715e+02
8.986672e+02,4.565042e+02
8.996314e+02,4.591198e+02
9.005956e+02,4.615367e+02
9.015599e+02,4.623648e+02
9.025241e+02,4.619110e+02
9.034883e+02,4.613124e+02
9.044526e+02,4.609765e+02
9.054168e+02,4.603951e+02
9.063810e+02,4.596108e+02
9.073453e+02,4.588163e+02
9.083095e+02,4.579274e+02
9.092737e+02,4.567277e+02
9.102380e+02,4.552506e+02
9.112022e+02,4.526828e+02
9.121664e+02,4.499305e+02
9.131307e+02,4.500344e+02
9.140949e+02,4.542049e+02
9.150591e+02,4.592553e+02
9.160234e+02,4.602172e+02
9.169876e+02,4.573226e+02
9.179518e+02,4.543280e+02
9.189161e+02,4.516041e+02
9.198803e+02,4.498693e+02
9.208445e+02,4.504955e+02
9.218088e+02,4.541095e+02
9.227730e+02,4.560171e+02
9.237372e+02,4.556616e+02
9.247015e+02,4.543839e+02
9.256657e+02,4.525515e+02
9.266299e+02,4.500255e+02
9.275942e+02,4.500151e+02
9.285584e+02,4.554065e+02
9.295226e+02,4.596527e+02
9.304869e+02,4.599254e+02
9.314511e+02,4.573144e+02
9.324153e+02,4.550844e+02
9.333796e+02,4.529836e+02
9.343438e+02,4.518161e+02
9.353080e+02,4.524700e+02
9.362723e+02,4.537430e+02
9.372365e+02,4.541543e+02
9.382007e+02,4.532939e+02
9.391650e+02,4.522290e+02
9.401292e+02,4.512860e+02
9.410934e+02,4.504052e+02
9.420577e+02,4.493958e+02
9.430219e+02,4.481621e+02
9.439861e+02,4.468856e+02
9.449504e+02,4.453638e+02
9.459146e+02,4.443978e+02
9.468788e+02,4.450762e+02
9.478431e+02,4.471500e+02
9.488073e+02,4.492863e+02
9.497715e+02,4.507856e+02
9.507358e+02,4.517665e+02
9.517000e+02,4.523178e+02
9.526642e+02,4.526020e+02
9.536285e+02,4.527384e+02
9.545927e+02,4.527050e+02
9.555569e+02,4.524974e+02
9.565212e+02,4.521510e+02
9.574854e+02,4.518206e+02
9.584496e+02,4.514373e+02
9.594139e+02,4.507167e+02
9.603781e+02,4.497603e+02
9.613423e+02,4.491614e+02
9.623066e+02,4.489829e+02
9.632708e+02,4.490236e+02
9.642350e+02,4.494612e+02
9.651993e+02,4.500598e+02
9.661635e+02,4.502798e+02
9.671277e+02,4.496320e+02
9.680920e+02,4.494315e+02
9.690562e+02,4.500721e+02
9.700204e+02,4.506865e+02
9.709847e+02,4.508312e+02
9.719489e+02,4.506489e+02
9.729131e+02,4.499964e+02
9.738774e+02,4.479269e+02
9.748416e+02,4.465564e+02
9.758058e+02,4.470241e+02
9.767701e+02,4.488287e+02
9.777343e+02,4.499670e+02
9.786985e+02,4.496393e+02
9.796628e+02,4.490533e+02
9.806270e+02,4.484377e+02
9.815912e+02,4.479536e+02
9.825555e+02,4.478877e+02
9.835197e+02,4.490130e+02
9.844839e+02,4.499710e+02
9.854482e+02,4.498912e+02
9.864124e+02,4.495852e+02
9.873766e+02,4.500385e+02
9.883409e+02,4.516844e+02
9.893051e+02,4.529081e+02
9.902693e+02,4.525359e+02
9.912336e+02,4.513769e+02
9.921978e+02,4.497199e+02
9.931620e+02,4.476729e+02
9.941263e+02,4.462886e+02
9.950905e+02,4.472050e+02
9.960547e+02,4.487539e+02
9.970190e+02,4.485698e+02
9.979832e+02,4.469554e+02
9.989474e+02,4.455787e+02
9.999117e+02,4.459950e+02
1.000876e+03,4.468510e+02
1.001840e+03,4.456970e+02
1.002804e+03,4.431823e+02
1.003769e+03,4.409438e+02
1.004733e+03,4.393409e+02
1.005697e+03,4.386927e+02
1.006661e+03,4.401552e+02
1.007626e+03,4.432387e+02
1.008590e+03,4.457065e+02
1.009554e+03,4.470685e+02
1.010518e+03,4.473544e+02
1.011482e+03,4.463120e+02
1.012447e+03,4.441494e+02
1.013411e+03,4.427669e+02
1.014375e+03,4.425132e+02
1.015339e+03,4.422222e+02
1.016304e+03,4.406102e+02
1.017268e+03,4.381304e+02
1.018232e+03,4.379216e+02
1.019196e+03,4.401660e+02
1.020161e+03,4.429429e+02
1.021125e+03,4.459104e+02
1.022089e+03,4.486534e+02
1.023053e+03,4.493538e+02
1.024018e+03,4.472391e+02
1.024982e+03,4.462257e+02
1.025946e+03,4.474116e+02
1.026910e+03,4.490089e+02
1.027875e+03,4.488207e+02
1.028839e+03,4.464244e+02
1.029803e+03,4.447337e+02
1.030767e+03,4.439090e+02
1.031731e+03,4.436237e+02
1.032696e+03,4.436030e+02
1.033660e+03,4.438054e+02
1.034624e+03,4.441665e+02
1.035588e+03,4.447215e+02
1.036552e+03,4.457316e+02
1.037517e+03,4.475770e+02
1.038481e+03,4.497188e+02
1.039445e+03,4.505975e+02
1.040409e+03,4.498658e+02
1.041374e+03,4.484153e+02
1.042338e+03,4.453883e+02
1.043302e+03,4.425127e+02
1.044266e+03,4.420539e+02
1.045231e+03,4.462370e+02
1.046195e+03,4.486696e+02
1.047159e+03,4.483537e+02
1.048123e+03,4.473335e+02
1.049088e+03,4.468636e+02
1.050052e+03,4.471360e+02
1.051016e+03,4.475910e+02
1.051980e+03,4.479687e+02
1.052945e+03,4.486929e+02
1.053909e+03,4.502806e+02
1.054873e+03,4.520908e+02
1.055837e+03,4.525367e+02
1.056802e+03,4.498884e+02
1.057766e+03,4.482243e+02
1.058730e+03,4.496625e+02
1.059694e+03,4.519986e+02
1.060658e+03,4.522856e+02
1.061623e+03,4.486171e+02
1.062587e+03,4.462865e+02
1.063551e+03,4.462462e+02
1.064515e+03,4.474973e+02
1.065479e+03,4.499079e+02
1.066444e+03,4.536950e+02
1.067408e+03,4.557902e+02
1.068372e+03,4.543627e+02
1.069336e+03,4.525351e+02
1.070301e+03,4.509491e+02
1.071265e+03,4.497798e+02
1.072229e+03,4.497230e+02
1.073193e+03,4.520884e+02
1.074158e+03,4.541261e+02
1.075122e+03,4.552418e+02
1.076086e+03,4.556015e+02
1.077050e+03,4.554028e+02
1.078015e+03,4.544747e+02
1.078979e+03,4.542101e+02
1.079943e+03,4.554176e+02
1.080907e+03,4.568237e+02
1.081872e+03,4.570621e+02
1.082836e+03,4.559137e+02
1.083800e+03,4.558477e+02
1.084764e+03,4.575090e+02
1.085729e+03,4.604730e+02
1.086693e+03,4.656938e+02
1.087657e+03,4.719359e+02
1.088621e+03,4.762545e+02
1.089585e+03,4.764667e+02
1.090550e+03,4.764241e+02
1.091514e+03,4.776427e+02
1.092478e+03,4.792010e+02
1.093442e+03,4.800289e+02
1.094406e+03,4.799981e+02
1.095371e+03,4.793539e+02
1.096335e+03,4.772412e+02
1.097299e+03,4.750952e+02
1.098263e+03,4.742397e+02
1.099228e+03,4.745399e+02
1.100192e+03,4.736161e+02
1.101156e+03,4.690385e+02
1.102120e+03,4.652430e+02
1.103085e+03,4.645284e+02
1.104049e+03,4.657132e+02
1.105013e+03,4.663278e+02
1.105977e+03,4.658643e+02
1.106942e+03,4.650870e+02
1.107906e+03,4.637442e+02
1.108870e+03,4.624244e+02
1.109834e+03,4.614484e+02
1.110799e+03,4.605636e+02
1.111763e+03,4.611909e+02
1.112727e+03,4.654457e+02
1.113691e+03,4.695294e+02
1.114656e+03,4.709620e+02
1.115620e+03,4.701730e+02
1.116584e+03,4.706209e+02
1.117548e+03,4.749017e+02
1.118512e+03,4.772048e+02
1.119477e+03,4.747343e+02
1.120441e+03,4.700810e+02
1.121405e+03,4.672493e+02
1.122369e+03,4.685019e+02
1.123334e+03,4.682308e+02
1.124298e+03,4.653546e+02
1.125262e+03,4.620597e+02
1.126226e+03,4.599526e+02
1.127191e+03,4.592436e+02
1.128155e+03,4.580587e+02
1.129119e+03,4.554588e+02
1.130083e+03,4.534658e+02
1.131047e+03,4.531446e+02
1.132012e+03,4.538209e+02
1.132976e+03,4.536180e+02
1.133940e+03,4.522129e+02
1.134904e+03,4.505124e+02
1.135869e+03,4.486808e+02
1.136833e+03,4.468356e+02
1.137797e+03,4.448793e+02
1.138761e+03,4.424101e+02
1.139726e+03,4.420921e+02
1.140690e+03,4.446691e+02
1.141654e+03,4.476917e+02
1.142618e+03,4.497563e+02
1.143583e+03,4.509943e+02
1.144547e+03,4.522696e+02
1.145511e+03,4.536938e+02
1.146475e+03,4.545680e+02
1.147439e+03,4.544234e+02
1.148404e+03,4.540699e+02
1.149368e+03,4.552407e+02
1.150332e+03,4.582199e+02
1.151296e+03,4.588244e+02
1.152261e+03,4.559966e+02
1.153225e+03,4.525645e+02
1.154189e+03,4.518307e+02
1.155153e+03,4.534064e+02
1.156118e+03,4.514951e+02
1.157082e+03,4.461260e+02
1.158046e+03,4.420284e+02
1.159010e+03,4.413122e+02
1.159974e+03,4.427199e+02
1.160939e+03,4.440913e+02
1.161903e+03,4.452645e+02
1.162867e+03,4.456790e+02
1.163831e+03,4.451697e+02
1.164796e+03,4.443281e+02
1.165760e+03,4.440273e+02
1.166724e+03,4.440363e+02
1.167688e+03,4.433578e+02
1.168653e+03,4.420966e+02
1.169617e+03,4.411625e+02
1.170581e+03,4.413250e+02
1.171545e+03,4.420046e+02
1.172510e+03,4.419552e+02
1.173474e+03,4.417944e+02
1.174438e+03,4.433666e+02
1.175402e+03,4.474727e+02
1.176366e+03,4.506215e+02
1.177331e+03,4.486022e+02
1.178295e+03,4.445758e+02
1.179259e+03,4.420069e+02
1.180223e+03,4.411739e+02
1.181188e+03,4.414391e+02
1.182152e+03,4.437892e+02
1.183116e+03,4.458703e+02
1.184080e+03,4.464696e+02
1.185045e+03,4.456920e+02
1.186009e+03,4.432884e+02
1.186973e+03,4.375006e+02
1.187937e+03,4.341657e+02
1.188901e+03,4.381357e+02
1.189866e+03,4.435555e+02
1.190830e+03,4.451867e+02
1.191794e+03,4.423266e+02
1.192758e+03,4.400188e+02
1.193723e+03,4.401478e+02
1.194687e+03,4.404195e+02
1.195651e+03,4.397736e+02
1.196615e+03,4.385129e+02
1.197580e+03,4.374627e+02
1.198544e+03,4.358852e+02
1.199508e+03,4.350773e+02
1.200472e+03,4.357250e+02
1.201437e+03,4.369879e+02
1.202401e+03,4.382659e+02
1.203365e+03,4.396843e+02
1.204329e+03,4.411706e+02
1.205293e+03,4.429305e+02
1.206258e+03,4.440475e+02
1.207222e+03,4.438948e+02
1.208186e+03,4.428669e+02
1.209150e+03,4.421902e+02
1.210115e+03,4.417190e+02
1.211079e+03,4.418938e+02
1.212043e+03,4.429806e+02
1.213007e+03,4.440757e+02
1.213972e+03,4.444711e+02
1.214936e+03,4.442399e+02
1.215900e+03,4.427128e+02
1.216864e+03,4.399970e+02
1.217828e+03,4.375381e+02
1.218793e+03,4.360612e+02
1.219757e+03,4.355309e+02
1.220721e+03,4.358239e+02
1.221685e+03,4.370426e+02
1.222650e+03,4.398109e+02
1.223614e+03,4.442762e+02
1.224578e+03,4.476844e+02
1.225542e+03,4.473701e+02
1.226507e+03,4.452012e+02
1.227471e+03,4.425939e+02
1.228435e+03,4.398717e+02
1.229399e+03,4.379340e+02
1.230364e+03,4.379821e+02
1.231328e+03,4.383233e+02
1.232292e+03,4.375547e+02
1.233256e+03,4.370970e+02
1.234220e+03,4.390479e+02
1.235185e+03,4.454131e+02
1.236149e+03,4.492492e+02
1.237113e+03,4.464938e+02
1.238077e+03,4.433217e+02
1.239042e+03,4.435871e+02
1.240006e+03,4.465650e+02
1.240970e+03,4.472943e+02
1.241934e+03,4.443339e+02
1.242899e+03,4.415402e+02
1.243863e+03,4.393148e+02
1.244827e+03,4.381962e+02
1.245791e+03,4.394063e+02
1.246755e+03,4.438071e+02
1.247720e+03,4.450837e+02
1.248684e+03,4.425613e+02
1.249648e+03,4.399514e+02
1.250612e+03,4.396166e+02
1.251577e+03,4.408077e+02
1.252541e+03,4.412139e+02
1.253505e+03,4.409197e+02
1.254469e+03,4.410802e+02
1.255434e+03,4.421723e+02
1.256398e+03,4.433604e+02
1.257362e+03,4.434081e+02
1.258326e+03,4.427245e+02
1.259291e+03,4.419867e+02
1.260255e+03,4.412916e+02
1.261219e+03,4.409761e+02
1.262183e+03,4.422553e+02
1.263147e+03,4.435006e+02
1.264112e+03,4.427131e+02
1.265076e+03,4.412822e+02
1.266040e+03,4.414185e+02
1.267004e+03,4.443514e+02
1.267969e+03,4.464117e+02
1.268933e+03,4.454078e+02
1.269897e+03,4.445254e+02
1.270861e+03,4.460440e+02
1.271826e+03,4.492549e+02
1.272790e+03,4.501872e+02
1.273754e+03,4.471051e+02
1.274718e+03,4.450765e+02
1.275682e+03,4.456207e+02
1.276647e+03,4.472656e+02
1.277611e+03,4.481573e+02
1.278575e+03,4.482339e+02
1.279539e+03,4.470983e+02
1.280504e+03,4.446643e+02
1.281468e+03,4.435393e+02
1.282432e+03,4.456200e+02
1.283396e+03,4.493011e+02
1.284361e+03,4.503984e+02
1.285325e+03,4.494230e+02
1.286289e+03,4.491058e+02
1.287253e+03,4.501461e+02
1.288218e+03,4.508979e+02
1.289182e+03,4.494851e+02
1.290146e+03,4.472685e+02
1.291110e+03,4.454930e+02
1.292074e+03,4.444820e+02
1.293039e+03,4.446520e+02
1.294003e+03,4.477823e+02
1.294967e+03,4.500672e+02
1.295931e+03,4.496087e+02
1.296896e+03,4.479200e+02
1.297860e+03,4.463447e+02
1.298824e+03,4.447996e+02
1.299788e+03,4.440512e+02
1.300753e+03,4.444849e+02
1.301717e+03,4.450565e+02
1.302681e+03,4.453459e+02
1.303645e+03,4.455232e+02
1.304609e+03,4.461554e+02
1.305574e+03,4.471618e+02
1.306538e+03,4.480493e+02
1.307502e+03,4.490558e+02
1.308466e+03,4.496024e+02
1.309431e+03,4.484504e+02
1.310395e+03,4.463177e+02
1.311359e+03,4.458879e+02
1.312323e+03,4.466248e+02
1.313288e+03,4.466885e+02
1.314252e+03,4.450995e+02
1.315216e+03,4.439400e+02
1.316180e+03,4.458266e+02
1.317145e+03,4.487703e+02
1.318109e+03,4.503636e+02
1.319073e+03,4.501060e+02
1.320037e+03,4.488913e+02
1.321001e+03,4.456511e+02
1.321966e+03,4.431454e+02
1.322930e+03,4.424196e+02
1.323894e+03,4.435376e+02
1.324858e+03,4.464529e+02
1.325823e+03,4.538556e+02
1.326787e+03,4.562432e+02
1.327751e+03,4.511529e+02
1.328715e+03,4.460769e+02
1.329680e+03,4.462128e+02
1.330644e+03,4.502993e+02
1.331608e+03,4.529605e+02
1.332572e+03,4.541988e+02
1.333536e+03,4.542184e+02
1.334501e+03,4.528479e+02
1.335465e+03,4.516024e+02
1.336429e+03,4.527294e+02
1.337393e+03,4.550499e+02
1.338358e+03,4.571078e+02
1.339322e+03,4.586438e+02
1.340286e+03,4.592785e+02
1.341250e+03,4.589247e+02
1.342215e+03,4.574884e+02
1.343179e+03,4.538401e+02
1.344143e+03,4.501794e+02
1.345107e+03,4.487700e+02
1.346072e+03,4.502205e+02
1.347036e+03,4.513014e+02
1.348000e+03,4.520607e+02
1.348964e+03,4.519849e+02
1.349928e+03,4.506618e+02
1.350893e+03,4.489747e+02
1.351857e+03,4.488897e+02
1.352821e+03,4.502296e+02
1.353785e+03,4.508849e+02
1.354750e+03,4.505301e+02
1.355714e+03,4.498028e+02
1.356678e+03,4.489919e+02
1.357642e+03,4.487194e+02
1.358607e+03,4.503735e+02
1.359571e+03,4.529132e+02
1.360535e+03,4.539152e+02
1.361499e+03,4.518836e+02
1.362464e+03,4.507521e+02
1.363428e+03,4.536662e+02
1.364392e+03,4.571155e+02
1.365356e+03,4.580697e+02
1.366320e+03,4.565465e+02
1.367285e+03,4.560769e+02
1.368249e+03,4.575175e+02
1.369213e+03,4.585938e+02
1.370177e+03,4.591288e+02
1.371142e+03,4.586737e+02
1.372106e+03,4.558223e+02
1.373070e+03,4.512065e+02
1.374034e+03,4.499267e+02
1.374999e+03,4.518550e+02
1.375963e+03,4.543781e+02
1.376927e+03,4.563384e+02
1.377891e+03,4.579240e+02
1.378855e+03,4.595911e+02
1.379820e+03,4.607435e+02
1.380784e+03,4.607469e+02
1.381748e+03,4.596242e+02
1.382712e+03,4.573639e+02
1.383677e+03,4.511129e+02
1.384641e+03,4.467000e+02
1.385605e+03,4.475667e+02
1.386569e+03,4.503257e+02
1.387534e+03,4.494969e+02
1.388498e+03,4.440443e+02
1.389462e+03,4.411611e+02
1.390426e+03,4.411531e+02
1.391391e+03,4.422610e+02
1.392355e+03,4.440210e+02
1.393319e+03,4.457120e+02
1.394283e+03,4.453514e+02
1.395247e+03,4.436193e+02
1.396212e+03,4.422873e+02
1.397176e+03,4.417973e+02
1.398140e+03,4.411203e+02
1.399104e+03,4.388601e+02
1.400069e+03,4.367982e+02
1.401033e+03,4.360269e+02
1.401997e+03,4.363968e+02
1.402961e+03,4.374456e+02
1.403926e+03,4.401597e+02
1.404890e+03,4.409461e+02
1.405854e+03,4.390967e+02
1.406818e+03,4.369398e+02
1.407782e+03,4.361557e+02
1.408747e+03,4.365447e+02
1.409711e+03,4.369520e+02
1.410675e+03,4.372363e+02
1.411639e+03,4.380444e+02
1.412604e+03,4.397448e+02
1.413568e+03,4.409883e+02
1.414532e+03,4.403625e+02
1.415496e+03,4.393100e+02
1.416461e+03,4.388946e+02
1.417425e+03,4.388915e+02
1.418389e+03,4.386452e+02
1.419353e+03,4.377487e+02
1.420318e+03,4.371318e+02
1.421282e+03,4.371619e+02
1.422246e+03,4.373989e+02
1.423210e+03,4.375659e+02
1.424174e+03,4.376274e+02
1.425139e+03,4.366567e+02
1.426103e+03,4.346830e+02
1.427067e+03,4.328116e+02
1.428031e+03,4.313076e+02
1.428996e+03,4.309261e+02
1.429960e+03,4.336650e+02
1.430924e+03,4.367923e+02
1.431888e+03,4.371068e+02
1.432853e+03,4.350542e+02
1.433817e+03,4.337355e+02
1.434781e+03,4.348376e+02
1.435745e+03,4.354754e+02
1.436709e+03,4.345499e+02
1.437674e+03,4.337822e+02
1.438638e+03,4.353202e+02
1.439602e+03,4.388836e+02
1.440566e+03,4.400741e+02
1.441531e+03,4.390219e+02
1.442495e+03,4.374129e+02
1.443459e+03,4.356450e+02
1.444423e+03,4.341571e+02
1.445388e+03,4.335148e+02
1.446352e+03,4.331357e+02
1.447316e+03,4.320080e+02
1.448280e+03,4.306682e+02
1.449245e+03,4.313365e+02
1.450209e+03,4.377037e+02
1.451173e+03,4.412397e+02
1.452137e+03,4.395674e+02
1.453101e+03,4.365800e+02
1.454066e+03,4.362887e+02
1.455030e+03,4.382147e+02
1.455994e+03,4.380277e+02
1.456958e+03,4.360697e+02
1.457923e+03,4.347093e+02
1.458887e+03,4.347486e+02
1.459851e+03,4.354085e+02
1.460815e+03,4.371166e+02
1.461780e+03,4.381391e+02
1.462744e+03,4.358767e+02
1.463708e+03,4.312164e+02
1.464672e+03,4.303395e+02
1.465636e+03,4.377484e+02
1.466601e+03,4.404834e+02
1.467565e+03,4.352622e+02
1.468529e+03,4.291790e+02
1.469493e+03,4.293818e+02
1.470458e+03,4.340619e+02
1.471422e+03,4.368006e+02
1.472386e+03,4.379145e+02
1.473350e+03,4.381190e+02
1.474315e+03,4.373997e+02
1.475279e+03,4.364672e+02
1.476243e+03,4.355554e+02
1.477207e+03,4.346454e+02
1.478172e+03,4.340312e+02
1.479136e+03,4.336220e+02
1.480100e+03,4.327702e+02
1.481064e+03,4.313398e+02
1.482028e+03,4.303087e+02
1.482993e+03,4.299629e+02
1.483957e+03,4.294697e+02
1.484921e+03,4.273340e+02
1.485885e+03,4.247866e+02
1.486850e+03,4.248929e+02
1.487814e+03,4.261942e+02
1.488778e+03,4.253701e+02
1.489742e+03,4.205031e+02
1.490707e+03,4.172864e+02
1.491671e+03,4.189713e+02
1.492635e+03,4.216923e+02
1.493599e+03,4.239898e+02
1.494563e+03,4.255981e+02
1.495528e+03,4.256727e+02
1.496492e+03,4.242331e+02
1.497456e+03,4.240727e+02
1.498420e+03,4.256186e+02
1.499385e+03,4.273530e+02
1.500349e+03,4.287117e+02
1.501313e+03,4.291935e+02
1.502277e+03,4.275338e+02
1.503242e+03,4.249262e+02
1.504206e+03,4.229826e+02
1.505170e+03,4.217528e+02
1.506134e+03,4.222367e+02
1.507099e+03,4.257898e+02
1.508063e+03,4.270602e+02
1.509027e+03,4.231231e+02
1.509991e+03,4.180180e+02
1.510955e+03,4.200938e+02
1.511920e+03,4.259489e+02
1.512884e+03,4.271822e+02
1.513848e+03,4.239589e+02
1.514812e+03,4.216898e+02
1.515777e+03,4.234543e+02
1.516741e+03,4.253987e+02
1.517705e+03,4.264658e+02
1.518669e+03,4.268825e+02
1.519634e+03,4.268672e+02
1.520598e+03,4.263571e+02
1.521562e+03,4.253272e+02
1.522526e+03,4.237426e+02
1.523490e+03,4.230550e+02
1.524455e+03,4.239712e+02
1.525419e+03,4.248629e+02
1.526383e+03,4.240573e+02
1.527347e+03,4.227460e+02
1.528312e+03,4.218984e+02
1.529276e+03,4.217766e+02
1.530240e+03,4.225829e+02
1.531204e+03,4.252950e+02
1.532169e+03,4.251038e+02
1.533133e+03,4.208828e+02
1.534097e+03,4.173569e+02
1.535061e+03,4.189777e+02
1.536026e+03,4.226923e+02
1.536990e+03,4.225238e+02
1.537954e+03,4.203977e+02
1.538918e+03,4.202242e+02
1.539882e+03,4.232500e+02
1.540847e+03,4.248625e+02
1.541811e+03,4.216985e+02
1.542775e+03,4.196125e+02
1.543739e+03,4.209765e+02
1.544704e+03,4.236198e+02
1.545668e+03,4.237253e+02
1.546632e+03,4.218545e+02
1.547596e+03,4.197202e+02
1.548561e+03,4.177690e+02
1.549525e+03,4.177828e+02
1.550489e+03,4.232943e+02
1.551453e+03,4.270468e+02
1.552417e+03,4.232412e+02
1.553382e+03,4.183230e+02
1.554346e+03,4.180643e+02
1.555310e+03,4.218270e+02
1.556274e+03,4.230972e+02
1.557239e+03,4.219051e+02
1.558203e+03,4.218360e+02
1.559167e+03,4.238531e+02
1.560131e+03,4.254471e+02
1.561096e+03,4.231325e+02
1.562060e+03,4.207591e+02
1.563024e+03,4.222169e+02
1.563988e+03,4.258539e+02
1.564953e+03,4.275489e+02
1.565917e+03,4.265268e+02
1.566881e+03,4.254233e+02
1.567845e+03,4.240614e+02
1.568809e+03,4.235719e+02
1.569774e+03,4.252269e+02
1.570738e+03,4.268843e+02
1.571702e+03,4.240752e+02
1.572666e+03,4.203599e+02
1.573631e+03,4.214256e+02
1.574595e+03,4.278765e+02
1.575559e+03,4.309082e+02
1.576523e+03,4.286450e+02
1.577488e+03,4.259620e+02
1.578452e+03,4.231586e+02
1.579416e+03,4.210793e+02
1.580380e+03,4.210772e+02
1.581344e+03,4.223824e+02
1.582309e+03,4.241641e+02
1.583273e+03,4.259817e+02
1.584237e+03,4.267421e+02
1.585201e+03,4.258755e+02
1.586166e+03,4.244605e+02
1.587130e+03,4.212987e+02
1.588094e+03,4.201457e+02
1.589058e+03,4.235249e+02
1.590023e+03,4.286310e+02
1.590987e+03,4.296706e+02
1.591951e+03,4.280568e+02
1.592915e+03,4.262978e+02
1.593880e+03,4.246381e+02
1.594844e+03,4.237082e+02
1.595808e+03,4.246644e+02
1.596772e+03,4.252928e+02
1.597736e+03,4.253034e+02
1.598701e+03,4.249562e+02
1.599665e+03,4.242217e+02
1.600629e+03,4.232752e+02
1.601593e+03,4.225818e+02
1.602558e+03,4.223265e+02
1.603522e+03,4.236028e+02
1.604486e+03,4.272656e+02
1.605450e+03,4.288509e+02
1.606415e+03,4.247302e+02
1.607379e+03,4.205107e+02
1.608343e+03,4.178701e+02
1.609307e+03,4.166535e+02
1.610271e+03,4.176611e+02
1.611236e+03,4.199147e+02
1.612200e+03,4.180624e+02
1.613164e+03,4.129072e+02
1.614128e+03,4.099490e+02
1.615093e+03,4.144315e+02
1.616057e+03,4.180084e+02
1.617021e+03,4.167646e+02
1.617985e+03,4.147134e+02
1.618950e+03,4.143355e+02
1.619914e+03,4.152031e+02
1.620878e+03,4.159483e+02
1.621842e+03,4.164219e+02
1.622807e+03,4.155369e+02
1.623771e+03,4.131419e+02
1.624735e+03,4.111391e+02
1.625699e+03,4.107177e+02
1.626663e+03,4.102306e+02
1.627628e+03,4.084037e+02
1.628592e+03,4.067040e+02
1.629556e+03,4.082743e+02
1.630520e+03,4.122775e+02
1.631485e+03,4.110489e+02
1.632449e+03,4.060387e+02
1.633413e+03,4.040774e+02
1.634377e+03,4.094471e+02
1.635342e+03,4.140795e+02
1.636306e+03,4.148007e+02
1.637270e+03,4.140787e+02
1.638234e+03,4.127730e+02
1.639198e+03,4.109615e+02
1.640163e+03,4.077237e+02
1.641127e+03,4.041249e+02
1.642091e+03,4.039391e+02
1.643055e+03,4.070439e+02
1.644020e+03,4.098157e+02
1.644984e+03,4.102604e+02
1.645948e+03,4.103484e+02
1.646912e+03,4.107356e+02
1.647877e+03,4.108289e+02
1.648841e+03,4.099887e+02
1.649805e+03,4.086141e+02
1.650769e+03,4.079310e+02
1.651734e+03,4.076274e+02
1.652698e+03,4.067520e+02
1.653662e+03,4.046371e+02
1.654626e+03,4.043053e+02
1.655590e+03,4.083164e+02
1.656555e+03,4.110748e+02
1.657519e+03,4.110598e+02
1.658483e+03,4.098169e+02
1.659447e+03,4.091269e+02
1.660412e+03,4.084406e+02
1.661376e+03,4.071085e+02
1.662340e+03,4.052737e+02
1.663304e+03,4.031494e+02
1.664269e+03,3.989441e+02
1.665233e+03,3.976826e+02
1.666197e+03,4.002638e+02
1.667161e+03,4.024599e+02
1.668125e+03,4.019117e+02
1.669090e+03,4.002052e+02
1.670054e+03,3.993809e+02
1.671018e+03,3.991981e+02
1.671982e+03,4.000806e+02
1.672947e+03,4.017805e+02
1.673911e+03,4.005704e+02
1.674875e+03,3.946926e+02
1.675839e+03,3.922799e+02
1.676804e+03,3.949072e+02
1.677768e+03,3.988521e+02
1.678732e+03,4.018454e+02
1.679696e+03,4.033561e+02
1.680661e+03,4.010507e+02
1.681625e+03,3.978005e+02
1.682589e+03,3.988824e+02
1.683553e+03,4.048045e+02
1.684517e+03,4.045571e+02
1.685482e+03,3.983498e+02
1.686446e+03,3.950038e+02
1.687410e+03,3.978099e+02
1.688374e+03,4.001979e+02
1.689339e+03,3.943022e+02
1.690303e+03,3.896216e+02
1.691267e+03,3.935361e+02
1.692231e+03,4.010911e+02
1.693196e+03,4.044356e+02
1.694160e+03,4.036623e+02
1.695124e+03,3.987897e+02
1.696088e+03,3.910501e+02
1.697052e+03,3.860771e+02
1.698017e+03,3.876706e+02
1.698981e+03,3.896459e+02
1.699945e+03,3.904995e+02
1.700909e+03,3.909087e+02
1.701874e+03,3.914354e+02
1.702838e+03,3.922794e+02
1.703802e+03,3.932789e+02
1.704766e+03,3.943837e+02
1.705731e+03,3.968391e+02
1.706695e+03,4.004904e+02
1.707659e+03,4.000378e+02
1.708623e+03,3.916276e+02
1.709588e+03,3.882198e+02
1.710552e+03,3.920240e+02
1.711516e+03,3.963964e+02
1.712480e+03,3.949220e+02
1.713444e+03,3.917307e+02
1.714409e+03,3.916735e+02
1.715373e+03,3.930758e+02
1.716337e+03,3.928561e+02
1.717301e+03,3.909701e+02
1.718266e+03,3.931303e+02
1.719230e+03,3.990541e+02
1.720194e+03,4.003705e+02
1.721158e+03,3.940673e+02
1.722123e+03,3.889702e+02
1.723087e+03,3.947616e+02
1.724051e+03,3.994676e+02
1.725015e+03,3.958985e+02
1.725979e+03,3.893714e+02
1.726944e+03,3.870371e+02
1.727908e+03,3.881308e+02
1.728872e+03,3.903957e+02
1.729836e+03,3.929812e+02
1.730801e+03,3.937995e+02
1.731765e+03,3.910775e+02
1.732729e+03,3.890062e+02
1.733693e+03,3.880357e+02
1.734658e+03,3.875728e+02
1.735622e+03,3.871717e+02
1.736586e+03,3.874720e+02
1.737550e+03,3.905764e+02
1.738515e+03,3.941362e+02
1.739479e+03,3.954298e+02
1.740443e+03,3.943271e+02
1.741407e+03,3.923377e+02
1.742371e+03,3.893791e+02
1.743336e+03,3.857586e+02
1.744300e+03,3.816114e+02
1.745264e+03,3.801876e+02
1.746228e+03,3.872947e+02
1.747193e+03,3.934935e+02
1.748157e+03,3.942018e+02
1.749121e+03,3.920268e+02
1.750085e+03,3.869132e+02
1.751050e+03,3.805429e+02
1.752014e+03,3.807896e+02
1.752978e+03,3.852470e+02
1.753942e+03,3.876615e+02
1.754906e+03,3.868470e+02
1.755871e+03,3.866552e+02
1.756835e+03,3.885964e+02
1.757799e+03,3.879923e+02
1.758763e+03,3.839652e+02
1.759728e+03,3.804785e+02
1.760692e+03,3.820167e+02
1.761656e+03,3.850182e+02
1.762620e+03,3.860336e+02
1.763585e+03,3.859369e+02
1.764549e+03,3.862701e+02
1.765513e+03,3.868785e+02
1.766477e+03,3.865832e+02
1.767442e+03,3.856969e+02
1.768406e+03,3.856733e+02
1.769370e+03,3.871814e+02
1.770334e+03,3.881666e+02
1.771298e+03,3.873048e+02
1.772263e+03,3.856879e+02
1.773227e+03,3.834019e+02
1.774191e+03,3.813304e+02
1.775155e+03,3.805313e+02
1.776120e+03,3.806593e+02
1.777084e+03,3.824363e+02
1.778048e+03,3.846043e+02
1.779012e+03,3.833641e+02
1.779977e+03,3.771803e+02
1.780941e+03,3.751930e+02
1.781905e+03,3.771480e+02
1.782869e+03,3.793404e+02
1.783833e+03,3.803617e+02
1.784798e+03,3.808570e+02
1.785762e+03,3.806700e+02
1.786726e+03,3.806920e+02
1.787690e+03,3.816995e+02
1.788655e+03,3.828061e+02
1.789619e+03,3.818552e+02
1.790583e+03,3.797845e+02
1.791547e+03,3.781333e+02
1.792512e+03,3.771086e+02
1.793476e+03,3.769145e+02
1.794440e+03,3.776219e+02
1.795404e+03,3.782017e+02
1.796369e+03,3.784829e+02
1.797333e+03,3.786616e+02
1.798297e+03,3.787620e+02
1.799261e+03,3.791251e+02
1.800225e+03,3.800305e+02
1.801190e+03,3.810446e+02
1.802154e+03,3.824854e+02
1.803118e+03,3.834317e+02
1.804082e+03,3.809701e+02
1.805047e+03,3.765944e+02
1.806011e+03,3.725547e+02
1.806975e+03,3.694069e+02
1.807939e+03,3.705423e+02
1.808904e+03,3.786571e+02
1.809868e+03,3.808249e+02
1.810832e+03,3.755909e+02
1.811796e+03,3.701708e+02
1.812760e+03,3.681508e+02
1.813725e+03,3.697094e+02
1.814689e+03,3.802904e+02
1.815653e+03,3.890504e+02
1.816617e+03,3.865745e+02
1.817582e+03,3.769643e+02
1.818546e+03,3.727511e+02
1.819510e+03,3.720186e+02
1.820474e+03,3.704188e+02
1.821439e+03,3.673857e+02
1.822403e+03,3.672378e+02
1.823367e+03,3.711328e+02
1.824331e+03,3.732151e+02
1.825296e+03,3.724145e+02
1.826260e+03,3.711016e+02
1.827224e+03,3.721859e+02
1.828188e+03,3.726268e+02
1.829152e+03,3.686295e+02
1.830117e+03,3.651732e+02
1.831081e+03,3.672686e+02
1.832045e+03,3.723727e+02
1.833009e+03,3.734372e+02
1.833974e+03,3.723516e+02
1.834938e+03,3.721340e+02
1.835902e+03,3.732931e+02
1.836866e+03,3.735225e+02
1.837831e+03,3.727441e+02
1.838795e+03,3.713730e+02
1.839759e+03,3.695781e+02
1.840723e+03,3.692186e+02
1.841688e+03,3.746562e+02
1.842652e+03,3.768021e+02
1.843616e+03,3.709149e+02
1.844580e+03,3.639951e+02
1.845544e+03,3.642926e+02
1.846509e+03,3.680918e+02
1.847473e+03,3.691495e+02
1.848437e+03,3.683766e+02
1.849401e+03,3.670878e+02
1.850366e+03,3.654887e+02
1.851330e+03,3.661953e+02
1.852294e+03,3.688741e+02
1.853258e+03,3.690668e+02
1.854223e+03,3.652799e+02
1.855187e+03,3.629464e+02
1.856151e+03,3.658415e+02
1.857115e+03,3.679404e+02
1.858079e+03,3.679453e+02
1.859044e+03,3.670420e+02
1.860008e+03,3.666017e+02
1.860972e+03,3.661099e+02
1.861936e+03,3.647799e+02
1.862901e+03,3.631583e+02
1.863865e+03,3.614750e+02
1.864829e+03,3.597607e+02
1.865793e+03,3.606710e+02
1.866758e+03,3.635754e+02
1.867722e+03,3.663273e+02
1.868686e+03,3.682862e+02
1.869650e+03,3.704392e+02
1.870615e+03,3.733467e+02
1.871579e+03,3.720064e+02
1.872543e+03,3.645808e+02
1.873507e+03,3.594404e+02
1.874471e+03,3.685063e+02
1.875436e+03,3.741933e+02
1.876400e+03,3.661251e+02
1.877364e+03,3.554737e+02
1.878328e+03,3.558524e+02
1.879293e+03,3.619818e+02
1.880257e+03,3.646060e+02
1.881221e+03,3.645116e+02
1.882185e+03,3.635299e+02
1.883150e+03,3.619315e+02
1.884114e+03,3.618066e+02
1.885078e+03,3.628417e+02
1.886042e+03,3.637520e+02
1.887006e+03,3.643199e+02
1.887971e+03,3.633188e+02
1.888935e+03,3.590385e+02
1.889899e+03,3.571524e+02
1.890863e+03,3.591051e+02
1.891828e+03,3.616108e+02
1.892792e+03,3.622746e+02
1.893756e+03,3.615334e+02
1.894720e+03,3.593254e+02
1.895685e+03,3.567570e+02
1.896649e+03,3.533050e+02
1.897613e+03,3.503040e+02
1.898577e+03,3.551812e+02
1.899542e+03,3.638675e+02
1.900506e+03,3.669543e+02
1.901470e+03,3.624535e+02
1.902434e+03,3.583009e+02
1.903398e+03,3.546164e+02
1.904363e+03,3.538502e+02
1.905327e+03,3.569313e+02
1.906291e+03,3.596311e+02
1.907255e+03,3.594502e+02
1.908220e+03,3.587050e+02
1.909184e+03,3.576851e+02
1.910148e+03,3.566968e+02
1.911112e+03,3.564263e+02
1.912077e+03,3.562623e+02
1.913041e+03,3.553979e+02
1.914005e+03,3.545465e+02
1.914969e+03,3.544994e+02
1.915933e+03,3.550287e+02
1.916898e+03,3.558259e+02
1.917862e+03,3.564073e+02
1.918826e+03,3.552648e+02
1.919790e+03,3.521909e+02
1.920755e+03,3.502120e+02
1.921719e+03,3.491505e+02
1.922683e+03,3.499203e+02
1.923647e+03,3.528814e+02
1.924612e+03,3.551861e+02
1.925576e+03,3.551882e+02
1.926540e+03,3.546785e+02
1.927504e+03,3.534610e+02
1.928469e+03,3.528353e+02
1.929433e+03,3.555330e+02
1.930397e+03,3.573191e+02
1.931361e+03,3.529552e+02
1.932325e+03,3.484862e+02
1.933290e+03,3.491887e+02
1.934254e+03,3.532242e+02
1.935218e+03,3.572015e+02
1.936182e+03,3.595445e+02
1.937147e+03,3.568873e+02
1.938111e+03,3.501433e+02
1.939075e+03,3.462309e+02
1.940039e+03,3.451074e+02
1.941004e+03,3.459872e+02
1.941968e+03,3.483830e+02
1.942932e+03,3.498444e+02
1.943896e+03,3.493377e+02
1.944860e+03,3.493832e+02
1.945825e+03,3.503585e+02
1.946789e+03,3.521913e+02
1.947753e+03,3.560351e+02
1.948717e+03,3.586518e+02
1.949682e+03,3.587265e+02
1.950646e+03,3.570648e+02
1.951610e+03,3.531401e+02
1.952574e+03,3.493453e+02
1.953539e+03,3.497773e+02
1.954503e+03,3.517536e+02
1.955467e+03,3.527447e+02
1.956431e+03,3.529904e+02
1.957396e+03,3.530190e+02
1.958360e+03,3.527120e+02
1.959324e+03,3.515239e+02
1.960288e+03,3.499861e+02
1.961252e+03,3.508246e+02
1.962217e+03,3.543922e+02
1.963181e+03,3.530369e+02
1.964145e+03,3.469696e+02
1.965109e+03,3.420179e+02
1.966074e+03,3.411893e+02
1.967038e+03,3.419217e+02
1.968002e+03,3.438448e+02
1.968966e+03,3.455565e+02
1.969931e+03,3.465301e+02
1.970895e+03,3.468731e+02
1.971859e+03,3.460978e+02
1.972823e+03,3.464365e+02
1.973787e+03,3.491996e+02
1.974752e+03,3.519864e+02
1.975716e+03,3.513227e+02
1.976680e+03,3.488981e+02
1.977644e+03,3.459886e+02
1.978609e+03,3.435215e+02
1.979573e+03,3.424997e+02
1.980537e+03,3.426976e+02
1.981501e+03,3.448714e+02
1.982466e+03,3.477265e+02
1.983430e+03,3.466276e+02
1.984394e+03,3.405607e+02
1.985358e+03,3.400089e+02
1.986323e+03,3.438960e+02
1.987287e+03,3.456852e+02
1.988251e+03,3.428607e+02
1.989215e+03,3.411903e+02
1.990179e+03,3.416153e+02
1.991144e+03,3.424846e+02
1.992108e+03,3.436275e+02
1.993072e+03,3.442376e+02
1.994036e+03,3.428822e+02
1.995001e+03,3.419367e+02
1.995965e+03,3.423466e+02
1.996929e+03,3.423603e+02
1.997893e+03,3.383144e+02
1.998858e+03,3.348124e+02
1.999822e+03,3.370113e+02
2.000786e+03,3.410387e+02
2.001750e+03,3.447073e+02
2.002714e+03,3.473277e+02
2.003679e+03,3.455720e+02
2.004643e+03,3.417324e+02
2.005607e+03,3.398264e+02
2.006571e+03,3.394224e+02
2.007536e+03,3.370992e+02
2.008500e+03,3.339168e+02
2.009464e+03,3.342088e+02
2.010428e+03,3.378056e+02
2.011393e+03,3.356621e+02
2.012357e+03,3.265486e+02
2.013321e+03,3.258046e+02
2.014285e+03,3.336070e+02
2.015250e+03,3.403875e+02
2.016214e+03,3.406375e+02
2.017178e+03,3.417220e+02
2.018142e+03,3.443590e+02
2.019106e+03,3.440568e+02
2.020071e+03,3.363788e+02
2.021035e+03,3.304182e+02
2.021999e+03,3.321479e+02
2.022963e+03,3.329245e+02
2.023928e+03,3.289262e+02
2.024892e+03,3.253896e+02
2.025856e+03,3.306481e+02
2.026820e+03,3.355126e+02
2.027785e+03,3.337192e+02
2.028749e+03,3.292949e+02
2.029713e+03,3.270490e+02
2.030677e+03,3.266909e+02
2.031641e+03,3.293105e+02
2.032606e+03,3.324041e+02
2.033570e+03,3.312464e+02
2.034534e+03,3.272328e+02
2.035498e+03,3.273824e+02
2.036463e+03,3.297752e+02
2.037427e+03,3.290890e+02
2.038391e+03,3.254010e+02
2.039355e+03,3.267478e+02
2.040320e+03,3.315965e+02
2.041284e+03,3.326564e+02
2.042248e+03,3.280948e+02
2.043212e+03,3.259435e+02
2.044177e+03,3.269222e+02
2.045141e+03,3.292275e+02
2.046105e+03,3.324354e+02
2.047069e+03,3.338501e+02
2.048033e+03,3.302264e+02
2.048998e+03,3.278760e+02
2.049962e+03,3.274450e+02
2.050926e+03,3.276895e+02
2.051890e+03,3.279871e+02
2.052854e+03,3.284782e+02
2.053819e+03,3.291343e+02
2.054783e+03,3.295312e+02
2.055747e+03,3.295518e+02
2.056711e+03,3.298310e+02
2.057676e+03,3.326866e+02
2.058640e+03,3.331921e+02
2.059604e+03,3.274386e+02
2.060568e+03,3.206981e+02
2.061533e+03,3.221418e+02
2.062497e+03,3.257921e+02
2.063461e+03,3.254628e+02
2.064425e+03,3.235472e+02
2.065390e+03,3.235301e+02
2.066354e+03,3.242939e+02
2.067318e+03,3.236532e+02
2.068282e+03,3.224547e+02
2.069247e+03,3.223197e+02
2.070211e+03,3.230248e+02
2.071175e+03,3.239980e+02
2.072139e+03,3.249769e+02
2.073104e+03,3.250466e+02
2.074068e+03,3.242221e+02
2.075032e+03,3.241382e+02
2.075996e+03,3.244472e+02
2.076960e+03,3.240847e+02
2.077925e+03,3.228251e+02
2.078889e+03,3.221099e+02
2.079853e+03,3.220449e+02
2.080817e+03,3.217759e+02
2.081782e+03,3.211694e+02
2.082746e+03,3.202060e+02
2.083710e+03,3.189907e+02
2.084674e+03,3.175487e+02
2.085639e+03,3.160663e+02
2.086603e+03,3.157503e+02
2.087567e+03,3.176239e+02
2.088531e+03,3.188284e+02
2.089496e+03,3.187509e+02
2.090460e+03,3.184058e+02
2.091424e+03,3.189487e+02
2.092388e+03,3.191209e+02
2.093353e+03,3.167288e+02
2.094317e+03,3.160005e+02
2.095281e+03,3.182737e+02
2.096245e+03,3.207644e+02
2.097209e+03,3.211872e+02
2.098174e+03,3.201632e+02
2.099138e+03,3.180148e+02
2.100102e+03,3.157168e+02
2.101066e+03,3.142693e+02
2.102031e+03,3.131284e+02
2.102995e+03,3.114650e+02
2.103959e+03,3.103206e+02
2.104923e+03,3.109437e+02
2.105887e+03,3.125375e+02
2.106852e+03,3.130154e+02
2.107816e+03,3.134804e+02
2.108780e+03,3.158657e+02
2.109744e+03,3.186999e+02
2.110708e+03,3.184819e+02
2.111673e+03,3.166785e+02
2.112637e+03,3.147369e+02
2.113601e+03,3.126172e+02
2.114565e+03,3.095139e+02
2.115530e+03,3.067455e+02
2.116494e+03,3.080283e+02
2.117458e+03,3.126273e+02
2.118422e+03,3.156024e+02
2.119387e+03,3.167061e+02
2.120351e+03,3.155767e+02
2.121315e+03,3.126837e+02
2.122279e+03,3.099930e+02
2.123244e+03,3.076021e+02
2.124208e+03,3.072239e+02
2.125172e+03,3.083424e+02
2.126136e+03,3.086141e+02
2.127101e+03,3.074221e+02
2.128065e+03,3.075578e+02
2.129029e+03,3.089276e+02
2.129993e+03,3.119027e+02
2.130958e+03,3.162473e+02
2.131922e+03,3.181756e+02
2.132886e+03,3.174456e+02
2.133850e+03,3.170157e+02
2.134814e+03,3.174431e+02
2.135779e+03,3.169413e+02
2.136743e+03,3.147414e+02
2.137707e+03,3.105121e+02
2.138671e+03,3.045788e+02
2.139636e+03,3.013540e+02
2.140600e+03,3.053490e+02
2.141564e+03,3.065156e+02
2.142528e+03,3.040102e+02
2.143493e+03,3.043852e+02
2.144457e+03,3.120546e+02
2.145421e+03,3.137065e+02
2.146385e+03,3.040517e+02
2.147350e+03,2.985722e+02
2.148314e+03,3.020743e+02
2.149278e+03,3.059586e+02
2.150242e+03,3.022921e+02
2.151207e+03,3.022953e+02
2.152171e+03,3.081239e+02
2.153135e+03,3.136183e+02
2.154099e+03,3.156685e+02
2.155063e+03,3.139015e+02
2.156028e+03,3.077307e+02
2.156992e+03,3.029774e+02
2.157956e+03,3.044396e+02
2.158920e+03,3.064185e+02
2.159885e+03,3.061903e+02
2.160849e+03,3.063154e+02
2.161813e+03,3.085501e+02
2.162777e+03,3.100371e+02
2.163741e+03,3.064346e+02
2.164706e+03,3.047747e+02
2.165670e+03,3.088688e+02
2.166634e+03,3.128253e+02
2.167598e+03,3.073777e+02
2.168563e+03,3.035419e+02
2.169527e+03,3.063369e+02
2.170491e+03,3.107451e+02
2.171455e+03,3.138283e+02
2.172420e+03,3.139942e+02
2.173384e+03,3.088574e+02
2.174348e+03,3.032874e+02
2.175312e+03,3.008016e+02
2.176277e+03,2.998628e+02
2.177241e+03,2.999541e+02
2.178205e+03,2.998595e+02
2.179169e+03,2.987715e+02
2.180134e+03,2.977666e+02
2.181098e+03,2.979296e+02
2.182062e+03,2.989320e+02
2.183026e+03,3.004715e+02
2.183990e+03,3.018059e+02
2.184955e+03,3.016919e+02
2.185919e+03,3.010965e+02
2.186883e+03,3.004775e+02
2.187847e+03,3.000496e+02
2.188812e+03,2.999742e+02
2.189776e+03,3.007063e+02
2.190740e+03,3.042171e+02
2.191704e+03,3.068758e+02
2.192668e+03,3.043151e+02
2.193633e+03,3.000497e+02
2.194597e+03,2.996040e+02
2.195561e+03,2.994032e+02
2.196525e+03,2.949169e+02
2.197490e+03,2.903040e+02
2.198454e+03,2.948885e+02
2.199418e+03,3.014754e+02
2.200382e+03,3.040033e+02
2.201347e+03,3.035356e+02
2.202311e+03,2.987620e+02
2.203275e+03,2.947407e+02
2.204239e+03,2.987299e+02
2.205204e+03,3.034080e+02
2.206168e+03,2.964540e+02
2.207132e+03,2.872188e+02
2.208096e+03,2.881697e+02
2.209061e+03,2.929116e+02
2.210025e+03,2.957642e+02
2.210989e+03,2.971537e+02
2.211953e+03,2.978674e+02
2.212917e+03,2.977384e+02
2.213882e+03,2.950110e+02
2.214846e+03,2.918120e+02
2.215810e+03,2.937898e+02
2.216774e+03,2.963293e+02
2.217739e+03,2.953139e+02
2.218703e+03,2.932207e+02
2.219667e+03,2.953604e+02
2.220631e+03,2.975114e+02
2.221595e+03,2.949038e+02
2.222560e+03,2.905365e+02
2.223524e+03,2.874658e+02
2.224488e+03,2.862363e+02
2.225452e+03,2.891862e+02
2.226417e+03,2.930250e+02
2.227381e+03,2.953438e+02
2.228345e+03,2.959651e+02
2.229309e+03,2.924835e+02
2.230274e+03,2.888217e+02
2.231238e+03,2.888517e+02
2.232202e+03,2.903354e+02
2.233166e+03,2.908261e+02
2.234131e+03,2.904976e+02
2.235095e+03,2.892852e+02
2.236059e+03,2.878114e+02
2.237023e+03,2.861308e+02
2.237988e+03,2.855783e+02
2.238952e+03,2.866338e+02
2.239916e+03,2.893121e+02
2.240880e+03,2.974196e+02
2.241844e+03,3.027922e+02
2.242809e+03,2.978280e+02
2.243773e+03,2.912493e+02
2.244737e+03,2.918501e+02
2.245701e+03,2.941325e+02
2.246666e+03,2.941931e+02
2.247630e+03,2.927623e+02
2.248594e+03,2.897089e+02
2.249558e+03,2.870384e+02
2.250522e+03,2.868282e+02
2.251487e+03,2.872740e+02
2.252451e+03,2.872242e+02
2.253415e+03,2.871115e+02
2.254379e+03,2.889311e+02
2.255344e+03,2.892192e+02
2.256308e+03,2.863929e+02
2.257272e+03,2.831367e+02
2.258236e+03,2.818608e+02
2.259201e+03,2.811976e+02
2.260165e+03,2.803098e+02
2.261129e+03,2.804446e+02
2.262093e+03,2.848422e+02
2.263058e+03,2.864544e+02
2.264022e+03,2.831706e+02
2.264986e+03,2.803755e+02
2.265950e+03,2.820567e+02
2.266915e+03,2.836007e+02
2.267879e+03,2.832661e+02
2.268843e+03,2.832274e+02
2.269807e+03,2.853636e+02
2.270771e+03,2.858439e+02
2.271736e+03,2.823544e+02
2.272700e+03,2.815266e+02
2.273664e+03,2.853398e+02
2.274628e+03,2.879640e+02
2.275593e+03,2.864391e+02
2.276557e+03,2.837506e+02
2.277521e+03,2.804621e+02
2.278485e+03,2.794434e+02
2.279449e+03,2.835928e+02
2.280414e+03,2.865791e+02
2.281378e+03,2.879279e+02
2.282342e+03,2.871444e+02
2.283306e+03,2.810721e+02
2.284271e+03,2.788358e+02
2.285235e+03,2.800773e+02
2.286199e+03,2.811349e+02
2.287163e+03,2.814919e+02
2.288128e+03,2.788198e+02
2.289092e+03,2.733982e+02
2.290056e+03,2.700125e+02
2.291020e+03,2.700576e+02
2.291985e+03,2.734123e+02
2.292949e+03,2.794407e+02
2.293913e+03,2.820459e+02
2.294877e+03,2.804489e+02
2.295842e+03,2.774609e+02
2.296806e+03,2.736052e+02
2.297770e+03,2.726466e+02
2.298734e+03,2.742604e+02
2.299698e+03,2.760411e+02
2.300663e+03,2.779572e+02
2.301627e+03,2.821815e+02
2.302591e+03,2.860822e+02
2.303555e+03,2.827368e+02
2.304520e+03,2.745917e+02
2.305484e+03,2.724606e+02
2.306448e+03,2.737574e+02
2.307412e+03,2.740845e+02
2.308376e+03,2.735367e+02
2.309341e+03,2.726012e+02
2.310305e+03,2.721317e+02
2.311269e+03,2.741457e+02
2.312233e+03,2.767766e+02
2.313198e+03,2.766055e+02
2.314162e+03,2.749944e+02
2.315126e+03,2.727544e+02
2.316090e+03,2.712124e+02
2.317055e+03,2.726070e+02
2.318019e+03,2.747539e+02
2.318983e+03,2.752751e+02
2.319947e+03,2.758933e+02
2.320912e+03,2.794975e+02
2.321876e+03,2.816259e+02
2.322840e+03,2.764781e+02
2.323804e+03,2.728555e+02
2.324769e+03,2.756094e+02
2.325733e+03,2.790474e+02
2.326697e+03,2.797217e+02
2.327661e+03,2.778251e+02
2.328625e+03,2.722627e+02
2.329590e+03,2.691020e+02
2.330554e+03,2.747972e+02
2.331518e+03,2.773673e+02
2.332482e+03,2.749103e+02
2.333447e+03,2.718628e+02
2.334411e+03,2.701084e+02
2.335375e+03,2.681457e+02
2.336339e+03,2.660066e+02
2.337303e+03,2.659782e+02
2.338268e+03,2.700178e+02
2.339232e+03,2.727257e+02
2.340196e+03,2.740221e+02
2.341160e+03,2.722816e+02
2.342125e+03,2.664365e+02
2.343089e+03,2.674474e+02
2.344053e+03,2.727735e+02
2.345017e+03,2.733373e+02
2.345982e+03,2.688840e+02
2.346946e+03,2.681987e+02
2.347910e+03,2.702257e+02
2.348874e+03,2.726560e+02
2.349839e+03,2.739076e+02
2.350803e+03,2.692933e+02
2.351767e+03,2.630296e+02
2.352731e+03,2.649968e+02
2.353696e+03,2.702757e+02
2.354660e+03,2.706841e+02
2.355624e+03,2.683355e+02
2.356588e+03,2.647815e+02
2.357552e+03,2.631100e+02
2.358517e+03,2.677881e+02
2.359481e+03,2.730425e+02
2.360445e+03,2.708427e+02
2.361409e+03,2.675275e+02
2.362374e+03,2.661498e+02
2.363338e+03,2.654632e+02
2.364302e+03,2.652578e+02
2.365266e+03,2.648846e+02
2.366230e+03,2.638082e+02
2.367195e+03,2.631435e+02
2.368159e+03,2.635271e+02
2.369123e+03,2.649203e+02
2.370087e+03,2.676764e+02
2.371052e+03,2.680937e+02
2.372016e+03,2.621577e+02
2.372980e+03,2.620953e+02
2.373944e+03,2.678314e+02
2.374909e+03,2.713655e+02
2.375873e+03,2.700536e+02
2.376837e+03,2.674509e+02
2.377801e+03,2.640124e+02
2.378766e+03,2.615092e+02
2.379730e+03,2.601884e+02
2.380694e+03,2.601442e+02
2.381658e+03,2.610692e+02
2.382623e+03,2.614905e+02
2.383587e+03,2.617253e+02
2.384551e+03,2.646606e+02
2.385515e+03,2.673603e+02
2.386479e+03,2.631581e+02
2.387444e+03,2.574293e+02
2.388408e+03,2.592921e+02
2.389372e+03,2.627874e+02
2.390336e+03,2.608473e+02
2.391301e+03,2.584712e+02
2.392265e+03,2.617286e+02
2.393229e+03,2.643252e+02
2.394193e+03,2.622789e+02
2.395157e+03,2.593835e+02
2.396122e+03,2.574985e+02
2.397086e+03,2.564122e+02
2.398050e+03,2.560599e+02
2.399014e+03,2.563942e+02
2.399979e+03,2.573318e+02
2.400943e+03,2.598396e+02
2.401907e+03,2.641651e+02
2.402871e+03,2.629596e+02
2.403836e+03,2.546004e+02
2.404800e+03,2.524896e+02
2.405764e+03,2.569641e+02
2.406728e+03,2.590136e+02
2.407693e+03,2.582380e+02
2.408657e+03,2.601880e+02
2.409621e+03,2.640633e+02
2.410585e+03,2.635241e+02
2.411550e+03,2.605282e+02
2.412514e+03,2.608487e+02
2.413478e+03,2.627651e+02
2.414442e+03,2.625359e+02
2.415406e+03,2.598511e+02
2.416371e+03,2.528693e+02
2.417335e+03,2.469040e+02
2.418299e+03,2.528580e+02
2.419263e+03,2.584671e+02
2.420228e+03,2.565168e+02
2.421192e+03,2.535953e+02
2.422156e+03,2.565724e+02
2.423120e+03,2.589069e+02
2.424084e+03,2.587987e+02
2.425049e+03,2.586182e+02
2.426013e+03,2.608154e+02
2.426977e+03,2.598398e+02
2.427941e+03,2.555375e+02
2.428906e+03,2.529424e+02
2.429870e+03,2.534447e+02
2.430834e+03,2.535560e+02
2.431798e+03,2.532921e+02
2.432763e+03,2.524900e+02
2.433727e+03,2.513363e+02
2.434691e+03,2.547971e+02
2.435655e+03,2.598905e+02
2.436620e+03,2.603644e+02
2.437584e+03,2.577526e+02
2.438548e+03,2.544590e+02
2.439512e+03,2.529620e+02
2.440477e+03,2.563421e+02
2.441441e+03,2.598143e+02
2.442405e+03,2.550798e+02
2.443369e+03,2.516440e+02
2.444333e+03,2.541532e+02
2.445298e+03,2.580444e+02
2.446262e+03,2.617994e+02
2.447226e+03,2.600230e+02
2.448190e+03,2.518742e+02
2.449155e+03,2.461675e+02
2.450119e+03,2.504047e+02
2.451083e+03,2.525430e+02
2.452047e+03,2.525613e+02
2.453011e+03,2.523191e+02
2.453976e+03,2.523483e+02
2.454940e+03,2.532400e+02
2.455904e+03,2.540726e+02
2.456868e+03,2.493058e+02
2.457833e+03,2.418802e+02
2.458797e+03,2.435122e+02
2.459761e+03,2.491987e+02
2.460725e+03,2.523008e+02
2.461690e+03,2.533522e+02
2.462654e+03,2.524144e+02
2.463618e+03,2.510529e+02
2.464582e+03,2.501654e+02
2.465547e+03,2.503967e+02
2.466511e+03,2.545567e+02
2.467475e+03,2.539863e+02
2.468439e+03,2.465796e+02
2.469404e+03,2.413933e+02
2.470368e+03,2.477396e+02
2.471332e+03,2.470462e+02
2.472296e+03,2.396992e+02
2.473260e+03,2.371905e+02
2.474225e+03,2.428653e+02
2.475189e+03,2.455691e+02
2.476153e+03,2.466181e+02
2.477117e+03,2.503445e+02
2.478082e+03,2.550282e+02
2.479046e+03,2.540270e+02
2.480010e+03,2.505463e+02
2.480974e+03,2.488841e+02
2.481938e+03,2.481780e+02
2.482903e+03,2.464019e+02
2.483867e+03,2.468169e+02
2.484831e+03,2.518402e+02
2.485795e+03,2.546709e+02
2.486760e+03,2.460218e+02
2.487724e+03,2.420320e+02
2.488688e+03,2.453581e+02
2.489652e+03,2.503703e+02
2.490617e+03,2.566059e+02
2.491581e+03,2.556565e+02
2.492545e+03,2.491160e+02
2.493509e+03,2.460307e+02
2.494474e+03,2.473841e+02
2.495438e+03,2.485146e+02
2.496402e+03,2.493416e+02
2.497366e+03,2.501028e+02
2.498331e+03,2.500918e+02
2.499295e+03,2.453992e+02
2.500259e+03,2.422467e+02
2.501223e+03,2.470201e+02
2.502188e+03,2.527544e+02
2.503152e+03,2.507608e+02
2.504116e+03,2.505111e+02
2.505080e+03,2.551775e+02
2.506044e+03,2.580241e+02
2.507009e+03,2.525462e+02
2.507973e+03,2.487158e+02
2.508937e+03,2.469650e+02
2.509901e+03,2.450185e+02
2.510865e+03,2.420138e+02
2.511830e+03,2.458345e+02
2.512794e+03,2.527343e+02
2.513758e+03,2.510482e+02
2.514722e+03,2.447430e+02
2.515687e+03,2.450501e+02
2.516651e+03,2.480262e+02
2.517615e+03,2.495870e+02
2.518579e+03,2.501637e+02
2.519544e+03,2.501435e+02
2.520508e+03,2.494241e+02
2.521472e+03,2.478576e+02
2.522436e+03,2.475119e+02
2.523401e+03,2.516836e+02
2.524365e+03,2.534379e+02
2.525329e+03,2.521943e+02
2.526293e+03,2.498705e+02
2.527258e+03,2.471514e+02
2.528222e+03,2.432196e+02
2.529186e+03,2.395193e+02
2.530150e+03,2.410665e+02
2.531115e+03,2.458597e+02
2.532079e+03,2.475771e+02
2.533043e+03,2.470579e+02
2.534007e+03,2.454086e+02
2.534971e+03,2.430389e+02
2.535936e+03,2.410172e+02
2.536900e+03,2.375975e+02
2.537864e+03,2.313267e+02
2.538828e+03,2.296239e+02
2.539792e+03,2.373296e+02
2.540757e+03,2.443066e+02
2.541721e+03,2.492159e+02
2.542685e+03,2.498439e+02
2.543649e+03,2.470683e+02
2.544614e+03,2.490993e+02
2.545578e+03,2.542807e+02
2.546542e+03,2.573607e+02
2.547506e+03,2.584819e+02
2.548471e+03,2.562592e+02
2.549435e+03,2.544385e+02
2.550399e+03,2.572877e+02
2.551363e+03,2.599908e+02
2.552328e+03,2.583457e+02
2.553292e+03,2.563922e+02
2.554256e+03,2.553644e+02
2.555220e+03,2.543595e+02
2.556185e+03,2.530684e+02
2.557149e+03,2.533752e+02
2.558113e+03,2.554600e+02
2.559077e+03,2.567549e+02
2.560042e+03,2.566659e+02
2.561006e+03,2.520491e+02
2.561970e+03,2.468896e+02
2.562934e+03,2.500711e+02
2.563898e+03,2.547173e+02
2.564863e+03,2.519163e+02
2.565827e+03,2.480278e+02
2.566791e+03,2.483996e+02
2.567755e+03,2.485647e+02
2.568719e+03,2.467242e+02
2.569684e+03,2.479941e+02
2.570648e+03,2.569608e+02
2.571612e+03,2.587826e+02
2.572576e+03,2.543668e+02
2.573541e+03,2.477173e+02
2.574505e+03,2.406382e+02
2.575469e+03,2.411820e+02
2.576433e+03,2.448471e+02
2.577398e+03,2.454852e+02
2.578362e+03,2.440678e+02
2.579326e+03,2.396353e+02
2.580290e+03,2.380253e+02
2.581255e+03,2.416424e+02
2.582219e+03,2.450136e+02
2.583183e+03,2.435058e+02
2.584147e+03,2.435058e+02
2.585112e+03,2.454167e+02
2.586076e+03,2.453320e+02
2.587040e+03,2.426873e+02
2.588004e+03,2.395994e+02
2.588969e+03,2.370751e+02
2.589933e+03,2.385114e+02
2.590897e+03,2.406434e+02
2.591861e+03,2.333278e+02
2.592825e+03,2.288291e+02
2.593790e+03,2.360981e+02
2.594754e+03,2.429600e+02
2.595718e+03,2.407836e+02
2.596682e+03,2.368841e+02
2.597646e+03,2.322299e+02
2.598611e+03,2.344655e+02
2.599575e+03,2.430979e+02
2.600539e+03,2.448975e+02
2.601503e+03,2.400910e+02
2.602468e+03,2.369455e+02
2.603432e+03,2.350147e+02
2.604396e+03,2.336694e+02
2.605360e+03,2.336215e+02
2.606325e+03,2.360589e+02
2.607289e+03,2.391683e+02
2.608253e+03,2.426241e+02
2.609217e+03,2.435659e+02
2.610182e+03,2.395289e+02
2.611146e+03,2.336834e+02
2.612110e+03,2.272308e+02
2.613074e+03,2.260000e+02
2.614039e+03,2.298090e+02
2.615003e+03,2.330876e+02
2.615967e+03,2.348717e+02
2.616931e+03,2.336466e+02
2.617896e+03,2.321604e+02
2.618860e+03,2.340823e+02
2.619824e+03,2.367740e+02
2.620788e+03,2.393250e+02
2.621752e+03,2.395901e+02
2.622717e+03,2.350385e+02
2.623681e+03,2.330493e+02
2.624645e+03,2.337335e+02
2.625609e+03,2.360282e+02
2.626573e+03,2.390154e+02
2.627538e+03,2.377756e+02
2.628502e+03,2.347014e+02
2.629466e+03,2.333820e+02
2.630430e+03,2.325714e+02
2.631395e+03,2.291358e+02
2.632359e+03,2.289024e+02
2.633323e+03,2.358222e+02
2.634287e+03,2.378237e+02
2.635252e+03,2.326421e+02
2.636216e+03,2.292175e+02
2.637180e+03,2.292390e+02
2.638144e+03,2.308803e+02
2.639109e+03,2.337304e+02
2.640073e+03,2.392205e+02
2.641037e+03,2.436849e+02
2.642001e+03,2.382649e+02
2.642966e+03,2.344336e+02
2.643930e+03,2.393407e+02
2.644894e+03,2.429900e+02
2.645858e+03,2.373725e+02
2.646823e+03,2.316512e+02
2.647787e+03,2.264784e+02
2.648751e+03,2.234638e+02
2.649715e+03,2.226800e+02
2.650679e+03,2.262217e+02
2.651644e+03,2.312452e+02
2.652608e+03,2.331687e+02
2.653572e+03,2.338374e+02
2.654536e+03,2.362209e+02
2.655500e+03,2.383939e+02
2.656465e+03,2.400546e+02
2.657429e+03,2.376278e+02
2.658393e+03,2.295072e+02
2.659357e+03,2.264230e+02
2.660322e+03,2.294533e+02
2.661286e+03,2.313229e+02
2.662250e+03,2.323933e+02
2.663214e+03,2.356136e+02
2.664179e+03,2.383118e+02
2.665143e+03,2.364222e+02
2.666107e+03,2.341004e+02
2.667071e+03,2.335415e+02
2.668036e+03,2.334249e+02
2.669000e+03,2.323380e+02
2.669964e+03,2.345632e+02
2.670928e+03,2.389725e+02
2.671893e+03,2.370587e+02
2.672857e+03,2.307336e+02
2.673821e+03,2.315198e+02
2.674785e+03,2.345189e+02
2.675750e+03,2.344544e+02
2.676714e+03,2.331581e+02
2.677678e+03,2.320381e+02
2.678642e+03,2.308960e+02
2.679606e+03,2.297285e+02
2.680571e+03,2.289583e+02
2.681535e+03,2.285291e+02
2.682499e+03,2.274510e+02
2.683463e+03,2.256111e+02
2.684427e+03,2.226516e+02
2.685392e+03,2.207080e+02
2.686356e+03,2.259671e+02
2.687320e+03,2.301570e+02
2.688284e+03,2.250023e+02
2.689249e+03,2.244115e+02
2.690213e+03,2.309942e+02
2.691177e+03,2.326347e+02
2.692141e+03,2.249186e+02
2.693106e+03,2.255829e+02
2.694070e+03,2.310988e+02
2.695034e+03,2.330976e+02
2.695998e+03,2.324038e+02
2.696963e+03,2.282500e+02
2.697927e+03,2.273135e+02
2.698891e+03,2.330068e+02
2.699855e+03,2.369228e+02
2.700820e+03,2.348258e+02
2.701784e+03,2.320039e+02
2.702748e+03,2.291640e+02
2.703712e+03,2.280290e+02
2.704677e+03,2.284463e+02
2.705641e+03,2.313185e+02
2.706605e+03,2.346562e+02
2.707569e+03,2.361364e+02
2.708533e+03,2.359887e+02
2.709498e+03,2.341748e+02
2.710462e+03,2.327334e+02
2.711426e+03,2.327860e+02
2.712390e+03,2.352135e+02
2.713354e+03,2.385930e+02
2.714319e+03,2.348806e+02
2.715283e+03,2.286636e+02
2.716247e+03,2.334375e+02
2.717211e+03,2.389426e+02
2.718176e+03,2.376184e+02
2.719140e+03,2.359514e+02
2.720104e+03,2.395327e+02
2.721068e+03,2.371473e+02
2.722033e+03,2.282483e+02
2.722997e+03,2.267682e+02
2.723961e+03,2.308003e+02
2.724925e+03,2.293611e+02
2.725890e+03,2.263878e+02
2.726854e+03,2.279209e+02
2.727818e+03,2.311774e+02
2.728782e+03,2.350637e+02
2.729747e+03,2.337838e+02
2.730711e+03,2.186773e+02
2.731675e+03,2.192796e+02
2.732639e+03,2.318138e+02
2.733604e+03,2.359885e+02
2.734568e+03,2.338331e+02
2.735532e+03,2.334752e+02
2.736496e+03,2.314201e+02
2.737460e+03,2.244072e+02
2.738425e+03,2.206422e+02
2.739389e+03,2.260590e+02
2.740353e+03,2.304628e+02
2.741317e+03,2.321591e+02
2.742281e+03,2.297269e+02
2.743246e+03,2.251986e+02
2.744210e+03,2.239504e+02
2.745174e+03,2.246285e+02
2.746138e+03,2.266589e+02
2.747103e+03,2.291717e+02
2.748067e+03,2.321020e+02
2.749031e+03,2.329098e+02
2.749995e+03,2.293854e+02
2.750960e+03,2.250835e+02
2.751924e+03,2.208733e+02
2.752888e+03,2.189625e+02
2.753852e+03,2.192856e+02
2.754817e+03,2.241110e+02
2.755781e+03,2.283656e+02
2.756745e+03,2.291827e+02
2.757709e+03,2.281102e+02
2.758674e+03,2.255754e+02
2.759638e+03,2.243289e+02
2.760602e+03,2.252663e+02
2.761566e+03,2.290239e+02
2.762531e+03,2.337912e+02
2.763495e+03,2.359850e+02
2.764459e+03,2.368135e+02
2.765423e+03,2.383289e+02
2.766387e+03,2.362982e+02
2.767352e+03,2.302706e+02
2.768316e+03,2.269067e+02
2.769280e+03,2.274309e+02
2.770244e+03,2.273084e+02
2.771208e+03,2.274544e+02
2.772173e+03,2.298618e+02
2.773137e+03,2.319381e+02
2.774101e+03,2.299693e+02
2.775065e+03,2.309220e+02
2.776030e+03,2.389562e+02
2.776994e+03,2.414245e+02
2.777958e+03,2.383320e+02
2.778922e+03,2.366645e+02
2.779887e+03,2.360517e+02
2.780851e+03,2.326157e+02
2.781815e+03,2.289126e+02
2.782779e+03,2.267544e+02
2.783744e+03,2.264158e+02
2.784708e+03,2.288689e+02
2.785672e+03,2.270120e+02
2.786636e+03,2.219247e+02
2.787601e+03,2.274712e+02
2.788565e+03,2.376329e+02
2.789529e+03,2.317013e+02
2.790493e+03,2.240581e+02
2.791458e+03,2.277962e+02
2.792422e+03,2.328364e+02
2.793386e+03,2.367376e+02
2.794350e+03,2.366602e+02
2.795314e+03,2.318027e+02
2.796279e+03,2.277408e+02
2.797243e+03,2.254284e+02
2.798207e+03,2.272444e+02
2.799171e+03,2.290205e+02
2.800135e+03,2.227930e+02
2.801100e+03,2.216958e+02
2.802064e+03,2.295425e+02
2.803028e+03,2.297864e+02
2.803992e+03,2.233081e+02
2.804957e+03,2.220552e+02
2.805921e+03,2.242082e+02
2.806885e+03,2.237304e+02
2.807849e+03,2.269259e+02
2.808814e+03,2.368239e+02
2.809778e+03,2.437314e+02
2.810742e+03,2.428194e+02
2.811706e+03,2.379734e+02
2.812671e+03,2.319128e+02
2.813635e+03,2.348609e+02
2.814599e+03,2.406941e+02
2.815563e+03,2.359775e+02
2.816528e+03,2.322910e+02
2.817492e+03,2.369146e+02
2.818456e+03,2.333787e+02
2.819420e+03,2.214182e+02
2.820385e+03,2.165037e+02
2.821349e+03,2.185510e+02
2.822313e+03,2.211609e+02
2.823277e+03,2.235930e+02
2.824241e+03,2.254480e+02
2.825206e+03,2.252109e+02
2.826170e+03,2.209354e+02
2.827134e+03,2.232734e+02
2.828098e+03,2.313773e+02
2.829063e+03,2.302605e+02
2.830027e+03,2.242480e+02
2.830991e+03,2.224307e+02
2.831955e+03,2.233441e+02
2.832919e+03,2.280848e+02
2.833884e+03,2.292945e+02
2.834848e+03,2.262335e+02
2.835812e+03,2.228869e+02
2.836776e+03,2.203886e+02
2.837741e+03,2.215524e+02
2.838705e+03,2.255405e+02
2.839669e+03,2.317897e+02
2.840633e+03,2.369214e+02
2.841598e+03,2.392985e+02
2.842562e+03,2.397201e+02
2.843526e+03,2.381718e+02
2.844490e+03,2.321871e+02
2.845455e+03,2.273263e+02
2.846419e+03,2.359749e+02
2.847383e+03,2.457275e+02
2.848347e+03,2.399206e+02
2.849312e+03,2.389431e+02
2.850276e+03,2.460158e+02
2.851240e+03,2.471828e+02
2.852204e+03,2.425092e+02
2.853168e+03,2.392005e+02
2.854133e+03,2.364981e+02
2.855097e+03,2.317522e+02
2.856061e+03,2.308596e+02
2.857025e+03,2.348288e+02
2.857990e+03,2.367775e+02
2.858954e+03,2.346457e+02
2.859918e+03,2.420320e+02
2.860882e+03,2.516657e+02
2.861846e+03,2.522681e+02
2.862811e+03,2.480904e+02
2.863775e+03,2.420823e+02
2.864739e+03,2.348959e+02
2.865703e+03,2.267106e+02
2.866668e+03,2.296535e+02
2.867632e+03,2.390471e+02
2.868596e+03,2.411745e+02
2.869560e+03,2.412348e+02
2.870525e+03,2.478447e+02
2.871489e+03,2.502618e+02
2.872453e+03,2.458639e+02
2.873417e+03,2.449251e+02
2.874382e+03,2.477856e+02
2.875346e+03,2.503065e+02
2.876310e+03,2.510799e+02
2.877274e+03,2.450182e+02
2.878239e+03,2.430310e+02
2.879203e+03,2.486732e+02
2.880167e+03,2.523284e+02
2.881131e+03,2.513445e+02
2.882095e+03,2.508163e+02
2.883060e+03,2.512253e+02
2.884024e+03,2.539294e+02
2.884988e+03,2.539076e+02
2.885952e+03,2.438559e+02
2.886917e+03,2.432368e+02
2.887881e+03,2.576493e+02
2.888845e+03,2.598384e+02
2.889809e+03,2.555279e+02
2.890773e+03,2.602083e+02
2.891738e+03,2.655531e+02
2.892702e+03,2.585706e+02
2.893666e+03,2.613331e+02
2.894630e+03,2.765983e+02
2.895595e+03,2.743335e+02
2.896559e+03,2.589619e+02
2.897523e+03,2.574748e+02
2.898487e+03,2.625619e+02
2.899452e+03,2.726204e+02
2.900416e+03,2.682336e+02
2.901380e+03,2.474951e+02
2.902344e+03,2.449390e+02
2.903309e+03,2.619154e+02
2.904273e+03,2.560723e+02
2.905237e+03,2.432935e+02
2.906201e+03,2.402901e+02
2.907166e+03,2.423938e+02
2.908130e+03,2.471644e+02
2.909094e+03,2.503054e+02
2.910058e+03,2.509393e+02
2.911022e+03,2.525456e+02
2.911987e+03,2.499415e+02
2.912951e+03,2.357099e+02
2.913915e+03,2.269309e+02
2.914879e+03,2.384505e+02
2.915844e+03,2.481976e+02
2.916808e+03,2.527605e+02
2.917772e+03,2.468163e+02
2.918736e+03,2.378250e+02
2.919700e+03,2.365548e+02
2.920665e+03,2.379322e+02
2.921629e+03,2.398469e+02
2.922593e+03,2.419539e+02
2.923557e+03,2.446691e+02
2.924522e+03,2.510609e+02
2.925486e+03,2.564919e+02
2.926450e+03,2.463504e+02
2.927414e+03,2.364890e+02
2.928379e+03,2.335223e+02
2.929343e+03,2.376427e+02
2.930307e+03,2.455835e+02
2.931271e+03,2.427129e+02
2.932236e+03,2.350845e+02
2.933200e+03,2.319166e+02
2.934164e+03,2.320306e+02
2.935128e+03,2.348692e+02
2.936093e+03,2.344069e+02
2.937057e+03,2.312858e+02
2.938021e+03,2.342770e+02
2.938985e+03,2.390437e+02
2.939949e+03,2.364159e+02
2.940914e+03,2.348725e+02
2.941878e+03,2.374082e+02
2.942842e+03,2.379595e+02
2.943806e+03,2.352968e+02
2.944771e+03,2.357085e+02
2.945735e+03,2.358358e+02
2.946699e+03,2.297944e+02
2.947663e+03,2.246492e+02
2.948627e+03,2.223442e+02
2.949592e+03,2.229358e+02
2.950556e+03,2.260313e+02
2.951520e+03,2.257207e+02
2.952484e+03,2.253061e+02
2.953449e+03,2.279924e+02
2.954413e+03,2.333299e+02
2.955377e+03,2.412128e+02
2.956341e+03,2.456262e+02
2.957306e+03,2.471814e+02
2.958270e+03,2.587320e+02
2.959234e+03,2.632677e+02
2.960198e+03,2.478189e+02
2.961163e+03,2.349481e+02
2.962127e+03,2.348239e+02
2.963091e+03,2.356421e+02
2.964055e+03,2.341493e+02
2.965020e+03,2.230502e+02
2.965984e+03,2.132469e+02
2.966948e+03,2.115734e+02
2.967912e+03,2.187699e+02
2.968876e+03,2.402639e+02
2.969841e+03,2.361460e+02
2.970805e+03,2.195009e+02
2.971769e+03,2.170269e+02
2.972733e+03,2.213673e+02
2.973698e+03,2.277486e+02
2.974662e+03,2.284127e+02
2.975626e+03,2.209729e+02
2.976590e+03,2.222159e+02
2.977554e+03,2.255080e+02
2.978519e+03,2.217979e+02
2.979483e+03,2.151750e+02
2.980447e+03,2.074248e+02
2.981411e+03,2.078449e+02
2.982376e+03,2.160432e+02
2.983340e+03,2.156895e+02
2.984304e+03,2.109507e+02
2.985268e+03,2.057334e+02
2.986233e+03,2.041617e+02
2.987197e+03,2.094405e+02
2.988161e+03,2.177612e+02
2.989125e+03,2.244035e+02
2.990090e+03,2.144330e+02
2.991054e+03,2.043022e+02
2.992018e+03,2.076862e+02
2.992982e+03,2.090780e+02
2.993947e+03,2.016587e+02
2.994911e+03,2.121751e+02
2.995875e+03,2.268797e+02
2.996839e+03,2.200663e+02
2.997803e+03,2.167803e+02
2.998768e+03,2.349814e+02
2.999732e+03,2.364558e+02
3.000696e+03,2.163994e+02
3.001660e+03,2.166282e+02
3.002625e+03,2.236743e+02
3.003589e+03,2.229448e+02
3.004553e+03,2.251658e+02
3.005517e+03,2.366064e+02
3.006481e+03,2.277761e+02
3.007446e+03,2.062967e+02
3.008410e+03,2.133387e+02
3.009374e+03,2.228274e+02
3.010338e+03,2.184785e+02
3.011303e+03,2.140366e+02
3.012267e+03,2.136564e+02
3.013231e+03,2.124116e+02
3.014195e+03,2.090062e+02
3.015160e+03,1.975557e+02
3.016124e+03,1.960761e+02
3.017088e+03,2.091541e+02
3.018052e+03,2.122763e+02
3.019017e+03,2.040102e+02
3.019981e+03,2.141920e+02
3.020945e+03,2.215472e+02
3.021909e+03,2.049175e+02
3.022874e+03,1.989286e+02
3.023838e+03,2.086645e+02
3.024802e+03,2.144966e+02
3.025766e+03,2.150715e+02
3.026730e+03,2.104133e+02
3.027695e+03,2.035934e+02
3.028659e+03,1.956965e+02
3.029623e+03,2.021593e+02
3.030587e+03,2.180392e+02
3.031552e+03,2.095662e+02
3.032516e+03,1.969063e+02
3.033480e+03,2.097256e+02
3.034444e+03,2.105600e+02
3.035408e+03,1.957022e+02
3.036373e+03,2.015430e+02
3.037337e+03,2.185115e+02
3.038301e+03,2.117767e+02
3.039265e+03,1.997617e+02
3.040230e+03,1.870825e+02
3.041194e+03,1.905023e+02
3.042158e+03,2.029534e+02
3.043122e+03,1.966608e+02
3.044087e+03,1.865183e+02
3.045051e+03,1.934090e+02
3.046015e+03,2.063511e+02
3.046979e+03,2.236207e+02
3.047944e+03,2.214405e+02
3.048908e+03,2.094744e+02
3.049872e+03,2.024577e+02
3.050836e+03,1.996249e+02
3.051801e+03,2.001900e+02
3.052765e+03,2.073897e+02
3.053729e+03,2.178182e+02
3.054693e+03,2.124970e+02
3.055657e+03,2.083693e+02
3.056622e+03,2.175894e+02
3.057586e+03,2.190951e+02
3.058550e+03,2.069634e+02
3.059514e+03,2.015468e+02
3.060479e+03,2.041944e+02
3.061443e+03,2.228871e+02
3.062407e+03,2.254969e+02
3.063371e+03,2.066201e+02
3.064335e+03,2.035584e+02
3.065300e+03,2.140061e+02
3.066264e+03,2.082673e+02
3.067228e+03,2.021243e+02
3.068192e+03,2.059692e+02
3.069157e+03,2.079899e+02
3.070121e+03,2.073408e+02
3.071085e+03,2.070346e+02
3.072049e+03,2.084313e+02
3.073014e+03,2.151404e+02
3.073978e+03,2.231568e+02
3.074942e+03,2.303639e+02
3.075906e+03,2.172333e+02
3.076871e+03,1.994532e+02
3.077835e+03,2.020924e+02
3.078799e+03,2.056674e+02
3.079763e+03,1.963768e+02
3.080728e+03,1.976557e+02
3.081692e+03,2.079586e+02
3.082656e+03,2.150231e+02
3.083620e+03,2.184097e+02
3.084584e+03,2.188447e+02
3.085549e+03,2.139762e+02
3.086513e+03,2.045786e+02
3.087477e+03,2.096502e+02
3.088441e+03,2.183689e+02
3.089406e+03,2.201343e+02
3.090370e+03,2.211204e+02
3.091334e+03,2.216426e+02
3.092298e+03,2.037212e+02
3.093262e+03,1.825040e+02
3.094227e+03,1.939767e+02
3.095191e+03,2.077103e+02
3.096155e+03,2.139220e+02
3.097119e+03,2.145327e+02
3.098084e+03,2.128902e+02
3.099048e+03,2.142975e+02
3.100012e+03,2.159814e+02
3.100976e+03,2.169661e+02
3.101941e+03,2.064118e+02
3.102905e+03,1.897057e+02
3.103869e+03,2.005417e+02
3.104833e+03,2.110933e+02
3.105798e+03,2.032648e+02
3.106762e+03,2.050779e+02
3.107726e+03,2.214536e+02
3.108690e+03,2.292342e+02
3.109655e+03,2.293747e+02
3.110619e+03,2.219694e+02
3.111583e+03,2.109701e+02
3.112547e+03,1.991790e+02
3.113511e+03,1.956098e+02
3.114476e+03,2.000224e+02
3.115440e+03,2.222227e+02
3.116404e+03,2.316814e+02
3.117368e+03,2.131785e+02
3.118333e+03,2.042341e+02
3.119297e+03,2.049918e+02
3.120261e+03,2.131834e+02
3.121225e+03,2.213752e+02
3.122189e+03,2.255971e+02
3.123154e+03,2.281037e+02
3.124118e+03,2.285869e+02
3.125082e+03,2.241469e+02
3.126046e+03,2.238670e+02
3.127011e+03,2.319293e+02
3.127975e+03,2.262708e+02
3.128939e+03,2.108826e+02
3.129903e+03,2.127479e+02
3.130868e+03,2.210060e+02
3.131832e+03,2.304474e+02
3.132796e+03,2.366364e+02
3.133760e+03,2.363170e+02
3.134725e+03,2.172238e+02
3.135689e+03,1.982731e+02
3.136653e+03,1.968611e+02
3.137617e+03,1.999995e+02
3.138582e+03,2.042496e+02
3.139546e+03,2.072478e+02
3.140510e+03,2.103649e+02
3.141474e+03,2.160707e+02
3.142438e+03,2.233725e+02
3.143403e+03,2.289565e+02
3.144367e+03,1.945976e+02
3.145331e+03,1.557824e+02
3.146295e+03,1.823907e+02
3.147260e+03,2.091566e+02
3.148224e+03,2.193909e+02
3.149188e+03,2.202473e+02
3.150152e+03,2.164757e+02
3.151116e+03,2.126270e+02
3.152081e+03,2.144908e+02
3.153045e+03,2.241527e+02
3.154009e+03,2.132052e+02
3.154973e+03,1.954135e+02
3.155938e+03,2.044903e+02
3.156902e+03,2.102486e+02
3.157866e+03,2.039507e+02
3.158830e+03,1.931983e+02
3.159795e+03,1.851594e+02
3.160759e+03,1.966295e+02
3.161723e+03,2.088526e+02
3.162687e+03,2.144191e+02
3.163652e+03,2.040264e+02
3.164616e+03,1.942641e+02
3.165580e+03,2.180597e+02
3.166544e+03,2.392210e+02
3.167509e+03,2.427633e+02
3.168473e+03,2.232166e+02
3.169437e+03,1.955562e+02
3.170401e+03,2.093481e+02
3.171365e+03,2.194937e+02
3.172330e+03,2.062192e+02
3.173294e+03,2.006883e+02
3.174258e+03,2.003571e+02
3.175222e+03,1.926437e+02
3.176187e+03,1.901391e+02
3.177151e+03,2.023772e+02
3.178115e+03,2.142596e+02
3.179079e+03,2.220977e+02
3.180043e+03,2.167992e+02
3.181008e+03,2.151905e+02
3.181972e+03,2.232457e+02
3.182936e+03,2.274639e+02
3.183900e+03,2.256223e+02
3.184865e+03,2.090374e+02
3.185829e+03,1.997710e+02
3.186793e+03,2.226404e+02
3.187757e+03,2.202332e+02
3.188722e+03,2.077531e+02
3.189686e+03,2.238742e+02
3.190650e+03,2.316452e+02
3.191614e+03,2.179802e+02
3.192579e+03,2.169566e+02
3.193543e+03,2.255225e+02
3.194507e+03,2.259273e+02
3.195471e+03,2.185537e+02
3.196436e+03,2.018472e+02
3.197400e+03,1.980418e+02
3.198364e+03,2.078484e+02
3.199328e+03,2.326245e+02
3.200292e+03,2.416330e+02
3.201257e+03,0.000000e+00
3.202221e+03,0.000000e+00
3.203185e+03,0.000000e+00
3.204149e+03,0.000000e+00
3.205114e+03,0.000000e+00
3.206078e+03,0.000000e+00
3.207042e+03,0.000000e+00
3.208006e+03,0.000000e+00
3.208970e+03,0.000000e+00
3.209935e+03,0.000000e+00
3.210899e+03,0.000000e+00
3.211863e+03,0.000000e+00
3.212827e+03,0.000000e+00
3.213792e+03,0.000000e+00
3.214756e+03,0.000000e+00
3.215720e+03,0.000000e+00
3.216684e+03,0.000000e+00
3.217649e+03,0.000000e+00
3.218613e+03,0.000000e+00
3.219577e+03,0.000000e+00
3.220541e+03,0.000000e+00
3.221506e+03,0.000000e+00
3.222470e+03,0.000000e+00
3.223434e+03,0.000000e+00
3.224398e+03,0.000000e+00
3.225363e+03,0.000000e+00
3.226327e+03,0.000000e+00
3.227291e+03,0.000000e+00
3.228255e+03,0.000000e+00
3.229219e+03,0.000000e+00
3.230184e+03,0.000000e+00
3.231148e+03,0.000000e+00
3.232112e+03,0.000000e+00
3.233076e+03,0.000000e+00
3.234041e+03,0.000000e+00
3.235005e+03,0.000000e+00
3.235969e+03,0.000000e+00
3.236933e+03,0.000000e+00
3.237897e+03,0.000000e+00
3.238862e+03,0.000000e+00
3.239826e+03,0.000000e+00
3.240790e+03,0.000000e+00
3.241754e+03,0.000000e+00
3.242719e+03,0.000000e+00
3.243683e+03,0.000000e+00
3.244647e+03,0.000000e+00
3.245611e+03,0.000000e+00
3.246576e+03,0.000000e+00
3.247540e+03,0.000000e+00
3.248504e+03,0.000000e+00
3.249468e+03,0.000000e+00
3.250433e+03,0.000000e+00
3.251397e+03,0.000000e+00
3.252361e+03,0.000000e+00
3.253325e+03,0.000000e+00
3.254290e+03,0.000000e+00
3.255254e+03,0.000000e+00
3.256218e+03,0.000000e+00
3.257182e+03,0.000000e+00
3.258146e+03,0.000000e+00
3.259111e+03,0.000000e+00
3.260075e+03,0.000000e+00
3.261039e+03,0.000000e+00
3.262003e+03,0.000000e+00
3.262968e+03,0.000000e+00
3.263932e+03,0.000000e+00
3.264896e+03,0.000000e+00
3.265860e+03,0.000000e+00
3.266824e+03,0.000000e+00
3.267789e+03,0.000000e+00
3.268753e+03,0.000000e+00
3.269717e+03,0.000000e+00
3.270681e+03,0.000000e+00
3.271646e+03,0.000000e+00
3.272610e+03,0.000000e+00
3.273574e+03,0.000000e+00
3.274538e+03,0.000000e+00
3.275503e+03,0.000000e+00
3.276467e+03,0.000000e+00
3.277431e+03,0.000000e+00
3.278395e+03,0.000000e+00
3.279360e+03,0.000000e+00
3.280324e+03,0.000000e+00
3.281288e+03,0.000000e+00
3.282252e+03,0.000000e+00
3.283217e+03,0.000000e+00
3.284181e+03,0.000000e+00
3.285145e+03,0.000000e+00
3.286109e+03,0.000000e+00
3.287073e+03,0.000000e+00
3.288038e+03,0.000000e+00
3.289002e+03,0.000000e+00
3.289966e+03,0.000000e+00
3.290930e+03,0.000000e+00
3.291895e+03,0.000000e+00
3.292859e+03,0.000000e+00
3.293823e+03,0.000000e+00
3.294787e+03,0.000000e+00
3.295751e+03,0.000000e+00
3.296716e+03,0.000000e+00
3.297680e+03,0.000000e+00
3.298644e+03,0.000000e+00
3.299608e+03,0.000000e+00
3.300573e+03,0.000000e+00
3.301537e+03,0.000000e+00
3.302501e+03,0.000000e+00
3.303465e+03,0.000000e+00
3.304430e+03,0.000000e+00
3.305394e+03,0.000000e+00
3.306358e+03,0.000000e+00
3.307322e+03,0.000000e+00
3.308287e+03,0.000000e+00
3.309251e+03,0.000000e+00
3.310215e+03,0.000000e+00
3.311179e+03,0.000000e+00
3.312144e+03,0.000000e+00
3.313108e+03,0.000000e+00
3.314072e+03,0.000000e+00
3.315036e+03,0.000000e+00
3.316000e+03,0.000000e+00
3.316965e+03,0.000000e+00
3.317929e+03,0.000000e+00
3.318893e+03,0.000000e+00
3.319857e+03,0.000000e+00
3.320822e+03,0.000000e+00
3.321786e+03,0.000000e+00
3.322750e+03,0.000000e+00
3.323714e+03,0.000000e+00
3.324678e+03,0.000000e+00
3.325643e+03,0.000000e+00
3.326607e+03,0.000000e+00
3.327571e+03,0.000000e+00
3.328535e+03,0.000000e+00
3.329500e+03,0.000000e+00
3.330464e+03,0.000000e+00
3.331428e+03,0.000000e+00
3.332392e+03,0.000000e+00
3.333357e+03,0.000000e+00
3.334321e+03,0.000000e+00
3.335285e+03,0.000000e+00
3.336249e+03,0.000000e+00
3.337214e+03,0.000000e+00
3.338178e+03,0.000000e+00
3.339142e+03,0.000000e+00
3.340106e+03,0.000000e+00
3.341071e+03,0.000000e+00
3.342035e+03,0.000000e+00
3.342999e+03,0.000000e+00
3.343963e+03,0.000000e+00
3.344927e+03,0.000000e+00
3.345892e+03,0.000000e+00
3.346856e+03,0.000000e+00
3.347820e+03,0.000000e+00
3.348784e+03,0.000000e+00
3.349749e+03,0.000000e+00
3.350713e+03,0.000000e+00
3.351677e+03,0.000000e+00
3.352641e+03,0.000000e+00
3.353605e+03,0.000000e+00
3.354570e+03,0.000000e+00
3.355534e+03,0.000000e+00
3.356498e+03,0.000000e+00
3.357462e+03,0.000000e+00
3.358427e+03,0.000000e+00
3.359391e+03,0.000000e+00
3.360355e+03,0.000000e+00
3.361319e+03,0.000000e+00
3.362284e+03,0.000000e+00
3.363248e+03,0.000000e+00
3.364212e+03,0.000000e+00
3.365176e+03,0.000000e+00
3.366141e+03,0.000000e+00
3.367105e+03,0.000000e+00
3.368069e+03,0.000000e+00
3.369033e+03,0.000000e+00
3.369998e+03,0.000000e+00
3.370962e+03,0.000000e+00
3.371926e+03,0.000000e+00
3.372890e+03,0.000000e+00
3.373854e+03,0.000000e+00
3.374819e+03,0.000000e+00
3.375783e+03,0.000000e+00
3.376747e+03,0.000000e+00
3.377711e+03,0.000000e+00
3.378676e+03,0.000000e+00
3.379640e+03,0.000000e+00
3.380604e+03,0.000000e+00
3.381568e+03,0.000000e+00
3.382532e+03,0.000000e+00
3.383497e+03,0.000000e+00
3.384461e+03,0.000000e+00
3.385425e+03,0.000000e+00
3.386389e+03,0.000000e+00
3.387354e+03,0.000000e+00
3.388318e+03,0.000000e+00
3.389282e+03,0.000000e+00
3.390246e+03,0.000000e+00
3.391211e+03,0.000000e+00
3.392175e+03,0.000000e+00
3.393139e+03,0.000000e+00
3.394103e+03,0.000000e+00
3.395068e+03,0.000000e+00
3.396032e+03,0.000000e+00
3.396996e+03,0.000000e+00
3.397960e+03,0.000000e+00
3.398925e+03,0.000000e+00
3.399889e+03,0.000000e+00
3.400853e+03,0.000000e+00
3.401817e+03,0.000000e+00
3.402781e+03,0.000000e+00
3.403746e+03,0.000000e+00
3.404710e+03,0.000000e+00
3.405674e+03,0.000000e+00
3.406638e+03,0.000000e+00
3.407603e+03,0.000000e+00
3.408567e+03,0.000000e+00
3.409531e+03,0.000000e+00
3.410495e+03,0.000000e+00
3.411459e+03,0.000000e+00
3.412424e+03,0.000000e+00
3.413388e+03,0.000000e+00
3.414352e+03,0.000000e+00
3.415316e+03,0.000000e+00
3.416281e+03,0.000000e+00
3.417245e+03,0.000000e+00
3.418209e+03,0.000000e+00
3.419173e+03,0.000000e+00
3.420138e+03,0.000000e+00
3.421102e+03,0.000000e+00
3.422066e+03,0.000000e+00
3.423030e+03,0.000000e+00
3.423995e+03,0.000000e+00
3.424959e+03,0.000000e+00
3.425923e+03,0.000000e+00
3.426887e+03,0.000000e+00
3.427852e+03,0.000000e+00
3.428816e+03,0.000000e+00
3.429780e+03,0.000000e+00
3.430744e+03,0.000000e+00
3.431708e+03,0.000000e+00
3.432673e+03,0.000000e+00
3.433637e+03,0.000000e+00
3.434601e+03,0.000000e+00
3.435565e+03,0.000000e+00
3.436530e+03,0.000000e+00
3.437494e+03,0.000000e+00
3.438458e+03,0.000000e+00
3.439422e+03,0.000000e+00
3.440386e+03,0.000000e+00
3.441351e+03,0.000000e+00
3.442315e+03,0.000000e+00
3.443279e+03,0.000000e+00
3.444243e+03,0.000000e+00
3.445208e+03,0.000000e+00
3.446172e+03,0.000000e+00
3.447136e+03,0.000000e+00
3.448100e+03,0.000000e+00
3.449065e+03,0.000000e+00
3.450029e+03,0.000000e+00
3.450993e+03,0.000000e+00
3.451957e+03,0.000000e+00
3.452922e+03,0.000000e+00
3.453886e+03,0.000000e+00
3.454850e+03,0.000000e+00
3.455814e+03,0.000000e+00
3.456779e+03,0.000000e+00
3.457743e+03,0.000000e+00
3.458707e+03,0.000000e+00
3.459671e+03,0.000000e+00
3.460635e+03,0.000000e+00
3.461600e+03,0.000000e+00
3.462564e+03,0.000000e+00
3.463528e+03,0.000000e+00
3.464492e+03,0.000000e+00
3.465457e+03,0.000000e+00
3.466421e+03,0.000000e+00
3.467385e+03,0.000000e+00
3.468349e+03,0.000000e+00
3.469313e+03,0.000000e+00
3.470278e+03,0.000000e+00
3.471242e+03,0.000000e+00
3.472206e+03,0.000000e+00
3.473170e+03,0.000000e+00
3.474135e+03,0.000000e+00
3.475099e+03,0.000000e+00
3.476063e+03,0.000000e+00
3.477027e+03,0.000000e+00
3.477992e+03,0.000000e+00
3.478956e+03,0.000000e+00
3.479920e+03,0.000000e+00
3.480884e+03,0.000000e+00
3.481849e+03,0.000000e+00
3.482813e+03,0.000000e+00
3.483777e+03,0.000000e+00
3.484741e+03,0.000000e+00
3.485706e+03,0.000000e+00
3.486670e+03,0.000000e+00
3.487634e+03,0.000000e+00
3.488598e+03,0.000000e+00
3.489563e+03,0.000000e+00
3.490527e+03,0.000000e+00
3.491491e+03,0.000000e+00
3.492455e+03,0.000000e+00
3.493419e+03,0.000000e+00
3.494384e+03,0.000000e+00
3.495348e+03,0.000000e+00
3.496312e+03,0.000000e+00
3.497276e+03,0.000000e+00
3.498240e+03,0.000000e+00
3.499205e+03,0.000000e+00
3.500169e+03,0.000000e+00
