9.931763e+01,0.000000e+00
1.002819e+02,0.000000e+00
1.012461e+02,0.000000e+00
1.022103e+02,0.000000e+00
1.031746e+02,0.000000e+00
1.041388e+02,0.000000e+00
1.051030e+02,0.000000e+00
1.060673e+02,0.000000e+00
1.070315e+02,0.000000e+00
1.079957e+02,0.000000e+00
1.089600e+02,0.000000e+00
1.099242e+02,0.000000e+00
1.108884e+02,0.000000e+00
1.118527e+02,0.000000e+00
1.128169e+02,0.000000e+00
1.137811e+02,0.000000e+00
1.147454e+02,0.000000e+00
1.157096e+02,0.000000e+00
1.166738e+02,0.000000e+00
1.176381e+02,0.000000e+00
1.186023e+02,0.000000e+00
1.195665e+02,0.000000e+00
1.205308e+02,0.000000e+00
1.214950e+02,0.000000e+00
1.224592e+02,0.000000e+00
1.234235e+02,0.000000e+00
1.243877e+02,0.000000e+00
1.253519e+02,0.000000e+00
1.263162e+02,0.000000e+00
1.272804e+02,0.000000e+00
1.282446e+02,0.000000e+00
1.292089e+02,0.000000e+00
1.301731e+02,0.000000e+00
1.311373e+02,0.000000e+00
1.321016e+02,0.000000e+00
1.330658e+02,0.000000e+00
1.340300e+02,0.000000e+00
1.349943e+02,0.000000e+00
1.359585e+02,0.000000e+00
1.369227e+02,0.000000e+00
1.378870e+02,0.000000e+00
1.388512e+02,0.000000e+00
1.398154e+02,0.000000e+00
1.407797e+02,0.000000e+00
1.417439e+02,0.000000e+00
1.427081e+02,0.000000e+00
1.436724e+02,0.000000e+00
1.446366e+02,0.000000e+00
1.456008e+02,0.000000e+00
1.465651e+02,0.000000e+00
1.475293e+02,0.000000e+00
1.484935e+02,0.000000e+00
1.494578e+02,0.000000e+00
1.504220e+02,0.000000e+00
1.513862e+02,0.000000e+00
1.523505e+02,0.000000e+00
1.533147e+02,0.000000e+00
1.542789e+02,0.000000e+00
1.552432e+02,0.000000e+00
1.562074e+02,0.000000e+00
1.571716e+02,0.000000e+00
1.581359e+02,0.000000e+00
1.591001e+02,0.000000e+00
1.600643e+02,0.000000e+00
1.610286e+02,0.000000e+00
1.619928e+02,0.000000e+00
1.629570e+02,0.000000e+00
1.639213e+02,0.000000e+00
1.648855e+02,0.000000e+00
1.658497e+02,0.000000e+00
1.668140e+02,0.000000e+00
1.677782e+02,0.000000e+00
1.687424e+02,0.000000e+00
1.697067e+02,0.000000e+00
1.706709e+02,0.000000e+00
1.716351e+02,0.000000e+00
1.725994e+02,0.000000e+00
1.735636e+02,0.000000e+00
1.745278e+02,0.000000e+00
1.754921e+02,0.000000e+00
1.764563e+02,0.000000e+00
1.774205e+02,0.000000e+00
1.783848e+02,0.000000e+00
1.793490e+02,0.000000e+00
1.803132e+02,0.000000e+00
1.812775e+02,0.000000e+00
1.822417e+02,0.000000e+00
1.832059e+02,0.000000e+00
1.841702e+02,0.000000e+00
1.851344e+02,0.000000e+00
1.860986e+02,0.000000e+00
1.870629e+02,0.000000e+00
1.880271e+02,0.000000e+00
1.889913e+02,0.000000e+00
1.899556e+02,0.000000e+00
1.909198e+02,0.000000e+00
1.918840e+02,0.000000e+00
1.928483e+02,0.000000e+00
1.938125e+02,0.000000e+00
1.947767e+02,0.000000e+00
1.957410e+02,0.000000e+00
1.967052e+02,0.000000e+00
1.976694e+02,0.000000e+00
1.986337e+02,0.000000e+00
1.995979e+02,5.689298e+02
2.005621e+02,5.692327e+02
2.015264e+02,5.690599e+02
2.024906e+02,5.669487e+02
2.034548e+02,5.656247e+02
2.044191e+02,5.661989e+02
2.053833e+02,5.682197e+02
2.063475e+02,5.702156e+02
2.073118e+02,5.706860e+02
2.082760e+02,5.692025e+02
2.092402e+02,5.674492e+02
2.102045e+02,5.649803e+02
2.111687e+02,5.629489e+02
2.121329e+02,5.622958e+02
2.130972e+02,5.635424e+02
2.140614e+02,5.658256e+02
2.150256e+02,5.670710e+02
2.159899e+02,5.663652e+02
2.169541e+02,5.660730e+02
2.179183e+02,5.675593e+02
2.188826e+02,5.703625e+02
2.198468e+02,5.730071e+02
2.208110e+02,5.747554e+02
2.217753e+02,5.755159e+02
2.227395e+02,5.745947e+02
2.237037e+02,5.704015e+02
2.246680e+02,5.656721e+02
2.256322e+02,5.628824e+02
2.265964e+02,5.633766e+02
2.275607e+02,5.651690e+02
2.285249e+02,5.659483e+02
2.294892e+02,5.654889e+02
2.304534e+02,5.652156e+02
2.314176e+02,5.660060e+02
2.323819e+02,5.675328e+02
2.333461e+02,5.689919e+02
2.343103e+02,5.707726e+02
2.352746e+02,5.724110e+02
2.362388e+02,5.726813e+02
2.372030e+02,5.707887e+02
2.381673e+02,5.676959e+02
2.391315e+02,5.656342e+02
2.400957e+02,5.657204e+02
2.410600e+02,5.658259e+02
2.420242e+02,5.647352e+02
2.429884e+02,5.630036e+02
2.439527e+02,5.622470e+02
2.449169e+02,5.635144e+02
2.458811e+02,5.670236e+02
2.468454e+02,5.697607e+02
2.478096e+02,5.720883e+02
2.487738e+02,5.735217e+02
2.497381e+02,5.731326e+02
2.507023e+02,5.708578e+02
2.516665e+02,5.681486e+02
2.526308e+02,5.673118e+02
2.535950e+02,5.707530e+02
2.545592e+02,5.727154e+02
2.555235e+02,5.726661e+02
2.564877e+02,5.713404e+02
2.574519e+02,5.695797e+02
2.584161e+02,5.678433e+02
2.593804e+02,5.662355e+02
2.603446e+02,5.650250e+02
2.613088e+02,5.636104e+02
2.622731e+02,5.628652e+02
2.632373e+02,5.634100e+02
2.642015e+02,5.649401e+02
2.651658e+02,5.664716e+02
2.661300e+02,5.670641e+02
2.670942e+02,5.666619e+02
2.680585e+02,5.667108e+02
2.690227e+02,5.682646e+02
2.699869e+02,5.699388e+02
2.709512e+02,5.706156e+02
2.719154e+02,5.698362e+02
2.728796e+02,5.685130e+02
2.738439e+02,5.680785e+02
2.748081e+02,5.690162e+02
2.757723e+02,5.698006e+02
2.767366e+02,5.682887e+02
2.777008e+02,5.649154e+02
2.786650e+02,5.622985e+02
2.796293e+02,5.618224e+02
2.805935e+02,5.627714e+02
2.815577e+02,5.639417e+02
2.825220e+02,5.652075e+02
2.834862e+02,5.661534e+02
2.844504e+02,5.660400e+02
2.854147e+02,5.647010e+02
2.863789e+02,5.630895e+02
2.873431e+02,5.607137e+02
2.883074e+02,5.583727e+02
2.892716e+02,5.578710e+02
2.902358e+02,5.605521e+02
2.912001e+02,5.663698e+02
2.921643e+02,5.691771e+02
2.931285e+02,5.669739e+02
2.940928e+02,5.642480e+02
2.950570e+02,5.621945e+02
2.960212e+02,5.610844e+02
2.969855e+02,5.612131e+02
2.979497e+02,5.635626e+02
2.989139e+02,5.700544e+02
2.998782e+02,5.742993e+02
3.008424e+02,5.755899e+02
3.018066e+02,5.754309e+02
3.027709e+02,5.743866e+02
3.037351e+02,5.723404e+02
3.046993e+02,5.699887e+02
3.056636e+02,5.688593e+02
3.066278e+02,5.695071e+02
3.075920e+02,5.703930e+02
3.085563e+02,5.708591e+02
3.095205e+02,5.711641e+02
3.104847e+02,5.716288e+02
3.114490e+02,5.723702e+02
3.124132e+02,5.731291e+02
3.133774e+02,5.734183e+02
3.143417e+02,5.729581e+02
3.153059e+02,5.722633e+02
3.162701e+02,5.723543e+02
3.172344e+02,5.737718e+02
3.181986e+02,5.749553e+02
3.191628e+02,5.752657e+02
3.201271e+02,5.750685e+02
3.210913e+02,5.749835e+02
3.220555e+02,5.752391e+02
3.230198e+02,5.757607e+02
3.239840e+02,5.763349e+02
3.249482e+02,5.765530e+02
3.259125e+02,5.771331e+02
3.268767e+02,5.793338e+02
3.278409e+02,5.823681e+02
3.288052e+02,5.840921e+02
3.297694e+02,5.817594e+02
3.307336e+02,5.740078e+02
3.316979e+02,5.695918e+02
3.326621e+02,5.715143e+02
3.336263e+02,5.747343e+02
3.345906e+02,5.772605e+02
3.355548e+02,5.788505e+02
3.365190e+02,5.797190e+02
3.374833e+02,5.795936e+02
3.384475e+02,5.782572e+02
3.394117e+02,5.774349e+02
3.403760e+02,5.777502e+02
3.413402e+02,5.788086e+02
3.423044e+02,5.799474e+02
3.432687e+02,5.814507e+02
3.442329e+02,5.827209e+02
3.451971e+02,5.829088e+02
3.461614e+02,5.818450e+02
3.471256e+02,5.803776e+02
3.480898e+02,5.794214e+02
3.490541e+02,5.793973e+02
3.500183e+02,5.792313e+02
3.509825e+02,5.792182e+02
3.519468e+02,5.791801e+02
3.529110e+02,5.785191e+02
3.538752e+02,5.770094e+02
3.548395e+02,5.754442e+02
3.558037e+02,5.756030e+02
3.567680e+02,5.794338e+02
3.577322e+02,5.818035e+02
3.586964e+02,5.811852e+02
3.596607e+02,5.795245e+02
3.606249e+02,5.789403e+02
3.615891e+02,5.808450e+02
3.625534e+02,5.836669e+02
3.635176e+02,5.839625e+02
3.644818e+02,5.811793e+02
3.654461e+02,5.776561e+02
3.664103e+02,5.741542e+02
3.673745e+02,5.710926e+02
3.683388e+02,5.701653e+02
3.693030e+02,5.724125e+02
3.702672e+02,5.766134e+02
3.712315e+02,5.813791e+02
3.721957e+02,5.865208e+02
3.731599e+02,5.915018e+02
3.741242e+02,5.957048e+02
3.750884e+02,5.996191e+02
3.760526e+02,6.027542e+02
3.770169e+02,6.057929e+02
3.779811e+02,6.076942e+02
3.789453e+02,6.068174e+02
3.799096e+02,6.020333e+02
3.808738e+02,5.944744e+02
3.818380e+02,5.886246e+02
3.828023e+02,5.858068e+02
3.837665e+02,5.836092e+02
3.847307e+02,5.813965e+02
3.856950e+02,5.791276e+02
3.866592e+02,5.767513e+02
3.876234e+02,5.741125e+02
3.885877e+02,5.712808e+02
3.895519e+02,5.683533e+02
3.905161e+02,5.650065e+02
3.914804e+02,5.619877e+02
3.924446e+02,5.604319e+02
3.934088e+02,5.607194e+02
3.943731e+02,5.610455e+02
3.953373e+02,5.609094e+02
3.963015e+02,5.604949e+02
3.972658e+02,5.601041e+02
3.982300e+02,5.599274e+02
3.991942e+02,5.599887e+02
4.001585e+02,5.598864e+02
4.011227e+02,5.588304e+02
4.020869e+02,5.580985e+02
4.030512e+02,5.576375e+02
4.040154e+02,5.574023e+02
4.049796e+02,5.575455e+02
4.059439e+02,5.584463e+02
4.069081e+02,5.597337e+02
4.078723e+02,5.598563e+02
4.088366e+02,5.578823e+02
4.098008e+02,5.559609e+02
4.107650e+02,5.562147e+02
4.117293e+02,5.584935e+02
4.126935e+02,5.602328e+02
4.136577e+02,5.598163e+02
4.146220e+02,5.585238e+02
4.155862e+02,5.584608e+02
4.165504e+02,5.601981e+02
4.175147e+02,5.625909e+02
4.184789e+02,5.637863e+02
4.194431e+02,5.619465e+02
4.204074e+02,5.610469e+02
4.213716e+02,5.615095e+02
4.223358e+02,5.627770e+02
4.233001e+02,5.645517e+02
4.242643e+02,5.670021e+02
4.252285e+02,5.693403e+02
4.261928e+02,5.691107e+02
4.271570e+02,5.647058e+02
4.281212e+02,5.614949e+02
4.290855e+02,5.622682e+02
4.300497e+02,5.657530e+02
4.310139e+02,5.694633e+02
4.319782e+02,5.735724e+02
4.329424e+02,5.772545e+02
4.339066e+02,5.793496e+02
4.348709e+02,5.796874e+02
4.358351e+02,5.789638e+02
4.367993e+02,5.778727e+02
4.377636e+02,5.766125e+02
4.387278e+02,5.744083e+02
4.396920e+02,5.699384e+02
4.406563e+02,5.655658e+02
4.416205e+02,5.630452e+02
4.425847e+02,5.627743e+02
4.435490e+02,5.634945e+02
4.445132e+02,5.636545e+02
4.454774e+02,5.632430e+02
4.464417e+02,5.627191e+02
4.474059e+02,5.616152e+02
4.483701e+02,5.604991e+02
4.493344e+02,5.602007e+02
4.502986e+02,5.613652e+02
4.512628e+02,5.630996e+02
4.522271e+02,5.650242e+02
4.531913e+02,5.670577e+02
4.541555e+02,5.689479e+02
4.551198e+02,5.706987e+02
4.560840e+02,5.723376e+02
4.570482e+02,5.720754e+02
4.580125e+02,5.687549e+02
4.589767e+02,5.652247e+02
4.599409e+02,5.619416e+02
4.609052e+02,5.589368e+02
4.618694e+02,5.563762e+02
4.628336e+02,5.547694e+02
4.637979e+02,5.540344e+02
4.647621e+02,5.528647e+02
4.657263e+02,5.509611e+02
4.666906e+02,5.492482e+02
4.676548e+02,5.485714e+02
4.686190e+02,5.492262e+02
4.695833e+02,5.494297e+02
4.705475e+02,5.475455e+02
4.715117e+02,5.450533e+02
4.724760e+02,5.445180e+02
4.734402e+02,5.469686e+02
4.744044e+02,5.508806e+02
4.753687e+02,5.525450e+02
4.763329e+02,5.499548e+02
4.772971e+02,5.481879e+02
4.782614e+02,5.484648e+02
4.792256e+02,5.498275e+02
4.801898e+02,5.510532e+02
4.811541e+02,5.516215e+02
4.821183e+02,5.516863e+02
4.830826e+02,5.513690e+02
4.840468e+02,5.506028e+02
4.850110e+02,5.496910e+02
4.859753e+02,5.486742e+02
4.869395e+02,5.475022e+02
4.879037e+02,5.475504e+02
4.888680e+02,5.509457e+02
4.898322e+02,5.538870e+02
4.907964e+02,5.541124e+02
4.917607e+02,5.517689e+02
4.927249e+02,5.485240e+02
4.936891e+02,5.453067e+02
4.946534e+02,5.419933e+02
4.956176e+02,5.407064e+02
4.965818e+02,5.426931e+02
4.975461e+02,5.457937e+02
4.985103e+02,5.483807e+02
4.994745e+02,5.505474e+02
5.004388e+02,5.512868e+02
5.014030e+02,5.489998e+02
5.023672e+02,5.453918e+02
5.033315e+02,5.433836e+02
5.042957e+02,5.439345e+02
5.052599e+02,5.458879e+02
5.062242e+02,5.468513e+02
5.071884e+02,5.459060e+02
5.081526e+02,5.455963e+02
5.091169e+02,5.469568e+02
5.100811e+02,5.489553e+02
5.110453e+02,5.502108e+02
5.120095e+02,5.497320e+02
5.129738e+02,5.489739e+02
5.139380e+02,5.500742e+02
5.149022e+02,5.530162e+02
5.158665e+02,5.558129e+02
5.168307e+02,5.574662e+02
5.177949e+02,5.576657e+02
5.187592e+02,5.559575e+02
5.197234e+02,5.512004e+02
5.206876e+02,5.467203e+02
5.216519e+02,5.439784e+02
5.226161e+02,5.427495e+02
5.235803e+02,5.419589e+02
5.245446e+02,5.407473e+02
5.255088e+02,5.392067e+02
5.264730e+02,5.378949e+02
5.274373e+02,5.365584e+02
5.284015e+02,5.358917e+02
5.293657e+02,5.369713e+02
5.303300e+02,5.401482e+02
5.312942e+02,5.420632e+02
5.322584e+02,5.420784e+02
5.332227e+02,5.409495e+02
5.341869e+02,5.386132e+02
5.351511e+02,5.350893e+02
5.361154e+02,5.317988e+02
5.370796e+02,5.309564e+02
5.380438e+02,5.332664e+02
5.390081e+02,5.355330e+02
5.399723e+02,5.378683e+02
5.409365e+02,5.397772e+02
5.419008e+02,5.405708e+02
5.428650e+02,5.395160e+02
5.438292e+02,5.382278e+02
5.447935e+02,5.374296e+02
5.457577e+02,5.370540e+02
5.467219e+02,5.370025e+02
5.476862e+02,5.372715e+02
5.486504e+02,5.377773e+02
5.496146e+02,5.384563e+02
5.505789e+02,5.403197e+02
5.515431e+02,5.406412e+02
5.525073e+02,5.377778e+02
5.534716e+02,5.337432e+02
5.544358e+02,5.312034e+02
5.554000e+02,5.316272e+02
5.563643e+02,5.332484e+02
5.573285e+02,5.345510e+02
5.582927e+02,5.354973e+02
5.592570e+02,5.362679e+02
5.602212e+02,5.370712e+02
5.611854e+02,5.378585e+02
5.621497e+02,5.383333e+02
5.631139e+02,5.388831e+02
5.640781e+02,5.384327e+02
5.650424e+02,5.361004e+02
5.660066e+02,5.324998e+02
5.669708e+02,5.295493e+02
5.679351e+02,5.290524e+02
5.688993e+02,5.298183e+02
5.698635e+02,5.293504e+02
5.708278e+02,5.274092e+02
5.717920e+02,5.259192e+02
5.727562e+02,5.266968e+02
5.737205e+02,5.307057e+02
5.746847e+02,5.332450e+02
5.756489e+02,5.329698e+02
5.766132e+02,5.323267e+02
5.775774e+02,5.330672e+02
5.785416e+02,5.353313e+02
5.795059e+02,5.371050e+02
5.804701e+02,5.362654e+02
5.814343e+02,5.336115e+02
5.823986e+02,5.318649e+02
5.833628e+02,5.317325e+02
5.843270e+02,5.320586e+02
5.852913e+02,5.311332e+02
5.862555e+02,5.264968e+02
5.872197e+02,5.244206e+02
5.881840e+02,5.265675e+02
5.891482e+02,5.300970e+02
5.901124e+02,5.330753e+02
5.910767e+02,5.350790e+02
5.920409e+02,5.356888e+02
5.930051e+02,5.333075e+02
5.939694e+02,5.285715e+02
5.949336e+02,5.253881e+02
5.958978e+02,5.250442e+02
5.968621e+02,5.267993e+02
5.978263e+02,5.289890e+02
5.987905e+02,5.338636e+02
5.997548e+02,5.365866e+02
6.007190e+02,5.352059e+02
6.016832e+02,5.321473e+02
6.026475e+02,5.302169e+02
6.036117e+02,5.308655e+02
6.045759e+02,5.320577e+02
6.055402e+02,5.311685e+02
6.065044e+02,5.283513e+02
6.074686e+02,5.254928e+02
6.084329e+02,5.233503e+02
6.093971e+02,5.220295e+02
6.103613e+02,5.218002e+02
6.113256e+02,5.247439e+02
6.122899e+02,5.266008e+02
6.132541e+02,5.255037e+02
6.142183e+02,5.229461e+02
6.151826e+02,5.215438e+02
6.161468e+02,5.239143e+02
6.171110e+02,5.273079e+02
6.180753e+02,5.280707e+02
6.190395e+02,5.263674e+02
6.200037e+02,5.240621e+02
6.209680e+02,5.219707e+02
6.219322e+02,5.202266e+02
6.228964e+02,5.201950e+02
6.238607e+02,5.249957e+02
6.248249e+02,5.280749e+02
6.257891e+02,5.256136e+02
6.267534e+02,5.193569e+02
6.277176e+02,5.150300e+02
6.286818e+02,5.168333e+02
6.296461e+02,5.209846e+02
6.306103e+02,5.235711e+02
6.315745e+02,5.245161e+02
6.325388e+02,5.246995e+02
6.335030e+02,5.246608e+02
6.344672e+02,5.243245e+02
6.354315e+02,5.234677e+02
6.363957e+02,5.213843e+02
6.373599e+02,5.193249e+02
6.383242e+02,5.178577e+02
6.392884e+02,5.170562e+02
6.402526e+02,5.169994e+02
6.412169e+02,5.188806e+02
6.421811e+02,5.207590e+02
6.431453e+02,5.203776e+02
6.441096e+02,5.178590e+02
6.450738e+02,5.152282e+02
6.460380e+02,5.147181e+02
6.470023e+02,5.165108e+02
6.479665e+02,5.173707e+02
6.489307e+02,5.167964e+02
6.498950e+02,5.156873e+02
6.508592e+02,5.144466e+02
6.518234e+02,5.129202e+02
6.527877e+02,5.119745e+02
6.537519e+02,5.120364e+02
6.547161e+02,5.125967e+02
6.556804e+02,5.135528e+02
6.566446e+02,5.147982e+02
6.576088e+02,5.157977e+02
6.585731e+02,5.161038e+02
6.595373e+02,5.157336e+02
6.605015e+02,5.146397e+02
6.614658e+02,5.125928e+02
6.624300e+02,5.104517e+02
6.633942e+02,5.089743e+02
6.643585e+02,5.080923e+02
6.653227e+02,5.080908e+02
6.662869e+02,5.100196e+02
6.672512e+02,5.118640e+02
6.682154e+02,5.120856e+02
6.691796e+02,5.104624e+02
6.701439e+02,5.088772e+02
6.711081e+02,5.089934e+02
6.720723e+02,5.100776e+02
6.730366e+02,5.107506e+02
6.740008e+02,5.108514e+02
6.749650e+02,5.104612e+02
6.759293e+02,5.094513e+02
6.768935e+02,5.072628e+02
6.778577e+02,5.063561e+02
6.788220e+02,5.081741e+02
6.797862e+02,5.104894e+02
6.807504e+02,5.116418e+02
6.817147e+02,5.112674e+02
6.826789e+02,5.104615e+02
6.836431e+02,5.085899e+02
6.846074e+02,5.067896e+02
6.855716e+02,5.070836e+02
6.865358e+02,5.097832e+02
6.875001e+02,5.124185e+02
6.884643e+02,5.111729e+02
6.894285e+02,5.061248e+02
6.903928e+02,5.040424e+02
6.913570e+02,5.066686e+02
6.923212e+02,5.107237e+02
6.932855e+02,5.126954e+02
6.942497e+02,5.112687e+02
6.952139e+02,5.108157e+02
6.961782e+02,5.128937e+02
6.971424e+02,5.148290e+02
6.981066e+02,5.142513e+02
6.990709e+02,5.105305e+02
7.000351e+02,5.062284e+02
7.009993e+02,5.025644e+02
7.019636e+02,5.001969e+02
7.029278e+02,5.012158e+02
7.038920e+02,5.061361e+02
7.048563e+02,5.112673e+02
7.058205e+02,5.115932e+02
7.067847e+02,5.051917e+02
7.077490e+02,5.013438e+02
7.087132e+02,5.016239e+02
7.096774e+02,5.039270e+02
7.106417e+02,5.065882e+02
7.116059e+02,5.099707e+02
7.125701e+02,5.115582e+02
7.135344e+02,5.092555e+02
7.144986e+02,5.058940e+02
7.154628e+02,5.037928e+02
7.164271e+02,5.033191e+02
7.173913e+02,5.037764e+02
7.183555e+02,5.053384e+02
7.193198e+02,5.074983e+02
7.202840e+02,5.072948e+02
7.212482e+02,5.039381e+02
7.222125e+02,5.002267e+02
7.231767e+02,4.991059e+02
7.241409e+02,5.016089e+02
7.251052e+02,5.034048e+02
7.260694e+02,5.046120e+02
7.270336e+02,5.049732e+02
7.279979e+02,5.043398e+02
7.289621e+02,5.026700e+02
7.299263e+02,5.004767e+02
7.308906e+02,4.963309e+02
7.318548e+02,4.925543e+02
7.328190e+02,4.925377e+02
7.337833e+02,4.962969e+02
7.347475e+02,5.002849e+02
7.357117e+02,5.007632e+02
7.366760e+02,4.981890e+02
7.376402e+02,4.965530e+02
7.386044e+02,4.961589e+02
7.395687e+02,4.964253e+02
7.405329e+02,4.968861e+02
7.414971e+02,4.976406e+02
7.424614e+02,4.980172e+02
7.434256e+02,4.985035e+02
7.443898e+02,4.987296e+02
7.453541e+02,4.978072e+02
7.463183e+02,4.956933e+02
7.472825e+02,4.942416e+02
7.482468e+02,4.954091e+02
7.492110e+02,4.970895e+02
7.501752e+02,4.971021e+02
7.511395e+02,4.956652e+02
7.521037e+02,4.940140e+02
7.530679e+02,4.925772e+02
7.540322e+02,4.913817e+02
7.549964e+02,4.922072e+02
7.559606e+02,4.960273e+02
7.569249e+02,4.988223e+02
7.578891e+02,4.973904e+02
7.588533e+02,4.914087e+02
7.598176e+02,4.887010e+02
7.607818e+02,4.916199e+02
7.617460e+02,4.945370e+02
7.627103e+02,4.955424e+02
7.636745e+02,4.952813e+02
7.646387e+02,4.954903e+02
7.656030e+02,4.981108e+02
7.665672e+02,5.004699e+02
7.675314e+02,4.993525e+02
7.684957e+02,4.953955e+02
7.694599e+02,4.917017e+02
7.704241e+02,4.906307e+02
7.713884e+02,4.914742e+02
7.723526e+02,4.919256e+02
7.733168e+02,4.921177e+02
7.742811e+02,4.916775e+02
7.752453e+02,4.897154e+02
7.762095e+02,4.866078e+02
7.771738e+02,4.854589e+02
7.781380e+02,4.875957e+02
7.791022e+02,4.897053e+02
7.800665e+02,4.918395e+02
7.810307e+02,4.935711e+02
7.819949e+02,4.941561e+02
7.829592e+02,4.923357e+02
7.839234e+02,4.907699e+02
7.848876e+02,4.910588e+02
7.858519e+02,4.922510e+02
7.868161e+02,4.929381e+02
7.877803e+02,4.925756e+02
7.887446e+02,4.913196e+02
7.897088e+02,4.888855e+02
7.906730e+02,4.857187e+02
7.916373e+02,4.838895e+02
7.926015e+02,4.838729e+02
7.935657e+02,4.848351e+02
7.945300e+02,4.857272e+02
7.954942e+02,4.866154e+02
7.964584e+02,4.878538e+02
7.974227e+02,4.910331e+02
7.983869e+02,4.943920e+02
7.993511e+02,4.951877e+02
8.003154e+02,4.915053e+02
8.012796e+02,4.879506e+02
8.022438e+02,4.850190e+02
8.032081e+02,4.830794e+02
8.041723e+02,4.829302e+02
8.051365e+02,4.847672e+02
8.061008e+02,4.859640e+02
8.070650e+02,4.833717e+02
8.080292e+02,4.790244e+02
8.089935e+02,4.765973e+02
8.099577e+02,4.767849e+02
8.109219e+02,4.783732e+02
8.118862e+02,4.805896e+02
8.128504e+02,4.833670e+02
8.138146e+02,4.844464e+02
8.147789e+02,4.831919e+02
8.157431e+02,4.814734e+02
8.167073e+02,4.809833e+02
8.176716e+02,4.823067e+02
8.186358e+02,4.830078e+02
8.196000e+02,4.821200e+02
8.205643e+02,4.814422e+02
8.215285e+02,4.819430e+02
8.224927e+02,4.833481e+02
8.234570e+02,4.837007e+02
8.244212e+02,4.807752e+02
8.253854e+02,4.782021e+02
8.263497e+02,4.789920e+02
8.273139e+02,4.819356e+02
8.282781e+02,4.837325e+02
8.292424e+02,4.816708e+02
8.302066e+02,4.783008e+02
8.311708e+02,4.774102e+02
8.321351e+02,4.785158e+02
8.330993e+02,4.790089e+02
8.340635e+02,4.771550e+02
8.350278e+02,4.740969e+02
8.359920e+02,4.739947e+02
8.369562e+02,4.776768e+02
8.379205e+02,4.798628e+02
8.388847e+02,4.781198e+02
8.398489e+02,4.742609e+02
8.408132e+02,4.728707e+02
8.417774e+02,4.760036e+02
8.427416e+02,4.785363e+02
8.437059e+02,4.802148e+02
8.446701e+02,4.809622e+02
8.456343e+02,4.806224e+02
8.465986e+02,4.784812e+02
8.475628e+02,4.765256e+02
8.485270e+02,4.754585e+02
8.494913e+02,4.748617e+02
8.504555e+02,4.743112e+02
8.514197e+02,4.737537e+02
8.523840e+02,4.736295e+02
8.533482e+02,4.747686e+02
8.543124e+02,4.763183e+02
8.552767e+02,4.764929e+02
8.562409e+02,4.750618e+02
8.572051e+02,4.734616e+02
8.581694e+02,4.735754e+02
8.591336e+02,4.752612e+02
8.600978e+02,4.759814e+02
8.610621e+02,4.756476e+02
8.620263e+02,4.747725e+02
8.629905e+02,4.733571e+02
8.639548e+02,4.711380e+02
8.649190e+02,4.700596e+02
8.658832e+02,4.706565e+02
8.668475e+02,4.721392e+02
8.678117e+02,4.747852e+02
8.687759e+02,4.781960e+02
8.697402e+02,4.804644e+02
8.707044e+02,4.806072e+02
8.716686e+02,4.800081e+02
8.726329e+02,4.790435e+02
8.735971e+02,4.780562e+02
8.745613e+02,4.774121e+02
8.755256e+02,4.775823e+02
8.764898e+02,4.780471e+02
8.774540e+02,4.780372e+02
8.784183e+02,4.779762e+02
8.793825e+02,4.788275e+02
8.803467e+02,4.811029e+02
8.813110e+02,4.836404e+02
8.822752e+02,4.852798e+02
8.832394e+02,4.861546e+02
8.842037e+02,4.862603e+02
8.851679e+02,4.854222e+02
8.861321e+02,4.840599e+02
8.870964e+02,4.827974e+02
8.880606e+02,4.816080e+02
8.890248e+02,4.804282e+02
8.899891e+02,4.794887e+02
8.909533e+02,4.786193e+02
8.919175e+02,4.775257e+02
8.928818e+02,4.761082e+02
8.938460e+02,4.748026e+02
8.948102e+02,4.726756e+02
8.957745e+02,4.714346e+02
8.967387e+02,4.729131e+02
8.977029e+02,4.768314e+02
8.986672e+02,4.788486e+02
8.996314e+02,4.773238e+02
9.005956e+02,4.756865e+02
9.015599e+02,4.754828e+02
9.025241e+02,4.761668e+02
9.034883e+02,4.763065e+02
9.044526e+02,4.741754e+02
9.054168e+02,4.722587e+02
9.063810e+02,4.734007e+02
9.073453e+02,4.761628e+02
9.083095e+02,4.774049e+02
9.092737e+02,4.752654e+02
9.102380e+02,4.718519e+02
9.112022e+02,4.688757e+02
9.121664e+02,4.665255e+02
9.131307e+02,4.656728e+02
9.140949e+02,4.668006e+02
9.150591e+02,4.687451e+02
9.160234e+02,4.694070e+02
9.169876e+02,4.687547e+02
9.179518e+02,4.687534e+02
9.189161e+02,4.697807e+02
9.198803e+02,4.710212e+02
9.208445e+02,4.720731e+02
9.218088e+02,4.732914e+02
9.227730e+02,4.724111e+02
9.237372e+02,4.683098e+02
9.247015e+02,4.641390e+02
9.256657e+02,4.620510e+02
9.266299e+02,4.621066e+02
9.275942e+02,4.616505e+02
9.285584e+02,4.594276e+02
9.295226e+02,4.579987e+02
9.304869e+02,4.588737e+02
9.314511e+02,4.614323e+02
9.324153e+02,4.634533e+02
9.333796e+02,4.655038e+02
9.343438e+02,4.661279e+02
9.353080e+02,4.634717e+02
9.362723e+02,4.593983e+02
9.372365e+02,4.567303e+02
9.382007e+02,4.569961e+02
9.391650e+02,4.580756e+02
9.401292e+02,4.596587e+02
9.410934e+02,4.611396e+02
9.420577e+02,4.617027e+02
9.430219e+02,4.610823e+02
9.439861e+02,4.597886e+02
9.449504e+02,4.578182e+02
9.459146e+02,4.559565e+02
9.468788e+02,4.549957e+02
9.478431e+02,4.547597e+02
9.488073e+02,4.547656e+02
9.497715e+02,4.544952e+02
9.507358e+02,4.545431e+02
9.517000e+02,4.569820e+02
9.526642e+02,4.616536e+02
9.536285e+02,4.651067e+02
9.545927e+02,4.646317e+02
9.555569e+02,4.614793e+02
9.565212e+02,4.596617e+02
9.574854e+02,4.593508e+02
9.584496e+02,4.598788e+02
9.594139e+02,4.610746e+02
9.603781e+02,4.621936e+02
9.613423e+02,4.612827e+02
9.623066e+02,4.576613e+02
9.632708e+02,4.555763e+02
9.642350e+02,4.566673e+02
9.651993e+02,4.587354e+02
9.661635e+02,4.582809e+02
9.671277e+02,4.529086e+02
9.680920e+02,4.505201e+02
9.690562e+02,4.528288e+02
9.700204e+02,4.563285e+02
9.709847e+02,4.589167e+02
9.719489e+02,4.608948e+02
9.729131e+02,4.611556e+02
9.738774e+02,4.580230e+02
9.748416e+02,4.551163e+02
9.758058e+02,4.540690e+02
9.767701e+02,4.543746e+02
9.777343e+02,4.539595e+02
9.786985e+02,4.512413e+02
9.796628e+02,4.490578e+02
9.806270e+02,4.483276e+02
9.815912e+02,4.488670e+02
9.825555e+02,4.504300e+02
9.835197e+02,4.546841e+02
9.844839e+02,4.578733e+02
9.854482e+02,4.579835e+02
9.864124e+02,4.565379e+02
9.873766e+02,4.548113e+02
9.883409e+02,4.530151e+02
9.893051e+02,4.520843e+02
9.902693e+02,4.532395e+02
9.912336e+02,4.552165e+02
9.921978e+02,4.564380e+02
9.931620e+02,4.566728e+02
9.941263e+02,4.568186e+02
9.950905e+02,4.581203e+02
9.960547e+02,4.594217e+02
9.970190e+02,4.591456e+02
9.979832e+02,4.574355e+02
9.989474e+02,4.551820e+02
9.999117e+02,4.528486e+02
1.000876e+03,4.506823e+02
1.001840e+03,4.489336e+02
1.002804e+03,4.476942e+02
1.003769e+03,4.469305e+02
1.004733e+03,4.465170e+02
1.005697e+03,4.463765e+02
1.006661e+03,4.467735e+02
1.007626e+03,4.475252e+02
1.008590e+03,4.473947e+02
1.009554e+03,4.460060e+02
1.010518e+03,4.445699e+02
1.011482e+03,4.452763e+02
1.012447e+03,4.476081e+02
1.013411e+03,4.465995e+02
1.014375e+03,4.419668e+02
1.015339e+03,4.386422e+02
1.016304e+03,4.404408e+02
1.017268e+03,4.462417e+02
1.018232e+03,4.498446e+02
1.019196e+03,4.510476e+02
1.020161e+03,4.509317e+02
1.021125e+03,4.496415e+02
1.022089e+03,4.479720e+02
1.023053e+03,4.480092e+02
1.024018e+03,4.501742e+02
1.024982e+03,4.509478e+02
1.025946e+03,4.491700e+02
1.026910e+03,4.463039e+02
1.027875e+03,4.442684e+02
1.028839e+03,4.429833e+02
1.029803e+03,4.440297e+02
1.030767e+03,4.486616e+02
1.031731e+03,4.534763e+02
1.032696e+03,4.561295e+02
1.033660e+03,4.565354e+02
1.034624e+03,4.555052e+02
1.035588e+03,4.517144e+02
1.036552e+03,4.491869e+02
1.037517e+03,4.499503e+02
1.038481e+03,4.529286e+02
1.039445e+03,4.545614e+02
1.040409e+03,4.546109e+02
1.041374e+03,4.536976e+02
1.042338e+03,4.513070e+02
1.043302e+03,4.485739e+02
1.044266e+03,4.468497e+02
1.045231e+03,4.463147e+02
1.046195e+03,4.463430e+02
1.047159e+03,4.472943e+02
1.048123e+03,4.486832e+02
1.049088e+03,4.506214e+02
1.050052e+03,4.535571e+02
1.051016e+03,4.546574e+02
1.051980e+03,4.517097e+02
1.052945e+03,4.491163e+02
1.053909e+03,4.482669e+02
1.054873e+03,4.487243e+02
1.055837e+03,4.495558e+02
1.056802e+03,4.522177e+02
1.057766e+03,4.537188e+02
1.058730e+03,4.525790e+02
1.059694e+03,4.504999e+02
1.060658e+03,4.495443e+02
1.061623e+03,4.507775e+02
1.062587e+03,4.516838e+02
1.063551e+03,4.519781e+02
1.064515e+03,4.519097e+02
1.065479e+03,4.514280e+02
1.066444e+03,4.505886e+02
1.067408e+03,4.500412e+02
1.068372e+03,4.497057e+02
1.069336e+03,4.498439e+02
1.070301e+03,4.508563e+02
1.071265e+03,4.522054e+02
1.072229e+03,4.526285e+02
1.073193e+03,4.507541e+02
1.074158e+03,4.493015e+02
1.075122e+03,4.490177e+02
1.076086e+03,4.495426e+02
1.077050e+03,4.506526e+02
1.078015e+03,4.531537e+02
1.078979e+03,4.549980e+02
1.079943e+03,4.542229e+02
1.080907e+03,4.537136e+02
1.081872e+03,4.558228e+02
1.082836e+03,4.606079e+02
1.083800e+03,4.644972e+02
1.084764e+03,4.655207e+02
1.085729e+03,4.669841e+02
1.086693e+03,4.706658e+02
1.087657e+03,4.758405e+02
1.088621e+03,4.806052e+02
1.089585e+03,4.839761e+02
1.090550e+03,4.873974e+02
1.091514e+03,4.928615e+02
1.092478e+03,4.981105e+02
1.093442e+03,5.005898e+02
1.094406e+03,4.996159e+02
1.095371e+03,4.971070e+02
1.096335e+03,4.919339e+02
1.097299e+03,4.864023e+02
1.098263e+03,4.818773e+02
1.099228e+03,4.783637e+02
1.100192e+03,4.752659e+02
1.101156e+03,4.721799e+02
1.102120e+03,4.697162e+02
1.103085e+03,4.686059e+02
1.104049e+03,4.682484e+02
1.105013e+03,4.674366e+02
1.105977e+03,4.651898e+02
1.106942e+03,4.636104e+02
1.107906e+03,4.636593e+02
1.108870e+03,4.641606e+02
1.109834e+03,4.637370e+02
1.110799e+03,4.616222e+02
1.111763e+03,4.613415e+02
1.112727e+03,4.652285e+02
1.113691e+03,4.693208e+02
1.114656e+03,4.711011e+02
1.115620e+03,4.709833e+02
1.116584e+03,4.723296e+02
1.117548e+03,4.779766e+02
1.118512e+03,4.815751e+02
1.119477e+03,4.809779e+02
1.120441e+03,4.777889e+02
1.121405e+03,4.744686e+02
1.122369e+03,4.701061e+02
1.123334e+03,4.671313e+02
1.124298e+03,4.672578e+02
1.125262e+03,4.674402e+02
1.126226e+03,4.654048e+02
1.127191e+03,4.608756e+02
1.128155e+03,4.569169e+02
1.129119e+03,4.530685e+02
1.130083e+03,4.502197e+02
1.131047e+03,4.490064e+02
1.132012e+03,4.488813e+02
1.132976e+03,4.484691e+02
1.133940e+03,4.481483e+02
1.134904e+03,4.465985e+02
1.135869e+03,4.428034e+02
1.136833e+03,4.388902e+02
1.137797e+03,4.374666e+02
1.138761e+03,4.397004e+02
1.139726e+03,4.403836e+02
1.140690e+03,4.386619e+02
1.141654e+03,4.369585e+02
1.142618e+03,4.366596e+02
1.143583e+03,4.376353e+02
1.144547e+03,4.387110e+02
1.145511e+03,4.399542e+02
1.146475e+03,4.410431e+02
1.147439e+03,4.420057e+02
1.148404e+03,4.425726e+02
1.149368e+03,4.415755e+02
1.150332e+03,4.385960e+02
1.151296e+03,4.383975e+02
1.152261e+03,4.418980e+02
1.153225e+03,4.449185e+02
1.154189e+03,4.438994e+02
1.155153e+03,4.394785e+02
1.156118e+03,4.353380e+02
1.157082e+03,4.316123e+02
1.158046e+03,4.285193e+02
1.159010e+03,4.258016e+02
1.159974e+03,4.240573e+02
1.160939e+03,4.258654e+02
1.161903e+03,4.302758e+02
1.162867e+03,4.309438e+02
1.163831e+03,4.263971e+02
1.164796e+03,4.208617e+02
1.165760e+03,4.188420e+02
1.166724e+03,4.195313e+02
1.167688e+03,4.214965e+02
1.168653e+03,4.242645e+02
1.169617e+03,4.253978e+02
1.170581e+03,4.223846e+02
1.171545e+03,4.182707e+02
1.172510e+03,4.178315e+02
1.173474e+03,4.197658e+02
1.174438e+03,4.209387e+02
1.175402e+03,4.202670e+02
1.176366e+03,4.191920e+02
1.177331e+03,4.189827e+02
1.178295e+03,4.192011e+02
1.179259e+03,4.193459e+02
1.180223e+03,4.192458e+02
1.181188e+03,4.187985e+02
1.182152e+03,4.177032e+02
1.183116e+03,4.165222e+02
1.184080e+03,4.161024e+02
1.185045e+03,4.159323e+02
1.186009e+03,4.148326e+02
1.186973e+03,4.116999e+02
1.187937e+03,4.095684e+02
1.188901e+03,4.103858e+02
1.189866e+03,4.120450e+02
1.190830e+03,4.125221e+02
1.191794e+03,4.114998e+02
1.192758e+03,4.113370e+02
1.193723e+03,4.139974e+02
1.194687e+03,4.163293e+02
1.195651e+03,4.167474e+02
1.196615e+03,4.158567e+02
1.197580e+03,4.152570e+02
1.198544e+03,4.148325e+02
1.199508e+03,4.143685e+02
1.200472e+03,4.144347e+02
1.201437e+03,4.142657e+02
1.202401e+03,4.129821e+02
1.203365e+03,4.103315e+02
1.204329e+03,4.096804e+02
1.205293e+03,4.119770e+02
1.206258e+03,4.137234e+02
1.207222e+03,4.131696e+02
1.208186e+03,4.110539e+02
1.209150e+03,4.095640e+02
1.210115e+03,4.085563e+02
1.211079e+03,4.086801e+02
1.212043e+03,4.103459e+02
1.213007e+03,4.119995e+02
1.213972e+03,4.115642e+02
1.214936e+03,4.096202e+02
1.215900e+03,4.093458e+02
1.216864e+03,4.107077e+02
1.217828e+03,4.118378e+02
1.218793e+03,4.116909e+02
1.219757e+03,4.106651e+02
1.220721e+03,4.086094e+02
1.221685e+03,4.062992e+02
1.222650e+03,4.058348e+02
1.223614e+03,4.076943e+02
1.224578e+03,4.099871e+02
1.225542e+03,4.119260e+02
1.226507e+03,4.131411e+02
1.227471e+03,4.124375e+02
1.228435e+03,4.102523e+02
1.229399e+03,4.088138e+02
1.230364e+03,4.099892e+02
1.231328e+03,4.115609e+02
1.232292e+03,4.130942e+02
1.233256e+03,4.142911e+02
1.234220e+03,4.144151e+02
1.235185e+03,4.130259e+02
1.236149e+03,4.119103e+02
1.237113e+03,4.110688e+02
1.238077e+03,4.110468e+02
1.239042e+03,4.130407e+02
1.240006e+03,4.162744e+02
1.240970e+03,4.157610e+02
1.241934e+03,4.076255e+02
1.242899e+03,4.027727e+02
1.243863e+03,4.048200e+02
1.244827e+03,4.096267e+02
1.245791e+03,4.114915e+02
1.246755e+03,4.098258e+02
1.247720e+03,4.088072e+02
1.248684e+03,4.087517e+02
1.249648e+03,4.083776e+02
1.250612e+03,4.065614e+02
1.251577e+03,4.039060e+02
1.252541e+03,4.025023e+02
1.253505e+03,4.022609e+02
1.254469e+03,4.030371e+02
1.255434e+03,4.049622e+02
1.256398e+03,4.071317e+02
1.257362e+03,4.083620e+02
1.258326e+03,4.089172e+02
1.259291e+03,4.093382e+02
1.260255e+03,4.096285e+02
1.261219e+03,4.097527e+02
1.262183e+03,4.102752e+02
1.263147e+03,4.105181e+02
1.264112e+03,4.097719e+02
1.265076e+03,4.083920e+02
1.266040e+03,4.065424e+02
1.267004e+03,4.037273e+02
1.267969e+03,4.025580e+02
1.268933e+03,4.056053e+02
1.269897e+03,4.093177e+02
1.270861e+03,4.110385e+02
1.271826e+03,4.106540e+02
1.272790e+03,4.109816e+02
1.273754e+03,4.133597e+02
1.274718e+03,4.143792e+02
1.275682e+03,4.131631e+02
1.276647e+03,4.110273e+02
1.277611e+03,4.093070e+02
1.278575e+03,4.078735e+02
1.279539e+03,4.076703e+02
1.280504e+03,4.091124e+02
1.281468e+03,4.104531e+02
1.282432e+03,4.102488e+02
1.283396e+03,4.095425e+02
1.284361e+03,4.117622e+02
1.285325e+03,4.158370e+02
1.286289e+03,4.171665e+02
1.287253e+03,4.144468e+02
1.288218e+03,4.116499e+02
1.289182e+03,4.140215e+02
1.290146e+03,4.175872e+02
1.291110e+03,4.169800e+02
1.292074e+03,4.130136e+02
1.293039e+03,4.095674e+02
1.294003e+03,4.086062e+02
1.294967e+03,4.081502e+02
1.295931e+03,4.079854e+02
1.296896e+03,4.077664e+02
1.297860e+03,4.067326e+02
1.298824e+03,4.041211e+02
1.299788e+03,4.034817e+02
1.300753e+03,4.069727e+02
1.301717e+03,4.093370e+02
1.302681e+03,4.078510e+02
1.303645e+03,4.041613e+02
1.304609e+03,4.034084e+02
1.305574e+03,4.061090e+02
1.306538e+03,4.064972e+02
1.307502e+03,4.034410e+02
1.308466e+03,4.010233e+02
1.309431e+03,4.044837e+02
1.310395e+03,4.115887e+02
1.311359e+03,4.142801e+02
1.312323e+03,4.131254e+02
1.313288e+03,4.115603e+02
1.314252e+03,4.111969e+02
1.315216e+03,4.115119e+02
1.316180e+03,4.119779e+02
1.317145e+03,4.126602e+02
1.318109e+03,4.135480e+02
1.319073e+03,4.144794e+02
1.320037e+03,4.153781e+02
1.321001e+03,4.170549e+02
1.321966e+03,4.178063e+02
1.322930e+03,4.167238e+02
1.323894e+03,4.145639e+02
1.324858e+03,4.124059e+02
1.325823e+03,4.095214e+02
1.326787e+03,4.083934e+02
1.327751e+03,4.094608e+02
1.328715e+03,4.110225e+02
1.329680e+03,4.120684e+02
1.330644e+03,4.127849e+02
1.331608e+03,4.142391e+02
1.332572e+03,4.162555e+02
1.333536e+03,4.168530e+02
1.334501e+03,4.152910e+02
1.335465e+03,4.132545e+02
1.336429e+03,4.125918e+02
1.337393e+03,4.129381e+02
1.338358e+03,4.141337e+02
1.339322e+03,4.158167e+02
1.340286e+03,4.167850e+02
1.341250e+03,4.164042e+02
1.342215e+03,4.152218e+02
1.343179e+03,4.128666e+02
1.344143e+03,4.106029e+02
1.345107e+03,4.094887e+02
1.346072e+03,4.095577e+02
1.347036e+03,4.106095e+02
1.348000e+03,4.136175e+02
1.348964e+03,4.154952e+02
1.349928e+03,4.150615e+02
1.350893e+03,4.131076e+02
1.351857e+03,4.106604e+02
1.352821e+03,4.077055e+02
1.353785e+03,4.066128e+02
1.354750e+03,4.076390e+02
1.355714e+03,4.088339e+02
1.356678e+03,4.086067e+02
1.357642e+03,4.078734e+02
1.358607e+03,4.074597e+02
1.359571e+03,4.074294e+02
1.360535e+03,4.081393e+02
1.361499e+03,4.101313e+02
1.362464e+03,4.118200e+02
1.363428e+03,4.123385e+02
1.364392e+03,4.125631e+02
1.365356e+03,4.124938e+02
1.366320e+03,4.121563e+02
1.367285e+03,4.132882e+02
1.368249e+03,4.174247e+02
1.369213e+03,4.196880e+02
1.370177e+03,4.187114e+02
1.371142e+03,4.166546e+02
1.372106e+03,4.160345e+02
1.373070e+03,4.166668e+02
1.374034e+03,4.171051e+02
1.374999e+03,4.174931e+02
1.375963e+03,4.186293e+02
1.376927e+03,4.216654e+02
1.377891e+03,4.238248e+02
1.378855e+03,4.208226e+02
1.379820e+03,4.158082e+02
1.380784e+03,4.130394e+02
1.381748e+03,4.132278e+02
1.382712e+03,4.130143e+02
1.383677e+03,4.107109e+02
1.384641e+03,4.081850e+02
1.385605e+03,4.059129e+02
1.386569e+03,4.038248e+02
1.387534e+03,4.017203e+02
1.388498e+03,3.993805e+02
1.389462e+03,3.990102e+02
1.390426e+03,4.009452e+02
1.391391e+03,4.017977e+02
1.392355e+03,3.990381e+02
1.393319e+03,3.946787e+02
1.394283e+03,3.921851e+02
1.395247e+03,3.911614e+02
1.396212e+03,3.909716e+02
1.397176e+03,3.914966e+02
1.398140e+03,3.922665e+02
1.399104e+03,3.933972e+02
1.400069e+03,3.941259e+02
1.401033e+03,3.939698e+02
1.401997e+03,3.930533e+02
1.402961e+03,3.916962e+02
1.403926e+03,3.890363e+02
1.404890e+03,3.880939e+02
1.405854e+03,3.897471e+02
1.406818e+03,3.914423e+02
1.407782e+03,3.909402e+02
1.408747e+03,3.892942e+02
1.409711e+03,3.904419e+02
1.410675e+03,3.934902e+02
1.411639e+03,3.955114e+02
1.412604e+03,3.957235e+02
1.413568e+03,3.946105e+02
1.414532e+03,3.913903e+02
1.415496e+03,3.882389e+02
1.416461e+03,3.870318e+02
1.417425e+03,3.873696e+02
1.418389e+03,3.877520e+02
1.419353e+03,3.881117e+02
1.420318e+03,3.883026e+02
1.421282e+03,3.887049e+02
1.422246e+03,3.886133e+02
1.423210e+03,3.870724e+02
1.424174e+03,3.844870e+02
1.425139e+03,3.832657e+02
1.426103e+03,3.832206e+02
1.427067e+03,3.838412e+02
1.428031e+03,3.851522e+02
1.428996e+03,3.861467e+02
1.429960e+03,3.851572e+02
1.430924e+03,3.837085e+02
1.431888e+03,3.833810e+02
1.432853e+03,3.841503e+02
1.433817e+03,3.851218e+02
1.434781e+03,3.869000e+02
1.435745e+03,3.878449e+02
1.436709e+03,3.873427e+02
1.437674e+03,3.862095e+02
1.438638e+03,3.852420e+02
1.439602e+03,3.845386e+02
1.440566e+03,3.840890e+02
1.441531e+03,3.837945e+02
1.442495e+03,3.830204e+02
1.443459e+03,3.813601e+02
1.444423e+03,3.796748e+02
1.445388e+03,3.786627e+02
1.446352e+03,3.780523e+02
1.447316e+03,3.778117e+02
1.448280e+03,3.780009e+02
1.449245e+03,3.782315e+02
1.450209e+03,3.775944e+02
1.451173e+03,3.783365e+02
1.452137e+03,3.811793e+02
1.453101e+03,3.842535e+02
1.454066e+03,3.861003e+02
1.455030e+03,3.867834e+02
1.455994e+03,3.862946e+02
1.456958e+03,3.848544e+02
1.457923e+03,3.842036e+02
1.458887e+03,3.851830e+02
1.459851e+03,3.857530e+02
1.460815e+03,3.832097e+02
1.461780e+03,3.800431e+02
1.462744e+03,3.787393e+02
1.463708e+03,3.793366e+02
1.464672e+03,3.802339e+02
1.465636e+03,3.818221e+02
1.466601e+03,3.829032e+02
1.467565e+03,3.832237e+02
1.468529e+03,3.832546e+02
1.469493e+03,3.832955e+02
1.470458e+03,3.832520e+02
1.471422e+03,3.832845e+02
1.472386e+03,3.833465e+02
1.473350e+03,3.829291e+02
1.474315e+03,3.816447e+02
1.475279e+03,3.803001e+02
1.476243e+03,3.791231e+02
1.477207e+03,3.782001e+02
1.478172e+03,3.778039e+02
1.479136e+03,3.779102e+02
1.480100e+03,3.783682e+02
1.481064e+03,3.796535e+02
1.482028e+03,3.792884e+02
1.482993e+03,3.767469e+02
1.483957e+03,3.741631e+02
1.484921e+03,3.738865e+02
1.485885e+03,3.745032e+02
1.486850e+03,3.727377e+02
1.487814e+03,3.696930e+02
1.488778e+03,3.683607e+02
1.489742e+03,3.705491e+02
1.490707e+03,3.711357e+02
1.491671e+03,3.655898e+02
1.492635e+03,3.619311e+02
1.493599e+03,3.645723e+02
1.494563e+03,3.706882e+02
1.495528e+03,3.731328e+02
1.496492e+03,3.719261e+02
1.497456e+03,3.689992e+02
1.498420e+03,3.647870e+02
1.499385e+03,3.616053e+02
1.500349e+03,3.620479e+02
1.501313e+03,3.634981e+02
1.502277e+03,3.632656e+02
1.503242e+03,3.625757e+02
1.504206e+03,3.636311e+02
1.505170e+03,3.678698e+02
1.506134e+03,3.689274e+02
1.507099e+03,3.655677e+02
1.508063e+03,3.624064e+02
1.509027e+03,3.610335e+02
1.509991e+03,3.610984e+02
1.510955e+03,3.633934e+02
1.511920e+03,3.662682e+02
1.512884e+03,3.647447e+02
1.513848e+03,3.594936e+02
1.514812e+03,3.564906e+02
1.515777e+03,3.606248e+02
1.516741e+03,3.644448e+02
1.517705e+03,3.652799e+02
1.518669e+03,3.647776e+02
1.519634e+03,3.642165e+02
1.520598e+03,3.635221e+02
1.521562e+03,3.622400e+02
1.522526e+03,3.603452e+02
1.523490e+03,3.590637e+02
1.524455e+03,3.589279e+02
1.525419e+03,3.590427e+02
1.526383e+03,3.590307e+02
1.527347e+03,3.585722e+02
1.528312e+03,3.570710e+02
1.529276e+03,3.550650e+02
1.530240e+03,3.541512e+02
1.531204e+03,3.543389e+02
1.532169e+03,3.555271e+02
1.533133e+03,3.580117e+02
1.534097e+03,3.601525e+02
1.535061e+03,3.607072e+02
1.536026e+03,3.600011e+02
1.536990e+03,3.581482e+02
1.537954e+03,3.558334e+02
1.538918e+03,3.542982e+02
1.539882e+03,3.538285e+02
1.540847e+03,3.537679e+02
1.541811e+03,3.539385e+02
1.542775e+03,3.543387e+02
1.543739e+03,3.552573e+02
1.544704e+03,3.563467e+02
1.545668e+03,3.570278e+02
1.546632e+03,3.573369e+02
1.547596e+03,3.568672e+02
1.548561e+03,3.558535e+02
1.549525e+03,3.557549e+02
1.550489e+03,3.579806e+02
1.551453e+03,3.601737e+02
1.552417e+03,3.624252e+02
1.553382e+03,3.629844e+02
1.554346e+03,3.598148e+02
1.555310e+03,3.537231e+02
1.556274e+03,3.514398e+02
1.557239e+03,3.528565e+02
1.558203e+03,3.541004e+02
1.559167e+03,3.542488e+02
1.560131e+03,3.542965e+02
1.561096e+03,3.554292e+02
1.562060e+03,3.566254e+02
1.563024e+03,3.567939e+02
1.563988e+03,3.563968e+02
1.564953e+03,3.566299e+02
1.565917e+03,3.580414e+02
1.566881e+03,3.582133e+02
1.567845e+03,3.569251e+02
1.568809e+03,3.551090e+02
1.569774e+03,3.530573e+02
1.570738e+03,3.512892e+02
1.571702e+03,3.506007e+02
1.572666e+03,3.505375e+02
1.573631e+03,3.503936e+02
1.574595e+03,3.502227e+02
1.575559e+03,3.513756e+02
1.576523e+03,3.553785e+02
1.577488e+03,3.569604e+02
1.578452e+03,3.544185e+02
1.579416e+03,3.511041e+02
1.580380e+03,3.507064e+02
1.581344e+03,3.521498e+02
1.582309e+03,3.538952e+02
1.583273e+03,3.557254e+02
1.584237e+03,3.571552e+02
1.585201e+03,3.580251e+02
1.586166e+03,3.585331e+02
1.587130e+03,3.585237e+02
1.588094e+03,3.583193e+02
1.589058e+03,3.581996e+02
1.590023e+03,3.579990e+02
1.590987e+03,3.572132e+02
1.591951e+03,3.561127e+02
1.592915e+03,3.549064e+02
1.593880e+03,3.535132e+02
1.594844e+03,3.523064e+02
1.595808e+03,3.521494e+02
1.596772e+03,3.511622e+02
1.597736e+03,3.480682e+02
1.598701e+03,3.458121e+02
1.599665e+03,3.476049e+02
1.600629e+03,3.521183e+02
1.601593e+03,3.542456e+02
1.602558e+03,3.542551e+02
1.603522e+03,3.525109e+02
1.604486e+03,3.486234e+02
1.605450e+03,3.459477e+02
1.606415e+03,3.470372e+02
1.607379e+03,3.486429e+02
1.608343e+03,3.500330e+02
1.609307e+03,3.504756e+02
1.610271e+03,3.477866e+02
1.611236e+03,3.429427e+02
1.612200e+03,3.405569e+02
1.613164e+03,3.408412e+02
1.614128e+03,3.425013e+02
1.615093e+03,3.462007e+02
1.616057e+03,3.491575e+02
1.617021e+03,3.507737e+02
1.617985e+03,3.505810e+02
1.618950e+03,3.474126e+02
1.619914e+03,3.426942e+02
1.620878e+03,3.430008e+02
1.621842e+03,3.468270e+02
1.622807e+03,3.475849e+02
1.623771e+03,3.439760e+02
1.624735e+03,3.415430e+02
1.625699e+03,3.452152e+02
1.626663e+03,3.476738e+02
1.627628e+03,3.453163e+02
1.628592e+03,3.414914e+02
1.629556e+03,3.410280e+02
1.630520e+03,3.433288e+02
1.631485e+03,3.437783e+02
1.632449e+03,3.425757e+02
1.633413e+03,3.408481e+02
1.634377e+03,3.384101e+02
1.635342e+03,3.372860e+02
1.636306e+03,3.398392e+02
1.637270e+03,3.421260e+02
1.638234e+03,3.423387e+02
1.639198e+03,3.411843e+02
1.640163e+03,3.399899e+02
1.641127e+03,3.388080e+02
1.642091e+03,3.370654e+02
1.643055e+03,3.348487e+02
1.644020e+03,3.341796e+02
1.644984e+03,3.379406e+02
1.645948e+03,3.403996e+02
1.646912e+03,3.404299e+02
1.647877e+03,3.390520e+02
1.648841e+03,3.364768e+02
1.649805e+03,3.335433e+02
1.650769e+03,3.334352e+02
1.651734e+03,3.350092e+02
1.652698e+03,3.353576e+02
1.653662e+03,3.333947e+02
1.654626e+03,3.321730e+02
1.655590e+03,3.332016e+02
1.656555e+03,3.338283e+02
1.657519e+03,3.334775e+02
1.658483e+03,3.326083e+02
1.659447e+03,3.314379e+02
1.660412e+03,3.300065e+02
1.661376e+03,3.279502e+02
1.662340e+03,3.260777e+02
1.663304e+03,3.265372e+02
1.664269e+03,3.331948e+02
1.665233e+03,3.357406e+02
1.666197e+03,3.326099e+02
1.667161e+03,3.301125e+02
1.668125e+03,3.324987e+02
1.669090e+03,3.358782e+02
1.670054e+03,3.333968e+02
1.671018e+03,3.287140e+02
1.671982e+03,3.269784e+02
1.672947e+03,3.285636e+02
1.673911e+03,3.290812e+02
1.674875e+03,3.278159e+02
1.675839e+03,3.271187e+02
1.676804e+03,3.275748e+02
1.677768e+03,3.278101e+02
1.678732e+03,3.255652e+02
1.679696e+03,3.232967e+02
1.680661e+03,3.234943e+02
1.681625e+03,3.249049e+02
1.682589e+03,3.258985e+02
1.683553e+03,3.265079e+02
1.684517e+03,3.282099e+02
1.685482e+03,3.308653e+02
1.686446e+03,3.313924e+02
1.687410e+03,3.284214e+02
1.688374e+03,3.259244e+02
1.689339e+03,3.279654e+02
1.690303e+03,3.302298e+02
1.691267e+03,3.299712e+02
1.692231e+03,3.284176e+02
1.693196e+03,3.274142e+02
1.694160e+03,3.267835e+02
1.695124e+03,3.254684e+02
1.696088e+03,3.238866e+02
1.697052e+03,3.241781e+02
1.698017e+03,3.290983e+02
1.698981e+03,3.322386e+02
1.699945e+03,3.307335e+02
1.700909e+03,3.289140e+02
1.701874e+03,3.295693e+02
1.702838e+03,3.312417e+02
1.703802e+03,3.300680e+02
1.704766e+03,3.271351e+02
1.705731e+03,3.245583e+02
1.706695e+03,3.227447e+02
1.707659e+03,3.220771e+02
1.708623e+03,3.234635e+02
1.709588e+03,3.238937e+02
1.710552e+03,3.226194e+02
1.711516e+03,3.213306e+02
1.712480e+03,3.216778e+02
1.713444e+03,3.227504e+02
1.714409e+03,3.237350e+02
1.715373e+03,3.248778e+02
1.716337e+03,3.271938e+02
1.717301e+03,3.308491e+02
1.718266e+03,3.282203e+02
1.719230e+03,3.194891e+02
1.720194e+03,3.159224e+02
1.721158e+03,3.211556e+02
1.722123e+03,3.265405e+02
1.723087e+03,3.258169e+02
1.724051e+03,3.235473e+02
1.725015e+03,3.217983e+02
1.725979e+03,3.203513e+02
1.726944e+03,3.181135e+02
1.727908e+03,3.157683e+02
1.728872e+03,3.168820e+02
1.729836e+03,3.204981e+02
1.730801e+03,3.234045e+02
1.731765e+03,3.249842e+02
1.732729e+03,3.242672e+02
1.733693e+03,3.201618e+02
1.734658e+03,3.170488e+02
1.735622e+03,3.171302e+02
1.736586e+03,3.184265e+02
1.737550e+03,3.185154e+02
1.738515e+03,3.178435e+02
1.739479e+03,3.166884e+02
1.740443e+03,3.152494e+02
1.741407e+03,3.144309e+02
1.742371e+03,3.143554e+02
1.743336e+03,3.132361e+02
1.744300e+03,3.110185e+02
1.745264e+03,3.107783e+02
1.746228e+03,3.176256e+02
1.747193e+03,3.234433e+02
1.748157e+03,3.229422e+02
1.749121e+03,3.213243e+02
1.750085e+03,3.217762e+02
1.751050e+03,3.232933e+02
1.752014e+03,3.241035e+02
1.752978e+03,3.239565e+02
1.753942e+03,3.212193e+02
1.754906e+03,3.155398e+02
1.755871e+03,3.125040e+02
1.756835e+03,3.144481e+02
1.757799e+03,3.146061e+02
1.758763e+03,3.118581e+02
1.759728e+03,3.093333e+02
1.760692e+03,3.108657e+02
1.761656e+03,3.130630e+02
1.762620e+03,3.114986e+02
1.763585e+03,3.088969e+02
1.764549e+03,3.097702e+02
1.765513e+03,3.138976e+02
1.766477e+03,3.152637e+02
1.767442e+03,3.142407e+02
1.768406e+03,3.123423e+02
1.769370e+03,3.097954e+02
1.770334e+03,3.080282e+02
1.771298e+03,3.079155e+02
1.772263e+03,3.081574e+02
1.773227e+03,3.086214e+02
1.774191e+03,3.090794e+02
1.775155e+03,3.086791e+02
1.776120e+03,3.083300e+02
1.777084e+03,3.101518e+02
1.778048e+03,3.131702e+02
1.779012e+03,3.144889e+02
1.779977e+03,3.136601e+02
1.780941e+03,3.129236e+02
1.781905e+03,3.121450e+02
1.782869e+03,3.116975e+02
1.783833e+03,3.119884e+02
1.784798e+03,3.120146e+02
1.785762e+03,3.101734e+02
1.786726e+03,3.091068e+02
1.787690e+03,3.103774e+02
1.788655e+03,3.127895e+02
1.789619e+03,3.145728e+02
1.790583e+03,3.154225e+02
1.791547e+03,3.138780e+02
1.792512e+03,3.105728e+02
1.793476e+03,3.090866e+02
1.794440e+03,3.114951e+02
1.795404e+03,3.081752e+02
1.796369e+03,2.982704e+02
1.797333e+03,2.917847e+02
1.798297e+03,2.966319e+02
1.799261e+03,3.030290e+02
1.800225e+03,3.060804e+02
1.801190e+03,3.055153e+02
1.802154e+03,3.000411e+02
1.803118e+03,2.926533e+02
1.804082e+03,2.921133e+02
1.805047e+03,2.959384e+02
1.806011e+03,2.983126e+02
1.806975e+03,2.987321e+02
1.807939e+03,3.003535e+02
1.808904e+03,3.043563e+02
1.809868e+03,3.062464e+02
1.810832e+03,3.056194e+02
1.811796e+03,3.040025e+02
1.812760e+03,3.005508e+02
1.813725e+03,2.987408e+02
1.814689e+03,3.025276e+02
1.815653e+03,3.074191e+02
1.816617e+03,3.105106e+02
1.817582e+03,3.116794e+02
1.818546e+03,3.102687e+02
1.819510e+03,3.066348e+02
1.820474e+03,3.001972e+02
1.821439e+03,2.911254e+02
1.822403e+03,2.886216e+02
1.823367e+03,2.948183e+02
1.824331e+03,2.992651e+02
1.825296e+03,3.002646e+02
1.826260e+03,2.996299e+02
1.827224e+03,2.977174e+02
1.828188e+03,2.963975e+02
1.829152e+03,2.968306e+02
1.830117e+03,2.978096e+02
1.831081e+03,2.984727e+02
1.832045e+03,2.988455e+02
1.833009e+03,3.001752e+02
1.833974e+03,3.014263e+02
1.834938e+03,2.992519e+02
1.835902e+03,2.923539e+02
1.836866e+03,2.903190e+02
1.837831e+03,2.935158e+02
1.838795e+03,2.960084e+02
1.839759e+03,2.966896e+02
1.840723e+03,2.967903e+02
1.841688e+03,2.971895e+02
1.842652e+03,2.966682e+02
1.843616e+03,2.941228e+02
1.844580e+03,2.916532e+02
1.845544e+03,2.916176e+02
1.846509e+03,2.932852e+02
1.847473e+03,2.967424e+02
1.848437e+03,3.002193e+02
1.849401e+03,2.998384e+02
1.850366e+03,2.956747e+02
1.851330e+03,2.927216e+02
1.852294e+03,2.909660e+02
1.853258e+03,2.893820e+02
1.854223e+03,2.876308e+02
1.855187e+03,2.867856e+02
1.856151e+03,2.871579e+02
1.857115e+03,2.889944e+02
1.858079e+03,2.929376e+02
1.859044e+03,2.959734e+02
1.860008e+03,2.940439e+02
1.860972e+03,2.907211e+02
1.861936e+03,2.889533e+02
1.862901e+03,2.885257e+02
1.863865e+03,2.892438e+02
1.864829e+03,2.905243e+02
1.865793e+03,2.879087e+02
1.866758e+03,2.832406e+02
1.867722e+03,2.820953e+02
1.868686e+03,2.867030e+02
1.869650e+03,2.898038e+02
1.870615e+03,2.907300e+02
1.871579e+03,2.902892e+02
1.872543e+03,2.886081e+02
1.873507e+03,2.877076e+02
1.874471e+03,2.903047e+02
1.875436e+03,2.920903e+02
1.876400e+03,2.907114e+02
1.877364e+03,2.886669e+02
1.878328e+03,2.892059e+02
1.879293e+03,2.907779e+02
1.880257e+03,2.896210e+02
1.881221e+03,2.873131e+02
1.882185e+03,2.879774e+02
1.883150e+03,2.919396e+02
1.884114e+03,2.923664e+02
1.885078e+03,2.897130e+02
1.886042e+03,2.876720e+02
1.887006e+03,2.872744e+02
1.887971e+03,2.875202e+02
1.888935e+03,2.892638e+02
1.889899e+03,2.888552e+02
1.890863e+03,2.846757e+02
1.891828e+03,2.813237e+02
1.892792e+03,2.853133e+02
1.893756e+03,2.902770e+02
1.894720e+03,2.915853e+02
1.895685e+03,2.912994e+02
1.896649e+03,2.908986e+02
1.897613e+03,2.903871e+02
1.898577e+03,2.910804e+02
1.899542e+03,2.917832e+02
1.900506e+03,2.892195e+02
1.901470e+03,2.824740e+02
1.902434e+03,2.776909e+02
1.903398e+03,2.749038e+02
1.904363e+03,2.746333e+02
1.905327e+03,2.772480e+02
1.906291e+03,2.799039e+02
1.907255e+03,2.806010e+02
1.908220e+03,2.820243e+02
1.909184e+03,2.849766e+02
1.910148e+03,2.873963e+02
1.911112e+03,2.870195e+02
1.912077e+03,2.857115e+02
1.913041e+03,2.847318e+02
1.914005e+03,2.839334e+02
1.914969e+03,2.837415e+02
1.915933e+03,2.832932e+02
1.916898e+03,2.774218e+02
1.917862e+03,2.696202e+02
1.918826e+03,2.671859e+02
1.919790e+03,2.715692e+02
1.920755e+03,2.779295e+02
1.921719e+03,2.858404e+02
1.922683e+03,2.883582e+02
1.923647e+03,2.840470e+02
1.924612e+03,2.798033e+02
1.925576e+03,2.781549e+02
1.926540e+03,2.783761e+02
1.927504e+03,2.806227e+02
1.928469e+03,2.824662e+02
1.929433e+03,2.818450e+02
1.930397e+03,2.798537e+02
1.931361e+03,2.753415e+02
1.932325e+03,2.719872e+02
1.933290e+03,2.736118e+02
1.934254e+03,2.780366e+02
1.935218e+03,2.799716e+02
1.936182e+03,2.799098e+02
1.937147e+03,2.782370e+02
1.938111e+03,2.756374e+02
1.939075e+03,2.760932e+02
1.940039e+03,2.791964e+02
1.941004e+03,2.821485e+02
1.941968e+03,2.841763e+02
1.942932e+03,2.823044e+02
1.943896e+03,2.724612e+02
1.944860e+03,2.698984e+02
1.945825e+03,2.765548e+02
1.946789e+03,2.826420e+02
1.947753e+03,2.803329e+02
1.948717e+03,2.767136e+02
1.949682e+03,2.732579e+02
1.950646e+03,2.718665e+02
1.951610e+03,2.746256e+02
1.952574e+03,2.786448e+02
1.953539e+03,2.806207e+02
1.954503e+03,2.806285e+02
1.955467e+03,2.784104e+02
1.956431e+03,2.748828e+02
1.957396e+03,2.707322e+02
1.958360e+03,2.672827e+02
1.959324e+03,2.696093e+02
1.960288e+03,2.766667e+02
1.961252e+03,2.791250e+02
1.962217e+03,2.761421e+02
1.963181e+03,2.713657e+02
1.964145e+03,2.655313e+02
1.965109e+03,2.628016e+02
1.966074e+03,2.676353e+02
1.967038e+03,2.716407e+02
1.968002e+03,2.740998e+02
1.968966e+03,2.741609e+02
1.969931e+03,2.705991e+02
1.970895e+03,2.670868e+02
1.971859e+03,2.671431e+02
1.972823e+03,2.677206e+02
1.973787e+03,2.675569e+02
1.974752e+03,2.665741e+02
1.975716e+03,2.632726e+02
1.976680e+03,2.604235e+02
1.977644e+03,2.625196e+02
1.978609e+03,2.668149e+02
1.979573e+03,2.682445e+02
1.980537e+03,2.677707e+02
1.981501e+03,2.692058e+02
1.982466e+03,2.718487e+02
1.983430e+03,2.733083e+02
1.984394e+03,2.733754e+02
1.985358e+03,2.715084e+02
1.986323e+03,2.681336e+02
1.987287e+03,2.663903e+02
1.988251e+03,2.676548e+02
1.989215e+03,2.673958e+02
1.990179e+03,2.646949e+02
1.991144e+03,2.634422e+02
1.992108e+03,2.648568e+02
1.993072e+03,2.656627e+02
1.994036e+03,2.623989e+02
1.995001e+03,2.593849e+02
1.995965e+03,2.576270e+02
1.996929e+03,2.570924e+02
1.997893e+03,2.572694e+02
1.998858e+03,2.588533e+02
1.999822e+03,2.646382e+02
2.000786e+03,2.699213e+02
2.001750e+03,2.702653e+02
2.002714e+03,2.681590e+02
2.003679e+03,2.699044e+02
2.004643e+03,2.721372e+02
2.005607e+03,2.685250e+02
2.006571e+03,2.609727e+02
2.007536e+03,2.566329e+02
2.008500e+03,2.550490e+02
2.009464e+03,2.550255e+02
2.010428e+03,2.563915e+02
2.011393e+03,2.584868e+02
2.012357e+03,2.614067e+02
2.013321e+03,2.610815e+02
2.014285e+03,2.575369e+02
2.015250e+03,2.561884e+02
2.016214e+03,2.629785e+02
2.017178e+03,2.657174e+02
2.018142e+03,2.636991e+02
2.019106e+03,2.607213e+02
2.020071e+03,2.579294e+02
2.021035e+03,2.564893e+02
2.021999e+03,2.580505e+02
2.022963e+03,2.585687e+02
2.023928e+03,2.558472e+02
2.024892e+03,2.541772e+02
2.025856e+03,2.618797e+02
2.026820e+03,2.679922e+02
2.027785e+03,2.647843e+02
2.028749e+03,2.581727e+02
2.029713e+03,2.552782e+02
2.030677e+03,2.553503e+02
2.031641e+03,2.597466e+02
2.032606e+03,2.647154e+02
2.033570e+03,2.630605e+02
2.034534e+03,2.570753e+02
2.035498e+03,2.586219e+02
2.036463e+03,2.638117e+02
2.037427e+03,2.623363e+02
2.038391e+03,2.541418e+02
2.039355e+03,2.508947e+02
2.040320e+03,2.514922e+02
2.041284e+03,2.509458e+02
2.042248e+03,2.480829e+02
2.043212e+03,2.466316e+02
2.044177e+03,2.468628e+02
2.045141e+03,2.493342e+02
2.046105e+03,2.539869e+02
2.047069e+03,2.574899e+02
2.048033e+03,2.586285e+02
2.048998e+03,2.563561e+02
2.049962e+03,2.503451e+02
2.050926e+03,2.453823e+02
2.051890e+03,2.451580e+02
2.052854e+03,2.459272e+02
2.053819e+03,2.465181e+02
2.054783e+03,2.473696e+02
2.055747e+03,2.490910e+02
2.056711e+03,2.509070e+02
2.057676e+03,2.529035e+02
2.058640e+03,2.532560e+02
2.059604e+03,2.502237e+02
2.060568e+03,2.466079e+02
2.061533e+03,2.469063e+02
2.062497e+03,2.487925e+02
2.063461e+03,2.504927e+02
2.064425e+03,2.516982e+02
2.065390e+03,2.514622e+02
2.066354e+03,2.508097e+02
2.067318e+03,2.536414e+02
2.068282e+03,2.565104e+02
2.069247e+03,2.512742e+02
2.070211e+03,2.401491e+02
2.071175e+03,2.392764e+02
2.072139e+03,2.447744e+02
2.073104e+03,2.475107e+02
2.074068e+03,2.465547e+02
2.075032e+03,2.445722e+02
2.075996e+03,2.419825e+02
2.076960e+03,2.412518e+02
2.077925e+03,2.428393e+02
2.078889e+03,2.442955e+02
2.079853e+03,2.454529e+02
2.080817e+03,2.466003e+02
2.081782e+03,2.476697e+02
2.082746e+03,2.472283e+02
2.083710e+03,2.443089e+02
2.084674e+03,2.412138e+02
2.085639e+03,2.382123e+02
2.086603e+03,2.369375e+02
2.087567e+03,2.391861e+02
2.088531e+03,2.406834e+02
2.089496e+03,2.406929e+02
2.090460e+03,2.400014e+02
2.091424e+03,2.390786e+02
2.092388e+03,2.387358e+02
2.093353e+03,2.397924e+02
2.094317e+03,2.406625e+02
2.095281e+03,2.405537e+02
2.096245e+03,2.403310e+02
2.097209e+03,2.426494e+02
2.098174e+03,2.422224e+02
2.099138e+03,2.360410e+02
2.100102e+03,2.297764e+02
2.101066e+03,2.304926e+02
2.102031e+03,2.328971e+02
2.102995e+03,2.319407e+02
2.103959e+03,2.306220e+02
2.104923e+03,2.313389e+02
2.105887e+03,2.335068e+02
2.106852e+03,2.357541e+02
2.107816e+03,2.387913e+02
2.108780e+03,2.449280e+02
2.109744e+03,2.506561e+02
2.110708e+03,2.441287e+02
2.111673e+03,2.339474e+02
2.112637e+03,2.343657e+02
2.113601e+03,2.406231e+02
2.114565e+03,2.416517e+02
2.115530e+03,2.393425e+02
2.116494e+03,2.367783e+02
2.117458e+03,2.352270e+02
2.118422e+03,2.364616e+02
2.119387e+03,2.397409e+02
2.120351e+03,2.429787e+02
2.121315e+03,2.452028e+02
2.122279e+03,2.435121e+02
2.123244e+03,2.378959e+02
2.124208e+03,2.346099e+02
2.125172e+03,2.333434e+02
2.126136e+03,2.328739e+02
2.127101e+03,2.330572e+02
2.128065e+03,2.335308e+02
2.129029e+03,2.341413e+02
2.129993e+03,2.339619e+02
2.130958e+03,2.325790e+02
2.131922e+03,2.314248e+02
2.132886e+03,2.306118e+02
2.133850e+03,2.322943e+02
2.134814e+03,2.366265e+02
2.135779e+03,2.386675e+02
2.136743e+03,2.359953e+02
2.137707e+03,2.323519e+02
2.138671e+03,2.281560e+02
2.139636e+03,2.262488e+02
2.140600e+03,2.299616e+02
2.141564e+03,2.314946e+02
2.142528e+03,2.302236e+02
2.143493e+03,2.304736e+02
2.144457e+03,2.347416e+02
2.145421e+03,2.365648e+02
2.146385e+03,2.337131e+02
2.147350e+03,2.319370e+02
2.148314e+03,2.331614e+02
2.149278e+03,2.335233e+02
2.150242e+03,2.280040e+02
2.151207e+03,2.250546e+02
2.152171e+03,2.260879e+02
2.153135e+03,2.286391e+02
2.154099e+03,2.339818e+02
2.155063e+03,2.355398e+02
2.156028e+03,2.316615e+02
2.156992e+03,2.267487e+02
2.157956e+03,2.219481e+02
2.158920e+03,2.196982e+02
2.159885e+03,2.218465e+02
2.160849e+03,2.248662e+02
2.161813e+03,2.276483e+02
2.162777e+03,2.292864e+02
2.163741e+03,2.282712e+02
2.164706e+03,2.268157e+02
2.165670e+03,2.257146e+02
2.166634e+03,2.256286e+02
2.167598e+03,2.282327e+02
2.168563e+03,2.302223e+02
2.169527e+03,2.297784e+02
2.170491e+03,2.287144e+02
2.171455e+03,2.296820e+02
2.172420e+03,2.303999e+02
2.173384e+03,2.292990e+02
2.174348e+03,2.275758e+02
2.175312e+03,2.248360e+02
2.176277e+03,2.232970e+02
2.177241e+03,2.277484e+02
2.178205e+03,2.312290e+02
2.179169e+03,2.287866e+02
2.180134e+03,2.246364e+02
2.181098e+03,2.239146e+02
2.182062e+03,2.244671e+02
2.183026e+03,2.247547e+02
2.183990e+03,2.245767e+02
2.184955e+03,2.228691e+02
2.185919e+03,2.215412e+02
2.186883e+03,2.219313e+02
2.187847e+03,2.234964e+02
2.188812e+03,2.275791e+02
2.189776e+03,2.308028e+02
2.190740e+03,2.274134e+02
2.191704e+03,2.228459e+02
2.192668e+03,2.228889e+02
2.193633e+03,2.242852e+02
2.194597e+03,2.212801e+02
2.195561e+03,2.183986e+02
2.196525e+03,2.204442e+02
2.197490e+03,2.236510e+02
2.198454e+03,2.194424e+02
2.199418e+03,2.150270e+02
2.200382e+03,2.172418e+02
2.201347e+03,2.227165e+02
2.202311e+03,2.275370e+02
2.203275e+03,2.298618e+02
2.204239e+03,2.260586e+02
2.205204e+03,2.205821e+02
2.206168e+03,2.198598e+02
2.207132e+03,2.211465e+02
2.208096e+03,2.219554e+02
2.209061e+03,2.212488e+02
2.210025e+03,2.160401e+02
2.210989e+03,2.107014e+02
2.211953e+03,2.142359e+02
2.212917e+03,2.199291e+02
2.213882e+03,2.199825e+02
2.214846e+03,2.174623e+02
2.215810e+03,2.183927e+02
2.216774e+03,2.201161e+02
2.217739e+03,2.208304e+02
2.218703e+03,2.204381e+02
2.219667e+03,2.175588e+02
2.220631e+03,2.145795e+02
2.221595e+03,2.142028e+02
2.222560e+03,2.142681e+02
2.223524e+03,2.101172e+02
2.224488e+03,2.062916e+02
2.225452e+03,2.101785e+02
2.226417e+03,2.155524e+02
2.227381e+03,2.162113e+02
2.228345e+03,2.148688e+02
2.229309e+03,2.141970e+02
2.230274e+03,2.138986e+02
2.231238e+03,2.137854e+02
2.232202e+03,2.138708e+02
2.233166e+03,2.148324e+02
2.234131e+03,2.155760e+02
2.235095e+03,2.149055e+02
2.236059e+03,2.141934e+02
2.237023e+03,2.168970e+02
2.237988e+03,2.184172e+02
2.238952e+03,2.149623e+02
2.239916e+03,2.104020e+02
2.240880e+03,2.101096e+02
2.241844e+03,2.110406e+02
2.242809e+03,2.109221e+02
2.243773e+03,2.108289e+02
2.244737e+03,2.126326e+02
2.245701e+03,2.137217e+02
2.246666e+03,2.108589e+02
2.247630e+03,2.079805e+02
2.248594e+03,2.081194e+02
2.249558e+03,2.094208e+02
2.250522e+03,2.112039e+02
2.251487e+03,2.114494e+02
2.252451e+03,2.083882e+02
2.253415e+03,2.045510e+02
2.254379e+03,2.010773e+02
2.255344e+03,2.013692e+02
2.256308e+03,2.076707e+02
2.257272e+03,2.137917e+02
2.258236e+03,2.123150e+02
2.259201e+03,2.108662e+02
2.260165e+03,2.119351e+02
2.261129e+03,2.138679e+02
2.262093e+03,2.172979e+02
2.263058e+03,2.171155e+02
2.264022e+03,2.116233e+02
2.264986e+03,2.070767e+02
2.265950e+03,2.089574e+02
2.266915e+03,2.093274e+02
2.267879e+03,2.047695e+02
2.268843e+03,2.032482e+02
2.269807e+03,2.106616e+02
2.270771e+03,2.136273e+02
2.271736e+03,2.053588e+02
2.272700e+03,2.002442e+02
2.273664e+03,2.023638e+02
2.274628e+03,2.041898e+02
2.275593e+03,2.013573e+02
2.276557e+03,2.015194e+02
2.277521e+03,2.060783e+02
2.278485e+03,2.086195e+02
2.279449e+03,2.043164e+02
2.280414e+03,2.021380e+02
2.281378e+03,2.025398e+02
2.282342e+03,2.031657e+02
2.283306e+03,2.027233e+02
2.284271e+03,2.025858e+02
2.285235e+03,2.026279e+02
2.286199e+03,2.016768e+02
2.287163e+03,1.990102e+02
2.288128e+03,1.987842e+02
2.289092e+03,2.005360e+02
2.290056e+03,2.010040e+02
2.291020e+03,1.994395e+02
2.291985e+03,1.991975e+02
2.292949e+03,2.002916e+02
2.293913e+03,2.005073e+02
2.294877e+03,1.996794e+02
2.295842e+03,1.996415e+02
2.296806e+03,2.003801e+02
2.297770e+03,2.031478e+02
2.298734e+03,2.068259e+02
2.299698e+03,2.071735e+02
2.300663e+03,2.046167e+02
2.301627e+03,2.018880e+02
2.302591e+03,1.991720e+02
2.303555e+03,1.965851e+02
2.304520e+03,1.945414e+02
2.305484e+03,1.954049e+02
2.306448e+03,1.979900e+02
2.307412e+03,2.007949e+02
2.308376e+03,2.027783e+02
2.309341e+03,2.003863e+02
2.310305e+03,1.967406e+02
2.311269e+03,1.964694e+02
2.312233e+03,1.976907e+02
2.313198e+03,1.960006e+02
2.314162e+03,1.949565e+02
2.315126e+03,2.002776e+02
2.316090e+03,2.059799e+02
2.317055e+03,2.056448e+02
2.318019e+03,2.025486e+02
2.318983e+03,1.979930e+02
2.319947e+03,1.944191e+02
2.320912e+03,1.935324e+02
2.321876e+03,1.950297e+02
2.322840e+03,2.010561e+02
2.323804e+03,2.044623e+02
2.324769e+03,2.008018e+02
2.325733e+03,1.970185e+02
2.326697e+03,1.981342e+02
2.327661e+03,1.997328e+02
2.328625e+03,2.006725e+02
2.329590e+03,2.006344e+02
2.330554e+03,1.992168e+02
2.331518e+03,1.976120e+02
2.332482e+03,1.958950e+02
2.333447e+03,1.957317e+02
2.334411e+03,1.991508e+02
2.335375e+03,2.009982e+02
2.336339e+03,2.009472e+02
2.337303e+03,1.990827e+02
2.338268e+03,1.936993e+02
2.339232e+03,1.925325e+02
2.340196e+03,1.948008e+02
2.341160e+03,1.940659e+02
2.342125e+03,1.880131e+02
2.343089e+03,1.907442e+02
2.344053e+03,1.991423e+02
2.345017e+03,2.018394e+02
2.345982e+03,1.979402e+02
2.346946e+03,1.938908e+02
2.347910e+03,1.905658e+02
2.348874e+03,1.902368e+02
2.349839e+03,1.921804e+02
2.350803e+03,1.953426e+02
2.351767e+03,1.983290e+02
2.352731e+03,1.974201e+02
2.353696e+03,1.947524e+02
2.354660e+03,1.933327e+02
2.355624e+03,1.924683e+02
2.356588e+03,1.905878e+02
2.357552e+03,1.899348e+02
2.358517e+03,1.934945e+02
2.359481e+03,1.978194e+02
2.360445e+03,1.991225e+02
2.361409e+03,1.985376e+02
2.362374e+03,1.961176e+02
2.363338e+03,1.935199e+02
2.364302e+03,1.928739e+02
2.365266e+03,1.920548e+02
2.366230e+03,1.902050e+02
2.367195e+03,1.885865e+02
2.368159e+03,1.863217e+02
2.369123e+03,1.898858e+02
2.370087e+03,2.007522e+02
2.371052e+03,2.058749e+02
2.372016e+03,1.956078e+02
2.372980e+03,1.906819e+02
2.373944e+03,1.916920e+02
2.374909e+03,1.928056e+02
2.375873e+03,1.925272e+02
2.376837e+03,1.908526e+02
2.377801e+03,1.881755e+02
2.378766e+03,1.859652e+02
2.379730e+03,1.844766e+02
2.380694e+03,1.844968e+02
2.381658e+03,1.854981e+02
2.382623e+03,1.854976e+02
2.383587e+03,1.849659e+02
2.384551e+03,1.863337e+02
2.385515e+03,1.882227e+02
2.386479e+03,1.887096e+02
2.387444e+03,1.880421e+02
2.388408e+03,1.851375e+02
2.389372e+03,1.829109e+02
2.390336e+03,1.852430e+02
2.391301e+03,1.878837e+02
2.392265e+03,1.861780e+02
2.393229e+03,1.839715e+02
2.394193e+03,1.838251e+02
2.395157e+03,1.834139e+02
2.396122e+03,1.805824e+02
2.397086e+03,1.791092e+02
2.398050e+03,1.804824e+02
2.399014e+03,1.812441e+02
2.399979e+03,1.792157e+02
2.400943e+03,1.820477e+02
2.401907e+03,1.911288e+02
2.402871e+03,1.922843e+02
2.403836e+03,1.823402e+02
2.404800e+03,1.787768e+02
2.405764e+03,1.824076e+02
2.406728e+03,1.841942e+02
2.407693e+03,1.837038e+02
2.408657e+03,1.860543e+02
2.409621e+03,1.902353e+02
2.410585e+03,1.894397e+02
2.411550e+03,1.853192e+02
2.412514e+03,1.822694e+02
2.413478e+03,1.806237e+02
2.414442e+03,1.827815e+02
2.415406e+03,1.852455e+02
2.416371e+03,1.838868e+02
2.417335e+03,1.811866e+02
2.418299e+03,1.800634e+02
2.419263e+03,1.801403e+02
2.420228e+03,1.813465e+02
2.421192e+03,1.828030e+02
2.422156e+03,1.847879e+02
2.423120e+03,1.845247e+02
2.424084e+03,1.808187e+02
2.425049e+03,1.780708e+02
2.426013e+03,1.791553e+02
2.426977e+03,1.815029e+02
2.427941e+03,1.848738e+02
2.428906e+03,1.847957e+02
2.429870e+03,1.791038e+02
2.430834e+03,1.788590e+02
2.431798e+03,1.828806e+02
2.432763e+03,1.825442e+02
2.433727e+03,1.778608e+02
2.434691e+03,1.776704e+02
2.435655e+03,1.799522e+02
2.436620e+03,1.807730e+02
2.437584e+03,1.802343e+02
2.438548e+03,1.780962e+02
2.439512e+03,1.761620e+02
2.440477e+03,1.763520e+02
2.441441e+03,1.769126e+02
2.442405e+03,1.751107e+02
2.443369e+03,1.740050e+02
2.444333e+03,1.752309e+02
2.445298e+03,1.764986e+02
2.446262e+03,1.747965e+02
2.447226e+03,1.749745e+02
2.448190e+03,1.780124e+02
2.449155e+03,1.801733e+02
2.450119e+03,1.782220e+02
2.451083e+03,1.782821e+02
2.452047e+03,1.800872e+02
2.453011e+03,1.809462e+02
2.453976e+03,1.802446e+02
2.454940e+03,1.809311e+02
2.455904e+03,1.820612e+02
2.456868e+03,1.792844e+02
2.457833e+03,1.740693e+02
2.458797e+03,1.706979e+02
2.459761e+03,1.702550e+02
2.460725e+03,1.756647e+02
2.461690e+03,1.817594e+02
2.462654e+03,1.808176e+02
2.463618e+03,1.774302e+02
2.464582e+03,1.745170e+02
2.465547e+03,1.722127e+02
2.466511e+03,1.705942e+02
2.467475e+03,1.687478e+02
2.468439e+03,1.662469e+02
2.469404e+03,1.661115e+02
2.470368e+03,1.731543e+02
2.471332e+03,1.761945e+02
2.472296e+03,1.752589e+02
2.473260e+03,1.752266e+02
2.474225e+03,1.774552e+02
2.475189e+03,1.773164e+02
2.476153e+03,1.755884e+02
2.477117e+03,1.734878e+02
2.478082e+03,1.718437e+02
2.479046e+03,1.742478e+02
2.480010e+03,1.773242e+02
2.480974e+03,1.760625e+02
2.481938e+03,1.736447e+02
2.482903e+03,1.744141e+02
2.483867e+03,1.756169e+02
2.484831e+03,1.758745e+02
2.485795e+03,1.750287e+02
2.486760e+03,1.719742e+02
2.487724e+03,1.699366e+02
2.488688e+03,1.694839e+02
2.489652e+03,1.693394e+02
2.490617e+03,1.683321e+02
2.491581e+03,1.695825e+02
2.492545e+03,1.726411e+02
2.493509e+03,1.741613e+02
2.494474e+03,1.736268e+02
2.495438e+03,1.728276e+02
2.496402e+03,1.721844e+02
2.497366e+03,1.728608e+02
2.498331e+03,1.742965e+02
2.499295e+03,1.770236e+02
2.500259e+03,1.775636e+02
2.501223e+03,1.721402e+02
2.502188e+03,1.674613e+02
2.503152e+03,1.728553e+02
2.504116e+03,1.770056e+02
2.505080e+03,1.765060e+02
2.506044e+03,1.749432e+02
2.507009e+03,1.734514e+02
2.507973e+03,1.734559e+02
2.508937e+03,1.749246e+02
2.509901e+03,1.761612e+02
2.510865e+03,1.767569e+02
2.511830e+03,1.755042e+02
2.512794e+03,1.729210e+02
2.513758e+03,1.707006e+02
2.514722e+03,1.690941e+02
2.515687e+03,1.682572e+02
2.516651e+03,1.680552e+02
2.517615e+03,1.684918e+02
2.518579e+03,1.687231e+02
2.519544e+03,1.660973e+02
2.520508e+03,1.662718e+02
2.521472e+03,1.716695e+02
2.522436e+03,1.759843e+02
2.523401e+03,1.738496e+02
2.524365e+03,1.711988e+02
2.525329e+03,1.684034e+02
2.526293e+03,1.686516e+02
2.527258e+03,1.732593e+02
2.528222e+03,1.698080e+02
2.529186e+03,1.619323e+02
2.530150e+03,1.615119e+02
2.531115e+03,1.664864e+02
2.532079e+03,1.703512e+02
2.533043e+03,1.719238e+02
2.534007e+03,1.699214e+02
2.534971e+03,1.670419e+02
2.535936e+03,1.676609e+02
2.536900e+03,1.670019e+02
2.537864e+03,1.627849e+02
2.538828e+03,1.615266e+02
2.539792e+03,1.677639e+02
2.540757e+03,1.705770e+02
2.541721e+03,1.687837e+02
2.542685e+03,1.663442e+02
2.543649e+03,1.642296e+02
2.544614e+03,1.676083e+02
2.545578e+03,1.740544e+02
2.546542e+03,1.766385e+02
2.547506e+03,1.760795e+02
2.548471e+03,1.710067e+02
2.549435e+03,1.681500e+02
2.550399e+03,1.758425e+02
2.551363e+03,1.827774e+02
2.552328e+03,1.779362e+02
2.553292e+03,1.744326e+02
2.554256e+03,1.771959e+02
2.555220e+03,1.785562e+02
2.556185e+03,1.769974e+02
2.557149e+03,1.750158e+02
2.558113e+03,1.732483e+02
2.559077e+03,1.742029e+02
2.560042e+03,1.767080e+02
2.561006e+03,1.766552e+02
2.561970e+03,1.753023e+02
2.562934e+03,1.758698e+02
2.563898e+03,1.757224e+02
2.564863e+03,1.704035e+02
2.565827e+03,1.654374e+02
2.566791e+03,1.653339e+02
2.567755e+03,1.673265e+02
2.568719e+03,1.702859e+02
2.569684e+03,1.728733e+02
2.570648e+03,1.752496e+02
2.571612e+03,1.715628e+02
2.572576e+03,1.637709e+02
2.573541e+03,1.629294e+02
2.574505e+03,1.683396e+02
2.575469e+03,1.704538e+02
2.576433e+03,1.707536e+02
2.577398e+03,1.722808e+02
2.578362e+03,1.727437e+02
2.579326e+03,1.668419e+02
2.580290e+03,1.617480e+02
2.581255e+03,1.603191e+02
2.582219e+03,1.604672e+02
2.583183e+03,1.611714e+02
2.584147e+03,1.635385e+02
2.585112e+03,1.676101e+02
2.586076e+03,1.704262e+02
2.587040e+03,1.715653e+02
2.588004e+03,1.704946e+02
2.588969e+03,1.677829e+02
2.589933e+03,1.651752e+02
2.590897e+03,1.625008e+02
2.591861e+03,1.570091e+02
2.592825e+03,1.550775e+02
2.593790e+03,1.618995e+02
2.594754e+03,1.675522e+02
2.595718e+03,1.644399e+02
2.596682e+03,1.612839e+02
2.597646e+03,1.595637e+02
2.598611e+03,1.613325e+02
2.599575e+03,1.659896e+02
2.600539e+03,1.639401e+02
2.601503e+03,1.572168e+02
2.602468e+03,1.590506e+02
2.603432e+03,1.645939e+02
2.604396e+03,1.643439e+02
2.605360e+03,1.622983e+02
2.606325e+03,1.615843e+02
2.607289e+03,1.606204e+02
2.608253e+03,1.586137e+02
2.609217e+03,1.573274e+02
2.610182e+03,1.576768e+02
2.611146e+03,1.575113e+02
2.612110e+03,1.568551e+02
2.613074e+03,1.568413e+02
2.614039e+03,1.572251e+02
2.615003e+03,1.538392e+02
2.615967e+03,1.501724e+02
2.616931e+03,1.523248e+02
2.617896e+03,1.565415e+02
2.618860e+03,1.582177e+02
2.619824e+03,1.602978e+02
2.620788e+03,1.642076e+02
2.621752e+03,1.648378e+02
2.622717e+03,1.571548e+02
2.623681e+03,1.535204e+02
2.624645e+03,1.541970e+02
2.625609e+03,1.568389e+02
2.626573e+03,1.604319e+02
2.627538e+03,1.623284e+02
2.628502e+03,1.620945e+02
2.629466e+03,1.587715e+02
2.630430e+03,1.549962e+02
2.631395e+03,1.537642e+02
2.632359e+03,1.548157e+02
2.633323e+03,1.593531e+02
2.634287e+03,1.604881e+02
2.635252e+03,1.569927e+02
2.636216e+03,1.559137e+02
2.637180e+03,1.582771e+02
2.638144e+03,1.589741e+02
2.639109e+03,1.583672e+02
2.640073e+03,1.572522e+02
2.641037e+03,1.568190e+02
2.642001e+03,1.597069e+02
2.642966e+03,1.613240e+02
2.643930e+03,1.590805e+02
2.644894e+03,1.558778e+02
2.645858e+03,1.530802e+02
2.646823e+03,1.495554e+02
2.647787e+03,1.458268e+02
2.648751e+03,1.506377e+02
2.649715e+03,1.631721e+02
2.650679e+03,1.632089e+02
2.651644e+03,1.570958e+02
2.652608e+03,1.548875e+02
2.653572e+03,1.547280e+02
2.654536e+03,1.544188e+02
2.655500e+03,1.539229e+02
2.656465e+03,1.530669e+02
2.657429e+03,1.533252e+02
2.658393e+03,1.550491e+02
2.659357e+03,1.566671e+02
2.660322e+03,1.582919e+02
2.661286e+03,1.610464e+02
2.662250e+03,1.639126e+02
2.663214e+03,1.637674e+02
2.664179e+03,1.616967e+02
2.665143e+03,1.574838e+02
2.666107e+03,1.550047e+02
2.667071e+03,1.564747e+02
2.668036e+03,1.574884e+02
2.669000e+03,1.539149e+02
2.669964e+03,1.573890e+02
2.670928e+03,1.659247e+02
2.671893e+03,1.633081e+02
2.672857e+03,1.524516e+02
2.673821e+03,1.531859e+02
2.674785e+03,1.568021e+02
2.675750e+03,1.532114e+02
2.676714e+03,1.485001e+02
2.677678e+03,1.494389e+02
2.678642e+03,1.510742e+02
2.679606e+03,1.523294e+02
2.680571e+03,1.576573e+02
2.681535e+03,1.671016e+02
2.682499e+03,1.650322e+02
2.683463e+03,1.541222e+02
2.684427e+03,1.494912e+02
2.685392e+03,1.491177e+02
2.686356e+03,1.517401e+02
2.687320e+03,1.531825e+02
2.688284e+03,1.490160e+02
2.689249e+03,1.468064e+02
2.690213e+03,1.480125e+02
2.691177e+03,1.475970e+02
2.692141e+03,1.438141e+02
2.693106e+03,1.453232e+02
2.694070e+03,1.498939e+02
2.695034e+03,1.523816e+02
2.695998e+03,1.529145e+02
2.696963e+03,1.494127e+02
2.697927e+03,1.490123e+02
2.698891e+03,1.553903e+02
2.699855e+03,1.604361e+02
2.700820e+03,1.601734e+02
2.701784e+03,1.582443e+02
2.702748e+03,1.555213e+02
2.703712e+03,1.565903e+02
2.704677e+03,1.598049e+02
2.705641e+03,1.600237e+02
2.706605e+03,1.586156e+02
2.707569e+03,1.548354e+02
2.708533e+03,1.544522e+02
2.709498e+03,1.605638e+02
2.710462e+03,1.629477e+02
2.711426e+03,1.548583e+02
2.712390e+03,1.543213e+02
2.713354e+03,1.590284e+02
2.714319e+03,1.557737e+02
2.715283e+03,1.496102e+02
2.716247e+03,1.582177e+02
2.717211e+03,1.651221e+02
2.718176e+03,1.583291e+02
2.719140e+03,1.503987e+02
2.720104e+03,1.488739e+02
2.721068e+03,1.534288e+02
2.722033e+03,1.629113e+02
2.722997e+03,1.601795e+02
2.723961e+03,1.487274e+02
2.724925e+03,1.450532e+02
2.725890e+03,1.460671e+02
2.726854e+03,1.467758e+02
2.727818e+03,1.488858e+02
2.728782e+03,1.535676e+02
2.729747e+03,1.558459e+02
2.730711e+03,1.507862e+02
2.731675e+03,1.516249e+02
2.732639e+03,1.570762e+02
2.733604e+03,1.602051e+02
2.734568e+03,1.608610e+02
2.735532e+03,1.590062e+02
2.736496e+03,1.556099e+02
2.737460e+03,1.512696e+02
2.738425e+03,1.482934e+02
2.739389e+03,1.483818e+02
2.740353e+03,1.478326e+02
2.741317e+03,1.464400e+02
2.742281e+03,1.480777e+02
2.743246e+03,1.515224e+02
2.744210e+03,1.521769e+02
2.745174e+03,1.509417e+02
2.746138e+03,1.471153e+02
2.747103e+03,1.470747e+02
2.748067e+03,1.532679e+02
2.749031e+03,1.577891e+02
2.749995e+03,1.559583e+02
2.750960e+03,1.537905e+02
2.751924e+03,1.518316e+02
2.752888e+03,1.519507e+02
2.753852e+03,1.529592e+02
2.754817e+03,1.523517e+02
2.755781e+03,1.515972e+02
2.756745e+03,1.516619e+02
2.757709e+03,1.505449e+02
2.758674e+03,1.474600e+02
2.759638e+03,1.476718e+02
2.760602e+03,1.516202e+02
2.761566e+03,1.516396e+02
2.762531e+03,1.493725e+02
2.763495e+03,1.462195e+02
2.764459e+03,1.448429e+02
2.765423e+03,1.512193e+02
2.766387e+03,1.534561e+02
2.767352e+03,1.493905e+02
2.768316e+03,1.476076e+02
2.769280e+03,1.498331e+02
2.770244e+03,1.511007e+02
2.771208e+03,1.506852e+02
2.772173e+03,1.462349e+02
2.773137e+03,1.431047e+02
2.774101e+03,1.497075e+02
2.775065e+03,1.534801e+02
2.776030e+03,1.482304e+02
2.776994e+03,1.457229e+02
2.777958e+03,1.465658e+02
2.778922e+03,1.499018e+02
2.779887e+03,1.533909e+02
2.780851e+03,1.491043e+02
2.781815e+03,1.456956e+02
2.782779e+03,1.495238e+02
2.783744e+03,1.530498e+02
2.784708e+03,1.510077e+02
2.785672e+03,1.501522e+02
2.786636e+03,1.506512e+02
2.787601e+03,1.492331e+02
2.788565e+03,1.468439e+02
2.789529e+03,1.459416e+02
2.790493e+03,1.458430e+02
2.791458e+03,1.450751e+02
2.792422e+03,1.478617e+02
2.793386e+03,1.548059e+02
2.794350e+03,1.538115e+02
2.795314e+03,1.420141e+02
2.796279e+03,1.411253e+02
2.797243e+03,1.459119e+02
2.798207e+03,1.481462e+02
2.799171e+03,1.486599e+02
2.800135e+03,1.463620e+02
2.801100e+03,1.479212e+02
2.802064e+03,1.555336e+02
2.803028e+03,1.565164e+02
2.803992e+03,1.515519e+02
2.804957e+03,1.486384e+02
2.805921e+03,1.475543e+02
2.806885e+03,1.461270e+02
2.807849e+03,1.467904e+02
2.808814e+03,1.504656e+02
2.809778e+03,1.543988e+02
2.810742e+03,1.580255e+02
2.811706e+03,1.569453e+02
2.812671e+03,1.528527e+02
2.813635e+03,1.520551e+02
2.814599e+03,1.537305e+02
2.815563e+03,1.584794e+02
2.816528e+03,1.611163e+02
2.817492e+03,1.585865e+02
2.818456e+03,1.538767e+02
2.819420e+03,1.481819e+02
2.820385e+03,1.472721e+02
2.821349e+03,1.501563e+02
2.822313e+03,1.506961e+02
2.823277e+03,1.516875e+02
2.824241e+03,1.556391e+02
2.825206e+03,1.574678e+02
2.826170e+03,1.532341e+02
2.827134e+03,1.529048e+02
2.828098e+03,1.567996e+02
2.829063e+03,1.591492e+02
2.830027e+03,1.591805e+02
2.830991e+03,1.532540e+02
2.831955e+03,1.493406e+02
2.832919e+03,1.550638e+02
2.833884e+03,1.622352e+02
2.834848e+03,1.689328e+02
2.835812e+03,1.710052e+02
2.836776e+03,1.686990e+02
2.837741e+03,1.617357e+02
2.838705e+03,1.553148e+02
2.839669e+03,1.542230e+02
2.840633e+03,1.580706e+02
2.841598e+03,1.672926e+02
2.842562e+03,1.704829e+02
2.843526e+03,1.645517e+02
2.844490e+03,1.628720e+02
2.845455e+03,1.634478e+02
2.846419e+03,1.629378e+02
2.847383e+03,1.620515e+02
2.848347e+03,1.607516e+02
2.849312e+03,1.612657e+02
2.850276e+03,1.640016e+02
2.851240e+03,1.704030e+02
2.852204e+03,1.782527e+02
2.853168e+03,1.756733e+02
2.854133e+03,1.712722e+02
2.855097e+03,1.802164e+02
2.856061e+03,1.830884e+02
2.857025e+03,1.741640e+02
2.857990e+03,1.675387e+02
2.858954e+03,1.674564e+02
2.859918e+03,1.719121e+02
2.860882e+03,1.767794e+02
2.861846e+03,1.757793e+02
2.862811e+03,1.715213e+02
2.863775e+03,1.639751e+02
2.864739e+03,1.639607e+02
2.865703e+03,1.751640e+02
2.866668e+03,1.817560e+02
2.867632e+03,1.842799e+02
2.868596e+03,1.858488e+02
2.869560e+03,1.869365e+02
2.870525e+03,1.877082e+02
2.871489e+03,1.890564e+02
2.872453e+03,1.911084e+02
2.873417e+03,1.884322e+02
2.874382e+03,1.823382e+02
2.875346e+03,1.872884e+02
2.876310e+03,1.949480e+02
2.877274e+03,1.896374e+02
2.878239e+03,1.876768e+02
2.879203e+03,1.949976e+02
2.880167e+03,1.976340e+02
2.881131e+03,1.913296e+02
2.882095e+03,1.921401e+02
2.883060e+03,1.968681e+02
2.884024e+03,2.001575e+02
2.884988e+03,2.014902e+02
2.885952e+03,1.988565e+02
2.886917e+03,2.017357e+02
2.887881e+03,2.130501e+02
2.888845e+03,2.192991e+02
2.889809e+03,2.206485e+02
2.890773e+03,2.179811e+02
2.891738e+03,2.122754e+02
2.892702e+03,1.987707e+02
2.893666e+03,1.968366e+02
2.894630e+03,2.090305e+02
2.895595e+03,2.138814e+02
2.896559e+03,2.117698e+02
2.897523e+03,2.136966e+02
2.898487e+03,2.160886e+02
2.899452e+03,2.166819e+02
2.900416e+03,2.099629e+02
2.901380e+03,1.960296e+02
2.902344e+03,1.919953e+02
2.903309e+03,1.986568e+02
2.904273e+03,1.959468e+02
2.905237e+03,1.947651e+02
2.906201e+03,2.100228e+02
2.907166e+03,2.142087e+02
2.908130e+03,1.953476e+02
2.909094e+03,1.904890e+02
2.910058e+03,2.036438e+02
2.911022e+03,1.987433e+02
2.911987e+03,1.879932e+02
2.912951e+03,1.851476e+02
2.913915e+03,1.839985e+02
2.914879e+03,1.793202e+02
2.915844e+03,1.816531e+02
2.916808e+03,1.889336e+02
2.917772e+03,1.790694e+02
2.918736e+03,1.660818e+02
2.919700e+03,1.734583e+02
2.920665e+03,1.830998e+02
2.921629e+03,1.838018e+02
2.922593e+03,1.816161e+02
2.923557e+03,1.784221e+02
2.924522e+03,1.814018e+02
2.925486e+03,1.859665e+02
2.926450e+03,1.787089e+02
2.927414e+03,1.732106e+02
2.928379e+03,1.766216e+02
2.929343e+03,1.788237e+02
2.930307e+03,1.781936e+02
2.931271e+03,1.696840e+02
2.932236e+03,1.611142e+02
2.933200e+03,1.704561e+02
2.934164e+03,1.775503e+02
2.935128e+03,1.738054e+02
2.936093e+03,1.739961e+02
2.937057e+03,1.786502e+02
2.938021e+03,1.725971e+02
2.938985e+03,1.630945e+02
2.939949e+03,1.608473e+02
2.940914e+03,1.656160e+02
2.941878e+03,1.764855e+02
2.942842e+03,1.749136e+02
2.943806e+03,1.595582e+02
2.944771e+03,1.576558e+02
2.945735e+03,1.639291e+02
2.946699e+03,1.734471e+02
2.947663e+03,1.768498e+02
2.948627e+03,1.717707e+02
2.949592e+03,1.702976e+02
2.950556e+03,1.738411e+02
2.951520e+03,1.676281e+02
2.952484e+03,1.594854e+02
2.953449e+03,1.556369e+02
2.954413e+03,1.637702e+02
2.955377e+03,1.865933e+02
2.956341e+03,2.049283e+02
2.957306e+03,2.139466e+02
2.958270e+03,2.084194e+02
2.959234e+03,1.940494e+02
2.960198e+03,1.765677e+02
2.961163e+03,1.622370e+02
2.962127e+03,1.531193e+02
2.963091e+03,1.519574e+02
2.964055e+03,1.573079e+02
2.965020e+03,1.647382e+02
2.965984e+03,1.679159e+02
2.966948e+03,1.616700e+02
2.967912e+03,1.575671e+02
2.968876e+03,1.613952e+02
2.969841e+03,1.617721e+02
2.970805e+03,1.602012e+02
2.971769e+03,1.606481e+02
2.972733e+03,1.603470e+02
2.973698e+03,1.575722e+02
2.974662e+03,1.499869e+02
2.975626e+03,1.370098e+02
2.976590e+03,1.410519e+02
2.977554e+03,1.491906e+02
2.978519e+03,1.432355e+02
2.979483e+03,1.361929e+02
2.980447e+03,1.370561e+02
2.981411e+03,1.400563e+02
2.982376e+03,1.435333e+02
2.983340e+03,1.390078e+02
2.984304e+03,1.370270e+02
2.985268e+03,1.491143e+02
2.986233e+03,1.576505e+02
2.987197e+03,1.519353e+02
2.988161e+03,1.452610e+02
2.989125e+03,1.414565e+02
2.990090e+03,1.513763e+02
2.991054e+03,1.591563e+02
2.992018e+03,1.519727e+02
2.992982e+03,1.425444e+02
2.993947e+03,1.348841e+02
2.994911e+03,1.320295e+02
2.995875e+03,1.329498e+02
2.996839e+03,1.341963e+02
2.997803e+03,1.387270e+02
2.998768e+03,1.492387e+02
2.999732e+03,1.533570e+02
3.000696e+03,1.488039e+02
3.001660e+03,1.424739e+02
3.002625e+03,1.370167e+02
3.003589e+03,1.346139e+02
3.004553e+03,1.355431e+02
3.005517e+03,1.401862e+02
3.006481e+03,1.437570e+02
3.007446e+03,1.440129e+02
3.008410e+03,1.321025e+02
3.009374e+03,1.279292e+02
3.010338e+03,1.433026e+02
3.011303e+03,1.531208e+02
3.012267e+03,1.489688e+02
3.013231e+03,1.519269e+02
3.014195e+03,1.560358e+02
3.015160e+03,1.481148e+02
3.016124e+03,1.434839e+02
3.017088e+03,1.470716e+02
3.018052e+03,1.456741e+02
3.019017e+03,1.378313e+02
3.019981e+03,1.311640e+02
3.020945e+03,1.271221e+02
3.021909e+03,1.274567e+02
3.022874e+03,1.247601e+02
3.023838e+03,1.183942e+02
3.024802e+03,1.183843e+02
3.025766e+03,1.231554e+02
3.026730e+03,1.278989e+02
3.027695e+03,1.333432e+02
3.028659e+03,1.399771e+02
3.029623e+03,1.442081e+02
3.030587e+03,1.452217e+02
3.031552e+03,1.351453e+02
3.032516e+03,1.245675e+02
3.033480e+03,1.289240e+02
3.034444e+03,1.287389e+02
3.035408e+03,1.215801e+02
3.036373e+03,1.215419e+02
3.037337e+03,1.261109e+02
3.038301e+03,1.272368e+02
3.039265e+03,1.248788e+02
3.040230e+03,1.136898e+02
3.041194e+03,1.193517e+02
3.042158e+03,1.339627e+02
3.043122e+03,1.241316e+02
3.044087e+03,1.089157e+02
3.045051e+03,1.161284e+02
3.046015e+03,1.242442e+02
3.046979e+03,1.279383e+02
3.047944e+03,1.318512e+02
3.048908e+03,1.346613e+02
3.049872e+03,1.351656e+02
3.050836e+03,1.289060e+02
3.051801e+03,1.089101e+02
3.052765e+03,1.170092e+02
3.053729e+03,1.473443e+02
3.054693e+03,1.400809e+02
3.055657e+03,1.270560e+02
3.056622e+03,1.311153e+02
3.057586e+03,1.385699e+02
3.058550e+03,1.446186e+02
3.059514e+03,1.345226e+02
3.060479e+03,1.217197e+02
3.061443e+03,1.342126e+02
3.062407e+03,1.349566e+02
3.063371e+03,1.161901e+02
3.064335e+03,1.177344e+02
3.065300e+03,1.346937e+02
3.066264e+03,1.231879e+02
3.067228e+03,1.152974e+02
3.068192e+03,1.340082e+02
3.069157e+03,1.468911e+02
3.070121e+03,1.495392e+02
3.071085e+03,1.397895e+02
3.072049e+03,1.277094e+02
3.073014e+03,1.229800e+02
3.073978e+03,1.335599e+02
3.074942e+03,1.600066e+02
3.075906e+03,1.549931e+02
3.076871e+03,1.362703e+02
3.077835e+03,1.326739e+02
3.078799e+03,1.363401e+02
3.079763e+03,1.443907e+02
3.080728e+03,1.475183e+02
3.081692e+03,1.460038e+02
3.082656e+03,1.441900e+02
3.083620e+03,1.419153e+02
3.084584e+03,1.391968e+02
3.085549e+03,1.382382e+02
3.086513e+03,1.390473e+02
3.087477e+03,1.254859e+02
3.088441e+03,1.148834e+02
3.089406e+03,1.290966e+02
3.090370e+03,1.417267e+02
3.091334e+03,1.466328e+02
3.092298e+03,1.310614e+02
3.093262e+03,1.122849e+02
3.094227e+03,1.346556e+02
3.095191e+03,1.450003e+02
3.096155e+03,1.234543e+02
3.097119e+03,1.182418e+02
3.098084e+03,1.259461e+02
3.099048e+03,1.338530e+02
3.100012e+03,1.395626e+02
3.100976e+03,1.422185e+02
3.101941e+03,1.367930e+02
3.102905e+03,1.248686e+02
3.103869e+03,1.171105e+02
3.104833e+03,1.151768e+02
3.105798e+03,1.190615e+02
3.106762e+03,1.231458e+02
3.107726e+03,1.264878e+02
3.108690e+03,1.390125e+02
3.109655e+03,1.512823e+02
3.110619e+03,1.508604e+02
3.111583e+03,1.499332e+02
3.112547e+03,1.495524e+02
3.113511e+03,1.349415e+02
3.114476e+03,1.173777e+02
3.115440e+03,1.233721e+02
3.116404e+03,1.344293e+02
3.117368e+03,1.465515e+02
3.118333e+03,1.562108e+02
3.119297e+03,1.570433e+02
3.120261e+03,1.372419e+02
3.121225e+03,1.257794e+02
3.122189e+03,1.383933e+02
3.123154e+03,1.519494e+02
3.124118e+03,1.613549e+02
3.125082e+03,1.621354e+02
3.126046e+03,1.540307e+02
3.127011e+03,1.373303e+02
3.127975e+03,1.409715e+02
3.128939e+03,1.597052e+02
3.129903e+03,1.629992e+02
3.130868e+03,1.600158e+02
3.131832e+03,1.567406e+02
3.132796e+03,1.491565e+02
3.133760e+03,1.400930e+02
3.134725e+03,1.450981e+02
3.135689e+03,1.482349e+02
3.136653e+03,1.331800e+02
3.137617e+03,1.279947e+02
3.138582e+03,1.410772e+02
3.139546e+03,1.474257e+02
3.140510e+03,1.489551e+02
3.141474e+03,1.478555e+02
3.142438e+03,1.490741e+02
3.143403e+03,1.521973e+02
3.144367e+03,1.432794e+02
3.145331e+03,1.329223e+02
3.146295e+03,1.445057e+02
3.147260e+03,1.496219e+02
3.148224e+03,1.410947e+02
3.149188e+03,1.434268e+02
3.150152e+03,1.482870e+02
3.151116e+03,1.434963e+02
3.152081e+03,1.373708e+02
3.153045e+03,1.333066e+02
3.154009e+03,1.359279e+02
3.154973e+03,1.424759e+02
3.155938e+03,1.469961e+02
3.156902e+03,1.521747e+02
3.157866e+03,1.578026e+02
3.158830e+03,1.520509e+02
3.159795e+03,1.418337e+02
3.160759e+03,1.445867e+02
3.161723e+03,1.499588e+02
3.162687e+03,1.580255e+02
3.163652e+03,1.410013e+02
3.164616e+03,1.193143e+02
3.165580e+03,1.336756e+02
3.166544e+03,1.472564e+02
3.167509e+03,1.445423e+02
3.168473e+03,1.413454e+02
3.169437e+03,1.390627e+02
3.170401e+03,1.322838e+02
3.171365e+03,1.280867e+02
3.172330e+03,1.298131e+02
3.173294e+03,1.419361e+02
3.174258e+03,1.540586e+02
3.175222e+03,1.454177e+02
3.176187e+03,1.346304e+02
3.177151e+03,1.332365e+02
3.178115e+03,1.355491e+02
3.179079e+03,1.400419e+02
3.180043e+03,1.445573e+02
3.181008e+03,1.462048e+02
3.181972e+03,1.446787e+02
3.182936e+03,1.438359e+02
3.183900e+03,1.443145e+02
3.184865e+03,1.472851e+02
3.185829e+03,1.515195e+02
3.186793e+03,1.610741e+02
3.187757e+03,1.537819e+02
3.188722e+03,1.402425e+02
3.189686e+03,1.425877e+02
3.190650e+03,1.555534e+02
3.191614e+03,1.741326e+02
3.192579e+03,1.724874e+02
3.193543e+03,1.576846e+02
3.194507e+03,1.562603e+02
3.195471e+03,1.513434e+02
3.196436e+03,1.351656e+02
3.197400e+03,1.199650e+02
3.198364e+03,1.185695e+02
3.199328e+03,1.511731e+02
3.200292e+03,1.737184e+02
3.201257e+03,0.000000e+00
3.202221e+03,0.000000e+00
3.203185e+03,0.000000e+00
3.204149e+03,0.000000e+00
3.205114e+03,0.000000e+00
3.206078e+03,0.000000e+00
3.207042e+03,0.000000e+00
3.208006e+03,0.000000e+00
3.208970e+03,0.000000e+00
3.209935e+03,0.000000e+00
3.210899e+03,0.000000e+00
3.211863e+03,0.000000e+00
3.212827e+03,0.000000e+00
3.213792e+03,0.000000e+00
3.214756e+03,0.000000e+00
3.215720e+03,0.000000e+00
3.216684e+03,0.000000e+00
3.217649e+03,0.000000e+00
3.218613e+03,0.000000e+00
3.219577e+03,0.000000e+00
3.220541e+03,0.000000e+00
3.221506e+03,0.000000e+00
3.222470e+03,0.000000e+00
3.223434e+03,0.000000e+00
3.224398e+03,0.000000e+00
3.225363e+03,0.000000e+00
3.226327e+03,0.000000e+00
3.227291e+03,0.000000e+00
3.228255e+03,0.000000e+00
3.229219e+03,0.000000e+00
3.230184e+03,0.000000e+00
3.231148e+03,0.000000e+00
3.232112e+03,0.000000e+00
3.233076e+03,0.000000e+00
3.234041e+03,0.000000e+00
3.235005e+03,0.000000e+00
3.235969e+03,0.000000e+00
3.236933e+03,0.000000e+00
3.237897e+03,0.000000e+00
3.238862e+03,0.000000e+00
3.239826e+03,0.000000e+00
3.240790e+03,0.000000e+00
3.241754e+03,0.000000e+00
3.242719e+03,0.000000e+00
3.243683e+03,0.000000e+00
3.244647e+03,0.000000e+00
3.245611e+03,0.000000e+00
3.246576e+03,0.000000e+00
3.247540e+03,0.000000e+00
3.248504e+03,0.000000e+00
3.249468e+03,0.000000e+00
3.250433e+03,0.000000e+00
3.251397e+03,0.000000e+00
3.252361e+03,0.000000e+00
3.253325e+03,0.000000e+00
3.254290e+03,0.000000e+00
3.255254e+03,0.000000e+00
3.256218e+03,0.000000e+00
3.257182e+03,0.000000e+00
3.258146e+03,0.000000e+00
3.259111e+03,0.000000e+00
3.260075e+03,0.000000e+00
3.261039e+03,0.000000e+00
3.262003e+03,0.000000e+00
3.262968e+03,0.000000e+00
3.263932e+03,0.000000e+00
3.264896e+03,0.000000e+00
3.265860e+03,0.000000e+00
3.266824e+03,0.000000e+00
3.267789e+03,0.000000e+00
3.268753e+03,0.000000e+00
3.269717e+03,0.000000e+00
3.270681e+03,0.000000e+00
3.271646e+03,0.000000e+00
3.272610e+03,0.000000e+00
3.273574e+03,0.000000e+00
3.274538e+03,0.000000e+00
3.275503e+03,0.000000e+00
3.276467e+03,0.000000e+00
3.277431e+03,0.000000e+00
3.278395e+03,0.000000e+00
3.279360e+03,0.000000e+00
3.280324e+03,0.000000e+00
3.281288e+03,0.000000e+00
3.282252e+03,0.000000e+00
3.283217e+03,0.000000e+00
3.284181e+03,0.000000e+00
3.285145e+03,0.000000e+00
3.286109e+03,0.000000e+00
3.287073e+03,0.000000e+00
3.288038e+03,0.000000e+00
3.289002e+03,0.000000e+00
3.289966e+03,0.000000e+00
3.290930e+03,0.000000e+00
3.291895e+03,0.000000e+00
3.292859e+03,0.000000e+00
3.293823e+03,0.000000e+00
3.294787e+03,0.000000e+00
3.295751e+03,0.000000e+00
3.296716e+03,0.000000e+00
3.297680e+03,0.000000e+00
3.298644e+03,0.000000e+00
3.299608e+03,0.000000e+00
3.300573e+03,0.000000e+00
3.301537e+03,0.000000e+00
3.302501e+03,0.000000e+00
3.303465e+03,0.000000e+00
3.304430e+03,0.000000e+00
3.305394e+03,0.000000e+00
3.306358e+03,0.000000e+00
3.307322e+03,0.000000e+00
3.308287e+03,0.000000e+00
3.309251e+03,0.000000e+00
3.310215e+03,0.000000e+00
3.311179e+03,0.000000e+00
3.312144e+03,0.000000e+00
3.313108e+03,0.000000e+00
3.314072e+03,0.000000e+00
3.315036e+03,0.000000e+00
3.316000e+03,0.000000e+00
3.316965e+03,0.000000e+00
3.317929e+03,0.000000e+00
3.318893e+03,0.000000e+00
3.319857e+03,0.000000e+00
3.320822e+03,0.000000e+00
3.321786e+03,0.000000e+00
3.322750e+03,0.000000e+00
3.323714e+03,0.000000e+00
3.324678e+03,0.000000e+00
3.325643e+03,0.000000e+00
3.326607e+03,0.000000e+00
3.327571e+03,0.000000e+00
3.328535e+03,0.000000e+00
3.329500e+03,0.000000e+00
3.330464e+03,0.000000e+00
3.331428e+03,0.000000e+00
3.332392e+03,0.000000e+00
3.333357e+03,0.000000e+00
3.334321e+03,0.000000e+00
3.335285e+03,0.000000e+00
3.336249e+03,0.000000e+00
3.337214e+03,0.000000e+00
3.338178e+03,0.000000e+00
3.339142e+03,0.000000e+00
3.340106e+03,0.000000e+00
3.341071e+03,0.000000e+00
3.342035e+03,0.000000e+00
3.342999e+03,0.000000e+00
3.343963e+03,0.000000e+00
3.344927e+03,0.000000e+00
3.345892e+03,0.000000e+00
3.346856e+03,0.000000e+00
3.347820e+03,0.000000e+00
3.348784e+03,0.000000e+00
3.349749e+03,0.000000e+00
3.350713e+03,0.000000e+00
3.351677e+03,0.000000e+00
3.352641e+03,0.000000e+00
3.353605e+03,0.000000e+00
3.354570e+03,0.000000e+00
3.355534e+03,0.000000e+00
3.356498e+03,0.000000e+00
3.357462e+03,0.000000e+00
3.358427e+03,0.000000e+00
3.359391e+03,0.000000e+00
3.360355e+03,0.000000e+00
3.361319e+03,0.000000e+00
3.362284e+03,0.000000e+00
3.363248e+03,0.000000e+00
3.364212e+03,0.000000e+00
3.365176e+03,0.000000e+00
3.366141e+03,0.000000e+00
3.367105e+03,0.000000e+00
3.368069e+03,0.000000e+00
3.369033e+03,0.000000e+00
3.369998e+03,0.000000e+00
3.370962e+03,0.000000e+00
3.371926e+03,0.000000e+00
3.372890e+03,0.000000e+00
3.373854e+03,0.000000e+00
3.374819e+03,0.000000e+00
3.375783e+03,0.000000e+00
3.376747e+03,0.000000e+00
3.377711e+03,0.000000e+00
3.378676e+03,0.000000e+00
3.379640e+03,0.000000e+00
3.380604e+03,0.000000e+00
3.381568e+03,0.000000e+00
3.382532e+03,0.000000e+00
3.383497e+03,0.000000e+00
3.384461e+03,0.000000e+00
3.385425e+03,0.000000e+00
3.386389e+03,0.000000e+00
3.387354e+03,0.000000e+00
3.388318e+03,0.000000e+00
3.389282e+03,0.000000e+00
3.390246e+03,0.000000e+00
3.391211e+03,0.000000e+00
3.392175e+03,0.000000e+00
3.393139e+03,0.000000e+00
3.394103e+03,0.000000e+00
3.395068e+03,0.000000e+00
3.396032e+03,0.000000e+00
3.396996e+03,0.000000e+00
3.397960e+03,0.000000e+00
3.398925e+03,0.000000e+00
3.399889e+03,0.000000e+00
3.400853e+03,0.000000e+00
3.401817e+03,0.000000e+00
3.402781e+03,0.000000e+00
3.403746e+03,0.000000e+00
3.404710e+03,0.000000e+00
3.405674e+03,0.000000e+00
3.406638e+03,0.000000e+00
3.407603e+03,0.000000e+00
3.408567e+03,0.000000e+00
3.409531e+03,0.000000e+00
3.410495e+03,0.000000e+00
3.411459e+03,0.000000e+00
3.412424e+03,0.000000e+00
3.413388e+03,0.000000e+00
3.414352e+03,0.000000e+00
3.415316e+03,0.000000e+00
3.416281e+03,0.000000e+00
3.417245e+03,0.000000e+00
3.418209e+03,0.000000e+00
3.419173e+03,0.000000e+00
3.420138e+03,0.000000e+00
3.421102e+03,0.000000e+00
3.422066e+03,0.000000e+00
3.423030e+03,0.000000e+00
3.423995e+03,0.000000e+00
3.424959e+03,0.000000e+00
3.425923e+03,0.000000e+00
3.426887e+03,0.000000e+00
3.427852e+03,0.000000e+00
3.428816e+03,0.000000e+00
3.429780e+03,0.000000e+00
3.430744e+03,0.000000e+00
3.431708e+03,0.000000e+00
3.432673e+03,0.000000e+00
3.433637e+03,0.000000e+00
3.434601e+03,0.000000e+00
3.435565e+03,0.000000e+00
3.436530e+03,0.000000e+00
3.437494e+03,0.000000e+00
3.438458e+03,0.000000e+00
3.439422e+03,0.000000e+00
3.440386e+03,0.000000e+00
3.441351e+03,0.000000e+00
3.442315e+03,0.000000e+00
3.443279e+03,0.000000e+00
3.444243e+03,0.000000e+00
3.445208e+03,0.000000e+00
3.446172e+03,0.000000e+00
3.447136e+03,0.000000e+00
3.448100e+03,0.000000e+00
3.449065e+03,0.000000e+00
3.450029e+03,0.000000e+00
3.450993e+03,0.000000e+00
3.451957e+03,0.000000e+00
3.452922e+03,0.000000e+00
3.453886e+03,0.000000e+00
3.454850e+03,0.000000e+00
3.455814e+03,0.000000e+00
3.456779e+03,0.000000e+00
3.457743e+03,0.000000e+00
3.458707e+03,0.000000e+00
3.459671e+03,0.000000e+00
3.460635e+03,0.000000e+00
3.461600e+03,0.000000e+00
3.462564e+03,0.000000e+00
3.463528e+03,0.000000e+00
3.464492e+03,0.000000e+00
3.465457e+03,0.000000e+00
3.466421e+03,0.000000e+00
3.467385e+03,0.000000e+00
3.468349e+03,0.000000e+00
3.469313e+03,0.000000e+00
3.470278e+03,0.000000e+00
3.471242e+03,0.000000e+00
3.472206e+03,0.000000e+00
3.473170e+03,0.000000e+00
3.474135e+03,0.000000e+00
3.475099e+03,0.000000e+00
3.476063e+03,0.000000e+00
3.477027e+03,0.000000e+00
3.477992e+03,0.000000e+00
3.478956e+03,0.000000e+00
3.479920e+03,0.000000e+00
3.480884e+03,0.000000e+00
3.481849e+03,0.000000e+00
3.482813e+03,0.000000e+00
3.483777e+03,0.000000e+00
3.484741e+03,0.000000e+00
3.485706e+03,0.000000e+00
3.486670e+03,0.000000e+00
3.487634e+03,0.000000e+00
3.488598e+03,0.000000e+00
3.489563e+03,0.000000e+00
3.490527e+03,0.000000e+00
3.491491e+03,0.000000e+00
3.492455e+03,0.000000e+00
3.493419e+03,0.000000e+00
3.494384e+03,0.000000e+00
3.495348e+03,0.000000e+00
3.496312e+03,0.000000e+00
3.497276e+03,0.000000e+00
3.498240e+03,0.000000e+00
3.499205e+03,0.000000e+00
3.500169e+03,0.000000e+00
