9.931763e+01,0.000000e+00
1.002819e+02,0.000000e+00
1.012461e+02,0.000000e+00
1.022103e+02,0.000000e+00
1.031746e+02,0.000000e+00
1.041388e+02,0.000000e+00
1.051030e+02,0.000000e+00
1.060673e+02,0.000000e+00
1.070315e+02,0.000000e+00
1.079957e+02,0.000000e+00
1.089600e+02,0.000000e+00
1.099242e+02,0.000000e+00
1.108884e+02,0.000000e+00
1.118527e+02,0.000000e+00
1.128169e+02,0.000000e+00
1.137811e+02,0.000000e+00
1.147454e+02,0.000000e+00
1.157096e+02,0.000000e+00
1.166738e+02,0.000000e+00
1.176381e+02,0.000000e+00
1.186023e+02,0.000000e+00
1.195665e+02,0.000000e+00
1.205308e+02,0.000000e+00
1.214950e+02,0.000000e+00
1.224592e+02,0.000000e+00
1.234235e+02,0.000000e+00
1.243877e+02,0.000000e+00
1.253519e+02,0.000000e+00
1.263162e+02,0.000000e+00
1.272804e+02,0.000000e+00
1.282446e+02,0.000000e+00
1.292089e+02,0.000000e+00
1.301731e+02,0.000000e+00
1.311373e+02,0.000000e+00
1.321016e+02,0.000000e+00
1.330658e+02,0.000000e+00
1.340300e+02,0.000000e+00
1.349943e+02,0.000000e+00
1.359585e+02,0.000000e+00
1.369227e+02,0.000000e+00
1.378870e+02,0.000000e+00
1.388512e+02,0.000000e+00
1.398154e+02,0.000000e+00
1.407797e+02,0.000000e+00
1.417439e+02,0.000000e+00
1.427081e+02,0.000000e+00
1.436724e+02,0.000000e+00
1.446366e+02,0.000000e+00
1.456008e+02,0.000000e+00
1.465651e+02,0.000000e+00
1.475293e+02,0.000000e+00
1.484935e+02,0.000000e+00
1.494578e+02,0.000000e+00
1.504220e+02,0.000000e+00
1.513862e+02,0.000000e+00
1.523505e+02,0.000000e+00
1.533147e+02,0.000000e+00
1.542789e+02,0.000000e+00
1.552432e+02,0.000000e+00
1.562074e+02,0.000000e+00
1.571716e+02,0.000000e+00
1.581359e+02,0.000000e+00
1.591001e+02,0.000000e+00
1.600643e+02,0.000000e+00
1.610286e+02,0.000000e+00
1.619928e+02,0.000000e+00
1.629570e+02,0.000000e+00
1.639213e+02,0.000000e+00
1.648855e+02,0.000000e+00
1.658497e+02,0.000000e+00
1.668140e+02,0.000000e+00
1.677782e+02,0.000000e+00
1.687424e+02,0.000000e+00
1.697067e+02,0.000000e+00
1.706709e+02,0.000000e+00
1.716351e+02,0.000000e+00
1.725994e+02,0.000000e+00
1.735636e+02,0.000000e+00
1.745278e+02,0.000000e+00
1.754921e+02,0.000000e+00
1.764563e+02,0.000000e+00
1.774205e+02,0.000000e+00
1.783848e+02,0.000000e+00
1.793490e+02,0.000000e+00
1.803132e+02,0.000000e+00
1.812775e+02,0.000000e+00
1.822417e+02,0.000000e+00
1.832059e+02,0.000000e+00
1.841702e+02,0.000000e+00
1.851344e+02,0.000000e+00
1.860986e+02,0.000000e+00
1.870629e+02,0.000000e+00
1.880271e+02,0.000000e+00
1.889913e+02,0.000000e+00
1.899556e+02,0.000000e+00
1.909198e+02,0.000000e+00
1.918840e+02,0.000000e+00
1.928483e+02,0.000000e+00
1.938125e+02,0.000000e+00
1.947767e+02,0.000000e+00
1.957410e+02,0.000000e+00
1.967052e+02,0.000000e+00
1.976694e+02,0.000000e+00
1.986337e+02,0.000000e+00
1.995979e+02,9.014345e+03
2.005621e+02,9.035396e+03
2.015264e+02,9.051890e+03
2.024906e+02,9.057021e+03
2.034548e+02,9.062777e+03
2.044191e+02,9.071216e+03
2.053833e+02,9.080154e+03
2.063475e+02,9.085974e+03
2.073118e+02,9.084845e+03
2.082760e+02,9.074089e+03
2.092402e+02,9.064691e+03
2.102045e+02,9.061443e+03
2.111687e+02,9.063706e+03
2.121329e+02,9.070270e+03
2.130972e+02,9.079270e+03
2.140614e+02,9.088377e+03
2.150256e+02,9.095550e+03
2.159899e+02,9.100298e+03
2.169541e+02,9.106009e+03
2.179183e+02,9.116163e+03
2.188826e+02,9.128940e+03
2.198468e+02,9.141121e+03
2.208110e+02,9.149819e+03
2.217753e+02,9.153946e+03
2.227395e+02,9.154991e+03
2.237037e+02,9.158415e+03
2.246680e+02,9.161594e+03
2.256322e+02,9.159771e+03
2.265964e+02,9.152636e+03
2.275607e+02,9.146254e+03
2.285249e+02,9.146265e+03
2.294892e+02,9.153252e+03
2.304534e+02,9.164940e+03
2.314176e+02,9.177260e+03
2.323819e+02,9.188379e+03
2.333461e+02,9.197696e+03
2.343103e+02,9.206748e+03
2.352746e+02,9.215959e+03
2.362388e+02,9.223615e+03
2.372030e+02,9.226787e+03
2.381673e+02,9.224254e+03
2.391315e+02,9.220166e+03
2.400957e+02,9.220259e+03
2.410600e+02,9.220465e+03
2.420242e+02,9.220488e+03
2.429884e+02,9.222731e+03
2.439527e+02,9.229073e+03
2.449169e+02,9.237934e+03
2.458811e+02,9.247854e+03
2.468454e+02,9.257939e+03
2.478096e+02,9.270970e+03
2.487738e+02,9.282686e+03
2.497381e+02,9.288545e+03
2.507023e+02,9.288084e+03
2.516665e+02,9.286048e+03
2.526308e+02,9.289266e+03
2.535950e+02,9.298499e+03
2.545592e+02,9.304417e+03
2.555235e+02,9.308771e+03
2.564877e+02,9.311904e+03
2.574519e+02,9.314884e+03
2.584161e+02,9.319521e+03
2.593804e+02,9.327025e+03
2.603446e+02,9.335485e+03
2.613088e+02,9.334147e+03
2.622731e+02,9.338215e+03
2.632373e+02,9.356947e+03
2.642015e+02,9.385810e+03
2.651658e+02,9.410597e+03
2.661300e+02,9.416747e+03
2.670942e+02,9.402656e+03
2.680585e+02,9.396760e+03
2.690227e+02,9.412412e+03
2.699869e+02,9.433377e+03
2.709512e+02,9.447972e+03
2.719154e+02,9.455553e+03
2.728796e+02,9.458649e+03
2.738439e+02,9.457986e+03
2.748081e+02,9.453576e+03
2.757723e+02,9.456274e+03
2.767366e+02,9.470185e+03
2.777008e+02,9.488179e+03
2.786650e+02,9.499005e+03
2.796293e+02,9.496870e+03
2.805935e+02,9.489777e+03
2.815577e+02,9.489270e+03
2.825220e+02,9.497395e+03
2.834862e+02,9.509136e+03
2.844504e+02,9.518085e+03
2.854147e+02,9.530238e+03
2.863789e+02,9.536543e+03
2.873431e+02,9.533704e+03
2.883074e+02,9.526234e+03
2.892716e+02,9.520015e+03
2.902358e+02,9.516229e+03
2.912001e+02,9.513656e+03
2.921643e+02,9.512255e+03
2.931285e+02,9.512767e+03
2.940928e+02,9.517386e+03
2.950570e+02,9.527379e+03
2.960212e+02,9.540396e+03
2.969855e+02,9.552177e+03
2.979497e+02,9.560088e+03
2.989139e+02,9.565829e+03
2.998782e+02,9.568778e+03
3.008424e+02,9.570847e+03
3.018066e+02,9.575184e+03
3.027709e+02,9.580872e+03
3.037351e+02,9.586058e+03
3.046993e+02,9.590388e+03
3.056636e+02,9.596513e+03
3.066278e+02,9.608516e+03
3.075920e+02,9.617348e+03
3.085563e+02,9.614889e+03
3.095205e+02,9.607816e+03
3.104847e+02,9.607238e+03
3.114490e+02,9.618343e+03
3.124132e+02,9.635103e+03
3.133774e+02,9.647905e+03
3.143417e+02,9.654526e+03
3.153059e+02,9.655696e+03
3.162701e+02,9.655785e+03
3.172344e+02,9.657437e+03
3.181986e+02,9.660146e+03
3.191628e+02,9.664996e+03
3.201271e+02,9.671529e+03
3.210913e+02,9.677803e+03
3.220555e+02,9.682012e+03
3.230198e+02,9.684042e+03
3.239840e+02,9.687830e+03
3.249482e+02,9.691229e+03
3.259125e+02,9.697021e+03
3.268767e+02,9.708071e+03
3.278409e+02,9.723246e+03
3.288052e+02,9.738864e+03
3.297694e+02,9.751853e+03
3.307336e+02,9.761962e+03
3.316979e+02,9.769349e+03
3.326621e+02,9.772776e+03
3.336263e+02,9.772049e+03
3.345906e+02,9.766976e+03
3.355548e+02,9.760166e+03
3.365190e+02,9.756579e+03
3.374833e+02,9.759306e+03
3.384475e+02,9.767660e+03
3.394117e+02,9.781113e+03
3.403760e+02,9.800082e+03
3.413402e+02,9.820915e+03
3.423044e+02,9.838207e+03
3.432687e+02,9.848868e+03
3.442329e+02,9.856129e+03
3.451971e+02,9.860688e+03
3.461614e+02,9.860045e+03
3.471256e+02,9.853800e+03
3.480898e+02,9.844137e+03
3.490541e+02,9.831419e+03
3.500183e+02,9.827146e+03
3.509825e+02,9.841465e+03
3.519468e+02,9.863170e+03
3.529110e+02,9.880869e+03
3.538752e+02,9.889717e+03
3.548395e+02,9.893146e+03
3.558037e+02,9.900524e+03
3.567680e+02,9.916918e+03
3.577322e+02,9.929563e+03
3.586964e+02,9.938718e+03
3.596607e+02,9.947585e+03
3.606249e+02,9.957129e+03
3.615891e+02,9.965297e+03
3.625534e+02,9.967565e+03
3.635176e+02,9.958660e+03
3.644818e+02,9.936678e+03
3.654461e+02,9.917916e+03
3.664103e+02,9.919313e+03
3.673745e+02,9.941646e+03
3.683388e+02,9.966269e+03
3.693030e+02,9.981804e+03
3.702672e+02,9.990448e+03
3.712315e+02,9.998003e+03
3.721957e+02,1.000489e+04
3.731599e+02,1.000863e+04
3.741242e+02,1.000877e+04
3.750884e+02,1.000631e+04
3.760526e+02,1.000998e+04
3.770169e+02,1.002283e+04
3.779811e+02,1.003904e+04
3.789453e+02,1.005153e+04
3.799096e+02,1.005618e+04
3.808738e+02,1.005352e+04
3.818380e+02,1.004821e+04
3.828023e+02,1.004207e+04
3.837665e+02,1.004016e+04
3.847307e+02,1.004233e+04
3.856950e+02,1.004791e+04
3.866592e+02,1.005505e+04
3.876234e+02,1.006159e+04
3.885877e+02,1.006803e+04
3.895519e+02,1.007734e+04
3.905161e+02,1.009029e+04
3.914804e+02,1.010160e+04
3.924446e+02,1.010654e+04
3.934088e+02,1.010723e+04
3.943731e+02,1.010594e+04
3.953373e+02,1.009956e+04
3.963015e+02,1.009155e+04
3.972658e+02,1.008732e+04
3.982300e+02,1.009017e+04
3.991942e+02,1.010112e+04
4.001585e+02,1.011468e+04
4.011227e+02,1.012629e+04
4.020869e+02,1.013846e+04
4.030512e+02,1.014960e+04
4.040154e+02,1.015764e+04
4.049796e+02,1.016257e+04
4.059439e+02,1.016237e+04
4.069081e+02,1.015891e+04
4.078723e+02,1.016065e+04
4.088366e+02,1.016795e+04
4.098008e+02,1.017220e+04
4.107650e+02,1.017213e+04
4.117293e+02,1.016932e+04
4.126935e+02,1.016869e+04
4.136577e+02,1.017419e+04
4.146220e+02,1.018195e+04
4.155862e+02,1.018526e+04
4.165504e+02,1.018248e+04
4.175147e+02,1.017936e+04
4.184789e+02,1.018451e+04
4.194431e+02,1.021160e+04
4.204074e+02,1.022963e+04
4.213716e+02,1.023085e+04
4.223358e+02,1.022522e+04
4.233001e+02,1.022403e+04
4.242643e+02,1.023401e+04
4.252285e+02,1.025010e+04
4.261928e+02,1.025799e+04
4.271570e+02,1.025402e+04
4.281212e+02,1.025250e+04
4.290855e+02,1.025922e+04
4.300497e+02,1.027053e+04
4.310139e+02,1.028051e+04
4.319782e+02,1.028759e+04
4.329424e+02,1.029496e+04
4.339066e+02,1.030481e+04
4.348709e+02,1.031608e+04
4.358351e+02,1.032691e+04
4.367993e+02,1.033650e+04
4.377636e+02,1.034657e+04
4.387278e+02,1.035202e+04
4.396920e+02,1.035332e+04
4.406563e+02,1.035266e+04
4.416205e+02,1.034838e+04
4.425847e+02,1.033979e+04
4.435490e+02,1.033201e+04
4.445132e+02,1.033478e+04
4.454774e+02,1.035222e+04
4.464417e+02,1.036820e+04
4.474059e+02,1.037606e+04
4.483701e+02,1.037791e+04
4.493344e+02,1.037829e+04
4.502986e+02,1.037743e+04
4.512628e+02,1.037970e+04
4.522271e+02,1.039148e+04
4.531913e+02,1.041025e+04
4.541555e+02,1.042411e+04
4.551198e+02,1.042415e+04
4.560840e+02,1.041077e+04
4.570482e+02,1.040244e+04
4.580125e+02,1.040805e+04
4.589767e+02,1.041892e+04
4.599409e+02,1.043065e+04
4.609052e+02,1.043935e+04
4.618694e+02,1.044287e+04
4.628336e+02,1.043858e+04
4.637979e+02,1.042825e+04
4.647621e+02,1.042271e+04
4.657263e+02,1.042760e+04
4.666906e+02,1.043876e+04
4.676548e+02,1.044744e+04
4.686190e+02,1.045096e+04
4.695833e+02,1.045449e+04
4.705475e+02,1.045919e+04
4.715117e+02,1.046350e+04
4.724760e+02,1.046649e+04
4.734402e+02,1.046859e+04
4.744044e+02,1.046998e+04
4.753687e+02,1.047004e+04
4.763329e+02,1.046948e+04
4.772971e+02,1.046674e+04
4.782614e+02,1.045661e+04
4.792256e+02,1.044660e+04
4.801898e+02,1.044550e+04
4.811541e+02,1.045938e+04
4.821183e+02,1.047933e+04
4.830826e+02,1.049449e+04
4.840468e+02,1.050394e+04
4.850110e+02,1.050772e+04
4.859753e+02,1.050687e+04
4.869395e+02,1.050040e+04
4.879037e+02,1.049146e+04
4.888680e+02,1.047775e+04
4.898322e+02,1.046578e+04
4.907964e+02,1.045879e+04
4.917607e+02,1.045778e+04
4.927249e+02,1.046252e+04
4.936891e+02,1.047597e+04
4.946534e+02,1.049887e+04
4.956176e+02,1.051117e+04
4.965818e+02,1.050506e+04
4.975461e+02,1.049546e+04
4.985103e+02,1.049434e+04
4.994745e+02,1.050199e+04
5.004388e+02,1.050651e+04
5.014030e+02,1.050519e+04
5.023672e+02,1.050060e+04
5.033315e+02,1.049412e+04
5.042957e+02,1.048511e+04
5.052599e+02,1.047504e+04
5.062242e+02,1.047016e+04
5.071884e+02,1.047571e+04
5.081526e+02,1.048328e+04
5.091169e+02,1.049917e+04
5.100811e+02,1.051676e+04
5.110453e+02,1.052568e+04
5.120095e+02,1.051966e+04
5.129738e+02,1.050879e+04
5.139380e+02,1.050286e+04
5.149022e+02,1.050228e+04
5.158665e+02,1.051016e+04
5.168307e+02,1.052848e+04
5.177949e+02,1.055138e+04
5.187592e+02,1.055425e+04
5.197234e+02,1.053376e+04
5.206876e+02,1.051520e+04
5.216519e+02,1.051000e+04
5.226161e+02,1.051653e+04
5.235803e+02,1.052538e+04
5.245446e+02,1.052774e+04
5.255088e+02,1.052485e+04
5.264730e+02,1.052703e+04
5.274373e+02,1.053621e+04
5.284015e+02,1.054700e+04
5.293657e+02,1.055416e+04
5.303300e+02,1.055899e+04
5.312942e+02,1.055620e+04
5.322584e+02,1.054365e+04
5.332227e+02,1.053093e+04
5.341869e+02,1.052550e+04
5.351511e+02,1.052672e+04
5.361154e+02,1.052743e+04
5.370796e+02,1.051799e+04
5.380438e+02,1.049543e+04
5.390081e+02,1.048128e+04
5.399723e+02,1.048494e+04
5.409365e+02,1.049644e+04
5.419008e+02,1.050280e+04
5.428650e+02,1.049493e+04
5.438292e+02,1.048958e+04
5.447935e+02,1.049892e+04
5.457577e+02,1.051778e+04
5.467219e+02,1.053619e+04
5.476862e+02,1.055075e+04
5.486504e+02,1.056124e+04
5.496146e+02,1.056791e+04
5.505789e+02,1.056939e+04
5.515431e+02,1.056773e+04
5.525073e+02,1.056894e+04
5.534716e+02,1.057334e+04
5.544358e+02,1.057568e+04
5.554000e+02,1.056331e+04
5.563643e+02,1.054901e+04
5.573285e+02,1.054751e+04
5.582927e+02,1.055619e+04
5.592570e+02,1.056474e+04
5.602212e+02,1.056833e+04
5.611854e+02,1.056613e+04
5.621497e+02,1.056475e+04
5.631139e+02,1.056618e+04
5.640781e+02,1.056107e+04
5.650424e+02,1.054699e+04
5.660066e+02,1.052716e+04
5.669708e+02,1.050970e+04
5.679351e+02,1.050223e+04
5.688993e+02,1.050141e+04
5.698635e+02,1.050011e+04
5.708278e+02,1.049867e+04
5.717920e+02,1.050122e+04
5.727562e+02,1.050997e+04
5.737205e+02,1.052616e+04
5.746847e+02,1.053496e+04
5.756489e+02,1.052866e+04
5.766132e+02,1.051922e+04
5.775774e+02,1.051493e+04
5.785416e+02,1.051703e+04
5.795059e+02,1.051895e+04
5.804701e+02,1.051374e+04
5.814343e+02,1.050401e+04
5.823986e+02,1.049857e+04
5.833628e+02,1.049994e+04
5.843270e+02,1.050587e+04
5.852913e+02,1.051251e+04
5.862555e+02,1.051963e+04
5.872197e+02,1.052800e+04
5.881840e+02,1.053725e+04
5.891482e+02,1.054581e+04
5.901124e+02,1.055321e+04
5.910767e+02,1.055942e+04
5.920409e+02,1.056372e+04
5.930051e+02,1.056356e+04
5.939694e+02,1.055882e+04
5.949336e+02,1.055388e+04
5.958978e+02,1.055091e+04
5.968621e+02,1.054794e+04
5.978263e+02,1.054114e+04
5.987905e+02,1.052673e+04
5.997548e+02,1.051618e+04
6.007190e+02,1.051067e+04
6.016832e+02,1.051148e+04
6.026475e+02,1.051871e+04
6.036117e+02,1.053256e+04
6.045759e+02,1.054664e+04
6.055402e+02,1.055220e+04
6.065044e+02,1.054876e+04
6.074686e+02,1.054442e+04
6.084329e+02,1.054451e+04
6.093971e+02,1.054949e+04
6.103613e+02,1.055639e+04
6.113256e+02,1.057097e+04
6.122899e+02,1.058238e+04
6.132541e+02,1.058817e+04
6.142183e+02,1.058917e+04
6.151826e+02,1.058786e+04
6.161468e+02,1.059244e+04
6.171110e+02,1.059520e+04
6.180753e+02,1.057890e+04
6.190395e+02,1.054486e+04
6.200037e+02,1.051443e+04
6.209680e+02,1.050009e+04
6.219322e+02,1.050267e+04
6.228964e+02,1.050900e+04
6.238607e+02,1.051888e+04
6.248249e+02,1.053122e+04
6.257891e+02,1.054944e+04
6.267534e+02,1.056616e+04
6.277176e+02,1.056744e+04
6.286818e+02,1.053756e+04
6.296461e+02,1.050082e+04
6.306103e+02,1.048392e+04
6.315745e+02,1.048686e+04
6.325388e+02,1.049542e+04
6.335030e+02,1.049664e+04
6.344672e+02,1.048848e+04
6.354315e+02,1.048580e+04
6.363957e+02,1.048847e+04
6.373599e+02,1.049181e+04
6.383242e+02,1.049914e+04
6.392884e+02,1.051061e+04
6.402526e+02,1.051541e+04
6.412169e+02,1.050430e+04
6.421811e+02,1.048790e+04
6.431453e+02,1.047507e+04
6.441096e+02,1.046652e+04
6.450738e+02,1.046047e+04
6.460380e+02,1.045662e+04
6.470023e+02,1.045714e+04
6.479665e+02,1.046447e+04
6.489307e+02,1.048004e+04
6.498950e+02,1.049449e+04
6.508592e+02,1.049728e+04
6.518234e+02,1.048597e+04
6.527877e+02,1.047721e+04
6.537519e+02,1.047849e+04
6.547161e+02,1.048124e+04
6.556804e+02,1.047791e+04
6.566446e+02,1.046901e+04
6.576088e+02,1.046156e+04
6.585731e+02,1.046436e+04
6.595373e+02,1.047504e+04
6.605015e+02,1.047921e+04
6.614658e+02,1.047469e+04
6.624300e+02,1.046670e+04
6.633942e+02,1.045991e+04
6.643585e+02,1.045362e+04
6.653227e+02,1.044892e+04
6.662869e+02,1.043848e+04
6.672512e+02,1.043187e+04
6.682154e+02,1.043877e+04
6.691796e+02,1.045864e+04
6.701439e+02,1.047570e+04
6.711081e+02,1.047772e+04
6.720723e+02,1.046966e+04
6.730366e+02,1.046135e+04
6.740008e+02,1.045541e+04
6.749650e+02,1.045246e+04
6.759293e+02,1.045420e+04
6.768935e+02,1.046513e+04
6.778577e+02,1.047206e+04
6.788220e+02,1.047709e+04
6.797862e+02,1.048219e+04
6.807504e+02,1.048440e+04
6.817147e+02,1.048045e+04
6.826789e+02,1.047373e+04
6.836431e+02,1.046103e+04
6.846074e+02,1.044422e+04
6.855716e+02,1.042699e+04
6.865358e+02,1.041220e+04
6.875001e+02,1.040226e+04
6.884643e+02,1.040043e+04
6.894285e+02,1.040706e+04
6.903928e+02,1.041482e+04
6.913570e+02,1.042354e+04
6.923212e+02,1.042922e+04
6.932855e+02,1.042842e+04
6.942497e+02,1.041985e+04
6.952139e+02,1.041657e+04
6.961782e+02,1.041855e+04
6.971424e+02,1.042343e+04
6.981066e+02,1.042776e+04
6.990709e+02,1.042703e+04
7.000351e+02,1.042179e+04
7.009993e+02,1.041995e+04
7.019636e+02,1.042109e+04
7.029278e+02,1.041718e+04
7.038920e+02,1.040575e+04
7.048563e+02,1.038937e+04
7.058205e+02,1.037235e+04
7.067847e+02,1.035589e+04
7.077490e+02,1.034984e+04
7.087132e+02,1.036688e+04
7.096774e+02,1.039349e+04
7.106417e+02,1.041009e+04
7.116059e+02,1.041235e+04
7.125701e+02,1.041309e+04
7.135344e+02,1.041974e+04
7.144986e+02,1.042784e+04
7.154628e+02,1.043014e+04
7.164271e+02,1.042472e+04
7.173913e+02,1.041727e+04
7.183555e+02,1.041545e+04
7.193198e+02,1.041689e+04
7.202840e+02,1.041065e+04
7.212482e+02,1.039561e+04
7.222125e+02,1.037937e+04
7.231767e+02,1.036765e+04
7.241409e+02,1.035717e+04
7.251052e+02,1.035186e+04
7.260694e+02,1.036035e+04
7.270336e+02,1.036611e+04
7.279979e+02,1.035803e+04
7.289621e+02,1.033427e+04
7.299263e+02,1.031993e+04
7.308906e+02,1.033488e+04
7.318548e+02,1.035759e+04
7.328190e+02,1.036561e+04
7.337833e+02,1.035706e+04
7.347475e+02,1.034350e+04
7.357117e+02,1.033970e+04
7.366760e+02,1.034599e+04
7.376402e+02,1.034506e+04
7.386044e+02,1.033486e+04
7.395687e+02,1.032239e+04
7.405329e+02,1.031044e+04
7.414971e+02,1.029698e+04
7.424614e+02,1.028983e+04
7.434256e+02,1.029746e+04
7.443898e+02,1.031385e+04
7.453541e+02,1.033619e+04
7.463183e+02,1.035758e+04
7.472825e+02,1.036706e+04
7.482468e+02,1.035595e+04
7.492110e+02,1.033435e+04
7.501752e+02,1.031352e+04
7.511395e+02,1.029893e+04
7.521037e+02,1.029286e+04
7.530679e+02,1.029636e+04
7.540322e+02,1.030498e+04
7.549964e+02,1.030263e+04
7.559606e+02,1.028736e+04
7.569249e+02,1.027649e+04
7.578891e+02,1.028276e+04
7.588533e+02,1.030850e+04
7.598176e+02,1.032990e+04
7.607818e+02,1.033787e+04
7.617460e+02,1.033397e+04
7.627103e+02,1.031736e+04
7.636745e+02,1.029621e+04
7.646387e+02,1.028277e+04
7.656030e+02,1.028534e+04
7.665672e+02,1.029391e+04
7.675314e+02,1.029673e+04
7.684957e+02,1.028891e+04
7.694599e+02,1.027315e+04
7.704241e+02,1.025493e+04
7.713884e+02,1.024031e+04
7.723526e+02,1.023953e+04
7.733168e+02,1.025663e+04
7.742811e+02,1.027371e+04
7.752453e+02,1.027574e+04
7.762095e+02,1.026284e+04
7.771738e+02,1.025590e+04
7.781380e+02,1.025695e+04
7.791022e+02,1.025341e+04
7.800665e+02,1.024532e+04
7.810307e+02,1.023538e+04
7.819949e+02,1.022679e+04
7.829592e+02,1.022357e+04
7.839234e+02,1.022536e+04
7.848876e+02,1.023232e+04
7.858519e+02,1.024068e+04
7.868161e+02,1.024492e+04
7.877803e+02,1.024131e+04
7.887446e+02,1.023665e+04
7.897088e+02,1.024581e+04
7.906730e+02,1.027017e+04
7.916373e+02,1.029380e+04
7.926015e+02,1.030659e+04
7.935657e+02,1.030709e+04
7.945300e+02,1.030661e+04
7.954942e+02,1.031431e+04
7.964584e+02,1.030805e+04
7.974227e+02,1.028413e+04
7.983869e+02,1.026132e+04
7.993511e+02,1.025002e+04
8.003154e+02,1.024754e+04
8.012796e+02,1.024222e+04
8.022438e+02,1.023740e+04
8.032081e+02,1.023413e+04
8.041723e+02,1.023266e+04
8.051365e+02,1.023156e+04
8.061008e+02,1.022812e+04
8.070650e+02,1.021490e+04
8.080292e+02,1.019595e+04
8.089935e+02,1.018558e+04
8.099577e+02,1.018829e+04
8.109219e+02,1.019239e+04
8.118862e+02,1.017928e+04
8.128504e+02,1.014989e+04
8.138146e+02,1.013674e+04
8.147789e+02,1.014307e+04
8.157431e+02,1.015476e+04
8.167073e+02,1.016406e+04
8.176716e+02,1.017665e+04
8.186358e+02,1.018581e+04
8.196000e+02,1.018707e+04
8.205643e+02,1.018754e+04
8.215285e+02,1.018603e+04
8.224927e+02,1.018191e+04
8.234570e+02,1.017484e+04
8.244212e+02,1.015965e+04
8.253854e+02,1.014667e+04
8.263497e+02,1.014158e+04
8.273139e+02,1.013991e+04
8.282781e+02,1.013587e+04
8.292424e+02,1.013130e+04
8.302066e+02,1.012792e+04
8.311708e+02,1.012261e+04
8.321351e+02,1.011626e+04
8.330993e+02,1.011375e+04
8.340635e+02,1.011575e+04
8.350278e+02,1.012080e+04
8.359920e+02,1.012945e+04
8.369562e+02,1.014386e+04
8.379205e+02,1.015233e+04
8.388847e+02,1.014970e+04
8.398489e+02,1.014000e+04
8.408132e+02,1.013161e+04
8.417774e+02,1.012186e+04
8.427416e+02,1.011383e+04
8.437059e+02,1.010970e+04
8.446701e+02,1.010675e+04
8.456343e+02,1.010273e+04
8.465986e+02,1.009506e+04
8.475628e+02,1.008823e+04
8.485270e+02,1.008202e+04
8.494913e+02,1.007796e+04
8.504555e+02,1.008088e+04
8.514197e+02,1.009330e+04
8.523840e+02,1.010592e+04
8.533482e+02,1.010602e+04
8.543124e+02,1.009899e+04
8.552767e+02,1.009840e+04
8.562409e+02,1.010509e+04
8.572051e+02,1.010977e+04
8.581694e+02,1.010541e+04
8.591336e+02,1.009384e+04
8.600978e+02,1.007708e+04
8.610621e+02,1.005446e+04
8.620263e+02,1.003877e+04
8.629905e+02,1.003830e+04
8.639548e+02,1.005055e+04
8.649190e+02,1.005449e+04
8.658832e+02,1.005175e+04
8.668475e+02,1.004823e+04
8.678117e+02,1.004318e+04
8.687759e+02,1.003688e+04
8.697402e+02,1.003822e+04
8.707044e+02,1.005285e+04
8.716686e+02,1.005891e+04
8.726329e+02,1.005222e+04
8.735971e+02,1.003878e+04
8.745613e+02,1.002561e+04
8.755256e+02,1.001801e+04
8.764898e+02,1.001464e+04
8.774540e+02,1.001239e+04
8.784183e+02,1.001027e+04
8.793825e+02,1.000754e+04
8.803467e+02,1.000332e+04
8.813110e+02,1.000003e+04
8.822752e+02,1.000582e+04
8.832394e+02,1.001893e+04
8.842037e+02,1.002437e+04
8.851679e+02,1.001536e+04
8.861321e+02,9.999426e+03
8.870964e+02,9.987588e+03
8.880606e+02,9.979096e+03
8.890248e+02,9.976413e+03
8.899891e+02,9.986115e+03
8.909533e+02,9.999415e+03
8.919175e+02,1.000604e+04
8.928818e+02,1.000506e+04
8.938460e+02,1.000040e+04
8.948102e+02,9.982803e+03
8.957745e+02,9.966464e+03
8.967387e+02,9.963019e+03
8.977029e+02,9.969531e+03
8.986672e+02,9.969744e+03
8.996314e+02,9.965093e+03
9.005956e+02,9.962240e+03
9.015599e+02,9.962026e+03
9.025241e+02,9.962651e+03
9.034883e+02,9.962803e+03
9.044526e+02,9.963978e+03
9.054168e+02,9.957707e+03
9.063810e+02,9.939896e+03
9.073453e+02,9.921952e+03
9.083095e+02,9.915654e+03
9.092737e+02,9.924436e+03
9.102380e+02,9.937058e+03
9.112022e+02,9.945451e+03
9.121664e+02,9.948444e+03
9.131307e+02,9.944050e+03
9.140949e+02,9.934651e+03
9.150591e+02,9.928457e+03
9.160234e+02,9.930540e+03
9.169876e+02,9.934658e+03
9.179518e+02,9.931638e+03
9.189161e+02,9.919840e+03
9.198803e+02,9.905666e+03
9.208445e+02,9.900252e+03
9.218088e+02,9.908678e+03
9.227730e+02,9.910074e+03
9.237372e+02,9.896798e+03
9.247015e+02,9.885982e+03
9.256657e+02,9.891900e+03
9.266299e+02,9.914899e+03
9.275942e+02,9.924827e+03
9.285584e+02,9.908157e+03
9.295226e+02,9.890094e+03
9.304869e+02,9.882376e+03
9.314511e+02,9.883141e+03
9.324153e+02,9.881355e+03
9.333796e+02,9.867669e+03
9.343438e+02,9.860440e+03
9.353080e+02,9.870099e+03
9.362723e+02,9.882498e+03
9.372365e+02,9.881640e+03
9.382007e+02,9.862343e+03
9.391650e+02,9.845576e+03
9.401292e+02,9.841217e+03
9.410934e+02,9.842813e+03
9.420577e+02,9.840632e+03
9.430219e+02,9.831145e+03
9.439861e+02,9.819885e+03
9.449504e+02,9.812465e+03
9.459146e+02,9.813276e+03
9.468788e+02,9.825078e+03
9.478431e+02,9.841280e+03
9.488073e+02,9.848704e+03
9.497715e+02,9.840575e+03
9.507358e+02,9.822099e+03
9.517000e+02,9.799379e+03
9.526642e+02,9.776364e+03
9.536285e+02,9.759021e+03
9.545927e+02,9.749547e+03
9.555569e+02,9.746405e+03
9.565212e+02,9.746887e+03
9.574854e+02,9.754448e+03
9.584496e+02,9.764327e+03
9.594139e+02,9.770517e+03
9.603781e+02,9.771889e+03
9.613423e+02,9.773281e+03
9.623066e+02,9.776217e+03
9.632708e+02,9.774303e+03
9.642350e+02,9.767269e+03
9.651993e+02,9.759269e+03
9.661635e+02,9.752744e+03
9.671277e+02,9.746448e+03
9.680920e+02,9.735842e+03
9.690562e+02,9.716784e+03
9.700204e+02,9.696231e+03
9.709847e+02,9.681496e+03
9.719489e+02,9.675183e+03
9.729131e+02,9.676995e+03
9.738774e+02,9.704343e+03
9.748416e+02,9.727217e+03
9.758058e+02,9.722722e+03
9.767701e+02,9.694485e+03
9.777343e+02,9.677890e+03
9.786985e+02,9.690953e+03
9.796628e+02,9.699685e+03
9.806270e+02,9.690312e+03
9.815912e+02,9.670594e+03
9.825555e+02,9.654705e+03
9.835197e+02,9.654152e+03
9.844839e+02,9.655632e+03
9.854482e+02,9.655232e+03
9.864124e+02,9.654949e+03
9.873766e+02,9.654210e+03
9.883409e+02,9.653658e+03
9.893051e+02,9.653999e+03
9.902693e+02,9.652469e+03
9.912336e+02,9.654754e+03
9.921978e+02,9.666568e+03
9.931620e+02,9.684298e+03
9.941263e+02,9.696994e+03
9.950905e+02,9.694838e+03
9.960547e+02,9.687105e+03
9.970190e+02,9.687910e+03
9.979832e+02,9.693106e+03
9.989474e+02,9.688986e+03
9.999117e+02,9.668938e+03
1.000876e+03,9.641696e+03
1.001840e+03,9.614181e+03
1.002804e+03,9.590856e+03
1.003769e+03,9.580194e+03
1.004733e+03,9.583510e+03
1.005697e+03,9.592900e+03
1.006661e+03,9.600782e+03
1.007626e+03,9.607459e+03
1.008590e+03,9.609341e+03
1.009554e+03,9.603277e+03
1.010518e+03,9.595471e+03
1.011482e+03,9.599657e+03
1.012447e+03,9.612670e+03
1.013411e+03,9.607825e+03
1.014375e+03,9.587511e+03
1.015339e+03,9.570290e+03
1.016304e+03,9.567527e+03
1.017268e+03,9.574994e+03
1.018232e+03,9.571065e+03
1.019196e+03,9.552249e+03
1.020161e+03,9.539757e+03
1.021125e+03,9.546013e+03
1.022089e+03,9.565176e+03
1.023053e+03,9.573888e+03
1.024018e+03,9.566054e+03
1.024982e+03,9.559783e+03
1.025946e+03,9.556840e+03
1.026910e+03,9.552593e+03
1.027875e+03,9.546750e+03
1.028839e+03,9.544127e+03
1.029803e+03,9.541583e+03
1.030767e+03,9.538649e+03
1.031731e+03,9.537675e+03
1.032696e+03,9.539223e+03
1.033660e+03,9.542610e+03
1.034624e+03,9.541346e+03
1.035588e+03,9.535063e+03
1.036552e+03,9.531740e+03
1.037517e+03,9.533421e+03
1.038481e+03,9.535796e+03
1.039445e+03,9.532660e+03
1.040409e+03,9.520496e+03
1.041374e+03,9.509578e+03
1.042338e+03,9.505641e+03
1.043302e+03,9.505529e+03
1.044266e+03,9.502687e+03
1.045231e+03,9.494534e+03
1.046195e+03,9.485613e+03
1.047159e+03,9.474550e+03
1.048123e+03,9.467714e+03
1.049088e+03,9.472738e+03
1.050052e+03,9.495719e+03
1.051016e+03,9.506749e+03
1.051980e+03,9.489728e+03
1.052945e+03,9.475205e+03
1.053909e+03,9.471962e+03
1.054873e+03,9.473296e+03
1.055837e+03,9.470325e+03
1.056802e+03,9.462796e+03
1.057766e+03,9.457436e+03
1.058730e+03,9.460153e+03
1.059694e+03,9.465904e+03
1.060658e+03,9.466775e+03
1.061623e+03,9.463181e+03
1.062587e+03,9.457632e+03
1.063551e+03,9.448208e+03
1.064515e+03,9.439655e+03
1.065479e+03,9.433562e+03
1.066444e+03,9.432058e+03
1.067408e+03,9.432079e+03
1.068372e+03,9.428519e+03
1.069336e+03,9.430827e+03
1.070301e+03,9.443803e+03
1.071265e+03,9.460801e+03
1.072229e+03,9.469053e+03
1.073193e+03,9.463529e+03
1.074158e+03,9.452103e+03
1.075122e+03,9.431896e+03
1.076086e+03,9.409643e+03
1.077050e+03,9.395614e+03
1.078015e+03,9.400490e+03
1.078979e+03,9.407340e+03
1.079943e+03,9.408266e+03
1.080907e+03,9.410385e+03
1.081872e+03,9.416717e+03
1.082836e+03,9.425011e+03
1.083800e+03,9.430974e+03
1.084764e+03,9.439521e+03
1.085729e+03,9.444672e+03
1.086693e+03,9.440251e+03
1.087657e+03,9.428330e+03
1.088621e+03,9.416896e+03
1.089585e+03,9.407177e+03
1.090550e+03,9.394104e+03
1.091514e+03,9.377543e+03
1.092478e+03,9.363918e+03
1.093442e+03,9.359187e+03
1.094406e+03,9.368687e+03
1.095371e+03,9.376380e+03
1.096335e+03,9.372923e+03
1.097299e+03,9.368166e+03
1.098263e+03,9.368938e+03
1.099228e+03,9.374295e+03
1.100192e+03,9.378318e+03
1.101156e+03,9.379397e+03
1.102120e+03,9.377830e+03
1.103085e+03,9.371613e+03
1.104049e+03,9.364335e+03
1.105013e+03,9.362850e+03
1.105977e+03,9.378026e+03
1.106942e+03,9.387856e+03
1.107906e+03,9.383714e+03
1.108870e+03,9.377156e+03
1.109834e+03,9.379495e+03
1.110799e+03,9.395438e+03
1.111763e+03,9.405332e+03
1.112727e+03,9.400857e+03
1.113691e+03,9.398638e+03
1.114656e+03,9.405065e+03
1.115620e+03,9.419651e+03
1.116584e+03,9.437797e+03
1.117548e+03,9.464399e+03
1.118512e+03,9.480431e+03
1.119477e+03,9.480202e+03
1.120441e+03,9.468309e+03
1.121405e+03,9.452827e+03
1.122369e+03,9.430405e+03
1.123334e+03,9.410587e+03
1.124298e+03,9.396801e+03
1.125262e+03,9.385845e+03
1.126226e+03,9.375422e+03
1.127191e+03,9.365762e+03
1.128155e+03,9.361159e+03
1.129119e+03,9.359760e+03
1.130083e+03,9.361645e+03
1.131047e+03,9.369817e+03
1.132012e+03,9.378312e+03
1.132976e+03,9.373608e+03
1.133940e+03,9.346624e+03
1.134904e+03,9.324113e+03
1.135869e+03,9.316019e+03
1.136833e+03,9.312795e+03
1.137797e+03,9.301466e+03
1.138761e+03,9.278753e+03
1.139726e+03,9.273521e+03
1.140690e+03,9.291275e+03
1.141654e+03,9.311280e+03
1.142618e+03,9.320766e+03
1.143583e+03,9.321610e+03
1.144547e+03,9.323892e+03
1.145511e+03,9.327998e+03
1.146475e+03,9.330718e+03
1.147439e+03,9.330415e+03
1.148404e+03,9.329616e+03
1.149368e+03,9.330693e+03
1.150332e+03,9.333256e+03
1.151296e+03,9.329277e+03
1.152261e+03,9.313067e+03
1.153225e+03,9.287457e+03
1.154189e+03,9.260309e+03
1.155153e+03,9.235612e+03
1.156118e+03,9.214438e+03
1.157082e+03,9.199738e+03
1.158046e+03,9.192250e+03
1.159010e+03,9.189184e+03
1.159974e+03,9.189785e+03
1.160939e+03,9.194387e+03
1.161903e+03,9.200391e+03
1.162867e+03,9.203759e+03
1.163831e+03,9.203190e+03
1.164796e+03,9.198323e+03
1.165760e+03,9.191082e+03
1.166724e+03,9.182800e+03
1.167688e+03,9.172877e+03
1.168653e+03,9.161647e+03
1.169617e+03,9.149603e+03
1.170581e+03,9.135928e+03
1.171545e+03,9.125825e+03
1.172510e+03,9.129787e+03
1.173474e+03,9.142904e+03
1.174438e+03,9.149978e+03
1.175402e+03,9.144044e+03
1.176366e+03,9.138842e+03
1.177331e+03,9.151103e+03
1.178295e+03,9.170528e+03
1.179259e+03,9.184066e+03
1.180223e+03,9.188597e+03
1.181188e+03,9.186233e+03
1.182152e+03,9.177540e+03
1.183116e+03,9.164033e+03
1.184080e+03,9.146915e+03
1.185045e+03,9.129500e+03
1.186009e+03,9.114234e+03
1.186973e+03,9.103025e+03
1.187937e+03,9.098276e+03
1.188901e+03,9.102486e+03
1.189866e+03,9.109927e+03
1.190830e+03,9.115900e+03
1.191794e+03,9.118035e+03
1.192758e+03,9.113248e+03
1.193723e+03,9.095007e+03
1.194687e+03,9.083532e+03
1.195651e+03,9.091806e+03
1.196615e+03,9.109927e+03
1.197580e+03,9.113160e+03
1.198544e+03,9.081212e+03
1.199508e+03,9.052345e+03
1.200472e+03,9.038405e+03
1.201437e+03,9.027487e+03
1.202401e+03,9.007874e+03
1.203365e+03,8.978179e+03
1.204329e+03,8.971759e+03
1.205293e+03,8.996684e+03
1.206258e+03,9.021478e+03
1.207222e+03,9.030937e+03
1.208186e+03,9.029179e+03
1.209150e+03,9.032303e+03
1.210115e+03,9.038763e+03
1.211079e+03,9.037034e+03
1.212043e+03,9.025021e+03
1.213007e+03,9.008971e+03
1.213972e+03,9.000316e+03
1.214936e+03,8.999291e+03
1.215900e+03,8.988400e+03
1.216864e+03,8.968780e+03
1.217828e+03,8.959459e+03
1.218793e+03,8.976578e+03
1.219757e+03,9.003049e+03
1.220721e+03,9.006551e+03
1.221685e+03,8.996311e+03
1.222650e+03,8.993350e+03
1.223614e+03,9.000495e+03
1.224578e+03,9.007356e+03
1.225542e+03,9.007017e+03
1.226507e+03,9.006297e+03
1.227471e+03,9.012931e+03
1.228435e+03,9.023105e+03
1.229399e+03,9.027240e+03
1.230364e+03,9.025400e+03
1.231328e+03,9.016063e+03
1.232292e+03,8.994162e+03
1.233256e+03,8.973041e+03
1.234220e+03,8.966359e+03
1.235185e+03,8.984828e+03
1.236149e+03,8.998563e+03
1.237113e+03,8.996531e+03
1.238077e+03,8.994793e+03
1.239042e+03,8.998692e+03
1.240006e+03,9.003307e+03
1.240970e+03,8.999613e+03
1.241934e+03,8.984779e+03
1.242899e+03,8.965238e+03
1.243863e+03,8.940813e+03
1.244827e+03,8.918512e+03
1.245791e+03,8.908176e+03
1.246755e+03,8.912942e+03
1.247720e+03,8.909619e+03
1.248684e+03,8.896323e+03
1.249648e+03,8.888214e+03
1.250612e+03,8.895504e+03
1.251577e+03,8.911690e+03
1.252541e+03,8.919958e+03
1.253505e+03,8.919904e+03
1.254469e+03,8.914756e+03
1.255434e+03,8.906516e+03
1.256398e+03,8.900547e+03
1.257362e+03,8.900611e+03
1.258326e+03,8.903302e+03
1.259291e+03,8.906620e+03
1.260255e+03,8.908678e+03
1.261219e+03,8.906939e+03
1.262183e+03,8.903219e+03
1.263147e+03,8.902064e+03
1.264112e+03,8.903378e+03
1.265076e+03,8.908864e+03
1.266040e+03,8.921747e+03
1.267004e+03,8.948083e+03
1.267969e+03,8.964451e+03
1.268933e+03,8.958854e+03
1.269897e+03,8.953110e+03
1.270861e+03,8.956762e+03
1.271826e+03,8.961675e+03
1.272790e+03,8.953085e+03
1.273754e+03,8.926645e+03
1.274718e+03,8.900372e+03
1.275682e+03,8.881486e+03
1.276647e+03,8.867400e+03
1.277611e+03,8.852050e+03
1.278575e+03,8.833919e+03
1.279539e+03,8.815447e+03
1.280504e+03,8.800422e+03
1.281468e+03,8.794142e+03
1.282432e+03,8.798427e+03
1.283396e+03,8.809750e+03
1.284361e+03,8.822774e+03
1.285325e+03,8.833731e+03
1.286289e+03,8.833879e+03
1.287253e+03,8.820169e+03
1.288218e+03,8.801813e+03
1.289182e+03,8.785410e+03
1.290146e+03,8.773558e+03
1.291110e+03,8.774552e+03
1.292074e+03,8.785149e+03
1.293039e+03,8.789723e+03
1.294003e+03,8.776274e+03
1.294967e+03,8.757624e+03
1.295931e+03,8.737454e+03
1.296896e+03,8.720949e+03
1.297860e+03,8.711506e+03
1.298824e+03,8.708163e+03
1.299788e+03,8.711166e+03
1.300753e+03,8.727060e+03
1.301717e+03,8.737157e+03
1.302681e+03,8.733164e+03
1.303645e+03,8.719270e+03
1.304609e+03,8.706490e+03
1.305574e+03,8.690875e+03
1.306538e+03,8.681371e+03
1.307502e+03,8.684829e+03
1.308466e+03,8.689872e+03
1.309431e+03,8.679102e+03
1.310395e+03,8.659019e+03
1.311359e+03,8.652374e+03
1.312323e+03,8.653159e+03
1.313288e+03,8.648271e+03
1.314252e+03,8.633714e+03
1.315216e+03,8.623948e+03
1.316180e+03,8.634620e+03
1.317145e+03,8.653378e+03
1.318109e+03,8.660615e+03
1.319073e+03,8.651436e+03
1.320037e+03,8.645691e+03
1.321001e+03,8.662315e+03
1.321966e+03,8.672155e+03
1.322930e+03,8.659668e+03
1.323894e+03,8.639081e+03
1.324858e+03,8.631796e+03
1.325823e+03,8.646636e+03
1.326787e+03,8.652444e+03
1.327751e+03,8.642077e+03
1.328715e+03,8.630877e+03
1.329680e+03,8.629730e+03
1.330644e+03,8.637744e+03
1.331608e+03,8.652933e+03
1.332572e+03,8.673257e+03
1.333536e+03,8.681509e+03
1.334501e+03,8.670770e+03
1.335465e+03,8.652409e+03
1.336429e+03,8.641437e+03
1.337393e+03,8.635710e+03
1.338358e+03,8.629974e+03
1.339322e+03,8.624323e+03
1.340286e+03,8.620674e+03
1.341250e+03,8.622326e+03
1.342215e+03,8.622828e+03
1.343179e+03,8.625963e+03
1.344143e+03,8.631179e+03
1.345107e+03,8.630597e+03
1.346072e+03,8.617226e+03
1.347036e+03,8.614164e+03
1.348000e+03,8.625043e+03
1.348964e+03,8.634521e+03
1.349928e+03,8.640245e+03
1.350893e+03,8.643916e+03
1.351857e+03,8.641437e+03
1.352821e+03,8.631313e+03
1.353785e+03,8.624591e+03
1.354750e+03,8.621544e+03
1.355714e+03,8.619898e+03
1.356678e+03,8.620777e+03
1.357642e+03,8.627898e+03
1.358607e+03,8.644260e+03
1.359571e+03,8.665433e+03
1.360535e+03,8.684000e+03
1.361499e+03,8.698619e+03
1.362464e+03,8.713016e+03
1.363428e+03,8.729837e+03
1.364392e+03,8.749235e+03
1.365356e+03,8.769269e+03
1.366320e+03,8.784942e+03
1.367285e+03,8.788888e+03
1.368249e+03,8.777016e+03
1.369213e+03,8.774075e+03
1.370177e+03,8.788767e+03
1.371142e+03,8.804706e+03
1.372106e+03,8.801687e+03
1.373070e+03,8.782150e+03
1.374034e+03,8.763113e+03
1.374999e+03,8.747054e+03
1.375963e+03,8.734698e+03
1.376927e+03,8.727280e+03
1.377891e+03,8.719498e+03
1.378855e+03,8.703627e+03
1.379820e+03,8.682866e+03
1.380784e+03,8.660326e+03
1.381748e+03,8.639113e+03
1.382712e+03,8.625848e+03
1.383677e+03,8.623865e+03
1.384641e+03,8.619393e+03
1.385605e+03,8.604322e+03
1.386569e+03,8.585070e+03
1.387534e+03,8.573387e+03
1.388498e+03,8.571800e+03
1.389462e+03,8.569423e+03
1.390426e+03,8.563699e+03
1.391391e+03,8.555210e+03
1.392355e+03,8.546137e+03
1.393319e+03,8.538735e+03
1.394283e+03,8.533475e+03
1.395247e+03,8.529465e+03
1.396212e+03,8.526637e+03
1.397176e+03,8.525030e+03
1.398140e+03,8.528021e+03
1.399104e+03,8.543062e+03
1.400069e+03,8.554288e+03
1.401033e+03,8.550122e+03
1.401997e+03,8.535011e+03
1.402961e+03,8.522165e+03
1.403926e+03,8.511244e+03
1.404890e+03,8.502939e+03
1.405854e+03,8.499097e+03
1.406818e+03,8.498884e+03
1.407782e+03,8.503951e+03
1.408747e+03,8.513391e+03
1.409711e+03,8.514033e+03
1.410675e+03,8.503324e+03
1.411639e+03,8.491376e+03
1.412604e+03,8.482814e+03
1.413568e+03,8.471773e+03
1.414532e+03,8.450056e+03
1.415496e+03,8.431730e+03
1.416461e+03,8.428337e+03
1.417425e+03,8.434144e+03
1.418389e+03,8.434878e+03
1.419353e+03,8.433482e+03
1.420318e+03,8.417313e+03
1.421282e+03,8.377855e+03
1.422246e+03,8.344043e+03
1.423210e+03,8.341952e+03
1.424174e+03,8.366686e+03
1.425139e+03,8.374481e+03
1.426103e+03,8.365326e+03
1.427067e+03,8.359241e+03
1.428031e+03,8.364372e+03
1.428996e+03,8.370981e+03
1.429960e+03,8.366194e+03
1.430924e+03,8.357258e+03
1.431888e+03,8.352497e+03
1.432853e+03,8.351895e+03
1.433817e+03,8.349794e+03
1.434781e+03,8.349358e+03
1.435745e+03,8.344155e+03
1.436709e+03,8.324993e+03
1.437674e+03,8.304993e+03
1.438638e+03,8.300341e+03
1.439602e+03,8.311576e+03
1.440566e+03,8.320034e+03
1.441531e+03,8.324827e+03
1.442495e+03,8.326088e+03
1.443459e+03,8.322270e+03
1.444423e+03,8.315480e+03
1.445388e+03,8.304956e+03
1.446352e+03,8.291764e+03
1.447316e+03,8.279997e+03
1.448280e+03,8.272618e+03
1.449245e+03,8.266033e+03
1.450209e+03,8.251612e+03
1.451173e+03,8.250262e+03
1.452137e+03,8.265278e+03
1.453101e+03,8.281958e+03
1.454066e+03,8.289447e+03
1.455030e+03,8.289357e+03
1.455994e+03,8.292276e+03
1.456958e+03,8.297273e+03
1.457923e+03,8.297659e+03
1.458887e+03,8.286452e+03
1.459851e+03,8.278527e+03
1.460815e+03,8.292354e+03
1.461780e+03,8.309048e+03
1.462744e+03,8.316504e+03
1.463708e+03,8.316154e+03
1.464672e+03,8.313778e+03
1.465636e+03,8.312404e+03
1.466601e+03,8.312793e+03
1.467565e+03,8.316591e+03
1.468529e+03,8.317806e+03
1.469493e+03,8.304325e+03
1.470458e+03,8.280314e+03
1.471422e+03,8.274389e+03
1.472386e+03,8.283114e+03
1.473350e+03,8.288642e+03
1.474315e+03,8.283255e+03
1.475279e+03,8.270241e+03
1.476243e+03,8.241659e+03
1.477207e+03,8.212432e+03
1.478172e+03,8.200000e+03
1.479136e+03,8.200893e+03
1.480100e+03,8.193101e+03
1.481064e+03,8.174378e+03
1.482028e+03,8.159763e+03
1.482993e+03,8.152592e+03
1.483957e+03,8.148912e+03
1.484921e+03,8.141269e+03
1.485885e+03,8.133781e+03
1.486850e+03,8.134545e+03
1.487814e+03,8.139050e+03
1.488778e+03,8.142922e+03
1.489742e+03,8.146710e+03
1.490707e+03,8.146983e+03
1.491671e+03,8.148447e+03
1.492635e+03,8.148651e+03
1.493599e+03,8.142487e+03
1.494563e+03,8.130101e+03
1.495528e+03,8.114985e+03
1.496492e+03,8.096233e+03
1.497456e+03,8.088360e+03
1.498420e+03,8.095248e+03
1.499385e+03,8.101183e+03
1.500349e+03,8.089087e+03
1.501313e+03,8.075986e+03
1.502277e+03,8.075773e+03
1.503242e+03,8.082335e+03
1.504206e+03,8.088234e+03
1.505170e+03,8.092896e+03
1.506134e+03,8.086095e+03
1.507099e+03,8.063261e+03
1.508063e+03,8.043643e+03
1.509027e+03,8.034282e+03
1.509991e+03,8.032259e+03
1.510955e+03,8.037778e+03
1.511920e+03,8.045563e+03
1.512884e+03,8.043986e+03
1.513848e+03,8.036112e+03
1.514812e+03,8.029570e+03
1.515777e+03,8.017741e+03
1.516741e+03,8.008939e+03
1.517705e+03,8.007208e+03
1.518669e+03,8.007547e+03
1.519634e+03,8.008915e+03
1.520598e+03,8.009742e+03
1.521562e+03,8.005188e+03
1.522526e+03,7.993519e+03
1.523490e+03,7.982828e+03
1.524455e+03,7.977037e+03
1.525419e+03,7.971779e+03
1.526383e+03,7.962916e+03
1.527347e+03,7.954073e+03
1.528312e+03,7.954929e+03
1.529276e+03,7.964545e+03
1.530240e+03,7.964952e+03
1.531204e+03,7.947476e+03
1.532169e+03,7.933023e+03
1.533133e+03,7.922430e+03
1.534097e+03,7.919382e+03
1.535061e+03,7.932172e+03
1.536026e+03,7.947058e+03
1.536990e+03,7.933242e+03
1.537954e+03,7.907538e+03
1.538918e+03,7.902944e+03
1.539882e+03,7.929263e+03
1.540847e+03,7.950940e+03
1.541811e+03,7.960595e+03
1.542775e+03,7.954460e+03
1.543739e+03,7.929135e+03
1.544704e+03,7.897722e+03
1.545668e+03,7.878309e+03
1.546632e+03,7.871224e+03
1.547596e+03,7.876298e+03
1.548561e+03,7.891733e+03
1.549525e+03,7.909320e+03
1.550489e+03,7.926647e+03
1.551453e+03,7.936794e+03
1.552417e+03,7.932041e+03
1.553382e+03,7.921702e+03
1.554346e+03,7.916033e+03
1.555310e+03,7.915491e+03
1.556274e+03,7.910101e+03
1.557239e+03,7.899338e+03
1.558203e+03,7.892405e+03
1.559167e+03,7.891862e+03
1.560131e+03,7.892152e+03
1.561096e+03,7.890813e+03
1.562060e+03,7.887958e+03
1.563024e+03,7.880638e+03
1.563988e+03,7.871774e+03
1.564953e+03,7.868100e+03
1.565917e+03,7.873656e+03
1.566881e+03,7.867912e+03
1.567845e+03,7.847141e+03
1.568809e+03,7.827014e+03
1.569774e+03,7.816497e+03
1.570738e+03,7.812838e+03
1.571702e+03,7.813469e+03
1.572666e+03,7.817118e+03
1.573631e+03,7.825155e+03
1.574595e+03,7.839623e+03
1.575559e+03,7.847236e+03
1.576523e+03,7.845391e+03
1.577488e+03,7.842438e+03
1.578452e+03,7.833256e+03
1.579416e+03,7.828551e+03
1.580380e+03,7.847315e+03
1.581344e+03,7.878179e+03
1.582309e+03,7.902614e+03
1.583273e+03,7.921766e+03
1.584237e+03,7.937249e+03
1.585201e+03,7.950433e+03
1.586166e+03,7.957736e+03
1.587130e+03,7.954760e+03
1.588094e+03,7.948848e+03
1.589058e+03,7.945806e+03
1.590023e+03,7.943252e+03
1.590987e+03,7.933390e+03
1.591951e+03,7.920651e+03
1.592915e+03,7.907725e+03
1.593880e+03,7.891666e+03
1.594844e+03,7.875252e+03
1.595808e+03,7.864132e+03
1.596772e+03,7.848615e+03
1.597736e+03,7.826376e+03
1.598701e+03,7.806258e+03
1.599665e+03,7.796851e+03
1.600629e+03,7.793734e+03
1.601593e+03,7.775082e+03
1.602558e+03,7.746929e+03
1.603522e+03,7.729689e+03
1.604486e+03,7.731147e+03
1.605450e+03,7.728417e+03
1.606415e+03,7.709755e+03
1.607379e+03,7.693536e+03
1.608343e+03,7.684547e+03
1.609307e+03,7.680844e+03
1.610271e+03,7.681379e+03
1.611236e+03,7.684327e+03
1.612200e+03,7.687097e+03
1.613164e+03,7.691033e+03
1.614128e+03,7.693868e+03
1.615093e+03,7.692695e+03
1.616057e+03,7.688638e+03
1.617021e+03,7.677468e+03
1.617985e+03,7.663621e+03
1.618950e+03,7.651643e+03
1.619914e+03,7.641648e+03
1.620878e+03,7.633433e+03
1.621842e+03,7.627241e+03
1.622807e+03,7.618775e+03
1.623771e+03,7.608555e+03
1.624735e+03,7.605030e+03
1.625699e+03,7.620008e+03
1.626663e+03,7.625783e+03
1.627628e+03,7.604780e+03
1.628592e+03,7.574131e+03
1.629556e+03,7.561876e+03
1.630520e+03,7.568218e+03
1.631485e+03,7.572756e+03
1.632449e+03,7.574780e+03
1.633413e+03,7.576103e+03
1.634377e+03,7.579533e+03
1.635342e+03,7.579484e+03
1.636306e+03,7.573845e+03
1.637270e+03,7.564764e+03
1.638234e+03,7.551294e+03
1.639198e+03,7.536863e+03
1.640163e+03,7.526007e+03
1.641127e+03,7.519427e+03
1.642091e+03,7.510664e+03
1.643055e+03,7.498078e+03
1.644020e+03,7.494836e+03
1.644984e+03,7.518667e+03
1.645948e+03,7.531072e+03
1.646912e+03,7.523303e+03
1.647877e+03,7.509291e+03
1.648841e+03,7.500398e+03
1.649805e+03,7.495904e+03
1.650769e+03,7.491694e+03
1.651734e+03,7.487183e+03
1.652698e+03,7.483226e+03
1.653662e+03,7.477720e+03
1.654626e+03,7.471020e+03
1.655590e+03,7.462020e+03
1.656555e+03,7.455010e+03
1.657519e+03,7.454557e+03
1.658483e+03,7.459531e+03
1.659447e+03,7.468200e+03
1.660412e+03,7.471875e+03
1.661376e+03,7.454479e+03
1.662340e+03,7.425063e+03
1.663304e+03,7.406867e+03
1.664269e+03,7.410101e+03
1.665233e+03,7.411116e+03
1.666197e+03,7.406914e+03
1.667161e+03,7.402100e+03
1.668125e+03,7.402195e+03
1.669090e+03,7.402265e+03
1.670054e+03,7.392960e+03
1.671018e+03,7.380561e+03
1.671982e+03,7.376804e+03
1.672947e+03,7.382222e+03
1.673911e+03,7.379501e+03
1.674875e+03,7.360047e+03
1.675839e+03,7.349561e+03
1.676804e+03,7.356180e+03
1.677768e+03,7.367142e+03
1.678732e+03,7.368531e+03
1.679696e+03,7.365013e+03
1.680661e+03,7.359418e+03
1.681625e+03,7.349248e+03
1.682589e+03,7.335218e+03
1.683553e+03,7.319854e+03
1.684517e+03,7.316043e+03
1.685482e+03,7.322377e+03
1.686446e+03,7.328617e+03
1.687410e+03,7.332028e+03
1.688374e+03,7.331307e+03
1.689339e+03,7.323676e+03
1.690303e+03,7.312140e+03
1.691267e+03,7.292060e+03
1.692231e+03,7.275139e+03
1.693196e+03,7.285276e+03
1.694160e+03,7.314193e+03
1.695124e+03,7.312888e+03
1.696088e+03,7.286643e+03
1.697052e+03,7.269049e+03
1.698017e+03,7.275202e+03
1.698981e+03,7.281500e+03
1.699945e+03,7.281100e+03
1.700909e+03,7.274329e+03
1.701874e+03,7.266667e+03
1.702838e+03,7.260914e+03
1.703802e+03,7.248597e+03
1.704766e+03,7.234205e+03
1.705731e+03,7.240616e+03
1.706695e+03,7.269099e+03
1.707659e+03,7.276396e+03
1.708623e+03,7.246649e+03
1.709588e+03,7.229021e+03
1.710552e+03,7.226914e+03
1.711516e+03,7.228023e+03
1.712480e+03,7.228853e+03
1.713444e+03,7.223566e+03
1.714409e+03,7.201335e+03
1.715373e+03,7.175515e+03
1.716337e+03,7.163317e+03
1.717301e+03,7.166979e+03
1.718266e+03,7.180482e+03
1.719230e+03,7.201500e+03
1.720194e+03,7.203529e+03
1.721158e+03,7.175680e+03
1.722123e+03,7.151685e+03
1.723087e+03,7.163702e+03
1.724051e+03,7.177727e+03
1.725015e+03,7.180221e+03
1.725979e+03,7.174320e+03
1.726944e+03,7.156461e+03
1.727908e+03,7.131310e+03
1.728872e+03,7.119961e+03
1.729836e+03,7.117464e+03
1.730801e+03,7.112330e+03
1.731765e+03,7.098349e+03
1.732729e+03,7.090784e+03
1.733693e+03,7.091821e+03
1.734658e+03,7.098273e+03
1.735622e+03,7.110753e+03
1.736586e+03,7.120235e+03
1.737550e+03,7.109143e+03
1.738515e+03,7.091376e+03
1.739479e+03,7.085452e+03
1.740443e+03,7.089831e+03
1.741407e+03,7.086406e+03
1.742371e+03,7.073598e+03
1.743336e+03,7.072205e+03
1.744300e+03,7.082894e+03
1.745264e+03,7.085596e+03
1.746228e+03,7.066142e+03
1.747193e+03,7.044386e+03
1.748157e+03,7.026060e+03
1.749121e+03,7.020962e+03
1.750085e+03,7.032417e+03
1.751050e+03,7.047919e+03
1.752014e+03,7.045423e+03
1.752978e+03,7.032638e+03
1.753942e+03,7.020948e+03
1.754906e+03,7.011111e+03
1.755871e+03,7.016234e+03
1.756835e+03,7.048983e+03
1.757799e+03,7.053591e+03
1.758763e+03,7.024695e+03
1.759728e+03,6.991084e+03
1.760692e+03,6.970425e+03
1.761656e+03,6.964297e+03
1.762620e+03,6.983115e+03
1.763585e+03,7.007718e+03
1.764549e+03,7.009743e+03
1.765513e+03,6.986725e+03
1.766477e+03,6.968428e+03
1.767442e+03,6.956133e+03
1.768406e+03,6.945849e+03
1.769370e+03,6.936441e+03
1.770334e+03,6.932173e+03
1.771298e+03,6.934417e+03
1.772263e+03,6.935598e+03
1.773227e+03,6.935891e+03
1.774191e+03,6.935543e+03
1.775155e+03,6.935588e+03
1.776120e+03,6.932054e+03
1.777084e+03,6.914726e+03
1.778048e+03,6.891687e+03
1.779012e+03,6.885424e+03
1.779977e+03,6.905438e+03
1.780941e+03,6.906708e+03
1.781905e+03,6.886784e+03
1.782869e+03,6.874520e+03
1.783833e+03,6.886463e+03
1.784798e+03,6.899094e+03
1.785762e+03,6.899322e+03
1.786726e+03,6.892291e+03
1.787690e+03,6.881256e+03
1.788655e+03,6.867521e+03
1.789619e+03,6.844588e+03
1.790583e+03,6.821935e+03
1.791547e+03,6.822939e+03
1.792512e+03,6.843193e+03
1.793476e+03,6.850237e+03
1.794440e+03,6.829765e+03
1.795404e+03,6.822401e+03
1.796369e+03,6.828115e+03
1.797333e+03,6.833688e+03
1.798297e+03,6.832320e+03
1.799261e+03,6.829724e+03
1.800225e+03,6.829400e+03
1.801190e+03,6.824040e+03
1.802154e+03,6.809700e+03
1.803118e+03,6.790727e+03
1.804082e+03,6.784333e+03
1.805047e+03,6.786696e+03
1.806011e+03,6.782603e+03
1.806975e+03,6.771017e+03
1.807939e+03,6.767766e+03
1.808904e+03,6.777559e+03
1.809868e+03,6.772820e+03
1.810832e+03,6.751623e+03
1.811796e+03,6.740920e+03
1.812760e+03,6.776235e+03
1.813725e+03,6.807214e+03
1.814689e+03,6.795224e+03
1.815653e+03,6.771304e+03
1.816617e+03,6.757828e+03
1.817582e+03,6.752324e+03
1.818546e+03,6.747916e+03
1.819510e+03,6.742519e+03
1.820474e+03,6.731428e+03
1.821439e+03,6.715358e+03
1.822403e+03,6.707632e+03
1.823367e+03,6.711225e+03
1.824331e+03,6.715084e+03
1.825296e+03,6.715696e+03
1.826260e+03,6.710662e+03
1.827224e+03,6.697585e+03
1.828188e+03,6.690897e+03
1.829152e+03,6.701534e+03
1.830117e+03,6.709725e+03
1.831081e+03,6.694969e+03
1.832045e+03,6.666687e+03
1.833009e+03,6.659451e+03
1.833974e+03,6.670621e+03
1.834938e+03,6.688667e+03
1.835902e+03,6.709932e+03
1.836866e+03,6.704280e+03
1.837831e+03,6.668784e+03
1.838795e+03,6.640667e+03
1.839759e+03,6.630683e+03
1.840723e+03,6.628975e+03
1.841688e+03,6.626954e+03
1.842652e+03,6.628696e+03
1.843616e+03,6.633691e+03
1.844580e+03,6.636548e+03
1.845544e+03,6.637703e+03
1.846509e+03,6.635417e+03
1.847473e+03,6.621145e+03
1.848437e+03,6.600817e+03
1.849401e+03,6.585717e+03
1.850366e+03,6.577232e+03
1.851330e+03,6.565638e+03
1.852294e+03,6.554122e+03
1.853258e+03,6.554923e+03
1.854223e+03,6.572298e+03
1.855187e+03,6.585104e+03
1.856151e+03,6.575216e+03
1.857115e+03,6.568114e+03
1.858079e+03,6.569247e+03
1.859044e+03,6.568206e+03
1.860008e+03,6.553314e+03
1.860972e+03,6.537366e+03
1.861936e+03,6.531768e+03
1.862901e+03,6.533487e+03
1.863865e+03,6.535373e+03
1.864829e+03,6.532677e+03
1.865793e+03,6.518128e+03
1.866758e+03,6.498921e+03
1.867722e+03,6.490729e+03
1.868686e+03,6.498080e+03
1.869650e+03,6.505677e+03
1.870615e+03,6.510987e+03
1.871579e+03,6.509881e+03
1.872543e+03,6.503661e+03
1.873507e+03,6.502786e+03
1.874471e+03,6.518262e+03
1.875436e+03,6.523125e+03
1.876400e+03,6.504893e+03
1.877364e+03,6.480631e+03
1.878328e+03,6.468956e+03
1.879293e+03,6.464122e+03
1.880257e+03,6.452817e+03
1.881221e+03,6.437588e+03
1.882185e+03,6.428175e+03
1.883150e+03,6.426419e+03
1.884114e+03,6.432047e+03
1.885078e+03,6.441978e+03
1.886042e+03,6.447061e+03
1.887006e+03,6.444148e+03
1.887971e+03,6.438401e+03
1.888935e+03,6.433931e+03
1.889899e+03,6.430863e+03
1.890863e+03,6.425531e+03
1.891828e+03,6.418598e+03
1.892792e+03,6.419394e+03
1.893756e+03,6.416095e+03
1.894720e+03,6.400229e+03
1.895685e+03,6.384899e+03
1.896649e+03,6.376724e+03
1.897613e+03,6.372320e+03
1.898577e+03,6.372523e+03
1.899542e+03,6.374588e+03
1.900506e+03,6.368414e+03
1.901470e+03,6.350031e+03
1.902434e+03,6.346708e+03
1.903398e+03,6.357818e+03
1.904363e+03,6.360509e+03
1.905327e+03,6.348974e+03
1.906291e+03,6.339838e+03
1.907255e+03,6.340049e+03
1.908220e+03,6.337945e+03
1.909184e+03,6.332041e+03
1.910148e+03,6.321521e+03
1.911112e+03,6.300644e+03
1.912077e+03,6.286193e+03
1.913041e+03,6.303951e+03
1.914005e+03,6.324854e+03
1.914969e+03,6.314229e+03
1.915933e+03,6.283476e+03
1.916898e+03,6.273358e+03
1.917862e+03,6.276079e+03
1.918826e+03,6.272042e+03
1.919790e+03,6.259621e+03
1.920755e+03,6.254494e+03
1.921719e+03,6.252766e+03
1.922683e+03,6.246935e+03
1.923647e+03,6.237626e+03
1.924612e+03,6.229572e+03
1.925576e+03,6.220020e+03
1.926540e+03,6.222739e+03
1.927504e+03,6.238469e+03
1.928469e+03,6.251052e+03
1.929433e+03,6.241144e+03
1.930397e+03,6.227002e+03
1.931361e+03,6.223616e+03
1.932325e+03,6.221483e+03
1.933290e+03,6.217420e+03
1.934254e+03,6.213707e+03
1.935218e+03,6.197539e+03
1.936182e+03,6.175921e+03
1.937147e+03,6.173475e+03
1.938111e+03,6.189955e+03
1.939075e+03,6.194660e+03
1.940039e+03,6.191107e+03
1.941004e+03,6.177440e+03
1.941968e+03,6.150976e+03
1.942932e+03,6.141883e+03
1.943896e+03,6.173755e+03
1.944860e+03,6.182154e+03
1.945825e+03,6.162694e+03
1.946789e+03,6.143345e+03
1.947753e+03,6.138468e+03
1.948717e+03,6.140322e+03
1.949682e+03,6.150580e+03
1.950646e+03,6.155454e+03
1.951610e+03,6.145019e+03
1.952574e+03,6.128153e+03
1.953539e+03,6.115250e+03
1.954503e+03,6.104589e+03
1.955467e+03,6.097357e+03
1.956431e+03,6.092415e+03
1.957396e+03,6.080488e+03
1.958360e+03,6.064932e+03
1.959324e+03,6.057849e+03
1.960288e+03,6.062287e+03
1.961252e+03,6.073322e+03
1.962217e+03,6.088559e+03
1.963181e+03,6.082287e+03
1.964145e+03,6.055772e+03
1.965109e+03,6.039475e+03
1.966074e+03,6.061951e+03
1.967038e+03,6.073646e+03
1.968002e+03,6.061973e+03
1.968966e+03,6.053352e+03
1.969931e+03,6.064920e+03
1.970895e+03,6.070995e+03
1.971859e+03,6.054773e+03
1.972823e+03,6.036529e+03
1.973787e+03,6.021251e+03
1.974752e+03,6.007406e+03
1.975716e+03,5.994332e+03
1.976680e+03,5.982813e+03
1.977644e+03,5.978353e+03
1.978609e+03,5.982093e+03
1.979573e+03,5.992891e+03
1.980537e+03,6.006311e+03
1.981501e+03,6.014211e+03
1.982466e+03,6.016842e+03
1.983430e+03,6.010981e+03
1.984394e+03,5.994453e+03
1.985358e+03,5.986742e+03
1.986323e+03,5.985782e+03
1.987287e+03,5.984264e+03
1.988251e+03,5.979158e+03
1.989215e+03,5.974292e+03
1.990179e+03,5.972837e+03
1.991144e+03,5.965651e+03
1.992108e+03,5.952146e+03
1.993072e+03,5.939929e+03
1.994036e+03,5.932516e+03
1.995001e+03,5.924094e+03
1.995965e+03,5.912321e+03
1.996929e+03,5.903252e+03
1.997893e+03,5.897405e+03
1.998858e+03,5.894873e+03
1.999822e+03,5.901507e+03
2.000786e+03,5.906533e+03
2.001750e+03,5.904970e+03
2.002714e+03,5.902463e+03
2.003679e+03,5.903458e+03
2.004643e+03,5.901439e+03
2.005607e+03,5.886351e+03
2.006571e+03,5.864749e+03
2.007536e+03,5.858104e+03
2.008500e+03,5.861951e+03
2.009464e+03,5.858518e+03
2.010428e+03,5.848581e+03
2.011393e+03,5.848530e+03
2.012357e+03,5.859687e+03
2.013321e+03,5.865146e+03
2.014285e+03,5.860017e+03
2.015250e+03,5.851741e+03
2.016214e+03,5.841654e+03
2.017178e+03,5.833904e+03
2.018142e+03,5.830351e+03
2.019106e+03,5.827441e+03
2.020071e+03,5.822800e+03
2.021035e+03,5.816672e+03
2.021999e+03,5.810407e+03
2.022963e+03,5.796108e+03
2.023928e+03,5.769994e+03
2.024892e+03,5.746242e+03
2.025856e+03,5.736005e+03
2.026820e+03,5.740231e+03
2.027785e+03,5.763202e+03
2.028749e+03,5.787343e+03
2.029713e+03,5.790771e+03
2.030677e+03,5.782927e+03
2.031641e+03,5.769788e+03
2.032606e+03,5.755333e+03
2.033570e+03,5.745938e+03
2.034534e+03,5.739592e+03
2.035498e+03,5.733147e+03
2.036463e+03,5.726798e+03
2.037427e+03,5.717518e+03
2.038391e+03,5.708671e+03
2.039355e+03,5.710091e+03
2.040320e+03,5.718958e+03
2.041284e+03,5.718328e+03
2.042248e+03,5.702245e+03
2.043212e+03,5.684961e+03
2.044177e+03,5.668687e+03
2.045141e+03,5.667822e+03
2.046105e+03,5.682854e+03
2.047069e+03,5.695062e+03
2.048033e+03,5.691510e+03
2.048998e+03,5.684032e+03
2.049962e+03,5.675382e+03
2.050926e+03,5.664765e+03
2.051890e+03,5.645723e+03
2.052854e+03,5.634101e+03
2.053819e+03,5.634585e+03
2.054783e+03,5.631847e+03
2.055747e+03,5.622259e+03
2.056711e+03,5.610677e+03
2.057676e+03,5.593901e+03
2.058640e+03,5.585591e+03
2.059604e+03,5.590494e+03
2.060568e+03,5.597496e+03
2.061533e+03,5.595307e+03
2.062497e+03,5.588399e+03
2.063461e+03,5.576796e+03
2.064425e+03,5.566966e+03
2.065390e+03,5.572338e+03
2.066354e+03,5.582132e+03
2.067318e+03,5.573994e+03
2.068282e+03,5.560055e+03
2.069247e+03,5.565142e+03
2.070211e+03,5.582700e+03
2.071175e+03,5.577972e+03
2.072139e+03,5.559018e+03
2.073104e+03,5.540915e+03
2.074068e+03,5.526406e+03
2.075032e+03,5.523290e+03
2.075996e+03,5.527531e+03
2.076960e+03,5.531394e+03
2.077925e+03,5.532893e+03
2.078889e+03,5.537312e+03
2.079853e+03,5.545365e+03
2.080817e+03,5.544681e+03
2.081782e+03,5.533662e+03
2.082746e+03,5.517091e+03
2.083710e+03,5.495132e+03
2.084674e+03,5.484274e+03
2.085639e+03,5.488478e+03
2.086603e+03,5.499212e+03
2.087567e+03,5.508149e+03
2.088531e+03,5.507150e+03
2.089496e+03,5.490715e+03
2.090460e+03,5.477758e+03
2.091424e+03,5.491034e+03
2.092388e+03,5.499130e+03
2.093353e+03,5.468444e+03
2.094317e+03,5.444489e+03
2.095281e+03,5.434897e+03
2.096245e+03,5.433061e+03
2.097209e+03,5.444560e+03
2.098174e+03,5.445813e+03
2.099138e+03,5.426114e+03
2.100102e+03,5.405796e+03
2.101066e+03,5.409211e+03
2.102031e+03,5.418169e+03
2.102995e+03,5.420491e+03
2.103959e+03,5.415394e+03
2.104923e+03,5.395858e+03
2.105887e+03,5.378294e+03
2.106852e+03,5.385426e+03
2.107816e+03,5.395695e+03
2.108780e+03,5.390847e+03
2.109744e+03,5.375872e+03
2.110708e+03,5.364038e+03
2.111673e+03,5.358385e+03
2.112637e+03,5.359080e+03
2.113601e+03,5.359801e+03
2.114565e+03,5.359331e+03
2.115530e+03,5.352462e+03
2.116494e+03,5.314226e+03
2.117458e+03,5.267404e+03
2.118422e+03,5.269005e+03
2.119387e+03,5.305764e+03
2.120351e+03,5.333194e+03
2.121315e+03,5.347824e+03
2.122279e+03,5.357588e+03
2.123244e+03,5.363296e+03
2.124208e+03,5.349962e+03
2.125172e+03,5.325877e+03
2.126136e+03,5.314695e+03
2.127101e+03,5.324258e+03
2.128065e+03,5.311499e+03
2.129029e+03,5.280188e+03
2.129993e+03,5.273473e+03
2.130958e+03,5.294555e+03
2.131922e+03,5.301351e+03
2.132886e+03,5.291789e+03
2.133850e+03,5.274338e+03
2.134814e+03,5.255801e+03
2.135779e+03,5.244755e+03
2.136743e+03,5.242439e+03
2.137707e+03,5.236891e+03
2.138671e+03,5.229877e+03
2.139636e+03,5.229447e+03
2.140600e+03,5.246915e+03
2.141564e+03,5.251506e+03
2.142528e+03,5.241388e+03
2.143493e+03,5.241247e+03
2.144457e+03,5.265328e+03
2.145421e+03,5.265989e+03
2.146385e+03,5.227215e+03
2.147350e+03,5.191979e+03
2.148314e+03,5.173023e+03
2.149278e+03,5.173521e+03
2.150242e+03,5.203826e+03
2.151207e+03,5.226873e+03
2.152171e+03,5.235703e+03
2.153135e+03,5.231970e+03
2.154099e+03,5.220321e+03
2.155063e+03,5.203093e+03
2.156028e+03,5.179489e+03
2.156992e+03,5.169101e+03
2.157956e+03,5.194258e+03
2.158920e+03,5.205923e+03
2.159885e+03,5.174862e+03
2.160849e+03,5.143797e+03
2.161813e+03,5.132015e+03
2.162777e+03,5.128294e+03
2.163741e+03,5.131687e+03
2.164706e+03,5.130726e+03
2.165670e+03,5.125374e+03
2.166634e+03,5.122341e+03
2.167598e+03,5.120210e+03
2.168563e+03,5.126448e+03
2.169527e+03,5.142636e+03
2.170491e+03,5.152747e+03
2.171455e+03,5.141459e+03
2.172420e+03,5.129143e+03
2.173384e+03,5.134116e+03
2.174348e+03,5.136533e+03
2.175312e+03,5.112257e+03
2.176277e+03,5.081521e+03
2.177241e+03,5.066968e+03
2.178205e+03,5.054671e+03
2.179169e+03,5.035981e+03
2.180134e+03,5.024617e+03
2.181098e+03,5.046088e+03
2.182062e+03,5.065816e+03
2.183026e+03,5.053942e+03
2.183990e+03,5.032110e+03
2.184955e+03,5.030634e+03
2.185919e+03,5.039426e+03
2.186883e+03,5.051931e+03
2.187847e+03,5.058989e+03
2.188812e+03,5.047085e+03
2.189776e+03,5.032127e+03
2.190740e+03,5.032189e+03
2.191704e+03,5.032065e+03
2.192668e+03,5.016164e+03
2.193633e+03,4.998469e+03
2.194597e+03,5.002955e+03
2.195561e+03,5.011135e+03
2.196525e+03,5.000800e+03
2.197490e+03,4.985484e+03
2.198454e+03,4.994132e+03
2.199418e+03,5.006608e+03
2.200382e+03,5.006705e+03
2.201347e+03,5.001083e+03
2.202311e+03,4.990285e+03
2.203275e+03,4.980889e+03
2.204239e+03,4.977250e+03
2.205204e+03,4.973170e+03
2.206168e+03,4.968806e+03
2.207132e+03,4.966076e+03
2.208096e+03,4.964426e+03
2.209061e+03,4.958646e+03
2.210025e+03,4.949557e+03
2.210989e+03,4.934628e+03
2.211953e+03,4.896018e+03
2.212917e+03,4.875544e+03
2.213882e+03,4.909446e+03
2.214846e+03,4.957482e+03
2.215810e+03,4.947522e+03
2.216774e+03,4.913760e+03
2.217739e+03,4.897706e+03
2.218703e+03,4.895919e+03
2.219667e+03,4.905826e+03
2.220631e+03,4.917811e+03
2.221595e+03,4.921785e+03
2.222560e+03,4.917264e+03
2.223524e+03,4.900958e+03
2.224488e+03,4.879774e+03
2.225452e+03,4.860192e+03
2.226417e+03,4.846657e+03
2.227381e+03,4.842548e+03
2.228345e+03,4.848036e+03
2.229309e+03,4.867057e+03
2.230274e+03,4.880501e+03
2.231238e+03,4.870767e+03
2.232202e+03,4.851685e+03
2.233166e+03,4.844874e+03
2.234131e+03,4.849942e+03
2.235095e+03,4.869103e+03
2.236059e+03,4.883650e+03
2.237023e+03,4.850903e+03
2.237988e+03,4.814457e+03
2.238952e+03,4.804969e+03
2.239916e+03,4.802786e+03
2.240880e+03,4.785880e+03
2.241844e+03,4.770744e+03
2.242809e+03,4.768506e+03
2.243773e+03,4.773144e+03
2.244737e+03,4.779619e+03
2.245701e+03,4.783556e+03
2.246666e+03,4.780360e+03
2.247630e+03,4.772784e+03
2.248594e+03,4.767275e+03
2.249558e+03,4.764021e+03
2.250522e+03,4.757059e+03
2.251487e+03,4.755625e+03
2.252451e+03,4.761392e+03
2.253415e+03,4.762277e+03
2.254379e+03,4.751721e+03
2.255344e+03,4.739052e+03
2.256308e+03,4.728983e+03
2.257272e+03,4.719911e+03
2.258236e+03,4.708986e+03
2.259201e+03,4.699613e+03
2.260165e+03,4.689054e+03
2.261129e+03,4.685167e+03
2.262093e+03,4.704626e+03
2.263058e+03,4.713768e+03
2.264022e+03,4.707304e+03
2.264986e+03,4.696500e+03
2.265950e+03,4.676743e+03
2.266915e+03,4.668920e+03
2.267879e+03,4.679518e+03
2.268843e+03,4.677033e+03
2.269807e+03,4.647607e+03
2.270771e+03,4.629557e+03
2.271736e+03,4.643524e+03
2.272700e+03,4.649820e+03
2.273664e+03,4.630318e+03
2.274628e+03,4.620097e+03
2.275593e+03,4.640208e+03
2.276557e+03,4.649567e+03
2.277521e+03,4.645760e+03
2.278485e+03,4.640002e+03
2.279449e+03,4.635262e+03
2.280414e+03,4.633480e+03
2.281378e+03,4.633931e+03
2.282342e+03,4.632204e+03
2.283306e+03,4.620805e+03
2.284271e+03,4.607298e+03
2.285235e+03,4.590972e+03
2.286199e+03,4.576040e+03
2.287163e+03,4.570733e+03
2.288128e+03,4.569917e+03
2.289092e+03,4.569313e+03
2.290056e+03,4.571188e+03
2.291020e+03,4.577467e+03
2.291985e+03,4.571515e+03
2.292949e+03,4.558403e+03
2.293913e+03,4.549360e+03
2.294877e+03,4.546164e+03
2.295842e+03,4.565602e+03
2.296806e+03,4.599159e+03
2.297770e+03,4.597823e+03
2.298734e+03,4.567440e+03
2.299698e+03,4.546525e+03
2.300663e+03,4.537498e+03
2.301627e+03,4.533842e+03
2.302591e+03,4.531938e+03
2.303555e+03,4.526530e+03
2.304520e+03,4.520236e+03
2.305484e+03,4.526530e+03
2.306448e+03,4.536756e+03
2.307412e+03,4.530484e+03
2.308376e+03,4.514608e+03
2.309341e+03,4.510607e+03
2.310305e+03,4.513682e+03
2.311269e+03,4.525563e+03
2.312233e+03,4.537462e+03
2.313198e+03,4.523962e+03
2.314162e+03,4.502600e+03
2.315126e+03,4.495420e+03
2.316090e+03,4.491354e+03
2.317055e+03,4.477409e+03
2.318019e+03,4.466547e+03
2.318983e+03,4.471961e+03
2.319947e+03,4.475769e+03
2.320912e+03,4.465134e+03
2.321876e+03,4.457022e+03
2.322840e+03,4.465687e+03
2.323804e+03,4.474883e+03
2.324769e+03,4.479792e+03
2.325733e+03,4.482323e+03
2.326697e+03,4.479677e+03
2.327661e+03,4.474741e+03
2.328625e+03,4.464256e+03
2.329590e+03,4.450723e+03
2.330554e+03,4.441591e+03
2.331518e+03,4.427742e+03
2.332482e+03,4.406632e+03
2.333447e+03,4.395621e+03
2.334411e+03,4.409367e+03
2.335375e+03,4.414873e+03
2.336339e+03,4.410665e+03
2.337303e+03,4.408153e+03
2.338268e+03,4.413373e+03
2.339232e+03,4.399110e+03
2.340196e+03,4.371743e+03
2.341160e+03,4.368267e+03
2.342125e+03,4.400966e+03
2.343089e+03,4.414007e+03
2.344053e+03,4.406697e+03
2.345017e+03,4.398994e+03
2.345982e+03,4.395608e+03
2.346946e+03,4.399195e+03
2.347910e+03,4.405515e+03
2.348874e+03,4.383923e+03
2.349839e+03,4.344751e+03
2.350803e+03,4.338706e+03
2.351767e+03,4.350458e+03
2.352731e+03,4.345870e+03
2.353696e+03,4.336381e+03
2.354660e+03,4.338389e+03
2.355624e+03,4.341338e+03
2.356588e+03,4.328815e+03
2.357552e+03,4.319035e+03
2.358517e+03,4.331308e+03
2.359481e+03,4.349380e+03
2.360445e+03,4.356980e+03
2.361409e+03,4.351313e+03
2.362374e+03,4.329215e+03
2.363338e+03,4.299260e+03
2.364302e+03,4.262181e+03
2.365266e+03,4.251568e+03
2.366230e+03,4.278273e+03
2.367195e+03,4.303137e+03
2.368159e+03,4.295092e+03
2.369123e+03,4.282978e+03
2.370087e+03,4.274200e+03
2.371052e+03,4.269942e+03
2.372016e+03,4.273826e+03
2.372980e+03,4.274810e+03
2.373944e+03,4.270839e+03
2.374909e+03,4.263974e+03
2.375873e+03,4.253022e+03
2.376837e+03,4.258340e+03
2.377801e+03,4.274696e+03
2.378766e+03,4.270812e+03
2.379730e+03,4.244504e+03
2.380694e+03,4.228974e+03
2.381658e+03,4.224338e+03
2.382623e+03,4.225812e+03
2.383587e+03,4.229086e+03
2.384551e+03,4.223961e+03
2.385515e+03,4.214670e+03
2.386479e+03,4.215519e+03
2.387444e+03,4.220027e+03
2.388408e+03,4.222591e+03
2.389372e+03,4.219930e+03
2.390336e+03,4.201845e+03
2.391301e+03,4.181336e+03
2.392265e+03,4.165647e+03
2.393229e+03,4.156698e+03
2.394193e+03,4.157082e+03
2.395157e+03,4.163191e+03
2.396122e+03,4.181282e+03
2.397086e+03,4.188780e+03
2.398050e+03,4.179884e+03
2.399014e+03,4.166123e+03
2.399979e+03,4.147342e+03
2.400943e+03,4.142173e+03
2.401907e+03,4.151936e+03
2.402871e+03,4.151838e+03
2.403836e+03,4.137890e+03
2.404800e+03,4.134104e+03
2.405764e+03,4.140423e+03
2.406728e+03,4.144875e+03
2.407693e+03,4.143774e+03
2.408657e+03,4.141707e+03
2.409621e+03,4.139944e+03
2.410585e+03,4.126793e+03
2.411550e+03,4.110392e+03
2.412514e+03,4.109712e+03
2.413478e+03,4.117257e+03
2.414442e+03,4.113005e+03
2.415406e+03,4.108112e+03
2.416371e+03,4.116631e+03
2.417335e+03,4.126645e+03
2.418299e+03,4.114905e+03
2.419263e+03,4.104133e+03
2.420228e+03,4.108088e+03
2.421192e+03,4.109443e+03
2.422156e+03,4.084313e+03
2.423120e+03,4.073644e+03
2.424084e+03,4.085631e+03
2.425049e+03,4.087774e+03
2.426013e+03,4.059217e+03
2.426977e+03,4.048654e+03
2.427941e+03,4.062883e+03
2.428906e+03,4.072183e+03
2.429870e+03,4.064230e+03
2.430834e+03,4.064806e+03
2.431798e+03,4.073452e+03
2.432763e+03,4.077574e+03
2.433727e+03,4.075236e+03
2.434691e+03,4.075034e+03
2.435655e+03,4.074677e+03
2.436620e+03,4.071328e+03
2.437584e+03,4.064294e+03
2.438548e+03,4.048556e+03
2.439512e+03,4.033419e+03
2.440477e+03,4.026451e+03
2.441441e+03,4.020509e+03
2.442405e+03,4.010182e+03
2.443369e+03,4.003813e+03
2.444333e+03,4.007232e+03
2.445298e+03,4.012393e+03
2.446262e+03,4.012474e+03
2.447226e+03,4.006476e+03
2.448190e+03,3.996143e+03
2.449155e+03,3.992763e+03
2.450119e+03,4.014144e+03
2.451083e+03,4.023875e+03
2.452047e+03,4.020671e+03
2.453011e+03,4.005566e+03
2.453976e+03,3.979513e+03
2.454940e+03,3.975642e+03
2.455904e+03,3.987689e+03
2.456868e+03,3.983038e+03
2.457833e+03,3.965989e+03
2.458797e+03,3.971166e+03
2.459761e+03,3.982043e+03
2.460725e+03,3.971010e+03
2.461690e+03,3.949735e+03
2.462654e+03,3.927399e+03
2.463618e+03,3.916700e+03
2.464582e+03,3.929330e+03
2.465547e+03,3.944009e+03
2.466511e+03,3.933055e+03
2.467475e+03,3.917975e+03
2.468439e+03,3.903012e+03
2.469404e+03,3.898534e+03
2.470368e+03,3.932646e+03
2.471332e+03,3.938161e+03
2.472296e+03,3.913889e+03
2.473260e+03,3.891483e+03
2.474225e+03,3.879643e+03
2.475189e+03,3.871572e+03
2.476153e+03,3.870627e+03
2.477117e+03,3.881018e+03
2.478082e+03,3.896611e+03
2.479046e+03,3.909555e+03
2.480010e+03,3.913196e+03
2.480974e+03,3.896833e+03
2.481938e+03,3.875814e+03
2.482903e+03,3.868935e+03
2.483867e+03,3.864990e+03
2.484831e+03,3.854070e+03
2.485795e+03,3.851205e+03
2.486760e+03,3.890399e+03
2.487724e+03,3.901130e+03
2.488688e+03,3.873716e+03
2.489652e+03,3.851099e+03
2.490617e+03,3.854625e+03
2.491581e+03,3.853297e+03
2.492545e+03,3.848948e+03
2.493509e+03,3.839137e+03
2.494474e+03,3.822988e+03
2.495438e+03,3.827356e+03
2.496402e+03,3.842840e+03
2.497366e+03,3.852102e+03
2.498331e+03,3.854102e+03
2.499295e+03,3.842800e+03
2.500259e+03,3.828233e+03
2.501223e+03,3.824391e+03
2.502188e+03,3.823384e+03
2.503152e+03,3.813295e+03
2.504116e+03,3.809486e+03
2.505080e+03,3.817454e+03
2.506044e+03,3.820392e+03
2.507009e+03,3.795711e+03
2.507973e+03,3.783476e+03
2.508937e+03,3.786697e+03
2.509901e+03,3.800419e+03
2.510865e+03,3.823765e+03
2.511830e+03,3.816175e+03
2.512794e+03,3.788087e+03
2.513758e+03,3.781014e+03
2.514722e+03,3.788517e+03
2.515687e+03,3.776740e+03
2.516651e+03,3.763234e+03
2.517615e+03,3.767516e+03
2.518579e+03,3.775903e+03
2.519544e+03,3.774666e+03
2.520508e+03,3.763695e+03
2.521472e+03,3.743241e+03
2.522436e+03,3.727950e+03
2.523401e+03,3.730864e+03
2.524365e+03,3.740255e+03
2.525329e+03,3.751619e+03
2.526293e+03,3.753042e+03
2.527258e+03,3.744282e+03
2.528222e+03,3.741035e+03
2.529186e+03,3.743075e+03
2.530150e+03,3.751541e+03
2.531115e+03,3.763423e+03
2.532079e+03,3.764040e+03
2.533043e+03,3.754813e+03
2.534007e+03,3.735605e+03
2.534971e+03,3.713237e+03
2.535936e+03,3.704553e+03
2.536900e+03,3.693019e+03
2.537864e+03,3.669688e+03
2.538828e+03,3.663081e+03
2.539792e+03,3.688500e+03
2.540757e+03,3.702811e+03
2.541721e+03,3.700662e+03
2.542685e+03,3.689992e+03
2.543649e+03,3.675902e+03
2.544614e+03,3.674692e+03
2.545578e+03,3.680371e+03
2.546542e+03,3.680303e+03
2.547506e+03,3.678000e+03
2.548471e+03,3.678675e+03
2.549435e+03,3.681142e+03
2.550399e+03,3.689315e+03
2.551363e+03,3.688841e+03
2.552328e+03,3.664323e+03
2.553292e+03,3.644816e+03
2.554256e+03,3.641252e+03
2.555220e+03,3.637145e+03
2.556185e+03,3.627808e+03
2.557149e+03,3.628574e+03
2.558113e+03,3.641254e+03
2.559077e+03,3.649171e+03
2.560042e+03,3.651138e+03
2.561006e+03,3.658107e+03
2.561970e+03,3.665774e+03
2.562934e+03,3.647159e+03
2.563898e+03,3.621757e+03
2.564863e+03,3.607825e+03
2.565827e+03,3.601491e+03
2.566791e+03,3.620189e+03
2.567755e+03,3.623376e+03
2.568719e+03,3.596220e+03
2.569684e+03,3.576085e+03
2.570648e+03,3.583431e+03
2.571612e+03,3.590760e+03
2.572576e+03,3.599589e+03
2.573541e+03,3.601333e+03
2.574505e+03,3.595216e+03
2.575469e+03,3.611488e+03
2.576433e+03,3.626962e+03
2.577398e+03,3.607047e+03
2.578362e+03,3.576501e+03
2.579326e+03,3.566896e+03
2.580290e+03,3.561249e+03
2.581255e+03,3.549335e+03
2.582219e+03,3.538615e+03
2.583183e+03,3.535288e+03
2.584147e+03,3.540391e+03
2.585112e+03,3.557375e+03
2.586076e+03,3.565284e+03
2.587040e+03,3.560731e+03
2.588004e+03,3.560317e+03
2.588969e+03,3.561407e+03
2.589933e+03,3.567822e+03
2.590897e+03,3.571849e+03
2.591861e+03,3.545942e+03
2.592825e+03,3.524538e+03
2.593790e+03,3.528564e+03
2.594754e+03,3.539339e+03
2.595718e+03,3.547958e+03
2.596682e+03,3.548719e+03
2.597646e+03,3.538020e+03
2.598611e+03,3.531512e+03
2.599575e+03,3.533344e+03
2.600539e+03,3.529932e+03
2.601503e+03,3.519030e+03
2.602468e+03,3.501113e+03
2.603432e+03,3.484160e+03
2.604396e+03,3.497120e+03
2.605360e+03,3.515195e+03
2.606325e+03,3.510728e+03
2.607289e+03,3.503983e+03
2.608253e+03,3.505363e+03
2.609217e+03,3.505886e+03
2.610182e+03,3.494025e+03
2.611146e+03,3.494351e+03
2.612110e+03,3.505178e+03
2.613074e+03,3.491260e+03
2.614039e+03,3.458646e+03
2.615003e+03,3.467330e+03
2.615967e+03,3.487437e+03
2.616931e+03,3.480225e+03
2.617896e+03,3.465171e+03
2.618860e+03,3.464578e+03
2.619824e+03,3.468175e+03
2.620788e+03,3.471247e+03
2.621752e+03,3.466265e+03
2.622717e+03,3.444640e+03
2.623681e+03,3.441480e+03
2.624645e+03,3.454557e+03
2.625609e+03,3.463760e+03
2.626573e+03,3.466176e+03
2.627538e+03,3.447450e+03
2.628502e+03,3.424643e+03
2.629466e+03,3.419084e+03
2.630430e+03,3.420160e+03
2.631395e+03,3.412571e+03
2.632359e+03,3.408177e+03
2.633323e+03,3.413577e+03
2.634287e+03,3.415243e+03
2.635252e+03,3.411524e+03
2.636216e+03,3.417946e+03
2.637180e+03,3.433634e+03
2.638144e+03,3.436752e+03
2.639109e+03,3.427667e+03
2.640073e+03,3.406941e+03
2.641037e+03,3.389608e+03
2.642001e+03,3.388927e+03
2.642966e+03,3.393857e+03
2.643930e+03,3.397929e+03
2.644894e+03,3.399755e+03
2.645858e+03,3.395676e+03
2.646823e+03,3.399595e+03
2.647787e+03,3.407755e+03
2.648751e+03,3.399786e+03
2.649715e+03,3.374519e+03
2.650679e+03,3.351614e+03
2.651644e+03,3.339924e+03
2.652608e+03,3.353825e+03
2.653572e+03,3.373663e+03
2.654536e+03,3.372743e+03
2.655500e+03,3.367578e+03
2.656465e+03,3.363649e+03
2.657429e+03,3.363288e+03
2.658393e+03,3.365712e+03
2.659357e+03,3.349464e+03
2.660322e+03,3.321005e+03
2.661286e+03,3.314239e+03
2.662250e+03,3.323939e+03
2.663214e+03,3.339294e+03
2.664179e+03,3.354146e+03
2.665143e+03,3.372780e+03
2.666107e+03,3.369852e+03
2.667071e+03,3.329065e+03
2.668036e+03,3.303644e+03
2.669000e+03,3.327457e+03
2.669964e+03,3.343158e+03
2.670928e+03,3.347212e+03
2.671893e+03,3.338262e+03
2.672857e+03,3.321534e+03
2.673821e+03,3.296966e+03
2.674785e+03,3.281868e+03
2.675750e+03,3.298841e+03
2.676714e+03,3.323144e+03
2.677678e+03,3.328184e+03
2.678642e+03,3.320843e+03
2.679606e+03,3.301609e+03
2.680571e+03,3.310172e+03
2.681535e+03,3.348531e+03
2.682499e+03,3.341828e+03
2.683463e+03,3.298091e+03
2.684427e+03,3.278122e+03
2.685392e+03,3.276777e+03
2.686356e+03,3.293234e+03
2.687320e+03,3.304601e+03
2.688284e+03,3.295451e+03
2.689249e+03,3.278539e+03
2.690213e+03,3.256325e+03
2.691177e+03,3.242020e+03
2.692141e+03,3.244519e+03
2.693106e+03,3.251402e+03
2.694070e+03,3.261633e+03
2.695034e+03,3.272439e+03
2.695998e+03,3.279341e+03
2.696963e+03,3.270640e+03
2.697927e+03,3.262717e+03
2.698891e+03,3.260391e+03
2.699855e+03,3.258334e+03
2.700820e+03,3.257020e+03
2.701784e+03,3.252834e+03
2.702748e+03,3.244539e+03
2.703712e+03,3.242515e+03
2.704677e+03,3.242700e+03
2.705641e+03,3.232133e+03
2.706605e+03,3.223817e+03
2.707569e+03,3.224042e+03
2.708533e+03,3.234171e+03
2.709498e+03,3.255137e+03
2.710462e+03,3.259778e+03
2.711426e+03,3.230392e+03
2.712390e+03,3.228094e+03
2.713354e+03,3.244058e+03
2.714319e+03,3.235981e+03
2.715283e+03,3.211898e+03
2.716247e+03,3.185323e+03
2.717211e+03,3.175184e+03
2.718176e+03,3.195824e+03
2.719140e+03,3.213187e+03
2.720104e+03,3.197689e+03
2.721068e+03,3.198107e+03
2.722033e+03,3.218481e+03
2.722997e+03,3.223185e+03
2.723961e+03,3.211144e+03
2.724925e+03,3.184030e+03
2.725890e+03,3.159274e+03
2.726854e+03,3.159222e+03
2.727818e+03,3.171099e+03
2.728782e+03,3.185530e+03
2.729747e+03,3.186759e+03
2.730711e+03,3.155827e+03
2.731675e+03,3.152059e+03
2.732639e+03,3.170604e+03
2.733604e+03,3.181160e+03
2.734568e+03,3.181173e+03
2.735532e+03,3.162048e+03
2.736496e+03,3.142960e+03
2.737460e+03,3.140159e+03
2.738425e+03,3.142710e+03
2.739389e+03,3.143082e+03
2.740353e+03,3.145712e+03
2.741317e+03,3.151839e+03
2.742281e+03,3.144884e+03
2.743246e+03,3.131695e+03
2.744210e+03,3.126836e+03
2.745174e+03,3.127939e+03
2.746138e+03,3.147018e+03
2.747103e+03,3.160925e+03
2.748067e+03,3.163135e+03
2.749031e+03,3.159764e+03
2.749995e+03,3.151536e+03
2.750960e+03,3.129444e+03
2.751924e+03,3.101298e+03
2.752888e+03,3.090685e+03
2.753852e+03,3.090578e+03
2.754817e+03,3.091520e+03
2.755781e+03,3.089431e+03
2.756745e+03,3.077792e+03
2.757709e+03,3.080965e+03
2.758674e+03,3.102899e+03
2.759638e+03,3.108806e+03
2.760602e+03,3.094443e+03
2.761566e+03,3.085245e+03
2.762531e+03,3.084933e+03
2.763495e+03,3.097073e+03
2.764459e+03,3.108606e+03
2.765423e+03,3.113275e+03
2.766387e+03,3.103848e+03
2.767352e+03,3.082005e+03
2.768316e+03,3.067682e+03
2.769280e+03,3.064140e+03
2.770244e+03,3.071776e+03
2.771208e+03,3.081724e+03
2.772173e+03,3.070932e+03
2.773137e+03,3.053458e+03
2.774101e+03,3.048917e+03
2.775065e+03,3.051946e+03
2.776030e+03,3.060573e+03
2.776994e+03,3.073610e+03
2.777958e+03,3.085457e+03
2.778922e+03,3.077829e+03
2.779887e+03,3.061509e+03
2.780851e+03,3.068439e+03
2.781815e+03,3.072936e+03
2.782779e+03,3.059854e+03
2.783744e+03,3.049696e+03
2.784708e+03,3.054140e+03
2.785672e+03,3.049875e+03
2.786636e+03,3.035947e+03
2.787601e+03,3.027843e+03
2.788565e+03,3.025352e+03
2.789529e+03,3.021819e+03
2.790493e+03,3.016508e+03
2.791458e+03,2.999202e+03
2.792422e+03,2.993937e+03
2.793386e+03,3.007510e+03
2.794350e+03,3.021339e+03
2.795314e+03,3.028543e+03
2.796279e+03,3.025020e+03
2.797243e+03,3.009848e+03
2.798207e+03,2.987618e+03
2.799171e+03,2.967262e+03
2.800135e+03,2.954532e+03
2.801100e+03,2.949306e+03
2.802064e+03,2.954859e+03
2.803028e+03,2.960167e+03
2.803992e+03,2.963581e+03
2.804957e+03,2.970073e+03
2.805921e+03,2.981029e+03
2.806885e+03,3.001871e+03
2.807849e+03,3.012437e+03
2.808814e+03,3.004156e+03
2.809778e+03,2.993876e+03
2.810742e+03,2.992735e+03
2.811706e+03,2.976573e+03
2.812671e+03,2.948600e+03
2.813635e+03,2.926366e+03
2.814599e+03,2.917554e+03
2.815563e+03,2.957112e+03
2.816528e+03,2.989073e+03
2.817492e+03,2.983397e+03
2.818456e+03,2.977103e+03
2.819420e+03,2.973468e+03
2.820385e+03,2.972189e+03
2.821349e+03,2.972190e+03
2.822313e+03,2.951385e+03
2.823277e+03,2.936782e+03
2.824241e+03,2.947383e+03
2.825206e+03,2.959812e+03
2.826170e+03,2.963537e+03
2.827134e+03,2.963403e+03
2.828098e+03,2.958682e+03
2.829063e+03,2.960018e+03
2.830027e+03,2.962950e+03
2.830991e+03,2.963469e+03
2.831955e+03,2.962034e+03
2.832919e+03,2.944747e+03
2.833884e+03,2.937405e+03
2.834848e+03,2.941495e+03
2.835812e+03,2.943693e+03
2.836776e+03,2.942638e+03
2.837741e+03,2.930308e+03
2.838705e+03,2.925488e+03
2.839669e+03,2.954929e+03
2.840633e+03,2.966080e+03
2.841598e+03,2.928895e+03
2.842562e+03,2.908828e+03
2.843526e+03,2.924122e+03
2.844490e+03,2.893366e+03
2.845455e+03,2.852566e+03
2.846419e+03,2.878597e+03
2.847383e+03,2.917845e+03
2.848347e+03,2.909629e+03
2.849312e+03,2.899648e+03
2.850276e+03,2.895673e+03
2.851240e+03,2.897387e+03
2.852204e+03,2.899598e+03
2.853168e+03,2.891651e+03
2.854133e+03,2.882120e+03
2.855097e+03,2.886785e+03
2.856061e+03,2.891042e+03
2.857025e+03,2.886235e+03
2.857990e+03,2.881698e+03
2.858954e+03,2.881590e+03
2.859918e+03,2.862375e+03
2.860882e+03,2.845734e+03
2.861846e+03,2.869259e+03
2.862811e+03,2.890838e+03
2.863775e+03,2.862966e+03
2.864739e+03,2.853944e+03
2.865703e+03,2.882335e+03
2.866668e+03,2.892218e+03
2.867632e+03,2.884573e+03
2.868596e+03,2.862146e+03
2.869560e+03,2.844049e+03
2.870525e+03,2.868432e+03
2.871489e+03,2.883911e+03
2.872453e+03,2.876509e+03
2.873417e+03,2.876474e+03
2.874382e+03,2.882925e+03
2.875346e+03,2.865173e+03
2.876310e+03,2.842209e+03
2.877274e+03,2.837143e+03
2.878239e+03,2.831841e+03
2.879203e+03,2.816159e+03
2.880167e+03,2.825534e+03
2.881131e+03,2.876272e+03
2.882095e+03,2.868310e+03
2.883060e+03,2.836007e+03
2.884024e+03,2.834087e+03
2.884988e+03,2.841743e+03
2.885952e+03,2.838916e+03
2.886917e+03,2.843976e+03
2.887881e+03,2.864321e+03
2.888845e+03,2.868397e+03
2.889809e+03,2.855970e+03
2.890773e+03,2.812712e+03
2.891738e+03,2.778489e+03
2.892702e+03,2.822407e+03
2.893666e+03,2.857457e+03
2.894630e+03,2.867036e+03
2.895595e+03,2.854397e+03
2.896559e+03,2.828246e+03
2.897523e+03,2.806628e+03
2.898487e+03,2.798674e+03
2.899452e+03,2.825280e+03
2.900416e+03,2.841979e+03
2.901380e+03,2.838494e+03
2.902344e+03,2.839769e+03
2.903309e+03,2.847528e+03
2.904273e+03,2.834533e+03
2.905237e+03,2.811045e+03
2.906201e+03,2.783595e+03
2.907166e+03,2.775609e+03
2.908130e+03,2.796384e+03
2.909094e+03,2.804355e+03
2.910058e+03,2.794203e+03
2.911022e+03,2.803968e+03
2.911987e+03,2.814105e+03
2.912951e+03,2.798643e+03
2.913915e+03,2.784274e+03
2.914879e+03,2.791485e+03
2.915844e+03,2.793747e+03
2.916808e+03,2.788819e+03
2.917772e+03,2.770151e+03
2.918736e+03,2.755808e+03
2.919700e+03,2.774962e+03
2.920665e+03,2.796331e+03
2.921629e+03,2.803053e+03
2.922593e+03,2.798430e+03
2.923557e+03,2.784994e+03
2.924522e+03,2.764299e+03
2.925486e+03,2.740104e+03
2.926450e+03,2.711098e+03
2.927414e+03,2.695165e+03
2.928379e+03,2.702698e+03
2.929343e+03,2.728116e+03
2.930307e+03,2.760782e+03
2.931271e+03,2.761267e+03
2.932236e+03,2.746277e+03
2.933200e+03,2.730517e+03
2.934164e+03,2.732392e+03
2.935128e+03,2.758189e+03
2.936093e+03,2.751428e+03
2.937057e+03,2.718067e+03
2.938021e+03,2.728886e+03
2.938985e+03,2.755625e+03
2.939949e+03,2.742070e+03
2.940914e+03,2.717331e+03
2.941878e+03,2.694353e+03
2.942842e+03,2.696016e+03
2.943806e+03,2.717636e+03
2.944771e+03,2.718319e+03
2.945735e+03,2.707874e+03
2.946699e+03,2.696933e+03
2.947663e+03,2.690897e+03
2.948627e+03,2.686970e+03
2.949592e+03,2.689841e+03
2.950556e+03,2.703016e+03
2.951520e+03,2.741157e+03
2.952484e+03,2.760991e+03
2.953449e+03,2.718228e+03
2.954413e+03,2.693285e+03
2.955377e+03,2.723395e+03
2.956341e+03,2.736258e+03
2.957306e+03,2.725886e+03
2.958270e+03,2.737665e+03
2.959234e+03,2.726341e+03
2.960198e+03,2.660125e+03
2.961163e+03,2.620702e+03
2.962127e+03,2.641868e+03
2.963091e+03,2.657331e+03
2.964055e+03,2.663227e+03
2.965020e+03,2.683390e+03
2.965984e+03,2.698191e+03
2.966948e+03,2.688615e+03
2.967912e+03,2.678539e+03
2.968876e+03,2.678662e+03
2.969841e+03,2.676796e+03
2.970805e+03,2.667918e+03
2.971769e+03,2.644612e+03
2.972733e+03,2.625278e+03
2.973698e+03,2.624031e+03
2.974662e+03,2.618886e+03
2.975626e+03,2.606025e+03
2.976590e+03,2.652511e+03
2.977554e+03,2.699356e+03
2.978519e+03,2.662565e+03
2.979483e+03,2.619911e+03
2.980447e+03,2.628336e+03
2.981411e+03,2.630049e+03
2.982376e+03,2.623300e+03
2.983340e+03,2.643683e+03
2.984304e+03,2.665199e+03
2.985268e+03,2.664580e+03
2.986233e+03,2.648353e+03
2.987197e+03,2.614220e+03
2.988161e+03,2.606866e+03
2.989125e+03,2.620975e+03
2.990090e+03,2.628418e+03
2.991054e+03,2.623202e+03
2.992018e+03,2.599671e+03
2.992982e+03,2.578539e+03
2.993947e+03,2.569013e+03
2.994911e+03,2.614559e+03
2.995875e+03,2.667646e+03
2.996839e+03,2.640906e+03
2.997803e+03,2.604731e+03
2.998768e+03,2.608407e+03
2.999732e+03,2.612773e+03
3.000696e+03,2.612227e+03
3.001660e+03,2.595684e+03
3.002625e+03,2.577165e+03
3.003589e+03,2.571965e+03
3.004553e+03,2.578721e+03
3.005517e+03,2.599830e+03
3.006481e+03,2.611998e+03
3.007446e+03,2.606804e+03
3.008410e+03,2.568814e+03
3.009374e+03,2.549326e+03
3.010338e+03,2.580763e+03
3.011303e+03,2.609157e+03
3.012267e+03,2.611927e+03
3.013231e+03,2.603147e+03
3.014195e+03,2.588070e+03
3.015160e+03,2.575321e+03
3.016124e+03,2.567941e+03
3.017088e+03,2.564758e+03
3.018052e+03,2.565351e+03
3.019017e+03,2.565374e+03
3.019981e+03,2.546386e+03
3.020945e+03,2.538905e+03
3.021909e+03,2.573101e+03
3.022874e+03,2.591561e+03
3.023838e+03,2.584024e+03
3.024802e+03,2.585369e+03
3.025766e+03,2.590421e+03
3.026730e+03,2.571156e+03
3.027695e+03,2.549203e+03
3.028659e+03,2.535251e+03
3.029623e+03,2.523946e+03
3.030587e+03,2.514434e+03
3.031552e+03,2.509062e+03
3.032516e+03,2.506710e+03
3.033480e+03,2.515162e+03
3.034444e+03,2.526039e+03
3.035408e+03,2.536180e+03
3.036373e+03,2.512767e+03
3.037337e+03,2.476471e+03
3.038301e+03,2.509746e+03
3.039265e+03,2.539672e+03
3.040230e+03,2.506841e+03
3.041194e+03,2.526288e+03
3.042158e+03,2.576075e+03
3.043122e+03,2.553704e+03
3.044087e+03,2.514177e+03
3.045051e+03,2.536452e+03
3.046015e+03,2.549799e+03
3.046979e+03,2.536046e+03
3.047944e+03,2.529066e+03
3.048908e+03,2.523725e+03
3.049872e+03,2.504725e+03
3.050836e+03,2.497713e+03
3.051801e+03,2.524078e+03
3.052765e+03,2.521318e+03
3.053729e+03,2.490219e+03
3.054693e+03,2.498272e+03
3.055657e+03,2.512643e+03
3.056622e+03,2.506766e+03
3.057586e+03,2.493371e+03
3.058550e+03,2.479339e+03
3.059514e+03,2.487203e+03
3.060479e+03,2.507367e+03
3.061443e+03,2.525341e+03
3.062407e+03,2.517522e+03
3.063371e+03,2.483266e+03
3.064335e+03,2.486288e+03
3.065300e+03,2.518852e+03
3.066264e+03,2.518774e+03
3.067228e+03,2.505867e+03
3.068192e+03,2.487318e+03
3.069157e+03,2.470625e+03
3.070121e+03,2.458413e+03
3.071085e+03,2.461306e+03
3.072049e+03,2.468808e+03
3.073014e+03,2.470646e+03
3.073978e+03,2.469199e+03
3.074942e+03,2.462773e+03
3.075906e+03,2.441595e+03
3.076871e+03,2.421156e+03
3.077835e+03,2.422421e+03
3.078799e+03,2.434318e+03
3.079763e+03,2.451129e+03
3.080728e+03,2.478698e+03
3.081692e+03,2.508119e+03
3.082656e+03,2.504248e+03
3.083620e+03,2.490099e+03
3.084584e+03,2.481063e+03
3.085549e+03,2.488099e+03
3.086513e+03,2.511995e+03
3.087477e+03,2.490552e+03
3.088441e+03,2.454281e+03
3.089406e+03,2.436987e+03
3.090370e+03,2.438360e+03
3.091334e+03,2.453072e+03
3.092298e+03,2.454860e+03
3.093262e+03,2.450788e+03
3.094227e+03,2.460763e+03
3.095191e+03,2.466282e+03
3.096155e+03,2.460537e+03
3.097119e+03,2.444267e+03
3.098084e+03,2.430769e+03
3.099048e+03,2.442750e+03
3.100012e+03,2.450448e+03
3.100976e+03,2.424921e+03
3.101941e+03,2.432370e+03
3.102905e+03,2.469726e+03
3.103869e+03,2.471010e+03
3.104833e+03,2.465480e+03
3.105798e+03,2.474987e+03
3.106762e+03,2.483562e+03
3.107726e+03,2.487915e+03
3.108690e+03,2.446192e+03
3.109655e+03,2.409729e+03
3.110619e+03,2.466617e+03
3.111583e+03,2.477149e+03
3.112547e+03,2.434379e+03
3.113511e+03,2.444383e+03
3.114476e+03,2.479585e+03
3.115440e+03,2.463852e+03
3.116404e+03,2.457844e+03
3.117368e+03,2.492582e+03
3.118333e+03,2.487939e+03
3.119297e+03,2.464808e+03
3.120261e+03,2.462944e+03
3.121225e+03,2.460895e+03
3.122189e+03,2.444555e+03
3.123154e+03,2.438474e+03
3.124118e+03,2.438295e+03
3.125082e+03,2.425099e+03
3.126046e+03,2.422818e+03
3.127011e+03,2.440788e+03
3.127975e+03,2.430784e+03
3.128939e+03,2.403177e+03
3.129903e+03,2.445721e+03
3.130868e+03,2.488689e+03
3.131832e+03,2.457831e+03
3.132796e+03,2.433129e+03
3.133760e+03,2.423429e+03
3.134725e+03,2.433191e+03
3.135689e+03,2.433130e+03
3.136653e+03,2.392140e+03
3.137617e+03,2.390310e+03
3.138582e+03,2.452677e+03
3.139546e+03,2.469795e+03
3.140510e+03,2.451090e+03
3.141474e+03,2.408756e+03
3.142438e+03,2.385843e+03
3.143403e+03,2.385653e+03
3.144367e+03,2.374828e+03
3.145331e+03,2.372146e+03
3.146295e+03,2.445344e+03
3.147260e+03,2.474230e+03
3.148224e+03,2.421214e+03
3.149188e+03,2.376565e+03
3.150152e+03,2.358038e+03
3.151116e+03,2.379211e+03
3.152081e+03,2.397482e+03
3.153045e+03,2.389117e+03
3.154009e+03,2.404676e+03
3.154973e+03,2.430173e+03
3.155938e+03,2.430894e+03
3.156902e+03,2.404340e+03
3.157866e+03,2.353149e+03
3.158830e+03,2.321228e+03
3.159795e+03,2.322594e+03
3.160759e+03,2.399215e+03
3.161723e+03,2.451308e+03
3.162687e+03,2.405587e+03
3.163652e+03,2.393885e+03
3.164616e+03,2.410085e+03
3.165580e+03,2.431288e+03
3.166544e+03,2.448294e+03
3.167509e+03,2.459542e+03
3.168473e+03,2.425696e+03
3.169437e+03,2.372009e+03
3.170401e+03,2.397163e+03
3.171365e+03,2.403290e+03
3.172330e+03,2.348095e+03
3.173294e+03,2.372649e+03
3.174258e+03,2.429171e+03
3.175222e+03,2.400642e+03
3.176187e+03,2.353606e+03
3.177151e+03,2.332535e+03
3.178115e+03,2.328404e+03
3.179079e+03,2.342803e+03
3.180043e+03,2.389479e+03
3.181008e+03,2.414012e+03
3.181972e+03,2.402922e+03
3.182936e+03,2.366219e+03
3.183900e+03,2.328816e+03
3.184865e+03,2.375683e+03
3.185829e+03,2.416713e+03
3.186793e+03,2.393743e+03
3.187757e+03,2.398067e+03
3.188722e+03,2.412905e+03
3.189686e+03,2.394117e+03
3.190650e+03,2.395041e+03
3.191614e+03,2.430905e+03
3.192579e+03,2.452442e+03
3.193543e+03,2.449392e+03
3.194507e+03,2.376184e+03
3.195471e+03,2.348414e+03
3.196436e+03,2.417786e+03
3.197400e+03,2.426357e+03
3.198364e+03,2.394374e+03
3.199328e+03,2.372024e+03
3.200292e+03,2.380082e+03
3.201257e+03,0.000000e+00
3.202221e+03,0.000000e+00
3.203185e+03,0.000000e+00
3.204149e+03,0.000000e+00
3.205114e+03,0.000000e+00
3.206078e+03,0.000000e+00
3.207042e+03,0.000000e+00
3.208006e+03,0.000000e+00
3.208970e+03,0.000000e+00
3.209935e+03,0.000000e+00
3.210899e+03,0.000000e+00
3.211863e+03,0.000000e+00
3.212827e+03,0.000000e+00
3.213792e+03,0.000000e+00
3.214756e+03,0.000000e+00
3.215720e+03,0.000000e+00
3.216684e+03,0.000000e+00
3.217649e+03,0.000000e+00
3.218613e+03,0.000000e+00
3.219577e+03,0.000000e+00
3.220541e+03,0.000000e+00
3.221506e+03,0.000000e+00
3.222470e+03,0.000000e+00
3.223434e+03,0.000000e+00
3.224398e+03,0.000000e+00
3.225363e+03,0.000000e+00
3.226327e+03,0.000000e+00
3.227291e+03,0.000000e+00
3.228255e+03,0.000000e+00
3.229219e+03,0.000000e+00
3.230184e+03,0.000000e+00
3.231148e+03,0.000000e+00
3.232112e+03,0.000000e+00
3.233076e+03,0.000000e+00
3.234041e+03,0.000000e+00
3.235005e+03,0.000000e+00
3.235969e+03,0.000000e+00
3.236933e+03,0.000000e+00
3.237897e+03,0.000000e+00
3.238862e+03,0.000000e+00
3.239826e+03,0.000000e+00
3.240790e+03,0.000000e+00
3.241754e+03,0.000000e+00
3.242719e+03,0.000000e+00
3.243683e+03,0.000000e+00
3.244647e+03,0.000000e+00
3.245611e+03,0.000000e+00
3.246576e+03,0.000000e+00
3.247540e+03,0.000000e+00
3.248504e+03,0.000000e+00
3.249468e+03,0.000000e+00
3.250433e+03,0.000000e+00
3.251397e+03,0.000000e+00
3.252361e+03,0.000000e+00
3.253325e+03,0.000000e+00
3.254290e+03,0.000000e+00
3.255254e+03,0.000000e+00
3.256218e+03,0.000000e+00
3.257182e+03,0.000000e+00
3.258146e+03,0.000000e+00
3.259111e+03,0.000000e+00
3.260075e+03,0.000000e+00
3.261039e+03,0.000000e+00
3.262003e+03,0.000000e+00
3.262968e+03,0.000000e+00
3.263932e+03,0.000000e+00
3.264896e+03,0.000000e+00
3.265860e+03,0.000000e+00
3.266824e+03,0.000000e+00
3.267789e+03,0.000000e+00
3.268753e+03,0.000000e+00
3.269717e+03,0.000000e+00
3.270681e+03,0.000000e+00
3.271646e+03,0.000000e+00
3.272610e+03,0.000000e+00
3.273574e+03,0.000000e+00
3.274538e+03,0.000000e+00
3.275503e+03,0.000000e+00
3.276467e+03,0.000000e+00
3.277431e+03,0.000000e+00
3.278395e+03,0.000000e+00
3.279360e+03,0.000000e+00
3.280324e+03,0.000000e+00
3.281288e+03,0.000000e+00
3.282252e+03,0.000000e+00
3.283217e+03,0.000000e+00
3.284181e+03,0.000000e+00
3.285145e+03,0.000000e+00
3.286109e+03,0.000000e+00
3.287073e+03,0.000000e+00
3.288038e+03,0.000000e+00
3.289002e+03,0.000000e+00
3.289966e+03,0.000000e+00
3.290930e+03,0.000000e+00
3.291895e+03,0.000000e+00
3.292859e+03,0.000000e+00
3.293823e+03,0.000000e+00
3.294787e+03,0.000000e+00
3.295751e+03,0.000000e+00
3.296716e+03,0.000000e+00
3.297680e+03,0.000000e+00
3.298644e+03,0.000000e+00
3.299608e+03,0.000000e+00
3.300573e+03,0.000000e+00
3.301537e+03,0.000000e+00
3.302501e+03,0.000000e+00
3.303465e+03,0.000000e+00
3.304430e+03,0.000000e+00
3.305394e+03,0.000000e+00
3.306358e+03,0.000000e+00
3.307322e+03,0.000000e+00
3.308287e+03,0.000000e+00
3.309251e+03,0.000000e+00
3.310215e+03,0.000000e+00
3.311179e+03,0.000000e+00
3.312144e+03,0.000000e+00
3.313108e+03,0.000000e+00
3.314072e+03,0.000000e+00
3.315036e+03,0.000000e+00
3.316000e+03,0.000000e+00
3.316965e+03,0.000000e+00
3.317929e+03,0.000000e+00
3.318893e+03,0.000000e+00
3.319857e+03,0.000000e+00
3.320822e+03,0.000000e+00
3.321786e+03,0.000000e+00
3.322750e+03,0.000000e+00
3.323714e+03,0.000000e+00
3.324678e+03,0.000000e+00
3.325643e+03,0.000000e+00
3.326607e+03,0.000000e+00
3.327571e+03,0.000000e+00
3.328535e+03,0.000000e+00
3.329500e+03,0.000000e+00
3.330464e+03,0.000000e+00
3.331428e+03,0.000000e+00
3.332392e+03,0.000000e+00
3.333357e+03,0.000000e+00
3.334321e+03,0.000000e+00
3.335285e+03,0.000000e+00
3.336249e+03,0.000000e+00
3.337214e+03,0.000000e+00
3.338178e+03,0.000000e+00
3.339142e+03,0.000000e+00
3.340106e+03,0.000000e+00
3.341071e+03,0.000000e+00
3.342035e+03,0.000000e+00
3.342999e+03,0.000000e+00
3.343963e+03,0.000000e+00
3.344927e+03,0.000000e+00
3.345892e+03,0.000000e+00
3.346856e+03,0.000000e+00
3.347820e+03,0.000000e+00
3.348784e+03,0.000000e+00
3.349749e+03,0.000000e+00
3.350713e+03,0.000000e+00
3.351677e+03,0.000000e+00
3.352641e+03,0.000000e+00
3.353605e+03,0.000000e+00
3.354570e+03,0.000000e+00
3.355534e+03,0.000000e+00
3.356498e+03,0.000000e+00
3.357462e+03,0.000000e+00
3.358427e+03,0.000000e+00
3.359391e+03,0.000000e+00
3.360355e+03,0.000000e+00
3.361319e+03,0.000000e+00
3.362284e+03,0.000000e+00
3.363248e+03,0.000000e+00
3.364212e+03,0.000000e+00
3.365176e+03,0.000000e+00
3.366141e+03,0.000000e+00
3.367105e+03,0.000000e+00
3.368069e+03,0.000000e+00
3.369033e+03,0.000000e+00
3.369998e+03,0.000000e+00
3.370962e+03,0.000000e+00
3.371926e+03,0.000000e+00
3.372890e+03,0.000000e+00
3.373854e+03,0.000000e+00
3.374819e+03,0.000000e+00
3.375783e+03,0.000000e+00
3.376747e+03,0.000000e+00
3.377711e+03,0.000000e+00
3.378676e+03,0.000000e+00
3.379640e+03,0.000000e+00
3.380604e+03,0.000000e+00
3.381568e+03,0.000000e+00
3.382532e+03,0.000000e+00
3.383497e+03,0.000000e+00
3.384461e+03,0.000000e+00
3.385425e+03,0.000000e+00
3.386389e+03,0.000000e+00
3.387354e+03,0.000000e+00
3.388318e+03,0.000000e+00
3.389282e+03,0.000000e+00
3.390246e+03,0.000000e+00
3.391211e+03,0.000000e+00
3.392175e+03,0.000000e+00
3.393139e+03,0.000000e+00
3.394103e+03,0.000000e+00
3.395068e+03,0.000000e+00
3.396032e+03,0.000000e+00
3.396996e+03,0.000000e+00
3.397960e+03,0.000000e+00
3.398925e+03,0.000000e+00
3.399889e+03,0.000000e+00
3.400853e+03,0.000000e+00
3.401817e+03,0.000000e+00
3.402781e+03,0.000000e+00
3.403746e+03,0.000000e+00
3.404710e+03,0.000000e+00
3.405674e+03,0.000000e+00
3.406638e+03,0.000000e+00
3.407603e+03,0.000000e+00
3.408567e+03,0.000000e+00
3.409531e+03,0.000000e+00
3.410495e+03,0.000000e+00
3.411459e+03,0.000000e+00
3.412424e+03,0.000000e+00
3.413388e+03,0.000000e+00
3.414352e+03,0.000000e+00
3.415316e+03,0.000000e+00
3.416281e+03,0.000000e+00
3.417245e+03,0.000000e+00
3.418209e+03,0.000000e+00
3.419173e+03,0.000000e+00
3.420138e+03,0.000000e+00
3.421102e+03,0.000000e+00
3.422066e+03,0.000000e+00
3.423030e+03,0.000000e+00
3.423995e+03,0.000000e+00
3.424959e+03,0.000000e+00
3.425923e+03,0.000000e+00
3.426887e+03,0.000000e+00
3.427852e+03,0.000000e+00
3.428816e+03,0.000000e+00
3.429780e+03,0.000000e+00
3.430744e+03,0.000000e+00
3.431708e+03,0.000000e+00
3.432673e+03,0.000000e+00
3.433637e+03,0.000000e+00
3.434601e+03,0.000000e+00
3.435565e+03,0.000000e+00
3.436530e+03,0.000000e+00
3.437494e+03,0.000000e+00
3.438458e+03,0.000000e+00
3.439422e+03,0.000000e+00
3.440386e+03,0.000000e+00
3.441351e+03,0.000000e+00
3.442315e+03,0.000000e+00
3.443279e+03,0.000000e+00
3.444243e+03,0.000000e+00
3.445208e+03,0.000000e+00
3.446172e+03,0.000000e+00
3.447136e+03,0.000000e+00
3.448100e+03,0.000000e+00
3.449065e+03,0.000000e+00
3.450029e+03,0.000000e+00
3.450993e+03,0.000000e+00
3.451957e+03,0.000000e+00
3.452922e+03,0.000000e+00
3.453886e+03,0.000000e+00
3.454850e+03,0.000000e+00
3.455814e+03,0.000000e+00
3.456779e+03,0.000000e+00
3.457743e+03,0.000000e+00
3.458707e+03,0.000000e+00
3.459671e+03,0.000000e+00
3.460635e+03,0.000000e+00
3.461600e+03,0.000000e+00
3.462564e+03,0.000000e+00
3.463528e+03,0.000000e+00
3.464492e+03,0.000000e+00
3.465457e+03,0.000000e+00
3.466421e+03,0.000000e+00
3.467385e+03,0.000000e+00
3.468349e+03,0.000000e+00
3.469313e+03,0.000000e+00
3.470278e+03,0.000000e+00
3.471242e+03,0.000000e+00
3.472206e+03,0.000000e+00
3.473170e+03,0.000000e+00
3.474135e+03,0.000000e+00
3.475099e+03,0.000000e+00
3.476063e+03,0.000000e+00
3.477027e+03,0.000000e+00
3.477992e+03,0.000000e+00
3.478956e+03,0.000000e+00
3.479920e+03,0.000000e+00
3.480884e+03,0.000000e+00
3.481849e+03,0.000000e+00
3.482813e+03,0.000000e+00
3.483777e+03,0.000000e+00
3.484741e+03,0.000000e+00
3.485706e+03,0.000000e+00
3.486670e+03,0.000000e+00
3.487634e+03,0.000000e+00
3.488598e+03,0.000000e+00
3.489563e+03,0.000000e+00
3.490527e+03,0.000000e+00
3.491491e+03,0.000000e+00
3.492455e+03,0.000000e+00
3.493419e+03,0.000000e+00
3.494384e+03,0.000000e+00
3.495348e+03,0.000000e+00
3.496312e+03,0.000000e+00
3.497276e+03,0.000000e+00
3.498240e+03,0.000000e+00
3.499205e+03,0.000000e+00
3.500169e+03,0.000000e+00
