9.931763e+01,0.000000e+00
1.002819e+02,0.000000e+00
1.012461e+02,0.000000e+00
1.022103e+02,0.000000e+00
1.031746e+02,0.000000e+00
1.041388e+02,0.000000e+00
1.051030e+02,0.000000e+00
1.060673e+02,0.000000e+00
1.070315e+02,0.000000e+00
1.079957e+02,0.000000e+00
1.089600e+02,0.000000e+00
1.099242e+02,0.000000e+00
1.108884e+02,0.000000e+00
1.118527e+02,0.000000e+00
1.128169e+02,0.000000e+00
1.137811e+02,0.000000e+00
1.147454e+02,0.000000e+00
1.157096e+02,0.000000e+00
1.166738e+02,0.000000e+00
1.176381e+02,0.000000e+00
1.186023e+02,0.000000e+00
1.195665e+02,0.000000e+00
1.205308e+02,0.000000e+00
1.214950e+02,0.000000e+00
1.224592e+02,0.000000e+00
1.234235e+02,0.000000e+00
1.243877e+02,0.000000e+00
1.253519e+02,0.000000e+00
1.263162e+02,0.000000e+00
1.272804e+02,0.000000e+00
1.282446e+02,0.000000e+00
1.292089e+02,0.000000e+00
1.301731e+02,0.000000e+00
1.311373e+02,0.000000e+00
1.321016e+02,0.000000e+00
1.330658e+02,0.000000e+00
1.340300e+02,0.000000e+00
1.349943e+02,0.000000e+00
1.359585e+02,0.000000e+00
1.369227e+02,0.000000e+00
1.378870e+02,0.000000e+00
1.388512e+02,0.000000e+00
1.398154e+02,0.000000e+00
1.407797e+02,0.000000e+00
1.417439e+02,0.000000e+00
1.427081e+02,0.000000e+00
1.436724e+02,0.000000e+00
1.446366e+02,0.000000e+00
1.456008e+02,0.000000e+00
1.465651e+02,0.000000e+00
1.475293e+02,0.000000e+00
1.484935e+02,0.000000e+00
1.494578e+02,0.000000e+00
1.504220e+02,0.000000e+00
1.513862e+02,0.000000e+00
1.523505e+02,0.000000e+00
1.533147e+02,0.000000e+00
1.542789e+02,0.000000e+00
1.552432e+02,0.000000e+00
1.562074e+02,0.000000e+00
1.571716e+02,0.000000e+00
1.581359e+02,0.000000e+00
1.591001e+02,0.000000e+00
1.600643e+02,0.000000e+00
1.610286e+02,0.000000e+00
1.619928e+02,0.000000e+00
1.629570e+02,0.000000e+00
1.639213e+02,0.000000e+00
1.648855e+02,0.000000e+00
1.658497e+02,0.000000e+00
1.668140e+02,0.000000e+00
1.677782e+02,0.000000e+00
1.687424e+02,0.000000e+00
1.697067e+02,0.000000e+00
1.706709e+02,0.000000e+00
1.716351e+02,0.000000e+00
1.725994e+02,0.000000e+00
1.735636e+02,0.000000e+00
1.745278e+02,0.000000e+00
1.754921e+02,0.000000e+00
1.764563e+02,0.000000e+00
1.774205e+02,0.000000e+00
1.783848e+02,0.000000e+00
1.793490e+02,0.000000e+00
1.803132e+02,0.000000e+00
1.812775e+02,0.000000e+00
1.822417e+02,0.000000e+00
1.832059e+02,0.000000e+00
1.841702e+02,0.000000e+00
1.851344e+02,0.000000e+00
1.860986e+02,0.000000e+00
1.870629e+02,0.000000e+00
1.880271e+02,0.000000e+00
1.889913e+02,0.000000e+00
1.899556e+02,0.000000e+00
1.909198e+02,0.000000e+00
1.918840e+02,0.000000e+00
1.928483e+02,0.000000e+00
1.938125e+02,0.000000e+00
1.947767e+02,0.000000e+00
1.957410e+02,0.000000e+00
1.967052e+02,0.000000e+00
1.976694e+02,0.000000e+00
1.986337e+02,0.000000e+00
1.995979e+02,1.046964e+04
2.005621e+02,1.047981e+04
2.015264e+02,1.049152e+04
2.024906e+02,1.050564e+04
2.034548e+02,1.052034e+04
2.044191e+02,1.053340e+04
2.053833e+02,1.054303e+04
2.063475e+02,1.054905e+04
2.073118e+02,1.055229e+04
2.082760e+02,1.055275e+04
2.092402e+02,1.055023e+04
2.102045e+02,1.054658e+04
2.111687e+02,1.054622e+04
2.121329e+02,1.055114e+04
2.130972e+02,1.056043e+04
2.140614e+02,1.057110e+04
2.150256e+02,1.057994e+04
2.159899e+02,1.058612e+04
2.169541e+02,1.059435e+04
2.179183e+02,1.060919e+04
2.188826e+02,1.062824e+04
2.198468e+02,1.064671e+04
2.208110e+02,1.066058e+04
2.217753e+02,1.066859e+04
2.227395e+02,1.067257e+04
2.237037e+02,1.067718e+04
2.246680e+02,1.068221e+04
2.256322e+02,1.068503e+04
2.265964e+02,1.068749e+04
2.275607e+02,1.069241e+04
2.285249e+02,1.070199e+04
2.294892e+02,1.071674e+04
2.304534e+02,1.073503e+04
2.314176e+02,1.075159e+04
2.323819e+02,1.076485e+04
2.333461e+02,1.077655e+04
2.343103e+02,1.078854e+04
2.352746e+02,1.080180e+04
2.362388e+02,1.081599e+04
2.372030e+02,1.082920e+04
2.381673e+02,1.083688e+04
2.391315e+02,1.083789e+04
2.400957e+02,1.083586e+04
2.410600e+02,1.083374e+04
2.420242e+02,1.083454e+04
2.429884e+02,1.084039e+04
2.439527e+02,1.085114e+04
2.449169e+02,1.086350e+04
2.458811e+02,1.087555e+04
2.468454e+02,1.088743e+04
2.478096e+02,1.089928e+04
2.487738e+02,1.091119e+04
2.497381e+02,1.092293e+04
2.507023e+02,1.093465e+04
2.516665e+02,1.094691e+04
2.526308e+02,1.095972e+04
2.535950e+02,1.096986e+04
2.545592e+02,1.097477e+04
2.555235e+02,1.097477e+04
2.564877e+02,1.097263e+04
2.574519e+02,1.097223e+04
2.584161e+02,1.097703e+04
2.593804e+02,1.098841e+04
2.603446e+02,1.100378e+04
2.613088e+02,1.102010e+04
2.622731e+02,1.103715e+04
2.632373e+02,1.105562e+04
2.642015e+02,1.107264e+04
2.651658e+02,1.108527e+04
2.661300e+02,1.109288e+04
2.670942e+02,1.109793e+04
2.680585e+02,1.110515e+04
2.690227e+02,1.111871e+04
2.699869e+02,1.113241e+04
2.709512e+02,1.114052e+04
2.719154e+02,1.114331e+04
2.728796e+02,1.114520e+04
2.738439e+02,1.115154e+04
2.748081e+02,1.116541e+04
2.757723e+02,1.118599e+04
2.767366e+02,1.120554e+04
2.777008e+02,1.121963e+04
2.786650e+02,1.122956e+04
2.796293e+02,1.123792e+04
2.805935e+02,1.124688e+04
2.815577e+02,1.125743e+04
2.825220e+02,1.126901e+04
2.834862e+02,1.127886e+04
2.844504e+02,1.128402e+04
2.854147e+02,1.128623e+04
2.863789e+02,1.128756e+04
2.873431e+02,1.129060e+04
2.883074e+02,1.129709e+04
2.892716e+02,1.130667e+04
2.902358e+02,1.131700e+04
2.912001e+02,1.132663e+04
2.921643e+02,1.133578e+04
2.931285e+02,1.134644e+04
2.940928e+02,1.135958e+04
2.950570e+02,1.137532e+04
2.960212e+02,1.139113e+04
2.969855e+02,1.140364e+04
2.979497e+02,1.141115e+04
2.989139e+02,1.141448e+04
2.998782e+02,1.141725e+04
3.008424e+02,1.142350e+04
3.018066e+02,1.143413e+04
3.027709e+02,1.144636e+04
3.037351e+02,1.145768e+04
3.046993e+02,1.146692e+04
3.056636e+02,1.147431e+04
3.066278e+02,1.148101e+04
3.075920e+02,1.148884e+04
3.085563e+02,1.149845e+04
3.095205e+02,1.151189e+04
3.104847e+02,1.152890e+04
3.114490e+02,1.154741e+04
3.124132e+02,1.156491e+04
3.133774e+02,1.157925e+04
3.143417e+02,1.158917e+04
3.153059e+02,1.159377e+04
3.162701e+02,1.159601e+04
3.172344e+02,1.159868e+04
3.181986e+02,1.160278e+04
3.191628e+02,1.160888e+04
3.201271e+02,1.161750e+04
3.210913e+02,1.162868e+04
3.220555e+02,1.164175e+04
3.230198e+02,1.165575e+04
3.239840e+02,1.167008e+04
3.249482e+02,1.168424e+04
3.259125e+02,1.169771e+04
3.268767e+02,1.171076e+04
3.278409e+02,1.172364e+04
3.288052e+02,1.173625e+04
3.297694e+02,1.174823e+04
3.307336e+02,1.175929e+04
3.316979e+02,1.176965e+04
3.326621e+02,1.177917e+04
3.336263e+02,1.178546e+04
3.345906e+02,1.178808e+04
3.355548e+02,1.179020e+04
3.365190e+02,1.179593e+04
3.374833e+02,1.180784e+04
3.384475e+02,1.182536e+04
3.394117e+02,1.184477e+04
3.403760e+02,1.186072e+04
3.413402e+02,1.187475e+04
3.423044e+02,1.189110e+04
3.432687e+02,1.191061e+04
3.442329e+02,1.193150e+04
3.451971e+02,1.195065e+04
3.461614e+02,1.196491e+04
3.471256e+02,1.197256e+04
3.480898e+02,1.197636e+04
3.490541e+02,1.197884e+04
3.500183e+02,1.198235e+04
3.509825e+02,1.198931e+04
3.519468e+02,1.200161e+04
3.529110e+02,1.201902e+04
3.538752e+02,1.203903e+04
3.548395e+02,1.205831e+04
3.558037e+02,1.207473e+04
3.567680e+02,1.208796e+04
3.577322e+02,1.209937e+04
3.586964e+02,1.211193e+04
3.596607e+02,1.212734e+04
3.606249e+02,1.214420e+04
3.615891e+02,1.215814e+04
3.625534e+02,1.216518e+04
3.635176e+02,1.216445e+04
3.644818e+02,1.215827e+04
3.654461e+02,1.215143e+04
3.664103e+02,1.215042e+04
3.673745e+02,1.215997e+04
3.683388e+02,1.217766e+04
3.693030e+02,1.219936e+04
3.702672e+02,1.222116e+04
3.712315e+02,1.224066e+04
3.721957e+02,1.225655e+04
3.731599e+02,1.226728e+04
3.741242e+02,1.227460e+04
3.750884e+02,1.228331e+04
3.760526e+02,1.229588e+04
3.770169e+02,1.231209e+04
3.779811e+02,1.232940e+04
3.789453e+02,1.234456e+04
3.799096e+02,1.235504e+04
3.808738e+02,1.236076e+04
3.818380e+02,1.236471e+04
3.828023e+02,1.237077e+04
3.837665e+02,1.238138e+04
3.847307e+02,1.239503e+04
3.856950e+02,1.241141e+04
3.866592e+02,1.242942e+04
3.876234e+02,1.244819e+04
3.885877e+02,1.246715e+04
3.895519e+02,1.248583e+04
3.905161e+02,1.250335e+04
3.914804e+02,1.251785e+04
3.924446e+02,1.252836e+04
3.934088e+02,1.253735e+04
3.943731e+02,1.254654e+04
3.953373e+02,1.255656e+04
3.963015e+02,1.256595e+04
3.972658e+02,1.257221e+04
3.982300e+02,1.257562e+04
3.991942e+02,1.258175e+04
4.001585e+02,1.259571e+04
4.011227e+02,1.261709e+04
4.020869e+02,1.263801e+04
4.030512e+02,1.265208e+04
4.040154e+02,1.266066e+04
4.049796e+02,1.267012e+04
4.059439e+02,1.268439e+04
4.069081e+02,1.270183e+04
4.078723e+02,1.271719e+04
4.088366e+02,1.272684e+04
4.098008e+02,1.273115e+04
4.107650e+02,1.273667e+04
4.117293e+02,1.274472e+04
4.126935e+02,1.275391e+04
4.136577e+02,1.276351e+04
4.146220e+02,1.277363e+04
4.155862e+02,1.278514e+04
4.165504e+02,1.279876e+04
4.175147e+02,1.281375e+04
4.184789e+02,1.282808e+04
4.194431e+02,1.284042e+04
4.204074e+02,1.285257e+04
4.213716e+02,1.286533e+04
4.223358e+02,1.287724e+04
4.233001e+02,1.288676e+04
4.242643e+02,1.289395e+04
4.252285e+02,1.290059e+04
4.261928e+02,1.290905e+04
4.271570e+02,1.292052e+04
4.281212e+02,1.293422e+04
4.290855e+02,1.294774e+04
4.300497e+02,1.296031e+04
4.310139e+02,1.297290e+04
4.319782e+02,1.298699e+04
4.329424e+02,1.300393e+04
4.339066e+02,1.302397e+04
4.348709e+02,1.304558e+04
4.358351e+02,1.306580e+04
4.367993e+02,1.308250e+04
4.377636e+02,1.309523e+04
4.387278e+02,1.310746e+04
4.396920e+02,1.312154e+04
4.406563e+02,1.313692e+04
4.416205e+02,1.315178e+04
4.425847e+02,1.316490e+04
4.435490e+02,1.317664e+04
4.445132e+02,1.318845e+04
4.454774e+02,1.320192e+04
4.464417e+02,1.321787e+04
4.474059e+02,1.323620e+04
4.483701e+02,1.325284e+04
4.493344e+02,1.326524e+04
4.502986e+02,1.327414e+04
4.512628e+02,1.328288e+04
4.522271e+02,1.329400e+04
4.531913e+02,1.330678e+04
4.541555e+02,1.331778e+04
4.551198e+02,1.332378e+04
4.560840e+02,1.332536e+04
4.570482e+02,1.332676e+04
4.580125e+02,1.333318e+04
4.589767e+02,1.334581e+04
4.599409e+02,1.336213e+04
4.609052e+02,1.337773e+04
4.618694e+02,1.338995e+04
4.628336e+02,1.339856e+04
4.637979e+02,1.340457e+04
4.647621e+02,1.340945e+04
4.657263e+02,1.341577e+04
4.666906e+02,1.342731e+04
4.676548e+02,1.344245e+04
4.686190e+02,1.345959e+04
4.695833e+02,1.347626e+04
4.705475e+02,1.349112e+04
4.715117e+02,1.350331e+04
4.724760e+02,1.351270e+04
4.734402e+02,1.352007e+04
4.744044e+02,1.352671e+04
4.753687e+02,1.353440e+04
4.763329e+02,1.354619e+04
4.772971e+02,1.355479e+04
4.782614e+02,1.355543e+04
4.792256e+02,1.355468e+04
4.801898e+02,1.355978e+04
4.811541e+02,1.357489e+04
4.821183e+02,1.359290e+04
4.830826e+02,1.360337e+04
4.840468e+02,1.360470e+04
4.850110e+02,1.360476e+04
4.859753e+02,1.361155e+04
4.869395e+02,1.362488e+04
4.879037e+02,1.362928e+04
4.888680e+02,1.361732e+04
4.898322e+02,1.360589e+04
4.907964e+02,1.360516e+04
4.917607e+02,1.361564e+04
4.927249e+02,1.363123e+04
4.936891e+02,1.364765e+04
4.946534e+02,1.366480e+04
4.956176e+02,1.367585e+04
4.965818e+02,1.367618e+04
4.975461e+02,1.367568e+04
4.985103e+02,1.368204e+04
4.994745e+02,1.369498e+04
5.004388e+02,1.370226e+04
5.014030e+02,1.370033e+04
5.023672e+02,1.369370e+04
5.033315e+02,1.368597e+04
5.042957e+02,1.367690e+04
5.052599e+02,1.366808e+04
5.062242e+02,1.366776e+04
5.071884e+02,1.369004e+04
5.081526e+02,1.370507e+04
5.091169e+02,1.370863e+04
5.100811e+02,1.370780e+04
5.110453e+02,1.370756e+04
5.120095e+02,1.371156e+04
5.129738e+02,1.371859e+04
5.139380e+02,1.372561e+04
5.149022e+02,1.373315e+04
5.158665e+02,1.374516e+04
5.168307e+02,1.376188e+04
5.177949e+02,1.377606e+04
5.187592e+02,1.377151e+04
5.197234e+02,1.374950e+04
5.206876e+02,1.373106e+04
5.216519e+02,1.372615e+04
5.226161e+02,1.373330e+04
5.235803e+02,1.374336e+04
5.245446e+02,1.374684e+04
5.255088e+02,1.374531e+04
5.264730e+02,1.375334e+04
5.274373e+02,1.377753e+04
5.284015e+02,1.379978e+04
5.293657e+02,1.379813e+04
5.303300e+02,1.377077e+04
5.312942e+02,1.374648e+04
5.322584e+02,1.374011e+04
5.332227e+02,1.374365e+04
5.341869e+02,1.374633e+04
5.351511e+02,1.374346e+04
5.361154e+02,1.373635e+04
5.370796e+02,1.372775e+04
5.380438e+02,1.371758e+04
5.390081e+02,1.371499e+04
5.399723e+02,1.373158e+04
5.409365e+02,1.375275e+04
5.419008e+02,1.375976e+04
5.428650e+02,1.373826e+04
5.438292e+02,1.371688e+04
5.447935e+02,1.371419e+04
5.457577e+02,1.372337e+04
5.467219e+02,1.373116e+04
5.476862e+02,1.373294e+04
5.486504e+02,1.372879e+04
5.496146e+02,1.371970e+04
5.505789e+02,1.370265e+04
5.515431e+02,1.368370e+04
5.525073e+02,1.366603e+04
5.534716e+02,1.365591e+04
5.544358e+02,1.365536e+04
5.554000e+02,1.366347e+04
5.563643e+02,1.367423e+04
5.573285e+02,1.368335e+04
5.582927e+02,1.368919e+04
5.592570e+02,1.369081e+04
5.602212e+02,1.368896e+04
5.611854e+02,1.368257e+04
5.621497e+02,1.367788e+04
5.631139e+02,1.367070e+04
5.640781e+02,1.366244e+04
5.650424e+02,1.366218e+04
5.660066e+02,1.366749e+04
5.669708e+02,1.366641e+04
5.679351e+02,1.364928e+04
5.688993e+02,1.362497e+04
5.698635e+02,1.360792e+04
5.708278e+02,1.360060e+04
5.717920e+02,1.360015e+04
5.727562e+02,1.360066e+04
5.737205e+02,1.359759e+04
5.746847e+02,1.359953e+04
5.756489e+02,1.360794e+04
5.766132e+02,1.361610e+04
5.775774e+02,1.362313e+04
5.785416e+02,1.362907e+04
5.795059e+02,1.363142e+04
5.804701e+02,1.362770e+04
5.814343e+02,1.361871e+04
5.823986e+02,1.360600e+04
5.833628e+02,1.358936e+04
5.843270e+02,1.357422e+04
5.852913e+02,1.356677e+04
5.862555e+02,1.357225e+04
5.872197e+02,1.357809e+04
5.881840e+02,1.358192e+04
5.891482e+02,1.358474e+04
5.901124e+02,1.358773e+04
5.910767e+02,1.359107e+04
5.920409e+02,1.359559e+04
5.930051e+02,1.360455e+04
5.939694e+02,1.361492e+04
5.949336e+02,1.361457e+04
5.958978e+02,1.359837e+04
5.968621e+02,1.357223e+04
5.978263e+02,1.355068e+04
5.987905e+02,1.353943e+04
5.997548e+02,1.353058e+04
6.007190e+02,1.352515e+04
6.016832e+02,1.352396e+04
6.026475e+02,1.352525e+04
6.036117e+02,1.352510e+04
6.045759e+02,1.352493e+04
6.055402e+02,1.352805e+04
6.065044e+02,1.353196e+04
6.074686e+02,1.353027e+04
6.084329e+02,1.352157e+04
6.093971e+02,1.350922e+04
6.103613e+02,1.350321e+04
6.113256e+02,1.351743e+04
6.122899e+02,1.352449e+04
6.132541e+02,1.351368e+04
6.142183e+02,1.349274e+04
6.151826e+02,1.347602e+04
6.161468e+02,1.347697e+04
6.171110e+02,1.348653e+04
6.180753e+02,1.349232e+04
6.190395e+02,1.349312e+04
6.200037e+02,1.348818e+04
6.209680e+02,1.347487e+04
6.219322e+02,1.345576e+04
6.228964e+02,1.344608e+04
6.238607e+02,1.344931e+04
6.248249e+02,1.345663e+04
6.257891e+02,1.346645e+04
6.267534e+02,1.347292e+04
6.277176e+02,1.346894e+04
6.286818e+02,1.345013e+04
6.296461e+02,1.342762e+04
6.306103e+02,1.341182e+04
6.315745e+02,1.340348e+04
6.325388e+02,1.339885e+04
6.335030e+02,1.339264e+04
6.344672e+02,1.338262e+04
6.354315e+02,1.337537e+04
6.363957e+02,1.336779e+04
6.373599e+02,1.336009e+04
6.383242e+02,1.335722e+04
6.392884e+02,1.336008e+04
6.402526e+02,1.336102e+04
6.412169e+02,1.335815e+04
6.421811e+02,1.335106e+04
6.431453e+02,1.333907e+04
6.441096e+02,1.332218e+04
6.450738e+02,1.330158e+04
6.460380e+02,1.327692e+04
6.470023e+02,1.325069e+04
6.479665e+02,1.324079e+04
6.489307e+02,1.325012e+04
6.498950e+02,1.326438e+04
6.508592e+02,1.327192e+04
6.518234e+02,1.327105e+04
6.527877e+02,1.326604e+04
6.537519e+02,1.325767e+04
6.547161e+02,1.324725e+04
6.556804e+02,1.323729e+04
6.566446e+02,1.322809e+04
6.576088e+02,1.321544e+04
6.585731e+02,1.319022e+04
6.595373e+02,1.315582e+04
6.605015e+02,1.313293e+04
6.614658e+02,1.312485e+04
6.624300e+02,1.312554e+04
6.633942e+02,1.313058e+04
6.643585e+02,1.314405e+04
6.653227e+02,1.314879e+04
6.662869e+02,1.313353e+04
6.672512e+02,1.311445e+04
6.682154e+02,1.310079e+04
6.691796e+02,1.309248e+04
6.701439e+02,1.308798e+04
6.711081e+02,1.309555e+04
6.720723e+02,1.310552e+04
6.730366e+02,1.309582e+04
6.740008e+02,1.306359e+04
6.749650e+02,1.302438e+04
6.759293e+02,1.299598e+04
6.768935e+02,1.298318e+04
6.778577e+02,1.297320e+04
6.788220e+02,1.297204e+04
6.797862e+02,1.297654e+04
6.807504e+02,1.298051e+04
6.817147e+02,1.298055e+04
6.826789e+02,1.297564e+04
6.836431e+02,1.295593e+04
6.846074e+02,1.293050e+04
6.855716e+02,1.291607e+04
6.865358e+02,1.291727e+04
6.875001e+02,1.291982e+04
6.884643e+02,1.290231e+04
6.894285e+02,1.286555e+04
6.903928e+02,1.284017e+04
6.913570e+02,1.283018e+04
6.923212e+02,1.282772e+04
6.932855e+02,1.282685e+04
6.942497e+02,1.283538e+04
6.952139e+02,1.284081e+04
6.961782e+02,1.283516e+04
6.971424e+02,1.282848e+04
6.981066e+02,1.282646e+04
6.990709e+02,1.282545e+04
7.000351e+02,1.281789e+04
7.009993e+02,1.280197e+04
7.019636e+02,1.278470e+04
7.029278e+02,1.277559e+04
7.038920e+02,1.277564e+04
7.048563e+02,1.277386e+04
7.058205e+02,1.275832e+04
7.067847e+02,1.272796e+04
7.077490e+02,1.270572e+04
7.087132e+02,1.270318e+04
7.096774e+02,1.271116e+04
7.106417e+02,1.271196e+04
7.116059e+02,1.270160e+04
7.125701e+02,1.268865e+04
7.135344e+02,1.267624e+04
7.144986e+02,1.266638e+04
7.154628e+02,1.265760e+04
7.164271e+02,1.264857e+04
7.173913e+02,1.264135e+04
7.183555e+02,1.264389e+04
7.193198e+02,1.265161e+04
7.202840e+02,1.264049e+04
7.212482e+02,1.260573e+04
7.222125e+02,1.256831e+04
7.231767e+02,1.254813e+04
7.241409e+02,1.254695e+04
7.251052e+02,1.254775e+04
7.260694e+02,1.255500e+04
7.270336e+02,1.255938e+04
7.279979e+02,1.255795e+04
7.289621e+02,1.254994e+04
7.299263e+02,1.254009e+04
7.308906e+02,1.252673e+04
7.318548e+02,1.251208e+04
7.328190e+02,1.250062e+04
7.337833e+02,1.249273e+04
7.347475e+02,1.248522e+04
7.357117e+02,1.247904e+04
7.366760e+02,1.247573e+04
7.376402e+02,1.246654e+04
7.386044e+02,1.244904e+04
7.395687e+02,1.243317e+04
7.405329e+02,1.242532e+04
7.414971e+02,1.242722e+04
7.424614e+02,1.242611e+04
7.434256e+02,1.242645e+04
7.443898e+02,1.243278e+04
7.453541e+02,1.244500e+04
7.463183e+02,1.245573e+04
7.472825e+02,1.245544e+04
7.482468e+02,1.243756e+04
7.492110e+02,1.240991e+04
7.501752e+02,1.238385e+04
7.511395e+02,1.236468e+04
7.521037e+02,1.235053e+04
7.530679e+02,1.233519e+04
7.540322e+02,1.231600e+04
7.549964e+02,1.229529e+04
7.559606e+02,1.227313e+04
7.569249e+02,1.225985e+04
7.578891e+02,1.226569e+04
7.588533e+02,1.229360e+04
7.598176e+02,1.231047e+04
7.607818e+02,1.229386e+04
7.617460e+02,1.226902e+04
7.627103e+02,1.224998e+04
7.636745e+02,1.223929e+04
7.646387e+02,1.222810e+04
7.656030e+02,1.220472e+04
7.665672e+02,1.218466e+04
7.675314e+02,1.217762e+04
7.684957e+02,1.217444e+04
7.694599e+02,1.216548e+04
7.704241e+02,1.215130e+04
7.713884e+02,1.213801e+04
7.723526e+02,1.213235e+04
7.733168e+02,1.213775e+04
7.742811e+02,1.214689e+04
7.752453e+02,1.214979e+04
7.762095e+02,1.214396e+04
7.771738e+02,1.213901e+04
7.781380e+02,1.213387e+04
7.791022e+02,1.212128e+04
7.800665e+02,1.210130e+04
7.810307e+02,1.207859e+04
7.819949e+02,1.205924e+04
7.829592e+02,1.205677e+04
7.839234e+02,1.205370e+04
7.848876e+02,1.203170e+04
7.858519e+02,1.200124e+04
7.868161e+02,1.198237e+04
7.877803e+02,1.198543e+04
7.887446e+02,1.199696e+04
7.897088e+02,1.200343e+04
7.906730e+02,1.200891e+04
7.916373e+02,1.201230e+04
7.926015e+02,1.200683e+04
7.935657e+02,1.198909e+04
7.945300e+02,1.196688e+04
7.954942e+02,1.194398e+04
7.964584e+02,1.191997e+04
7.974227e+02,1.190229e+04
7.983869e+02,1.189754e+04
7.993511e+02,1.189962e+04
8.003154e+02,1.190367e+04
8.012796e+02,1.190121e+04
8.022438e+02,1.189351e+04
8.032081e+02,1.188683e+04
8.041723e+02,1.188642e+04
8.051365e+02,1.189186e+04
8.061008e+02,1.189489e+04
8.070650e+02,1.188607e+04
8.080292e+02,1.186747e+04
8.089935e+02,1.184622e+04
8.099577e+02,1.182692e+04
8.109219e+02,1.181368e+04
8.118862e+02,1.181174e+04
8.128504e+02,1.182052e+04
8.138146e+02,1.182400e+04
8.147789e+02,1.182002e+04
8.157431e+02,1.180753e+04
8.167073e+02,1.178638e+04
8.176716e+02,1.175971e+04
8.186358e+02,1.174363e+04
8.196000e+02,1.174112e+04
8.205643e+02,1.174504e+04
8.215285e+02,1.175263e+04
8.224927e+02,1.176125e+04
8.234570e+02,1.175832e+04
8.244212e+02,1.172551e+04
8.253854e+02,1.169428e+04
8.263497e+02,1.168446e+04
8.273139e+02,1.168806e+04
8.282781e+02,1.168845e+04
8.292424e+02,1.168046e+04
8.302066e+02,1.167101e+04
8.311708e+02,1.166669e+04
8.321351e+02,1.166612e+04
8.330993e+02,1.166103e+04
8.340635e+02,1.164259e+04
8.350278e+02,1.161742e+04
8.359920e+02,1.161183e+04
8.369562e+02,1.163054e+04
8.379205e+02,1.164652e+04
8.388847e+02,1.165165e+04
8.398489e+02,1.164863e+04
8.408132e+02,1.164233e+04
8.417774e+02,1.163119e+04
8.427416e+02,1.161490e+04
8.437059e+02,1.158838e+04
8.446701e+02,1.155987e+04
8.456343e+02,1.153886e+04
8.465986e+02,1.152721e+04
8.475628e+02,1.151891e+04
8.485270e+02,1.151546e+04
8.494913e+02,1.151215e+04
8.504555e+02,1.150552e+04
8.514197e+02,1.149603e+04
8.523840e+02,1.148667e+04
8.533482e+02,1.147571e+04
8.543124e+02,1.146378e+04
8.552767e+02,1.145475e+04
8.562409e+02,1.144823e+04
8.572051e+02,1.144097e+04
8.581694e+02,1.143406e+04
8.591336e+02,1.142853e+04
8.600978e+02,1.141505e+04
8.610621e+02,1.139289e+04
8.620263e+02,1.137471e+04
8.629905e+02,1.136701e+04
8.639548e+02,1.136621e+04
8.649190e+02,1.136384e+04
8.658832e+02,1.136608e+04
8.668475e+02,1.136955e+04
8.678117e+02,1.137459e+04
8.687759e+02,1.137870e+04
8.697402e+02,1.137575e+04
8.707044e+02,1.134446e+04
8.716686e+02,1.131614e+04
8.726329e+02,1.131369e+04
8.735971e+02,1.132850e+04
8.745613e+02,1.133990e+04
8.755256e+02,1.134800e+04
8.764898e+02,1.134911e+04
8.774540e+02,1.132912e+04
8.784183e+02,1.129819e+04
8.793825e+02,1.127632e+04
8.803467e+02,1.127178e+04
8.813110e+02,1.127356e+04
8.822752e+02,1.127127e+04
8.832394e+02,1.126769e+04
8.842037e+02,1.126346e+04
8.851679e+02,1.125548e+04
8.861321e+02,1.124571e+04
8.870964e+02,1.124161e+04
8.880606e+02,1.124308e+04
8.890248e+02,1.123392e+04
8.899891e+02,1.121574e+04
8.909533e+02,1.119389e+04
8.919175e+02,1.116859e+04
8.928818e+02,1.113545e+04
8.938460e+02,1.111769e+04
8.948102e+02,1.112009e+04
8.957745e+02,1.112711e+04
8.967387e+02,1.113351e+04
8.977029e+02,1.113680e+04
8.986672e+02,1.113583e+04
8.996314e+02,1.113992e+04
9.005956e+02,1.114258e+04
9.015599e+02,1.113537e+04
9.025241e+02,1.112088e+04
9.034883e+02,1.111013e+04
9.044526e+02,1.111271e+04
9.054168e+02,1.110938e+04
9.063810e+02,1.109309e+04
9.073453e+02,1.107411e+04
9.083095e+02,1.106082e+04
9.092737e+02,1.105361e+04
9.102380e+02,1.104624e+04
9.112022e+02,1.103137e+04
9.121664e+02,1.101175e+04
9.131307e+02,1.099793e+04
9.140949e+02,1.099694e+04
9.150591e+02,1.100471e+04
9.160234e+02,1.100738e+04
9.169876e+02,1.100008e+04
9.179518e+02,1.099217e+04
9.189161e+02,1.098613e+04
9.198803e+02,1.097586e+04
9.208445e+02,1.095581e+04
9.218088e+02,1.092710e+04
9.227730e+02,1.091200e+04
9.237372e+02,1.091255e+04
9.247015e+02,1.091469e+04
9.256657e+02,1.090925e+04
9.266299e+02,1.089503e+04
9.275942e+02,1.088569e+04
9.285584e+02,1.088346e+04
9.295226e+02,1.087868e+04
9.304869e+02,1.086953e+04
9.314511e+02,1.085823e+04
9.324153e+02,1.084630e+04
9.333796e+02,1.082972e+04
9.343438e+02,1.081650e+04
9.353080e+02,1.080753e+04
9.362723e+02,1.079822e+04
9.372365e+02,1.078696e+04
9.382007e+02,1.077944e+04
9.391650e+02,1.077527e+04
9.401292e+02,1.077411e+04
9.410934e+02,1.077451e+04
9.420577e+02,1.077115e+04
9.430219e+02,1.076131e+04
9.439861e+02,1.075303e+04
9.449504e+02,1.076297e+04
9.459146e+02,1.078239e+04
9.468788e+02,1.079191e+04
9.478431e+02,1.078341e+04
9.488073e+02,1.076120e+04
9.497715e+02,1.072644e+04
9.507358e+02,1.068956e+04
9.517000e+02,1.067668e+04
9.526642e+02,1.068898e+04
9.536285e+02,1.069853e+04
9.545927e+02,1.068245e+04
9.555569e+02,1.065011e+04
9.565212e+02,1.063414e+04
9.574854e+02,1.063851e+04
9.584496e+02,1.064873e+04
9.594139e+02,1.065543e+04
9.603781e+02,1.065658e+04
9.613423e+02,1.065577e+04
9.623066e+02,1.065497e+04
9.632708e+02,1.064455e+04
9.642350e+02,1.062084e+04
9.651993e+02,1.059553e+04
9.661635e+02,1.058172e+04
9.671277e+02,1.058277e+04
9.680920e+02,1.057783e+04
9.690562e+02,1.056334e+04
9.700204e+02,1.054473e+04
9.709847e+02,1.052873e+04
9.719489e+02,1.051853e+04
9.729131e+02,1.051167e+04
9.738774e+02,1.051302e+04
9.748416e+02,1.051803e+04
9.758058e+02,1.051878e+04
9.767701e+02,1.051430e+04
9.777343e+02,1.051616e+04
9.786985e+02,1.054374e+04
9.796628e+02,1.055580e+04
9.806270e+02,1.052983e+04
9.815912e+02,1.048231e+04
9.825555e+02,1.044156e+04
9.835197e+02,1.042018e+04
9.844839e+02,1.040888e+04
9.854482e+02,1.041421e+04
9.864124e+02,1.042429e+04
9.873766e+02,1.041999e+04
9.883409e+02,1.039520e+04
9.893051e+02,1.037555e+04
9.902693e+02,1.038218e+04
9.912336e+02,1.039975e+04
9.921978e+02,1.040726e+04
9.931620e+02,1.040049e+04
9.941263e+02,1.039183e+04
9.950905e+02,1.039482e+04
9.960547e+02,1.040029e+04
9.970190e+02,1.039641e+04
9.979832e+02,1.038280e+04
9.989474e+02,1.036387e+04
9.999117e+02,1.034596e+04
1.000876e+03,1.032816e+04
1.001840e+03,1.030288e+04
1.002804e+03,1.027647e+04
1.003769e+03,1.026325e+04
1.004733e+03,1.026660e+04
1.005697e+03,1.027658e+04
1.006661e+03,1.028347e+04
1.007626e+03,1.028744e+04
1.008590e+03,1.028430e+04
1.009554e+03,1.027069e+04
1.010518e+03,1.025167e+04
1.011482e+03,1.023470e+04
1.012447e+03,1.021957e+04
1.013411e+03,1.020738e+04
1.014375e+03,1.020341e+04
1.015339e+03,1.020104e+04
1.016304e+03,1.019116e+04
1.017268e+03,1.017514e+04
1.018232e+03,1.016826e+04
1.019196e+03,1.017047e+04
1.020161e+03,1.017087e+04
1.021125e+03,1.016675e+04
1.022089e+03,1.016257e+04
1.023053e+03,1.016353e+04
1.024018e+03,1.016792e+04
1.024982e+03,1.016577e+04
1.025946e+03,1.015126e+04
1.026910e+03,1.012908e+04
1.027875e+03,1.011009e+04
1.028839e+03,1.009788e+04
1.029803e+03,1.009836e+04
1.030767e+03,1.011988e+04
1.031731e+03,1.014026e+04
1.032696e+03,1.014101e+04
1.033660e+03,1.012029e+04
1.034624e+03,1.009966e+04
1.035588e+03,1.007853e+04
1.036552e+03,1.006625e+04
1.037517e+03,1.006771e+04
1.038481e+03,1.007579e+04
1.039445e+03,1.007429e+04
1.040409e+03,1.005895e+04
1.041374e+03,1.004172e+04
1.042338e+03,1.002317e+04
1.043302e+03,1.000894e+04
1.044266e+03,1.000466e+04
1.045231e+03,1.002182e+04
1.046195e+03,1.002527e+04
1.047159e+03,1.000946e+04
1.048123e+03,9.988808e+03
1.049088e+03,9.971969e+03
1.050052e+03,9.962377e+03
1.051016e+03,9.955224e+03
1.051980e+03,9.946283e+03
1.052945e+03,9.941725e+03
1.053909e+03,9.941562e+03
1.054873e+03,9.940364e+03
1.055837e+03,9.935290e+03
1.056802e+03,9.931989e+03
1.057766e+03,9.924788e+03
1.058730e+03,9.910144e+03
1.059694e+03,9.894491e+03
1.060658e+03,9.884624e+03
1.061623e+03,9.890865e+03
1.062587e+03,9.889636e+03
1.063551e+03,9.870655e+03
1.064515e+03,9.850348e+03
1.065479e+03,9.837669e+03
1.066444e+03,9.835500e+03
1.067408e+03,9.837996e+03
1.068372e+03,9.848084e+03
1.069336e+03,9.858624e+03
1.070301e+03,9.863149e+03
1.071265e+03,9.859726e+03
1.072229e+03,9.851419e+03
1.073193e+03,9.831889e+03
1.074158e+03,9.815340e+03
1.075122e+03,9.813919e+03
1.076086e+03,9.814050e+03
1.077050e+03,9.799780e+03
1.078015e+03,9.764880e+03
1.078979e+03,9.740714e+03
1.079943e+03,9.733615e+03
1.080907e+03,9.736085e+03
1.081872e+03,9.742339e+03
1.082836e+03,9.749172e+03
1.083800e+03,9.752221e+03
1.084764e+03,9.753010e+03
1.085729e+03,9.752541e+03
1.086693e+03,9.748369e+03
1.087657e+03,9.741200e+03
1.088621e+03,9.735262e+03
1.089585e+03,9.735778e+03
1.090550e+03,9.727611e+03
1.091514e+03,9.707678e+03
1.092478e+03,9.684631e+03
1.093442e+03,9.665044e+03
1.094406e+03,9.649682e+03
1.095371e+03,9.641318e+03
1.096335e+03,9.640896e+03
1.097299e+03,9.643482e+03
1.098263e+03,9.649019e+03
1.099228e+03,9.655638e+03
1.100192e+03,9.653707e+03
1.101156e+03,9.633030e+03
1.102120e+03,9.610887e+03
1.103085e+03,9.592382e+03
1.104049e+03,9.578375e+03
1.105013e+03,9.569878e+03
1.105977e+03,9.576965e+03
1.106942e+03,9.578300e+03
1.107906e+03,9.566801e+03
1.108870e+03,9.551614e+03
1.109834e+03,9.540599e+03
1.110799e+03,9.535525e+03
1.111763e+03,9.530571e+03
1.112727e+03,9.526052e+03
1.113691e+03,9.523559e+03
1.114656e+03,9.522743e+03
1.115620e+03,9.523293e+03
1.116584e+03,9.523741e+03
1.117548e+03,9.518432e+03
1.118512e+03,9.511704e+03
1.119477e+03,9.506476e+03
1.120441e+03,9.500754e+03
1.121405e+03,9.492860e+03
1.122369e+03,9.486132e+03
1.123334e+03,9.472891e+03
1.124298e+03,9.449120e+03
1.125262e+03,9.425575e+03
1.126226e+03,9.409993e+03
1.127191e+03,9.403654e+03
1.128155e+03,9.399963e+03
1.129119e+03,9.393140e+03
1.130083e+03,9.392700e+03
1.131047e+03,9.407365e+03
1.132012e+03,9.427755e+03
1.132976e+03,9.429236e+03
1.133940e+03,9.401469e+03
1.134904e+03,9.374232e+03
1.135869e+03,9.353314e+03
1.136833e+03,9.338566e+03
1.137797e+03,9.330184e+03
1.138761e+03,9.333705e+03
1.139726e+03,9.334063e+03
1.140690e+03,9.328548e+03
1.141654e+03,9.321013e+03
1.142618e+03,9.310597e+03
1.143583e+03,9.299619e+03
1.144547e+03,9.305679e+03
1.145511e+03,9.336944e+03
1.146475e+03,9.350764e+03
1.147439e+03,9.328939e+03
1.148404e+03,9.293128e+03
1.149368e+03,9.280041e+03
1.150332e+03,9.291087e+03
1.151296e+03,9.299209e+03
1.152261e+03,9.297891e+03
1.153225e+03,9.286452e+03
1.154189e+03,9.269355e+03
1.155153e+03,9.251065e+03
1.156118e+03,9.237937e+03
1.157082e+03,9.233044e+03
1.158046e+03,9.232601e+03
1.159010e+03,9.231934e+03
1.159974e+03,9.230527e+03
1.160939e+03,9.227588e+03
1.161903e+03,9.221435e+03
1.162867e+03,9.213288e+03
1.163831e+03,9.202776e+03
1.164796e+03,9.191735e+03
1.165760e+03,9.187888e+03
1.166724e+03,9.187957e+03
1.167688e+03,9.177970e+03
1.168653e+03,9.158771e+03
1.169617e+03,9.138703e+03
1.170581e+03,9.123979e+03
1.171545e+03,9.112792e+03
1.172510e+03,9.100167e+03
1.173474e+03,9.089203e+03
1.174438e+03,9.086146e+03
1.175402e+03,9.092519e+03
1.176366e+03,9.097855e+03
1.177331e+03,9.089532e+03
1.178295e+03,9.078823e+03
1.179259e+03,9.080246e+03
1.180223e+03,9.091324e+03
1.181188e+03,9.098626e+03
1.182152e+03,9.095997e+03
1.183116e+03,9.086563e+03
1.184080e+03,9.071670e+03
1.185045e+03,9.055553e+03
1.186009e+03,9.042989e+03
1.186973e+03,9.040502e+03
1.187937e+03,9.037188e+03
1.188901e+03,9.022524e+03
1.189866e+03,9.007215e+03
1.190830e+03,8.999465e+03
1.191794e+03,8.998472e+03
1.192758e+03,8.995462e+03
1.193723e+03,8.993759e+03
1.194687e+03,8.991576e+03
1.195651e+03,8.982408e+03
1.196615e+03,8.970436e+03
1.197580e+03,8.966757e+03
1.198544e+03,8.977056e+03
1.199508e+03,8.974000e+03
1.200472e+03,8.955939e+03
1.201437e+03,8.932969e+03
1.202401e+03,8.913215e+03
1.203365e+03,8.898267e+03
1.204329e+03,8.893601e+03
1.205293e+03,8.902928e+03
1.206258e+03,8.909487e+03
1.207222e+03,8.902911e+03
1.208186e+03,8.888191e+03
1.209150e+03,8.884337e+03
1.210115e+03,8.890069e+03
1.211079e+03,8.893384e+03
1.212043e+03,8.893795e+03
1.213007e+03,8.887829e+03
1.213972e+03,8.871755e+03
1.214936e+03,8.849776e+03
1.215900e+03,8.833521e+03
1.216864e+03,8.823233e+03
1.217828e+03,8.812783e+03
1.218793e+03,8.797131e+03
1.219757e+03,8.782250e+03
1.220721e+03,8.777418e+03
1.221685e+03,8.782109e+03
1.222650e+03,8.794137e+03
1.223614e+03,8.810732e+03
1.224578e+03,8.819366e+03
1.225542e+03,8.808372e+03
1.226507e+03,8.790088e+03
1.227471e+03,8.774650e+03
1.228435e+03,8.761172e+03
1.229399e+03,8.749188e+03
1.230364e+03,8.746997e+03
1.231328e+03,8.741631e+03
1.232292e+03,8.726621e+03
1.233256e+03,8.710715e+03
1.234220e+03,8.700291e+03
1.235185e+03,8.699790e+03
1.236149e+03,8.701523e+03
1.237113e+03,8.706322e+03
1.238077e+03,8.712942e+03
1.239042e+03,8.714504e+03
1.240006e+03,8.708191e+03
1.240970e+03,8.702957e+03
1.241934e+03,8.701489e+03
1.242899e+03,8.695761e+03
1.243863e+03,8.686946e+03
1.244827e+03,8.674757e+03
1.245791e+03,8.655528e+03
1.246755e+03,8.626222e+03
1.247720e+03,8.609432e+03
1.248684e+03,8.608970e+03
1.249648e+03,8.609621e+03
1.250612e+03,8.599069e+03
1.251577e+03,8.581383e+03
1.252541e+03,8.574122e+03
1.253505e+03,8.575563e+03
1.254469e+03,8.581075e+03
1.255434e+03,8.591612e+03
1.256398e+03,8.601767e+03
1.257362e+03,8.599838e+03
1.258326e+03,8.590389e+03
1.259291e+03,8.586355e+03
1.260255e+03,8.585869e+03
1.261219e+03,8.578913e+03
1.262183e+03,8.559994e+03
1.263147e+03,8.541637e+03
1.264112e+03,8.532968e+03
1.265076e+03,8.529260e+03
1.266040e+03,8.522239e+03
1.267004e+03,8.509981e+03
1.267969e+03,8.496322e+03
1.268933e+03,8.477620e+03
1.269897e+03,8.469487e+03
1.270861e+03,8.481843e+03
1.271826e+03,8.505315e+03
1.272790e+03,8.511765e+03
1.273754e+03,8.493691e+03
1.274718e+03,8.477249e+03
1.275682e+03,8.471937e+03
1.276647e+03,8.472107e+03
1.277611e+03,8.468736e+03
1.278575e+03,8.460825e+03
1.279539e+03,8.446027e+03
1.280504e+03,8.427473e+03
1.281468e+03,8.413808e+03
1.282432e+03,8.408260e+03
1.283396e+03,8.408033e+03
1.284361e+03,8.405347e+03
1.285325e+03,8.399845e+03
1.286289e+03,8.399431e+03
1.287253e+03,8.405933e+03
1.288218e+03,8.409225e+03
1.289182e+03,8.399639e+03
1.290146e+03,8.384294e+03
1.291110e+03,8.370989e+03
1.292074e+03,8.361267e+03
1.293039e+03,8.354104e+03
1.294003e+03,8.351018e+03
1.294967e+03,8.344774e+03
1.295931e+03,8.333499e+03
1.296896e+03,8.321666e+03
1.297860e+03,8.311963e+03
1.298824e+03,8.303104e+03
1.299788e+03,8.296270e+03
1.300753e+03,8.289340e+03
1.301717e+03,8.285396e+03
1.302681e+03,8.288261e+03
1.303645e+03,8.294158e+03
1.304609e+03,8.291196e+03
1.305574e+03,8.274275e+03
1.306538e+03,8.261008e+03
1.307502e+03,8.258268e+03
1.308466e+03,8.260055e+03
1.309431e+03,8.257330e+03
1.310395e+03,8.252322e+03
1.311359e+03,8.253440e+03
1.312323e+03,8.255565e+03
1.313288e+03,8.248986e+03
1.314252e+03,8.230479e+03
1.315216e+03,8.215514e+03
1.316180e+03,8.218447e+03
1.317145e+03,8.230283e+03
1.318109e+03,8.238774e+03
1.319073e+03,8.239134e+03
1.320037e+03,8.234857e+03
1.321001e+03,8.225281e+03
1.321966e+03,8.214650e+03
1.322930e+03,8.211098e+03
1.323894e+03,8.210709e+03
1.324858e+03,8.201203e+03
1.325823e+03,8.173843e+03
1.326787e+03,8.156758e+03
1.327751e+03,8.150399e+03
1.328715e+03,8.147230e+03
1.329680e+03,8.143405e+03
1.330644e+03,8.140531e+03
1.331608e+03,8.143948e+03
1.332572e+03,8.152747e+03
1.333536e+03,8.167689e+03
1.334501e+03,8.189252e+03
1.335465e+03,8.201732e+03
1.336429e+03,8.182461e+03
1.337393e+03,8.152008e+03
1.338358e+03,8.145126e+03
1.339322e+03,8.156147e+03
1.340286e+03,8.152913e+03
1.341250e+03,8.100273e+03
1.342215e+03,8.052857e+03
1.343179e+03,8.046311e+03
1.344143e+03,8.058372e+03
1.345107e+03,8.058363e+03
1.346072e+03,8.035687e+03
1.347036e+03,8.026053e+03
1.348000e+03,8.036120e+03
1.348964e+03,8.041474e+03
1.349928e+03,8.033505e+03
1.350893e+03,8.020668e+03
1.351857e+03,8.018594e+03
1.352821e+03,8.024908e+03
1.353785e+03,8.023339e+03
1.354750e+03,8.010794e+03
1.355714e+03,7.993135e+03
1.356678e+03,7.978878e+03
1.357642e+03,7.967625e+03
1.358607e+03,7.952055e+03
1.359571e+03,7.934140e+03
1.360535e+03,7.920706e+03
1.361499e+03,7.916210e+03
1.362464e+03,7.915211e+03
1.363428e+03,7.921100e+03
1.364392e+03,7.927322e+03
1.365356e+03,7.922206e+03
1.366320e+03,7.904010e+03
1.367285e+03,7.894322e+03
1.368249e+03,7.902568e+03
1.369213e+03,7.905350e+03
1.370177e+03,7.897255e+03
1.371142e+03,7.885164e+03
1.372106e+03,7.879005e+03
1.373070e+03,7.877141e+03
1.374034e+03,7.862767e+03
1.374999e+03,7.839981e+03
1.375963e+03,7.830577e+03
1.376927e+03,7.850961e+03
1.377891e+03,7.874876e+03
1.378855e+03,7.873368e+03
1.379820e+03,7.857330e+03
1.380784e+03,7.839015e+03
1.381748e+03,7.822712e+03
1.382712e+03,7.811687e+03
1.383677e+03,7.800286e+03
1.384641e+03,7.794334e+03
1.385605e+03,7.799961e+03
1.386569e+03,7.808103e+03
1.387534e+03,7.805665e+03
1.388498e+03,7.791255e+03
1.389462e+03,7.778130e+03
1.390426e+03,7.764421e+03
1.391391e+03,7.752688e+03
1.392355e+03,7.747619e+03
1.393319e+03,7.747528e+03
1.394283e+03,7.746125e+03
1.395247e+03,7.743276e+03
1.396212e+03,7.741546e+03
1.397176e+03,7.741779e+03
1.398140e+03,7.740467e+03
1.399104e+03,7.731076e+03
1.400069e+03,7.720454e+03
1.401033e+03,7.716159e+03
1.401997e+03,7.714378e+03
1.402961e+03,7.703362e+03
1.403926e+03,7.671073e+03
1.404890e+03,7.656943e+03
1.405854e+03,7.670803e+03
1.406818e+03,7.687459e+03
1.407782e+03,7.688366e+03
1.408747e+03,7.679655e+03
1.409711e+03,7.673466e+03
1.410675e+03,7.666375e+03
1.411639e+03,7.663562e+03
1.412604e+03,7.668732e+03
1.413568e+03,7.670280e+03
1.414532e+03,7.659620e+03
1.415496e+03,7.645018e+03
1.416461e+03,7.626802e+03
1.417425e+03,7.605615e+03
1.418389e+03,7.590303e+03
1.419353e+03,7.587346e+03
1.420318e+03,7.584014e+03
1.421282e+03,7.581531e+03
1.422246e+03,7.582275e+03
1.423210e+03,7.589405e+03
1.424174e+03,7.601586e+03
1.425139e+03,7.599984e+03
1.426103e+03,7.584159e+03
1.427067e+03,7.567880e+03
1.428031e+03,7.556120e+03
1.428996e+03,7.547757e+03
1.429960e+03,7.538889e+03
1.430924e+03,7.531962e+03
1.431888e+03,7.533800e+03
1.432853e+03,7.541876e+03
1.433817e+03,7.541585e+03
1.434781e+03,7.525300e+03
1.435745e+03,7.509769e+03
1.436709e+03,7.492946e+03
1.437674e+03,7.475570e+03
1.438638e+03,7.459368e+03
1.439602e+03,7.447445e+03
1.440566e+03,7.453614e+03
1.441531e+03,7.474907e+03
1.442495e+03,7.488654e+03
1.443459e+03,7.484208e+03
1.444423e+03,7.475157e+03
1.445388e+03,7.477362e+03
1.446352e+03,7.477651e+03
1.447316e+03,7.461372e+03
1.448280e+03,7.433775e+03
1.449245e+03,7.413404e+03
1.450209e+03,7.405680e+03
1.451173e+03,7.403741e+03
1.452137e+03,7.405624e+03
1.453101e+03,7.405702e+03
1.454066e+03,7.400399e+03
1.455030e+03,7.391160e+03
1.455994e+03,7.386710e+03
1.456958e+03,7.386549e+03
1.457923e+03,7.389639e+03
1.458887e+03,7.395351e+03
1.459851e+03,7.395108e+03
1.460815e+03,7.371648e+03
1.461780e+03,7.344416e+03
1.462744e+03,7.340779e+03
1.463708e+03,7.358405e+03
1.464672e+03,7.359744e+03
1.465636e+03,7.333213e+03
1.466601e+03,7.316430e+03
1.467565e+03,7.317066e+03
1.468529e+03,7.319961e+03
1.469493e+03,7.306189e+03
1.470458e+03,7.279722e+03
1.471422e+03,7.263642e+03
1.472386e+03,7.257813e+03
1.473350e+03,7.257592e+03
1.474315e+03,7.261107e+03
1.475279e+03,7.263154e+03
1.476243e+03,7.258031e+03
1.477207e+03,7.250064e+03
1.478172e+03,7.248162e+03
1.479136e+03,7.249843e+03
1.480100e+03,7.238787e+03
1.481064e+03,7.210047e+03
1.482028e+03,7.191985e+03
1.482993e+03,7.189917e+03
1.483957e+03,7.195168e+03
1.484921e+03,7.198453e+03
1.485885e+03,7.201860e+03
1.486850e+03,7.212642e+03
1.487814e+03,7.223724e+03
1.488778e+03,7.223063e+03
1.489742e+03,7.205075e+03
1.490707e+03,7.186664e+03
1.491671e+03,7.178462e+03
1.492635e+03,7.173197e+03
1.493599e+03,7.163557e+03
1.494563e+03,7.151052e+03
1.495528e+03,7.145459e+03
1.496492e+03,7.145327e+03
1.497456e+03,7.142770e+03
1.498420e+03,7.139104e+03
1.499385e+03,7.132421e+03
1.500349e+03,7.116446e+03
1.501313e+03,7.101647e+03
1.502277e+03,7.094944e+03
1.503242e+03,7.094229e+03
1.504206e+03,7.097691e+03
1.505170e+03,7.106185e+03
1.506134e+03,7.109253e+03
1.507099e+03,7.107342e+03
1.508063e+03,7.100008e+03
1.509027e+03,7.085360e+03
1.509991e+03,7.069129e+03
1.510955e+03,7.064174e+03
1.511920e+03,7.064635e+03
1.512884e+03,7.056787e+03
1.513848e+03,7.043627e+03
1.514812e+03,7.035757e+03
1.515777e+03,7.031250e+03
1.516741e+03,7.031385e+03
1.517705e+03,7.043670e+03
1.518669e+03,7.053559e+03
1.519634e+03,7.049623e+03
1.520598e+03,7.031544e+03
1.521562e+03,7.015265e+03
1.522526e+03,6.999335e+03
1.523490e+03,6.991867e+03
1.524455e+03,6.997789e+03
1.525419e+03,7.004860e+03
1.526383e+03,7.004897e+03
1.527347e+03,6.999331e+03
1.528312e+03,6.989058e+03
1.529276e+03,6.978829e+03
1.530240e+03,6.975499e+03
1.531204e+03,6.977350e+03
1.532169e+03,6.984510e+03
1.533133e+03,6.999018e+03
1.534097e+03,7.009992e+03
1.535061e+03,7.006935e+03
1.536026e+03,6.995169e+03
1.536990e+03,6.984901e+03
1.537954e+03,6.976927e+03
1.538918e+03,6.972161e+03
1.539882e+03,6.970536e+03
1.540847e+03,6.968702e+03
1.541811e+03,6.965742e+03
1.542775e+03,6.957515e+03
1.543739e+03,6.943791e+03
1.544704e+03,6.929352e+03
1.545668e+03,6.922522e+03
1.546632e+03,6.921531e+03
1.547596e+03,6.912645e+03
1.548561e+03,6.896609e+03
1.549525e+03,6.883936e+03
1.550489e+03,6.879844e+03
1.551453e+03,6.876267e+03
1.552417e+03,6.871498e+03
1.553382e+03,6.863386e+03
1.554346e+03,6.851625e+03
1.555310e+03,6.837920e+03
1.556274e+03,6.826531e+03
1.557239e+03,6.816737e+03
1.558203e+03,6.801077e+03
1.559167e+03,6.777143e+03
1.560131e+03,6.759711e+03
1.561096e+03,6.771597e+03
1.562060e+03,6.788094e+03
1.563024e+03,6.787077e+03
1.563988e+03,6.774676e+03
1.564953e+03,6.766771e+03
1.565917e+03,6.766028e+03
1.566881e+03,6.760844e+03
1.567845e+03,6.748838e+03
1.568809e+03,6.737000e+03
1.569774e+03,6.729501e+03
1.570738e+03,6.725813e+03
1.571702e+03,6.728835e+03
1.572666e+03,6.732370e+03
1.573631e+03,6.728243e+03
1.574595e+03,6.717618e+03
1.575559e+03,6.708218e+03
1.576523e+03,6.700869e+03
1.577488e+03,6.696726e+03
1.578452e+03,6.692465e+03
1.579416e+03,6.688616e+03
1.580380e+03,6.689850e+03
1.581344e+03,6.692826e+03
1.582309e+03,6.692752e+03
1.583273e+03,6.689931e+03
1.584237e+03,6.683118e+03
1.585201e+03,6.671394e+03
1.586166e+03,6.657556e+03
1.587130e+03,6.638797e+03
1.588094e+03,6.618928e+03
1.589058e+03,6.599402e+03
1.590023e+03,6.585233e+03
1.590987e+03,6.590484e+03
1.591951e+03,6.607420e+03
1.592915e+03,6.609236e+03
1.593880e+03,6.592370e+03
1.594844e+03,6.578234e+03
1.595808e+03,6.581503e+03
1.596772e+03,6.582609e+03
1.597736e+03,6.578330e+03
1.598701e+03,6.574804e+03
1.599665e+03,6.578616e+03
1.600629e+03,6.585622e+03
1.601593e+03,6.576019e+03
1.602558e+03,6.554774e+03
1.603522e+03,6.537199e+03
1.604486e+03,6.527689e+03
1.605450e+03,6.519339e+03
1.606415e+03,6.509772e+03
1.607379e+03,6.506125e+03
1.608343e+03,6.513000e+03
1.609307e+03,6.521796e+03
1.610271e+03,6.515762e+03
1.611236e+03,6.498034e+03
1.612200e+03,6.487043e+03
1.613164e+03,6.484831e+03
1.614128e+03,6.485400e+03
1.615093e+03,6.487514e+03
1.616057e+03,6.486024e+03
1.617021e+03,6.474294e+03
1.617985e+03,6.459664e+03
1.618950e+03,6.448596e+03
1.619914e+03,6.440029e+03
1.620878e+03,6.427222e+03
1.621842e+03,6.412731e+03
1.622807e+03,6.403008e+03
1.623771e+03,6.400585e+03
1.624735e+03,6.403732e+03
1.625699e+03,6.415466e+03
1.626663e+03,6.421776e+03
1.627628e+03,6.414056e+03
1.628592e+03,6.398604e+03
1.629556e+03,6.388554e+03
1.630520e+03,6.385365e+03
1.631485e+03,6.377914e+03
1.632449e+03,6.366592e+03
1.633413e+03,6.355756e+03
1.634377e+03,6.345643e+03
1.635342e+03,6.342383e+03
1.636306e+03,6.360852e+03
1.637270e+03,6.372546e+03
1.638234e+03,6.361898e+03
1.639198e+03,6.339081e+03
1.640163e+03,6.321456e+03
1.641127e+03,6.311269e+03
1.642091e+03,6.314606e+03
1.643055e+03,6.327926e+03
1.644020e+03,6.335383e+03
1.644984e+03,6.323479e+03
1.645948e+03,6.309404e+03
1.646912e+03,6.298758e+03
1.647877e+03,6.288215e+03
1.648841e+03,6.274895e+03
1.649805e+03,6.260747e+03
1.650769e+03,6.248227e+03
1.651734e+03,6.238243e+03
1.652698e+03,6.236087e+03
1.653662e+03,6.242267e+03
1.654626e+03,6.246576e+03
1.655590e+03,6.247470e+03
1.656555e+03,6.245294e+03
1.657519e+03,6.242903e+03
1.658483e+03,6.239936e+03
1.659447e+03,6.229307e+03
1.660412e+03,6.213197e+03
1.661376e+03,6.201726e+03
1.662340e+03,6.195654e+03
1.663304e+03,6.190255e+03
1.664269e+03,6.175001e+03
1.665233e+03,6.171869e+03
1.666197e+03,6.185108e+03
1.667161e+03,6.188810e+03
1.668125e+03,6.165377e+03
1.669090e+03,6.136611e+03
1.670054e+03,6.140838e+03
1.671018e+03,6.158419e+03
1.671982e+03,6.164759e+03
1.672947e+03,6.157921e+03
1.673911e+03,6.153200e+03
1.674875e+03,6.149321e+03
1.675839e+03,6.140461e+03
1.676804e+03,6.128686e+03
1.677768e+03,6.117355e+03
1.678732e+03,6.100394e+03
1.679696e+03,6.088312e+03
1.680661e+03,6.097612e+03
1.681625e+03,6.111876e+03
1.682589e+03,6.111711e+03
1.683553e+03,6.098701e+03
1.684517e+03,6.086246e+03
1.685482e+03,6.073546e+03
1.686446e+03,6.062628e+03
1.687410e+03,6.053771e+03
1.688374e+03,6.048861e+03
1.689339e+03,6.053423e+03
1.690303e+03,6.057101e+03
1.691267e+03,6.051875e+03
1.692231e+03,6.043909e+03
1.693196e+03,6.042697e+03
1.694160e+03,6.044797e+03
1.695124e+03,6.035513e+03
1.696088e+03,6.018342e+03
1.697052e+03,6.009765e+03
1.698017e+03,6.019248e+03
1.698981e+03,6.025812e+03
1.699945e+03,6.025508e+03
1.700909e+03,6.012440e+03
1.701874e+03,5.982742e+03
1.702838e+03,5.952216e+03
1.703802e+03,5.952133e+03
1.704766e+03,5.966542e+03
1.705731e+03,5.972572e+03
1.706695e+03,5.968572e+03
1.707659e+03,5.960261e+03
1.708623e+03,5.946914e+03
1.709588e+03,5.942408e+03
1.710552e+03,5.947154e+03
1.711516e+03,5.948070e+03
1.712480e+03,5.930231e+03
1.713444e+03,5.908307e+03
1.714409e+03,5.900822e+03
1.715373e+03,5.902782e+03
1.716337e+03,5.906017e+03
1.717301e+03,5.911632e+03
1.718266e+03,5.913107e+03
1.719230e+03,5.908979e+03
1.720194e+03,5.897688e+03
1.721158e+03,5.876982e+03
1.722123e+03,5.857860e+03
1.723087e+03,5.849607e+03
1.724051e+03,5.844120e+03
1.725015e+03,5.838875e+03
1.725979e+03,5.834767e+03
1.726944e+03,5.828430e+03
1.727908e+03,5.822180e+03
1.728872e+03,5.832319e+03
1.729836e+03,5.850179e+03
1.730801e+03,5.850365e+03
1.731765e+03,5.809849e+03
1.732729e+03,5.787340e+03
1.733693e+03,5.793969e+03
1.734658e+03,5.802641e+03
1.735622e+03,5.800790e+03
1.736586e+03,5.794065e+03
1.737550e+03,5.788438e+03
1.738515e+03,5.785042e+03
1.739479e+03,5.788546e+03
1.740443e+03,5.796325e+03
1.741407e+03,5.794312e+03
1.742371e+03,5.781148e+03
1.743336e+03,5.772063e+03
1.744300e+03,5.767898e+03
1.745264e+03,5.763864e+03
1.746228e+03,5.766954e+03
1.747193e+03,5.763019e+03
1.748157e+03,5.736177e+03
1.749121e+03,5.713857e+03
1.750085e+03,5.709731e+03
1.751050e+03,5.714322e+03
1.752014e+03,5.715913e+03
1.752978e+03,5.715437e+03
1.753942e+03,5.709151e+03
1.754906e+03,5.695331e+03
1.755871e+03,5.690312e+03
1.756835e+03,5.703236e+03
1.757799e+03,5.696110e+03
1.758763e+03,5.665698e+03
1.759728e+03,5.634703e+03
1.760692e+03,5.620979e+03
1.761656e+03,5.617961e+03
1.762620e+03,5.618009e+03
1.763585e+03,5.622054e+03
1.764549e+03,5.634013e+03
1.765513e+03,5.651067e+03
1.766477e+03,5.650669e+03
1.767442e+03,5.637443e+03
1.768406e+03,5.631727e+03
1.769370e+03,5.641684e+03
1.770334e+03,5.647915e+03
1.771298e+03,5.635547e+03
1.772263e+03,5.618728e+03
1.773227e+03,5.600185e+03
1.774191e+03,5.586632e+03
1.775155e+03,5.594407e+03
1.776120e+03,5.605816e+03
1.777084e+03,5.587979e+03
1.778048e+03,5.553882e+03
1.779012e+03,5.541761e+03
1.779977e+03,5.561848e+03
1.780941e+03,5.571968e+03
1.781905e+03,5.569740e+03
1.782869e+03,5.559950e+03
1.783833e+03,5.541489e+03
1.784798e+03,5.528206e+03
1.785762e+03,5.536368e+03
1.786726e+03,5.541026e+03
1.787690e+03,5.529854e+03
1.788655e+03,5.511444e+03
1.789619e+03,5.499533e+03
1.790583e+03,5.491403e+03
1.791547e+03,5.475583e+03
1.792512e+03,5.456316e+03
1.793476e+03,5.457635e+03
1.794440e+03,5.489907e+03
1.795404e+03,5.504522e+03
1.796369e+03,5.497080e+03
1.797333e+03,5.484068e+03
1.798297e+03,5.472513e+03
1.799261e+03,5.465406e+03
1.800225e+03,5.466553e+03
1.801190e+03,5.467423e+03
1.802154e+03,5.466018e+03
1.803118e+03,5.459948e+03
1.804082e+03,5.439159e+03
1.805047e+03,5.414971e+03
1.806011e+03,5.414198e+03
1.806975e+03,5.436310e+03
1.807939e+03,5.444458e+03
1.808904e+03,5.428626e+03
1.809868e+03,5.412210e+03
1.810832e+03,5.398861e+03
1.811796e+03,5.390198e+03
1.812760e+03,5.387240e+03
1.813725e+03,5.387464e+03
1.814689e+03,5.395948e+03
1.815653e+03,5.400528e+03
1.816617e+03,5.389709e+03
1.817582e+03,5.370090e+03
1.818546e+03,5.361765e+03
1.819510e+03,5.360170e+03
1.820474e+03,5.357159e+03
1.821439e+03,5.352343e+03
1.822403e+03,5.347442e+03
1.823367e+03,5.343536e+03
1.824331e+03,5.336626e+03
1.825296e+03,5.324375e+03
1.826260e+03,5.310895e+03
1.827224e+03,5.301974e+03
1.828188e+03,5.299154e+03
1.829152e+03,5.302964e+03
1.830117e+03,5.306788e+03
1.831081e+03,5.304589e+03
1.832045e+03,5.297654e+03
1.833009e+03,5.296321e+03
1.833974e+03,5.301231e+03
1.834938e+03,5.306365e+03
1.835902e+03,5.308468e+03
1.836866e+03,5.298760e+03
1.837831e+03,5.275716e+03
1.838795e+03,5.256372e+03
1.839759e+03,5.246562e+03
1.840723e+03,5.243187e+03
1.841688e+03,5.243275e+03
1.842652e+03,5.246368e+03
1.843616e+03,5.252025e+03
1.844580e+03,5.253230e+03
1.845544e+03,5.244333e+03
1.846509e+03,5.230190e+03
1.847473e+03,5.216745e+03
1.848437e+03,5.203765e+03
1.849401e+03,5.191307e+03
1.850366e+03,5.180063e+03
1.851330e+03,5.164010e+03
1.852294e+03,5.145984e+03
1.853258e+03,5.137532e+03
1.854223e+03,5.142013e+03
1.855187e+03,5.148388e+03
1.856151e+03,5.149143e+03
1.857115e+03,5.151900e+03
1.858079e+03,5.159164e+03
1.859044e+03,5.161452e+03
1.860008e+03,5.142737e+03
1.860972e+03,5.124550e+03
1.861936e+03,5.131726e+03
1.862901e+03,5.150692e+03
1.863865e+03,5.160618e+03
1.864829e+03,5.158173e+03
1.865793e+03,5.137750e+03
1.866758e+03,5.108630e+03
1.867722e+03,5.095399e+03
1.868686e+03,5.107489e+03
1.869650e+03,5.107091e+03
1.870615e+03,5.086638e+03
1.871579e+03,5.073712e+03
1.872543e+03,5.078494e+03
1.873507e+03,5.089592e+03
1.874471e+03,5.098022e+03
1.875436e+03,5.097689e+03
1.876400e+03,5.086281e+03
1.877364e+03,5.072306e+03
1.878328e+03,5.066001e+03
1.879293e+03,5.062545e+03
1.880257e+03,5.049610e+03
1.881221e+03,5.031083e+03
1.882185e+03,5.019061e+03
1.883150e+03,5.015415e+03
1.884114e+03,5.008070e+03
1.885078e+03,4.997639e+03
1.886042e+03,5.001820e+03
1.887006e+03,5.029015e+03
1.887971e+03,5.041244e+03
1.888935e+03,5.023403e+03
1.889899e+03,5.005952e+03
1.890863e+03,4.992265e+03
1.891828e+03,4.980314e+03
1.892792e+03,4.973703e+03
1.893756e+03,4.967031e+03
1.894720e+03,4.958020e+03
1.895685e+03,4.953305e+03
1.896649e+03,4.956061e+03
1.897613e+03,4.962416e+03
1.898577e+03,4.970306e+03
1.899542e+03,4.976496e+03
1.900506e+03,4.969712e+03
1.901470e+03,4.945766e+03
1.902434e+03,4.935029e+03
1.903398e+03,4.937114e+03
1.904363e+03,4.937689e+03
1.905327e+03,4.933979e+03
1.906291e+03,4.926130e+03
1.907255e+03,4.902425e+03
1.908220e+03,4.888680e+03
1.909184e+03,4.892101e+03
1.910148e+03,4.896286e+03
1.911112e+03,4.884232e+03
1.912077e+03,4.871202e+03
1.913041e+03,4.872788e+03
1.914005e+03,4.877446e+03
1.914969e+03,4.872131e+03
1.915933e+03,4.859911e+03
1.916898e+03,4.850423e+03
1.917862e+03,4.843688e+03
1.918826e+03,4.837015e+03
1.919790e+03,4.831330e+03
1.920755e+03,4.831996e+03
1.921719e+03,4.835810e+03
1.922683e+03,4.831647e+03
1.923647e+03,4.818789e+03
1.924612e+03,4.808036e+03
1.925576e+03,4.805845e+03
1.926540e+03,4.803568e+03
1.927504e+03,4.797102e+03
1.928469e+03,4.789149e+03
1.929433e+03,4.779013e+03
1.930397e+03,4.770548e+03
1.931361e+03,4.770761e+03
1.932325e+03,4.770279e+03
1.933290e+03,4.762570e+03
1.934254e+03,4.754540e+03
1.935218e+03,4.753159e+03
1.936182e+03,4.754167e+03
1.937147e+03,4.758728e+03
1.938111e+03,4.767451e+03
1.939075e+03,4.776618e+03
1.940039e+03,4.786287e+03
1.941004e+03,4.776922e+03
1.941968e+03,4.744209e+03
1.942932e+03,4.722136e+03
1.943896e+03,4.727153e+03
1.944860e+03,4.727040e+03
1.945825e+03,4.720751e+03
1.946789e+03,4.713400e+03
1.947753e+03,4.702463e+03
1.948717e+03,4.695598e+03
1.949682e+03,4.698578e+03
1.950646e+03,4.699503e+03
1.951610e+03,4.689493e+03
1.952574e+03,4.677236e+03
1.953539e+03,4.677528e+03
1.954503e+03,4.680206e+03
1.955467e+03,4.677052e+03
1.956431e+03,4.669065e+03
1.957396e+03,4.650352e+03
1.958360e+03,4.627474e+03
1.959324e+03,4.622730e+03
1.960288e+03,4.636211e+03
1.961252e+03,4.641984e+03
1.962217e+03,4.635077e+03
1.963181e+03,4.633071e+03
1.964145e+03,4.635741e+03
1.965109e+03,4.638875e+03
1.966074e+03,4.647266e+03
1.967038e+03,4.646495e+03
1.968002e+03,4.629347e+03
1.968966e+03,4.610543e+03
1.969931e+03,4.597056e+03
1.970895e+03,4.585290e+03
1.971859e+03,4.579312e+03
1.972823e+03,4.574953e+03
1.973787e+03,4.566493e+03
1.974752e+03,4.560031e+03
1.975716e+03,4.574636e+03
1.976680e+03,4.589076e+03
1.977644e+03,4.577255e+03
1.978609e+03,4.556331e+03
1.979573e+03,4.552076e+03
1.980537e+03,4.557852e+03
1.981501e+03,4.555356e+03
1.982466e+03,4.547274e+03
1.983430e+03,4.540530e+03
1.984394e+03,4.534833e+03
1.985358e+03,4.532420e+03
1.986323e+03,4.532244e+03
1.987287e+03,4.533099e+03
1.988251e+03,4.535854e+03
1.989215e+03,4.526018e+03
1.990179e+03,4.500692e+03
1.991144e+03,4.480401e+03
1.992108e+03,4.471455e+03
1.993072e+03,4.470324e+03
1.994036e+03,4.478810e+03
1.995001e+03,4.483780e+03
1.995965e+03,4.481060e+03
1.996929e+03,4.477734e+03
1.997893e+03,4.477680e+03
1.998858e+03,4.477329e+03
1.999822e+03,4.475309e+03
2.000786e+03,4.469917e+03
2.001750e+03,4.462806e+03
2.002714e+03,4.456901e+03
2.003679e+03,4.451869e+03
2.004643e+03,4.444655e+03
2.005607e+03,4.432700e+03
2.006571e+03,4.418375e+03
2.007536e+03,4.404158e+03
2.008500e+03,4.391359e+03
2.009464e+03,4.382276e+03
2.010428e+03,4.378503e+03
2.011393e+03,4.378987e+03
2.012357e+03,4.383435e+03
2.013321e+03,4.385213e+03
2.014285e+03,4.381845e+03
2.015250e+03,4.384377e+03
2.016214e+03,4.414795e+03
2.017178e+03,4.415793e+03
2.018142e+03,4.383077e+03
2.019106e+03,4.359608e+03
2.020071e+03,4.374134e+03
2.021035e+03,4.383246e+03
2.021999e+03,4.359095e+03
2.022963e+03,4.337481e+03
2.023928e+03,4.334963e+03
2.024892e+03,4.335999e+03
2.025856e+03,4.317106e+03
2.026820e+03,4.301612e+03
2.027785e+03,4.305473e+03
2.028749e+03,4.315029e+03
2.029713e+03,4.312945e+03
2.030677e+03,4.306938e+03
2.031641e+03,4.308004e+03
2.032606e+03,4.309622e+03
2.033570e+03,4.298005e+03
2.034534e+03,4.277634e+03
2.035498e+03,4.275586e+03
2.036463e+03,4.283104e+03
2.037427e+03,4.275545e+03
2.038391e+03,4.254676e+03
2.039355e+03,4.245816e+03
2.040320e+03,4.246914e+03
2.041284e+03,4.244834e+03
2.042248e+03,4.235295e+03
2.043212e+03,4.239315e+03
2.044177e+03,4.261148e+03
2.045141e+03,4.265496e+03
2.046105e+03,4.246647e+03
2.047069e+03,4.230349e+03
2.048033e+03,4.229104e+03
2.048998e+03,4.227010e+03
2.049962e+03,4.224703e+03
2.050926e+03,4.217323e+03
2.051890e+03,4.190425e+03
2.052854e+03,4.176413e+03
2.053819e+03,4.187214e+03
2.054783e+03,4.195996e+03
2.055747e+03,4.192697e+03
2.056711e+03,4.183897e+03
2.057676e+03,4.166845e+03
2.058640e+03,4.157034e+03
2.059604e+03,4.160844e+03
2.060568e+03,4.168352e+03
2.061533e+03,4.168973e+03
2.062497e+03,4.166779e+03
2.063461e+03,4.166046e+03
2.064425e+03,4.164389e+03
2.065390e+03,4.157358e+03
2.066354e+03,4.146575e+03
2.067318e+03,4.136116e+03
2.068282e+03,4.126821e+03
2.069247e+03,4.116102e+03
2.070211e+03,4.104139e+03
2.071175e+03,4.103549e+03
2.072139e+03,4.108572e+03
2.073104e+03,4.101995e+03
2.074068e+03,4.083327e+03
2.075032e+03,4.072531e+03
2.075996e+03,4.067682e+03
2.076960e+03,4.068356e+03
2.077925e+03,4.074185e+03
2.078889e+03,4.082095e+03
2.079853e+03,4.092094e+03
2.080817e+03,4.096775e+03
2.081782e+03,4.094752e+03
2.082746e+03,4.082776e+03
2.083710e+03,4.055622e+03
2.084674e+03,4.038471e+03
2.085639e+03,4.034934e+03
2.086603e+03,4.036962e+03
2.087567e+03,4.034869e+03
2.088531e+03,4.032870e+03
2.089496e+03,4.029738e+03
2.090460e+03,4.024866e+03
2.091424e+03,4.025563e+03
2.092388e+03,4.026356e+03
2.093353e+03,4.018324e+03
2.094317e+03,4.014380e+03
2.095281e+03,4.015803e+03
2.096245e+03,4.013459e+03
2.097209e+03,3.991026e+03
2.098174e+03,3.974576e+03
2.099138e+03,3.978942e+03
2.100102e+03,3.987739e+03
2.101066e+03,3.981330e+03
2.102031e+03,3.972055e+03
2.102995e+03,3.972569e+03
2.103959e+03,3.974583e+03
2.104923e+03,3.972212e+03
2.105887e+03,3.969168e+03
2.106852e+03,3.962158e+03
2.107816e+03,3.953128e+03
2.108780e+03,3.949427e+03
2.109744e+03,3.946751e+03
2.110708e+03,3.935276e+03
2.111673e+03,3.923094e+03
2.112637e+03,3.919198e+03
2.113601e+03,3.917187e+03
2.114565e+03,3.905495e+03
2.115530e+03,3.889583e+03
2.116494e+03,3.879255e+03
2.117458e+03,3.880897e+03
2.118422e+03,3.894915e+03
2.119387e+03,3.914164e+03
2.120351e+03,3.914588e+03
2.121315e+03,3.899671e+03
2.122279e+03,3.893206e+03
2.123244e+03,3.896396e+03
2.124208e+03,3.894719e+03
2.125172e+03,3.888929e+03
2.126136e+03,3.873458e+03
2.127101e+03,3.845763e+03
2.128065e+03,3.835915e+03
2.129029e+03,3.841302e+03
2.129993e+03,3.851087e+03
2.130958e+03,3.859414e+03
2.131922e+03,3.860217e+03
2.132886e+03,3.854483e+03
2.133850e+03,3.847228e+03
2.134814e+03,3.842691e+03
2.135779e+03,3.838594e+03
2.136743e+03,3.830685e+03
2.137707e+03,3.823694e+03
2.138671e+03,3.819301e+03
2.139636e+03,3.818057e+03
2.140600e+03,3.826662e+03
2.141564e+03,3.820393e+03
2.142528e+03,3.797763e+03
2.143493e+03,3.780856e+03
2.144457e+03,3.778496e+03
2.145421e+03,3.772146e+03
2.146385e+03,3.756379e+03
2.147350e+03,3.744630e+03
2.148314e+03,3.742910e+03
2.149278e+03,3.745288e+03
2.150242e+03,3.742672e+03
2.151207e+03,3.742695e+03
2.152171e+03,3.746253e+03
2.153135e+03,3.745162e+03
2.154099e+03,3.736577e+03
2.155063e+03,3.726817e+03
2.156028e+03,3.717969e+03
2.156992e+03,3.712721e+03
2.157956e+03,3.709544e+03
2.158920e+03,3.704820e+03
2.159885e+03,3.692623e+03
2.160849e+03,3.690871e+03
2.161813e+03,3.714616e+03
2.162777e+03,3.734228e+03
2.163741e+03,3.720729e+03
2.164706e+03,3.701792e+03
2.165670e+03,3.690958e+03
2.166634e+03,3.683848e+03
2.167598e+03,3.664814e+03
2.168563e+03,3.658580e+03
2.169527e+03,3.675979e+03
2.170491e+03,3.692511e+03
2.171455e+03,3.686881e+03
2.172420e+03,3.673351e+03
2.173384e+03,3.658349e+03
2.174348e+03,3.647101e+03
2.175312e+03,3.643877e+03
2.176277e+03,3.642519e+03
2.177241e+03,3.642083e+03
2.178205e+03,3.635436e+03
2.179169e+03,3.616610e+03
2.180134e+03,3.599248e+03
2.181098e+03,3.600573e+03
2.182062e+03,3.607860e+03
2.183026e+03,3.609287e+03
2.183990e+03,3.608136e+03
2.184955e+03,3.608538e+03
2.185919e+03,3.611473e+03
2.186883e+03,3.618568e+03
2.187847e+03,3.621928e+03
2.188812e+03,3.610149e+03
2.189776e+03,3.595156e+03
2.190740e+03,3.589210e+03
2.191704e+03,3.583769e+03
2.192668e+03,3.571630e+03
2.193633e+03,3.558530e+03
2.194597e+03,3.550892e+03
2.195561e+03,3.548374e+03
2.196525e+03,3.548060e+03
2.197490e+03,3.550859e+03
2.198454e+03,3.566227e+03
2.199418e+03,3.577030e+03
2.200382e+03,3.566802e+03
2.201347e+03,3.551221e+03
2.202311e+03,3.555408e+03
2.203275e+03,3.563736e+03
2.204239e+03,3.556970e+03
2.205204e+03,3.541489e+03
2.206168e+03,3.529711e+03
2.207132e+03,3.521526e+03
2.208096e+03,3.515031e+03
2.209061e+03,3.506797e+03
2.210025e+03,3.493846e+03
2.210989e+03,3.481776e+03
2.211953e+03,3.482128e+03
2.212917e+03,3.493532e+03
2.213882e+03,3.506471e+03
2.214846e+03,3.514747e+03
2.215810e+03,3.509925e+03
2.216774e+03,3.496572e+03
2.217739e+03,3.486369e+03
2.218703e+03,3.478884e+03
2.219667e+03,3.471998e+03
2.220631e+03,3.464966e+03
2.221595e+03,3.453565e+03
2.222560e+03,3.442728e+03
2.223524e+03,3.444325e+03
2.224488e+03,3.447385e+03
2.225452e+03,3.437466e+03
2.226417e+03,3.426775e+03
2.227381e+03,3.427732e+03
2.228345e+03,3.434376e+03
2.229309e+03,3.435215e+03
2.230274e+03,3.434048e+03
2.231238e+03,3.437420e+03
2.232202e+03,3.439267e+03
2.233166e+03,3.434224e+03
2.234131e+03,3.424480e+03
2.235095e+03,3.408103e+03
2.236059e+03,3.393760e+03
2.237023e+03,3.397933e+03
2.237988e+03,3.404031e+03
2.238952e+03,3.399400e+03
2.239916e+03,3.388185e+03
2.240880e+03,3.375361e+03
2.241844e+03,3.366429e+03
2.242809e+03,3.365905e+03
2.243773e+03,3.368073e+03
2.244737e+03,3.366810e+03
2.245701e+03,3.362012e+03
2.246666e+03,3.349894e+03
2.247630e+03,3.339392e+03
2.248594e+03,3.344743e+03
2.249558e+03,3.351204e+03
2.250522e+03,3.332254e+03
2.251487e+03,3.323548e+03
2.252451e+03,3.344141e+03
2.253415e+03,3.363220e+03
2.254379e+03,3.350759e+03
2.255344e+03,3.334215e+03
2.256308e+03,3.324810e+03
2.257272e+03,3.318807e+03
2.258236e+03,3.312285e+03
2.259201e+03,3.309244e+03
2.260165e+03,3.309909e+03
2.261129e+03,3.309028e+03
2.262093e+03,3.298799e+03
2.263058e+03,3.289553e+03
2.264022e+03,3.286881e+03
2.264986e+03,3.288117e+03
2.265950e+03,3.293603e+03
2.266915e+03,3.289365e+03
2.267879e+03,3.265609e+03
2.268843e+03,3.250213e+03
2.269807e+03,3.265736e+03
2.270771e+03,3.270399e+03
2.271736e+03,3.243300e+03
2.272700e+03,3.232047e+03
2.273664e+03,3.248364e+03
2.274628e+03,3.261036e+03
2.275593e+03,3.254961e+03
2.276557e+03,3.241840e+03
2.277521e+03,3.225498e+03
2.278485e+03,3.219014e+03
2.279449e+03,3.235061e+03
2.280414e+03,3.245032e+03
2.281378e+03,3.246630e+03
2.282342e+03,3.240861e+03
2.283306e+03,3.219800e+03
2.284271e+03,3.199969e+03
2.285235e+03,3.180969e+03
2.286199e+03,3.166811e+03
2.287163e+03,3.164878e+03
2.288128e+03,3.165714e+03
2.289092e+03,3.166045e+03
2.290056e+03,3.164169e+03
2.291020e+03,3.160598e+03
2.291985e+03,3.161176e+03
2.292949e+03,3.167519e+03
2.293913e+03,3.170555e+03
2.294877e+03,3.168555e+03
2.295842e+03,3.170259e+03
2.296806e+03,3.173570e+03
2.297770e+03,3.175141e+03
2.298734e+03,3.174039e+03
2.299698e+03,3.169894e+03
2.300663e+03,3.164119e+03
2.301627e+03,3.156496e+03
2.302591e+03,3.148136e+03
2.303555e+03,3.146122e+03
2.304520e+03,3.147939e+03
2.305484e+03,3.136078e+03
2.306448e+03,3.119806e+03
2.307412e+03,3.113171e+03
2.308376e+03,3.111868e+03
2.309341e+03,3.106689e+03
2.310305e+03,3.102117e+03
2.311269e+03,3.110336e+03
2.312233e+03,3.121044e+03
2.313198e+03,3.108340e+03
2.314162e+03,3.089769e+03
2.315126e+03,3.087146e+03
2.316090e+03,3.088791e+03
2.317055e+03,3.083373e+03
2.318019e+03,3.077564e+03
2.318983e+03,3.072757e+03
2.319947e+03,3.073510e+03
2.320912e+03,3.099134e+03
2.321876e+03,3.112984e+03
2.322840e+03,3.067703e+03
2.323804e+03,3.033674e+03
2.324769e+03,3.049716e+03
2.325733e+03,3.070731e+03
2.326697e+03,3.059310e+03
2.327661e+03,3.053827e+03
2.328625e+03,3.063880e+03
2.329590e+03,3.069865e+03
2.330554e+03,3.061060e+03
2.331518e+03,3.055206e+03
2.332482e+03,3.054781e+03
2.333447e+03,3.049238e+03
2.334411e+03,3.027193e+03
2.335375e+03,3.016748e+03
2.336339e+03,3.019060e+03
2.337303e+03,3.021129e+03
2.338268e+03,3.017113e+03
2.339232e+03,3.006737e+03
2.340196e+03,2.992575e+03
2.341160e+03,2.986052e+03
2.342125e+03,2.990498e+03
2.343089e+03,2.994776e+03
2.344053e+03,2.995836e+03
2.345017e+03,2.999937e+03
2.345982e+03,3.007308e+03
2.346946e+03,3.002147e+03
2.347910e+03,2.991961e+03
2.348874e+03,2.992211e+03
2.349839e+03,2.995222e+03
2.350803e+03,2.980035e+03
2.351767e+03,2.958544e+03
2.352731e+03,2.953338e+03
2.353696e+03,2.958553e+03
2.354660e+03,2.963660e+03
2.355624e+03,2.964255e+03
2.356588e+03,2.951213e+03
2.357552e+03,2.939617e+03
2.358517e+03,2.946160e+03
2.359481e+03,2.955655e+03
2.360445e+03,2.943981e+03
2.361409e+03,2.933858e+03
2.362374e+03,2.940647e+03
2.363338e+03,2.943844e+03
2.364302e+03,2.921872e+03
2.365266e+03,2.907521e+03
2.366230e+03,2.908399e+03
2.367195e+03,2.910438e+03
2.368159e+03,2.901658e+03
2.369123e+03,2.893437e+03
2.370087e+03,2.889823e+03
2.371052e+03,2.891692e+03
2.372016e+03,2.902579e+03
2.372980e+03,2.912798e+03
2.373944e+03,2.920041e+03
2.374909e+03,2.916009e+03
2.375873e+03,2.895443e+03
2.376837e+03,2.881194e+03
2.377801e+03,2.872449e+03
2.378766e+03,2.862701e+03
2.379730e+03,2.851233e+03
2.380694e+03,2.839606e+03
2.381658e+03,2.833290e+03
2.382623e+03,2.849405e+03
2.383587e+03,2.875232e+03
2.384551e+03,2.865847e+03
2.385515e+03,2.841814e+03
2.386479e+03,2.844776e+03
2.387444e+03,2.857377e+03
2.388408e+03,2.854151e+03
2.389372e+03,2.845451e+03
2.390336e+03,2.838581e+03
2.391301e+03,2.832754e+03
2.392265e+03,2.823940e+03
2.393229e+03,2.819095e+03
2.394193e+03,2.825530e+03
2.395157e+03,2.829527e+03
2.396122e+03,2.820636e+03
2.397086e+03,2.814179e+03
2.398050e+03,2.816832e+03
2.399014e+03,2.819089e+03
2.399979e+03,2.817534e+03
2.400943e+03,2.809157e+03
2.401907e+03,2.792190e+03
2.402871e+03,2.790453e+03
2.403836e+03,2.810462e+03
2.404800e+03,2.816124e+03
2.405764e+03,2.805340e+03
2.406728e+03,2.802926e+03
2.407693e+03,2.807141e+03
2.408657e+03,2.801371e+03
2.409621e+03,2.788668e+03
2.410585e+03,2.776054e+03
2.411550e+03,2.765583e+03
2.412514e+03,2.757885e+03
2.413478e+03,2.753375e+03
2.414442e+03,2.755893e+03
2.415406e+03,2.762319e+03
2.416371e+03,2.772335e+03
2.417335e+03,2.776511e+03
2.418299e+03,2.746464e+03
2.419263e+03,2.725912e+03
2.420228e+03,2.742458e+03
2.421192e+03,2.759745e+03
2.422156e+03,2.736553e+03
2.423120e+03,2.722550e+03
2.424084e+03,2.727402e+03
2.425049e+03,2.734349e+03
2.426013e+03,2.741154e+03
2.426977e+03,2.738504e+03
2.427941e+03,2.727953e+03
2.428906e+03,2.717630e+03
2.429870e+03,2.706619e+03
2.430834e+03,2.707668e+03
2.431798e+03,2.718938e+03
2.432763e+03,2.727543e+03
2.433727e+03,2.730599e+03
2.434691e+03,2.709558e+03
2.435655e+03,2.679903e+03
2.436620e+03,2.675344e+03
2.437584e+03,2.687231e+03
2.438548e+03,2.699891e+03
2.439512e+03,2.707677e+03
2.440477e+03,2.703700e+03
2.441441e+03,2.692759e+03
2.442405e+03,2.682726e+03
2.443369e+03,2.673331e+03
2.444333e+03,2.664625e+03
2.445298e+03,2.660707e+03
2.446262e+03,2.670411e+03
2.447226e+03,2.672493e+03
2.448190e+03,2.664635e+03
2.449155e+03,2.656115e+03
2.450119e+03,2.651857e+03
2.451083e+03,2.652967e+03
2.452047e+03,2.657971e+03
2.453011e+03,2.661568e+03
2.453976e+03,2.663873e+03
2.454940e+03,2.654525e+03
2.455904e+03,2.640186e+03
2.456868e+03,2.636101e+03
2.457833e+03,2.637171e+03
2.458797e+03,2.625896e+03
2.459761e+03,2.615801e+03
2.460725e+03,2.629596e+03
2.461690e+03,2.644420e+03
2.462654e+03,2.615475e+03
2.463618e+03,2.589325e+03
2.464582e+03,2.597285e+03
2.465547e+03,2.613778e+03
2.466511e+03,2.611858e+03
2.467475e+03,2.612409e+03
2.468439e+03,2.620724e+03
2.469404e+03,2.622804e+03
2.470368e+03,2.607969e+03
2.471332e+03,2.601332e+03
2.472296e+03,2.600798e+03
2.473260e+03,2.593771e+03
2.474225e+03,2.576935e+03
2.475189e+03,2.566696e+03
2.476153e+03,2.564891e+03
2.477117e+03,2.576103e+03
2.478082e+03,2.592195e+03
2.479046e+03,2.591808e+03
2.480010e+03,2.582925e+03
2.480974e+03,2.576775e+03
2.481938e+03,2.572961e+03
2.482903e+03,2.572724e+03
2.483867e+03,2.570335e+03
2.484831e+03,2.561514e+03
2.485795e+03,2.552499e+03
2.486760e+03,2.553833e+03
2.487724e+03,2.547666e+03
2.488688e+03,2.531866e+03
2.489652e+03,2.524637e+03
2.490617e+03,2.538636e+03
2.491581e+03,2.546815e+03
2.492545e+03,2.550342e+03
2.493509e+03,2.548167e+03
2.494474e+03,2.539307e+03
2.495438e+03,2.533669e+03
2.496402e+03,2.529645e+03
2.497366e+03,2.522970e+03
2.498331e+03,2.516753e+03
2.499295e+03,2.521746e+03
2.500259e+03,2.524033e+03
2.501223e+03,2.512159e+03
2.502188e+03,2.502988e+03
2.503152e+03,2.525800e+03
2.504116e+03,2.530975e+03
2.505080e+03,2.502622e+03
2.506044e+03,2.482762e+03
2.507009e+03,2.511337e+03
2.507973e+03,2.516383e+03
2.508937e+03,2.498379e+03
2.509901e+03,2.483574e+03
2.510865e+03,2.477681e+03
2.511830e+03,2.468935e+03
2.512794e+03,2.460505e+03
2.513758e+03,2.472304e+03
2.514722e+03,2.495650e+03
2.515687e+03,2.505124e+03
2.516651e+03,2.502118e+03
2.517615e+03,2.486135e+03
2.518579e+03,2.470710e+03
2.519544e+03,2.478658e+03
2.520508e+03,2.482085e+03
2.521472e+03,2.470526e+03
2.522436e+03,2.461346e+03
2.523401e+03,2.472644e+03
2.524365e+03,2.475056e+03
2.525329e+03,2.465211e+03
2.526293e+03,2.457624e+03
2.527258e+03,2.458406e+03
2.528222e+03,2.444396e+03
2.529186e+03,2.424551e+03
2.530150e+03,2.431232e+03
2.531115e+03,2.453584e+03
2.532079e+03,2.446667e+03
2.533043e+03,2.429757e+03
2.534007e+03,2.422888e+03
2.534971e+03,2.419767e+03
2.535936e+03,2.419246e+03
2.536900e+03,2.416059e+03
2.537864e+03,2.406501e+03
2.538828e+03,2.406809e+03
2.539792e+03,2.427820e+03
2.540757e+03,2.426594e+03
2.541721e+03,2.399440e+03
2.542685e+03,2.393163e+03
2.543649e+03,2.410797e+03
2.544614e+03,2.418724e+03
2.545578e+03,2.416047e+03
2.546542e+03,2.412879e+03
2.547506e+03,2.409633e+03
2.548471e+03,2.402383e+03
2.549435e+03,2.395969e+03
2.550399e+03,2.396666e+03
2.551363e+03,2.396427e+03
2.552328e+03,2.385851e+03
2.553292e+03,2.387602e+03
2.554256e+03,2.415802e+03
2.555220e+03,2.421365e+03
2.556185e+03,2.395720e+03
2.557149e+03,2.389513e+03
2.558113e+03,2.408712e+03
2.559077e+03,2.395122e+03
2.560042e+03,2.359923e+03
2.561006e+03,2.361688e+03
2.561970e+03,2.383653e+03
2.562934e+03,2.373010e+03
2.563898e+03,2.355683e+03
2.564863e+03,2.364923e+03
2.565827e+03,2.371724e+03
2.566791e+03,2.352138e+03
2.567755e+03,2.338982e+03
2.568719e+03,2.337385e+03
2.569684e+03,2.334251e+03
2.570648e+03,2.321625e+03
2.571612e+03,2.330514e+03
2.572576e+03,2.357700e+03
2.573541e+03,2.366179e+03
2.574505e+03,2.354236e+03
2.575469e+03,2.353660e+03
2.576433e+03,2.354704e+03
2.577398e+03,2.344168e+03
2.578362e+03,2.330762e+03
2.579326e+03,2.325046e+03
2.580290e+03,2.323801e+03
2.581255e+03,2.323740e+03
2.582219e+03,2.325007e+03
2.583183e+03,2.331960e+03
2.584147e+03,2.333156e+03
2.585112e+03,2.331562e+03
2.586076e+03,2.331718e+03
2.587040e+03,2.334269e+03
2.588004e+03,2.313595e+03
2.588969e+03,2.285824e+03
2.589933e+03,2.293488e+03
2.590897e+03,2.315510e+03
2.591861e+03,2.305668e+03
2.592825e+03,2.287968e+03
2.593790e+03,2.273903e+03
2.594754e+03,2.270391e+03
2.595718e+03,2.287472e+03
2.596682e+03,2.300883e+03
2.597646e+03,2.304893e+03
2.598611e+03,2.295079e+03
2.599575e+03,2.276137e+03
2.600539e+03,2.261781e+03
2.601503e+03,2.256374e+03
2.602468e+03,2.272563e+03
2.603432e+03,2.295240e+03
2.604396e+03,2.294387e+03
2.605360e+03,2.287890e+03
2.606325e+03,2.287144e+03
2.607289e+03,2.289483e+03
2.608253e+03,2.295689e+03
2.609217e+03,2.293965e+03
2.610182e+03,2.270286e+03
2.611146e+03,2.258821e+03
2.612110e+03,2.259695e+03
2.613074e+03,2.254191e+03
2.614039e+03,2.241673e+03
2.615003e+03,2.222371e+03
2.615967e+03,2.207107e+03
2.616931e+03,2.220183e+03
2.617896e+03,2.243474e+03
2.618860e+03,2.261289e+03
2.619824e+03,2.263379e+03
2.620788e+03,2.244879e+03
2.621752e+03,2.231996e+03
2.622717e+03,2.245807e+03
2.623681e+03,2.250233e+03
2.624645e+03,2.244238e+03
2.625609e+03,2.242786e+03
2.626573e+03,2.245095e+03
2.627538e+03,2.228578e+03
2.628502e+03,2.210341e+03
2.629466e+03,2.215617e+03
2.630430e+03,2.225204e+03
2.631395e+03,2.207583e+03
2.632359e+03,2.194736e+03
2.633323e+03,2.200701e+03
2.634287e+03,2.202113e+03
2.635252e+03,2.194364e+03
2.636216e+03,2.201094e+03
2.637180e+03,2.222837e+03
2.638144e+03,2.219819e+03
2.639109e+03,2.200722e+03
2.640073e+03,2.191864e+03
2.641037e+03,2.192556e+03
2.642001e+03,2.198075e+03
2.642966e+03,2.204676e+03
2.643930e+03,2.210587e+03
2.644894e+03,2.213029e+03
2.645858e+03,2.207589e+03
2.646823e+03,2.204756e+03
2.647787e+03,2.203030e+03
2.648751e+03,2.196594e+03
2.649715e+03,2.185101e+03
2.650679e+03,2.182359e+03
2.651644e+03,2.182491e+03
2.652608e+03,2.175350e+03
2.653572e+03,2.165969e+03
2.654536e+03,2.160905e+03
2.655500e+03,2.162505e+03
2.656465e+03,2.173492e+03
2.657429e+03,2.176413e+03
2.658393e+03,2.164008e+03
2.659357e+03,2.147735e+03
2.660322e+03,2.134533e+03
2.661286e+03,2.138918e+03
2.662250e+03,2.154187e+03
2.663214e+03,2.164173e+03
2.664179e+03,2.169649e+03
2.665143e+03,2.172351e+03
2.666107e+03,2.174622e+03
2.667071e+03,2.179724e+03
2.668036e+03,2.174258e+03
2.669000e+03,2.134323e+03
2.669964e+03,2.133696e+03
2.670928e+03,2.164607e+03
2.671893e+03,2.163383e+03
2.672857e+03,2.136606e+03
2.673821e+03,2.137912e+03
2.674785e+03,2.146443e+03
2.675750e+03,2.140369e+03
2.676714e+03,2.130483e+03
2.677678e+03,2.124385e+03
2.678642e+03,2.124609e+03
2.679606e+03,2.132951e+03
2.680571e+03,2.130414e+03
2.681535e+03,2.114434e+03
2.682499e+03,2.108582e+03
2.683463e+03,2.112611e+03
2.684427e+03,2.121605e+03
2.685392e+03,2.132447e+03
2.686356e+03,2.138793e+03
2.687320e+03,2.139969e+03
2.688284e+03,2.134410e+03
2.689249e+03,2.126404e+03
2.690213e+03,2.116342e+03
2.691177e+03,2.106258e+03
2.692141e+03,2.099046e+03
2.693106e+03,2.098899e+03
2.694070e+03,2.101556e+03
2.695034e+03,2.092635e+03
2.695998e+03,2.081454e+03
2.696963e+03,2.086383e+03
2.697927e+03,2.096684e+03
2.698891e+03,2.105637e+03
2.699855e+03,2.106354e+03
2.700820e+03,2.095171e+03
2.701784e+03,2.088840e+03
2.702748e+03,2.087348e+03
2.703712e+03,2.085708e+03
2.704677e+03,2.083897e+03
2.705641e+03,2.088891e+03
2.706605e+03,2.094986e+03
2.707569e+03,2.088652e+03
2.708533e+03,2.083455e+03
2.709498e+03,2.085692e+03
2.710462e+03,2.081019e+03
2.711426e+03,2.060156e+03
2.712390e+03,2.062045e+03
2.713354e+03,2.078956e+03
2.714319e+03,2.072653e+03
2.715283e+03,2.054530e+03
2.716247e+03,2.059617e+03
2.717211e+03,2.065010e+03
2.718176e+03,2.052772e+03
2.719140e+03,2.046058e+03
2.720104e+03,2.066037e+03
2.721068e+03,2.068226e+03
2.722033e+03,2.049423e+03
2.722997e+03,2.047253e+03
2.723961e+03,2.058003e+03
2.724925e+03,2.066899e+03
2.725890e+03,2.066356e+03
2.726854e+03,2.032731e+03
2.727818e+03,2.010403e+03
2.728782e+03,2.022434e+03
2.729747e+03,2.032809e+03
2.730711e+03,2.018869e+03
2.731675e+03,2.024746e+03
2.732639e+03,2.046145e+03
2.733604e+03,2.056950e+03
2.734568e+03,2.056966e+03
2.735532e+03,2.043663e+03
2.736496e+03,2.029091e+03
2.737460e+03,2.024313e+03
2.738425e+03,2.018771e+03
2.739389e+03,2.003018e+03
2.740353e+03,1.998025e+03
2.741317e+03,2.007154e+03
2.742281e+03,2.006780e+03
2.743246e+03,2.000542e+03
2.744210e+03,1.998715e+03
2.745174e+03,1.999073e+03
2.746138e+03,2.006543e+03
2.747103e+03,2.011508e+03
2.748067e+03,2.011706e+03
2.749031e+03,2.009650e+03
2.749995e+03,2.004184e+03
2.750960e+03,1.996133e+03
2.751924e+03,1.989973e+03
2.752888e+03,2.002857e+03
2.753852e+03,2.020026e+03
2.754817e+03,2.003904e+03
2.755781e+03,1.986766e+03
2.756745e+03,1.986364e+03
2.757709e+03,1.989844e+03
2.758674e+03,1.990770e+03
2.759638e+03,1.984622e+03
2.760602e+03,1.973127e+03
2.761566e+03,1.978128e+03
2.762531e+03,1.990534e+03
2.763495e+03,1.989629e+03
2.764459e+03,1.984693e+03
2.765423e+03,1.987262e+03
2.766387e+03,1.989536e+03
2.767352e+03,1.990984e+03
2.768316e+03,1.980420e+03
2.769280e+03,1.956299e+03
2.770244e+03,1.960641e+03
2.771208e+03,1.980893e+03
2.772173e+03,1.984090e+03
2.773137e+03,1.982959e+03
2.774101e+03,1.999597e+03
2.775065e+03,2.005274e+03
2.776030e+03,1.981967e+03
2.776994e+03,1.975750e+03
2.777958e+03,1.984068e+03
2.778922e+03,1.977036e+03
2.779887e+03,1.961906e+03
2.780851e+03,1.962788e+03
2.781815e+03,1.969306e+03
2.782779e+03,1.975851e+03
2.783744e+03,1.981158e+03
2.784708e+03,1.982198e+03
2.785672e+03,1.983869e+03
2.786636e+03,1.982566e+03
2.787601e+03,1.949459e+03
2.788565e+03,1.908990e+03
2.789529e+03,1.939977e+03
2.790493e+03,1.980334e+03
2.791458e+03,1.975347e+03
2.792422e+03,1.956615e+03
2.793386e+03,1.936243e+03
2.794350e+03,1.923783e+03
2.795314e+03,1.920442e+03
2.796279e+03,1.931562e+03
2.797243e+03,1.942770e+03
2.798207e+03,1.933638e+03
2.799171e+03,1.922521e+03
2.800135e+03,1.935210e+03
2.801100e+03,1.935877e+03
2.802064e+03,1.916318e+03
2.803028e+03,1.918841e+03
2.803992e+03,1.938068e+03
2.804957e+03,1.933151e+03
2.805921e+03,1.912373e+03
2.806885e+03,1.874724e+03
2.807849e+03,1.866946e+03
2.808814e+03,1.910503e+03
2.809778e+03,1.936378e+03
2.810742e+03,1.906215e+03
2.811706e+03,1.887846e+03
2.812671e+03,1.882531e+03
2.813635e+03,1.896506e+03
2.814599e+03,1.911926e+03
2.815563e+03,1.883010e+03
2.816528e+03,1.868429e+03
2.817492e+03,1.906307e+03
2.818456e+03,1.917199e+03
2.819420e+03,1.895333e+03
2.820385e+03,1.898563e+03
2.821349e+03,1.923613e+03
2.822313e+03,1.932343e+03
2.823277e+03,1.923341e+03
2.824241e+03,1.894291e+03
2.825206e+03,1.876099e+03
2.826170e+03,1.893535e+03
2.827134e+03,1.899943e+03
2.828098e+03,1.889985e+03
2.829063e+03,1.881965e+03
2.830027e+03,1.875014e+03
2.830991e+03,1.864216e+03
2.831955e+03,1.863282e+03
2.832919e+03,1.893779e+03
2.833884e+03,1.900033e+03
2.834848e+03,1.876607e+03
2.835812e+03,1.867811e+03
2.836776e+03,1.876590e+03
2.837741e+03,1.874354e+03
2.838705e+03,1.868864e+03
2.839669e+03,1.867667e+03
2.840633e+03,1.870828e+03
2.841598e+03,1.879623e+03
2.842562e+03,1.878292e+03
2.843526e+03,1.864543e+03
2.844490e+03,1.868669e+03
2.845455e+03,1.878353e+03
2.846419e+03,1.873235e+03
2.847383e+03,1.865445e+03
2.848347e+03,1.866917e+03
2.849312e+03,1.872475e+03
2.850276e+03,1.880600e+03
2.851240e+03,1.887009e+03
2.852204e+03,1.888961e+03
2.853168e+03,1.878653e+03
2.854133e+03,1.866755e+03
2.855097e+03,1.871716e+03
2.856061e+03,1.873889e+03
2.857025e+03,1.864643e+03
2.857990e+03,1.856979e+03
2.858954e+03,1.855576e+03
2.859918e+03,1.855500e+03
2.860882e+03,1.857083e+03
2.861846e+03,1.859633e+03
2.862811e+03,1.863870e+03
2.863775e+03,1.873187e+03
2.864739e+03,1.872353e+03
2.865703e+03,1.856187e+03
2.866668e+03,1.845321e+03
2.867632e+03,1.840426e+03
2.868596e+03,1.843289e+03
2.869560e+03,1.847832e+03
2.870525e+03,1.853686e+03
2.871489e+03,1.852070e+03
2.872453e+03,1.840250e+03
2.873417e+03,1.834703e+03
2.874382e+03,1.834790e+03
2.875346e+03,1.829224e+03
2.876310e+03,1.824833e+03
2.877274e+03,1.832911e+03
2.878239e+03,1.832021e+03
2.879203e+03,1.813553e+03
2.880167e+03,1.801707e+03
2.881131e+03,1.806289e+03
2.882095e+03,1.811549e+03
2.883060e+03,1.819850e+03
2.884024e+03,1.832608e+03
2.884988e+03,1.847795e+03
2.885952e+03,1.865229e+03
2.886917e+03,1.874720e+03
2.887881e+03,1.874620e+03
2.888845e+03,1.876138e+03
2.889809e+03,1.875806e+03
2.890773e+03,1.860529e+03
2.891738e+03,1.838880e+03
2.892702e+03,1.816332e+03
2.893666e+03,1.810450e+03
2.894630e+03,1.823438e+03
2.895595e+03,1.838020e+03
2.896559e+03,1.848701e+03
2.897523e+03,1.840540e+03
2.898487e+03,1.830006e+03
2.899452e+03,1.833343e+03
2.900416e+03,1.845506e+03
2.901380e+03,1.862462e+03
2.902344e+03,1.857385e+03
2.903309e+03,1.830123e+03
2.904273e+03,1.810492e+03
2.905237e+03,1.804445e+03
2.906201e+03,1.821528e+03
2.907166e+03,1.826106e+03
2.908130e+03,1.802932e+03
2.909094e+03,1.783950e+03
2.910058e+03,1.776702e+03
2.911022e+03,1.789494e+03
2.911987e+03,1.805745e+03
2.912951e+03,1.803547e+03
2.913915e+03,1.804757e+03
2.914879e+03,1.830559e+03
2.915844e+03,1.830614e+03
2.916808e+03,1.806832e+03
2.917772e+03,1.803830e+03
2.918736e+03,1.811762e+03
2.919700e+03,1.813211e+03
2.920665e+03,1.812177e+03
2.921629e+03,1.811024e+03
2.922593e+03,1.809471e+03
2.923557e+03,1.807929e+03
2.924522e+03,1.802769e+03
2.925486e+03,1.796161e+03
2.926450e+03,1.791238e+03
2.927414e+03,1.790937e+03
2.928379e+03,1.799513e+03
2.929343e+03,1.794325e+03
2.930307e+03,1.777794e+03
2.931271e+03,1.779369e+03
2.932236e+03,1.789770e+03
2.933200e+03,1.784363e+03
2.934164e+03,1.787193e+03
2.935128e+03,1.806725e+03
2.936093e+03,1.819127e+03
2.937057e+03,1.821543e+03
2.938021e+03,1.795762e+03
2.938985e+03,1.766843e+03
2.939949e+03,1.777700e+03
2.940914e+03,1.787534e+03
2.941878e+03,1.782810e+03
2.942842e+03,1.772897e+03
2.943806e+03,1.758930e+03
2.944771e+03,1.760601e+03
2.945735e+03,1.768914e+03
2.946699e+03,1.771286e+03
2.947663e+03,1.771136e+03
2.948627e+03,1.767682e+03
2.949592e+03,1.772158e+03
2.950556e+03,1.784858e+03
2.951520e+03,1.760939e+03
2.952484e+03,1.739788e+03
2.953449e+03,1.766817e+03
2.954413e+03,1.782619e+03
2.955377e+03,1.763615e+03
2.956341e+03,1.751089e+03
2.957306e+03,1.751889e+03
2.958270e+03,1.776432e+03
2.959234e+03,1.790855e+03
2.960198e+03,1.772774e+03
2.961163e+03,1.754021e+03
2.962127e+03,1.744009e+03
2.963091e+03,1.746650e+03
2.964055e+03,1.755651e+03
2.965020e+03,1.756066e+03
2.965984e+03,1.759960e+03
2.966948e+03,1.774785e+03
2.967912e+03,1.778028e+03
2.968876e+03,1.754813e+03
2.969841e+03,1.757438e+03
2.970805e+03,1.769893e+03
2.971769e+03,1.763275e+03
2.972733e+03,1.746947e+03
2.973698e+03,1.726154e+03
2.974662e+03,1.718713e+03
2.975626e+03,1.730794e+03
2.976590e+03,1.737428e+03
2.977554e+03,1.738718e+03
2.978519e+03,1.732791e+03
2.979483e+03,1.727376e+03
2.980447e+03,1.729204e+03
2.981411e+03,1.735832e+03
2.982376e+03,1.746874e+03
2.983340e+03,1.756005e+03
2.984304e+03,1.757059e+03
2.985268e+03,1.743879e+03
2.986233e+03,1.736321e+03
2.987197e+03,1.751605e+03
2.988161e+03,1.734579e+03
2.989125e+03,1.698727e+03
2.990090e+03,1.692547e+03
2.991054e+03,1.697373e+03
2.992018e+03,1.698201e+03
2.992982e+03,1.690379e+03
2.993947e+03,1.669590e+03
2.994911e+03,1.706302e+03
2.995875e+03,1.758351e+03
2.996839e+03,1.749118e+03
2.997803e+03,1.730965e+03
2.998768e+03,1.741267e+03
2.999732e+03,1.740482e+03
3.000696e+03,1.723484e+03
3.001660e+03,1.705092e+03
3.002625e+03,1.693037e+03
3.003589e+03,1.695443e+03
3.004553e+03,1.701760e+03
3.005517e+03,1.708416e+03
3.006481e+03,1.721445e+03
3.007446e+03,1.733100e+03
3.008410e+03,1.722017e+03
3.009374e+03,1.709507e+03
3.010338e+03,1.710945e+03
3.011303e+03,1.713326e+03
3.012267e+03,1.709003e+03
3.013231e+03,1.699451e+03
3.014195e+03,1.696183e+03
3.015160e+03,1.730402e+03
3.016124e+03,1.746764e+03
3.017088e+03,1.727951e+03
3.018052e+03,1.702954e+03
3.019017e+03,1.679416e+03
3.019981e+03,1.679804e+03
3.020945e+03,1.694195e+03
3.021909e+03,1.716807e+03
3.022874e+03,1.722441e+03
3.023838e+03,1.709531e+03
3.024802e+03,1.703146e+03
3.025766e+03,1.705185e+03
3.026730e+03,1.721139e+03
3.027695e+03,1.720339e+03
3.028659e+03,1.689836e+03
3.029623e+03,1.692882e+03
3.030587e+03,1.724638e+03
3.031552e+03,1.723529e+03
3.032516e+03,1.711562e+03
3.033480e+03,1.723750e+03
3.034444e+03,1.720030e+03
3.035408e+03,1.698372e+03
3.036373e+03,1.708881e+03
3.037337e+03,1.735089e+03
3.038301e+03,1.722201e+03
3.039265e+03,1.703274e+03
3.040230e+03,1.685241e+03
3.041194e+03,1.704777e+03
3.042158e+03,1.742921e+03
3.043122e+03,1.729377e+03
3.044087e+03,1.701389e+03
3.045051e+03,1.712144e+03
3.046015e+03,1.709327e+03
3.046979e+03,1.678597e+03
3.047944e+03,1.698187e+03
3.048908e+03,1.732045e+03
3.049872e+03,1.721322e+03
3.050836e+03,1.695555e+03
3.051801e+03,1.668592e+03
3.052765e+03,1.677517e+03
3.053729e+03,1.714239e+03
3.054693e+03,1.719876e+03
3.055657e+03,1.717125e+03
3.056622e+03,1.721418e+03
3.057586e+03,1.722330e+03
3.058550e+03,1.717956e+03
3.059514e+03,1.704217e+03
3.060479e+03,1.696664e+03
3.061443e+03,1.727063e+03
3.062407e+03,1.737374e+03
3.063371e+03,1.715462e+03
3.064335e+03,1.717755e+03
3.065300e+03,1.741136e+03
3.066264e+03,1.739096e+03
3.067228e+03,1.734275e+03
3.068192e+03,1.740566e+03
3.069157e+03,1.736422e+03
3.070121e+03,1.723962e+03
3.071085e+03,1.721300e+03
3.072049e+03,1.726920e+03
3.073014e+03,1.754730e+03
3.073978e+03,1.752536e+03
3.074942e+03,1.709026e+03
3.075906e+03,1.694474e+03
3.076871e+03,1.698355e+03
3.077835e+03,1.697843e+03
3.078799e+03,1.700275e+03
3.079763e+03,1.713260e+03
3.080728e+03,1.708574e+03
3.081692e+03,1.693016e+03
3.082656e+03,1.694785e+03
3.083620e+03,1.694170e+03
3.084584e+03,1.680328e+03
3.085549e+03,1.688401e+03
3.086513e+03,1.724487e+03
3.087477e+03,1.729674e+03
3.088441e+03,1.726356e+03
3.089406e+03,1.748466e+03
3.090370e+03,1.747633e+03
3.091334e+03,1.722056e+03
3.092298e+03,1.707787e+03
3.093262e+03,1.704449e+03
3.094227e+03,1.712158e+03
3.095191e+03,1.720536e+03
3.096155e+03,1.726350e+03
3.097119e+03,1.712757e+03
3.098084e+03,1.693827e+03
3.099048e+03,1.689949e+03
3.100012e+03,1.712327e+03
3.100976e+03,1.787391e+03
3.101941e+03,1.786982e+03
3.102905e+03,1.718980e+03
3.103869e+03,1.708075e+03
3.104833e+03,1.720056e+03
3.105798e+03,1.731765e+03
3.106762e+03,1.715844e+03
3.107726e+03,1.675312e+03
3.108690e+03,1.688356e+03
3.109655e+03,1.718983e+03
3.110619e+03,1.727883e+03
3.111583e+03,1.722389e+03
3.112547e+03,1.711307e+03
3.113511e+03,1.734077e+03
3.114476e+03,1.763350e+03
3.115440e+03,1.725323e+03
3.116404e+03,1.697927e+03
3.117368e+03,1.716291e+03
3.118333e+03,1.709971e+03
3.119297e+03,1.692805e+03
3.120261e+03,1.686920e+03
3.121225e+03,1.705795e+03
3.122189e+03,1.755988e+03
3.123154e+03,1.785803e+03
3.124118e+03,1.786952e+03
3.125082e+03,1.757803e+03
3.126046e+03,1.726499e+03
3.127011e+03,1.704382e+03
3.127975e+03,1.732827e+03
3.128939e+03,1.790296e+03
3.129903e+03,1.780822e+03
3.130868e+03,1.751195e+03
3.131832e+03,1.725085e+03
3.132796e+03,1.729946e+03
3.133760e+03,1.755293e+03
3.134725e+03,1.736526e+03
3.135689e+03,1.724012e+03
3.136653e+03,1.769396e+03
3.137617e+03,1.786370e+03
3.138582e+03,1.750784e+03
3.139546e+03,1.786994e+03
3.140510e+03,1.828360e+03
3.141474e+03,1.805642e+03
3.142438e+03,1.781669e+03
3.143403e+03,1.769192e+03
3.144367e+03,1.736923e+03
3.145331e+03,1.702419e+03
3.146295e+03,1.689971e+03
3.147260e+03,1.719764e+03
3.148224e+03,1.792657e+03
3.149188e+03,1.785809e+03
3.150152e+03,1.746770e+03
3.151116e+03,1.740279e+03
3.152081e+03,1.753248e+03
3.153045e+03,1.775424e+03
3.154009e+03,1.772027e+03
3.154973e+03,1.756583e+03
3.155938e+03,1.754464e+03
3.156902e+03,1.755239e+03
3.157866e+03,1.752943e+03
3.158830e+03,1.757174e+03
3.159795e+03,1.769050e+03
3.160759e+03,1.778769e+03
3.161723e+03,1.793168e+03
3.162687e+03,1.833547e+03
3.163652e+03,1.811500e+03
3.164616e+03,1.764615e+03
3.165580e+03,1.760763e+03
3.166544e+03,1.776816e+03
3.167509e+03,1.799602e+03
3.168473e+03,1.791713e+03
3.169437e+03,1.761078e+03
3.170401e+03,1.723826e+03
3.171365e+03,1.717295e+03
3.172330e+03,1.761063e+03
3.173294e+03,1.798584e+03
3.174258e+03,1.822558e+03
3.175222e+03,1.831529e+03
3.176187e+03,1.823169e+03
3.177151e+03,1.795391e+03
3.178115e+03,1.795945e+03
3.179079e+03,1.808150e+03
3.180043e+03,1.749805e+03
3.181008e+03,1.736503e+03
3.181972e+03,1.805434e+03
3.182936e+03,1.825811e+03
3.183900e+03,1.805252e+03
3.184865e+03,1.806731e+03
3.185829e+03,1.813098e+03
3.186793e+03,1.828098e+03
3.187757e+03,1.817127e+03
3.188722e+03,1.793936e+03
3.189686e+03,1.789051e+03
3.190650e+03,1.797604e+03
3.191614e+03,1.813176e+03
3.192579e+03,1.821307e+03
3.193543e+03,1.823091e+03
3.194507e+03,1.823908e+03
3.195471e+03,1.833071e+03
3.196436e+03,1.853450e+03
3.197400e+03,1.836506e+03
3.198364e+03,1.810926e+03
3.199328e+03,1.829731e+03
3.200292e+03,1.846275e+03
3.201257e+03,0.000000e+00
3.202221e+03,0.000000e+00
3.203185e+03,0.000000e+00
3.204149e+03,0.000000e+00
3.205114e+03,0.000000e+00
3.206078e+03,0.000000e+00
3.207042e+03,0.000000e+00
3.208006e+03,0.000000e+00
3.208970e+03,0.000000e+00
3.209935e+03,0.000000e+00
3.210899e+03,0.000000e+00
3.211863e+03,0.000000e+00
3.212827e+03,0.000000e+00
3.213792e+03,0.000000e+00
3.214756e+03,0.000000e+00
3.215720e+03,0.000000e+00
3.216684e+03,0.000000e+00
3.217649e+03,0.000000e+00
3.218613e+03,0.000000e+00
3.219577e+03,0.000000e+00
3.220541e+03,0.000000e+00
3.221506e+03,0.000000e+00
3.222470e+03,0.000000e+00
3.223434e+03,0.000000e+00
3.224398e+03,0.000000e+00
3.225363e+03,0.000000e+00
3.226327e+03,0.000000e+00
3.227291e+03,0.000000e+00
3.228255e+03,0.000000e+00
3.229219e+03,0.000000e+00
3.230184e+03,0.000000e+00
3.231148e+03,0.000000e+00
3.232112e+03,0.000000e+00
3.233076e+03,0.000000e+00
3.234041e+03,0.000000e+00
3.235005e+03,0.000000e+00
3.235969e+03,0.000000e+00
3.236933e+03,0.000000e+00
3.237897e+03,0.000000e+00
3.238862e+03,0.000000e+00
3.239826e+03,0.000000e+00
3.240790e+03,0.000000e+00
3.241754e+03,0.000000e+00
3.242719e+03,0.000000e+00
3.243683e+03,0.000000e+00
3.244647e+03,0.000000e+00
3.245611e+03,0.000000e+00
3.246576e+03,0.000000e+00
3.247540e+03,0.000000e+00
3.248504e+03,0.000000e+00
3.249468e+03,0.000000e+00
3.250433e+03,0.000000e+00
3.251397e+03,0.000000e+00
3.252361e+03,0.000000e+00
3.253325e+03,0.000000e+00
3.254290e+03,0.000000e+00
3.255254e+03,0.000000e+00
3.256218e+03,0.000000e+00
3.257182e+03,0.000000e+00
3.258146e+03,0.000000e+00
3.259111e+03,0.000000e+00
3.260075e+03,0.000000e+00
3.261039e+03,0.000000e+00
3.262003e+03,0.000000e+00
3.262968e+03,0.000000e+00
3.263932e+03,0.000000e+00
3.264896e+03,0.000000e+00
3.265860e+03,0.000000e+00
3.266824e+03,0.000000e+00
3.267789e+03,0.000000e+00
3.268753e+03,0.000000e+00
3.269717e+03,0.000000e+00
3.270681e+03,0.000000e+00
3.271646e+03,0.000000e+00
3.272610e+03,0.000000e+00
3.273574e+03,0.000000e+00
3.274538e+03,0.000000e+00
3.275503e+03,0.000000e+00
3.276467e+03,0.000000e+00
3.277431e+03,0.000000e+00
3.278395e+03,0.000000e+00
3.279360e+03,0.000000e+00
3.280324e+03,0.000000e+00
3.281288e+03,0.000000e+00
3.282252e+03,0.000000e+00
3.283217e+03,0.000000e+00
3.284181e+03,0.000000e+00
3.285145e+03,0.000000e+00
3.286109e+03,0.000000e+00
3.287073e+03,0.000000e+00
3.288038e+03,0.000000e+00
3.289002e+03,0.000000e+00
3.289966e+03,0.000000e+00
3.290930e+03,0.000000e+00
3.291895e+03,0.000000e+00
3.292859e+03,0.000000e+00
3.293823e+03,0.000000e+00
3.294787e+03,0.000000e+00
3.295751e+03,0.000000e+00
3.296716e+03,0.000000e+00
3.297680e+03,0.000000e+00
3.298644e+03,0.000000e+00
3.299608e+03,0.000000e+00
3.300573e+03,0.000000e+00
3.301537e+03,0.000000e+00
3.302501e+03,0.000000e+00
3.303465e+03,0.000000e+00
3.304430e+03,0.000000e+00
3.305394e+03,0.000000e+00
3.306358e+03,0.000000e+00
3.307322e+03,0.000000e+00
3.308287e+03,0.000000e+00
3.309251e+03,0.000000e+00
3.310215e+03,0.000000e+00
3.311179e+03,0.000000e+00
3.312144e+03,0.000000e+00
3.313108e+03,0.000000e+00
3.314072e+03,0.000000e+00
3.315036e+03,0.000000e+00
3.316000e+03,0.000000e+00
3.316965e+03,0.000000e+00
3.317929e+03,0.000000e+00
3.318893e+03,0.000000e+00
3.319857e+03,0.000000e+00
3.320822e+03,0.000000e+00
3.321786e+03,0.000000e+00
3.322750e+03,0.000000e+00
3.323714e+03,0.000000e+00
3.324678e+03,0.000000e+00
3.325643e+03,0.000000e+00
3.326607e+03,0.000000e+00
3.327571e+03,0.000000e+00
3.328535e+03,0.000000e+00
3.329500e+03,0.000000e+00
3.330464e+03,0.000000e+00
3.331428e+03,0.000000e+00
3.332392e+03,0.000000e+00
3.333357e+03,0.000000e+00
3.334321e+03,0.000000e+00
3.335285e+03,0.000000e+00
3.336249e+03,0.000000e+00
3.337214e+03,0.000000e+00
3.338178e+03,0.000000e+00
3.339142e+03,0.000000e+00
3.340106e+03,0.000000e+00
3.341071e+03,0.000000e+00
3.342035e+03,0.000000e+00
3.342999e+03,0.000000e+00
3.343963e+03,0.000000e+00
3.344927e+03,0.000000e+00
3.345892e+03,0.000000e+00
3.346856e+03,0.000000e+00
3.347820e+03,0.000000e+00
3.348784e+03,0.000000e+00
3.349749e+03,0.000000e+00
3.350713e+03,0.000000e+00
3.351677e+03,0.000000e+00
3.352641e+03,0.000000e+00
3.353605e+03,0.000000e+00
3.354570e+03,0.000000e+00
3.355534e+03,0.000000e+00
3.356498e+03,0.000000e+00
3.357462e+03,0.000000e+00
3.358427e+03,0.000000e+00
3.359391e+03,0.000000e+00
3.360355e+03,0.000000e+00
3.361319e+03,0.000000e+00
3.362284e+03,0.000000e+00
3.363248e+03,0.000000e+00
3.364212e+03,0.000000e+00
3.365176e+03,0.000000e+00
3.366141e+03,0.000000e+00
3.367105e+03,0.000000e+00
3.368069e+03,0.000000e+00
3.369033e+03,0.000000e+00
3.369998e+03,0.000000e+00
3.370962e+03,0.000000e+00
3.371926e+03,0.000000e+00
3.372890e+03,0.000000e+00
3.373854e+03,0.000000e+00
3.374819e+03,0.000000e+00
3.375783e+03,0.000000e+00
3.376747e+03,0.000000e+00
3.377711e+03,0.000000e+00
3.378676e+03,0.000000e+00
3.379640e+03,0.000000e+00
3.380604e+03,0.000000e+00
3.381568e+03,0.000000e+00
3.382532e+03,0.000000e+00
3.383497e+03,0.000000e+00
3.384461e+03,0.000000e+00
3.385425e+03,0.000000e+00
3.386389e+03,0.000000e+00
3.387354e+03,0.000000e+00
3.388318e+03,0.000000e+00
3.389282e+03,0.000000e+00
3.390246e+03,0.000000e+00
3.391211e+03,0.000000e+00
3.392175e+03,0.000000e+00
3.393139e+03,0.000000e+00
3.394103e+03,0.000000e+00
3.395068e+03,0.000000e+00
3.396032e+03,0.000000e+00
3.396996e+03,0.000000e+00
3.397960e+03,0.000000e+00
3.398925e+03,0.000000e+00
3.399889e+03,0.000000e+00
3.400853e+03,0.000000e+00
3.401817e+03,0.000000e+00
3.402781e+03,0.000000e+00
3.403746e+03,0.000000e+00
3.404710e+03,0.000000e+00
3.405674e+03,0.000000e+00
3.406638e+03,0.000000e+00
3.407603e+03,0.000000e+00
3.408567e+03,0.000000e+00
3.409531e+03,0.000000e+00
3.410495e+03,0.000000e+00
3.411459e+03,0.000000e+00
3.412424e+03,0.000000e+00
3.413388e+03,0.000000e+00
3.414352e+03,0.000000e+00
3.415316e+03,0.000000e+00
3.416281e+03,0.000000e+00
3.417245e+03,0.000000e+00
3.418209e+03,0.000000e+00
3.419173e+03,0.000000e+00
3.420138e+03,0.000000e+00
3.421102e+03,0.000000e+00
3.422066e+03,0.000000e+00
3.423030e+03,0.000000e+00
3.423995e+03,0.000000e+00
3.424959e+03,0.000000e+00
3.425923e+03,0.000000e+00
3.426887e+03,0.000000e+00
3.427852e+03,0.000000e+00
3.428816e+03,0.000000e+00
3.429780e+03,0.000000e+00
3.430744e+03,0.000000e+00
3.431708e+03,0.000000e+00
3.432673e+03,0.000000e+00
3.433637e+03,0.000000e+00
3.434601e+03,0.000000e+00
3.435565e+03,0.000000e+00
3.436530e+03,0.000000e+00
3.437494e+03,0.000000e+00
3.438458e+03,0.000000e+00
3.439422e+03,0.000000e+00
3.440386e+03,0.000000e+00
3.441351e+03,0.000000e+00
3.442315e+03,0.000000e+00
3.443279e+03,0.000000e+00
3.444243e+03,0.000000e+00
3.445208e+03,0.000000e+00
3.446172e+03,0.000000e+00
3.447136e+03,0.000000e+00
3.448100e+03,0.000000e+00
3.449065e+03,0.000000e+00
3.450029e+03,0.000000e+00
3.450993e+03,0.000000e+00
3.451957e+03,0.000000e+00
3.452922e+03,0.000000e+00
3.453886e+03,0.000000e+00
3.454850e+03,0.000000e+00
3.455814e+03,0.000000e+00
3.456779e+03,0.000000e+00
3.457743e+03,0.000000e+00
3.458707e+03,0.000000e+00
3.459671e+03,0.000000e+00
3.460635e+03,0.000000e+00
3.461600e+03,0.000000e+00
3.462564e+03,0.000000e+00
3.463528e+03,0.000000e+00
3.464492e+03,0.000000e+00
3.465457e+03,0.000000e+00
3.466421e+03,0.000000e+00
3.467385e+03,0.000000e+00
3.468349e+03,0.000000e+00
3.469313e+03,0.000000e+00
3.470278e+03,0.000000e+00
3.471242e+03,0.000000e+00
3.472206e+03,0.000000e+00
3.473170e+03,0.000000e+00
3.474135e+03,0.000000e+00
3.475099e+03,0.000000e+00
3.476063e+03,0.000000e+00
3.477027e+03,0.000000e+00
3.477992e+03,0.000000e+00
3.478956e+03,0.000000e+00
3.479920e+03,0.000000e+00
3.480884e+03,0.000000e+00
3.481849e+03,0.000000e+00
3.482813e+03,0.000000e+00
3.483777e+03,0.000000e+00
3.484741e+03,0.000000e+00
3.485706e+03,0.000000e+00
3.486670e+03,0.000000e+00
3.487634e+03,0.000000e+00
3.488598e+03,0.000000e+00
3.489563e+03,0.000000e+00
3.490527e+03,0.000000e+00
3.491491e+03,0.000000e+00
3.492455e+03,0.000000e+00
3.493419e+03,0.000000e+00
3.494384e+03,0.000000e+00
3.495348e+03,0.000000e+00
3.496312e+03,0.000000e+00
3.497276e+03,0.000000e+00
3.498240e+03,0.000000e+00
3.499205e+03,0.000000e+00
3.500169e+03,0.000000e+00
