9.931763e+01,0.000000e+00
1.002819e+02,0.000000e+00
1.012461e+02,0.000000e+00
1.022103e+02,0.000000e+00
1.031746e+02,0.000000e+00
1.041388e+02,0.000000e+00
1.051030e+02,0.000000e+00
1.060673e+02,0.000000e+00
1.070315e+02,0.000000e+00
1.079957e+02,0.000000e+00
1.089600e+02,0.000000e+00
1.099242e+02,0.000000e+00
1.108884e+02,0.000000e+00
1.118527e+02,0.000000e+00
1.128169e+02,0.000000e+00
1.137811e+02,0.000000e+00
1.147454e+02,0.000000e+00
1.157096e+02,0.000000e+00
1.166738e+02,0.000000e+00
1.176381e+02,0.000000e+00
1.186023e+02,0.000000e+00
1.195665e+02,0.000000e+00
1.205308e+02,0.000000e+00
1.214950e+02,0.000000e+00
1.224592e+02,0.000000e+00
1.234235e+02,0.000000e+00
1.243877e+02,0.000000e+00
1.253519e+02,0.000000e+00
1.263162e+02,0.000000e+00
1.272804e+02,0.000000e+00
1.282446e+02,0.000000e+00
1.292089e+02,0.000000e+00
1.301731e+02,0.000000e+00
1.311373e+02,0.000000e+00
1.321016e+02,0.000000e+00
1.330658e+02,0.000000e+00
1.340300e+02,0.000000e+00
1.349943e+02,0.000000e+00
1.359585e+02,0.000000e+00
1.369227e+02,0.000000e+00
1.378870e+02,0.000000e+00
1.388512e+02,0.000000e+00
1.398154e+02,0.000000e+00
1.407797e+02,0.000000e+00
1.417439e+02,0.000000e+00
1.427081e+02,0.000000e+00
1.436724e+02,0.000000e+00
1.446366e+02,0.000000e+00
1.456008e+02,0.000000e+00
1.465651e+02,0.000000e+00
1.475293e+02,0.000000e+00
1.484935e+02,0.000000e+00
1.494578e+02,0.000000e+00
1.504220e+02,0.000000e+00
1.513862e+02,0.000000e+00
1.523505e+02,0.000000e+00
1.533147e+02,0.000000e+00
1.542789e+02,0.000000e+00
1.552432e+02,0.000000e+00
1.562074e+02,0.000000e+00
1.571716e+02,0.000000e+00
1.581359e+02,0.000000e+00
1.591001e+02,0.000000e+00
1.600643e+02,0.000000e+00
1.610286e+02,0.000000e+00
1.619928e+02,0.000000e+00
1.629570e+02,0.000000e+00
1.639213e+02,0.000000e+00
1.648855e+02,0.000000e+00
1.658497e+02,0.000000e+00
1.668140e+02,0.000000e+00
1.677782e+02,0.000000e+00
1.687424e+02,0.000000e+00
1.697067e+02,0.000000e+00
1.706709e+02,0.000000e+00
1.716351e+02,0.000000e+00
1.725994e+02,0.000000e+00
1.735636e+02,0.000000e+00
1.745278e+02,0.000000e+00
1.754921e+02,0.000000e+00
1.764563e+02,0.000000e+00
1.774205e+02,0.000000e+00
1.783848e+02,0.000000e+00
1.793490e+02,0.000000e+00
1.803132e+02,0.000000e+00
1.812775e+02,0.000000e+00
1.822417e+02,0.000000e+00
1.832059e+02,0.000000e+00
1.841702e+02,0.000000e+00
1.851344e+02,0.000000e+00
1.860986e+02,0.000000e+00
1.870629e+02,0.000000e+00
1.880271e+02,0.000000e+00
1.889913e+02,0.000000e+00
1.899556e+02,0.000000e+00
1.909198e+02,0.000000e+00
1.918840e+02,0.000000e+00
1.928483e+02,0.000000e+00
1.938125e+02,0.000000e+00
1.947767e+02,0.000000e+00
1.957410e+02,0.000000e+00
1.967052e+02,0.000000e+00
1.976694e+02,0.000000e+00
1.986337e+02,0.000000e+00
1.995979e+02,6.642157e+03
2.005621e+02,6.640601e+03
2.015264e+02,6.641066e+03
2.024906e+02,6.643614e+03
2.034548e+02,6.648212e+03
2.044191e+02,6.655174e+03
2.053833e+02,6.662519e+03
2.063475e+02,6.667335e+03
2.073118e+02,6.667113e+03
2.082760e+02,6.660981e+03
2.092402e+02,6.652306e+03
2.102045e+02,6.639761e+03
2.111687e+02,6.630095e+03
2.121329e+02,6.628140e+03
2.130972e+02,6.635760e+03
2.140614e+02,6.648077e+03
2.150256e+02,6.656053e+03
2.159899e+02,6.660898e+03
2.169541e+02,6.660312e+03
2.179183e+02,6.651702e+03
2.188826e+02,6.636734e+03
2.198468e+02,6.623716e+03
2.208110e+02,6.620111e+03
2.217753e+02,6.624778e+03
2.227395e+02,6.625347e+03
2.237037e+02,6.620807e+03
2.246680e+02,6.614903e+03
2.256322e+02,6.609743e+03
2.265964e+02,6.608304e+03
2.275607e+02,6.609173e+03
2.285249e+02,6.609661e+03
2.294892e+02,6.609382e+03
2.304534e+02,6.611493e+03
2.314176e+02,6.616768e+03
2.323819e+02,6.623170e+03
2.333461e+02,6.626717e+03
2.343103e+02,6.624461e+03
2.352746e+02,6.620375e+03
2.362388e+02,6.621322e+03
2.372030e+02,6.629298e+03
2.381673e+02,6.636634e+03
2.391315e+02,6.633344e+03
2.400957e+02,6.617661e+03
2.410600e+02,6.601400e+03
2.420242e+02,6.589657e+03
2.429884e+02,6.583540e+03
2.439527e+02,6.582287e+03
2.449169e+02,6.583813e+03
2.458811e+02,6.587258e+03
2.468454e+02,6.589829e+03
2.478096e+02,6.591758e+03
2.487738e+02,6.592938e+03
2.497381e+02,6.592443e+03
2.507023e+02,6.590326e+03
2.516665e+02,6.588499e+03
2.526308e+02,6.589573e+03
2.535950e+02,6.595314e+03
2.545592e+02,6.596024e+03
2.555235e+02,6.592653e+03
2.564877e+02,6.585834e+03
2.574519e+02,6.575881e+03
2.584161e+02,6.562672e+03
2.593804e+02,6.548121e+03
2.603446e+02,6.542660e+03
2.613088e+02,6.552974e+03
2.622731e+02,6.563599e+03
2.632373e+02,6.571229e+03
2.642015e+02,6.573833e+03
2.651658e+02,6.570916e+03
2.661300e+02,6.560755e+03
2.670942e+02,6.542685e+03
2.680585e+02,6.533539e+03
2.690227e+02,6.549082e+03
2.699869e+02,6.568249e+03
2.709512e+02,6.574678e+03
2.719154e+02,6.561710e+03
2.728796e+02,6.541346e+03
2.738439e+02,6.529143e+03
2.748081e+02,6.527488e+03
2.757723e+02,6.533132e+03
2.767366e+02,6.542999e+03
2.777008e+02,6.552869e+03
2.786650e+02,6.556627e+03
2.796293e+02,6.549901e+03
2.805935e+02,6.539035e+03
2.815577e+02,6.533462e+03
2.825220e+02,6.534979e+03
2.834862e+02,6.539624e+03
2.844504e+02,6.542331e+03
2.854147e+02,6.549539e+03
2.863789e+02,6.549689e+03
2.873431e+02,6.533821e+03
2.883074e+02,6.510141e+03
2.892716e+02,6.495224e+03
2.902358e+02,6.499282e+03
2.912001e+02,6.521604e+03
2.921643e+02,6.527080e+03
2.931285e+02,6.498683e+03
2.940928e+02,6.473447e+03
2.950570e+02,6.470557e+03
2.960212e+02,6.487542e+03
2.969855e+02,6.507108e+03
2.979497e+02,6.509302e+03
2.989139e+02,6.485290e+03
2.998782e+02,6.469307e+03
3.008424e+02,6.472243e+03
3.018066e+02,6.481539e+03
3.027709e+02,6.485042e+03
3.037351e+02,6.475921e+03
3.046993e+02,6.461455e+03
3.056636e+02,6.458508e+03
3.066278e+02,6.474722e+03
3.075920e+02,6.487761e+03
3.085563e+02,6.483885e+03
3.095205e+02,6.470551e+03
3.104847e+02,6.461623e+03
3.114490e+02,6.463704e+03
3.124132e+02,6.471362e+03
3.133774e+02,6.475095e+03
3.143417e+02,6.472575e+03
3.153059e+02,6.466073e+03
3.162701e+02,6.461594e+03
3.172344e+02,6.463306e+03
3.181986e+02,6.462326e+03
3.191628e+02,6.452977e+03
3.201271e+02,6.439655e+03
3.210913e+02,6.430337e+03
3.220555e+02,6.428466e+03
3.230198e+02,6.432510e+03
3.239840e+02,6.435286e+03
3.249482e+02,6.436318e+03
3.259125e+02,6.435897e+03
3.268767e+02,6.433544e+03
3.278409e+02,6.429976e+03
3.288052e+02,6.426469e+03
3.297694e+02,6.423139e+03
3.307336e+02,6.418977e+03
3.316979e+02,6.419783e+03
3.326621e+02,6.436899e+03
3.336263e+02,6.449867e+03
3.345906e+02,6.446744e+03
3.355548e+02,6.426273e+03
3.365190e+02,6.403175e+03
3.374833e+02,6.393049e+03
3.384475e+02,6.396726e+03
3.394117e+02,6.400766e+03
3.403760e+02,6.396771e+03
3.413402e+02,6.388837e+03
3.423044e+02,6.385186e+03
3.432687e+02,6.390999e+03
3.442329e+02,6.398618e+03
3.451971e+02,6.398671e+03
3.461614e+02,6.389284e+03
3.471256e+02,6.377526e+03
3.480898e+02,6.372362e+03
3.490541e+02,6.379782e+03
3.500183e+02,6.380939e+03
3.509825e+02,6.371355e+03
3.519468e+02,6.361095e+03
3.529110e+02,6.357448e+03
3.538752e+02,6.361006e+03
3.548395e+02,6.366862e+03
3.558037e+02,6.367883e+03
3.567680e+02,6.359137e+03
3.577322e+02,6.354188e+03
3.586964e+02,6.359914e+03
3.596607e+02,6.370845e+03
3.606249e+02,6.379116e+03
3.615891e+02,6.378256e+03
3.625534e+02,6.368831e+03
3.635176e+02,6.355799e+03
3.644818e+02,6.339171e+03
3.654461e+02,6.325449e+03
3.664103e+02,6.323086e+03
3.673745e+02,6.332847e+03
3.683388e+02,6.344145e+03
3.693030e+02,6.350452e+03
3.702672e+02,6.352612e+03
3.712315e+02,6.353448e+03
3.721957e+02,6.353013e+03
3.731599e+02,6.350112e+03
3.741242e+02,6.345049e+03
3.750884e+02,6.340102e+03
3.760526e+02,6.336973e+03
3.770169e+02,6.335240e+03
3.779811e+02,6.333984e+03
3.789453e+02,6.331970e+03
3.799096e+02,6.328178e+03
3.808738e+02,6.322400e+03
3.818380e+02,6.315912e+03
3.828023e+02,6.312808e+03
3.837665e+02,6.309127e+03
3.847307e+02,6.300589e+03
3.856950e+02,6.289401e+03
3.866592e+02,6.280663e+03
3.876234e+02,6.277319e+03
3.885877e+02,6.278085e+03
3.895519e+02,6.280424e+03
3.905161e+02,6.284823e+03
3.914804e+02,6.287375e+03
3.924446e+02,6.283509e+03
3.934088e+02,6.273144e+03
3.943731e+02,6.264603e+03
3.953373e+02,6.260404e+03
3.963015e+02,6.258725e+03
3.972658e+02,6.257302e+03
3.982300e+02,6.256131e+03
3.991942e+02,6.257065e+03
4.001585e+02,6.260138e+03
4.011227e+02,6.264022e+03
4.020869e+02,6.266948e+03
4.030512e+02,6.266750e+03
4.040154e+02,6.263188e+03
4.049796e+02,6.257779e+03
4.059439e+02,6.249870e+03
4.069081e+02,6.240711e+03
4.078723e+02,6.235919e+03
4.088366e+02,6.235522e+03
4.098008e+02,6.234845e+03
4.107650e+02,6.235820e+03
4.117293e+02,6.238910e+03
4.126935e+02,6.238352e+03
4.136577e+02,6.228226e+03
4.146220e+02,6.214121e+03
4.155862e+02,6.203768e+03
4.165504e+02,6.198894e+03
4.175147e+02,6.199298e+03
4.184789e+02,6.204469e+03
4.194431e+02,6.225666e+03
4.204074e+02,6.237214e+03
4.213716e+02,6.232641e+03
4.223358e+02,6.220374e+03
4.233001e+02,6.208880e+03
4.242643e+02,6.202164e+03
4.252285e+02,6.199546e+03
4.261928e+02,6.199374e+03
4.271570e+02,6.204066e+03
4.281212e+02,6.207203e+03
4.290855e+02,6.202638e+03
4.300497e+02,6.193049e+03
4.310139e+02,6.185510e+03
4.319782e+02,6.185612e+03
4.329424e+02,6.188753e+03
4.339066e+02,6.188315e+03
4.348709e+02,6.182990e+03
4.358351e+02,6.175910e+03
4.367993e+02,6.170187e+03
4.377636e+02,6.166220e+03
4.387278e+02,6.164106e+03
4.396920e+02,6.166689e+03
4.406563e+02,6.170747e+03
4.416205e+02,6.174124e+03
4.425847e+02,6.175840e+03
4.435490e+02,6.174760e+03
4.445132e+02,6.168301e+03
4.454774e+02,6.155437e+03
4.464417e+02,6.147011e+03
4.474059e+02,6.148356e+03
4.483701e+02,6.152524e+03
4.493344e+02,6.152027e+03
4.502986e+02,6.144303e+03
4.512628e+02,6.135521e+03
4.522271e+02,6.128485e+03
4.531913e+02,6.123412e+03
4.541555e+02,6.121385e+03
4.551198e+02,6.123391e+03
4.560840e+02,6.129734e+03
4.570482e+02,6.132344e+03
4.580125e+02,6.133854e+03
4.589767e+02,6.134648e+03
4.599409e+02,6.131033e+03
4.609052e+02,6.122593e+03
4.618694e+02,6.113466e+03
4.628336e+02,6.107669e+03
4.637979e+02,6.105447e+03
4.647621e+02,6.105617e+03
4.657263e+02,6.111884e+03
4.666906e+02,6.120069e+03
4.676548e+02,6.123242e+03
4.686190e+02,6.119589e+03
4.695833e+02,6.113998e+03
4.705475e+02,6.104854e+03
4.715117e+02,6.094560e+03
4.724760e+02,6.087759e+03
4.734402e+02,6.086602e+03
4.744044e+02,6.088911e+03
4.753687e+02,6.088826e+03
4.763329e+02,6.083690e+03
4.772971e+02,6.080591e+03
4.782614e+02,6.080589e+03
4.792256e+02,6.083468e+03
4.801898e+02,6.088622e+03
4.811541e+02,6.096570e+03
4.821183e+02,6.104532e+03
4.830826e+02,6.108529e+03
4.840468e+02,6.107890e+03
4.850110e+02,6.105269e+03
4.859753e+02,6.103175e+03
4.869395e+02,6.101300e+03
4.879037e+02,6.097391e+03
4.888680e+02,6.091568e+03
4.898322e+02,6.085036e+03
4.907964e+02,6.079369e+03
4.917607e+02,6.074525e+03
4.927249e+02,6.068603e+03
4.936891e+02,6.056694e+03
4.946534e+02,6.037694e+03
4.956176e+02,6.029074e+03
4.965818e+02,6.038701e+03
4.975461e+02,6.053111e+03
4.985103e+02,6.060749e+03
4.994745e+02,6.059744e+03
5.004388e+02,6.053544e+03
5.014030e+02,6.039484e+03
5.023672e+02,6.023943e+03
5.033315e+02,6.018340e+03
5.042957e+02,6.026662e+03
5.052599e+02,6.040861e+03
5.062242e+02,6.044875e+03
5.071884e+02,6.032576e+03
5.081526e+02,6.021545e+03
5.091169e+02,6.014252e+03
5.100811e+02,6.010755e+03
5.110453e+02,6.010588e+03
5.120095e+02,6.017953e+03
5.129738e+02,6.025170e+03
5.139380e+02,6.018642e+03
5.149022e+02,5.998867e+03
5.158665e+02,5.983494e+03
5.168307e+02,5.981427e+03
5.177949e+02,5.989299e+03
5.187592e+02,5.989060e+03
5.197234e+02,5.981791e+03
5.206876e+02,5.975607e+03
5.216519e+02,5.974516e+03
5.226161e+02,5.977849e+03
5.235803e+02,5.981660e+03
5.245446e+02,5.982807e+03
5.255088e+02,5.981460e+03
5.264730e+02,5.978858e+03
5.274373e+02,5.973920e+03
5.284015e+02,5.969393e+03
5.293657e+02,5.968344e+03
5.303300e+02,5.972348e+03
5.312942e+02,5.969625e+03
5.322584e+02,5.953013e+03
5.332227e+02,5.935457e+03
5.341869e+02,5.929312e+03
5.351511e+02,5.935632e+03
5.361154e+02,5.944810e+03
5.370796e+02,5.944456e+03
5.380438e+02,5.932487e+03
5.390081e+02,5.922875e+03
5.399723e+02,5.916914e+03
5.409365e+02,5.915616e+03
5.419008e+02,5.918931e+03
5.428650e+02,5.927978e+03
5.438292e+02,5.935241e+03
5.447935e+02,5.936493e+03
5.457577e+02,5.933401e+03
5.467219e+02,5.929351e+03
5.476862e+02,5.925791e+03
5.486504e+02,5.922290e+03
5.496146e+02,5.917846e+03
5.505789e+02,5.910598e+03
5.515431e+02,5.904762e+03
5.525073e+02,5.905320e+03
5.534716e+02,5.910688e+03
5.544358e+02,5.915406e+03
5.554000e+02,5.913771e+03
5.563643e+02,5.909653e+03
5.573285e+02,5.906575e+03
5.582927e+02,5.903870e+03
5.592570e+02,5.901369e+03
5.602212e+02,5.899865e+03
5.611854e+02,5.898865e+03
5.621497e+02,5.898042e+03
5.631139e+02,5.895602e+03
5.640781e+02,5.892070e+03
5.650424e+02,5.891617e+03
5.660066e+02,5.892974e+03
5.669708e+02,5.890294e+03
5.679351e+02,5.877280e+03
5.688993e+02,5.860081e+03
5.698635e+02,5.849037e+03
5.708278e+02,5.845542e+03
5.717920e+02,5.847399e+03
5.727562e+02,5.851825e+03
5.737205e+02,5.858620e+03
5.746847e+02,5.863541e+03
5.756489e+02,5.864607e+03
5.766132e+02,5.864091e+03
5.775774e+02,5.864157e+03
5.785416e+02,5.865209e+03
5.795059e+02,5.865299e+03
5.804701e+02,5.863175e+03
5.814343e+02,5.858896e+03
5.823986e+02,5.852444e+03
5.833628e+02,5.843817e+03
5.843270e+02,5.834563e+03
5.852913e+02,5.825922e+03
5.862555e+02,5.813421e+03
5.872197e+02,5.808908e+03
5.881840e+02,5.819852e+03
5.891482e+02,5.833024e+03
5.901124e+02,5.836272e+03
5.910767e+02,5.824807e+03
5.920409e+02,5.812026e+03
5.930051e+02,5.812167e+03
5.939694e+02,5.822659e+03
5.949336e+02,5.832326e+03
5.958978e+02,5.838990e+03
5.968621e+02,5.841619e+03
5.978263e+02,5.838279e+03
5.987905e+02,5.823732e+03
5.997548e+02,5.810959e+03
6.007190e+02,5.800502e+03
6.016832e+02,5.793642e+03
6.026475e+02,5.790652e+03
6.036117e+02,5.790569e+03
6.045759e+02,5.792899e+03
6.055402e+02,5.799854e+03
6.065044e+02,5.809653e+03
6.074686e+02,5.813102e+03
6.084329e+02,5.806293e+03
6.093971e+02,5.791940e+03
6.103613e+02,5.780626e+03
6.113256e+02,5.773762e+03
6.122899e+02,5.769294e+03
6.132541e+02,5.767851e+03
6.142183e+02,5.768240e+03
6.151826e+02,5.768989e+03
6.161468e+02,5.772536e+03
6.171110e+02,5.776602e+03
6.180753e+02,5.776557e+03
6.190395e+02,5.772214e+03
6.200037e+02,5.766619e+03
6.209680e+02,5.761127e+03
6.219322e+02,5.756551e+03
6.228964e+02,5.753339e+03
6.238607e+02,5.751815e+03
6.248249e+02,5.750403e+03
6.257891e+02,5.746011e+03
6.267534e+02,5.738619e+03
6.277176e+02,5.732309e+03
6.286818e+02,5.733164e+03
6.296461e+02,5.736608e+03
6.306103e+02,5.736751e+03
6.315745e+02,5.733971e+03
6.325388e+02,5.731237e+03
6.335030e+02,5.730166e+03
6.344672e+02,5.729998e+03
6.354315e+02,5.726574e+03
6.363957e+02,5.713698e+03
6.373599e+02,5.701872e+03
6.383242e+02,5.699733e+03
6.392884e+02,5.706686e+03
6.402526e+02,5.710447e+03
6.412169e+02,5.703235e+03
6.421811e+02,5.693220e+03
6.431453e+02,5.687359e+03
6.441096e+02,5.686144e+03
6.450738e+02,5.687890e+03
6.460380e+02,5.694136e+03
6.470023e+02,5.706354e+03
6.479665e+02,5.711382e+03
6.489307e+02,5.702651e+03
6.498950e+02,5.692633e+03
6.508592e+02,5.692436e+03
6.518234e+02,5.702624e+03
6.527877e+02,5.706381e+03
6.537519e+02,5.695583e+03
6.547161e+02,5.682321e+03
6.556804e+02,5.676282e+03
6.566446e+02,5.678325e+03
6.576088e+02,5.682079e+03
6.585731e+02,5.681745e+03
6.595373e+02,5.677845e+03
6.605015e+02,5.673087e+03
6.614658e+02,5.667079e+03
6.624300e+02,5.662339e+03
6.633942e+02,5.661622e+03
6.643585e+02,5.666830e+03
6.653227e+02,5.670376e+03
6.662869e+02,5.667595e+03
6.672512e+02,5.665004e+03
6.682154e+02,5.668133e+03
6.691796e+02,5.676817e+03
6.701439e+02,5.683966e+03
6.711081e+02,5.685868e+03
6.720723e+02,5.682760e+03
6.730366e+02,5.674763e+03
6.740008e+02,5.662382e+03
6.749650e+02,5.647963e+03
6.759293e+02,5.633704e+03
6.768935e+02,5.619601e+03
6.778577e+02,5.608222e+03
6.788220e+02,5.600641e+03
6.797862e+02,5.598386e+03
6.807504e+02,5.601366e+03
6.817147e+02,5.609109e+03
6.826789e+02,5.615291e+03
6.836431e+02,5.615616e+03
6.846074e+02,5.611891e+03
6.855716e+02,5.606843e+03
6.865358e+02,5.602164e+03
6.875001e+02,5.599256e+03
6.884643e+02,5.600032e+03
6.894285e+02,5.604672e+03
6.903928e+02,5.608734e+03
6.913570e+02,5.611510e+03
6.923212e+02,5.612321e+03
6.932855e+02,5.610999e+03
6.942497e+02,5.607959e+03
6.952139e+02,5.606872e+03
6.961782e+02,5.605561e+03
6.971424e+02,5.606331e+03
6.981066e+02,5.612045e+03
6.990709e+02,5.621068e+03
7.000351e+02,5.623717e+03
7.009993e+02,5.611239e+03
7.019636e+02,5.591525e+03
7.029278e+02,5.578926e+03
7.038920e+02,5.575667e+03
7.048563e+02,5.575435e+03
7.058205e+02,5.571598e+03
7.067847e+02,5.564352e+03
7.077490e+02,5.560920e+03
7.087132e+02,5.567595e+03
7.096774e+02,5.578019e+03
7.106417e+02,5.582641e+03
7.116059e+02,5.579361e+03
7.125701e+02,5.573786e+03
7.135344e+02,5.567153e+03
7.144986e+02,5.561034e+03
7.154628e+02,5.555133e+03
7.164271e+02,5.549001e+03
7.173913e+02,5.544130e+03
7.183555e+02,5.543654e+03
7.193198e+02,5.546120e+03
7.202840e+02,5.544357e+03
7.212482e+02,5.537249e+03
7.222125e+02,5.530892e+03
7.231767e+02,5.531460e+03
7.241409e+02,5.541814e+03
7.251052e+02,5.546529e+03
7.260694e+02,5.541905e+03
7.270336e+02,5.534036e+03
7.279979e+02,5.526186e+03
7.289621e+02,5.518417e+03
7.299263e+02,5.513130e+03
7.308906e+02,5.511319e+03
7.318548e+02,5.511434e+03
7.328190e+02,5.513687e+03
7.337833e+02,5.517703e+03
7.347475e+02,5.520525e+03
7.357117e+02,5.519986e+03
7.366760e+02,5.517301e+03
7.376402e+02,5.515183e+03
7.386044e+02,5.514375e+03
7.395687e+02,5.513043e+03
7.405329e+02,5.507524e+03
7.414971e+02,5.494634e+03
7.424614e+02,5.489668e+03
7.434256e+02,5.505515e+03
7.443898e+02,5.522883e+03
7.453541e+02,5.529736e+03
7.463183e+02,5.523545e+03
7.472825e+02,5.513372e+03
7.482468e+02,5.502178e+03
7.492110e+02,5.490711e+03
7.501752e+02,5.481432e+03
7.511395e+02,5.476491e+03
7.521037e+02,5.475521e+03
7.530679e+02,5.477042e+03
7.540322e+02,5.479286e+03
7.549964e+02,5.479653e+03
7.559606e+02,5.479296e+03
7.569249e+02,5.477412e+03
7.578891e+02,5.472604e+03
7.588533e+02,5.465076e+03
7.598176e+02,5.462982e+03
7.607818e+02,5.466701e+03
7.617460e+02,5.466381e+03
7.627103e+02,5.458321e+03
7.636745e+02,5.447125e+03
7.646387e+02,5.440854e+03
7.656030e+02,5.446253e+03
7.665672e+02,5.454599e+03
7.675314e+02,5.454802e+03
7.684957e+02,5.446226e+03
7.694599e+02,5.437136e+03
7.704241e+02,5.436782e+03
7.713884e+02,5.443458e+03
7.723526e+02,5.447243e+03
7.733168e+02,5.449139e+03
7.742811e+02,5.451132e+03
7.752453e+02,5.450908e+03
7.762095e+02,5.447188e+03
7.771738e+02,5.443283e+03
7.781380e+02,5.436301e+03
7.791022e+02,5.428516e+03
7.800665e+02,5.422101e+03
7.810307e+02,5.417421e+03
7.819949e+02,5.414384e+03
7.829592e+02,5.417014e+03
7.839234e+02,5.420798e+03
7.848876e+02,5.425092e+03
7.858519e+02,5.426917e+03
7.868161e+02,5.420245e+03
7.877803e+02,5.399871e+03
7.887446e+02,5.378179e+03
7.897088e+02,5.377824e+03
7.906730e+02,5.397469e+03
7.916373e+02,5.413952e+03
7.926015e+02,5.417473e+03
7.935657e+02,5.409372e+03
7.945300e+02,5.398268e+03
7.954942e+02,5.384453e+03
7.964584e+02,5.372925e+03
7.974227e+02,5.369656e+03
7.983869e+02,5.374179e+03
7.993511e+02,5.379883e+03
8.003154e+02,5.385403e+03
8.012796e+02,5.384535e+03
8.022438e+02,5.371487e+03
8.032081e+02,5.358845e+03
8.041723e+02,5.358722e+03
8.051365e+02,5.373406e+03
8.061008e+02,5.388685e+03
8.070650e+02,5.393368e+03
8.080292e+02,5.389913e+03
8.089935e+02,5.384399e+03
8.099577e+02,5.379317e+03
8.109219e+02,5.374720e+03
8.118862e+02,5.368675e+03
8.128504e+02,5.361333e+03
8.138146e+02,5.359358e+03
8.147789e+02,5.364242e+03
8.157431e+02,5.367979e+03
8.167073e+02,5.365462e+03
8.176716e+02,5.358797e+03
8.186358e+02,5.350572e+03
8.196000e+02,5.332953e+03
8.205643e+02,5.320411e+03
8.215285e+02,5.318963e+03
8.224927e+02,5.326936e+03
8.234570e+02,5.332987e+03
8.244212e+02,5.331634e+03
8.253854e+02,5.330258e+03
8.263497e+02,5.333821e+03
8.273139e+02,5.339112e+03
8.282781e+02,5.340533e+03
8.292424e+02,5.334523e+03
8.302066e+02,5.327633e+03
8.311708e+02,5.329625e+03
8.321351e+02,5.338367e+03
8.330993e+02,5.342393e+03
8.340635e+02,5.333627e+03
8.350278e+02,5.316539e+03
8.359920e+02,5.306445e+03
8.369562e+02,5.304571e+03
8.379205e+02,5.304330e+03
8.388847e+02,5.304006e+03
8.398489e+02,5.303930e+03
8.408132e+02,5.304115e+03
8.417774e+02,5.305858e+03
8.427416e+02,5.304146e+03
8.437059e+02,5.294288e+03
8.446701e+02,5.283141e+03
8.456343e+02,5.278718e+03
8.465986e+02,5.284899e+03
8.475628e+02,5.290803e+03
8.485270e+02,5.295148e+03
8.494913e+02,5.296050e+03
8.504555e+02,5.290075e+03
8.514197e+02,5.276804e+03
8.523840e+02,5.266752e+03
8.533482e+02,5.271228e+03
8.543124e+02,5.282497e+03
8.552767e+02,5.286793e+03
8.562409e+02,5.281857e+03
8.572051e+02,5.273132e+03
8.581694e+02,5.267155e+03
8.591336e+02,5.264360e+03
8.600978e+02,5.260998e+03
8.610621e+02,5.257607e+03
8.620263e+02,5.255284e+03
8.629905e+02,5.253035e+03
8.639548e+02,5.248817e+03
8.649190e+02,5.246834e+03
8.658832e+02,5.253438e+03
8.668475e+02,5.258868e+03
8.678117e+02,5.255845e+03
8.687759e+02,5.246093e+03
8.697402e+02,5.242499e+03
8.707044e+02,5.248830e+03
8.716686e+02,5.252541e+03
8.726329e+02,5.252886e+03
8.735971e+02,5.251000e+03
8.745613e+02,5.246971e+03
8.755256e+02,5.239485e+03
8.764898e+02,5.234733e+03
8.774540e+02,5.236699e+03
8.784183e+02,5.242229e+03
8.793825e+02,5.246750e+03
8.803467e+02,5.248464e+03
8.813110e+02,5.248332e+03
8.822752e+02,5.247427e+03
8.832394e+02,5.247270e+03
8.842037e+02,5.250509e+03
8.851679e+02,5.256814e+03
8.861321e+02,5.260914e+03
8.870964e+02,5.254477e+03
8.880606e+02,5.236315e+03
8.890248e+02,5.224984e+03
8.899891e+02,5.226242e+03
8.909533e+02,5.231528e+03
8.919175e+02,5.231271e+03
8.928818e+02,5.223294e+03
8.938460e+02,5.219333e+03
8.948102e+02,5.221733e+03
8.957745e+02,5.222956e+03
8.967387e+02,5.219239e+03
8.977029e+02,5.209667e+03
8.986672e+02,5.198813e+03
8.996314e+02,5.186343e+03
9.005956e+02,5.179014e+03
9.015599e+02,5.182624e+03
9.025241e+02,5.192099e+03
9.034883e+02,5.196241e+03
9.044526e+02,5.182943e+03
9.054168e+02,5.168171e+03
9.063810e+02,5.169252e+03
9.073453e+02,5.180469e+03
9.083095e+02,5.185732e+03
9.092737e+02,5.173865e+03
9.102380e+02,5.157669e+03
9.112022e+02,5.152700e+03
9.121664e+02,5.154935e+03
9.131307e+02,5.155969e+03
9.140949e+02,5.155195e+03
9.150591e+02,5.154898e+03
9.160234e+02,5.153062e+03
9.169876e+02,5.147580e+03
9.179518e+02,5.144903e+03
9.189161e+02,5.146883e+03
9.198803e+02,5.147683e+03
9.208445e+02,5.141639e+03
9.218088e+02,5.129065e+03
9.227730e+02,5.121807e+03
9.237372e+02,5.119169e+03
9.247015e+02,5.119836e+03
9.256657e+02,5.124149e+03
9.266299e+02,5.131947e+03
9.275942e+02,5.137452e+03
9.285584e+02,5.138553e+03
9.295226e+02,5.137539e+03
9.304869e+02,5.135792e+03
9.314511e+02,5.133980e+03
9.324153e+02,5.131640e+03
9.333796e+02,5.127810e+03
9.343438e+02,5.124139e+03
9.353080e+02,5.119928e+03
9.362723e+02,5.113962e+03
9.372365e+02,5.106552e+03
9.382007e+02,5.098763e+03
9.391650e+02,5.095399e+03
9.401292e+02,5.101378e+03
9.410934e+02,5.110830e+03
9.420577e+02,5.115716e+03
9.430219e+02,5.113374e+03
9.439861e+02,5.108703e+03
9.449504e+02,5.107299e+03
9.459146e+02,5.109193e+03
9.468788e+02,5.110935e+03
9.478431e+02,5.109305e+03
9.488073e+02,5.104229e+03
9.497715e+02,5.099513e+03
9.507358e+02,5.094306e+03
9.517000e+02,5.083308e+03
9.526642e+02,5.068721e+03
9.536285e+02,5.058047e+03
9.545927e+02,5.056334e+03
9.555569e+02,5.060242e+03
9.565212e+02,5.058354e+03
9.574854e+02,5.052175e+03
9.584496e+02,5.050150e+03
9.594139e+02,5.053576e+03
9.603781e+02,5.059884e+03
9.613423e+02,5.067791e+03
9.623066e+02,5.079375e+03
9.632708e+02,5.083312e+03
9.642350e+02,5.075879e+03
9.651993e+02,5.065063e+03
9.661635e+02,5.060430e+03
9.671277e+02,5.064384e+03
9.680920e+02,5.064377e+03
9.690562e+02,5.060006e+03
9.700204e+02,5.051060e+03
9.709847e+02,5.036343e+03
9.719489e+02,5.013740e+03
9.729131e+02,5.004714e+03
9.738774e+02,5.025653e+03
9.748416e+02,5.046011e+03
9.758058e+02,5.048332e+03
9.767701e+02,5.034907e+03
9.777343e+02,5.026977e+03
9.786985e+02,5.033351e+03
9.796628e+02,5.038024e+03
9.806270e+02,5.037120e+03
9.815912e+02,5.031116e+03
9.825555e+02,5.021221e+03
9.835197e+02,5.005404e+03
9.844839e+02,4.993571e+03
9.854482e+02,4.992482e+03
9.864124e+02,4.997097e+03
9.873766e+02,5.000568e+03
9.883409e+02,5.001570e+03
9.893051e+02,5.002614e+03
9.902693e+02,5.004990e+03
9.912336e+02,5.008791e+03
9.921978e+02,5.013180e+03
9.931620e+02,5.016308e+03
9.941263e+02,5.016322e+03
9.950905e+02,5.010885e+03
9.960547e+02,5.003461e+03
9.970190e+02,4.997522e+03
9.979832e+02,4.992686e+03
9.989474e+02,4.988877e+03
9.999117e+02,4.989337e+03
1.000876e+03,4.991019e+03
1.001840e+03,4.987446e+03
1.002804e+03,4.981243e+03
1.003769e+03,4.976819e+03
1.004733e+03,4.974154e+03
1.005697e+03,4.973479e+03
1.006661e+03,4.978388e+03
1.007626e+03,4.987374e+03
1.008590e+03,4.991625e+03
1.009554e+03,4.988343e+03
1.010518e+03,4.980214e+03
1.011482e+03,4.969420e+03
1.012447e+03,4.956767e+03
1.013411e+03,4.951291e+03
1.014375e+03,4.956283e+03
1.015339e+03,4.961714e+03
1.016304e+03,4.957576e+03
1.017268e+03,4.946167e+03
1.018232e+03,4.945649e+03
1.019196e+03,4.957085e+03
1.020161e+03,4.965835e+03
1.021125e+03,4.967152e+03
1.022089e+03,4.963882e+03
1.023053e+03,4.958799e+03
1.024018e+03,4.949216e+03
1.024982e+03,4.941792e+03
1.025946e+03,4.937065e+03
1.026910e+03,4.932649e+03
1.027875e+03,4.928361e+03
1.028839e+03,4.926584e+03
1.029803e+03,4.926744e+03
1.030767e+03,4.930904e+03
1.031731e+03,4.933606e+03
1.032696e+03,4.928477e+03
1.033660e+03,4.914391e+03
1.034624e+03,4.908510e+03
1.035588e+03,4.916844e+03
1.036552e+03,4.926425e+03
1.037517e+03,4.930835e+03
1.038481e+03,4.930268e+03
1.039445e+03,4.931126e+03
1.040409e+03,4.937623e+03
1.041374e+03,4.938747e+03
1.042338e+03,4.930126e+03
1.043302e+03,4.919041e+03
1.044266e+03,4.914198e+03
1.045231e+03,4.923532e+03
1.046195e+03,4.923232e+03
1.047159e+03,4.903445e+03
1.048123e+03,4.884419e+03
1.049088e+03,4.882118e+03
1.050052e+03,4.901336e+03
1.051016e+03,4.911701e+03
1.051980e+03,4.902822e+03
1.052945e+03,4.894670e+03
1.053909e+03,4.893205e+03
1.054873e+03,4.894759e+03
1.055837e+03,4.893914e+03
1.056802e+03,4.894465e+03
1.057766e+03,4.891085e+03
1.058730e+03,4.879800e+03
1.059694e+03,4.866543e+03
1.060658e+03,4.857634e+03
1.061623e+03,4.855535e+03
1.062587e+03,4.856743e+03
1.063551e+03,4.866218e+03
1.064515e+03,4.875273e+03
1.065479e+03,4.876148e+03
1.066444e+03,4.868806e+03
1.067408e+03,4.862690e+03
1.068372e+03,4.856084e+03
1.069336e+03,4.853958e+03
1.070301e+03,4.859656e+03
1.071265e+03,4.868985e+03
1.072229e+03,4.873009e+03
1.073193e+03,4.864543e+03
1.074158e+03,4.857212e+03
1.075122e+03,4.856624e+03
1.076086e+03,4.858377e+03
1.077050e+03,4.858441e+03
1.078015e+03,4.859991e+03
1.078979e+03,4.858913e+03
1.079943e+03,4.847464e+03
1.080907e+03,4.836875e+03
1.081872e+03,4.833803e+03
1.082836e+03,4.837575e+03
1.083800e+03,4.842849e+03
1.084764e+03,4.853284e+03
1.085729e+03,4.862700e+03
1.086693e+03,4.867631e+03
1.087657e+03,4.868316e+03
1.088621e+03,4.866970e+03
1.089585e+03,4.862383e+03
1.090550e+03,4.855548e+03
1.091514e+03,4.848679e+03
1.092478e+03,4.842566e+03
1.093442e+03,4.836872e+03
1.094406e+03,4.831602e+03
1.095371e+03,4.828173e+03
1.096335e+03,4.825896e+03
1.097299e+03,4.824440e+03
1.098263e+03,4.824097e+03
1.099228e+03,4.824232e+03
1.100192e+03,4.823483e+03
1.101156e+03,4.820247e+03
1.102120e+03,4.816658e+03
1.103085e+03,4.814170e+03
1.104049e+03,4.812374e+03
1.105013e+03,4.810291e+03
1.105977e+03,4.806198e+03
1.106942e+03,4.804742e+03
1.107906e+03,4.810360e+03
1.108870e+03,4.817113e+03
1.109834e+03,4.818793e+03
1.110799e+03,4.813229e+03
1.111763e+03,4.810056e+03
1.112727e+03,4.812381e+03
1.113691e+03,4.816828e+03
1.114656e+03,4.821792e+03
1.115620e+03,4.826947e+03
1.116584e+03,4.830713e+03
1.117548e+03,4.827696e+03
1.118512e+03,4.825574e+03
1.119477e+03,4.829394e+03
1.120441e+03,4.834472e+03
1.121405e+03,4.834323e+03
1.122369e+03,4.825241e+03
1.123334e+03,4.816890e+03
1.124298e+03,4.809796e+03
1.125262e+03,4.804657e+03
1.126226e+03,4.803124e+03
1.127191e+03,4.806372e+03
1.128155e+03,4.805784e+03
1.129119e+03,4.794218e+03
1.130083e+03,4.786404e+03
1.131047e+03,4.790036e+03
1.132012e+03,4.799831e+03
1.132976e+03,4.801538e+03
1.133940e+03,4.789158e+03
1.134904e+03,4.780550e+03
1.135869e+03,4.782458e+03
1.136833e+03,4.787409e+03
1.137797e+03,4.786267e+03
1.138761e+03,4.778096e+03
1.139726e+03,4.773581e+03
1.140690e+03,4.773195e+03
1.141654e+03,4.773388e+03
1.142618e+03,4.771300e+03
1.143583e+03,4.767821e+03
1.144547e+03,4.767939e+03
1.145511e+03,4.772626e+03
1.146475e+03,4.776525e+03
1.147439e+03,4.777704e+03
1.148404e+03,4.778019e+03
1.149368e+03,4.779612e+03
1.150332e+03,4.782283e+03
1.151296e+03,4.781571e+03
1.152261e+03,4.774148e+03
1.153225e+03,4.763677e+03
1.154189e+03,4.757380e+03
1.155153e+03,4.756274e+03
1.156118e+03,4.752429e+03
1.157082e+03,4.747358e+03
1.158046e+03,4.741024e+03
1.159010e+03,4.730127e+03
1.159974e+03,4.719571e+03
1.160939e+03,4.723492e+03
1.161903e+03,4.738034e+03
1.162867e+03,4.742864e+03
1.163831e+03,4.733218e+03
1.164796e+03,4.719698e+03
1.165760e+03,4.715115e+03
1.166724e+03,4.717256e+03
1.167688e+03,4.719041e+03
1.168653e+03,4.720098e+03
1.169617e+03,4.720273e+03
1.170581e+03,4.721194e+03
1.171545e+03,4.720560e+03
1.172510e+03,4.711500e+03
1.173474e+03,4.698555e+03
1.174438e+03,4.691654e+03
1.175402e+03,4.693724e+03
1.176366e+03,4.696851e+03
1.177331e+03,4.694060e+03
1.178295e+03,4.689358e+03
1.179259e+03,4.685729e+03
1.180223e+03,4.683071e+03
1.181188e+03,4.682958e+03
1.182152e+03,4.693058e+03
1.183116e+03,4.700064e+03
1.184080e+03,4.692089e+03
1.185045e+03,4.676955e+03
1.186009e+03,4.667390e+03
1.186973e+03,4.671392e+03
1.187937e+03,4.675713e+03
1.188901e+03,4.671705e+03
1.189866e+03,4.667023e+03
1.190830e+03,4.667608e+03
1.191794e+03,4.673234e+03
1.192758e+03,4.678455e+03
1.193723e+03,4.689187e+03
1.194687e+03,4.695597e+03
1.195651e+03,4.688000e+03
1.196615e+03,4.672542e+03
1.197580e+03,4.665063e+03
1.198544e+03,4.671268e+03
1.199508e+03,4.670218e+03
1.200472e+03,4.659811e+03
1.201437e+03,4.647309e+03
1.202401e+03,4.639161e+03
1.203365e+03,4.636916e+03
1.204329e+03,4.636606e+03
1.205293e+03,4.638596e+03
1.206258e+03,4.639679e+03
1.207222e+03,4.637073e+03
1.208186e+03,4.632273e+03
1.209150e+03,4.631770e+03
1.210115e+03,4.634745e+03
1.211079e+03,4.636099e+03
1.212043e+03,4.635325e+03
1.213007e+03,4.633062e+03
1.213972e+03,4.631260e+03
1.214936e+03,4.631038e+03
1.215900e+03,4.632503e+03
1.216864e+03,4.635546e+03
1.217828e+03,4.635943e+03
1.218793e+03,4.630506e+03
1.219757e+03,4.622491e+03
1.220721e+03,4.614892e+03
1.221685e+03,4.609605e+03
1.222650e+03,4.611560e+03
1.223614e+03,4.620987e+03
1.224578e+03,4.627312e+03
1.225542e+03,4.620101e+03
1.226507e+03,4.608794e+03
1.227471e+03,4.603458e+03
1.228435e+03,4.602508e+03
1.229399e+03,4.600084e+03
1.230364e+03,4.596208e+03
1.231328e+03,4.589446e+03
1.232292e+03,4.576206e+03
1.233256e+03,4.564377e+03
1.234220e+03,4.562271e+03
1.235185e+03,4.575619e+03
1.236149e+03,4.588873e+03
1.237113e+03,4.601231e+03
1.238077e+03,4.611623e+03
1.239042e+03,4.616765e+03
1.240006e+03,4.614845e+03
1.240970e+03,4.607560e+03
1.241934e+03,4.588290e+03
1.242899e+03,4.575582e+03
1.243863e+03,4.577870e+03
1.244827e+03,4.585356e+03
1.245791e+03,4.583126e+03
1.246755e+03,4.568458e+03
1.247720e+03,4.560794e+03
1.248684e+03,4.562128e+03
1.249648e+03,4.565347e+03
1.250612e+03,4.565140e+03
1.251577e+03,4.562438e+03
1.252541e+03,4.563295e+03
1.253505e+03,4.566557e+03
1.254469e+03,4.566203e+03
1.255434e+03,4.560860e+03
1.256398e+03,4.556698e+03
1.257362e+03,4.561181e+03
1.258326e+03,4.569180e+03
1.259291e+03,4.574880e+03
1.260255e+03,4.576332e+03
1.261219e+03,4.570229e+03
1.262183e+03,4.549566e+03
1.263147e+03,4.530820e+03
1.264112e+03,4.528011e+03
1.265076e+03,4.533651e+03
1.266040e+03,4.535280e+03
1.267004e+03,4.527782e+03
1.267969e+03,4.525104e+03
1.268933e+03,4.539401e+03
1.269897e+03,4.556733e+03
1.270861e+03,4.563481e+03
1.271826e+03,4.557678e+03
1.272790e+03,4.557236e+03
1.273754e+03,4.571311e+03
1.274718e+03,4.577964e+03
1.275682e+03,4.573225e+03
1.276647e+03,4.563639e+03
1.277611e+03,4.555644e+03
1.278575e+03,4.548821e+03
1.279539e+03,4.541634e+03
1.280504e+03,4.536256e+03
1.281468e+03,4.533265e+03
1.282432e+03,4.531705e+03
1.283396e+03,4.531589e+03
1.284361e+03,4.532424e+03
1.285325e+03,4.533663e+03
1.286289e+03,4.539299e+03
1.287253e+03,4.550481e+03
1.288218e+03,4.556421e+03
1.289182e+03,4.542658e+03
1.290146e+03,4.522213e+03
1.291110e+03,4.511710e+03
1.292074e+03,4.510230e+03
1.293039e+03,4.508242e+03
1.294003e+03,4.497144e+03
1.294967e+03,4.487929e+03
1.295931e+03,4.489488e+03
1.296896e+03,4.495432e+03
1.297860e+03,4.497357e+03
1.298824e+03,4.491551e+03
1.299788e+03,4.490389e+03
1.300753e+03,4.498198e+03
1.301717e+03,4.503825e+03
1.302681e+03,4.502445e+03
1.303645e+03,4.496338e+03
1.304609e+03,4.492406e+03
1.305574e+03,4.489508e+03
1.306538e+03,4.483403e+03
1.307502e+03,4.474959e+03
1.308466e+03,4.468745e+03
1.309431e+03,4.469493e+03
1.310395e+03,4.474786e+03
1.311359e+03,4.474375e+03
1.312323e+03,4.468005e+03
1.313288e+03,4.463058e+03
1.314252e+03,4.465643e+03
1.315216e+03,4.471708e+03
1.316180e+03,4.477061e+03
1.317145e+03,4.481756e+03
1.318109e+03,4.483930e+03
1.319073e+03,4.481909e+03
1.320037e+03,4.479432e+03
1.321001e+03,4.481813e+03
1.321966e+03,4.480253e+03
1.322930e+03,4.469353e+03
1.323894e+03,4.455529e+03
1.324858e+03,4.447799e+03
1.325823e+03,4.449033e+03
1.326787e+03,4.448589e+03
1.327751e+03,4.442694e+03
1.328715e+03,4.440267e+03
1.329680e+03,4.450237e+03
1.330644e+03,4.468305e+03
1.331608e+03,4.471894e+03
1.332572e+03,4.462057e+03
1.333536e+03,4.458495e+03
1.334501e+03,4.466684e+03
1.335465e+03,4.474906e+03
1.336429e+03,4.471042e+03
1.337393e+03,4.461784e+03
1.338358e+03,4.455796e+03
1.339322e+03,4.452994e+03
1.340286e+03,4.449860e+03
1.341250e+03,4.443919e+03
1.342215e+03,4.437939e+03
1.343179e+03,4.436783e+03
1.344143e+03,4.438475e+03
1.345107e+03,4.437471e+03
1.346072e+03,4.430445e+03
1.347036e+03,4.427021e+03
1.348000e+03,4.428966e+03
1.348964e+03,4.428231e+03
1.349928e+03,4.421958e+03
1.350893e+03,4.414367e+03
1.351857e+03,4.412964e+03
1.352821e+03,4.416485e+03
1.353785e+03,4.416920e+03
1.354750e+03,4.412679e+03
1.355714e+03,4.407131e+03
1.356678e+03,4.406803e+03
1.357642e+03,4.408607e+03
1.358607e+03,4.404014e+03
1.359571e+03,4.395198e+03
1.360535e+03,4.388411e+03
1.361499e+03,4.387200e+03
1.362464e+03,4.386734e+03
1.363428e+03,4.385191e+03
1.364392e+03,4.384797e+03
1.365356e+03,4.384482e+03
1.366320e+03,4.382605e+03
1.367285e+03,4.382468e+03
1.368249e+03,4.387891e+03
1.369213e+03,4.390877e+03
1.370177e+03,4.390121e+03
1.371142e+03,4.386271e+03
1.372106e+03,4.378765e+03
1.373070e+03,4.368531e+03
1.374034e+03,4.363667e+03
1.374999e+03,4.364590e+03
1.375963e+03,4.364799e+03
1.376927e+03,4.359765e+03
1.377891e+03,4.354432e+03
1.378855e+03,4.354344e+03
1.379820e+03,4.355778e+03
1.380784e+03,4.354435e+03
1.381748e+03,4.350901e+03
1.382712e+03,4.347685e+03
1.383677e+03,4.339568e+03
1.384641e+03,4.334589e+03
1.385605e+03,4.338445e+03
1.386569e+03,4.344308e+03
1.387534e+03,4.341739e+03
1.388498e+03,4.329045e+03
1.389462e+03,4.319956e+03
1.390426e+03,4.313954e+03
1.391391e+03,4.309418e+03
1.392355e+03,4.306779e+03
1.393319e+03,4.306417e+03
1.394283e+03,4.307369e+03
1.395247e+03,4.309126e+03
1.396212e+03,4.313299e+03
1.397176e+03,4.320617e+03
1.398140e+03,4.322954e+03
1.399104e+03,4.307209e+03
1.400069e+03,4.291152e+03
1.401033e+03,4.286601e+03
1.401997e+03,4.290968e+03
1.402961e+03,4.296134e+03
1.403926e+03,4.305081e+03
1.404890e+03,4.305456e+03
1.405854e+03,4.294542e+03
1.406818e+03,4.283182e+03
1.407782e+03,4.279824e+03
1.408747e+03,4.283232e+03
1.409711e+03,4.284248e+03
1.410675e+03,4.281606e+03
1.411639e+03,4.281254e+03
1.412604e+03,4.286204e+03
1.413568e+03,4.288646e+03
1.414532e+03,4.279979e+03
1.415496e+03,4.270409e+03
1.416461e+03,4.267316e+03
1.417425e+03,4.268537e+03
1.418389e+03,4.268737e+03
1.419353e+03,4.268843e+03
1.420318e+03,4.265164e+03
1.421282e+03,4.257132e+03
1.422246e+03,4.249744e+03
1.423210e+03,4.247216e+03
1.424174e+03,4.248948e+03
1.425139e+03,4.244583e+03
1.426103e+03,4.234258e+03
1.427067e+03,4.230156e+03
1.428031e+03,4.237835e+03
1.428996e+03,4.246539e+03
1.429960e+03,4.243385e+03
1.430924e+03,4.236038e+03
1.431888e+03,4.234016e+03
1.432853e+03,4.236263e+03
1.433817e+03,4.233440e+03
1.434781e+03,4.216978e+03
1.435745e+03,4.206870e+03
1.436709e+03,4.206177e+03
1.437674e+03,4.207156e+03
1.438638e+03,4.204774e+03
1.439602e+03,4.200522e+03
1.440566e+03,4.196732e+03
1.441531e+03,4.192989e+03
1.442495e+03,4.189708e+03
1.443459e+03,4.186114e+03
1.444423e+03,4.183938e+03
1.445388e+03,4.186030e+03
1.446352e+03,4.188166e+03
1.447316e+03,4.187091e+03
1.448280e+03,4.184586e+03
1.449245e+03,4.183123e+03
1.450209e+03,4.185661e+03
1.451173e+03,4.185092e+03
1.452137e+03,4.176225e+03
1.453101e+03,4.165724e+03
1.454066e+03,4.161750e+03
1.455030e+03,4.163541e+03
1.455994e+03,4.162527e+03
1.456958e+03,4.159415e+03
1.457923e+03,4.160429e+03
1.458887e+03,4.168124e+03
1.459851e+03,4.173892e+03
1.460815e+03,4.168237e+03
1.461780e+03,4.157558e+03
1.462744e+03,4.149190e+03
1.463708e+03,4.144331e+03
1.464672e+03,4.140777e+03
1.465636e+03,4.140780e+03
1.466601e+03,4.140605e+03
1.467565e+03,4.138915e+03
1.468529e+03,4.138841e+03
1.469493e+03,4.143927e+03
1.470458e+03,4.151039e+03
1.471422e+03,4.151357e+03
1.472386e+03,4.146976e+03
1.473350e+03,4.142229e+03
1.474315e+03,4.137225e+03
1.475279e+03,4.133737e+03
1.476243e+03,4.133570e+03
1.477207e+03,4.133407e+03
1.478172e+03,4.133523e+03
1.479136e+03,4.133498e+03
1.480100e+03,4.129903e+03
1.481064e+03,4.122322e+03
1.482028e+03,4.113866e+03
1.482993e+03,4.104829e+03
1.483957e+03,4.099414e+03
1.484921e+03,4.102467e+03
1.485885e+03,4.109628e+03
1.486850e+03,4.113198e+03
1.487814e+03,4.112729e+03
1.488778e+03,4.109309e+03
1.489742e+03,4.102694e+03
1.490707e+03,4.097414e+03
1.491671e+03,4.101289e+03
1.492635e+03,4.103948e+03
1.493599e+03,4.096440e+03
1.494563e+03,4.083820e+03
1.495528e+03,4.084331e+03
1.496492e+03,4.096683e+03
1.497456e+03,4.101786e+03
1.498420e+03,4.098876e+03
1.499385e+03,4.094162e+03
1.500349e+03,4.090942e+03
1.501313e+03,4.089463e+03
1.502277e+03,4.088184e+03
1.503242e+03,4.088258e+03
1.504206e+03,4.092454e+03
1.505170e+03,4.103014e+03
1.506134e+03,4.107118e+03
1.507099e+03,4.103362e+03
1.508063e+03,4.098638e+03
1.509027e+03,4.096611e+03
1.509991e+03,4.092252e+03
1.510955e+03,4.071255e+03
1.511920e+03,4.043136e+03
1.512884e+03,4.032330e+03
1.513848e+03,4.040482e+03
1.514812e+03,4.052612e+03
1.515777e+03,4.062954e+03
1.516741e+03,4.068259e+03
1.517705e+03,4.064132e+03
1.518669e+03,4.056245e+03
1.519634e+03,4.048866e+03
1.520598e+03,4.041575e+03
1.521562e+03,4.040419e+03
1.522526e+03,4.043991e+03
1.523490e+03,4.047797e+03
1.524455e+03,4.051228e+03
1.525419e+03,4.052286e+03
1.526383e+03,4.047469e+03
1.527347e+03,4.041399e+03
1.528312e+03,4.039629e+03
1.529276e+03,4.043144e+03
1.530240e+03,4.048714e+03
1.531204e+03,4.058755e+03
1.532169e+03,4.056938e+03
1.533133e+03,4.039561e+03
1.534097e+03,4.021894e+03
1.535061e+03,4.015855e+03
1.536026e+03,4.015679e+03
1.536990e+03,4.012951e+03
1.537954e+03,4.009155e+03
1.538918e+03,4.006601e+03
1.539882e+03,4.005614e+03
1.540847e+03,4.004204e+03
1.541811e+03,3.998997e+03
1.542775e+03,3.994636e+03
1.543739e+03,3.994263e+03
1.544704e+03,3.996626e+03
1.545668e+03,3.999933e+03
1.546632e+03,4.003833e+03
1.547596e+03,4.004282e+03
1.548561e+03,4.001344e+03
1.549525e+03,3.997490e+03
1.550489e+03,3.988736e+03
1.551453e+03,3.984165e+03
1.552417e+03,3.990400e+03
1.553382e+03,4.000702e+03
1.554346e+03,4.012595e+03
1.555310e+03,4.025480e+03
1.556274e+03,4.026035e+03
1.557239e+03,4.014192e+03
1.558203e+03,4.004447e+03
1.559167e+03,4.000402e+03
1.560131e+03,3.997751e+03
1.561096e+03,3.992288e+03
1.562060e+03,3.988046e+03
1.563024e+03,3.988895e+03
1.563988e+03,3.993045e+03
1.564953e+03,3.995995e+03
1.565917e+03,3.997732e+03
1.566881e+03,3.995927e+03
1.567845e+03,3.988886e+03
1.568809e+03,3.983845e+03
1.569774e+03,3.985885e+03
1.570738e+03,3.991063e+03
1.571702e+03,3.998387e+03
1.572666e+03,4.002552e+03
1.573631e+03,3.994098e+03
1.574595e+03,3.973643e+03
1.575559e+03,3.961013e+03
1.576523e+03,3.960240e+03
1.577488e+03,3.962845e+03
1.578452e+03,3.966231e+03
1.579416e+03,3.967622e+03
1.580380e+03,3.962360e+03
1.581344e+03,3.955834e+03
1.582309e+03,3.961860e+03
1.583273e+03,3.975347e+03
1.584237e+03,3.982383e+03
1.585201e+03,3.976390e+03
1.586166e+03,3.970702e+03
1.587130e+03,3.964095e+03
1.588094e+03,3.961353e+03
1.589058e+03,3.968225e+03
1.590023e+03,3.976929e+03
1.590987e+03,3.967438e+03
1.591951e+03,3.948566e+03
1.592915e+03,3.936995e+03
1.593880e+03,3.932587e+03
1.594844e+03,3.931370e+03
1.595808e+03,3.935958e+03
1.596772e+03,3.938970e+03
1.597736e+03,3.940172e+03
1.598701e+03,3.940661e+03
1.599665e+03,3.941920e+03
1.600629e+03,3.942111e+03
1.601593e+03,3.929333e+03
1.602558e+03,3.909043e+03
1.603522e+03,3.899489e+03
1.604486e+03,3.907659e+03
1.605450e+03,3.914233e+03
1.606415e+03,3.909417e+03
1.607379e+03,3.906958e+03
1.608343e+03,3.913411e+03
1.609307e+03,3.921703e+03
1.610271e+03,3.919185e+03
1.611236e+03,3.907372e+03
1.612200e+03,3.893283e+03
1.613164e+03,3.879712e+03
1.614128e+03,3.872195e+03
1.615093e+03,3.877659e+03
1.616057e+03,3.882071e+03
1.617021e+03,3.877860e+03
1.617985e+03,3.872025e+03
1.618950e+03,3.870355e+03
1.619914e+03,3.871384e+03
1.620878e+03,3.868576e+03
1.621842e+03,3.863100e+03
1.622807e+03,3.857819e+03
1.623771e+03,3.854035e+03
1.624735e+03,3.849001e+03
1.625699e+03,3.832802e+03
1.626663e+03,3.822931e+03
1.627628e+03,3.827837e+03
1.628592e+03,3.835898e+03
1.629556e+03,3.835741e+03
1.630520e+03,3.830205e+03
1.631485e+03,3.822987e+03
1.632449e+03,3.814863e+03
1.633413e+03,3.810259e+03
1.634377e+03,3.812339e+03
1.635342e+03,3.815713e+03
1.636306e+03,3.822772e+03
1.637270e+03,3.825573e+03
1.638234e+03,3.818772e+03
1.639198e+03,3.807222e+03
1.640163e+03,3.799354e+03
1.641127e+03,3.795858e+03
1.642091e+03,3.798836e+03
1.643055e+03,3.805698e+03
1.644020e+03,3.805253e+03
1.644984e+03,3.780429e+03
1.645948e+03,3.762562e+03
1.646912e+03,3.761053e+03
1.647877e+03,3.765088e+03
1.648841e+03,3.767265e+03
1.649805e+03,3.767820e+03
1.650769e+03,3.765851e+03
1.651734e+03,3.761587e+03
1.652698e+03,3.755996e+03
1.653662e+03,3.747484e+03
1.654626e+03,3.741933e+03
1.655590e+03,3.742267e+03
1.656555e+03,3.744322e+03
1.657519e+03,3.749957e+03
1.658483e+03,3.755366e+03
1.659447e+03,3.751186e+03
1.660412e+03,3.740212e+03
1.661376e+03,3.729114e+03
1.662340e+03,3.720371e+03
1.663304e+03,3.716810e+03
1.664269e+03,3.719591e+03
1.665233e+03,3.724227e+03
1.666197e+03,3.731887e+03
1.667161e+03,3.732022e+03
1.668125e+03,3.715688e+03
1.669090e+03,3.697949e+03
1.670054e+03,3.708988e+03
1.671018e+03,3.729250e+03
1.671982e+03,3.731436e+03
1.672947e+03,3.714171e+03
1.673911e+03,3.704601e+03
1.674875e+03,3.703469e+03
1.675839e+03,3.702639e+03
1.676804e+03,3.702920e+03
1.677768e+03,3.704450e+03
1.678732e+03,3.708502e+03
1.679696e+03,3.709177e+03
1.680661e+03,3.695262e+03
1.681625e+03,3.676079e+03
1.682589e+03,3.669013e+03
1.683553e+03,3.676211e+03
1.684517e+03,3.679257e+03
1.685482e+03,3.677811e+03
1.686446e+03,3.678337e+03
1.687410e+03,3.683245e+03
1.688374e+03,3.687605e+03
1.689339e+03,3.687741e+03
1.690303e+03,3.685523e+03
1.691267e+03,3.681206e+03
1.692231e+03,3.676453e+03
1.693196e+03,3.671601e+03
1.694160e+03,3.666122e+03
1.695124e+03,3.665335e+03
1.696088e+03,3.669210e+03
1.697052e+03,3.673249e+03
1.698017e+03,3.672146e+03
1.698981e+03,3.671320e+03
1.699945e+03,3.674406e+03
1.700909e+03,3.670271e+03
1.701874e+03,3.652135e+03
1.702838e+03,3.632414e+03
1.703802e+03,3.638298e+03
1.704766e+03,3.655635e+03
1.705731e+03,3.660210e+03
1.706695e+03,3.650651e+03
1.707659e+03,3.644694e+03
1.708623e+03,3.650344e+03
1.709588e+03,3.649703e+03
1.710552e+03,3.637460e+03
1.711516e+03,3.623369e+03
1.712480e+03,3.614999e+03
1.713444e+03,3.611582e+03
1.714409e+03,3.617620e+03
1.715373e+03,3.627521e+03
1.716337e+03,3.632059e+03
1.717301e+03,3.632037e+03
1.718266e+03,3.625742e+03
1.719230e+03,3.612626e+03
1.720194e+03,3.607019e+03
1.721158e+03,3.613334e+03
1.722123e+03,3.618208e+03
1.723087e+03,3.610040e+03
1.724051e+03,3.600314e+03
1.725015e+03,3.595083e+03
1.725979e+03,3.593031e+03
1.726944e+03,3.590590e+03
1.727908e+03,3.588245e+03
1.728872e+03,3.588624e+03
1.729836e+03,3.589914e+03
1.730801e+03,3.590039e+03
1.731765e+03,3.589070e+03
1.732729e+03,3.586437e+03
1.733693e+03,3.580406e+03
1.734658e+03,3.578516e+03
1.735622e+03,3.585332e+03
1.736586e+03,3.593635e+03
1.737550e+03,3.595441e+03
1.738515e+03,3.591204e+03
1.739479e+03,3.578011e+03
1.740443e+03,3.558689e+03
1.741407e+03,3.548344e+03
1.742371e+03,3.547740e+03
1.743336e+03,3.552505e+03
1.744300e+03,3.561704e+03
1.745264e+03,3.566247e+03
1.746228e+03,3.558101e+03
1.747193e+03,3.550326e+03
1.748157e+03,3.552184e+03
1.749121e+03,3.557448e+03
1.750085e+03,3.557931e+03
1.751050e+03,3.552762e+03
1.752014e+03,3.549570e+03
1.752978e+03,3.548434e+03
1.753942e+03,3.548118e+03
1.754906e+03,3.547726e+03
1.755871e+03,3.541939e+03
1.756835e+03,3.520393e+03
1.757799e+03,3.514451e+03
1.758763e+03,3.535921e+03
1.759728e+03,3.558733e+03
1.760692e+03,3.553583e+03
1.761656e+03,3.540895e+03
1.762620e+03,3.539088e+03
1.763585e+03,3.541292e+03
1.764549e+03,3.536082e+03
1.765513e+03,3.522215e+03
1.766477e+03,3.515429e+03
1.767442e+03,3.515735e+03
1.768406e+03,3.517962e+03
1.769370e+03,3.521235e+03
1.770334e+03,3.523677e+03
1.771298e+03,3.518179e+03
1.772263e+03,3.518149e+03
1.773227e+03,3.532297e+03
1.774191e+03,3.544470e+03
1.775155e+03,3.524343e+03
1.776120e+03,3.492755e+03
1.777084e+03,3.481569e+03
1.778048e+03,3.486874e+03
1.779012e+03,3.494229e+03
1.779977e+03,3.504839e+03
1.780941e+03,3.508529e+03
1.781905e+03,3.503881e+03
1.782869e+03,3.497816e+03
1.783833e+03,3.493358e+03
1.784798e+03,3.489542e+03
1.785762e+03,3.488034e+03
1.786726e+03,3.482541e+03
1.787690e+03,3.467730e+03
1.788655e+03,3.452681e+03
1.789619e+03,3.457371e+03
1.790583e+03,3.472038e+03
1.791547e+03,3.475765e+03
1.792512e+03,3.469403e+03
1.793476e+03,3.464035e+03
1.794440e+03,3.459381e+03
1.795404e+03,3.456537e+03
1.796369e+03,3.454448e+03
1.797333e+03,3.453097e+03
1.798297e+03,3.453772e+03
1.799261e+03,3.454283e+03
1.800225e+03,3.449702e+03
1.801190e+03,3.445882e+03
1.802154e+03,3.449932e+03
1.803118e+03,3.456056e+03
1.804082e+03,3.447899e+03
1.805047e+03,3.433156e+03
1.806011e+03,3.427892e+03
1.806975e+03,3.432643e+03
1.807939e+03,3.433564e+03
1.808904e+03,3.425218e+03
1.809868e+03,3.422773e+03
1.810832e+03,3.429061e+03
1.811796e+03,3.436113e+03
1.812760e+03,3.439114e+03
1.813725e+03,3.438161e+03
1.814689e+03,3.427269e+03
1.815653e+03,3.419545e+03
1.816617e+03,3.428655e+03
1.817582e+03,3.445817e+03
1.818546e+03,3.439777e+03
1.819510e+03,3.419208e+03
1.820474e+03,3.401468e+03
1.821439e+03,3.390440e+03
1.822403e+03,3.392391e+03
1.823367e+03,3.412287e+03
1.824331e+03,3.420320e+03
1.825296e+03,3.410606e+03
1.826260e+03,3.394790e+03
1.827224e+03,3.374584e+03
1.828188e+03,3.366198e+03
1.829152e+03,3.385252e+03
1.830117e+03,3.408810e+03
1.831081e+03,3.419729e+03
1.832045e+03,3.419667e+03
1.833009e+03,3.413103e+03
1.833974e+03,3.406337e+03
1.834938e+03,3.408402e+03
1.835902e+03,3.420889e+03
1.836866e+03,3.415067e+03
1.837831e+03,3.388941e+03
1.838795e+03,3.369287e+03
1.839759e+03,3.363237e+03
1.840723e+03,3.363495e+03
1.841688e+03,3.366039e+03
1.842652e+03,3.369632e+03
1.843616e+03,3.372600e+03
1.844580e+03,3.373924e+03
1.845544e+03,3.376123e+03
1.846509e+03,3.376840e+03
1.847473e+03,3.365260e+03
1.848437e+03,3.350475e+03
1.849401e+03,3.353287e+03
1.850366e+03,3.374352e+03
1.851330e+03,3.377351e+03
1.852294e+03,3.365288e+03
1.853258e+03,3.354862e+03
1.854223e+03,3.350148e+03
1.855187e+03,3.347156e+03
1.856151e+03,3.343333e+03
1.857115e+03,3.338372e+03
1.858079e+03,3.330208e+03
1.859044e+03,3.326417e+03
1.860008e+03,3.345986e+03
1.860972e+03,3.366413e+03
1.861936e+03,3.358086e+03
1.862901e+03,3.340019e+03
1.863865e+03,3.340835e+03
1.864829e+03,3.354445e+03
1.865793e+03,3.345209e+03
1.866758e+03,3.321953e+03
1.867722e+03,3.307828e+03
1.868686e+03,3.309563e+03
1.869650e+03,3.311975e+03
1.870615e+03,3.312736e+03
1.871579e+03,3.314993e+03
1.872543e+03,3.322068e+03
1.873507e+03,3.325332e+03
1.874471e+03,3.304052e+03
1.875436e+03,3.287378e+03
1.876400e+03,3.292995e+03
1.877364e+03,3.306293e+03
1.878328e+03,3.313333e+03
1.879293e+03,3.314150e+03
1.880257e+03,3.304492e+03
1.881221e+03,3.288750e+03
1.882185e+03,3.278303e+03
1.883150e+03,3.274625e+03
1.884114e+03,3.268319e+03
1.885078e+03,3.259635e+03
1.886042e+03,3.258095e+03
1.887006e+03,3.267649e+03
1.887971e+03,3.272835e+03
1.888935e+03,3.267371e+03
1.889899e+03,3.267210e+03
1.890863e+03,3.275463e+03
1.891828e+03,3.280724e+03
1.892792e+03,3.270050e+03
1.893756e+03,3.256611e+03
1.894720e+03,3.251339e+03
1.895685e+03,3.253975e+03
1.896649e+03,3.265246e+03
1.897613e+03,3.279094e+03
1.898577e+03,3.280095e+03
1.899542e+03,3.271298e+03
1.900506e+03,3.255749e+03
1.901470e+03,3.232222e+03
1.902434e+03,3.221082e+03
1.903398e+03,3.222234e+03
1.904363e+03,3.231247e+03
1.905327e+03,3.248520e+03
1.906291e+03,3.259854e+03
1.907255e+03,3.251635e+03
1.908220e+03,3.241547e+03
1.909184e+03,3.231823e+03
1.910148e+03,3.225016e+03
1.911112e+03,3.226803e+03
1.912077e+03,3.232414e+03
1.913041e+03,3.242158e+03
1.914005e+03,3.248910e+03
1.914969e+03,3.244298e+03
1.915933e+03,3.231133e+03
1.916898e+03,3.214492e+03
1.917862e+03,3.199371e+03
1.918826e+03,3.196427e+03
1.919790e+03,3.208711e+03
1.920755e+03,3.216020e+03
1.921719e+03,3.216658e+03
1.922683e+03,3.213345e+03
1.923647e+03,3.207719e+03
1.924612e+03,3.202190e+03
1.925576e+03,3.194415e+03
1.926540e+03,3.193747e+03
1.927504e+03,3.200677e+03
1.928469e+03,3.207989e+03
1.929433e+03,3.212146e+03
1.930397e+03,3.210179e+03
1.931361e+03,3.193975e+03
1.932325e+03,3.177005e+03
1.933290e+03,3.172218e+03
1.934254e+03,3.176365e+03
1.935218e+03,3.176836e+03
1.936182e+03,3.172985e+03
1.937147e+03,3.166566e+03
1.938111e+03,3.159901e+03
1.939075e+03,3.161082e+03
1.940039e+03,3.170281e+03
1.941004e+03,3.179980e+03
1.941968e+03,3.186736e+03
1.942932e+03,3.187321e+03
1.943896e+03,3.181190e+03
1.944860e+03,3.170948e+03
1.945825e+03,3.157827e+03
1.946789e+03,3.149860e+03
1.947753e+03,3.153068e+03
1.948717e+03,3.159590e+03
1.949682e+03,3.168765e+03
1.950646e+03,3.174570e+03
1.951610e+03,3.172635e+03
1.952574e+03,3.166891e+03
1.953539e+03,3.160617e+03
1.954503e+03,3.155513e+03
1.955467e+03,3.155726e+03
1.956431e+03,3.158666e+03
1.957396e+03,3.153384e+03
1.958360e+03,3.143673e+03
1.959324e+03,3.143912e+03
1.960288e+03,3.153228e+03
1.961252e+03,3.149354e+03
1.962217e+03,3.127928e+03
1.963181e+03,3.117102e+03
1.964145e+03,3.117058e+03
1.965109e+03,3.119359e+03
1.966074e+03,3.124659e+03
1.967038e+03,3.125425e+03
1.968002e+03,3.116219e+03
1.968966e+03,3.112128e+03
1.969931e+03,3.123499e+03
1.970895e+03,3.133321e+03
1.971859e+03,3.129956e+03
1.972823e+03,3.127124e+03
1.973787e+03,3.131066e+03
1.974752e+03,3.132413e+03
1.975716e+03,3.110111e+03
1.976680e+03,3.085651e+03
1.977644e+03,3.092857e+03
1.978609e+03,3.113244e+03
1.979573e+03,3.109365e+03
1.980537e+03,3.089704e+03
1.981501e+03,3.087627e+03
1.982466e+03,3.098213e+03
1.983430e+03,3.103745e+03
1.984394e+03,3.101851e+03
1.985358e+03,3.094048e+03
1.986323e+03,3.081365e+03
1.987287e+03,3.073337e+03
1.988251e+03,3.073339e+03
1.989215e+03,3.072444e+03
1.990179e+03,3.070420e+03
1.991144e+03,3.066868e+03
1.992108e+03,3.062685e+03
1.993072e+03,3.058733e+03
1.994036e+03,3.051132e+03
1.995001e+03,3.048003e+03
1.995965e+03,3.051463e+03
1.996929e+03,3.059797e+03
1.997893e+03,3.076523e+03
1.998858e+03,3.087597e+03
1.999822e+03,3.072969e+03
2.000786e+03,3.053934e+03
2.001750e+03,3.052283e+03
2.002714e+03,3.061874e+03
2.003679e+03,3.064933e+03
2.004643e+03,3.063057e+03
2.005607e+03,3.060771e+03
2.006571e+03,3.058606e+03
2.007536e+03,3.051569e+03
2.008500e+03,3.042298e+03
2.009464e+03,3.039676e+03
2.010428e+03,3.044313e+03
2.011393e+03,3.040566e+03
2.012357e+03,3.026292e+03
2.013321e+03,3.024449e+03
2.014285e+03,3.033547e+03
2.015250e+03,3.039489e+03
2.016214e+03,3.036279e+03
2.017178e+03,3.026212e+03
2.018142e+03,3.009255e+03
2.019106e+03,2.997445e+03
2.020071e+03,2.996894e+03
2.021035e+03,3.001681e+03
2.021999e+03,3.012078e+03
2.022963e+03,3.020675e+03
2.023928e+03,3.027623e+03
2.024892e+03,3.027289e+03
2.025856e+03,3.002610e+03
2.026820e+03,2.980085e+03
2.027785e+03,2.975588e+03
2.028749e+03,2.981089e+03
2.029713e+03,2.992582e+03
2.030677e+03,3.003905e+03
2.031641e+03,3.003095e+03
2.032606e+03,2.996290e+03
2.033570e+03,2.995281e+03
2.034534e+03,2.997663e+03
2.035498e+03,2.994535e+03
2.036463e+03,2.988817e+03
2.037427e+03,2.987605e+03
2.038391e+03,2.992523e+03
2.039355e+03,2.987419e+03
2.040320e+03,2.975138e+03
2.041284e+03,2.964184e+03
2.042248e+03,2.955412e+03
2.043212e+03,2.956512e+03
2.044177e+03,2.969644e+03
2.045141e+03,2.974082e+03
2.046105e+03,2.966354e+03
2.047069e+03,2.961031e+03
2.048033e+03,2.965577e+03
2.048998e+03,2.969415e+03
2.049962e+03,2.973032e+03
2.050926e+03,2.972769e+03
2.051890e+03,2.959711e+03
2.052854e+03,2.953076e+03
2.053819e+03,2.960848e+03
2.054783e+03,2.962714e+03
2.055747e+03,2.947799e+03
2.056711e+03,2.931296e+03
2.057676e+03,2.924156e+03
2.058640e+03,2.925032e+03
2.059604e+03,2.932552e+03
2.060568e+03,2.939913e+03
2.061533e+03,2.937906e+03
2.062497e+03,2.933189e+03
2.063461e+03,2.930995e+03
2.064425e+03,2.931521e+03
2.065390e+03,2.937595e+03
2.066354e+03,2.944484e+03
2.067318e+03,2.943521e+03
2.068282e+03,2.938462e+03
2.069247e+03,2.937798e+03
2.070211e+03,2.938646e+03
2.071175e+03,2.922723e+03
2.072139e+03,2.898359e+03
2.073104e+03,2.883783e+03
2.074068e+03,2.881093e+03
2.075032e+03,2.892533e+03
2.075996e+03,2.912041e+03
2.076960e+03,2.915875e+03
2.077925e+03,2.899330e+03
2.078889e+03,2.889942e+03
2.079853e+03,2.889410e+03
2.080817e+03,2.898420e+03
2.081782e+03,2.915366e+03
2.082746e+03,2.917130e+03
2.083710e+03,2.887945e+03
2.084674e+03,2.870055e+03
2.085639e+03,2.867336e+03
2.086603e+03,2.869728e+03
2.087567e+03,2.868349e+03
2.088531e+03,2.866556e+03
2.089496e+03,2.862330e+03
2.090460e+03,2.864350e+03
2.091424e+03,2.887417e+03
2.092388e+03,2.900768e+03
2.093353e+03,2.868513e+03
2.094317e+03,2.847907e+03
2.095281e+03,2.855163e+03
2.096245e+03,2.867687e+03
2.097209e+03,2.866526e+03
2.098174e+03,2.858683e+03
2.099138e+03,2.847490e+03
2.100102e+03,2.838204e+03
2.101066e+03,2.838573e+03
2.102031e+03,2.840440e+03
2.102995e+03,2.836251e+03
2.103959e+03,2.830079e+03
2.104923e+03,2.821611e+03
2.105887e+03,2.818948e+03
2.106852e+03,2.836312e+03
2.107816e+03,2.857227e+03
2.108780e+03,2.868571e+03
2.109744e+03,2.869720e+03
2.110708e+03,2.856565e+03
2.111673e+03,2.838763e+03
2.112637e+03,2.825634e+03
2.113601e+03,2.815811e+03
2.114565e+03,2.811200e+03
2.115530e+03,2.809958e+03
2.116494e+03,2.807786e+03
2.117458e+03,2.808271e+03
2.118422e+03,2.810973e+03
2.119387e+03,2.813885e+03
2.120351e+03,2.821640e+03
2.121315e+03,2.831065e+03
2.122279e+03,2.839120e+03
2.123244e+03,2.845430e+03
2.124208e+03,2.836850e+03
2.125172e+03,2.818883e+03
2.126136e+03,2.807350e+03
2.127101e+03,2.806939e+03
2.128065e+03,2.798425e+03
2.129029e+03,2.783132e+03
2.129993e+03,2.777555e+03
2.130958e+03,2.782260e+03
2.131922e+03,2.787157e+03
2.132886e+03,2.792540e+03
2.133850e+03,2.787728e+03
2.134814e+03,2.775294e+03
2.135779e+03,2.772600e+03
2.136743e+03,2.789679e+03
2.137707e+03,2.792743e+03
2.138671e+03,2.781957e+03
2.139636e+03,2.773281e+03
2.140600e+03,2.777798e+03
2.141564e+03,2.775840e+03
2.142528e+03,2.766270e+03
2.143493e+03,2.760392e+03
2.144457e+03,2.763624e+03
2.145421e+03,2.758598e+03
2.146385e+03,2.737897e+03
2.147350e+03,2.727355e+03
2.148314e+03,2.736276e+03
2.149278e+03,2.750639e+03
2.150242e+03,2.762524e+03
2.151207e+03,2.767793e+03
2.152171e+03,2.764323e+03
2.153135e+03,2.758610e+03
2.154099e+03,2.764185e+03
2.155063e+03,2.760719e+03
2.156028e+03,2.742849e+03
2.156992e+03,2.727233e+03
2.157956e+03,2.719611e+03
2.158920e+03,2.720649e+03
2.159885e+03,2.736763e+03
2.160849e+03,2.744996e+03
2.161813e+03,2.730719e+03
2.162777e+03,2.713624e+03
2.163741e+03,2.712802e+03
2.164706e+03,2.712544e+03
2.165670e+03,2.709996e+03
2.166634e+03,2.707269e+03
2.167598e+03,2.697793e+03
2.168563e+03,2.697741e+03
2.169527e+03,2.714645e+03
2.170491e+03,2.729165e+03
2.171455e+03,2.722030e+03
2.172420e+03,2.709717e+03
2.173384e+03,2.701127e+03
2.174348e+03,2.697070e+03
2.175312e+03,2.700970e+03
2.176277e+03,2.703629e+03
2.177241e+03,2.692429e+03
2.178205e+03,2.681972e+03
2.179169e+03,2.684694e+03
2.180134e+03,2.691957e+03
2.181098e+03,2.689478e+03
2.182062e+03,2.684844e+03
2.183026e+03,2.681280e+03
2.183990e+03,2.677663e+03
2.184955e+03,2.671501e+03
2.185919e+03,2.666674e+03
2.186883e+03,2.664654e+03
2.187847e+03,2.664744e+03
2.188812e+03,2.671835e+03
2.189776e+03,2.678342e+03
2.190740e+03,2.671537e+03
2.191704e+03,2.660654e+03
2.192668e+03,2.655191e+03
2.193633e+03,2.652787e+03
2.194597e+03,2.647817e+03
2.195561e+03,2.646786e+03
2.196525e+03,2.656491e+03
2.197490e+03,2.667887e+03
2.198454e+03,2.663263e+03
2.199418e+03,2.653826e+03
2.200382e+03,2.651226e+03
2.201347e+03,2.652343e+03
2.202311e+03,2.646543e+03
2.203275e+03,2.640988e+03
2.204239e+03,2.641860e+03
2.205204e+03,2.644267e+03
2.206168e+03,2.650221e+03
2.207132e+03,2.653791e+03
2.208096e+03,2.638302e+03
2.209061e+03,2.619328e+03
2.210025e+03,2.618547e+03
2.210989e+03,2.624843e+03
2.211953e+03,2.621944e+03
2.212917e+03,2.620213e+03
2.213882e+03,2.622505e+03
2.214846e+03,2.625340e+03
2.215810e+03,2.626868e+03
2.216774e+03,2.625390e+03
2.217739e+03,2.625148e+03
2.218703e+03,2.625376e+03
2.219667e+03,2.624023e+03
2.220631e+03,2.620151e+03
2.221595e+03,2.609239e+03
2.222560e+03,2.597971e+03
2.223524e+03,2.599929e+03
2.224488e+03,2.603934e+03
2.225452e+03,2.596804e+03
2.226417e+03,2.586824e+03
2.227381e+03,2.576677e+03
2.228345e+03,2.573304e+03
2.229309e+03,2.589708e+03
2.230274e+03,2.608664e+03
2.231238e+03,2.618809e+03
2.232202e+03,2.619044e+03
2.233166e+03,2.603293e+03
2.234131e+03,2.586886e+03
2.235095e+03,2.579589e+03
2.236059e+03,2.579023e+03
2.237023e+03,2.586029e+03
2.237988e+03,2.590972e+03
2.238952e+03,2.586842e+03
2.239916e+03,2.575960e+03
2.240880e+03,2.557106e+03
2.241844e+03,2.543997e+03
2.242809e+03,2.548194e+03
2.243773e+03,2.557380e+03
2.244737e+03,2.559840e+03
2.245701e+03,2.558266e+03
2.246666e+03,2.553378e+03
2.247630e+03,2.546667e+03
2.248594e+03,2.539311e+03
2.249558e+03,2.537333e+03
2.250522e+03,2.546292e+03
2.251487e+03,2.562113e+03
2.252451e+03,2.584530e+03
2.253415e+03,2.598163e+03
2.254379e+03,2.586161e+03
2.255344e+03,2.568419e+03
2.256308e+03,2.552224e+03
2.257272e+03,2.539983e+03
2.258236e+03,2.537824e+03
2.259201e+03,2.533670e+03
2.260165e+03,2.520882e+03
2.261129e+03,2.510976e+03
2.262093e+03,2.518636e+03
2.263058e+03,2.522565e+03
2.264022e+03,2.518132e+03
2.264986e+03,2.515306e+03
2.265950e+03,2.523534e+03
2.266915e+03,2.521874e+03
2.267879e+03,2.498944e+03
2.268843e+03,2.483978e+03
2.269807e+03,2.497247e+03
2.270771e+03,2.506708e+03
2.271736e+03,2.498883e+03
2.272700e+03,2.495475e+03
2.273664e+03,2.499569e+03
2.274628e+03,2.508219e+03
2.275593e+03,2.525840e+03
2.276557e+03,2.523118e+03
2.277521e+03,2.496969e+03
2.278485e+03,2.482297e+03
2.279449e+03,2.507388e+03
2.280414e+03,2.512335e+03
2.281378e+03,2.493836e+03
2.282342e+03,2.476165e+03
2.283306e+03,2.468519e+03
2.284271e+03,2.462857e+03
2.285235e+03,2.458635e+03
2.286199e+03,2.456576e+03
2.287163e+03,2.461063e+03
2.288128e+03,2.468315e+03
2.289092e+03,2.475742e+03
2.290056e+03,2.482709e+03
2.291020e+03,2.489492e+03
2.291985e+03,2.479162e+03
2.292949e+03,2.456854e+03
2.293913e+03,2.452014e+03
2.294877e+03,2.465030e+03
2.295842e+03,2.468765e+03
2.296806e+03,2.462469e+03
2.297770e+03,2.463096e+03
2.298734e+03,2.468563e+03
2.299698e+03,2.466663e+03
2.300663e+03,2.459448e+03
2.301627e+03,2.463027e+03
2.302591e+03,2.469538e+03
2.303555e+03,2.460161e+03
2.304520e+03,2.440265e+03
2.305484e+03,2.432820e+03
2.306448e+03,2.433505e+03
2.307412e+03,2.433958e+03
2.308376e+03,2.433007e+03
2.309341e+03,2.432898e+03
2.310305e+03,2.430599e+03
2.311269e+03,2.422399e+03
2.312233e+03,2.413215e+03
2.313198e+03,2.403749e+03
2.314162e+03,2.399280e+03
2.315126e+03,2.412132e+03
2.316090e+03,2.425691e+03
2.317055e+03,2.419602e+03
2.318019e+03,2.411137e+03
2.318983e+03,2.417088e+03
2.319947e+03,2.421750e+03
2.320912e+03,2.413630e+03
2.321876e+03,2.404788e+03
2.322840e+03,2.404787e+03
2.323804e+03,2.403662e+03
2.324769e+03,2.395716e+03
2.325733e+03,2.392517e+03
2.326697e+03,2.406877e+03
2.327661e+03,2.411865e+03
2.328625e+03,2.395522e+03
2.329590e+03,2.382171e+03
2.330554e+03,2.395763e+03
2.331518e+03,2.396542e+03
2.332482e+03,2.377390e+03
2.333447e+03,2.369286e+03
2.334411e+03,2.399179e+03
2.335375e+03,2.404709e+03
2.336339e+03,2.383438e+03
2.337303e+03,2.364567e+03
2.338268e+03,2.356528e+03
2.339232e+03,2.357407e+03
2.340196e+03,2.366531e+03
2.341160e+03,2.376302e+03
2.342125e+03,2.385249e+03
2.343089e+03,2.381895e+03
2.344053e+03,2.367241e+03
2.345017e+03,2.357835e+03
2.345982e+03,2.356691e+03
2.346946e+03,2.359816e+03
2.347910e+03,2.366359e+03
2.348874e+03,2.368955e+03
2.349839e+03,2.365223e+03
2.350803e+03,2.353375e+03
2.351767e+03,2.340704e+03
2.352731e+03,2.343666e+03
2.353696e+03,2.353604e+03
2.354660e+03,2.353433e+03
2.355624e+03,2.347495e+03
2.356588e+03,2.343026e+03
2.357552e+03,2.341921e+03
2.358517e+03,2.347697e+03
2.359481e+03,2.354052e+03
2.360445e+03,2.351449e+03
2.361409e+03,2.345928e+03
2.362374e+03,2.340512e+03
2.363338e+03,2.334201e+03
2.364302e+03,2.328886e+03
2.365266e+03,2.326719e+03
2.366230e+03,2.326526e+03
2.367195e+03,2.327521e+03
2.368159e+03,2.329471e+03
2.369123e+03,2.328462e+03
2.370087e+03,2.326028e+03
2.371052e+03,2.322413e+03
2.372016e+03,2.317270e+03
2.372980e+03,2.311699e+03
2.373944e+03,2.305567e+03
2.374909e+03,2.308242e+03
2.375873e+03,2.327678e+03
2.376837e+03,2.329981e+03
2.377801e+03,2.319570e+03
2.378766e+03,2.315097e+03
2.379730e+03,2.318392e+03
2.380694e+03,2.306715e+03
2.381658e+03,2.288878e+03
2.382623e+03,2.285188e+03
2.383587e+03,2.291203e+03
2.384551e+03,2.292485e+03
2.385515e+03,2.290117e+03
2.386479e+03,2.287948e+03
2.387444e+03,2.286633e+03
2.388408e+03,2.286699e+03
2.389372e+03,2.289332e+03
2.390336e+03,2.295161e+03
2.391301e+03,2.300900e+03
2.392265e+03,2.305821e+03
2.393229e+03,2.303144e+03
2.394193e+03,2.286346e+03
2.395157e+03,2.272271e+03
2.396122e+03,2.274374e+03
2.397086e+03,2.276592e+03
2.398050e+03,2.274275e+03
2.399014e+03,2.272795e+03
2.399979e+03,2.274388e+03
2.400943e+03,2.271729e+03
2.401907e+03,2.262556e+03
2.402871e+03,2.261481e+03
2.403836e+03,2.272660e+03
2.404800e+03,2.277198e+03
2.405764e+03,2.273544e+03
2.406728e+03,2.271106e+03
2.407693e+03,2.269083e+03
2.408657e+03,2.263447e+03
2.409621e+03,2.257352e+03
2.410585e+03,2.264565e+03
2.411550e+03,2.276633e+03
2.412514e+03,2.270332e+03
2.413478e+03,2.253331e+03
2.414442e+03,2.243506e+03
2.415406e+03,2.240655e+03
2.416371e+03,2.246216e+03
2.417335e+03,2.251440e+03
2.418299e+03,2.236765e+03
2.419263e+03,2.225251e+03
2.420228e+03,2.229672e+03
2.421192e+03,2.238440e+03
2.422156e+03,2.246747e+03
2.423120e+03,2.246757e+03
2.424084e+03,2.232907e+03
2.425049e+03,2.225271e+03
2.426013e+03,2.245870e+03
2.426977e+03,2.245035e+03
2.427941e+03,2.221018e+03
2.428906e+03,2.209190e+03
2.429870e+03,2.219688e+03
2.430834e+03,2.222193e+03
2.431798e+03,2.217367e+03
2.432763e+03,2.207584e+03
2.433727e+03,2.194144e+03
2.434691e+03,2.196456e+03
2.435655e+03,2.206454e+03
2.436620e+03,2.208059e+03
2.437584e+03,2.203616e+03
2.438548e+03,2.198426e+03
2.439512e+03,2.195265e+03
2.440477e+03,2.196255e+03
2.441441e+03,2.196698e+03
2.442405e+03,2.192067e+03
2.443369e+03,2.188455e+03
2.444333e+03,2.189579e+03
2.445298e+03,2.192670e+03
2.446262e+03,2.199043e+03
2.447226e+03,2.194870e+03
2.448190e+03,2.178692e+03
2.449155e+03,2.169296e+03
2.450119e+03,2.185787e+03
2.451083e+03,2.195341e+03
2.452047e+03,2.197124e+03
2.453011e+03,2.191793e+03
2.453976e+03,2.179774e+03
2.454940e+03,2.184152e+03
2.455904e+03,2.198795e+03
2.456868e+03,2.196804e+03
2.457833e+03,2.182056e+03
2.458797e+03,2.174636e+03
2.459761e+03,2.172638e+03
2.460725e+03,2.172159e+03
2.461690e+03,2.172111e+03
2.462654e+03,2.173300e+03
2.463618e+03,2.172022e+03
2.464582e+03,2.166977e+03
2.465547e+03,2.162684e+03
2.466511e+03,2.157508e+03
2.467475e+03,2.157232e+03
2.468439e+03,2.162792e+03
2.469404e+03,2.169033e+03
2.470368e+03,2.180249e+03
2.471332e+03,2.181513e+03
2.472296e+03,2.171795e+03
2.473260e+03,2.156407e+03
2.474225e+03,2.136446e+03
2.475189e+03,2.128352e+03
2.476153e+03,2.130593e+03
2.477117e+03,2.133955e+03
2.478082e+03,2.137712e+03
2.479046e+03,2.150874e+03
2.480010e+03,2.161779e+03
2.480974e+03,2.153102e+03
2.481938e+03,2.138831e+03
2.482903e+03,2.136253e+03
2.483867e+03,2.136177e+03
2.484831e+03,2.132129e+03
2.485795e+03,2.129664e+03
2.486760e+03,2.142135e+03
2.487724e+03,2.141012e+03
2.488688e+03,2.122553e+03
2.489652e+03,2.110672e+03
2.490617e+03,2.118569e+03
2.491581e+03,2.128024e+03
2.492545e+03,2.138298e+03
2.493509e+03,2.136874e+03
2.494474e+03,2.122263e+03
2.495438e+03,2.114822e+03
2.496402e+03,2.115626e+03
2.497366e+03,2.135983e+03
2.498331e+03,2.158757e+03
2.499295e+03,2.145160e+03
2.500259e+03,2.122746e+03
2.501223e+03,2.119062e+03
2.502188e+03,2.119465e+03
2.503152e+03,2.102970e+03
2.504116e+03,2.096378e+03
2.505080e+03,2.108099e+03
2.506044e+03,2.118708e+03
2.507009e+03,2.114281e+03
2.507973e+03,2.103486e+03
2.508937e+03,2.089073e+03
2.509901e+03,2.084430e+03
2.510865e+03,2.092786e+03
2.511830e+03,2.094263e+03
2.512794e+03,2.090893e+03
2.513758e+03,2.095312e+03
2.514722e+03,2.104463e+03
2.515687e+03,2.104771e+03
2.516651e+03,2.099049e+03
2.517615e+03,2.089650e+03
2.518579e+03,2.080539e+03
2.519544e+03,2.080655e+03
2.520508e+03,2.073952e+03
2.521472e+03,2.053781e+03
2.522436e+03,2.040389e+03
2.523401e+03,2.053413e+03
2.524365e+03,2.068553e+03
2.525329e+03,2.082070e+03
2.526293e+03,2.085200e+03
2.527258e+03,2.077237e+03
2.528222e+03,2.074641e+03
2.529186e+03,2.075466e+03
2.530150e+03,2.072711e+03
2.531115e+03,2.069082e+03
2.532079e+03,2.073349e+03
2.533043e+03,2.077265e+03
2.534007e+03,2.070682e+03
2.534971e+03,2.060030e+03
2.535936e+03,2.056864e+03
2.536900e+03,2.053361e+03
2.537864e+03,2.045890e+03
2.538828e+03,2.042287e+03
2.539792e+03,2.043721e+03
2.540757e+03,2.047406e+03
2.541721e+03,2.052771e+03
2.542685e+03,2.059321e+03
2.543649e+03,2.067425e+03
2.544614e+03,2.068912e+03
2.545578e+03,2.063647e+03
2.546542e+03,2.056990e+03
2.547506e+03,2.051544e+03
2.548471e+03,2.053114e+03
2.549435e+03,2.055959e+03
2.550399e+03,2.056792e+03
2.551363e+03,2.052984e+03
2.552328e+03,2.039482e+03
2.553292e+03,2.033312e+03
2.554256e+03,2.042002e+03
2.555220e+03,2.052449e+03
2.556185e+03,2.061435e+03
2.557149e+03,2.058401e+03
2.558113e+03,2.042402e+03
2.559077e+03,2.041618e+03
2.560042e+03,2.050166e+03
2.561006e+03,2.049934e+03
2.561970e+03,2.044401e+03
2.562934e+03,2.034441e+03
2.563898e+03,2.023366e+03
2.564863e+03,2.012669e+03
2.565827e+03,2.004319e+03
2.566791e+03,2.004263e+03
2.567755e+03,2.010488e+03
2.568719e+03,2.019924e+03
2.569684e+03,2.020926e+03
2.570648e+03,2.004575e+03
2.571612e+03,2.000416e+03
2.572576e+03,2.008929e+03
2.573541e+03,2.018779e+03
2.574505e+03,2.024596e+03
2.575469e+03,2.018693e+03
2.576433e+03,2.006254e+03
2.577398e+03,1.995583e+03
2.578362e+03,1.989925e+03
2.579326e+03,1.996596e+03
2.580290e+03,2.007779e+03
2.581255e+03,2.020002e+03
2.582219e+03,2.023022e+03
2.583183e+03,2.001418e+03
2.584147e+03,1.988491e+03
2.585112e+03,1.987922e+03
2.586076e+03,1.987056e+03
2.587040e+03,1.983276e+03
2.588004e+03,1.983578e+03
2.588969e+03,1.986162e+03
2.589933e+03,1.990873e+03
2.590897e+03,1.996482e+03
2.591861e+03,1.999559e+03
2.592825e+03,2.003574e+03
2.593790e+03,2.011786e+03
2.594754e+03,2.012332e+03
2.595718e+03,1.992463e+03
2.596682e+03,1.980016e+03
2.597646e+03,1.979722e+03
2.598611e+03,1.984568e+03
2.599575e+03,1.993583e+03
2.600539e+03,1.992821e+03
2.601503e+03,1.983314e+03
2.602468e+03,1.979660e+03
2.603432e+03,1.978812e+03
2.604396e+03,1.979905e+03
2.605360e+03,1.979288e+03
2.606325e+03,1.964691e+03
2.607289e+03,1.959772e+03
2.608253e+03,1.978069e+03
2.609217e+03,1.984107e+03
2.610182e+03,1.950068e+03
2.611146e+03,1.938164e+03
2.612110e+03,1.948789e+03
2.613074e+03,1.955776e+03
2.614039e+03,1.956319e+03
2.615003e+03,1.949550e+03
2.615967e+03,1.942154e+03
2.616931e+03,1.953006e+03
2.617896e+03,1.963797e+03
2.618860e+03,1.935209e+03
2.619824e+03,1.925585e+03
2.620788e+03,1.957054e+03
2.621752e+03,1.981309e+03
2.622717e+03,1.969930e+03
2.623681e+03,1.954912e+03
2.624645e+03,1.939075e+03
2.625609e+03,1.937377e+03
2.626573e+03,1.947210e+03
2.627538e+03,1.951977e+03
2.628502e+03,1.951804e+03
2.629466e+03,1.944164e+03
2.630430e+03,1.935236e+03
2.631395e+03,1.932217e+03
2.632359e+03,1.932520e+03
2.633323e+03,1.937695e+03
2.634287e+03,1.936784e+03
2.635252e+03,1.928567e+03
2.636216e+03,1.926842e+03
2.637180e+03,1.932497e+03
2.638144e+03,1.934477e+03
2.639109e+03,1.932722e+03
2.640073e+03,1.927242e+03
2.641037e+03,1.926570e+03
2.642001e+03,1.948745e+03
2.642966e+03,1.958496e+03
2.643930e+03,1.934122e+03
2.644894e+03,1.911001e+03
2.645858e+03,1.916032e+03
2.646823e+03,1.919670e+03
2.647787e+03,1.918915e+03
2.648751e+03,1.919181e+03
2.649715e+03,1.920131e+03
2.650679e+03,1.910089e+03
2.651644e+03,1.899771e+03
2.652608e+03,1.907274e+03
2.653572e+03,1.917956e+03
2.654536e+03,1.908130e+03
2.655500e+03,1.899303e+03
2.656465e+03,1.899596e+03
2.657429e+03,1.902047e+03
2.658393e+03,1.903454e+03
2.659357e+03,1.893141e+03
2.660322e+03,1.875223e+03
2.661286e+03,1.870829e+03
2.662250e+03,1.876799e+03
2.663214e+03,1.887695e+03
2.664179e+03,1.897244e+03
2.665143e+03,1.897830e+03
2.666107e+03,1.897563e+03
2.667071e+03,1.901272e+03
2.668036e+03,1.903899e+03
2.669000e+03,1.899148e+03
2.669964e+03,1.896277e+03
2.670928e+03,1.894621e+03
2.671893e+03,1.889851e+03
2.672857e+03,1.883202e+03
2.673821e+03,1.874204e+03
2.674785e+03,1.866396e+03
2.675750e+03,1.864666e+03
2.676714e+03,1.867160e+03
2.677678e+03,1.876237e+03
2.678642e+03,1.874940e+03
2.679606e+03,1.859107e+03
2.680571e+03,1.855071e+03
2.681535e+03,1.865676e+03
2.682499e+03,1.865829e+03
2.683463e+03,1.857458e+03
2.684427e+03,1.860416e+03
2.685392e+03,1.869103e+03
2.686356e+03,1.874847e+03
2.687320e+03,1.874407e+03
2.688284e+03,1.859333e+03
2.689249e+03,1.853164e+03
2.690213e+03,1.859316e+03
2.691177e+03,1.861633e+03
2.692141e+03,1.856473e+03
2.693106e+03,1.860846e+03
2.694070e+03,1.870318e+03
2.695034e+03,1.872256e+03
2.695998e+03,1.870566e+03
2.696963e+03,1.874555e+03
2.697927e+03,1.874443e+03
2.698891e+03,1.862335e+03
2.699855e+03,1.857051e+03
2.700820e+03,1.872600e+03
2.701784e+03,1.873741e+03
2.702748e+03,1.858656e+03
2.703712e+03,1.852382e+03
2.704677e+03,1.852614e+03
2.705641e+03,1.851202e+03
2.706605e+03,1.850159e+03
2.707569e+03,1.846893e+03
2.708533e+03,1.845609e+03
2.709498e+03,1.848026e+03
2.710462e+03,1.845267e+03
2.711426e+03,1.832262e+03
2.712390e+03,1.831186e+03
2.713354e+03,1.837806e+03
2.714319e+03,1.831716e+03
2.715283e+03,1.818487e+03
2.716247e+03,1.809610e+03
2.717211e+03,1.810975e+03
2.718176e+03,1.827121e+03
2.719140e+03,1.841371e+03
2.720104e+03,1.840415e+03
2.721068e+03,1.840844e+03
2.722033e+03,1.844167e+03
2.722997e+03,1.841537e+03
2.723961e+03,1.833465e+03
2.724925e+03,1.824663e+03
2.725890e+03,1.818926e+03
2.726854e+03,1.820792e+03
2.727818e+03,1.826558e+03
2.728782e+03,1.833063e+03
2.729747e+03,1.830666e+03
2.730711e+03,1.804607e+03
2.731675e+03,1.809935e+03
2.732639e+03,1.838597e+03
2.733604e+03,1.843696e+03
2.734568e+03,1.832946e+03
2.735532e+03,1.831650e+03
2.736496e+03,1.832075e+03
2.737460e+03,1.829458e+03
2.738425e+03,1.826984e+03
2.739389e+03,1.826149e+03
2.740353e+03,1.822657e+03
2.741317e+03,1.817250e+03
2.742281e+03,1.816818e+03
2.743246e+03,1.820081e+03
2.744210e+03,1.816833e+03
2.745174e+03,1.810605e+03
2.746138e+03,1.812217e+03
2.747103e+03,1.812193e+03
2.748067e+03,1.807953e+03
2.749031e+03,1.802732e+03
2.749995e+03,1.795023e+03
2.750960e+03,1.795797e+03
2.751924e+03,1.800848e+03
2.752888e+03,1.794705e+03
2.753852e+03,1.782404e+03
2.754817e+03,1.772214e+03
2.755781e+03,1.772753e+03
2.756745e+03,1.791558e+03
2.757709e+03,1.803684e+03
2.758674e+03,1.799796e+03
2.759638e+03,1.796220e+03
2.760602e+03,1.796193e+03
2.761566e+03,1.797132e+03
2.762531e+03,1.797974e+03
2.763495e+03,1.791737e+03
2.764459e+03,1.784320e+03
2.765423e+03,1.784896e+03
2.766387e+03,1.782640e+03
2.767352e+03,1.776497e+03
2.768316e+03,1.774655e+03
2.769280e+03,1.778209e+03
2.770244e+03,1.790831e+03
2.771208e+03,1.802723e+03
2.772173e+03,1.792594e+03
2.773137e+03,1.773343e+03
2.774101e+03,1.759028e+03
2.775065e+03,1.753495e+03
2.776030e+03,1.759834e+03
2.776994e+03,1.765789e+03
2.777958e+03,1.769189e+03
2.778922e+03,1.777763e+03
2.779887e+03,1.787618e+03
2.780851e+03,1.781018e+03
2.781815e+03,1.773611e+03
2.782779e+03,1.779741e+03
2.783744e+03,1.780721e+03
2.784708e+03,1.758320e+03
2.785672e+03,1.751384e+03
2.786636e+03,1.760072e+03
2.787601e+03,1.756252e+03
2.788565e+03,1.748355e+03
2.789529e+03,1.766904e+03
2.790493e+03,1.785105e+03
2.791458e+03,1.777177e+03
2.792422e+03,1.756931e+03
2.793386e+03,1.731595e+03
2.794350e+03,1.725149e+03
2.795314e+03,1.742310e+03
2.796279e+03,1.767981e+03
2.797243e+03,1.786383e+03
2.798207e+03,1.777645e+03
2.799171e+03,1.758042e+03
2.800135e+03,1.735309e+03
2.801100e+03,1.726714e+03
2.802064e+03,1.739296e+03
2.803028e+03,1.751945e+03
2.803992e+03,1.759742e+03
2.804957e+03,1.750205e+03
2.805921e+03,1.736393e+03
2.806885e+03,1.744217e+03
2.807849e+03,1.750188e+03
2.808814e+03,1.742963e+03
2.809778e+03,1.731641e+03
2.810742e+03,1.718665e+03
2.811706e+03,1.719370e+03
2.812671e+03,1.728329e+03
2.813635e+03,1.730907e+03
2.814599e+03,1.730228e+03
2.815563e+03,1.735272e+03
2.816528e+03,1.740141e+03
2.817492e+03,1.741517e+03
2.818456e+03,1.744275e+03
2.819420e+03,1.746902e+03
2.820385e+03,1.745006e+03
2.821349e+03,1.739634e+03
2.822313e+03,1.721377e+03
2.823277e+03,1.713269e+03
2.824241e+03,1.733075e+03
2.825206e+03,1.745735e+03
2.826170e+03,1.728814e+03
2.827134e+03,1.719689e+03
2.828098e+03,1.720541e+03
2.829063e+03,1.724513e+03
2.830027e+03,1.725324e+03
2.830991e+03,1.704157e+03
2.831955e+03,1.692458e+03
2.832919e+03,1.725945e+03
2.833884e+03,1.740929e+03
2.834848e+03,1.729174e+03
2.835812e+03,1.718771e+03
2.836776e+03,1.714685e+03
2.837741e+03,1.717797e+03
2.838705e+03,1.718664e+03
2.839669e+03,1.704550e+03
2.840633e+03,1.693815e+03
2.841598e+03,1.696585e+03
2.842562e+03,1.704070e+03
2.843526e+03,1.715699e+03
2.844490e+03,1.706981e+03
2.845455e+03,1.690738e+03
2.846419e+03,1.692553e+03
2.847383e+03,1.704327e+03
2.848347e+03,1.729903e+03
2.849312e+03,1.730889e+03
2.850276e+03,1.701609e+03
2.851240e+03,1.692872e+03
2.852204e+03,1.702508e+03
2.853168e+03,1.704434e+03
2.854133e+03,1.705109e+03
2.855097e+03,1.719601e+03
2.856061e+03,1.727942e+03
2.857025e+03,1.722195e+03
2.857990e+03,1.719051e+03
2.858954e+03,1.724342e+03
2.859918e+03,1.718366e+03
2.860882e+03,1.706267e+03
2.861846e+03,1.693616e+03
2.862811e+03,1.689922e+03
2.863775e+03,1.710140e+03
2.864739e+03,1.717291e+03
2.865703e+03,1.700679e+03
2.866668e+03,1.690516e+03
2.867632e+03,1.688500e+03
2.868596e+03,1.700039e+03
2.869560e+03,1.711935e+03
2.870525e+03,1.712208e+03
2.871489e+03,1.706281e+03
2.872453e+03,1.695069e+03
2.873417e+03,1.682292e+03
2.874382e+03,1.669424e+03
2.875346e+03,1.671248e+03
2.876310e+03,1.681588e+03
2.877274e+03,1.689631e+03
2.878239e+03,1.693486e+03
2.879203e+03,1.691781e+03
2.880167e+03,1.691368e+03
2.881131e+03,1.696508e+03
2.882095e+03,1.700937e+03
2.883060e+03,1.704290e+03
2.884024e+03,1.705472e+03
2.884988e+03,1.703328e+03
2.885952e+03,1.695493e+03
2.886917e+03,1.686204e+03
2.887881e+03,1.678462e+03
2.888845e+03,1.688020e+03
2.889809e+03,1.702990e+03
2.890773e+03,1.691226e+03
2.891738e+03,1.671969e+03
2.892702e+03,1.666373e+03
2.893666e+03,1.672498e+03
2.894630e+03,1.688479e+03
2.895595e+03,1.687079e+03
2.896559e+03,1.671873e+03
2.897523e+03,1.664297e+03
2.898487e+03,1.663329e+03
2.899452e+03,1.667928e+03
2.900416e+03,1.679394e+03
2.901380e+03,1.695824e+03
2.902344e+03,1.697908e+03
2.903309e+03,1.684888e+03
2.904273e+03,1.677487e+03
2.905237e+03,1.671096e+03
2.906201e+03,1.657400e+03
2.907166e+03,1.655262e+03
2.908130e+03,1.672375e+03
2.909094e+03,1.685628e+03
2.910058e+03,1.689055e+03
2.911022e+03,1.676730e+03
2.911987e+03,1.659807e+03
2.912951e+03,1.646978e+03
2.913915e+03,1.646845e+03
2.914879e+03,1.673237e+03
2.915844e+03,1.676248e+03
2.916808e+03,1.656794e+03
2.917772e+03,1.653966e+03
2.918736e+03,1.659272e+03
2.919700e+03,1.655773e+03
2.920665e+03,1.653986e+03
2.921629e+03,1.668555e+03
2.922593e+03,1.664965e+03
2.923557e+03,1.647660e+03
2.924522e+03,1.639486e+03
2.925486e+03,1.640252e+03
2.926450e+03,1.653610e+03
2.927414e+03,1.664086e+03
2.928379e+03,1.663636e+03
2.929343e+03,1.661422e+03
2.930307e+03,1.657507e+03
2.931271e+03,1.642458e+03
2.932236e+03,1.629437e+03
2.933200e+03,1.650987e+03
2.934164e+03,1.661965e+03
2.935128e+03,1.641808e+03
2.936093e+03,1.628209e+03
2.937057e+03,1.626372e+03
2.938021e+03,1.617780e+03
2.938985e+03,1.610958e+03
2.939949e+03,1.622809e+03
2.940914e+03,1.632060e+03
2.941878e+03,1.632318e+03
2.942842e+03,1.626987e+03
2.943806e+03,1.616617e+03
2.944771e+03,1.637000e+03
2.945735e+03,1.659101e+03
2.946699e+03,1.634826e+03
2.947663e+03,1.618379e+03
2.948627e+03,1.624914e+03
2.949592e+03,1.635846e+03
2.950556e+03,1.647249e+03
2.951520e+03,1.648395e+03
2.952484e+03,1.642469e+03
2.953449e+03,1.634680e+03
2.954413e+03,1.629437e+03
2.955377e+03,1.629907e+03
2.956341e+03,1.639963e+03
2.957306e+03,1.657453e+03
2.958270e+03,1.682131e+03
2.959234e+03,1.678941e+03
2.960198e+03,1.623462e+03
2.961163e+03,1.588334e+03
2.962127e+03,1.605498e+03
2.963091e+03,1.617198e+03
2.964055e+03,1.615740e+03
2.965020e+03,1.601515e+03
2.965984e+03,1.586952e+03
2.966948e+03,1.577288e+03
2.967912e+03,1.580880e+03
2.968876e+03,1.608059e+03
2.969841e+03,1.606445e+03
2.970805e+03,1.589115e+03
2.971769e+03,1.586776e+03
2.972733e+03,1.585073e+03
2.973698e+03,1.571281e+03
2.974662e+03,1.573626e+03
2.975626e+03,1.600717e+03
2.976590e+03,1.609661e+03
2.977554e+03,1.609301e+03
2.978519e+03,1.613532e+03
2.979483e+03,1.603235e+03
2.980447e+03,1.560204e+03
2.981411e+03,1.549733e+03
2.982376e+03,1.579314e+03
2.983340e+03,1.612931e+03
2.984304e+03,1.623363e+03
2.985268e+03,1.582135e+03
2.986233e+03,1.550921e+03
2.987197e+03,1.568198e+03
2.988161e+03,1.581079e+03
2.989125e+03,1.584281e+03
2.990090e+03,1.561706e+03
2.991054e+03,1.551654e+03
2.992018e+03,1.587444e+03
2.992982e+03,1.605912e+03
2.993947e+03,1.580471e+03
2.994911e+03,1.589831e+03
2.995875e+03,1.606707e+03
2.996839e+03,1.578130e+03
2.997803e+03,1.552178e+03
2.998768e+03,1.563275e+03
2.999732e+03,1.561833e+03
3.000696e+03,1.541937e+03
3.001660e+03,1.532567e+03
3.002625e+03,1.534919e+03
3.003589e+03,1.550791e+03
3.004553e+03,1.563132e+03
3.005517e+03,1.564682e+03
3.006481e+03,1.585392e+03
3.007446e+03,1.611683e+03
3.008410e+03,1.588329e+03
3.009374e+03,1.567011e+03
3.010338e+03,1.581486e+03
3.011303e+03,1.594910e+03
3.012267e+03,1.592108e+03
3.013231e+03,1.587643e+03
3.014195e+03,1.578375e+03
3.015160e+03,1.550217e+03
3.016124e+03,1.544218e+03
3.017088e+03,1.570369e+03
3.018052e+03,1.581667e+03
3.019017e+03,1.571817e+03
3.019981e+03,1.576659e+03
3.020945e+03,1.578817e+03
3.021909e+03,1.557959e+03
3.022874e+03,1.564224e+03
3.023838e+03,1.599417e+03
3.024802e+03,1.592112e+03
3.025766e+03,1.561477e+03
3.026730e+03,1.562591e+03
3.027695e+03,1.577907e+03
3.028659e+03,1.600629e+03
3.029623e+03,1.593099e+03
3.030587e+03,1.561989e+03
3.031552e+03,1.548686e+03
3.032516e+03,1.543784e+03
3.033480e+03,1.541590e+03
3.034444e+03,1.539289e+03
3.035408e+03,1.537672e+03
3.036373e+03,1.542949e+03
3.037337e+03,1.551691e+03
3.038301e+03,1.562488e+03
3.039265e+03,1.565230e+03
3.040230e+03,1.541080e+03
3.041194e+03,1.548268e+03
3.042158e+03,1.572130e+03
3.043122e+03,1.547538e+03
3.044087e+03,1.515267e+03
3.045051e+03,1.540715e+03
3.046015e+03,1.539167e+03
3.046979e+03,1.484734e+03
3.047944e+03,1.480880e+03
3.048908e+03,1.509087e+03
3.049872e+03,1.538322e+03
3.050836e+03,1.548855e+03
3.051801e+03,1.522541e+03
3.052765e+03,1.510090e+03
3.053729e+03,1.517854e+03
3.054693e+03,1.553366e+03
3.055657e+03,1.578859e+03
3.056622e+03,1.566441e+03
3.057586e+03,1.565934e+03
3.058550e+03,1.593251e+03
3.059514e+03,1.587801e+03
3.060479e+03,1.561748e+03
3.061443e+03,1.526092e+03
3.062407e+03,1.505092e+03
3.063371e+03,1.502232e+03
3.064335e+03,1.498540e+03
3.065300e+03,1.495352e+03
3.066264e+03,1.513852e+03
3.067228e+03,1.534261e+03
3.068192e+03,1.542720e+03
3.069157e+03,1.548742e+03
3.070121e+03,1.554446e+03
3.071085e+03,1.561932e+03
3.072049e+03,1.570381e+03
3.073014e+03,1.587017e+03
3.073978e+03,1.585625e+03
3.074942e+03,1.558768e+03
3.075906e+03,1.527955e+03
3.076871e+03,1.503137e+03
3.077835e+03,1.495049e+03
3.078799e+03,1.496807e+03
3.079763e+03,1.507628e+03
3.080728e+03,1.507103e+03
3.081692e+03,1.500966e+03
3.082656e+03,1.508768e+03
3.083620e+03,1.521609e+03
3.084584e+03,1.534685e+03
3.085549e+03,1.541312e+03
3.086513e+03,1.541589e+03
3.087477e+03,1.538145e+03
3.088441e+03,1.529726e+03
3.089406e+03,1.514179e+03
3.090370e+03,1.511689e+03
3.091334e+03,1.523201e+03
3.092298e+03,1.536635e+03
3.093262e+03,1.546207e+03
3.094227e+03,1.538741e+03
3.095191e+03,1.530082e+03
3.096155e+03,1.525426e+03
3.097119e+03,1.507427e+03
3.098084e+03,1.493188e+03
3.099048e+03,1.518691e+03
3.100012e+03,1.540464e+03
3.100976e+03,1.521596e+03
3.101941e+03,1.512933e+03
3.102905e+03,1.518159e+03
3.103869e+03,1.520770e+03
3.104833e+03,1.518281e+03
3.105798e+03,1.510510e+03
3.106762e+03,1.511938e+03
3.107726e+03,1.526068e+03
3.108690e+03,1.551857e+03
3.109655e+03,1.561267e+03
3.110619e+03,1.501742e+03
3.111583e+03,1.471831e+03
3.112547e+03,1.481769e+03
3.113511e+03,1.479082e+03
3.114476e+03,1.471061e+03
3.115440e+03,1.484009e+03
3.116404e+03,1.507789e+03
3.117368e+03,1.547643e+03
3.118333e+03,1.548185e+03
3.119297e+03,1.526306e+03
3.120261e+03,1.513136e+03
3.121225e+03,1.503076e+03
3.122189e+03,1.491054e+03
3.123154e+03,1.495605e+03
3.124118e+03,1.509081e+03
3.125082e+03,1.504688e+03
3.126046e+03,1.494086e+03
3.127011e+03,1.482637e+03
3.127975e+03,1.470594e+03
3.128939e+03,1.462732e+03
3.129903e+03,1.499726e+03
3.130868e+03,1.533155e+03
3.131832e+03,1.510819e+03
3.132796e+03,1.485672e+03
3.133760e+03,1.470331e+03
3.134725e+03,1.489742e+03
3.135689e+03,1.523001e+03
3.136653e+03,1.552104e+03
3.137617e+03,1.559162e+03
3.138582e+03,1.539194e+03
3.139546e+03,1.538053e+03
3.140510e+03,1.544314e+03
3.141474e+03,1.556589e+03
3.142438e+03,1.525435e+03
3.143403e+03,1.458803e+03
3.144367e+03,1.461778e+03
3.145331e+03,1.493786e+03
3.146295e+03,1.488625e+03
3.147260e+03,1.478005e+03
3.148224e+03,1.467319e+03
3.149188e+03,1.474421e+03
3.150152e+03,1.495065e+03
3.151116e+03,1.523033e+03
3.152081e+03,1.542547e+03
3.153045e+03,1.543967e+03
3.154009e+03,1.512639e+03
3.154973e+03,1.479085e+03
3.155938e+03,1.512119e+03
3.156902e+03,1.529426e+03
3.157866e+03,1.509411e+03
3.158830e+03,1.528868e+03
3.159795e+03,1.570430e+03
3.160759e+03,1.564957e+03
3.161723e+03,1.548412e+03
3.162687e+03,1.541429e+03
3.163652e+03,1.504454e+03
3.164616e+03,1.465624e+03
3.165580e+03,1.473624e+03
3.166544e+03,1.487486e+03
3.167509e+03,1.489754e+03
3.168473e+03,1.510427e+03
3.169437e+03,1.538092e+03
3.170401e+03,1.518056e+03
3.171365e+03,1.500889e+03
3.172330e+03,1.509932e+03
3.173294e+03,1.540383e+03
3.174258e+03,1.565005e+03
3.175222e+03,1.529715e+03
3.176187e+03,1.496407e+03
3.177151e+03,1.508419e+03
3.178115e+03,1.514057e+03
3.179079e+03,1.510889e+03
3.180043e+03,1.500237e+03
3.181008e+03,1.497002e+03
3.181972e+03,1.507337e+03
3.182936e+03,1.499933e+03
3.183900e+03,1.484623e+03
3.184865e+03,1.510704e+03
3.185829e+03,1.533981e+03
3.186793e+03,1.531379e+03
3.187757e+03,1.523390e+03
3.188722e+03,1.509262e+03
3.189686e+03,1.485768e+03
3.190650e+03,1.474984e+03
3.191614e+03,1.481832e+03
3.192579e+03,1.478684e+03
3.193543e+03,1.470623e+03
3.194507e+03,1.487481e+03
3.195471e+03,1.506394e+03
3.196436e+03,1.516358e+03
3.197400e+03,1.530399e+03
3.198364e+03,1.544221e+03
3.199328e+03,1.555511e+03
3.200292e+03,1.543121e+03
3.201257e+03,0.000000e+00
3.202221e+03,0.000000e+00
3.203185e+03,0.000000e+00
3.204149e+03,0.000000e+00
3.205114e+03,0.000000e+00
3.206078e+03,0.000000e+00
3.207042e+03,0.000000e+00
3.208006e+03,0.000000e+00
3.208970e+03,0.000000e+00
3.209935e+03,0.000000e+00
3.210899e+03,0.000000e+00
3.211863e+03,0.000000e+00
3.212827e+03,0.000000e+00
3.213792e+03,0.000000e+00
3.214756e+03,0.000000e+00
3.215720e+03,0.000000e+00
3.216684e+03,0.000000e+00
3.217649e+03,0.000000e+00
3.218613e+03,0.000000e+00
3.219577e+03,0.000000e+00
3.220541e+03,0.000000e+00
3.221506e+03,0.000000e+00
3.222470e+03,0.000000e+00
3.223434e+03,0.000000e+00
3.224398e+03,0.000000e+00
3.225363e+03,0.000000e+00
3.226327e+03,0.000000e+00
3.227291e+03,0.000000e+00
3.228255e+03,0.000000e+00
3.229219e+03,0.000000e+00
3.230184e+03,0.000000e+00
3.231148e+03,0.000000e+00
3.232112e+03,0.000000e+00
3.233076e+03,0.000000e+00
3.234041e+03,0.000000e+00
3.235005e+03,0.000000e+00
3.235969e+03,0.000000e+00
3.236933e+03,0.000000e+00
3.237897e+03,0.000000e+00
3.238862e+03,0.000000e+00
3.239826e+03,0.000000e+00
3.240790e+03,0.000000e+00
3.241754e+03,0.000000e+00
3.242719e+03,0.000000e+00
3.243683e+03,0.000000e+00
3.244647e+03,0.000000e+00
3.245611e+03,0.000000e+00
3.246576e+03,0.000000e+00
3.247540e+03,0.000000e+00
3.248504e+03,0.000000e+00
3.249468e+03,0.000000e+00
3.250433e+03,0.000000e+00
3.251397e+03,0.000000e+00
3.252361e+03,0.000000e+00
3.253325e+03,0.000000e+00
3.254290e+03,0.000000e+00
3.255254e+03,0.000000e+00
3.256218e+03,0.000000e+00
3.257182e+03,0.000000e+00
3.258146e+03,0.000000e+00
3.259111e+03,0.000000e+00
3.260075e+03,0.000000e+00
3.261039e+03,0.000000e+00
3.262003e+03,0.000000e+00
3.262968e+03,0.000000e+00
3.263932e+03,0.000000e+00
3.264896e+03,0.000000e+00
3.265860e+03,0.000000e+00
3.266824e+03,0.000000e+00
3.267789e+03,0.000000e+00
3.268753e+03,0.000000e+00
3.269717e+03,0.000000e+00
3.270681e+03,0.000000e+00
3.271646e+03,0.000000e+00
3.272610e+03,0.000000e+00
3.273574e+03,0.000000e+00
3.274538e+03,0.000000e+00
3.275503e+03,0.000000e+00
3.276467e+03,0.000000e+00
3.277431e+03,0.000000e+00
3.278395e+03,0.000000e+00
3.279360e+03,0.000000e+00
3.280324e+03,0.000000e+00
3.281288e+03,0.000000e+00
3.282252e+03,0.000000e+00
3.283217e+03,0.000000e+00
3.284181e+03,0.000000e+00
3.285145e+03,0.000000e+00
3.286109e+03,0.000000e+00
3.287073e+03,0.000000e+00
3.288038e+03,0.000000e+00
3.289002e+03,0.000000e+00
3.289966e+03,0.000000e+00
3.290930e+03,0.000000e+00
3.291895e+03,0.000000e+00
3.292859e+03,0.000000e+00
3.293823e+03,0.000000e+00
3.294787e+03,0.000000e+00
3.295751e+03,0.000000e+00
3.296716e+03,0.000000e+00
3.297680e+03,0.000000e+00
3.298644e+03,0.000000e+00
3.299608e+03,0.000000e+00
3.300573e+03,0.000000e+00
3.301537e+03,0.000000e+00
3.302501e+03,0.000000e+00
3.303465e+03,0.000000e+00
3.304430e+03,0.000000e+00
3.305394e+03,0.000000e+00
3.306358e+03,0.000000e+00
3.307322e+03,0.000000e+00
3.308287e+03,0.000000e+00
3.309251e+03,0.000000e+00
3.310215e+03,0.000000e+00
3.311179e+03,0.000000e+00
3.312144e+03,0.000000e+00
3.313108e+03,0.000000e+00
3.314072e+03,0.000000e+00
3.315036e+03,0.000000e+00
3.316000e+03,0.000000e+00
3.316965e+03,0.000000e+00
3.317929e+03,0.000000e+00
3.318893e+03,0.000000e+00
3.319857e+03,0.000000e+00
3.320822e+03,0.000000e+00
3.321786e+03,0.000000e+00
3.322750e+03,0.000000e+00
3.323714e+03,0.000000e+00
3.324678e+03,0.000000e+00
3.325643e+03,0.000000e+00
3.326607e+03,0.000000e+00
3.327571e+03,0.000000e+00
3.328535e+03,0.000000e+00
3.329500e+03,0.000000e+00
3.330464e+03,0.000000e+00
3.331428e+03,0.000000e+00
3.332392e+03,0.000000e+00
3.333357e+03,0.000000e+00
3.334321e+03,0.000000e+00
3.335285e+03,0.000000e+00
3.336249e+03,0.000000e+00
3.337214e+03,0.000000e+00
3.338178e+03,0.000000e+00
3.339142e+03,0.000000e+00
3.340106e+03,0.000000e+00
3.341071e+03,0.000000e+00
3.342035e+03,0.000000e+00
3.342999e+03,0.000000e+00
3.343963e+03,0.000000e+00
3.344927e+03,0.000000e+00
3.345892e+03,0.000000e+00
3.346856e+03,0.000000e+00
3.347820e+03,0.000000e+00
3.348784e+03,0.000000e+00
3.349749e+03,0.000000e+00
3.350713e+03,0.000000e+00
3.351677e+03,0.000000e+00
3.352641e+03,0.000000e+00
3.353605e+03,0.000000e+00
3.354570e+03,0.000000e+00
3.355534e+03,0.000000e+00
3.356498e+03,0.000000e+00
3.357462e+03,0.000000e+00
3.358427e+03,0.000000e+00
3.359391e+03,0.000000e+00
3.360355e+03,0.000000e+00
3.361319e+03,0.000000e+00
3.362284e+03,0.000000e+00
3.363248e+03,0.000000e+00
3.364212e+03,0.000000e+00
3.365176e+03,0.000000e+00
3.366141e+03,0.000000e+00
3.367105e+03,0.000000e+00
3.368069e+03,0.000000e+00
3.369033e+03,0.000000e+00
3.369998e+03,0.000000e+00
3.370962e+03,0.000000e+00
3.371926e+03,0.000000e+00
3.372890e+03,0.000000e+00
3.373854e+03,0.000000e+00
3.374819e+03,0.000000e+00
3.375783e+03,0.000000e+00
3.376747e+03,0.000000e+00
3.377711e+03,0.000000e+00
3.378676e+03,0.000000e+00
3.379640e+03,0.000000e+00
3.380604e+03,0.000000e+00
3.381568e+03,0.000000e+00
3.382532e+03,0.000000e+00
3.383497e+03,0.000000e+00
3.384461e+03,0.000000e+00
3.385425e+03,0.000000e+00
3.386389e+03,0.000000e+00
3.387354e+03,0.000000e+00
3.388318e+03,0.000000e+00
3.389282e+03,0.000000e+00
3.390246e+03,0.000000e+00
3.391211e+03,0.000000e+00
3.392175e+03,0.000000e+00
3.393139e+03,0.000000e+00
3.394103e+03,0.000000e+00
3.395068e+03,0.000000e+00
3.396032e+03,0.000000e+00
3.396996e+03,0.000000e+00
3.397960e+03,0.000000e+00
3.398925e+03,0.000000e+00
3.399889e+03,0.000000e+00
3.400853e+03,0.000000e+00
3.401817e+03,0.000000e+00
3.402781e+03,0.000000e+00
3.403746e+03,0.000000e+00
3.404710e+03,0.000000e+00
3.405674e+03,0.000000e+00
3.406638e+03,0.000000e+00
3.407603e+03,0.000000e+00
3.408567e+03,0.000000e+00
3.409531e+03,0.000000e+00
3.410495e+03,0.000000e+00
3.411459e+03,0.000000e+00
3.412424e+03,0.000000e+00
3.413388e+03,0.000000e+00
3.414352e+03,0.000000e+00
3.415316e+03,0.000000e+00
3.416281e+03,0.000000e+00
3.417245e+03,0.000000e+00
3.418209e+03,0.000000e+00
3.419173e+03,0.000000e+00
3.420138e+03,0.000000e+00
3.421102e+03,0.000000e+00
3.422066e+03,0.000000e+00
3.423030e+03,0.000000e+00
3.423995e+03,0.000000e+00
3.424959e+03,0.000000e+00
3.425923e+03,0.000000e+00
3.426887e+03,0.000000e+00
3.427852e+03,0.000000e+00
3.428816e+03,0.000000e+00
3.429780e+03,0.000000e+00
3.430744e+03,0.000000e+00
3.431708e+03,0.000000e+00
3.432673e+03,0.000000e+00
3.433637e+03,0.000000e+00
3.434601e+03,0.000000e+00
3.435565e+03,0.000000e+00
3.436530e+03,0.000000e+00
3.437494e+03,0.000000e+00
3.438458e+03,0.000000e+00
3.439422e+03,0.000000e+00
3.440386e+03,0.000000e+00
3.441351e+03,0.000000e+00
3.442315e+03,0.000000e+00
3.443279e+03,0.000000e+00
3.444243e+03,0.000000e+00
3.445208e+03,0.000000e+00
3.446172e+03,0.000000e+00
3.447136e+03,0.000000e+00
3.448100e+03,0.000000e+00
3.449065e+03,0.000000e+00
3.450029e+03,0.000000e+00
3.450993e+03,0.000000e+00
3.451957e+03,0.000000e+00
3.452922e+03,0.000000e+00
3.453886e+03,0.000000e+00
3.454850e+03,0.000000e+00
3.455814e+03,0.000000e+00
3.456779e+03,0.000000e+00
3.457743e+03,0.000000e+00
3.458707e+03,0.000000e+00
3.459671e+03,0.000000e+00
3.460635e+03,0.000000e+00
3.461600e+03,0.000000e+00
3.462564e+03,0.000000e+00
3.463528e+03,0.000000e+00
3.464492e+03,0.000000e+00
3.465457e+03,0.000000e+00
3.466421e+03,0.000000e+00
3.467385e+03,0.000000e+00
3.468349e+03,0.000000e+00
3.469313e+03,0.000000e+00
3.470278e+03,0.000000e+00
3.471242e+03,0.000000e+00
3.472206e+03,0.000000e+00
3.473170e+03,0.000000e+00
3.474135e+03,0.000000e+00
3.475099e+03,0.000000e+00
3.476063e+03,0.000000e+00
3.477027e+03,0.000000e+00
3.477992e+03,0.000000e+00
3.478956e+03,0.000000e+00
3.479920e+03,0.000000e+00
3.480884e+03,0.000000e+00
3.481849e+03,0.000000e+00
3.482813e+03,0.000000e+00
3.483777e+03,0.000000e+00
3.484741e+03,0.000000e+00
3.485706e+03,0.000000e+00
3.486670e+03,0.000000e+00
3.487634e+03,0.000000e+00
3.488598e+03,0.000000e+00
3.489563e+03,0.000000e+00
3.490527e+03,0.000000e+00
3.491491e+03,0.000000e+00
3.492455e+03,0.000000e+00
3.493419e+03,0.000000e+00
3.494384e+03,0.000000e+00
3.495348e+03,0.000000e+00
3.496312e+03,0.000000e+00
3.497276e+03,0.000000e+00
3.498240e+03,0.000000e+00
3.499205e+03,0.000000e+00
3.500169e+03,0.000000e+00
