9.931763e+01,0.000000e+00
1.002819e+02,0.000000e+00
1.012461e+02,0.000000e+00
1.022103e+02,0.000000e+00
1.031746e+02,0.000000e+00
1.041388e+02,0.000000e+00
1.051030e+02,0.000000e+00
1.060673e+02,0.000000e+00
1.070315e+02,0.000000e+00
1.079957e+02,0.000000e+00
1.089600e+02,0.000000e+00
1.099242e+02,0.000000e+00
1.108884e+02,0.000000e+00
1.118527e+02,0.000000e+00
1.128169e+02,0.000000e+00
1.137811e+02,0.000000e+00
1.147454e+02,0.000000e+00
1.157096e+02,0.000000e+00
1.166738e+02,0.000000e+00
1.176381e+02,0.000000e+00
1.186023e+02,0.000000e+00
1.195665e+02,0.000000e+00
1.205308e+02,0.000000e+00
1.214950e+02,0.000000e+00
1.224592e+02,0.000000e+00
1.234235e+02,0.000000e+00
1.243877e+02,0.000000e+00
1.253519e+02,0.000000e+00
1.263162e+02,0.000000e+00
1.272804e+02,0.000000e+00
1.282446e+02,0.000000e+00
1.292089e+02,0.000000e+00
1.301731e+02,0.000000e+00
1.311373e+02,0.000000e+00
1.321016e+02,0.000000e+00
1.330658e+02,0.000000e+00
1.340300e+02,0.000000e+00
1.349943e+02,0.000000e+00
1.359585e+02,0.000000e+00
1.369227e+02,0.000000e+00
1.378870e+02,0.000000e+00
1.388512e+02,0.000000e+00
1.398154e+02,0.000000e+00
1.407797e+02,0.000000e+00
1.417439e+02,0.000000e+00
1.427081e+02,0.000000e+00
1.436724e+02,0.000000e+00
1.446366e+02,0.000000e+00
1.456008e+02,0.000000e+00
1.465651e+02,0.000000e+00
1.475293e+02,0.000000e+00
1.484935e+02,0.000000e+00
1.494578e+02,0.000000e+00
1.504220e+02,0.000000e+00
1.513862e+02,0.000000e+00
1.523505e+02,0.000000e+00
1.533147e+02,0.000000e+00
1.542789e+02,0.000000e+00
1.552432e+02,0.000000e+00
1.562074e+02,0.000000e+00
1.571716e+02,0.000000e+00
1.581359e+02,0.000000e+00
1.591001e+02,0.000000e+00
1.600643e+02,0.000000e+00
1.610286e+02,0.000000e+00
1.619928e+02,0.000000e+00
1.629570e+02,0.000000e+00
1.639213e+02,0.000000e+00
1.648855e+02,0.000000e+00
1.658497e+02,0.000000e+00
1.668140e+02,0.000000e+00
1.677782e+02,0.000000e+00
1.687424e+02,0.000000e+00
1.697067e+02,0.000000e+00
1.706709e+02,0.000000e+00
1.716351e+02,0.000000e+00
1.725994e+02,0.000000e+00
1.735636e+02,0.000000e+00
1.745278e+02,0.000000e+00
1.754921e+02,0.000000e+00
1.764563e+02,0.000000e+00
1.774205e+02,0.000000e+00
1.783848e+02,0.000000e+00
1.793490e+02,0.000000e+00
1.803132e+02,0.000000e+00
1.812775e+02,0.000000e+00
1.822417e+02,0.000000e+00
1.832059e+02,0.000000e+00
1.841702e+02,0.000000e+00
1.851344e+02,0.000000e+00
1.860986e+02,0.000000e+00
1.870629e+02,0.000000e+00
1.880271e+02,0.000000e+00
1.889913e+02,0.000000e+00
1.899556e+02,0.000000e+00
1.909198e+02,0.000000e+00
1.918840e+02,0.000000e+00
1.928483e+02,0.000000e+00
1.938125e+02,0.000000e+00
1.947767e+02,0.000000e+00
1.957410e+02,0.000000e+00
1.967052e+02,0.000000e+00
1.976694e+02,0.000000e+00
1.986337e+02,0.000000e+00
1.995979e+02,1.046964e+04
2.005621e+02,1.047981e+04
2.015264e+02,1.049152e+04
2.024906e+02,1.050564e+04
2.034548e+02,1.052034e+04
2.044191e+02,1.053340e+04
2.053833e+02,1.054303e+04
2.063475e+02,1.054905e+04
2.073118e+02,1.055229e+04
2.082760e+02,1.055275e+04
2.092402e+02,1.055023e+04
2.102045e+02,1.054658e+04
2.111687e+02,1.054622e+04
2.121329e+02,1.055114e+04
2.130972e+02,1.056043e+04
2.140614e+02,1.057110e+04
2.150256e+02,1.057994e+04
2.159899e+02,1.058612e+04
2.169541e+02,1.059435e+04
2.179183e+02,1.060919e+04
2.188826e+02,1.062824e+04
2.198468e+02,1.064671e+04
2.208110e+02,1.066058e+04
2.217753e+02,1.066859e+04
2.227395e+02,1.067257e+04
2.237037e+02,1.067718e+04
2.246680e+02,1.068221e+04
2.256322e+02,1.068503e+04
2.265964e+02,1.068749e+04
2.275607e+02,1.069241e+04
2.285249e+02,1.070199e+04
2.294892e+02,1.071674e+04
2.304534e+02,1.073503e+04
2.314176e+02,1.075159e+04
2.323819e+02,1.076485e+04
2.333461e+02,1.077655e+04
2.343103e+02,1.078854e+04
2.352746e+02,1.080180e+04
2.362388e+02,1.081599e+04
2.372030e+02,1.082920e+04
2.381673e+02,1.083688e+04
2.391315e+02,1.083789e+04
2.400957e+02,1.083586e+04
2.410600e+02,1.083374e+04
2.420242e+02,1.083454e+04
2.429884e+02,1.084039e+04
2.439527e+02,1.085114e+04
2.449169e+02,1.086350e+04
2.458811e+02,1.087555e+04
2.468454e+02,1.088743e+04
2.478096e+02,1.089928e+04
2.487738e+02,1.091119e+04
2.497381e+02,1.092293e+04
2.507023e+02,1.093465e+04
2.516665e+02,1.094691e+04
2.526308e+02,1.095972e+04
2.535950e+02,1.096986e+04
2.545592e+02,1.097477e+04
2.555235e+02,1.097477e+04
2.564877e+02,1.097263e+04
2.574519e+02,1.097223e+04
2.584161e+02,1.097703e+04
2.593804e+02,1.098841e+04
2.603446e+02,1.100378e+04
2.613088e+02,1.102010e+04
2.622731e+02,1.103715e+04
2.632373e+02,1.105562e+04
2.642015e+02,1.107264e+04
2.651658e+02,1.108527e+04
2.661300e+02,1.109288e+04
2.670942e+02,1.109793e+04
2.680585e+02,1.110515e+04
2.690227e+02,1.111871e+04
2.699869e+02,1.113241e+04
2.709512e+02,1.114052e+04
2.719154e+02,1.114331e+04
2.728796e+02,1.114520e+04
2.738439e+02,1.115154e+04
2.748081e+02,1.116541e+04
2.757723e+02,1.118599e+04
2.767366e+02,1.120554e+04
2.777008e+02,1.121963e+04
2.786650e+02,1.122956e+04
2.796293e+02,1.123792e+04
2.805935e+02,1.124688e+04
2.815577e+02,1.125743e+04
2.825220e+02,1.126901e+04
2.834862e+02,1.127886e+04
2.844504e+02,1.128402e+04
2.854147e+02,1.128623e+04
2.863789e+02,1.128756e+04
2.873431e+02,1.129060e+04
2.883074e+02,1.129709e+04
2.892716e+02,1.130667e+04
2.902358e+02,1.131700e+04
2.912001e+02,1.132663e+04
2.921643e+02,1.133578e+04
2.931285e+02,1.134644e+04
2.940928e+02,1.135958e+04
2.950570e+02,1.137532e+04
2.960212e+02,1.139113e+04
2.969855e+02,1.140364e+04
2.979497e+02,1.141115e+04
2.989139e+02,1.141448e+04
2.998782e+02,1.141725e+04
3.008424e+02,1.142350e+04
3.018066e+02,1.143413e+04
3.027709e+02,1.144636e+04
3.037351e+02,1.145768e+04
3.046993e+02,1.146692e+04
3.056636e+02,1.147431e+04
3.066278e+02,1.148101e+04
3.075920e+02,1.148884e+04
3.085563e+02,1.149845e+04
3.095205e+02,1.151189e+04
3.104847e+02,1.152890e+04
3.114490e+02,1.154741e+04
3.124132e+02,1.156491e+04
3.133774e+02,1.157925e+04
3.143417e+02,1.158917e+04
3.153059e+02,1.159377e+04
3.162701e+02,1.159601e+04
3.172344e+02,1.159868e+04
3.181986e+02,1.160278e+04
3.191628e+02,1.160888e+04
3.201271e+02,1.161750e+04
3.210913e+02,1.162868e+04
3.220555e+02,1.164175e+04
3.230198e+02,1.165575e+04
3.239840e+02,1.167008e+04
3.249482e+02,1.168424e+04
3.259125e+02,1.169771e+04
3.268767e+02,1.171076e+04
3.278409e+02,1.172364e+04
3.288052e+02,1.173625e+04
3.297694e+02,1.174823e+04
3.307336e+02,1.175929e+04
3.316979e+02,1.176965e+04
3.326621e+02,1.177917e+04
3.336263e+02,1.178546e+04
3.345906e+02,1.178808e+04
3.355548e+02,1.179020e+04
3.365190e+02,1.179593e+04
3.374833e+02,1.180784e+04
3.384475e+02,1.182536e+04
3.394117e+02,1.184477e+04
3.403760e+02,1.186072e+04
3.413402e+02,1.187475e+04
3.423044e+02,1.189110e+04
3.432687e+02,1.191061e+04
3.442329e+02,1.193150e+04
3.451971e+02,1.195065e+04
3.461614e+02,1.196491e+04
3.471256e+02,1.197256e+04
3.480898e+02,1.197636e+04
3.490541e+02,1.197884e+04
3.500183e+02,1.198235e+04
3.509825e+02,1.198931e+04
3.519468e+02,1.200161e+04
3.529110e+02,1.201902e+04
3.538752e+02,1.203903e+04
3.548395e+02,1.205831e+04
3.558037e+02,1.207473e+04
3.567680e+02,1.208796e+04
3.577322e+02,1.209937e+04
3.586964e+02,1.211193e+04
3.596607e+02,1.212734e+04
3.606249e+02,1.214420e+04
3.615891e+02,1.215814e+04
3.625534e+02,1.216518e+04
3.635176e+02,1.216445e+04
3.644818e+02,1.215827e+04
3.654461e+02,1.215143e+04
3.664103e+02,1.215042e+04
3.673745e+02,1.215997e+04
3.683388e+02,1.217766e+04
3.693030e+02,1.219936e+04
3.702672e+02,1.222116e+04
3.712315e+02,1.224066e+04
3.721957e+02,1.225655e+04
3.731599e+02,1.226728e+04
3.741242e+02,1.227460e+04
3.750884e+02,1.228331e+04
3.760526e+02,1.229588e+04
3.770169e+02,1.231209e+04
3.779811e+02,1.232940e+04
3.789453e+02,1.234466e+04
3.799096e+02,1.235546e+04
3.808738e+02,1.236148e+04
3.818380e+02,1.236493e+04
3.828023e+02,1.237038e+04
3.837665e+02,1.237842e+04
3.847307e+02,1.238417e+04
3.856950e+02,1.239012e+04
3.866592e+02,1.240174e+04
3.876234e+02,1.242719e+04
3.885877e+02,1.246008e+04
3.895519e+02,1.248157e+04
3.905161e+02,1.248651e+04
3.914804e+02,1.248288e+04
3.924446e+02,1.247989e+04
3.934088e+02,1.248028e+04
3.943731e+02,1.248244e+04
3.953373e+02,1.248607e+04
3.963015e+02,1.249017e+04
3.972658e+02,1.249424e+04
3.982300e+02,1.249985e+04
3.991942e+02,1.250916e+04
4.001585e+02,1.251772e+04
4.011227e+02,1.251234e+04
4.020869e+02,1.251221e+04
4.030512e+02,1.251699e+04
4.040154e+02,1.252382e+04
4.049796e+02,1.253251e+04
4.059439e+02,1.254314e+04
4.069081e+02,1.255505e+04
4.078723e+02,1.256696e+04
4.088366e+02,1.257660e+04
4.098008e+02,1.258063e+04
4.107650e+02,1.258252e+04
4.117293e+02,1.258389e+04
4.126935e+02,1.258694e+04
4.136577e+02,1.259402e+04
4.146220e+02,1.260238e+04
4.155862e+02,1.260722e+04
4.165504e+02,1.260745e+04
4.175147e+02,1.260781e+04
4.184789e+02,1.261504e+04
4.194431e+02,1.263895e+04
4.204074e+02,1.265700e+04
4.213716e+02,1.266799e+04
4.223358e+02,1.267300e+04
4.233001e+02,1.267219e+04
4.242643e+02,1.266550e+04
4.252285e+02,1.265727e+04
4.261928e+02,1.265586e+04
4.271570e+02,1.266370e+04
4.281212e+02,1.267613e+04
4.290855e+02,1.269146e+04
4.300497e+02,1.270721e+04
4.310139e+02,1.272023e+04
4.319782e+02,1.273374e+04
4.329424e+02,1.274524e+04
4.339066e+02,1.274614e+04
4.348709e+02,1.273412e+04
4.358351e+02,1.272173e+04
4.367993e+02,1.272265e+04
4.377636e+02,1.274621e+04
4.387278e+02,1.276130e+04
4.396920e+02,1.276791e+04
4.406563e+02,1.276991e+04
4.416205e+02,1.276582e+04
4.425847e+02,1.275496e+04
4.435490e+02,1.274394e+04
4.445132e+02,1.274432e+04
4.454774e+02,1.276033e+04
4.464417e+02,1.277720e+04
4.474059e+02,1.279044e+04
4.483701e+02,1.279872e+04
4.493344e+02,1.280292e+04
4.502986e+02,1.280569e+04
4.512628e+02,1.280702e+04
4.522271e+02,1.280550e+04
4.531913e+02,1.280162e+04
4.541555e+02,1.279729e+04
4.551198e+02,1.279273e+04
4.560840e+02,1.278854e+04
4.570482e+02,1.278351e+04
4.580125e+02,1.278514e+04
4.589767e+02,1.278983e+04
4.599409e+02,1.279041e+04
4.609052e+02,1.278478e+04
4.618694e+02,1.277805e+04
4.628336e+02,1.277832e+04
4.637979e+02,1.278529e+04
4.647621e+02,1.278683e+04
4.657263e+02,1.278230e+04
4.666906e+02,1.278085e+04
4.676548e+02,1.278753e+04
4.686190e+02,1.280350e+04
4.695833e+02,1.281448e+04
4.705475e+02,1.281059e+04
4.715117e+02,1.279852e+04
4.724760e+02,1.278927e+04
4.734402e+02,1.278747e+04
4.744044e+02,1.279081e+04
4.753687e+02,1.279246e+04
4.763329e+02,1.279049e+04
4.772971e+02,1.279049e+04
4.782614e+02,1.279387e+04
4.792256e+02,1.280032e+04
4.801898e+02,1.280845e+04
4.811541e+02,1.281690e+04
4.821183e+02,1.282418e+04
4.830826e+02,1.282800e+04
4.840468e+02,1.282713e+04
4.850110e+02,1.282470e+04
4.859753e+02,1.282504e+04
4.869395e+02,1.282764e+04
4.879037e+02,1.282569e+04
4.888680e+02,1.281382e+04
4.898322e+02,1.280468e+04
4.907964e+02,1.280894e+04
4.917607e+02,1.282553e+04
4.927249e+02,1.284313e+04
4.936891e+02,1.284943e+04
4.946534e+02,1.284317e+04
4.956176e+02,1.283915e+04
4.965818e+02,1.283864e+04
4.975461e+02,1.284136e+04
4.985103e+02,1.284636e+04
4.994745e+02,1.285254e+04
5.004388e+02,1.285277e+04
5.014030e+02,1.284122e+04
5.023672e+02,1.282660e+04
5.033315e+02,1.282328e+04
5.042957e+02,1.283590e+04
5.052599e+02,1.285431e+04
5.062242e+02,1.285952e+04
5.071884e+02,1.284351e+04
5.081526e+02,1.283155e+04
5.091169e+02,1.283213e+04
5.100811e+02,1.283965e+04
5.110453e+02,1.284489e+04
5.120095e+02,1.284447e+04
5.129738e+02,1.284356e+04
5.139380e+02,1.284911e+04
5.149022e+02,1.286146e+04
5.158665e+02,1.287330e+04
5.168307e+02,1.287717e+04
5.177949e+02,1.286674e+04
5.187592e+02,1.284687e+04
5.197234e+02,1.282273e+04
5.206876e+02,1.280499e+04
5.216519e+02,1.279939e+04
5.226161e+02,1.280495e+04
5.235803e+02,1.281529e+04
5.245446e+02,1.282765e+04
5.255088e+02,1.284095e+04
5.264730e+02,1.284775e+04
5.274373e+02,1.284523e+04
5.284015e+02,1.284031e+04
5.293657e+02,1.283673e+04
5.303300e+02,1.283547e+04
5.312942e+02,1.283130e+04
5.322584e+02,1.282609e+04
5.332227e+02,1.282499e+04
5.341869e+02,1.283122e+04
5.351511e+02,1.284277e+04
5.361154e+02,1.285232e+04
5.370796e+02,1.285109e+04
5.380438e+02,1.283737e+04
5.390081e+02,1.282765e+04
5.399723e+02,1.282846e+04
5.409365e+02,1.283398e+04
5.419008e+02,1.283375e+04
5.428650e+02,1.281575e+04
5.438292e+02,1.280407e+04
5.447935e+02,1.282063e+04
5.457577e+02,1.285336e+04
5.467219e+02,1.287721e+04
5.476862e+02,1.288211e+04
5.486504e+02,1.287234e+04
5.496146e+02,1.286151e+04
5.505789e+02,1.285014e+04
5.515431e+02,1.283538e+04
5.525073e+02,1.281727e+04
5.534716e+02,1.280393e+04
5.544358e+02,1.280055e+04
5.554000e+02,1.280807e+04
5.563643e+02,1.281910e+04
5.573285e+02,1.282704e+04
5.582927e+02,1.283081e+04
5.592570e+02,1.283318e+04
5.602212e+02,1.283816e+04
5.611854e+02,1.284462e+04
5.621497e+02,1.284630e+04
5.631139e+02,1.283998e+04
5.640781e+02,1.282495e+04
5.650424e+02,1.279898e+04
5.660066e+02,1.276733e+04
5.669708e+02,1.274346e+04
5.679351e+02,1.274602e+04
5.688993e+02,1.276096e+04
5.698635e+02,1.275933e+04
5.708278e+02,1.273926e+04
5.717920e+02,1.271968e+04
5.727562e+02,1.271500e+04
5.737205e+02,1.272728e+04
5.746847e+02,1.273670e+04
5.756489e+02,1.274224e+04
5.766132e+02,1.274286e+04
5.775774e+02,1.273770e+04
5.785416e+02,1.272756e+04
5.795059e+02,1.271771e+04
5.804701e+02,1.271538e+04
5.814343e+02,1.271700e+04
5.823986e+02,1.270935e+04
5.833628e+02,1.268856e+04
5.843270e+02,1.266617e+04
5.852913e+02,1.265722e+04
5.862555e+02,1.267971e+04
5.872197e+02,1.268844e+04
5.881840e+02,1.266508e+04
5.891482e+02,1.263646e+04
5.901124e+02,1.262793e+04
5.910767e+02,1.264922e+04
5.920409e+02,1.267483e+04
5.930051e+02,1.267505e+04
5.939694e+02,1.265350e+04
5.949336e+02,1.263778e+04
5.958978e+02,1.263921e+04
5.968621e+02,1.264778e+04
5.978263e+02,1.264109e+04
5.987905e+02,1.259840e+04
5.997548e+02,1.256868e+04
6.007190e+02,1.256379e+04
6.016832e+02,1.257343e+04
6.026475e+02,1.258287e+04
6.036117e+02,1.258251e+04
6.045759e+02,1.257962e+04
6.055402e+02,1.258579e+04
6.065044e+02,1.259775e+04
6.074686e+02,1.260083e+04
6.084329e+02,1.258927e+04
6.093971e+02,1.256794e+04
6.103613e+02,1.255492e+04
6.113256e+02,1.256458e+04
6.122899e+02,1.256859e+04
6.132541e+02,1.255903e+04
6.142183e+02,1.254043e+04
6.151826e+02,1.252160e+04
6.161468e+02,1.250804e+04
6.171110e+02,1.250057e+04
6.180753e+02,1.249999e+04
6.190395e+02,1.250430e+04
6.200037e+02,1.250496e+04
6.209680e+02,1.249534e+04
6.219322e+02,1.247784e+04
6.228964e+02,1.246719e+04
6.238607e+02,1.246361e+04
6.248249e+02,1.246512e+04
6.257891e+02,1.246934e+04
6.267534e+02,1.247281e+04
6.277176e+02,1.247436e+04
6.286818e+02,1.248547e+04
6.296461e+02,1.249458e+04
6.306103e+02,1.248197e+04
6.315745e+02,1.245038e+04
6.325388e+02,1.242149e+04
6.335030e+02,1.241031e+04
6.344672e+02,1.241549e+04
6.354315e+02,1.241979e+04
6.363957e+02,1.242090e+04
6.373599e+02,1.241740e+04
6.383242e+02,1.241201e+04
6.392884e+02,1.240621e+04
6.402526e+02,1.239885e+04
6.412169e+02,1.238639e+04
6.421811e+02,1.237328e+04
6.431453e+02,1.236391e+04
6.441096e+02,1.235822e+04
6.450738e+02,1.235394e+04
6.460380e+02,1.235217e+04
6.470023e+02,1.235571e+04
6.479665e+02,1.235652e+04
6.489307e+02,1.234852e+04
6.498950e+02,1.233927e+04
6.508592e+02,1.233223e+04
6.518234e+02,1.232522e+04
6.527877e+02,1.232251e+04
6.537519e+02,1.233681e+04
6.547161e+02,1.234923e+04
6.556804e+02,1.234188e+04
6.566446e+02,1.231569e+04
6.576088e+02,1.228908e+04
6.585731e+02,1.228131e+04
6.595373e+02,1.228875e+04
6.605015e+02,1.228988e+04
6.614658e+02,1.228194e+04
6.624300e+02,1.227054e+04
6.633942e+02,1.226056e+04
6.643585e+02,1.225066e+04
6.653227e+02,1.224415e+04
6.662869e+02,1.223382e+04
6.672512e+02,1.222847e+04
6.682154e+02,1.224040e+04
6.691796e+02,1.226863e+04
6.701439e+02,1.228680e+04
6.711081e+02,1.226774e+04
6.720723e+02,1.222722e+04
6.730366e+02,1.219946e+04
6.740008e+02,1.219178e+04
6.749650e+02,1.219185e+04
6.759293e+02,1.218431e+04
6.768935e+02,1.216543e+04
6.778577e+02,1.215541e+04
6.788220e+02,1.216708e+04
6.797862e+02,1.218492e+04
6.807504e+02,1.219246e+04
6.817147e+02,1.218304e+04
6.826789e+02,1.217609e+04
6.836431e+02,1.218238e+04
6.846074e+02,1.218816e+04
6.855716e+02,1.217968e+04
6.865358e+02,1.215704e+04
6.875001e+02,1.213244e+04
6.884643e+02,1.211922e+04
6.894285e+02,1.211778e+04
6.903928e+02,1.211651e+04
6.913570e+02,1.211167e+04
6.923212e+02,1.210722e+04
6.932855e+02,1.211036e+04
6.942497e+02,1.213565e+04
6.952139e+02,1.214928e+04
6.961782e+02,1.213422e+04
6.971424e+02,1.211552e+04
6.981066e+02,1.211005e+04
6.990709e+02,1.211659e+04
7.000351e+02,1.211999e+04
7.009993e+02,1.211615e+04
7.019636e+02,1.210932e+04
7.029278e+02,1.210019e+04
7.038920e+02,1.208766e+04
7.048563e+02,1.207331e+04
7.058205e+02,1.206397e+04
7.067847e+02,1.206869e+04
7.077490e+02,1.206384e+04
7.087132e+02,1.204562e+04
7.096774e+02,1.203101e+04
7.106417e+02,1.202401e+04
7.116059e+02,1.202402e+04
7.125701e+02,1.202221e+04
7.135344e+02,1.201445e+04
7.144986e+02,1.200933e+04
7.154628e+02,1.201531e+04
7.164271e+02,1.203153e+04
7.173913e+02,1.204542e+04
7.183555e+02,1.204522e+04
7.193198e+02,1.203189e+04
7.202840e+02,1.200914e+04
7.212482e+02,1.197577e+04
7.222125e+02,1.194806e+04
7.231767e+02,1.194286e+04
7.241409e+02,1.196831e+04
7.251052e+02,1.198373e+04
7.260694e+02,1.198372e+04
7.270336e+02,1.197683e+04
7.279979e+02,1.196769e+04
7.289621e+02,1.195624e+04
7.299263e+02,1.194896e+04
7.308906e+02,1.195058e+04
7.318548e+02,1.195439e+04
7.328190e+02,1.195491e+04
7.337833e+02,1.195165e+04
7.347475e+02,1.194636e+04
7.357117e+02,1.194399e+04
7.366760e+02,1.194596e+04
7.376402e+02,1.194475e+04
7.386044e+02,1.194008e+04
7.395687e+02,1.193368e+04
7.405329e+02,1.192392e+04
7.414971e+02,1.190840e+04
7.424614e+02,1.189632e+04
7.434256e+02,1.189464e+04
7.443898e+02,1.190212e+04
7.453541e+02,1.191820e+04
7.463183e+02,1.193492e+04
7.472825e+02,1.193780e+04
7.482468e+02,1.191235e+04
7.492110e+02,1.187642e+04
7.501752e+02,1.185133e+04
7.511395e+02,1.184255e+04
7.521037e+02,1.184487e+04
7.530679e+02,1.185263e+04
7.540322e+02,1.186168e+04
7.549964e+02,1.186317e+04
7.559606e+02,1.185844e+04
7.569249e+02,1.185106e+04
7.578891e+02,1.184302e+04
7.588533e+02,1.183550e+04
7.598176e+02,1.183009e+04
7.607818e+02,1.181299e+04
7.617460e+02,1.179247e+04
7.627103e+02,1.177601e+04
7.636745e+02,1.176743e+04
7.646387e+02,1.176360e+04
7.656030e+02,1.175797e+04
7.665672e+02,1.175962e+04
7.675314e+02,1.177799e+04
7.684957e+02,1.180079e+04
7.694599e+02,1.180806e+04
7.704241e+02,1.179088e+04
7.713884e+02,1.176225e+04
7.723526e+02,1.174856e+04
7.733168e+02,1.175358e+04
7.742811e+02,1.176587e+04
7.752453e+02,1.177488e+04
7.762095e+02,1.177737e+04
7.771738e+02,1.177793e+04
7.781380e+02,1.177091e+04
7.791022e+02,1.175962e+04
7.800665e+02,1.174981e+04
7.810307e+02,1.174082e+04
7.819949e+02,1.173011e+04
7.829592e+02,1.171810e+04
7.839234e+02,1.171109e+04
7.848876e+02,1.171271e+04
7.858519e+02,1.171735e+04
7.868161e+02,1.171690e+04
7.877803e+02,1.170670e+04
7.887446e+02,1.169360e+04
7.897088e+02,1.169310e+04
7.906730e+02,1.170693e+04
7.916373e+02,1.171777e+04
7.926015e+02,1.171392e+04
7.935657e+02,1.169492e+04
7.945300e+02,1.167363e+04
7.954942e+02,1.165315e+04
7.964584e+02,1.163555e+04
7.974227e+02,1.163435e+04
7.983869e+02,1.164626e+04
7.993511e+02,1.165364e+04
8.003154e+02,1.164602e+04
8.012796e+02,1.163162e+04
8.022438e+02,1.160576e+04
8.032081e+02,1.158672e+04
8.041723e+02,1.159446e+04
8.051365e+02,1.163270e+04
8.061008e+02,1.166802e+04
8.070650e+02,1.167156e+04
8.080292e+02,1.165270e+04
8.089935e+02,1.163091e+04
8.099577e+02,1.161261e+04
8.109219e+02,1.159751e+04
8.118862e+02,1.158136e+04
8.128504e+02,1.156443e+04
8.138146e+02,1.155850e+04
8.147789e+02,1.156509e+04
8.157431e+02,1.157302e+04
8.167073e+02,1.157619e+04
8.176716e+02,1.157986e+04
8.186358e+02,1.158476e+04
8.196000e+02,1.159345e+04
8.205643e+02,1.159928e+04
8.215285e+02,1.159186e+04
8.224927e+02,1.157231e+04
8.234570e+02,1.155521e+04
8.244212e+02,1.154351e+04
8.253854e+02,1.153677e+04
8.263497e+02,1.153442e+04
8.273139e+02,1.153198e+04
8.282781e+02,1.152614e+04
8.292424e+02,1.152177e+04
8.302066e+02,1.151854e+04
8.311708e+02,1.150762e+04
8.321351e+02,1.149146e+04
8.330993e+02,1.148396e+04
8.340635e+02,1.149181e+04
8.350278e+02,1.150789e+04
8.359920e+02,1.151434e+04
8.369562e+02,1.151046e+04
8.379205e+02,1.150231e+04
8.388847e+02,1.148970e+04
8.398489e+02,1.147583e+04
8.408132e+02,1.146688e+04
8.417774e+02,1.146381e+04
8.427416e+02,1.146042e+04
8.437059e+02,1.145612e+04
8.446701e+02,1.145161e+04
8.456343e+02,1.144877e+04
8.465986e+02,1.144834e+04
8.475628e+02,1.144567e+04
8.485270e+02,1.143528e+04
8.494913e+02,1.142356e+04
8.504555e+02,1.142019e+04
8.514197e+02,1.142897e+04
8.523840e+02,1.143950e+04
8.533482e+02,1.144053e+04
8.543124e+02,1.143426e+04
8.552767e+02,1.142436e+04
8.562409e+02,1.141099e+04
8.572051e+02,1.140026e+04
8.581694e+02,1.140711e+04
8.591336e+02,1.143035e+04
8.600978e+02,1.143318e+04
8.610621e+02,1.141233e+04
8.620263e+02,1.139057e+04
8.629905e+02,1.138176e+04
8.639548e+02,1.138258e+04
8.649190e+02,1.137844e+04
8.658832e+02,1.137615e+04
8.668475e+02,1.137080e+04
8.678117e+02,1.135361e+04
8.687759e+02,1.132737e+04
8.697402e+02,1.131553e+04
8.707044e+02,1.132830e+04
8.716686e+02,1.133404e+04
8.726329e+02,1.132327e+04
8.735971e+02,1.130619e+04
8.745613e+02,1.129748e+04
8.755256e+02,1.131487e+04
8.764898e+02,1.133522e+04
8.774540e+02,1.133874e+04
8.784183e+02,1.133091e+04
8.793825e+02,1.132244e+04
8.803467e+02,1.131703e+04
8.813110e+02,1.131232e+04
8.822752e+02,1.130793e+04
8.832394e+02,1.130566e+04
8.842037e+02,1.130215e+04
8.851679e+02,1.129317e+04
8.861321e+02,1.128325e+04
8.870964e+02,1.128479e+04
8.880606e+02,1.129818e+04
8.890248e+02,1.129531e+04
8.899891e+02,1.127428e+04
8.909533e+02,1.124987e+04
8.919175e+02,1.123272e+04
8.928818e+02,1.122338e+04
8.938460e+02,1.121738e+04
8.948102e+02,1.120936e+04
8.957745e+02,1.120481e+04
8.967387e+02,1.121156e+04
8.977029e+02,1.122643e+04
8.986672e+02,1.123325e+04
8.996314e+02,1.124122e+04
9.005956e+02,1.124290e+04
9.015599e+02,1.122534e+04
9.025241e+02,1.119517e+04
9.034883e+02,1.117352e+04
9.044526e+02,1.117295e+04
9.054168e+02,1.117303e+04
9.063810e+02,1.116947e+04
9.073453e+02,1.116867e+04
9.083095e+02,1.117236e+04
9.092737e+02,1.117812e+04
9.102380e+02,1.118143e+04
9.112022e+02,1.117809e+04
9.121664e+02,1.116913e+04
9.131307e+02,1.115923e+04
9.140949e+02,1.115337e+04
9.150591e+02,1.115472e+04
9.160234e+02,1.116167e+04
9.169876e+02,1.116737e+04
9.179518e+02,1.116273e+04
9.189161e+02,1.114610e+04
9.198803e+02,1.112447e+04
9.208445e+02,1.110837e+04
9.218088e+02,1.110201e+04
9.227730e+02,1.109739e+04
9.237372e+02,1.109057e+04
9.247015e+02,1.108601e+04
9.256657e+02,1.108685e+04
9.266299e+02,1.109233e+04
9.275942e+02,1.110307e+04
9.285584e+02,1.112781e+04
9.295226e+02,1.114228e+04
9.304869e+02,1.113435e+04
9.314511e+02,1.111200e+04
9.324153e+02,1.109521e+04
9.333796e+02,1.108557e+04
9.343438e+02,1.108071e+04
9.353080e+02,1.108267e+04
9.362723e+02,1.108258e+04
9.372365e+02,1.107245e+04
9.382007e+02,1.105009e+04
9.391650e+02,1.103400e+04
9.401292e+02,1.103591e+04
9.410934e+02,1.104528e+04
9.420577e+02,1.104743e+04
9.430219e+02,1.103737e+04
9.439861e+02,1.102341e+04
9.449504e+02,1.101343e+04
9.459146e+02,1.101173e+04
9.468788e+02,1.101829e+04
9.478431e+02,1.102633e+04
9.488073e+02,1.102845e+04
9.497715e+02,1.102472e+04
9.507358e+02,1.101747e+04
9.517000e+02,1.100891e+04
9.526642e+02,1.100235e+04
9.536285e+02,1.099583e+04
9.545927e+02,1.098523e+04
9.555569e+02,1.097201e+04
9.565212e+02,1.096134e+04
9.574854e+02,1.095684e+04
9.584496e+02,1.096183e+04
9.594139e+02,1.097482e+04
9.603781e+02,1.098825e+04
9.613423e+02,1.099035e+04
9.623066e+02,1.097972e+04
9.632708e+02,1.096734e+04
9.642350e+02,1.095742e+04
9.651993e+02,1.095009e+04
9.661635e+02,1.094051e+04
9.671277e+02,1.091888e+04
9.680920e+02,1.091020e+04
9.690562e+02,1.092619e+04
9.700204e+02,1.094113e+04
9.709847e+02,1.093753e+04
9.719489e+02,1.091372e+04
9.729131e+02,1.089815e+04
9.738774e+02,1.089941e+04
9.748416e+02,1.090551e+04
9.758058e+02,1.090770e+04
9.767701e+02,1.090374e+04
9.777343e+02,1.089969e+04
9.786985e+02,1.089670e+04
9.796628e+02,1.089065e+04
9.806270e+02,1.087895e+04
9.815912e+02,1.086504e+04
9.825555e+02,1.085568e+04
9.835197e+02,1.086424e+04
9.844839e+02,1.087074e+04
9.854482e+02,1.086330e+04
9.864124e+02,1.085324e+04
9.873766e+02,1.085184e+04
9.883409e+02,1.086415e+04
9.893051e+02,1.087527e+04
9.902693e+02,1.087311e+04
9.912336e+02,1.086769e+04
9.921978e+02,1.086580e+04
9.931620e+02,1.086514e+04
9.941263e+02,1.086316e+04
9.950905e+02,1.085978e+04
9.960547e+02,1.085569e+04
9.970190e+02,1.085259e+04
9.979832e+02,1.084821e+04
9.989474e+02,1.083775e+04
9.999117e+02,1.081964e+04
1.000876e+03,1.080141e+04
1.001840e+03,1.079486e+04
1.002804e+03,1.079908e+04
1.003769e+03,1.080142e+04
1.004733e+03,1.079350e+04
1.005697e+03,1.078248e+04
1.006661e+03,1.078342e+04
1.007626e+03,1.079379e+04
1.008590e+03,1.079766e+04
1.009554e+03,1.078958e+04
1.010518e+03,1.077449e+04
1.011482e+03,1.075823e+04
1.012447e+03,1.074147e+04
1.013411e+03,1.073430e+04
1.014375e+03,1.074317e+04
1.015339e+03,1.075203e+04
1.016304e+03,1.074501e+04
1.017268e+03,1.072446e+04
1.018232e+03,1.070853e+04
1.019196e+03,1.069534e+04
1.020161e+03,1.069178e+04
1.021125e+03,1.070640e+04
1.022089e+03,1.073200e+04
1.023053e+03,1.073828e+04
1.024018e+03,1.071518e+04
1.024982e+03,1.070394e+04
1.025946e+03,1.071472e+04
1.026910e+03,1.072813e+04
1.027875e+03,1.072387e+04
1.028839e+03,1.070078e+04
1.029803e+03,1.068718e+04
1.030767e+03,1.068815e+04
1.031731e+03,1.069123e+04
1.032696e+03,1.068485e+04
1.033660e+03,1.066742e+04
1.034624e+03,1.065367e+04
1.035588e+03,1.064587e+04
1.036552e+03,1.064593e+04
1.037517e+03,1.065606e+04
1.038481e+03,1.066927e+04
1.039445e+03,1.067018e+04
1.040409e+03,1.065093e+04
1.041374e+03,1.063336e+04
1.042338e+03,1.062428e+04
1.043302e+03,1.062133e+04
1.044266e+03,1.061873e+04
1.045231e+03,1.061449e+04
1.046195e+03,1.061133e+04
1.047159e+03,1.061728e+04
1.048123e+03,1.062185e+04
1.049088e+03,1.061548e+04
1.050052e+03,1.059895e+04
1.051016e+03,1.059316e+04
1.051980e+03,1.060124e+04
1.052945e+03,1.061432e+04
1.053909e+03,1.062977e+04
1.054873e+03,1.064040e+04
1.055837e+03,1.063834e+04
1.056802e+03,1.061937e+04
1.057766e+03,1.060004e+04
1.058730e+03,1.058398e+04
1.059694e+03,1.057149e+04
1.060658e+03,1.056106e+04
1.061623e+03,1.055650e+04
1.062587e+03,1.055220e+04
1.063551e+03,1.054338e+04
1.064515e+03,1.053895e+04
1.065479e+03,1.054708e+04
1.066444e+03,1.057166e+04
1.067408e+03,1.058558e+04
1.068372e+03,1.057114e+04
1.069336e+03,1.055878e+04
1.070301e+03,1.055810e+04
1.071265e+03,1.056424e+04
1.072229e+03,1.056940e+04
1.073193e+03,1.057804e+04
1.074158e+03,1.057818e+04
1.075122e+03,1.056172e+04
1.076086e+03,1.053785e+04
1.077050e+03,1.051881e+04
1.078015e+03,1.051050e+04
1.078979e+03,1.051453e+04
1.079943e+03,1.054087e+04
1.080907e+03,1.056869e+04
1.081872e+03,1.057903e+04
1.082836e+03,1.056747e+04
1.083800e+03,1.055488e+04
1.084764e+03,1.054783e+04
1.085729e+03,1.054405e+04
1.086693e+03,1.054208e+04
1.087657e+03,1.054025e+04
1.088621e+03,1.053723e+04
1.089585e+03,1.053683e+04
1.090550e+03,1.052521e+04
1.091514e+03,1.048979e+04
1.092478e+03,1.045471e+04
1.093442e+03,1.044816e+04
1.094406e+03,1.049047e+04
1.095371e+03,1.051448e+04
1.096335e+03,1.048190e+04
1.097299e+03,1.044370e+04
1.098263e+03,1.043520e+04
1.099228e+03,1.045537e+04
1.100192e+03,1.046894e+04
1.101156e+03,1.045969e+04
1.102120e+03,1.045153e+04
1.103085e+03,1.046132e+04
1.104049e+03,1.047846e+04
1.105013e+03,1.048098e+04
1.105977e+03,1.045266e+04
1.106942e+03,1.042847e+04
1.107906e+03,1.041360e+04
1.108870e+03,1.040645e+04
1.109834e+03,1.040680e+04
1.110799e+03,1.041761e+04
1.111763e+03,1.042449e+04
1.112727e+03,1.042780e+04
1.113691e+03,1.042828e+04
1.114656e+03,1.042049e+04
1.115620e+03,1.040654e+04
1.116584e+03,1.040253e+04
1.117548e+03,1.041491e+04
1.118512e+03,1.042214e+04
1.119477e+03,1.041818e+04
1.120441e+03,1.040774e+04
1.121405e+03,1.039933e+04
1.122369e+03,1.039614e+04
1.123334e+03,1.039122e+04
1.124298e+03,1.038616e+04
1.125262e+03,1.038153e+04
1.126226e+03,1.037813e+04
1.127191e+03,1.037685e+04
1.128155e+03,1.037588e+04
1.129119e+03,1.036753e+04
1.130083e+03,1.036518e+04
1.131047e+03,1.037710e+04
1.132012e+03,1.039536e+04
1.132976e+03,1.040137e+04
1.133940e+03,1.039006e+04
1.134904e+03,1.037536e+04
1.135869e+03,1.036152e+04
1.136833e+03,1.034883e+04
1.137797e+03,1.033681e+04
1.138761e+03,1.032833e+04
1.139726e+03,1.032235e+04
1.140690e+03,1.031646e+04
1.141654e+03,1.031388e+04
1.142618e+03,1.031699e+04
1.143583e+03,1.032523e+04
1.144547e+03,1.032846e+04
1.145511e+03,1.032520e+04
1.146475e+03,1.032007e+04
1.147439e+03,1.031138e+04
1.148404e+03,1.030679e+04
1.149368e+03,1.032126e+04
1.150332e+03,1.035700e+04
1.151296e+03,1.037416e+04
1.152261e+03,1.036198e+04
1.153225e+03,1.033450e+04
1.154189e+03,1.030815e+04
1.155153e+03,1.028774e+04
1.156118e+03,1.028214e+04
1.157082e+03,1.029516e+04
1.158046e+03,1.030554e+04
1.159010e+03,1.029798e+04
1.159974e+03,1.028240e+04
1.160939e+03,1.028059e+04
1.161903e+03,1.028865e+04
1.162867e+03,1.029626e+04
1.163831e+03,1.030097e+04
1.164796e+03,1.029994e+04
1.165760e+03,1.029348e+04
1.166724e+03,1.028280e+04
1.167688e+03,1.026435e+04
1.168653e+03,1.023966e+04
1.169617e+03,1.021733e+04
1.170581e+03,1.020374e+04
1.171545e+03,1.019736e+04
1.172510e+03,1.019814e+04
1.173474e+03,1.020404e+04
1.174438e+03,1.020598e+04
1.175402e+03,1.019872e+04
1.176366e+03,1.019458e+04
1.177331e+03,1.021182e+04
1.178295e+03,1.023657e+04
1.179259e+03,1.025088e+04
1.180223e+03,1.025138e+04
1.181188e+03,1.024326e+04
1.182152e+03,1.022243e+04
1.183116e+03,1.020190e+04
1.184080e+03,1.019956e+04
1.185045e+03,1.020599e+04
1.186009e+03,1.019896e+04
1.186973e+03,1.016047e+04
1.187937e+03,1.014051e+04
1.188901e+03,1.017861e+04
1.189866e+03,1.022639e+04
1.190830e+03,1.023939e+04
1.191794e+03,1.021037e+04
1.192758e+03,1.018269e+04
1.193723e+03,1.016656e+04
1.194687e+03,1.015990e+04
1.195651e+03,1.016493e+04
1.196615e+03,1.017601e+04
1.197580e+03,1.017970e+04
1.198544e+03,1.016186e+04
1.199508e+03,1.014369e+04
1.200472e+03,1.013377e+04
1.201437e+03,1.012667e+04
1.202401e+03,1.011853e+04
1.203365e+03,1.011124e+04
1.204329e+03,1.010933e+04
1.205293e+03,1.011208e+04
1.206258e+03,1.011850e+04
1.207222e+03,1.012775e+04
1.208186e+03,1.013768e+04
1.209150e+03,1.014486e+04
1.210115e+03,1.014623e+04
1.211079e+03,1.014539e+04
1.212043e+03,1.014466e+04
1.213007e+03,1.013905e+04
1.213972e+03,1.012421e+04
1.214936e+03,1.010428e+04
1.215900e+03,1.008513e+04
1.216864e+03,1.006783e+04
1.217828e+03,1.006173e+04
1.218793e+03,1.007884e+04
1.219757e+03,1.010080e+04
1.220721e+03,1.008622e+04
1.221685e+03,1.005211e+04
1.222650e+03,1.004194e+04
1.223614e+03,1.006470e+04
1.224578e+03,1.009017e+04
1.225542e+03,1.009722e+04
1.226507e+03,1.009641e+04
1.227471e+03,1.009766e+04
1.228435e+03,1.009822e+04
1.229399e+03,1.009219e+04
1.230364e+03,1.007712e+04
1.231328e+03,1.005975e+04
1.232292e+03,1.004708e+04
1.233256e+03,1.004024e+04
1.234220e+03,1.003497e+04
1.235185e+03,1.003292e+04
1.236149e+03,1.003280e+04
1.237113e+03,1.003377e+04
1.238077e+03,1.003970e+04
1.239042e+03,1.004825e+04
1.240006e+03,1.005464e+04
1.240970e+03,1.005627e+04
1.241934e+03,1.005294e+04
1.242899e+03,1.004406e+04
1.243863e+03,1.003042e+04
1.244827e+03,1.001548e+04
1.245791e+03,1.000168e+04
1.246755e+03,9.988131e+03
1.247720e+03,9.982551e+03
1.248684e+03,9.988142e+03
1.249648e+03,9.993097e+03
1.250612e+03,9.987606e+03
1.251577e+03,9.974111e+03
1.252541e+03,9.962814e+03
1.253505e+03,9.953402e+03
1.254469e+03,9.954354e+03
1.255434e+03,9.971151e+03
1.256398e+03,9.990888e+03
1.257362e+03,9.995012e+03
1.258326e+03,9.987312e+03
1.259291e+03,9.977380e+03
1.260255e+03,9.964604e+03
1.261219e+03,9.946936e+03
1.262183e+03,9.924007e+03
1.263147e+03,9.906337e+03
1.264112e+03,9.902077e+03
1.265076e+03,9.905985e+03
1.266040e+03,9.908993e+03
1.267004e+03,9.909344e+03
1.267969e+03,9.909624e+03
1.268933e+03,9.916645e+03
1.269897e+03,9.927022e+03
1.270861e+03,9.930073e+03
1.271826e+03,9.919660e+03
1.272790e+03,9.911300e+03
1.273754e+03,9.913264e+03
1.274718e+03,9.909560e+03
1.275682e+03,9.898438e+03
1.276647e+03,9.888081e+03
1.277611e+03,9.887091e+03
1.278575e+03,9.896150e+03
1.279539e+03,9.897379e+03
1.280504e+03,9.895063e+03
1.281468e+03,9.893138e+03
1.282432e+03,9.891038e+03
1.283396e+03,9.888401e+03
1.284361e+03,9.881446e+03
1.285325e+03,9.870518e+03
1.286289e+03,9.867750e+03
1.287253e+03,9.875960e+03
1.288218e+03,9.883600e+03
1.289182e+03,9.880850e+03
1.290146e+03,9.873905e+03
1.291110e+03,9.872197e+03
1.292074e+03,9.875204e+03
1.293039e+03,9.874741e+03
1.294003e+03,9.864692e+03
1.294967e+03,9.849335e+03
1.295931e+03,9.827104e+03
1.296896e+03,9.808181e+03
1.297860e+03,9.802049e+03
1.298824e+03,9.810573e+03
1.299788e+03,9.820269e+03
1.300753e+03,9.827424e+03
1.301717e+03,9.837775e+03
1.302681e+03,9.858170e+03
1.303645e+03,9.881639e+03
1.304609e+03,9.886409e+03
1.305574e+03,9.865340e+03
1.306538e+03,9.848050e+03
1.307502e+03,9.844388e+03
1.308466e+03,9.843221e+03
1.309431e+03,9.826954e+03
1.310395e+03,9.802166e+03
1.311359e+03,9.790854e+03
1.312323e+03,9.787201e+03
1.313288e+03,9.782074e+03
1.314252e+03,9.776303e+03
1.315216e+03,9.773670e+03
1.316180e+03,9.770519e+03
1.317145e+03,9.772392e+03
1.318109e+03,9.786847e+03
1.319073e+03,9.810146e+03
1.320037e+03,9.824517e+03
1.321001e+03,9.822721e+03
1.321966e+03,9.812603e+03
1.322930e+03,9.797252e+03
1.323894e+03,9.781956e+03
1.324858e+03,9.769973e+03
1.325823e+03,9.760835e+03
1.326787e+03,9.754558e+03
1.327751e+03,9.747534e+03
1.328715e+03,9.743884e+03
1.329680e+03,9.749628e+03
1.330644e+03,9.762146e+03
1.331608e+03,9.767216e+03
1.332572e+03,9.764459e+03
1.333536e+03,9.760293e+03
1.334501e+03,9.754830e+03
1.335465e+03,9.747426e+03
1.336429e+03,9.742823e+03
1.337393e+03,9.739844e+03
1.338358e+03,9.733402e+03
1.339322e+03,9.724380e+03
1.340286e+03,9.717341e+03
1.341250e+03,9.718874e+03
1.342215e+03,9.717060e+03
1.343179e+03,9.711146e+03
1.344143e+03,9.706219e+03
1.345107e+03,9.700427e+03
1.346072e+03,9.688665e+03
1.347036e+03,9.683601e+03
1.348000e+03,9.686949e+03
1.348964e+03,9.687700e+03
1.349928e+03,9.683534e+03
1.350893e+03,9.679732e+03
1.351857e+03,9.683813e+03
1.352821e+03,9.693097e+03
1.353785e+03,9.692763e+03
1.354750e+03,9.679668e+03
1.355714e+03,9.660369e+03
1.356678e+03,9.642396e+03
1.357642e+03,9.629270e+03
1.358607e+03,9.621885e+03
1.359571e+03,9.617118e+03
1.360535e+03,9.610678e+03
1.361499e+03,9.602210e+03
1.362464e+03,9.595420e+03
1.363428e+03,9.596338e+03
1.364392e+03,9.599104e+03
1.365356e+03,9.590907e+03
1.366320e+03,9.569771e+03
1.367285e+03,9.562082e+03
1.368249e+03,9.582750e+03
1.369213e+03,9.591022e+03
1.370177e+03,9.576271e+03
1.371142e+03,9.554207e+03
1.372106e+03,9.544833e+03
1.373070e+03,9.545905e+03
1.374034e+03,9.539285e+03
1.374999e+03,9.528028e+03
1.375963e+03,9.521256e+03
1.376927e+03,9.523631e+03
1.377891e+03,9.529675e+03
1.378855e+03,9.537155e+03
1.379820e+03,9.540385e+03
1.380784e+03,9.529229e+03
1.381748e+03,9.505366e+03
1.382712e+03,9.491476e+03
1.383677e+03,9.493255e+03
1.384641e+03,9.497849e+03
1.385605e+03,9.504528e+03
1.386569e+03,9.507718e+03
1.387534e+03,9.498032e+03
1.388498e+03,9.471701e+03
1.389462e+03,9.461168e+03
1.390426e+03,9.466663e+03
1.391391e+03,9.473497e+03
1.392355e+03,9.476982e+03
1.393319e+03,9.477361e+03
1.394283e+03,9.465775e+03
1.395247e+03,9.447814e+03
1.396212e+03,9.441893e+03
1.397176e+03,9.453053e+03
1.398140e+03,9.460962e+03
1.399104e+03,9.445815e+03
1.400069e+03,9.427013e+03
1.401033e+03,9.419268e+03
1.401997e+03,9.418081e+03
1.402961e+03,9.409091e+03
1.403926e+03,9.383377e+03
1.404890e+03,9.368040e+03
1.405854e+03,9.368374e+03
1.406818e+03,9.375094e+03
1.407782e+03,9.382817e+03
1.408747e+03,9.393450e+03
1.409711e+03,9.407869e+03
1.410675e+03,9.418528e+03
1.411639e+03,9.412096e+03
1.412604e+03,9.384296e+03
1.413568e+03,9.357642e+03
1.414532e+03,9.356952e+03
1.415496e+03,9.366119e+03
1.416461e+03,9.366382e+03
1.417425e+03,9.357509e+03
1.418389e+03,9.352934e+03
1.419353e+03,9.363156e+03
1.420318e+03,9.366857e+03
1.421282e+03,9.367396e+03
1.422246e+03,9.361265e+03
1.423210e+03,9.339559e+03
1.424174e+03,9.308012e+03
1.425139e+03,9.299927e+03
1.426103e+03,9.310192e+03
1.427067e+03,9.317343e+03
1.428031e+03,9.314709e+03
1.428996e+03,9.309921e+03
1.429960e+03,9.309056e+03
1.430924e+03,9.307037e+03
1.431888e+03,9.297585e+03
1.432853e+03,9.282706e+03
1.433817e+03,9.270996e+03
1.434781e+03,9.270234e+03
1.435745e+03,9.268861e+03
1.436709e+03,9.260134e+03
1.437674e+03,9.249199e+03
1.438638e+03,9.244293e+03
1.439602e+03,9.247513e+03
1.440566e+03,9.254062e+03
1.441531e+03,9.262337e+03
1.442495e+03,9.266319e+03
1.443459e+03,9.262045e+03
1.444423e+03,9.253495e+03
1.445388e+03,9.240118e+03
1.446352e+03,9.224603e+03
1.447316e+03,9.213670e+03
1.448280e+03,9.210192e+03
1.449245e+03,9.207041e+03
1.450209e+03,9.201534e+03
1.451173e+03,9.197094e+03
1.452137e+03,9.186567e+03
1.453101e+03,9.177520e+03
1.454066e+03,9.182912e+03
1.455030e+03,9.200475e+03
1.455994e+03,9.209191e+03
1.456958e+03,9.209425e+03
1.457923e+03,9.203380e+03
1.458887e+03,9.187300e+03
1.459851e+03,9.172849e+03
1.460815e+03,9.175382e+03
1.461780e+03,9.177828e+03
1.462744e+03,9.165732e+03
1.463708e+03,9.143446e+03
1.464672e+03,9.134033e+03
1.465636e+03,9.154552e+03
1.466601e+03,9.164188e+03
1.467565e+03,9.154522e+03
1.468529e+03,9.140869e+03
1.469493e+03,9.134254e+03
1.470458e+03,9.131762e+03
1.471422e+03,9.133628e+03
1.472386e+03,9.139705e+03
1.473350e+03,9.142815e+03
1.474315e+03,9.138002e+03
1.475279e+03,9.130024e+03
1.476243e+03,9.119853e+03
1.477207e+03,9.106507e+03
1.478172e+03,9.090765e+03
1.479136e+03,9.075229e+03
1.480100e+03,9.067071e+03
1.481064e+03,9.070544e+03
1.482028e+03,9.067349e+03
1.482993e+03,9.055119e+03
1.483957e+03,9.045524e+03
1.484921e+03,9.051108e+03
1.485885e+03,9.062016e+03
1.486850e+03,9.057077e+03
1.487814e+03,9.039848e+03
1.488778e+03,9.023065e+03
1.489742e+03,9.010787e+03
1.490707e+03,9.002667e+03
1.491671e+03,9.010377e+03
1.492635e+03,9.019149e+03
1.493599e+03,9.017212e+03
1.494563e+03,9.007512e+03
1.495528e+03,9.004590e+03
1.496492e+03,9.006672e+03
1.497456e+03,9.002995e+03
1.498420e+03,8.995488e+03
1.499385e+03,8.992393e+03
1.500349e+03,9.008757e+03
1.501313e+03,9.024018e+03
1.502277e+03,9.011551e+03
1.503242e+03,8.986844e+03
1.504206e+03,8.973467e+03
1.505170e+03,8.977412e+03
1.506134e+03,8.977693e+03
1.507099e+03,8.974040e+03
1.508063e+03,8.970436e+03
1.509027e+03,8.969064e+03
1.509991e+03,8.966656e+03
1.510955e+03,8.955647e+03
1.511920e+03,8.940188e+03
1.512884e+03,8.932725e+03
1.513848e+03,8.936485e+03
1.514812e+03,8.942760e+03
1.515777e+03,8.938407e+03
1.516741e+03,8.933921e+03
1.517705e+03,8.932901e+03
1.518669e+03,8.931603e+03
1.519634e+03,8.928580e+03
1.520598e+03,8.922646e+03
1.521562e+03,8.920760e+03
1.522526e+03,8.920395e+03
1.523490e+03,8.921628e+03
1.524455e+03,8.926631e+03
1.525419e+03,8.927080e+03
1.526383e+03,8.914001e+03
1.527347e+03,8.895231e+03
1.528312e+03,8.878443e+03
1.529276e+03,8.868167e+03
1.530240e+03,8.865974e+03
1.531204e+03,8.871042e+03
1.532169e+03,8.875594e+03
1.533133e+03,8.879297e+03
1.534097e+03,8.882145e+03
1.535061e+03,8.884535e+03
1.536026e+03,8.883266e+03
1.536990e+03,8.872897e+03
1.537954e+03,8.858571e+03
1.538918e+03,8.848487e+03
1.539882e+03,8.843844e+03
1.540847e+03,8.841576e+03
1.541811e+03,8.841988e+03
1.542775e+03,8.837174e+03
1.543739e+03,8.826609e+03
1.544704e+03,8.815605e+03
1.545668e+03,8.811386e+03
1.546632e+03,8.813731e+03
1.547596e+03,8.817187e+03
1.548561e+03,8.821346e+03
1.549525e+03,8.827579e+03
1.550489e+03,8.835946e+03
1.551453e+03,8.841420e+03
1.552417e+03,8.842527e+03
1.553382e+03,8.837994e+03
1.554346e+03,8.827988e+03
1.555310e+03,8.815122e+03
1.556274e+03,8.807012e+03
1.557239e+03,8.802906e+03
1.558203e+03,8.806474e+03
1.559167e+03,8.819629e+03
1.560131e+03,8.826921e+03
1.561096e+03,8.805552e+03
1.562060e+03,8.783339e+03
1.563024e+03,8.785855e+03
1.563988e+03,8.803759e+03
1.564953e+03,8.812546e+03
1.565917e+03,8.807035e+03
1.566881e+03,8.805113e+03
1.567845e+03,8.805399e+03
1.568809e+03,8.805497e+03
1.569774e+03,8.806870e+03
1.570738e+03,8.805078e+03
1.571702e+03,8.791175e+03
1.572666e+03,8.771187e+03
1.573631e+03,8.750981e+03
1.574595e+03,8.734438e+03
1.575559e+03,8.730332e+03
1.576523e+03,8.742851e+03
1.577488e+03,8.762535e+03
1.578452e+03,8.786358e+03
1.579416e+03,8.802112e+03
1.580380e+03,8.794881e+03
1.581344e+03,8.775675e+03
1.582309e+03,8.765604e+03
1.583273e+03,8.762693e+03
1.584237e+03,8.758479e+03
1.585201e+03,8.751149e+03
1.586166e+03,8.741230e+03
1.587130e+03,8.722918e+03
1.588094e+03,8.707609e+03
1.589058e+03,8.703581e+03
1.590023e+03,8.706439e+03
1.590987e+03,8.705751e+03
1.591951e+03,8.704999e+03
1.592915e+03,8.702361e+03
1.593880e+03,8.695070e+03
1.594844e+03,8.693381e+03
1.595808e+03,8.717809e+03
1.596772e+03,8.727143e+03
1.597736e+03,8.709106e+03
1.598701e+03,8.688355e+03
1.599665e+03,8.687393e+03
1.600629e+03,8.699094e+03
1.601593e+03,8.692915e+03
1.602558e+03,8.673692e+03
1.603522e+03,8.655951e+03
1.604486e+03,8.643264e+03
1.605450e+03,8.632291e+03
1.606415e+03,8.625365e+03
1.607379e+03,8.622357e+03
1.608343e+03,8.621832e+03
1.609307e+03,8.622739e+03
1.610271e+03,8.626907e+03
1.611236e+03,8.631149e+03
1.612200e+03,8.623815e+03
1.613164e+03,8.608726e+03
1.614128e+03,8.597941e+03
1.615093e+03,8.598407e+03
1.616057e+03,8.598797e+03
1.617021e+03,8.589599e+03
1.617985e+03,8.580922e+03
1.618950e+03,8.585606e+03
1.619914e+03,8.596419e+03
1.620878e+03,8.575780e+03
1.621842e+03,8.534938e+03
1.622807e+03,8.515551e+03
1.623771e+03,8.527825e+03
1.624735e+03,8.542889e+03
1.625699e+03,8.543679e+03
1.626663e+03,8.538972e+03
1.627628e+03,8.528761e+03
1.628592e+03,8.512725e+03
1.629556e+03,8.494275e+03
1.630520e+03,8.479060e+03
1.631485e+03,8.480646e+03
1.632449e+03,8.493275e+03
1.633413e+03,8.495033e+03
1.634377e+03,8.472757e+03
1.635342e+03,8.453705e+03
1.636306e+03,8.455561e+03
1.637270e+03,8.455379e+03
1.638234e+03,8.439354e+03
1.639198e+03,8.418366e+03
1.640163e+03,8.417584e+03
1.641127e+03,8.431746e+03
1.642091e+03,8.436032e+03
1.643055e+03,8.425903e+03
1.644020e+03,8.414221e+03
1.644984e+03,8.397675e+03
1.645948e+03,8.389560e+03
1.646912e+03,8.399761e+03
1.647877e+03,8.411013e+03
1.648841e+03,8.408459e+03
1.649805e+03,8.397446e+03
1.650769e+03,8.394304e+03
1.651734e+03,8.393657e+03
1.652698e+03,8.382154e+03
1.653662e+03,8.351026e+03
1.654626e+03,8.329123e+03
1.655590e+03,8.330113e+03
1.656555e+03,8.331457e+03
1.657519e+03,8.330990e+03
1.658483e+03,8.331739e+03
1.659447e+03,8.333013e+03
1.660412e+03,8.330567e+03
1.661376e+03,8.321588e+03
1.662340e+03,8.310710e+03
1.663304e+03,8.305294e+03
1.664269e+03,8.311310e+03
1.665233e+03,8.304310e+03
1.666197e+03,8.276464e+03
1.667161e+03,8.252946e+03
1.668125e+03,8.251365e+03
1.669090e+03,8.259342e+03
1.670054e+03,8.262011e+03
1.671018e+03,8.260515e+03
1.671982e+03,8.256756e+03
1.672947e+03,8.251780e+03
1.673911e+03,8.250051e+03
1.674875e+03,8.247478e+03
1.675839e+03,8.246482e+03
1.676804e+03,8.251893e+03
1.677768e+03,8.259442e+03
1.678732e+03,8.262660e+03
1.679696e+03,8.261178e+03
1.680661e+03,8.249892e+03
1.681625e+03,8.232790e+03
1.682589e+03,8.222544e+03
1.683553e+03,8.222777e+03
1.684517e+03,8.223267e+03
1.685482e+03,8.222762e+03
1.686446e+03,8.219494e+03
1.687410e+03,8.212397e+03
1.688374e+03,8.205456e+03
1.689339e+03,8.199888e+03
1.690303e+03,8.196474e+03
1.691267e+03,8.199095e+03
1.692231e+03,8.202572e+03
1.693196e+03,8.188828e+03
1.694160e+03,8.160707e+03
1.695124e+03,8.165867e+03
1.696088e+03,8.199403e+03
1.697052e+03,8.217280e+03
1.698017e+03,8.175670e+03
1.698981e+03,8.146101e+03
1.699945e+03,8.151272e+03
1.700909e+03,8.157349e+03
1.701874e+03,8.153254e+03
1.702838e+03,8.148023e+03
1.703802e+03,8.152669e+03
1.704766e+03,8.158189e+03
1.705731e+03,8.155918e+03
1.706695e+03,8.146623e+03
1.707659e+03,8.134284e+03
1.708623e+03,8.118701e+03
1.709588e+03,8.112640e+03
1.710552e+03,8.114521e+03
1.711516e+03,8.116322e+03
1.712480e+03,8.114160e+03
1.713444e+03,8.108745e+03
1.714409e+03,8.105962e+03
1.715373e+03,8.102826e+03
1.716337e+03,8.088452e+03
1.717301e+03,8.064804e+03
1.718266e+03,8.060863e+03
1.719230e+03,8.074131e+03
1.720194e+03,8.081171e+03
1.721158e+03,8.074163e+03
1.722123e+03,8.061305e+03
1.723087e+03,8.044077e+03
1.724051e+03,8.028220e+03
1.725015e+03,8.016656e+03
1.725979e+03,8.011471e+03
1.726944e+03,8.015631e+03
1.727908e+03,8.025508e+03
1.728872e+03,8.024834e+03
1.729836e+03,8.013097e+03
1.730801e+03,8.000095e+03
1.731765e+03,7.987593e+03
1.732729e+03,7.983574e+03
1.733693e+03,7.990850e+03
1.734658e+03,8.001604e+03
1.735622e+03,8.014693e+03
1.736586e+03,8.020695e+03
1.737550e+03,7.994350e+03
1.738515e+03,7.962095e+03
1.739479e+03,7.961812e+03
1.740443e+03,7.988523e+03
1.741407e+03,7.997257e+03
1.742371e+03,7.986290e+03
1.743336e+03,7.970851e+03
1.744300e+03,7.952133e+03
1.745264e+03,7.937854e+03
1.746228e+03,7.942364e+03
1.747193e+03,7.949972e+03
1.748157e+03,7.957039e+03
1.749121e+03,7.967511e+03
1.750085e+03,7.977031e+03
1.751050e+03,7.977727e+03
1.752014e+03,7.963822e+03
1.752978e+03,7.942838e+03
1.753942e+03,7.926380e+03
1.754906e+03,7.915052e+03
1.755871e+03,7.913996e+03
1.756835e+03,7.928943e+03
1.757799e+03,7.924773e+03
1.758763e+03,7.901471e+03
1.759728e+03,7.877494e+03
1.760692e+03,7.862130e+03
1.761656e+03,7.858918e+03
1.762620e+03,7.878208e+03
1.763585e+03,7.902702e+03
1.764549e+03,7.906409e+03
1.765513e+03,7.886541e+03
1.766477e+03,7.875751e+03
1.767442e+03,7.874365e+03
1.768406e+03,7.870806e+03
1.769370e+03,7.861187e+03
1.770334e+03,7.856189e+03
1.771298e+03,7.858161e+03
1.772263e+03,7.861300e+03
1.773227e+03,7.868126e+03
1.774191e+03,7.873152e+03
1.775155e+03,7.864472e+03
1.776120e+03,7.849303e+03
1.777084e+03,7.839501e+03
1.778048e+03,7.834893e+03
1.779012e+03,7.832064e+03
1.779977e+03,7.833303e+03
1.780941e+03,7.833061e+03
1.781905e+03,7.827904e+03
1.782869e+03,7.822011e+03
1.783833e+03,7.818543e+03
1.784798e+03,7.813946e+03
1.785762e+03,7.802715e+03
1.786726e+03,7.791794e+03
1.787690e+03,7.785838e+03
1.788655e+03,7.783812e+03
1.789619e+03,7.780721e+03
1.790583e+03,7.778075e+03
1.791547e+03,7.776578e+03
1.792512e+03,7.777117e+03
1.793476e+03,7.781246e+03
1.794440e+03,7.788478e+03
1.795404e+03,7.788053e+03
1.796369e+03,7.776721e+03
1.797333e+03,7.761782e+03
1.798297e+03,7.743430e+03
1.799261e+03,7.733543e+03
1.800225e+03,7.748466e+03
1.801190e+03,7.760347e+03
1.802154e+03,7.752583e+03
1.803118e+03,7.732010e+03
1.804082e+03,7.718998e+03
1.805047e+03,7.713796e+03
1.806011e+03,7.713684e+03
1.806975e+03,7.716766e+03
1.807939e+03,7.713033e+03
1.808904e+03,7.695474e+03
1.809868e+03,7.684224e+03
1.810832e+03,7.683933e+03
1.811796e+03,7.685057e+03
1.812760e+03,7.674162e+03
1.813725e+03,7.666878e+03
1.814689e+03,7.678870e+03
1.815653e+03,7.694985e+03
1.816617e+03,7.706998e+03
1.817582e+03,7.712107e+03
1.818546e+03,7.694386e+03
1.819510e+03,7.662522e+03
1.820474e+03,7.634794e+03
1.821439e+03,7.616107e+03
1.822403e+03,7.613310e+03
1.823367e+03,7.632313e+03
1.824331e+03,7.637418e+03
1.825296e+03,7.620291e+03
1.826260e+03,7.600603e+03
1.827224e+03,7.600556e+03
1.828188e+03,7.607686e+03
1.829152e+03,7.610734e+03
1.830117e+03,7.613256e+03
1.831081e+03,7.620380e+03
1.832045e+03,7.626179e+03
1.833009e+03,7.620541e+03
1.833974e+03,7.612680e+03
1.834938e+03,7.607900e+03
1.835902e+03,7.604164e+03
1.836866e+03,7.595793e+03
1.837831e+03,7.581740e+03
1.838795e+03,7.568592e+03
1.839759e+03,7.560889e+03
1.840723e+03,7.560964e+03
1.841688e+03,7.572942e+03
1.842652e+03,7.582361e+03
1.843616e+03,7.579755e+03
1.844580e+03,7.571599e+03
1.845544e+03,7.570619e+03
1.846509e+03,7.571933e+03
1.847473e+03,7.563619e+03
1.848437e+03,7.549431e+03
1.849401e+03,7.535766e+03
1.850366e+03,7.524156e+03
1.851330e+03,7.516370e+03
1.852294e+03,7.513596e+03
1.853258e+03,7.503128e+03
1.854223e+03,7.479888e+03
1.855187e+03,7.466014e+03
1.856151e+03,7.473808e+03
1.857115e+03,7.481982e+03
1.858079e+03,7.485793e+03
1.859044e+03,7.486355e+03
1.860008e+03,7.489374e+03
1.860972e+03,7.492268e+03
1.861936e+03,7.489474e+03
1.862901e+03,7.485356e+03
1.863865e+03,7.481120e+03
1.864829e+03,7.472913e+03
1.865793e+03,7.474626e+03
1.866758e+03,7.482724e+03
1.867722e+03,7.477551e+03
1.868686e+03,7.448522e+03
1.869650e+03,7.426578e+03
1.870615e+03,7.409639e+03
1.871579e+03,7.411425e+03
1.872543e+03,7.441886e+03
1.873507e+03,7.472522e+03
1.874471e+03,7.466477e+03
1.875436e+03,7.454137e+03
1.876400e+03,7.455501e+03
1.877364e+03,7.458851e+03
1.878328e+03,7.450065e+03
1.879293e+03,7.432794e+03
1.880257e+03,7.405157e+03
1.881221e+03,7.374467e+03
1.882185e+03,7.362326e+03
1.883150e+03,7.371210e+03
1.884114e+03,7.379624e+03
1.885078e+03,7.385078e+03
1.886042e+03,7.384367e+03
1.887006e+03,7.376032e+03
1.887971e+03,7.362299e+03
1.888935e+03,7.341174e+03
1.889899e+03,7.334069e+03
1.890863e+03,7.343860e+03
1.891828e+03,7.353672e+03
1.892792e+03,7.356228e+03
1.893756e+03,7.348936e+03
1.894720e+03,7.326827e+03
1.895685e+03,7.308122e+03
1.896649e+03,7.305552e+03
1.897613e+03,7.312330e+03
1.898577e+03,7.319094e+03
1.899542e+03,7.325221e+03
1.900506e+03,7.325748e+03
1.901470e+03,7.317835e+03
1.902434e+03,7.319813e+03
1.903398e+03,7.331167e+03
1.904363e+03,7.330865e+03
1.905327e+03,7.313757e+03
1.906291e+03,7.294622e+03
1.907255e+03,7.265666e+03
1.908220e+03,7.253370e+03
1.909184e+03,7.266595e+03
1.910148e+03,7.281517e+03
1.911112e+03,7.275922e+03
1.912077e+03,7.267022e+03
1.913041e+03,7.270094e+03
1.914005e+03,7.276125e+03
1.914969e+03,7.275898e+03
1.915933e+03,7.270065e+03
1.916898e+03,7.257505e+03
1.917862e+03,7.243221e+03
1.918826e+03,7.233725e+03
1.919790e+03,7.232243e+03
1.920755e+03,7.238411e+03
1.921719e+03,7.247489e+03
1.922683e+03,7.243063e+03
1.923647e+03,7.223990e+03
1.924612e+03,7.212339e+03
1.925576e+03,7.225616e+03
1.926540e+03,7.235192e+03
1.927504e+03,7.233008e+03
1.928469e+03,7.223420e+03
1.929433e+03,7.202881e+03
1.930397e+03,7.182994e+03
1.931361e+03,7.175537e+03
1.932325e+03,7.170569e+03
1.933290e+03,7.163015e+03
1.934254e+03,7.159623e+03
1.935218e+03,7.168749e+03
1.936182e+03,7.175989e+03
1.937147e+03,7.162032e+03
1.938111e+03,7.132820e+03
1.939075e+03,7.129279e+03
1.940039e+03,7.148886e+03
1.941004e+03,7.148837e+03
1.941968e+03,7.119894e+03
1.942932e+03,7.102279e+03
1.943896e+03,7.117850e+03
1.944860e+03,7.120024e+03
1.945825e+03,7.107052e+03
1.946789e+03,7.093567e+03
1.947753e+03,7.081295e+03
1.948717e+03,7.076399e+03
1.949682e+03,7.083783e+03
1.950646e+03,7.091907e+03
1.951610e+03,7.092900e+03
1.952574e+03,7.093774e+03
1.953539e+03,7.113406e+03
1.954503e+03,7.129544e+03
1.955467e+03,7.115680e+03
1.956431e+03,7.087221e+03
1.957396e+03,7.082648e+03
1.958360e+03,7.090195e+03
1.959324e+03,7.086074e+03
1.960288e+03,7.072146e+03
1.961252e+03,7.056490e+03
1.962217e+03,7.035361e+03
1.963181e+03,7.018286e+03
1.964145e+03,7.004829e+03
1.965109e+03,6.995937e+03
1.966074e+03,6.995373e+03
1.967038e+03,7.003473e+03
1.968002e+03,7.015010e+03
1.968966e+03,7.018160e+03
1.969931e+03,7.007633e+03
1.970895e+03,6.989318e+03
1.971859e+03,6.961882e+03
1.972823e+03,6.953479e+03
1.973787e+03,6.978254e+03
1.974752e+03,7.008789e+03
1.975716e+03,7.004879e+03
1.976680e+03,6.988154e+03
1.977644e+03,6.990786e+03
1.978609e+03,7.002297e+03
1.979573e+03,6.993275e+03
1.980537e+03,6.970630e+03
1.981501e+03,6.968554e+03
1.982466e+03,6.979931e+03
1.983430e+03,6.976483e+03
1.984394e+03,6.952202e+03
1.985358e+03,6.944064e+03
1.986323e+03,6.948693e+03
1.987287e+03,6.951916e+03
1.988251e+03,6.948890e+03
1.989215e+03,6.942375e+03
1.990179e+03,6.934979e+03
1.991144e+03,6.923927e+03
1.992108e+03,6.910584e+03
1.993072e+03,6.899783e+03
1.994036e+03,6.894108e+03
1.995001e+03,6.884338e+03
1.995965e+03,6.864158e+03
1.996929e+03,6.854594e+03
1.997893e+03,6.886010e+03
1.998858e+03,6.917063e+03
1.999822e+03,6.905625e+03
2.000786e+03,6.880421e+03
2.001750e+03,6.870180e+03
2.002714e+03,6.873667e+03
2.003679e+03,6.884200e+03
2.004643e+03,6.889805e+03
2.005607e+03,6.869312e+03
2.006571e+03,6.833776e+03
2.007536e+03,6.822084e+03
2.008500e+03,6.826593e+03
2.009464e+03,6.818063e+03
2.010428e+03,6.797115e+03
2.011393e+03,6.790581e+03
2.012357e+03,6.799916e+03
2.013321e+03,6.814412e+03
2.014285e+03,6.827886e+03
2.015250e+03,6.836627e+03
2.016214e+03,6.841402e+03
2.017178e+03,6.834894e+03
2.018142e+03,6.817642e+03
2.019106e+03,6.801882e+03
2.020071e+03,6.792976e+03
2.021035e+03,6.785443e+03
2.021999e+03,6.776028e+03
2.022963e+03,6.764796e+03
2.023928e+03,6.752916e+03
2.024892e+03,6.746493e+03
2.025856e+03,6.759763e+03
2.026820e+03,6.769693e+03
2.027785e+03,6.758005e+03
2.028749e+03,6.739530e+03
2.029713e+03,6.739500e+03
2.030677e+03,6.748046e+03
2.031641e+03,6.749692e+03
2.032606e+03,6.747601e+03
2.033570e+03,6.750566e+03
2.034534e+03,6.754578e+03
2.035498e+03,6.746225e+03
2.036463e+03,6.730499e+03
2.037427e+03,6.717214e+03
2.038391e+03,6.710596e+03
2.039355e+03,6.688449e+03
2.040320e+03,6.658690e+03
2.041284e+03,6.654979e+03
2.042248e+03,6.683542e+03
2.043212e+03,6.690381e+03
2.044177e+03,6.673038e+03
2.045141e+03,6.656618e+03
2.046105e+03,6.643893e+03
2.047069e+03,6.647601e+03
2.048033e+03,6.690885e+03
2.048998e+03,6.710258e+03
2.049962e+03,6.702343e+03
2.050926e+03,6.681689e+03
2.051890e+03,6.642055e+03
2.052854e+03,6.616614e+03
2.053819e+03,6.613589e+03
2.054783e+03,6.616899e+03
2.055747e+03,6.628641e+03
2.056711e+03,6.636330e+03
2.057676e+03,6.616798e+03
2.058640e+03,6.600512e+03
2.059604e+03,6.598315e+03
2.060568e+03,6.603037e+03
2.061533e+03,6.616739e+03
2.062497e+03,6.627639e+03
2.063461e+03,6.618851e+03
2.064425e+03,6.603321e+03
2.065390e+03,6.601938e+03
2.066354e+03,6.603183e+03
2.067318e+03,6.579793e+03
2.068282e+03,6.550618e+03
2.069247e+03,6.554526e+03
2.070211e+03,6.581097e+03
2.071175e+03,6.565666e+03
2.072139e+03,6.528453e+03
2.073104e+03,6.519168e+03
2.074068e+03,6.541644e+03
2.075032e+03,6.549897e+03
2.075996e+03,6.543958e+03
2.076960e+03,6.533947e+03
2.077925e+03,6.521065e+03
2.078889e+03,6.512298e+03
2.079853e+03,6.508128e+03
2.080817e+03,6.505018e+03
2.081782e+03,6.501625e+03
2.082746e+03,6.490281e+03
2.083710e+03,6.464740e+03
2.084674e+03,6.456886e+03
2.085639e+03,6.472006e+03
2.086603e+03,6.488735e+03
2.087567e+03,6.476768e+03
2.088531e+03,6.480462e+03
2.089496e+03,6.507989e+03
2.090460e+03,6.514999e+03
2.091424e+03,6.487313e+03
2.092388e+03,6.459501e+03
2.093353e+03,6.444923e+03
2.094317e+03,6.439352e+03
2.095281e+03,6.436279e+03
2.096245e+03,6.434014e+03
2.097209e+03,6.437486e+03
2.098174e+03,6.434011e+03
2.099138e+03,6.420175e+03
2.100102e+03,6.404245e+03
2.101066e+03,6.392892e+03
2.102031e+03,6.384290e+03
2.102995e+03,6.380280e+03
2.103959e+03,6.374838e+03
2.104923e+03,6.358650e+03
2.105887e+03,6.347081e+03
2.106852e+03,6.357516e+03
2.107816e+03,6.373557e+03
2.108780e+03,6.385812e+03
2.109744e+03,6.390758e+03
2.110708e+03,6.382456e+03
2.111673e+03,6.369477e+03
2.112637e+03,6.350982e+03
2.113601e+03,6.330475e+03
2.114565e+03,6.330375e+03
2.115530e+03,6.340280e+03
2.116494e+03,6.332885e+03
2.117458e+03,6.321847e+03
2.118422e+03,6.334684e+03
2.119387e+03,6.360116e+03
2.120351e+03,6.362525e+03
2.121315e+03,6.345842e+03
2.122279e+03,6.344283e+03
2.123244e+03,6.359414e+03
2.124208e+03,6.354217e+03
2.125172e+03,6.334455e+03
2.126136e+03,6.307588e+03
2.127101e+03,6.274278e+03
2.128065e+03,6.265807e+03
2.129029e+03,6.277854e+03
2.129993e+03,6.289447e+03
2.130958e+03,6.290456e+03
2.131922e+03,6.291328e+03
2.132886e+03,6.295814e+03
2.133850e+03,6.293916e+03
2.134814e+03,6.290524e+03
2.135779e+03,6.285036e+03
2.136743e+03,6.273363e+03
2.137707e+03,6.250620e+03
2.138671e+03,6.220080e+03
2.139636e+03,6.204920e+03
2.140600e+03,6.230488e+03
2.141564e+03,6.239129e+03
2.142528e+03,6.227654e+03
2.143493e+03,6.217318e+03
2.144457e+03,6.214580e+03
2.145421e+03,6.204142e+03
2.146385e+03,6.179462e+03
2.147350e+03,6.168922e+03
2.148314e+03,6.185267e+03
2.149278e+03,6.207144e+03
2.150242e+03,6.214372e+03
2.151207e+03,6.217670e+03
2.152171e+03,6.217119e+03
2.153135e+03,6.208895e+03
2.154099e+03,6.194983e+03
2.155063e+03,6.182635e+03
2.156028e+03,6.175047e+03
2.156992e+03,6.172139e+03
2.157956e+03,6.166011e+03
2.158920e+03,6.158978e+03
2.159885e+03,6.146521e+03
2.160849e+03,6.150045e+03
2.161813e+03,6.190924e+03
2.162777e+03,6.221224e+03
2.163741e+03,6.191689e+03
2.164706e+03,6.151419e+03
2.165670e+03,6.121574e+03
2.166634e+03,6.105683e+03
2.167598e+03,6.099244e+03
2.168563e+03,6.112715e+03
2.169527e+03,6.152223e+03
2.170491e+03,6.178336e+03
2.171455e+03,6.143304e+03
2.172420e+03,6.102000e+03
2.173384e+03,6.089446e+03
2.174348e+03,6.090513e+03
2.175312e+03,6.100000e+03
2.176277e+03,6.102894e+03
2.177241e+03,6.079224e+03
2.178205e+03,6.051138e+03
2.179169e+03,6.035898e+03
2.180134e+03,6.029034e+03
2.181098e+03,6.012880e+03
2.182062e+03,6.008891e+03
2.183026e+03,6.029155e+03
2.183990e+03,6.054745e+03
2.184955e+03,6.060224e+03
2.185919e+03,6.056838e+03
2.186883e+03,6.049140e+03
2.187847e+03,6.039040e+03
2.188812e+03,6.032889e+03
2.189776e+03,6.028559e+03
2.190740e+03,6.020594e+03
2.191704e+03,6.009242e+03
2.192668e+03,5.996478e+03
2.193633e+03,5.985654e+03
2.194597e+03,5.982005e+03
2.195561e+03,5.981386e+03
2.196525e+03,5.975706e+03
2.197490e+03,5.969269e+03
2.198454e+03,5.974263e+03
2.199418e+03,5.978692e+03
2.200382e+03,5.972632e+03
2.201347e+03,5.965603e+03
2.202311e+03,5.966010e+03
2.203275e+03,5.970317e+03
2.204239e+03,5.970032e+03
2.205204e+03,5.966373e+03
2.206168e+03,5.979909e+03
2.207132e+03,5.991904e+03
2.208096e+03,5.960936e+03
2.209061e+03,5.918849e+03
2.210025e+03,5.909833e+03
2.210989e+03,5.912448e+03
2.211953e+03,5.888884e+03
2.212917e+03,5.874669e+03
2.213882e+03,5.890127e+03
2.214846e+03,5.916672e+03
2.215810e+03,5.935520e+03
2.216774e+03,5.939489e+03
2.217739e+03,5.936139e+03
2.218703e+03,5.926654e+03
2.219667e+03,5.903604e+03
2.220631e+03,5.878723e+03
2.221595e+03,5.858044e+03
2.222560e+03,5.843560e+03
2.223524e+03,5.849329e+03
2.224488e+03,5.855021e+03
2.225452e+03,5.828981e+03
2.226417e+03,5.803289e+03
2.227381e+03,5.809463e+03
2.228345e+03,5.834797e+03
2.229309e+03,5.871463e+03
2.230274e+03,5.894753e+03
2.231238e+03,5.883141e+03
2.232202e+03,5.852020e+03
2.233166e+03,5.819644e+03
2.234131e+03,5.797393e+03
2.235095e+03,5.790781e+03
2.236059e+03,5.793705e+03
2.237023e+03,5.803129e+03
2.237988e+03,5.805300e+03
2.238952e+03,5.786979e+03
2.239916e+03,5.761694e+03
2.240880e+03,5.751320e+03
2.241844e+03,5.749375e+03
2.242809e+03,5.751990e+03
2.243773e+03,5.755510e+03
2.244737e+03,5.751946e+03
2.245701e+03,5.745922e+03
2.246666e+03,5.739720e+03
2.247630e+03,5.733567e+03
2.248594e+03,5.736192e+03
2.249558e+03,5.741864e+03
2.250522e+03,5.741997e+03
2.251487e+03,5.737935e+03
2.252451e+03,5.719309e+03
2.253415e+03,5.701987e+03
2.254379e+03,5.732693e+03
2.255344e+03,5.739370e+03
2.256308e+03,5.688513e+03
2.257272e+03,5.636132e+03
2.258236e+03,5.640854e+03
2.259201e+03,5.655502e+03
2.260165e+03,5.660600e+03
2.261129e+03,5.665000e+03
2.262093e+03,5.682391e+03
2.263058e+03,5.686222e+03
2.264022e+03,5.672713e+03
2.264986e+03,5.661960e+03
2.265950e+03,5.663730e+03
2.266915e+03,5.665785e+03
2.267879e+03,5.660769e+03
2.268843e+03,5.649887e+03
2.269807e+03,5.639701e+03
2.270771e+03,5.632226e+03
2.271736e+03,5.629574e+03
2.272700e+03,5.632318e+03
2.273664e+03,5.634330e+03
2.274628e+03,5.642248e+03
2.275593e+03,5.666814e+03
2.276557e+03,5.662995e+03
2.277521e+03,5.627767e+03
2.278485e+03,5.601447e+03
2.279449e+03,5.603901e+03
2.280414e+03,5.618690e+03
2.281378e+03,5.643104e+03
2.282342e+03,5.655097e+03
2.283306e+03,5.629008e+03
2.284271e+03,5.606281e+03
2.285235e+03,5.585978e+03
2.286199e+03,5.572007e+03
2.287163e+03,5.576145e+03
2.288128e+03,5.582548e+03
2.289092e+03,5.585303e+03
2.290056e+03,5.579385e+03
2.291020e+03,5.564679e+03
2.291985e+03,5.548188e+03
2.292949e+03,5.535479e+03
2.293913e+03,5.533498e+03
2.294877e+03,5.540903e+03
2.295842e+03,5.556390e+03
2.296806e+03,5.573813e+03
2.297770e+03,5.570706e+03
2.298734e+03,5.552430e+03
2.299698e+03,5.550582e+03
2.300663e+03,5.564100e+03
2.301627e+03,5.563025e+03
2.302591e+03,5.547588e+03
2.303555e+03,5.521968e+03
2.304520e+03,5.492547e+03
2.305484e+03,5.480908e+03
2.306448e+03,5.480805e+03
2.307412e+03,5.475976e+03
2.308376e+03,5.469759e+03
2.309341e+03,5.486658e+03
2.310305e+03,5.506153e+03
2.311269e+03,5.502206e+03
2.312233e+03,5.489772e+03
2.313198e+03,5.484489e+03
2.314162e+03,5.479243e+03
2.315126e+03,5.468931e+03
2.316090e+03,5.454743e+03
2.317055e+03,5.433529e+03
2.318019e+03,5.420073e+03
2.318983e+03,5.431290e+03
2.319947e+03,5.441477e+03
2.320912e+03,5.433799e+03
2.321876e+03,5.426678e+03
2.322840e+03,5.435435e+03
2.323804e+03,5.441252e+03
2.324769e+03,5.435579e+03
2.325733e+03,5.432147e+03
2.326697e+03,5.440235e+03
2.327661e+03,5.442335e+03
2.328625e+03,5.427585e+03
2.329590e+03,5.412245e+03
2.330554e+03,5.418434e+03
2.331518e+03,5.409780e+03
2.332482e+03,5.379118e+03
2.333447e+03,5.359084e+03
2.334411e+03,5.370117e+03
2.335375e+03,5.380682e+03
2.336339e+03,5.388750e+03
2.337303e+03,5.393100e+03
2.338268e+03,5.391598e+03
2.339232e+03,5.373930e+03
2.340196e+03,5.346009e+03
2.341160e+03,5.337283e+03
2.342125e+03,5.356406e+03
2.343089e+03,5.385026e+03
2.344053e+03,5.409747e+03
2.345017e+03,5.402615e+03
2.345982e+03,5.366662e+03
2.346946e+03,5.345760e+03
2.347910e+03,5.337900e+03
2.348874e+03,5.323722e+03
2.349839e+03,5.302326e+03
2.350803e+03,5.286570e+03
2.351767e+03,5.280970e+03
2.352731e+03,5.303783e+03
2.353696e+03,5.332149e+03
2.354660e+03,5.317069e+03
2.355624e+03,5.284039e+03
2.356588e+03,5.280849e+03
2.357552e+03,5.285616e+03
2.358517e+03,5.276538e+03
2.359481e+03,5.265722e+03
2.360445e+03,5.264300e+03
2.361409e+03,5.266326e+03
2.362374e+03,5.272792e+03
2.363338e+03,5.272013e+03
2.364302e+03,5.254394e+03
2.365266e+03,5.245400e+03
2.366230e+03,5.249740e+03
2.367195e+03,5.248210e+03
2.368159e+03,5.213950e+03
2.369123e+03,5.195499e+03
2.370087e+03,5.204634e+03
2.371052e+03,5.220836e+03
2.372016e+03,5.242029e+03
2.372980e+03,5.247539e+03
2.373944e+03,5.235396e+03
2.374909e+03,5.219846e+03
2.375873e+03,5.203464e+03
2.376837e+03,5.204628e+03
2.377801e+03,5.217287e+03
2.378766e+03,5.202728e+03
2.379730e+03,5.159273e+03
2.380694e+03,5.148780e+03
2.381658e+03,5.162165e+03
2.382623e+03,5.167047e+03
2.383587e+03,5.163658e+03
2.384551e+03,5.163683e+03
2.385515e+03,5.162432e+03
2.386479e+03,5.156283e+03
2.387444e+03,5.151048e+03
2.388408e+03,5.159628e+03
2.389372e+03,5.171497e+03
2.390336e+03,5.170310e+03
2.391301e+03,5.166854e+03
2.392265e+03,5.172862e+03
2.393229e+03,5.174274e+03
2.394193e+03,5.164601e+03
2.395157e+03,5.147638e+03
2.396122e+03,5.119403e+03
2.397086e+03,5.102844e+03
2.398050e+03,5.108784e+03
2.399014e+03,5.112376e+03
2.399979e+03,5.100734e+03
2.400943e+03,5.100192e+03
2.401907e+03,5.113255e+03
2.402871e+03,5.122152e+03
2.403836e+03,5.124770e+03
2.404800e+03,5.118697e+03
2.405764e+03,5.104018e+03
2.406728e+03,5.092295e+03
2.407693e+03,5.082940e+03
2.408657e+03,5.080568e+03
2.409621e+03,5.086712e+03
2.410585e+03,5.101463e+03
2.411550e+03,5.115529e+03
2.412514e+03,5.103971e+03
2.413478e+03,5.078250e+03
2.414442e+03,5.072071e+03
2.415406e+03,5.069726e+03
2.416371e+03,5.049070e+03
2.417335e+03,5.027815e+03
2.418299e+03,5.034618e+03
2.419263e+03,5.046216e+03
2.420228e+03,5.050450e+03
2.421192e+03,5.048531e+03
2.422156e+03,5.038361e+03
2.423120e+03,5.034308e+03
2.424084e+03,5.036527e+03
2.425049e+03,5.029158e+03
2.426013e+03,5.002893e+03
2.426977e+03,4.991888e+03
2.427941e+03,5.002375e+03
2.428906e+03,5.006945e+03
2.429870e+03,4.993606e+03
2.430834e+03,4.983860e+03
2.431798e+03,4.979328e+03
2.432763e+03,4.977910e+03
2.433727e+03,4.977077e+03
2.434691e+03,4.980287e+03
2.435655e+03,4.983326e+03
2.436620e+03,4.977866e+03
2.437584e+03,4.967679e+03
2.438548e+03,4.962154e+03
2.439512e+03,4.960904e+03
2.440477e+03,4.960136e+03
2.441441e+03,4.959001e+03
2.442405e+03,4.972564e+03
2.443369e+03,4.973587e+03
2.444333e+03,4.950251e+03
2.445298e+03,4.927914e+03
2.446262e+03,4.926425e+03
2.447226e+03,4.933029e+03
2.448190e+03,4.948244e+03
2.449155e+03,4.952680e+03
2.450119e+03,4.923634e+03
2.451083e+03,4.921998e+03
2.452047e+03,4.942049e+03
2.453011e+03,4.935190e+03
2.453976e+03,4.890110e+03
2.454940e+03,4.881974e+03
2.455904e+03,4.900796e+03
2.456868e+03,4.902889e+03
2.457833e+03,4.889442e+03
2.458797e+03,4.883005e+03
2.459761e+03,4.883833e+03
2.460725e+03,4.889616e+03
2.461690e+03,4.896078e+03
2.462654e+03,4.903100e+03
2.463618e+03,4.900024e+03
2.464582e+03,4.881235e+03
2.465547e+03,4.866977e+03
2.466511e+03,4.870908e+03
2.467475e+03,4.874631e+03
2.468439e+03,4.873265e+03
2.469404e+03,4.871361e+03
2.470368e+03,4.884571e+03
2.471332e+03,4.880750e+03
2.472296e+03,4.857894e+03
2.473260e+03,4.834256e+03
2.474225e+03,4.814938e+03
2.475189e+03,4.813621e+03
2.476153e+03,4.828817e+03
2.477117e+03,4.848915e+03
2.478082e+03,4.866491e+03
2.479046e+03,4.868693e+03
2.480010e+03,4.860065e+03
2.480974e+03,4.846891e+03
2.481938e+03,4.835093e+03
2.482903e+03,4.833060e+03
2.483867e+03,4.833533e+03
2.484831e+03,4.831588e+03
2.485795e+03,4.825660e+03
2.486760e+03,4.821506e+03
2.487724e+03,4.803892e+03
2.488688e+03,4.772287e+03
2.489652e+03,4.751680e+03
2.490617e+03,4.755142e+03
2.491581e+03,4.761634e+03
2.492545e+03,4.770962e+03
2.493509e+03,4.764229e+03
2.494474e+03,4.738599e+03
2.495438e+03,4.734482e+03
2.496402e+03,4.745818e+03
2.497366e+03,4.768528e+03
2.498331e+03,4.788967e+03
2.499295e+03,4.779037e+03
2.500259e+03,4.753044e+03
2.501223e+03,4.725201e+03
2.502188e+03,4.709657e+03
2.503152e+03,4.733040e+03
2.504116e+03,4.751628e+03
2.505080e+03,4.753484e+03
2.506044e+03,4.743281e+03
2.507009e+03,4.701109e+03
2.507973e+03,4.693834e+03
2.508937e+03,4.722474e+03
2.509901e+03,4.742268e+03
2.510865e+03,4.741009e+03
2.511830e+03,4.717794e+03
2.512794e+03,4.683521e+03
2.513758e+03,4.688941e+03
2.514722e+03,4.717859e+03
2.515687e+03,4.710938e+03
2.516651e+03,4.693146e+03
2.517615e+03,4.693522e+03
2.518579e+03,4.693790e+03
2.519544e+03,4.655854e+03
2.520508e+03,4.638921e+03
2.521472e+03,4.668032e+03
2.522436e+03,4.693463e+03
2.523401e+03,4.671062e+03
2.524365e+03,4.663658e+03
2.525329e+03,4.670374e+03
2.526293e+03,4.670600e+03
2.527258e+03,4.662709e+03
2.528222e+03,4.661687e+03
2.529186e+03,4.665299e+03
2.530150e+03,4.669311e+03
2.531115e+03,4.671855e+03
2.532079e+03,4.649921e+03
2.533043e+03,4.627088e+03
2.534007e+03,4.627157e+03
2.534971e+03,4.631058e+03
2.535936e+03,4.620724e+03
2.536900e+03,4.612362e+03
2.537864e+03,4.610597e+03
2.538828e+03,4.616396e+03
2.539792e+03,4.626756e+03
2.540757e+03,4.625102e+03
2.541721e+03,4.609695e+03
2.542685e+03,4.601202e+03
2.543649e+03,4.603361e+03
2.544614e+03,4.608486e+03
2.545578e+03,4.612287e+03
2.546542e+03,4.614745e+03
2.547506e+03,4.616759e+03
2.548471e+03,4.618334e+03
2.549435e+03,4.613507e+03
2.550399e+03,4.593506e+03
2.551363e+03,4.575917e+03
2.552328e+03,4.580718e+03
2.553292e+03,4.589992e+03
2.554256e+03,4.602054e+03
2.555220e+03,4.593831e+03
2.556185e+03,4.561717e+03
2.557149e+03,4.541936e+03
2.558113e+03,4.541320e+03
2.559077e+03,4.553771e+03
2.560042e+03,4.569627e+03
2.561006e+03,4.563060e+03
2.561970e+03,4.552102e+03
2.562934e+03,4.565997e+03
2.563898e+03,4.580917e+03
2.564863e+03,4.561992e+03
2.565827e+03,4.536802e+03
2.566791e+03,4.531366e+03
2.567755e+03,4.538502e+03
2.568719e+03,4.550230e+03
2.569684e+03,4.548627e+03
2.570648e+03,4.522289e+03
2.571612e+03,4.497781e+03
2.572576e+03,4.484243e+03
2.573541e+03,4.513887e+03
2.574505e+03,4.568232e+03
2.575469e+03,4.555409e+03
2.576433e+03,4.514164e+03
2.577398e+03,4.510579e+03
2.578362e+03,4.519526e+03
2.579326e+03,4.503998e+03
2.580290e+03,4.494702e+03
2.581255e+03,4.503892e+03
2.582219e+03,4.504823e+03
2.583183e+03,4.462203e+03
2.584147e+03,4.458122e+03
2.585112e+03,4.498269e+03
2.586076e+03,4.517518e+03
2.587040e+03,4.505184e+03
2.588004e+03,4.495468e+03
2.588969e+03,4.487466e+03
2.589933e+03,4.489786e+03
2.590897e+03,4.493701e+03
2.591861e+03,4.472805e+03
2.592825e+03,4.454360e+03
2.593790e+03,4.454096e+03
2.594754e+03,4.457777e+03
2.595718e+03,4.457244e+03
2.596682e+03,4.456937e+03
2.597646e+03,4.455625e+03
2.598611e+03,4.444185e+03
2.599575e+03,4.427781e+03
2.600539e+03,4.421407e+03
2.601503e+03,4.424390e+03
2.602468e+03,4.432677e+03
2.603432e+03,4.439928e+03
2.604396e+03,4.441626e+03
2.605360e+03,4.436000e+03
2.606325e+03,4.400784e+03
2.607289e+03,4.382742e+03
2.608253e+03,4.404858e+03
2.609217e+03,4.429122e+03
2.610182e+03,4.435404e+03
2.611146e+03,4.421839e+03
2.612110e+03,4.394788e+03
2.613074e+03,4.380318e+03
2.614039e+03,4.382064e+03
2.615003e+03,4.385612e+03
2.615967e+03,4.386987e+03
2.616931e+03,4.392188e+03
2.617896e+03,4.396331e+03
2.618860e+03,4.387834e+03
2.619824e+03,4.377580e+03
2.620788e+03,4.367765e+03
2.621752e+03,4.361539e+03
2.622717e+03,4.364644e+03
2.623681e+03,4.373503e+03
2.624645e+03,4.384810e+03
2.625609e+03,4.387884e+03
2.626573e+03,4.382629e+03
2.627538e+03,4.361858e+03
2.628502e+03,4.341129e+03
2.629466e+03,4.337811e+03
2.630430e+03,4.341005e+03
2.631395e+03,4.335608e+03
2.632359e+03,4.329742e+03
2.633323e+03,4.324323e+03
2.634287e+03,4.339346e+03
2.635252e+03,4.379643e+03
2.636216e+03,4.385614e+03
2.637180e+03,4.344720e+03
2.638144e+03,4.319645e+03
2.639109e+03,4.308607e+03
2.640073e+03,4.321015e+03
2.641037e+03,4.342206e+03
2.642001e+03,4.341925e+03
2.642966e+03,4.333896e+03
2.643930e+03,4.324584e+03
2.644894e+03,4.322190e+03
2.645858e+03,4.340746e+03
2.646823e+03,4.350783e+03
2.647787e+03,4.348276e+03
2.648751e+03,4.342468e+03
2.649715e+03,4.333737e+03
2.650679e+03,4.312750e+03
2.651644e+03,4.294346e+03
2.652608e+03,4.303313e+03
2.653572e+03,4.317153e+03
2.654536e+03,4.299248e+03
2.655500e+03,4.285595e+03
2.656465e+03,4.289814e+03
2.657429e+03,4.299445e+03
2.658393e+03,4.307454e+03
2.659357e+03,4.307763e+03
2.660322e+03,4.303642e+03
2.661286e+03,4.281837e+03
2.662250e+03,4.254696e+03
2.663214e+03,4.267104e+03
2.664179e+03,4.288802e+03
2.665143e+03,4.278852e+03
2.666107e+03,4.276166e+03
2.667071e+03,4.304681e+03
2.668036e+03,4.320860e+03
2.669000e+03,4.286806e+03
2.669964e+03,4.261059e+03
2.670928e+03,4.244911e+03
2.671893e+03,4.236232e+03
2.672857e+03,4.233960e+03
2.673821e+03,4.218980e+03
2.674785e+03,4.211559e+03
2.675750e+03,4.241791e+03
2.676714e+03,4.271396e+03
2.677678e+03,4.239715e+03
2.678642e+03,4.224702e+03
2.679606e+03,4.245373e+03
2.680571e+03,4.242688e+03
2.681535e+03,4.207417e+03
2.682499e+03,4.204450e+03
2.683463e+03,4.224362e+03
2.684427e+03,4.224350e+03
2.685392e+03,4.212775e+03
2.686356e+03,4.190212e+03
2.687320e+03,4.174618e+03
2.688284e+03,4.183753e+03
2.689249e+03,4.203159e+03
2.690213e+03,4.226325e+03
2.691177e+03,4.230529e+03
2.692141e+03,4.210152e+03
2.693106e+03,4.208107e+03
2.694070e+03,4.216541e+03
2.695034e+03,4.213323e+03
2.695998e+03,4.203325e+03
2.696963e+03,4.191724e+03
2.697927e+03,4.189069e+03
2.698891e+03,4.197167e+03
2.699855e+03,4.196828e+03
2.700820e+03,4.177453e+03
2.701784e+03,4.183514e+03
2.702748e+03,4.211378e+03
2.703712e+03,4.220270e+03
2.704677e+03,4.210682e+03
2.705641e+03,4.189035e+03
2.706605e+03,4.169069e+03
2.707569e+03,4.151831e+03
2.708533e+03,4.147485e+03
2.709498e+03,4.159095e+03
2.710462e+03,4.168100e+03
2.711426e+03,4.173720e+03
2.712390e+03,4.157573e+03
2.713354e+03,4.126528e+03
2.714319e+03,4.112159e+03
2.715283e+03,4.109964e+03
2.716247e+03,4.112494e+03
2.717211e+03,4.119321e+03
2.718176e+03,4.132284e+03
2.719140e+03,4.136326e+03
2.720104e+03,4.112575e+03
2.721068e+03,4.108823e+03
2.722033e+03,4.128573e+03
2.722997e+03,4.123272e+03
2.723961e+03,4.098390e+03
2.724925e+03,4.100430e+03
2.725890e+03,4.109885e+03
2.726854e+03,4.084276e+03
2.727818e+03,4.071111e+03
2.728782e+03,4.093242e+03
2.729747e+03,4.109601e+03
2.730711e+03,4.095982e+03
2.731675e+03,4.091561e+03
2.732639e+03,4.095401e+03
2.733604e+03,4.089536e+03
2.734568e+03,4.077942e+03
2.735532e+03,4.074027e+03
2.736496e+03,4.074786e+03
2.737460e+03,4.080934e+03
2.738425e+03,4.086581e+03
2.739389e+03,4.086017e+03
2.740353e+03,4.083879e+03
2.741317e+03,4.083651e+03
2.742281e+03,4.093327e+03
2.743246e+03,4.108529e+03
2.744210e+03,4.099888e+03
2.745174e+03,4.082390e+03
2.746138e+03,4.087738e+03
2.747103e+03,4.095371e+03
2.748067e+03,4.099960e+03
2.749031e+03,4.093517e+03
2.749995e+03,4.059934e+03
2.750960e+03,4.051371e+03
2.751924e+03,4.059563e+03
2.752888e+03,4.054943e+03
2.753852e+03,4.041083e+03
2.754817e+03,4.022917e+03
2.755781e+03,4.021075e+03
2.756745e+03,4.051455e+03
2.757709e+03,4.068897e+03
2.758674e+03,4.055582e+03
2.759638e+03,4.051473e+03
2.760602e+03,4.061189e+03
2.761566e+03,4.040806e+03
2.762531e+03,4.015270e+03
2.763495e+03,4.024179e+03
2.764459e+03,4.037202e+03
2.765423e+03,4.024188e+03
2.766387e+03,4.016338e+03
2.767352e+03,4.022600e+03
2.768316e+03,4.029986e+03
2.769280e+03,4.034410e+03
2.770244e+03,4.031297e+03
2.771208e+03,4.025708e+03
2.772173e+03,4.022931e+03
2.773137e+03,4.017665e+03
2.774101e+03,4.010014e+03
2.775065e+03,4.005757e+03
2.776030e+03,4.005152e+03
2.776994e+03,4.006571e+03
2.777958e+03,4.004923e+03
2.778922e+03,3.988016e+03
2.779887e+03,3.968200e+03
2.780851e+03,3.983527e+03
2.781815e+03,3.997050e+03
2.782779e+03,3.986484e+03
2.783744e+03,3.978872e+03
2.784708e+03,3.987852e+03
2.785672e+03,3.996693e+03
2.786636e+03,4.001301e+03
2.787601e+03,3.991162e+03
2.788565e+03,3.977078e+03
2.789529e+03,3.981069e+03
2.790493e+03,3.992737e+03
2.791458e+03,4.010314e+03
2.792422e+03,4.002844e+03
2.793386e+03,3.971048e+03
2.794350e+03,3.966831e+03
2.795314e+03,3.999639e+03
2.796279e+03,3.993024e+03
2.797243e+03,3.968363e+03
2.798207e+03,3.970747e+03
2.799171e+03,3.980681e+03
2.800135e+03,3.968008e+03
2.801100e+03,3.953421e+03
2.802064e+03,3.943758e+03
2.803028e+03,3.950098e+03
2.803992e+03,3.964876e+03
2.804957e+03,3.951073e+03
2.805921e+03,3.931834e+03
2.806885e+03,3.957406e+03
2.807849e+03,3.977238e+03
2.808814e+03,3.966619e+03
2.809778e+03,3.953033e+03
2.810742e+03,3.951866e+03
2.811706e+03,3.942800e+03
2.812671e+03,3.927924e+03
2.813635e+03,3.928243e+03
2.814599e+03,3.938036e+03
2.815563e+03,3.961756e+03
2.816528e+03,3.969144e+03
2.817492e+03,3.933103e+03
2.818456e+03,3.924152e+03
2.819420e+03,3.942856e+03
2.820385e+03,3.954626e+03
2.821349e+03,3.959948e+03
2.822313e+03,3.967403e+03
2.823277e+03,3.962513e+03
2.824241e+03,3.931909e+03
2.825206e+03,3.901563e+03
2.826170e+03,3.889251e+03
2.827134e+03,3.892789e+03
2.828098e+03,3.907161e+03
2.829063e+03,3.917098e+03
2.830027e+03,3.920205e+03
2.830991e+03,3.919875e+03
2.831955e+03,3.913445e+03
2.832919e+03,3.870717e+03
2.833884e+03,3.858685e+03
2.834848e+03,3.881622e+03
2.835812e+03,3.893648e+03
2.836776e+03,3.891498e+03
2.837741e+03,3.889804e+03
2.838705e+03,3.893101e+03
2.839669e+03,3.908536e+03
2.840633e+03,3.914705e+03
2.841598e+03,3.899722e+03
2.842562e+03,3.893164e+03
2.843526e+03,3.905522e+03
2.844490e+03,3.890230e+03
2.845455e+03,3.862941e+03
2.846419e+03,3.860068e+03
2.847383e+03,3.864781e+03
2.848347e+03,3.856512e+03
2.849312e+03,3.852755e+03
2.850276e+03,3.855983e+03
2.851240e+03,3.870525e+03
2.852204e+03,3.886374e+03
2.853168e+03,3.865037e+03
2.854133e+03,3.837495e+03
2.855097e+03,3.847773e+03
2.856061e+03,3.872821e+03
2.857025e+03,3.898081e+03
2.857990e+03,3.892567e+03
2.858954e+03,3.847488e+03
2.859918e+03,3.845022e+03
2.860882e+03,3.858507e+03
2.861846e+03,3.839262e+03
2.862811e+03,3.818325e+03
2.863775e+03,3.824462e+03
2.864739e+03,3.841973e+03
2.865703e+03,3.868579e+03
2.866668e+03,3.878779e+03
2.867632e+03,3.872781e+03
2.868596e+03,3.845712e+03
2.869560e+03,3.819636e+03
2.870525e+03,3.835285e+03
2.871489e+03,3.845619e+03
2.872453e+03,3.837092e+03
2.873417e+03,3.827930e+03
2.874382e+03,3.820574e+03
2.875346e+03,3.829071e+03
2.876310e+03,3.848172e+03
2.877274e+03,3.871742e+03
2.878239e+03,3.870629e+03
2.879203e+03,3.833569e+03
2.880167e+03,3.815602e+03
2.881131e+03,3.839067e+03
2.882095e+03,3.860173e+03
2.883060e+03,3.872231e+03
2.884024e+03,3.862615e+03
2.884988e+03,3.846009e+03
2.885952e+03,3.831504e+03
2.886917e+03,3.827147e+03
2.887881e+03,3.840019e+03
2.888845e+03,3.852128e+03
2.889809e+03,3.857978e+03
2.890773e+03,3.839156e+03
2.891738e+03,3.808917e+03
2.892702e+03,3.775944e+03
2.893666e+03,3.776144e+03
2.894630e+03,3.812370e+03
2.895595e+03,3.807297e+03
2.896559e+03,3.770386e+03
2.897523e+03,3.771874e+03
2.898487e+03,3.790204e+03
2.899452e+03,3.811627e+03
2.900416e+03,3.812309e+03
2.901380e+03,3.789036e+03
2.902344e+03,3.786945e+03
2.903309e+03,3.807245e+03
2.904273e+03,3.785949e+03
2.905237e+03,3.760469e+03
2.906201e+03,3.771704e+03
2.907166e+03,3.788353e+03
2.908130e+03,3.796571e+03
2.909094e+03,3.786738e+03
2.910058e+03,3.761103e+03
2.911022e+03,3.768377e+03
2.911987e+03,3.786753e+03
2.912951e+03,3.788222e+03
2.913915e+03,3.782725e+03
2.914879e+03,3.777032e+03
2.915844e+03,3.754778e+03
2.916808e+03,3.721754e+03
2.917772e+03,3.712623e+03
2.918736e+03,3.717059e+03
2.919700e+03,3.714030e+03
2.920665e+03,3.716904e+03
2.921629e+03,3.751177e+03
2.922593e+03,3.748595e+03
2.923557e+03,3.718531e+03
2.924522e+03,3.711225e+03
2.925486e+03,3.717750e+03
2.926450e+03,3.711205e+03
2.927414e+03,3.710806e+03
2.928379e+03,3.728152e+03
2.929343e+03,3.736941e+03
2.930307e+03,3.734978e+03
2.931271e+03,3.732834e+03
2.932236e+03,3.734971e+03
2.933200e+03,3.751081e+03
2.934164e+03,3.748611e+03
2.935128e+03,3.709200e+03
2.936093e+03,3.687969e+03
2.937057e+03,3.691556e+03
2.938021e+03,3.697875e+03
2.938985e+03,3.706158e+03
2.939949e+03,3.712863e+03
2.940914e+03,3.715996e+03
2.941878e+03,3.717396e+03
2.942842e+03,3.699497e+03
2.943806e+03,3.658708e+03
2.944771e+03,3.666383e+03
2.945735e+03,3.691669e+03
2.946699e+03,3.688925e+03
2.947663e+03,3.682532e+03
2.948627e+03,3.676406e+03
2.949592e+03,3.694610e+03
2.950556e+03,3.738443e+03
2.951520e+03,3.744202e+03
2.952484e+03,3.723293e+03
2.953449e+03,3.690923e+03
2.954413e+03,3.678333e+03
2.955377e+03,3.702117e+03
2.956341e+03,3.704444e+03
2.957306e+03,3.681707e+03
2.958270e+03,3.668853e+03
2.959234e+03,3.660885e+03
2.960198e+03,3.661575e+03
2.961163e+03,3.668138e+03
2.962127e+03,3.671980e+03
2.963091e+03,3.643273e+03
2.964055e+03,3.595326e+03
2.965020e+03,3.591456e+03
2.965984e+03,3.619562e+03
2.966948e+03,3.666052e+03
2.967912e+03,3.692560e+03
2.968876e+03,3.680338e+03
2.969841e+03,3.642058e+03
2.970805e+03,3.605696e+03
2.971769e+03,3.632897e+03
2.972733e+03,3.661152e+03
2.973698e+03,3.641679e+03
2.974662e+03,3.638877e+03
2.975626e+03,3.670765e+03
2.976590e+03,3.693210e+03
2.977554e+03,3.698738e+03
2.978519e+03,3.675461e+03
2.979483e+03,3.641865e+03
2.980447e+03,3.609198e+03
2.981411e+03,3.610163e+03
2.982376e+03,3.643688e+03
2.983340e+03,3.638001e+03
2.984304e+03,3.620191e+03
2.985268e+03,3.620123e+03
2.986233e+03,3.620762e+03
2.987197e+03,3.614076e+03
2.988161e+03,3.610733e+03
2.989125e+03,3.615822e+03
2.990090e+03,3.644170e+03
2.991054e+03,3.654418e+03
2.992018e+03,3.610683e+03
2.992982e+03,3.577004e+03
2.993947e+03,3.584475e+03
2.994911e+03,3.588648e+03
2.995875e+03,3.602500e+03
2.996839e+03,3.647401e+03
2.997803e+03,3.660638e+03
2.998768e+03,3.603655e+03
2.999732e+03,3.572563e+03
3.000696e+03,3.583870e+03
3.001660e+03,3.518775e+03
3.002625e+03,3.470167e+03
3.003589e+03,3.535387e+03
3.004553e+03,3.591362e+03
3.005517e+03,3.582150e+03
3.006481e+03,3.575781e+03
3.007446e+03,3.574380e+03
3.008410e+03,3.578984e+03
3.009374e+03,3.582411e+03
3.010338e+03,3.584055e+03
3.011303e+03,3.593358e+03
3.012267e+03,3.606422e+03
3.013231e+03,3.599314e+03
3.014195e+03,3.584322e+03
3.015160e+03,3.592698e+03
3.016124e+03,3.589208e+03
3.017088e+03,3.561609e+03
3.018052e+03,3.546116e+03
3.019017e+03,3.544418e+03
3.019981e+03,3.549045e+03
3.020945e+03,3.553818e+03
3.021909e+03,3.555708e+03
3.022874e+03,3.536241e+03
3.023838e+03,3.498273e+03
3.024802e+03,3.513806e+03
3.025766e+03,3.560071e+03
3.026730e+03,3.574422e+03
3.027695e+03,3.564235e+03
3.028659e+03,3.534478e+03
3.029623e+03,3.542978e+03
3.030587e+03,3.582808e+03
3.031552e+03,3.599389e+03
3.032516e+03,3.592832e+03
3.033480e+03,3.559246e+03
3.034444e+03,3.531626e+03
3.035408e+03,3.518219e+03
3.036373e+03,3.514596e+03
3.037337e+03,3.519369e+03
3.038301e+03,3.563606e+03
3.039265e+03,3.588732e+03
3.040230e+03,3.533763e+03
3.041194e+03,3.526122e+03
3.042158e+03,3.550256e+03
3.043122e+03,3.518787e+03
3.044087e+03,3.484801e+03
3.045051e+03,3.536532e+03
3.046015e+03,3.550445e+03
3.046979e+03,3.489574e+03
3.047944e+03,3.470605e+03
3.048908e+03,3.488400e+03
3.049872e+03,3.530672e+03
3.050836e+03,3.548814e+03
3.051801e+03,3.500466e+03
3.052765e+03,3.497143e+03
3.053729e+03,3.535513e+03
3.054693e+03,3.542302e+03
3.055657e+03,3.546518e+03
3.056622e+03,3.566815e+03
3.057586e+03,3.559448e+03
3.058550e+03,3.515781e+03
3.059514e+03,3.536949e+03
3.060479e+03,3.578722e+03
3.061443e+03,3.559131e+03
3.062407e+03,3.508006e+03
3.063371e+03,3.441899e+03
3.064335e+03,3.432580e+03
3.065300e+03,3.468398e+03
3.066264e+03,3.480461e+03
3.067228e+03,3.480697e+03
3.068192e+03,3.468786e+03
3.069157e+03,3.472485e+03
3.070121e+03,3.489713e+03
3.071085e+03,3.512467e+03
3.072049e+03,3.516435e+03
3.073014e+03,3.431545e+03
3.073978e+03,3.398669e+03
3.074942e+03,3.445610e+03
3.075906e+03,3.445620e+03
3.076871e+03,3.437158e+03
3.077835e+03,3.490688e+03
3.078799e+03,3.537697e+03
3.079763e+03,3.530444e+03
3.080728e+03,3.531067e+03
3.081692e+03,3.535289e+03
3.082656e+03,3.494200e+03
3.083620e+03,3.473440e+03
3.084584e+03,3.509386e+03
3.085549e+03,3.520253e+03
3.086513e+03,3.492585e+03
3.087477e+03,3.494642e+03
3.088441e+03,3.503371e+03
3.089406e+03,3.500080e+03
3.090370e+03,3.509145e+03
3.091334e+03,3.529320e+03
3.092298e+03,3.494904e+03
3.093262e+03,3.442938e+03
3.094227e+03,3.460275e+03
3.095191e+03,3.474370e+03
3.096155e+03,3.460552e+03
3.097119e+03,3.436458e+03
3.098084e+03,3.419434e+03
3.099048e+03,3.432339e+03
3.100012e+03,3.456605e+03
3.100976e+03,3.483138e+03
3.101941e+03,3.501082e+03
3.102905e+03,3.504040e+03
3.103869e+03,3.467420e+03
3.104833e+03,3.432061e+03
3.105798e+03,3.426742e+03
3.106762e+03,3.409705e+03
3.107726e+03,3.378865e+03
3.108690e+03,3.405840e+03
3.109655e+03,3.443993e+03
3.110619e+03,3.436379e+03
3.111583e+03,3.421884e+03
3.112547e+03,3.413521e+03
3.113511e+03,3.425317e+03
3.114476e+03,3.450947e+03
3.115440e+03,3.500963e+03
3.116404e+03,3.512001e+03
3.117368e+03,3.453791e+03
3.118333e+03,3.415243e+03
3.119297e+03,3.404895e+03
3.120261e+03,3.431536e+03
3.121225e+03,3.452425e+03
3.122189e+03,3.441856e+03
3.123154e+03,3.459555e+03
3.124118e+03,3.490321e+03
3.125082e+03,3.461581e+03
3.126046e+03,3.444568e+03
3.127011e+03,3.471457e+03
3.127975e+03,3.463233e+03
3.128939e+03,3.426938e+03
3.129903e+03,3.453261e+03
3.130868e+03,3.477763e+03
3.131832e+03,3.417249e+03
3.132796e+03,3.403337e+03
3.133760e+03,3.436821e+03
3.134725e+03,3.464056e+03
3.135689e+03,3.473516e+03
3.136653e+03,3.458180e+03
3.137617e+03,3.419099e+03
3.138582e+03,3.358364e+03
3.139546e+03,3.392428e+03
3.140510e+03,3.447025e+03
3.141474e+03,3.447843e+03
3.142438e+03,3.454918e+03
3.143403e+03,3.475676e+03
3.144367e+03,3.434613e+03
3.145331e+03,3.386942e+03
3.146295e+03,3.462441e+03
3.147260e+03,3.484019e+03
3.148224e+03,3.401517e+03
3.149188e+03,3.402084e+03
3.150152e+03,3.432480e+03
3.151116e+03,3.410242e+03
3.152081e+03,3.382785e+03
3.153045e+03,3.364016e+03
3.154009e+03,3.400778e+03
3.154973e+03,3.454435e+03
3.155938e+03,3.425634e+03
3.156902e+03,3.397439e+03
3.157866e+03,3.390331e+03
3.158830e+03,3.407691e+03
3.159795e+03,3.438282e+03
3.160759e+03,3.436641e+03
3.161723e+03,3.432510e+03
3.162687e+03,3.453621e+03
3.163652e+03,3.443330e+03
3.164616e+03,3.418782e+03
3.165580e+03,3.403436e+03
3.166544e+03,3.395737e+03
3.167509e+03,3.395776e+03
3.168473e+03,3.389504e+03
3.169437e+03,3.381573e+03
3.170401e+03,3.396282e+03
3.171365e+03,3.402793e+03
3.172330e+03,3.389586e+03
3.173294e+03,3.389388e+03
3.174258e+03,3.397498e+03
3.175222e+03,3.394248e+03
3.176187e+03,3.401511e+03
3.177151e+03,3.446247e+03
3.178115e+03,3.439715e+03
3.179079e+03,3.401247e+03
3.180043e+03,3.400224e+03
3.181008e+03,3.417095e+03
3.181972e+03,3.445339e+03
3.182936e+03,3.462454e+03
3.183900e+03,3.469647e+03
3.184865e+03,3.488877e+03
3.185829e+03,3.495114e+03
3.186793e+03,3.475411e+03
3.187757e+03,3.452721e+03
3.188722e+03,3.434560e+03
3.189686e+03,3.441540e+03
3.190650e+03,3.439557e+03
3.191614e+03,3.414652e+03
3.192579e+03,3.391047e+03
3.193543e+03,3.375480e+03
3.194507e+03,3.384961e+03
3.195471e+03,3.403453e+03
3.196436e+03,3.421315e+03
3.197400e+03,3.433503e+03
3.198364e+03,3.437715e+03
3.199328e+03,3.438493e+03
3.200292e+03,3.426091e+03
3.201257e+03,0.000000e+00
3.202221e+03,0.000000e+00
3.203185e+03,0.000000e+00
3.204149e+03,0.000000e+00
3.205114e+03,0.000000e+00
3.206078e+03,0.000000e+00
3.207042e+03,0.000000e+00
3.208006e+03,0.000000e+00
3.208970e+03,0.000000e+00
3.209935e+03,0.000000e+00
3.210899e+03,0.000000e+00
3.211863e+03,0.000000e+00
3.212827e+03,0.000000e+00
3.213792e+03,0.000000e+00
3.214756e+03,0.000000e+00
3.215720e+03,0.000000e+00
3.216684e+03,0.000000e+00
3.217649e+03,0.000000e+00
3.218613e+03,0.000000e+00
3.219577e+03,0.000000e+00
3.220541e+03,0.000000e+00
3.221506e+03,0.000000e+00
3.222470e+03,0.000000e+00
3.223434e+03,0.000000e+00
3.224398e+03,0.000000e+00
3.225363e+03,0.000000e+00
3.226327e+03,0.000000e+00
3.227291e+03,0.000000e+00
3.228255e+03,0.000000e+00
3.229219e+03,0.000000e+00
3.230184e+03,0.000000e+00
3.231148e+03,0.000000e+00
3.232112e+03,0.000000e+00
3.233076e+03,0.000000e+00
3.234041e+03,0.000000e+00
3.235005e+03,0.000000e+00
3.235969e+03,0.000000e+00
3.236933e+03,0.000000e+00
3.237897e+03,0.000000e+00
3.238862e+03,0.000000e+00
3.239826e+03,0.000000e+00
3.240790e+03,0.000000e+00
3.241754e+03,0.000000e+00
3.242719e+03,0.000000e+00
3.243683e+03,0.000000e+00
3.244647e+03,0.000000e+00
3.245611e+03,0.000000e+00
3.246576e+03,0.000000e+00
3.247540e+03,0.000000e+00
3.248504e+03,0.000000e+00
3.249468e+03,0.000000e+00
3.250433e+03,0.000000e+00
3.251397e+03,0.000000e+00
3.252361e+03,0.000000e+00
3.253325e+03,0.000000e+00
3.254290e+03,0.000000e+00
3.255254e+03,0.000000e+00
3.256218e+03,0.000000e+00
3.257182e+03,0.000000e+00
3.258146e+03,0.000000e+00
3.259111e+03,0.000000e+00
3.260075e+03,0.000000e+00
3.261039e+03,0.000000e+00
3.262003e+03,0.000000e+00
3.262968e+03,0.000000e+00
3.263932e+03,0.000000e+00
3.264896e+03,0.000000e+00
3.265860e+03,0.000000e+00
3.266824e+03,0.000000e+00
3.267789e+03,0.000000e+00
3.268753e+03,0.000000e+00
3.269717e+03,0.000000e+00
3.270681e+03,0.000000e+00
3.271646e+03,0.000000e+00
3.272610e+03,0.000000e+00
3.273574e+03,0.000000e+00
3.274538e+03,0.000000e+00
3.275503e+03,0.000000e+00
3.276467e+03,0.000000e+00
3.277431e+03,0.000000e+00
3.278395e+03,0.000000e+00
3.279360e+03,0.000000e+00
3.280324e+03,0.000000e+00
3.281288e+03,0.000000e+00
3.282252e+03,0.000000e+00
3.283217e+03,0.000000e+00
3.284181e+03,0.000000e+00
3.285145e+03,0.000000e+00
3.286109e+03,0.000000e+00
3.287073e+03,0.000000e+00
3.288038e+03,0.000000e+00
3.289002e+03,0.000000e+00
3.289966e+03,0.000000e+00
3.290930e+03,0.000000e+00
3.291895e+03,0.000000e+00
3.292859e+03,0.000000e+00
3.293823e+03,0.000000e+00
3.294787e+03,0.000000e+00
3.295751e+03,0.000000e+00
3.296716e+03,0.000000e+00
3.297680e+03,0.000000e+00
3.298644e+03,0.000000e+00
3.299608e+03,0.000000e+00
3.300573e+03,0.000000e+00
3.301537e+03,0.000000e+00
3.302501e+03,0.000000e+00
3.303465e+03,0.000000e+00
3.304430e+03,0.000000e+00
3.305394e+03,0.000000e+00
3.306358e+03,0.000000e+00
3.307322e+03,0.000000e+00
3.308287e+03,0.000000e+00
3.309251e+03,0.000000e+00
3.310215e+03,0.000000e+00
3.311179e+03,0.000000e+00
3.312144e+03,0.000000e+00
3.313108e+03,0.000000e+00
3.314072e+03,0.000000e+00
3.315036e+03,0.000000e+00
3.316000e+03,0.000000e+00
3.316965e+03,0.000000e+00
3.317929e+03,0.000000e+00
3.318893e+03,0.000000e+00
3.319857e+03,0.000000e+00
3.320822e+03,0.000000e+00
3.321786e+03,0.000000e+00
3.322750e+03,0.000000e+00
3.323714e+03,0.000000e+00
3.324678e+03,0.000000e+00
3.325643e+03,0.000000e+00
3.326607e+03,0.000000e+00
3.327571e+03,0.000000e+00
3.328535e+03,0.000000e+00
3.329500e+03,0.000000e+00
3.330464e+03,0.000000e+00
3.331428e+03,0.000000e+00
3.332392e+03,0.000000e+00
3.333357e+03,0.000000e+00
3.334321e+03,0.000000e+00
3.335285e+03,0.000000e+00
3.336249e+03,0.000000e+00
3.337214e+03,0.000000e+00
3.338178e+03,0.000000e+00
3.339142e+03,0.000000e+00
3.340106e+03,0.000000e+00
3.341071e+03,0.000000e+00
3.342035e+03,0.000000e+00
3.342999e+03,0.000000e+00
3.343963e+03,0.000000e+00
3.344927e+03,0.000000e+00
3.345892e+03,0.000000e+00
3.346856e+03,0.000000e+00
3.347820e+03,0.000000e+00
3.348784e+03,0.000000e+00
3.349749e+03,0.000000e+00
3.350713e+03,0.000000e+00
3.351677e+03,0.000000e+00
3.352641e+03,0.000000e+00
3.353605e+03,0.000000e+00
3.354570e+03,0.000000e+00
3.355534e+03,0.000000e+00
3.356498e+03,0.000000e+00
3.357462e+03,0.000000e+00
3.358427e+03,0.000000e+00
3.359391e+03,0.000000e+00
3.360355e+03,0.000000e+00
3.361319e+03,0.000000e+00
3.362284e+03,0.000000e+00
3.363248e+03,0.000000e+00
3.364212e+03,0.000000e+00
3.365176e+03,0.000000e+00
3.366141e+03,0.000000e+00
3.367105e+03,0.000000e+00
3.368069e+03,0.000000e+00
3.369033e+03,0.000000e+00
3.369998e+03,0.000000e+00
3.370962e+03,0.000000e+00
3.371926e+03,0.000000e+00
3.372890e+03,0.000000e+00
3.373854e+03,0.000000e+00
3.374819e+03,0.000000e+00
3.375783e+03,0.000000e+00
3.376747e+03,0.000000e+00
3.377711e+03,0.000000e+00
3.378676e+03,0.000000e+00
3.379640e+03,0.000000e+00
3.380604e+03,0.000000e+00
3.381568e+03,0.000000e+00
3.382532e+03,0.000000e+00
3.383497e+03,0.000000e+00
3.384461e+03,0.000000e+00
3.385425e+03,0.000000e+00
3.386389e+03,0.000000e+00
3.387354e+03,0.000000e+00
3.388318e+03,0.000000e+00
3.389282e+03,0.000000e+00
3.390246e+03,0.000000e+00
3.391211e+03,0.000000e+00
3.392175e+03,0.000000e+00
3.393139e+03,0.000000e+00
3.394103e+03,0.000000e+00
3.395068e+03,0.000000e+00
3.396032e+03,0.000000e+00
3.396996e+03,0.000000e+00
3.397960e+03,0.000000e+00
3.398925e+03,0.000000e+00
3.399889e+03,0.000000e+00
3.400853e+03,0.000000e+00
3.401817e+03,0.000000e+00
3.402781e+03,0.000000e+00
3.403746e+03,0.000000e+00
3.404710e+03,0.000000e+00
3.405674e+03,0.000000e+00
3.406638e+03,0.000000e+00
3.407603e+03,0.000000e+00
3.408567e+03,0.000000e+00
3.409531e+03,0.000000e+00
3.410495e+03,0.000000e+00
3.411459e+03,0.000000e+00
3.412424e+03,0.000000e+00
3.413388e+03,0.000000e+00
3.414352e+03,0.000000e+00
3.415316e+03,0.000000e+00
3.416281e+03,0.000000e+00
3.417245e+03,0.000000e+00
3.418209e+03,0.000000e+00
3.419173e+03,0.000000e+00
3.420138e+03,0.000000e+00
3.421102e+03,0.000000e+00
3.422066e+03,0.000000e+00
3.423030e+03,0.000000e+00
3.423995e+03,0.000000e+00
3.424959e+03,0.000000e+00
3.425923e+03,0.000000e+00
3.426887e+03,0.000000e+00
3.427852e+03,0.000000e+00
3.428816e+03,0.000000e+00
3.429780e+03,0.000000e+00
3.430744e+03,0.000000e+00
3.431708e+03,0.000000e+00
3.432673e+03,0.000000e+00
3.433637e+03,0.000000e+00
3.434601e+03,0.000000e+00
3.435565e+03,0.000000e+00
3.436530e+03,0.000000e+00
3.437494e+03,0.000000e+00
3.438458e+03,0.000000e+00
3.439422e+03,0.000000e+00
3.440386e+03,0.000000e+00
3.441351e+03,0.000000e+00
3.442315e+03,0.000000e+00
3.443279e+03,0.000000e+00
3.444243e+03,0.000000e+00
3.445208e+03,0.000000e+00
3.446172e+03,0.000000e+00
3.447136e+03,0.000000e+00
3.448100e+03,0.000000e+00
3.449065e+03,0.000000e+00
3.450029e+03,0.000000e+00
3.450993e+03,0.000000e+00
3.451957e+03,0.000000e+00
3.452922e+03,0.000000e+00
3.453886e+03,0.000000e+00
3.454850e+03,0.000000e+00
3.455814e+03,0.000000e+00
3.456779e+03,0.000000e+00
3.457743e+03,0.000000e+00
3.458707e+03,0.000000e+00
3.459671e+03,0.000000e+00
3.460635e+03,0.000000e+00
3.461600e+03,0.000000e+00
3.462564e+03,0.000000e+00
3.463528e+03,0.000000e+00
3.464492e+03,0.000000e+00
3.465457e+03,0.000000e+00
3.466421e+03,0.000000e+00
3.467385e+03,0.000000e+00
3.468349e+03,0.000000e+00
3.469313e+03,0.000000e+00
3.470278e+03,0.000000e+00
3.471242e+03,0.000000e+00
3.472206e+03,0.000000e+00
3.473170e+03,0.000000e+00
3.474135e+03,0.000000e+00
3.475099e+03,0.000000e+00
3.476063e+03,0.000000e+00
3.477027e+03,0.000000e+00
3.477992e+03,0.000000e+00
3.478956e+03,0.000000e+00
3.479920e+03,0.000000e+00
3.480884e+03,0.000000e+00
3.481849e+03,0.000000e+00
3.482813e+03,0.000000e+00
3.483777e+03,0.000000e+00
3.484741e+03,0.000000e+00
3.485706e+03,0.000000e+00
3.486670e+03,0.000000e+00
3.487634e+03,0.000000e+00
3.488598e+03,0.000000e+00
3.489563e+03,0.000000e+00
3.490527e+03,0.000000e+00
3.491491e+03,0.000000e+00
3.492455e+03,0.000000e+00
3.493419e+03,0.000000e+00
3.494384e+03,0.000000e+00
3.495348e+03,0.000000e+00
3.496312e+03,0.000000e+00
3.497276e+03,0.000000e+00
3.498240e+03,0.000000e+00
3.499205e+03,0.000000e+00
3.500169e+03,0.000000e+00
