9.931763e+01,0.000000e+00
1.002819e+02,0.000000e+00
1.012461e+02,0.000000e+00
1.022103e+02,0.000000e+00
1.031746e+02,0.000000e+00
1.041388e+02,0.000000e+00
1.051030e+02,0.000000e+00
1.060673e+02,0.000000e+00
1.070315e+02,0.000000e+00
1.079957e+02,0.000000e+00
1.089600e+02,0.000000e+00
1.099242e+02,0.000000e+00
1.108884e+02,0.000000e+00
1.118527e+02,0.000000e+00
1.128169e+02,0.000000e+00
1.137811e+02,0.000000e+00
1.147454e+02,0.000000e+00
1.157096e+02,0.000000e+00
1.166738e+02,0.000000e+00
1.176381e+02,0.000000e+00
1.186023e+02,0.000000e+00
1.195665e+02,0.000000e+00
1.205308e+02,0.000000e+00
1.214950e+02,0.000000e+00
1.224592e+02,0.000000e+00
1.234235e+02,0.000000e+00
1.243877e+02,0.000000e+00
1.253519e+02,0.000000e+00
1.263162e+02,0.000000e+00
1.272804e+02,0.000000e+00
1.282446e+02,0.000000e+00
1.292089e+02,0.000000e+00
1.301731e+02,0.000000e+00
1.311373e+02,0.000000e+00
1.321016e+02,0.000000e+00
1.330658e+02,0.000000e+00
1.340300e+02,0.000000e+00
1.349943e+02,0.000000e+00
1.359585e+02,0.000000e+00
1.369227e+02,0.000000e+00
1.378870e+02,0.000000e+00
1.388512e+02,0.000000e+00
1.398154e+02,0.000000e+00
1.407797e+02,0.000000e+00
1.417439e+02,0.000000e+00
1.427081e+02,0.000000e+00
1.436724e+02,0.000000e+00
1.446366e+02,0.000000e+00
1.456008e+02,0.000000e+00
1.465651e+02,0.000000e+00
1.475293e+02,0.000000e+00
1.484935e+02,0.000000e+00
1.494578e+02,0.000000e+00
1.504220e+02,0.000000e+00
1.513862e+02,0.000000e+00
1.523505e+02,0.000000e+00
1.533147e+02,0.000000e+00
1.542789e+02,0.000000e+00
1.552432e+02,0.000000e+00
1.562074e+02,0.000000e+00
1.571716e+02,0.000000e+00
1.581359e+02,0.000000e+00
1.591001e+02,0.000000e+00
1.600643e+02,0.000000e+00
1.610286e+02,0.000000e+00
1.619928e+02,0.000000e+00
1.629570e+02,0.000000e+00
1.639213e+02,0.000000e+00
1.648855e+02,0.000000e+00
1.658497e+02,0.000000e+00
1.668140e+02,0.000000e+00
1.677782e+02,0.000000e+00
1.687424e+02,0.000000e+00
1.697067e+02,0.000000e+00
1.706709e+02,0.000000e+00
1.716351e+02,0.000000e+00
1.725994e+02,0.000000e+00
1.735636e+02,0.000000e+00
1.745278e+02,0.000000e+00
1.754921e+02,0.000000e+00
1.764563e+02,0.000000e+00
1.774205e+02,0.000000e+00
1.783848e+02,0.000000e+00
1.793490e+02,0.000000e+00
1.803132e+02,0.000000e+00
1.812775e+02,0.000000e+00
1.822417e+02,0.000000e+00
1.832059e+02,0.000000e+00
1.841702e+02,0.000000e+00
1.851344e+02,0.000000e+00
1.860986e+02,0.000000e+00
1.870629e+02,0.000000e+00
1.880271e+02,0.000000e+00
1.889913e+02,0.000000e+00
1.899556e+02,0.000000e+00
1.909198e+02,0.000000e+00
1.918840e+02,0.000000e+00
1.928483e+02,0.000000e+00
1.938125e+02,0.000000e+00
1.947767e+02,0.000000e+00
1.957410e+02,0.000000e+00
1.967052e+02,0.000000e+00
1.976694e+02,0.000000e+00
1.986337e+02,0.000000e+00
1.995979e+02,1.046964e+04
2.005621e+02,1.047981e+04
2.015264e+02,1.049152e+04
2.024906e+02,1.050564e+04
2.034548e+02,1.052034e+04
2.044191e+02,1.053340e+04
2.053833e+02,1.054303e+04
2.063475e+02,1.054905e+04
2.073118e+02,1.055229e+04
2.082760e+02,1.055275e+04
2.092402e+02,1.055023e+04
2.102045e+02,1.054658e+04
2.111687e+02,1.054622e+04
2.121329e+02,1.055114e+04
2.130972e+02,1.056043e+04
2.140614e+02,1.057110e+04
2.150256e+02,1.057994e+04
2.159899e+02,1.058612e+04
2.169541e+02,1.059435e+04
2.179183e+02,1.060919e+04
2.188826e+02,1.062824e+04
2.198468e+02,1.064671e+04
2.208110e+02,1.066058e+04
2.217753e+02,1.066859e+04
2.227395e+02,1.067257e+04
2.237037e+02,1.067718e+04
2.246680e+02,1.068221e+04
2.256322e+02,1.068503e+04
2.265964e+02,1.068749e+04
2.275607e+02,1.069241e+04
2.285249e+02,1.070199e+04
2.294892e+02,1.071674e+04
2.304534e+02,1.073503e+04
2.314176e+02,1.075159e+04
2.323819e+02,1.076485e+04
2.333461e+02,1.077655e+04
2.343103e+02,1.078854e+04
2.352746e+02,1.080180e+04
2.362388e+02,1.081599e+04
2.372030e+02,1.082920e+04
2.381673e+02,1.083688e+04
2.391315e+02,1.083789e+04
2.400957e+02,1.083586e+04
2.410600e+02,1.083374e+04
2.420242e+02,1.083454e+04
2.429884e+02,1.084039e+04
2.439527e+02,1.085114e+04
2.449169e+02,1.086350e+04
2.458811e+02,1.087555e+04
2.468454e+02,1.088743e+04
2.478096e+02,1.089928e+04
2.487738e+02,1.091119e+04
2.497381e+02,1.092293e+04
2.507023e+02,1.093465e+04
2.516665e+02,1.094691e+04
2.526308e+02,1.095972e+04
2.535950e+02,1.096986e+04
2.545592e+02,1.097477e+04
2.555235e+02,1.097477e+04
2.564877e+02,1.097263e+04
2.574519e+02,1.097223e+04
2.584161e+02,1.097703e+04
2.593804e+02,1.098841e+04
2.603446e+02,1.100378e+04
2.613088e+02,1.102010e+04
2.622731e+02,1.103715e+04
2.632373e+02,1.105562e+04
2.642015e+02,1.107264e+04
2.651658e+02,1.108527e+04
2.661300e+02,1.109288e+04
2.670942e+02,1.109793e+04
2.680585e+02,1.110515e+04
2.690227e+02,1.111871e+04
2.699869e+02,1.113241e+04
2.709512e+02,1.114052e+04
2.719154e+02,1.114331e+04
2.728796e+02,1.114520e+04
2.738439e+02,1.115154e+04
2.748081e+02,1.116541e+04
2.757723e+02,1.118599e+04
2.767366e+02,1.120554e+04
2.777008e+02,1.121963e+04
2.786650e+02,1.122956e+04
2.796293e+02,1.123792e+04
2.805935e+02,1.124688e+04
2.815577e+02,1.125743e+04
2.825220e+02,1.126901e+04
2.834862e+02,1.127886e+04
2.844504e+02,1.128402e+04
2.854147e+02,1.128623e+04
2.863789e+02,1.128756e+04
2.873431e+02,1.129060e+04
2.883074e+02,1.129709e+04
2.892716e+02,1.130667e+04
2.902358e+02,1.131700e+04
2.912001e+02,1.132663e+04
2.921643e+02,1.133578e+04
2.931285e+02,1.134644e+04
2.940928e+02,1.135958e+04
2.950570e+02,1.137532e+04
2.960212e+02,1.139113e+04
2.969855e+02,1.140364e+04
2.979497e+02,1.141115e+04
2.989139e+02,1.141448e+04
2.998782e+02,1.141725e+04
3.008424e+02,1.142350e+04
3.018066e+02,1.143413e+04
3.027709e+02,1.144636e+04
3.037351e+02,1.145768e+04
3.046993e+02,1.146692e+04
3.056636e+02,1.147431e+04
3.066278e+02,1.148101e+04
3.075920e+02,1.148884e+04
3.085563e+02,1.149845e+04
3.095205e+02,1.151189e+04
3.104847e+02,1.152890e+04
3.114490e+02,1.154741e+04
3.124132e+02,1.156491e+04
3.133774e+02,1.157925e+04
3.143417e+02,1.158917e+04
3.153059e+02,1.159377e+04
3.162701e+02,1.159601e+04
3.172344e+02,1.159868e+04
3.181986e+02,1.160278e+04
3.191628e+02,1.160888e+04
3.201271e+02,1.161750e+04
3.210913e+02,1.162868e+04
3.220555e+02,1.164175e+04
3.230198e+02,1.165575e+04
3.239840e+02,1.167008e+04
3.249482e+02,1.168424e+04
3.259125e+02,1.169771e+04
3.268767e+02,1.171076e+04
3.278409e+02,1.172364e+04
3.288052e+02,1.173625e+04
3.297694e+02,1.174823e+04
3.307336e+02,1.175929e+04
3.316979e+02,1.176965e+04
3.326621e+02,1.177917e+04
3.336263e+02,1.178546e+04
3.345906e+02,1.178808e+04
3.355548e+02,1.179020e+04
3.365190e+02,1.179593e+04
3.374833e+02,1.180784e+04
3.384475e+02,1.182536e+04
3.394117e+02,1.184477e+04
3.403760e+02,1.186072e+04
3.413402e+02,1.187475e+04
3.423044e+02,1.189110e+04
3.432687e+02,1.191061e+04
3.442329e+02,1.193150e+04
3.451971e+02,1.195065e+04
3.461614e+02,1.196491e+04
3.471256e+02,1.197256e+04
3.480898e+02,1.197636e+04
3.490541e+02,1.197884e+04
3.500183e+02,1.198235e+04
3.509825e+02,1.198931e+04
3.519468e+02,1.200161e+04
3.529110e+02,1.201902e+04
3.538752e+02,1.203903e+04
3.548395e+02,1.205831e+04
3.558037e+02,1.207473e+04
3.567680e+02,1.208796e+04
3.577322e+02,1.209937e+04
3.586964e+02,1.211193e+04
3.596607e+02,1.212734e+04
3.606249e+02,1.214420e+04
3.615891e+02,1.215814e+04
3.625534e+02,1.216518e+04
3.635176e+02,1.216445e+04
3.644818e+02,1.215827e+04
3.654461e+02,1.215143e+04
3.664103e+02,1.215042e+04
3.673745e+02,1.215997e+04
3.683388e+02,1.217766e+04
3.693030e+02,1.219936e+04
3.702672e+02,1.222116e+04
3.712315e+02,1.224066e+04
3.721957e+02,1.225655e+04
3.731599e+02,1.226728e+04
3.741242e+02,1.227460e+04
3.750884e+02,1.228331e+04
3.760526e+02,1.229588e+04
3.770169e+02,1.231209e+04
3.779811e+02,1.232940e+04
3.789453e+02,1.234456e+04
3.799096e+02,1.235504e+04
3.808738e+02,1.236076e+04
3.818380e+02,1.236471e+04
3.828023e+02,1.237077e+04
3.837665e+02,1.238138e+04
3.847307e+02,1.239503e+04
3.856950e+02,1.241141e+04
3.866592e+02,1.242942e+04
3.876234e+02,1.244819e+04
3.885877e+02,1.246715e+04
3.895519e+02,1.248583e+04
3.905161e+02,1.250335e+04
3.914804e+02,1.251785e+04
3.924446e+02,1.252836e+04
3.934088e+02,1.253735e+04
3.943731e+02,1.254654e+04
3.953373e+02,1.255656e+04
3.963015e+02,1.256595e+04
3.972658e+02,1.257221e+04
3.982300e+02,1.257562e+04
3.991942e+02,1.258175e+04
4.001585e+02,1.259571e+04
4.011227e+02,1.261709e+04
4.020869e+02,1.263801e+04
4.030512e+02,1.265208e+04
4.040154e+02,1.266066e+04
4.049796e+02,1.267012e+04
4.059439e+02,1.268439e+04
4.069081e+02,1.270183e+04
4.078723e+02,1.271719e+04
4.088366e+02,1.272684e+04
4.098008e+02,1.273115e+04
4.107650e+02,1.273667e+04
4.117293e+02,1.274472e+04
4.126935e+02,1.275391e+04
4.136577e+02,1.276351e+04
4.146220e+02,1.277363e+04
4.155862e+02,1.278514e+04
4.165504e+02,1.279876e+04
4.175147e+02,1.281375e+04
4.184789e+02,1.282808e+04
4.194431e+02,1.284042e+04
4.204074e+02,1.285257e+04
4.213716e+02,1.286533e+04
4.223358e+02,1.287724e+04
4.233001e+02,1.288687e+04
4.242643e+02,1.289440e+04
4.252285e+02,1.290128e+04
4.261928e+02,1.290882e+04
4.271570e+02,1.291758e+04
4.281212e+02,1.292880e+04
4.290855e+02,1.294275e+04
4.300497e+02,1.295677e+04
4.310139e+02,1.296719e+04
4.319782e+02,1.297158e+04
4.329424e+02,1.297567e+04
4.339066e+02,1.298483e+04
4.348709e+02,1.299797e+04
4.358351e+02,1.300973e+04
4.367993e+02,1.301522e+04
4.377636e+02,1.301125e+04
4.387278e+02,1.301169e+04
4.396920e+02,1.302368e+04
4.406563e+02,1.303853e+04
4.416205e+02,1.304811e+04
4.425847e+02,1.304972e+04
4.435490e+02,1.304818e+04
4.445132e+02,1.305169e+04
4.454774e+02,1.306323e+04
4.464417e+02,1.307538e+04
4.474059e+02,1.308640e+04
4.483701e+02,1.309254e+04
4.493344e+02,1.309153e+04
4.502986e+02,1.307938e+04
4.512628e+02,1.306854e+04
4.522271e+02,1.306931e+04
4.531913e+02,1.307942e+04
4.541555e+02,1.308907e+04
4.551198e+02,1.309263e+04
4.560840e+02,1.309072e+04
4.570482e+02,1.307835e+04
4.580125e+02,1.304455e+04
4.589767e+02,1.302212e+04
4.599409e+02,1.302187e+04
4.609052e+02,1.303747e+04
4.618694e+02,1.305456e+04
4.628336e+02,1.306850e+04
4.637979e+02,1.307901e+04
4.647621e+02,1.307327e+04
4.657263e+02,1.304409e+04
4.666906e+02,1.301523e+04
4.676548e+02,1.300557e+04
4.686190e+02,1.301655e+04
4.695833e+02,1.302986e+04
4.705475e+02,1.304206e+04
4.715117e+02,1.305078e+04
4.724760e+02,1.305419e+04
4.734402e+02,1.305255e+04
4.744044e+02,1.304658e+04
4.753687e+02,1.303561e+04
4.763329e+02,1.301269e+04
4.772971e+02,1.299638e+04
4.782614e+02,1.298974e+04
4.792256e+02,1.299145e+04
4.801898e+02,1.299928e+04
4.811541e+02,1.301448e+04
4.821183e+02,1.303031e+04
4.830826e+02,1.303642e+04
4.840468e+02,1.303120e+04
4.850110e+02,1.302353e+04
4.859753e+02,1.302124e+04
4.869395e+02,1.302403e+04
4.879037e+02,1.302097e+04
4.888680e+02,1.301337e+04
4.898322e+02,1.300204e+04
4.907964e+02,1.298310e+04
4.917607e+02,1.295990e+04
4.927249e+02,1.294327e+04
4.936891e+02,1.294811e+04
4.946534e+02,1.297607e+04
4.956176e+02,1.298978e+04
4.965818e+02,1.298106e+04
4.975461e+02,1.296463e+04
4.985103e+02,1.295162e+04
4.994745e+02,1.294035e+04
5.004388e+02,1.292640e+04
5.014030e+02,1.291000e+04
5.023672e+02,1.289369e+04
5.033315e+02,1.287968e+04
5.042957e+02,1.286800e+04
5.052599e+02,1.285606e+04
5.062242e+02,1.284150e+04
5.071884e+02,1.282177e+04
5.081526e+02,1.280904e+04
5.091169e+02,1.281248e+04
5.100811e+02,1.282383e+04
5.110453e+02,1.283099e+04
5.120095e+02,1.282996e+04
5.129738e+02,1.282555e+04
5.139380e+02,1.282358e+04
5.149022e+02,1.282440e+04
5.158665e+02,1.282324e+04
5.168307e+02,1.281321e+04
5.177949e+02,1.278814e+04
5.187592e+02,1.275736e+04
5.197234e+02,1.273115e+04
5.206876e+02,1.270970e+04
5.216519e+02,1.269453e+04
5.226161e+02,1.268513e+04
5.235803e+02,1.267768e+04
5.245446e+02,1.266718e+04
5.255088e+02,1.265462e+04
5.264730e+02,1.264924e+04
5.274373e+02,1.265506e+04
5.284015e+02,1.266100e+04
5.293657e+02,1.265437e+04
5.303300e+02,1.263519e+04
5.312942e+02,1.261289e+04
5.322584e+02,1.259497e+04
5.332227e+02,1.258042e+04
5.341869e+02,1.256091e+04
5.351511e+02,1.253336e+04
5.361154e+02,1.250880e+04
5.370796e+02,1.251047e+04
5.380438e+02,1.255167e+04
5.390081e+02,1.257208e+04
5.399723e+02,1.255031e+04
5.409365e+02,1.251432e+04
5.419008e+02,1.248569e+04
5.428650e+02,1.246186e+04
5.438292e+02,1.244520e+04
5.447935e+02,1.244333e+04
5.457577e+02,1.245018e+04
5.467219e+02,1.245486e+04
5.476862e+02,1.245432e+04
5.486504e+02,1.244607e+04
5.496146e+02,1.242146e+04
5.505789e+02,1.236153e+04
5.515431e+02,1.231371e+04
5.525073e+02,1.230157e+04
5.534716e+02,1.231175e+04
5.544358e+02,1.231821e+04
5.554000e+02,1.229924e+04
5.563643e+02,1.227379e+04
5.573285e+02,1.226020e+04
5.582927e+02,1.225635e+04
5.592570e+02,1.225727e+04
5.602212e+02,1.226361e+04
5.611854e+02,1.227420e+04
5.621497e+02,1.227507e+04
5.631139e+02,1.225125e+04
5.640781e+02,1.222514e+04
5.650424e+02,1.220888e+04
5.660066e+02,1.220105e+04
5.669708e+02,1.219173e+04
5.679351e+02,1.217756e+04
5.688993e+02,1.216025e+04
5.698635e+02,1.213894e+04
5.708278e+02,1.211400e+04
5.717920e+02,1.209629e+04
5.727562e+02,1.209406e+04
5.737205e+02,1.211090e+04
5.746847e+02,1.212064e+04
5.756489e+02,1.212086e+04
5.766132e+02,1.211373e+04
5.775774e+02,1.209909e+04
5.785416e+02,1.207807e+04
5.795059e+02,1.205805e+04
5.804701e+02,1.204574e+04
5.814343e+02,1.203917e+04
5.823986e+02,1.203338e+04
5.833628e+02,1.202912e+04
5.843270e+02,1.202361e+04
5.852913e+02,1.201173e+04
5.862555e+02,1.198559e+04
5.872197e+02,1.196506e+04
5.881840e+02,1.194825e+04
5.891482e+02,1.193537e+04
5.901124e+02,1.192779e+04
5.910767e+02,1.192638e+04
5.920409e+02,1.192764e+04
5.930051e+02,1.192857e+04
5.939694e+02,1.192789e+04
5.949336e+02,1.192398e+04
5.958978e+02,1.191701e+04
5.968621e+02,1.190636e+04
5.978263e+02,1.189141e+04
5.987905e+02,1.186793e+04
5.997548e+02,1.184881e+04
6.007190e+02,1.183894e+04
6.016832e+02,1.183494e+04
6.026475e+02,1.182958e+04
6.036117e+02,1.181440e+04
6.045759e+02,1.179975e+04
6.055402e+02,1.180233e+04
6.065044e+02,1.181819e+04
6.074686e+02,1.182671e+04
6.084329e+02,1.182117e+04
6.093971e+02,1.180442e+04
6.103613e+02,1.178481e+04
6.113256e+02,1.175571e+04
6.122899e+02,1.173224e+04
6.132541e+02,1.171931e+04
6.142183e+02,1.171307e+04
6.151826e+02,1.170775e+04
6.161468e+02,1.170444e+04
6.171110e+02,1.170347e+04
6.180753e+02,1.170417e+04
6.190395e+02,1.170500e+04
6.200037e+02,1.170059e+04
6.209680e+02,1.168554e+04
6.219322e+02,1.166236e+04
6.228964e+02,1.164961e+04
6.238607e+02,1.165388e+04
6.248249e+02,1.166020e+04
6.257891e+02,1.166175e+04
6.267534e+02,1.165664e+04
6.277176e+02,1.164824e+04
6.286818e+02,1.164430e+04
6.296461e+02,1.164058e+04
6.306103e+02,1.162932e+04
6.315745e+02,1.161176e+04
6.325388e+02,1.159513e+04
6.335030e+02,1.158267e+04
6.344672e+02,1.157261e+04
6.354315e+02,1.156489e+04
6.363957e+02,1.155682e+04
6.373599e+02,1.154860e+04
6.383242e+02,1.154461e+04
6.392884e+02,1.154558e+04
6.402526e+02,1.154469e+04
6.412169e+02,1.154062e+04
6.421811e+02,1.153244e+04
6.431453e+02,1.151658e+04
6.441096e+02,1.149407e+04
6.450738e+02,1.147258e+04
6.460380e+02,1.146117e+04
6.470023e+02,1.146250e+04
6.479665e+02,1.146881e+04
6.489307e+02,1.147997e+04
6.498950e+02,1.148985e+04
6.508592e+02,1.149252e+04
6.518234e+02,1.148670e+04
6.527877e+02,1.147514e+04
6.537519e+02,1.145388e+04
6.547161e+02,1.143174e+04
6.556804e+02,1.141574e+04
6.566446e+02,1.140698e+04
6.576088e+02,1.140134e+04
6.585731e+02,1.139550e+04
6.595373e+02,1.138937e+04
6.605015e+02,1.138234e+04
6.614658e+02,1.137389e+04
6.624300e+02,1.136646e+04
6.633942e+02,1.136224e+04
6.643585e+02,1.136080e+04
6.653227e+02,1.136237e+04
6.662869e+02,1.136951e+04
6.672512e+02,1.137432e+04
6.682154e+02,1.137069e+04
6.691796e+02,1.135666e+04
6.701439e+02,1.134117e+04
6.711081e+02,1.133352e+04
6.720723e+02,1.132917e+04
6.730366e+02,1.131822e+04
6.740008e+02,1.130005e+04
6.749650e+02,1.128118e+04
6.759293e+02,1.126947e+04
6.768935e+02,1.126881e+04
6.778577e+02,1.126893e+04
6.788220e+02,1.127543e+04
6.797862e+02,1.128474e+04
6.807504e+02,1.129042e+04
6.817147e+02,1.128888e+04
6.826789e+02,1.128317e+04
6.836431e+02,1.126838e+04
6.846074e+02,1.124842e+04
6.855716e+02,1.123121e+04
6.865358e+02,1.122007e+04
6.875001e+02,1.121128e+04
6.884643e+02,1.119954e+04
6.894285e+02,1.118534e+04
6.903928e+02,1.117217e+04
6.913570e+02,1.115938e+04
6.923212e+02,1.114607e+04
6.932855e+02,1.113215e+04
6.942497e+02,1.111748e+04
6.952139e+02,1.111288e+04
6.961782e+02,1.112561e+04
6.971424e+02,1.114101e+04
6.981066e+02,1.114424e+04
6.990709e+02,1.112846e+04
7.000351e+02,1.110906e+04
7.009993e+02,1.110982e+04
7.019636e+02,1.112264e+04
7.029278e+02,1.112121e+04
7.038920e+02,1.109953e+04
7.048563e+02,1.106785e+04
7.058205e+02,1.104142e+04
7.067847e+02,1.102611e+04
7.077490e+02,1.101144e+04
7.087132e+02,1.100077e+04
7.096774e+02,1.099758e+04
7.106417e+02,1.099635e+04
7.116059e+02,1.099589e+04
7.125701e+02,1.099143e+04
7.135344e+02,1.097893e+04
7.144986e+02,1.096754e+04
7.154628e+02,1.096596e+04
7.164271e+02,1.097362e+04
7.173913e+02,1.097907e+04
7.183555e+02,1.096902e+04
7.193198e+02,1.094608e+04
7.202840e+02,1.092586e+04
7.212482e+02,1.091209e+04
7.222125e+02,1.090171e+04
7.231767e+02,1.088878e+04
7.241409e+02,1.086529e+04
7.251052e+02,1.085278e+04
7.260694e+02,1.086521e+04
7.270336e+02,1.087639e+04
7.279979e+02,1.087212e+04
7.289621e+02,1.085033e+04
7.299263e+02,1.083092e+04
7.308906e+02,1.082392e+04
7.318548e+02,1.082057e+04
7.328190e+02,1.081381e+04
7.337833e+02,1.080267e+04
7.347475e+02,1.078781e+04
7.357117e+02,1.076971e+04
7.366760e+02,1.075091e+04
7.376402e+02,1.074005e+04
7.386044e+02,1.073994e+04
7.395687e+02,1.074254e+04
7.405329e+02,1.073909e+04
7.414971e+02,1.072714e+04
7.424614e+02,1.071629e+04
7.434256e+02,1.071185e+04
7.443898e+02,1.071463e+04
7.453541e+02,1.072389e+04
7.463183e+02,1.073292e+04
7.472825e+02,1.073184e+04
7.482468e+02,1.071144e+04
7.492110e+02,1.068329e+04
7.501752e+02,1.066211e+04
7.511395e+02,1.065261e+04
7.521037e+02,1.065169e+04
7.530679e+02,1.065728e+04
7.540322e+02,1.066441e+04
7.549964e+02,1.065230e+04
7.559606e+02,1.061707e+04
7.569249e+02,1.058483e+04
7.578891e+02,1.057355e+04
7.588533e+02,1.058562e+04
7.598176e+02,1.059442e+04
7.607818e+02,1.058296e+04
7.617460e+02,1.056809e+04
7.627103e+02,1.056371e+04
7.636745e+02,1.056934e+04
7.646387e+02,1.056957e+04
7.656030e+02,1.054921e+04
7.665672e+02,1.052718e+04
7.675314e+02,1.051330e+04
7.684957e+02,1.050162e+04
7.694599e+02,1.049001e+04
7.704241e+02,1.048575e+04
7.713884e+02,1.048781e+04
7.723526e+02,1.048019e+04
7.733168e+02,1.046333e+04
7.742811e+02,1.045667e+04
7.752453e+02,1.046631e+04
7.762095e+02,1.048501e+04
7.771738e+02,1.049194e+04
7.781380e+02,1.047197e+04
7.791022e+02,1.045064e+04
7.800665e+02,1.044001e+04
7.810307e+02,1.043501e+04
7.819949e+02,1.042599e+04
7.829592e+02,1.041225e+04
7.839234e+02,1.039946e+04
7.848876e+02,1.038488e+04
7.858519e+02,1.037070e+04
7.868161e+02,1.036295e+04
7.877803e+02,1.036540e+04
7.887446e+02,1.037106e+04
7.897088e+02,1.037419e+04
7.906730e+02,1.037812e+04
7.916373e+02,1.038071e+04
7.926015e+02,1.037590e+04
7.935657e+02,1.036032e+04
7.945300e+02,1.033911e+04
7.954942e+02,1.031304e+04
7.964584e+02,1.029104e+04
7.974227e+02,1.028484e+04
7.983869e+02,1.029296e+04
7.993511e+02,1.030163e+04
8.003154e+02,1.030493e+04
8.012796e+02,1.030050e+04
8.022438e+02,1.028864e+04
8.032081e+02,1.027688e+04
8.041723e+02,1.027094e+04
8.051365e+02,1.027061e+04
8.061008e+02,1.027082e+04
8.070650e+02,1.026432e+04
8.080292e+02,1.025321e+04
8.089935e+02,1.024742e+04
8.099577e+02,1.025096e+04
8.109219e+02,1.025680e+04
8.118862e+02,1.025649e+04
8.128504e+02,1.025001e+04
8.138146e+02,1.023806e+04
8.147789e+02,1.021681e+04
8.157431e+02,1.019481e+04
8.167073e+02,1.018109e+04
8.176716e+02,1.018175e+04
8.186358e+02,1.018766e+04
8.196000e+02,1.020782e+04
8.205643e+02,1.022329e+04
8.215285e+02,1.021751e+04
8.224927e+02,1.019279e+04
8.234570e+02,1.017320e+04
8.244212e+02,1.016675e+04
8.253854e+02,1.016617e+04
8.263497e+02,1.016968e+04
8.273139e+02,1.017127e+04
8.282781e+02,1.016314e+04
8.292424e+02,1.013495e+04
8.302066e+02,1.010693e+04
8.311708e+02,1.011076e+04
8.321351e+02,1.014028e+04
8.330993e+02,1.016382e+04
8.340635e+02,1.016221e+04
8.350278e+02,1.014254e+04
8.359920e+02,1.012969e+04
8.369562e+02,1.012566e+04
8.379205e+02,1.011944e+04
8.388847e+02,1.010576e+04
8.398489e+02,1.008910e+04
8.408132e+02,1.007909e+04
8.417774e+02,1.007762e+04
8.427416e+02,1.007680e+04
8.437059e+02,1.007873e+04
8.446701e+02,1.007984e+04
8.456343e+02,1.007650e+04
8.465986e+02,1.006312e+04
8.475628e+02,1.005287e+04
8.485270e+02,1.005218e+04
8.494913e+02,1.005533e+04
8.504555e+02,1.005887e+04
8.514197e+02,1.006322e+04
8.523840e+02,1.006651e+04
8.533482e+02,1.006572e+04
8.543124e+02,1.005987e+04
8.552767e+02,1.004544e+04
8.562409e+02,1.002192e+04
8.572051e+02,1.000079e+04
8.581694e+02,1.000403e+04
8.591336e+02,1.002924e+04
8.600978e+02,1.002500e+04
8.610621e+02,9.984564e+03
8.620263e+02,9.946666e+03
8.629905e+02,9.939567e+03
8.639548e+02,9.962033e+03
8.649190e+02,9.966078e+03
8.658832e+02,9.941495e+03
8.668475e+02,9.921744e+03
8.678117e+02,9.926286e+03
8.687759e+02,9.948684e+03
8.697402e+02,9.961740e+03
8.707044e+02,9.951130e+03
8.716686e+02,9.933886e+03
8.726329e+02,9.920467e+03
8.735971e+02,9.911399e+03
8.745613e+02,9.902885e+03
8.755256e+02,9.895926e+03
8.764898e+02,9.892654e+03
8.774540e+02,9.892790e+03
8.784183e+02,9.894033e+03
8.793825e+02,9.893483e+03
8.803467e+02,9.889484e+03
8.813110e+02,9.884684e+03
8.822752e+02,9.887104e+03
8.832394e+02,9.895255e+03
8.842037e+02,9.894500e+03
8.851679e+02,9.877978e+03
8.861321e+02,9.855440e+03
8.870964e+02,9.843553e+03
8.880606e+02,9.842385e+03
8.890248e+02,9.835641e+03
8.899891e+02,9.825010e+03
8.909533e+02,9.813791e+03
8.919175e+02,9.801887e+03
8.928818e+02,9.787498e+03
8.938460e+02,9.779717e+03
8.948102e+02,9.780440e+03
8.957745e+02,9.780757e+03
8.967387e+02,9.777511e+03
8.977029e+02,9.768676e+03
8.986672e+02,9.756272e+03
8.996314e+02,9.743149e+03
9.005956e+02,9.734483e+03
9.015599e+02,9.733252e+03
9.025241e+02,9.735174e+03
9.034883e+02,9.732795e+03
9.044526e+02,9.717834e+03
9.054168e+02,9.698255e+03
9.063810e+02,9.685622e+03
9.073453e+02,9.681702e+03
9.083095e+02,9.680429e+03
9.092737e+02,9.675448e+03
9.102380e+02,9.668658e+03
9.112022e+02,9.666358e+03
9.121664e+02,9.664506e+03
9.131307e+02,9.652749e+03
9.140949e+02,9.630628e+03
9.150591e+02,9.612911e+03
9.160234e+02,9.616803e+03
9.169876e+02,9.634145e+03
9.179518e+02,9.637162e+03
9.189161e+02,9.620926e+03
9.198803e+02,9.598846e+03
9.208445e+02,9.588792e+03
9.218088e+02,9.595868e+03
9.227730e+02,9.599794e+03
9.237372e+02,9.598145e+03
9.247015e+02,9.591425e+03
9.256657e+02,9.577874e+03
9.266299e+02,9.556163e+03
9.275942e+02,9.545906e+03
9.285584e+02,9.556038e+03
9.295226e+02,9.562725e+03
9.304869e+02,9.555639e+03
9.314511e+02,9.540785e+03
9.324153e+02,9.532826e+03
9.333796e+02,9.540899e+03
9.343438e+02,9.546044e+03
9.353080e+02,9.539478e+03
9.362723e+02,9.523271e+03
9.372365e+02,9.504403e+03
9.382007e+02,9.487821e+03
9.391650e+02,9.477511e+03
9.401292e+02,9.475229e+03
9.410934e+02,9.478637e+03
9.420577e+02,9.484646e+03
9.430219e+02,9.491949e+03
9.439861e+02,9.494666e+03
9.449504e+02,9.491276e+03
9.459146e+02,9.487210e+03
9.468788e+02,9.481949e+03
9.478431e+02,9.470806e+03
9.488073e+02,9.455757e+03
9.497715e+02,9.444146e+03
9.507358e+02,9.435757e+03
9.517000e+02,9.428534e+03
9.526642e+02,9.424925e+03
9.536285e+02,9.421048e+03
9.545927e+02,9.411600e+03
9.555569e+02,9.398797e+03
9.565212e+02,9.392019e+03
9.574854e+02,9.394675e+03
9.584496e+02,9.397706e+03
9.594139e+02,9.392437e+03
9.603781e+02,9.381482e+03
9.613423e+02,9.380091e+03
9.623066e+02,9.392105e+03
9.632708e+02,9.397279e+03
9.642350e+02,9.391218e+03
9.651993e+02,9.382936e+03
9.661635e+02,9.382057e+03
9.671277e+02,9.390858e+03
9.680920e+02,9.393808e+03
9.690562e+02,9.393068e+03
9.700204e+02,9.382349e+03
9.709847e+02,9.355627e+03
9.719489e+02,9.309190e+03
9.729131e+02,9.281557e+03
9.738774e+02,9.285457e+03
9.748416e+02,9.299453e+03
9.758058e+02,9.316542e+03
9.767701e+02,9.332142e+03
9.777343e+02,9.338124e+03
9.786985e+02,9.321732e+03
9.796628e+02,9.305878e+03
9.806270e+02,9.304384e+03
9.815912e+02,9.308614e+03
9.825555e+02,9.304130e+03
9.835197e+02,9.282347e+03
9.844839e+02,9.266122e+03
9.854482e+02,9.272108e+03
9.864124e+02,9.286768e+03
9.873766e+02,9.290790e+03
9.883409e+02,9.278769e+03
9.893051e+02,9.269007e+03
9.902693e+02,9.277118e+03
9.912336e+02,9.291526e+03
9.921978e+02,9.294728e+03
9.931620e+02,9.283553e+03
9.941263e+02,9.271298e+03
9.950905e+02,9.268881e+03
9.960547e+02,9.271761e+03
9.970190e+02,9.275385e+03
9.979832e+02,9.277943e+03
9.989474e+02,9.277853e+03
9.999117e+02,9.281114e+03
1.000876e+03,9.280829e+03
1.001840e+03,9.256144e+03
1.002804e+03,9.218112e+03
1.003769e+03,9.197703e+03
1.004733e+03,9.204800e+03
1.005697e+03,9.224661e+03
1.006661e+03,9.242051e+03
1.007626e+03,9.256593e+03
1.008590e+03,9.262270e+03
1.009554e+03,9.255642e+03
1.010518e+03,9.241858e+03
1.011482e+03,9.227431e+03
1.012447e+03,9.212588e+03
1.013411e+03,9.201186e+03
1.014375e+03,9.197908e+03
1.015339e+03,9.199656e+03
1.016304e+03,9.202359e+03
1.017268e+03,9.204604e+03
1.018232e+03,9.201663e+03
1.019196e+03,9.191022e+03
1.020161e+03,9.185851e+03
1.021125e+03,9.195546e+03
1.022089e+03,9.214764e+03
1.023053e+03,9.221726e+03
1.024018e+03,9.210625e+03
1.024982e+03,9.198291e+03
1.025946e+03,9.185788e+03
1.026910e+03,9.170239e+03
1.027875e+03,9.152507e+03
1.028839e+03,9.135313e+03
1.029803e+03,9.124450e+03
1.030767e+03,9.119428e+03
1.031731e+03,9.123173e+03
1.032696e+03,9.139642e+03
1.033660e+03,9.169095e+03
1.034624e+03,9.180953e+03
1.035588e+03,9.169181e+03
1.036552e+03,9.156721e+03
1.037517e+03,9.148846e+03
1.038481e+03,9.142823e+03
1.039445e+03,9.138482e+03
1.040409e+03,9.139087e+03
1.041374e+03,9.136696e+03
1.042338e+03,9.131225e+03
1.043302e+03,9.125480e+03
1.044266e+03,9.120939e+03
1.045231e+03,9.119081e+03
1.046195e+03,9.113204e+03
1.047159e+03,9.103894e+03
1.048123e+03,9.093784e+03
1.049088e+03,9.082665e+03
1.050052e+03,9.072156e+03
1.051016e+03,9.071509e+03
1.051980e+03,9.089279e+03
1.052945e+03,9.105896e+03
1.053909e+03,9.109206e+03
1.054873e+03,9.098484e+03
1.055837e+03,9.087358e+03
1.056802e+03,9.080747e+03
1.057766e+03,9.075125e+03
1.058730e+03,9.073291e+03
1.059694e+03,9.072706e+03
1.060658e+03,9.068577e+03
1.061623e+03,9.061580e+03
1.062587e+03,9.053785e+03
1.063551e+03,9.040915e+03
1.064515e+03,9.031772e+03
1.065479e+03,9.033052e+03
1.066444e+03,9.047837e+03
1.067408e+03,9.058423e+03
1.068372e+03,9.056292e+03
1.069336e+03,9.055189e+03
1.070301e+03,9.059179e+03
1.071265e+03,9.063908e+03
1.072229e+03,9.062951e+03
1.073193e+03,9.052870e+03
1.074158e+03,9.039418e+03
1.075122e+03,9.023536e+03
1.076086e+03,9.005800e+03
1.077050e+03,8.987839e+03
1.078015e+03,8.971918e+03
1.078979e+03,8.965653e+03
1.079943e+03,8.974609e+03
1.080907e+03,8.987605e+03
1.081872e+03,8.992295e+03
1.082836e+03,8.985346e+03
1.083800e+03,8.984724e+03
1.084764e+03,9.009077e+03
1.085729e+03,9.030212e+03
1.086693e+03,9.032895e+03
1.087657e+03,9.020526e+03
1.088621e+03,9.005630e+03
1.089585e+03,8.983526e+03
1.090550e+03,8.963757e+03
1.091514e+03,8.958058e+03
1.092478e+03,8.958143e+03
1.093442e+03,8.952192e+03
1.094406e+03,8.935490e+03
1.095371e+03,8.925146e+03
1.096335e+03,8.932393e+03
1.097299e+03,8.936947e+03
1.098263e+03,8.919253e+03
1.099228e+03,8.879776e+03
1.100192e+03,8.857812e+03
1.101156e+03,8.877667e+03
1.102120e+03,8.895842e+03
1.103085e+03,8.894427e+03
1.104049e+03,8.881208e+03
1.105013e+03,8.872627e+03
1.105977e+03,8.879678e+03
1.106942e+03,8.881890e+03
1.107906e+03,8.871831e+03
1.108870e+03,8.859274e+03
1.109834e+03,8.853534e+03
1.110799e+03,8.858140e+03
1.111763e+03,8.858714e+03
1.112727e+03,8.849038e+03
1.113691e+03,8.842142e+03
1.114656e+03,8.844429e+03
1.115620e+03,8.854630e+03
1.116584e+03,8.863120e+03
1.117548e+03,8.862490e+03
1.118512e+03,8.860808e+03
1.119477e+03,8.863285e+03
1.120441e+03,8.865509e+03
1.121405e+03,8.862003e+03
1.122369e+03,8.854167e+03
1.123334e+03,8.838968e+03
1.124298e+03,8.804329e+03
1.125262e+03,8.775965e+03
1.126226e+03,8.777003e+03
1.127191e+03,8.813357e+03
1.128155e+03,8.831146e+03
1.129119e+03,8.811297e+03
1.130083e+03,8.794616e+03
1.131047e+03,8.796478e+03
1.132012e+03,8.810103e+03
1.132976e+03,8.820721e+03
1.133940e+03,8.832396e+03
1.134904e+03,8.830964e+03
1.135869e+03,8.810245e+03
1.136833e+03,8.785530e+03
1.137797e+03,8.774100e+03
1.138761e+03,8.783063e+03
1.139726e+03,8.789450e+03
1.140690e+03,8.791573e+03
1.141654e+03,8.790577e+03
1.142618e+03,8.785028e+03
1.143583e+03,8.776588e+03
1.144547e+03,8.774427e+03
1.145511e+03,8.779966e+03
1.146475e+03,8.785288e+03
1.147439e+03,8.787762e+03
1.148404e+03,8.789590e+03
1.149368e+03,8.792016e+03
1.150332e+03,8.794230e+03
1.151296e+03,8.793879e+03
1.152261e+03,8.786364e+03
1.153225e+03,8.772327e+03
1.154189e+03,8.756972e+03
1.155153e+03,8.744470e+03
1.156118e+03,8.742450e+03
1.157082e+03,8.754038e+03
1.158046e+03,8.766656e+03
1.159010e+03,8.771545e+03
1.159974e+03,8.770622e+03
1.160939e+03,8.765729e+03
1.161903e+03,8.756337e+03
1.162867e+03,8.752443e+03
1.163831e+03,8.755889e+03
1.164796e+03,8.758912e+03
1.165760e+03,8.755729e+03
1.166724e+03,8.748991e+03
1.167688e+03,8.742151e+03
1.168653e+03,8.735401e+03
1.169617e+03,8.727405e+03
1.170581e+03,8.718177e+03
1.171545e+03,8.708989e+03
1.172510e+03,8.699085e+03
1.173474e+03,8.690891e+03
1.174438e+03,8.689304e+03
1.175402e+03,8.695509e+03
1.176366e+03,8.699161e+03
1.177331e+03,8.685313e+03
1.178295e+03,8.668920e+03
1.179259e+03,8.670899e+03
1.180223e+03,8.688056e+03
1.181188e+03,8.698979e+03
1.182152e+03,8.685905e+03
1.183116e+03,8.668716e+03
1.184080e+03,8.663619e+03
1.185045e+03,8.667435e+03
1.186009e+03,8.671903e+03
1.186973e+03,8.678620e+03
1.187937e+03,8.682999e+03
1.188901e+03,8.678746e+03
1.189866e+03,8.672269e+03
1.190830e+03,8.665786e+03
1.191794e+03,8.657873e+03
1.192758e+03,8.654904e+03
1.193723e+03,8.673753e+03
1.194687e+03,8.688010e+03
1.195651e+03,8.679054e+03
1.196615e+03,8.656395e+03
1.197580e+03,8.644767e+03
1.198544e+03,8.644090e+03
1.199508e+03,8.643170e+03
1.200472e+03,8.650229e+03
1.201437e+03,8.656533e+03
1.202401e+03,8.655919e+03
1.203365e+03,8.650333e+03
1.204329e+03,8.639881e+03
1.205293e+03,8.619794e+03
1.206258e+03,8.603145e+03
1.207222e+03,8.593731e+03
1.208186e+03,8.590623e+03
1.209150e+03,8.596470e+03
1.210115e+03,8.610442e+03
1.211079e+03,8.613882e+03
1.212043e+03,8.602903e+03
1.213007e+03,8.587325e+03
1.213972e+03,8.582558e+03
1.214936e+03,8.588291e+03
1.215900e+03,8.588090e+03
1.216864e+03,8.582115e+03
1.217828e+03,8.573744e+03
1.218793e+03,8.563126e+03
1.219757e+03,8.554616e+03
1.220721e+03,8.557223e+03
1.221685e+03,8.568271e+03
1.222650e+03,8.577861e+03
1.223614e+03,8.580775e+03
1.224578e+03,8.577485e+03
1.225542e+03,8.568308e+03
1.226507e+03,8.559062e+03
1.227471e+03,8.555854e+03
1.228435e+03,8.555428e+03
1.229399e+03,8.550549e+03
1.230364e+03,8.538321e+03
1.231328e+03,8.524683e+03
1.232292e+03,8.517638e+03
1.233256e+03,8.515270e+03
1.234220e+03,8.509669e+03
1.235185e+03,8.499472e+03
1.236149e+03,8.492767e+03
1.237113e+03,8.490605e+03
1.238077e+03,8.495158e+03
1.239042e+03,8.506838e+03
1.240006e+03,8.520050e+03
1.240970e+03,8.519816e+03
1.241934e+03,8.495522e+03
1.242899e+03,8.476144e+03
1.243863e+03,8.471603e+03
1.244827e+03,8.474149e+03
1.245791e+03,8.472388e+03
1.246755e+03,8.465697e+03
1.247720e+03,8.458146e+03
1.248684e+03,8.450383e+03
1.249648e+03,8.444441e+03
1.250612e+03,8.440556e+03
1.251577e+03,8.437325e+03
1.252541e+03,8.433194e+03
1.253505e+03,8.427790e+03
1.254469e+03,8.425835e+03
1.255434e+03,8.430480e+03
1.256398e+03,8.438943e+03
1.257362e+03,8.448260e+03
1.258326e+03,8.454264e+03
1.259291e+03,8.449607e+03
1.260255e+03,8.434726e+03
1.261219e+03,8.419782e+03
1.262183e+03,8.420723e+03
1.263147e+03,8.423991e+03
1.264112e+03,8.416104e+03
1.265076e+03,8.403202e+03
1.266040e+03,8.391976e+03
1.267004e+03,8.383210e+03
1.267969e+03,8.381593e+03
1.268933e+03,8.403142e+03
1.269897e+03,8.426520e+03
1.270861e+03,8.427179e+03
1.271826e+03,8.402390e+03
1.272790e+03,8.391883e+03
1.273754e+03,8.413144e+03
1.274718e+03,8.424226e+03
1.275682e+03,8.417753e+03
1.276647e+03,8.405468e+03
1.277611e+03,8.401173e+03
1.278575e+03,8.406361e+03
1.279539e+03,8.395182e+03
1.280504e+03,8.369035e+03
1.281468e+03,8.348587e+03
1.282432e+03,8.343236e+03
1.283396e+03,8.349813e+03
1.284361e+03,8.367000e+03
1.285325e+03,8.388412e+03
1.286289e+03,8.392437e+03
1.287253e+03,8.372468e+03
1.288218e+03,8.349064e+03
1.289182e+03,8.344803e+03
1.290146e+03,8.348737e+03
1.291110e+03,8.349980e+03
1.292074e+03,8.348545e+03
1.293039e+03,8.344489e+03
1.294003e+03,8.334094e+03
1.294967e+03,8.322253e+03
1.295931e+03,8.312116e+03
1.296896e+03,8.305793e+03
1.297860e+03,8.304464e+03
1.298824e+03,8.308265e+03
1.299788e+03,8.309817e+03
1.300753e+03,8.304063e+03
1.301717e+03,8.300590e+03
1.302681e+03,8.304629e+03
1.303645e+03,8.313298e+03
1.304609e+03,8.319197e+03
1.305574e+03,8.319315e+03
1.306538e+03,8.313167e+03
1.307502e+03,8.303882e+03
1.308466e+03,8.295826e+03
1.309431e+03,8.290676e+03
1.310395e+03,8.288089e+03
1.311359e+03,8.286435e+03
1.312323e+03,8.282059e+03
1.313288e+03,8.272479e+03
1.314252e+03,8.258497e+03
1.315216e+03,8.250363e+03
1.316180e+03,8.256138e+03
1.317145e+03,8.270897e+03
1.318109e+03,8.289401e+03
1.319073e+03,8.307044e+03
1.320037e+03,8.315417e+03
1.321001e+03,8.307084e+03
1.321966e+03,8.294696e+03
1.322930e+03,8.286651e+03
1.323894e+03,8.282197e+03
1.324858e+03,8.274685e+03
1.325823e+03,8.261033e+03
1.326787e+03,8.249551e+03
1.327751e+03,8.235888e+03
1.328715e+03,8.228235e+03
1.329680e+03,8.235839e+03
1.330644e+03,8.254387e+03
1.331608e+03,8.261850e+03
1.332572e+03,8.258430e+03
1.333536e+03,8.256424e+03
1.334501e+03,8.258072e+03
1.335465e+03,8.259025e+03
1.336429e+03,8.262057e+03
1.337393e+03,8.263149e+03
1.338358e+03,8.249121e+03
1.339322e+03,8.224313e+03
1.340286e+03,8.208153e+03
1.341250e+03,8.222237e+03
1.342215e+03,8.231971e+03
1.343179e+03,8.222214e+03
1.344143e+03,8.208481e+03
1.345107e+03,8.202530e+03
1.346072e+03,8.204478e+03
1.347036e+03,8.204731e+03
1.348000e+03,8.202872e+03
1.348964e+03,8.194278e+03
1.349928e+03,8.176585e+03
1.350893e+03,8.158157e+03
1.351857e+03,8.155346e+03
1.352821e+03,8.165555e+03
1.353785e+03,8.166421e+03
1.354750e+03,8.154031e+03
1.355714e+03,8.139631e+03
1.356678e+03,8.138143e+03
1.357642e+03,8.144519e+03
1.358607e+03,8.148792e+03
1.359571e+03,8.149239e+03
1.360535e+03,8.143008e+03
1.361499e+03,8.126496e+03
1.362464e+03,8.117548e+03
1.363428e+03,8.134856e+03
1.364392e+03,8.156394e+03
1.365356e+03,8.162736e+03
1.366320e+03,8.150512e+03
1.367285e+03,8.133055e+03
1.368249e+03,8.106885e+03
1.369213e+03,8.094056e+03
1.370177e+03,8.102600e+03
1.371142e+03,8.117108e+03
1.372106e+03,8.120791e+03
1.373070e+03,8.114498e+03
1.374034e+03,8.101427e+03
1.374999e+03,8.084937e+03
1.375963e+03,8.076559e+03
1.376927e+03,8.084347e+03
1.377891e+03,8.095421e+03
1.378855e+03,8.094830e+03
1.379820e+03,8.087972e+03
1.380784e+03,8.082086e+03
1.381748e+03,8.080555e+03
1.382712e+03,8.080977e+03
1.383677e+03,8.075197e+03
1.384641e+03,8.071803e+03
1.385605e+03,8.077635e+03
1.386569e+03,8.083685e+03
1.387534e+03,8.076000e+03
1.388498e+03,8.051732e+03
1.389462e+03,8.034514e+03
1.390426e+03,8.023299e+03
1.391391e+03,8.015548e+03
1.392355e+03,8.013041e+03
1.393319e+03,8.014799e+03
1.394283e+03,8.014307e+03
1.395247e+03,8.012906e+03
1.396212e+03,8.018828e+03
1.397176e+03,8.034677e+03
1.398140e+03,8.043564e+03
1.399104e+03,8.025706e+03
1.400069e+03,8.003700e+03
1.401033e+03,7.991854e+03
1.401997e+03,7.987812e+03
1.402961e+03,7.983820e+03
1.403926e+03,7.983740e+03
1.404890e+03,7.970122e+03
1.405854e+03,7.936103e+03
1.406818e+03,7.909628e+03
1.407782e+03,7.915764e+03
1.408747e+03,7.945565e+03
1.409711e+03,7.956837e+03
1.410675e+03,7.950068e+03
1.411639e+03,7.949406e+03
1.412604e+03,7.964472e+03
1.413568e+03,7.975398e+03
1.414532e+03,7.966093e+03
1.415496e+03,7.950100e+03
1.416461e+03,7.932330e+03
1.417425e+03,7.912791e+03
1.418389e+03,7.897143e+03
1.419353e+03,7.892965e+03
1.420318e+03,7.882936e+03
1.421282e+03,7.863636e+03
1.422246e+03,7.849479e+03
1.423210e+03,7.854017e+03
1.424174e+03,7.874303e+03
1.425139e+03,7.880921e+03
1.426103e+03,7.873339e+03
1.427067e+03,7.865286e+03
1.428031e+03,7.861950e+03
1.428996e+03,7.860822e+03
1.429960e+03,7.856912e+03
1.430924e+03,7.852726e+03
1.431888e+03,7.856211e+03
1.432853e+03,7.864078e+03
1.433817e+03,7.858222e+03
1.434781e+03,7.820200e+03
1.435745e+03,7.792236e+03
1.436709e+03,7.776442e+03
1.437674e+03,7.768213e+03
1.438638e+03,7.769124e+03
1.439602e+03,7.779874e+03
1.440566e+03,7.782789e+03
1.441531e+03,7.777948e+03
1.442495e+03,7.775249e+03
1.443459e+03,7.777458e+03
1.444423e+03,7.780183e+03
1.445388e+03,7.779482e+03
1.446352e+03,7.774055e+03
1.447316e+03,7.763293e+03
1.448280e+03,7.751376e+03
1.449245e+03,7.743815e+03
1.450209e+03,7.746297e+03
1.451173e+03,7.746042e+03
1.452137e+03,7.735609e+03
1.453101e+03,7.721796e+03
1.454066e+03,7.713174e+03
1.455030e+03,7.709822e+03
1.455994e+03,7.710285e+03
1.456958e+03,7.713916e+03
1.457923e+03,7.717774e+03
1.458887e+03,7.719127e+03
1.459851e+03,7.717062e+03
1.460815e+03,7.709153e+03
1.461780e+03,7.696669e+03
1.462744e+03,7.685089e+03
1.463708e+03,7.675789e+03
1.464672e+03,7.664158e+03
1.465636e+03,7.647893e+03
1.466601e+03,7.642055e+03
1.467565e+03,7.652697e+03
1.468529e+03,7.663385e+03
1.469493e+03,7.652582e+03
1.470458e+03,7.625890e+03
1.471422e+03,7.615112e+03
1.472386e+03,7.617983e+03
1.473350e+03,7.620530e+03
1.474315e+03,7.615244e+03
1.475279e+03,7.611291e+03
1.476243e+03,7.617229e+03
1.477207e+03,7.621760e+03
1.478172e+03,7.618855e+03
1.479136e+03,7.610578e+03
1.480100e+03,7.603861e+03
1.481064e+03,7.600541e+03
1.482028e+03,7.594756e+03
1.482993e+03,7.586601e+03
1.483957e+03,7.578508e+03
1.484921e+03,7.568357e+03
1.485885e+03,7.559298e+03
1.486850e+03,7.559463e+03
1.487814e+03,7.562662e+03
1.488778e+03,7.559024e+03
1.489742e+03,7.543983e+03
1.490707e+03,7.532269e+03
1.491671e+03,7.540075e+03
1.492635e+03,7.547811e+03
1.493599e+03,7.542936e+03
1.494563e+03,7.528091e+03
1.495528e+03,7.513518e+03
1.496492e+03,7.498209e+03
1.497456e+03,7.489015e+03
1.498420e+03,7.489026e+03
1.499385e+03,7.492252e+03
1.500349e+03,7.498159e+03
1.501313e+03,7.501596e+03
1.502277e+03,7.491007e+03
1.503242e+03,7.475612e+03
1.504206e+03,7.470029e+03
1.505170e+03,7.479085e+03
1.506134e+03,7.483362e+03
1.507099e+03,7.483833e+03
1.508063e+03,7.478019e+03
1.509027e+03,7.462891e+03
1.509991e+03,7.445768e+03
1.510955e+03,7.443845e+03
1.511920e+03,7.448558e+03
1.512884e+03,7.438116e+03
1.513848e+03,7.416463e+03
1.514812e+03,7.403583e+03
1.515777e+03,7.407075e+03
1.516741e+03,7.412606e+03
1.517705e+03,7.417239e+03
1.518669e+03,7.418936e+03
1.519634e+03,7.416119e+03
1.520598e+03,7.408205e+03
1.521562e+03,7.411312e+03
1.522526e+03,7.422513e+03
1.523490e+03,7.427739e+03
1.524455e+03,7.423162e+03
1.525419e+03,7.412130e+03
1.526383e+03,7.392855e+03
1.527347e+03,7.373732e+03
1.528312e+03,7.367460e+03
1.529276e+03,7.373487e+03
1.530240e+03,7.375354e+03
1.531204e+03,7.367362e+03
1.532169e+03,7.360109e+03
1.533133e+03,7.354321e+03
1.534097e+03,7.350126e+03
1.535061e+03,7.346907e+03
1.536026e+03,7.344095e+03
1.536990e+03,7.345503e+03
1.537954e+03,7.348636e+03
1.538918e+03,7.346862e+03
1.539882e+03,7.337172e+03
1.540847e+03,7.329146e+03
1.541811e+03,7.322281e+03
1.542775e+03,7.317419e+03
1.543739e+03,7.319229e+03
1.544704e+03,7.324001e+03
1.545668e+03,7.322961e+03
1.546632e+03,7.318594e+03
1.547596e+03,7.320524e+03
1.548561e+03,7.327555e+03
1.549525e+03,7.330593e+03
1.550489e+03,7.318858e+03
1.551453e+03,7.305268e+03
1.552417e+03,7.291966e+03
1.553382e+03,7.282470e+03
1.554346e+03,7.282907e+03
1.555310e+03,7.292901e+03
1.556274e+03,7.298558e+03
1.557239e+03,7.299127e+03
1.558203e+03,7.291508e+03
1.559167e+03,7.274589e+03
1.560131e+03,7.257451e+03
1.561096e+03,7.248471e+03
1.562060e+03,7.244163e+03
1.563024e+03,7.240998e+03
1.563988e+03,7.239885e+03
1.564953e+03,7.243302e+03
1.565917e+03,7.254477e+03
1.566881e+03,7.256731e+03
1.567845e+03,7.247183e+03
1.568809e+03,7.235539e+03
1.569774e+03,7.227268e+03
1.570738e+03,7.221820e+03
1.571702e+03,7.219812e+03
1.572666e+03,7.218574e+03
1.573631e+03,7.215838e+03
1.574595e+03,7.213382e+03
1.575559e+03,7.208765e+03
1.576523e+03,7.200948e+03
1.577488e+03,7.195398e+03
1.578452e+03,7.188556e+03
1.579416e+03,7.183678e+03
1.580380e+03,7.191703e+03
1.581344e+03,7.203467e+03
1.582309e+03,7.200087e+03
1.583273e+03,7.187203e+03
1.584237e+03,7.176201e+03
1.585201e+03,7.170292e+03
1.586166e+03,7.168459e+03
1.587130e+03,7.174767e+03
1.588094e+03,7.170344e+03
1.589058e+03,7.145356e+03
1.590023e+03,7.113424e+03
1.590987e+03,7.099948e+03
1.591951e+03,7.101013e+03
1.592915e+03,7.101479e+03
1.593880e+03,7.096794e+03
1.594844e+03,7.092779e+03
1.595808e+03,7.096446e+03
1.596772e+03,7.096712e+03
1.597736e+03,7.091739e+03
1.598701e+03,7.087877e+03
1.599665e+03,7.090353e+03
1.600629e+03,7.096822e+03
1.601593e+03,7.099966e+03
1.602558e+03,7.098619e+03
1.603522e+03,7.087476e+03
1.604486e+03,7.062541e+03
1.605450e+03,7.040094e+03
1.606415e+03,7.028917e+03
1.607379e+03,7.025498e+03
1.608343e+03,7.029021e+03
1.609307e+03,7.035261e+03
1.610271e+03,7.038923e+03
1.611236e+03,7.038833e+03
1.612200e+03,7.034946e+03
1.613164e+03,7.028563e+03
1.614128e+03,7.016837e+03
1.615093e+03,6.986140e+03
1.616057e+03,6.963305e+03
1.617021e+03,6.961444e+03
1.617985e+03,6.962114e+03
1.618950e+03,6.958083e+03
1.619914e+03,6.949181e+03
1.620878e+03,6.929783e+03
1.621842e+03,6.904439e+03
1.622807e+03,6.888994e+03
1.623771e+03,6.888014e+03
1.624735e+03,6.886661e+03
1.625699e+03,6.866177e+03
1.626663e+03,6.852163e+03
1.627628e+03,6.855048e+03
1.628592e+03,6.861462e+03
1.629556e+03,6.860839e+03
1.630520e+03,6.856900e+03
1.631485e+03,6.851036e+03
1.632449e+03,6.842572e+03
1.633413e+03,6.830968e+03
1.634377e+03,6.815197e+03
1.635342e+03,6.800792e+03
1.636306e+03,6.789240e+03
1.637270e+03,6.781849e+03
1.638234e+03,6.779763e+03
1.639198e+03,6.781561e+03
1.640163e+03,6.780654e+03
1.641127e+03,6.779212e+03
1.642091e+03,6.780457e+03
1.643055e+03,6.781555e+03
1.644020e+03,6.775957e+03
1.644984e+03,6.745629e+03
1.645948e+03,6.726183e+03
1.646912e+03,6.729625e+03
1.647877e+03,6.741226e+03
1.648841e+03,6.753670e+03
1.649805e+03,6.763394e+03
1.650769e+03,6.749854e+03
1.651734e+03,6.722716e+03
1.652698e+03,6.710235e+03
1.653662e+03,6.720208e+03
1.654626e+03,6.720794e+03
1.655590e+03,6.694667e+03
1.656555e+03,6.676311e+03
1.657519e+03,6.680578e+03
1.658483e+03,6.692927e+03
1.659447e+03,6.689725e+03
1.660412e+03,6.673163e+03
1.661376e+03,6.647719e+03
1.662340e+03,6.620276e+03
1.663304e+03,6.604413e+03
1.664269e+03,6.607234e+03
1.665233e+03,6.610334e+03
1.666197e+03,6.612685e+03
1.667161e+03,6.610439e+03
1.668125e+03,6.601403e+03
1.669090e+03,6.591649e+03
1.670054e+03,6.596174e+03
1.671018e+03,6.602969e+03
1.671982e+03,6.593680e+03
1.672947e+03,6.568609e+03
1.673911e+03,6.557500e+03
1.674875e+03,6.562053e+03
1.675839e+03,6.560609e+03
1.676804e+03,6.552737e+03
1.677768e+03,6.549640e+03
1.678732e+03,6.566327e+03
1.679696e+03,6.580782e+03
1.680661e+03,6.567019e+03
1.681625e+03,6.537993e+03
1.682589e+03,6.517361e+03
1.683553e+03,6.508420e+03
1.684517e+03,6.504765e+03
1.685482e+03,6.505300e+03
1.686446e+03,6.505529e+03
1.687410e+03,6.504107e+03
1.688374e+03,6.501389e+03
1.689339e+03,6.495566e+03
1.690303e+03,6.489930e+03
1.691267e+03,6.487146e+03
1.692231e+03,6.486119e+03
1.693196e+03,6.481010e+03
1.694160e+03,6.471294e+03
1.695124e+03,6.469875e+03
1.696088e+03,6.476321e+03
1.697052e+03,6.479575e+03
1.698017e+03,6.463104e+03
1.698981e+03,6.454026e+03
1.699945e+03,6.464890e+03
1.700909e+03,6.469195e+03
1.701874e+03,6.456869e+03
1.702838e+03,6.438138e+03
1.703802e+03,6.423542e+03
1.704766e+03,6.411216e+03
1.705731e+03,6.405608e+03
1.706695e+03,6.408038e+03
1.707659e+03,6.411755e+03
1.708623e+03,6.422977e+03
1.709588e+03,6.422007e+03
1.710552e+03,6.400635e+03
1.711516e+03,6.376732e+03
1.712480e+03,6.371898e+03
1.713444e+03,6.369702e+03
1.714409e+03,6.346081e+03
1.715373e+03,6.320078e+03
1.716337e+03,6.322198e+03
1.717301e+03,6.354805e+03
1.718266e+03,6.369041e+03
1.719230e+03,6.363896e+03
1.720194e+03,6.362592e+03
1.721158e+03,6.371506e+03
1.722123e+03,6.376392e+03
1.723087e+03,6.366237e+03
1.724051e+03,6.349974e+03
1.725015e+03,6.329042e+03
1.725979e+03,6.311232e+03
1.726944e+03,6.307923e+03
1.727908e+03,6.314602e+03
1.728872e+03,6.310565e+03
1.729836e+03,6.296660e+03
1.730801e+03,6.286538e+03
1.731765e+03,6.290700e+03
1.732729e+03,6.288857e+03
1.733693e+03,6.275854e+03
1.734658e+03,6.268007e+03
1.735622e+03,6.275375e+03
1.736586e+03,6.282135e+03
1.737550e+03,6.256761e+03
1.738515e+03,6.224113e+03
1.739479e+03,6.218705e+03
1.740443e+03,6.236676e+03
1.741407e+03,6.239064e+03
1.742371e+03,6.223594e+03
1.743336e+03,6.214886e+03
1.744300e+03,6.214368e+03
1.745264e+03,6.211624e+03
1.746228e+03,6.203800e+03
1.747193e+03,6.193883e+03
1.748157e+03,6.183732e+03
1.749121e+03,6.177237e+03
1.750085e+03,6.170312e+03
1.751050e+03,6.158895e+03
1.752014e+03,6.145836e+03
1.752978e+03,6.135102e+03
1.753942e+03,6.134171e+03
1.754906e+03,6.143239e+03
1.755871e+03,6.149121e+03
1.756835e+03,6.147885e+03
1.757799e+03,6.134388e+03
1.758763e+03,6.111489e+03
1.759728e+03,6.095326e+03
1.760692e+03,6.106212e+03
1.761656e+03,6.123619e+03
1.762620e+03,6.127180e+03
1.763585e+03,6.119630e+03
1.764549e+03,6.105239e+03
1.765513e+03,6.082078e+03
1.766477e+03,6.066599e+03
1.767442e+03,6.060123e+03
1.768406e+03,6.063131e+03
1.769370e+03,6.078637e+03
1.770334e+03,6.087374e+03
1.771298e+03,6.068318e+03
1.772263e+03,6.051085e+03
1.773227e+03,6.045771e+03
1.774191e+03,6.046214e+03
1.775155e+03,6.048044e+03
1.776120e+03,6.045233e+03
1.777084e+03,6.021719e+03
1.778048e+03,5.988966e+03
1.779012e+03,5.978837e+03
1.779977e+03,6.001120e+03
1.780941e+03,6.013859e+03
1.781905e+03,6.014453e+03
1.782869e+03,6.006924e+03
1.783833e+03,5.990984e+03
1.784798e+03,5.976187e+03
1.785762e+03,5.967544e+03
1.786726e+03,5.961658e+03
1.787690e+03,5.958829e+03
1.788655e+03,5.957257e+03
1.789619e+03,5.952370e+03
1.790583e+03,5.944071e+03
1.791547e+03,5.925688e+03
1.792512e+03,5.901666e+03
1.793476e+03,5.893671e+03
1.794440e+03,5.907934e+03
1.795404e+03,5.913615e+03
1.796369e+03,5.907162e+03
1.797333e+03,5.898930e+03
1.798297e+03,5.893960e+03
1.799261e+03,5.893432e+03
1.800225e+03,5.900354e+03
1.801190e+03,5.905561e+03
1.802154e+03,5.906659e+03
1.803118e+03,5.901784e+03
1.804082e+03,5.887331e+03
1.805047e+03,5.867914e+03
1.806011e+03,5.846662e+03
1.806975e+03,5.824765e+03
1.807939e+03,5.815298e+03
1.808904e+03,5.822414e+03
1.809868e+03,5.821794e+03
1.810832e+03,5.812369e+03
1.811796e+03,5.805435e+03
1.812760e+03,5.813732e+03
1.813725e+03,5.819650e+03
1.814689e+03,5.811603e+03
1.815653e+03,5.796639e+03
1.816617e+03,5.777982e+03
1.817582e+03,5.758769e+03
1.818546e+03,5.750011e+03
1.819510e+03,5.746459e+03
1.820474e+03,5.735111e+03
1.821439e+03,5.715396e+03
1.822403e+03,5.713863e+03
1.823367e+03,5.738463e+03
1.824331e+03,5.749319e+03
1.825296e+03,5.738151e+03
1.826260e+03,5.722038e+03
1.827224e+03,5.719074e+03
1.828188e+03,5.719421e+03
1.829152e+03,5.714347e+03
1.830117e+03,5.706256e+03
1.831081e+03,5.695287e+03
1.832045e+03,5.682580e+03
1.833009e+03,5.681780e+03
1.833974e+03,5.689225e+03
1.834938e+03,5.687570e+03
1.835902e+03,5.669784e+03
1.836866e+03,5.654408e+03
1.837831e+03,5.640482e+03
1.838795e+03,5.638544e+03
1.839759e+03,5.653813e+03
1.840723e+03,5.671315e+03
1.841688e+03,5.684462e+03
1.842652e+03,5.685335e+03
1.843616e+03,5.664034e+03
1.844580e+03,5.638963e+03
1.845544e+03,5.636742e+03
1.846509e+03,5.643942e+03
1.847473e+03,5.631690e+03
1.848437e+03,5.610585e+03
1.849401e+03,5.603429e+03
1.850366e+03,5.611727e+03
1.851330e+03,5.601198e+03
1.852294e+03,5.576209e+03
1.853258e+03,5.560098e+03
1.854223e+03,5.559072e+03
1.855187e+03,5.560721e+03
1.856151e+03,5.559226e+03
1.857115e+03,5.554409e+03
1.858079e+03,5.544058e+03
1.859044e+03,5.534815e+03
1.860008e+03,5.540693e+03
1.860972e+03,5.549531e+03
1.861936e+03,5.543803e+03
1.862901e+03,5.535995e+03
1.863865e+03,5.544150e+03
1.864829e+03,5.561061e+03
1.865793e+03,5.554643e+03
1.866758e+03,5.533565e+03
1.867722e+03,5.517846e+03
1.868686e+03,5.511864e+03
1.869650e+03,5.509290e+03
1.870615e+03,5.509048e+03
1.871579e+03,5.502085e+03
1.872543e+03,5.487665e+03
1.873507e+03,5.479834e+03
1.874471e+03,5.494857e+03
1.875436e+03,5.500934e+03
1.876400e+03,5.483224e+03
1.877364e+03,5.458621e+03
1.878328e+03,5.445874e+03
1.879293e+03,5.438958e+03
1.880257e+03,5.422412e+03
1.881221e+03,5.401574e+03
1.882185e+03,5.393111e+03
1.883150e+03,5.399127e+03
1.884114e+03,5.399087e+03
1.885078e+03,5.392500e+03
1.886042e+03,5.386143e+03
1.887006e+03,5.381443e+03
1.887971e+03,5.378954e+03
1.888935e+03,5.383478e+03
1.889899e+03,5.387704e+03
1.890863e+03,5.386922e+03
1.891828e+03,5.382902e+03
1.892792e+03,5.381812e+03
1.893756e+03,5.378967e+03
1.894720e+03,5.378537e+03
1.895685e+03,5.376081e+03
1.896649e+03,5.352199e+03
1.897613e+03,5.318023e+03
1.898577e+03,5.329457e+03
1.899542e+03,5.364683e+03
1.900506e+03,5.370065e+03
1.901470e+03,5.332763e+03
1.902434e+03,5.323040e+03
1.903398e+03,5.339618e+03
1.904363e+03,5.347773e+03
1.905327e+03,5.339216e+03
1.906291e+03,5.324960e+03
1.907255e+03,5.294501e+03
1.908220e+03,5.279562e+03
1.909184e+03,5.289028e+03
1.910148e+03,5.302839e+03
1.911112e+03,5.307662e+03
1.912077e+03,5.306099e+03
1.913041e+03,5.295541e+03
1.914005e+03,5.282772e+03
1.914969e+03,5.275339e+03
1.915933e+03,5.270721e+03
1.916898e+03,5.257956e+03
1.917862e+03,5.242014e+03
1.918826e+03,5.230304e+03
1.919790e+03,5.225627e+03
1.920755e+03,5.225867e+03
1.921719e+03,5.227732e+03
1.922683e+03,5.222630e+03
1.923647e+03,5.210444e+03
1.924612e+03,5.204600e+03
1.925576e+03,5.222025e+03
1.926540e+03,5.225813e+03
1.927504e+03,5.205258e+03
1.928469e+03,5.182307e+03
1.929433e+03,5.175677e+03
1.930397e+03,5.173213e+03
1.931361e+03,5.170626e+03
1.932325e+03,5.163717e+03
1.933290e+03,5.148361e+03
1.934254e+03,5.133960e+03
1.935218e+03,5.138313e+03
1.936182e+03,5.147210e+03
1.937147e+03,5.140999e+03
1.938111e+03,5.123381e+03
1.939075e+03,5.124382e+03
1.940039e+03,5.142258e+03
1.941004e+03,5.150444e+03
1.941968e+03,5.141767e+03
1.942932e+03,5.122286e+03
1.943896e+03,5.088210e+03
1.944860e+03,5.066717e+03
1.945825e+03,5.062889e+03
1.946789e+03,5.067537e+03
1.947753e+03,5.081011e+03
1.948717e+03,5.086202e+03
1.949682e+03,5.069977e+03
1.950646e+03,5.054250e+03
1.951610e+03,5.053775e+03
1.952574e+03,5.058570e+03
1.953539e+03,5.056189e+03
1.954503e+03,5.048482e+03
1.955467e+03,5.037275e+03
1.956431e+03,5.025872e+03
1.957396e+03,5.018595e+03
1.958360e+03,5.014228e+03
1.959324e+03,5.016187e+03
1.960288e+03,5.024066e+03
1.961252e+03,5.020810e+03
1.962217e+03,5.001547e+03
1.963181e+03,4.991521e+03
1.964145e+03,4.990382e+03
1.965109e+03,4.989420e+03
1.966074e+03,4.984717e+03
1.967038e+03,4.986858e+03
1.968002e+03,4.993169e+03
1.968966e+03,4.992519e+03
1.969931e+03,4.978279e+03
1.970895e+03,4.961910e+03
1.971859e+03,4.962521e+03
1.972823e+03,4.958734e+03
1.973787e+03,4.935290e+03
1.974752e+03,4.909312e+03
1.975716e+03,4.912214e+03
1.976680e+03,4.922636e+03
1.977644e+03,4.919111e+03
1.978609e+03,4.911898e+03
1.979573e+03,4.916830e+03
1.980537e+03,4.927333e+03
1.981501e+03,4.924192e+03
1.982466e+03,4.911717e+03
1.983430e+03,4.900463e+03
1.984394e+03,4.890083e+03
1.985358e+03,4.891078e+03
1.986323e+03,4.899695e+03
1.987287e+03,4.894884e+03
1.988251e+03,4.865673e+03
1.989215e+03,4.847913e+03
1.990179e+03,4.848082e+03
1.991144e+03,4.853580e+03
1.992108e+03,4.864119e+03
1.993072e+03,4.870780e+03
1.994036e+03,4.861517e+03
1.995001e+03,4.849638e+03
1.995965e+03,4.837450e+03
1.996929e+03,4.830333e+03
1.997893e+03,4.835197e+03
1.998858e+03,4.839189e+03
1.999822e+03,4.831031e+03
2.000786e+03,4.816055e+03
2.001750e+03,4.800159e+03
2.002714e+03,4.788846e+03
2.003679e+03,4.789868e+03
2.004643e+03,4.794068e+03
2.005607e+03,4.790207e+03
2.006571e+03,4.780785e+03
2.007536e+03,4.769929e+03
2.008500e+03,4.758659e+03
2.009464e+03,4.748986e+03
2.010428e+03,4.741947e+03
2.011393e+03,4.730047e+03
2.012357e+03,4.711289e+03
2.013321e+03,4.712680e+03
2.014285e+03,4.730710e+03
2.015250e+03,4.740095e+03
2.016214e+03,4.719155e+03
2.017178e+03,4.708508e+03
2.018142e+03,4.712287e+03
2.019106e+03,4.712496e+03
2.020071e+03,4.696010e+03
2.021035e+03,4.680930e+03
2.021999e+03,4.674260e+03
2.022963e+03,4.673041e+03
2.023928e+03,4.681411e+03
2.024892e+03,4.686261e+03
2.025856e+03,4.664930e+03
2.026820e+03,4.641898e+03
2.027785e+03,4.629508e+03
2.028749e+03,4.626803e+03
2.029713e+03,4.641766e+03
2.030677e+03,4.662206e+03
2.031641e+03,4.673302e+03
2.032606e+03,4.673225e+03
2.033570e+03,4.658939e+03
2.034534e+03,4.633947e+03
2.035498e+03,4.614681e+03
2.036463e+03,4.601881e+03
2.037427e+03,4.599219e+03
2.038391e+03,4.607903e+03
2.039355e+03,4.593887e+03
2.040320e+03,4.565517e+03
2.041284e+03,4.557401e+03
2.042248e+03,4.576335e+03
2.043212e+03,4.586789e+03
2.044177e+03,4.587969e+03
2.045141e+03,4.578351e+03
2.046105e+03,4.557188e+03
2.047069e+03,4.542989e+03
2.048033e+03,4.544453e+03
2.048998e+03,4.551743e+03
2.049962e+03,4.566612e+03
2.050926e+03,4.575786e+03
2.051890e+03,4.564386e+03
2.052854e+03,4.554442e+03
2.053819e+03,4.551450e+03
2.054783e+03,4.545379e+03
2.055747e+03,4.532024e+03
2.056711e+03,4.522927e+03
2.057676e+03,4.537539e+03
2.058640e+03,4.546538e+03
2.059604e+03,4.527882e+03
2.060568e+03,4.500476e+03
2.061533e+03,4.495138e+03
2.062497e+03,4.498679e+03
2.063461e+03,4.499711e+03
2.064425e+03,4.498729e+03
2.065390e+03,4.497270e+03
2.066354e+03,4.493670e+03
2.067318e+03,4.486304e+03
2.068282e+03,4.476766e+03
2.069247e+03,4.465459e+03
2.070211e+03,4.451893e+03
2.071175e+03,4.439583e+03
2.072139e+03,4.429989e+03
2.073104e+03,4.426915e+03
2.074068e+03,4.430361e+03
2.075032e+03,4.423815e+03
2.075996e+03,4.410315e+03
2.076960e+03,4.415838e+03
2.077925e+03,4.444121e+03
2.078889e+03,4.448482e+03
2.079853e+03,4.425857e+03
2.080817e+03,4.411501e+03
2.081782e+03,4.408697e+03
2.082746e+03,4.400922e+03
2.083710e+03,4.381431e+03
2.084674e+03,4.367735e+03
2.085639e+03,4.363256e+03
2.086603e+03,4.367440e+03
2.087567e+03,4.380920e+03
2.088531e+03,4.383838e+03
2.089496e+03,4.371492e+03
2.090460e+03,4.349126e+03
2.091424e+03,4.320487e+03
2.092388e+03,4.306623e+03
2.093353e+03,4.329445e+03
2.094317e+03,4.349839e+03
2.095281e+03,4.351785e+03
2.096245e+03,4.346369e+03
2.097209e+03,4.344160e+03
2.098174e+03,4.340253e+03
2.099138e+03,4.334472e+03
2.100102e+03,4.327896e+03
2.101066e+03,4.322123e+03
2.102031e+03,4.314415e+03
2.102995e+03,4.298232e+03
2.103959e+03,4.283706e+03
2.104923e+03,4.280674e+03
2.105887e+03,4.286330e+03
2.106852e+03,4.286806e+03
2.107816e+03,4.288278e+03
2.108780e+03,4.304500e+03
2.109744e+03,4.324706e+03
2.110708e+03,4.327747e+03
2.111673e+03,4.320000e+03
2.112637e+03,4.299675e+03
2.113601e+03,4.271650e+03
2.114565e+03,4.248643e+03
2.115530e+03,4.232357e+03
2.116494e+03,4.228327e+03
2.117458e+03,4.239307e+03
2.118422e+03,4.252883e+03
2.119387e+03,4.264210e+03
2.120351e+03,4.263990e+03
2.121315e+03,4.254790e+03
2.122279e+03,4.258776e+03
2.123244e+03,4.276856e+03
2.124208e+03,4.270417e+03
2.125172e+03,4.245938e+03
2.126136e+03,4.216151e+03
2.127101e+03,4.182784e+03
2.128065e+03,4.175305e+03
2.129029e+03,4.189276e+03
2.129993e+03,4.199643e+03
2.130958e+03,4.197349e+03
2.131922e+03,4.185721e+03
2.132886e+03,4.166032e+03
2.133850e+03,4.163045e+03
2.134814e+03,4.181705e+03
2.135779e+03,4.190019e+03
2.136743e+03,4.167132e+03
2.137707e+03,4.158507e+03
2.138671e+03,4.166888e+03
2.139636e+03,4.171450e+03
2.140600e+03,4.160893e+03
2.141564e+03,4.145237e+03
2.142528e+03,4.125663e+03
2.143493e+03,4.111514e+03
2.144457e+03,4.104867e+03
2.145421e+03,4.101201e+03
2.146385e+03,4.101401e+03
2.147350e+03,4.099013e+03
2.148314e+03,4.094083e+03
2.149278e+03,4.093563e+03
2.150242e+03,4.100381e+03
2.151207e+03,4.101706e+03
2.152171e+03,4.093809e+03
2.153135e+03,4.083828e+03
2.154099e+03,4.087524e+03
2.155063e+03,4.083868e+03
2.156028e+03,4.067884e+03
2.156992e+03,4.054487e+03
2.157956e+03,4.048966e+03
2.158920e+03,4.045780e+03
2.159885e+03,4.041823e+03
2.160849e+03,4.041176e+03
2.161813e+03,4.046520e+03
2.162777e+03,4.053263e+03
2.163741e+03,4.068483e+03
2.164706e+03,4.066969e+03
2.165670e+03,4.038997e+03
2.166634e+03,4.011534e+03
2.167598e+03,4.009559e+03
2.168563e+03,4.016376e+03
2.169527e+03,4.022448e+03
2.170491e+03,4.022036e+03
2.171455e+03,4.010334e+03
2.172420e+03,3.998644e+03
2.173384e+03,3.995654e+03
2.174348e+03,3.995081e+03
2.175312e+03,3.991958e+03
2.176277e+03,3.984432e+03
2.177241e+03,3.968782e+03
2.178205e+03,3.951991e+03
2.179169e+03,3.939072e+03
2.180134e+03,3.933886e+03
2.181098e+03,3.943643e+03
2.182062e+03,3.955124e+03
2.183026e+03,3.956824e+03
2.183990e+03,3.951640e+03
2.184955e+03,3.939616e+03
2.185919e+03,3.929423e+03
2.186883e+03,3.927126e+03
2.187847e+03,3.926504e+03
2.188812e+03,3.922964e+03
2.189776e+03,3.918767e+03
2.190740e+03,3.913614e+03
2.191704e+03,3.907398e+03
2.192668e+03,3.902595e+03
2.193633e+03,3.898693e+03
2.194597e+03,3.893934e+03
2.195561e+03,3.889843e+03
2.196525e+03,3.884119e+03
2.197490e+03,3.880489e+03
2.198454e+03,3.893438e+03
2.199418e+03,3.903638e+03
2.200382e+03,3.892318e+03
2.201347e+03,3.876413e+03
2.202311e+03,3.885459e+03
2.203275e+03,3.897683e+03
2.204239e+03,3.885851e+03
2.205204e+03,3.862012e+03
2.206168e+03,3.840289e+03
2.207132e+03,3.829797e+03
2.208096e+03,3.854209e+03
2.209061e+03,3.877551e+03
2.210025e+03,3.858119e+03
2.210989e+03,3.821437e+03
2.211953e+03,3.801722e+03
2.212917e+03,3.802940e+03
2.213882e+03,3.821214e+03
2.214846e+03,3.842154e+03
2.215810e+03,3.847341e+03
2.216774e+03,3.836740e+03
2.217739e+03,3.817571e+03
2.218703e+03,3.797269e+03
2.219667e+03,3.784239e+03
2.220631e+03,3.778300e+03
2.221595e+03,3.778784e+03
2.222560e+03,3.781358e+03
2.223524e+03,3.784574e+03
2.224488e+03,3.784267e+03
2.225452e+03,3.773505e+03
2.226417e+03,3.761926e+03
2.227381e+03,3.756297e+03
2.228345e+03,3.757379e+03
2.229309e+03,3.763475e+03
2.230274e+03,3.772434e+03
2.231238e+03,3.788524e+03
2.232202e+03,3.800227e+03
2.233166e+03,3.792529e+03
2.234131e+03,3.774724e+03
2.235095e+03,3.748946e+03
2.236059e+03,3.727642e+03
2.237023e+03,3.737119e+03
2.237988e+03,3.748030e+03
2.238952e+03,3.736959e+03
2.239916e+03,3.718347e+03
2.240880e+03,3.718486e+03
2.241844e+03,3.717335e+03
2.242809e+03,3.694069e+03
2.243773e+03,3.674450e+03
2.244737e+03,3.690351e+03
2.245701e+03,3.709805e+03
2.246666e+03,3.704615e+03
2.247630e+03,3.692774e+03
2.248594e+03,3.688851e+03
2.249558e+03,3.689613e+03
2.250522e+03,3.688918e+03
2.251487e+03,3.692427e+03
2.252451e+03,3.702172e+03
2.253415e+03,3.703751e+03
2.254379e+03,3.679444e+03
2.255344e+03,3.658884e+03
2.256308e+03,3.654987e+03
2.257272e+03,3.657282e+03
2.258236e+03,3.660640e+03
2.259201e+03,3.657138e+03
2.260165e+03,3.639983e+03
2.261129e+03,3.628832e+03
2.262093e+03,3.654417e+03
2.263058e+03,3.664559e+03
2.264022e+03,3.646316e+03
2.264986e+03,3.627130e+03
2.265950e+03,3.624244e+03
2.266915e+03,3.616609e+03
2.267879e+03,3.592138e+03
2.268843e+03,3.577047e+03
2.269807e+03,3.593342e+03
2.270771e+03,3.601266e+03
2.271736e+03,3.581700e+03
2.272700e+03,3.576160e+03
2.273664e+03,3.593773e+03
2.274628e+03,3.610932e+03
2.275593e+03,3.620058e+03
2.276557e+03,3.610862e+03
2.277521e+03,3.583945e+03
2.278485e+03,3.566937e+03
2.279449e+03,3.577638e+03
2.280414e+03,3.587865e+03
2.281378e+03,3.595301e+03
2.282342e+03,3.599941e+03
2.283306e+03,3.604275e+03
2.284271e+03,3.583970e+03
2.285235e+03,3.541198e+03
2.286199e+03,3.514005e+03
2.287163e+03,3.525304e+03
2.288128e+03,3.542051e+03
2.289092e+03,3.558778e+03
2.290056e+03,3.560223e+03
2.291020e+03,3.542924e+03
2.291985e+03,3.533716e+03
2.292949e+03,3.534683e+03
2.293913e+03,3.529092e+03
2.294877e+03,3.516625e+03
2.295842e+03,3.526943e+03
2.296806e+03,3.554239e+03
2.297770e+03,3.566921e+03
2.298734e+03,3.562345e+03
2.299698e+03,3.540866e+03
2.300663e+03,3.508549e+03
2.301627e+03,3.494840e+03
2.302591e+03,3.493795e+03
2.303555e+03,3.494048e+03
2.304520e+03,3.494530e+03
2.305484e+03,3.489142e+03
2.306448e+03,3.484199e+03
2.307412e+03,3.490773e+03
2.308376e+03,3.500656e+03
2.309341e+03,3.494555e+03
2.310305e+03,3.481167e+03
2.311269e+03,3.473168e+03
2.312233e+03,3.471258e+03
2.313198e+03,3.477078e+03
2.314162e+03,3.479643e+03
2.315126e+03,3.465504e+03
2.316090e+03,3.446069e+03
2.317055e+03,3.430366e+03
2.318019e+03,3.422534e+03
2.318983e+03,3.428367e+03
2.319947e+03,3.434821e+03
2.320912e+03,3.435364e+03
2.321876e+03,3.435973e+03
2.322840e+03,3.442617e+03
2.323804e+03,3.443733e+03
2.324769e+03,3.432254e+03
2.325733e+03,3.423057e+03
2.326697e+03,3.426079e+03
2.327661e+03,3.429085e+03
2.328625e+03,3.426476e+03
2.329590e+03,3.418207e+03
2.330554e+03,3.405806e+03
2.331518e+03,3.393839e+03
2.332482e+03,3.382227e+03
2.333447e+03,3.378748e+03
2.334411e+03,3.393575e+03
2.335375e+03,3.396359e+03
2.336339e+03,3.386053e+03
2.337303e+03,3.379067e+03
2.338268e+03,3.382089e+03
2.339232e+03,3.380498e+03
2.340196e+03,3.375509e+03
2.341160e+03,3.366341e+03
2.342125e+03,3.350555e+03
2.343089e+03,3.369858e+03
2.344053e+03,3.407333e+03
2.345017e+03,3.412288e+03
2.345982e+03,3.383287e+03
2.346946e+03,3.362098e+03
2.347910e+03,3.350668e+03
2.348874e+03,3.352142e+03
2.349839e+03,3.355613e+03
2.350803e+03,3.332649e+03
2.351767e+03,3.302336e+03
2.352731e+03,3.307721e+03
2.353696e+03,3.327876e+03
2.354660e+03,3.321589e+03
2.355624e+03,3.304618e+03
2.356588e+03,3.305818e+03
2.357552e+03,3.313478e+03
2.358517e+03,3.317757e+03
2.359481e+03,3.320327e+03
2.360445e+03,3.322404e+03
2.361409e+03,3.319376e+03
2.362374e+03,3.307065e+03
2.363338e+03,3.294794e+03
2.364302e+03,3.299496e+03
2.365266e+03,3.306148e+03
2.366230e+03,3.309322e+03
2.367195e+03,3.303459e+03
2.368159e+03,3.270387e+03
2.369123e+03,3.256790e+03
2.370087e+03,3.272881e+03
2.371052e+03,3.284985e+03
2.372016e+03,3.274947e+03
2.372980e+03,3.270800e+03
2.373944e+03,3.271913e+03
2.374909e+03,3.266617e+03
2.375873e+03,3.249234e+03
2.376837e+03,3.242445e+03
2.377801e+03,3.243436e+03
2.378766e+03,3.233608e+03
2.379730e+03,3.212037e+03
2.380694e+03,3.211642e+03
2.381658e+03,3.223702e+03
2.382623e+03,3.212487e+03
2.383587e+03,3.189191e+03
2.384551e+03,3.205339e+03
2.385515e+03,3.232953e+03
2.386479e+03,3.222175e+03
2.387444e+03,3.199265e+03
2.388408e+03,3.205911e+03
2.389372e+03,3.221250e+03
2.390336e+03,3.221354e+03
2.391301e+03,3.216972e+03
2.392265e+03,3.216773e+03
2.393229e+03,3.215841e+03
2.394193e+03,3.212688e+03
2.395157e+03,3.206834e+03
2.396122e+03,3.198178e+03
2.397086e+03,3.187589e+03
2.398050e+03,3.175622e+03
2.399014e+03,3.168962e+03
2.399979e+03,3.170444e+03
2.400943e+03,3.173484e+03
2.401907e+03,3.175761e+03
2.402871e+03,3.174489e+03
2.403836e+03,3.170071e+03
2.404800e+03,3.165495e+03
2.405764e+03,3.160438e+03
2.406728e+03,3.158065e+03
2.407693e+03,3.155731e+03
2.408657e+03,3.147540e+03
2.409621e+03,3.136763e+03
2.410585e+03,3.128824e+03
2.411550e+03,3.125931e+03
2.412514e+03,3.131984e+03
2.413478e+03,3.140648e+03
2.414442e+03,3.133062e+03
2.415406e+03,3.122263e+03
2.416371e+03,3.123170e+03
2.417335e+03,3.127599e+03
2.418299e+03,3.120722e+03
2.419263e+03,3.115509e+03
2.420228e+03,3.119577e+03
2.421192e+03,3.123217e+03
2.422156e+03,3.117911e+03
2.423120e+03,3.111237e+03
2.424084e+03,3.101379e+03
2.425049e+03,3.095403e+03
2.426013e+03,3.105271e+03
2.426977e+03,3.105709e+03
2.427941e+03,3.097365e+03
2.428906e+03,3.098051e+03
2.429870e+03,3.112750e+03
2.430834e+03,3.113498e+03
2.431798e+03,3.103135e+03
2.432763e+03,3.096496e+03
2.433727e+03,3.092996e+03
2.434691e+03,3.072062e+03
2.435655e+03,3.047603e+03
2.436620e+03,3.052959e+03
2.437584e+03,3.073576e+03
2.438548e+03,3.070667e+03
2.439512e+03,3.063458e+03
2.440477e+03,3.073283e+03
2.441441e+03,3.080440e+03
2.442405e+03,3.049426e+03
2.443369e+03,3.029473e+03
2.444333e+03,3.046652e+03
2.445298e+03,3.066076e+03
2.446262e+03,3.052763e+03
2.447226e+03,3.042187e+03
2.448190e+03,3.042492e+03
2.449155e+03,3.040772e+03
2.450119e+03,3.025099e+03
2.451083e+03,3.026254e+03
2.452047e+03,3.040933e+03
2.453011e+03,3.043526e+03
2.453976e+03,3.028728e+03
2.454940e+03,3.018200e+03
2.455904e+03,3.012793e+03
2.456868e+03,3.006259e+03
2.457833e+03,2.998712e+03
2.458797e+03,3.001832e+03
2.459761e+03,3.009865e+03
2.460725e+03,3.014744e+03
2.461690e+03,3.012651e+03
2.462654e+03,2.988375e+03
2.463618e+03,2.969055e+03
2.464582e+03,2.972746e+03
2.465547e+03,2.986526e+03
2.466511e+03,3.002033e+03
2.467475e+03,3.008550e+03
2.468439e+03,3.004315e+03
2.469404e+03,2.991690e+03
2.470368e+03,2.963005e+03
2.471332e+03,2.962757e+03
2.472296e+03,2.985792e+03
2.473260e+03,2.985879e+03
2.474225e+03,2.949622e+03
2.475189e+03,2.948956e+03
2.476153e+03,2.973250e+03
2.477117e+03,2.981131e+03
2.478082e+03,2.976840e+03
2.479046e+03,2.992348e+03
2.480010e+03,3.008994e+03
2.480974e+03,3.002455e+03
2.481938e+03,2.984337e+03
2.482903e+03,2.960138e+03
2.483867e+03,2.944200e+03
2.484831e+03,2.943215e+03
2.485795e+03,2.945340e+03
2.486760e+03,2.946387e+03
2.487724e+03,2.943948e+03
2.488688e+03,2.938934e+03
2.489652e+03,2.932392e+03
2.490617e+03,2.918071e+03
2.491581e+03,2.915234e+03
2.492545e+03,2.923508e+03
2.493509e+03,2.933135e+03
2.494474e+03,2.939658e+03
2.495438e+03,2.938475e+03
2.496402e+03,2.928955e+03
2.497366e+03,2.900999e+03
2.498331e+03,2.873113e+03
2.499295e+03,2.891750e+03
2.500259e+03,2.915960e+03
2.501223e+03,2.912612e+03
2.502188e+03,2.903060e+03
2.503152e+03,2.912543e+03
2.504116e+03,2.912755e+03
2.505080e+03,2.894467e+03
2.506044e+03,2.883064e+03
2.507009e+03,2.903614e+03
2.507973e+03,2.906995e+03
2.508937e+03,2.894254e+03
2.509901e+03,2.884522e+03
2.510865e+03,2.881736e+03
2.511830e+03,2.873818e+03
2.512794e+03,2.864212e+03
2.513758e+03,2.874948e+03
2.514722e+03,2.896784e+03
2.515687e+03,2.896979e+03
2.516651e+03,2.887790e+03
2.517615e+03,2.882857e+03
2.518579e+03,2.877835e+03
2.519544e+03,2.863646e+03
2.520508e+03,2.853116e+03
2.521472e+03,2.851337e+03
2.522436e+03,2.854788e+03
2.523401e+03,2.869894e+03
2.524365e+03,2.869086e+03
2.525329e+03,2.849308e+03
2.526293e+03,2.835152e+03
2.527258e+03,2.834445e+03
2.528222e+03,2.839567e+03
2.529186e+03,2.848199e+03
2.530150e+03,2.855505e+03
2.531115e+03,2.860702e+03
2.532079e+03,2.854634e+03
2.533043e+03,2.842302e+03
2.534007e+03,2.826976e+03
2.534971e+03,2.812705e+03
2.535936e+03,2.811547e+03
2.536900e+03,2.812264e+03
2.537864e+03,2.810441e+03
2.538828e+03,2.810857e+03
2.539792e+03,2.812183e+03
2.540757e+03,2.810646e+03
2.541721e+03,2.806092e+03
2.542685e+03,2.814268e+03
2.543649e+03,2.835457e+03
2.544614e+03,2.842003e+03
2.545578e+03,2.833662e+03
2.546542e+03,2.820689e+03
2.547506e+03,2.808523e+03
2.548471e+03,2.808177e+03
2.549435e+03,2.813048e+03
2.550399e+03,2.821366e+03
2.551363e+03,2.823345e+03
2.552328e+03,2.810160e+03
2.553292e+03,2.794899e+03
2.554256e+03,2.779980e+03
2.555220e+03,2.773979e+03
2.556185e+03,2.776837e+03
2.557149e+03,2.780624e+03
2.558113e+03,2.783384e+03
2.559077e+03,2.784339e+03
2.560042e+03,2.782493e+03
2.561006e+03,2.781586e+03
2.561970e+03,2.783210e+03
2.562934e+03,2.778621e+03
2.563898e+03,2.774305e+03
2.564863e+03,2.779712e+03
2.565827e+03,2.780168e+03
2.566791e+03,2.762215e+03
2.567755e+03,2.754118e+03
2.568719e+03,2.759143e+03
2.569684e+03,2.760540e+03
2.570648e+03,2.750205e+03
2.571612e+03,2.745804e+03
2.572576e+03,2.749475e+03
2.573541e+03,2.755656e+03
2.574505e+03,2.759301e+03
2.575469e+03,2.753324e+03
2.576433e+03,2.744263e+03
2.577398e+03,2.746933e+03
2.578362e+03,2.752391e+03
2.579326e+03,2.746541e+03
2.580290e+03,2.744200e+03
2.581255e+03,2.750948e+03
2.582219e+03,2.753503e+03
2.583183e+03,2.740565e+03
2.584147e+03,2.727298e+03
2.585112e+03,2.718527e+03
2.586076e+03,2.715849e+03
2.587040e+03,2.718711e+03
2.588004e+03,2.717848e+03
2.588969e+03,2.714913e+03
2.589933e+03,2.719867e+03
2.590897e+03,2.727208e+03
2.591861e+03,2.723224e+03
2.592825e+03,2.716403e+03
2.593790e+03,2.709630e+03
2.594754e+03,2.707086e+03
2.595718e+03,2.716203e+03
2.596682e+03,2.713896e+03
2.597646e+03,2.693324e+03
2.598611e+03,2.681128e+03
2.599575e+03,2.682153e+03
2.600539e+03,2.691670e+03
2.601503e+03,2.704440e+03
2.602468e+03,2.707976e+03
2.603432e+03,2.702947e+03
2.604396e+03,2.685729e+03
2.605360e+03,2.674444e+03
2.606325e+03,2.691467e+03
2.607289e+03,2.703953e+03
2.608253e+03,2.698702e+03
2.609217e+03,2.685423e+03
2.610182e+03,2.656328e+03
2.611146e+03,2.658528e+03
2.612110e+03,2.687341e+03
2.613074e+03,2.685192e+03
2.614039e+03,2.655167e+03
2.615003e+03,2.661085e+03
2.615967e+03,2.678196e+03
2.616931e+03,2.674343e+03
2.617896e+03,2.663960e+03
2.618860e+03,2.661705e+03
2.619824e+03,2.666065e+03
2.620788e+03,2.675954e+03
2.621752e+03,2.678193e+03
2.622717e+03,2.662384e+03
2.623681e+03,2.656844e+03
2.624645e+03,2.660201e+03
2.625609e+03,2.657513e+03
2.626573e+03,2.648762e+03
2.627538e+03,2.640355e+03
2.628502e+03,2.634414e+03
2.629466e+03,2.628898e+03
2.630430e+03,2.626017e+03
2.631395e+03,2.632639e+03
2.632359e+03,2.634595e+03
2.633323e+03,2.625998e+03
2.634287e+03,2.616791e+03
2.635252e+03,2.610377e+03
2.636216e+03,2.614770e+03
2.637180e+03,2.628573e+03
2.638144e+03,2.630165e+03
2.639109e+03,2.622184e+03
2.640073e+03,2.614552e+03
2.641037e+03,2.611313e+03
2.642001e+03,2.612772e+03
2.642966e+03,2.612907e+03
2.643930e+03,2.606764e+03
2.644894e+03,2.606072e+03
2.645858e+03,2.626640e+03
2.646823e+03,2.637984e+03
2.647787e+03,2.637056e+03
2.648751e+03,2.627719e+03
2.649715e+03,2.612402e+03
2.650679e+03,2.615949e+03
2.651644e+03,2.627403e+03
2.652608e+03,2.628388e+03
2.653572e+03,2.625614e+03
2.654536e+03,2.634069e+03
2.655500e+03,2.635462e+03
2.656465e+03,2.621656e+03
2.657429e+03,2.611718e+03
2.658393e+03,2.610894e+03
2.659357e+03,2.596239e+03
2.660322e+03,2.571755e+03
2.661286e+03,2.561994e+03
2.662250e+03,2.564225e+03
2.663214e+03,2.573508e+03
2.664179e+03,2.584881e+03
2.665143e+03,2.599622e+03
2.666107e+03,2.604937e+03
2.667071e+03,2.593875e+03
2.668036e+03,2.583630e+03
2.669000e+03,2.576722e+03
2.669964e+03,2.589654e+03
2.670928e+03,2.614671e+03
2.671893e+03,2.598642e+03
2.672857e+03,2.554924e+03
2.673821e+03,2.556437e+03
2.674785e+03,2.575262e+03
2.675750e+03,2.581981e+03
2.676714e+03,2.584000e+03
2.677678e+03,2.585758e+03
2.678642e+03,2.589403e+03
2.679606e+03,2.596708e+03
2.680571e+03,2.587248e+03
2.681535e+03,2.559167e+03
2.682499e+03,2.550578e+03
2.683463e+03,2.557173e+03
2.684427e+03,2.554635e+03
2.685392e+03,2.550200e+03
2.686356e+03,2.560799e+03
2.687320e+03,2.563042e+03
2.688284e+03,2.529532e+03
2.689249e+03,2.510949e+03
2.690213e+03,2.515660e+03
2.691177e+03,2.526231e+03
2.692141e+03,2.541393e+03
2.693106e+03,2.550112e+03
2.694070e+03,2.549693e+03
2.695034e+03,2.525885e+03
2.695998e+03,2.497150e+03
2.696963e+03,2.493036e+03
2.697927e+03,2.505525e+03
2.698891e+03,2.529911e+03
2.699855e+03,2.537374e+03
2.700820e+03,2.510482e+03
2.701784e+03,2.502510e+03
2.702748e+03,2.513437e+03
2.703712e+03,2.508253e+03
2.704677e+03,2.494437e+03
2.705641e+03,2.513419e+03
2.706605e+03,2.538231e+03
2.707569e+03,2.528921e+03
2.708533e+03,2.514895e+03
2.709498e+03,2.508828e+03
2.710462e+03,2.504566e+03
2.711426e+03,2.502666e+03
2.712390e+03,2.507677e+03
2.713354e+03,2.515998e+03
2.714319e+03,2.509581e+03
2.715283e+03,2.497307e+03
2.716247e+03,2.506387e+03
2.717211e+03,2.517969e+03
2.718176e+03,2.518844e+03
2.719140e+03,2.516955e+03
2.720104e+03,2.518186e+03
2.721068e+03,2.508444e+03
2.722033e+03,2.488142e+03
2.722997e+03,2.486599e+03
2.723961e+03,2.498452e+03
2.724925e+03,2.508306e+03
2.725890e+03,2.508041e+03
2.726854e+03,2.476135e+03
2.727818e+03,2.447121e+03
2.728782e+03,2.435937e+03
2.729747e+03,2.434505e+03
2.730711e+03,2.444031e+03
2.731675e+03,2.457116e+03
2.732639e+03,2.472593e+03
2.733604e+03,2.482768e+03
2.734568e+03,2.486568e+03
2.735532e+03,2.477350e+03
2.736496e+03,2.464940e+03
2.737460e+03,2.458250e+03
2.738425e+03,2.454365e+03
2.739389e+03,2.449780e+03
2.740353e+03,2.452303e+03
2.741317e+03,2.463455e+03
2.742281e+03,2.464637e+03
2.743246e+03,2.458935e+03
2.744210e+03,2.449535e+03
2.745174e+03,2.440391e+03
2.746138e+03,2.447662e+03
2.747103e+03,2.448982e+03
2.748067e+03,2.436787e+03
2.749031e+03,2.428650e+03
2.749995e+03,2.432413e+03
2.750960e+03,2.443516e+03
2.751924e+03,2.454725e+03
2.752888e+03,2.436642e+03
2.753852e+03,2.408277e+03
2.754817e+03,2.417487e+03
2.755781e+03,2.435111e+03
2.756745e+03,2.446064e+03
2.757709e+03,2.447288e+03
2.758674e+03,2.436266e+03
2.759638e+03,2.428114e+03
2.760602e+03,2.426159e+03
2.761566e+03,2.421710e+03
2.762531e+03,2.421673e+03
2.763495e+03,2.439242e+03
2.764459e+03,2.450574e+03
2.765423e+03,2.420356e+03
2.766387e+03,2.406523e+03
2.767352e+03,2.421909e+03
2.768316e+03,2.427190e+03
2.769280e+03,2.413823e+03
2.770244e+03,2.422300e+03
2.771208e+03,2.439923e+03
2.772173e+03,2.436989e+03
2.773137e+03,2.421848e+03
2.774101e+03,2.403344e+03
2.775065e+03,2.392844e+03
2.776030e+03,2.395364e+03
2.776994e+03,2.400380e+03
2.777958e+03,2.403263e+03
2.778922e+03,2.397359e+03
2.779887e+03,2.385861e+03
2.780851e+03,2.368108e+03
2.781815e+03,2.359495e+03
2.782779e+03,2.372642e+03
2.783744e+03,2.386495e+03
2.784708e+03,2.385288e+03
2.785672e+03,2.381474e+03
2.786636e+03,2.376475e+03
2.787601e+03,2.374764e+03
2.788565e+03,2.377499e+03
2.789529e+03,2.387392e+03
2.790493e+03,2.395027e+03
2.791458e+03,2.386063e+03
2.792422e+03,2.377202e+03
2.793386e+03,2.374859e+03
2.794350e+03,2.384081e+03
2.795314e+03,2.404055e+03
2.796279e+03,2.402948e+03
2.797243e+03,2.387337e+03
2.798207e+03,2.370962e+03
2.799171e+03,2.363292e+03
2.800135e+03,2.384332e+03
2.801100e+03,2.390397e+03
2.802064e+03,2.371726e+03
2.803028e+03,2.360825e+03
2.803992e+03,2.358656e+03
2.804957e+03,2.357461e+03
2.805921e+03,2.358194e+03
2.806885e+03,2.367897e+03
2.807849e+03,2.364531e+03
2.808814e+03,2.337674e+03
2.809778e+03,2.320135e+03
2.810742e+03,2.332031e+03
2.811706e+03,2.337921e+03
2.812671e+03,2.335726e+03
2.813635e+03,2.327832e+03
2.814599e+03,2.322453e+03
2.815563e+03,2.347941e+03
2.816528e+03,2.365135e+03
2.817492e+03,2.352153e+03
2.818456e+03,2.333361e+03
2.819420e+03,2.313612e+03
2.820385e+03,2.318001e+03
2.821349e+03,2.341211e+03
2.822313e+03,2.352058e+03
2.823277e+03,2.352481e+03
2.824241e+03,2.343808e+03
2.825206e+03,2.334283e+03
2.826170e+03,2.330708e+03
2.827134e+03,2.331323e+03
2.828098e+03,2.333014e+03
2.829063e+03,2.328171e+03
2.830027e+03,2.320019e+03
2.830991e+03,2.320379e+03
2.831955e+03,2.322648e+03
2.832919e+03,2.307945e+03
2.833884e+03,2.316375e+03
2.834848e+03,2.348491e+03
2.835812e+03,2.347875e+03
2.836776e+03,2.316180e+03
2.837741e+03,2.301471e+03
2.838705e+03,2.301196e+03
2.839669e+03,2.311496e+03
2.840633e+03,2.325796e+03
2.841598e+03,2.342950e+03
2.842562e+03,2.336744e+03
2.843526e+03,2.301823e+03
2.844490e+03,2.303065e+03
2.845455e+03,2.314619e+03
2.846419e+03,2.288583e+03
2.847383e+03,2.260527e+03
2.848347e+03,2.276729e+03
2.849312e+03,2.285504e+03
2.850276e+03,2.277921e+03
2.851240e+03,2.284104e+03
2.852204e+03,2.300855e+03
2.853168e+03,2.311886e+03
2.854133e+03,2.317257e+03
2.855097e+03,2.316952e+03
2.856061e+03,2.320832e+03
2.857025e+03,2.329066e+03
2.857990e+03,2.317189e+03
2.858954e+03,2.278084e+03
2.859918e+03,2.275538e+03
2.860882e+03,2.290035e+03
2.861846e+03,2.287321e+03
2.862811e+03,2.279500e+03
2.863775e+03,2.275458e+03
2.864739e+03,2.281536e+03
2.865703e+03,2.300541e+03
2.866668e+03,2.306092e+03
2.867632e+03,2.300819e+03
2.868596e+03,2.293485e+03
2.869560e+03,2.285845e+03
2.870525e+03,2.279720e+03
2.871489e+03,2.285239e+03
2.872453e+03,2.303246e+03
2.873417e+03,2.305243e+03
2.874382e+03,2.291718e+03
2.875346e+03,2.299964e+03
2.876310e+03,2.310229e+03
2.877274e+03,2.271242e+03
2.878239e+03,2.256948e+03
2.879203e+03,2.291643e+03
2.880167e+03,2.309617e+03
2.881131e+03,2.293329e+03
2.882095e+03,2.275394e+03
2.883060e+03,2.267161e+03
2.884024e+03,2.285905e+03
2.884988e+03,2.303462e+03
2.885952e+03,2.292026e+03
2.886917e+03,2.280741e+03
2.887881e+03,2.278600e+03
2.888845e+03,2.279121e+03
2.889809e+03,2.282772e+03
2.890773e+03,2.292459e+03
2.891738e+03,2.293483e+03
2.892702e+03,2.263510e+03
2.893666e+03,2.241964e+03
2.894630e+03,2.236500e+03
2.895595e+03,2.252856e+03
2.896559e+03,2.279848e+03
2.897523e+03,2.282405e+03
2.898487e+03,2.272631e+03
2.899452e+03,2.254257e+03
2.900416e+03,2.248440e+03
2.901380e+03,2.257091e+03
2.902344e+03,2.265230e+03
2.903309e+03,2.268604e+03
2.904273e+03,2.250716e+03
2.905237e+03,2.237956e+03
2.906201e+03,2.262976e+03
2.907166e+03,2.276163e+03
2.908130e+03,2.256194e+03
2.909094e+03,2.235617e+03
2.910058e+03,2.221887e+03
2.911022e+03,2.223482e+03
2.911987e+03,2.232701e+03
2.912951e+03,2.240153e+03
2.913915e+03,2.237380e+03
2.914879e+03,2.209719e+03
2.915844e+03,2.210887e+03
2.916808e+03,2.238430e+03
2.917772e+03,2.229421e+03
2.918736e+03,2.207323e+03
2.919700e+03,2.208536e+03
2.920665e+03,2.214470e+03
2.921629e+03,2.215983e+03
2.922593e+03,2.215282e+03
2.923557e+03,2.212615e+03
2.924522e+03,2.200288e+03
2.925486e+03,2.185260e+03
2.926450e+03,2.184326e+03
2.927414e+03,2.183703e+03
2.928379e+03,2.173240e+03
2.929343e+03,2.193739e+03
2.930307e+03,2.235248e+03
2.931271e+03,2.231813e+03
2.932236e+03,2.206439e+03
2.933200e+03,2.191479e+03
2.934164e+03,2.183960e+03
2.935128e+03,2.180735e+03
2.936093e+03,2.170450e+03
2.937057e+03,2.156119e+03
2.938021e+03,2.157688e+03
2.938985e+03,2.164233e+03
2.939949e+03,2.145492e+03
2.940914e+03,2.138538e+03
2.941878e+03,2.155643e+03
2.942842e+03,2.173613e+03
2.943806e+03,2.182785e+03
2.944771e+03,2.170051e+03
2.945735e+03,2.150288e+03
2.946699e+03,2.137927e+03
2.947663e+03,2.142574e+03
2.948627e+03,2.161575e+03
2.949592e+03,2.172000e+03
2.950556e+03,2.171873e+03
2.951520e+03,2.170024e+03
2.952484e+03,2.165764e+03
2.953449e+03,2.160449e+03
2.954413e+03,2.157025e+03
2.955377e+03,2.158736e+03
2.956341e+03,2.168276e+03
2.957306e+03,2.180803e+03
2.958270e+03,2.171989e+03
2.959234e+03,2.158217e+03
2.960198e+03,2.158356e+03
2.961163e+03,2.163413e+03
2.962127e+03,2.164198e+03
2.963091e+03,2.156694e+03
2.964055e+03,2.145118e+03
2.965020e+03,2.157892e+03
2.965984e+03,2.172435e+03
2.966948e+03,2.168795e+03
2.967912e+03,2.159207e+03
2.968876e+03,2.148024e+03
2.969841e+03,2.128054e+03
2.970805e+03,2.110934e+03
2.971769e+03,2.125976e+03
2.972733e+03,2.131084e+03
2.973698e+03,2.090237e+03
2.974662e+03,2.085686e+03
2.975626e+03,2.141135e+03
2.976590e+03,2.147936e+03
2.977554e+03,2.133790e+03
2.978519e+03,2.136110e+03
2.979483e+03,2.137281e+03
2.980447e+03,2.125997e+03
2.981411e+03,2.119758e+03
2.982376e+03,2.122048e+03
2.983340e+03,2.128850e+03
2.984304e+03,2.130519e+03
2.985268e+03,2.118566e+03
2.986233e+03,2.103629e+03
2.987197e+03,2.090041e+03
2.988161e+03,2.093470e+03
2.989125e+03,2.107696e+03
2.990090e+03,2.109623e+03
2.991054e+03,2.097901e+03
2.992018e+03,2.069634e+03
2.992982e+03,2.053625e+03
2.993947e+03,2.066313e+03
2.994911e+03,2.075429e+03
2.995875e+03,2.091909e+03
2.996839e+03,2.135749e+03
2.997803e+03,2.154194e+03
2.998768e+03,2.113164e+03
2.999732e+03,2.098116e+03
3.000696e+03,2.124855e+03
3.001660e+03,2.126388e+03
3.002625e+03,2.113161e+03
3.003589e+03,2.098708e+03
3.004553e+03,2.090447e+03
3.005517e+03,2.093438e+03
3.006481e+03,2.106878e+03
3.007446e+03,2.121797e+03
3.008410e+03,2.117805e+03
3.009374e+03,2.109893e+03
3.010338e+03,2.110782e+03
3.011303e+03,2.106902e+03
3.012267e+03,2.089719e+03
3.013231e+03,2.087532e+03
3.014195e+03,2.090644e+03
3.015160e+03,2.083753e+03
3.016124e+03,2.068623e+03
3.017088e+03,2.046164e+03
3.018052e+03,2.065539e+03
3.019017e+03,2.118224e+03
3.019981e+03,2.085293e+03
3.020945e+03,2.039604e+03
3.021909e+03,2.044338e+03
3.022874e+03,2.059856e+03
3.023838e+03,2.071604e+03
3.024802e+03,2.059137e+03
3.025766e+03,2.041767e+03
3.026730e+03,2.082566e+03
3.027695e+03,2.101061e+03
3.028659e+03,2.063282e+03
3.029623e+03,2.044689e+03
3.030587e+03,2.051218e+03
3.031552e+03,2.060176e+03
3.032516e+03,2.067375e+03
3.033480e+03,2.071847e+03
3.034444e+03,2.087741e+03
3.035408e+03,2.113431e+03
3.036373e+03,2.093157e+03
3.037337e+03,2.048699e+03
3.038301e+03,2.055455e+03
3.039265e+03,2.071973e+03
3.040230e+03,2.079191e+03
3.041194e+03,2.069086e+03
3.042158e+03,2.049489e+03
3.043122e+03,2.045701e+03
3.044087e+03,2.055350e+03
3.045051e+03,2.079532e+03
3.046015e+03,2.087969e+03
3.046979e+03,2.071349e+03
3.047944e+03,2.089140e+03
3.048908e+03,2.106038e+03
3.049872e+03,2.059173e+03
3.050836e+03,2.022707e+03
3.051801e+03,2.049795e+03
3.052765e+03,2.062540e+03
3.053729e+03,2.054560e+03
3.054693e+03,2.062073e+03
3.055657e+03,2.070220e+03
3.056622e+03,2.065745e+03
3.057586e+03,2.064604e+03
3.058550e+03,2.072987e+03
3.059514e+03,2.055857e+03
3.060479e+03,2.031946e+03
3.061443e+03,2.023271e+03
3.062407e+03,2.036602e+03
3.063371e+03,2.067668e+03
3.064335e+03,2.049415e+03
3.065300e+03,2.000200e+03
3.066264e+03,2.020869e+03
3.067228e+03,2.049607e+03
3.068192e+03,2.044019e+03
3.069157e+03,2.049518e+03
3.070121e+03,2.065949e+03
3.071085e+03,2.068757e+03
3.072049e+03,2.062876e+03
3.073014e+03,2.053475e+03
3.073978e+03,2.043755e+03
3.074942e+03,2.034556e+03
3.075906e+03,2.039252e+03
3.076871e+03,2.052302e+03
3.077835e+03,2.064485e+03
3.078799e+03,2.072291e+03
3.079763e+03,2.072468e+03
3.080728e+03,2.070889e+03
3.081692e+03,2.064959e+03
3.082656e+03,2.034767e+03
3.083620e+03,2.015485e+03
3.084584e+03,2.026164e+03
3.085549e+03,2.034621e+03
3.086513e+03,2.034724e+03
3.087477e+03,2.037683e+03
3.088441e+03,2.039054e+03
3.089406e+03,2.036976e+03
3.090370e+03,2.039093e+03
3.091334e+03,2.047042e+03
3.092298e+03,2.069104e+03
3.093262e+03,2.086361e+03
3.094227e+03,2.042569e+03
3.095191e+03,2.009219e+03
3.096155e+03,2.012114e+03
3.097119e+03,1.995697e+03
3.098084e+03,1.978708e+03
3.099048e+03,2.002087e+03
3.100012e+03,2.037342e+03
3.100976e+03,2.068162e+03
3.101941e+03,2.082358e+03
3.102905e+03,2.075891e+03
3.103869e+03,2.041808e+03
3.104833e+03,2.008683e+03
3.105798e+03,1.995201e+03
3.106762e+03,1.993199e+03
3.107726e+03,2.000702e+03
3.108690e+03,2.016803e+03
3.109655e+03,2.030920e+03
3.110619e+03,2.029559e+03
3.111583e+03,2.028869e+03
3.112547e+03,2.032346e+03
3.113511e+03,2.033348e+03
3.114476e+03,2.030579e+03
3.115440e+03,2.012844e+03
3.116404e+03,2.016273e+03
3.117368e+03,2.068376e+03
3.118333e+03,2.037561e+03
3.119297e+03,1.982584e+03
3.120261e+03,2.010164e+03
3.121225e+03,2.031966e+03
3.122189e+03,1.996330e+03
3.123154e+03,1.977508e+03
3.124118e+03,1.979867e+03
3.125082e+03,2.004052e+03
3.126046e+03,2.007949e+03
3.127011e+03,1.970776e+03
3.127975e+03,1.969408e+03
3.128939e+03,2.000113e+03
3.129903e+03,2.025518e+03
3.130868e+03,2.030622e+03
3.131832e+03,1.974563e+03
3.132796e+03,1.953439e+03
3.133760e+03,1.973524e+03
3.134725e+03,2.020047e+03
3.135689e+03,2.054828e+03
3.136653e+03,2.044094e+03
3.137617e+03,2.020744e+03
3.138582e+03,1.995325e+03
3.139546e+03,2.036496e+03
3.140510e+03,2.071264e+03
3.141474e+03,2.019403e+03
3.142438e+03,1.985450e+03
3.143403e+03,1.986687e+03
3.144367e+03,1.986069e+03
3.145331e+03,1.986569e+03
3.146295e+03,2.006557e+03
3.147260e+03,2.018269e+03
3.148224e+03,2.011221e+03
3.149188e+03,2.033621e+03
3.150152e+03,2.040156e+03
3.151116e+03,1.964463e+03
3.152081e+03,1.926727e+03
3.153045e+03,1.975432e+03
3.154009e+03,1.976206e+03
3.154973e+03,1.954136e+03
3.155938e+03,1.969254e+03
3.156902e+03,2.002580e+03
3.157866e+03,2.039228e+03
3.158830e+03,2.034136e+03
3.159795e+03,2.008681e+03
3.160759e+03,2.001386e+03
3.161723e+03,1.999406e+03
3.162687e+03,2.003175e+03
3.163652e+03,2.006334e+03
3.164616e+03,2.008924e+03
3.165580e+03,2.008070e+03
3.166544e+03,1.992847e+03
3.167509e+03,1.963330e+03
3.168473e+03,1.969078e+03
3.169437e+03,1.998780e+03
3.170401e+03,2.010317e+03
3.171365e+03,2.000999e+03
3.172330e+03,1.969679e+03
3.173294e+03,1.993414e+03
3.174258e+03,2.038705e+03
3.175222e+03,2.027430e+03
3.176187e+03,2.009269e+03
3.177151e+03,2.021295e+03
3.178115e+03,2.016240e+03
3.179079e+03,1.999015e+03
3.180043e+03,1.991203e+03
3.181008e+03,1.986927e+03
3.181972e+03,1.986655e+03
3.182936e+03,2.020037e+03
3.183900e+03,2.066066e+03
3.184865e+03,2.064668e+03
3.185829e+03,2.046771e+03
3.186793e+03,2.030936e+03
3.187757e+03,1.992627e+03
3.188722e+03,1.956795e+03
3.189686e+03,1.974397e+03
3.190650e+03,2.014061e+03
3.191614e+03,2.055643e+03
3.192579e+03,2.021952e+03
3.193543e+03,1.950822e+03
3.194507e+03,1.971124e+03
3.195471e+03,2.008646e+03
3.196436e+03,2.033328e+03
3.197400e+03,2.050597e+03
3.198364e+03,2.059529e+03
3.199328e+03,2.064316e+03
3.200292e+03,2.048306e+03
3.201257e+03,0.000000e+00
3.202221e+03,0.000000e+00
3.203185e+03,0.000000e+00
3.204149e+03,0.000000e+00
3.205114e+03,0.000000e+00
3.206078e+03,0.000000e+00
3.207042e+03,0.000000e+00
3.208006e+03,0.000000e+00
3.208970e+03,0.000000e+00
3.209935e+03,0.000000e+00
3.210899e+03,0.000000e+00
3.211863e+03,0.000000e+00
3.212827e+03,0.000000e+00
3.213792e+03,0.000000e+00
3.214756e+03,0.000000e+00
3.215720e+03,0.000000e+00
3.216684e+03,0.000000e+00
3.217649e+03,0.000000e+00
3.218613e+03,0.000000e+00
3.219577e+03,0.000000e+00
3.220541e+03,0.000000e+00
3.221506e+03,0.000000e+00
3.222470e+03,0.000000e+00
3.223434e+03,0.000000e+00
3.224398e+03,0.000000e+00
3.225363e+03,0.000000e+00
3.226327e+03,0.000000e+00
3.227291e+03,0.000000e+00
3.228255e+03,0.000000e+00
3.229219e+03,0.000000e+00
3.230184e+03,0.000000e+00
3.231148e+03,0.000000e+00
3.232112e+03,0.000000e+00
3.233076e+03,0.000000e+00
3.234041e+03,0.000000e+00
3.235005e+03,0.000000e+00
3.235969e+03,0.000000e+00
3.236933e+03,0.000000e+00
3.237897e+03,0.000000e+00
3.238862e+03,0.000000e+00
3.239826e+03,0.000000e+00
3.240790e+03,0.000000e+00
3.241754e+03,0.000000e+00
3.242719e+03,0.000000e+00
3.243683e+03,0.000000e+00
3.244647e+03,0.000000e+00
3.245611e+03,0.000000e+00
3.246576e+03,0.000000e+00
3.247540e+03,0.000000e+00
3.248504e+03,0.000000e+00
3.249468e+03,0.000000e+00
3.250433e+03,0.000000e+00
3.251397e+03,0.000000e+00
3.252361e+03,0.000000e+00
3.253325e+03,0.000000e+00
3.254290e+03,0.000000e+00
3.255254e+03,0.000000e+00
3.256218e+03,0.000000e+00
3.257182e+03,0.000000e+00
3.258146e+03,0.000000e+00
3.259111e+03,0.000000e+00
3.260075e+03,0.000000e+00
3.261039e+03,0.000000e+00
3.262003e+03,0.000000e+00
3.262968e+03,0.000000e+00
3.263932e+03,0.000000e+00
3.264896e+03,0.000000e+00
3.265860e+03,0.000000e+00
3.266824e+03,0.000000e+00
3.267789e+03,0.000000e+00
3.268753e+03,0.000000e+00
3.269717e+03,0.000000e+00
3.270681e+03,0.000000e+00
3.271646e+03,0.000000e+00
3.272610e+03,0.000000e+00
3.273574e+03,0.000000e+00
3.274538e+03,0.000000e+00
3.275503e+03,0.000000e+00
3.276467e+03,0.000000e+00
3.277431e+03,0.000000e+00
3.278395e+03,0.000000e+00
3.279360e+03,0.000000e+00
3.280324e+03,0.000000e+00
3.281288e+03,0.000000e+00
3.282252e+03,0.000000e+00
3.283217e+03,0.000000e+00
3.284181e+03,0.000000e+00
3.285145e+03,0.000000e+00
3.286109e+03,0.000000e+00
3.287073e+03,0.000000e+00
3.288038e+03,0.000000e+00
3.289002e+03,0.000000e+00
3.289966e+03,0.000000e+00
3.290930e+03,0.000000e+00
3.291895e+03,0.000000e+00
3.292859e+03,0.000000e+00
3.293823e+03,0.000000e+00
3.294787e+03,0.000000e+00
3.295751e+03,0.000000e+00
3.296716e+03,0.000000e+00
3.297680e+03,0.000000e+00
3.298644e+03,0.000000e+00
3.299608e+03,0.000000e+00
3.300573e+03,0.000000e+00
3.301537e+03,0.000000e+00
3.302501e+03,0.000000e+00
3.303465e+03,0.000000e+00
3.304430e+03,0.000000e+00
3.305394e+03,0.000000e+00
3.306358e+03,0.000000e+00
3.307322e+03,0.000000e+00
3.308287e+03,0.000000e+00
3.309251e+03,0.000000e+00
3.310215e+03,0.000000e+00
3.311179e+03,0.000000e+00
3.312144e+03,0.000000e+00
3.313108e+03,0.000000e+00
3.314072e+03,0.000000e+00
3.315036e+03,0.000000e+00
3.316000e+03,0.000000e+00
3.316965e+03,0.000000e+00
3.317929e+03,0.000000e+00
3.318893e+03,0.000000e+00
3.319857e+03,0.000000e+00
3.320822e+03,0.000000e+00
3.321786e+03,0.000000e+00
3.322750e+03,0.000000e+00
3.323714e+03,0.000000e+00
3.324678e+03,0.000000e+00
3.325643e+03,0.000000e+00
3.326607e+03,0.000000e+00
3.327571e+03,0.000000e+00
3.328535e+03,0.000000e+00
3.329500e+03,0.000000e+00
3.330464e+03,0.000000e+00
3.331428e+03,0.000000e+00
3.332392e+03,0.000000e+00
3.333357e+03,0.000000e+00
3.334321e+03,0.000000e+00
3.335285e+03,0.000000e+00
3.336249e+03,0.000000e+00
3.337214e+03,0.000000e+00
3.338178e+03,0.000000e+00
3.339142e+03,0.000000e+00
3.340106e+03,0.000000e+00
3.341071e+03,0.000000e+00
3.342035e+03,0.000000e+00
3.342999e+03,0.000000e+00
3.343963e+03,0.000000e+00
3.344927e+03,0.000000e+00
3.345892e+03,0.000000e+00
3.346856e+03,0.000000e+00
3.347820e+03,0.000000e+00
3.348784e+03,0.000000e+00
3.349749e+03,0.000000e+00
3.350713e+03,0.000000e+00
3.351677e+03,0.000000e+00
3.352641e+03,0.000000e+00
3.353605e+03,0.000000e+00
3.354570e+03,0.000000e+00
3.355534e+03,0.000000e+00
3.356498e+03,0.000000e+00
3.357462e+03,0.000000e+00
3.358427e+03,0.000000e+00
3.359391e+03,0.000000e+00
3.360355e+03,0.000000e+00
3.361319e+03,0.000000e+00
3.362284e+03,0.000000e+00
3.363248e+03,0.000000e+00
3.364212e+03,0.000000e+00
3.365176e+03,0.000000e+00
3.366141e+03,0.000000e+00
3.367105e+03,0.000000e+00
3.368069e+03,0.000000e+00
3.369033e+03,0.000000e+00
3.369998e+03,0.000000e+00
3.370962e+03,0.000000e+00
3.371926e+03,0.000000e+00
3.372890e+03,0.000000e+00
3.373854e+03,0.000000e+00
3.374819e+03,0.000000e+00
3.375783e+03,0.000000e+00
3.376747e+03,0.000000e+00
3.377711e+03,0.000000e+00
3.378676e+03,0.000000e+00
3.379640e+03,0.000000e+00
3.380604e+03,0.000000e+00
3.381568e+03,0.000000e+00
3.382532e+03,0.000000e+00
3.383497e+03,0.000000e+00
3.384461e+03,0.000000e+00
3.385425e+03,0.000000e+00
3.386389e+03,0.000000e+00
3.387354e+03,0.000000e+00
3.388318e+03,0.000000e+00
3.389282e+03,0.000000e+00
3.390246e+03,0.000000e+00
3.391211e+03,0.000000e+00
3.392175e+03,0.000000e+00
3.393139e+03,0.000000e+00
3.394103e+03,0.000000e+00
3.395068e+03,0.000000e+00
3.396032e+03,0.000000e+00
3.396996e+03,0.000000e+00
3.397960e+03,0.000000e+00
3.398925e+03,0.000000e+00
3.399889e+03,0.000000e+00
3.400853e+03,0.000000e+00
3.401817e+03,0.000000e+00
3.402781e+03,0.000000e+00
3.403746e+03,0.000000e+00
3.404710e+03,0.000000e+00
3.405674e+03,0.000000e+00
3.406638e+03,0.000000e+00
3.407603e+03,0.000000e+00
3.408567e+03,0.000000e+00
3.409531e+03,0.000000e+00
3.410495e+03,0.000000e+00
3.411459e+03,0.000000e+00
3.412424e+03,0.000000e+00
3.413388e+03,0.000000e+00
3.414352e+03,0.000000e+00
3.415316e+03,0.000000e+00
3.416281e+03,0.000000e+00
3.417245e+03,0.000000e+00
3.418209e+03,0.000000e+00
3.419173e+03,0.000000e+00
3.420138e+03,0.000000e+00
3.421102e+03,0.000000e+00
3.422066e+03,0.000000e+00
3.423030e+03,0.000000e+00
3.423995e+03,0.000000e+00
3.424959e+03,0.000000e+00
3.425923e+03,0.000000e+00
3.426887e+03,0.000000e+00
3.427852e+03,0.000000e+00
3.428816e+03,0.000000e+00
3.429780e+03,0.000000e+00
3.430744e+03,0.000000e+00
3.431708e+03,0.000000e+00
3.432673e+03,0.000000e+00
3.433637e+03,0.000000e+00
3.434601e+03,0.000000e+00
3.435565e+03,0.000000e+00
3.436530e+03,0.000000e+00
3.437494e+03,0.000000e+00
3.438458e+03,0.000000e+00
3.439422e+03,0.000000e+00
3.440386e+03,0.000000e+00
3.441351e+03,0.000000e+00
3.442315e+03,0.000000e+00
3.443279e+03,0.000000e+00
3.444243e+03,0.000000e+00
3.445208e+03,0.000000e+00
3.446172e+03,0.000000e+00
3.447136e+03,0.000000e+00
3.448100e+03,0.000000e+00
3.449065e+03,0.000000e+00
3.450029e+03,0.000000e+00
3.450993e+03,0.000000e+00
3.451957e+03,0.000000e+00
3.452922e+03,0.000000e+00
3.453886e+03,0.000000e+00
3.454850e+03,0.000000e+00
3.455814e+03,0.000000e+00
3.456779e+03,0.000000e+00
3.457743e+03,0.000000e+00
3.458707e+03,0.000000e+00
3.459671e+03,0.000000e+00
3.460635e+03,0.000000e+00
3.461600e+03,0.000000e+00
3.462564e+03,0.000000e+00
3.463528e+03,0.000000e+00
3.464492e+03,0.000000e+00
3.465457e+03,0.000000e+00
3.466421e+03,0.000000e+00
3.467385e+03,0.000000e+00
3.468349e+03,0.000000e+00
3.469313e+03,0.000000e+00
3.470278e+03,0.000000e+00
3.471242e+03,0.000000e+00
3.472206e+03,0.000000e+00
3.473170e+03,0.000000e+00
3.474135e+03,0.000000e+00
3.475099e+03,0.000000e+00
3.476063e+03,0.000000e+00
3.477027e+03,0.000000e+00
3.477992e+03,0.000000e+00
3.478956e+03,0.000000e+00
3.479920e+03,0.000000e+00
3.480884e+03,0.000000e+00
3.481849e+03,0.000000e+00
3.482813e+03,0.000000e+00
3.483777e+03,0.000000e+00
3.484741e+03,0.000000e+00
3.485706e+03,0.000000e+00
3.486670e+03,0.000000e+00
3.487634e+03,0.000000e+00
3.488598e+03,0.000000e+00
3.489563e+03,0.000000e+00
3.490527e+03,0.000000e+00
3.491491e+03,0.000000e+00
3.492455e+03,0.000000e+00
3.493419e+03,0.000000e+00
3.494384e+03,0.000000e+00
3.495348e+03,0.000000e+00
3.496312e+03,0.000000e+00
3.497276e+03,0.000000e+00
3.498240e+03,0.000000e+00
3.499205e+03,0.000000e+00
3.500169e+03,0.000000e+00
