9.931763e+01,0.000000e+00
1.002819e+02,0.000000e+00
1.012461e+02,0.000000e+00
1.022103e+02,0.000000e+00
1.031746e+02,0.000000e+00
1.041388e+02,0.000000e+00
1.051030e+02,0.000000e+00
1.060673e+02,0.000000e+00
1.070315e+02,0.000000e+00
1.079957e+02,0.000000e+00
1.089600e+02,0.000000e+00
1.099242e+02,0.000000e+00
1.108884e+02,0.000000e+00
1.118527e+02,0.000000e+00
1.128169e+02,0.000000e+00
1.137811e+02,0.000000e+00
1.147454e+02,0.000000e+00
1.157096e+02,0.000000e+00
1.166738e+02,0.000000e+00
1.176381e+02,0.000000e+00
1.186023e+02,0.000000e+00
1.195665e+02,0.000000e+00
1.205308e+02,0.000000e+00
1.214950e+02,0.000000e+00
1.224592e+02,0.000000e+00
1.234235e+02,0.000000e+00
1.243877e+02,0.000000e+00
1.253519e+02,0.000000e+00
1.263162e+02,0.000000e+00
1.272804e+02,0.000000e+00
1.282446e+02,0.000000e+00
1.292089e+02,0.000000e+00
1.301731e+02,0.000000e+00
1.311373e+02,0.000000e+00
1.321016e+02,0.000000e+00
1.330658e+02,0.000000e+00
1.340300e+02,0.000000e+00
1.349943e+02,0.000000e+00
1.359585e+02,0.000000e+00
1.369227e+02,0.000000e+00
1.378870e+02,0.000000e+00
1.388512e+02,0.000000e+00
1.398154e+02,0.000000e+00
1.407797e+02,0.000000e+00
1.417439e+02,0.000000e+00
1.427081e+02,0.000000e+00
1.436724e+02,0.000000e+00
1.446366e+02,0.000000e+00
1.456008e+02,0.000000e+00
1.465651e+02,0.000000e+00
1.475293e+02,0.000000e+00
1.484935e+02,0.000000e+00
1.494578e+02,0.000000e+00
1.504220e+02,0.000000e+00
1.513862e+02,0.000000e+00
1.523505e+02,0.000000e+00
1.533147e+02,0.000000e+00
1.542789e+02,0.000000e+00
1.552432e+02,0.000000e+00
1.562074e+02,0.000000e+00
1.571716e+02,0.000000e+00
1.581359e+02,0.000000e+00
1.591001e+02,0.000000e+00
1.600643e+02,0.000000e+00
1.610286e+02,0.000000e+00
1.619928e+02,0.000000e+00
1.629570e+02,0.000000e+00
1.639213e+02,0.000000e+00
1.648855e+02,0.000000e+00
1.658497e+02,0.000000e+00
1.668140e+02,0.000000e+00
1.677782e+02,0.000000e+00
1.687424e+02,0.000000e+00
1.697067e+02,0.000000e+00
1.706709e+02,0.000000e+00
1.716351e+02,0.000000e+00
1.725994e+02,0.000000e+00
1.735636e+02,0.000000e+00
1.745278e+02,0.000000e+00
1.754921e+02,0.000000e+00
1.764563e+02,0.000000e+00
1.774205e+02,0.000000e+00
1.783848e+02,0.000000e+00
1.793490e+02,0.000000e+00
1.803132e+02,0.000000e+00
1.812775e+02,0.000000e+00
1.822417e+02,0.000000e+00
1.832059e+02,0.000000e+00
1.841702e+02,0.000000e+00
1.851344e+02,0.000000e+00
1.860986e+02,0.000000e+00
1.870629e+02,0.000000e+00
1.880271e+02,0.000000e+00
1.889913e+02,0.000000e+00
1.899556e+02,0.000000e+00
1.909198e+02,0.000000e+00
1.918840e+02,0.000000e+00
1.928483e+02,0.000000e+00
1.938125e+02,0.000000e+00
1.947767e+02,0.000000e+00
1.957410e+02,0.000000e+00
1.967052e+02,0.000000e+00
1.976694e+02,0.000000e+00
1.986337e+02,0.000000e+00
1.995979e+02,9.819218e+03
2.005621e+02,9.821146e+03
2.015264e+02,9.823378e+03
2.024906e+02,9.823315e+03
2.034548e+02,9.825636e+03
2.044191e+02,9.830412e+03
2.053833e+02,9.835563e+03
2.063475e+02,9.838939e+03
2.073118e+02,9.839402e+03
2.082760e+02,9.836896e+03
2.092402e+02,9.831558e+03
2.102045e+02,9.824396e+03
2.111687e+02,9.820625e+03
2.121329e+02,9.823767e+03
2.130972e+02,9.834830e+03
2.140614e+02,9.847865e+03
2.150256e+02,9.850963e+03
2.159899e+02,9.837513e+03
2.169541e+02,9.825779e+03
2.179183e+02,9.823671e+03
2.188826e+02,9.829340e+03
2.198468e+02,9.839315e+03
2.208110e+02,9.855331e+03
2.217753e+02,9.875665e+03
2.227395e+02,9.882794e+03
2.237037e+02,9.868717e+03
2.246680e+02,9.849047e+03
2.256322e+02,9.836525e+03
2.265964e+02,9.839752e+03
2.275607e+02,9.849613e+03
2.285249e+02,9.854094e+03
2.294892e+02,9.851768e+03
2.304534e+02,9.852432e+03
2.314176e+02,9.860204e+03
2.323819e+02,9.871699e+03
2.333461e+02,9.880569e+03
2.343103e+02,9.884587e+03
2.352746e+02,9.887221e+03
2.362388e+02,9.893951e+03
2.372030e+02,9.906123e+03
2.381673e+02,9.914233e+03
2.391315e+02,9.906766e+03
2.400957e+02,9.876696e+03
2.410600e+02,9.850892e+03
2.420242e+02,9.844412e+03
2.429884e+02,9.855911e+03
2.439527e+02,9.873888e+03
2.449169e+02,9.888859e+03
2.458811e+02,9.898613e+03
2.468454e+02,9.904120e+03
2.478096e+02,9.901335e+03
2.487738e+02,9.897506e+03
2.497381e+02,9.898468e+03
2.507023e+02,9.905292e+03
2.516665e+02,9.914051e+03
2.526308e+02,9.917517e+03
2.535950e+02,9.901947e+03
2.545592e+02,9.889034e+03
2.555235e+02,9.883906e+03
2.564877e+02,9.883416e+03
2.574519e+02,9.884884e+03
2.584161e+02,9.888537e+03
2.593804e+02,9.895455e+03
2.603446e+02,9.901513e+03
2.613088e+02,9.894536e+03
2.622731e+02,9.891782e+03
2.632373e+02,9.900935e+03
2.642015e+02,9.918389e+03
2.651658e+02,9.934263e+03
2.661300e+02,9.941542e+03
2.670942e+02,9.942100e+03
2.680585e+02,9.942276e+03
2.690227e+02,9.944359e+03
2.699869e+02,9.944982e+03
2.709512e+02,9.940470e+03
2.719154e+02,9.931531e+03
2.728796e+02,9.921704e+03
2.738439e+02,9.914215e+03
2.748081e+02,9.910626e+03
2.757723e+02,9.915295e+03
2.767366e+02,9.927182e+03
2.777008e+02,9.940127e+03
2.786650e+02,9.947322e+03
2.796293e+02,9.945792e+03
2.805935e+02,9.941572e+03
2.815577e+02,9.943295e+03
2.825220e+02,9.952968e+03
2.834862e+02,9.964168e+03
2.844504e+02,9.967042e+03
2.854147e+02,9.961294e+03
2.863789e+02,9.954339e+03
2.873431e+02,9.950479e+03
2.883074e+02,9.950402e+03
2.892716e+02,9.951941e+03
2.902358e+02,9.951974e+03
2.912001e+02,9.949209e+03
2.921643e+02,9.945313e+03
2.931285e+02,9.939579e+03
2.940928e+02,9.937470e+03
2.950570e+02,9.941004e+03
2.960212e+02,9.948072e+03
2.969855e+02,9.954893e+03
2.979497e+02,9.959741e+03
2.989139e+02,9.965482e+03
2.998782e+02,9.967759e+03
3.008424e+02,9.970704e+03
3.018066e+02,9.974328e+03
3.027709e+02,9.974716e+03
3.037351e+02,9.968263e+03
3.046993e+02,9.957403e+03
3.056636e+02,9.949552e+03
3.066278e+02,9.948612e+03
3.075920e+02,9.946447e+03
3.085563e+02,9.937392e+03
3.095205e+02,9.926200e+03
3.104847e+02,9.919179e+03
3.114490e+02,9.915636e+03
3.124132e+02,9.914337e+03
3.133774e+02,9.916989e+03
3.143417e+02,9.925302e+03
3.153059e+02,9.931095e+03
3.162701e+02,9.926546e+03
3.172344e+02,9.911421e+03
3.181986e+02,9.898026e+03
3.191628e+02,9.889957e+03
3.201271e+02,9.886910e+03
3.210913e+02,9.888265e+03
3.220555e+02,9.893838e+03
3.230198e+02,9.901869e+03
3.239840e+02,9.905047e+03
3.249482e+02,9.900472e+03
3.259125e+02,9.893162e+03
3.268767e+02,9.882675e+03
3.278409e+02,9.870766e+03
3.288052e+02,9.860830e+03
3.297694e+02,9.856463e+03
3.307336e+02,9.858981e+03
3.316979e+02,9.858568e+03
3.326621e+02,9.853269e+03
3.336263e+02,9.844095e+03
3.345906e+02,9.831593e+03
3.355548e+02,9.818579e+03
3.365190e+02,9.809288e+03
3.374833e+02,9.807917e+03
3.384475e+02,9.814601e+03
3.394117e+02,9.819965e+03
3.403760e+02,9.814842e+03
3.413402e+02,9.804199e+03
3.423044e+02,9.798281e+03
3.432687e+02,9.799396e+03
3.442329e+02,9.804462e+03
3.451971e+02,9.811643e+03
3.461614e+02,9.818293e+03
3.471256e+02,9.816957e+03
3.480898e+02,9.803892e+03
3.490541e+02,9.776969e+03
3.500183e+02,9.756255e+03
3.509825e+02,9.744692e+03
3.519468e+02,9.742159e+03
3.529110e+02,9.749342e+03
3.538752e+02,9.764194e+03
3.548395e+02,9.779163e+03
3.558037e+02,9.783274e+03
3.567680e+02,9.768943e+03
3.577322e+02,9.756413e+03
3.586964e+02,9.750408e+03
3.596607e+02,9.750640e+03
3.606249e+02,9.754765e+03
3.615891e+02,9.760843e+03
3.625534e+02,9.762316e+03
3.635176e+02,9.749021e+03
3.644818e+02,9.718585e+03
3.654461e+02,9.688510e+03
3.664103e+02,9.672892e+03
3.673745e+02,9.673911e+03
3.683388e+02,9.683106e+03
3.693030e+02,9.699679e+03
3.702672e+02,9.715580e+03
3.712315e+02,9.719421e+03
3.721957e+02,9.706978e+03
3.731599e+02,9.685698e+03
3.741242e+02,9.670327e+03
3.750884e+02,9.673455e+03
3.760526e+02,9.676951e+03
3.770169e+02,9.677248e+03
3.779811e+02,9.675623e+03
3.789453e+02,9.673615e+03
3.799096e+02,9.671471e+03
3.808738e+02,9.667797e+03
3.818380e+02,9.660184e+03
3.828023e+02,9.651419e+03
3.837665e+02,9.643573e+03
3.847307e+02,9.633859e+03
3.856950e+02,9.623718e+03
3.866592e+02,9.616326e+03
3.876234e+02,9.613081e+03
3.885877e+02,9.613126e+03
3.895519e+02,9.615798e+03
3.905161e+02,9.622167e+03
3.914804e+02,9.625739e+03
3.924446e+02,9.619272e+03
3.934088e+02,9.603196e+03
3.943731e+02,9.588080e+03
3.953373e+02,9.576450e+03
3.963015e+02,9.566685e+03
3.972658e+02,9.556704e+03
3.982300e+02,9.546909e+03
3.991942e+02,9.540400e+03
4.001585e+02,9.537928e+03
4.011227e+02,9.534026e+03
4.020869e+02,9.533782e+03
4.030512e+02,9.537053e+03
4.040154e+02,9.540579e+03
4.049796e+02,9.542560e+03
4.059439e+02,9.540643e+03
4.069081e+02,9.536154e+03
4.078723e+02,9.535890e+03
4.088366e+02,9.541212e+03
4.098008e+02,9.541061e+03
4.107650e+02,9.531090e+03
4.117293e+02,9.513288e+03
4.126935e+02,9.498063e+03
4.136577e+02,9.489612e+03
4.146220e+02,9.485318e+03
4.155862e+02,9.482127e+03
4.165504e+02,9.479814e+03
4.175147e+02,9.478260e+03
4.184789e+02,9.476787e+03
4.194431e+02,9.478002e+03
4.204074e+02,9.475037e+03
4.213716e+02,9.462435e+03
4.223358e+02,9.447310e+03
4.233001e+02,9.438279e+03
4.242643e+02,9.441035e+03
4.252285e+02,9.450331e+03
4.261928e+02,9.451774e+03
4.271570e+02,9.442314e+03
4.281212e+02,9.434028e+03
4.290855e+02,9.430376e+03
4.300497e+02,9.429465e+03
4.310139e+02,9.429197e+03
4.319782e+02,9.432733e+03
4.329424e+02,9.437222e+03
4.339066e+02,9.436220e+03
4.348709e+02,9.428009e+03
4.358351e+02,9.419304e+03
4.367993e+02,9.418251e+03
4.377636e+02,9.432974e+03
4.387278e+02,9.434955e+03
4.396920e+02,9.415610e+03
4.406563e+02,9.392223e+03
4.416205e+02,9.375144e+03
4.425847e+02,9.366596e+03
4.435490e+02,9.362866e+03
4.445132e+02,9.360740e+03
4.454774e+02,9.361915e+03
4.464417e+02,9.363607e+03
4.474059e+02,9.363113e+03
4.483701e+02,9.360438e+03
4.493344e+02,9.357615e+03
4.502986e+02,9.360303e+03
4.512628e+02,9.361490e+03
4.522271e+02,9.352850e+03
4.531913e+02,9.336691e+03
4.541555e+02,9.323662e+03
4.551198e+02,9.320543e+03
4.560840e+02,9.327844e+03
4.570482e+02,9.327656e+03
4.580125e+02,9.317877e+03
4.589767e+02,9.310935e+03
4.599409e+02,9.308450e+03
4.609052e+02,9.307558e+03
4.618694e+02,9.305223e+03
4.628336e+02,9.301097e+03
4.637979e+02,9.295700e+03
4.647621e+02,9.288077e+03
4.657263e+02,9.280576e+03
4.666906e+02,9.274167e+03
4.676548e+02,9.263754e+03
4.686190e+02,9.243796e+03
4.695833e+02,9.232097e+03
4.705475e+02,9.241296e+03
4.715117e+02,9.259096e+03
4.724760e+02,9.268896e+03
4.734402e+02,9.265677e+03
4.744044e+02,9.253706e+03
4.753687e+02,9.241024e+03
4.763329e+02,9.223371e+03
4.772971e+02,9.212490e+03
4.782614e+02,9.213938e+03
4.792256e+02,9.222034e+03
4.801898e+02,9.228987e+03
4.811541e+02,9.230123e+03
4.821183e+02,9.227395e+03
4.830826e+02,9.223854e+03
4.840468e+02,9.218792e+03
4.850110e+02,9.210823e+03
4.859753e+02,9.199663e+03
4.869395e+02,9.184471e+03
4.879037e+02,9.171560e+03
4.888680e+02,9.161597e+03
4.898322e+02,9.155119e+03
4.907964e+02,9.154421e+03
4.917607e+02,9.159119e+03
4.927249e+02,9.165349e+03
4.936891e+02,9.169218e+03
4.946534e+02,9.170309e+03
4.956176e+02,9.171000e+03
4.965818e+02,9.172814e+03
4.975461e+02,9.173645e+03
4.985103e+02,9.170582e+03
4.994745e+02,9.161020e+03
5.004388e+02,9.149022e+03
5.014030e+02,9.137274e+03
5.023672e+02,9.127154e+03
5.033315e+02,9.119707e+03
5.042957e+02,9.114884e+03
5.052599e+02,9.110406e+03
5.062242e+02,9.103956e+03
5.071884e+02,9.096751e+03
5.081526e+02,9.089428e+03
5.091169e+02,9.081202e+03
5.100811e+02,9.075671e+03
5.110453e+02,9.075631e+03
5.120095e+02,9.086588e+03
5.129738e+02,9.100817e+03
5.139380e+02,9.107051e+03
5.149022e+02,9.105733e+03
5.158665e+02,9.105423e+03
5.168307e+02,9.109127e+03
5.177949e+02,9.112004e+03
5.187592e+02,9.102306e+03
5.197234e+02,9.078400e+03
5.206876e+02,9.058962e+03
5.216519e+02,9.053418e+03
5.226161e+02,9.059860e+03
5.235803e+02,9.069207e+03
5.245446e+02,9.076490e+03
5.255088e+02,9.081066e+03
5.264730e+02,9.077150e+03
5.274373e+02,9.059214e+03
5.284015e+02,9.041746e+03
5.293657e+02,9.039453e+03
5.303300e+02,9.055513e+03
5.312942e+02,9.060874e+03
5.322584e+02,9.046918e+03
5.332227e+02,9.027950e+03
5.341869e+02,9.014483e+03
5.351511e+02,9.007124e+03
5.361154e+02,9.001863e+03
5.370796e+02,8.995062e+03
5.380438e+02,8.987290e+03
5.390081e+02,8.981073e+03
5.399723e+02,8.978280e+03
5.409365e+02,8.978012e+03
5.419008e+02,8.976634e+03
5.428650e+02,8.969399e+03
5.438292e+02,8.963085e+03
5.447935e+02,8.963743e+03
5.457577e+02,8.968409e+03
5.467219e+02,8.971409e+03
5.476862e+02,8.970875e+03
5.486504e+02,8.966642e+03
5.496146e+02,8.958973e+03
5.505789e+02,8.947803e+03
5.515431e+02,8.932038e+03
5.525073e+02,8.907554e+03
5.534716e+02,8.885377e+03
5.544358e+02,8.877087e+03
5.554000e+02,8.890865e+03
5.563643e+02,8.912033e+03
5.573285e+02,8.929376e+03
5.582927e+02,8.941542e+03
5.592570e+02,8.945560e+03
5.602212e+02,8.939096e+03
5.611854e+02,8.921565e+03
5.621497e+02,8.910826e+03
5.631139e+02,8.916745e+03
5.640781e+02,8.915874e+03
5.650424e+02,8.899213e+03
5.660066e+02,8.871877e+03
5.669708e+02,8.849729e+03
5.679351e+02,8.847577e+03
5.688993e+02,8.856603e+03
5.698635e+02,8.860166e+03
5.708278e+02,8.857696e+03
5.717920e+02,8.855292e+03
5.727562e+02,8.856416e+03
5.737205e+02,8.860312e+03
5.746847e+02,8.862640e+03
5.756489e+02,8.864220e+03
5.766132e+02,8.861563e+03
5.775774e+02,8.852354e+03
5.785416e+02,8.836997e+03
5.795059e+02,8.820732e+03
5.804701e+02,8.806046e+03
5.814343e+02,8.793509e+03
5.823986e+02,8.785618e+03
5.833628e+02,8.783881e+03
5.843270e+02,8.785981e+03
5.852913e+02,8.788177e+03
5.862555e+02,8.791413e+03
5.872197e+02,8.793291e+03
5.881840e+02,8.790121e+03
5.891482e+02,8.785986e+03
5.901124e+02,8.785364e+03
5.910767e+02,8.790116e+03
5.920409e+02,8.794813e+03
5.930051e+02,8.791184e+03
5.939694e+02,8.780382e+03
5.949336e+02,8.774077e+03
5.958978e+02,8.777894e+03
5.968621e+02,8.785784e+03
5.978263e+02,8.784374e+03
5.987905e+02,8.765468e+03
5.997548e+02,8.749260e+03
6.007190e+02,8.738248e+03
6.016832e+02,8.732130e+03
6.026475e+02,8.728727e+03
6.036117e+02,8.725276e+03
6.045759e+02,8.722510e+03
6.055402e+02,8.721717e+03
6.065044e+02,8.721541e+03
6.074686e+02,8.720827e+03
6.084329e+02,8.721497e+03
6.093971e+02,8.723342e+03
6.103613e+02,8.721056e+03
6.113256e+02,8.711114e+03
6.122899e+02,8.701561e+03
6.132541e+02,8.694674e+03
6.142183e+02,8.688659e+03
6.151826e+02,8.680946e+03
6.161468e+02,8.669254e+03
6.171110e+02,8.659748e+03
6.180753e+02,8.659552e+03
6.190395e+02,8.667072e+03
6.200037e+02,8.674747e+03
6.209680e+02,8.677708e+03
6.219322e+02,8.677384e+03
6.228964e+02,8.678551e+03
6.238607e+02,8.677735e+03
6.248249e+02,8.680907e+03
6.257891e+02,8.693832e+03
6.267534e+02,8.709267e+03
6.277176e+02,8.712033e+03
6.286818e+02,8.692147e+03
6.296461e+02,8.663386e+03
6.306103e+02,8.635025e+03
6.315745e+02,8.609267e+03
6.325388e+02,8.594647e+03
6.335030e+02,8.599272e+03
6.344672e+02,8.622782e+03
6.354315e+02,8.634481e+03
6.363957e+02,8.624271e+03
6.373599e+02,8.609008e+03
6.383242e+02,8.597832e+03
6.392884e+02,8.591703e+03
6.402526e+02,8.589351e+03
6.412169e+02,8.593011e+03
6.421811e+02,8.598039e+03
6.431453e+02,8.602707e+03
6.441096e+02,8.605651e+03
6.450738e+02,8.602310e+03
6.460380e+02,8.585458e+03
6.470023e+02,8.556358e+03
6.479665e+02,8.541776e+03
6.489307e+02,8.543439e+03
6.498950e+02,8.552535e+03
6.508592e+02,8.564831e+03
6.518234e+02,8.580487e+03
6.527877e+02,8.586832e+03
6.537519e+02,8.574462e+03
6.547161e+02,8.558624e+03
6.556804e+02,8.552362e+03
6.566446e+02,8.556531e+03
6.576088e+02,8.560868e+03
6.585731e+02,8.554956e+03
6.595373e+02,8.540302e+03
6.605015e+02,8.524592e+03
6.614658e+02,8.506818e+03
6.624300e+02,8.493296e+03
6.633942e+02,8.491265e+03
6.643585e+02,8.507354e+03
6.653227e+02,8.516722e+03
6.662869e+02,8.509104e+03
6.672512e+02,8.500157e+03
6.682154e+02,8.502900e+03
6.691796e+02,8.517547e+03
6.701439e+02,8.527271e+03
6.711081e+02,8.516928e+03
6.720723e+02,8.494118e+03
6.730366e+02,8.474388e+03
6.740008e+02,8.461218e+03
6.749650e+02,8.452241e+03
6.759293e+02,8.445578e+03
6.768935e+02,8.444647e+03
6.778577e+02,8.439526e+03
6.788220e+02,8.425747e+03
6.797862e+02,8.416029e+03
6.807504e+02,8.416725e+03
6.817147e+02,8.427701e+03
6.826789e+02,8.437468e+03
6.836431e+02,8.439289e+03
6.846074e+02,8.435580e+03
6.855716e+02,8.432191e+03
6.865358e+02,8.431490e+03
6.875001e+02,8.429485e+03
6.884643e+02,8.417678e+03
6.894285e+02,8.396575e+03
6.903928e+02,8.386284e+03
6.913570e+02,8.392545e+03
6.923212e+02,8.402135e+03
6.932855e+02,8.401333e+03
6.942497e+02,8.384635e+03
6.952139e+02,8.376020e+03
6.961782e+02,8.379061e+03
6.971424e+02,8.386015e+03
6.981066e+02,8.389453e+03
6.990709e+02,8.384879e+03
7.000351e+02,8.377005e+03
7.009993e+02,8.375553e+03
7.019636e+02,8.379145e+03
7.029278e+02,8.379594e+03
7.038920e+02,8.374720e+03
7.048563e+02,8.365255e+03
7.058205e+02,8.353152e+03
7.067847e+02,8.339349e+03
7.077490e+02,8.331848e+03
7.087132e+02,8.340182e+03
7.096774e+02,8.354569e+03
7.106417e+02,8.360731e+03
7.116059e+02,8.355843e+03
7.125701e+02,8.346559e+03
7.135344e+02,8.329621e+03
7.144986e+02,8.315007e+03
7.154628e+02,8.312108e+03
7.164271e+02,8.320942e+03
7.173913e+02,8.331449e+03
7.183555e+02,8.335105e+03
7.193198e+02,8.332100e+03
7.202840e+02,8.323651e+03
7.212482e+02,8.309749e+03
7.222125e+02,8.296978e+03
7.231767e+02,8.291232e+03
7.241409e+02,8.293263e+03
7.251052e+02,8.293391e+03
7.260694e+02,8.291538e+03
7.270336e+02,8.287009e+03
7.279979e+02,8.279530e+03
7.289621e+02,8.268667e+03
7.299263e+02,8.261270e+03
7.308906e+02,8.261942e+03
7.318548e+02,8.265020e+03
7.328190e+02,8.267538e+03
7.337833e+02,8.268479e+03
7.347475e+02,8.264143e+03
7.357117e+02,8.248683e+03
7.366760e+02,8.225133e+03
7.376402e+02,8.211744e+03
7.386044e+02,8.211171e+03
7.395687e+02,8.216910e+03
7.405329e+02,8.223325e+03
7.414971e+02,8.231527e+03
7.424614e+02,8.233134e+03
7.434256e+02,8.227833e+03
7.443898e+02,8.225193e+03
7.453541e+02,8.226483e+03
7.463183e+02,8.227544e+03
7.472825e+02,8.225760e+03
7.482468e+02,8.219217e+03
7.492110e+02,8.211028e+03
7.501752e+02,8.209070e+03
7.511395e+02,8.215582e+03
7.521037e+02,8.223269e+03
7.530679e+02,8.222377e+03
7.540322e+02,8.212107e+03
7.549964e+02,8.201371e+03
7.559606e+02,8.191013e+03
7.569249e+02,8.184035e+03
7.578891e+02,8.182713e+03
7.588533e+02,8.188132e+03
7.598176e+02,8.196788e+03
7.607818e+02,8.211761e+03
7.617460e+02,8.213464e+03
7.627103e+02,8.191104e+03
7.636745e+02,8.154843e+03
7.646387e+02,8.127031e+03
7.656030e+02,8.117718e+03
7.665672e+02,8.118466e+03
7.675314e+02,8.122619e+03
7.684957e+02,8.123954e+03
7.694599e+02,8.117122e+03
7.704241e+02,8.100686e+03
7.713884e+02,8.082821e+03
7.723526e+02,8.081933e+03
7.733168e+02,8.101802e+03
7.742811e+02,8.122767e+03
7.752453e+02,8.131519e+03
7.762095e+02,8.127442e+03
7.771738e+02,8.122880e+03
7.781380e+02,8.113860e+03
7.791022e+02,8.102953e+03
7.800665e+02,8.093007e+03
7.810307e+02,8.084927e+03
7.819949e+02,8.079159e+03
7.829592e+02,8.080833e+03
7.839234e+02,8.085148e+03
7.848876e+02,8.089810e+03
7.858519e+02,8.092793e+03
7.868161e+02,8.091703e+03
7.877803e+02,8.085018e+03
7.887446e+02,8.075174e+03
7.897088e+02,8.066786e+03
7.906730e+02,8.062643e+03
7.916373e+02,8.063066e+03
7.926015e+02,8.064549e+03
7.935657e+02,8.062053e+03
7.945300e+02,8.055456e+03
7.954942e+02,8.047083e+03
7.964584e+02,8.037602e+03
7.974227e+02,8.036076e+03
7.983869e+02,8.040466e+03
7.993511e+02,8.038378e+03
8.003154e+02,8.017786e+03
8.012796e+02,7.998216e+03
8.022438e+02,7.985140e+03
8.032081e+02,7.979563e+03
8.041723e+02,7.984332e+03
8.051365e+02,7.999323e+03
8.061008e+02,8.010990e+03
8.070650e+02,8.002901e+03
8.080292e+02,7.983782e+03
8.089935e+02,7.972262e+03
8.099577e+02,7.973346e+03
8.109219e+02,7.980995e+03
8.118862e+02,7.990454e+03
8.128504e+02,8.001364e+03
8.138146e+02,8.003065e+03
8.147789e+02,7.992076e+03
8.157431e+02,7.975298e+03
8.167073e+02,7.958119e+03
8.176716e+02,7.942568e+03
8.186358e+02,7.940201e+03
8.196000e+02,7.966439e+03
8.205643e+02,7.990438e+03
8.215285e+02,7.994065e+03
8.224927e+02,7.978909e+03
8.234570e+02,7.964097e+03
8.244212e+02,7.952111e+03
8.253854e+02,7.944397e+03
8.263497e+02,7.942450e+03
8.273139e+02,7.942311e+03
8.282781e+02,7.939128e+03
8.292424e+02,7.933265e+03
8.302066e+02,7.927604e+03
8.311708e+02,7.922986e+03
8.321351e+02,7.919295e+03
8.330993e+02,7.915946e+03
8.340635e+02,7.910832e+03
8.350278e+02,7.904405e+03
8.359920e+02,7.900124e+03
8.369562e+02,7.898062e+03
8.379205e+02,7.899744e+03
8.388847e+02,7.907463e+03
8.398489e+02,7.918481e+03
8.408132e+02,7.924639e+03
8.417774e+02,7.926352e+03
8.427416e+02,7.919682e+03
8.437059e+02,7.896901e+03
8.446701e+02,7.869897e+03
8.456343e+02,7.851965e+03
8.465986e+02,7.847439e+03
8.475628e+02,7.844817e+03
8.485270e+02,7.840080e+03
8.494913e+02,7.835189e+03
8.504555e+02,7.834062e+03
8.514197e+02,7.838634e+03
8.523840e+02,7.843992e+03
8.533482e+02,7.844354e+03
8.543124e+02,7.840535e+03
8.552767e+02,7.834920e+03
8.562409e+02,7.827385e+03
8.572051e+02,7.818738e+03
8.581694e+02,7.811803e+03
8.591336e+02,7.807461e+03
8.600978e+02,7.802654e+03
8.610621e+02,7.798005e+03
8.620263e+02,7.796735e+03
8.629905e+02,7.800227e+03
8.639548e+02,7.806243e+03
8.649190e+02,7.803726e+03
8.658832e+02,7.788752e+03
8.668475e+02,7.778040e+03
8.678117e+02,7.780982e+03
8.687759e+02,7.794173e+03
8.697402e+02,7.805151e+03
8.707044e+02,7.810463e+03
8.716686e+02,7.808000e+03
8.726329e+02,7.799250e+03
8.735971e+02,7.787827e+03
8.745613e+02,7.776954e+03
8.755256e+02,7.771196e+03
8.764898e+02,7.767367e+03
8.774540e+02,7.760401e+03
8.784183e+02,7.751406e+03
8.793825e+02,7.742686e+03
8.803467e+02,7.734342e+03
8.813110e+02,7.729085e+03
8.822752e+02,7.735549e+03
8.832394e+02,7.751118e+03
8.842037e+02,7.759620e+03
8.851679e+02,7.754677e+03
8.861321e+02,7.743519e+03
8.870964e+02,7.737949e+03
8.880606e+02,7.737792e+03
8.890248e+02,7.735719e+03
8.899891e+02,7.735235e+03
8.909533e+02,7.732685e+03
8.919175e+02,7.721409e+03
8.928818e+02,7.697508e+03
8.938460e+02,7.681562e+03
8.948102e+02,7.671353e+03
8.957745e+02,7.667646e+03
8.967387e+02,7.677183e+03
8.977029e+02,7.697359e+03
8.986672e+02,7.704763e+03
8.996314e+02,7.690610e+03
9.005956e+02,7.678876e+03
9.015599e+02,7.681394e+03
9.025241e+02,7.691985e+03
9.034883e+02,7.696380e+03
9.044526e+02,7.683073e+03
9.054168e+02,7.664217e+03
9.063810e+02,7.652305e+03
9.073453e+02,7.648021e+03
9.083095e+02,7.644584e+03
9.092737e+02,7.634744e+03
9.102380e+02,7.625367e+03
9.112022e+02,7.627822e+03
9.121664e+02,7.637189e+03
9.131307e+02,7.642979e+03
9.140949e+02,7.644707e+03
9.150591e+02,7.647457e+03
9.160234e+02,7.655069e+03
9.169876e+02,7.662087e+03
9.179518e+02,7.654228e+03
9.189161e+02,7.628020e+03
9.198803e+02,7.597533e+03
9.208445e+02,7.580611e+03
9.218088e+02,7.581685e+03
9.227730e+02,7.580962e+03
9.237372e+02,7.576415e+03
9.247015e+02,7.568640e+03
9.256657e+02,7.555509e+03
9.266299e+02,7.535754e+03
9.275942e+02,7.531381e+03
9.285584e+02,7.555276e+03
9.295226e+02,7.575797e+03
9.304869e+02,7.582849e+03
9.314511e+02,7.579924e+03
9.324153e+02,7.574328e+03
9.333796e+02,7.562538e+03
9.343438e+02,7.552209e+03
9.353080e+02,7.542455e+03
9.362723e+02,7.532627e+03
9.372365e+02,7.525542e+03
9.382007e+02,7.529619e+03
9.391650e+02,7.534295e+03
9.401292e+02,7.534364e+03
9.410934e+02,7.531375e+03
9.420577e+02,7.524227e+03
9.430219e+02,7.511636e+03
9.439861e+02,7.499333e+03
9.449504e+02,7.494398e+03
9.459146e+02,7.497335e+03
9.468788e+02,7.506032e+03
9.478431e+02,7.515111e+03
9.488073e+02,7.516852e+03
9.497715e+02,7.506406e+03
9.507358e+02,7.489260e+03
9.517000e+02,7.475198e+03
9.526642e+02,7.466621e+03
9.536285e+02,7.461106e+03
9.545927e+02,7.455879e+03
9.555569e+02,7.450868e+03
9.565212e+02,7.446773e+03
9.574854e+02,7.446151e+03
9.584496e+02,7.447878e+03
9.594139e+02,7.448092e+03
9.603781e+02,7.446263e+03
9.613423e+02,7.447354e+03
9.623066e+02,7.453142e+03
9.632708e+02,7.455180e+03
9.642350e+02,7.452448e+03
9.651993e+02,7.448821e+03
9.661635e+02,7.447167e+03
9.671277e+02,7.447037e+03
9.680920e+02,7.443421e+03
9.690562e+02,7.434630e+03
9.700204e+02,7.422919e+03
9.709847e+02,7.411897e+03
9.719489e+02,7.403657e+03
9.729131e+02,7.397372e+03
9.738774e+02,7.394272e+03
9.748416e+02,7.395497e+03
9.758058e+02,7.400633e+03
9.767701e+02,7.406583e+03
9.777343e+02,7.408761e+03
9.786985e+02,7.404003e+03
9.796628e+02,7.396252e+03
9.806270e+02,7.386411e+03
9.815912e+02,7.375658e+03
9.825555e+02,7.366313e+03
9.835197e+02,7.363148e+03
9.844839e+02,7.362071e+03
9.854482e+02,7.365767e+03
9.864124e+02,7.369869e+03
9.873766e+02,7.365002e+03
9.883409e+02,7.347795e+03
9.893051e+02,7.336042e+03
9.902693e+02,7.346360e+03
9.912336e+02,7.365067e+03
9.921978e+02,7.375846e+03
9.931620e+02,7.374798e+03
9.941263e+02,7.366876e+03
9.950905e+02,7.352188e+03
9.960547e+02,7.336327e+03
9.970190e+02,7.327128e+03
9.979832e+02,7.322340e+03
9.989474e+02,7.315390e+03
9.999117e+02,7.304618e+03
1.000876e+03,7.293049e+03
1.001840e+03,7.282950e+03
1.002804e+03,7.276311e+03
1.003769e+03,7.274509e+03
1.004733e+03,7.276406e+03
1.005697e+03,7.278940e+03
1.006661e+03,7.277255e+03
1.007626e+03,7.273652e+03
1.008590e+03,7.278429e+03
1.009554e+03,7.292281e+03
1.010518e+03,7.303009e+03
1.011482e+03,7.295753e+03
1.012447e+03,7.273213e+03
1.013411e+03,7.259952e+03
1.014375e+03,7.261035e+03
1.015339e+03,7.264743e+03
1.016304e+03,7.260662e+03
1.017268e+03,7.249468e+03
1.018232e+03,7.238327e+03
1.019196e+03,7.225913e+03
1.020161e+03,7.216167e+03
1.021125e+03,7.212334e+03
1.022089e+03,7.214797e+03
1.023053e+03,7.219689e+03
1.024018e+03,7.224907e+03
1.024982e+03,7.229197e+03
1.025946e+03,7.230819e+03
1.026910e+03,7.228732e+03
1.027875e+03,7.226042e+03
1.028839e+03,7.227160e+03
1.029803e+03,7.226140e+03
1.030767e+03,7.222579e+03
1.031731e+03,7.218142e+03
1.032696e+03,7.211877e+03
1.033660e+03,7.202865e+03
1.034624e+03,7.197031e+03
1.035588e+03,7.197612e+03
1.036552e+03,7.201044e+03
1.037517e+03,7.205483e+03
1.038481e+03,7.208175e+03
1.039445e+03,7.206444e+03
1.040409e+03,7.199077e+03
1.041374e+03,7.189874e+03
1.042338e+03,7.180554e+03
1.043302e+03,7.172212e+03
1.044266e+03,7.164329e+03
1.045231e+03,7.154852e+03
1.046195e+03,7.147633e+03
1.047159e+03,7.148646e+03
1.048123e+03,7.149736e+03
1.049088e+03,7.143875e+03
1.050052e+03,7.131639e+03
1.051016e+03,7.126643e+03
1.051980e+03,7.136505e+03
1.052945e+03,7.144021e+03
1.053909e+03,7.135549e+03
1.054873e+03,7.113510e+03
1.055837e+03,7.099642e+03
1.056802e+03,7.111175e+03
1.057766e+03,7.116226e+03
1.058730e+03,7.104205e+03
1.059694e+03,7.086265e+03
1.060658e+03,7.074807e+03
1.061623e+03,7.074102e+03
1.062587e+03,7.077566e+03
1.063551e+03,7.091539e+03
1.064515e+03,7.104749e+03
1.065479e+03,7.107452e+03
1.066444e+03,7.099883e+03
1.067408e+03,7.091732e+03
1.068372e+03,7.078795e+03
1.069336e+03,7.070992e+03
1.070301e+03,7.070982e+03
1.071265e+03,7.075574e+03
1.072229e+03,7.080403e+03
1.073193e+03,7.088730e+03
1.074158e+03,7.092118e+03
1.075122e+03,7.089234e+03
1.076086e+03,7.080154e+03
1.077050e+03,7.065008e+03
1.078015e+03,7.041649e+03
1.078979e+03,7.028886e+03
1.079943e+03,7.036765e+03
1.080907e+03,7.049288e+03
1.081872e+03,7.052681e+03
1.082836e+03,7.043902e+03
1.083800e+03,7.035993e+03
1.084764e+03,7.032042e+03
1.085729e+03,7.032912e+03
1.086693e+03,7.041611e+03
1.087657e+03,7.053792e+03
1.088621e+03,7.060390e+03
1.089585e+03,7.057956e+03
1.090550e+03,7.048398e+03
1.091514e+03,7.032920e+03
1.092478e+03,7.015906e+03
1.093442e+03,7.000101e+03
1.094406e+03,6.985743e+03
1.095371e+03,6.975273e+03
1.096335e+03,6.964550e+03
1.097299e+03,6.958931e+03
1.098263e+03,6.965087e+03
1.099228e+03,6.981538e+03
1.100192e+03,6.992573e+03
1.101156e+03,6.994323e+03
1.102120e+03,6.990042e+03
1.103085e+03,6.975779e+03
1.104049e+03,6.958085e+03
1.105013e+03,6.949655e+03
1.105977e+03,6.968530e+03
1.106942e+03,6.976866e+03
1.107906e+03,6.957062e+03
1.108870e+03,6.932430e+03
1.109834e+03,6.926482e+03
1.110799e+03,6.948689e+03
1.111763e+03,6.958489e+03
1.112727e+03,6.941119e+03
1.113691e+03,6.922407e+03
1.114656e+03,6.912906e+03
1.115620e+03,6.912164e+03
1.116584e+03,6.914970e+03
1.117548e+03,6.919096e+03
1.118512e+03,6.923225e+03
1.119477e+03,6.931626e+03
1.120441e+03,6.939000e+03
1.121405e+03,6.938166e+03
1.122369e+03,6.922549e+03
1.123334e+03,6.909276e+03
1.124298e+03,6.901283e+03
1.125262e+03,6.895445e+03
1.126226e+03,6.889764e+03
1.127191e+03,6.884544e+03
1.128155e+03,6.881764e+03
1.129119e+03,6.881241e+03
1.130083e+03,6.879967e+03
1.131047e+03,6.875512e+03
1.132012e+03,6.867692e+03
1.132976e+03,6.860930e+03
1.133940e+03,6.854759e+03
1.134904e+03,6.850044e+03
1.135869e+03,6.849969e+03
1.136833e+03,6.852237e+03
1.137797e+03,6.854543e+03
1.138761e+03,6.860656e+03
1.139726e+03,6.859877e+03
1.140690e+03,6.846196e+03
1.141654e+03,6.835585e+03
1.142618e+03,6.839463e+03
1.143583e+03,6.855147e+03
1.144547e+03,6.855952e+03
1.145511e+03,6.836935e+03
1.146475e+03,6.820851e+03
1.147439e+03,6.813968e+03
1.148404e+03,6.814146e+03
1.149368e+03,6.816833e+03
1.150332e+03,6.821938e+03
1.151296e+03,6.820294e+03
1.152261e+03,6.806234e+03
1.153225e+03,6.788924e+03
1.154189e+03,6.783278e+03
1.155153e+03,6.789655e+03
1.156118e+03,6.785447e+03
1.157082e+03,6.772538e+03
1.158046e+03,6.762781e+03
1.159010e+03,6.758604e+03
1.159974e+03,6.759398e+03
1.160939e+03,6.766745e+03
1.161903e+03,6.777878e+03
1.162867e+03,6.783638e+03
1.163831e+03,6.781672e+03
1.164796e+03,6.775375e+03
1.165760e+03,6.769766e+03
1.166724e+03,6.765330e+03
1.167688e+03,6.761015e+03
1.168653e+03,6.756688e+03
1.169617e+03,6.751050e+03
1.170581e+03,6.744516e+03
1.171545e+03,6.736889e+03
1.172510e+03,6.723380e+03
1.173474e+03,6.708994e+03
1.174438e+03,6.705585e+03
1.175402e+03,6.717116e+03
1.176366e+03,6.727847e+03
1.177331e+03,6.720533e+03
1.178295e+03,6.707806e+03
1.179259e+03,6.704643e+03
1.180223e+03,6.710038e+03
1.181188e+03,6.715064e+03
1.182152e+03,6.718263e+03
1.183116e+03,6.716640e+03
1.184080e+03,6.706620e+03
1.185045e+03,6.693469e+03
1.186009e+03,6.684961e+03
1.186973e+03,6.689499e+03
1.187937e+03,6.690488e+03
1.188901e+03,6.670500e+03
1.189866e+03,6.650219e+03
1.190830e+03,6.650438e+03
1.191794e+03,6.672254e+03
1.192758e+03,6.680542e+03
1.193723e+03,6.654300e+03
1.194687e+03,6.633800e+03
1.195651e+03,6.635737e+03
1.196615e+03,6.653215e+03
1.197580e+03,6.668665e+03
1.198544e+03,6.684009e+03
1.199508e+03,6.683554e+03
1.200472e+03,6.660470e+03
1.201437e+03,6.634034e+03
1.202401e+03,6.622248e+03
1.203365e+03,6.629381e+03
1.204329e+03,6.629760e+03
1.205293e+03,6.617997e+03
1.206258e+03,6.610803e+03
1.207222e+03,6.616169e+03
1.208186e+03,6.628646e+03
1.209150e+03,6.632965e+03
1.210115e+03,6.626226e+03
1.211079e+03,6.621071e+03
1.212043e+03,6.621196e+03
1.213007e+03,6.620183e+03
1.213972e+03,6.611280e+03
1.214936e+03,6.597786e+03
1.215900e+03,6.589417e+03
1.216864e+03,6.586358e+03
1.217828e+03,6.584109e+03
1.218793e+03,6.580320e+03
1.219757e+03,6.575929e+03
1.220721e+03,6.568976e+03
1.221685e+03,6.563262e+03
1.222650e+03,6.568812e+03
1.223614e+03,6.586787e+03
1.224578e+03,6.600499e+03
1.225542e+03,6.593823e+03
1.226507e+03,6.580638e+03
1.227471e+03,6.575653e+03
1.228435e+03,6.576702e+03
1.229399e+03,6.575555e+03
1.230364e+03,6.571291e+03
1.231328e+03,6.563964e+03
1.232292e+03,6.554044e+03
1.233256e+03,6.545830e+03
1.234220e+03,6.541867e+03
1.235185e+03,6.546624e+03
1.236149e+03,6.548004e+03
1.237113e+03,6.537894e+03
1.238077e+03,6.530494e+03
1.239042e+03,6.530584e+03
1.240006e+03,6.534805e+03
1.240970e+03,6.538259e+03
1.241934e+03,6.543451e+03
1.242899e+03,6.542733e+03
1.243863e+03,6.535159e+03
1.244827e+03,6.523894e+03
1.245791e+03,6.511276e+03
1.246755e+03,6.496190e+03
1.247720e+03,6.487136e+03
1.248684e+03,6.486117e+03
1.249648e+03,6.486030e+03
1.250612e+03,6.480446e+03
1.251577e+03,6.471604e+03
1.252541e+03,6.471015e+03
1.253505e+03,6.476977e+03
1.254469e+03,6.482194e+03
1.255434e+03,6.485952e+03
1.256398e+03,6.488268e+03
1.257362e+03,6.485907e+03
1.258326e+03,6.479726e+03
1.259291e+03,6.473054e+03
1.260255e+03,6.465449e+03
1.261219e+03,6.456836e+03
1.262183e+03,6.453903e+03
1.263147e+03,6.450751e+03
1.264112e+03,6.437459e+03
1.265076e+03,6.421682e+03
1.266040e+03,6.414444e+03
1.267004e+03,6.421419e+03
1.267969e+03,6.427649e+03
1.268933e+03,6.427745e+03
1.269897e+03,6.431970e+03
1.270861e+03,6.444263e+03
1.271826e+03,6.458791e+03
1.272790e+03,6.466192e+03
1.273754e+03,6.468806e+03
1.274718e+03,6.463622e+03
1.275682e+03,6.447550e+03
1.276647e+03,6.432280e+03
1.277611e+03,6.434120e+03
1.278575e+03,6.456767e+03
1.279539e+03,6.456794e+03
1.280504e+03,6.434007e+03
1.281468e+03,6.412916e+03
1.282432e+03,6.405095e+03
1.283396e+03,6.407971e+03
1.284361e+03,6.420164e+03
1.285325e+03,6.436822e+03
1.286289e+03,6.442747e+03
1.287253e+03,6.433459e+03
1.288218e+03,6.418770e+03
1.289182e+03,6.404611e+03
1.290146e+03,6.394570e+03
1.291110e+03,6.398313e+03
1.292074e+03,6.412013e+03
1.293039e+03,6.418842e+03
1.294003e+03,6.404036e+03
1.294967e+03,6.386635e+03
1.295931e+03,6.373808e+03
1.296896e+03,6.366716e+03
1.297860e+03,6.366733e+03
1.298824e+03,6.375782e+03
1.299788e+03,6.378452e+03
1.300753e+03,6.368280e+03
1.301717e+03,6.358205e+03
1.302681e+03,6.352972e+03
1.303645e+03,6.351828e+03
1.304609e+03,6.353464e+03
1.305574e+03,6.356099e+03
1.306538e+03,6.355617e+03
1.307502e+03,6.354036e+03
1.308466e+03,6.354233e+03
1.309431e+03,6.357466e+03
1.310395e+03,6.363118e+03
1.311359e+03,6.368400e+03
1.312323e+03,6.370776e+03
1.313288e+03,6.370312e+03
1.314252e+03,6.370165e+03
1.315216e+03,6.371146e+03
1.316180e+03,6.369167e+03
1.317145e+03,6.368665e+03
1.318109e+03,6.374723e+03
1.319073e+03,6.385184e+03
1.320037e+03,6.391596e+03
1.321001e+03,6.392770e+03
1.321966e+03,6.387912e+03
1.322930e+03,6.377626e+03
1.323894e+03,6.364747e+03
1.324858e+03,6.349922e+03
1.325823e+03,6.325860e+03
1.326787e+03,6.317745e+03
1.327751e+03,6.331413e+03
1.328715e+03,6.342660e+03
1.329680e+03,6.334228e+03
1.330644e+03,6.312880e+03
1.331608e+03,6.309028e+03
1.332572e+03,6.320626e+03
1.333536e+03,6.329561e+03
1.334501e+03,6.329877e+03
1.335465e+03,6.324756e+03
1.336429e+03,6.319139e+03
1.337393e+03,6.314112e+03
1.338358e+03,6.311016e+03
1.339322e+03,6.308858e+03
1.340286e+03,6.303563e+03
1.341250e+03,6.293894e+03
1.342215e+03,6.279408e+03
1.343179e+03,6.255769e+03
1.344143e+03,6.235866e+03
1.345107e+03,6.231646e+03
1.346072e+03,6.246843e+03
1.347036e+03,6.253990e+03
1.348000e+03,6.248214e+03
1.348964e+03,6.239287e+03
1.349928e+03,6.231286e+03
1.350893e+03,6.226899e+03
1.351857e+03,6.229705e+03
1.352821e+03,6.237937e+03
1.353785e+03,6.241304e+03
1.354750e+03,6.237698e+03
1.355714e+03,6.229615e+03
1.356678e+03,6.220409e+03
1.357642e+03,6.212970e+03
1.358607e+03,6.207345e+03
1.359571e+03,6.203040e+03
1.360535e+03,6.201240e+03
1.361499e+03,6.204904e+03
1.362464e+03,6.207409e+03
1.363428e+03,6.204521e+03
1.364392e+03,6.202567e+03
1.365356e+03,6.204972e+03
1.366320e+03,6.207906e+03
1.367285e+03,6.201760e+03
1.368249e+03,6.185890e+03
1.369213e+03,6.168594e+03
1.370177e+03,6.150003e+03
1.371142e+03,6.133544e+03
1.372106e+03,6.125433e+03
1.373070e+03,6.124109e+03
1.374034e+03,6.116711e+03
1.374999e+03,6.105351e+03
1.375963e+03,6.097427e+03
1.376927e+03,6.097282e+03
1.377891e+03,6.099066e+03
1.378855e+03,6.094251e+03
1.379820e+03,6.087338e+03
1.380784e+03,6.085635e+03
1.381748e+03,6.091794e+03
1.382712e+03,6.097300e+03
1.383677e+03,6.097780e+03
1.384641e+03,6.092608e+03
1.385605e+03,6.077844e+03
1.386569e+03,6.058949e+03
1.387534e+03,6.045091e+03
1.388498e+03,6.037400e+03
1.389462e+03,6.032876e+03
1.390426e+03,6.030193e+03
1.391391e+03,6.026966e+03
1.392355e+03,6.023637e+03
1.393319e+03,6.020930e+03
1.394283e+03,6.015889e+03
1.395247e+03,6.010062e+03
1.396212e+03,6.010017e+03
1.397176e+03,6.017649e+03
1.398140e+03,6.024601e+03
1.399104e+03,6.028836e+03
1.400069e+03,6.025292e+03
1.401033e+03,6.001928e+03
1.401997e+03,5.969569e+03
1.402961e+03,5.958882e+03
1.403926e+03,5.987534e+03
1.404890e+03,5.995923e+03
1.405854e+03,5.975130e+03
1.406818e+03,5.953177e+03
1.407782e+03,5.951804e+03
1.408747e+03,5.966531e+03
1.409711e+03,5.978358e+03
1.410675e+03,5.983340e+03
1.411639e+03,5.975771e+03
1.412604e+03,5.953182e+03
1.413568e+03,5.935228e+03
1.414532e+03,5.948292e+03
1.415496e+03,5.968313e+03
1.416461e+03,5.970867e+03
1.417425e+03,5.957347e+03
1.418389e+03,5.945033e+03
1.419353e+03,5.937300e+03
1.420318e+03,5.931703e+03
1.421282e+03,5.932756e+03
1.422246e+03,5.933424e+03
1.423210e+03,5.924678e+03
1.424174e+03,5.910126e+03
1.425139e+03,5.912411e+03
1.426103e+03,5.927451e+03
1.427067e+03,5.933583e+03
1.428031e+03,5.922822e+03
1.428996e+03,5.909506e+03
1.429960e+03,5.904702e+03
1.430924e+03,5.904177e+03
1.431888e+03,5.907104e+03
1.432853e+03,5.911623e+03
1.433817e+03,5.909539e+03
1.434781e+03,5.891705e+03
1.435745e+03,5.880584e+03
1.436709e+03,5.878145e+03
1.437674e+03,5.878217e+03
1.438638e+03,5.878807e+03
1.439602e+03,5.881124e+03
1.440566e+03,5.878720e+03
1.441531e+03,5.871521e+03
1.442495e+03,5.865319e+03
1.443459e+03,5.861101e+03
1.444423e+03,5.858915e+03
1.445388e+03,5.862417e+03
1.446352e+03,5.863342e+03
1.447316e+03,5.852524e+03
1.448280e+03,5.833943e+03
1.449245e+03,5.820257e+03
1.450209e+03,5.813248e+03
1.451173e+03,5.813208e+03
1.452137e+03,5.820220e+03
1.453101e+03,5.826870e+03
1.454066e+03,5.828250e+03
1.455030e+03,5.825241e+03
1.455994e+03,5.822240e+03
1.456958e+03,5.819249e+03
1.457923e+03,5.816777e+03
1.458887e+03,5.813000e+03
1.459851e+03,5.810812e+03
1.460815e+03,5.817320e+03
1.461780e+03,5.821455e+03
1.462744e+03,5.814455e+03
1.463708e+03,5.798706e+03
1.464672e+03,5.785988e+03
1.465636e+03,5.781613e+03
1.466601e+03,5.776664e+03
1.467565e+03,5.768908e+03
1.468529e+03,5.762725e+03
1.469493e+03,5.762164e+03
1.470458e+03,5.763851e+03
1.471422e+03,5.758378e+03
1.472386e+03,5.749251e+03
1.473350e+03,5.745669e+03
1.474315e+03,5.750594e+03
1.475279e+03,5.756936e+03
1.476243e+03,5.761981e+03
1.477207e+03,5.763413e+03
1.478172e+03,5.762132e+03
1.479136e+03,5.758351e+03
1.480100e+03,5.750034e+03
1.481064e+03,5.736203e+03
1.482028e+03,5.724068e+03
1.482993e+03,5.715194e+03
1.483957e+03,5.709640e+03
1.484921e+03,5.705592e+03
1.485885e+03,5.703806e+03
1.486850e+03,5.705417e+03
1.487814e+03,5.708641e+03
1.488778e+03,5.714467e+03
1.489742e+03,5.726866e+03
1.490707e+03,5.730755e+03
1.491671e+03,5.718422e+03
1.492635e+03,5.705953e+03
1.493599e+03,5.697054e+03
1.494563e+03,5.690349e+03
1.495528e+03,5.686185e+03
1.496492e+03,5.683630e+03
1.497456e+03,5.683704e+03
1.498420e+03,5.688157e+03
1.499385e+03,5.690035e+03
1.500349e+03,5.682344e+03
1.501313e+03,5.671538e+03
1.502277e+03,5.657143e+03
1.503242e+03,5.644266e+03
1.504206e+03,5.641646e+03
1.505170e+03,5.653738e+03
1.506134e+03,5.660623e+03
1.507099e+03,5.661892e+03
1.508063e+03,5.660615e+03
1.509027e+03,5.657801e+03
1.509991e+03,5.653183e+03
1.510955e+03,5.646630e+03
1.511920e+03,5.638040e+03
1.512884e+03,5.627287e+03
1.513848e+03,5.617092e+03
1.514812e+03,5.610729e+03
1.515777e+03,5.605949e+03
1.516741e+03,5.601785e+03
1.517705e+03,5.596298e+03
1.518669e+03,5.591829e+03
1.519634e+03,5.591795e+03
1.520598e+03,5.595154e+03
1.521562e+03,5.602279e+03
1.522526e+03,5.611045e+03
1.523490e+03,5.611575e+03
1.524455e+03,5.600115e+03
1.525419e+03,5.587025e+03
1.526383e+03,5.583875e+03
1.527347e+03,5.582633e+03
1.528312e+03,5.576846e+03
1.529276e+03,5.570271e+03
1.530240e+03,5.571474e+03
1.531204e+03,5.584738e+03
1.532169e+03,5.586393e+03
1.533133e+03,5.572492e+03
1.534097e+03,5.557345e+03
1.535061e+03,5.552074e+03
1.536026e+03,5.550874e+03
1.536990e+03,5.543091e+03
1.537954e+03,5.533859e+03
1.538918e+03,5.533828e+03
1.539882e+03,5.546643e+03
1.540847e+03,5.553951e+03
1.541811e+03,5.544639e+03
1.542775e+03,5.533141e+03
1.543739e+03,5.523797e+03
1.544704e+03,5.518979e+03
1.545668e+03,5.525452e+03
1.546632e+03,5.539765e+03
1.547596e+03,5.539703e+03
1.548561e+03,5.526905e+03
1.549525e+03,5.519910e+03
1.550489e+03,5.534533e+03
1.551453e+03,5.545107e+03
1.552417e+03,5.535146e+03
1.553382e+03,5.519583e+03
1.554346e+03,5.512521e+03
1.555310e+03,5.513714e+03
1.556274e+03,5.511917e+03
1.557239e+03,5.506699e+03
1.558203e+03,5.501267e+03
1.559167e+03,5.496392e+03
1.560131e+03,5.493083e+03
1.561096e+03,5.498533e+03
1.562060e+03,5.501415e+03
1.563024e+03,5.486259e+03
1.563988e+03,5.462192e+03
1.564953e+03,5.450453e+03
1.565917e+03,5.454866e+03
1.566881e+03,5.460015e+03
1.567845e+03,5.464578e+03
1.568809e+03,5.468807e+03
1.569774e+03,5.473647e+03
1.570738e+03,5.478666e+03
1.571702e+03,5.485414e+03
1.572666e+03,5.490112e+03
1.573631e+03,5.488575e+03
1.574595e+03,5.481866e+03
1.575559e+03,5.469978e+03
1.576523e+03,5.449013e+03
1.577488e+03,5.435278e+03
1.578452e+03,5.429297e+03
1.579416e+03,5.427120e+03
1.580380e+03,5.428492e+03
1.581344e+03,5.431122e+03
1.582309e+03,5.431902e+03
1.583273e+03,5.430974e+03
1.584237e+03,5.426509e+03
1.585201e+03,5.414895e+03
1.586166e+03,5.409080e+03
1.587130e+03,5.411296e+03
1.588094e+03,5.413495e+03
1.589058e+03,5.413847e+03
1.590023e+03,5.413617e+03
1.590987e+03,5.414186e+03
1.591951e+03,5.416197e+03
1.592915e+03,5.415642e+03
1.593880e+03,5.410167e+03
1.594844e+03,5.404768e+03
1.595808e+03,5.405370e+03
1.596772e+03,5.402376e+03
1.597736e+03,5.394007e+03
1.598701e+03,5.385790e+03
1.599665e+03,5.382412e+03
1.600629e+03,5.381850e+03
1.601593e+03,5.375625e+03
1.602558e+03,5.364974e+03
1.603522e+03,5.351842e+03
1.604486e+03,5.334563e+03
1.605450e+03,5.326715e+03
1.606415e+03,5.351297e+03
1.607379e+03,5.368613e+03
1.608343e+03,5.358416e+03
1.609307e+03,5.336881e+03
1.610271e+03,5.336583e+03
1.611236e+03,5.350771e+03
1.612200e+03,5.350138e+03
1.613164e+03,5.336814e+03
1.614128e+03,5.325979e+03
1.615093e+03,5.323065e+03
1.616057e+03,5.324589e+03
1.617021e+03,5.334207e+03
1.617985e+03,5.339589e+03
1.618950e+03,5.334485e+03
1.619914e+03,5.320815e+03
1.620878e+03,5.301576e+03
1.621842e+03,5.280155e+03
1.622807e+03,5.267695e+03
1.623771e+03,5.267493e+03
1.624735e+03,5.271720e+03
1.625699e+03,5.274811e+03
1.626663e+03,5.279186e+03
1.627628e+03,5.286500e+03
1.628592e+03,5.290548e+03
1.629556e+03,5.287995e+03
1.630520e+03,5.281421e+03
1.631485e+03,5.265379e+03
1.632449e+03,5.243509e+03
1.633413e+03,5.234420e+03
1.634377e+03,5.253702e+03
1.635342e+03,5.266466e+03
1.636306e+03,5.252242e+03
1.637270e+03,5.237306e+03
1.638234e+03,5.233494e+03
1.639198e+03,5.236311e+03
1.640163e+03,5.230624e+03
1.641127e+03,5.221397e+03
1.642091e+03,5.222325e+03
1.643055e+03,5.231979e+03
1.644020e+03,5.239517e+03
1.644984e+03,5.236817e+03
1.645948e+03,5.232846e+03
1.646912e+03,5.233571e+03
1.647877e+03,5.230342e+03
1.648841e+03,5.214082e+03
1.649805e+03,5.190099e+03
1.650769e+03,5.171167e+03
1.651734e+03,5.157438e+03
1.652698e+03,5.151201e+03
1.653662e+03,5.151722e+03
1.654626e+03,5.157049e+03
1.655590e+03,5.174886e+03
1.656555e+03,5.183053e+03
1.657519e+03,5.175393e+03
1.658483e+03,5.163518e+03
1.659447e+03,5.159670e+03
1.660412e+03,5.158875e+03
1.661376e+03,5.158467e+03
1.662340e+03,5.158142e+03
1.663304e+03,5.153529e+03
1.664269e+03,5.132422e+03
1.665233e+03,5.120470e+03
1.666197e+03,5.118321e+03
1.667161e+03,5.119181e+03
1.668125e+03,5.122390e+03
1.669090e+03,5.124370e+03
1.670054e+03,5.118719e+03
1.671018e+03,5.109337e+03
1.671982e+03,5.100255e+03
1.672947e+03,5.093144e+03
1.673911e+03,5.096963e+03
1.674875e+03,5.113902e+03
1.675839e+03,5.119821e+03
1.676804e+03,5.113289e+03
1.677768e+03,5.104437e+03
1.678732e+03,5.097137e+03
1.679696e+03,5.091514e+03
1.680661e+03,5.089245e+03
1.681625e+03,5.085745e+03
1.682589e+03,5.077803e+03
1.683553e+03,5.067105e+03
1.684517e+03,5.061019e+03
1.685482e+03,5.058734e+03
1.686446e+03,5.058127e+03
1.687410e+03,5.058820e+03
1.688374e+03,5.058904e+03
1.689339e+03,5.057011e+03
1.690303e+03,5.053133e+03
1.691267e+03,5.044444e+03
1.692231e+03,5.036588e+03
1.693196e+03,5.039107e+03
1.694160e+03,5.048567e+03
1.695124e+03,5.051070e+03
1.696088e+03,5.047794e+03
1.697052e+03,5.044393e+03
1.698017e+03,5.040131e+03
1.698981e+03,5.033909e+03
1.699945e+03,5.020193e+03
1.700909e+03,5.008931e+03
1.701874e+03,5.011376e+03
1.702838e+03,5.022000e+03
1.703802e+03,5.021570e+03
1.704766e+03,5.013111e+03
1.705731e+03,5.007729e+03
1.706695e+03,5.007564e+03
1.707659e+03,5.006741e+03
1.708623e+03,5.008715e+03
1.709588e+03,5.002761e+03
1.710552e+03,4.982878e+03
1.711516e+03,4.963756e+03
1.712480e+03,4.964156e+03
1.713444e+03,4.968524e+03
1.714409e+03,4.960455e+03
1.715373e+03,4.947448e+03
1.716337e+03,4.937885e+03
1.717301e+03,4.933407e+03
1.718266e+03,4.936584e+03
1.719230e+03,4.945991e+03
1.720194e+03,4.951018e+03
1.721158e+03,4.947498e+03
1.722123e+03,4.944073e+03
1.723087e+03,4.953458e+03
1.724051e+03,4.956750e+03
1.725015e+03,4.941070e+03
1.725979e+03,4.920339e+03
1.726944e+03,4.912600e+03
1.727908e+03,4.914841e+03
1.728872e+03,4.914960e+03
1.729836e+03,4.911646e+03
1.730801e+03,4.908060e+03
1.731765e+03,4.905616e+03
1.732729e+03,4.905986e+03
1.733693e+03,4.912391e+03
1.734658e+03,4.912530e+03
1.735622e+03,4.897861e+03
1.736586e+03,4.880110e+03
1.737550e+03,4.874938e+03
1.738515e+03,4.878259e+03
1.739479e+03,4.889638e+03
1.740443e+03,4.905721e+03
1.741407e+03,4.912557e+03
1.742371e+03,4.909677e+03
1.743336e+03,4.902160e+03
1.744300e+03,4.890136e+03
1.745264e+03,4.873163e+03
1.746228e+03,4.843855e+03
1.747193e+03,4.824040e+03
1.748157e+03,4.835806e+03
1.749121e+03,4.854696e+03
1.750085e+03,4.858228e+03
1.751050e+03,4.848500e+03
1.752014e+03,4.846266e+03
1.752978e+03,4.850537e+03
1.753942e+03,4.858474e+03
1.754906e+03,4.868644e+03
1.755871e+03,4.866144e+03
1.756835e+03,4.839572e+03
1.757799e+03,4.814705e+03
1.758763e+03,4.800052e+03
1.759728e+03,4.794873e+03
1.760692e+03,4.804862e+03
1.761656e+03,4.815681e+03
1.762620e+03,4.805457e+03
1.763585e+03,4.788231e+03
1.764549e+03,4.786600e+03
1.765513e+03,4.798345e+03
1.766477e+03,4.803569e+03
1.767442e+03,4.803555e+03
1.768406e+03,4.795895e+03
1.769370e+03,4.777543e+03
1.770334e+03,4.769536e+03
1.771298e+03,4.794587e+03
1.772263e+03,4.806396e+03
1.773227e+03,4.789524e+03
1.774191e+03,4.765805e+03
1.775155e+03,4.766556e+03
1.776120e+03,4.776299e+03
1.777084e+03,4.770735e+03
1.778048e+03,4.755998e+03
1.779012e+03,4.751222e+03
1.779977e+03,4.762157e+03
1.780941e+03,4.766304e+03
1.781905e+03,4.761709e+03
1.782869e+03,4.756207e+03
1.783833e+03,4.753025e+03
1.784798e+03,4.752247e+03
1.785762e+03,4.757759e+03
1.786726e+03,4.759505e+03
1.787690e+03,4.752474e+03
1.788655e+03,4.741717e+03
1.789619e+03,4.735495e+03
1.790583e+03,4.731269e+03
1.791547e+03,4.721525e+03
1.792512e+03,4.707698e+03
1.793476e+03,4.697401e+03
1.794440e+03,4.688082e+03
1.795404e+03,4.686558e+03
1.796369e+03,4.691752e+03
1.797333e+03,4.700857e+03
1.798297e+03,4.717446e+03
1.799261e+03,4.729944e+03
1.800225e+03,4.727943e+03
1.801190e+03,4.716707e+03
1.802154e+03,4.699203e+03
1.803118e+03,4.679494e+03
1.804082e+03,4.671177e+03
1.805047e+03,4.672518e+03
1.806011e+03,4.679081e+03
1.806975e+03,4.688818e+03
1.807939e+03,4.690735e+03
1.808904e+03,4.680657e+03
1.809868e+03,4.667567e+03
1.810832e+03,4.653374e+03
1.811796e+03,4.643682e+03
1.812760e+03,4.640856e+03
1.813725e+03,4.644250e+03
1.814689e+03,4.661892e+03
1.815653e+03,4.677826e+03
1.816617e+03,4.679692e+03
1.817582e+03,4.671097e+03
1.818546e+03,4.659919e+03
1.819510e+03,4.647311e+03
1.820474e+03,4.636789e+03
1.821439e+03,4.629870e+03
1.822403e+03,4.624962e+03
1.823367e+03,4.621284e+03
1.824331e+03,4.625618e+03
1.825296e+03,4.638144e+03
1.826260e+03,4.645460e+03
1.827224e+03,4.635825e+03
1.828188e+03,4.627537e+03
1.829152e+03,4.627983e+03
1.830117e+03,4.631321e+03
1.831081e+03,4.635683e+03
1.832045e+03,4.636721e+03
1.833009e+03,4.624436e+03
1.833974e+03,4.607278e+03
1.834938e+03,4.592545e+03
1.835902e+03,4.579581e+03
1.836866e+03,4.574924e+03
1.837831e+03,4.578987e+03
1.838795e+03,4.579392e+03
1.839759e+03,4.575370e+03
1.840723e+03,4.574282e+03
1.841688e+03,4.587445e+03
1.842652e+03,4.590335e+03
1.843616e+03,4.568326e+03
1.844580e+03,4.541259e+03
1.845544e+03,4.532244e+03
1.846509e+03,4.534712e+03
1.847473e+03,4.538033e+03
1.848437e+03,4.541750e+03
1.849401e+03,4.547464e+03
1.850366e+03,4.555848e+03
1.851330e+03,4.545302e+03
1.852294e+03,4.520101e+03
1.853258e+03,4.505680e+03
1.854223e+03,4.508874e+03
1.855187e+03,4.516377e+03
1.856151e+03,4.528663e+03
1.857115e+03,4.528135e+03
1.858079e+03,4.507458e+03
1.859044e+03,4.484130e+03
1.860008e+03,4.477990e+03
1.860972e+03,4.481323e+03
1.861936e+03,4.489002e+03
1.862901e+03,4.498977e+03
1.863865e+03,4.507541e+03
1.864829e+03,4.511286e+03
1.865793e+03,4.504087e+03
1.866758e+03,4.491204e+03
1.867722e+03,4.484780e+03
1.868686e+03,4.488752e+03
1.869650e+03,4.486248e+03
1.870615e+03,4.473153e+03
1.871579e+03,4.461938e+03
1.872543e+03,4.457832e+03
1.873507e+03,4.460323e+03
1.874471e+03,4.468302e+03
1.875436e+03,4.474013e+03
1.876400e+03,4.477563e+03
1.877364e+03,4.477484e+03
1.878328e+03,4.469077e+03
1.879293e+03,4.456855e+03
1.880257e+03,4.446971e+03
1.881221e+03,4.439021e+03
1.882185e+03,4.436087e+03
1.883150e+03,4.439331e+03
1.884114e+03,4.435870e+03
1.885078e+03,4.426186e+03
1.886042e+03,4.423793e+03
1.887006e+03,4.433880e+03
1.887971e+03,4.438261e+03
1.888935e+03,4.430193e+03
1.889899e+03,4.426719e+03
1.890863e+03,4.430155e+03
1.891828e+03,4.431273e+03
1.892792e+03,4.425862e+03
1.893756e+03,4.413416e+03
1.894720e+03,4.386979e+03
1.895685e+03,4.366249e+03
1.896649e+03,4.371288e+03
1.897613e+03,4.392506e+03
1.898577e+03,4.409250e+03
1.899542e+03,4.419993e+03
1.900506e+03,4.417138e+03
1.901470e+03,4.397092e+03
1.902434e+03,4.392534e+03
1.903398e+03,4.402600e+03
1.904363e+03,4.399524e+03
1.905327e+03,4.375007e+03
1.906291e+03,4.360958e+03
1.907255e+03,4.382895e+03
1.908220e+03,4.396776e+03
1.909184e+03,4.394799e+03
1.910148e+03,4.383179e+03
1.911112e+03,4.363432e+03
1.912077e+03,4.346030e+03
1.913041e+03,4.340946e+03
1.914005e+03,4.341834e+03
1.914969e+03,4.342732e+03
1.915933e+03,4.343354e+03
1.916898e+03,4.344485e+03
1.917862e+03,4.344359e+03
1.918826e+03,4.334958e+03
1.919790e+03,4.315861e+03
1.920755e+03,4.307226e+03
1.921719e+03,4.306424e+03
1.922683e+03,4.311965e+03
1.923647e+03,4.325333e+03
1.924612e+03,4.332167e+03
1.925576e+03,4.322092e+03
1.926540e+03,4.308675e+03
1.927504e+03,4.289493e+03
1.928469e+03,4.274503e+03
1.929433e+03,4.276250e+03
1.930397e+03,4.279917e+03
1.931361e+03,4.275203e+03
1.932325e+03,4.267102e+03
1.933290e+03,4.259090e+03
1.934254e+03,4.256702e+03
1.935218e+03,4.272003e+03
1.936182e+03,4.290377e+03
1.937147e+03,4.291757e+03
1.938111e+03,4.278385e+03
1.939075e+03,4.267030e+03
1.940039e+03,4.259556e+03
1.941004e+03,4.254236e+03
1.941968e+03,4.248268e+03
1.942932e+03,4.246146e+03
1.943896e+03,4.253354e+03
1.944860e+03,4.257452e+03
1.945825e+03,4.259179e+03
1.946789e+03,4.258234e+03
1.947753e+03,4.250743e+03
1.948717e+03,4.241061e+03
1.949682e+03,4.228351e+03
1.950646e+03,4.217149e+03
1.951610e+03,4.208648e+03
1.952574e+03,4.206444e+03
1.953539e+03,4.226521e+03
1.954503e+03,4.245607e+03
1.955467e+03,4.236135e+03
1.956431e+03,4.211759e+03
1.957396e+03,4.204506e+03
1.958360e+03,4.209051e+03
1.959324e+03,4.221415e+03
1.960288e+03,4.238063e+03
1.961252e+03,4.231511e+03
1.962217e+03,4.195690e+03
1.963181e+03,4.179218e+03
1.964145e+03,4.182168e+03
1.965109e+03,4.186487e+03
1.966074e+03,4.187155e+03
1.967038e+03,4.186522e+03
1.968002e+03,4.180270e+03
1.968966e+03,4.172049e+03
1.969931e+03,4.163068e+03
1.970895e+03,4.155706e+03
1.971859e+03,4.160305e+03
1.972823e+03,4.164810e+03
1.973787e+03,4.161996e+03
1.974752e+03,4.154173e+03
1.975716e+03,4.140575e+03
1.976680e+03,4.129186e+03
1.977644e+03,4.138630e+03
1.978609e+03,4.156515e+03
1.979573e+03,4.156979e+03
1.980537e+03,4.144382e+03
1.981501e+03,4.135652e+03
1.982466e+03,4.131371e+03
1.983430e+03,4.129837e+03
1.984394e+03,4.129620e+03
1.985358e+03,4.137293e+03
1.986323e+03,4.149494e+03
1.987287e+03,4.146530e+03
1.988251e+03,4.117517e+03
1.989215e+03,4.101291e+03
1.990179e+03,4.105832e+03
1.991144e+03,4.108095e+03
1.992108e+03,4.103871e+03
1.993072e+03,4.100305e+03
1.994036e+03,4.101976e+03
1.995001e+03,4.101895e+03
1.995965e+03,4.098196e+03
1.996929e+03,4.093491e+03
1.997893e+03,4.085377e+03
1.998858e+03,4.077301e+03
1.999822e+03,4.074085e+03
2.000786e+03,4.071441e+03
2.001750e+03,4.069555e+03
2.002714e+03,4.069612e+03
2.003679e+03,4.065583e+03
2.004643e+03,4.059416e+03
2.005607e+03,4.058389e+03
2.006571e+03,4.061550e+03
2.007536e+03,4.059451e+03
2.008500e+03,4.053726e+03
2.009464e+03,4.048271e+03
2.010428e+03,4.044222e+03
2.011393e+03,4.035978e+03
2.012357e+03,4.022461e+03
2.013321e+03,4.013908e+03
2.014285e+03,4.008599e+03
2.015250e+03,4.007521e+03
2.016214e+03,4.013551e+03
2.017178e+03,4.022480e+03
2.018142e+03,4.035882e+03
2.019106e+03,4.043558e+03
2.020071e+03,4.039258e+03
2.021035e+03,4.027714e+03
2.021999e+03,4.002819e+03
2.022963e+03,3.986140e+03
2.023928e+03,3.989952e+03
2.024892e+03,3.998210e+03
2.025856e+03,3.989410e+03
2.026820e+03,3.981688e+03
2.027785e+03,3.988545e+03
2.028749e+03,3.996641e+03
2.029713e+03,3.984432e+03
2.030677e+03,3.967482e+03
2.031641e+03,3.967767e+03
2.032606e+03,3.976010e+03
2.033570e+03,3.974976e+03
2.034534e+03,3.966649e+03
2.035498e+03,3.962779e+03
2.036463e+03,3.962116e+03
2.037427e+03,3.960781e+03
2.038391e+03,3.960476e+03
2.039355e+03,3.955159e+03
2.040320e+03,3.946816e+03
2.041284e+03,3.940694e+03
2.042248e+03,3.936695e+03
2.043212e+03,3.935874e+03
2.044177e+03,3.940030e+03
2.045141e+03,3.936443e+03
2.046105e+03,3.922788e+03
2.047069e+03,3.917796e+03
2.048033e+03,3.941495e+03
2.048998e+03,3.945945e+03
2.049962e+03,3.927357e+03
2.050926e+03,3.910191e+03
2.051890e+03,3.915634e+03
2.052854e+03,3.916613e+03
2.053819e+03,3.899824e+03
2.054783e+03,3.886291e+03
2.055747e+03,3.892622e+03
2.056711e+03,3.902837e+03
2.057676e+03,3.896875e+03
2.058640e+03,3.895235e+03
2.059604e+03,3.908570e+03
2.060568e+03,3.921868e+03
2.061533e+03,3.910716e+03
2.062497e+03,3.894893e+03
2.063461e+03,3.899930e+03
2.064425e+03,3.907316e+03
2.065390e+03,3.882019e+03
2.066354e+03,3.845088e+03
2.067318e+03,3.840933e+03
2.068282e+03,3.856866e+03
2.069247e+03,3.861317e+03
2.070211e+03,3.854551e+03
2.071175e+03,3.842381e+03
2.072139e+03,3.830094e+03
2.073104e+03,3.831429e+03
2.074068e+03,3.847022e+03
2.075032e+03,3.858370e+03
2.075996e+03,3.864129e+03
2.076960e+03,3.864389e+03
2.077925e+03,3.858616e+03
2.078889e+03,3.852742e+03
2.079853e+03,3.847169e+03
2.080817e+03,3.847508e+03
2.081782e+03,3.852859e+03
2.082746e+03,3.841471e+03
2.083710e+03,3.794708e+03
2.084674e+03,3.768071e+03
2.085639e+03,3.766714e+03
2.086603e+03,3.782694e+03
2.087567e+03,3.824822e+03
2.088531e+03,3.840998e+03
2.089496e+03,3.820316e+03
2.090460e+03,3.792333e+03
2.091424e+03,3.773694e+03
2.092388e+03,3.764424e+03
2.093353e+03,3.763945e+03
2.094317e+03,3.771072e+03
2.095281e+03,3.784029e+03
2.096245e+03,3.793219e+03
2.097209e+03,3.788358e+03
2.098174e+03,3.778234e+03
2.099138e+03,3.768163e+03
2.100102e+03,3.759143e+03
2.101066e+03,3.751089e+03
2.102031e+03,3.744783e+03
2.102995e+03,3.744302e+03
2.103959e+03,3.742446e+03
2.104923e+03,3.729202e+03
2.105887e+03,3.717742e+03
2.106852e+03,3.725181e+03
2.107816e+03,3.739322e+03
2.108780e+03,3.753439e+03
2.109744e+03,3.761548e+03
2.110708e+03,3.745208e+03
2.111673e+03,3.721577e+03
2.112637e+03,3.710537e+03
2.113601e+03,3.707860e+03
2.114565e+03,3.712273e+03
2.115530e+03,3.719546e+03
2.116494e+03,3.719757e+03
2.117458e+03,3.717785e+03
2.118422e+03,3.716163e+03
2.119387e+03,3.712753e+03
2.120351e+03,3.718134e+03
2.121315e+03,3.726324e+03
2.122279e+03,3.724516e+03
2.123244e+03,3.711712e+03
2.124208e+03,3.696281e+03
2.125172e+03,3.681487e+03
2.126136e+03,3.674605e+03
2.127101e+03,3.678696e+03
2.128065e+03,3.678060e+03
2.129029e+03,3.673547e+03
2.129993e+03,3.682085e+03
2.130958e+03,3.703228e+03
2.131922e+03,3.706097e+03
2.132886e+03,3.689140e+03
2.133850e+03,3.669422e+03
2.134814e+03,3.653162e+03
2.135779e+03,3.648768e+03
2.136743e+03,3.663548e+03
2.137707e+03,3.663339e+03
2.138671e+03,3.648582e+03
2.139636e+03,3.634543e+03
2.140600e+03,3.627973e+03
2.141564e+03,3.624371e+03
2.142528e+03,3.624184e+03
2.143493e+03,3.622776e+03
2.144457e+03,3.615389e+03
2.145421e+03,3.609746e+03
2.146385e+03,3.608859e+03
2.147350e+03,3.609926e+03
2.148314e+03,3.614592e+03
2.149278e+03,3.621082e+03
2.150242e+03,3.625239e+03
2.151207e+03,3.624874e+03
2.152171e+03,3.618624e+03
2.153135e+03,3.606322e+03
2.154099e+03,3.584410e+03
2.155063e+03,3.574372e+03
2.156028e+03,3.583504e+03
2.156992e+03,3.594337e+03
2.157956e+03,3.587473e+03
2.158920e+03,3.580667e+03
2.159885e+03,3.583691e+03
2.160849e+03,3.584380e+03
2.161813e+03,3.576051e+03
2.162777e+03,3.564958e+03
2.163741e+03,3.557516e+03
2.164706e+03,3.548907e+03
2.165670e+03,3.540268e+03
2.166634e+03,3.535275e+03
2.167598e+03,3.531965e+03
2.168563e+03,3.536555e+03
2.169527e+03,3.550837e+03
2.170491e+03,3.561281e+03
2.171455e+03,3.556541e+03
2.172420e+03,3.547492e+03
2.173384e+03,3.539993e+03
2.174348e+03,3.535479e+03
2.175312e+03,3.535826e+03
2.176277e+03,3.535078e+03
2.177241e+03,3.526584e+03
2.178205e+03,3.517346e+03
2.179169e+03,3.514877e+03
2.180134e+03,3.514866e+03
2.181098e+03,3.507756e+03
2.182062e+03,3.498607e+03
2.183026e+03,3.486891e+03
2.183990e+03,3.476969e+03
2.184955e+03,3.476763e+03
2.185919e+03,3.481815e+03
2.186883e+03,3.488625e+03
2.187847e+03,3.492988e+03
2.188812e+03,3.491065e+03
2.189776e+03,3.486929e+03
2.190740e+03,3.480933e+03
2.191704e+03,3.475352e+03
2.192668e+03,3.477902e+03
2.193633e+03,3.480871e+03
2.194597e+03,3.469786e+03
2.195561e+03,3.455291e+03
2.196525e+03,3.441988e+03
2.197490e+03,3.435254e+03
2.198454e+03,3.458708e+03
2.199418e+03,3.478267e+03
2.200382e+03,3.459614e+03
2.201347e+03,3.431456e+03
2.202311e+03,3.443230e+03
2.203275e+03,3.466358e+03
2.204239e+03,3.468954e+03
2.205204e+03,3.460391e+03
2.206168e+03,3.460183e+03
2.207132e+03,3.461163e+03
2.208096e+03,3.449746e+03
2.209061e+03,3.431088e+03
2.210025e+03,3.409204e+03
2.210989e+03,3.390423e+03
2.211953e+03,3.388776e+03
2.212917e+03,3.399591e+03
2.213882e+03,3.409677e+03
2.214846e+03,3.415151e+03
2.215810e+03,3.411970e+03
2.216774e+03,3.402761e+03
2.217739e+03,3.397142e+03
2.218703e+03,3.394321e+03
2.219667e+03,3.391203e+03
2.220631e+03,3.388479e+03
2.221595e+03,3.385701e+03
2.222560e+03,3.381286e+03
2.223524e+03,3.369668e+03
2.224488e+03,3.359656e+03
2.225452e+03,3.370170e+03
2.226417e+03,3.382526e+03
2.227381e+03,3.372708e+03
2.228345e+03,3.358641e+03
2.229309e+03,3.359497e+03
2.230274e+03,3.367060e+03
2.231238e+03,3.379925e+03
2.232202e+03,3.388606e+03
2.233166e+03,3.376335e+03
2.234131e+03,3.362495e+03
2.235095e+03,3.361278e+03
2.236059e+03,3.364407e+03
2.237023e+03,3.362424e+03
2.237988e+03,3.351255e+03
2.238952e+03,3.323492e+03
2.239916e+03,3.296312e+03
2.240880e+03,3.300305e+03
2.241844e+03,3.312257e+03
2.242809e+03,3.315538e+03
2.243773e+03,3.315915e+03
2.244737e+03,3.314609e+03
2.245701e+03,3.314631e+03
2.246666e+03,3.321476e+03
2.247630e+03,3.324643e+03
2.248594e+03,3.318748e+03
2.249558e+03,3.312382e+03
2.250522e+03,3.310846e+03
2.251487e+03,3.312254e+03
2.252451e+03,3.313741e+03
2.253415e+03,3.309371e+03
2.254379e+03,3.295811e+03
2.255344e+03,3.280240e+03
2.256308e+03,3.264783e+03
2.257272e+03,3.255255e+03
2.258236e+03,3.263873e+03
2.259201e+03,3.268940e+03
2.260165e+03,3.259804e+03
2.261129e+03,3.253500e+03
2.262093e+03,3.272198e+03
2.263058e+03,3.283366e+03
2.264022e+03,3.280526e+03
2.264986e+03,3.274549e+03
2.265950e+03,3.266472e+03
2.266915e+03,3.261841e+03
2.267879e+03,3.261049e+03
2.268843e+03,3.254563e+03
2.269807e+03,3.238507e+03
2.270771e+03,3.234450e+03
2.271736e+03,3.258128e+03
2.272700e+03,3.265896e+03
2.273664e+03,3.239155e+03
2.274628e+03,3.219507e+03
2.275593e+03,3.228699e+03
2.276557e+03,3.234596e+03
2.277521e+03,3.235170e+03
2.278485e+03,3.233608e+03
2.279449e+03,3.229026e+03
2.280414e+03,3.228072e+03
2.281378e+03,3.230396e+03
2.282342e+03,3.228360e+03
2.283306e+03,3.210835e+03
2.284271e+03,3.196394e+03
2.285235e+03,3.184532e+03
2.286199e+03,3.178070e+03
2.287163e+03,3.184461e+03
2.288128e+03,3.192606e+03
2.289092e+03,3.198943e+03
2.290056e+03,3.199089e+03
2.291020e+03,3.192551e+03
2.291985e+03,3.186027e+03
2.292949e+03,3.182534e+03
2.293913e+03,3.186327e+03
2.294877e+03,3.194407e+03
2.295842e+03,3.187494e+03
2.296806e+03,3.166782e+03
2.297770e+03,3.164589e+03
2.298734e+03,3.175334e+03
2.299698e+03,3.168694e+03
2.300663e+03,3.148460e+03
2.301627e+03,3.145023e+03
2.302591e+03,3.151470e+03
2.303555e+03,3.155445e+03
2.304520e+03,3.154810e+03
2.305484e+03,3.131091e+03
2.306448e+03,3.102148e+03
2.307412e+03,3.097462e+03
2.308376e+03,3.108013e+03
2.309341e+03,3.117809e+03
2.310305e+03,3.125785e+03
2.311269e+03,3.133467e+03
2.312233e+03,3.140379e+03
2.313198e+03,3.140203e+03
2.314162e+03,3.135953e+03
2.315126e+03,3.134472e+03
2.316090e+03,3.128174e+03
2.317055e+03,3.098154e+03
2.318019e+03,3.074693e+03
2.318983e+03,3.093244e+03
2.319947e+03,3.112872e+03
2.320912e+03,3.106253e+03
2.321876e+03,3.091958e+03
2.322840e+03,3.075200e+03
2.323804e+03,3.071281e+03
2.324769e+03,3.095399e+03
2.325733e+03,3.116663e+03
2.326697e+03,3.107806e+03
2.327661e+03,3.095982e+03
2.328625e+03,3.085081e+03
2.329590e+03,3.075029e+03
2.330554e+03,3.070226e+03
2.331518e+03,3.066385e+03
2.332482e+03,3.062575e+03
2.333447e+03,3.057712e+03
2.334411e+03,3.048247e+03
2.335375e+03,3.046622e+03
2.336339e+03,3.053022e+03
2.337303e+03,3.055005e+03
2.338268e+03,3.043353e+03
2.339232e+03,3.033901e+03
2.340196e+03,3.027868e+03
2.341160e+03,3.027266e+03
2.342125e+03,3.032813e+03
2.343089e+03,3.040950e+03
2.344053e+03,3.046764e+03
2.345017e+03,3.046837e+03
2.345982e+03,3.042684e+03
2.346946e+03,3.043186e+03
2.347910e+03,3.047140e+03
2.348874e+03,3.042935e+03
2.349839e+03,3.030182e+03
2.350803e+03,3.016836e+03
2.351767e+03,3.005813e+03
2.352731e+03,3.002887e+03
2.353696e+03,3.004671e+03
2.354660e+03,3.000692e+03
2.355624e+03,2.994814e+03
2.356588e+03,3.000530e+03
2.357552e+03,3.006214e+03
2.358517e+03,2.998114e+03
2.359481e+03,2.988499e+03
2.360445e+03,2.993906e+03
2.361409e+03,2.996766e+03
2.362374e+03,2.987008e+03
2.363338e+03,2.975276e+03
2.364302e+03,2.979851e+03
2.365266e+03,2.980048e+03
2.366230e+03,2.965628e+03
2.367195e+03,2.956156e+03
2.368159e+03,2.969633e+03
2.369123e+03,2.975148e+03
2.370087e+03,2.971002e+03
2.371052e+03,2.967889e+03
2.372016e+03,2.973530e+03
2.372980e+03,2.971174e+03
2.373944e+03,2.959743e+03
2.374909e+03,2.951786e+03
2.375873e+03,2.953109e+03
2.376837e+03,2.949865e+03
2.377801e+03,2.944194e+03
2.378766e+03,2.944709e+03
2.379730e+03,2.951576e+03
2.380694e+03,2.942930e+03
2.381658e+03,2.928252e+03
2.382623e+03,2.929407e+03
2.383587e+03,2.940234e+03
2.384551e+03,2.937411e+03
2.385515e+03,2.929551e+03
2.386479e+03,2.939423e+03
2.387444e+03,2.953155e+03
2.388408e+03,2.949025e+03
2.389372e+03,2.938483e+03
2.390336e+03,2.928007e+03
2.391301e+03,2.921670e+03
2.392265e+03,2.927141e+03
2.393229e+03,2.930944e+03
2.394193e+03,2.925794e+03
2.395157e+03,2.917419e+03
2.396122e+03,2.911010e+03
2.397086e+03,2.898239e+03
2.398050e+03,2.875069e+03
2.399014e+03,2.863030e+03
2.399979e+03,2.871312e+03
2.400943e+03,2.886553e+03
2.401907e+03,2.905445e+03
2.402871e+03,2.907802e+03
2.403836e+03,2.889819e+03
2.404800e+03,2.881834e+03
2.405764e+03,2.884833e+03
2.406728e+03,2.886408e+03
2.407693e+03,2.883181e+03
2.408657e+03,2.876009e+03
2.409621e+03,2.867342e+03
2.410585e+03,2.858307e+03
2.411550e+03,2.850667e+03
2.412514e+03,2.846445e+03
2.413478e+03,2.844196e+03
2.414442e+03,2.840729e+03
2.415406e+03,2.838531e+03
2.416371e+03,2.840371e+03
2.417335e+03,2.843175e+03
2.418299e+03,2.838254e+03
2.419263e+03,2.837757e+03
2.420228e+03,2.848752e+03
2.421192e+03,2.861749e+03
2.422156e+03,2.874241e+03
2.423120e+03,2.876511e+03
2.424084e+03,2.862402e+03
2.425049e+03,2.847408e+03
2.426013e+03,2.844513e+03
2.426977e+03,2.839523e+03
2.427941e+03,2.833332e+03
2.428906e+03,2.825839e+03
2.429870e+03,2.814300e+03
2.430834e+03,2.807804e+03
2.431798e+03,2.806840e+03
2.432763e+03,2.809413e+03
2.433727e+03,2.813474e+03
2.434691e+03,2.817433e+03
2.435655e+03,2.819276e+03
2.436620e+03,2.816302e+03
2.437584e+03,2.808468e+03
2.438548e+03,2.788091e+03
2.439512e+03,2.772388e+03
2.440477e+03,2.779329e+03
2.441441e+03,2.789597e+03
2.442405e+03,2.778100e+03
2.443369e+03,2.766370e+03
2.444333e+03,2.765345e+03
2.445298e+03,2.770090e+03
2.446262e+03,2.781747e+03
2.447226e+03,2.783950e+03
2.448190e+03,2.775200e+03
2.449155e+03,2.769866e+03
2.450119e+03,2.784849e+03
2.451083e+03,2.785071e+03
2.452047e+03,2.771286e+03
2.453011e+03,2.761635e+03
2.453976e+03,2.761732e+03
2.454940e+03,2.760629e+03
2.455904e+03,2.761589e+03
2.456868e+03,2.771128e+03
2.457833e+03,2.782244e+03
2.458797e+03,2.775535e+03
2.459761e+03,2.761340e+03
2.460725e+03,2.750012e+03
2.461690e+03,2.742526e+03
2.462654e+03,2.745676e+03
2.463618e+03,2.745131e+03
2.464582e+03,2.731884e+03
2.465547e+03,2.722175e+03
2.466511e+03,2.730781e+03
2.467475e+03,2.736400e+03
2.468439e+03,2.733855e+03
2.469404e+03,2.729636e+03
2.470368e+03,2.730185e+03
2.471332e+03,2.733213e+03
2.472296e+03,2.736373e+03
2.473260e+03,2.735630e+03
2.474225e+03,2.730233e+03
2.475189e+03,2.717101e+03
2.476153e+03,2.703321e+03
2.477117e+03,2.709862e+03
2.478082e+03,2.726307e+03
2.479046e+03,2.718085e+03
2.480010e+03,2.701626e+03
2.480974e+03,2.702806e+03
2.481938e+03,2.707967e+03
2.482903e+03,2.691692e+03
2.483867e+03,2.683828e+03
2.484831e+03,2.701829e+03
2.485795e+03,2.716489e+03
2.486760e+03,2.702093e+03
2.487724e+03,2.687375e+03
2.488688e+03,2.678450e+03
2.489652e+03,2.672393e+03
2.490617e+03,2.664642e+03
2.491581e+03,2.665410e+03
2.492545e+03,2.673622e+03
2.493509e+03,2.672368e+03
2.494474e+03,2.659088e+03
2.495438e+03,2.660548e+03
2.496402e+03,2.669963e+03
2.497366e+03,2.674168e+03
2.498331e+03,2.673656e+03
2.499295e+03,2.667867e+03
2.500259e+03,2.660126e+03
2.501223e+03,2.656896e+03
2.502188e+03,2.654819e+03
2.503152e+03,2.645711e+03
2.504116e+03,2.646479e+03
2.505080e+03,2.663603e+03
2.506044e+03,2.669583e+03
2.507009e+03,2.625938e+03
2.507973e+03,2.613099e+03
2.508937e+03,2.632643e+03
2.509901e+03,2.649591e+03
2.510865e+03,2.654923e+03
2.511830e+03,2.646052e+03
2.512794e+03,2.627992e+03
2.513758e+03,2.621687e+03
2.514722e+03,2.625960e+03
2.515687e+03,2.638243e+03
2.516651e+03,2.644576e+03
2.517615e+03,2.628034e+03
2.518579e+03,2.608233e+03
2.519544e+03,2.613775e+03
2.520508e+03,2.617950e+03
2.521472e+03,2.611303e+03
2.522436e+03,2.603653e+03
2.523401e+03,2.599453e+03
2.524365e+03,2.603774e+03
2.525329e+03,2.614170e+03
2.526293e+03,2.619256e+03
2.527258e+03,2.618669e+03
2.528222e+03,2.613601e+03
2.529186e+03,2.605611e+03
2.530150e+03,2.600953e+03
2.531115e+03,2.598343e+03
2.532079e+03,2.579484e+03
2.533043e+03,2.566718e+03
2.534007e+03,2.585435e+03
2.534971e+03,2.605157e+03
2.535936e+03,2.582084e+03
2.536900e+03,2.564705e+03
2.537864e+03,2.569848e+03
2.538828e+03,2.583319e+03
2.539792e+03,2.599321e+03
2.540757e+03,2.594018e+03
2.541721e+03,2.565849e+03
2.542685e+03,2.558859e+03
2.543649e+03,2.575579e+03
2.544614e+03,2.577625e+03
2.545578e+03,2.568159e+03
2.546542e+03,2.571047e+03
2.547506e+03,2.579456e+03
2.548471e+03,2.569299e+03
2.549435e+03,2.557760e+03
2.550399e+03,2.563649e+03
2.551363e+03,2.568511e+03
2.552328e+03,2.553212e+03
2.553292e+03,2.550883e+03
2.554256e+03,2.579283e+03
2.555220e+03,2.586415e+03
2.556185e+03,2.563240e+03
2.557149e+03,2.541733e+03
2.558113e+03,2.529134e+03
2.559077e+03,2.540236e+03
2.560042e+03,2.563763e+03
2.561006e+03,2.564741e+03
2.561970e+03,2.553613e+03
2.562934e+03,2.543823e+03
2.563898e+03,2.537374e+03
2.564863e+03,2.535823e+03
2.565827e+03,2.536160e+03
2.566791e+03,2.547958e+03
2.567755e+03,2.549191e+03
2.568719e+03,2.530947e+03
2.569684e+03,2.520100e+03
2.570648e+03,2.533870e+03
2.571612e+03,2.535904e+03
2.572576e+03,2.529651e+03
2.573541e+03,2.523450e+03
2.574505e+03,2.518145e+03
2.575469e+03,2.532846e+03
2.576433e+03,2.548826e+03
2.577398e+03,2.538017e+03
2.578362e+03,2.519143e+03
2.579326e+03,2.518000e+03
2.580290e+03,2.515914e+03
2.581255e+03,2.502483e+03
2.582219e+03,2.491982e+03
2.583183e+03,2.503812e+03
2.584147e+03,2.500497e+03
2.585112e+03,2.484940e+03
2.586076e+03,2.472497e+03
2.587040e+03,2.465315e+03
2.588004e+03,2.490820e+03
2.588969e+03,2.525386e+03
2.589933e+03,2.521782e+03
2.590897e+03,2.497877e+03
2.591861e+03,2.481873e+03
2.592825e+03,2.478148e+03
2.593790e+03,2.491710e+03
2.594754e+03,2.498995e+03
2.595718e+03,2.479052e+03
2.596682e+03,2.468794e+03
2.597646e+03,2.474810e+03
2.598611e+03,2.472919e+03
2.599575e+03,2.463749e+03
2.600539e+03,2.464938e+03
2.601503e+03,2.473285e+03
2.602468e+03,2.471287e+03
2.603432e+03,2.463458e+03
2.604396e+03,2.463306e+03
2.605360e+03,2.463682e+03
2.606325e+03,2.452991e+03
2.607289e+03,2.441957e+03
2.608253e+03,2.434871e+03
2.609217e+03,2.436724e+03
2.610182e+03,2.451262e+03
2.611146e+03,2.454611e+03
2.612110e+03,2.448533e+03
2.613074e+03,2.450763e+03
2.614039e+03,2.460807e+03
2.615003e+03,2.447247e+03
2.615967e+03,2.426562e+03
2.616931e+03,2.432397e+03
2.617896e+03,2.445144e+03
2.618860e+03,2.435155e+03
2.619824e+03,2.427174e+03
2.620788e+03,2.430024e+03
2.621752e+03,2.430984e+03
2.622717e+03,2.421041e+03
2.623681e+03,2.426414e+03
2.624645e+03,2.444015e+03
2.625609e+03,2.444927e+03
2.626573e+03,2.430859e+03
2.627538e+03,2.423161e+03
2.628502e+03,2.420887e+03
2.629466e+03,2.419708e+03
2.630430e+03,2.416351e+03
2.631395e+03,2.402797e+03
2.632359e+03,2.388995e+03
2.633323e+03,2.377440e+03
2.634287e+03,2.374353e+03
2.635252e+03,2.380888e+03
2.636216e+03,2.395760e+03
2.637180e+03,2.414977e+03
2.638144e+03,2.413983e+03
2.639109e+03,2.396897e+03
2.640073e+03,2.369556e+03
2.641037e+03,2.350189e+03
2.642001e+03,2.365668e+03
2.642966e+03,2.384394e+03
2.643930e+03,2.387939e+03
2.644894e+03,2.387360e+03
2.645858e+03,2.386727e+03
2.646823e+03,2.394834e+03
2.647787e+03,2.407608e+03
2.648751e+03,2.393845e+03
2.649715e+03,2.354801e+03
2.650679e+03,2.360557e+03
2.651644e+03,2.385640e+03
2.652608e+03,2.388210e+03
2.653572e+03,2.382479e+03
2.654536e+03,2.394174e+03
2.655500e+03,2.399656e+03
2.656465e+03,2.389069e+03
2.657429e+03,2.380078e+03
2.658393e+03,2.377158e+03
2.659357e+03,2.368669e+03
2.660322e+03,2.358255e+03
2.661286e+03,2.360132e+03
2.662250e+03,2.368222e+03
2.663214e+03,2.361235e+03
2.664179e+03,2.352848e+03
2.665143e+03,2.368783e+03
2.666107e+03,2.377880e+03
2.667071e+03,2.363513e+03
2.668036e+03,2.348324e+03
2.669000e+03,2.336863e+03
2.669964e+03,2.343926e+03
2.670928e+03,2.364249e+03
2.671893e+03,2.367635e+03
2.672857e+03,2.357276e+03
2.673821e+03,2.351554e+03
2.674785e+03,2.346951e+03
2.675750e+03,2.340891e+03
2.676714e+03,2.337001e+03
2.677678e+03,2.341706e+03
2.678642e+03,2.340727e+03
2.679606e+03,2.331404e+03
2.680571e+03,2.317091e+03
2.681535e+03,2.299008e+03
2.682499e+03,2.307994e+03
2.683463e+03,2.332719e+03
2.684427e+03,2.327160e+03
2.685392e+03,2.310719e+03
2.686356e+03,2.317344e+03
2.687320e+03,2.325453e+03
2.688284e+03,2.321554e+03
2.689249e+03,2.316309e+03
2.690213e+03,2.311231e+03
2.691177e+03,2.311112e+03
2.692141e+03,2.320946e+03
2.693106e+03,2.327849e+03
2.694070e+03,2.330216e+03
2.695034e+03,2.320527e+03
2.695998e+03,2.305887e+03
2.696963e+03,2.295365e+03
2.697927e+03,2.290834e+03
2.698891e+03,2.290722e+03
2.699855e+03,2.290379e+03
2.700820e+03,2.288477e+03
2.701784e+03,2.295996e+03
2.702748e+03,2.308727e+03
2.703712e+03,2.297400e+03
2.704677e+03,2.272344e+03
2.705641e+03,2.275479e+03
2.706605e+03,2.288096e+03
2.707569e+03,2.278097e+03
2.708533e+03,2.276998e+03
2.709498e+03,2.300086e+03
2.710462e+03,2.312264e+03
2.711426e+03,2.297384e+03
2.712390e+03,2.274371e+03
2.713354e+03,2.249756e+03
2.714319e+03,2.259284e+03
2.715283e+03,2.282825e+03
2.716247e+03,2.269977e+03
2.717211e+03,2.250074e+03
2.718176e+03,2.243583e+03
2.719140e+03,2.247237e+03
2.720104e+03,2.263120e+03
2.721068e+03,2.269909e+03
2.722033e+03,2.265800e+03
2.722997e+03,2.267713e+03
2.723961e+03,2.271458e+03
2.724925e+03,2.250585e+03
2.725890e+03,2.228026e+03
2.726854e+03,2.240264e+03
2.727818e+03,2.256502e+03
2.728782e+03,2.256790e+03
2.729747e+03,2.252750e+03
2.730711e+03,2.247603e+03
2.731675e+03,2.250454e+03
2.732639e+03,2.260416e+03
2.733604e+03,2.272151e+03
2.734568e+03,2.280524e+03
2.735532e+03,2.271574e+03
2.736496e+03,2.252719e+03
2.737460e+03,2.229427e+03
2.738425e+03,2.215957e+03
2.739389e+03,2.222455e+03
2.740353e+03,2.227433e+03
2.741317e+03,2.228587e+03
2.742281e+03,2.223307e+03
2.743246e+03,2.217223e+03
2.744210e+03,2.227165e+03
2.745174e+03,2.238913e+03
2.746138e+03,2.242802e+03
2.747103e+03,2.235202e+03
2.748067e+03,2.216238e+03
2.749031e+03,2.208886e+03
2.749995e+03,2.232177e+03
2.750960e+03,2.231470e+03
2.751924e+03,2.214657e+03
2.752888e+03,2.205083e+03
2.753852e+03,2.202515e+03
2.754817e+03,2.212128e+03
2.755781e+03,2.217034e+03
2.756745e+03,2.203509e+03
2.757709e+03,2.203033e+03
2.758674e+03,2.223095e+03
2.759638e+03,2.222283e+03
2.760602e+03,2.196415e+03
2.761566e+03,2.188405e+03
2.762531e+03,2.192552e+03
2.763495e+03,2.195838e+03
2.764459e+03,2.197772e+03
2.765423e+03,2.203327e+03
2.766387e+03,2.201019e+03
2.767352e+03,2.190391e+03
2.768316e+03,2.180445e+03
2.769280e+03,2.172826e+03
2.770244e+03,2.175917e+03
2.771208e+03,2.185184e+03
2.772173e+03,2.189369e+03
2.773137e+03,2.185680e+03
2.774101e+03,2.168680e+03
2.775065e+03,2.164899e+03
2.776030e+03,2.189749e+03
2.776994e+03,2.192981e+03
2.777958e+03,2.174683e+03
2.778922e+03,2.169706e+03
2.779887e+03,2.177571e+03
2.780851e+03,2.197328e+03
2.781815e+03,2.200593e+03
2.782779e+03,2.169969e+03
2.783744e+03,2.147326e+03
2.784708e+03,2.158792e+03
2.785672e+03,2.175579e+03
2.786636e+03,2.189670e+03
2.787601e+03,2.169165e+03
2.788565e+03,2.133315e+03
2.789529e+03,2.130370e+03
2.790493e+03,2.140555e+03
2.791458e+03,2.154658e+03
2.792422e+03,2.153615e+03
2.793386e+03,2.137537e+03
2.794350e+03,2.131112e+03
2.795314e+03,2.139058e+03
2.796279e+03,2.151976e+03
2.797243e+03,2.161273e+03
2.798207e+03,2.157999e+03
2.799171e+03,2.151504e+03
2.800135e+03,2.148792e+03
2.801100e+03,2.147319e+03
2.802064e+03,2.148269e+03
2.803028e+03,2.155220e+03
2.803992e+03,2.164405e+03
2.804957e+03,2.157492e+03
2.805921e+03,2.146467e+03
2.806885e+03,2.158991e+03
2.807849e+03,2.161711e+03
2.808814e+03,2.138318e+03
2.809778e+03,2.120881e+03
2.810742e+03,2.127956e+03
2.811706e+03,2.130914e+03
2.812671e+03,2.127972e+03
2.813635e+03,2.124962e+03
2.814599e+03,2.120620e+03
2.815563e+03,2.108377e+03
2.816528e+03,2.105073e+03
2.817492e+03,2.124958e+03
2.818456e+03,2.128686e+03
2.819420e+03,2.112844e+03
2.820385e+03,2.105561e+03
2.821349e+03,2.109526e+03
2.822313e+03,2.115505e+03
2.823277e+03,2.122001e+03
2.824241e+03,2.127202e+03
2.825206e+03,2.126571e+03
2.826170e+03,2.116937e+03
2.827134e+03,2.120083e+03
2.828098e+03,2.131774e+03
2.829063e+03,2.111653e+03
2.830027e+03,2.081561e+03
2.830991e+03,2.097784e+03
2.831955e+03,2.124064e+03
2.832919e+03,2.132031e+03
2.833884e+03,2.130087e+03
2.834848e+03,2.120787e+03
2.835812e+03,2.121163e+03
2.836776e+03,2.130216e+03
2.837741e+03,2.116903e+03
2.838705e+03,2.097536e+03
2.839669e+03,2.091115e+03
2.840633e+03,2.081275e+03
2.841598e+03,2.057162e+03
2.842562e+03,2.057374e+03
2.843526e+03,2.094893e+03
2.844490e+03,2.107744e+03
2.845455e+03,2.100337e+03
2.846419e+03,2.080379e+03
2.847383e+03,2.064185e+03
2.848347e+03,2.074211e+03
2.849312e+03,2.080265e+03
2.850276e+03,2.076902e+03
2.851240e+03,2.079805e+03
2.852204e+03,2.086792e+03
2.853168e+03,2.089377e+03
2.854133e+03,2.089427e+03
2.855097e+03,2.090529e+03
2.856061e+03,2.094000e+03
2.857025e+03,2.097294e+03
2.857990e+03,2.094044e+03
2.858954e+03,2.083032e+03
2.859918e+03,2.081071e+03
2.860882e+03,2.080819e+03
2.861846e+03,2.068786e+03
2.862811e+03,2.055425e+03
2.863775e+03,2.047898e+03
2.864739e+03,2.054196e+03
2.865703e+03,2.078048e+03
2.866668e+03,2.082520e+03
2.867632e+03,2.073377e+03
2.868596e+03,2.071524e+03
2.869560e+03,2.068862e+03
2.870525e+03,2.051667e+03
2.871489e+03,2.045501e+03
2.872453e+03,2.055216e+03
2.873417e+03,2.059926e+03
2.874382e+03,2.056580e+03
2.875346e+03,2.045865e+03
2.876310e+03,2.044131e+03
2.877274e+03,2.087148e+03
2.878239e+03,2.105734e+03
2.879203e+03,2.075147e+03
2.880167e+03,2.043196e+03
2.881131e+03,2.026122e+03
2.882095e+03,2.041823e+03
2.883060e+03,2.069875e+03
2.884024e+03,2.075590e+03
2.884988e+03,2.071229e+03
2.885952e+03,2.065233e+03
2.886917e+03,2.062647e+03
2.887881e+03,2.066675e+03
2.888845e+03,2.051394e+03
2.889809e+03,2.032874e+03
2.890773e+03,2.051614e+03
2.891738e+03,2.072884e+03
2.892702e+03,2.057017e+03
2.893666e+03,2.046750e+03
2.894630e+03,2.050006e+03
2.895595e+03,2.062978e+03
2.896559e+03,2.078154e+03
2.897523e+03,2.070905e+03
2.898487e+03,2.056404e+03
2.899452e+03,2.048264e+03
2.900416e+03,2.042637e+03
2.901380e+03,2.037297e+03
2.902344e+03,2.034026e+03
2.903309e+03,2.032826e+03
2.904273e+03,2.039800e+03
2.905237e+03,2.040531e+03
2.906201e+03,2.014136e+03
2.907166e+03,2.006250e+03
2.908130e+03,2.036638e+03
2.909094e+03,2.045182e+03
2.910058e+03,2.024038e+03
2.911022e+03,2.023192e+03
2.911987e+03,2.028666e+03
2.912951e+03,2.020302e+03
2.913915e+03,2.020284e+03
2.914879e+03,2.054372e+03
2.915844e+03,2.043856e+03
2.916808e+03,1.995401e+03
2.917772e+03,2.001659e+03
2.918736e+03,2.033212e+03
2.919700e+03,2.045289e+03
2.920665e+03,2.040727e+03
2.921629e+03,2.009309e+03
2.922593e+03,1.980306e+03
2.923557e+03,1.962287e+03
2.924522e+03,1.984790e+03
2.925486e+03,2.022374e+03
2.926450e+03,2.019484e+03
2.927414e+03,2.007277e+03
2.928379e+03,1.995265e+03
2.929343e+03,1.995792e+03
2.930307e+03,2.004315e+03
2.931271e+03,1.996121e+03
2.932236e+03,1.983229e+03
2.933200e+03,1.985445e+03
2.934164e+03,1.992335e+03
2.935128e+03,1.998006e+03
2.936093e+03,1.994357e+03
2.937057e+03,1.985141e+03
2.938021e+03,1.989571e+03
2.938985e+03,1.995024e+03
2.939949e+03,1.966598e+03
2.940914e+03,1.947996e+03
2.941878e+03,1.953924e+03
2.942842e+03,1.967886e+03
2.943806e+03,1.981680e+03
2.944771e+03,1.997146e+03
2.945735e+03,2.008915e+03
2.946699e+03,2.011362e+03
2.947663e+03,2.002063e+03
2.948627e+03,1.979523e+03
2.949592e+03,1.972875e+03
2.950556e+03,1.986275e+03
2.951520e+03,1.981715e+03
2.952484e+03,1.971341e+03
2.953449e+03,1.970391e+03
2.954413e+03,1.970361e+03
2.955377e+03,1.969238e+03
2.956341e+03,1.977795e+03
2.957306e+03,1.994119e+03
2.958270e+03,2.008308e+03
2.959234e+03,2.006883e+03
2.960198e+03,1.984931e+03
2.961163e+03,1.966112e+03
2.962127e+03,1.955229e+03
2.963091e+03,1.968257e+03
2.964055e+03,1.987794e+03
2.965020e+03,1.959495e+03
2.965984e+03,1.933822e+03
2.966948e+03,1.945006e+03
2.967912e+03,1.961632e+03
2.968876e+03,1.973948e+03
2.969841e+03,1.971982e+03
2.970805e+03,1.959318e+03
2.971769e+03,1.947299e+03
2.972733e+03,1.934642e+03
2.973698e+03,1.918692e+03
2.974662e+03,1.916171e+03
2.975626e+03,1.933131e+03
2.976590e+03,1.951908e+03
2.977554e+03,1.959792e+03
2.978519e+03,1.935821e+03
2.979483e+03,1.919162e+03
2.980447e+03,1.942048e+03
2.981411e+03,1.950653e+03
2.982376e+03,1.940140e+03
2.983340e+03,1.933167e+03
2.984304e+03,1.929218e+03
2.985268e+03,1.928303e+03
2.986233e+03,1.928855e+03
2.987197e+03,1.932187e+03
2.988161e+03,1.931594e+03
2.989125e+03,1.927842e+03
2.990090e+03,1.922794e+03
2.991054e+03,1.915025e+03
2.992018e+03,1.903087e+03
2.992982e+03,1.890079e+03
2.993947e+03,1.878870e+03
2.994911e+03,1.880399e+03
2.995875e+03,1.891209e+03
2.996839e+03,1.900970e+03
2.997803e+03,1.905781e+03
2.998768e+03,1.905852e+03
2.999732e+03,1.898224e+03
3.000696e+03,1.887320e+03
3.001660e+03,1.907447e+03
3.002625e+03,1.924542e+03
3.003589e+03,1.905400e+03
3.004553e+03,1.894030e+03
3.005517e+03,1.914551e+03
3.006481e+03,1.906844e+03
3.007446e+03,1.879144e+03
3.008410e+03,1.897594e+03
3.009374e+03,1.914415e+03
3.010338e+03,1.901681e+03
3.011303e+03,1.899319e+03
3.012267e+03,1.916738e+03
3.013231e+03,1.900538e+03
3.014195e+03,1.879318e+03
3.015160e+03,1.919561e+03
3.016124e+03,1.935097e+03
3.017088e+03,1.898156e+03
3.018052e+03,1.898142e+03
3.019017e+03,1.938174e+03
3.019981e+03,1.925253e+03
3.020945e+03,1.905281e+03
3.021909e+03,1.921166e+03
3.022874e+03,1.925618e+03
3.023838e+03,1.909940e+03
3.024802e+03,1.902262e+03
3.025766e+03,1.899247e+03
3.026730e+03,1.873532e+03
3.027695e+03,1.868160e+03
3.028659e+03,1.902536e+03
3.029623e+03,1.914124e+03
3.030587e+03,1.902215e+03
3.031552e+03,1.904831e+03
3.032516e+03,1.906241e+03
3.033480e+03,1.877908e+03
3.034444e+03,1.882677e+03
3.035408e+03,1.924234e+03
3.036373e+03,1.915303e+03
3.037337e+03,1.873148e+03
3.038301e+03,1.860374e+03
3.039265e+03,1.859576e+03
3.040230e+03,1.864446e+03
3.041194e+03,1.870639e+03
3.042158e+03,1.874182e+03
3.043122e+03,1.860917e+03
3.044087e+03,1.850784e+03
3.045051e+03,1.877944e+03
3.046015e+03,1.881517e+03
3.046979e+03,1.842545e+03
3.047944e+03,1.841437e+03
3.048908e+03,1.861184e+03
3.049872e+03,1.871532e+03
3.050836e+03,1.871519e+03
3.051801e+03,1.855892e+03
3.052765e+03,1.869226e+03
3.053729e+03,1.903202e+03
3.054693e+03,1.895477e+03
3.055657e+03,1.887517e+03
3.056622e+03,1.907829e+03
3.057586e+03,1.909197e+03
3.058550e+03,1.879550e+03
3.059514e+03,1.871936e+03
3.060479e+03,1.879283e+03
3.061443e+03,1.887743e+03
3.062407e+03,1.884591e+03
3.063371e+03,1.868596e+03
3.064335e+03,1.857266e+03
3.065300e+03,1.851502e+03
3.066264e+03,1.832577e+03
3.067228e+03,1.826644e+03
3.068192e+03,1.854226e+03
3.069157e+03,1.867660e+03
3.070121e+03,1.864142e+03
3.071085e+03,1.856173e+03
3.072049e+03,1.848243e+03
3.073014e+03,1.844593e+03
3.073978e+03,1.847890e+03
3.074942e+03,1.858133e+03
3.075906e+03,1.864802e+03
3.076871e+03,1.867596e+03
3.077835e+03,1.866311e+03
3.078799e+03,1.860366e+03
3.079763e+03,1.846265e+03
3.080728e+03,1.842441e+03
3.081692e+03,1.848228e+03
3.082656e+03,1.849781e+03
3.083620e+03,1.848523e+03
3.084584e+03,1.846709e+03
3.085549e+03,1.844094e+03
3.086513e+03,1.842319e+03
3.087477e+03,1.845174e+03
3.088441e+03,1.852094e+03
3.089406e+03,1.870769e+03
3.090370e+03,1.876142e+03
3.091334e+03,1.868614e+03
3.092298e+03,1.880905e+03
3.093262e+03,1.895543e+03
3.094227e+03,1.856109e+03
3.095191e+03,1.836349e+03
3.096155e+03,1.864362e+03
3.097119e+03,1.886573e+03
3.098084e+03,1.895651e+03
3.099048e+03,1.881302e+03
3.100012e+03,1.864146e+03
3.100976e+03,1.861478e+03
3.101941e+03,1.837734e+03
3.102905e+03,1.802869e+03
3.103869e+03,1.828282e+03
3.104833e+03,1.842913e+03
3.105798e+03,1.804331e+03
3.106762e+03,1.772336e+03
3.107726e+03,1.764729e+03
3.108690e+03,1.801652e+03
3.109655e+03,1.838867e+03
3.110619e+03,1.815641e+03
3.111583e+03,1.797243e+03
3.112547e+03,1.796697e+03
3.113511e+03,1.809641e+03
3.114476e+03,1.828325e+03
3.115440e+03,1.853938e+03
3.116404e+03,1.847145e+03
3.117368e+03,1.783240e+03
3.118333e+03,1.786814e+03
3.119297e+03,1.825384e+03
3.120261e+03,1.840199e+03
3.121225e+03,1.837506e+03
3.122189e+03,1.820612e+03
3.123154e+03,1.823578e+03
3.124118e+03,1.836721e+03
3.125082e+03,1.813055e+03
3.126046e+03,1.798630e+03
3.127011e+03,1.813946e+03
3.127975e+03,1.818962e+03
3.128939e+03,1.813336e+03
3.129903e+03,1.831128e+03
3.130868e+03,1.844868e+03
3.131832e+03,1.812688e+03
3.132796e+03,1.816541e+03
3.133760e+03,1.850726e+03
3.134725e+03,1.852098e+03
3.135689e+03,1.844871e+03
3.136653e+03,1.854324e+03
3.137617e+03,1.857349e+03
3.138582e+03,1.848242e+03
3.139546e+03,1.865482e+03
3.140510e+03,1.877804e+03
3.141474e+03,1.850723e+03
3.142438e+03,1.847053e+03
3.143403e+03,1.871006e+03
3.144367e+03,1.866132e+03
3.145331e+03,1.845118e+03
3.146295e+03,1.818804e+03
3.147260e+03,1.813752e+03
3.148224e+03,1.835196e+03
3.149188e+03,1.866100e+03
3.150152e+03,1.883387e+03
3.151116e+03,1.858469e+03
3.152081e+03,1.834270e+03
3.153045e+03,1.825613e+03
3.154009e+03,1.822863e+03
3.154973e+03,1.823561e+03
3.155938e+03,1.812848e+03
3.156902e+03,1.822592e+03
3.157866e+03,1.853685e+03
3.158830e+03,1.859380e+03
3.159795e+03,1.848030e+03
3.160759e+03,1.827931e+03
3.161723e+03,1.815886e+03
3.162687e+03,1.835461e+03
3.163652e+03,1.816130e+03
3.164616e+03,1.796213e+03
3.165580e+03,1.849690e+03
3.166544e+03,1.888083e+03
3.167509e+03,1.877847e+03
3.168473e+03,1.850784e+03
3.169437e+03,1.824721e+03
3.170401e+03,1.845040e+03
3.171365e+03,1.859377e+03
3.172330e+03,1.845863e+03
3.173294e+03,1.822023e+03
3.174258e+03,1.801291e+03
3.175222e+03,1.800434e+03
3.176187e+03,1.819660e+03
3.177151e+03,1.868685e+03
3.178115e+03,1.890511e+03
3.179079e+03,1.881900e+03
3.180043e+03,1.843509e+03
3.181008e+03,1.802821e+03
3.181972e+03,1.774142e+03
3.182936e+03,1.770362e+03
3.183900e+03,1.781504e+03
3.184865e+03,1.794629e+03
3.185829e+03,1.800478e+03
3.186793e+03,1.791740e+03
3.187757e+03,1.795264e+03
3.188722e+03,1.806611e+03
3.189686e+03,1.814590e+03
3.190650e+03,1.826956e+03
3.191614e+03,1.844307e+03
3.192579e+03,1.837778e+03
3.193543e+03,1.816418e+03
3.194507e+03,1.807486e+03
3.195471e+03,1.818253e+03
3.196436e+03,1.852754e+03
3.197400e+03,1.826049e+03
3.198364e+03,1.782770e+03
3.199328e+03,1.803884e+03
3.200292e+03,1.828874e+03
3.201257e+03,0.000000e+00
3.202221e+03,0.000000e+00
3.203185e+03,0.000000e+00
3.204149e+03,0.000000e+00
3.205114e+03,0.000000e+00
3.206078e+03,0.000000e+00
3.207042e+03,0.000000e+00
3.208006e+03,0.000000e+00
3.208970e+03,0.000000e+00
3.209935e+03,0.000000e+00
3.210899e+03,0.000000e+00
3.211863e+03,0.000000e+00
3.212827e+03,0.000000e+00
3.213792e+03,0.000000e+00
3.214756e+03,0.000000e+00
3.215720e+03,0.000000e+00
3.216684e+03,0.000000e+00
3.217649e+03,0.000000e+00
3.218613e+03,0.000000e+00
3.219577e+03,0.000000e+00
3.220541e+03,0.000000e+00
3.221506e+03,0.000000e+00
3.222470e+03,0.000000e+00
3.223434e+03,0.000000e+00
3.224398e+03,0.000000e+00
3.225363e+03,0.000000e+00
3.226327e+03,0.000000e+00
3.227291e+03,0.000000e+00
3.228255e+03,0.000000e+00
3.229219e+03,0.000000e+00
3.230184e+03,0.000000e+00
3.231148e+03,0.000000e+00
3.232112e+03,0.000000e+00
3.233076e+03,0.000000e+00
3.234041e+03,0.000000e+00
3.235005e+03,0.000000e+00
3.235969e+03,0.000000e+00
3.236933e+03,0.000000e+00
3.237897e+03,0.000000e+00
3.238862e+03,0.000000e+00
3.239826e+03,0.000000e+00
3.240790e+03,0.000000e+00
3.241754e+03,0.000000e+00
3.242719e+03,0.000000e+00
3.243683e+03,0.000000e+00
3.244647e+03,0.000000e+00
3.245611e+03,0.000000e+00
3.246576e+03,0.000000e+00
3.247540e+03,0.000000e+00
3.248504e+03,0.000000e+00
3.249468e+03,0.000000e+00
3.250433e+03,0.000000e+00
3.251397e+03,0.000000e+00
3.252361e+03,0.000000e+00
3.253325e+03,0.000000e+00
3.254290e+03,0.000000e+00
3.255254e+03,0.000000e+00
3.256218e+03,0.000000e+00
3.257182e+03,0.000000e+00
3.258146e+03,0.000000e+00
3.259111e+03,0.000000e+00
3.260075e+03,0.000000e+00
3.261039e+03,0.000000e+00
3.262003e+03,0.000000e+00
3.262968e+03,0.000000e+00
3.263932e+03,0.000000e+00
3.264896e+03,0.000000e+00
3.265860e+03,0.000000e+00
3.266824e+03,0.000000e+00
3.267789e+03,0.000000e+00
3.268753e+03,0.000000e+00
3.269717e+03,0.000000e+00
3.270681e+03,0.000000e+00
3.271646e+03,0.000000e+00
3.272610e+03,0.000000e+00
3.273574e+03,0.000000e+00
3.274538e+03,0.000000e+00
3.275503e+03,0.000000e+00
3.276467e+03,0.000000e+00
3.277431e+03,0.000000e+00
3.278395e+03,0.000000e+00
3.279360e+03,0.000000e+00
3.280324e+03,0.000000e+00
3.281288e+03,0.000000e+00
3.282252e+03,0.000000e+00
3.283217e+03,0.000000e+00
3.284181e+03,0.000000e+00
3.285145e+03,0.000000e+00
3.286109e+03,0.000000e+00
3.287073e+03,0.000000e+00
3.288038e+03,0.000000e+00
3.289002e+03,0.000000e+00
3.289966e+03,0.000000e+00
3.290930e+03,0.000000e+00
3.291895e+03,0.000000e+00
3.292859e+03,0.000000e+00
3.293823e+03,0.000000e+00
3.294787e+03,0.000000e+00
3.295751e+03,0.000000e+00
3.296716e+03,0.000000e+00
3.297680e+03,0.000000e+00
3.298644e+03,0.000000e+00
3.299608e+03,0.000000e+00
3.300573e+03,0.000000e+00
3.301537e+03,0.000000e+00
3.302501e+03,0.000000e+00
3.303465e+03,0.000000e+00
3.304430e+03,0.000000e+00
3.305394e+03,0.000000e+00
3.306358e+03,0.000000e+00
3.307322e+03,0.000000e+00
3.308287e+03,0.000000e+00
3.309251e+03,0.000000e+00
3.310215e+03,0.000000e+00
3.311179e+03,0.000000e+00
3.312144e+03,0.000000e+00
3.313108e+03,0.000000e+00
3.314072e+03,0.000000e+00
3.315036e+03,0.000000e+00
3.316000e+03,0.000000e+00
3.316965e+03,0.000000e+00
3.317929e+03,0.000000e+00
3.318893e+03,0.000000e+00
3.319857e+03,0.000000e+00
3.320822e+03,0.000000e+00
3.321786e+03,0.000000e+00
3.322750e+03,0.000000e+00
3.323714e+03,0.000000e+00
3.324678e+03,0.000000e+00
3.325643e+03,0.000000e+00
3.326607e+03,0.000000e+00
3.327571e+03,0.000000e+00
3.328535e+03,0.000000e+00
3.329500e+03,0.000000e+00
3.330464e+03,0.000000e+00
3.331428e+03,0.000000e+00
3.332392e+03,0.000000e+00
3.333357e+03,0.000000e+00
3.334321e+03,0.000000e+00
3.335285e+03,0.000000e+00
3.336249e+03,0.000000e+00
3.337214e+03,0.000000e+00
3.338178e+03,0.000000e+00
3.339142e+03,0.000000e+00
3.340106e+03,0.000000e+00
3.341071e+03,0.000000e+00
3.342035e+03,0.000000e+00
3.342999e+03,0.000000e+00
3.343963e+03,0.000000e+00
3.344927e+03,0.000000e+00
3.345892e+03,0.000000e+00
3.346856e+03,0.000000e+00
3.347820e+03,0.000000e+00
3.348784e+03,0.000000e+00
3.349749e+03,0.000000e+00
3.350713e+03,0.000000e+00
3.351677e+03,0.000000e+00
3.352641e+03,0.000000e+00
3.353605e+03,0.000000e+00
3.354570e+03,0.000000e+00
3.355534e+03,0.000000e+00
3.356498e+03,0.000000e+00
3.357462e+03,0.000000e+00
3.358427e+03,0.000000e+00
3.359391e+03,0.000000e+00
3.360355e+03,0.000000e+00
3.361319e+03,0.000000e+00
3.362284e+03,0.000000e+00
3.363248e+03,0.000000e+00
3.364212e+03,0.000000e+00
3.365176e+03,0.000000e+00
3.366141e+03,0.000000e+00
3.367105e+03,0.000000e+00
3.368069e+03,0.000000e+00
3.369033e+03,0.000000e+00
3.369998e+03,0.000000e+00
3.370962e+03,0.000000e+00
3.371926e+03,0.000000e+00
3.372890e+03,0.000000e+00
3.373854e+03,0.000000e+00
3.374819e+03,0.000000e+00
3.375783e+03,0.000000e+00
3.376747e+03,0.000000e+00
3.377711e+03,0.000000e+00
3.378676e+03,0.000000e+00
3.379640e+03,0.000000e+00
3.380604e+03,0.000000e+00
3.381568e+03,0.000000e+00
3.382532e+03,0.000000e+00
3.383497e+03,0.000000e+00
3.384461e+03,0.000000e+00
3.385425e+03,0.000000e+00
3.386389e+03,0.000000e+00
3.387354e+03,0.000000e+00
3.388318e+03,0.000000e+00
3.389282e+03,0.000000e+00
3.390246e+03,0.000000e+00
3.391211e+03,0.000000e+00
3.392175e+03,0.000000e+00
3.393139e+03,0.000000e+00
3.394103e+03,0.000000e+00
3.395068e+03,0.000000e+00
3.396032e+03,0.000000e+00
3.396996e+03,0.000000e+00
3.397960e+03,0.000000e+00
3.398925e+03,0.000000e+00
3.399889e+03,0.000000e+00
3.400853e+03,0.000000e+00
3.401817e+03,0.000000e+00
3.402781e+03,0.000000e+00
3.403746e+03,0.000000e+00
3.404710e+03,0.000000e+00
3.405674e+03,0.000000e+00
3.406638e+03,0.000000e+00
3.407603e+03,0.000000e+00
3.408567e+03,0.000000e+00
3.409531e+03,0.000000e+00
3.410495e+03,0.000000e+00
3.411459e+03,0.000000e+00
3.412424e+03,0.000000e+00
3.413388e+03,0.000000e+00
3.414352e+03,0.000000e+00
3.415316e+03,0.000000e+00
3.416281e+03,0.000000e+00
3.417245e+03,0.000000e+00
3.418209e+03,0.000000e+00
3.419173e+03,0.000000e+00
3.420138e+03,0.000000e+00
3.421102e+03,0.000000e+00
3.422066e+03,0.000000e+00
3.423030e+03,0.000000e+00
3.423995e+03,0.000000e+00
3.424959e+03,0.000000e+00
3.425923e+03,0.000000e+00
3.426887e+03,0.000000e+00
3.427852e+03,0.000000e+00
3.428816e+03,0.000000e+00
3.429780e+03,0.000000e+00
3.430744e+03,0.000000e+00
3.431708e+03,0.000000e+00
3.432673e+03,0.000000e+00
3.433637e+03,0.000000e+00
3.434601e+03,0.000000e+00
3.435565e+03,0.000000e+00
3.436530e+03,0.000000e+00
3.437494e+03,0.000000e+00
3.438458e+03,0.000000e+00
3.439422e+03,0.000000e+00
3.440386e+03,0.000000e+00
3.441351e+03,0.000000e+00
3.442315e+03,0.000000e+00
3.443279e+03,0.000000e+00
3.444243e+03,0.000000e+00
3.445208e+03,0.000000e+00
3.446172e+03,0.000000e+00
3.447136e+03,0.000000e+00
3.448100e+03,0.000000e+00
3.449065e+03,0.000000e+00
3.450029e+03,0.000000e+00
3.450993e+03,0.000000e+00
3.451957e+03,0.000000e+00
3.452922e+03,0.000000e+00
3.453886e+03,0.000000e+00
3.454850e+03,0.000000e+00
3.455814e+03,0.000000e+00
3.456779e+03,0.000000e+00
3.457743e+03,0.000000e+00
3.458707e+03,0.000000e+00
3.459671e+03,0.000000e+00
3.460635e+03,0.000000e+00
3.461600e+03,0.000000e+00
3.462564e+03,0.000000e+00
3.463528e+03,0.000000e+00
3.464492e+03,0.000000e+00
3.465457e+03,0.000000e+00
3.466421e+03,0.000000e+00
3.467385e+03,0.000000e+00
3.468349e+03,0.000000e+00
3.469313e+03,0.000000e+00
3.470278e+03,0.000000e+00
3.471242e+03,0.000000e+00
3.472206e+03,0.000000e+00
3.473170e+03,0.000000e+00
3.474135e+03,0.000000e+00
3.475099e+03,0.000000e+00
3.476063e+03,0.000000e+00
3.477027e+03,0.000000e+00
3.477992e+03,0.000000e+00
3.478956e+03,0.000000e+00
3.479920e+03,0.000000e+00
3.480884e+03,0.000000e+00
3.481849e+03,0.000000e+00
3.482813e+03,0.000000e+00
3.483777e+03,0.000000e+00
3.484741e+03,0.000000e+00
3.485706e+03,0.000000e+00
3.486670e+03,0.000000e+00
3.487634e+03,0.000000e+00
3.488598e+03,0.000000e+00
3.489563e+03,0.000000e+00
3.490527e+03,0.000000e+00
3.491491e+03,0.000000e+00
3.492455e+03,0.000000e+00
3.493419e+03,0.000000e+00
3.494384e+03,0.000000e+00
3.495348e+03,0.000000e+00
3.496312e+03,0.000000e+00
3.497276e+03,0.000000e+00
3.498240e+03,0.000000e+00
3.499205e+03,0.000000e+00
3.500169e+03,0.000000e+00
