9.931763e+01,0.000000e+00
1.002819e+02,0.000000e+00
1.012461e+02,0.000000e+00
1.022103e+02,0.000000e+00
1.031746e+02,0.000000e+00
1.041388e+02,0.000000e+00
1.051030e+02,0.000000e+00
1.060673e+02,0.000000e+00
1.070315e+02,0.000000e+00
1.079957e+02,0.000000e+00
1.089600e+02,0.000000e+00
1.099242e+02,0.000000e+00
1.108884e+02,0.000000e+00
1.118527e+02,0.000000e+00
1.128169e+02,0.000000e+00
1.137811e+02,0.000000e+00
1.147454e+02,0.000000e+00
1.157096e+02,0.000000e+00
1.166738e+02,0.000000e+00
1.176381e+02,0.000000e+00
1.186023e+02,0.000000e+00
1.195665e+02,0.000000e+00
1.205308e+02,0.000000e+00
1.214950e+02,0.000000e+00
1.224592e+02,0.000000e+00
1.234235e+02,0.000000e+00
1.243877e+02,0.000000e+00
1.253519e+02,0.000000e+00
1.263162e+02,0.000000e+00
1.272804e+02,0.000000e+00
1.282446e+02,0.000000e+00
1.292089e+02,0.000000e+00
1.301731e+02,0.000000e+00
1.311373e+02,0.000000e+00
1.321016e+02,0.000000e+00
1.330658e+02,0.000000e+00
1.340300e+02,0.000000e+00
1.349943e+02,0.000000e+00
1.359585e+02,0.000000e+00
1.369227e+02,0.000000e+00
1.378870e+02,0.000000e+00
1.388512e+02,0.000000e+00
1.398154e+02,0.000000e+00
1.407797e+02,0.000000e+00
1.417439e+02,0.000000e+00
1.427081e+02,0.000000e+00
1.436724e+02,0.000000e+00
1.446366e+02,0.000000e+00
1.456008e+02,0.000000e+00
1.465651e+02,0.000000e+00
1.475293e+02,0.000000e+00
1.484935e+02,0.000000e+00
1.494578e+02,0.000000e+00
1.504220e+02,0.000000e+00
1.513862e+02,0.000000e+00
1.523505e+02,0.000000e+00
1.533147e+02,0.000000e+00
1.542789e+02,0.000000e+00
1.552432e+02,0.000000e+00
1.562074e+02,0.000000e+00
1.571716e+02,0.000000e+00
1.581359e+02,0.000000e+00
1.591001e+02,0.000000e+00
1.600643e+02,0.000000e+00
1.610286e+02,0.000000e+00
1.619928e+02,0.000000e+00
1.629570e+02,0.000000e+00
1.639213e+02,0.000000e+00
1.648855e+02,0.000000e+00
1.658497e+02,0.000000e+00
1.668140e+02,0.000000e+00
1.677782e+02,0.000000e+00
1.687424e+02,0.000000e+00
1.697067e+02,0.000000e+00
1.706709e+02,0.000000e+00
1.716351e+02,0.000000e+00
1.725994e+02,0.000000e+00
1.735636e+02,0.000000e+00
1.745278e+02,0.000000e+00
1.754921e+02,0.000000e+00
1.764563e+02,0.000000e+00
1.774205e+02,0.000000e+00
1.783848e+02,0.000000e+00
1.793490e+02,0.000000e+00
1.803132e+02,0.000000e+00
1.812775e+02,0.000000e+00
1.822417e+02,0.000000e+00
1.832059e+02,0.000000e+00
1.841702e+02,0.000000e+00
1.851344e+02,0.000000e+00
1.860986e+02,0.000000e+00
1.870629e+02,0.000000e+00
1.880271e+02,0.000000e+00
1.889913e+02,0.000000e+00
1.899556e+02,0.000000e+00
1.909198e+02,0.000000e+00
1.918840e+02,0.000000e+00
1.928483e+02,0.000000e+00
1.938125e+02,0.000000e+00
1.947767e+02,0.000000e+00
1.957410e+02,0.000000e+00
1.967052e+02,0.000000e+00
1.976694e+02,0.000000e+00
1.986337e+02,0.000000e+00
1.995979e+02,1.046964e+04
2.005621e+02,1.047981e+04
2.015264e+02,1.049152e+04
2.024906e+02,1.050564e+04
2.034548e+02,1.052034e+04
2.044191e+02,1.053340e+04
2.053833e+02,1.054303e+04
2.063475e+02,1.054905e+04
2.073118e+02,1.055229e+04
2.082760e+02,1.055275e+04
2.092402e+02,1.055023e+04
2.102045e+02,1.054658e+04
2.111687e+02,1.054622e+04
2.121329e+02,1.055114e+04
2.130972e+02,1.056043e+04
2.140614e+02,1.057110e+04
2.150256e+02,1.057994e+04
2.159899e+02,1.058612e+04
2.169541e+02,1.059435e+04
2.179183e+02,1.060919e+04
2.188826e+02,1.062824e+04
2.198468e+02,1.064671e+04
2.208110e+02,1.066058e+04
2.217753e+02,1.066859e+04
2.227395e+02,1.067257e+04
2.237037e+02,1.067718e+04
2.246680e+02,1.068221e+04
2.256322e+02,1.068503e+04
2.265964e+02,1.068749e+04
2.275607e+02,1.069241e+04
2.285249e+02,1.070199e+04
2.294892e+02,1.071674e+04
2.304534e+02,1.073503e+04
2.314176e+02,1.075159e+04
2.323819e+02,1.076485e+04
2.333461e+02,1.077655e+04
2.343103e+02,1.078854e+04
2.352746e+02,1.080180e+04
2.362388e+02,1.081599e+04
2.372030e+02,1.082920e+04
2.381673e+02,1.083688e+04
2.391315e+02,1.083789e+04
2.400957e+02,1.083586e+04
2.410600e+02,1.083374e+04
2.420242e+02,1.083454e+04
2.429884e+02,1.084039e+04
2.439527e+02,1.085114e+04
2.449169e+02,1.086350e+04
2.458811e+02,1.087555e+04
2.468454e+02,1.088743e+04
2.478096e+02,1.089928e+04
2.487738e+02,1.091119e+04
2.497381e+02,1.092293e+04
2.507023e+02,1.093465e+04
2.516665e+02,1.094691e+04
2.526308e+02,1.095972e+04
2.535950e+02,1.096986e+04
2.545592e+02,1.097477e+04
2.555235e+02,1.097477e+04
2.564877e+02,1.097263e+04
2.574519e+02,1.097223e+04
2.584161e+02,1.097703e+04
2.593804e+02,1.098841e+04
2.603446e+02,1.100378e+04
2.613088e+02,1.102010e+04
2.622731e+02,1.103715e+04
2.632373e+02,1.105562e+04
2.642015e+02,1.107264e+04
2.651658e+02,1.108527e+04
2.661300e+02,1.109288e+04
2.670942e+02,1.109793e+04
2.680585e+02,1.110515e+04
2.690227e+02,1.111871e+04
2.699869e+02,1.113241e+04
2.709512e+02,1.114052e+04
2.719154e+02,1.114331e+04
2.728796e+02,1.114520e+04
2.738439e+02,1.115154e+04
2.748081e+02,1.116541e+04
2.757723e+02,1.118599e+04
2.767366e+02,1.120554e+04
2.777008e+02,1.121963e+04
2.786650e+02,1.122956e+04
2.796293e+02,1.123792e+04
2.805935e+02,1.124688e+04
2.815577e+02,1.125743e+04
2.825220e+02,1.126901e+04
2.834862e+02,1.127886e+04
2.844504e+02,1.128402e+04
2.854147e+02,1.128623e+04
2.863789e+02,1.128756e+04
2.873431e+02,1.129060e+04
2.883074e+02,1.129709e+04
2.892716e+02,1.130667e+04
2.902358e+02,1.131700e+04
2.912001e+02,1.132663e+04
2.921643e+02,1.133578e+04
2.931285e+02,1.134644e+04
2.940928e+02,1.135958e+04
2.950570e+02,1.137532e+04
2.960212e+02,1.139113e+04
2.969855e+02,1.140364e+04
2.979497e+02,1.141115e+04
2.989139e+02,1.141448e+04
2.998782e+02,1.141725e+04
3.008424e+02,1.142350e+04
3.018066e+02,1.143413e+04
3.027709e+02,1.144636e+04
3.037351e+02,1.145768e+04
3.046993e+02,1.146692e+04
3.056636e+02,1.147431e+04
3.066278e+02,1.148101e+04
3.075920e+02,1.148884e+04
3.085563e+02,1.149845e+04
3.095205e+02,1.151189e+04
3.104847e+02,1.152890e+04
3.114490e+02,1.154741e+04
3.124132e+02,1.156491e+04
3.133774e+02,1.157925e+04
3.143417e+02,1.158917e+04
3.153059e+02,1.159377e+04
3.162701e+02,1.159601e+04
3.172344e+02,1.159868e+04
3.181986e+02,1.160278e+04
3.191628e+02,1.160888e+04
3.201271e+02,1.161750e+04
3.210913e+02,1.162868e+04
3.220555e+02,1.164175e+04
3.230198e+02,1.165575e+04
3.239840e+02,1.167008e+04
3.249482e+02,1.168424e+04
3.259125e+02,1.169771e+04
3.268767e+02,1.171076e+04
3.278409e+02,1.172364e+04
3.288052e+02,1.173625e+04
3.297694e+02,1.174823e+04
3.307336e+02,1.175929e+04
3.316979e+02,1.176965e+04
3.326621e+02,1.177917e+04
3.336263e+02,1.178546e+04
3.345906e+02,1.178808e+04
3.355548e+02,1.179020e+04
3.365190e+02,1.179593e+04
3.374833e+02,1.180784e+04
3.384475e+02,1.182536e+04
3.394117e+02,1.184477e+04
3.403760e+02,1.186072e+04
3.413402e+02,1.187475e+04
3.423044e+02,1.189110e+04
3.432687e+02,1.191061e+04
3.442329e+02,1.193150e+04
3.451971e+02,1.195065e+04
3.461614e+02,1.196491e+04
3.471256e+02,1.197256e+04
3.480898e+02,1.197636e+04
3.490541e+02,1.197884e+04
3.500183e+02,1.198235e+04
3.509825e+02,1.198931e+04
3.519468e+02,1.200161e+04
3.529110e+02,1.201902e+04
3.538752e+02,1.203903e+04
3.548395e+02,1.205831e+04
3.558037e+02,1.207473e+04
3.567680e+02,1.208796e+04
3.577322e+02,1.209937e+04
3.586964e+02,1.211193e+04
3.596607e+02,1.212734e+04
3.606249e+02,1.214420e+04
3.615891e+02,1.215814e+04
3.625534e+02,1.216518e+04
3.635176e+02,1.216445e+04
3.644818e+02,1.215827e+04
3.654461e+02,1.215143e+04
3.664103e+02,1.215042e+04
3.673745e+02,1.215997e+04
3.683388e+02,1.217766e+04
3.693030e+02,1.219936e+04
3.702672e+02,1.222116e+04
3.712315e+02,1.224066e+04
3.721957e+02,1.225655e+04
3.731599e+02,1.226728e+04
3.741242e+02,1.227460e+04
3.750884e+02,1.228331e+04
3.760526e+02,1.229588e+04
3.770169e+02,1.231209e+04
3.779811e+02,1.232940e+04
3.789453e+02,1.234456e+04
3.799096e+02,1.235504e+04
3.808738e+02,1.236076e+04
3.818380e+02,1.236471e+04
3.828023e+02,1.237077e+04
3.837665e+02,1.238138e+04
3.847307e+02,1.239503e+04
3.856950e+02,1.241141e+04
3.866592e+02,1.242942e+04
3.876234e+02,1.244819e+04
3.885877e+02,1.246715e+04
3.895519e+02,1.248583e+04
3.905161e+02,1.250335e+04
3.914804e+02,1.251785e+04
3.924446e+02,1.252836e+04
3.934088e+02,1.253735e+04
3.943731e+02,1.254654e+04
3.953373e+02,1.255656e+04
3.963015e+02,1.256595e+04
3.972658e+02,1.257221e+04
3.982300e+02,1.257562e+04
3.991942e+02,1.258175e+04
4.001585e+02,1.259571e+04
4.011227e+02,1.261709e+04
4.020869e+02,1.263801e+04
4.030512e+02,1.265336e+04
4.040154e+02,1.266305e+04
4.049796e+02,1.267110e+04
4.059439e+02,1.267855e+04
4.069081e+02,1.268579e+04
4.078723e+02,1.269573e+04
4.088366e+02,1.270694e+04
4.098008e+02,1.271371e+04
4.107650e+02,1.271891e+04
4.117293e+02,1.272411e+04
4.126935e+02,1.272905e+04
4.136577e+02,1.273179e+04
4.146220e+02,1.273431e+04
4.155862e+02,1.274105e+04
4.165504e+02,1.275381e+04
4.175147e+02,1.276876e+04
4.184789e+02,1.277898e+04
4.194431e+02,1.277830e+04
4.204074e+02,1.277898e+04
4.213716e+02,1.278237e+04
4.223358e+02,1.278639e+04
4.233001e+02,1.278911e+04
4.242643e+02,1.279063e+04
4.252285e+02,1.279209e+04
4.261928e+02,1.279377e+04
4.271570e+02,1.279529e+04
4.281212e+02,1.280101e+04
4.290855e+02,1.281244e+04
4.300497e+02,1.282658e+04
4.310139e+02,1.283948e+04
4.319782e+02,1.285038e+04
4.329424e+02,1.286246e+04
4.339066e+02,1.287831e+04
4.348709e+02,1.289660e+04
4.358351e+02,1.291289e+04
4.367993e+02,1.292350e+04
4.377636e+02,1.292713e+04
4.387278e+02,1.293017e+04
4.396920e+02,1.293546e+04
4.406563e+02,1.294166e+04
4.416205e+02,1.294531e+04
4.425847e+02,1.294496e+04
4.435490e+02,1.294438e+04
4.445132e+02,1.295140e+04
4.454774e+02,1.296993e+04
4.464417e+02,1.298687e+04
4.474059e+02,1.299482e+04
4.483701e+02,1.299672e+04
4.493344e+02,1.299889e+04
4.502986e+02,1.300581e+04
4.512628e+02,1.301484e+04
4.522271e+02,1.302468e+04
4.531913e+02,1.303491e+04
4.541555e+02,1.304374e+04
4.551198e+02,1.304961e+04
4.560840e+02,1.305314e+04
4.570482e+02,1.305081e+04
4.580125e+02,1.304292e+04
4.589767e+02,1.304026e+04
4.599409e+02,1.304165e+04
4.609052e+02,1.304398e+04
4.618694e+02,1.304705e+04
4.628336e+02,1.305606e+04
4.637979e+02,1.307050e+04
4.647621e+02,1.307620e+04
4.657263e+02,1.307128e+04
4.666906e+02,1.306751e+04
4.676548e+02,1.307107e+04
4.686190e+02,1.308080e+04
4.695833e+02,1.309181e+04
4.705475e+02,1.310704e+04
4.715117e+02,1.311973e+04
4.724760e+02,1.311946e+04
4.734402e+02,1.310287e+04
4.744044e+02,1.307822e+04
4.753687e+02,1.306324e+04
4.763329e+02,1.306399e+04
4.772971e+02,1.306627e+04
4.782614e+02,1.306786e+04
4.792256e+02,1.307058e+04
4.801898e+02,1.307564e+04
4.811541e+02,1.308246e+04
4.821183e+02,1.308942e+04
4.830826e+02,1.309538e+04
4.840468e+02,1.309937e+04
4.850110e+02,1.309909e+04
4.859753e+02,1.309388e+04
4.869395e+02,1.308252e+04
4.879037e+02,1.307456e+04
4.888680e+02,1.307254e+04
4.898322e+02,1.307438e+04
4.907964e+02,1.308205e+04
4.917607e+02,1.309486e+04
4.927249e+02,1.310762e+04
4.936891e+02,1.311406e+04
4.946534e+02,1.311332e+04
4.956176e+02,1.311369e+04
4.965818e+02,1.311658e+04
4.975461e+02,1.312102e+04
4.985103e+02,1.312477e+04
4.994745e+02,1.312535e+04
5.004388e+02,1.312235e+04
5.014030e+02,1.311733e+04
5.023672e+02,1.311282e+04
5.033315e+02,1.311107e+04
5.042957e+02,1.311222e+04
5.052599e+02,1.311321e+04
5.062242e+02,1.311126e+04
5.071884e+02,1.311026e+04
5.081526e+02,1.310558e+04
5.091169e+02,1.309497e+04
5.100811e+02,1.308496e+04
5.110453e+02,1.308038e+04
5.120095e+02,1.308622e+04
5.129738e+02,1.309813e+04
5.139380e+02,1.311112e+04
5.149022e+02,1.312559e+04
5.158665e+02,1.313969e+04
5.168307e+02,1.314868e+04
5.177949e+02,1.314608e+04
5.187592e+02,1.313411e+04
5.197234e+02,1.312399e+04
5.206876e+02,1.311524e+04
5.216519e+02,1.310594e+04
5.226161e+02,1.309810e+04
5.235803e+02,1.309458e+04
5.245446e+02,1.309991e+04
5.255088e+02,1.311217e+04
5.264730e+02,1.311751e+04
5.274373e+02,1.311173e+04
5.284015e+02,1.310536e+04
5.293657e+02,1.310716e+04
5.303300e+02,1.311931e+04
5.312942e+02,1.312431e+04
5.322584e+02,1.312149e+04
5.332227e+02,1.311793e+04
5.341869e+02,1.311655e+04
5.351511e+02,1.311564e+04
5.361154e+02,1.311274e+04
5.370796e+02,1.310641e+04
5.380438e+02,1.309719e+04
5.390081e+02,1.309005e+04
5.399723e+02,1.308401e+04
5.409365e+02,1.308404e+04
5.419008e+02,1.309255e+04
5.428650e+02,1.311192e+04
5.438292e+02,1.312611e+04
5.447935e+02,1.312303e+04
5.457577e+02,1.310939e+04
5.467219e+02,1.310013e+04
5.476862e+02,1.310242e+04
5.486504e+02,1.311078e+04
5.496146e+02,1.310948e+04
5.505789e+02,1.309111e+04
5.515431e+02,1.307292e+04
5.525073e+02,1.306397e+04
5.534716e+02,1.306482e+04
5.544358e+02,1.306939e+04
5.554000e+02,1.306792e+04
5.563643e+02,1.306650e+04
5.573285e+02,1.307260e+04
5.582927e+02,1.308401e+04
5.592570e+02,1.309572e+04
5.602212e+02,1.310759e+04
5.611854e+02,1.311846e+04
5.621497e+02,1.312207e+04
5.631139e+02,1.310174e+04
5.640781e+02,1.308299e+04
5.650424e+02,1.308361e+04
5.660066e+02,1.309884e+04
5.669708e+02,1.310735e+04
5.679351e+02,1.309513e+04
5.688993e+02,1.307172e+04
5.698635e+02,1.304989e+04
5.708278e+02,1.303121e+04
5.717920e+02,1.302358e+04
5.727562e+02,1.303297e+04
5.737205e+02,1.306377e+04
5.746847e+02,1.308532e+04
5.756489e+02,1.309122e+04
5.766132e+02,1.309076e+04
5.775774e+02,1.308979e+04
5.785416e+02,1.308966e+04
5.795059e+02,1.308875e+04
5.804701e+02,1.308436e+04
5.814343e+02,1.307797e+04
5.823986e+02,1.307574e+04
5.833628e+02,1.308068e+04
5.843270e+02,1.308775e+04
5.852913e+02,1.308872e+04
5.862555e+02,1.307348e+04
5.872197e+02,1.306776e+04
5.881840e+02,1.307651e+04
5.891482e+02,1.308890e+04
5.901124e+02,1.309676e+04
5.910767e+02,1.309754e+04
5.920409e+02,1.309552e+04
5.930051e+02,1.309305e+04
5.939694e+02,1.308924e+04
5.949336e+02,1.308492e+04
5.958978e+02,1.308055e+04
5.968621e+02,1.307629e+04
5.978263e+02,1.307344e+04
5.987905e+02,1.307995e+04
5.997548e+02,1.308235e+04
6.007190e+02,1.307796e+04
6.016832e+02,1.307211e+04
6.026475e+02,1.306798e+04
6.036117e+02,1.306286e+04
6.045759e+02,1.305897e+04
6.055402e+02,1.305996e+04
6.065044e+02,1.306358e+04
6.074686e+02,1.306619e+04
6.084329e+02,1.306973e+04
6.093971e+02,1.307422e+04
6.103613e+02,1.307347e+04
6.113256e+02,1.306342e+04
6.122899e+02,1.305361e+04
6.132541e+02,1.304505e+04
6.142183e+02,1.303742e+04
6.151826e+02,1.303105e+04
6.161468e+02,1.303102e+04
6.171110e+02,1.303474e+04
6.180753e+02,1.303519e+04
6.190395e+02,1.303169e+04
6.200037e+02,1.302926e+04
6.209680e+02,1.303094e+04
6.219322e+02,1.303817e+04
6.228964e+02,1.304358e+04
6.238607e+02,1.303994e+04
6.248249e+02,1.304006e+04
6.257891e+02,1.304801e+04
6.267534e+02,1.305754e+04
6.277176e+02,1.305915e+04
6.286818e+02,1.304796e+04
6.296461e+02,1.303466e+04
6.306103e+02,1.303062e+04
6.315745e+02,1.303605e+04
6.325388e+02,1.304336e+04
6.335030e+02,1.304378e+04
6.344672e+02,1.303490e+04
6.354315e+02,1.303125e+04
6.363957e+02,1.303494e+04
6.373599e+02,1.303496e+04
6.383242e+02,1.302972e+04
6.392884e+02,1.302099e+04
6.402526e+02,1.300991e+04
6.412169e+02,1.298717e+04
6.421811e+02,1.296725e+04
6.431453e+02,1.296998e+04
6.441096e+02,1.299298e+04
6.450738e+02,1.301387e+04
6.460380e+02,1.300966e+04
6.470023e+02,1.298222e+04
6.479665e+02,1.297200e+04
6.489307e+02,1.298428e+04
6.498950e+02,1.299915e+04
6.508592e+02,1.299730e+04
6.518234e+02,1.297536e+04
6.527877e+02,1.295823e+04
6.537519e+02,1.295443e+04
6.547161e+02,1.295523e+04
6.556804e+02,1.295723e+04
6.566446e+02,1.295948e+04
6.576088e+02,1.295754e+04
6.585731e+02,1.294602e+04
6.595373e+02,1.292591e+04
6.605015e+02,1.290084e+04
6.614658e+02,1.286803e+04
6.624300e+02,1.283956e+04
6.633942e+02,1.282771e+04
6.643585e+02,1.283839e+04
6.653227e+02,1.284960e+04
6.662869e+02,1.285766e+04
6.672512e+02,1.286515e+04
6.682154e+02,1.287760e+04
6.691796e+02,1.289354e+04
6.701439e+02,1.289956e+04
6.711081e+02,1.288048e+04
6.720723e+02,1.284624e+04
6.730366e+02,1.281762e+04
6.740008e+02,1.279951e+04
6.749650e+02,1.278747e+04
6.759293e+02,1.277687e+04
6.768935e+02,1.277041e+04
6.778577e+02,1.276290e+04
6.788220e+02,1.275287e+04
6.797862e+02,1.275031e+04
6.807504e+02,1.275874e+04
6.817147e+02,1.277711e+04
6.826789e+02,1.279191e+04
6.836431e+02,1.279604e+04
6.846074e+02,1.278993e+04
6.855716e+02,1.277606e+04
6.865358e+02,1.275753e+04
6.875001e+02,1.273834e+04
6.884643e+02,1.272099e+04
6.894285e+02,1.270600e+04
6.903928e+02,1.269619e+04
6.913570e+02,1.269250e+04
6.923212e+02,1.268942e+04
6.932855e+02,1.268247e+04
6.942497e+02,1.267334e+04
6.952139e+02,1.266820e+04
6.961782e+02,1.266467e+04
6.971424e+02,1.266371e+04
6.981066e+02,1.266223e+04
6.990709e+02,1.265507e+04
7.000351e+02,1.264752e+04
7.009993e+02,1.265760e+04
7.019636e+02,1.267834e+04
7.029278e+02,1.268633e+04
7.038920e+02,1.267617e+04
7.048563e+02,1.265326e+04
7.058205e+02,1.262528e+04
7.067847e+02,1.259317e+04
7.077490e+02,1.257071e+04
7.087132e+02,1.256681e+04
7.096774e+02,1.257710e+04
7.106417e+02,1.259029e+04
7.116059e+02,1.260682e+04
7.125701e+02,1.261136e+04
7.135344e+02,1.258964e+04
7.144986e+02,1.256481e+04
7.154628e+02,1.255818e+04
7.164271e+02,1.257100e+04
7.173913e+02,1.258525e+04
7.183555e+02,1.258312e+04
7.193198e+02,1.256672e+04
7.202840e+02,1.254808e+04
7.212482e+02,1.252931e+04
7.222125e+02,1.251486e+04
7.231767e+02,1.250805e+04
7.241409e+02,1.250937e+04
7.251052e+02,1.250667e+04
7.260694e+02,1.249525e+04
7.270336e+02,1.248225e+04
7.279979e+02,1.247474e+04
7.289621e+02,1.247305e+04
7.299263e+02,1.247094e+04
7.308906e+02,1.246175e+04
7.318548e+02,1.245057e+04
7.328190e+02,1.244636e+04
7.337833e+02,1.244942e+04
7.347475e+02,1.245122e+04
7.357117e+02,1.244573e+04
7.366760e+02,1.243555e+04
7.376402e+02,1.242384e+04
7.386044e+02,1.240996e+04
7.395687e+02,1.239858e+04
7.405329e+02,1.239166e+04
7.414971e+02,1.238989e+04
7.424614e+02,1.238603e+04
7.434256e+02,1.239236e+04
7.443898e+02,1.239867e+04
7.453541e+02,1.238833e+04
7.463183e+02,1.235785e+04
7.472825e+02,1.233409e+04
7.482468e+02,1.234523e+04
7.492110e+02,1.236189e+04
7.501752e+02,1.235313e+04
7.511395e+02,1.232518e+04
7.521037e+02,1.230163e+04
7.530679e+02,1.230041e+04
7.540322e+02,1.231458e+04
7.549964e+02,1.231314e+04
7.559606e+02,1.229292e+04
7.569249e+02,1.227829e+04
7.578891e+02,1.228715e+04
7.588533e+02,1.232255e+04
7.598176e+02,1.235053e+04
7.607818e+02,1.236387e+04
7.617460e+02,1.235725e+04
7.627103e+02,1.232355e+04
7.636745e+02,1.227597e+04
7.646387e+02,1.224019e+04
7.656030e+02,1.223084e+04
7.665672e+02,1.223253e+04
7.675314e+02,1.222862e+04
7.684957e+02,1.221348e+04
7.694599e+02,1.219180e+04
7.704241e+02,1.217287e+04
7.713884e+02,1.216040e+04
7.723526e+02,1.215285e+04
7.733168e+02,1.215275e+04
7.742811e+02,1.216261e+04
7.752453e+02,1.217992e+04
7.762095e+02,1.219829e+04
7.771738e+02,1.220512e+04
7.781380e+02,1.218513e+04
7.791022e+02,1.216283e+04
7.800665e+02,1.214976e+04
7.810307e+02,1.214214e+04
7.819949e+02,1.213214e+04
7.829592e+02,1.211797e+04
7.839234e+02,1.210920e+04
7.848876e+02,1.211280e+04
7.858519e+02,1.212040e+04
7.868161e+02,1.211893e+04
7.877803e+02,1.210096e+04
7.887446e+02,1.207748e+04
7.897088e+02,1.206852e+04
7.906730e+02,1.207618e+04
7.916373e+02,1.208521e+04
7.926015e+02,1.208473e+04
7.935657e+02,1.207247e+04
7.945300e+02,1.205842e+04
7.954942e+02,1.204643e+04
7.964584e+02,1.203652e+04
7.974227e+02,1.204528e+04
7.983869e+02,1.206475e+04
7.993511e+02,1.207070e+04
8.003154e+02,1.204463e+04
8.012796e+02,1.201716e+04
8.022438e+02,1.199762e+04
8.032081e+02,1.198598e+04
8.041723e+02,1.198263e+04
8.051365e+02,1.198609e+04
8.061008e+02,1.198820e+04
8.070650e+02,1.197469e+04
8.080292e+02,1.195389e+04
8.089935e+02,1.194905e+04
8.099577e+02,1.196639e+04
8.109219e+02,1.198855e+04
8.118862e+02,1.199482e+04
8.128504e+02,1.198559e+04
8.138146e+02,1.197570e+04
8.147789e+02,1.196424e+04
8.157431e+02,1.194930e+04
8.167073e+02,1.193115e+04
8.176716e+02,1.191459e+04
8.186358e+02,1.190491e+04
8.196000e+02,1.190506e+04
8.205643e+02,1.190775e+04
8.215285e+02,1.190355e+04
8.224927e+02,1.189296e+04
8.234570e+02,1.188613e+04
8.244212e+02,1.188929e+04
8.253854e+02,1.189461e+04
8.263497e+02,1.189676e+04
8.273139e+02,1.189198e+04
8.282781e+02,1.187991e+04
8.292424e+02,1.186421e+04
8.302066e+02,1.184893e+04
8.311708e+02,1.183311e+04
8.321351e+02,1.181764e+04
8.330993e+02,1.180830e+04
8.340635e+02,1.180678e+04
8.350278e+02,1.180911e+04
8.359920e+02,1.180631e+04
8.369562e+02,1.179753e+04
8.379205e+02,1.179021e+04
8.388847e+02,1.178629e+04
8.398489e+02,1.178615e+04
8.408132e+02,1.178898e+04
8.417774e+02,1.179863e+04
8.427416e+02,1.180166e+04
8.437059e+02,1.179514e+04
8.446701e+02,1.178292e+04
8.456343e+02,1.176933e+04
8.465986e+02,1.175113e+04
8.475628e+02,1.173618e+04
8.485270e+02,1.172775e+04
8.494913e+02,1.172313e+04
8.504555e+02,1.172334e+04
8.514197e+02,1.173015e+04
8.523840e+02,1.173526e+04
8.533482e+02,1.172375e+04
8.543124e+02,1.170395e+04
8.552767e+02,1.169577e+04
8.562409e+02,1.170070e+04
8.572051e+02,1.170518e+04
8.581694e+02,1.169843e+04
8.591336e+02,1.168265e+04
8.600978e+02,1.166189e+04
8.610621e+02,1.163593e+04
8.620263e+02,1.161667e+04
8.629905e+02,1.161049e+04
8.639548e+02,1.161389e+04
8.649190e+02,1.161504e+04
8.658832e+02,1.162265e+04
8.668475e+02,1.162762e+04
8.678117e+02,1.162174e+04
8.687759e+02,1.160654e+04
8.697402e+02,1.159836e+04
8.707044e+02,1.160301e+04
8.716686e+02,1.159714e+04
8.726329e+02,1.157284e+04
8.735971e+02,1.154120e+04
8.745613e+02,1.151791e+04
8.755256e+02,1.151574e+04
8.764898e+02,1.152266e+04
8.774540e+02,1.152967e+04
8.784183e+02,1.153590e+04
8.793825e+02,1.154253e+04
8.803467e+02,1.155067e+04
8.813110e+02,1.155470e+04
8.822752e+02,1.154455e+04
8.832394e+02,1.152746e+04
8.842037e+02,1.152248e+04
8.851679e+02,1.153188e+04
8.861321e+02,1.154344e+04
8.870964e+02,1.154416e+04
8.880606e+02,1.153303e+04
8.890248e+02,1.151147e+04
8.899891e+02,1.148047e+04
8.909533e+02,1.145225e+04
8.919175e+02,1.143659e+04
8.928818e+02,1.143696e+04
8.938460e+02,1.143232e+04
8.948102e+02,1.140987e+04
8.957745e+02,1.139045e+04
8.967387e+02,1.139230e+04
8.977029e+02,1.141158e+04
8.986672e+02,1.141728e+04
8.996314e+02,1.140486e+04
9.005956e+02,1.139323e+04
9.015599e+02,1.138543e+04
9.025241e+02,1.138104e+04
9.034883e+02,1.138173e+04
9.044526e+02,1.139932e+04
9.054168e+02,1.140586e+04
9.063810e+02,1.138378e+04
9.073453e+02,1.135123e+04
9.083095e+02,1.133098e+04
9.092737e+02,1.133100e+04
9.102380e+02,1.133521e+04
9.112022e+02,1.132540e+04
9.121664e+02,1.130658e+04
9.131307e+02,1.129506e+04
9.140949e+02,1.129963e+04
9.150591e+02,1.131469e+04
9.160234e+02,1.132754e+04
9.169876e+02,1.133167e+04
9.179518e+02,1.132026e+04
9.189161e+02,1.129105e+04
9.198803e+02,1.125714e+04
9.208445e+02,1.123640e+04
9.218088e+02,1.123430e+04
9.227730e+02,1.123133e+04
9.237372e+02,1.122376e+04
9.247015e+02,1.121518e+04
9.256657e+02,1.120739e+04
9.266299e+02,1.119940e+04
9.275942e+02,1.119763e+04
9.285584e+02,1.120311e+04
9.295226e+02,1.120863e+04
9.304869e+02,1.121597e+04
9.314511e+02,1.122477e+04
9.324153e+02,1.122813e+04
9.333796e+02,1.122009e+04
9.343438e+02,1.121194e+04
9.353080e+02,1.120703e+04
9.362723e+02,1.119816e+04
9.372365e+02,1.117911e+04
9.382007e+02,1.114612e+04
9.391650e+02,1.112307e+04
9.401292e+02,1.112910e+04
9.410934e+02,1.114517e+04
9.420577e+02,1.114486e+04
9.430219e+02,1.111963e+04
9.439861e+02,1.109216e+04
9.449504e+02,1.108422e+04
9.459146e+02,1.109150e+04
9.468788e+02,1.110329e+04
9.478431e+02,1.111104e+04
9.488073e+02,1.110789e+04
9.497715e+02,1.108846e+04
9.507358e+02,1.106233e+04
9.517000e+02,1.105195e+04
9.526642e+02,1.105926e+04
9.536285e+02,1.106308e+04
9.545927e+02,1.104493e+04
9.555569e+02,1.101283e+04
9.565212e+02,1.099350e+04
9.574854e+02,1.099077e+04
9.584496e+02,1.099958e+04
9.594139e+02,1.101543e+04
9.603781e+02,1.103122e+04
9.613423e+02,1.103672e+04
9.623066e+02,1.103119e+04
9.632708e+02,1.102192e+04
9.642350e+02,1.101272e+04
9.651993e+02,1.100343e+04
9.661635e+02,1.098837e+04
9.671277e+02,1.095567e+04
9.680920e+02,1.093705e+04
9.690562e+02,1.094115e+04
9.700204e+02,1.094879e+04
9.709847e+02,1.095012e+04
9.719489e+02,1.094810e+04
9.729131e+02,1.094238e+04
9.738774e+02,1.093341e+04
9.748416e+02,1.092585e+04
9.758058e+02,1.091320e+04
9.767701e+02,1.089534e+04
9.777343e+02,1.088846e+04
9.786985e+02,1.091035e+04
9.796628e+02,1.092382e+04
9.806270e+02,1.091596e+04
9.815912e+02,1.089264e+04
9.825555e+02,1.086444e+04
9.835197e+02,1.083074e+04
9.844839e+02,1.080718e+04
9.854482e+02,1.080833e+04
9.864124e+02,1.082091e+04
9.873766e+02,1.082661e+04
9.883409e+02,1.082106e+04
9.893051e+02,1.081619e+04
9.902693e+02,1.082012e+04
9.912336e+02,1.082895e+04
9.921978e+02,1.083561e+04
9.931620e+02,1.083608e+04
9.941263e+02,1.083115e+04
9.950905e+02,1.082136e+04
9.960547e+02,1.080912e+04
9.970190e+02,1.079817e+04
9.979832e+02,1.078617e+04
9.989474e+02,1.076769e+04
9.999117e+02,1.074026e+04
1.000876e+03,1.071261e+04
1.001840e+03,1.069640e+04
1.002804e+03,1.069213e+04
1.003769e+03,1.069325e+04
1.004733e+03,1.069460e+04
1.005697e+03,1.069608e+04
1.006661e+03,1.070091e+04
1.007626e+03,1.070872e+04
1.008590e+03,1.071500e+04
1.009554e+03,1.071666e+04
1.010518e+03,1.071044e+04
1.011482e+03,1.069171e+04
1.012447e+03,1.066263e+04
1.013411e+03,1.064402e+04
1.014375e+03,1.064239e+04
1.015339e+03,1.064608e+04
1.016304e+03,1.064278e+04
1.017268e+03,1.063388e+04
1.018232e+03,1.063780e+04
1.019196e+03,1.065632e+04
1.020161e+03,1.066031e+04
1.021125e+03,1.063564e+04
1.022089e+03,1.059934e+04
1.023053e+03,1.059124e+04
1.024018e+03,1.061446e+04
1.024982e+03,1.063036e+04
1.025946e+03,1.062957e+04
1.026910e+03,1.061467e+04
1.027875e+03,1.059398e+04
1.028839e+03,1.057106e+04
1.029803e+03,1.055068e+04
1.030767e+03,1.053152e+04
1.031731e+03,1.051861e+04
1.032696e+03,1.051439e+04
1.033660e+03,1.051820e+04
1.034624e+03,1.052163e+04
1.035588e+03,1.053101e+04
1.036552e+03,1.053606e+04
1.037517e+03,1.052622e+04
1.038481e+03,1.050416e+04
1.039445e+03,1.049167e+04
1.040409e+03,1.049568e+04
1.041374e+03,1.049902e+04
1.042338e+03,1.050654e+04
1.043302e+03,1.051211e+04
1.044266e+03,1.050459e+04
1.045231e+03,1.047350e+04
1.046195e+03,1.044534e+04
1.047159e+03,1.041940e+04
1.048123e+03,1.040113e+04
1.049088e+03,1.039618e+04
1.050052e+03,1.040986e+04
1.051016e+03,1.042175e+04
1.051980e+03,1.043156e+04
1.052945e+03,1.043745e+04
1.053909e+03,1.043116e+04
1.054873e+03,1.041194e+04
1.055837e+03,1.039535e+04
1.056802e+03,1.039100e+04
1.057766e+03,1.038591e+04
1.058730e+03,1.037970e+04
1.059694e+03,1.037301e+04
1.060658e+03,1.036490e+04
1.061623e+03,1.035835e+04
1.062587e+03,1.035007e+04
1.063551e+03,1.033838e+04
1.064515e+03,1.032698e+04
1.065479e+03,1.031464e+04
1.066444e+03,1.030295e+04
1.067408e+03,1.030028e+04
1.068372e+03,1.031614e+04
1.069336e+03,1.033271e+04
1.070301e+03,1.033698e+04
1.071265e+03,1.032931e+04
1.072229e+03,1.032080e+04
1.073193e+03,1.031543e+04
1.074158e+03,1.030650e+04
1.075122e+03,1.029084e+04
1.076086e+03,1.027181e+04
1.077050e+03,1.025538e+04
1.078015e+03,1.024877e+04
1.078979e+03,1.024657e+04
1.079943e+03,1.024676e+04
1.080907e+03,1.024829e+04
1.081872e+03,1.024742e+04
1.082836e+03,1.024116e+04
1.083800e+03,1.023343e+04
1.084764e+03,1.022576e+04
1.085729e+03,1.022148e+04
1.086693e+03,1.022269e+04
1.087657e+03,1.022617e+04
1.088621e+03,1.022632e+04
1.089585e+03,1.022152e+04
1.090550e+03,1.020902e+04
1.091514e+03,1.019272e+04
1.092478e+03,1.017422e+04
1.093442e+03,1.015003e+04
1.094406e+03,1.011207e+04
1.095371e+03,1.009487e+04
1.096335e+03,1.012098e+04
1.097299e+03,1.015279e+04
1.098263e+03,1.016683e+04
1.099228e+03,1.016135e+04
1.100192e+03,1.015349e+04
1.101156e+03,1.014325e+04
1.102120e+03,1.013256e+04
1.103085e+03,1.012477e+04
1.104049e+03,1.011785e+04
1.105013e+03,1.010757e+04
1.105977e+03,1.009030e+04
1.106942e+03,1.007539e+04
1.107906e+03,1.006474e+04
1.108870e+03,1.005783e+04
1.109834e+03,1.005488e+04
1.110799e+03,1.005795e+04
1.111763e+03,1.005727e+04
1.112727e+03,1.004956e+04
1.113691e+03,1.004308e+04
1.114656e+03,1.003942e+04
1.115620e+03,1.003868e+04
1.116584e+03,1.004164e+04
1.117548e+03,1.005318e+04
1.118512e+03,1.005424e+04
1.119477e+03,1.003534e+04
1.120441e+03,1.000630e+04
1.121405e+03,9.983349e+03
1.122369e+03,9.969915e+03
1.123334e+03,9.958567e+03
1.124298e+03,9.953363e+03
1.125262e+03,9.950127e+03
1.126226e+03,9.946084e+03
1.127191e+03,9.941626e+03
1.128155e+03,9.940231e+03
1.129119e+03,9.941982e+03
1.130083e+03,9.941665e+03
1.131047e+03,9.934851e+03
1.132012e+03,9.922014e+03
1.132976e+03,9.912846e+03
1.133940e+03,9.913667e+03
1.134904e+03,9.903438e+03
1.135869e+03,9.874536e+03
1.136833e+03,9.844543e+03
1.137797e+03,9.834088e+03
1.138761e+03,9.853298e+03
1.139726e+03,9.865688e+03
1.140690e+03,9.867558e+03
1.141654e+03,9.866140e+03
1.142618e+03,9.865482e+03
1.143583e+03,9.865296e+03
1.144547e+03,9.856470e+03
1.145511e+03,9.835453e+03
1.146475e+03,9.817849e+03
1.147439e+03,9.807493e+03
1.148404e+03,9.804290e+03
1.149368e+03,9.806642e+03
1.150332e+03,9.814433e+03
1.151296e+03,9.815668e+03
1.152261e+03,9.803715e+03
1.153225e+03,9.783694e+03
1.154189e+03,9.767176e+03
1.155153e+03,9.757223e+03
1.156118e+03,9.745056e+03
1.157082e+03,9.733697e+03
1.158046e+03,9.727402e+03
1.159010e+03,9.724226e+03
1.159974e+03,9.724498e+03
1.160939e+03,9.731465e+03
1.161903e+03,9.741886e+03
1.162867e+03,9.747861e+03
1.163831e+03,9.747188e+03
1.164796e+03,9.741824e+03
1.165760e+03,9.737361e+03
1.166724e+03,9.733438e+03
1.167688e+03,9.726108e+03
1.168653e+03,9.715003e+03
1.169617e+03,9.697409e+03
1.170581e+03,9.669493e+03
1.171545e+03,9.639895e+03
1.172510e+03,9.617584e+03
1.173474e+03,9.603942e+03
1.174438e+03,9.601038e+03
1.175402e+03,9.608931e+03
1.176366e+03,9.619427e+03
1.177331e+03,9.627234e+03
1.178295e+03,9.634528e+03
1.179259e+03,9.644568e+03
1.180223e+03,9.654245e+03
1.181188e+03,9.655167e+03
1.182152e+03,9.638741e+03
1.183116e+03,9.616688e+03
1.184080e+03,9.596312e+03
1.185045e+03,9.580416e+03
1.186009e+03,9.571393e+03
1.186973e+03,9.577574e+03
1.187937e+03,9.580917e+03
1.188901e+03,9.563274e+03
1.189866e+03,9.545134e+03
1.190830e+03,9.545640e+03
1.191794e+03,9.565137e+03
1.192758e+03,9.574252e+03
1.193723e+03,9.560936e+03
1.194687e+03,9.550672e+03
1.195651e+03,9.553897e+03
1.196615e+03,9.565028e+03
1.197580e+03,9.570115e+03
1.198544e+03,9.561889e+03
1.199508e+03,9.544469e+03
1.200472e+03,9.518627e+03
1.201437e+03,9.492724e+03
1.202401e+03,9.474716e+03
1.203365e+03,9.467574e+03
1.204329e+03,9.465050e+03
1.205293e+03,9.468377e+03
1.206258e+03,9.468674e+03
1.207222e+03,9.457120e+03
1.208186e+03,9.440877e+03
1.209150e+03,9.449769e+03
1.210115e+03,9.485028e+03
1.211079e+03,9.502656e+03
1.212043e+03,9.494375e+03
1.213007e+03,9.472855e+03
1.213972e+03,9.453598e+03
1.214936e+03,9.438605e+03
1.215900e+03,9.423485e+03
1.216864e+03,9.408746e+03
1.217828e+03,9.398841e+03
1.218793e+03,9.398974e+03
1.219757e+03,9.402073e+03
1.220721e+03,9.393232e+03
1.221685e+03,9.378113e+03
1.222650e+03,9.367585e+03
1.223614e+03,9.361486e+03
1.224578e+03,9.356160e+03
1.225542e+03,9.356037e+03
1.226507e+03,9.356366e+03
1.227471e+03,9.346547e+03
1.228435e+03,9.326819e+03
1.229399e+03,9.308786e+03
1.230364e+03,9.306534e+03
1.231328e+03,9.303278e+03
1.232292e+03,9.292866e+03
1.233256e+03,9.281857e+03
1.234220e+03,9.273689e+03
1.235185e+03,9.272466e+03
1.236149e+03,9.270566e+03
1.237113e+03,9.260300e+03
1.238077e+03,9.256868e+03
1.239042e+03,9.267149e+03
1.240006e+03,9.285038e+03
1.240970e+03,9.293109e+03
1.241934e+03,9.286487e+03
1.242899e+03,9.278145e+03
1.243863e+03,9.274743e+03
1.244827e+03,9.271048e+03
1.245791e+03,9.256549e+03
1.246755e+03,9.227475e+03
1.247720e+03,9.212106e+03
1.248684e+03,9.215175e+03
1.249648e+03,9.216401e+03
1.250612e+03,9.197755e+03
1.251577e+03,9.168286e+03
1.252541e+03,9.168152e+03
1.253505e+03,9.191810e+03
1.254469e+03,9.202152e+03
1.255434e+03,9.189183e+03
1.256398e+03,9.170963e+03
1.257362e+03,9.166098e+03
1.258326e+03,9.166442e+03
1.259291e+03,9.160053e+03
1.260255e+03,9.145732e+03
1.261219e+03,9.129100e+03
1.262183e+03,9.118893e+03
1.263147e+03,9.112943e+03
1.264112e+03,9.107553e+03
1.265076e+03,9.104116e+03
1.266040e+03,9.103905e+03
1.267004e+03,9.109321e+03
1.267969e+03,9.112569e+03
1.268933e+03,9.117909e+03
1.269897e+03,9.122255e+03
1.270861e+03,9.114283e+03
1.271826e+03,9.089033e+03
1.272790e+03,9.066672e+03
1.273754e+03,9.049516e+03
1.274718e+03,9.038651e+03
1.275682e+03,9.042050e+03
1.276647e+03,9.050788e+03
1.277611e+03,9.051619e+03
1.278575e+03,9.043235e+03
1.279539e+03,9.024215e+03
1.280504e+03,8.997232e+03
1.281468e+03,8.976891e+03
1.282432e+03,8.969380e+03
1.283396e+03,8.971535e+03
1.284361e+03,8.978263e+03
1.285325e+03,8.986184e+03
1.286289e+03,8.989491e+03
1.287253e+03,8.986140e+03
1.288218e+03,8.978479e+03
1.289182e+03,8.967521e+03
1.290146e+03,8.957247e+03
1.291110e+03,8.956918e+03
1.292074e+03,8.963847e+03
1.293039e+03,8.963724e+03
1.294003e+03,8.939739e+03
1.294967e+03,8.916037e+03
1.295931e+03,8.908225e+03
1.296896e+03,8.907920e+03
1.297860e+03,8.903726e+03
1.298824e+03,8.890744e+03
1.299788e+03,8.882285e+03
1.300753e+03,8.877528e+03
1.301717e+03,8.877107e+03
1.302681e+03,8.884931e+03
1.303645e+03,8.896018e+03
1.304609e+03,8.894400e+03
1.305574e+03,8.873868e+03
1.306538e+03,8.860540e+03
1.307502e+03,8.864010e+03
1.308466e+03,8.869046e+03
1.309431e+03,8.853388e+03
1.310395e+03,8.825381e+03
1.311359e+03,8.813263e+03
1.312323e+03,8.811168e+03
1.313288e+03,8.807740e+03
1.314252e+03,8.802083e+03
1.315216e+03,8.799526e+03
1.316180e+03,8.801647e+03
1.317145e+03,8.807933e+03
1.318109e+03,8.818003e+03
1.319073e+03,8.827768e+03
1.320037e+03,8.827205e+03
1.321001e+03,8.801810e+03
1.321966e+03,8.778549e+03
1.322930e+03,8.776346e+03
1.323894e+03,8.786728e+03
1.324858e+03,8.788534e+03
1.325823e+03,8.775862e+03
1.326787e+03,8.767271e+03
1.327751e+03,8.762144e+03
1.328715e+03,8.755463e+03
1.329680e+03,8.744154e+03
1.330644e+03,8.730858e+03
1.331608e+03,8.726260e+03
1.332572e+03,8.728918e+03
1.333536e+03,8.731230e+03
1.334501e+03,8.729784e+03
1.335465e+03,8.725157e+03
1.336429e+03,8.724733e+03
1.337393e+03,8.724133e+03
1.338358e+03,8.710221e+03
1.339322e+03,8.686788e+03
1.340286e+03,8.671308e+03
1.341250e+03,8.681301e+03
1.342215e+03,8.689742e+03
1.343179e+03,8.688467e+03
1.344143e+03,8.686028e+03
1.345107e+03,8.686737e+03
1.346072e+03,8.689658e+03
1.347036e+03,8.686159e+03
1.348000e+03,8.670543e+03
1.348964e+03,8.653584e+03
1.349928e+03,8.640704e+03
1.350893e+03,8.634329e+03
1.351857e+03,8.635955e+03
1.352821e+03,8.643282e+03
1.353785e+03,8.646433e+03
1.354750e+03,8.643054e+03
1.355714e+03,8.633341e+03
1.356678e+03,8.615902e+03
1.357642e+03,8.601217e+03
1.358607e+03,8.604431e+03
1.359571e+03,8.616731e+03
1.360535e+03,8.620792e+03
1.361499e+03,8.610896e+03
1.362464e+03,8.598152e+03
1.363428e+03,8.584364e+03
1.364392e+03,8.575202e+03
1.365356e+03,8.571068e+03
1.366320e+03,8.568001e+03
1.367285e+03,8.565331e+03
1.368249e+03,8.570728e+03
1.369213e+03,8.566333e+03
1.370177e+03,8.545205e+03
1.371142e+03,8.521550e+03
1.372106e+03,8.514337e+03
1.373070e+03,8.520964e+03
1.374034e+03,8.522254e+03
1.374999e+03,8.520298e+03
1.375963e+03,8.518521e+03
1.376927e+03,8.517996e+03
1.377891e+03,8.517562e+03
1.378855e+03,8.518670e+03
1.379820e+03,8.515407e+03
1.380784e+03,8.495838e+03
1.381748e+03,8.461267e+03
1.382712e+03,8.441830e+03
1.383677e+03,8.453140e+03
1.384641e+03,8.464712e+03
1.385605e+03,8.466829e+03
1.386569e+03,8.461691e+03
1.387534e+03,8.453756e+03
1.388498e+03,8.443627e+03
1.389462e+03,8.431825e+03
1.390426e+03,8.415654e+03
1.391391e+03,8.400324e+03
1.392355e+03,8.391975e+03
1.393319e+03,8.389289e+03
1.394283e+03,8.383960e+03
1.395247e+03,8.378621e+03
1.396212e+03,8.385899e+03
1.397176e+03,8.409694e+03
1.398140e+03,8.424790e+03
1.399104e+03,8.404906e+03
1.400069e+03,8.378903e+03
1.401033e+03,8.364573e+03
1.401997e+03,8.359251e+03
1.402961e+03,8.353327e+03
1.403926e+03,8.346140e+03
1.404890e+03,8.337009e+03
1.405854e+03,8.326408e+03
1.406818e+03,8.317867e+03
1.407782e+03,8.314567e+03
1.408747e+03,8.317389e+03
1.409711e+03,8.322797e+03
1.410675e+03,8.325475e+03
1.411639e+03,8.321792e+03
1.412604e+03,8.311668e+03
1.413568e+03,8.299271e+03
1.414532e+03,8.289205e+03
1.415496e+03,8.282496e+03
1.416461e+03,8.276092e+03
1.417425e+03,8.268287e+03
1.418389e+03,8.262025e+03
1.419353e+03,8.264071e+03
1.420318e+03,8.258640e+03
1.421282e+03,8.244704e+03
1.422246e+03,8.230522e+03
1.423210e+03,8.221468e+03
1.424174e+03,8.217990e+03
1.425139e+03,8.214693e+03
1.426103e+03,8.209674e+03
1.427067e+03,8.206822e+03
1.428031e+03,8.208838e+03
1.428996e+03,8.210168e+03
1.429960e+03,8.200836e+03
1.430924e+03,8.188184e+03
1.431888e+03,8.180530e+03
1.432853e+03,8.177908e+03
1.433817e+03,8.174864e+03
1.434781e+03,8.173588e+03
1.435745e+03,8.170375e+03
1.436709e+03,8.158378e+03
1.437674e+03,8.145743e+03
1.438638e+03,8.144743e+03
1.439602e+03,8.155836e+03
1.440566e+03,8.159405e+03
1.441531e+03,8.154850e+03
1.442495e+03,8.143967e+03
1.443459e+03,8.124405e+03
1.444423e+03,8.106290e+03
1.445388e+03,8.101475e+03
1.446352e+03,8.099219e+03
1.447316e+03,8.090771e+03
1.448280e+03,8.079453e+03
1.449245e+03,8.070706e+03
1.450209e+03,8.062569e+03
1.451173e+03,8.062339e+03
1.452137e+03,8.071493e+03
1.453101e+03,8.077404e+03
1.454066e+03,8.068504e+03
1.455030e+03,8.048122e+03
1.455994e+03,8.039821e+03
1.456958e+03,8.042478e+03
1.457923e+03,8.052044e+03
1.458887e+03,8.068107e+03
1.459851e+03,8.074708e+03
1.460815e+03,8.042561e+03
1.461780e+03,8.004296e+03
1.462744e+03,8.001903e+03
1.463708e+03,8.031631e+03
1.464672e+03,8.039005e+03
1.465636e+03,8.010495e+03
1.466601e+03,7.986007e+03
1.467565e+03,7.968673e+03
1.468529e+03,7.959271e+03
1.469493e+03,7.959989e+03
1.470458e+03,7.965208e+03
1.471422e+03,7.958246e+03
1.472386e+03,7.944140e+03
1.473350e+03,7.935733e+03
1.474315e+03,7.936238e+03
1.475279e+03,7.940648e+03
1.476243e+03,7.953857e+03
1.477207e+03,7.960144e+03
1.478172e+03,7.946374e+03
1.479136e+03,7.918457e+03
1.480100e+03,7.900388e+03
1.481064e+03,7.896491e+03
1.482028e+03,7.887749e+03
1.482993e+03,7.871668e+03
1.483957e+03,7.859022e+03
1.484921e+03,7.860604e+03
1.485885e+03,7.868719e+03
1.486850e+03,7.865558e+03
1.487814e+03,7.855173e+03
1.488778e+03,7.853563e+03
1.489742e+03,7.871967e+03
1.490707e+03,7.878440e+03
1.491671e+03,7.857247e+03
1.492635e+03,7.836912e+03
1.493599e+03,7.827534e+03
1.494563e+03,7.822868e+03
1.495528e+03,7.809421e+03
1.496492e+03,7.786553e+03
1.497456e+03,7.774982e+03
1.498420e+03,7.779259e+03
1.499385e+03,7.784060e+03
1.500349e+03,7.773437e+03
1.501313e+03,7.762609e+03
1.502277e+03,7.764354e+03
1.503242e+03,7.772513e+03
1.504206e+03,7.779234e+03
1.505170e+03,7.783056e+03
1.506134e+03,7.779110e+03
1.507099e+03,7.765874e+03
1.508063e+03,7.750384e+03
1.509027e+03,7.733460e+03
1.509991e+03,7.719878e+03
1.510955e+03,7.723733e+03
1.511920e+03,7.735844e+03
1.512884e+03,7.735201e+03
1.513848e+03,7.724536e+03
1.514812e+03,7.716384e+03
1.515777e+03,7.705112e+03
1.516741e+03,7.700690e+03
1.517705e+03,7.713498e+03
1.518669e+03,7.727494e+03
1.519634e+03,7.730638e+03
1.520598e+03,7.722444e+03
1.521562e+03,7.722295e+03
1.522526e+03,7.727188e+03
1.523490e+03,7.722082e+03
1.524455e+03,7.701715e+03
1.525419e+03,7.678101e+03
1.526383e+03,7.663523e+03
1.527347e+03,7.650984e+03
1.528312e+03,7.634927e+03
1.529276e+03,7.620417e+03
1.530240e+03,7.617562e+03
1.531204e+03,7.630372e+03
1.532169e+03,7.633813e+03
1.533133e+03,7.624193e+03
1.534097e+03,7.614246e+03
1.535061e+03,7.614948e+03
1.536026e+03,7.618291e+03
1.536990e+03,7.609744e+03
1.537954e+03,7.596110e+03
1.538918e+03,7.590242e+03
1.539882e+03,7.595669e+03
1.540847e+03,7.597393e+03
1.541811e+03,7.586864e+03
1.542775e+03,7.572362e+03
1.543739e+03,7.556154e+03
1.544704e+03,7.544241e+03
1.545668e+03,7.550028e+03
1.546632e+03,7.568687e+03
1.547596e+03,7.570360e+03
1.548561e+03,7.556619e+03
1.549525e+03,7.549059e+03
1.550489e+03,7.566218e+03
1.551453e+03,7.577125e+03
1.552417e+03,7.559843e+03
1.553382e+03,7.536251e+03
1.554346e+03,7.527903e+03
1.555310e+03,7.533489e+03
1.556274e+03,7.527763e+03
1.557239e+03,7.510372e+03
1.558203e+03,7.496568e+03
1.559167e+03,7.490225e+03
1.560131e+03,7.486642e+03
1.561096e+03,7.483841e+03
1.562060e+03,7.481960e+03
1.563024e+03,7.481044e+03
1.563988e+03,7.480386e+03
1.564953e+03,7.477314e+03
1.565917e+03,7.468407e+03
1.566881e+03,7.469129e+03
1.567845e+03,7.479976e+03
1.568809e+03,7.483506e+03
1.569774e+03,7.468758e+03
1.570738e+03,7.447729e+03
1.571702e+03,7.436395e+03
1.572666e+03,7.428173e+03
1.573631e+03,7.413827e+03
1.574595e+03,7.394773e+03
1.575559e+03,7.382686e+03
1.576523e+03,7.380968e+03
1.577488e+03,7.382845e+03
1.578452e+03,7.384380e+03
1.579416e+03,7.382140e+03
1.580380e+03,7.372775e+03
1.581344e+03,7.360400e+03
1.582309e+03,7.353265e+03
1.583273e+03,7.350878e+03
1.584237e+03,7.349774e+03
1.585201e+03,7.351675e+03
1.586166e+03,7.347714e+03
1.587130e+03,7.330994e+03
1.588094e+03,7.314864e+03
1.589058e+03,7.306671e+03
1.590023e+03,7.305364e+03
1.590987e+03,7.309803e+03
1.591951e+03,7.318771e+03
1.592915e+03,7.322546e+03
1.593880e+03,7.317263e+03
1.594844e+03,7.309203e+03
1.595808e+03,7.295319e+03
1.596772e+03,7.290685e+03
1.597736e+03,7.307221e+03
1.598701e+03,7.324216e+03
1.599665e+03,7.319416e+03
1.600629e+03,7.299282e+03
1.601593e+03,7.293208e+03
1.602558e+03,7.295327e+03
1.603522e+03,7.286187e+03
1.604486e+03,7.257655e+03
1.605450e+03,7.230273e+03
1.606415e+03,7.210109e+03
1.607379e+03,7.202936e+03
1.608343e+03,7.213284e+03
1.609307e+03,7.230910e+03
1.610271e+03,7.240149e+03
1.611236e+03,7.240717e+03
1.612200e+03,7.233017e+03
1.613164e+03,7.220954e+03
1.614128e+03,7.213966e+03
1.615093e+03,7.218982e+03
1.616057e+03,7.223355e+03
1.617021e+03,7.223188e+03
1.617985e+03,7.216154e+03
1.618950e+03,7.202165e+03
1.619914e+03,7.182476e+03
1.620878e+03,7.157640e+03
1.621842e+03,7.131029e+03
1.622807e+03,7.111186e+03
1.623771e+03,7.101208e+03
1.624735e+03,7.102307e+03
1.625699e+03,7.119515e+03
1.626663e+03,7.136795e+03
1.627628e+03,7.149009e+03
1.628592e+03,7.152504e+03
1.629556e+03,7.145280e+03
1.630520e+03,7.133053e+03
1.631485e+03,7.132364e+03
1.632449e+03,7.138561e+03
1.633413e+03,7.132726e+03
1.634377e+03,7.099896e+03
1.635342e+03,7.076665e+03
1.636306e+03,7.092197e+03
1.637270e+03,7.103759e+03
1.638234e+03,7.089534e+03
1.639198e+03,7.061780e+03
1.640163e+03,7.041757e+03
1.641127e+03,7.031944e+03
1.642091e+03,7.039415e+03
1.643055e+03,7.060059e+03
1.644020e+03,7.074668e+03
1.644984e+03,7.067705e+03
1.645948e+03,7.058764e+03
1.646912e+03,7.056445e+03
1.647877e+03,7.050729e+03
1.648841e+03,7.029970e+03
1.649805e+03,7.002220e+03
1.650769e+03,6.991887e+03
1.651734e+03,6.993612e+03
1.652698e+03,6.997814e+03
1.653662e+03,7.000930e+03
1.654626e+03,6.997460e+03
1.655590e+03,6.982135e+03
1.656555e+03,6.967486e+03
1.657519e+03,6.959325e+03
1.658483e+03,6.957676e+03
1.659447e+03,6.961370e+03
1.660412e+03,6.963537e+03
1.661376e+03,6.954775e+03
1.662340e+03,6.940134e+03
1.663304e+03,6.930492e+03
1.664269e+03,6.928377e+03
1.665233e+03,6.924528e+03
1.666197e+03,6.916150e+03
1.667161e+03,6.907892e+03
1.668125e+03,6.904511e+03
1.669090e+03,6.903092e+03
1.670054e+03,6.900767e+03
1.671018e+03,6.897201e+03
1.671982e+03,6.892881e+03
1.672947e+03,6.888367e+03
1.673911e+03,6.886169e+03
1.674875e+03,6.884619e+03
1.675839e+03,6.873566e+03
1.676804e+03,6.853821e+03
1.677768e+03,6.841530e+03
1.678732e+03,6.856794e+03
1.679696e+03,6.873455e+03
1.680661e+03,6.863380e+03
1.681625e+03,6.838211e+03
1.682589e+03,6.820350e+03
1.683553e+03,6.813265e+03
1.684517e+03,6.806303e+03
1.685482e+03,6.798788e+03
1.686446e+03,6.802184e+03
1.687410e+03,6.822533e+03
1.688374e+03,6.837302e+03
1.689339e+03,6.824705e+03
1.690303e+03,6.804968e+03
1.691267e+03,6.784772e+03
1.692231e+03,6.770476e+03
1.693196e+03,6.773728e+03
1.694160e+03,6.789374e+03
1.695124e+03,6.795901e+03
1.696088e+03,6.794107e+03
1.697052e+03,6.788398e+03
1.698017e+03,6.771006e+03
1.698981e+03,6.757211e+03
1.699945e+03,6.751809e+03
1.700909e+03,6.742646e+03
1.701874e+03,6.726251e+03
1.702838e+03,6.712909e+03
1.703802e+03,6.720288e+03
1.704766e+03,6.736099e+03
1.705731e+03,6.745844e+03
1.706695e+03,6.748638e+03
1.707659e+03,6.742591e+03
1.708623e+03,6.724092e+03
1.709588e+03,6.714664e+03
1.710552e+03,6.714509e+03
1.711516e+03,6.714720e+03
1.712480e+03,6.711655e+03
1.713444e+03,6.703839e+03
1.714409e+03,6.687982e+03
1.715373e+03,6.671402e+03
1.716337e+03,6.663423e+03
1.717301e+03,6.666048e+03
1.718266e+03,6.666644e+03
1.719230e+03,6.663610e+03
1.720194e+03,6.657090e+03
1.721158e+03,6.645670e+03
1.722123e+03,6.635151e+03
1.723087e+03,6.631666e+03
1.724051e+03,6.628443e+03
1.725015e+03,6.623255e+03
1.725979e+03,6.618093e+03
1.726944e+03,6.611229e+03
1.727908e+03,6.604267e+03
1.728872e+03,6.606550e+03
1.729836e+03,6.613096e+03
1.730801e+03,6.614018e+03
1.731765e+03,6.606844e+03
1.732729e+03,6.593064e+03
1.733693e+03,6.568070e+03
1.734658e+03,6.552030e+03
1.735622e+03,6.555107e+03
1.736586e+03,6.566283e+03
1.737550e+03,6.574576e+03
1.738515e+03,6.578753e+03
1.739479e+03,6.577976e+03
1.740443e+03,6.571430e+03
1.741407e+03,6.557362e+03
1.742371e+03,6.533894e+03
1.743336e+03,6.525309e+03
1.744300e+03,6.532683e+03
1.745264e+03,6.537311e+03
1.746228e+03,6.530500e+03
1.747193e+03,6.520456e+03
1.748157e+03,6.513125e+03
1.749121e+03,6.507502e+03
1.750085e+03,6.492595e+03
1.751050e+03,6.470336e+03
1.752014e+03,6.468555e+03
1.752978e+03,6.482634e+03
1.753942e+03,6.501040e+03
1.754906e+03,6.520493e+03
1.755871e+03,6.523286e+03
1.756835e+03,6.496487e+03
1.757799e+03,6.467591e+03
1.758763e+03,6.446932e+03
1.759728e+03,6.433908e+03
1.760692e+03,6.422581e+03
1.761656e+03,6.420938e+03
1.762620e+03,6.445853e+03
1.763585e+03,6.475908e+03
1.764549e+03,6.479089e+03
1.765513e+03,6.453250e+03
1.766477e+03,6.431182e+03
1.767442e+03,6.415150e+03
1.768406e+03,6.409815e+03
1.769370e+03,6.418673e+03
1.770334e+03,6.427438e+03
1.771298e+03,6.427458e+03
1.772263e+03,6.421131e+03
1.773227e+03,6.408896e+03
1.774191e+03,6.397042e+03
1.775155e+03,6.395687e+03
1.776120e+03,6.396592e+03
1.777084e+03,6.388431e+03
1.778048e+03,6.373797e+03
1.779012e+03,6.358132e+03
1.779977e+03,6.339396e+03
1.780941e+03,6.344431e+03
1.781905e+03,6.369662e+03
1.782869e+03,6.382476e+03
1.783833e+03,6.365271e+03
1.784798e+03,6.346372e+03
1.785762e+03,6.342271e+03
1.786726e+03,6.340919e+03
1.787690e+03,6.337477e+03
1.788655e+03,6.334372e+03
1.789619e+03,6.335535e+03
1.790583e+03,6.338018e+03
1.791547e+03,6.333559e+03
1.792512e+03,6.323311e+03
1.793476e+03,6.313175e+03
1.794440e+03,6.299958e+03
1.795404e+03,6.290799e+03
1.796369e+03,6.284043e+03
1.797333e+03,6.278017e+03
1.798297e+03,6.272386e+03
1.799261e+03,6.268713e+03
1.800225e+03,6.271473e+03
1.801190e+03,6.267351e+03
1.802154e+03,6.246651e+03
1.803118e+03,6.218459e+03
1.804082e+03,6.211139e+03
1.805047e+03,6.219607e+03
1.806011e+03,6.232625e+03
1.806975e+03,6.246576e+03
1.807939e+03,6.243655e+03
1.808904e+03,6.212464e+03
1.809868e+03,6.193783e+03
1.810832e+03,6.193881e+03
1.811796e+03,6.199815e+03
1.812760e+03,6.201212e+03
1.813725e+03,6.203705e+03
1.814689e+03,6.215542e+03
1.815653e+03,6.226279e+03
1.816617e+03,6.229015e+03
1.817582e+03,6.224203e+03
1.818546e+03,6.208215e+03
1.819510e+03,6.185572e+03
1.820474e+03,6.167700e+03
1.821439e+03,6.157673e+03
1.822403e+03,6.147925e+03
1.823367e+03,6.136221e+03
1.824331e+03,6.136018e+03
1.825296e+03,6.148056e+03
1.826260e+03,6.158389e+03
1.827224e+03,6.163531e+03
1.828188e+03,6.165446e+03
1.829152e+03,6.159946e+03
1.830117e+03,6.148811e+03
1.831081e+03,6.128995e+03
1.832045e+03,6.105683e+03
1.833009e+03,6.104904e+03
1.833974e+03,6.120360e+03
1.834938e+03,6.131780e+03
1.835902e+03,6.132430e+03
1.836866e+03,6.119480e+03
1.837831e+03,6.090837e+03
1.838795e+03,6.072245e+03
1.839759e+03,6.071939e+03
1.840723e+03,6.079882e+03
1.841688e+03,6.091517e+03
1.842652e+03,6.101795e+03
1.843616e+03,6.110110e+03
1.844580e+03,6.106604e+03
1.845544e+03,6.073669e+03
1.846509e+03,6.033163e+03
1.847473e+03,6.024366e+03
1.848437e+03,6.035127e+03
1.849401e+03,6.046416e+03
1.850366e+03,6.057417e+03
1.851330e+03,6.053796e+03
1.852294e+03,6.038915e+03
1.853258e+03,6.024817e+03
1.854223e+03,6.013966e+03
1.855187e+03,6.007415e+03
1.856151e+03,6.007518e+03
1.857115e+03,6.002203e+03
1.858079e+03,5.986206e+03
1.859044e+03,5.971101e+03
1.860008e+03,5.978183e+03
1.860972e+03,5.989027e+03
1.861936e+03,5.981442e+03
1.862901e+03,5.966888e+03
1.863865e+03,5.957710e+03
1.864829e+03,5.950541e+03
1.865793e+03,5.956329e+03
1.866758e+03,5.969721e+03
1.867722e+03,5.966412e+03
1.868686e+03,5.933744e+03
1.869650e+03,5.914727e+03
1.870615e+03,5.911741e+03
1.871579e+03,5.912527e+03
1.872543e+03,5.917297e+03
1.873507e+03,5.925934e+03
1.874471e+03,5.935397e+03
1.875436e+03,5.938960e+03
1.876400e+03,5.936177e+03
1.877364e+03,5.930605e+03
1.878328e+03,5.927057e+03
1.879293e+03,5.921912e+03
1.880257e+03,5.901025e+03
1.881221e+03,5.873037e+03
1.882185e+03,5.861615e+03
1.883150e+03,5.869283e+03
1.884114e+03,5.872583e+03
1.885078e+03,5.870197e+03
1.886042e+03,5.863810e+03
1.887006e+03,5.853107e+03
1.887971e+03,5.842207e+03
1.888935e+03,5.834436e+03
1.889899e+03,5.831219e+03
1.890863e+03,5.830231e+03
1.891828e+03,5.827623e+03
1.892792e+03,5.823180e+03
1.893756e+03,5.817534e+03
1.894720e+03,5.817080e+03
1.895685e+03,5.820172e+03
1.896649e+03,5.818228e+03
1.897613e+03,5.811327e+03
1.898577e+03,5.809452e+03
1.899542e+03,5.809995e+03
1.900506e+03,5.803529e+03
1.901470e+03,5.786425e+03
1.902434e+03,5.783046e+03
1.903398e+03,5.792867e+03
1.904363e+03,5.797013e+03
1.905327e+03,5.791190e+03
1.906291e+03,5.783056e+03
1.907255e+03,5.768384e+03
1.908220e+03,5.758080e+03
1.909184e+03,5.755732e+03
1.910148e+03,5.751990e+03
1.911112e+03,5.737052e+03
1.912077e+03,5.722725e+03
1.913041e+03,5.720290e+03
1.914005e+03,5.722186e+03
1.914969e+03,5.722263e+03
1.915933e+03,5.718862e+03
1.916898e+03,5.697815e+03
1.917862e+03,5.672157e+03
1.918826e+03,5.670849e+03
1.919790e+03,5.700968e+03
1.920755e+03,5.704604e+03
1.921719e+03,5.680234e+03
1.922683e+03,5.670718e+03
1.923647e+03,5.687333e+03
1.924612e+03,5.696430e+03
1.925576e+03,5.670974e+03
1.926540e+03,5.657048e+03
1.927504e+03,5.659460e+03
1.928469e+03,5.661638e+03
1.929433e+03,5.641636e+03
1.930397e+03,5.622879e+03
1.931361e+03,5.629992e+03
1.932325e+03,5.639648e+03
1.933290e+03,5.635565e+03
1.934254e+03,5.626617e+03
1.935218e+03,5.621966e+03
1.936182e+03,5.617240e+03
1.937147e+03,5.615859e+03
1.938111e+03,5.617893e+03
1.939075e+03,5.603975e+03
1.940039e+03,5.580624e+03
1.941004e+03,5.575083e+03
1.941968e+03,5.586818e+03
1.942932e+03,5.594181e+03
1.943896e+03,5.596337e+03
1.944860e+03,5.583872e+03
1.945825e+03,5.557407e+03
1.946789e+03,5.537208e+03
1.947753e+03,5.537776e+03
1.948717e+03,5.542485e+03
1.949682e+03,5.545453e+03
1.950646e+03,5.547694e+03
1.951610e+03,5.551711e+03
1.952574e+03,5.552788e+03
1.953539e+03,5.539824e+03
1.954503e+03,5.523142e+03
1.955467e+03,5.517141e+03
1.956431e+03,5.517009e+03
1.957396e+03,5.501329e+03
1.958360e+03,5.478121e+03
1.959324e+03,5.473838e+03
1.960288e+03,5.488921e+03
1.961252e+03,5.495384e+03
1.962217e+03,5.488048e+03
1.963181e+03,5.478405e+03
1.964145e+03,5.466920e+03
1.965109e+03,5.458571e+03
1.966074e+03,5.459149e+03
1.967038e+03,5.463065e+03
1.968002e+03,5.464108e+03
1.968966e+03,5.465663e+03
1.969931e+03,5.470781e+03
1.970895e+03,5.474649e+03
1.971859e+03,5.484445e+03
1.972823e+03,5.488738e+03
1.973787e+03,5.479083e+03
1.974752e+03,5.461273e+03
1.975716e+03,5.443327e+03
1.976680e+03,5.424521e+03
1.977644e+03,5.402873e+03
1.978609e+03,5.388817e+03
1.979573e+03,5.400810e+03
1.980537e+03,5.427313e+03
1.981501e+03,5.432284e+03
1.982466e+03,5.422344e+03
1.983430e+03,5.416903e+03
1.984394e+03,5.417564e+03
1.985358e+03,5.416319e+03
1.986323e+03,5.411987e+03
1.987287e+03,5.400410e+03
1.988251e+03,5.376965e+03
1.989215e+03,5.363167e+03
1.990179e+03,5.364462e+03
1.991144e+03,5.365627e+03
1.992108e+03,5.365524e+03
1.993072e+03,5.360470e+03
1.994036e+03,5.334124e+03
1.995001e+03,5.318628e+03
1.995965e+03,5.323875e+03
1.996929e+03,5.337154e+03
1.997893e+03,5.346110e+03
1.998858e+03,5.350536e+03
1.999822e+03,5.354284e+03
2.000786e+03,5.348627e+03
2.001750e+03,5.325322e+03
2.002714e+03,5.298284e+03
2.003679e+03,5.289347e+03
2.004643e+03,5.290592e+03
2.005607e+03,5.297452e+03
2.006571e+03,5.307524e+03
2.007536e+03,5.308325e+03
2.008500e+03,5.301443e+03
2.009464e+03,5.287150e+03
2.010428e+03,5.268263e+03
2.011393e+03,5.256958e+03
2.012357e+03,5.254041e+03
2.013321e+03,5.245979e+03
2.014285e+03,5.229542e+03
2.015250e+03,5.220288e+03
2.016214e+03,5.238694e+03
2.017178e+03,5.239549e+03
2.018142e+03,5.220757e+03
2.019106e+03,5.203546e+03
2.020071e+03,5.196914e+03
2.021035e+03,5.196300e+03
2.021999e+03,5.202805e+03
2.022963e+03,5.206093e+03
2.023928e+03,5.204041e+03
2.024892e+03,5.200282e+03
2.025856e+03,5.198419e+03
2.026820e+03,5.194959e+03
2.027785e+03,5.185047e+03
2.028749e+03,5.174804e+03
2.029713e+03,5.179742e+03
2.030677e+03,5.188690e+03
2.031641e+03,5.183642e+03
2.032606e+03,5.169905e+03
2.033570e+03,5.155414e+03
2.034534e+03,5.141774e+03
2.035498e+03,5.146144e+03
2.036463e+03,5.159322e+03
2.037427e+03,5.155702e+03
2.038391e+03,5.137504e+03
2.039355e+03,5.126210e+03
2.040320e+03,5.120909e+03
2.041284e+03,5.113775e+03
2.042248e+03,5.101393e+03
2.043212e+03,5.089122e+03
2.044177e+03,5.078067e+03
2.045141e+03,5.087327e+03
2.046105e+03,5.117808e+03
2.047069e+03,5.135177e+03
2.048033e+03,5.109710e+03
2.048998e+03,5.085658e+03
2.049962e+03,5.067735e+03
2.050926e+03,5.057896e+03
2.051890e+03,5.066292e+03
2.052854e+03,5.067608e+03
2.053819e+03,5.048997e+03
2.054783e+03,5.029395e+03
2.055747e+03,5.021693e+03
2.056711e+03,5.022242e+03
2.057676e+03,5.029696e+03
2.058640e+03,5.040657e+03
2.059604e+03,5.051285e+03
2.060568e+03,5.055874e+03
2.061533e+03,5.045048e+03
2.062497e+03,5.030825e+03
2.063461e+03,5.025651e+03
2.064425e+03,5.024009e+03
2.065390e+03,5.020201e+03
2.066354e+03,5.012143e+03
2.067318e+03,4.992280e+03
2.068282e+03,4.971095e+03
2.069247e+03,4.968045e+03
2.070211e+03,4.977400e+03
2.071175e+03,4.966579e+03
2.072139e+03,4.946064e+03
2.073104e+03,4.940955e+03
2.074068e+03,4.953329e+03
2.075032e+03,4.963560e+03
2.075996e+03,4.968891e+03
2.076960e+03,4.962990e+03
2.077925e+03,4.944397e+03
2.078889e+03,4.940312e+03
2.079853e+03,4.953025e+03
2.080817e+03,4.945379e+03
2.081782e+03,4.914564e+03
2.082746e+03,4.896933e+03
2.083710e+03,4.921188e+03
2.084674e+03,4.922849e+03
2.085639e+03,4.901300e+03
2.086603e+03,4.887596e+03
2.087567e+03,4.894190e+03
2.088531e+03,4.902743e+03
2.089496e+03,4.909981e+03
2.090460e+03,4.904967e+03
2.091424e+03,4.887451e+03
2.092388e+03,4.873965e+03
2.093353e+03,4.874031e+03
2.094317e+03,4.873991e+03
2.095281e+03,4.863718e+03
2.096245e+03,4.854369e+03
2.097209e+03,4.862474e+03
2.098174e+03,4.870356e+03
2.099138e+03,4.873795e+03
2.100102e+03,4.871200e+03
2.101066e+03,4.857677e+03
2.102031e+03,4.839426e+03
2.102995e+03,4.817165e+03
2.103959e+03,4.798739e+03
2.104923e+03,4.790791e+03
2.105887e+03,4.794462e+03
2.106852e+03,4.807569e+03
2.107816e+03,4.821665e+03
2.108780e+03,4.835771e+03
2.109744e+03,4.843328e+03
2.110708e+03,4.826030e+03
2.111673e+03,4.800474e+03
2.112637e+03,4.785525e+03
2.113601e+03,4.774673e+03
2.114565e+03,4.755944e+03
2.115530e+03,4.735313e+03
2.116494e+03,4.722822e+03
2.117458e+03,4.727298e+03
2.118422e+03,4.751538e+03
2.119387e+03,4.786485e+03
2.120351e+03,4.806445e+03
2.121315e+03,4.809231e+03
2.122279e+03,4.800145e+03
2.123244e+03,4.780125e+03
2.124208e+03,4.760359e+03
2.125172e+03,4.743425e+03
2.126136e+03,4.733438e+03
2.127101e+03,4.732956e+03
2.128065e+03,4.718008e+03
2.129029e+03,4.691911e+03
2.129993e+03,4.695731e+03
2.130958e+03,4.732775e+03
2.131922e+03,4.742404e+03
2.132886e+03,4.719957e+03
2.133850e+03,4.702782e+03
2.134814e+03,4.699491e+03
2.135779e+03,4.701296e+03
2.136743e+03,4.704159e+03
2.137707e+03,4.703896e+03
2.138671e+03,4.701778e+03
2.139636e+03,4.692460e+03
2.140600e+03,4.665774e+03
2.141564e+03,4.647071e+03
2.142528e+03,4.638696e+03
2.143493e+03,4.639062e+03
2.144457e+03,4.649335e+03
2.145421e+03,4.648610e+03
2.146385e+03,4.630088e+03
2.147350e+03,4.614847e+03
2.148314e+03,4.610677e+03
2.149278e+03,4.616204e+03
2.150242e+03,4.632052e+03
2.151207e+03,4.642057e+03
2.152171e+03,4.642601e+03
2.153135e+03,4.633267e+03
2.154099e+03,4.616123e+03
2.155063e+03,4.596514e+03
2.156028e+03,4.574636e+03
2.156992e+03,4.564816e+03
2.157956e+03,4.579581e+03
2.158920e+03,4.591839e+03
2.159885e+03,4.587839e+03
2.160849e+03,4.582674e+03
2.161813e+03,4.584045e+03
2.162777e+03,4.583938e+03
2.163741e+03,4.575882e+03
2.164706e+03,4.566409e+03
2.165670e+03,4.563050e+03
2.166634e+03,4.561507e+03
2.167598e+03,4.549563e+03
2.168563e+03,4.539229e+03
2.169527e+03,4.530628e+03
2.170491e+03,4.526123e+03
2.171455e+03,4.540531e+03
2.172420e+03,4.556478e+03
2.173384e+03,4.567917e+03
2.174348e+03,4.567986e+03
2.175312e+03,4.538279e+03
2.176277e+03,4.504105e+03
2.177241e+03,4.498019e+03
2.178205e+03,4.491830e+03
2.179169e+03,4.466265e+03
2.180134e+03,4.443062e+03
2.181098e+03,4.457097e+03
2.182062e+03,4.471976e+03
2.183026e+03,4.456073e+03
2.183990e+03,4.433241e+03
2.184955e+03,4.445499e+03
2.185919e+03,4.461568e+03
2.186883e+03,4.451901e+03
2.187847e+03,4.433554e+03
2.188812e+03,4.429337e+03
2.189776e+03,4.432151e+03
2.190740e+03,4.435508e+03
2.191704e+03,4.435182e+03
2.192668e+03,4.429892e+03
2.193633e+03,4.421112e+03
2.194597e+03,4.406058e+03
2.195561e+03,4.392943e+03
2.196525e+03,4.386186e+03
2.197490e+03,4.384406e+03
2.198454e+03,4.387438e+03
2.199418e+03,4.393546e+03
2.200382e+03,4.405237e+03
2.201347e+03,4.415946e+03
2.202311e+03,4.400672e+03
2.203275e+03,4.382711e+03
2.204239e+03,4.386326e+03
2.205204e+03,4.393964e+03
2.206168e+03,4.390031e+03
2.207132e+03,4.381068e+03
2.208096e+03,4.368517e+03
2.209061e+03,4.353432e+03
2.210025e+03,4.341601e+03
2.210989e+03,4.330224e+03
2.211953e+03,4.310319e+03
2.212917e+03,4.302878e+03
2.213882e+03,4.319259e+03
2.214846e+03,4.342388e+03
2.215810e+03,4.351884e+03
2.216774e+03,4.344271e+03
2.217739e+03,4.322447e+03
2.218703e+03,4.301278e+03
2.219667e+03,4.311551e+03
2.220631e+03,4.327367e+03
2.221595e+03,4.319932e+03
2.222560e+03,4.302626e+03
2.223524e+03,4.294541e+03
2.224488e+03,4.288998e+03
2.225452e+03,4.282349e+03
2.226417e+03,4.273472e+03
2.227381e+03,4.251099e+03
2.228345e+03,4.234767e+03
2.229309e+03,4.258583e+03
2.230274e+03,4.283848e+03
2.231238e+03,4.275699e+03
2.232202e+03,4.253751e+03
2.233166e+03,4.249562e+03
2.234131e+03,4.253254e+03
2.235095e+03,4.257114e+03
2.236059e+03,4.256730e+03
2.237023e+03,4.233437e+03
2.237988e+03,4.216110e+03
2.238952e+03,4.228302e+03
2.239916e+03,4.240691e+03
2.240880e+03,4.209761e+03
2.241844e+03,4.177747e+03
2.242809e+03,4.176493e+03
2.243773e+03,4.184454e+03
2.244737e+03,4.178496e+03
2.245701e+03,4.169205e+03
2.246666e+03,4.165942e+03
2.247630e+03,4.160575e+03
2.248594e+03,4.149343e+03
2.249558e+03,4.142491e+03
2.250522e+03,4.150235e+03
2.251487e+03,4.161471e+03
2.252451e+03,4.168871e+03
2.253415e+03,4.165759e+03
2.254379e+03,4.139819e+03
2.255344e+03,4.125543e+03
2.256308e+03,4.141114e+03
2.257272e+03,4.156531e+03
2.258236e+03,4.135577e+03
2.259201e+03,4.115350e+03
2.260165e+03,4.105661e+03
2.261129e+03,4.102817e+03
2.262093e+03,4.109948e+03
2.263058e+03,4.110726e+03
2.264022e+03,4.103931e+03
2.264986e+03,4.096810e+03
2.265950e+03,4.088926e+03
2.266915e+03,4.082263e+03
2.267879e+03,4.073308e+03
2.268843e+03,4.068499e+03
2.269807e+03,4.080062e+03
2.270771e+03,4.083481e+03
2.271736e+03,4.066614e+03
2.272700e+03,4.061254e+03
2.273664e+03,4.073558e+03
2.274628e+03,4.079777e+03
2.275593e+03,4.064870e+03
2.276557e+03,4.053563e+03
2.277521e+03,4.052789e+03
2.278485e+03,4.051478e+03
2.279449e+03,4.039462e+03
2.280414e+03,4.041674e+03
2.281378e+03,4.058030e+03
2.282342e+03,4.060887e+03
2.283306e+03,4.015966e+03
2.284271e+03,3.993155e+03
2.285235e+03,3.990516e+03
2.286199e+03,3.995323e+03
2.287163e+03,4.013652e+03
2.288128e+03,4.018770e+03
2.289092e+03,4.008082e+03
2.290056e+03,3.992970e+03
2.291020e+03,3.977001e+03
2.291985e+03,3.966632e+03
2.292949e+03,3.964956e+03
2.293913e+03,3.974335e+03
2.294877e+03,3.991188e+03
2.295842e+03,3.996604e+03
2.296806e+03,3.989605e+03
2.297770e+03,3.985829e+03
2.298734e+03,3.985253e+03
2.299698e+03,3.988866e+03
2.300663e+03,3.994597e+03
2.301627e+03,3.967325e+03
2.302591e+03,3.923404e+03
2.303555e+03,3.906542e+03
2.304520e+03,3.912595e+03
2.305484e+03,3.921203e+03
2.306448e+03,3.928929e+03
2.307412e+03,3.925609e+03
2.308376e+03,3.915105e+03
2.309341e+03,3.912579e+03
2.310305e+03,3.909952e+03
2.311269e+03,3.894032e+03
2.312233e+03,3.880482e+03
2.313198e+03,3.897855e+03
2.314162e+03,3.920243e+03
2.315126e+03,3.921216e+03
2.316090e+03,3.910790e+03
2.317055e+03,3.895476e+03
2.318019e+03,3.882374e+03
2.318983e+03,3.875388e+03
2.319947e+03,3.871463e+03
2.320912e+03,3.875810e+03
2.321876e+03,3.879316e+03
2.322840e+03,3.871431e+03
2.323804e+03,3.861815e+03
2.324769e+03,3.854394e+03
2.325733e+03,3.852885e+03
2.326697e+03,3.862451e+03
2.327661e+03,3.864879e+03
2.328625e+03,3.849927e+03
2.329590e+03,3.836798e+03
2.330554e+03,3.847918e+03
2.331518e+03,3.846636e+03
2.332482e+03,3.826332e+03
2.333447e+03,3.810379e+03
2.334411e+03,3.811078e+03
2.335375e+03,3.816474e+03
2.336339e+03,3.825025e+03
2.337303e+03,3.821378e+03
2.338268e+03,3.788864e+03
2.339232e+03,3.768539e+03
2.340196e+03,3.761632e+03
2.341160e+03,3.770608e+03
2.342125e+03,3.798312e+03
2.343089e+03,3.811304e+03
2.344053e+03,3.806787e+03
2.345017e+03,3.790969e+03
2.345982e+03,3.768768e+03
2.346946e+03,3.759379e+03
2.347910e+03,3.760453e+03
2.348874e+03,3.757944e+03
2.349839e+03,3.748268e+03
2.350803e+03,3.731386e+03
2.351767e+03,3.715435e+03
2.352731e+03,3.717983e+03
2.353696e+03,3.730207e+03
2.354660e+03,3.731946e+03
2.355624e+03,3.729334e+03
2.356588e+03,3.740029e+03
2.357552e+03,3.751375e+03
2.358517e+03,3.752882e+03
2.359481e+03,3.746603e+03
2.360445e+03,3.723574e+03
2.361409e+03,3.705636e+03
2.362374e+03,3.707466e+03
2.363338e+03,3.710098e+03
2.364302e+03,3.703770e+03
2.365266e+03,3.692382e+03
2.366230e+03,3.670834e+03
2.367195e+03,3.659333e+03
2.368159e+03,3.682755e+03
2.369123e+03,3.686095e+03
2.370087e+03,3.664331e+03
2.371052e+03,3.651835e+03
2.372016e+03,3.672818e+03
2.372980e+03,3.677511e+03
2.373944e+03,3.663452e+03
2.374909e+03,3.651198e+03
2.375873e+03,3.645418e+03
2.376837e+03,3.661807e+03
2.377801e+03,3.692034e+03
2.378766e+03,3.689303e+03
2.379730e+03,3.650511e+03
2.380694e+03,3.626815e+03
2.381658e+03,3.616468e+03
2.382623e+03,3.609800e+03
2.383587e+03,3.604800e+03
2.384551e+03,3.600993e+03
2.385515e+03,3.597891e+03
2.386479e+03,3.600305e+03
2.387444e+03,3.605871e+03
2.388408e+03,3.618584e+03
2.389372e+03,3.625524e+03
2.390336e+03,3.603658e+03
2.391301e+03,3.580006e+03
2.392265e+03,3.582495e+03
2.393229e+03,3.586987e+03
2.394193e+03,3.578273e+03
2.395157e+03,3.572410e+03
2.396122e+03,3.584172e+03
2.397086e+03,3.592884e+03
2.398050e+03,3.593143e+03
2.399014e+03,3.592517e+03
2.399979e+03,3.594810e+03
2.400943e+03,3.582826e+03
2.401907e+03,3.552215e+03
2.402871e+03,3.542178e+03
2.403836e+03,3.562903e+03
2.404800e+03,3.565083e+03
2.405764e+03,3.545766e+03
2.406728e+03,3.538259e+03
2.407693e+03,3.540078e+03
2.408657e+03,3.523598e+03
2.409621e+03,3.497130e+03
2.410585e+03,3.497273e+03
2.411550e+03,3.515798e+03
2.412514e+03,3.529581e+03
2.413478e+03,3.534241e+03
2.414442e+03,3.509410e+03
2.415406e+03,3.480435e+03
2.416371e+03,3.474714e+03
2.417335e+03,3.480197e+03
2.418299e+03,3.480179e+03
2.419263e+03,3.482906e+03
2.420228e+03,3.494978e+03
2.421192e+03,3.501110e+03
2.422156e+03,3.476099e+03
2.423120e+03,3.468312e+03
2.424084e+03,3.489147e+03
2.425049e+03,3.494589e+03
2.426013e+03,3.454794e+03
2.426977e+03,3.429980e+03
2.427941e+03,3.427942e+03
2.428906e+03,3.432535e+03
2.429870e+03,3.438690e+03
2.430834e+03,3.428633e+03
2.431798e+03,3.409328e+03
2.432763e+03,3.420583e+03
2.433727e+03,3.457736e+03
2.434691e+03,3.454230e+03
2.435655e+03,3.428596e+03
2.436620e+03,3.421142e+03
2.437584e+03,3.424601e+03
2.438548e+03,3.414886e+03
2.439512e+03,3.406530e+03
2.440477e+03,3.414688e+03
2.441441e+03,3.422683e+03
2.442405e+03,3.403308e+03
2.443369e+03,3.395237e+03
2.444333e+03,3.420998e+03
2.445298e+03,3.441965e+03
2.446262e+03,3.414296e+03
2.447226e+03,3.388760e+03
2.448190e+03,3.376059e+03
2.449155e+03,3.371854e+03
2.450119e+03,3.382047e+03
2.451083e+03,3.389954e+03
2.452047e+03,3.393974e+03
2.453011e+03,3.389624e+03
2.453976e+03,3.376728e+03
2.454940e+03,3.375995e+03
2.455904e+03,3.382558e+03
2.456868e+03,3.366291e+03
2.457833e+03,3.335824e+03
2.458797e+03,3.334446e+03
2.459761e+03,3.345312e+03
2.460725e+03,3.341969e+03
2.461690e+03,3.332172e+03
2.462654e+03,3.324516e+03
2.463618e+03,3.323047e+03
2.464582e+03,3.333655e+03
2.465547e+03,3.343311e+03
2.466511e+03,3.327589e+03
2.467475e+03,3.320215e+03
2.468439e+03,3.329134e+03
2.469404e+03,3.333784e+03
2.470368e+03,3.320734e+03
2.471332e+03,3.319351e+03
2.472296e+03,3.326592e+03
2.473260e+03,3.324173e+03
2.474225e+03,3.307259e+03
2.475189e+03,3.295482e+03
2.476153e+03,3.290681e+03
2.477117e+03,3.293654e+03
2.478082e+03,3.298807e+03
2.479046e+03,3.290171e+03
2.480010e+03,3.280029e+03
2.480974e+03,3.291356e+03
2.481938e+03,3.305046e+03
2.482903e+03,3.290658e+03
2.483867e+03,3.274857e+03
2.484831e+03,3.270911e+03
2.485795e+03,3.271045e+03
2.486760e+03,3.279844e+03
2.487724e+03,3.273927e+03
2.488688e+03,3.251035e+03
2.489652e+03,3.232925e+03
2.490617e+03,3.228949e+03
2.491581e+03,3.227924e+03
2.492545e+03,3.230376e+03
2.493509e+03,3.228903e+03
2.494474e+03,3.221295e+03
2.495438e+03,3.229001e+03
2.496402e+03,3.238984e+03
2.497366e+03,3.212198e+03
2.498331e+03,3.175813e+03
2.499295e+03,3.191825e+03
2.500259e+03,3.216483e+03
2.501223e+03,3.215092e+03
2.502188e+03,3.206623e+03
2.503152e+03,3.209974e+03
2.504116e+03,3.211625e+03
2.505080e+03,3.207922e+03
2.506044e+03,3.201263e+03
2.507009e+03,3.184792e+03
2.507973e+03,3.180474e+03
2.508937e+03,3.189260e+03
2.509901e+03,3.193540e+03
2.510865e+03,3.187784e+03
2.511830e+03,3.180356e+03
2.512794e+03,3.171997e+03
2.513758e+03,3.175399e+03
2.514722e+03,3.186350e+03
2.515687e+03,3.188786e+03
2.516651e+03,3.183026e+03
2.517615e+03,3.167559e+03
2.518579e+03,3.153321e+03
2.519544e+03,3.158816e+03
2.520508e+03,3.163388e+03
2.521472e+03,3.161027e+03
2.522436e+03,3.151286e+03
2.523401e+03,3.122208e+03
2.524365e+03,3.113850e+03
2.525329e+03,3.125259e+03
2.526293e+03,3.138109e+03
2.527258e+03,3.151209e+03
2.528222e+03,3.152845e+03
2.529186e+03,3.145841e+03
2.530150e+03,3.140383e+03
2.531115e+03,3.136750e+03
2.532079e+03,3.122815e+03
2.533043e+03,3.110674e+03
2.534007e+03,3.111576e+03
2.534971e+03,3.115369e+03
2.535936e+03,3.115453e+03
2.536900e+03,3.114771e+03
2.537864e+03,3.113831e+03
2.538828e+03,3.114081e+03
2.539792e+03,3.111680e+03
2.540757e+03,3.106627e+03
2.541721e+03,3.099140e+03
2.542685e+03,3.104290e+03
2.543649e+03,3.122245e+03
2.544614e+03,3.118789e+03
2.545578e+03,3.099093e+03
2.546542e+03,3.091949e+03
2.547506e+03,3.093147e+03
2.548471e+03,3.091637e+03
2.549435e+03,3.084484e+03
2.550399e+03,3.065206e+03
2.551363e+03,3.050894e+03
2.552328e+03,3.064996e+03
2.553292e+03,3.068674e+03
2.554256e+03,3.044488e+03
2.555220e+03,3.031457e+03
2.556185e+03,3.035629e+03
2.557149e+03,3.048020e+03
2.558113e+03,3.065313e+03
2.559077e+03,3.068771e+03
2.560042e+03,3.059535e+03
2.561006e+03,3.049759e+03
2.561970e+03,3.041880e+03
2.562934e+03,3.023675e+03
2.563898e+03,3.007933e+03
2.564863e+03,3.010926e+03
2.565827e+03,3.015912e+03
2.566791e+03,3.016061e+03
2.567755e+03,3.020437e+03
2.568719e+03,3.028022e+03
2.569684e+03,3.025451e+03
2.570648e+03,3.002817e+03
2.571612e+03,2.994505e+03
2.572576e+03,3.000684e+03
2.573541e+03,2.996731e+03
2.574505e+03,2.981643e+03
2.575469e+03,2.986507e+03
2.576433e+03,3.000594e+03
2.577398e+03,3.014582e+03
2.578362e+03,3.022595e+03
2.579326e+03,3.010410e+03
2.580290e+03,3.001186e+03
2.581255e+03,3.003972e+03
2.582219e+03,3.003690e+03
2.583183e+03,2.987677e+03
2.584147e+03,2.975099e+03
2.585112e+03,2.970461e+03
2.586076e+03,2.962216e+03
2.587040e+03,2.948098e+03
2.588004e+03,2.953078e+03
2.588969e+03,2.964202e+03
2.589933e+03,2.955779e+03
2.590897e+03,2.942061e+03
2.591861e+03,2.956248e+03
2.592825e+03,2.975948e+03
2.593790e+03,2.988562e+03
2.594754e+03,2.985566e+03
2.595718e+03,2.953770e+03
2.596682e+03,2.930136e+03
2.597646e+03,2.920495e+03
2.598611e+03,2.924857e+03
2.599575e+03,2.942104e+03
2.600539e+03,2.950046e+03
2.601503e+03,2.945604e+03
2.602468e+03,2.933797e+03
2.603432e+03,2.918737e+03
2.604396e+03,2.910945e+03
2.605360e+03,2.910958e+03
2.606325e+03,2.925871e+03
2.607289e+03,2.929063e+03
2.608253e+03,2.907743e+03
2.609217e+03,2.894800e+03
2.610182e+03,2.907387e+03
2.611146e+03,2.895609e+03
2.612110e+03,2.864665e+03
2.613074e+03,2.866347e+03
2.614039e+03,2.900865e+03
2.615003e+03,2.922981e+03
2.615967e+03,2.926411e+03
2.616931e+03,2.904254e+03
2.617896e+03,2.877106e+03
2.618860e+03,2.864940e+03
2.619824e+03,2.864847e+03
2.620788e+03,2.874745e+03
2.621752e+03,2.878252e+03
2.622717e+03,2.862775e+03
2.623681e+03,2.864161e+03
2.624645e+03,2.878884e+03
2.625609e+03,2.869763e+03
2.626573e+03,2.841202e+03
2.627538e+03,2.838786e+03
2.628502e+03,2.851705e+03
2.629466e+03,2.859620e+03
2.630430e+03,2.861610e+03
2.631395e+03,2.852767e+03
2.632359e+03,2.838535e+03
2.633323e+03,2.816771e+03
2.634287e+03,2.813760e+03
2.635252e+03,2.834736e+03
2.636216e+03,2.849901e+03
2.637180e+03,2.851207e+03
2.638144e+03,2.848729e+03
2.639109e+03,2.840561e+03
2.640073e+03,2.817451e+03
2.641037e+03,2.798797e+03
2.642001e+03,2.810618e+03
2.642966e+03,2.825978e+03
2.643930e+03,2.828846e+03
2.644894e+03,2.829460e+03
2.645858e+03,2.837650e+03
2.646823e+03,2.836425e+03
2.647787e+03,2.823984e+03
2.648751e+03,2.810110e+03
2.649715e+03,2.796396e+03
2.650679e+03,2.789480e+03
2.651644e+03,2.789291e+03
2.652608e+03,2.795834e+03
2.653572e+03,2.802521e+03
2.654536e+03,2.799341e+03
2.655500e+03,2.798144e+03
2.656465e+03,2.805026e+03
2.657429e+03,2.799885e+03
2.658393e+03,2.773256e+03
2.659357e+03,2.762245e+03
2.660322e+03,2.770594e+03
2.661286e+03,2.754416e+03
2.662250e+03,2.726431e+03
2.663214e+03,2.729545e+03
2.664179e+03,2.746513e+03
2.665143e+03,2.765402e+03
2.666107e+03,2.774215e+03
2.667071e+03,2.766575e+03
2.668036e+03,2.759368e+03
2.669000e+03,2.758712e+03
2.669964e+03,2.754934e+03
2.670928e+03,2.747478e+03
2.671893e+03,2.738309e+03
2.672857e+03,2.730266e+03
2.673821e+03,2.726762e+03
2.674785e+03,2.724379e+03
2.675750e+03,2.719341e+03
2.676714e+03,2.721213e+03
2.677678e+03,2.755500e+03
2.678642e+03,2.760823e+03
2.679606e+03,2.722486e+03
2.680571e+03,2.704948e+03
2.681535e+03,2.717369e+03
2.682499e+03,2.727610e+03
2.683463e+03,2.730453e+03
2.684427e+03,2.724354e+03
2.685392e+03,2.717848e+03
2.686356e+03,2.731088e+03
2.687320e+03,2.736534e+03
2.688284e+03,2.701369e+03
2.689249e+03,2.691339e+03
2.690213e+03,2.717333e+03
2.691177e+03,2.725690e+03
2.692141e+03,2.699883e+03
2.693106e+03,2.689382e+03
2.694070e+03,2.692917e+03
2.695034e+03,2.712138e+03
2.695998e+03,2.729787e+03
2.696963e+03,2.707407e+03
2.697927e+03,2.689241e+03
2.698891e+03,2.695065e+03
2.699855e+03,2.701250e+03
2.700820e+03,2.699919e+03
2.701784e+03,2.684161e+03
2.702748e+03,2.656352e+03
2.703712e+03,2.650635e+03
2.704677e+03,2.661140e+03
2.705641e+03,2.679110e+03
2.706605e+03,2.691136e+03
2.707569e+03,2.664265e+03
2.708533e+03,2.647784e+03
2.709498e+03,2.665335e+03
2.710462e+03,2.671260e+03
2.711426e+03,2.642116e+03
2.712390e+03,2.624485e+03
2.713354e+03,2.620076e+03
2.714319e+03,2.643413e+03
2.715283e+03,2.676817e+03
2.716247e+03,2.686649e+03
2.717211e+03,2.678931e+03
2.718176e+03,2.658259e+03
2.719140e+03,2.643299e+03
2.720104e+03,2.650349e+03
2.721068e+03,2.648261e+03
2.722033e+03,2.633978e+03
2.722997e+03,2.619875e+03
2.723961e+03,2.607591e+03
2.724925e+03,2.606601e+03
2.725890e+03,2.610019e+03
2.726854e+03,2.605457e+03
2.727818e+03,2.601209e+03
2.728782e+03,2.598425e+03
2.729747e+03,2.596233e+03
2.730711e+03,2.592530e+03
2.731675e+03,2.605958e+03
2.732639e+03,2.631392e+03
2.733604e+03,2.639361e+03
2.734568e+03,2.632514e+03
2.735532e+03,2.611741e+03
2.736496e+03,2.593413e+03
2.737460e+03,2.591359e+03
2.738425e+03,2.594426e+03
2.739389e+03,2.597771e+03
2.740353e+03,2.583690e+03
2.741317e+03,2.553382e+03
2.742281e+03,2.548822e+03
2.743246e+03,2.565789e+03
2.744210e+03,2.589061e+03
2.745174e+03,2.603779e+03
2.746138e+03,2.589649e+03
2.747103e+03,2.581471e+03
2.748067e+03,2.595920e+03
2.749031e+03,2.596993e+03
2.749995e+03,2.550612e+03
2.750960e+03,2.553376e+03
2.751924e+03,2.586582e+03
2.752888e+03,2.587242e+03
2.753852e+03,2.566527e+03
2.754817e+03,2.549294e+03
2.755781e+03,2.537066e+03
2.756745e+03,2.528179e+03
2.757709e+03,2.533477e+03
2.758674e+03,2.552899e+03
2.759638e+03,2.560702e+03
2.760602e+03,2.553871e+03
2.761566e+03,2.557886e+03
2.762531e+03,2.561680e+03
2.763495e+03,2.533808e+03
2.764459e+03,2.504844e+03
2.765423e+03,2.509556e+03
2.766387e+03,2.525411e+03
2.767352e+03,2.547747e+03
2.768316e+03,2.551445e+03
2.769280e+03,2.532218e+03
2.770244e+03,2.530277e+03
2.771208e+03,2.537757e+03
2.772173e+03,2.533638e+03
2.773137e+03,2.521059e+03
2.774101e+03,2.501924e+03
2.775065e+03,2.497968e+03
2.776030e+03,2.522517e+03
2.776994e+03,2.531590e+03
2.777958e+03,2.523511e+03
2.778922e+03,2.525249e+03
2.779887e+03,2.534301e+03
2.780851e+03,2.536522e+03
2.781815e+03,2.530434e+03
2.782779e+03,2.518022e+03
2.783744e+03,2.511090e+03
2.784708e+03,2.518422e+03
2.785672e+03,2.508718e+03
2.786636e+03,2.482659e+03
2.787601e+03,2.471217e+03
2.788565e+03,2.472301e+03
2.789529e+03,2.480328e+03
2.790493e+03,2.481520e+03
2.791458e+03,2.446258e+03
2.792422e+03,2.432167e+03
2.793386e+03,2.452090e+03
2.794350e+03,2.473287e+03
2.795314e+03,2.485808e+03
2.796279e+03,2.492362e+03
2.797243e+03,2.492905e+03
2.798207e+03,2.495166e+03
2.799171e+03,2.493362e+03
2.800135e+03,2.466803e+03
2.801100e+03,2.456563e+03
2.802064e+03,2.475923e+03
2.803028e+03,2.470043e+03
2.803992e+03,2.442810e+03
2.804957e+03,2.447399e+03
2.805921e+03,2.467273e+03
2.806885e+03,2.460053e+03
2.807849e+03,2.459740e+03
2.808814e+03,2.484630e+03
2.809778e+03,2.491187e+03
2.810742e+03,2.450580e+03
2.811706e+03,2.447696e+03
2.812671e+03,2.467960e+03
2.813635e+03,2.460510e+03
2.814599e+03,2.439556e+03
2.815563e+03,2.437697e+03
2.816528e+03,2.434702e+03
2.817492e+03,2.417973e+03
2.818456e+03,2.412011e+03
2.819420e+03,2.415662e+03
2.820385e+03,2.415402e+03
2.821349e+03,2.412283e+03
2.822313e+03,2.405435e+03
2.823277e+03,2.398770e+03
2.824241e+03,2.391126e+03
2.825206e+03,2.398665e+03
2.826170e+03,2.442868e+03
2.827134e+03,2.442592e+03
2.828098e+03,2.396122e+03
2.829063e+03,2.388670e+03
2.830027e+03,2.403078e+03
2.830991e+03,2.405952e+03
2.831955e+03,2.404217e+03
2.832919e+03,2.387701e+03
2.833884e+03,2.389924e+03
2.834848e+03,2.411752e+03
2.835812e+03,2.415939e+03
2.836776e+03,2.402929e+03
2.837741e+03,2.408975e+03
2.838705e+03,2.414050e+03
2.839669e+03,2.393332e+03
2.840633e+03,2.374364e+03
2.841598e+03,2.372795e+03
2.842562e+03,2.369919e+03
2.843526e+03,2.364344e+03
2.844490e+03,2.373181e+03
2.845455e+03,2.383322e+03
2.846419e+03,2.371707e+03
2.847383e+03,2.360052e+03
2.848347e+03,2.378187e+03
2.849312e+03,2.388092e+03
2.850276e+03,2.382997e+03
2.851240e+03,2.383356e+03
2.852204e+03,2.387906e+03
2.853168e+03,2.393483e+03
2.854133e+03,2.393191e+03
2.855097e+03,2.370962e+03
2.856061e+03,2.364371e+03
2.857025e+03,2.380713e+03
2.857990e+03,2.377147e+03
2.858954e+03,2.341339e+03
2.859918e+03,2.324635e+03
2.860882e+03,2.329313e+03
2.861846e+03,2.360742e+03
2.862811e+03,2.383448e+03
2.863775e+03,2.357177e+03
2.864739e+03,2.339155e+03
2.865703e+03,2.344101e+03
2.866668e+03,2.353363e+03
2.867632e+03,2.362067e+03
2.868596e+03,2.359254e+03
2.869560e+03,2.354069e+03
2.870525e+03,2.366929e+03
2.871489e+03,2.368031e+03
2.872453e+03,2.349290e+03
2.873417e+03,2.338296e+03
2.874382e+03,2.335546e+03
2.875346e+03,2.329218e+03
2.876310e+03,2.323222e+03
2.877274e+03,2.313656e+03
2.878239e+03,2.318096e+03
2.879203e+03,2.340741e+03
2.880167e+03,2.339014e+03
2.881131e+03,2.301375e+03
2.882095e+03,2.300614e+03
2.883060e+03,2.315276e+03
2.884024e+03,2.305133e+03
2.884988e+03,2.295109e+03
2.885952e+03,2.312280e+03
2.886917e+03,2.310204e+03
2.887881e+03,2.279292e+03
2.888845e+03,2.285703e+03
2.889809e+03,2.312681e+03
2.890773e+03,2.313634e+03
2.891738e+03,2.307175e+03
2.892702e+03,2.328730e+03
2.893666e+03,2.325675e+03
2.894630e+03,2.290690e+03
2.895595e+03,2.276164e+03
2.896559e+03,2.281045e+03
2.897523e+03,2.290808e+03
2.898487e+03,2.297832e+03
2.899452e+03,2.287098e+03
2.900416e+03,2.286330e+03
2.901380e+03,2.299711e+03
2.902344e+03,2.327648e+03
2.903309e+03,2.362101e+03
2.904273e+03,2.328840e+03
2.905237e+03,2.279401e+03
2.906201e+03,2.270042e+03
2.907166e+03,2.267219e+03
2.908130e+03,2.254868e+03
2.909094e+03,2.252081e+03
2.910058e+03,2.260500e+03
2.911022e+03,2.255773e+03
2.911987e+03,2.252406e+03
2.912951e+03,2.264281e+03
2.913915e+03,2.279555e+03
2.914879e+03,2.292538e+03
2.915844e+03,2.289346e+03
2.916808e+03,2.273208e+03
2.917772e+03,2.269466e+03
2.918736e+03,2.273856e+03
2.919700e+03,2.281078e+03
2.920665e+03,2.278161e+03
2.921629e+03,2.245870e+03
2.922593e+03,2.225315e+03
2.923557e+03,2.218245e+03
2.924522e+03,2.213318e+03
2.925486e+03,2.211679e+03
2.926450e+03,2.227265e+03
2.927414e+03,2.233671e+03
2.928379e+03,2.212225e+03
2.929343e+03,2.214145e+03
2.930307e+03,2.236071e+03
2.931271e+03,2.241885e+03
2.932236e+03,2.236876e+03
2.933200e+03,2.224156e+03
2.934164e+03,2.210226e+03
2.935128e+03,2.194634e+03
2.936093e+03,2.192419e+03
2.937057e+03,2.203498e+03
2.938021e+03,2.217389e+03
2.938985e+03,2.228115e+03
2.939949e+03,2.217198e+03
2.940914e+03,2.211046e+03
2.941878e+03,2.219360e+03
2.942842e+03,2.225919e+03
2.943806e+03,2.223122e+03
2.944771e+03,2.196683e+03
2.945735e+03,2.168972e+03
2.946699e+03,2.167019e+03
2.947663e+03,2.181671e+03
2.948627e+03,2.203746e+03
2.949592e+03,2.218112e+03
2.950556e+03,2.224284e+03
2.951520e+03,2.234545e+03
2.952484e+03,2.231352e+03
2.953449e+03,2.198203e+03
2.954413e+03,2.173035e+03
2.955377e+03,2.173838e+03
2.956341e+03,2.186962e+03
2.957306e+03,2.207251e+03
2.958270e+03,2.229155e+03
2.959234e+03,2.231078e+03
2.960198e+03,2.201183e+03
2.961163e+03,2.184983e+03
2.962127e+03,2.199918e+03
2.963091e+03,2.202853e+03
2.964055e+03,2.192562e+03
2.965020e+03,2.196742e+03
2.965984e+03,2.189213e+03
2.966948e+03,2.144476e+03
2.967912e+03,2.120200e+03
2.968876e+03,2.148494e+03
2.969841e+03,2.154977e+03
2.970805e+03,2.148632e+03
2.971769e+03,2.151419e+03
2.972733e+03,2.158566e+03
2.973698e+03,2.167998e+03
2.974662e+03,2.163346e+03
2.975626e+03,2.139813e+03
2.976590e+03,2.143325e+03
2.977554e+03,2.154307e+03
2.978519e+03,2.140998e+03
2.979483e+03,2.134313e+03
2.980447e+03,2.161989e+03
2.981411e+03,2.168202e+03
2.982376e+03,2.149944e+03
2.983340e+03,2.146318e+03
2.984304e+03,2.149597e+03
2.985268e+03,2.153583e+03
2.986233e+03,2.151672e+03
2.987197e+03,2.141054e+03
2.988161e+03,2.117833e+03
2.989125e+03,2.094703e+03
2.990090e+03,2.105115e+03
2.991054e+03,2.126785e+03
2.992018e+03,2.143769e+03
2.992982e+03,2.137144e+03
2.993947e+03,2.094215e+03
2.994911e+03,2.109252e+03
2.995875e+03,2.151007e+03
2.996839e+03,2.161677e+03
2.997803e+03,2.155180e+03
2.998768e+03,2.143521e+03
2.999732e+03,2.130999e+03
3.000696e+03,2.120446e+03
3.001660e+03,2.094653e+03
3.002625e+03,2.085505e+03
3.003589e+03,2.128685e+03
3.004553e+03,2.152927e+03
3.005517e+03,2.126005e+03
3.006481e+03,2.092869e+03
3.007446e+03,2.068132e+03
3.008410e+03,2.105743e+03
3.009374e+03,2.129658e+03
3.010338e+03,2.096596e+03
3.011303e+03,2.068833e+03
3.012267e+03,2.062486e+03
3.013231e+03,2.088646e+03
3.014195e+03,2.119633e+03
3.015160e+03,2.102994e+03
3.016124e+03,2.092147e+03
3.017088e+03,2.104429e+03
3.018052e+03,2.125353e+03
3.019017e+03,2.144150e+03
3.019981e+03,2.111279e+03
3.020945e+03,2.078229e+03
3.021909e+03,2.089369e+03
3.022874e+03,2.110551e+03
3.023838e+03,2.128683e+03
3.024802e+03,2.127323e+03
3.025766e+03,2.114775e+03
3.026730e+03,2.105879e+03
3.027695e+03,2.103771e+03
3.028659e+03,2.110875e+03
3.029623e+03,2.104006e+03
3.030587e+03,2.084953e+03
3.031552e+03,2.065068e+03
3.032516e+03,2.053975e+03
3.033480e+03,2.077708e+03
3.034444e+03,2.093401e+03
3.035408e+03,2.094828e+03
3.036373e+03,2.096823e+03
3.037337e+03,2.096002e+03
3.038301e+03,2.066672e+03
3.039265e+03,2.054671e+03
3.040230e+03,2.103851e+03
3.041194e+03,2.110944e+03
3.042158e+03,2.083651e+03
3.043122e+03,2.071091e+03
3.044087e+03,2.070877e+03
3.045051e+03,2.076387e+03
3.046015e+03,2.082972e+03
3.046979e+03,2.090966e+03
3.047944e+03,2.068469e+03
3.048908e+03,2.043414e+03
3.049872e+03,2.056196e+03
3.050836e+03,2.078377e+03
3.051801e+03,2.092293e+03
3.052765e+03,2.096923e+03
3.053729e+03,2.088311e+03
3.054693e+03,2.060620e+03
3.055657e+03,2.051385e+03
3.056622e+03,2.083179e+03
3.057586e+03,2.099208e+03
3.058550e+03,2.084102e+03
3.059514e+03,2.085339e+03
3.060479e+03,2.089049e+03
3.061443e+03,2.058974e+03
3.062407e+03,2.034582e+03
3.063371e+03,2.025973e+03
3.064335e+03,2.026809e+03
3.065300e+03,2.035578e+03
3.066264e+03,2.057387e+03
3.067228e+03,2.078095e+03
3.068192e+03,2.087198e+03
3.069157e+03,2.088753e+03
3.070121e+03,2.084731e+03
3.071085e+03,2.077957e+03
3.072049e+03,2.068085e+03
3.073014e+03,2.051344e+03
3.073978e+03,2.037246e+03
3.074942e+03,2.028347e+03
3.075906e+03,2.036183e+03
3.076871e+03,2.054147e+03
3.077835e+03,2.074072e+03
3.078799e+03,2.078472e+03
3.079763e+03,2.050494e+03
3.080728e+03,2.028032e+03
3.081692e+03,2.018583e+03
3.082656e+03,2.031682e+03
3.083620e+03,2.036109e+03
3.084584e+03,2.016075e+03
3.085549e+03,2.012720e+03
3.086513e+03,2.034582e+03
3.087477e+03,2.022291e+03
3.088441e+03,2.010805e+03
3.089406e+03,2.048053e+03
3.090370e+03,2.080292e+03
3.091334e+03,2.095941e+03
3.092298e+03,2.069170e+03
3.093262e+03,2.033713e+03
3.094227e+03,2.074092e+03
3.095191e+03,2.088785e+03
3.096155e+03,2.039472e+03
3.097119e+03,2.034807e+03
3.098084e+03,2.049667e+03
3.099048e+03,2.010029e+03
3.100012e+03,1.985394e+03
3.100976e+03,2.042186e+03
3.101941e+03,2.057158e+03
3.102905e+03,2.029227e+03
3.103869e+03,2.029725e+03
3.104833e+03,2.039228e+03
3.105798e+03,2.046718e+03
3.106762e+03,2.028766e+03
3.107726e+03,1.988438e+03
3.108690e+03,1.980621e+03
3.109655e+03,1.994281e+03
3.110619e+03,2.038683e+03
3.111583e+03,2.025667e+03
3.112547e+03,1.963151e+03
3.113511e+03,1.984366e+03
3.114476e+03,2.044737e+03
3.115440e+03,2.041094e+03
3.116404e+03,2.027953e+03
3.117368e+03,2.025178e+03
3.118333e+03,2.008396e+03
3.119297e+03,1.988502e+03
3.120261e+03,1.983652e+03
3.121225e+03,1.984017e+03
3.122189e+03,1.982288e+03
3.123154e+03,1.996055e+03
3.124118e+03,2.020195e+03
3.125082e+03,2.047017e+03
3.126046e+03,2.055057e+03
3.127011e+03,2.034889e+03
3.127975e+03,2.003673e+03
3.128939e+03,1.976319e+03
3.129903e+03,2.027268e+03
3.130868e+03,2.074910e+03
3.131832e+03,2.027488e+03
3.132796e+03,2.005011e+03
3.133760e+03,2.011849e+03
3.134725e+03,2.000830e+03
3.135689e+03,2.005748e+03
3.136653e+03,2.063339e+03
3.137617e+03,2.088895e+03
3.138582e+03,2.058109e+03
3.139546e+03,2.036802e+03
3.140510e+03,2.027951e+03
3.141474e+03,2.044045e+03
3.142438e+03,2.037402e+03
3.143403e+03,2.007427e+03
3.144367e+03,2.012657e+03
3.145331e+03,2.031012e+03
3.146295e+03,2.019583e+03
3.147260e+03,2.013282e+03
3.148224e+03,2.018501e+03
3.149188e+03,2.055512e+03
3.150152e+03,2.084354e+03
3.151116e+03,2.052908e+03
3.152081e+03,2.017975e+03
3.153045e+03,2.000092e+03
3.154009e+03,2.014495e+03
3.154973e+03,2.039635e+03
3.155938e+03,2.025408e+03
3.156902e+03,1.999570e+03
3.157866e+03,1.971681e+03
3.158830e+03,1.978313e+03
3.159795e+03,2.010359e+03
3.160759e+03,2.041278e+03
3.161723e+03,2.058178e+03
3.162687e+03,2.048202e+03
3.163652e+03,2.040382e+03
3.164616e+03,2.040949e+03
3.165580e+03,2.057810e+03
3.166544e+03,2.061960e+03
3.167509e+03,2.045050e+03
3.168473e+03,2.018255e+03
3.169437e+03,1.992301e+03
3.170401e+03,1.995934e+03
3.171365e+03,2.001828e+03
3.172330e+03,1.999640e+03
3.173294e+03,2.015674e+03
3.174258e+03,2.044114e+03
3.175222e+03,2.074164e+03
3.176187e+03,2.076748e+03
3.177151e+03,2.032713e+03
3.178115e+03,2.011880e+03
3.179079e+03,2.012334e+03
3.180043e+03,2.001965e+03
3.181008e+03,2.006492e+03
3.181972e+03,2.035381e+03
3.182936e+03,2.050805e+03
3.183900e+03,2.046736e+03
3.184865e+03,2.001390e+03
3.185829e+03,1.974276e+03
3.186793e+03,2.031966e+03
3.187757e+03,2.051105e+03
3.188722e+03,2.038259e+03
3.189686e+03,2.007024e+03
3.190650e+03,2.017052e+03
3.191614e+03,2.080340e+03
3.192579e+03,2.060836e+03
3.193543e+03,1.987821e+03
3.194507e+03,1.979649e+03
3.195471e+03,1.989452e+03
3.196436e+03,1.998320e+03
3.197400e+03,1.992676e+03
3.198364e+03,1.994745e+03
3.199328e+03,2.047524e+03
3.200292e+03,2.078256e+03
3.201257e+03,0.000000e+00
3.202221e+03,0.000000e+00
3.203185e+03,0.000000e+00
3.204149e+03,0.000000e+00
3.205114e+03,0.000000e+00
3.206078e+03,0.000000e+00
3.207042e+03,0.000000e+00
3.208006e+03,0.000000e+00
3.208970e+03,0.000000e+00
3.209935e+03,0.000000e+00
3.210899e+03,0.000000e+00
3.211863e+03,0.000000e+00
3.212827e+03,0.000000e+00
3.213792e+03,0.000000e+00
3.214756e+03,0.000000e+00
3.215720e+03,0.000000e+00
3.216684e+03,0.000000e+00
3.217649e+03,0.000000e+00
3.218613e+03,0.000000e+00
3.219577e+03,0.000000e+00
3.220541e+03,0.000000e+00
3.221506e+03,0.000000e+00
3.222470e+03,0.000000e+00
3.223434e+03,0.000000e+00
3.224398e+03,0.000000e+00
3.225363e+03,0.000000e+00
3.226327e+03,0.000000e+00
3.227291e+03,0.000000e+00
3.228255e+03,0.000000e+00
3.229219e+03,0.000000e+00
3.230184e+03,0.000000e+00
3.231148e+03,0.000000e+00
3.232112e+03,0.000000e+00
3.233076e+03,0.000000e+00
3.234041e+03,0.000000e+00
3.235005e+03,0.000000e+00
3.235969e+03,0.000000e+00
3.236933e+03,0.000000e+00
3.237897e+03,0.000000e+00
3.238862e+03,0.000000e+00
3.239826e+03,0.000000e+00
3.240790e+03,0.000000e+00
3.241754e+03,0.000000e+00
3.242719e+03,0.000000e+00
3.243683e+03,0.000000e+00
3.244647e+03,0.000000e+00
3.245611e+03,0.000000e+00
3.246576e+03,0.000000e+00
3.247540e+03,0.000000e+00
3.248504e+03,0.000000e+00
3.249468e+03,0.000000e+00
3.250433e+03,0.000000e+00
3.251397e+03,0.000000e+00
3.252361e+03,0.000000e+00
3.253325e+03,0.000000e+00
3.254290e+03,0.000000e+00
3.255254e+03,0.000000e+00
3.256218e+03,0.000000e+00
3.257182e+03,0.000000e+00
3.258146e+03,0.000000e+00
3.259111e+03,0.000000e+00
3.260075e+03,0.000000e+00
3.261039e+03,0.000000e+00
3.262003e+03,0.000000e+00
3.262968e+03,0.000000e+00
3.263932e+03,0.000000e+00
3.264896e+03,0.000000e+00
3.265860e+03,0.000000e+00
3.266824e+03,0.000000e+00
3.267789e+03,0.000000e+00
3.268753e+03,0.000000e+00
3.269717e+03,0.000000e+00
3.270681e+03,0.000000e+00
3.271646e+03,0.000000e+00
3.272610e+03,0.000000e+00
3.273574e+03,0.000000e+00
3.274538e+03,0.000000e+00
3.275503e+03,0.000000e+00
3.276467e+03,0.000000e+00
3.277431e+03,0.000000e+00
3.278395e+03,0.000000e+00
3.279360e+03,0.000000e+00
3.280324e+03,0.000000e+00
3.281288e+03,0.000000e+00
3.282252e+03,0.000000e+00
3.283217e+03,0.000000e+00
3.284181e+03,0.000000e+00
3.285145e+03,0.000000e+00
3.286109e+03,0.000000e+00
3.287073e+03,0.000000e+00
3.288038e+03,0.000000e+00
3.289002e+03,0.000000e+00
3.289966e+03,0.000000e+00
3.290930e+03,0.000000e+00
3.291895e+03,0.000000e+00
3.292859e+03,0.000000e+00
3.293823e+03,0.000000e+00
3.294787e+03,0.000000e+00
3.295751e+03,0.000000e+00
3.296716e+03,0.000000e+00
3.297680e+03,0.000000e+00
3.298644e+03,0.000000e+00
3.299608e+03,0.000000e+00
3.300573e+03,0.000000e+00
3.301537e+03,0.000000e+00
3.302501e+03,0.000000e+00
3.303465e+03,0.000000e+00
3.304430e+03,0.000000e+00
3.305394e+03,0.000000e+00
3.306358e+03,0.000000e+00
3.307322e+03,0.000000e+00
3.308287e+03,0.000000e+00
3.309251e+03,0.000000e+00
3.310215e+03,0.000000e+00
3.311179e+03,0.000000e+00
3.312144e+03,0.000000e+00
3.313108e+03,0.000000e+00
3.314072e+03,0.000000e+00
3.315036e+03,0.000000e+00
3.316000e+03,0.000000e+00
3.316965e+03,0.000000e+00
3.317929e+03,0.000000e+00
3.318893e+03,0.000000e+00
3.319857e+03,0.000000e+00
3.320822e+03,0.000000e+00
3.321786e+03,0.000000e+00
3.322750e+03,0.000000e+00
3.323714e+03,0.000000e+00
3.324678e+03,0.000000e+00
3.325643e+03,0.000000e+00
3.326607e+03,0.000000e+00
3.327571e+03,0.000000e+00
3.328535e+03,0.000000e+00
3.329500e+03,0.000000e+00
3.330464e+03,0.000000e+00
3.331428e+03,0.000000e+00
3.332392e+03,0.000000e+00
3.333357e+03,0.000000e+00
3.334321e+03,0.000000e+00
3.335285e+03,0.000000e+00
3.336249e+03,0.000000e+00
3.337214e+03,0.000000e+00
3.338178e+03,0.000000e+00
3.339142e+03,0.000000e+00
3.340106e+03,0.000000e+00
3.341071e+03,0.000000e+00
3.342035e+03,0.000000e+00
3.342999e+03,0.000000e+00
3.343963e+03,0.000000e+00
3.344927e+03,0.000000e+00
3.345892e+03,0.000000e+00
3.346856e+03,0.000000e+00
3.347820e+03,0.000000e+00
3.348784e+03,0.000000e+00
3.349749e+03,0.000000e+00
3.350713e+03,0.000000e+00
3.351677e+03,0.000000e+00
3.352641e+03,0.000000e+00
3.353605e+03,0.000000e+00
3.354570e+03,0.000000e+00
3.355534e+03,0.000000e+00
3.356498e+03,0.000000e+00
3.357462e+03,0.000000e+00
3.358427e+03,0.000000e+00
3.359391e+03,0.000000e+00
3.360355e+03,0.000000e+00
3.361319e+03,0.000000e+00
3.362284e+03,0.000000e+00
3.363248e+03,0.000000e+00
3.364212e+03,0.000000e+00
3.365176e+03,0.000000e+00
3.366141e+03,0.000000e+00
3.367105e+03,0.000000e+00
3.368069e+03,0.000000e+00
3.369033e+03,0.000000e+00
3.369998e+03,0.000000e+00
3.370962e+03,0.000000e+00
3.371926e+03,0.000000e+00
3.372890e+03,0.000000e+00
3.373854e+03,0.000000e+00
3.374819e+03,0.000000e+00
3.375783e+03,0.000000e+00
3.376747e+03,0.000000e+00
3.377711e+03,0.000000e+00
3.378676e+03,0.000000e+00
3.379640e+03,0.000000e+00
3.380604e+03,0.000000e+00
3.381568e+03,0.000000e+00
3.382532e+03,0.000000e+00
3.383497e+03,0.000000e+00
3.384461e+03,0.000000e+00
3.385425e+03,0.000000e+00
3.386389e+03,0.000000e+00
3.387354e+03,0.000000e+00
3.388318e+03,0.000000e+00
3.389282e+03,0.000000e+00
3.390246e+03,0.000000e+00
3.391211e+03,0.000000e+00
3.392175e+03,0.000000e+00
3.393139e+03,0.000000e+00
3.394103e+03,0.000000e+00
3.395068e+03,0.000000e+00
3.396032e+03,0.000000e+00
3.396996e+03,0.000000e+00
3.397960e+03,0.000000e+00
3.398925e+03,0.000000e+00
3.399889e+03,0.000000e+00
3.400853e+03,0.000000e+00
3.401817e+03,0.000000e+00
3.402781e+03,0.000000e+00
3.403746e+03,0.000000e+00
3.404710e+03,0.000000e+00
3.405674e+03,0.000000e+00
3.406638e+03,0.000000e+00
3.407603e+03,0.000000e+00
3.408567e+03,0.000000e+00
3.409531e+03,0.000000e+00
3.410495e+03,0.000000e+00
3.411459e+03,0.000000e+00
3.412424e+03,0.000000e+00
3.413388e+03,0.000000e+00
3.414352e+03,0.000000e+00
3.415316e+03,0.000000e+00
3.416281e+03,0.000000e+00
3.417245e+03,0.000000e+00
3.418209e+03,0.000000e+00
3.419173e+03,0.000000e+00
3.420138e+03,0.000000e+00
3.421102e+03,0.000000e+00
3.422066e+03,0.000000e+00
3.423030e+03,0.000000e+00
3.423995e+03,0.000000e+00
3.424959e+03,0.000000e+00
3.425923e+03,0.000000e+00
3.426887e+03,0.000000e+00
3.427852e+03,0.000000e+00
3.428816e+03,0.000000e+00
3.429780e+03,0.000000e+00
3.430744e+03,0.000000e+00
3.431708e+03,0.000000e+00
3.432673e+03,0.000000e+00
3.433637e+03,0.000000e+00
3.434601e+03,0.000000e+00
3.435565e+03,0.000000e+00
3.436530e+03,0.000000e+00
3.437494e+03,0.000000e+00
3.438458e+03,0.000000e+00
3.439422e+03,0.000000e+00
3.440386e+03,0.000000e+00
3.441351e+03,0.000000e+00
3.442315e+03,0.000000e+00
3.443279e+03,0.000000e+00
3.444243e+03,0.000000e+00
3.445208e+03,0.000000e+00
3.446172e+03,0.000000e+00
3.447136e+03,0.000000e+00
3.448100e+03,0.000000e+00
3.449065e+03,0.000000e+00
3.450029e+03,0.000000e+00
3.450993e+03,0.000000e+00
3.451957e+03,0.000000e+00
3.452922e+03,0.000000e+00
3.453886e+03,0.000000e+00
3.454850e+03,0.000000e+00
3.455814e+03,0.000000e+00
3.456779e+03,0.000000e+00
3.457743e+03,0.000000e+00
3.458707e+03,0.000000e+00
3.459671e+03,0.000000e+00
3.460635e+03,0.000000e+00
3.461600e+03,0.000000e+00
3.462564e+03,0.000000e+00
3.463528e+03,0.000000e+00
3.464492e+03,0.000000e+00
3.465457e+03,0.000000e+00
3.466421e+03,0.000000e+00
3.467385e+03,0.000000e+00
3.468349e+03,0.000000e+00
3.469313e+03,0.000000e+00
3.470278e+03,0.000000e+00
3.471242e+03,0.000000e+00
3.472206e+03,0.000000e+00
3.473170e+03,0.000000e+00
3.474135e+03,0.000000e+00
3.475099e+03,0.000000e+00
3.476063e+03,0.000000e+00
3.477027e+03,0.000000e+00
3.477992e+03,0.000000e+00
3.478956e+03,0.000000e+00
3.479920e+03,0.000000e+00
3.480884e+03,0.000000e+00
3.481849e+03,0.000000e+00
3.482813e+03,0.000000e+00
3.483777e+03,0.000000e+00
3.484741e+03,0.000000e+00
3.485706e+03,0.000000e+00
3.486670e+03,0.000000e+00
3.487634e+03,0.000000e+00
3.488598e+03,0.000000e+00
3.489563e+03,0.000000e+00
3.490527e+03,0.000000e+00
3.491491e+03,0.000000e+00
3.492455e+03,0.000000e+00
3.493419e+03,0.000000e+00
3.494384e+03,0.000000e+00
3.495348e+03,0.000000e+00
3.496312e+03,0.000000e+00
3.497276e+03,0.000000e+00
3.498240e+03,0.000000e+00
3.499205e+03,0.000000e+00
3.500169e+03,0.000000e+00
