9.931763e+01,0.000000e+00
1.002819e+02,0.000000e+00
1.012461e+02,0.000000e+00
1.022103e+02,0.000000e+00
1.031746e+02,0.000000e+00
1.041388e+02,0.000000e+00
1.051030e+02,0.000000e+00
1.060673e+02,0.000000e+00
1.070315e+02,0.000000e+00
1.079957e+02,0.000000e+00
1.089600e+02,0.000000e+00
1.099242e+02,0.000000e+00
1.108884e+02,0.000000e+00
1.118527e+02,0.000000e+00
1.128169e+02,0.000000e+00
1.137811e+02,0.000000e+00
1.147454e+02,0.000000e+00
1.157096e+02,0.000000e+00
1.166738e+02,0.000000e+00
1.176381e+02,0.000000e+00
1.186023e+02,0.000000e+00
1.195665e+02,0.000000e+00
1.205308e+02,0.000000e+00
1.214950e+02,0.000000e+00
1.224592e+02,0.000000e+00
1.234235e+02,0.000000e+00
1.243877e+02,0.000000e+00
1.253519e+02,0.000000e+00
1.263162e+02,0.000000e+00
1.272804e+02,0.000000e+00
1.282446e+02,0.000000e+00
1.292089e+02,0.000000e+00
1.301731e+02,0.000000e+00
1.311373e+02,0.000000e+00
1.321016e+02,0.000000e+00
1.330658e+02,0.000000e+00
1.340300e+02,0.000000e+00
1.349943e+02,0.000000e+00
1.359585e+02,0.000000e+00
1.369227e+02,0.000000e+00
1.378870e+02,0.000000e+00
1.388512e+02,0.000000e+00
1.398154e+02,0.000000e+00
1.407797e+02,0.000000e+00
1.417439e+02,0.000000e+00
1.427081e+02,0.000000e+00
1.436724e+02,0.000000e+00
1.446366e+02,0.000000e+00
1.456008e+02,0.000000e+00
1.465651e+02,0.000000e+00
1.475293e+02,0.000000e+00
1.484935e+02,0.000000e+00
1.494578e+02,0.000000e+00
1.504220e+02,0.000000e+00
1.513862e+02,0.000000e+00
1.523505e+02,0.000000e+00
1.533147e+02,0.000000e+00
1.542789e+02,0.000000e+00
1.552432e+02,0.000000e+00
1.562074e+02,0.000000e+00
1.571716e+02,0.000000e+00
1.581359e+02,0.000000e+00
1.591001e+02,0.000000e+00
1.600643e+02,0.000000e+00
1.610286e+02,0.000000e+00
1.619928e+02,0.000000e+00
1.629570e+02,0.000000e+00
1.639213e+02,0.000000e+00
1.648855e+02,0.000000e+00
1.658497e+02,0.000000e+00
1.668140e+02,0.000000e+00
1.677782e+02,0.000000e+00
1.687424e+02,0.000000e+00
1.697067e+02,0.000000e+00
1.706709e+02,0.000000e+00
1.716351e+02,0.000000e+00
1.725994e+02,0.000000e+00
1.735636e+02,0.000000e+00
1.745278e+02,0.000000e+00
1.754921e+02,0.000000e+00
1.764563e+02,0.000000e+00
1.774205e+02,0.000000e+00
1.783848e+02,0.000000e+00
1.793490e+02,0.000000e+00
1.803132e+02,0.000000e+00
1.812775e+02,0.000000e+00
1.822417e+02,0.000000e+00
1.832059e+02,0.000000e+00
1.841702e+02,0.000000e+00
1.851344e+02,0.000000e+00
1.860986e+02,0.000000e+00
1.870629e+02,0.000000e+00
1.880271e+02,0.000000e+00
1.889913e+02,0.000000e+00
1.899556e+02,0.000000e+00
1.909198e+02,0.000000e+00
1.918840e+02,0.000000e+00
1.928483e+02,0.000000e+00
1.938125e+02,0.000000e+00
1.947767e+02,0.000000e+00
1.957410e+02,0.000000e+00
1.967052e+02,0.000000e+00
1.976694e+02,0.000000e+00
1.986337e+02,0.000000e+00
1.995979e+02,1.046964e+04
2.005621e+02,1.047981e+04
2.015264e+02,1.049152e+04
2.024906e+02,1.050564e+04
2.034548e+02,1.052034e+04
2.044191e+02,1.053340e+04
2.053833e+02,1.054303e+04
2.063475e+02,1.054905e+04
2.073118e+02,1.055229e+04
2.082760e+02,1.055275e+04
2.092402e+02,1.055023e+04
2.102045e+02,1.054658e+04
2.111687e+02,1.054622e+04
2.121329e+02,1.055114e+04
2.130972e+02,1.056043e+04
2.140614e+02,1.057110e+04
2.150256e+02,1.057994e+04
2.159899e+02,1.058612e+04
2.169541e+02,1.059435e+04
2.179183e+02,1.060919e+04
2.188826e+02,1.062824e+04
2.198468e+02,1.064671e+04
2.208110e+02,1.066058e+04
2.217753e+02,1.066859e+04
2.227395e+02,1.067257e+04
2.237037e+02,1.067718e+04
2.246680e+02,1.068221e+04
2.256322e+02,1.068503e+04
2.265964e+02,1.068749e+04
2.275607e+02,1.069241e+04
2.285249e+02,1.070199e+04
2.294892e+02,1.071674e+04
2.304534e+02,1.073503e+04
2.314176e+02,1.075159e+04
2.323819e+02,1.076485e+04
2.333461e+02,1.077655e+04
2.343103e+02,1.078854e+04
2.352746e+02,1.080180e+04
2.362388e+02,1.081599e+04
2.372030e+02,1.082920e+04
2.381673e+02,1.083688e+04
2.391315e+02,1.083789e+04
2.400957e+02,1.083586e+04
2.410600e+02,1.083374e+04
2.420242e+02,1.083454e+04
2.429884e+02,1.084039e+04
2.439527e+02,1.085114e+04
2.449169e+02,1.086350e+04
2.458811e+02,1.087555e+04
2.468454e+02,1.088743e+04
2.478096e+02,1.089928e+04
2.487738e+02,1.091119e+04
2.497381e+02,1.092293e+04
2.507023e+02,1.093465e+04
2.516665e+02,1.094691e+04
2.526308e+02,1.095972e+04
2.535950e+02,1.096986e+04
2.545592e+02,1.097477e+04
2.555235e+02,1.097477e+04
2.564877e+02,1.097263e+04
2.574519e+02,1.097223e+04
2.584161e+02,1.097703e+04
2.593804e+02,1.098841e+04
2.603446e+02,1.100378e+04
2.613088e+02,1.102010e+04
2.622731e+02,1.103715e+04
2.632373e+02,1.105562e+04
2.642015e+02,1.107264e+04
2.651658e+02,1.108527e+04
2.661300e+02,1.109288e+04
2.670942e+02,1.109793e+04
2.680585e+02,1.110515e+04
2.690227e+02,1.111871e+04
2.699869e+02,1.113241e+04
2.709512e+02,1.114052e+04
2.719154e+02,1.114331e+04
2.728796e+02,1.114520e+04
2.738439e+02,1.115154e+04
2.748081e+02,1.116541e+04
2.757723e+02,1.118599e+04
2.767366e+02,1.120554e+04
2.777008e+02,1.121963e+04
2.786650e+02,1.122956e+04
2.796293e+02,1.123792e+04
2.805935e+02,1.124688e+04
2.815577e+02,1.125743e+04
2.825220e+02,1.126901e+04
2.834862e+02,1.127886e+04
2.844504e+02,1.128402e+04
2.854147e+02,1.128623e+04
2.863789e+02,1.128756e+04
2.873431e+02,1.129060e+04
2.883074e+02,1.129709e+04
2.892716e+02,1.130667e+04
2.902358e+02,1.131700e+04
2.912001e+02,1.132663e+04
2.921643e+02,1.133578e+04
2.931285e+02,1.134644e+04
2.940928e+02,1.135958e+04
2.950570e+02,1.137532e+04
2.960212e+02,1.139113e+04
2.969855e+02,1.140364e+04
2.979497e+02,1.141115e+04
2.989139e+02,1.141448e+04
2.998782e+02,1.141725e+04
3.008424e+02,1.142350e+04
3.018066e+02,1.143413e+04
3.027709e+02,1.144636e+04
3.037351e+02,1.145768e+04
3.046993e+02,1.146692e+04
3.056636e+02,1.147431e+04
3.066278e+02,1.148101e+04
3.075920e+02,1.148884e+04
3.085563e+02,1.149845e+04
3.095205e+02,1.151189e+04
3.104847e+02,1.152890e+04
3.114490e+02,1.154741e+04
3.124132e+02,1.156491e+04
3.133774e+02,1.157925e+04
3.143417e+02,1.158917e+04
3.153059e+02,1.159377e+04
3.162701e+02,1.159601e+04
3.172344e+02,1.159868e+04
3.181986e+02,1.160278e+04
3.191628e+02,1.160888e+04
3.201271e+02,1.161750e+04
3.210913e+02,1.162868e+04
3.220555e+02,1.164175e+04
3.230198e+02,1.165575e+04
3.239840e+02,1.167008e+04
3.249482e+02,1.168424e+04
3.259125e+02,1.169771e+04
3.268767e+02,1.171076e+04
3.278409e+02,1.172364e+04
3.288052e+02,1.173625e+04
3.297694e+02,1.174823e+04
3.307336e+02,1.175929e+04
3.316979e+02,1.176965e+04
3.326621e+02,1.177917e+04
3.336263e+02,1.178546e+04
3.345906e+02,1.178808e+04
3.355548e+02,1.179020e+04
3.365190e+02,1.179593e+04
3.374833e+02,1.180784e+04
3.384475e+02,1.182536e+04
3.394117e+02,1.184477e+04
3.403760e+02,1.186072e+04
3.413402e+02,1.187475e+04
3.423044e+02,1.189110e+04
3.432687e+02,1.191061e+04
3.442329e+02,1.193150e+04
3.451971e+02,1.195065e+04
3.461614e+02,1.196491e+04
3.471256e+02,1.197256e+04
3.480898e+02,1.197636e+04
3.490541e+02,1.197884e+04
3.500183e+02,1.198235e+04
3.509825e+02,1.198931e+04
3.519468e+02,1.200161e+04
3.529110e+02,1.201902e+04
3.538752e+02,1.203903e+04
3.548395e+02,1.205831e+04
3.558037e+02,1.207473e+04
3.567680e+02,1.208796e+04
3.577322e+02,1.209937e+04
3.586964e+02,1.211193e+04
3.596607e+02,1.212734e+04
3.606249e+02,1.214420e+04
3.615891e+02,1.215814e+04
3.625534e+02,1.216518e+04
3.635176e+02,1.216445e+04
3.644818e+02,1.215827e+04
3.654461e+02,1.215143e+04
3.664103e+02,1.215042e+04
3.673745e+02,1.215997e+04
3.683388e+02,1.217766e+04
3.693030e+02,1.219936e+04
3.702672e+02,1.222116e+04
3.712315e+02,1.224066e+04
3.721957e+02,1.225655e+04
3.731599e+02,1.226728e+04
3.741242e+02,1.227460e+04
3.750884e+02,1.228331e+04
3.760526e+02,1.229588e+04
3.770169e+02,1.231209e+04
3.779811e+02,1.232940e+04
3.789453e+02,1.234456e+04
3.799096e+02,1.235504e+04
3.808738e+02,1.236076e+04
3.818380e+02,1.236471e+04
3.828023e+02,1.237077e+04
3.837665e+02,1.238138e+04
3.847307e+02,1.239503e+04
3.856950e+02,1.241141e+04
3.866592e+02,1.242942e+04
3.876234e+02,1.244819e+04
3.885877e+02,1.246715e+04
3.895519e+02,1.248583e+04
3.905161e+02,1.250335e+04
3.914804e+02,1.251785e+04
3.924446e+02,1.252836e+04
3.934088e+02,1.253735e+04
3.943731e+02,1.254654e+04
3.953373e+02,1.255656e+04
3.963015e+02,1.256595e+04
3.972658e+02,1.257221e+04
3.982300e+02,1.257562e+04
3.991942e+02,1.258175e+04
4.001585e+02,1.259577e+04
4.011227e+02,1.261933e+04
4.020869e+02,1.263994e+04
4.030512e+02,1.265072e+04
4.040154e+02,1.265319e+04
4.049796e+02,1.265367e+04
4.059439e+02,1.265439e+04
4.069081e+02,1.265559e+04
4.078723e+02,1.265997e+04
4.088366e+02,1.266665e+04
4.098008e+02,1.266845e+04
4.107650e+02,1.266574e+04
4.117293e+02,1.266041e+04
4.126935e+02,1.265866e+04
4.136577e+02,1.266443e+04
4.146220e+02,1.267415e+04
4.155862e+02,1.268368e+04
4.165504e+02,1.269276e+04
4.175147e+02,1.270089e+04
4.184789e+02,1.270644e+04
4.194431e+02,1.270282e+04
4.204074e+02,1.270360e+04
4.213716e+02,1.271375e+04
4.223358e+02,1.272627e+04
4.233001e+02,1.273395e+04
4.242643e+02,1.273443e+04
4.252285e+02,1.273047e+04
4.261928e+02,1.272591e+04
4.271570e+02,1.272037e+04
4.281212e+02,1.271824e+04
4.290855e+02,1.272061e+04
4.300497e+02,1.272497e+04
4.310139e+02,1.272826e+04
4.319782e+02,1.273087e+04
4.329424e+02,1.273458e+04
4.339066e+02,1.273851e+04
4.348709e+02,1.274104e+04
4.358351e+02,1.274448e+04
4.367993e+02,1.275327e+04
4.377636e+02,1.277569e+04
4.387278e+02,1.278258e+04
4.396920e+02,1.276211e+04
4.406563e+02,1.273786e+04
4.416205e+02,1.272533e+04
4.425847e+02,1.272772e+04
4.435490e+02,1.273601e+04
4.445132e+02,1.273938e+04
4.454774e+02,1.273843e+04
4.464417e+02,1.273928e+04
4.474059e+02,1.274068e+04
4.483701e+02,1.274152e+04
4.493344e+02,1.274311e+04
4.502986e+02,1.275203e+04
4.512628e+02,1.276070e+04
4.522271e+02,1.276328e+04
4.531913e+02,1.276039e+04
4.541555e+02,1.275456e+04
4.551198e+02,1.274634e+04
4.560840e+02,1.273636e+04
4.570482e+02,1.272305e+04
4.580125e+02,1.270956e+04
4.589767e+02,1.270079e+04
4.599409e+02,1.269434e+04
4.609052e+02,1.268682e+04
4.618694e+02,1.267751e+04
4.628336e+02,1.266675e+04
4.637979e+02,1.265583e+04
4.647621e+02,1.264904e+04
4.657263e+02,1.265149e+04
4.666906e+02,1.266111e+04
4.676548e+02,1.267133e+04
4.686190e+02,1.268122e+04
4.695833e+02,1.268672e+04
4.705475e+02,1.268334e+04
4.715117e+02,1.267376e+04
4.724760e+02,1.266199e+04
4.734402e+02,1.264986e+04
4.744044e+02,1.263981e+04
4.753687e+02,1.263699e+04
4.763329e+02,1.265055e+04
4.772971e+02,1.265774e+04
4.782614e+02,1.265032e+04
4.792256e+02,1.263760e+04
4.801898e+02,1.263025e+04
4.811541e+02,1.263315e+04
4.821183e+02,1.263988e+04
4.830826e+02,1.264069e+04
4.840468e+02,1.263409e+04
4.850110e+02,1.262800e+04
4.859753e+02,1.263013e+04
4.869395e+02,1.264044e+04
4.879037e+02,1.264487e+04
4.888680e+02,1.264268e+04
4.898322e+02,1.263830e+04
4.907964e+02,1.263400e+04
4.917607e+02,1.263083e+04
4.927249e+02,1.262895e+04
4.936891e+02,1.262802e+04
4.946534e+02,1.262766e+04
4.956176e+02,1.262763e+04
4.965818e+02,1.262945e+04
4.975461e+02,1.263134e+04
4.985103e+02,1.263141e+04
4.994745e+02,1.262804e+04
5.004388e+02,1.261688e+04
5.014030e+02,1.259339e+04
5.023672e+02,1.256563e+04
5.033315e+02,1.254565e+04
5.042957e+02,1.253683e+04
5.052599e+02,1.253291e+04
5.062242e+02,1.252355e+04
5.071884e+02,1.250536e+04
5.081526e+02,1.249223e+04
5.091169e+02,1.249240e+04
5.100811e+02,1.249918e+04
5.110453e+02,1.250203e+04
5.120095e+02,1.249614e+04
5.129738e+02,1.248883e+04
5.139380e+02,1.249125e+04
5.149022e+02,1.250358e+04
5.158665e+02,1.251159e+04
5.168307e+02,1.250300e+04
5.177949e+02,1.247199e+04
5.187592e+02,1.243625e+04
5.197234e+02,1.240296e+04
5.206876e+02,1.237763e+04
5.216519e+02,1.236604e+04
5.226161e+02,1.236580e+04
5.235803e+02,1.236747e+04
5.245446e+02,1.236349e+04
5.255088e+02,1.235438e+04
5.264730e+02,1.234336e+04
5.274373e+02,1.232729e+04
5.284015e+02,1.231440e+04
5.293657e+02,1.231446e+04
5.303300e+02,1.233121e+04
5.312942e+02,1.233351e+04
5.322584e+02,1.231069e+04
5.332227e+02,1.228204e+04
5.341869e+02,1.226166e+04
5.351511e+02,1.225034e+04
5.361154e+02,1.224289e+04
5.370796e+02,1.223530e+04
5.380438e+02,1.222923e+04
5.390081e+02,1.222361e+04
5.399723e+02,1.222078e+04
5.409365e+02,1.221911e+04
5.419008e+02,1.221301e+04
5.428650e+02,1.219452e+04
5.438292e+02,1.217711e+04
5.447935e+02,1.217225e+04
5.457577e+02,1.217431e+04
5.467219e+02,1.217100e+04
5.476862e+02,1.215703e+04
5.486504e+02,1.213622e+04
5.496146e+02,1.212164e+04
5.505789e+02,1.212083e+04
5.515431e+02,1.211318e+04
5.525073e+02,1.209572e+04
5.534716e+02,1.207701e+04
5.544358e+02,1.206307e+04
5.554000e+02,1.204916e+04
5.563643e+02,1.203818e+04
5.573285e+02,1.203498e+04
5.582927e+02,1.203745e+04
5.592570e+02,1.204051e+04
5.602212e+02,1.204353e+04
5.611854e+02,1.204548e+04
5.621497e+02,1.204238e+04
5.631139e+02,1.202254e+04
5.640781e+02,1.200242e+04
5.650424e+02,1.199559e+04
5.660066e+02,1.199846e+04
5.669708e+02,1.199450e+04
5.679351e+02,1.196910e+04
5.688993e+02,1.193472e+04
5.698635e+02,1.191348e+04
5.708278e+02,1.190856e+04
5.717920e+02,1.191114e+04
5.727562e+02,1.191080e+04
5.737205e+02,1.190359e+04
5.746847e+02,1.189636e+04
5.756489e+02,1.188485e+04
5.766132e+02,1.187354e+04
5.775774e+02,1.186702e+04
5.785416e+02,1.186609e+04
5.795059e+02,1.186579e+04
5.804701e+02,1.186244e+04
5.814343e+02,1.185665e+04
5.823986e+02,1.185193e+04
5.833628e+02,1.185081e+04
5.843270e+02,1.184812e+04
5.852913e+02,1.183521e+04
5.862555e+02,1.179613e+04
5.872197e+02,1.177130e+04
5.881840e+02,1.176960e+04
5.891482e+02,1.177401e+04
5.901124e+02,1.177052e+04
5.910767e+02,1.175438e+04
5.920409e+02,1.173570e+04
5.930051e+02,1.172371e+04
5.939694e+02,1.171646e+04
5.949336e+02,1.170809e+04
5.958978e+02,1.169647e+04
5.968621e+02,1.168392e+04
5.978263e+02,1.167668e+04
5.987905e+02,1.169620e+04
5.997548e+02,1.169865e+04
6.007190e+02,1.166264e+04
6.016832e+02,1.161650e+04
6.026475e+02,1.159183e+04
6.036117e+02,1.160402e+04
6.045759e+02,1.162956e+04
6.055402e+02,1.164457e+04
6.065044e+02,1.164771e+04
6.074686e+02,1.164011e+04
6.084329e+02,1.162304e+04
6.093971e+02,1.159942e+04
6.103613e+02,1.157786e+04
6.113256e+02,1.156032e+04
6.122899e+02,1.154417e+04
6.132541e+02,1.152717e+04
6.142183e+02,1.151106e+04
6.151826e+02,1.149978e+04
6.161468e+02,1.150430e+04
6.171110e+02,1.151350e+04
6.180753e+02,1.150914e+04
6.190395e+02,1.149153e+04
6.200037e+02,1.147337e+04
6.209680e+02,1.146174e+04
6.219322e+02,1.145789e+04
6.228964e+02,1.145575e+04
6.238607e+02,1.145894e+04
6.248249e+02,1.145785e+04
6.257891e+02,1.144043e+04
6.267534e+02,1.141038e+04
6.277176e+02,1.138711e+04
6.286818e+02,1.139434e+04
6.296461e+02,1.140971e+04
6.306103e+02,1.140460e+04
6.315745e+02,1.138067e+04
6.325388e+02,1.135646e+04
6.335030e+02,1.134492e+04
6.344672e+02,1.134483e+04
6.354315e+02,1.133883e+04
6.363957e+02,1.131760e+04
6.373599e+02,1.129541e+04
6.383242e+02,1.128561e+04
6.392884e+02,1.128757e+04
6.402526e+02,1.128247e+04
6.412169e+02,1.125413e+04
6.421811e+02,1.122171e+04
6.431453e+02,1.120374e+04
6.441096e+02,1.120048e+04
6.450738e+02,1.120221e+04
6.460380e+02,1.120284e+04
6.470023e+02,1.120476e+04
6.479665e+02,1.120722e+04
6.489307e+02,1.120763e+04
6.498950e+02,1.120585e+04
6.508592e+02,1.119931e+04
6.518234e+02,1.118603e+04
6.527877e+02,1.117382e+04
6.537519e+02,1.116643e+04
6.547161e+02,1.116042e+04
6.556804e+02,1.115481e+04
6.566446e+02,1.114947e+04
6.576088e+02,1.114199e+04
6.585731e+02,1.112645e+04
6.595373e+02,1.110512e+04
6.605015e+02,1.109260e+04
6.614658e+02,1.109208e+04
6.624300e+02,1.109604e+04
6.633942e+02,1.109733e+04
6.643585e+02,1.109383e+04
6.653227e+02,1.109122e+04
6.662869e+02,1.108562e+04
6.672512e+02,1.108048e+04
6.682154e+02,1.108094e+04
6.691796e+02,1.108587e+04
6.701439e+02,1.108470e+04
6.711081e+02,1.106638e+04
6.720723e+02,1.103780e+04
6.730366e+02,1.101339e+04
6.740008e+02,1.099680e+04
6.749650e+02,1.098497e+04
6.759293e+02,1.097491e+04
6.768935e+02,1.096935e+04
6.778577e+02,1.096226e+04
6.788220e+02,1.095326e+04
6.797862e+02,1.094929e+04
6.807504e+02,1.095117e+04
6.817147e+02,1.095674e+04
6.826789e+02,1.096225e+04
6.836431e+02,1.096648e+04
6.846074e+02,1.096547e+04
6.855716e+02,1.095962e+04
6.865358e+02,1.095052e+04
6.875001e+02,1.093448e+04
6.884643e+02,1.089656e+04
6.894285e+02,1.083767e+04
6.903928e+02,1.081111e+04
6.913570e+02,1.083287e+04
6.923212e+02,1.086936e+04
6.932855e+02,1.088618e+04
6.942497e+02,1.087776e+04
6.952139e+02,1.086943e+04
6.961782e+02,1.085498e+04
6.971424e+02,1.084235e+04
6.981066e+02,1.083633e+04
6.990709e+02,1.083385e+04
7.000351e+02,1.082722e+04
7.009993e+02,1.081553e+04
7.019636e+02,1.080321e+04
7.029278e+02,1.079473e+04
7.038920e+02,1.079024e+04
7.048563e+02,1.078228e+04
7.058205e+02,1.076188e+04
7.067847e+02,1.072587e+04
7.077490e+02,1.070403e+04
7.087132e+02,1.071146e+04
7.096774e+02,1.073108e+04
7.106417e+02,1.074033e+04
7.116059e+02,1.073469e+04
7.125701e+02,1.072757e+04
7.135344e+02,1.072463e+04
7.144986e+02,1.072441e+04
7.154628e+02,1.072540e+04
7.164271e+02,1.072559e+04
7.173913e+02,1.072001e+04
7.183555e+02,1.069951e+04
7.193198e+02,1.066738e+04
7.202840e+02,1.064259e+04
7.212482e+02,1.062916e+04
7.222125e+02,1.062428e+04
7.231767e+02,1.062414e+04
7.241409e+02,1.062813e+04
7.251052e+02,1.062980e+04
7.260694e+02,1.062865e+04
7.270336e+02,1.062451e+04
7.279979e+02,1.061860e+04
7.289621e+02,1.061062e+04
7.299263e+02,1.060370e+04
7.308906e+02,1.059968e+04
7.318548e+02,1.059507e+04
7.328190e+02,1.058834e+04
7.337833e+02,1.057911e+04
7.347475e+02,1.056600e+04
7.357117e+02,1.054815e+04
7.366760e+02,1.052790e+04
7.376402e+02,1.050994e+04
7.386044e+02,1.049335e+04
7.395687e+02,1.048393e+04
7.405329e+02,1.048681e+04
7.414971e+02,1.050705e+04
7.424614e+02,1.051474e+04
7.434256e+02,1.050833e+04
7.443898e+02,1.050257e+04
7.453541e+02,1.049676e+04
7.463183e+02,1.048704e+04
7.472825e+02,1.048081e+04
7.482468e+02,1.049575e+04
7.492110e+02,1.050919e+04
7.501752e+02,1.049599e+04
7.511395e+02,1.046212e+04
7.521037e+02,1.042984e+04
7.530679e+02,1.041441e+04
7.540322e+02,1.041086e+04
7.549964e+02,1.040235e+04
7.559606e+02,1.038985e+04
7.569249e+02,1.037749e+04
7.578891e+02,1.036765e+04
7.588533e+02,1.036139e+04
7.598176e+02,1.035956e+04
7.607818e+02,1.035176e+04
7.617460e+02,1.034175e+04
7.627103e+02,1.033785e+04
7.636745e+02,1.034111e+04
7.646387e+02,1.034179e+04
7.656030e+02,1.032696e+04
7.665672e+02,1.031416e+04
7.675314e+02,1.031746e+04
7.684957e+02,1.032690e+04
7.694599e+02,1.032705e+04
7.704241e+02,1.031375e+04
7.713884e+02,1.029382e+04
7.723526e+02,1.027421e+04
7.733168e+02,1.025621e+04
7.742811e+02,1.025012e+04
7.752453e+02,1.025791e+04
7.762095e+02,1.027321e+04
7.771738e+02,1.027986e+04
7.781380e+02,1.026772e+04
7.791022e+02,1.025121e+04
7.800665e+02,1.023667e+04
7.810307e+02,1.022401e+04
7.819949e+02,1.021174e+04
7.829592e+02,1.020675e+04
7.839234e+02,1.020158e+04
7.848876e+02,1.018735e+04
7.858519e+02,1.016809e+04
7.868161e+02,1.015186e+04
7.877803e+02,1.014213e+04
7.887446e+02,1.013616e+04
7.897088e+02,1.013518e+04
7.906730e+02,1.014151e+04
7.916373e+02,1.014501e+04
7.926015e+02,1.013583e+04
7.935657e+02,1.011706e+04
7.945300e+02,1.010982e+04
7.954942e+02,1.012812e+04
7.964584e+02,1.013264e+04
7.974227e+02,1.012086e+04
7.983869e+02,1.010685e+04
7.993511e+02,1.009544e+04
8.003154e+02,1.007875e+04
8.012796e+02,1.006041e+04
8.022438e+02,1.004273e+04
8.032081e+02,1.003080e+04
8.041723e+02,1.002931e+04
8.051365e+02,1.003808e+04
8.061008e+02,1.004795e+04
8.070650e+02,1.005414e+04
8.080292e+02,1.005275e+04
8.089935e+02,1.003863e+04
8.099577e+02,1.001421e+04
8.109219e+02,9.991468e+03
8.118862e+02,9.983615e+03
8.128504e+02,9.989997e+03
8.138146e+02,9.991140e+03
8.147789e+02,9.983704e+03
8.157431e+02,9.972066e+03
8.167073e+02,9.962160e+03
8.176716e+02,9.959988e+03
8.186358e+02,9.956354e+03
8.196000e+02,9.942295e+03
8.205643e+02,9.933831e+03
8.215285e+02,9.937024e+03
8.224927e+02,9.949342e+03
8.234570e+02,9.955418e+03
8.244212e+02,9.950678e+03
8.253854e+02,9.939989e+03
8.263497e+02,9.920717e+03
8.273139e+02,9.893393e+03
8.282781e+02,9.865799e+03
8.292424e+02,9.846100e+03
8.302066e+02,9.834810e+03
8.311708e+02,9.830255e+03
8.321351e+02,9.831625e+03
8.330993e+02,9.835287e+03
8.340635e+02,9.837877e+03
8.350278e+02,9.838609e+03
8.359920e+02,9.838020e+03
8.369562e+02,9.836246e+03
8.379205e+02,9.834364e+03
8.388847e+02,9.832756e+03
8.398489e+02,9.831647e+03
8.408132e+02,9.829809e+03
8.417774e+02,9.823467e+03
8.427416e+02,9.818453e+03
8.437059e+02,9.820238e+03
8.446701e+02,9.821576e+03
8.456343e+02,9.814660e+03
8.465986e+02,9.791420e+03
8.475628e+02,9.771497e+03
8.485270e+02,9.764611e+03
8.494913e+02,9.762239e+03
8.504555e+02,9.756015e+03
8.514197e+02,9.744941e+03
8.523840e+02,9.737146e+03
8.533482e+02,9.740149e+03
8.543124e+02,9.747619e+03
8.552767e+02,9.750370e+03
8.562409e+02,9.746236e+03
8.572051e+02,9.735751e+03
8.581694e+02,9.721046e+03
8.591336e+02,9.703585e+03
8.600978e+02,9.682200e+03
8.610621e+02,9.656041e+03
8.620263e+02,9.638266e+03
8.629905e+02,9.638106e+03
8.639548e+02,9.653427e+03
8.649190e+02,9.657893e+03
8.658832e+02,9.650016e+03
8.668475e+02,9.642599e+03
8.678117e+02,9.642902e+03
8.687759e+02,9.647753e+03
8.697402e+02,9.646792e+03
8.707044e+02,9.625071e+03
8.716686e+02,9.602395e+03
8.726329e+02,9.593627e+03
8.735971e+02,9.594748e+03
8.745613e+02,9.594067e+03
8.755256e+02,9.590462e+03
8.764898e+02,9.586372e+03
8.774540e+02,9.578291e+03
8.784183e+02,9.568062e+03
8.793825e+02,9.560194e+03
8.803467e+02,9.556202e+03
8.813110e+02,9.554691e+03
8.822752e+02,9.559391e+03
8.832394e+02,9.568876e+03
8.842037e+02,9.568476e+03
8.851679e+02,9.551224e+03
8.861321e+02,9.528821e+03
8.870964e+02,9.521662e+03
8.880606e+02,9.530206e+03
8.890248e+02,9.529714e+03
8.899891e+02,9.520415e+03
8.909533e+02,9.508197e+03
8.919175e+02,9.495196e+03
8.928818e+02,9.479458e+03
8.938460e+02,9.470938e+03
8.948102e+02,9.471569e+03
8.957745e+02,9.472531e+03
8.967387e+02,9.471187e+03
8.977029e+02,9.465493e+03
8.986672e+02,9.455127e+03
8.996314e+02,9.443432e+03
9.005956e+02,9.434078e+03
9.015599e+02,9.427371e+03
9.025241e+02,9.421229e+03
9.034883e+02,9.413668e+03
9.044526e+02,9.399943e+03
9.054168e+02,9.383759e+03
9.063810e+02,9.373951e+03
9.073453e+02,9.372782e+03
9.083095e+02,9.375634e+03
9.092737e+02,9.377354e+03
9.102380e+02,9.377822e+03
9.112022e+02,9.379563e+03
9.121664e+02,9.380529e+03
9.131307e+02,9.378166e+03
9.140949e+02,9.374960e+03
9.150591e+02,9.372840e+03
9.160234e+02,9.364225e+03
9.169876e+02,9.345929e+03
9.179518e+02,9.335005e+03
9.189161e+02,9.335568e+03
9.198803e+02,9.336384e+03
9.208445e+02,9.327290e+03
9.218088e+02,9.309497e+03
9.227730e+02,9.298689e+03
9.237372e+02,9.293830e+03
9.247015e+02,9.291672e+03
9.256657e+02,9.291013e+03
9.266299e+02,9.291237e+03
9.275942e+02,9.291654e+03
9.285584e+02,9.291376e+03
9.295226e+02,9.288183e+03
9.304869e+02,9.281851e+03
9.314511e+02,9.274488e+03
9.324153e+02,9.268190e+03
9.333796e+02,9.263582e+03
9.343438e+02,9.258859e+03
9.353080e+02,9.249276e+03
9.362723e+02,9.236050e+03
9.372365e+02,9.225329e+03
9.382007e+02,9.226712e+03
9.391650e+02,9.230568e+03
9.401292e+02,9.230643e+03
9.410934e+02,9.230179e+03
9.420577e+02,9.232654e+03
9.430219e+02,9.238547e+03
9.439861e+02,9.238138e+03
9.449504e+02,9.220924e+03
9.459146e+02,9.202021e+03
9.468788e+02,9.198271e+03
9.478431e+02,9.205438e+03
9.488073e+02,9.208416e+03
9.497715e+02,9.198660e+03
9.507358e+02,9.181518e+03
9.517000e+02,9.167496e+03
9.526642e+02,9.158993e+03
9.536285e+02,9.147474e+03
9.545927e+02,9.121654e+03
9.555569e+02,9.089669e+03
9.565212e+02,9.082826e+03
9.574854e+02,9.104897e+03
9.584496e+02,9.129538e+03
9.594139e+02,9.143827e+03
9.603781e+02,9.146606e+03
9.613423e+02,9.139522e+03
9.623066e+02,9.120395e+03
9.632708e+02,9.104315e+03
9.642350e+02,9.096710e+03
9.651993e+02,9.095093e+03
9.661635e+02,9.092731e+03
9.671277e+02,9.085290e+03
9.680920e+02,9.080337e+03
9.690562e+02,9.084229e+03
9.700204e+02,9.082387e+03
9.709847e+02,9.063958e+03
9.719489e+02,9.026302e+03
9.729131e+02,9.000812e+03
9.738774e+02,8.993056e+03
9.748416e+02,8.995926e+03
9.758058e+02,9.007332e+03
9.767701e+02,9.022735e+03
9.777343e+02,9.033031e+03
9.786985e+02,9.039428e+03
9.796628e+02,9.035494e+03
9.806270e+02,9.013583e+03
9.815912e+02,8.982470e+03
9.825555e+02,8.957275e+03
9.835197e+02,8.950187e+03
9.844839e+02,8.945995e+03
9.854482e+02,8.938792e+03
9.864124e+02,8.932561e+03
9.873766e+02,8.930276e+03
9.883409e+02,8.934136e+03
9.893051e+02,8.937116e+03
9.902693e+02,8.931996e+03
9.912336e+02,8.926233e+03
9.921978e+02,8.924271e+03
9.931620e+02,8.924265e+03
9.941263e+02,8.925470e+03
9.950905e+02,8.932689e+03
9.960547e+02,8.939807e+03
9.970190e+02,8.938158e+03
9.979832e+02,8.927824e+03
9.989474e+02,8.913427e+03
9.999117e+02,8.900172e+03
1.000876e+03,8.888655e+03
1.001840e+03,8.878254e+03
1.002804e+03,8.870901e+03
1.003769e+03,8.865667e+03
1.004733e+03,8.859531e+03
1.005697e+03,8.853589e+03
1.006661e+03,8.852150e+03
1.007626e+03,8.854766e+03
1.008590e+03,8.857149e+03
1.009554e+03,8.856672e+03
1.010518e+03,8.850330e+03
1.011482e+03,8.833718e+03
1.012447e+03,8.808776e+03
1.013411e+03,8.794176e+03
1.014375e+03,8.795452e+03
1.015339e+03,8.801665e+03
1.016304e+03,8.803479e+03
1.017268e+03,8.800257e+03
1.018232e+03,8.791012e+03
1.019196e+03,8.773059e+03
1.020161e+03,8.761299e+03
1.021125e+03,8.765255e+03
1.022089e+03,8.780372e+03
1.023053e+03,8.787517e+03
1.024018e+03,8.781522e+03
1.024982e+03,8.776675e+03
1.025946e+03,8.774666e+03
1.026910e+03,8.770121e+03
1.027875e+03,8.761046e+03
1.028839e+03,8.750994e+03
1.029803e+03,8.740996e+03
1.030767e+03,8.730069e+03
1.031731e+03,8.722150e+03
1.032696e+03,8.719966e+03
1.033660e+03,8.723248e+03
1.034624e+03,8.716571e+03
1.035588e+03,8.694410e+03
1.036552e+03,8.678232e+03
1.037517e+03,8.674689e+03
1.038481e+03,8.679350e+03
1.039445e+03,8.685377e+03
1.040409e+03,8.697995e+03
1.041374e+03,8.704003e+03
1.042338e+03,8.703105e+03
1.043302e+03,8.697369e+03
1.044266e+03,8.686904e+03
1.045231e+03,8.666034e+03
1.046195e+03,8.648290e+03
1.047159e+03,8.633771e+03
1.048123e+03,8.625724e+03
1.049088e+03,8.628693e+03
1.050052e+03,8.647543e+03
1.051016e+03,8.661250e+03
1.051980e+03,8.661825e+03
1.052945e+03,8.663522e+03
1.053909e+03,8.670666e+03
1.054873e+03,8.677014e+03
1.055837e+03,8.674396e+03
1.056802e+03,8.656603e+03
1.057766e+03,8.643153e+03
1.058730e+03,8.643232e+03
1.059694e+03,8.649199e+03
1.060658e+03,8.650322e+03
1.061623e+03,8.648478e+03
1.062587e+03,8.641051e+03
1.063551e+03,8.620423e+03
1.064515e+03,8.600718e+03
1.065479e+03,8.590877e+03
1.066444e+03,8.593822e+03
1.067408e+03,8.597369e+03
1.068372e+03,8.598089e+03
1.069336e+03,8.600476e+03
1.070301e+03,8.604147e+03
1.071265e+03,8.606080e+03
1.072229e+03,8.604125e+03
1.073193e+03,8.593744e+03
1.074158e+03,8.584081e+03
1.075122e+03,8.581991e+03
1.076086e+03,8.580249e+03
1.077050e+03,8.571087e+03
1.078015e+03,8.553686e+03
1.078979e+03,8.542112e+03
1.079943e+03,8.537600e+03
1.080907e+03,8.538264e+03
1.081872e+03,8.541962e+03
1.082836e+03,8.546161e+03
1.083800e+03,8.546447e+03
1.084764e+03,8.541583e+03
1.085729e+03,8.537478e+03
1.086693e+03,8.537723e+03
1.087657e+03,8.538876e+03
1.088621e+03,8.534239e+03
1.089585e+03,8.513777e+03
1.090550e+03,8.494001e+03
1.091514e+03,8.484694e+03
1.092478e+03,8.481997e+03
1.093442e+03,8.480021e+03
1.094406e+03,8.478558e+03
1.095371e+03,8.478792e+03
1.096335e+03,8.483175e+03
1.097299e+03,8.484143e+03
1.098263e+03,8.473448e+03
1.099228e+03,8.450983e+03
1.100192e+03,8.436147e+03
1.101156e+03,8.437582e+03
1.102120e+03,8.440038e+03
1.103085e+03,8.439203e+03
1.104049e+03,8.436149e+03
1.105013e+03,8.433263e+03
1.105977e+03,8.434030e+03
1.106942e+03,8.432411e+03
1.107906e+03,8.428862e+03
1.108870e+03,8.422599e+03
1.109834e+03,8.410394e+03
1.110799e+03,8.388130e+03
1.111763e+03,8.376565e+03
1.112727e+03,8.390723e+03
1.113691e+03,8.406511e+03
1.114656e+03,8.408672e+03
1.115620e+03,8.399174e+03
1.116584e+03,8.395326e+03
1.117548e+03,8.397877e+03
1.118512e+03,8.399594e+03
1.119477e+03,8.400981e+03
1.120441e+03,8.400745e+03
1.121405e+03,8.398136e+03
1.122369e+03,8.396540e+03
1.123334e+03,8.388064e+03
1.124298e+03,8.369015e+03
1.125262e+03,8.349144e+03
1.126226e+03,8.334289e+03
1.127191e+03,8.324709e+03
1.128155e+03,8.323621e+03
1.129119e+03,8.331954e+03
1.130083e+03,8.343561e+03
1.131047e+03,8.357006e+03
1.132012e+03,8.369568e+03
1.132976e+03,8.379145e+03
1.133940e+03,8.389589e+03
1.134904e+03,8.387557e+03
1.135869e+03,8.367890e+03
1.136833e+03,8.343658e+03
1.137797e+03,8.329427e+03
1.138761e+03,8.331112e+03
1.139726e+03,8.330609e+03
1.140690e+03,8.325359e+03
1.141654e+03,8.319645e+03
1.142618e+03,8.315292e+03
1.143583e+03,8.312617e+03
1.144547e+03,8.309897e+03
1.145511e+03,8.307196e+03
1.146475e+03,8.302729e+03
1.147439e+03,8.294665e+03
1.148404e+03,8.286939e+03
1.149368e+03,8.283257e+03
1.150332e+03,8.282546e+03
1.151296e+03,8.288524e+03
1.152261e+03,8.299988e+03
1.153225e+03,8.302802e+03
1.154189e+03,8.287367e+03
1.155153e+03,8.259890e+03
1.156118e+03,8.246131e+03
1.157082e+03,8.249021e+03
1.158046e+03,8.257785e+03
1.159010e+03,8.265284e+03
1.159974e+03,8.271219e+03
1.160939e+03,8.274333e+03
1.161903e+03,8.273611e+03
1.162867e+03,8.275138e+03
1.163831e+03,8.279951e+03
1.164796e+03,8.281362e+03
1.165760e+03,8.275324e+03
1.166724e+03,8.263349e+03
1.167688e+03,8.241229e+03
1.168653e+03,8.211591e+03
1.169617e+03,8.190819e+03
1.170581e+03,8.197178e+03
1.171545e+03,8.210631e+03
1.172510e+03,8.196645e+03
1.173474e+03,8.167154e+03
1.174438e+03,8.147897e+03
1.175402e+03,8.146263e+03
1.176366e+03,8.149243e+03
1.177331e+03,8.146626e+03
1.178295e+03,8.143165e+03
1.179259e+03,8.145304e+03
1.180223e+03,8.150516e+03
1.181188e+03,8.149733e+03
1.182152e+03,8.133877e+03
1.183116e+03,8.114940e+03
1.184080e+03,8.102947e+03
1.185045e+03,8.096834e+03
1.186009e+03,8.091767e+03
1.186973e+03,8.087610e+03
1.187937e+03,8.087384e+03
1.188901e+03,8.092247e+03
1.189866e+03,8.099354e+03
1.190830e+03,8.106499e+03
1.191794e+03,8.111799e+03
1.192758e+03,8.110698e+03
1.193723e+03,8.098572e+03
1.194687e+03,8.090499e+03
1.195651e+03,8.093789e+03
1.196615e+03,8.103290e+03
1.197580e+03,8.106287e+03
1.198544e+03,8.094506e+03
1.199508e+03,8.076719e+03
1.200472e+03,8.052696e+03
1.201437e+03,8.031825e+03
1.202401e+03,8.024810e+03
1.203365e+03,8.036560e+03
1.204329e+03,8.038916e+03
1.205293e+03,8.026437e+03
1.206258e+03,8.014935e+03
1.207222e+03,8.009825e+03
1.208186e+03,8.009242e+03
1.209150e+03,8.010903e+03
1.210115e+03,8.012893e+03
1.211079e+03,8.012112e+03
1.212043e+03,8.008958e+03
1.213007e+03,8.002438e+03
1.213972e+03,7.992296e+03
1.214936e+03,7.981594e+03
1.215900e+03,7.976868e+03
1.216864e+03,7.978162e+03
1.217828e+03,7.979458e+03
1.218793e+03,7.977398e+03
1.219757e+03,7.973710e+03
1.220721e+03,7.970394e+03
1.221685e+03,7.968264e+03
1.222650e+03,7.965490e+03
1.223614e+03,7.958891e+03
1.224578e+03,7.952117e+03
1.225542e+03,7.952993e+03
1.226507e+03,7.957793e+03
1.227471e+03,7.963474e+03
1.228435e+03,7.965927e+03
1.229399e+03,7.958015e+03
1.230364e+03,7.930458e+03
1.231328e+03,7.902354e+03
1.232292e+03,7.888760e+03
1.233256e+03,7.884357e+03
1.234220e+03,7.877115e+03
1.235185e+03,7.864201e+03
1.236149e+03,7.856864e+03
1.237113e+03,7.860234e+03
1.238077e+03,7.869313e+03
1.239042e+03,7.877401e+03
1.240006e+03,7.881222e+03
1.240970e+03,7.883549e+03
1.241934e+03,7.886581e+03
1.242899e+03,7.883040e+03
1.243863e+03,7.870302e+03
1.244827e+03,7.855860e+03
1.245791e+03,7.849709e+03
1.246755e+03,7.854162e+03
1.247720e+03,7.853251e+03
1.248684e+03,7.846965e+03
1.249648e+03,7.838874e+03
1.250612e+03,7.829248e+03
1.251577e+03,7.818292e+03
1.252541e+03,7.810385e+03
1.253505e+03,7.804535e+03
1.254469e+03,7.799758e+03
1.255434e+03,7.797246e+03
1.256398e+03,7.797357e+03
1.257362e+03,7.797916e+03
1.258326e+03,7.798038e+03
1.259291e+03,7.801481e+03
1.260255e+03,7.805640e+03
1.261219e+03,7.801320e+03
1.262183e+03,7.781720e+03
1.263147e+03,7.761761e+03
1.264112e+03,7.749398e+03
1.265076e+03,7.743586e+03
1.266040e+03,7.742083e+03
1.267004e+03,7.745896e+03
1.267969e+03,7.750268e+03
1.268933e+03,7.758202e+03
1.269897e+03,7.768974e+03
1.270861e+03,7.777053e+03
1.271826e+03,7.776739e+03
1.272790e+03,7.772116e+03
1.273754e+03,7.765375e+03
1.274718e+03,7.755701e+03
1.275682e+03,7.744310e+03
1.276647e+03,7.735298e+03
1.277611e+03,7.732639e+03
1.278575e+03,7.736796e+03
1.279539e+03,7.734471e+03
1.280504e+03,7.729046e+03
1.281468e+03,7.722982e+03
1.282432e+03,7.714093e+03
1.283396e+03,7.705283e+03
1.284361e+03,7.704659e+03
1.285325e+03,7.709006e+03
1.286289e+03,7.712143e+03
1.287253e+03,7.712055e+03
1.288218e+03,7.710143e+03
1.289182e+03,7.708886e+03
1.290146e+03,7.708317e+03
1.291110e+03,7.712131e+03
1.292074e+03,7.718397e+03
1.293039e+03,7.717266e+03
1.294003e+03,7.696050e+03
1.294967e+03,7.673192e+03
1.295931e+03,7.654148e+03
1.296896e+03,7.643245e+03
1.297860e+03,7.646026e+03
1.298824e+03,7.667009e+03
1.299788e+03,7.677607e+03
1.300753e+03,7.666900e+03
1.301717e+03,7.657655e+03
1.302681e+03,7.659881e+03
1.303645e+03,7.669600e+03
1.304609e+03,7.676678e+03
1.305574e+03,7.678651e+03
1.306538e+03,7.671701e+03
1.307502e+03,7.657538e+03
1.308466e+03,7.645251e+03
1.309431e+03,7.641298e+03
1.310395e+03,7.644475e+03
1.311359e+03,7.652440e+03
1.312323e+03,7.660413e+03
1.313288e+03,7.659847e+03
1.314252e+03,7.648717e+03
1.315216e+03,7.638254e+03
1.316180e+03,7.635630e+03
1.317145e+03,7.638630e+03
1.318109e+03,7.643156e+03
1.319073e+03,7.645711e+03
1.320037e+03,7.645985e+03
1.321001e+03,7.646221e+03
1.321966e+03,7.642554e+03
1.322930e+03,7.634166e+03
1.323894e+03,7.625410e+03
1.324858e+03,7.619734e+03
1.325823e+03,7.618748e+03
1.326787e+03,7.615852e+03
1.327751e+03,7.607591e+03
1.328715e+03,7.598664e+03
1.329680e+03,7.592640e+03
1.330644e+03,7.590215e+03
1.331608e+03,7.595266e+03
1.332572e+03,7.606148e+03
1.333536e+03,7.610476e+03
1.334501e+03,7.603310e+03
1.335465e+03,7.590155e+03
1.336429e+03,7.579433e+03
1.337393e+03,7.570773e+03
1.338358e+03,7.560989e+03
1.339322e+03,7.550736e+03
1.340286e+03,7.543164e+03
1.341250e+03,7.545878e+03
1.342215e+03,7.543900e+03
1.343179e+03,7.531008e+03
1.344143e+03,7.517336e+03
1.345107e+03,7.508823e+03
1.346072e+03,7.504032e+03
1.347036e+03,7.501140e+03
1.348000e+03,7.499432e+03
1.348964e+03,7.496568e+03
1.349928e+03,7.494399e+03
1.350893e+03,7.493383e+03
1.351857e+03,7.488097e+03
1.352821e+03,7.477193e+03
1.353785e+03,7.469445e+03
1.354750e+03,7.465013e+03
1.355714e+03,7.459901e+03
1.356678e+03,7.455830e+03
1.357642e+03,7.452589e+03
1.358607e+03,7.443369e+03
1.359571e+03,7.430249e+03
1.360535e+03,7.420123e+03
1.361499e+03,7.417467e+03
1.362464e+03,7.416451e+03
1.363428e+03,7.413728e+03
1.364392e+03,7.414850e+03
1.365356e+03,7.422728e+03
1.366320e+03,7.432774e+03
1.367285e+03,7.433615e+03
1.368249e+03,7.424953e+03
1.369213e+03,7.415528e+03
1.370177e+03,7.406347e+03
1.371142e+03,7.398258e+03
1.372106e+03,7.394367e+03
1.373070e+03,7.393435e+03
1.374034e+03,7.384311e+03
1.374999e+03,7.369735e+03
1.375963e+03,7.359219e+03
1.376927e+03,7.357414e+03
1.377891e+03,7.359947e+03
1.378855e+03,7.365575e+03
1.379820e+03,7.368985e+03
1.380784e+03,7.362770e+03
1.381748e+03,7.348070e+03
1.382712e+03,7.335193e+03
1.383677e+03,7.321944e+03
1.384641e+03,7.309455e+03
1.385605e+03,7.294092e+03
1.386569e+03,7.281038e+03
1.387534e+03,7.281984e+03
1.388498e+03,7.302350e+03
1.389462e+03,7.310564e+03
1.390426e+03,7.302844e+03
1.391391e+03,7.287488e+03
1.392355e+03,7.268788e+03
1.393319e+03,7.252507e+03
1.394283e+03,7.248303e+03
1.395247e+03,7.252024e+03
1.396212e+03,7.257534e+03
1.397176e+03,7.263717e+03
1.398140e+03,7.266981e+03
1.399104e+03,7.261829e+03
1.400069e+03,7.253176e+03
1.401033e+03,7.243578e+03
1.401997e+03,7.233569e+03
1.402961e+03,7.224183e+03
1.403926e+03,7.215342e+03
1.404890e+03,7.205453e+03
1.405854e+03,7.194284e+03
1.406818e+03,7.187317e+03
1.407782e+03,7.190716e+03
1.408747e+03,7.202424e+03
1.409711e+03,7.208862e+03
1.410675e+03,7.206481e+03
1.411639e+03,7.195009e+03
1.412604e+03,7.174218e+03
1.413568e+03,7.157758e+03
1.414532e+03,7.167279e+03
1.415496e+03,7.181845e+03
1.416461e+03,7.178214e+03
1.417425e+03,7.158128e+03
1.418389e+03,7.140697e+03
1.419353e+03,7.128798e+03
1.420318e+03,7.122222e+03
1.421282e+03,7.126958e+03
1.422246e+03,7.133718e+03
1.423210e+03,7.133814e+03
1.424174e+03,7.129088e+03
1.425139e+03,7.125021e+03
1.426103e+03,7.119560e+03
1.427067e+03,7.111474e+03
1.428031e+03,7.100329e+03
1.428996e+03,7.091169e+03
1.429960e+03,7.087780e+03
1.430924e+03,7.086872e+03
1.431888e+03,7.087132e+03
1.432853e+03,7.087891e+03
1.433817e+03,7.085565e+03
1.434781e+03,7.076849e+03
1.435745e+03,7.072431e+03
1.436709e+03,7.073926e+03
1.437674e+03,7.072460e+03
1.438638e+03,7.060847e+03
1.439602e+03,7.042846e+03
1.440566e+03,7.037408e+03
1.441531e+03,7.042628e+03
1.442495e+03,7.047177e+03
1.443459e+03,7.045626e+03
1.444423e+03,7.042560e+03
1.445388e+03,7.045413e+03
1.446352e+03,7.044580e+03
1.447316e+03,7.028439e+03
1.448280e+03,7.002408e+03
1.449245e+03,6.984900e+03
1.450209e+03,6.985931e+03
1.451173e+03,6.986397e+03
1.452137e+03,6.978125e+03
1.453101e+03,6.969706e+03
1.454066e+03,6.973603e+03
1.455030e+03,6.987878e+03
1.455994e+03,6.995237e+03
1.456958e+03,6.995789e+03
1.457923e+03,6.989952e+03
1.458887e+03,6.974201e+03
1.459851e+03,6.958813e+03
1.460815e+03,6.953986e+03
1.461780e+03,6.950929e+03
1.462744e+03,6.947192e+03
1.463708e+03,6.943081e+03
1.464672e+03,6.933497e+03
1.465636e+03,6.914728e+03
1.466601e+03,6.905205e+03
1.467565e+03,6.910048e+03
1.468529e+03,6.917046e+03
1.469493e+03,6.910892e+03
1.470458e+03,6.894380e+03
1.471422e+03,6.886159e+03
1.472386e+03,6.885842e+03
1.473350e+03,6.887420e+03
1.474315e+03,6.887521e+03
1.475279e+03,6.886977e+03
1.476243e+03,6.887214e+03
1.477207e+03,6.884005e+03
1.478172e+03,6.876188e+03
1.479136e+03,6.865208e+03
1.480100e+03,6.854329e+03
1.481064e+03,6.844430e+03
1.482028e+03,6.833363e+03
1.482993e+03,6.821018e+03
1.483957e+03,6.813164e+03
1.484921e+03,6.815635e+03
1.485885e+03,6.823258e+03
1.486850e+03,6.825014e+03
1.487814e+03,6.821983e+03
1.488778e+03,6.822495e+03
1.489742e+03,6.833850e+03
1.490707e+03,6.833802e+03
1.491671e+03,6.805380e+03
1.492635e+03,6.783098e+03
1.493599e+03,6.781526e+03
1.494563e+03,6.791358e+03
1.495528e+03,6.791892e+03
1.496492e+03,6.782447e+03
1.497456e+03,6.775875e+03
1.498420e+03,6.775799e+03
1.499385e+03,6.777522e+03
1.500349e+03,6.780075e+03
1.501313e+03,6.780518e+03
1.502277e+03,6.771116e+03
1.503242e+03,6.757957e+03
1.504206e+03,6.750283e+03
1.505170e+03,6.749674e+03
1.506134e+03,6.750517e+03
1.507099e+03,6.756231e+03
1.508063e+03,6.755603e+03
1.509027e+03,6.743450e+03
1.509991e+03,6.724872e+03
1.510955e+03,6.704823e+03
1.511920e+03,6.686531e+03
1.512884e+03,6.681746e+03
1.513848e+03,6.691708e+03
1.514812e+03,6.702238e+03
1.515777e+03,6.698053e+03
1.516741e+03,6.694041e+03
1.517705e+03,6.695208e+03
1.518669e+03,6.697596e+03
1.519634e+03,6.700255e+03
1.520598e+03,6.701940e+03
1.521562e+03,6.699657e+03
1.522526e+03,6.692055e+03
1.523490e+03,6.689360e+03
1.524455e+03,6.697705e+03
1.525419e+03,6.700165e+03
1.526383e+03,6.674081e+03
1.527347e+03,6.641876e+03
1.528312e+03,6.626545e+03
1.529276e+03,6.627814e+03
1.530240e+03,6.627568e+03
1.531204e+03,6.618859e+03
1.532169e+03,6.618657e+03
1.533133e+03,6.630139e+03
1.534097e+03,6.642179e+03
1.535061e+03,6.648163e+03
1.536026e+03,6.645688e+03
1.536990e+03,6.626627e+03
1.537954e+03,6.600149e+03
1.538918e+03,6.582437e+03
1.539882e+03,6.576955e+03
1.540847e+03,6.576084e+03
1.541811e+03,6.580472e+03
1.542775e+03,6.581419e+03
1.543739e+03,6.578202e+03
1.544704e+03,6.574113e+03
1.545668e+03,6.572284e+03
1.546632e+03,6.573718e+03
1.547596e+03,6.583395e+03
1.548561e+03,6.598880e+03
1.549525e+03,6.606224e+03
1.550489e+03,6.587820e+03
1.551453e+03,6.569285e+03
1.552417e+03,6.562869e+03
1.553382e+03,6.560765e+03
1.554346e+03,6.559334e+03
1.555310e+03,6.559162e+03
1.556274e+03,6.554257e+03
1.557239e+03,6.544117e+03
1.558203e+03,6.532989e+03
1.559167e+03,6.521935e+03
1.560131e+03,6.511461e+03
1.561096e+03,6.500303e+03
1.562060e+03,6.493205e+03
1.563024e+03,6.497300e+03
1.563988e+03,6.507126e+03
1.564953e+03,6.509228e+03
1.565917e+03,6.499546e+03
1.566881e+03,6.491783e+03
1.567845e+03,6.483915e+03
1.568809e+03,6.484761e+03
1.569774e+03,6.507006e+03
1.570738e+03,6.526790e+03
1.571702e+03,6.502391e+03
1.572666e+03,6.460471e+03
1.573631e+03,6.436093e+03
1.574595e+03,6.435401e+03
1.575559e+03,6.435304e+03
1.576523e+03,6.431945e+03
1.577488e+03,6.435863e+03
1.578452e+03,6.447093e+03
1.579416e+03,6.457952e+03
1.580380e+03,6.464962e+03
1.581344e+03,6.466361e+03
1.582309e+03,6.455899e+03
1.583273e+03,6.438593e+03
1.584237e+03,6.423883e+03
1.585201e+03,6.414686e+03
1.586166e+03,6.409072e+03
1.587130e+03,6.407652e+03
1.588094e+03,6.403239e+03
1.589058e+03,6.395154e+03
1.590023e+03,6.383106e+03
1.590987e+03,6.358102e+03
1.591951e+03,6.330620e+03
1.592915e+03,6.322262e+03
1.593880e+03,6.330511e+03
1.594844e+03,6.338736e+03
1.595808e+03,6.345439e+03
1.596772e+03,6.345106e+03
1.597736e+03,6.335639e+03
1.598701e+03,6.326262e+03
1.599665e+03,6.325410e+03
1.600629e+03,6.329614e+03
1.601593e+03,6.322408e+03
1.602558e+03,6.307828e+03
1.603522e+03,6.300026e+03
1.604486e+03,6.304787e+03
1.605450e+03,6.302867e+03
1.606415e+03,6.275690e+03
1.607379e+03,6.258853e+03
1.608343e+03,6.267389e+03
1.609307e+03,6.288453e+03
1.610271e+03,6.303369e+03
1.611236e+03,6.310845e+03
1.612200e+03,6.307501e+03
1.613164e+03,6.295993e+03
1.614128e+03,6.282437e+03
1.615093e+03,6.264005e+03
1.616057e+03,6.249178e+03
1.617021e+03,6.239994e+03
1.617985e+03,6.232846e+03
1.618950e+03,6.229013e+03
1.619914e+03,6.226827e+03
1.620878e+03,6.217266e+03
1.621842e+03,6.203100e+03
1.622807e+03,6.192552e+03
1.623771e+03,6.188471e+03
1.624735e+03,6.184276e+03
1.625699e+03,6.168502e+03
1.626663e+03,6.157083e+03
1.627628e+03,6.157083e+03
1.628592e+03,6.157495e+03
1.629556e+03,6.147721e+03
1.630520e+03,6.132896e+03
1.631485e+03,6.126742e+03
1.632449e+03,6.126746e+03
1.633413e+03,6.123900e+03
1.634377e+03,6.113925e+03
1.635342e+03,6.104818e+03
1.636306e+03,6.101065e+03
1.637270e+03,6.098265e+03
1.638234e+03,6.093923e+03
1.639198e+03,6.089732e+03
1.640163e+03,6.086446e+03
1.641127e+03,6.085402e+03
1.642091e+03,6.087534e+03
1.643055e+03,6.090121e+03
1.644020e+03,6.087874e+03
1.644984e+03,6.072499e+03
1.645948e+03,6.056555e+03
1.646912e+03,6.045523e+03
1.647877e+03,6.033696e+03
1.648841e+03,6.012210e+03
1.649805e+03,5.989421e+03
1.650769e+03,5.997853e+03
1.651734e+03,6.024012e+03
1.652698e+03,6.035039e+03
1.653662e+03,6.018696e+03
1.654626e+03,6.003100e+03
1.655590e+03,5.997874e+03
1.656555e+03,5.990213e+03
1.657519e+03,5.978134e+03
1.658483e+03,5.967718e+03
1.659447e+03,5.962879e+03
1.660412e+03,5.960718e+03
1.661376e+03,5.964397e+03
1.662340e+03,5.972350e+03
1.663304e+03,5.974810e+03
1.664269e+03,5.959717e+03
1.665233e+03,5.947653e+03
1.666197e+03,5.937844e+03
1.667161e+03,5.928272e+03
1.668125e+03,5.919585e+03
1.669090e+03,5.911391e+03
1.670054e+03,5.903311e+03
1.671018e+03,5.895763e+03
1.671982e+03,5.889813e+03
1.672947e+03,5.886277e+03
1.673911e+03,5.888915e+03
1.674875e+03,5.897808e+03
1.675839e+03,5.897301e+03
1.676804e+03,5.887555e+03
1.677768e+03,5.877661e+03
1.678732e+03,5.869828e+03
1.679696e+03,5.865482e+03
1.680661e+03,5.871528e+03
1.681625e+03,5.876265e+03
1.682589e+03,5.864875e+03
1.683553e+03,5.838591e+03
1.684517e+03,5.829596e+03
1.685482e+03,5.836563e+03
1.686446e+03,5.844694e+03
1.687410e+03,5.849901e+03
1.688374e+03,5.851710e+03
1.689339e+03,5.851263e+03
1.690303e+03,5.844415e+03
1.691267e+03,5.822013e+03
1.692231e+03,5.797572e+03
1.693196e+03,5.794116e+03
1.694160e+03,5.806565e+03
1.695124e+03,5.812463e+03
1.696088e+03,5.811886e+03
1.697052e+03,5.806811e+03
1.698017e+03,5.788830e+03
1.698981e+03,5.774149e+03
1.699945e+03,5.764595e+03
1.700909e+03,5.758103e+03
1.701874e+03,5.760344e+03
1.702838e+03,5.768256e+03
1.703802e+03,5.765784e+03
1.704766e+03,5.756232e+03
1.705731e+03,5.754076e+03
1.706695e+03,5.761162e+03
1.707659e+03,5.759585e+03
1.708623e+03,5.743031e+03
1.709588e+03,5.734953e+03
1.710552e+03,5.736721e+03
1.711516e+03,5.736334e+03
1.712480e+03,5.720632e+03
1.713444e+03,5.702162e+03
1.714409e+03,5.699502e+03
1.715373e+03,5.704583e+03
1.716337e+03,5.703204e+03
1.717301e+03,5.696401e+03
1.718266e+03,5.688228e+03
1.719230e+03,5.677581e+03
1.720194e+03,5.676776e+03
1.721158e+03,5.689978e+03
1.722123e+03,5.698116e+03
1.723087e+03,5.684421e+03
1.724051e+03,5.665220e+03
1.725015e+03,5.644595e+03
1.725979e+03,5.630536e+03
1.726944e+03,5.637788e+03
1.727908e+03,5.658954e+03
1.728872e+03,5.660109e+03
1.729836e+03,5.644184e+03
1.730801e+03,5.633039e+03
1.731765e+03,5.641219e+03
1.732729e+03,5.641608e+03
1.733693e+03,5.628383e+03
1.734658e+03,5.617333e+03
1.735622e+03,5.614951e+03
1.736586e+03,5.617591e+03
1.737550e+03,5.625763e+03
1.738515e+03,5.632362e+03
1.739479e+03,5.627939e+03
1.740443e+03,5.613132e+03
1.741407e+03,5.598823e+03
1.742371e+03,5.585113e+03
1.743336e+03,5.573023e+03
1.744300e+03,5.562252e+03
1.745264e+03,5.550956e+03
1.746228e+03,5.539172e+03
1.747193e+03,5.531254e+03
1.748157e+03,5.537567e+03
1.749121e+03,5.544928e+03
1.750085e+03,5.535998e+03
1.751050e+03,5.513595e+03
1.752014e+03,5.501663e+03
1.752978e+03,5.500284e+03
1.753942e+03,5.510277e+03
1.754906e+03,5.530748e+03
1.755871e+03,5.536813e+03
1.756835e+03,5.514207e+03
1.757799e+03,5.494091e+03
1.758763e+03,5.487638e+03
1.759728e+03,5.485708e+03
1.760692e+03,5.477012e+03
1.761656e+03,5.468791e+03
1.762620e+03,5.465471e+03
1.763585e+03,5.465401e+03
1.764549e+03,5.468037e+03
1.765513e+03,5.470776e+03
1.766477e+03,5.456289e+03
1.767442e+03,5.429933e+03
1.768406e+03,5.417492e+03
1.769370e+03,5.429696e+03
1.770334e+03,5.438253e+03
1.771298e+03,5.420100e+03
1.772263e+03,5.404444e+03
1.773227e+03,5.401045e+03
1.774191e+03,5.403995e+03
1.775155e+03,5.409497e+03
1.776120e+03,5.411247e+03
1.777084e+03,5.396880e+03
1.778048e+03,5.372837e+03
1.779012e+03,5.356153e+03
1.779977e+03,5.350480e+03
1.780941e+03,5.345322e+03
1.781905e+03,5.338451e+03
1.782869e+03,5.338010e+03
1.783833e+03,5.352026e+03
1.784798e+03,5.361606e+03
1.785762e+03,5.349328e+03
1.786726e+03,5.334930e+03
1.787690e+03,5.329822e+03
1.788655e+03,5.328284e+03
1.789619e+03,5.314009e+03
1.790583e+03,5.295321e+03
1.791547e+03,5.288558e+03
1.792512e+03,5.293238e+03
1.793476e+03,5.299083e+03
1.794440e+03,5.302962e+03
1.795404e+03,5.304410e+03
1.796369e+03,5.301538e+03
1.797333e+03,5.299029e+03
1.798297e+03,5.303709e+03
1.799261e+03,5.304334e+03
1.800225e+03,5.285336e+03
1.801190e+03,5.263585e+03
1.802154e+03,5.252481e+03
1.803118e+03,5.247604e+03
1.804082e+03,5.240138e+03
1.805047e+03,5.233471e+03
1.806011e+03,5.232609e+03
1.806975e+03,5.237037e+03
1.807939e+03,5.238864e+03
1.808904e+03,5.235063e+03
1.809868e+03,5.230456e+03
1.810832e+03,5.227279e+03
1.811796e+03,5.221003e+03
1.812760e+03,5.201626e+03
1.813725e+03,5.183912e+03
1.814689e+03,5.178501e+03
1.815653e+03,5.179152e+03
1.816617e+03,5.183300e+03
1.817582e+03,5.188244e+03
1.818546e+03,5.183712e+03
1.819510e+03,5.171938e+03
1.820474e+03,5.157174e+03
1.821439e+03,5.141324e+03
1.822403e+03,5.133186e+03
1.823367e+03,5.135045e+03
1.824331e+03,5.136171e+03
1.825296e+03,5.133269e+03
1.826260e+03,5.131097e+03
1.827224e+03,5.142258e+03
1.828188e+03,5.153509e+03
1.829152e+03,5.155290e+03
1.830117e+03,5.149292e+03
1.831081e+03,5.133410e+03
1.832045e+03,5.111231e+03
1.833009e+03,5.100991e+03
1.833974e+03,5.099833e+03
1.834938e+03,5.092478e+03
1.835902e+03,5.072781e+03
1.836866e+03,5.063894e+03
1.837831e+03,5.066215e+03
1.838795e+03,5.067750e+03
1.839759e+03,5.068192e+03
1.840723e+03,5.070833e+03
1.841688e+03,5.078007e+03
1.842652e+03,5.082749e+03
1.843616e+03,5.079844e+03
1.844580e+03,5.072750e+03
1.845544e+03,5.070031e+03
1.846509e+03,5.067110e+03
1.847473e+03,5.049638e+03
1.848437e+03,5.026413e+03
1.849401e+03,5.014542e+03
1.850366e+03,5.015083e+03
1.851330e+03,5.018265e+03
1.852294e+03,5.025002e+03
1.853258e+03,5.029721e+03
1.854223e+03,5.030805e+03
1.855187e+03,5.029234e+03
1.856151e+03,5.024714e+03
1.857115e+03,5.011539e+03
1.858079e+03,4.984849e+03
1.859044e+03,4.959689e+03
1.860008e+03,4.959701e+03
1.860972e+03,4.966268e+03
1.861936e+03,4.956249e+03
1.862901e+03,4.943244e+03
1.863865e+03,4.948191e+03
1.864829e+03,4.963516e+03
1.865793e+03,4.946197e+03
1.866758e+03,4.910499e+03
1.867722e+03,4.895230e+03
1.868686e+03,4.913257e+03
1.869650e+03,4.930994e+03
1.870615e+03,4.946885e+03
1.871579e+03,4.943471e+03
1.872543e+03,4.916053e+03
1.873507e+03,4.895300e+03
1.874471e+03,4.912352e+03
1.875436e+03,4.924658e+03
1.876400e+03,4.913239e+03
1.877364e+03,4.893777e+03
1.878328e+03,4.880479e+03
1.879293e+03,4.873075e+03
1.880257e+03,4.870336e+03
1.881221e+03,4.871194e+03
1.882185e+03,4.880643e+03
1.883150e+03,4.900452e+03
1.884114e+03,4.894803e+03
1.885078e+03,4.865906e+03
1.886042e+03,4.837159e+03
1.887006e+03,4.813677e+03
1.887971e+03,4.800419e+03
1.888935e+03,4.805002e+03
1.889899e+03,4.813320e+03
1.890863e+03,4.820352e+03
1.891828e+03,4.823980e+03
1.892792e+03,4.825873e+03
1.893756e+03,4.824300e+03
1.894720e+03,4.818821e+03
1.895685e+03,4.816265e+03
1.896649e+03,4.821913e+03
1.897613e+03,4.829367e+03
1.898577e+03,4.819402e+03
1.899542e+03,4.801441e+03
1.900506e+03,4.796299e+03
1.901470e+03,4.807835e+03
1.902434e+03,4.810240e+03
1.903398e+03,4.804062e+03
1.904363e+03,4.794140e+03
1.905327e+03,4.781545e+03
1.906291e+03,4.774719e+03
1.907255e+03,4.786055e+03
1.908220e+03,4.782148e+03
1.909184e+03,4.753554e+03
1.910148e+03,4.723456e+03
1.911112e+03,4.717327e+03
1.912077e+03,4.721921e+03
1.913041e+03,4.733658e+03
1.914005e+03,4.742273e+03
1.914969e+03,4.735642e+03
1.915933e+03,4.718030e+03
1.916898e+03,4.699279e+03
1.917862e+03,4.684045e+03
1.918826e+03,4.682876e+03
1.919790e+03,4.699274e+03
1.920755e+03,4.701467e+03
1.921719e+03,4.687512e+03
1.922683e+03,4.674979e+03
1.923647e+03,4.669219e+03
1.924612e+03,4.663050e+03
1.925576e+03,4.646899e+03
1.926540e+03,4.642648e+03
1.927504e+03,4.652682e+03
1.928469e+03,4.661881e+03
1.929433e+03,4.654250e+03
1.930397e+03,4.642632e+03
1.931361e+03,4.634980e+03
1.932325e+03,4.630288e+03
1.933290e+03,4.634057e+03
1.934254e+03,4.640845e+03
1.935218e+03,4.620819e+03
1.936182e+03,4.588065e+03
1.937147e+03,4.572958e+03
1.938111e+03,4.577558e+03
1.939075e+03,4.590878e+03
1.940039e+03,4.611535e+03
1.941004e+03,4.612417e+03
1.941968e+03,4.587916e+03
1.942932e+03,4.567974e+03
1.943896e+03,4.563470e+03
1.944860e+03,4.562188e+03
1.945825e+03,4.565327e+03
1.946789e+03,4.566602e+03
1.947753e+03,4.557204e+03
1.948717e+03,4.546241e+03
1.949682e+03,4.535084e+03
1.950646e+03,4.526167e+03
1.951610e+03,4.521248e+03
1.952574e+03,4.519675e+03
1.953539e+03,4.527346e+03
1.954503e+03,4.530879e+03
1.955467e+03,4.512364e+03
1.956431e+03,4.484723e+03
1.957396e+03,4.482832e+03
1.958360e+03,4.494829e+03
1.959324e+03,4.495003e+03
1.960288e+03,4.484128e+03
1.961252e+03,4.471695e+03
1.962217e+03,4.455344e+03
1.963181e+03,4.446313e+03
1.964145e+03,4.443913e+03
1.965109e+03,4.443007e+03
1.966074e+03,4.441009e+03
1.967038e+03,4.447248e+03
1.968002e+03,4.458891e+03
1.968966e+03,4.469854e+03
1.969931e+03,4.481632e+03
1.970895e+03,4.480864e+03
1.971859e+03,4.451599e+03
1.972823e+03,4.423100e+03
1.973787e+03,4.403944e+03
1.974752e+03,4.393992e+03
1.975716e+03,4.402136e+03
1.976680e+03,4.413456e+03
1.977644e+03,4.417177e+03
1.978609e+03,4.414514e+03
1.979573e+03,4.398763e+03
1.980537e+03,4.375447e+03
1.981501e+03,4.368701e+03
1.982466e+03,4.375279e+03
1.983430e+03,4.384537e+03
1.984394e+03,4.395601e+03
1.985358e+03,4.388352e+03
1.986323e+03,4.365838e+03
1.987287e+03,4.351355e+03
1.988251e+03,4.352896e+03
1.989215e+03,4.352085e+03
1.990179e+03,4.346745e+03
1.991144e+03,4.345934e+03
1.992108e+03,4.354474e+03
1.993072e+03,4.356785e+03
1.994036e+03,4.328916e+03
1.995001e+03,4.307565e+03
1.995965e+03,4.302593e+03
1.996929e+03,4.307142e+03
1.997893e+03,4.318437e+03
1.998858e+03,4.326350e+03
1.999822e+03,4.321004e+03
2.000786e+03,4.308326e+03
2.001750e+03,4.295236e+03
2.002714e+03,4.285081e+03
2.003679e+03,4.277005e+03
2.004643e+03,4.270500e+03
2.005607e+03,4.268602e+03
2.006571e+03,4.271367e+03
2.007536e+03,4.280469e+03
2.008500e+03,4.290459e+03
2.009464e+03,4.275433e+03
2.010428e+03,4.238055e+03
2.011393e+03,4.228751e+03
2.012357e+03,4.252276e+03
2.013321e+03,4.258068e+03
2.014285e+03,4.241070e+03
2.015250e+03,4.225890e+03
2.016214e+03,4.225875e+03
2.017178e+03,4.228497e+03
2.018142e+03,4.235245e+03
2.019106e+03,4.232304e+03
2.020071e+03,4.203729e+03
2.021035e+03,4.183881e+03
2.021999e+03,4.196054e+03
2.022963e+03,4.205608e+03
2.023928e+03,4.202245e+03
2.024892e+03,4.190542e+03
2.025856e+03,4.164693e+03
2.026820e+03,4.144459e+03
2.027785e+03,4.140746e+03
2.028749e+03,4.147814e+03
2.029713e+03,4.170343e+03
2.030677e+03,4.192165e+03
2.031641e+03,4.184864e+03
2.032606e+03,4.161679e+03
2.033570e+03,4.144293e+03
2.034534e+03,4.132908e+03
2.035498e+03,4.138543e+03
2.036463e+03,4.151921e+03
2.037427e+03,4.146360e+03
2.038391e+03,4.123899e+03
2.039355e+03,4.116788e+03
2.040320e+03,4.122641e+03
2.041284e+03,4.129940e+03
2.042248e+03,4.135018e+03
2.043212e+03,4.133725e+03
2.044177e+03,4.127343e+03
2.045141e+03,4.116152e+03
2.046105e+03,4.099610e+03
2.047069e+03,4.089491e+03
2.048033e+03,4.095649e+03
2.048998e+03,4.095204e+03
2.049962e+03,4.087296e+03
2.050926e+03,4.080926e+03
2.051890e+03,4.086230e+03
2.052854e+03,4.086774e+03
2.053819e+03,4.075109e+03
2.054783e+03,4.058653e+03
2.055747e+03,4.042204e+03
2.056711e+03,4.030333e+03
2.057676e+03,4.027719e+03
2.058640e+03,4.030168e+03
2.059604e+03,4.033353e+03
2.060568e+03,4.034018e+03
2.061533e+03,4.029069e+03
2.062497e+03,4.022338e+03
2.063461e+03,4.015895e+03
2.064425e+03,4.011419e+03
2.065390e+03,4.014536e+03
2.066354e+03,4.018613e+03
2.067318e+03,4.009722e+03
2.068282e+03,3.995892e+03
2.069247e+03,3.991523e+03
2.070211e+03,3.994188e+03
2.071175e+03,3.997287e+03
2.072139e+03,3.999674e+03
2.073104e+03,3.996201e+03
2.074068e+03,3.987161e+03
2.075032e+03,3.979612e+03
2.075996e+03,3.972794e+03
2.076960e+03,3.972669e+03
2.077925e+03,3.979594e+03
2.078889e+03,3.975465e+03
2.079853e+03,3.959107e+03
2.080817e+03,3.948369e+03
2.081782e+03,3.944505e+03
2.082746e+03,3.934148e+03
2.083710e+03,3.905887e+03
2.084674e+03,3.900823e+03
2.085639e+03,3.923291e+03
2.086603e+03,3.946337e+03
2.087567e+03,3.948326e+03
2.088531e+03,3.946302e+03
2.089496e+03,3.940646e+03
2.090460e+03,3.934274e+03
2.091424e+03,3.936853e+03
2.092388e+03,3.937698e+03
2.093353e+03,3.921074e+03
2.094317e+03,3.912362e+03
2.095281e+03,3.916905e+03
2.096245e+03,3.921666e+03
2.097209e+03,3.915567e+03
2.098174e+03,3.904063e+03
2.099138e+03,3.892224e+03
2.100102e+03,3.877859e+03
2.101066e+03,3.849458e+03
2.102031e+03,3.826247e+03
2.102995e+03,3.834525e+03
2.103959e+03,3.848157e+03
2.104923e+03,3.845547e+03
2.105887e+03,3.838716e+03
2.106852e+03,3.840758e+03
2.107816e+03,3.842572e+03
2.108780e+03,3.837139e+03
2.109744e+03,3.828396e+03
2.110708e+03,3.834479e+03
2.111673e+03,3.844152e+03
2.112637e+03,3.831552e+03
2.113601e+03,3.803948e+03
2.114565e+03,3.777923e+03
2.115530e+03,3.758595e+03
2.116494e+03,3.762877e+03
2.117458e+03,3.787813e+03
2.118422e+03,3.800492e+03
2.119387e+03,3.799569e+03
2.120351e+03,3.794458e+03
2.121315e+03,3.785543e+03
2.122279e+03,3.782584e+03
2.123244e+03,3.785642e+03
2.124208e+03,3.777013e+03
2.125172e+03,3.760803e+03
2.126136e+03,3.743874e+03
2.127101e+03,3.727478e+03
2.128065e+03,3.731323e+03
2.129029e+03,3.751071e+03
2.129993e+03,3.759363e+03
2.130958e+03,3.747081e+03
2.131922e+03,3.731556e+03
2.132886e+03,3.715502e+03
2.133850e+03,3.710999e+03
2.134814e+03,3.721902e+03
2.135779e+03,3.730395e+03
2.136743e+03,3.726582e+03
2.137707e+03,3.723348e+03
2.138671e+03,3.722574e+03
2.139636e+03,3.721508e+03
2.140600e+03,3.721534e+03
2.141564e+03,3.712586e+03
2.142528e+03,3.694585e+03
2.143493e+03,3.676221e+03
2.144457e+03,3.657148e+03
2.145421e+03,3.644895e+03
2.146385e+03,3.643014e+03
2.147350e+03,3.643634e+03
2.148314e+03,3.647173e+03
2.149278e+03,3.652411e+03
2.150242e+03,3.652982e+03
2.151207e+03,3.654532e+03
2.152171e+03,3.657679e+03
2.153135e+03,3.654149e+03
2.154099e+03,3.635880e+03
2.155063e+03,3.623487e+03
2.156028e+03,3.622858e+03
2.156992e+03,3.627397e+03
2.157956e+03,3.631899e+03
2.158920e+03,3.629970e+03
2.159885e+03,3.614092e+03
2.160849e+03,3.604127e+03
2.161813e+03,3.613059e+03
2.162777e+03,3.621227e+03
2.163741e+03,3.611929e+03
2.164706e+03,3.597673e+03
2.165670e+03,3.585388e+03
2.166634e+03,3.578200e+03
2.167598e+03,3.576298e+03
2.168563e+03,3.579075e+03
2.169527e+03,3.584503e+03
2.170491e+03,3.585603e+03
2.171455e+03,3.577973e+03
2.172420e+03,3.568188e+03
2.173384e+03,3.557541e+03
2.174348e+03,3.554003e+03
2.175312e+03,3.570361e+03
2.176277e+03,3.585882e+03
2.177241e+03,3.579577e+03
2.178205e+03,3.564184e+03
2.179169e+03,3.547295e+03
2.180134e+03,3.533408e+03
2.181098e+03,3.525189e+03
2.182062e+03,3.521752e+03
2.183026e+03,3.520141e+03
2.183990e+03,3.517928e+03
2.184955e+03,3.508820e+03
2.185919e+03,3.502542e+03
2.186883e+03,3.507930e+03
2.187847e+03,3.513455e+03
2.188812e+03,3.502794e+03
2.189776e+03,3.490785e+03
2.190740e+03,3.498220e+03
2.191704e+03,3.504208e+03
2.192668e+03,3.481815e+03
2.193633e+03,3.457006e+03
2.194597e+03,3.479126e+03
2.195561e+03,3.504899e+03
2.196525e+03,3.489297e+03
2.197490e+03,3.457939e+03
2.198454e+03,3.458926e+03
2.199418e+03,3.465888e+03
2.200382e+03,3.452789e+03
2.201347e+03,3.437183e+03
2.202311e+03,3.451386e+03
2.203275e+03,3.471219e+03
2.204239e+03,3.466182e+03
2.205204e+03,3.451669e+03
2.206168e+03,3.459485e+03
2.207132e+03,3.471040e+03
2.208096e+03,3.453146e+03
2.209061e+03,3.427099e+03
2.210025e+03,3.422323e+03
2.210989e+03,3.424209e+03
2.211953e+03,3.405121e+03
2.212917e+03,3.392054e+03
2.213882e+03,3.405516e+03
2.214846e+03,3.426667e+03
2.215810e+03,3.423465e+03
2.216774e+03,3.411186e+03
2.217739e+03,3.412755e+03
2.218703e+03,3.419897e+03
2.219667e+03,3.415555e+03
2.220631e+03,3.407665e+03
2.221595e+03,3.403089e+03
2.222560e+03,3.397250e+03
2.223524e+03,3.381153e+03
2.224488e+03,3.363430e+03
2.225452e+03,3.354253e+03
2.226417e+03,3.352723e+03
2.227381e+03,3.361648e+03
2.228345e+03,3.374717e+03
2.229309e+03,3.384169e+03
2.230274e+03,3.383825e+03
2.231238e+03,3.364573e+03
2.232202e+03,3.341810e+03
2.233166e+03,3.346117e+03
2.234131e+03,3.356834e+03
2.235095e+03,3.356380e+03
2.236059e+03,3.351023e+03
2.237023e+03,3.349098e+03
2.237988e+03,3.345265e+03
2.238952e+03,3.334730e+03
2.239916e+03,3.319881e+03
2.240880e+03,3.303552e+03
2.241844e+03,3.291827e+03
2.242809e+03,3.288156e+03
2.243773e+03,3.290957e+03
2.244737e+03,3.303738e+03
2.245701e+03,3.312527e+03
2.246666e+03,3.303400e+03
2.247630e+03,3.286978e+03
2.248594e+03,3.266240e+03
2.249558e+03,3.256442e+03
2.250522e+03,3.287828e+03
2.251487e+03,3.308732e+03
2.252451e+03,3.284987e+03
2.253415e+03,3.251545e+03
2.254379e+03,3.251803e+03
2.255344e+03,3.254019e+03
2.256308e+03,3.245684e+03
2.257272e+03,3.237259e+03
2.258236e+03,3.241378e+03
2.259201e+03,3.244344e+03
2.260165e+03,3.239838e+03
2.261129e+03,3.232663e+03
2.262093e+03,3.219918e+03
2.263058e+03,3.217858e+03
2.264022e+03,3.235830e+03
2.264986e+03,3.250006e+03
2.265950e+03,3.235192e+03
2.266915e+03,3.223884e+03
2.267879e+03,3.224286e+03
2.268843e+03,3.222936e+03
2.269807e+03,3.218222e+03
2.270771e+03,3.212968e+03
2.271736e+03,3.208946e+03
2.272700e+03,3.207040e+03
2.273664e+03,3.204073e+03
2.274628e+03,3.201368e+03
2.275593e+03,3.200454e+03
2.276557e+03,3.191579e+03
2.277521e+03,3.175436e+03
2.278485e+03,3.169445e+03
2.279449e+03,3.189854e+03
2.280414e+03,3.199163e+03
2.281378e+03,3.194894e+03
2.282342e+03,3.187894e+03
2.283306e+03,3.177666e+03
2.284271e+03,3.171834e+03
2.285235e+03,3.168883e+03
2.286199e+03,3.157484e+03
2.287163e+03,3.132718e+03
2.288128e+03,3.132224e+03
2.289092e+03,3.150632e+03
2.290056e+03,3.162293e+03
2.291020e+03,3.161576e+03
2.291985e+03,3.143430e+03
2.292949e+03,3.114006e+03
2.293913e+03,3.100053e+03
2.294877e+03,3.103375e+03
2.295842e+03,3.113439e+03
2.296806e+03,3.125865e+03
2.297770e+03,3.129231e+03
2.298734e+03,3.123273e+03
2.299698e+03,3.110508e+03
2.300663e+03,3.094821e+03
2.301627e+03,3.099401e+03
2.302591e+03,3.112460e+03
2.303555e+03,3.106793e+03
2.304520e+03,3.087563e+03
2.305484e+03,3.077103e+03
2.306448e+03,3.072533e+03
2.307412e+03,3.067802e+03
2.308376e+03,3.060796e+03
2.309341e+03,3.043765e+03
2.310305e+03,3.029415e+03
2.311269e+03,3.042434e+03
2.312233e+03,3.065489e+03
2.313198e+03,3.067964e+03
2.314162e+03,3.059470e+03
2.315126e+03,3.046277e+03
2.316090e+03,3.037308e+03
2.317055e+03,3.053787e+03
2.318019e+03,3.068094e+03
2.318983e+03,3.042500e+03
2.319947e+03,3.019128e+03
2.320912e+03,3.040450e+03
2.321876e+03,3.063776e+03
2.322840e+03,3.053566e+03
2.323804e+03,3.032723e+03
2.324769e+03,3.005140e+03
2.325733e+03,2.990775e+03
2.326697e+03,3.010211e+03
2.327661e+03,3.029044e+03
2.328625e+03,3.036758e+03
2.329590e+03,3.032544e+03
2.330554e+03,3.011198e+03
2.331518e+03,3.000571e+03
2.332482e+03,3.005018e+03
2.333447e+03,3.004876e+03
2.334411e+03,2.987891e+03
2.335375e+03,2.967565e+03
2.336339e+03,2.945726e+03
2.337303e+03,2.939708e+03
2.338268e+03,2.964949e+03
2.339232e+03,2.969698e+03
2.340196e+03,2.958150e+03
2.341160e+03,2.953965e+03
2.342125e+03,2.963639e+03
2.343089e+03,2.970377e+03
2.344053e+03,2.971055e+03
2.345017e+03,2.970967e+03
2.345982e+03,2.970531e+03
2.346946e+03,2.955630e+03
2.347910e+03,2.935458e+03
2.348874e+03,2.930514e+03
2.349839e+03,2.932394e+03
2.350803e+03,2.916167e+03
2.351767e+03,2.894856e+03
2.352731e+03,2.895859e+03
2.353696e+03,2.908173e+03
2.354660e+03,2.912749e+03
2.355624e+03,2.909107e+03
2.356588e+03,2.890179e+03
2.357552e+03,2.877366e+03
2.358517e+03,2.894480e+03
2.359481e+03,2.919686e+03
2.360445e+03,2.930990e+03
2.361409e+03,2.929204e+03
2.362374e+03,2.912583e+03
2.363338e+03,2.889684e+03
2.364302e+03,2.863121e+03
2.365266e+03,2.853910e+03
2.366230e+03,2.867935e+03
2.367195e+03,2.886215e+03
2.368159e+03,2.900152e+03
2.369123e+03,2.901378e+03
2.370087e+03,2.890847e+03
2.371052e+03,2.880406e+03
2.372016e+03,2.876517e+03
2.372980e+03,2.868848e+03
2.373944e+03,2.856813e+03
2.374909e+03,2.854729e+03
2.375873e+03,2.872220e+03
2.376837e+03,2.875287e+03
2.377801e+03,2.866695e+03
2.378766e+03,2.853499e+03
2.379730e+03,2.837878e+03
2.380694e+03,2.832028e+03
2.381658e+03,2.834782e+03
2.382623e+03,2.840895e+03
2.383587e+03,2.845931e+03
2.384551e+03,2.835457e+03
2.385515e+03,2.818841e+03
2.386479e+03,2.816840e+03
2.387444e+03,2.821808e+03
2.388408e+03,2.826376e+03
2.389372e+03,2.828097e+03
2.390336e+03,2.819471e+03
2.391301e+03,2.810451e+03
2.392265e+03,2.810188e+03
2.393229e+03,2.811940e+03
2.394193e+03,2.813933e+03
2.395157e+03,2.811987e+03
2.396122e+03,2.801361e+03
2.397086e+03,2.792811e+03
2.398050e+03,2.791183e+03
2.399014e+03,2.790381e+03
2.399979e+03,2.788283e+03
2.400943e+03,2.781659e+03
2.401907e+03,2.768844e+03
2.402871e+03,2.765055e+03
2.403836e+03,2.774770e+03
2.404800e+03,2.773799e+03
2.405764e+03,2.760892e+03
2.406728e+03,2.757957e+03
2.407693e+03,2.763230e+03
2.408657e+03,2.758981e+03
2.409621e+03,2.749871e+03
2.410585e+03,2.758638e+03
2.411550e+03,2.774817e+03
2.412514e+03,2.768114e+03
2.413478e+03,2.748888e+03
2.414442e+03,2.746969e+03
2.415406e+03,2.748823e+03
2.416371e+03,2.736365e+03
2.417335e+03,2.722578e+03
2.418299e+03,2.726904e+03
2.419263e+03,2.737203e+03
2.420228e+03,2.748598e+03
2.421192e+03,2.754455e+03
2.422156e+03,2.743070e+03
2.423120e+03,2.736555e+03
2.424084e+03,2.737602e+03
2.425049e+03,2.742551e+03
2.426013e+03,2.761105e+03
2.426977e+03,2.754996e+03
2.427941e+03,2.723788e+03
2.428906e+03,2.697373e+03
2.429870e+03,2.680037e+03
2.430834e+03,2.688332e+03
2.431798e+03,2.715501e+03
2.432763e+03,2.718104e+03
2.433727e+03,2.695775e+03
2.434691e+03,2.686966e+03
2.435655e+03,2.686790e+03
2.436620e+03,2.685893e+03
2.437584e+03,2.684521e+03
2.438548e+03,2.688804e+03
2.439512e+03,2.690615e+03
2.440477e+03,2.678387e+03
2.441441e+03,2.663772e+03
2.442405e+03,2.669692e+03
2.443369e+03,2.677565e+03
2.444333e+03,2.680361e+03
2.445298e+03,2.678559e+03
2.446262e+03,2.667794e+03
2.447226e+03,2.657448e+03
2.448190e+03,2.650493e+03
2.449155e+03,2.646688e+03
2.450119e+03,2.649695e+03
2.451083e+03,2.652220e+03
2.452047e+03,2.653302e+03
2.453011e+03,2.652266e+03
2.453976e+03,2.650031e+03
2.454940e+03,2.646588e+03
2.455904e+03,2.644164e+03
2.456868e+03,2.642829e+03
2.457833e+03,2.640815e+03
2.458797e+03,2.639466e+03
2.459761e+03,2.637500e+03
2.460725e+03,2.628579e+03
2.461690e+03,2.620157e+03
2.462654e+03,2.629513e+03
2.463618e+03,2.635867e+03
2.464582e+03,2.627151e+03
2.465547e+03,2.617292e+03
2.466511e+03,2.615188e+03
2.467475e+03,2.610618e+03
2.468439e+03,2.600610e+03
2.469404e+03,2.594926e+03
2.470368e+03,2.608989e+03
2.471332e+03,2.614160e+03
2.472296e+03,2.608925e+03
2.473260e+03,2.604044e+03
2.474225e+03,2.602730e+03
2.475189e+03,2.598173e+03
2.476153e+03,2.594592e+03
2.477117e+03,2.602359e+03
2.478082e+03,2.614520e+03
2.479046e+03,2.609744e+03
2.480010e+03,2.597914e+03
2.480974e+03,2.594235e+03
2.481938e+03,2.593221e+03
2.482903e+03,2.587638e+03
2.483867e+03,2.579918e+03
2.484831e+03,2.569531e+03
2.485795e+03,2.562907e+03
2.486760e+03,2.572499e+03
2.487724e+03,2.578121e+03
2.488688e+03,2.577368e+03
2.489652e+03,2.574880e+03
2.490617e+03,2.572421e+03
2.491581e+03,2.554989e+03
2.492545e+03,2.528543e+03
2.493509e+03,2.525311e+03
2.494474e+03,2.545280e+03
2.495438e+03,2.544676e+03
2.496402e+03,2.533409e+03
2.497366e+03,2.534289e+03
2.498331e+03,2.542156e+03
2.499295e+03,2.551752e+03
2.500259e+03,2.552894e+03
2.501223e+03,2.538372e+03
2.502188e+03,2.522820e+03
2.503152e+03,2.521451e+03
2.504116e+03,2.521863e+03
2.505080e+03,2.519944e+03
2.506044e+03,2.520518e+03
2.507009e+03,2.529162e+03
2.507973e+03,2.530138e+03
2.508937e+03,2.524569e+03
2.509901e+03,2.516175e+03
2.510865e+03,2.504276e+03
2.511830e+03,2.514197e+03
2.512794e+03,2.531804e+03
2.513758e+03,2.513362e+03
2.514722e+03,2.480462e+03
2.515687e+03,2.501047e+03
2.516651e+03,2.532192e+03
2.517615e+03,2.528371e+03
2.518579e+03,2.509876e+03
2.519544e+03,2.497764e+03
2.520508e+03,2.486682e+03
2.521472e+03,2.474656e+03
2.522436e+03,2.467045e+03
2.523401e+03,2.467919e+03
2.524365e+03,2.480686e+03
2.525329e+03,2.502031e+03
2.526293e+03,2.501718e+03
2.527258e+03,2.473541e+03
2.528222e+03,2.459977e+03
2.529186e+03,2.459188e+03
2.530150e+03,2.467196e+03
2.531115e+03,2.478187e+03
2.532079e+03,2.467633e+03
2.533043e+03,2.450527e+03
2.534007e+03,2.442090e+03
2.534971e+03,2.436458e+03
2.535936e+03,2.428936e+03
2.536900e+03,2.427831e+03
2.537864e+03,2.437151e+03
2.538828e+03,2.442573e+03
2.539792e+03,2.430431e+03
2.540757e+03,2.424688e+03
2.541721e+03,2.427612e+03
2.542685e+03,2.428593e+03
2.543649e+03,2.427922e+03
2.544614e+03,2.435838e+03
2.545578e+03,2.446685e+03
2.546542e+03,2.449308e+03
2.547506e+03,2.446032e+03
2.548471e+03,2.437729e+03
2.549435e+03,2.428132e+03
2.550399e+03,2.419477e+03
2.551363e+03,2.414747e+03
2.552328e+03,2.418989e+03
2.553292e+03,2.427848e+03
2.554256e+03,2.442799e+03
2.555220e+03,2.447195e+03
2.556185e+03,2.438316e+03
2.557149e+03,2.432223e+03
2.558113e+03,2.430757e+03
2.559077e+03,2.420461e+03
2.560042e+03,2.404660e+03
2.561006e+03,2.408882e+03
2.561970e+03,2.421564e+03
2.562934e+03,2.403215e+03
2.563898e+03,2.378767e+03
2.564863e+03,2.376196e+03
2.565827e+03,2.380146e+03
2.566791e+03,2.388819e+03
2.567755e+03,2.395252e+03
2.568719e+03,2.394838e+03
2.569684e+03,2.392754e+03
2.570648e+03,2.392554e+03
2.571612e+03,2.387680e+03
2.572576e+03,2.380927e+03
2.573541e+03,2.371945e+03
2.574505e+03,2.361462e+03
2.575469e+03,2.372755e+03
2.576433e+03,2.387600e+03
2.577398e+03,2.378399e+03
2.578362e+03,2.363374e+03
2.579326e+03,2.372550e+03
2.580290e+03,2.374569e+03
2.581255e+03,2.353914e+03
2.582219e+03,2.334661e+03
2.583183e+03,2.337981e+03
2.584147e+03,2.340650e+03
2.585112e+03,2.344464e+03
2.586076e+03,2.346054e+03
2.587040e+03,2.344753e+03
2.588004e+03,2.352464e+03
2.588969e+03,2.361674e+03
2.589933e+03,2.361662e+03
2.590897e+03,2.354491e+03
2.591861e+03,2.332733e+03
2.592825e+03,2.323808e+03
2.593790e+03,2.348285e+03
2.594754e+03,2.369322e+03
2.595718e+03,2.359514e+03
2.596682e+03,2.350577e+03
2.597646e+03,2.347445e+03
2.598611e+03,2.333419e+03
2.599575e+03,2.311745e+03
2.600539e+03,2.320801e+03
2.601503e+03,2.352317e+03
2.602468e+03,2.361024e+03
2.603432e+03,2.352003e+03
2.604396e+03,2.326012e+03
2.605360e+03,2.305722e+03
2.606325e+03,2.316219e+03
2.607289e+03,2.326140e+03
2.608253e+03,2.321733e+03
2.609217e+03,2.318109e+03
2.610182e+03,2.319819e+03
2.611146e+03,2.314482e+03
2.612110e+03,2.304214e+03
2.613074e+03,2.304075e+03
2.614039e+03,2.314175e+03
2.615003e+03,2.315531e+03
2.615967e+03,2.310000e+03
2.616931e+03,2.305266e+03
2.617896e+03,2.302229e+03
2.618860e+03,2.299522e+03
2.619824e+03,2.300743e+03
2.620788e+03,2.306558e+03
2.621752e+03,2.309445e+03
2.622717e+03,2.305323e+03
2.623681e+03,2.304715e+03
2.624645e+03,2.306227e+03
2.625609e+03,2.300346e+03
2.626573e+03,2.288596e+03
2.627538e+03,2.282805e+03
2.628502e+03,2.283200e+03
2.629466e+03,2.286642e+03
2.630430e+03,2.290221e+03
2.631395e+03,2.289112e+03
2.632359e+03,2.286497e+03
2.633323e+03,2.283548e+03
2.634287e+03,2.281832e+03
2.635252e+03,2.282703e+03
2.636216e+03,2.274509e+03
2.637180e+03,2.256264e+03
2.638144e+03,2.269487e+03
2.639109e+03,2.296687e+03
2.640073e+03,2.289658e+03
2.641037e+03,2.268573e+03
2.642001e+03,2.245939e+03
2.642966e+03,2.238800e+03
2.643930e+03,2.257990e+03
2.644894e+03,2.273779e+03
2.645858e+03,2.261262e+03
2.646823e+03,2.254001e+03
2.647787e+03,2.252155e+03
2.648751e+03,2.253819e+03
2.649715e+03,2.257026e+03
2.650679e+03,2.256381e+03
2.651644e+03,2.250552e+03
2.652608e+03,2.235406e+03
2.653572e+03,2.220827e+03
2.654536e+03,2.223260e+03
2.655500e+03,2.233782e+03
2.656465e+03,2.251542e+03
2.657429e+03,2.257615e+03
2.658393e+03,2.244800e+03
2.659357e+03,2.217510e+03
2.660322e+03,2.185742e+03
2.661286e+03,2.194548e+03
2.662250e+03,2.226436e+03
2.663214e+03,2.229660e+03
2.664179e+03,2.222022e+03
2.665143e+03,2.228858e+03
2.666107e+03,2.233096e+03
2.667071e+03,2.225082e+03
2.668036e+03,2.220895e+03
2.669000e+03,2.229105e+03
2.669964e+03,2.233223e+03
2.670928e+03,2.232082e+03
2.671893e+03,2.223769e+03
2.672857e+03,2.212962e+03
2.673821e+03,2.216507e+03
2.674785e+03,2.219513e+03
2.675750e+03,2.204035e+03
2.676714e+03,2.193770e+03
2.677678e+03,2.229451e+03
2.678642e+03,2.244818e+03
2.679606e+03,2.225323e+03
2.680571e+03,2.207891e+03
2.681535e+03,2.199346e+03
2.682499e+03,2.188319e+03
2.683463e+03,2.174780e+03
2.684427e+03,2.163900e+03
2.685392e+03,2.159701e+03
2.686356e+03,2.174839e+03
2.687320e+03,2.187862e+03
2.688284e+03,2.185555e+03
2.689249e+03,2.174778e+03
2.690213e+03,2.157129e+03
2.691177e+03,2.150199e+03
2.692141e+03,2.163345e+03
2.693106e+03,2.190799e+03
2.694070e+03,2.217520e+03
2.695034e+03,2.197035e+03
2.695998e+03,2.160857e+03
2.696963e+03,2.165952e+03
2.697927e+03,2.174998e+03
2.698891e+03,2.166062e+03
2.699855e+03,2.160970e+03
2.700820e+03,2.175539e+03
2.701784e+03,2.171345e+03
2.702748e+03,2.147386e+03
2.703712e+03,2.138772e+03
2.704677e+03,2.140936e+03
2.705641e+03,2.136240e+03
2.706605e+03,2.133324e+03
2.707569e+03,2.142245e+03
2.708533e+03,2.145947e+03
2.709498e+03,2.135247e+03
2.710462e+03,2.124561e+03
2.711426e+03,2.121775e+03
2.712390e+03,2.130396e+03
2.713354e+03,2.144244e+03
2.714319e+03,2.131315e+03
2.715283e+03,2.107653e+03
2.716247e+03,2.120082e+03
2.717211e+03,2.135489e+03
2.718176e+03,2.128721e+03
2.719140e+03,2.125009e+03
2.720104e+03,2.145998e+03
2.721068e+03,2.151886e+03
2.722033e+03,2.138705e+03
2.722997e+03,2.127159e+03
2.723961e+03,2.118084e+03
2.724925e+03,2.108557e+03
2.725890e+03,2.103717e+03
2.726854e+03,2.111120e+03
2.727818e+03,2.124071e+03
2.728782e+03,2.137964e+03
2.729747e+03,2.139208e+03
2.730711e+03,2.110833e+03
2.731675e+03,2.104058e+03
2.732639e+03,2.115317e+03
2.733604e+03,2.122523e+03
2.734568e+03,2.122780e+03
2.735532e+03,2.106142e+03
2.736496e+03,2.090971e+03
2.737460e+03,2.090755e+03
2.738425e+03,2.103083e+03
2.739389e+03,2.131506e+03
2.740353e+03,2.138298e+03
2.741317e+03,2.119245e+03
2.742281e+03,2.100119e+03
2.743246e+03,2.087188e+03
2.744210e+03,2.097831e+03
2.745174e+03,2.110310e+03
2.746138e+03,2.095891e+03
2.747103e+03,2.087961e+03
2.748067e+03,2.101385e+03
2.749031e+03,2.110353e+03
2.749995e+03,2.098325e+03
2.750960e+03,2.088385e+03
2.751924e+03,2.080706e+03
2.752888e+03,2.073922e+03
2.753852e+03,2.068382e+03
2.754817e+03,2.069241e+03
2.755781e+03,2.070262e+03
2.756745e+03,2.067252e+03
2.757709e+03,2.061926e+03
2.758674e+03,2.052666e+03
2.759638e+03,2.055944e+03
2.760602e+03,2.072924e+03
2.761566e+03,2.072151e+03
2.762531e+03,2.062716e+03
2.763495e+03,2.052672e+03
2.764459e+03,2.047947e+03
2.765423e+03,2.061697e+03
2.766387e+03,2.076612e+03
2.767352e+03,2.089924e+03
2.768316e+03,2.085241e+03
2.769280e+03,2.060399e+03
2.770244e+03,2.056820e+03
2.771208e+03,2.065568e+03
2.772173e+03,2.063519e+03
2.773137e+03,2.053771e+03
2.774101e+03,2.038577e+03
2.775065e+03,2.035609e+03
2.776030e+03,2.057411e+03
2.776994e+03,2.048551e+03
2.777958e+03,2.013677e+03
2.778922e+03,2.018986e+03
2.779887e+03,2.051040e+03
2.780851e+03,2.068964e+03
2.781815e+03,2.061884e+03
2.782779e+03,2.024698e+03
2.783744e+03,2.002547e+03
2.784708e+03,2.028354e+03
2.785672e+03,2.040172e+03
2.786636e+03,2.034911e+03
2.787601e+03,2.038913e+03
2.788565e+03,2.049984e+03
2.789529e+03,2.057785e+03
2.790493e+03,2.059563e+03
2.791458e+03,2.045009e+03
2.792422e+03,2.034346e+03
2.793386e+03,2.033947e+03
2.794350e+03,2.028867e+03
2.795314e+03,2.014240e+03
2.796279e+03,2.008212e+03
2.797243e+03,2.010388e+03
2.798207e+03,2.026509e+03
2.799171e+03,2.040192e+03
2.800135e+03,2.022613e+03
2.801100e+03,2.006433e+03
2.802064e+03,2.000065e+03
2.803028e+03,2.005155e+03
2.803992e+03,2.017949e+03
2.804957e+03,2.034704e+03
2.805921e+03,2.047620e+03
2.806885e+03,2.037703e+03
2.807849e+03,2.021919e+03
2.808814e+03,2.009338e+03
2.809778e+03,2.000987e+03
2.810742e+03,2.000516e+03
2.811706e+03,1.988736e+03
2.812671e+03,1.971540e+03
2.813635e+03,1.978452e+03
2.814599e+03,1.994692e+03
2.815563e+03,1.996115e+03
2.816528e+03,1.988429e+03
2.817492e+03,1.967254e+03
2.818456e+03,1.960972e+03
2.819420e+03,1.968488e+03
2.820385e+03,1.972445e+03
2.821349e+03,1.972940e+03
2.822313e+03,1.965335e+03
2.823277e+03,1.967225e+03
2.824241e+03,1.992020e+03
2.825206e+03,2.009051e+03
2.826170e+03,2.001182e+03
2.827134e+03,1.982098e+03
2.828098e+03,1.956301e+03
2.829063e+03,1.952662e+03
2.830027e+03,1.965510e+03
2.830991e+03,1.996334e+03
2.831955e+03,2.020882e+03
2.832919e+03,2.008857e+03
2.833884e+03,1.991300e+03
2.834848e+03,1.974249e+03
2.835812e+03,1.974161e+03
2.836776e+03,1.987313e+03
2.837741e+03,1.965239e+03
2.838705e+03,1.939546e+03
2.839669e+03,1.943811e+03
2.840633e+03,1.960305e+03
2.841598e+03,1.981608e+03
2.842562e+03,1.982493e+03
2.843526e+03,1.957305e+03
2.844490e+03,1.951947e+03
2.845455e+03,1.957572e+03
2.846419e+03,1.961765e+03
2.847383e+03,1.965854e+03
2.848347e+03,1.974045e+03
2.849312e+03,1.975575e+03
2.850276e+03,1.968336e+03
2.851240e+03,1.959135e+03
2.852204e+03,1.949737e+03
2.853168e+03,1.956739e+03
2.854133e+03,1.967337e+03
2.855097e+03,1.969441e+03
2.856061e+03,1.961157e+03
2.857025e+03,1.940703e+03
2.857990e+03,1.933826e+03
2.858954e+03,1.949569e+03
2.859918e+03,1.947807e+03
2.860882e+03,1.939886e+03
2.861846e+03,1.945791e+03
2.862811e+03,1.950166e+03
2.863775e+03,1.934766e+03
2.864739e+03,1.927667e+03
2.865703e+03,1.936638e+03
2.866668e+03,1.937631e+03
2.867632e+03,1.935531e+03
2.868596e+03,1.954060e+03
2.869560e+03,1.970350e+03
2.870525e+03,1.949723e+03
2.871489e+03,1.938243e+03
2.872453e+03,1.946114e+03
2.873417e+03,1.953505e+03
2.874382e+03,1.955553e+03
2.875346e+03,1.949379e+03
2.876310e+03,1.939807e+03
2.877274e+03,1.924770e+03
2.878239e+03,1.917988e+03
2.879203e+03,1.922213e+03
2.880167e+03,1.925697e+03
2.881131e+03,1.927252e+03
2.882095e+03,1.940414e+03
2.883060e+03,1.953053e+03
2.884024e+03,1.943779e+03
2.884988e+03,1.930061e+03
2.885952e+03,1.927150e+03
2.886917e+03,1.923156e+03
2.887881e+03,1.917450e+03
2.888845e+03,1.914684e+03
2.889809e+03,1.918674e+03
2.890773e+03,1.941728e+03
2.891738e+03,1.957492e+03
2.892702e+03,1.926602e+03
2.893666e+03,1.915132e+03
2.894630e+03,1.933134e+03
2.895595e+03,1.925940e+03
2.896559e+03,1.899982e+03
2.897523e+03,1.914099e+03
2.898487e+03,1.932204e+03
2.899452e+03,1.909178e+03
2.900416e+03,1.885563e+03
2.901380e+03,1.870959e+03
2.902344e+03,1.865681e+03
2.903309e+03,1.868278e+03
2.904273e+03,1.876552e+03
2.905237e+03,1.888030e+03
2.906201e+03,1.902193e+03
2.907166e+03,1.906767e+03
2.908130e+03,1.897028e+03
2.909094e+03,1.886485e+03
2.910058e+03,1.877979e+03
2.911022e+03,1.874112e+03
2.911987e+03,1.872924e+03
2.912951e+03,1.868911e+03
2.913915e+03,1.870622e+03
2.914879e+03,1.887863e+03
2.915844e+03,1.891757e+03
2.916808e+03,1.884080e+03
2.917772e+03,1.897379e+03
2.918736e+03,1.908775e+03
2.919700e+03,1.873614e+03
2.920665e+03,1.840127e+03
2.921629e+03,1.845186e+03
2.922593e+03,1.853402e+03
2.923557e+03,1.860904e+03
2.924522e+03,1.854390e+03
2.925486e+03,1.841988e+03
2.926450e+03,1.839417e+03
2.927414e+03,1.842476e+03
2.928379e+03,1.848206e+03
2.929343e+03,1.881352e+03
2.930307e+03,1.928631e+03
2.931271e+03,1.906072e+03
2.932236e+03,1.856371e+03
2.933200e+03,1.850201e+03
2.934164e+03,1.856262e+03
2.935128e+03,1.859881e+03
2.936093e+03,1.864753e+03
2.937057e+03,1.870955e+03
2.938021e+03,1.860131e+03
2.938985e+03,1.845554e+03
2.939949e+03,1.847271e+03
2.940914e+03,1.849092e+03
2.941878e+03,1.845948e+03
2.942842e+03,1.846887e+03
2.943806e+03,1.850230e+03
2.944771e+03,1.852847e+03
2.945735e+03,1.851878e+03
2.946699e+03,1.838202e+03
2.947663e+03,1.834434e+03
2.948627e+03,1.844181e+03
2.949592e+03,1.847318e+03
2.950556e+03,1.843263e+03
2.951520e+03,1.861643e+03
2.952484e+03,1.866447e+03
2.953449e+03,1.817192e+03
2.954413e+03,1.798315e+03
2.955377e+03,1.847143e+03
2.956341e+03,1.866736e+03
2.957306e+03,1.850892e+03
2.958270e+03,1.856369e+03
2.959234e+03,1.856828e+03
2.960198e+03,1.835474e+03
2.961163e+03,1.814026e+03
2.962127e+03,1.796018e+03
2.963091e+03,1.809118e+03
2.964055e+03,1.836504e+03
2.965020e+03,1.824013e+03
2.965984e+03,1.805589e+03
2.966948e+03,1.802643e+03
2.967912e+03,1.812620e+03
2.968876e+03,1.842243e+03
2.969841e+03,1.829590e+03
2.970805e+03,1.801870e+03
2.971769e+03,1.823115e+03
2.972733e+03,1.833143e+03
2.973698e+03,1.781631e+03
2.974662e+03,1.769796e+03
2.975626e+03,1.826005e+03
2.976590e+03,1.818713e+03
2.977554e+03,1.789394e+03
2.978519e+03,1.795250e+03
2.979483e+03,1.798609e+03
2.980447e+03,1.771801e+03
2.981411e+03,1.764827e+03
2.982376e+03,1.783042e+03
2.983340e+03,1.796031e+03
2.984304e+03,1.797158e+03
2.985268e+03,1.778399e+03
2.986233e+03,1.774327e+03
2.987197e+03,1.813310e+03
2.988161e+03,1.818089e+03
2.989125e+03,1.797016e+03
2.990090e+03,1.793158e+03
2.991054e+03,1.784519e+03
2.992018e+03,1.749308e+03
2.992982e+03,1.739320e+03
2.993947e+03,1.783599e+03
2.994911e+03,1.804856e+03
2.995875e+03,1.810460e+03
2.996839e+03,1.812420e+03
2.997803e+03,1.807823e+03
2.998768e+03,1.796074e+03
2.999732e+03,1.789378e+03
3.000696e+03,1.794282e+03
3.001660e+03,1.829520e+03
3.002625e+03,1.850618e+03
3.003589e+03,1.817739e+03
3.004553e+03,1.773585e+03
3.005517e+03,1.738598e+03
3.006481e+03,1.739600e+03
3.007446e+03,1.766328e+03
3.008410e+03,1.779009e+03
3.009374e+03,1.786529e+03
3.010338e+03,1.798249e+03
3.011303e+03,1.798530e+03
3.012267e+03,1.779003e+03
3.013231e+03,1.771654e+03
3.014195e+03,1.770468e+03
3.015160e+03,1.763147e+03
3.016124e+03,1.759429e+03
3.017088e+03,1.761307e+03
3.018052e+03,1.765218e+03
3.019017e+03,1.769557e+03
3.019981e+03,1.793848e+03
3.020945e+03,1.803178e+03
3.021909e+03,1.760714e+03
3.022874e+03,1.745632e+03
3.023838e+03,1.767830e+03
3.024802e+03,1.774451e+03
3.025766e+03,1.764769e+03
3.026730e+03,1.735792e+03
3.027695e+03,1.721091e+03
3.028659e+03,1.735092e+03
3.029623e+03,1.759457e+03
3.030587e+03,1.782685e+03
3.031552e+03,1.751964e+03
3.032516e+03,1.718111e+03
3.033480e+03,1.763846e+03
3.034444e+03,1.776658e+03
3.035408e+03,1.741974e+03
3.036373e+03,1.717601e+03
3.037337e+03,1.710106e+03
3.038301e+03,1.744799e+03
3.039265e+03,1.769492e+03
3.040230e+03,1.736716e+03
3.041194e+03,1.744059e+03
3.042158e+03,1.777103e+03
3.043122e+03,1.763315e+03
3.044087e+03,1.737554e+03
3.045051e+03,1.748776e+03
3.046015e+03,1.759031e+03
3.046979e+03,1.759702e+03
3.047944e+03,1.760972e+03
3.048908e+03,1.758509e+03
3.049872e+03,1.741272e+03
3.050836e+03,1.730569e+03
3.051801e+03,1.741588e+03
3.052765e+03,1.751429e+03
3.053729e+03,1.752844e+03
3.054693e+03,1.733731e+03
3.055657e+03,1.726816e+03
3.056622e+03,1.751956e+03
3.057586e+03,1.769785e+03
3.058550e+03,1.769384e+03
3.059514e+03,1.760938e+03
3.060479e+03,1.748740e+03
3.061443e+03,1.730232e+03
3.062407e+03,1.721352e+03
3.063371e+03,1.724242e+03
3.064335e+03,1.728501e+03
3.065300e+03,1.730675e+03
3.066264e+03,1.710297e+03
3.067228e+03,1.696159e+03
3.068192e+03,1.706313e+03
3.069157e+03,1.721945e+03
3.070121e+03,1.738578e+03
3.071085e+03,1.760292e+03
3.072049e+03,1.770478e+03
3.073014e+03,1.725523e+03
3.073978e+03,1.698677e+03
3.074942e+03,1.705539e+03
3.075906e+03,1.717688e+03
3.076871e+03,1.730702e+03
3.077835e+03,1.740412e+03
3.078799e+03,1.747999e+03
3.079763e+03,1.754665e+03
3.080728e+03,1.746353e+03
3.081692e+03,1.732360e+03
3.082656e+03,1.746825e+03
3.083620e+03,1.754588e+03
3.084584e+03,1.737602e+03
3.085549e+03,1.726607e+03
3.086513e+03,1.729728e+03
3.087477e+03,1.730965e+03
3.088441e+03,1.732626e+03
3.089406e+03,1.746421e+03
3.090370e+03,1.741432e+03
3.091334e+03,1.717662e+03
3.092298e+03,1.693919e+03
3.093262e+03,1.682451e+03
3.094227e+03,1.731908e+03
3.095191e+03,1.749472e+03
3.096155e+03,1.698712e+03
3.097119e+03,1.672284e+03
3.098084e+03,1.677512e+03
3.099048e+03,1.716739e+03
3.100012e+03,1.748408e+03
3.100976e+03,1.736113e+03
3.101941e+03,1.748923e+03
3.102905e+03,1.779510e+03
3.103869e+03,1.747780e+03
3.104833e+03,1.712188e+03
3.105798e+03,1.712779e+03
3.106762e+03,1.695623e+03
3.107726e+03,1.655475e+03
3.108690e+03,1.687448e+03
3.109655e+03,1.727463e+03
3.110619e+03,1.675749e+03
3.111583e+03,1.672574e+03
3.112547e+03,1.727484e+03
3.113511e+03,1.737211e+03
3.114476e+03,1.720961e+03
3.115440e+03,1.736297e+03
3.116404e+03,1.736684e+03
3.117368e+03,1.702698e+03
3.118333e+03,1.701804e+03
3.119297e+03,1.715571e+03
3.120261e+03,1.709411e+03
3.121225e+03,1.701512e+03
3.122189e+03,1.701550e+03
3.123154e+03,1.702120e+03
3.124118e+03,1.700165e+03
3.125082e+03,1.697759e+03
3.126046e+03,1.689629e+03
3.127011e+03,1.671312e+03
3.127975e+03,1.699176e+03
3.128939e+03,1.755824e+03
3.129903e+03,1.747824e+03
3.130868e+03,1.718605e+03
3.131832e+03,1.684026e+03
3.132796e+03,1.688782e+03
3.133760e+03,1.728928e+03
3.134725e+03,1.777873e+03
3.135689e+03,1.794675e+03
3.136653e+03,1.740009e+03
3.137617e+03,1.705030e+03
3.138582e+03,1.717297e+03
3.139546e+03,1.722232e+03
3.140510e+03,1.723703e+03
3.141474e+03,1.732125e+03
3.142438e+03,1.732543e+03
3.143403e+03,1.723596e+03
3.144367e+03,1.702257e+03
3.145331e+03,1.682924e+03
3.146295e+03,1.695131e+03
3.147260e+03,1.706738e+03
3.148224e+03,1.706657e+03
3.149188e+03,1.701047e+03
3.150152e+03,1.711247e+03
3.151116e+03,1.768378e+03
3.152081e+03,1.781248e+03
3.153045e+03,1.706589e+03
3.154009e+03,1.652522e+03
3.154973e+03,1.636840e+03
3.155938e+03,1.693026e+03
3.156902e+03,1.729441e+03
3.157866e+03,1.721426e+03
3.158830e+03,1.744637e+03
3.159795e+03,1.780895e+03
3.160759e+03,1.745301e+03
3.161723e+03,1.705588e+03
3.162687e+03,1.700808e+03
3.163652e+03,1.694794e+03
3.164616e+03,1.687850e+03
3.165580e+03,1.673603e+03
3.166544e+03,1.665602e+03
3.167509e+03,1.669589e+03
3.168473e+03,1.673720e+03
3.169437e+03,1.678263e+03
3.170401e+03,1.691169e+03
3.171365e+03,1.704949e+03
3.172330e+03,1.717664e+03
3.173294e+03,1.703965e+03
3.174258e+03,1.680931e+03
3.175222e+03,1.681422e+03
3.176187e+03,1.693659e+03
3.177151e+03,1.715507e+03
3.178115e+03,1.738754e+03
3.179079e+03,1.756790e+03
3.180043e+03,1.747940e+03
3.181008e+03,1.741898e+03
3.181972e+03,1.751651e+03
3.182936e+03,1.737608e+03
3.183900e+03,1.706357e+03
3.184865e+03,1.685875e+03
3.185829e+03,1.673721e+03
3.186793e+03,1.674327e+03
3.187757e+03,1.703470e+03
3.188722e+03,1.739103e+03
3.189686e+03,1.733062e+03
3.190650e+03,1.726215e+03
3.191614e+03,1.734064e+03
3.192579e+03,1.734187e+03
3.193543e+03,1.727798e+03
3.194507e+03,1.726247e+03
3.195471e+03,1.728604e+03
3.196436e+03,1.732762e+03
3.197400e+03,1.731295e+03
3.198364e+03,1.731959e+03
3.199328e+03,1.751920e+03
3.200292e+03,1.762025e+03
3.201257e+03,0.000000e+00
3.202221e+03,0.000000e+00
3.203185e+03,0.000000e+00
3.204149e+03,0.000000e+00
3.205114e+03,0.000000e+00
3.206078e+03,0.000000e+00
3.207042e+03,0.000000e+00
3.208006e+03,0.000000e+00
3.208970e+03,0.000000e+00
3.209935e+03,0.000000e+00
3.210899e+03,0.000000e+00
3.211863e+03,0.000000e+00
3.212827e+03,0.000000e+00
3.213792e+03,0.000000e+00
3.214756e+03,0.000000e+00
3.215720e+03,0.000000e+00
3.216684e+03,0.000000e+00
3.217649e+03,0.000000e+00
3.218613e+03,0.000000e+00
3.219577e+03,0.000000e+00
3.220541e+03,0.000000e+00
3.221506e+03,0.000000e+00
3.222470e+03,0.000000e+00
3.223434e+03,0.000000e+00
3.224398e+03,0.000000e+00
3.225363e+03,0.000000e+00
3.226327e+03,0.000000e+00
3.227291e+03,0.000000e+00
3.228255e+03,0.000000e+00
3.229219e+03,0.000000e+00
3.230184e+03,0.000000e+00
3.231148e+03,0.000000e+00
3.232112e+03,0.000000e+00
3.233076e+03,0.000000e+00
3.234041e+03,0.000000e+00
3.235005e+03,0.000000e+00
3.235969e+03,0.000000e+00
3.236933e+03,0.000000e+00
3.237897e+03,0.000000e+00
3.238862e+03,0.000000e+00
3.239826e+03,0.000000e+00
3.240790e+03,0.000000e+00
3.241754e+03,0.000000e+00
3.242719e+03,0.000000e+00
3.243683e+03,0.000000e+00
3.244647e+03,0.000000e+00
3.245611e+03,0.000000e+00
3.246576e+03,0.000000e+00
3.247540e+03,0.000000e+00
3.248504e+03,0.000000e+00
3.249468e+03,0.000000e+00
3.250433e+03,0.000000e+00
3.251397e+03,0.000000e+00
3.252361e+03,0.000000e+00
3.253325e+03,0.000000e+00
3.254290e+03,0.000000e+00
3.255254e+03,0.000000e+00
3.256218e+03,0.000000e+00
3.257182e+03,0.000000e+00
3.258146e+03,0.000000e+00
3.259111e+03,0.000000e+00
3.260075e+03,0.000000e+00
3.261039e+03,0.000000e+00
3.262003e+03,0.000000e+00
3.262968e+03,0.000000e+00
3.263932e+03,0.000000e+00
3.264896e+03,0.000000e+00
3.265860e+03,0.000000e+00
3.266824e+03,0.000000e+00
3.267789e+03,0.000000e+00
3.268753e+03,0.000000e+00
3.269717e+03,0.000000e+00
3.270681e+03,0.000000e+00
3.271646e+03,0.000000e+00
3.272610e+03,0.000000e+00
3.273574e+03,0.000000e+00
3.274538e+03,0.000000e+00
3.275503e+03,0.000000e+00
3.276467e+03,0.000000e+00
3.277431e+03,0.000000e+00
3.278395e+03,0.000000e+00
3.279360e+03,0.000000e+00
3.280324e+03,0.000000e+00
3.281288e+03,0.000000e+00
3.282252e+03,0.000000e+00
3.283217e+03,0.000000e+00
3.284181e+03,0.000000e+00
3.285145e+03,0.000000e+00
3.286109e+03,0.000000e+00
3.287073e+03,0.000000e+00
3.288038e+03,0.000000e+00
3.289002e+03,0.000000e+00
3.289966e+03,0.000000e+00
3.290930e+03,0.000000e+00
3.291895e+03,0.000000e+00
3.292859e+03,0.000000e+00
3.293823e+03,0.000000e+00
3.294787e+03,0.000000e+00
3.295751e+03,0.000000e+00
3.296716e+03,0.000000e+00
3.297680e+03,0.000000e+00
3.298644e+03,0.000000e+00
3.299608e+03,0.000000e+00
3.300573e+03,0.000000e+00
3.301537e+03,0.000000e+00
3.302501e+03,0.000000e+00
3.303465e+03,0.000000e+00
3.304430e+03,0.000000e+00
3.305394e+03,0.000000e+00
3.306358e+03,0.000000e+00
3.307322e+03,0.000000e+00
3.308287e+03,0.000000e+00
3.309251e+03,0.000000e+00
3.310215e+03,0.000000e+00
3.311179e+03,0.000000e+00
3.312144e+03,0.000000e+00
3.313108e+03,0.000000e+00
3.314072e+03,0.000000e+00
3.315036e+03,0.000000e+00
3.316000e+03,0.000000e+00
3.316965e+03,0.000000e+00
3.317929e+03,0.000000e+00
3.318893e+03,0.000000e+00
3.319857e+03,0.000000e+00
3.320822e+03,0.000000e+00
3.321786e+03,0.000000e+00
3.322750e+03,0.000000e+00
3.323714e+03,0.000000e+00
3.324678e+03,0.000000e+00
3.325643e+03,0.000000e+00
3.326607e+03,0.000000e+00
3.327571e+03,0.000000e+00
3.328535e+03,0.000000e+00
3.329500e+03,0.000000e+00
3.330464e+03,0.000000e+00
3.331428e+03,0.000000e+00
3.332392e+03,0.000000e+00
3.333357e+03,0.000000e+00
3.334321e+03,0.000000e+00
3.335285e+03,0.000000e+00
3.336249e+03,0.000000e+00
3.337214e+03,0.000000e+00
3.338178e+03,0.000000e+00
3.339142e+03,0.000000e+00
3.340106e+03,0.000000e+00
3.341071e+03,0.000000e+00
3.342035e+03,0.000000e+00
3.342999e+03,0.000000e+00
3.343963e+03,0.000000e+00
3.344927e+03,0.000000e+00
3.345892e+03,0.000000e+00
3.346856e+03,0.000000e+00
3.347820e+03,0.000000e+00
3.348784e+03,0.000000e+00
3.349749e+03,0.000000e+00
3.350713e+03,0.000000e+00
3.351677e+03,0.000000e+00
3.352641e+03,0.000000e+00
3.353605e+03,0.000000e+00
3.354570e+03,0.000000e+00
3.355534e+03,0.000000e+00
3.356498e+03,0.000000e+00
3.357462e+03,0.000000e+00
3.358427e+03,0.000000e+00
3.359391e+03,0.000000e+00
3.360355e+03,0.000000e+00
3.361319e+03,0.000000e+00
3.362284e+03,0.000000e+00
3.363248e+03,0.000000e+00
3.364212e+03,0.000000e+00
3.365176e+03,0.000000e+00
3.366141e+03,0.000000e+00
3.367105e+03,0.000000e+00
3.368069e+03,0.000000e+00
3.369033e+03,0.000000e+00
3.369998e+03,0.000000e+00
3.370962e+03,0.000000e+00
3.371926e+03,0.000000e+00
3.372890e+03,0.000000e+00
3.373854e+03,0.000000e+00
3.374819e+03,0.000000e+00
3.375783e+03,0.000000e+00
3.376747e+03,0.000000e+00
3.377711e+03,0.000000e+00
3.378676e+03,0.000000e+00
3.379640e+03,0.000000e+00
3.380604e+03,0.000000e+00
3.381568e+03,0.000000e+00
3.382532e+03,0.000000e+00
3.383497e+03,0.000000e+00
3.384461e+03,0.000000e+00
3.385425e+03,0.000000e+00
3.386389e+03,0.000000e+00
3.387354e+03,0.000000e+00
3.388318e+03,0.000000e+00
3.389282e+03,0.000000e+00
3.390246e+03,0.000000e+00
3.391211e+03,0.000000e+00
3.392175e+03,0.000000e+00
3.393139e+03,0.000000e+00
3.394103e+03,0.000000e+00
3.395068e+03,0.000000e+00
3.396032e+03,0.000000e+00
3.396996e+03,0.000000e+00
3.397960e+03,0.000000e+00
3.398925e+03,0.000000e+00
3.399889e+03,0.000000e+00
3.400853e+03,0.000000e+00
3.401817e+03,0.000000e+00
3.402781e+03,0.000000e+00
3.403746e+03,0.000000e+00
3.404710e+03,0.000000e+00
3.405674e+03,0.000000e+00
3.406638e+03,0.000000e+00
3.407603e+03,0.000000e+00
3.408567e+03,0.000000e+00
3.409531e+03,0.000000e+00
3.410495e+03,0.000000e+00
3.411459e+03,0.000000e+00
3.412424e+03,0.000000e+00
3.413388e+03,0.000000e+00
3.414352e+03,0.000000e+00
3.415316e+03,0.000000e+00
3.416281e+03,0.000000e+00
3.417245e+03,0.000000e+00
3.418209e+03,0.000000e+00
3.419173e+03,0.000000e+00
3.420138e+03,0.000000e+00
3.421102e+03,0.000000e+00
3.422066e+03,0.000000e+00
3.423030e+03,0.000000e+00
3.423995e+03,0.000000e+00
3.424959e+03,0.000000e+00
3.425923e+03,0.000000e+00
3.426887e+03,0.000000e+00
3.427852e+03,0.000000e+00
3.428816e+03,0.000000e+00
3.429780e+03,0.000000e+00
3.430744e+03,0.000000e+00
3.431708e+03,0.000000e+00
3.432673e+03,0.000000e+00
3.433637e+03,0.000000e+00
3.434601e+03,0.000000e+00
3.435565e+03,0.000000e+00
3.436530e+03,0.000000e+00
3.437494e+03,0.000000e+00
3.438458e+03,0.000000e+00
3.439422e+03,0.000000e+00
3.440386e+03,0.000000e+00
3.441351e+03,0.000000e+00
3.442315e+03,0.000000e+00
3.443279e+03,0.000000e+00
3.444243e+03,0.000000e+00
3.445208e+03,0.000000e+00
3.446172e+03,0.000000e+00
3.447136e+03,0.000000e+00
3.448100e+03,0.000000e+00
3.449065e+03,0.000000e+00
3.450029e+03,0.000000e+00
3.450993e+03,0.000000e+00
3.451957e+03,0.000000e+00
3.452922e+03,0.000000e+00
3.453886e+03,0.000000e+00
3.454850e+03,0.000000e+00
3.455814e+03,0.000000e+00
3.456779e+03,0.000000e+00
3.457743e+03,0.000000e+00
3.458707e+03,0.000000e+00
3.459671e+03,0.000000e+00
3.460635e+03,0.000000e+00
3.461600e+03,0.000000e+00
3.462564e+03,0.000000e+00
3.463528e+03,0.000000e+00
3.464492e+03,0.000000e+00
3.465457e+03,0.000000e+00
3.466421e+03,0.000000e+00
3.467385e+03,0.000000e+00
3.468349e+03,0.000000e+00
3.469313e+03,0.000000e+00
3.470278e+03,0.000000e+00
3.471242e+03,0.000000e+00
3.472206e+03,0.000000e+00
3.473170e+03,0.000000e+00
3.474135e+03,0.000000e+00
3.475099e+03,0.000000e+00
3.476063e+03,0.000000e+00
3.477027e+03,0.000000e+00
3.477992e+03,0.000000e+00
3.478956e+03,0.000000e+00
3.479920e+03,0.000000e+00
3.480884e+03,0.000000e+00
3.481849e+03,0.000000e+00
3.482813e+03,0.000000e+00
3.483777e+03,0.000000e+00
3.484741e+03,0.000000e+00
3.485706e+03,0.000000e+00
3.486670e+03,0.000000e+00
3.487634e+03,0.000000e+00
3.488598e+03,0.000000e+00
3.489563e+03,0.000000e+00
3.490527e+03,0.000000e+00
3.491491e+03,0.000000e+00
3.492455e+03,0.000000e+00
3.493419e+03,0.000000e+00
3.494384e+03,0.000000e+00
3.495348e+03,0.000000e+00
3.496312e+03,0.000000e+00
3.497276e+03,0.000000e+00
3.498240e+03,0.000000e+00
3.499205e+03,0.000000e+00
3.500169e+03,0.000000e+00
