9.931763e+01,0.000000e+00
1.002819e+02,0.000000e+00
1.012461e+02,0.000000e+00
1.022103e+02,0.000000e+00
1.031746e+02,0.000000e+00
1.041388e+02,0.000000e+00
1.051030e+02,0.000000e+00
1.060673e+02,0.000000e+00
1.070315e+02,0.000000e+00
1.079957e+02,0.000000e+00
1.089600e+02,0.000000e+00
1.099242e+02,0.000000e+00
1.108884e+02,0.000000e+00
1.118527e+02,0.000000e+00
1.128169e+02,0.000000e+00
1.137811e+02,0.000000e+00
1.147454e+02,0.000000e+00
1.157096e+02,0.000000e+00
1.166738e+02,0.000000e+00
1.176381e+02,0.000000e+00
1.186023e+02,0.000000e+00
1.195665e+02,0.000000e+00
1.205308e+02,0.000000e+00
1.214950e+02,0.000000e+00
1.224592e+02,0.000000e+00
1.234235e+02,0.000000e+00
1.243877e+02,0.000000e+00
1.253519e+02,0.000000e+00
1.263162e+02,0.000000e+00
1.272804e+02,0.000000e+00
1.282446e+02,0.000000e+00
1.292089e+02,0.000000e+00
1.301731e+02,0.000000e+00
1.311373e+02,0.000000e+00
1.321016e+02,0.000000e+00
1.330658e+02,0.000000e+00
1.340300e+02,0.000000e+00
1.349943e+02,0.000000e+00
1.359585e+02,0.000000e+00
1.369227e+02,0.000000e+00
1.378870e+02,0.000000e+00
1.388512e+02,0.000000e+00
1.398154e+02,0.000000e+00
1.407797e+02,0.000000e+00
1.417439e+02,0.000000e+00
1.427081e+02,0.000000e+00
1.436724e+02,0.000000e+00
1.446366e+02,0.000000e+00
1.456008e+02,0.000000e+00
1.465651e+02,0.000000e+00
1.475293e+02,0.000000e+00
1.484935e+02,0.000000e+00
1.494578e+02,0.000000e+00
1.504220e+02,0.000000e+00
1.513862e+02,0.000000e+00
1.523505e+02,0.000000e+00
1.533147e+02,0.000000e+00
1.542789e+02,0.000000e+00
1.552432e+02,0.000000e+00
1.562074e+02,0.000000e+00
1.571716e+02,0.000000e+00
1.581359e+02,0.000000e+00
1.591001e+02,0.000000e+00
1.600643e+02,0.000000e+00
1.610286e+02,0.000000e+00
1.619928e+02,0.000000e+00
1.629570e+02,0.000000e+00
1.639213e+02,0.000000e+00
1.648855e+02,0.000000e+00
1.658497e+02,0.000000e+00
1.668140e+02,0.000000e+00
1.677782e+02,0.000000e+00
1.687424e+02,0.000000e+00
1.697067e+02,0.000000e+00
1.706709e+02,0.000000e+00
1.716351e+02,0.000000e+00
1.725994e+02,0.000000e+00
1.735636e+02,0.000000e+00
1.745278e+02,0.000000e+00
1.754921e+02,0.000000e+00
1.764563e+02,0.000000e+00
1.774205e+02,0.000000e+00
1.783848e+02,0.000000e+00
1.793490e+02,0.000000e+00
1.803132e+02,0.000000e+00
1.812775e+02,0.000000e+00
1.822417e+02,0.000000e+00
1.832059e+02,0.000000e+00
1.841702e+02,0.000000e+00
1.851344e+02,0.000000e+00
1.860986e+02,0.000000e+00
1.870629e+02,0.000000e+00
1.880271e+02,0.000000e+00
1.889913e+02,0.000000e+00
1.899556e+02,0.000000e+00
1.909198e+02,0.000000e+00
1.918840e+02,0.000000e+00
1.928483e+02,0.000000e+00
1.938125e+02,0.000000e+00
1.947767e+02,0.000000e+00
1.957410e+02,0.000000e+00
1.967052e+02,0.000000e+00
1.976694e+02,0.000000e+00
1.986337e+02,0.000000e+00
1.995979e+02,1.046964e+04
2.005621e+02,1.047981e+04
2.015264e+02,1.049152e+04
2.024906e+02,1.050564e+04
2.034548e+02,1.052034e+04
2.044191e+02,1.053340e+04
2.053833e+02,1.054303e+04
2.063475e+02,1.054905e+04
2.073118e+02,1.055229e+04
2.082760e+02,1.055275e+04
2.092402e+02,1.055023e+04
2.102045e+02,1.054658e+04
2.111687e+02,1.054622e+04
2.121329e+02,1.055114e+04
2.130972e+02,1.056043e+04
2.140614e+02,1.057110e+04
2.150256e+02,1.057994e+04
2.159899e+02,1.058612e+04
2.169541e+02,1.059435e+04
2.179183e+02,1.060919e+04
2.188826e+02,1.062824e+04
2.198468e+02,1.064671e+04
2.208110e+02,1.066058e+04
2.217753e+02,1.066859e+04
2.227395e+02,1.067257e+04
2.237037e+02,1.067718e+04
2.246680e+02,1.068221e+04
2.256322e+02,1.068503e+04
2.265964e+02,1.068749e+04
2.275607e+02,1.069241e+04
2.285249e+02,1.070199e+04
2.294892e+02,1.071674e+04
2.304534e+02,1.073503e+04
2.314176e+02,1.075159e+04
2.323819e+02,1.076485e+04
2.333461e+02,1.077655e+04
2.343103e+02,1.078854e+04
2.352746e+02,1.080180e+04
2.362388e+02,1.081599e+04
2.372030e+02,1.082920e+04
2.381673e+02,1.083688e+04
2.391315e+02,1.083789e+04
2.400957e+02,1.083586e+04
2.410600e+02,1.083374e+04
2.420242e+02,1.083454e+04
2.429884e+02,1.084039e+04
2.439527e+02,1.085114e+04
2.449169e+02,1.086350e+04
2.458811e+02,1.087555e+04
2.468454e+02,1.088743e+04
2.478096e+02,1.089928e+04
2.487738e+02,1.091119e+04
2.497381e+02,1.092293e+04
2.507023e+02,1.093465e+04
2.516665e+02,1.094691e+04
2.526308e+02,1.095972e+04
2.535950e+02,1.096986e+04
2.545592e+02,1.097477e+04
2.555235e+02,1.097477e+04
2.564877e+02,1.097263e+04
2.574519e+02,1.097223e+04
2.584161e+02,1.097703e+04
2.593804e+02,1.098841e+04
2.603446e+02,1.100378e+04
2.613088e+02,1.102010e+04
2.622731e+02,1.103715e+04
2.632373e+02,1.105562e+04
2.642015e+02,1.107264e+04
2.651658e+02,1.108527e+04
2.661300e+02,1.109288e+04
2.670942e+02,1.109793e+04
2.680585e+02,1.110515e+04
2.690227e+02,1.111871e+04
2.699869e+02,1.113241e+04
2.709512e+02,1.114052e+04
2.719154e+02,1.114331e+04
2.728796e+02,1.114520e+04
2.738439e+02,1.115154e+04
2.748081e+02,1.116541e+04
2.757723e+02,1.118599e+04
2.767366e+02,1.120554e+04
2.777008e+02,1.121963e+04
2.786650e+02,1.122956e+04
2.796293e+02,1.123792e+04
2.805935e+02,1.124688e+04
2.815577e+02,1.125743e+04
2.825220e+02,1.126901e+04
2.834862e+02,1.127886e+04
2.844504e+02,1.128402e+04
2.854147e+02,1.128623e+04
2.863789e+02,1.128756e+04
2.873431e+02,1.129060e+04
2.883074e+02,1.129709e+04
2.892716e+02,1.130667e+04
2.902358e+02,1.131700e+04
2.912001e+02,1.132663e+04
2.921643e+02,1.133578e+04
2.931285e+02,1.134644e+04
2.940928e+02,1.135958e+04
2.950570e+02,1.137532e+04
2.960212e+02,1.139113e+04
2.969855e+02,1.140364e+04
2.979497e+02,1.141115e+04
2.989139e+02,1.141448e+04
2.998782e+02,1.141725e+04
3.008424e+02,1.142350e+04
3.018066e+02,1.143413e+04
3.027709e+02,1.144636e+04
3.037351e+02,1.145768e+04
3.046993e+02,1.146692e+04
3.056636e+02,1.147431e+04
3.066278e+02,1.148101e+04
3.075920e+02,1.148884e+04
3.085563e+02,1.149845e+04
3.095205e+02,1.151189e+04
3.104847e+02,1.152890e+04
3.114490e+02,1.154741e+04
3.124132e+02,1.156491e+04
3.133774e+02,1.157925e+04
3.143417e+02,1.158917e+04
3.153059e+02,1.159377e+04
3.162701e+02,1.159601e+04
3.172344e+02,1.159868e+04
3.181986e+02,1.160278e+04
3.191628e+02,1.160888e+04
3.201271e+02,1.161750e+04
3.210913e+02,1.162868e+04
3.220555e+02,1.164175e+04
3.230198e+02,1.165575e+04
3.239840e+02,1.167008e+04
3.249482e+02,1.168424e+04
3.259125e+02,1.169771e+04
3.268767e+02,1.171076e+04
3.278409e+02,1.172364e+04
3.288052e+02,1.173625e+04
3.297694e+02,1.174823e+04
3.307336e+02,1.175929e+04
3.316979e+02,1.176965e+04
3.326621e+02,1.177917e+04
3.336263e+02,1.178546e+04
3.345906e+02,1.178808e+04
3.355548e+02,1.179020e+04
3.365190e+02,1.179593e+04
3.374833e+02,1.180784e+04
3.384475e+02,1.182536e+04
3.394117e+02,1.184477e+04
3.403760e+02,1.186072e+04
3.413402e+02,1.187475e+04
3.423044e+02,1.189110e+04
3.432687e+02,1.191061e+04
3.442329e+02,1.193150e+04
3.451971e+02,1.195065e+04
3.461614e+02,1.196491e+04
3.471256e+02,1.197256e+04
3.480898e+02,1.197636e+04
3.490541e+02,1.197884e+04
3.500183e+02,1.198235e+04
3.509825e+02,1.198931e+04
3.519468e+02,1.200161e+04
3.529110e+02,1.201902e+04
3.538752e+02,1.203903e+04
3.548395e+02,1.205831e+04
3.558037e+02,1.207473e+04
3.567680e+02,1.208796e+04
3.577322e+02,1.209937e+04
3.586964e+02,1.211193e+04
3.596607e+02,1.212734e+04
3.606249e+02,1.214420e+04
3.615891e+02,1.215814e+04
3.625534e+02,1.216518e+04
3.635176e+02,1.216445e+04
3.644818e+02,1.215827e+04
3.654461e+02,1.215143e+04
3.664103e+02,1.215042e+04
3.673745e+02,1.215997e+04
3.683388e+02,1.217766e+04
3.693030e+02,1.219936e+04
3.702672e+02,1.222116e+04
3.712315e+02,1.224066e+04
3.721957e+02,1.225655e+04
3.731599e+02,1.226728e+04
3.741242e+02,1.227460e+04
3.750884e+02,1.228331e+04
3.760526e+02,1.229588e+04
3.770169e+02,1.231209e+04
3.779811e+02,1.232940e+04
3.789453e+02,1.234456e+04
3.799096e+02,1.235504e+04
3.808738e+02,1.236076e+04
3.818380e+02,1.236471e+04
3.828023e+02,1.237077e+04
3.837665e+02,1.238138e+04
3.847307e+02,1.239503e+04
3.856950e+02,1.241141e+04
3.866592e+02,1.242942e+04
3.876234e+02,1.244819e+04
3.885877e+02,1.246715e+04
3.895519e+02,1.248583e+04
3.905161e+02,1.250335e+04
3.914804e+02,1.251785e+04
3.924446e+02,1.252836e+04
3.934088e+02,1.253735e+04
3.943731e+02,1.254654e+04
3.953373e+02,1.255656e+04
3.963015e+02,1.256595e+04
3.972658e+02,1.257221e+04
3.982300e+02,1.257562e+04
3.991942e+02,1.258175e+04
4.001585e+02,1.259571e+04
4.011227e+02,1.261709e+04
4.020869e+02,1.263801e+04
4.030512e+02,1.265208e+04
4.040154e+02,1.266066e+04
4.049796e+02,1.267012e+04
4.059439e+02,1.268439e+04
4.069081e+02,1.270183e+04
4.078723e+02,1.271719e+04
4.088366e+02,1.272684e+04
4.098008e+02,1.273115e+04
4.107650e+02,1.273667e+04
4.117293e+02,1.274472e+04
4.126935e+02,1.275391e+04
4.136577e+02,1.276351e+04
4.146220e+02,1.277363e+04
4.155862e+02,1.278514e+04
4.165504e+02,1.279876e+04
4.175147e+02,1.281375e+04
4.184789e+02,1.282808e+04
4.194431e+02,1.284042e+04
4.204074e+02,1.285257e+04
4.213716e+02,1.286533e+04
4.223358e+02,1.287724e+04
4.233001e+02,1.288676e+04
4.242643e+02,1.289395e+04
4.252285e+02,1.290059e+04
4.261928e+02,1.290905e+04
4.271570e+02,1.292052e+04
4.281212e+02,1.293422e+04
4.290855e+02,1.294774e+04
4.300497e+02,1.296031e+04
4.310139e+02,1.297290e+04
4.319782e+02,1.298699e+04
4.329424e+02,1.300393e+04
4.339066e+02,1.302397e+04
4.348709e+02,1.304558e+04
4.358351e+02,1.306580e+04
4.367993e+02,1.308250e+04
4.377636e+02,1.309523e+04
4.387278e+02,1.310746e+04
4.396920e+02,1.312154e+04
4.406563e+02,1.313692e+04
4.416205e+02,1.315178e+04
4.425847e+02,1.316490e+04
4.435490e+02,1.317664e+04
4.445132e+02,1.318845e+04
4.454774e+02,1.320192e+04
4.464417e+02,1.321787e+04
4.474059e+02,1.323620e+04
4.483701e+02,1.325284e+04
4.493344e+02,1.326524e+04
4.502986e+02,1.327414e+04
4.512628e+02,1.328288e+04
4.522271e+02,1.329400e+04
4.531913e+02,1.330678e+04
4.541555e+02,1.331778e+04
4.551198e+02,1.332378e+04
4.560840e+02,1.332536e+04
4.570482e+02,1.332676e+04
4.580125e+02,1.333318e+04
4.589767e+02,1.334581e+04
4.599409e+02,1.336213e+04
4.609052e+02,1.337773e+04
4.618694e+02,1.338995e+04
4.628336e+02,1.339856e+04
4.637979e+02,1.340457e+04
4.647621e+02,1.340949e+04
4.657263e+02,1.341601e+04
4.666906e+02,1.342763e+04
4.676548e+02,1.344255e+04
4.686190e+02,1.345942e+04
4.695833e+02,1.347483e+04
4.705475e+02,1.348718e+04
4.715117e+02,1.349566e+04
4.724760e+02,1.349982e+04
4.734402e+02,1.350018e+04
4.744044e+02,1.349916e+04
4.753687e+02,1.350096e+04
4.763329e+02,1.350810e+04
4.772971e+02,1.351492e+04
4.782614e+02,1.351888e+04
4.792256e+02,1.352355e+04
4.801898e+02,1.353236e+04
4.811541e+02,1.354627e+04
4.821183e+02,1.356192e+04
4.830826e+02,1.357596e+04
4.840468e+02,1.358733e+04
4.850110e+02,1.359404e+04
4.859753e+02,1.359558e+04
4.869395e+02,1.359071e+04
4.879037e+02,1.358931e+04
4.888680e+02,1.359710e+04
4.898322e+02,1.360640e+04
4.907964e+02,1.361380e+04
4.917607e+02,1.361994e+04
4.927249e+02,1.362679e+04
4.936891e+02,1.363593e+04
4.946534e+02,1.364713e+04
4.956176e+02,1.365702e+04
4.965818e+02,1.366544e+04
4.975461e+02,1.367387e+04
4.985103e+02,1.368193e+04
4.994745e+02,1.368696e+04
5.004388e+02,1.368895e+04
5.014030e+02,1.369147e+04
5.023672e+02,1.369501e+04
5.033315e+02,1.369845e+04
5.042957e+02,1.370077e+04
5.052599e+02,1.369964e+04
5.062242e+02,1.369338e+04
5.071884e+02,1.368050e+04
5.081526e+02,1.367046e+04
5.091169e+02,1.367033e+04
5.100811e+02,1.367509e+04
5.110453e+02,1.367572e+04
5.120095e+02,1.366787e+04
5.129738e+02,1.365912e+04
5.139380e+02,1.365761e+04
5.149022e+02,1.366375e+04
5.158665e+02,1.367593e+04
5.168307e+02,1.369182e+04
5.177949e+02,1.370420e+04
5.187592e+02,1.369765e+04
5.197234e+02,1.367358e+04
5.206876e+02,1.365265e+04
5.216519e+02,1.364180e+04
5.226161e+02,1.364178e+04
5.235803e+02,1.364965e+04
5.245446e+02,1.366677e+04
5.255088e+02,1.369094e+04
5.264730e+02,1.370760e+04
5.274373e+02,1.371460e+04
5.284015e+02,1.371677e+04
5.293657e+02,1.371567e+04
5.303300e+02,1.371262e+04
5.312942e+02,1.370286e+04
5.322584e+02,1.368577e+04
5.332227e+02,1.367096e+04
5.341869e+02,1.366428e+04
5.351511e+02,1.366436e+04
5.361154e+02,1.366597e+04
5.370796e+02,1.366421e+04
5.380438e+02,1.365937e+04
5.390081e+02,1.365834e+04
5.399723e+02,1.366532e+04
5.409365e+02,1.367727e+04
5.419008e+02,1.368821e+04
5.428650e+02,1.369495e+04
5.438292e+02,1.369582e+04
5.447935e+02,1.368484e+04
5.457577e+02,1.366821e+04
5.467219e+02,1.366073e+04
5.476862e+02,1.367014e+04
5.486504e+02,1.368870e+04
5.496146e+02,1.369431e+04
5.505789e+02,1.368090e+04
5.515431e+02,1.366178e+04
5.525073e+02,1.363825e+04
5.534716e+02,1.362050e+04
5.544358e+02,1.361636e+04
5.554000e+02,1.362938e+04
5.563643e+02,1.364831e+04
5.573285e+02,1.366455e+04
5.582927e+02,1.367641e+04
5.592570e+02,1.368243e+04
5.602212e+02,1.368230e+04
5.611854e+02,1.367499e+04
5.621497e+02,1.367364e+04
5.631139e+02,1.368291e+04
5.640781e+02,1.368703e+04
5.650424e+02,1.368794e+04
5.660066e+02,1.368538e+04
5.669708e+02,1.367591e+04
5.679351e+02,1.365217e+04
5.688993e+02,1.362441e+04
5.698635e+02,1.361041e+04
5.708278e+02,1.361315e+04
5.717920e+02,1.362611e+04
5.727562e+02,1.364149e+04
5.737205e+02,1.365820e+04
5.746847e+02,1.366881e+04
5.756489e+02,1.366625e+04
5.766132e+02,1.366037e+04
5.775774e+02,1.365783e+04
5.785416e+02,1.365999e+04
5.795059e+02,1.366359e+04
5.804701e+02,1.366784e+04
5.814343e+02,1.367169e+04
5.823986e+02,1.367181e+04
5.833628e+02,1.366811e+04
5.843270e+02,1.366279e+04
5.852913e+02,1.365740e+04
5.862555e+02,1.364737e+04
5.872197e+02,1.364471e+04
5.881840e+02,1.365150e+04
5.891482e+02,1.366140e+04
5.901124e+02,1.367047e+04
5.910767e+02,1.367781e+04
5.920409e+02,1.368317e+04
5.930051e+02,1.368429e+04
5.939694e+02,1.368074e+04
5.949336e+02,1.367598e+04
5.958978e+02,1.367104e+04
5.968621e+02,1.366633e+04
5.978263e+02,1.366383e+04
5.987905e+02,1.367161e+04
5.997548e+02,1.367621e+04
6.007190e+02,1.367296e+04
6.016832e+02,1.367002e+04
6.026475e+02,1.367546e+04
6.036117e+02,1.369391e+04
6.045759e+02,1.371137e+04
6.055402e+02,1.370748e+04
6.065044e+02,1.368287e+04
6.074686e+02,1.365915e+04
6.084329e+02,1.364859e+04
6.093971e+02,1.365012e+04
6.103613e+02,1.365170e+04
6.113256e+02,1.365803e+04
6.122899e+02,1.366067e+04
6.132541e+02,1.365562e+04
6.142183e+02,1.364571e+04
6.151826e+02,1.363678e+04
6.161468e+02,1.363784e+04
6.171110e+02,1.364293e+04
6.180753e+02,1.363908e+04
6.190395e+02,1.362633e+04
6.200037e+02,1.361709e+04
6.209680e+02,1.361943e+04
6.219322e+02,1.363439e+04
6.228964e+02,1.364479e+04
6.238607e+02,1.364011e+04
6.248249e+02,1.363972e+04
6.257891e+02,1.364932e+04
6.267534e+02,1.366230e+04
6.277176e+02,1.366830e+04
6.286818e+02,1.366771e+04
6.296461e+02,1.366294e+04
6.306103e+02,1.365119e+04
6.315745e+02,1.363460e+04
6.325388e+02,1.362407e+04
6.335030e+02,1.362783e+04
6.344672e+02,1.364455e+04
6.354315e+02,1.364955e+04
6.363957e+02,1.362869e+04
6.373599e+02,1.360520e+04
6.383242e+02,1.359270e+04
6.392884e+02,1.359232e+04
6.402526e+02,1.359839e+04
6.412169e+02,1.361681e+04
6.421811e+02,1.363521e+04
6.431453e+02,1.364162e+04
6.441096e+02,1.363564e+04
6.450738e+02,1.362415e+04
6.460380e+02,1.361491e+04
6.470023e+02,1.361089e+04
6.479665e+02,1.360769e+04
6.489307e+02,1.359842e+04
6.498950e+02,1.359193e+04
6.508592e+02,1.359524e+04
6.518234e+02,1.360710e+04
6.527877e+02,1.361772e+04
6.537519e+02,1.363700e+04
6.547161e+02,1.364887e+04
6.556804e+02,1.363362e+04
6.566446e+02,1.359386e+04
6.576088e+02,1.355756e+04
6.585731e+02,1.355677e+04
6.595373e+02,1.358439e+04
6.605015e+02,1.359666e+04
6.614658e+02,1.358596e+04
6.624300e+02,1.357054e+04
6.633942e+02,1.356837e+04
6.643585e+02,1.358520e+04
6.653227e+02,1.359892e+04
6.662869e+02,1.360336e+04
6.672512e+02,1.360539e+04
6.682154e+02,1.361214e+04
6.691796e+02,1.362250e+04
6.701439e+02,1.362516e+04
6.711081e+02,1.360937e+04
6.720723e+02,1.358134e+04
6.730366e+02,1.355218e+04
6.740008e+02,1.352484e+04
6.749650e+02,1.350410e+04
6.759293e+02,1.349809e+04
6.768935e+02,1.351744e+04
6.778577e+02,1.352604e+04
6.788220e+02,1.352088e+04
6.797862e+02,1.351445e+04
6.807504e+02,1.350885e+04
6.817147e+02,1.350015e+04
6.826789e+02,1.349250e+04
6.836431e+02,1.348340e+04
6.846074e+02,1.347273e+04
6.855716e+02,1.346469e+04
6.865358e+02,1.346228e+04
6.875001e+02,1.346323e+04
6.884643e+02,1.346654e+04
6.894285e+02,1.347264e+04
6.903928e+02,1.346929e+04
6.913570e+02,1.344953e+04
6.923212e+02,1.342491e+04
6.932855e+02,1.340975e+04
6.942497e+02,1.341410e+04
6.952139e+02,1.341994e+04
6.961782e+02,1.342293e+04
6.971424e+02,1.342684e+04
6.981066e+02,1.343350e+04
6.990709e+02,1.343825e+04
7.000351e+02,1.343326e+04
7.009993e+02,1.341428e+04
7.019636e+02,1.339138e+04
7.029278e+02,1.337986e+04
7.038920e+02,1.338168e+04
7.048563e+02,1.338573e+04
7.058205e+02,1.338268e+04
7.067847e+02,1.337760e+04
7.077490e+02,1.336640e+04
7.087132e+02,1.334663e+04
7.096774e+02,1.333464e+04
7.106417e+02,1.333237e+04
7.116059e+02,1.333862e+04
7.125701e+02,1.334647e+04
7.135344e+02,1.336708e+04
7.144986e+02,1.338588e+04
7.154628e+02,1.338177e+04
7.164271e+02,1.335153e+04
7.173913e+02,1.331800e+04
7.183555e+02,1.330427e+04
7.193198e+02,1.330665e+04
7.202840e+02,1.331056e+04
7.212482e+02,1.331693e+04
7.222125e+02,1.332413e+04
7.231767e+02,1.332804e+04
7.241409e+02,1.332322e+04
7.251052e+02,1.331943e+04
7.260694e+02,1.331846e+04
7.270336e+02,1.331569e+04
7.279979e+02,1.331142e+04
7.289621e+02,1.330523e+04
7.299263e+02,1.329774e+04
7.308906e+02,1.328052e+04
7.318548e+02,1.326425e+04
7.328190e+02,1.326837e+04
7.337833e+02,1.329251e+04
7.347475e+02,1.331275e+04
7.357117e+02,1.330108e+04
7.366760e+02,1.326399e+04
7.376402e+02,1.325122e+04
7.386044e+02,1.327363e+04
7.395687e+02,1.329773e+04
7.405329e+02,1.329110e+04
7.414971e+02,1.324231e+04
7.424614e+02,1.320738e+04
7.434256e+02,1.320002e+04
7.443898e+02,1.320662e+04
7.453541e+02,1.321867e+04
7.463183e+02,1.322820e+04
7.472825e+02,1.323028e+04
7.482468e+02,1.322378e+04
7.492110e+02,1.321024e+04
7.501752e+02,1.319304e+04
7.511395e+02,1.317850e+04
7.521037e+02,1.317194e+04
7.530679e+02,1.317610e+04
7.540322e+02,1.318542e+04
7.549964e+02,1.318148e+04
7.559606e+02,1.316303e+04
7.569249e+02,1.314654e+04
7.578891e+02,1.314398e+04
7.588533e+02,1.315780e+04
7.598176e+02,1.316707e+04
7.607818e+02,1.314900e+04
7.617460e+02,1.312789e+04
7.627103e+02,1.312123e+04
7.636745e+02,1.312905e+04
7.646387e+02,1.313384e+04
7.656030e+02,1.312299e+04
7.665672e+02,1.310976e+04
7.675314e+02,1.309756e+04
7.684957e+02,1.308018e+04
7.694599e+02,1.305903e+04
7.704241e+02,1.304279e+04
7.713884e+02,1.303440e+04
7.723526e+02,1.303002e+04
7.733168e+02,1.303266e+04
7.742811e+02,1.304097e+04
7.752453e+02,1.304710e+04
7.762095e+02,1.304801e+04
7.771738e+02,1.305207e+04
7.781380e+02,1.305979e+04
7.791022e+02,1.305963e+04
7.800665e+02,1.305163e+04
7.810307e+02,1.304011e+04
7.819949e+02,1.303049e+04
7.829592e+02,1.303674e+04
7.839234e+02,1.304097e+04
7.848876e+02,1.302529e+04
7.858519e+02,1.299912e+04
7.868161e+02,1.298076e+04
7.877803e+02,1.297958e+04
7.887446e+02,1.298359e+04
7.897088e+02,1.297695e+04
7.906730e+02,1.296614e+04
7.916373e+02,1.296768e+04
7.926015e+02,1.298251e+04
7.935657e+02,1.299411e+04
7.945300e+02,1.298370e+04
7.954942e+02,1.294652e+04
7.964584e+02,1.291402e+04
7.974227e+02,1.290571e+04
7.983869e+02,1.291478e+04
7.993511e+02,1.291678e+04
8.003154e+02,1.289249e+04
8.012796e+02,1.287287e+04
8.022438e+02,1.287602e+04
8.032081e+02,1.288870e+04
8.041723e+02,1.289884e+04
8.051365e+02,1.290175e+04
8.061008e+02,1.290008e+04
8.070650e+02,1.288841e+04
8.080292e+02,1.287091e+04
8.089935e+02,1.286375e+04
8.099577e+02,1.287236e+04
8.109219e+02,1.288335e+04
8.118862e+02,1.287831e+04
8.128504e+02,1.285783e+04
8.138146e+02,1.284267e+04
8.147789e+02,1.283289e+04
8.157431e+02,1.282306e+04
8.167073e+02,1.281066e+04
8.176716e+02,1.280031e+04
8.186358e+02,1.280129e+04
8.196000e+02,1.282828e+04
8.205643e+02,1.285110e+04
8.215285e+02,1.284702e+04
8.224927e+02,1.281879e+04
8.234570e+02,1.279630e+04
8.244212e+02,1.278805e+04
8.253854e+02,1.278766e+04
8.263497e+02,1.279218e+04
8.273139e+02,1.279600e+04
8.282781e+02,1.279434e+04
8.292424e+02,1.278747e+04
8.302066e+02,1.278272e+04
8.311708e+02,1.278844e+04
8.321351e+02,1.280232e+04
8.330993e+02,1.281269e+04
8.340635e+02,1.281099e+04
8.350278e+02,1.279886e+04
8.359920e+02,1.278356e+04
8.369562e+02,1.276409e+04
8.379205e+02,1.274893e+04
8.388847e+02,1.274058e+04
8.398489e+02,1.273892e+04
8.408132e+02,1.274177e+04
8.417774e+02,1.275604e+04
8.427416e+02,1.276052e+04
8.437059e+02,1.274306e+04
8.446701e+02,1.272062e+04
8.456343e+02,1.271299e+04
8.465986e+02,1.272986e+04
8.475628e+02,1.274415e+04
8.485270e+02,1.274757e+04
8.494913e+02,1.274323e+04
8.504555e+02,1.273349e+04
8.514197e+02,1.272021e+04
8.523840e+02,1.271250e+04
8.533482e+02,1.272176e+04
8.543124e+02,1.273661e+04
8.552767e+02,1.273639e+04
8.562409e+02,1.271762e+04
8.572051e+02,1.269229e+04
8.581694e+02,1.267575e+04
8.591336e+02,1.266884e+04
8.600978e+02,1.265929e+04
8.610621e+02,1.264749e+04
8.620263e+02,1.264100e+04
8.629905e+02,1.264348e+04
8.639548e+02,1.265126e+04
8.649190e+02,1.264796e+04
8.658832e+02,1.263333e+04
8.668475e+02,1.262020e+04
8.678117e+02,1.261431e+04
8.687759e+02,1.261301e+04
8.697402e+02,1.261123e+04
8.707044e+02,1.260006e+04
8.716686e+02,1.258403e+04
8.726329e+02,1.257383e+04
8.735971e+02,1.256800e+04
8.745613e+02,1.255834e+04
8.755256e+02,1.253867e+04
8.764898e+02,1.252583e+04
8.774540e+02,1.253143e+04
8.784183e+02,1.254665e+04
8.793825e+02,1.255824e+04
8.803467e+02,1.256087e+04
8.813110e+02,1.255830e+04
8.822752e+02,1.255728e+04
8.832394e+02,1.255917e+04
8.842037e+02,1.255867e+04
8.851679e+02,1.255098e+04
8.861321e+02,1.253872e+04
8.870964e+02,1.252927e+04
8.880606e+02,1.252216e+04
8.890248e+02,1.250679e+04
8.899891e+02,1.248409e+04
8.909533e+02,1.246493e+04
8.919175e+02,1.245769e+04
8.928818e+02,1.246593e+04
8.938460e+02,1.246833e+04
8.948102e+02,1.245510e+04
8.957745e+02,1.244027e+04
8.967387e+02,1.243394e+04
8.977029e+02,1.243293e+04
8.986672e+02,1.242914e+04
8.996314e+02,1.243529e+04
9.005956e+02,1.243892e+04
9.015599e+02,1.242812e+04
9.025241e+02,1.240652e+04
9.034883e+02,1.238860e+04
9.044526e+02,1.238240e+04
9.054168e+02,1.237269e+04
9.063810e+02,1.235331e+04
9.073453e+02,1.233711e+04
9.083095e+02,1.233736e+04
9.092737e+02,1.235956e+04
9.102380e+02,1.238391e+04
9.112022e+02,1.238961e+04
9.121664e+02,1.238103e+04
9.131307e+02,1.237176e+04
9.140949e+02,1.236986e+04
9.150591e+02,1.237527e+04
9.160234e+02,1.238127e+04
9.169876e+02,1.238064e+04
9.179518e+02,1.236625e+04
9.189161e+02,1.233637e+04
9.198803e+02,1.230049e+04
9.208445e+02,1.226960e+04
9.218088e+02,1.224635e+04
9.227730e+02,1.224320e+04
9.237372e+02,1.226534e+04
9.247015e+02,1.228804e+04
9.256657e+02,1.229476e+04
9.266299e+02,1.228381e+04
9.275942e+02,1.228018e+04
9.285584e+02,1.229434e+04
9.295226e+02,1.229778e+04
9.304869e+02,1.227125e+04
9.314511e+02,1.222826e+04
9.324153e+02,1.220660e+04
9.333796e+02,1.222850e+04
9.343438e+02,1.224885e+04
9.353080e+02,1.225089e+04
9.362723e+02,1.223928e+04
9.372365e+02,1.222667e+04
9.382007e+02,1.222493e+04
9.391650e+02,1.222590e+04
9.401292e+02,1.222623e+04
9.410934e+02,1.222507e+04
9.420577e+02,1.221694e+04
9.430219e+02,1.219881e+04
9.439861e+02,1.218122e+04
9.449504e+02,1.218208e+04
9.459146e+02,1.219398e+04
9.468788e+02,1.219683e+04
9.478431e+02,1.218231e+04
9.488073e+02,1.215897e+04
9.497715e+02,1.213624e+04
9.507358e+02,1.211878e+04
9.517000e+02,1.211831e+04
9.526642e+02,1.213683e+04
9.536285e+02,1.215505e+04
9.545927e+02,1.215845e+04
9.555569e+02,1.214972e+04
9.565212e+02,1.213611e+04
9.574854e+02,1.212148e+04
9.584496e+02,1.211586e+04
9.594139e+02,1.211916e+04
9.603781e+02,1.212465e+04
9.613423e+02,1.212446e+04
9.623066e+02,1.211858e+04
9.632708e+02,1.211053e+04
9.642350e+02,1.210418e+04
9.651993e+02,1.209853e+04
9.661635e+02,1.208692e+04
9.671277e+02,1.205973e+04
9.680920e+02,1.203924e+04
9.690562e+02,1.202564e+04
9.700204e+02,1.201706e+04
9.709847e+02,1.202000e+04
9.719489e+02,1.204407e+04
9.729131e+02,1.204923e+04
9.738774e+02,1.201217e+04
9.748416e+02,1.198577e+04
9.758058e+02,1.199548e+04
9.767701e+02,1.203032e+04
9.777343e+02,1.204942e+04
9.786985e+02,1.203174e+04
9.796628e+02,1.201112e+04
9.806270e+02,1.200332e+04
9.815912e+02,1.200115e+04
9.825555e+02,1.199265e+04
9.835197e+02,1.197512e+04
9.844839e+02,1.196058e+04
9.854482e+02,1.195688e+04
9.864124e+02,1.195953e+04
9.873766e+02,1.196082e+04
9.883409e+02,1.196011e+04
9.893051e+02,1.195763e+04
9.902693e+02,1.194806e+04
9.912336e+02,1.194104e+04
9.921978e+02,1.194798e+04
9.931620e+02,1.196402e+04
9.941263e+02,1.196937e+04
9.950905e+02,1.193910e+04
9.960547e+02,1.190005e+04
9.970190e+02,1.188904e+04
9.979832e+02,1.189935e+04
9.989474e+02,1.190545e+04
9.999117e+02,1.189621e+04
1.000876e+03,1.188023e+04
1.001840e+03,1.186654e+04
1.002804e+03,1.185789e+04
1.003769e+03,1.185344e+04
1.004733e+03,1.184913e+04
1.005697e+03,1.184741e+04
1.006661e+03,1.185885e+04
1.007626e+03,1.188013e+04
1.008590e+03,1.189067e+04
1.009554e+03,1.188377e+04
1.010518e+03,1.186820e+04
1.011482e+03,1.185689e+04
1.012447e+03,1.184873e+04
1.013411e+03,1.183659e+04
1.014375e+03,1.182562e+04
1.015339e+03,1.181855e+04
1.016304e+03,1.181391e+04
1.017268e+03,1.181017e+04
1.018232e+03,1.180462e+04
1.019196e+03,1.179519e+04
1.020161e+03,1.178739e+04
1.021125e+03,1.178628e+04
1.022089e+03,1.179226e+04
1.023053e+03,1.179775e+04
1.024018e+03,1.179843e+04
1.024982e+03,1.179783e+04
1.025946e+03,1.179499e+04
1.026910e+03,1.178532e+04
1.027875e+03,1.176859e+04
1.028839e+03,1.174784e+04
1.029803e+03,1.173307e+04
1.030767e+03,1.172484e+04
1.031731e+03,1.172340e+04
1.032696e+03,1.172901e+04
1.033660e+03,1.174121e+04
1.034624e+03,1.174166e+04
1.035588e+03,1.172522e+04
1.036552e+03,1.171459e+04
1.037517e+03,1.171763e+04
1.038481e+03,1.172750e+04
1.039445e+03,1.173119e+04
1.040409e+03,1.172778e+04
1.041374e+03,1.172069e+04
1.042338e+03,1.171413e+04
1.043302e+03,1.170718e+04
1.044266e+03,1.169513e+04
1.045231e+03,1.166876e+04
1.046195e+03,1.165088e+04
1.047159e+03,1.165079e+04
1.048123e+03,1.165594e+04
1.049088e+03,1.165799e+04
1.050052e+03,1.165994e+04
1.051016e+03,1.166543e+04
1.051980e+03,1.168121e+04
1.052945e+03,1.169079e+04
1.053909e+03,1.167547e+04
1.054873e+03,1.163893e+04
1.055837e+03,1.161554e+04
1.056802e+03,1.162669e+04
1.057766e+03,1.163525e+04
1.058730e+03,1.163727e+04
1.059694e+03,1.163443e+04
1.060658e+03,1.162624e+04
1.061623e+03,1.161051e+04
1.062587e+03,1.159967e+04
1.063551e+03,1.159881e+04
1.064515e+03,1.160163e+04
1.065479e+03,1.159996e+04
1.066444e+03,1.159492e+04
1.067408e+03,1.159903e+04
1.068372e+03,1.162472e+04
1.069336e+03,1.164910e+04
1.070301e+03,1.165617e+04
1.071265e+03,1.164662e+04
1.072229e+03,1.163409e+04
1.073193e+03,1.161771e+04
1.074158e+03,1.160196e+04
1.075122e+03,1.159206e+04
1.076086e+03,1.158208e+04
1.077050e+03,1.156599e+04
1.078015e+03,1.154321e+04
1.078979e+03,1.153239e+04
1.079943e+03,1.154174e+04
1.080907e+03,1.155700e+04
1.081872e+03,1.156720e+04
1.082836e+03,1.156815e+04
1.083800e+03,1.155958e+04
1.084764e+03,1.153339e+04
1.085729e+03,1.151200e+04
1.086693e+03,1.150392e+04
1.087657e+03,1.150598e+04
1.088621e+03,1.151184e+04
1.089585e+03,1.153748e+04
1.090550e+03,1.154009e+04
1.091514e+03,1.149618e+04
1.092478e+03,1.143995e+04
1.093442e+03,1.140670e+04
1.094406e+03,1.140885e+04
1.095371e+03,1.141439e+04
1.096335e+03,1.141514e+04
1.097299e+03,1.141435e+04
1.098263e+03,1.141420e+04
1.099228e+03,1.141355e+04
1.100192e+03,1.141180e+04
1.101156e+03,1.140443e+04
1.102120e+03,1.139860e+04
1.103085e+03,1.140239e+04
1.104049e+03,1.141007e+04
1.105013e+03,1.140989e+04
1.105977e+03,1.139384e+04
1.106942e+03,1.138012e+04
1.107906e+03,1.137280e+04
1.108870e+03,1.136948e+04
1.109834e+03,1.136820e+04
1.110799e+03,1.137001e+04
1.111763e+03,1.136988e+04
1.112727e+03,1.136413e+04
1.113691e+03,1.136276e+04
1.114656e+03,1.137376e+04
1.115620e+03,1.139412e+04
1.116584e+03,1.140228e+04
1.117548e+03,1.137656e+04
1.118512e+03,1.135325e+04
1.119477e+03,1.134452e+04
1.120441e+03,1.134281e+04
1.121405e+03,1.133825e+04
1.122369e+03,1.133013e+04
1.123334e+03,1.132103e+04
1.124298e+03,1.131450e+04
1.125262e+03,1.130776e+04
1.126226e+03,1.129841e+04
1.127191e+03,1.128652e+04
1.128155e+03,1.127919e+04
1.129119e+03,1.127121e+04
1.130083e+03,1.126973e+04
1.131047e+03,1.128125e+04
1.132012e+03,1.129760e+04
1.132976e+03,1.129985e+04
1.133940e+03,1.128130e+04
1.134904e+03,1.126070e+04
1.135869e+03,1.124349e+04
1.136833e+03,1.122898e+04
1.137797e+03,1.121405e+04
1.138761e+03,1.119757e+04
1.139726e+03,1.120169e+04
1.140690e+03,1.123596e+04
1.141654e+03,1.126603e+04
1.142618e+03,1.126904e+04
1.143583e+03,1.124947e+04
1.144547e+03,1.123605e+04
1.145511e+03,1.122844e+04
1.146475e+03,1.122748e+04
1.147439e+03,1.123450e+04
1.148404e+03,1.124676e+04
1.149368e+03,1.125594e+04
1.150332e+03,1.126052e+04
1.151296e+03,1.126333e+04
1.152261e+03,1.125953e+04
1.153225e+03,1.124689e+04
1.154189e+03,1.123062e+04
1.155153e+03,1.121553e+04
1.156118e+03,1.120258e+04
1.157082e+03,1.119524e+04
1.158046e+03,1.119929e+04
1.159010e+03,1.121495e+04
1.159974e+03,1.123602e+04
1.160939e+03,1.125120e+04
1.161903e+03,1.125849e+04
1.162867e+03,1.125946e+04
1.163831e+03,1.125361e+04
1.164796e+03,1.124406e+04
1.165760e+03,1.123997e+04
1.166724e+03,1.123861e+04
1.167688e+03,1.122723e+04
1.168653e+03,1.120642e+04
1.169617e+03,1.118179e+04
1.170581e+03,1.115448e+04
1.171545e+03,1.113161e+04
1.172510e+03,1.112532e+04
1.173474e+03,1.113143e+04
1.174438e+03,1.113812e+04
1.175402e+03,1.114041e+04
1.176366e+03,1.113906e+04
1.177331e+03,1.113672e+04
1.178295e+03,1.113251e+04
1.179259e+03,1.112162e+04
1.180223e+03,1.110275e+04
1.181188e+03,1.108269e+04
1.182152e+03,1.106679e+04
1.183116e+03,1.105090e+04
1.184080e+03,1.103513e+04
1.185045e+03,1.102100e+04
1.186009e+03,1.100756e+04
1.186973e+03,1.099581e+04
1.187937e+03,1.099009e+04
1.188901e+03,1.099235e+04
1.189866e+03,1.099814e+04
1.190830e+03,1.100373e+04
1.191794e+03,1.100649e+04
1.192758e+03,1.100171e+04
1.193723e+03,1.098826e+04
1.194687e+03,1.097627e+04
1.195651e+03,1.096263e+04
1.196615e+03,1.095115e+04
1.197580e+03,1.095190e+04
1.198544e+03,1.097332e+04
1.199508e+03,1.097811e+04
1.200472e+03,1.096572e+04
1.201437e+03,1.094512e+04
1.202401e+03,1.092219e+04
1.203365e+03,1.089733e+04
1.204329e+03,1.089165e+04
1.205293e+03,1.091178e+04
1.206258e+03,1.093028e+04
1.207222e+03,1.093258e+04
1.208186e+03,1.092369e+04
1.209150e+03,1.092357e+04
1.210115e+03,1.093054e+04
1.211079e+03,1.092950e+04
1.212043e+03,1.091849e+04
1.213007e+03,1.090074e+04
1.213972e+03,1.088187e+04
1.214936e+03,1.086496e+04
1.215900e+03,1.084995e+04
1.216864e+03,1.083744e+04
1.217828e+03,1.083097e+04
1.218793e+03,1.083625e+04
1.219757e+03,1.084391e+04
1.220721e+03,1.083267e+04
1.221685e+03,1.081165e+04
1.222650e+03,1.080082e+04
1.223614e+03,1.080210e+04
1.224578e+03,1.080577e+04
1.225542e+03,1.081309e+04
1.226507e+03,1.081930e+04
1.227471e+03,1.081346e+04
1.228435e+03,1.079551e+04
1.229399e+03,1.077705e+04
1.230364e+03,1.077228e+04
1.231328e+03,1.076504e+04
1.232292e+03,1.074797e+04
1.233256e+03,1.073085e+04
1.234220e+03,1.072078e+04
1.235185e+03,1.072431e+04
1.236149e+03,1.072683e+04
1.237113e+03,1.072280e+04
1.238077e+03,1.072201e+04
1.239042e+03,1.072331e+04
1.240006e+03,1.072236e+04
1.240970e+03,1.072194e+04
1.241934e+03,1.072467e+04
1.242899e+03,1.072250e+04
1.243863e+03,1.071692e+04
1.244827e+03,1.070801e+04
1.245791e+03,1.069284e+04
1.246755e+03,1.066918e+04
1.247720e+03,1.065345e+04
1.248684e+03,1.064872e+04
1.249648e+03,1.064505e+04
1.250612e+03,1.063383e+04
1.251577e+03,1.061698e+04
1.252541e+03,1.060509e+04
1.253505e+03,1.059695e+04
1.254469e+03,1.059236e+04
1.255434e+03,1.059329e+04
1.256398e+03,1.059974e+04
1.257362e+03,1.061343e+04
1.258326e+03,1.062601e+04
1.259291e+03,1.062451e+04
1.260255e+03,1.060818e+04
1.261219e+03,1.058589e+04
1.262183e+03,1.056743e+04
1.263147e+03,1.055291e+04
1.264112e+03,1.053692e+04
1.265076e+03,1.052469e+04
1.266040e+03,1.052509e+04
1.267004e+03,1.054746e+04
1.267969e+03,1.055857e+04
1.268933e+03,1.053816e+04
1.269897e+03,1.052146e+04
1.270861e+03,1.052349e+04
1.271826e+03,1.053575e+04
1.272790e+03,1.054604e+04
1.273754e+03,1.056456e+04
1.274718e+03,1.056949e+04
1.275682e+03,1.055587e+04
1.276647e+03,1.053784e+04
1.277611e+03,1.053253e+04
1.278575e+03,1.054232e+04
1.279539e+03,1.053116e+04
1.280504e+03,1.050136e+04
1.281468e+03,1.047379e+04
1.282432e+03,1.045588e+04
1.283396e+03,1.044770e+04
1.284361e+03,1.045216e+04
1.285325e+03,1.046467e+04
1.286289e+03,1.047637e+04
1.287253e+03,1.048447e+04
1.288218e+03,1.048887e+04
1.289182e+03,1.049606e+04
1.290146e+03,1.049862e+04
1.291110e+03,1.048209e+04
1.292074e+03,1.045339e+04
1.293039e+03,1.043344e+04
1.294003e+03,1.044196e+04
1.294967e+03,1.044509e+04
1.295931e+03,1.042512e+04
1.296896e+03,1.040051e+04
1.297860e+03,1.038836e+04
1.298824e+03,1.039023e+04
1.299788e+03,1.039819e+04
1.300753e+03,1.041831e+04
1.301717e+03,1.043181e+04
1.302681e+03,1.042905e+04
1.303645e+03,1.041628e+04
1.304609e+03,1.041278e+04
1.305574e+03,1.041656e+04
1.306538e+03,1.041375e+04
1.307502e+03,1.040673e+04
1.308466e+03,1.040039e+04
1.309431e+03,1.039483e+04
1.310395e+03,1.039130e+04
1.311359e+03,1.039625e+04
1.312323e+03,1.040272e+04
1.313288e+03,1.039567e+04
1.314252e+03,1.036833e+04
1.315216e+03,1.034663e+04
1.316180e+03,1.035414e+04
1.317145e+03,1.037809e+04
1.318109e+03,1.040313e+04
1.319073e+03,1.042264e+04
1.320037e+03,1.043422e+04
1.321001e+03,1.043807e+04
1.321966e+03,1.043384e+04
1.322930e+03,1.042233e+04
1.323894e+03,1.040885e+04
1.324858e+03,1.039687e+04
1.325823e+03,1.038665e+04
1.326787e+03,1.037519e+04
1.327751e+03,1.035698e+04
1.328715e+03,1.034154e+04
1.329680e+03,1.033755e+04
1.330644e+03,1.034306e+04
1.331608e+03,1.034892e+04
1.332572e+03,1.035382e+04
1.333536e+03,1.035299e+04
1.334501e+03,1.034337e+04
1.335465e+03,1.032669e+04
1.336429e+03,1.030600e+04
1.337393e+03,1.028630e+04
1.338358e+03,1.027387e+04
1.339322e+03,1.026744e+04
1.340286e+03,1.026011e+04
1.341250e+03,1.025332e+04
1.342215e+03,1.023854e+04
1.343179e+03,1.020978e+04
1.344143e+03,1.018258e+04
1.345107e+03,1.016712e+04
1.346072e+03,1.016236e+04
1.347036e+03,1.016224e+04
1.348000e+03,1.016772e+04
1.348964e+03,1.016989e+04
1.349928e+03,1.016830e+04
1.350893e+03,1.016606e+04
1.351857e+03,1.016403e+04
1.352821e+03,1.015978e+04
1.353785e+03,1.014582e+04
1.354750e+03,1.011981e+04
1.355714e+03,1.009562e+04
1.356678e+03,1.009609e+04
1.357642e+03,1.010774e+04
1.358607e+03,1.010531e+04
1.359571e+03,1.009120e+04
1.360535e+03,1.007261e+04
1.361499e+03,1.005056e+04
1.362464e+03,1.003596e+04
1.363428e+03,1.004206e+04
1.364392e+03,1.005377e+04
1.365356e+03,1.005206e+04
1.366320e+03,1.003468e+04
1.367285e+03,1.003110e+04
1.368249e+03,1.005850e+04
1.369213e+03,1.006895e+04
1.370177e+03,1.005028e+04
1.371142e+03,1.001981e+04
1.372106e+03,9.996089e+03
1.373070e+03,9.978921e+03
1.374034e+03,9.968136e+03
1.374999e+03,9.965424e+03
1.375963e+03,9.965354e+03
1.376927e+03,9.964772e+03
1.377891e+03,9.964168e+03
1.378855e+03,9.962171e+03
1.379820e+03,9.958884e+03
1.380784e+03,9.955635e+03
1.381748e+03,9.955381e+03
1.382712e+03,9.956411e+03
1.383677e+03,9.951354e+03
1.384641e+03,9.945154e+03
1.385605e+03,9.940185e+03
1.386569e+03,9.933100e+03
1.387534e+03,9.919797e+03
1.388498e+03,9.899811e+03
1.389462e+03,9.881510e+03
1.390426e+03,9.862136e+03
1.391391e+03,9.846378e+03
1.392355e+03,9.841187e+03
1.393319e+03,9.843871e+03
1.394283e+03,9.845338e+03
1.395247e+03,9.845650e+03
1.396212e+03,9.848035e+03
1.397176e+03,9.853480e+03
1.398140e+03,9.860332e+03
1.399104e+03,9.874112e+03
1.400069e+03,9.878283e+03
1.401033e+03,9.853283e+03
1.401997e+03,9.812027e+03
1.402961e+03,9.791328e+03
1.403926e+03,9.804484e+03
1.404890e+03,9.807729e+03
1.405854e+03,9.798391e+03
1.406818e+03,9.786259e+03
1.407782e+03,9.777343e+03
1.408747e+03,9.774566e+03
1.409711e+03,9.782473e+03
1.410675e+03,9.792786e+03
1.411639e+03,9.790679e+03
1.412604e+03,9.772059e+03
1.413568e+03,9.753911e+03
1.414532e+03,9.754705e+03
1.415496e+03,9.764419e+03
1.416461e+03,9.776198e+03
1.417425e+03,9.783194e+03
1.418389e+03,9.774229e+03
1.419353e+03,9.730280e+03
1.420318e+03,9.698017e+03
1.421282e+03,9.688913e+03
1.422246e+03,9.687344e+03
1.423210e+03,9.678581e+03
1.424174e+03,9.665853e+03
1.425139e+03,9.663265e+03
1.426103e+03,9.667019e+03
1.427067e+03,9.666902e+03
1.428031e+03,9.659536e+03
1.428996e+03,9.653418e+03
1.429960e+03,9.656535e+03
1.430924e+03,9.661431e+03
1.431888e+03,9.661948e+03
1.432853e+03,9.658275e+03
1.433817e+03,9.651858e+03
1.434781e+03,9.642949e+03
1.435745e+03,9.636045e+03
1.436709e+03,9.627529e+03
1.437674e+03,9.617671e+03
1.438638e+03,9.610354e+03
1.439602e+03,9.608187e+03
1.440566e+03,9.609912e+03
1.441531e+03,9.614079e+03
1.442495e+03,9.616891e+03
1.443459e+03,9.615449e+03
1.444423e+03,9.611382e+03
1.445388e+03,9.606074e+03
1.446352e+03,9.595840e+03
1.447316e+03,9.577830e+03
1.448280e+03,9.557187e+03
1.449245e+03,9.541678e+03
1.450209e+03,9.532998e+03
1.451173e+03,9.529694e+03
1.452137e+03,9.528606e+03
1.453101e+03,9.525540e+03
1.454066e+03,9.519072e+03
1.455030e+03,9.510561e+03
1.455994e+03,9.507578e+03
1.456958e+03,9.509424e+03
1.457923e+03,9.512879e+03
1.458887e+03,9.514424e+03
1.459851e+03,9.514548e+03
1.460815e+03,9.513396e+03
1.461780e+03,9.508703e+03
1.462744e+03,9.505381e+03
1.463708e+03,9.504153e+03
1.464672e+03,9.495324e+03
1.465636e+03,9.477798e+03
1.466601e+03,9.462746e+03
1.467565e+03,9.450787e+03
1.468529e+03,9.442364e+03
1.469493e+03,9.434700e+03
1.470458e+03,9.426755e+03
1.471422e+03,9.429092e+03
1.472386e+03,9.438754e+03
1.473350e+03,9.435854e+03
1.474315e+03,9.406915e+03
1.475279e+03,9.380811e+03
1.476243e+03,9.374481e+03
1.477207e+03,9.375832e+03
1.478172e+03,9.385862e+03
1.479136e+03,9.400754e+03
1.480100e+03,9.401254e+03
1.481064e+03,9.384640e+03
1.482028e+03,9.367149e+03
1.482993e+03,9.351035e+03
1.483957e+03,9.341741e+03
1.484921e+03,9.346198e+03
1.485885e+03,9.356231e+03
1.486850e+03,9.353024e+03
1.487814e+03,9.340436e+03
1.488778e+03,9.333719e+03
1.489742e+03,9.341403e+03
1.490707e+03,9.344549e+03
1.491671e+03,9.340017e+03
1.492635e+03,9.336944e+03
1.493599e+03,9.335568e+03
1.494563e+03,9.333081e+03
1.495528e+03,9.329080e+03
1.496492e+03,9.321928e+03
1.497456e+03,9.305987e+03
1.498420e+03,9.284020e+03
1.499385e+03,9.267415e+03
1.500349e+03,9.270489e+03
1.501313e+03,9.277495e+03
1.502277e+03,9.269726e+03
1.503242e+03,9.255863e+03
1.504206e+03,9.248714e+03
1.505170e+03,9.249253e+03
1.506134e+03,9.256763e+03
1.507099e+03,9.278795e+03
1.508063e+03,9.289153e+03
1.509027e+03,9.276257e+03
1.509991e+03,9.250369e+03
1.510955e+03,9.225754e+03
1.511920e+03,9.203103e+03
1.512884e+03,9.185253e+03
1.513848e+03,9.176183e+03
1.514812e+03,9.176847e+03
1.515777e+03,9.186137e+03
1.516741e+03,9.193688e+03
1.517705e+03,9.195591e+03
1.518669e+03,9.192832e+03
1.519634e+03,9.187115e+03
1.520598e+03,9.177282e+03
1.521562e+03,9.171500e+03
1.522526e+03,9.167252e+03
1.523490e+03,9.164928e+03
1.524455e+03,9.166278e+03
1.525419e+03,9.167033e+03
1.526383e+03,9.169122e+03
1.527347e+03,9.165216e+03
1.528312e+03,9.148174e+03
1.529276e+03,9.125052e+03
1.530240e+03,9.110922e+03
1.531204e+03,9.105428e+03
1.532169e+03,9.100733e+03
1.533133e+03,9.096415e+03
1.534097e+03,9.093101e+03
1.535061e+03,9.091599e+03
1.536026e+03,9.088685e+03
1.536990e+03,9.080987e+03
1.537954e+03,9.071000e+03
1.538918e+03,9.061749e+03
1.539882e+03,9.052942e+03
1.540847e+03,9.045463e+03
1.541811e+03,9.039060e+03
1.542775e+03,9.028093e+03
1.543739e+03,9.010832e+03
1.544704e+03,8.996921e+03
1.545668e+03,9.005311e+03
1.546632e+03,9.030832e+03
1.547596e+03,9.043814e+03
1.548561e+03,9.044221e+03
1.549525e+03,9.045144e+03
1.550489e+03,9.051824e+03
1.551453e+03,9.056904e+03
1.552417e+03,9.056271e+03
1.553382e+03,9.052634e+03
1.554346e+03,9.052638e+03
1.555310e+03,9.056171e+03
1.556274e+03,9.042416e+03
1.557239e+03,9.011341e+03
1.558203e+03,9.000131e+03
1.559167e+03,9.019126e+03
1.560131e+03,9.038708e+03
1.561096e+03,9.030862e+03
1.562060e+03,9.016659e+03
1.563024e+03,9.010597e+03
1.563988e+03,9.011264e+03
1.564953e+03,9.012858e+03
1.565917e+03,9.014558e+03
1.566881e+03,9.019288e+03
1.567845e+03,9.026800e+03
1.568809e+03,9.020438e+03
1.569774e+03,8.984535e+03
1.570738e+03,8.946976e+03
1.571702e+03,8.952892e+03
1.572666e+03,8.975120e+03
1.573631e+03,8.977397e+03
1.574595e+03,8.958464e+03
1.575559e+03,8.949824e+03
1.576523e+03,8.959682e+03
1.577488e+03,8.969200e+03
1.578452e+03,8.970521e+03
1.579416e+03,8.966322e+03
1.580380e+03,8.959916e+03
1.581344e+03,8.953999e+03
1.582309e+03,8.959973e+03
1.583273e+03,8.971234e+03
1.584237e+03,8.967746e+03
1.585201e+03,8.934407e+03
1.586166e+03,8.912958e+03
1.587130e+03,8.912514e+03
1.588094e+03,8.908511e+03
1.589058e+03,8.891918e+03
1.590023e+03,8.869989e+03
1.590987e+03,8.851017e+03
1.591951e+03,8.839321e+03
1.592915e+03,8.838281e+03
1.593880e+03,8.843659e+03
1.594844e+03,8.851799e+03
1.595808e+03,8.873718e+03
1.596772e+03,8.882770e+03
1.597736e+03,8.873797e+03
1.598701e+03,8.858405e+03
1.599665e+03,8.841842e+03
1.600629e+03,8.826257e+03
1.601593e+03,8.823834e+03
1.602558e+03,8.830196e+03
1.603522e+03,8.831612e+03
1.604486e+03,8.822822e+03
1.605450e+03,8.813114e+03
1.606415e+03,8.806870e+03
1.607379e+03,8.807761e+03
1.608343e+03,8.819299e+03
1.609307e+03,8.831901e+03
1.610271e+03,8.826259e+03
1.611236e+03,8.806474e+03
1.612200e+03,8.799653e+03
1.613164e+03,8.806688e+03
1.614128e+03,8.809501e+03
1.615093e+03,8.787462e+03
1.616057e+03,8.771068e+03
1.617021e+03,8.776745e+03
1.617985e+03,8.778761e+03
1.618950e+03,8.761323e+03
1.619914e+03,8.731813e+03
1.620878e+03,8.721186e+03
1.621842e+03,8.724354e+03
1.622807e+03,8.714199e+03
1.623771e+03,8.686719e+03
1.624735e+03,8.667712e+03
1.625699e+03,8.671854e+03
1.626663e+03,8.678656e+03
1.627628e+03,8.680795e+03
1.628592e+03,8.675126e+03
1.629556e+03,8.664173e+03
1.630520e+03,8.651968e+03
1.631485e+03,8.633293e+03
1.632449e+03,8.610099e+03
1.633413e+03,8.593881e+03
1.634377e+03,8.590398e+03
1.635342e+03,8.594171e+03
1.636306e+03,8.617773e+03
1.637270e+03,8.631259e+03
1.638234e+03,8.616083e+03
1.639198e+03,8.587438e+03
1.640163e+03,8.577181e+03
1.641127e+03,8.582430e+03
1.642091e+03,8.588092e+03
1.643055e+03,8.589374e+03
1.644020e+03,8.587970e+03
1.644984e+03,8.580330e+03
1.645948e+03,8.570741e+03
1.646912e+03,8.561019e+03
1.647877e+03,8.553933e+03
1.648841e+03,8.555111e+03
1.649805e+03,8.560692e+03
1.650769e+03,8.554981e+03
1.651734e+03,8.540287e+03
1.652698e+03,8.523258e+03
1.653662e+03,8.501532e+03
1.654626e+03,8.486017e+03
1.655590e+03,8.485771e+03
1.656555e+03,8.481808e+03
1.657519e+03,8.471212e+03
1.658483e+03,8.462267e+03
1.659447e+03,8.463478e+03
1.660412e+03,8.465677e+03
1.661376e+03,8.455815e+03
1.662340e+03,8.440220e+03
1.663304e+03,8.432975e+03
1.664269e+03,8.438118e+03
1.665233e+03,8.444196e+03
1.666197e+03,8.451650e+03
1.667161e+03,8.447846e+03
1.668125e+03,8.424146e+03
1.669090e+03,8.395196e+03
1.670054e+03,8.385754e+03
1.671018e+03,8.384624e+03
1.671982e+03,8.375935e+03
1.672947e+03,8.360184e+03
1.673911e+03,8.362759e+03
1.674875e+03,8.387727e+03
1.675839e+03,8.394563e+03
1.676804e+03,8.380554e+03
1.677768e+03,8.365384e+03
1.678732e+03,8.363140e+03
1.679696e+03,8.362515e+03
1.680661e+03,8.348188e+03
1.681625e+03,8.328088e+03
1.682589e+03,8.322377e+03
1.683553e+03,8.335270e+03
1.684517e+03,8.337462e+03
1.685482e+03,8.328139e+03
1.686446e+03,8.320132e+03
1.687410e+03,8.317533e+03
1.688374e+03,8.315763e+03
1.689339e+03,8.308748e+03
1.690303e+03,8.303378e+03
1.691267e+03,8.306462e+03
1.692231e+03,8.312845e+03
1.693196e+03,8.307730e+03
1.694160e+03,8.291626e+03
1.695124e+03,8.290719e+03
1.696088e+03,8.303650e+03
1.697052e+03,8.309769e+03
1.698017e+03,8.285588e+03
1.698981e+03,8.265662e+03
1.699945e+03,8.256052e+03
1.700909e+03,8.249984e+03
1.701874e+03,8.253239e+03
1.702838e+03,8.263037e+03
1.703802e+03,8.264446e+03
1.704766e+03,8.254861e+03
1.705731e+03,8.233093e+03
1.706695e+03,8.202587e+03
1.707659e+03,8.186374e+03
1.708623e+03,8.195757e+03
1.709588e+03,8.209681e+03
1.710552e+03,8.223061e+03
1.711516e+03,8.226591e+03
1.712480e+03,8.207204e+03
1.713444e+03,8.181708e+03
1.714409e+03,8.172383e+03
1.715373e+03,8.172753e+03
1.716337e+03,8.170392e+03
1.717301e+03,8.166898e+03
1.718266e+03,8.164758e+03
1.719230e+03,8.162031e+03
1.720194e+03,8.159322e+03
1.721158e+03,8.155500e+03
1.722123e+03,8.152587e+03
1.723087e+03,8.155592e+03
1.724051e+03,8.156380e+03
1.725015e+03,8.153992e+03
1.725979e+03,8.147673e+03
1.726944e+03,8.125781e+03
1.727908e+03,8.095892e+03
1.728872e+03,8.095516e+03
1.729836e+03,8.114619e+03
1.730801e+03,8.123745e+03
1.731765e+03,8.108194e+03
1.732729e+03,8.095340e+03
1.733693e+03,8.087539e+03
1.734658e+03,8.084957e+03
1.735622e+03,8.088203e+03
1.736586e+03,8.092425e+03
1.737550e+03,8.092984e+03
1.738515e+03,8.089616e+03
1.739479e+03,8.079689e+03
1.740443e+03,8.065311e+03
1.741407e+03,8.059411e+03
1.742371e+03,8.063401e+03
1.743336e+03,8.066859e+03
1.744300e+03,8.068059e+03
1.745264e+03,8.058610e+03
1.746228e+03,8.025957e+03
1.747193e+03,7.999211e+03
1.748157e+03,8.003992e+03
1.749121e+03,8.016157e+03
1.750085e+03,8.007646e+03
1.751050e+03,7.982687e+03
1.752014e+03,7.983363e+03
1.752978e+03,8.000961e+03
1.753942e+03,8.007830e+03
1.754906e+03,7.997550e+03
1.755871e+03,7.990297e+03
1.756835e+03,7.986553e+03
1.757799e+03,7.980445e+03
1.758763e+03,7.979560e+03
1.759728e+03,7.979806e+03
1.760692e+03,7.974764e+03
1.761656e+03,7.967976e+03
1.762620e+03,7.955656e+03
1.763585e+03,7.942847e+03
1.764549e+03,7.937561e+03
1.765513e+03,7.936455e+03
1.766477e+03,7.935948e+03
1.767442e+03,7.937415e+03
1.768406e+03,7.935907e+03
1.769370e+03,7.929823e+03
1.770334e+03,7.925432e+03
1.771298e+03,7.921399e+03
1.772263e+03,7.916313e+03
1.773227e+03,7.911440e+03
1.774191e+03,7.908952e+03
1.775155e+03,7.917500e+03
1.776120e+03,7.923310e+03
1.777084e+03,7.898510e+03
1.778048e+03,7.856991e+03
1.779012e+03,7.836438e+03
1.779977e+03,7.843133e+03
1.780941e+03,7.863915e+03
1.781905e+03,7.894767e+03
1.782869e+03,7.912785e+03
1.783833e+03,7.906467e+03
1.784798e+03,7.893724e+03
1.785762e+03,7.881626e+03
1.786726e+03,7.868433e+03
1.787690e+03,7.854112e+03
1.788655e+03,7.840805e+03
1.789619e+03,7.827544e+03
1.790583e+03,7.817252e+03
1.791547e+03,7.812860e+03
1.792512e+03,7.815758e+03
1.793476e+03,7.829849e+03
1.794440e+03,7.857694e+03
1.795404e+03,7.876935e+03
1.796369e+03,7.884268e+03
1.797333e+03,7.873411e+03
1.798297e+03,7.828569e+03
1.799261e+03,7.789890e+03
1.800225e+03,7.791329e+03
1.801190e+03,7.797269e+03
1.802154e+03,7.785806e+03
1.803118e+03,7.764594e+03
1.804082e+03,7.760250e+03
1.805047e+03,7.767106e+03
1.806011e+03,7.767697e+03
1.806975e+03,7.759475e+03
1.807939e+03,7.744049e+03
1.808904e+03,7.711305e+03
1.809868e+03,7.703342e+03
1.810832e+03,7.727915e+03
1.811796e+03,7.755436e+03
1.812760e+03,7.765594e+03
1.813725e+03,7.766192e+03
1.814689e+03,7.757718e+03
1.815653e+03,7.746961e+03
1.816617e+03,7.739905e+03
1.817582e+03,7.734429e+03
1.818546e+03,7.720606e+03
1.819510e+03,7.701430e+03
1.820474e+03,7.684909e+03
1.821439e+03,7.673892e+03
1.822403e+03,7.666074e+03
1.823367e+03,7.661516e+03
1.824331e+03,7.661234e+03
1.825296e+03,7.663296e+03
1.826260e+03,7.663116e+03
1.827224e+03,7.662333e+03
1.828188e+03,7.665382e+03
1.829152e+03,7.668437e+03
1.830117e+03,7.673920e+03
1.831081e+03,7.690920e+03
1.832045e+03,7.705897e+03
1.833009e+03,7.677914e+03
1.833974e+03,7.633319e+03
1.834938e+03,7.611647e+03
1.835902e+03,7.619760e+03
1.836866e+03,7.616527e+03
1.837831e+03,7.600307e+03
1.838795e+03,7.588288e+03
1.839759e+03,7.587586e+03
1.840723e+03,7.589583e+03
1.841688e+03,7.578179e+03
1.842652e+03,7.576586e+03
1.843616e+03,7.594521e+03
1.844580e+03,7.609146e+03
1.845544e+03,7.595392e+03
1.846509e+03,7.570979e+03
1.847473e+03,7.567412e+03
1.848437e+03,7.574301e+03
1.849401e+03,7.573020e+03
1.850366e+03,7.563822e+03
1.851330e+03,7.545774e+03
1.852294e+03,7.522960e+03
1.853258e+03,7.510886e+03
1.854223e+03,7.513620e+03
1.855187e+03,7.521687e+03
1.856151e+03,7.536518e+03
1.857115e+03,7.537624e+03
1.858079e+03,7.515868e+03
1.859044e+03,7.493117e+03
1.860008e+03,7.502696e+03
1.860972e+03,7.519928e+03
1.861936e+03,7.518839e+03
1.862901e+03,7.508627e+03
1.863865e+03,7.500521e+03
1.864829e+03,7.488840e+03
1.865793e+03,7.462055e+03
1.866758e+03,7.429893e+03
1.867722e+03,7.414588e+03
1.868686e+03,7.422790e+03
1.869650e+03,7.435451e+03
1.870615e+03,7.450593e+03
1.871579e+03,7.456082e+03
1.872543e+03,7.451845e+03
1.873507e+03,7.448374e+03
1.874471e+03,7.446390e+03
1.875436e+03,7.440903e+03
1.876400e+03,7.432963e+03
1.877364e+03,7.425347e+03
1.878328e+03,7.421775e+03
1.879293e+03,7.419056e+03
1.880257e+03,7.409289e+03
1.881221e+03,7.392833e+03
1.882185e+03,7.372678e+03
1.883150e+03,7.350560e+03
1.884114e+03,7.350355e+03
1.885078e+03,7.366613e+03
1.886042e+03,7.374647e+03
1.887006e+03,7.365913e+03
1.887971e+03,7.359437e+03
1.888935e+03,7.367571e+03
1.889899e+03,7.375556e+03
1.890863e+03,7.377099e+03
1.891828e+03,7.367757e+03
1.892792e+03,7.339835e+03
1.893756e+03,7.310167e+03
1.894720e+03,7.298757e+03
1.895685e+03,7.299229e+03
1.896649e+03,7.299138e+03
1.897613e+03,7.296111e+03
1.898577e+03,7.292618e+03
1.899542e+03,7.289199e+03
1.900506e+03,7.284045e+03
1.901470e+03,7.275260e+03
1.902434e+03,7.270933e+03
1.903398e+03,7.271295e+03
1.904363e+03,7.273158e+03
1.905327e+03,7.277009e+03
1.906291e+03,7.277725e+03
1.907255e+03,7.261727e+03
1.908220e+03,7.251880e+03
1.909184e+03,7.254472e+03
1.910148e+03,7.255609e+03
1.911112e+03,7.241431e+03
1.912077e+03,7.226780e+03
1.913041e+03,7.226274e+03
1.914005e+03,7.229325e+03
1.914969e+03,7.224307e+03
1.915933e+03,7.213322e+03
1.916898e+03,7.201371e+03
1.917862e+03,7.191050e+03
1.918826e+03,7.184274e+03
1.919790e+03,7.183472e+03
1.920755e+03,7.187438e+03
1.921719e+03,7.191834e+03
1.922683e+03,7.190376e+03
1.923647e+03,7.184196e+03
1.924612e+03,7.181320e+03
1.925576e+03,7.193317e+03
1.926540e+03,7.193046e+03
1.927504e+03,7.170153e+03
1.928469e+03,7.144498e+03
1.929433e+03,7.133542e+03
1.930397e+03,7.124481e+03
1.931361e+03,7.101989e+03
1.932325e+03,7.085211e+03
1.933290e+03,7.097055e+03
1.934254e+03,7.128416e+03
1.935218e+03,7.151048e+03
1.936182e+03,7.157608e+03
1.937147e+03,7.137921e+03
1.938111e+03,7.099837e+03
1.939075e+03,7.088779e+03
1.940039e+03,7.102299e+03
1.941004e+03,7.099744e+03
1.941968e+03,7.071773e+03
1.942932e+03,7.049446e+03
1.943896e+03,7.046548e+03
1.944860e+03,7.043549e+03
1.945825e+03,7.042034e+03
1.946789e+03,7.036424e+03
1.947753e+03,7.005432e+03
1.948717e+03,6.987752e+03
1.949682e+03,7.004140e+03
1.950646e+03,7.025997e+03
1.951610e+03,7.040210e+03
1.952574e+03,7.045647e+03
1.953539e+03,7.033316e+03
1.954503e+03,7.016584e+03
1.955467e+03,7.011659e+03
1.956431e+03,7.016227e+03
1.957396e+03,7.026311e+03
1.958360e+03,7.032788e+03
1.959324e+03,7.010233e+03
1.960288e+03,6.966746e+03
1.961252e+03,6.944885e+03
1.962217e+03,6.944274e+03
1.963181e+03,6.941788e+03
1.964145e+03,6.935562e+03
1.965109e+03,6.931735e+03
1.966074e+03,6.935356e+03
1.967038e+03,6.947227e+03
1.968002e+03,6.961758e+03
1.968966e+03,6.970346e+03
1.969931e+03,6.969732e+03
1.970895e+03,6.962596e+03
1.971859e+03,6.958709e+03
1.972823e+03,6.952896e+03
1.973787e+03,6.938757e+03
1.974752e+03,6.919921e+03
1.975716e+03,6.899000e+03
1.976680e+03,6.881646e+03
1.977644e+03,6.885300e+03
1.978609e+03,6.900136e+03
1.979573e+03,6.903333e+03
1.980537e+03,6.896593e+03
1.981501e+03,6.892083e+03
1.982466e+03,6.889494e+03
1.983430e+03,6.881169e+03
1.984394e+03,6.862915e+03
1.985358e+03,6.873008e+03
1.986323e+03,6.904345e+03
1.987287e+03,6.917747e+03
1.988251e+03,6.897362e+03
1.989215e+03,6.877249e+03
1.990179e+03,6.863263e+03
1.991144e+03,6.853884e+03
1.992108e+03,6.851494e+03
1.993072e+03,6.852063e+03
1.994036e+03,6.851233e+03
1.995001e+03,6.847870e+03
1.995965e+03,6.840875e+03
1.996929e+03,6.836328e+03
1.997893e+03,6.836339e+03
1.998858e+03,6.836422e+03
1.999822e+03,6.839824e+03
2.000786e+03,6.833761e+03
2.001750e+03,6.807063e+03
2.002714e+03,6.776479e+03
2.003679e+03,6.770892e+03
2.004643e+03,6.775505e+03
2.005607e+03,6.770647e+03
2.006571e+03,6.761126e+03
2.007536e+03,6.767833e+03
2.008500e+03,6.783323e+03
2.009464e+03,6.776982e+03
2.010428e+03,6.750210e+03
2.011393e+03,6.741085e+03
2.012357e+03,6.752432e+03
2.013321e+03,6.761119e+03
2.014285e+03,6.760648e+03
2.015250e+03,6.754831e+03
2.016214e+03,6.746205e+03
2.017178e+03,6.728833e+03
2.018142e+03,6.702923e+03
2.019106e+03,6.685328e+03
2.020071e+03,6.686838e+03
2.021035e+03,6.689623e+03
2.021999e+03,6.683259e+03
2.022963e+03,6.677165e+03
2.023928e+03,6.678140e+03
2.024892e+03,6.680884e+03
2.025856e+03,6.678056e+03
2.026820e+03,6.674201e+03
2.027785e+03,6.670459e+03
2.028749e+03,6.667114e+03
2.029713e+03,6.669427e+03
2.030677e+03,6.674296e+03
2.031641e+03,6.672743e+03
2.032606e+03,6.669979e+03
2.033570e+03,6.680048e+03
2.034534e+03,6.695005e+03
2.035498e+03,6.681206e+03
2.036463e+03,6.650622e+03
2.037427e+03,6.626233e+03
2.038391e+03,6.613879e+03
2.039355e+03,6.624051e+03
2.040320e+03,6.647967e+03
2.041284e+03,6.636708e+03
2.042248e+03,6.575948e+03
2.043212e+03,6.543255e+03
2.044177e+03,6.546707e+03
2.045141e+03,6.559678e+03
2.046105e+03,6.576516e+03
2.047069e+03,6.593174e+03
2.048033e+03,6.613427e+03
2.048998e+03,6.608166e+03
2.049962e+03,6.575226e+03
2.050926e+03,6.547181e+03
2.051890e+03,6.555125e+03
2.052854e+03,6.555305e+03
2.053819e+03,6.526724e+03
2.054783e+03,6.500547e+03
2.055747e+03,6.498708e+03
2.056711e+03,6.508401e+03
2.057676e+03,6.522820e+03
2.058640e+03,6.535244e+03
2.059604e+03,6.537147e+03
2.060568e+03,6.531020e+03
2.061533e+03,6.527015e+03
2.062497e+03,6.518432e+03
2.063461e+03,6.487753e+03
2.064425e+03,6.457592e+03
2.065390e+03,6.470208e+03
2.066354e+03,6.498355e+03
2.067318e+03,6.490778e+03
2.068282e+03,6.463268e+03
2.069247e+03,6.448494e+03
2.070211e+03,6.442941e+03
2.071175e+03,6.431213e+03
2.072139e+03,6.419224e+03
2.073104e+03,6.423288e+03
2.074068e+03,6.443825e+03
2.075032e+03,6.443486e+03
2.075996e+03,6.425049e+03
2.076960e+03,6.412528e+03
2.077925e+03,6.409550e+03
2.078889e+03,6.401210e+03
2.079853e+03,6.386373e+03
2.080817e+03,6.379209e+03
2.081782e+03,6.380128e+03
2.082746e+03,6.373183e+03
2.083710e+03,6.353521e+03
2.084674e+03,6.334013e+03
2.085639e+03,6.318995e+03
2.086603e+03,6.320444e+03
2.087567e+03,6.346431e+03
2.088531e+03,6.361782e+03
2.089496e+03,6.356905e+03
2.090460e+03,6.352630e+03
2.091424e+03,6.375785e+03
2.092388e+03,6.386247e+03
2.093353e+03,6.334623e+03
2.094317e+03,6.297607e+03
2.095281e+03,6.292408e+03
2.096245e+03,6.299953e+03
2.097209e+03,6.313771e+03
2.098174e+03,6.318881e+03
2.099138e+03,6.310236e+03
2.100102e+03,6.299651e+03
2.101066e+03,6.304786e+03
2.102031e+03,6.306869e+03
2.102995e+03,6.277694e+03
2.103959e+03,6.249616e+03
2.104923e+03,6.252009e+03
2.105887e+03,6.274104e+03
2.106852e+03,6.293350e+03
2.107816e+03,6.305731e+03
2.108780e+03,6.317209e+03
2.109744e+03,6.321102e+03
2.110708e+03,6.299924e+03
2.111673e+03,6.270622e+03
2.112637e+03,6.250053e+03
2.113601e+03,6.231974e+03
2.114565e+03,6.207618e+03
2.115530e+03,6.181937e+03
2.116494e+03,6.164135e+03
2.117458e+03,6.162523e+03
2.118422e+03,6.169703e+03
2.119387e+03,6.180235e+03
2.120351e+03,6.200479e+03
2.121315e+03,6.221466e+03
2.122279e+03,6.226225e+03
2.123244e+03,6.213406e+03
2.124208e+03,6.205132e+03
2.125172e+03,6.200655e+03
2.126136e+03,6.187016e+03
2.127101e+03,6.160572e+03
2.128065e+03,6.145903e+03
2.129029e+03,6.141282e+03
2.129993e+03,6.148273e+03
2.130958e+03,6.161169e+03
2.131922e+03,6.162122e+03
2.132886e+03,6.151925e+03
2.133850e+03,6.135930e+03
2.134814e+03,6.121083e+03
2.135779e+03,6.111255e+03
2.136743e+03,6.102313e+03
2.137707e+03,6.101246e+03
2.138671e+03,6.109964e+03
2.139636e+03,6.114664e+03
2.140600e+03,6.107693e+03
2.141564e+03,6.093853e+03
2.142528e+03,6.073993e+03
2.143493e+03,6.066805e+03
2.144457e+03,6.084507e+03
2.145421e+03,6.076882e+03
2.146385e+03,6.023561e+03
2.147350e+03,5.991847e+03
2.148314e+03,6.004952e+03
2.149278e+03,6.029307e+03
2.150242e+03,6.042852e+03
2.151207e+03,6.046146e+03
2.152171e+03,6.036208e+03
2.153135e+03,6.024968e+03
2.154099e+03,6.036940e+03
2.155063e+03,6.040861e+03
2.156028e+03,6.030547e+03
2.156992e+03,6.019464e+03
2.157956e+03,6.002329e+03
2.158920e+03,5.995548e+03
2.159885e+03,6.015417e+03
2.160849e+03,6.022979e+03
2.161813e+03,5.991673e+03
2.162777e+03,5.961171e+03
2.163741e+03,5.980134e+03
2.164706e+03,5.990513e+03
2.165670e+03,5.974096e+03
2.166634e+03,5.956534e+03
2.167598e+03,5.963042e+03
2.168563e+03,5.966851e+03
2.169527e+03,5.947092e+03
2.170491e+03,5.928105e+03
2.171455e+03,5.959640e+03
2.172420e+03,5.985731e+03
2.173384e+03,5.964674e+03
2.174348e+03,5.935659e+03
2.175312e+03,5.928009e+03
2.176277e+03,5.923267e+03
2.177241e+03,5.900003e+03
2.178205e+03,5.879556e+03
2.179169e+03,5.882054e+03
2.180134e+03,5.892950e+03
2.181098e+03,5.886860e+03
2.182062e+03,5.876939e+03
2.183026e+03,5.866594e+03
2.183990e+03,5.858195e+03
2.184955e+03,5.856613e+03
2.185919e+03,5.860167e+03
2.186883e+03,5.866007e+03
2.187847e+03,5.870128e+03
2.188812e+03,5.873267e+03
2.189776e+03,5.873741e+03
2.190740e+03,5.863629e+03
2.191704e+03,5.848758e+03
2.192668e+03,5.835069e+03
2.193633e+03,5.825766e+03
2.194597e+03,5.824632e+03
2.195561e+03,5.831541e+03
2.196525e+03,5.847243e+03
2.197490e+03,5.860255e+03
2.198454e+03,5.847795e+03
2.199418e+03,5.824263e+03
2.200382e+03,5.803474e+03
2.201347e+03,5.789690e+03
2.202311e+03,5.782242e+03
2.203275e+03,5.782058e+03
2.204239e+03,5.792936e+03
2.205204e+03,5.796507e+03
2.206168e+03,5.766029e+03
2.207132e+03,5.731947e+03
2.208096e+03,5.734699e+03
2.209061e+03,5.743876e+03
2.210025e+03,5.727306e+03
2.210989e+03,5.703838e+03
2.211953e+03,5.708157e+03
2.212917e+03,5.729610e+03
2.213882e+03,5.740389e+03
2.214846e+03,5.742687e+03
2.215810e+03,5.750318e+03
2.216774e+03,5.752392e+03
2.217739e+03,5.753472e+03
2.218703e+03,5.749109e+03
2.219667e+03,5.717335e+03
2.220631e+03,5.684706e+03
2.221595e+03,5.674961e+03
2.222560e+03,5.675978e+03
2.223524e+03,5.678881e+03
2.224488e+03,5.677853e+03
2.225452e+03,5.662924e+03
2.226417e+03,5.648748e+03
2.227381e+03,5.645554e+03
2.228345e+03,5.655106e+03
2.229309e+03,5.687744e+03
2.230274e+03,5.712416e+03
2.231238e+03,5.700928e+03
2.232202e+03,5.672704e+03
2.233166e+03,5.661575e+03
2.234131e+03,5.653512e+03
2.235095e+03,5.633093e+03
2.236059e+03,5.612007e+03
2.237023e+03,5.606643e+03
2.237988e+03,5.607219e+03
2.238952e+03,5.605151e+03
2.239916e+03,5.599561e+03
2.240880e+03,5.596467e+03
2.241844e+03,5.592272e+03
2.242809e+03,5.581892e+03
2.243773e+03,5.572458e+03
2.244737e+03,5.565305e+03
2.245701e+03,5.562706e+03
2.246666e+03,5.574456e+03
2.247630e+03,5.576338e+03
2.248594e+03,5.549073e+03
2.249558e+03,5.524069e+03
2.250522e+03,5.532505e+03
2.251487e+03,5.547669e+03
2.252451e+03,5.552758e+03
2.253415e+03,5.547454e+03
2.254379e+03,5.538006e+03
2.255344e+03,5.526192e+03
2.256308e+03,5.513848e+03
2.257272e+03,5.501604e+03
2.258236e+03,5.484779e+03
2.259201e+03,5.477353e+03
2.260165e+03,5.481411e+03
2.261129e+03,5.488701e+03
2.262093e+03,5.498510e+03
2.263058e+03,5.493837e+03
2.264022e+03,5.472209e+03
2.264986e+03,5.459892e+03
2.265950e+03,5.478250e+03
2.266915e+03,5.490689e+03
2.267879e+03,5.483436e+03
2.268843e+03,5.462505e+03
2.269807e+03,5.432788e+03
2.270771e+03,5.410029e+03
2.271736e+03,5.400588e+03
2.272700e+03,5.404452e+03
2.273664e+03,5.417178e+03
2.274628e+03,5.432282e+03
2.275593e+03,5.451486e+03
2.276557e+03,5.449961e+03
2.277521e+03,5.427775e+03
2.278485e+03,5.409680e+03
2.279449e+03,5.408517e+03
2.280414e+03,5.408314e+03
2.281378e+03,5.407233e+03
2.282342e+03,5.404475e+03
2.283306e+03,5.395555e+03
2.284271e+03,5.377972e+03
2.285235e+03,5.351992e+03
2.286199e+03,5.337499e+03
2.287163e+03,5.354088e+03
2.288128e+03,5.366126e+03
2.289092e+03,5.367952e+03
2.290056e+03,5.356089e+03
2.291020e+03,5.330510e+03
2.291985e+03,5.315021e+03
2.292949e+03,5.313779e+03
2.293913e+03,5.324915e+03
2.294877e+03,5.343286e+03
2.295842e+03,5.347642e+03
2.296806e+03,5.336474e+03
2.297770e+03,5.327961e+03
2.298734e+03,5.321667e+03
2.299698e+03,5.312083e+03
2.300663e+03,5.302001e+03
2.301627e+03,5.306490e+03
2.302591e+03,5.314567e+03
2.303555e+03,5.303663e+03
2.304520e+03,5.279075e+03
2.305484e+03,5.256063e+03
2.306448e+03,5.239848e+03
2.307412e+03,5.236322e+03
2.308376e+03,5.240424e+03
2.309341e+03,5.255907e+03
2.310305e+03,5.266008e+03
2.311269e+03,5.243817e+03
2.312233e+03,5.216072e+03
2.313198e+03,5.223823e+03
2.314162e+03,5.239763e+03
2.315126e+03,5.237486e+03
2.316090e+03,5.224938e+03
2.317055e+03,5.202738e+03
2.318019e+03,5.189560e+03
2.318983e+03,5.210524e+03
2.319947e+03,5.225710e+03
2.320912e+03,5.203571e+03
2.321876e+03,5.178761e+03
2.322840e+03,5.176966e+03
2.323804e+03,5.178835e+03
2.324769e+03,5.179788e+03
2.325733e+03,5.177853e+03
2.326697e+03,5.163363e+03
2.327661e+03,5.154061e+03
2.328625e+03,5.151682e+03
2.329590e+03,5.146060e+03
2.330554e+03,5.132836e+03
2.331518e+03,5.131729e+03
2.332482e+03,5.145888e+03
2.333447e+03,5.151642e+03
2.334411e+03,5.129876e+03
2.335375e+03,5.117499e+03
2.336339e+03,5.116375e+03
2.337303e+03,5.115852e+03
2.338268e+03,5.111193e+03
2.339232e+03,5.095421e+03
2.340196e+03,5.072212e+03
2.341160e+03,5.053722e+03
2.342125e+03,5.041446e+03
2.343089e+03,5.065249e+03
2.344053e+03,5.106032e+03
2.345017e+03,5.114826e+03
2.345982e+03,5.090136e+03
2.346946e+03,5.066164e+03
2.347910e+03,5.048586e+03
2.348874e+03,5.043383e+03
2.349839e+03,5.042241e+03
2.350803e+03,5.033411e+03
2.351767e+03,5.022584e+03
2.352731e+03,5.014823e+03
2.353696e+03,5.015509e+03
2.354660e+03,5.030943e+03
2.355624e+03,5.047795e+03
2.356588e+03,5.053452e+03
2.357552e+03,5.050303e+03
2.358517e+03,5.033596e+03
2.359481e+03,5.018619e+03
2.360445e+03,5.028745e+03
2.361409e+03,5.034188e+03
2.362374e+03,5.018970e+03
2.363338e+03,4.996941e+03
2.364302e+03,4.987782e+03
2.365266e+03,4.980234e+03
2.366230e+03,4.965327e+03
2.367195e+03,4.959163e+03
2.368159e+03,4.980209e+03
2.369123e+03,4.988392e+03
2.370087e+03,4.982584e+03
2.371052e+03,4.971886e+03
2.372016e+03,4.955162e+03
2.372980e+03,4.955536e+03
2.373944e+03,4.970654e+03
2.374909e+03,4.979447e+03
2.375873e+03,4.975843e+03
2.376837e+03,4.971428e+03
2.377801e+03,4.965372e+03
2.378766e+03,4.943208e+03
2.379730e+03,4.906081e+03
2.380694e+03,4.906109e+03
2.381658e+03,4.931189e+03
2.382623e+03,4.942099e+03
2.383587e+03,4.938610e+03
2.384551e+03,4.925373e+03
2.385515e+03,4.908517e+03
2.386479e+03,4.909866e+03
2.387444e+03,4.915111e+03
2.388408e+03,4.900243e+03
2.389372e+03,4.881786e+03
2.390336e+03,4.871941e+03
2.391301e+03,4.867244e+03
2.392265e+03,4.865422e+03
2.393229e+03,4.862882e+03
2.394193e+03,4.858077e+03
2.395157e+03,4.855279e+03
2.396122e+03,4.863282e+03
2.397086e+03,4.862353e+03
2.398050e+03,4.846194e+03
2.399014e+03,4.836750e+03
2.399979e+03,4.843705e+03
2.400943e+03,4.844487e+03
2.401907e+03,4.833559e+03
2.402871e+03,4.824235e+03
2.403836e+03,4.821071e+03
2.404800e+03,4.813356e+03
2.405764e+03,4.800210e+03
2.406728e+03,4.808260e+03
2.407693e+03,4.829874e+03
2.408657e+03,4.819337e+03
2.409621e+03,4.787091e+03
2.410585e+03,4.775304e+03
2.411550e+03,4.778171e+03
2.412514e+03,4.772155e+03
2.413478e+03,4.760935e+03
2.414442e+03,4.753984e+03
2.415406e+03,4.752880e+03
2.416371e+03,4.759239e+03
2.417335e+03,4.767847e+03
2.418299e+03,4.771559e+03
2.419263e+03,4.770042e+03
2.420228e+03,4.760888e+03
2.421192e+03,4.751640e+03
2.422156e+03,4.753569e+03
2.423120e+03,4.756073e+03
2.424084e+03,4.753329e+03
2.425049e+03,4.739711e+03
2.426013e+03,4.711325e+03
2.426977e+03,4.694553e+03
2.427941e+03,4.695149e+03
2.428906e+03,4.700107e+03
2.429870e+03,4.702983e+03
2.430834e+03,4.703376e+03
2.431798e+03,4.703965e+03
2.432763e+03,4.714987e+03
2.433727e+03,4.732718e+03
2.434691e+03,4.726276e+03
2.435655e+03,4.705605e+03
2.436620e+03,4.691709e+03
2.437584e+03,4.683738e+03
2.438548e+03,4.683632e+03
2.439512e+03,4.681059e+03
2.440477e+03,4.660534e+03
2.441441e+03,4.636604e+03
2.442405e+03,4.639126e+03
2.443369e+03,4.645836e+03
2.444333e+03,4.648162e+03
2.445298e+03,4.648797e+03
2.446262e+03,4.650486e+03
2.447226e+03,4.641658e+03
2.448190e+03,4.622463e+03
2.449155e+03,4.612053e+03
2.450119e+03,4.637048e+03
2.451083e+03,4.638484e+03
2.452047e+03,4.617898e+03
2.453011e+03,4.609970e+03
2.453976e+03,4.625858e+03
2.454940e+03,4.622573e+03
2.455904e+03,4.608407e+03
2.456868e+03,4.593791e+03
2.457833e+03,4.578756e+03
2.458797e+03,4.569022e+03
2.459761e+03,4.565847e+03
2.460725e+03,4.568404e+03
2.461690e+03,4.572414e+03
2.462654e+03,4.574311e+03
2.463618e+03,4.573732e+03
2.464582e+03,4.574315e+03
2.465547e+03,4.572628e+03
2.466511e+03,4.553323e+03
2.467475e+03,4.534947e+03
2.468439e+03,4.521326e+03
2.469404e+03,4.511292e+03
2.470368e+03,4.509784e+03
2.471332e+03,4.520518e+03
2.472296e+03,4.538148e+03
2.473260e+03,4.537814e+03
2.474225e+03,4.512430e+03
2.475189e+03,4.500784e+03
2.476153e+03,4.502954e+03
2.477117e+03,4.510850e+03
2.478082e+03,4.519987e+03
2.479046e+03,4.530294e+03
2.480010e+03,4.534304e+03
2.480974e+03,4.521310e+03
2.481938e+03,4.504524e+03
2.482903e+03,4.502484e+03
2.483867e+03,4.499640e+03
2.484831e+03,4.484853e+03
2.485795e+03,4.471704e+03
2.486760e+03,4.483890e+03
2.487724e+03,4.480293e+03
2.488688e+03,4.455811e+03
2.489652e+03,4.439700e+03
2.490617e+03,4.447100e+03
2.491581e+03,4.452053e+03
2.492545e+03,4.456275e+03
2.493509e+03,4.456628e+03
2.494474e+03,4.450396e+03
2.495438e+03,4.449370e+03
2.496402e+03,4.449478e+03
2.497366e+03,4.440281e+03
2.498331e+03,4.428123e+03
2.499295e+03,4.426948e+03
2.500259e+03,4.426502e+03
2.501223e+03,4.422763e+03
2.502188e+03,4.420287e+03
2.503152e+03,4.428112e+03
2.504116e+03,4.427109e+03
2.505080e+03,4.411896e+03
2.506044e+03,4.396344e+03
2.507009e+03,4.384820e+03
2.507973e+03,4.374373e+03
2.508937e+03,4.367900e+03
2.509901e+03,4.378299e+03
2.510865e+03,4.409299e+03
2.511830e+03,4.405215e+03
2.512794e+03,4.377414e+03
2.513758e+03,4.370714e+03
2.514722e+03,4.379893e+03
2.515687e+03,4.380813e+03
2.516651e+03,4.370414e+03
2.517615e+03,4.340889e+03
2.518579e+03,4.316399e+03
2.519544e+03,4.341751e+03
2.520508e+03,4.358071e+03
2.521472e+03,4.343804e+03
2.522436e+03,4.329117e+03
2.523401e+03,4.343419e+03
2.524365e+03,4.336973e+03
2.525329e+03,4.305143e+03
2.526293e+03,4.296437e+03
2.527258e+03,4.326788e+03
2.528222e+03,4.345432e+03
2.529186e+03,4.351497e+03
2.530150e+03,4.343697e+03
2.531115e+03,4.329587e+03
2.532079e+03,4.320046e+03
2.533043e+03,4.314527e+03
2.534007e+03,4.310446e+03
2.534971e+03,4.302967e+03
2.535936e+03,4.290547e+03
2.536900e+03,4.280169e+03
2.537864e+03,4.273805e+03
2.538828e+03,4.269854e+03
2.539792e+03,4.261228e+03
2.540757e+03,4.249058e+03
2.541721e+03,4.233960e+03
2.542685e+03,4.238770e+03
2.543649e+03,4.263951e+03
2.544614e+03,4.272669e+03
2.545578e+03,4.266979e+03
2.546542e+03,4.271525e+03
2.547506e+03,4.280864e+03
2.548471e+03,4.276726e+03
2.549435e+03,4.264454e+03
2.550399e+03,4.246200e+03
2.551363e+03,4.231783e+03
2.552328e+03,4.236608e+03
2.553292e+03,4.236678e+03
2.554256e+03,4.221278e+03
2.555220e+03,4.216440e+03
2.556185e+03,4.225558e+03
2.557149e+03,4.230038e+03
2.558113e+03,4.226415e+03
2.559077e+03,4.228464e+03
2.560042e+03,4.231652e+03
2.561006e+03,4.229329e+03
2.561970e+03,4.225514e+03
2.562934e+03,4.212459e+03
2.563898e+03,4.197084e+03
2.564863e+03,4.183410e+03
2.565827e+03,4.172613e+03
2.566791e+03,4.180834e+03
2.567755e+03,4.181487e+03
2.568719e+03,4.161345e+03
2.569684e+03,4.155221e+03
2.570648e+03,4.189692e+03
2.571612e+03,4.191855e+03
2.572576e+03,4.171492e+03
2.573541e+03,4.171292e+03
2.574505e+03,4.187212e+03
2.575469e+03,4.195091e+03
2.576433e+03,4.196299e+03
2.577398e+03,4.200588e+03
2.578362e+03,4.199675e+03
2.579326e+03,4.172767e+03
2.580290e+03,4.151823e+03
2.581255e+03,4.148476e+03
2.582219e+03,4.145540e+03
2.583183e+03,4.131692e+03
2.584147e+03,4.121817e+03
2.585112e+03,4.121364e+03
2.586076e+03,4.112477e+03
2.587040e+03,4.092038e+03
2.588004e+03,4.093500e+03
2.588969e+03,4.106171e+03
2.589933e+03,4.114851e+03
2.590897e+03,4.119656e+03
2.591861e+03,4.119792e+03
2.592825e+03,4.116280e+03
2.593790e+03,4.106469e+03
2.594754e+03,4.098186e+03
2.595718e+03,4.098686e+03
2.596682e+03,4.097374e+03
2.597646e+03,4.090069e+03
2.598611e+03,4.081872e+03
2.599575e+03,4.077141e+03
2.600539e+03,4.069669e+03
2.601503e+03,4.060040e+03
2.602468e+03,4.059055e+03
2.603432e+03,4.060891e+03
2.604396e+03,4.060417e+03
2.605360e+03,4.059331e+03
2.606325e+03,4.055957e+03
2.607289e+03,4.044869e+03
2.608253e+03,4.021146e+03
2.609217e+03,4.020023e+03
2.610182e+03,4.064172e+03
2.611146e+03,4.086301e+03
2.612110e+03,4.085882e+03
2.613074e+03,4.076210e+03
2.614039e+03,4.062235e+03
2.615003e+03,4.040743e+03
2.615967e+03,4.018470e+03
2.616931e+03,4.016483e+03
2.617896e+03,4.023619e+03
2.618860e+03,4.024753e+03
2.619824e+03,4.028989e+03
2.620788e+03,4.039169e+03
2.621752e+03,4.040475e+03
2.622717e+03,4.024469e+03
2.623681e+03,4.005217e+03
2.624645e+03,3.984642e+03
2.625609e+03,3.985714e+03
2.626573e+03,4.003520e+03
2.627538e+03,3.996714e+03
2.628502e+03,3.985510e+03
2.629466e+03,3.996287e+03
2.630430e+03,4.013922e+03
2.631395e+03,4.019137e+03
2.632359e+03,4.020419e+03
2.633323e+03,4.022069e+03
2.634287e+03,4.015107e+03
2.635252e+03,4.000091e+03
2.636216e+03,3.989763e+03
2.637180e+03,3.984053e+03
2.638144e+03,3.983607e+03
2.639109e+03,3.981605e+03
2.640073e+03,3.956637e+03
2.641037e+03,3.936003e+03
2.642001e+03,3.962313e+03
2.642966e+03,3.980077e+03
2.643930e+03,3.954113e+03
2.644894e+03,3.935014e+03
2.645858e+03,3.974279e+03
2.646823e+03,3.984194e+03
2.647787e+03,3.960266e+03
2.648751e+03,3.932829e+03
2.649715e+03,3.907853e+03
2.650679e+03,3.905470e+03
2.651644e+03,3.914979e+03
2.652608e+03,3.919434e+03
2.653572e+03,3.918702e+03
2.654536e+03,3.911370e+03
2.655500e+03,3.905919e+03
2.656465e+03,3.905680e+03
2.657429e+03,3.906720e+03
2.658393e+03,3.904862e+03
2.659357e+03,3.901030e+03
2.660322e+03,3.899952e+03
2.661286e+03,3.895387e+03
2.662250e+03,3.889182e+03
2.663214e+03,3.891481e+03
2.664179e+03,3.891687e+03
2.665143e+03,3.873312e+03
2.666107e+03,3.858594e+03
2.667071e+03,3.860329e+03
2.668036e+03,3.861263e+03
2.669000e+03,3.845027e+03
2.669964e+03,3.830889e+03
2.670928e+03,3.820768e+03
2.671893e+03,3.832966e+03
2.672857e+03,3.860067e+03
2.673821e+03,3.849216e+03
2.674785e+03,3.825830e+03
2.675750e+03,3.820326e+03
2.676714e+03,3.827661e+03
2.677678e+03,3.850126e+03
2.678642e+03,3.861506e+03
2.679606e+03,3.856460e+03
2.680571e+03,3.854766e+03
2.681535e+03,3.858883e+03
2.682499e+03,3.862867e+03
2.683463e+03,3.858819e+03
2.684427e+03,3.828661e+03
2.685392e+03,3.796268e+03
2.686356e+03,3.808638e+03
2.687320e+03,3.825522e+03
2.688284e+03,3.828531e+03
2.689249e+03,3.812737e+03
2.690213e+03,3.777515e+03
2.691177e+03,3.764981e+03
2.692141e+03,3.796633e+03
2.693106e+03,3.796067e+03
2.694070e+03,3.777591e+03
2.695034e+03,3.772394e+03
2.695998e+03,3.776211e+03
2.696963e+03,3.783995e+03
2.697927e+03,3.794243e+03
2.698891e+03,3.803063e+03
2.699855e+03,3.804385e+03
2.700820e+03,3.797334e+03
2.701784e+03,3.790250e+03
2.702748e+03,3.781094e+03
2.703712e+03,3.766220e+03
2.704677e+03,3.748606e+03
2.705641e+03,3.742250e+03
2.706605e+03,3.747085e+03
2.707569e+03,3.755693e+03
2.708533e+03,3.771235e+03
2.709498e+03,3.795557e+03
2.710462e+03,3.801744e+03
2.711426e+03,3.773700e+03
2.712390e+03,3.759628e+03
2.713354e+03,3.756422e+03
2.714319e+03,3.748741e+03
2.715283e+03,3.738150e+03
2.716247e+03,3.731222e+03
2.717211e+03,3.731815e+03
2.718176e+03,3.743782e+03
2.719140e+03,3.751766e+03
2.720104e+03,3.741644e+03
2.721068e+03,3.733757e+03
2.722033e+03,3.730969e+03
2.722997e+03,3.731752e+03
2.723961e+03,3.732332e+03
2.724925e+03,3.723308e+03
2.725890e+03,3.714883e+03
2.726854e+03,3.724087e+03
2.727818e+03,3.730276e+03
2.728782e+03,3.716888e+03
2.729747e+03,3.701309e+03
2.730711e+03,3.687905e+03
2.731675e+03,3.705834e+03
2.732639e+03,3.743690e+03
2.733604e+03,3.732808e+03
2.734568e+03,3.692753e+03
2.735532e+03,3.673679e+03
2.736496e+03,3.670344e+03
2.737460e+03,3.682429e+03
2.738425e+03,3.687883e+03
2.739389e+03,3.666242e+03
2.740353e+03,3.667811e+03
2.741317e+03,3.699603e+03
2.742281e+03,3.707061e+03
2.743246e+03,3.696205e+03
2.744210e+03,3.680745e+03
2.745174e+03,3.664463e+03
2.746138e+03,3.662985e+03
2.747103e+03,3.660306e+03
2.748067e+03,3.651215e+03
2.749031e+03,3.650691e+03
2.749995e+03,3.670668e+03
2.750960e+03,3.670033e+03
2.751924e+03,3.657152e+03
2.752888e+03,3.659271e+03
2.753852e+03,3.666814e+03
2.754817e+03,3.654383e+03
2.755781e+03,3.645581e+03
2.756745e+03,3.652927e+03
2.757709e+03,3.667561e+03
2.758674e+03,3.683053e+03
2.759638e+03,3.668815e+03
2.760602e+03,3.625229e+03
2.761566e+03,3.620027e+03
2.762531e+03,3.635160e+03
2.763495e+03,3.631472e+03
2.764459e+03,3.622526e+03
2.765423e+03,3.628314e+03
2.766387e+03,3.628701e+03
2.767352e+03,3.621913e+03
2.768316e+03,3.618063e+03
2.769280e+03,3.618350e+03
2.770244e+03,3.596742e+03
2.771208e+03,3.571840e+03
2.772173e+03,3.576113e+03
2.773137e+03,3.588805e+03
2.774101e+03,3.597576e+03
2.775065e+03,3.597082e+03
2.776030e+03,3.579448e+03
2.776994e+03,3.557203e+03
2.777958e+03,3.533667e+03
2.778922e+03,3.545578e+03
2.779887e+03,3.576961e+03
2.780851e+03,3.576560e+03
2.781815e+03,3.563333e+03
2.782779e+03,3.554733e+03
2.783744e+03,3.557222e+03
2.784708e+03,3.575983e+03
2.785672e+03,3.582748e+03
2.786636e+03,3.575074e+03
2.787601e+03,3.561287e+03
2.788565e+03,3.551325e+03
2.789529e+03,3.573836e+03
2.790493e+03,3.595422e+03
2.791458e+03,3.578348e+03
2.792422e+03,3.557365e+03
2.793386e+03,3.545233e+03
2.794350e+03,3.543654e+03
2.795314e+03,3.550387e+03
2.796279e+03,3.540485e+03
2.797243e+03,3.530893e+03
2.798207e+03,3.563159e+03
2.799171e+03,3.591508e+03
2.800135e+03,3.534506e+03
2.801100e+03,3.495768e+03
2.802064e+03,3.502168e+03
2.803028e+03,3.530329e+03
2.803992e+03,3.566365e+03
2.804957e+03,3.579626e+03
2.805921e+03,3.570648e+03
2.806885e+03,3.516989e+03
2.807849e+03,3.482588e+03
2.808814e+03,3.497126e+03
2.809778e+03,3.513255e+03
2.810742e+03,3.511039e+03
2.811706e+03,3.500593e+03
2.812671e+03,3.487799e+03
2.813635e+03,3.508709e+03
2.814599e+03,3.535529e+03
2.815563e+03,3.504367e+03
2.816528e+03,3.478901e+03
2.817492e+03,3.491464e+03
2.818456e+03,3.502307e+03
2.819420e+03,3.502062e+03
2.820385e+03,3.491042e+03
2.821349e+03,3.478843e+03
2.822313e+03,3.488373e+03
2.823277e+03,3.499435e+03
2.824241e+03,3.491702e+03
2.825206e+03,3.489314e+03
2.826170e+03,3.513788e+03
2.827134e+03,3.526112e+03
2.828098e+03,3.519512e+03
2.829063e+03,3.512496e+03
2.830027e+03,3.498933e+03
2.830991e+03,3.454223e+03
2.831955e+03,3.426390e+03
2.832919e+03,3.467173e+03
2.833884e+03,3.482969e+03
2.834848e+03,3.461582e+03
2.835812e+03,3.457462e+03
2.836776e+03,3.473636e+03
2.837741e+03,3.462399e+03
2.838705e+03,3.444893e+03
2.839669e+03,3.445871e+03
2.840633e+03,3.443316e+03
2.841598e+03,3.424847e+03
2.842562e+03,3.414235e+03
2.843526e+03,3.421812e+03
2.844490e+03,3.437562e+03
2.845455e+03,3.449800e+03
2.846419e+03,3.442170e+03
2.847383e+03,3.428505e+03
2.848347e+03,3.414889e+03
2.849312e+03,3.419197e+03
2.850276e+03,3.442510e+03
2.851240e+03,3.441447e+03
2.852204e+03,3.416809e+03
2.853168e+03,3.398632e+03
2.854133e+03,3.390522e+03
2.855097e+03,3.401704e+03
2.856061e+03,3.420785e+03
2.857025e+03,3.438470e+03
2.857990e+03,3.442562e+03
2.858954e+03,3.430717e+03
2.859918e+03,3.394213e+03
2.860882e+03,3.355570e+03
2.861846e+03,3.346283e+03
2.862811e+03,3.356722e+03
2.863775e+03,3.384527e+03
2.864739e+03,3.404514e+03
2.865703e+03,3.409451e+03
2.866668e+03,3.422946e+03
2.867632e+03,3.436559e+03
2.868596e+03,3.422562e+03
2.869560e+03,3.394533e+03
2.870525e+03,3.360517e+03
2.871489e+03,3.345206e+03
2.872453e+03,3.352001e+03
2.873417e+03,3.367573e+03
2.874382e+03,3.384656e+03
2.875346e+03,3.401749e+03
2.876310e+03,3.409103e+03
2.877274e+03,3.373493e+03
2.878239e+03,3.346393e+03
2.879203e+03,3.343995e+03
2.880167e+03,3.346089e+03
2.881131e+03,3.351098e+03
2.882095e+03,3.367980e+03
2.883060e+03,3.383809e+03
2.884024e+03,3.374772e+03
2.884988e+03,3.359444e+03
2.885952e+03,3.349120e+03
2.886917e+03,3.363142e+03
2.887881e+03,3.410755e+03
2.888845e+03,3.396579e+03
2.889809e+03,3.352823e+03
2.890773e+03,3.358151e+03
2.891738e+03,3.366035e+03
2.892702e+03,3.312062e+03
2.893666e+03,3.297493e+03
2.894630e+03,3.337291e+03
2.895595e+03,3.346282e+03
2.896559e+03,3.325642e+03
2.897523e+03,3.313943e+03
2.898487e+03,3.312280e+03
2.899452e+03,3.327792e+03
2.900416e+03,3.335550e+03
2.901380e+03,3.329495e+03
2.902344e+03,3.321821e+03
2.903309e+03,3.316446e+03
2.904273e+03,3.340981e+03
2.905237e+03,3.360457e+03
2.906201e+03,3.335388e+03
2.907166e+03,3.307932e+03
2.908130e+03,3.296740e+03
2.909094e+03,3.289388e+03
2.910058e+03,3.285820e+03
2.911022e+03,3.307813e+03
2.911987e+03,3.331507e+03
2.912951e+03,3.326992e+03
2.913915e+03,3.316214e+03
2.914879e+03,3.314268e+03
2.915844e+03,3.298360e+03
2.916808e+03,3.275112e+03
2.917772e+03,3.289594e+03
2.918736e+03,3.317366e+03
2.919700e+03,3.318858e+03
2.920665e+03,3.308587e+03
2.921629e+03,3.289589e+03
2.922593e+03,3.273607e+03
2.923557e+03,3.263177e+03
2.924522e+03,3.258994e+03
2.925486e+03,3.255331e+03
2.926450e+03,3.229819e+03
2.927414e+03,3.220647e+03
2.928379e+03,3.253323e+03
2.929343e+03,3.263635e+03
2.930307e+03,3.251212e+03
2.931271e+03,3.265009e+03
2.932236e+03,3.285811e+03
2.933200e+03,3.254841e+03
2.934164e+03,3.239863e+03
2.935128e+03,3.266780e+03
2.936093e+03,3.264770e+03
2.937057e+03,3.233395e+03
2.938021e+03,3.196852e+03
2.938985e+03,3.179876e+03
2.939949e+03,3.239530e+03
2.940914e+03,3.269406e+03
2.941878e+03,3.237277e+03
2.942842e+03,3.228635e+03
2.943806e+03,3.251946e+03
2.944771e+03,3.249167e+03
2.945735e+03,3.236644e+03
2.946699e+03,3.238758e+03
2.947663e+03,3.235262e+03
2.948627e+03,3.215395e+03
2.949592e+03,3.227229e+03
2.950556e+03,3.274947e+03
2.951520e+03,3.270165e+03
2.952484e+03,3.247913e+03
2.953449e+03,3.250767e+03
2.954413e+03,3.253928e+03
2.955377e+03,3.250260e+03
2.956341e+03,3.229175e+03
2.957306e+03,3.199596e+03
2.958270e+03,3.230775e+03
2.959234e+03,3.255054e+03
2.960198e+03,3.224009e+03
2.961163e+03,3.201429e+03
2.962127e+03,3.208831e+03
2.963091e+03,3.229765e+03
2.964055e+03,3.251450e+03
2.965020e+03,3.263152e+03
2.965984e+03,3.256560e+03
2.966948e+03,3.221272e+03
2.967912e+03,3.178354e+03
2.968876e+03,3.127833e+03
2.969841e+03,3.141808e+03
2.970805e+03,3.187800e+03
2.971769e+03,3.209065e+03
2.972733e+03,3.199337e+03
2.973698e+03,3.148709e+03
2.974662e+03,3.136919e+03
2.975626e+03,3.187439e+03
2.976590e+03,3.185295e+03
2.977554e+03,3.166073e+03
2.978519e+03,3.177556e+03
2.979483e+03,3.183012e+03
2.980447e+03,3.156559e+03
2.981411e+03,3.147906e+03
2.982376e+03,3.165016e+03
2.983340e+03,3.193094e+03
2.984304e+03,3.203596e+03
2.985268e+03,3.166809e+03
2.986233e+03,3.142934e+03
2.987197e+03,3.173229e+03
2.988161e+03,3.182628e+03
2.989125e+03,3.174997e+03
2.990090e+03,3.167551e+03
2.991054e+03,3.169796e+03
2.992018e+03,3.190431e+03
2.992982e+03,3.198532e+03
2.993947e+03,3.183562e+03
2.994911e+03,3.192365e+03
2.995875e+03,3.203538e+03
2.996839e+03,3.173474e+03
2.997803e+03,3.135928e+03
2.998768e+03,3.115854e+03
2.999732e+03,3.106867e+03
3.000696e+03,3.111776e+03
3.001660e+03,3.115147e+03
3.002625e+03,3.124999e+03
3.003589e+03,3.157411e+03
3.004553e+03,3.153952e+03
3.005517e+03,3.086663e+03
3.006481e+03,3.082858e+03
3.007446e+03,3.125434e+03
3.008410e+03,3.111239e+03
3.009374e+03,3.101744e+03
3.010338e+03,3.138833e+03
3.011303e+03,3.169110e+03
3.012267e+03,3.169264e+03
3.013231e+03,3.147975e+03
3.014195e+03,3.119009e+03
3.015160e+03,3.098618e+03
3.016124e+03,3.109446e+03
3.017088e+03,3.152492e+03
3.018052e+03,3.157542e+03
3.019017e+03,3.120934e+03
3.019981e+03,3.152091e+03
3.020945e+03,3.169957e+03
3.021909e+03,3.094760e+03
3.022874e+03,3.051655e+03
3.023838e+03,3.060743e+03
3.024802e+03,3.064456e+03
3.025766e+03,3.065222e+03
3.026730e+03,3.094865e+03
3.027695e+03,3.101965e+03
3.028659e+03,3.066076e+03
3.029623e+03,3.041071e+03
3.030587e+03,3.034917e+03
3.031552e+03,3.055123e+03
3.032516e+03,3.078002e+03
3.033480e+03,3.082529e+03
3.034444e+03,3.092406e+03
3.035408e+03,3.110727e+03
3.036373e+03,3.101968e+03
3.037337e+03,3.076985e+03
3.038301e+03,3.085083e+03
3.039265e+03,3.084853e+03
3.040230e+03,3.029414e+03
3.041194e+03,3.030576e+03
3.042158e+03,3.075880e+03
3.043122e+03,3.106314e+03
3.044087e+03,3.118686e+03
3.045051e+03,3.102284e+03
3.046015e+03,3.076483e+03
3.046979e+03,3.047159e+03
3.047944e+03,3.017228e+03
3.048908e+03,3.006363e+03
3.049872e+03,3.039294e+03
3.050836e+03,3.084394e+03
3.051801e+03,3.125763e+03
3.052765e+03,3.126518e+03
3.053729e+03,3.086159e+03
3.054693e+03,3.059638e+03
3.055657e+03,3.043030e+03
3.056622e+03,3.025797e+03
3.057586e+03,3.039668e+03
3.058550e+03,3.093910e+03
3.059514e+03,3.080067e+03
3.060479e+03,3.043085e+03
3.061443e+03,3.062073e+03
3.062407e+03,3.066151e+03
3.063371e+03,3.037988e+03
3.064335e+03,3.028858e+03
3.065300e+03,3.041052e+03
3.066264e+03,3.055916e+03
3.067228e+03,3.068161e+03
3.068192e+03,3.070186e+03
3.069157e+03,3.080730e+03
3.070121e+03,3.092858e+03
3.071085e+03,3.062000e+03
3.072049e+03,3.023675e+03
3.073014e+03,3.038585e+03
3.073978e+03,3.050502e+03
3.074942e+03,3.047274e+03
3.075906e+03,3.051179e+03
3.076871e+03,3.056071e+03
3.077835e+03,3.049434e+03
3.078799e+03,3.036278e+03
3.079763e+03,3.015087e+03
3.080728e+03,3.006712e+03
3.081692e+03,3.019662e+03
3.082656e+03,3.072638e+03
3.083620e+03,3.102641e+03
3.084584e+03,3.079710e+03
3.085549e+03,3.057175e+03
3.086513e+03,3.050780e+03
3.087477e+03,3.048917e+03
3.088441e+03,3.053887e+03
3.089406e+03,3.084277e+03
3.090370e+03,3.090284e+03
3.091334e+03,3.067757e+03
3.092298e+03,3.011807e+03
3.093262e+03,2.959595e+03
3.094227e+03,3.004708e+03
3.095191e+03,3.042545e+03
3.096155e+03,3.036982e+03
3.097119e+03,3.046625e+03
3.098084e+03,3.059284e+03
3.099048e+03,3.034260e+03
3.100012e+03,3.006477e+03
3.100976e+03,2.999898e+03
3.101941e+03,3.029949e+03
3.102905e+03,3.072529e+03
3.103869e+03,2.986039e+03
3.104833e+03,2.911738e+03
3.105798e+03,2.939007e+03
3.106762e+03,2.971546e+03
3.107726e+03,2.985822e+03
3.108690e+03,2.990581e+03
3.109655e+03,2.979309e+03
3.110619e+03,2.921606e+03
3.111583e+03,2.920438e+03
3.112547e+03,2.976850e+03
3.113511e+03,2.978745e+03
3.114476e+03,2.955698e+03
3.115440e+03,2.997629e+03
3.116404e+03,3.015528e+03
3.117368e+03,2.975077e+03
3.118333e+03,2.950746e+03
3.119297e+03,2.944959e+03
3.120261e+03,2.954698e+03
3.121225e+03,2.975640e+03
3.122189e+03,3.005079e+03
3.123154e+03,2.997434e+03
3.124118e+03,2.960306e+03
3.125082e+03,2.952039e+03
3.126046e+03,2.957540e+03
3.127011e+03,2.965229e+03
3.127975e+03,2.977349e+03
3.128939e+03,2.988458e+03
3.129903e+03,2.962251e+03
3.130868e+03,2.945725e+03
3.131832e+03,3.007123e+03
3.132796e+03,3.000035e+03
3.133760e+03,2.936570e+03
3.134725e+03,2.933446e+03
3.135689e+03,2.959403e+03
3.136653e+03,2.980870e+03
3.137617e+03,2.993811e+03
3.138582e+03,2.998370e+03
3.139546e+03,3.015188e+03
3.140510e+03,3.024075e+03
3.141474e+03,3.011315e+03
3.142438e+03,2.989981e+03
3.143403e+03,2.966891e+03
3.144367e+03,2.958284e+03
3.145331e+03,2.957245e+03
3.146295e+03,2.949664e+03
3.147260e+03,2.959419e+03
3.148224e+03,2.986916e+03
3.149188e+03,2.996153e+03
3.150152e+03,2.994162e+03
3.151116e+03,2.989644e+03
3.152081e+03,2.993027e+03
3.153045e+03,3.002499e+03
3.154009e+03,2.977789e+03
3.154973e+03,2.940884e+03
3.155938e+03,2.929972e+03
3.156902e+03,2.929410e+03
3.157866e+03,2.928677e+03
3.158830e+03,2.936880e+03
3.159795e+03,2.959433e+03
3.160759e+03,3.011517e+03
3.161723e+03,3.023183e+03
3.162687e+03,2.916242e+03
3.163652e+03,2.913747e+03
3.164616e+03,2.970323e+03
3.165580e+03,2.978446e+03
3.166544e+03,2.979418e+03
3.167509e+03,2.994837e+03
3.168473e+03,3.006078e+03
3.169437e+03,3.008851e+03
3.170401e+03,2.989014e+03
3.171365e+03,2.970693e+03
3.172330e+03,2.966724e+03
3.173294e+03,2.963198e+03
3.174258e+03,2.958866e+03
3.175222e+03,2.951843e+03
3.176187e+03,2.947169e+03
3.177151e+03,2.955736e+03
3.178115e+03,2.951899e+03
3.179079e+03,2.943892e+03
3.180043e+03,2.952807e+03
3.181008e+03,2.982213e+03
3.181972e+03,3.032447e+03
3.182936e+03,3.024636e+03
3.183900e+03,2.978208e+03
3.184865e+03,2.965373e+03
3.185829e+03,2.961100e+03
3.186793e+03,2.971959e+03
3.187757e+03,2.947042e+03
3.188722e+03,2.912300e+03
3.189686e+03,2.924071e+03
3.190650e+03,2.954810e+03
3.191614e+03,2.986728e+03
3.192579e+03,3.004019e+03
3.193543e+03,3.006453e+03
3.194507e+03,2.985379e+03
3.195471e+03,2.979242e+03
3.196436e+03,3.002318e+03
3.197400e+03,2.973934e+03
3.198364e+03,2.924831e+03
3.199328e+03,2.915792e+03
3.200292e+03,2.910849e+03
3.201257e+03,0.000000e+00
3.202221e+03,0.000000e+00
3.203185e+03,0.000000e+00
3.204149e+03,0.000000e+00
3.205114e+03,0.000000e+00
3.206078e+03,0.000000e+00
3.207042e+03,0.000000e+00
3.208006e+03,0.000000e+00
3.208970e+03,0.000000e+00
3.209935e+03,0.000000e+00
3.210899e+03,0.000000e+00
3.211863e+03,0.000000e+00
3.212827e+03,0.000000e+00
3.213792e+03,0.000000e+00
3.214756e+03,0.000000e+00
3.215720e+03,0.000000e+00
3.216684e+03,0.000000e+00
3.217649e+03,0.000000e+00
3.218613e+03,0.000000e+00
3.219577e+03,0.000000e+00
3.220541e+03,0.000000e+00
3.221506e+03,0.000000e+00
3.222470e+03,0.000000e+00
3.223434e+03,0.000000e+00
3.224398e+03,0.000000e+00
3.225363e+03,0.000000e+00
3.226327e+03,0.000000e+00
3.227291e+03,0.000000e+00
3.228255e+03,0.000000e+00
3.229219e+03,0.000000e+00
3.230184e+03,0.000000e+00
3.231148e+03,0.000000e+00
3.232112e+03,0.000000e+00
3.233076e+03,0.000000e+00
3.234041e+03,0.000000e+00
3.235005e+03,0.000000e+00
3.235969e+03,0.000000e+00
3.236933e+03,0.000000e+00
3.237897e+03,0.000000e+00
3.238862e+03,0.000000e+00
3.239826e+03,0.000000e+00
3.240790e+03,0.000000e+00
3.241754e+03,0.000000e+00
3.242719e+03,0.000000e+00
3.243683e+03,0.000000e+00
3.244647e+03,0.000000e+00
3.245611e+03,0.000000e+00
3.246576e+03,0.000000e+00
3.247540e+03,0.000000e+00
3.248504e+03,0.000000e+00
3.249468e+03,0.000000e+00
3.250433e+03,0.000000e+00
3.251397e+03,0.000000e+00
3.252361e+03,0.000000e+00
3.253325e+03,0.000000e+00
3.254290e+03,0.000000e+00
3.255254e+03,0.000000e+00
3.256218e+03,0.000000e+00
3.257182e+03,0.000000e+00
3.258146e+03,0.000000e+00
3.259111e+03,0.000000e+00
3.260075e+03,0.000000e+00
3.261039e+03,0.000000e+00
3.262003e+03,0.000000e+00
3.262968e+03,0.000000e+00
3.263932e+03,0.000000e+00
3.264896e+03,0.000000e+00
3.265860e+03,0.000000e+00
3.266824e+03,0.000000e+00
3.267789e+03,0.000000e+00
3.268753e+03,0.000000e+00
3.269717e+03,0.000000e+00
3.270681e+03,0.000000e+00
3.271646e+03,0.000000e+00
3.272610e+03,0.000000e+00
3.273574e+03,0.000000e+00
3.274538e+03,0.000000e+00
3.275503e+03,0.000000e+00
3.276467e+03,0.000000e+00
3.277431e+03,0.000000e+00
3.278395e+03,0.000000e+00
3.279360e+03,0.000000e+00
3.280324e+03,0.000000e+00
3.281288e+03,0.000000e+00
3.282252e+03,0.000000e+00
3.283217e+03,0.000000e+00
3.284181e+03,0.000000e+00
3.285145e+03,0.000000e+00
3.286109e+03,0.000000e+00
3.287073e+03,0.000000e+00
3.288038e+03,0.000000e+00
3.289002e+03,0.000000e+00
3.289966e+03,0.000000e+00
3.290930e+03,0.000000e+00
3.291895e+03,0.000000e+00
3.292859e+03,0.000000e+00
3.293823e+03,0.000000e+00
3.294787e+03,0.000000e+00
3.295751e+03,0.000000e+00
3.296716e+03,0.000000e+00
3.297680e+03,0.000000e+00
3.298644e+03,0.000000e+00
3.299608e+03,0.000000e+00
3.300573e+03,0.000000e+00
3.301537e+03,0.000000e+00
3.302501e+03,0.000000e+00
3.303465e+03,0.000000e+00
3.304430e+03,0.000000e+00
3.305394e+03,0.000000e+00
3.306358e+03,0.000000e+00
3.307322e+03,0.000000e+00
3.308287e+03,0.000000e+00
3.309251e+03,0.000000e+00
3.310215e+03,0.000000e+00
3.311179e+03,0.000000e+00
3.312144e+03,0.000000e+00
3.313108e+03,0.000000e+00
3.314072e+03,0.000000e+00
3.315036e+03,0.000000e+00
3.316000e+03,0.000000e+00
3.316965e+03,0.000000e+00
3.317929e+03,0.000000e+00
3.318893e+03,0.000000e+00
3.319857e+03,0.000000e+00
3.320822e+03,0.000000e+00
3.321786e+03,0.000000e+00
3.322750e+03,0.000000e+00
3.323714e+03,0.000000e+00
3.324678e+03,0.000000e+00
3.325643e+03,0.000000e+00
3.326607e+03,0.000000e+00
3.327571e+03,0.000000e+00
3.328535e+03,0.000000e+00
3.329500e+03,0.000000e+00
3.330464e+03,0.000000e+00
3.331428e+03,0.000000e+00
3.332392e+03,0.000000e+00
3.333357e+03,0.000000e+00
3.334321e+03,0.000000e+00
3.335285e+03,0.000000e+00
3.336249e+03,0.000000e+00
3.337214e+03,0.000000e+00
3.338178e+03,0.000000e+00
3.339142e+03,0.000000e+00
3.340106e+03,0.000000e+00
3.341071e+03,0.000000e+00
3.342035e+03,0.000000e+00
3.342999e+03,0.000000e+00
3.343963e+03,0.000000e+00
3.344927e+03,0.000000e+00
3.345892e+03,0.000000e+00
3.346856e+03,0.000000e+00
3.347820e+03,0.000000e+00
3.348784e+03,0.000000e+00
3.349749e+03,0.000000e+00
3.350713e+03,0.000000e+00
3.351677e+03,0.000000e+00
3.352641e+03,0.000000e+00
3.353605e+03,0.000000e+00
3.354570e+03,0.000000e+00
3.355534e+03,0.000000e+00
3.356498e+03,0.000000e+00
3.357462e+03,0.000000e+00
3.358427e+03,0.000000e+00
3.359391e+03,0.000000e+00
3.360355e+03,0.000000e+00
3.361319e+03,0.000000e+00
3.362284e+03,0.000000e+00
3.363248e+03,0.000000e+00
3.364212e+03,0.000000e+00
3.365176e+03,0.000000e+00
3.366141e+03,0.000000e+00
3.367105e+03,0.000000e+00
3.368069e+03,0.000000e+00
3.369033e+03,0.000000e+00
3.369998e+03,0.000000e+00
3.370962e+03,0.000000e+00
3.371926e+03,0.000000e+00
3.372890e+03,0.000000e+00
3.373854e+03,0.000000e+00
3.374819e+03,0.000000e+00
3.375783e+03,0.000000e+00
3.376747e+03,0.000000e+00
3.377711e+03,0.000000e+00
3.378676e+03,0.000000e+00
3.379640e+03,0.000000e+00
3.380604e+03,0.000000e+00
3.381568e+03,0.000000e+00
3.382532e+03,0.000000e+00
3.383497e+03,0.000000e+00
3.384461e+03,0.000000e+00
3.385425e+03,0.000000e+00
3.386389e+03,0.000000e+00
3.387354e+03,0.000000e+00
3.388318e+03,0.000000e+00
3.389282e+03,0.000000e+00
3.390246e+03,0.000000e+00
3.391211e+03,0.000000e+00
3.392175e+03,0.000000e+00
3.393139e+03,0.000000e+00
3.394103e+03,0.000000e+00
3.395068e+03,0.000000e+00
3.396032e+03,0.000000e+00
3.396996e+03,0.000000e+00
3.397960e+03,0.000000e+00
3.398925e+03,0.000000e+00
3.399889e+03,0.000000e+00
3.400853e+03,0.000000e+00
3.401817e+03,0.000000e+00
3.402781e+03,0.000000e+00
3.403746e+03,0.000000e+00
3.404710e+03,0.000000e+00
3.405674e+03,0.000000e+00
3.406638e+03,0.000000e+00
3.407603e+03,0.000000e+00
3.408567e+03,0.000000e+00
3.409531e+03,0.000000e+00
3.410495e+03,0.000000e+00
3.411459e+03,0.000000e+00
3.412424e+03,0.000000e+00
3.413388e+03,0.000000e+00
3.414352e+03,0.000000e+00
3.415316e+03,0.000000e+00
3.416281e+03,0.000000e+00
3.417245e+03,0.000000e+00
3.418209e+03,0.000000e+00
3.419173e+03,0.000000e+00
3.420138e+03,0.000000e+00
3.421102e+03,0.000000e+00
3.422066e+03,0.000000e+00
3.423030e+03,0.000000e+00
3.423995e+03,0.000000e+00
3.424959e+03,0.000000e+00
3.425923e+03,0.000000e+00
3.426887e+03,0.000000e+00
3.427852e+03,0.000000e+00
3.428816e+03,0.000000e+00
3.429780e+03,0.000000e+00
3.430744e+03,0.000000e+00
3.431708e+03,0.000000e+00
3.432673e+03,0.000000e+00
3.433637e+03,0.000000e+00
3.434601e+03,0.000000e+00
3.435565e+03,0.000000e+00
3.436530e+03,0.000000e+00
3.437494e+03,0.000000e+00
3.438458e+03,0.000000e+00
3.439422e+03,0.000000e+00
3.440386e+03,0.000000e+00
3.441351e+03,0.000000e+00
3.442315e+03,0.000000e+00
3.443279e+03,0.000000e+00
3.444243e+03,0.000000e+00
3.445208e+03,0.000000e+00
3.446172e+03,0.000000e+00
3.447136e+03,0.000000e+00
3.448100e+03,0.000000e+00
3.449065e+03,0.000000e+00
3.450029e+03,0.000000e+00
3.450993e+03,0.000000e+00
3.451957e+03,0.000000e+00
3.452922e+03,0.000000e+00
3.453886e+03,0.000000e+00
3.454850e+03,0.000000e+00
3.455814e+03,0.000000e+00
3.456779e+03,0.000000e+00
3.457743e+03,0.000000e+00
3.458707e+03,0.000000e+00
3.459671e+03,0.000000e+00
3.460635e+03,0.000000e+00
3.461600e+03,0.000000e+00
3.462564e+03,0.000000e+00
3.463528e+03,0.000000e+00
3.464492e+03,0.000000e+00
3.465457e+03,0.000000e+00
3.466421e+03,0.000000e+00
3.467385e+03,0.000000e+00
3.468349e+03,0.000000e+00
3.469313e+03,0.000000e+00
3.470278e+03,0.000000e+00
3.471242e+03,0.000000e+00
3.472206e+03,0.000000e+00
3.473170e+03,0.000000e+00
3.474135e+03,0.000000e+00
3.475099e+03,0.000000e+00
3.476063e+03,0.000000e+00
3.477027e+03,0.000000e+00
3.477992e+03,0.000000e+00
3.478956e+03,0.000000e+00
3.479920e+03,0.000000e+00
3.480884e+03,0.000000e+00
3.481849e+03,0.000000e+00
3.482813e+03,0.000000e+00
3.483777e+03,0.000000e+00
3.484741e+03,0.000000e+00
3.485706e+03,0.000000e+00
3.486670e+03,0.000000e+00
3.487634e+03,0.000000e+00
3.488598e+03,0.000000e+00
3.489563e+03,0.000000e+00
3.490527e+03,0.000000e+00
3.491491e+03,0.000000e+00
3.492455e+03,0.000000e+00
3.493419e+03,0.000000e+00
3.494384e+03,0.000000e+00
3.495348e+03,0.000000e+00
3.496312e+03,0.000000e+00
3.497276e+03,0.000000e+00
3.498240e+03,0.000000e+00
3.499205e+03,0.000000e+00
3.500169e+03,0.000000e+00
