9.931763e+01,0.000000e+00
1.002819e+02,0.000000e+00
1.012461e+02,0.000000e+00
1.022103e+02,0.000000e+00
1.031746e+02,0.000000e+00
1.041388e+02,0.000000e+00
1.051030e+02,0.000000e+00
1.060673e+02,0.000000e+00
1.070315e+02,0.000000e+00
1.079957e+02,0.000000e+00
1.089600e+02,0.000000e+00
1.099242e+02,0.000000e+00
1.108884e+02,0.000000e+00
1.118527e+02,0.000000e+00
1.128169e+02,0.000000e+00
1.137811e+02,0.000000e+00
1.147454e+02,0.000000e+00
1.157096e+02,0.000000e+00
1.166738e+02,0.000000e+00
1.176381e+02,0.000000e+00
1.186023e+02,0.000000e+00
1.195665e+02,0.000000e+00
1.205308e+02,0.000000e+00
1.214950e+02,0.000000e+00
1.224592e+02,0.000000e+00
1.234235e+02,0.000000e+00
1.243877e+02,0.000000e+00
1.253519e+02,0.000000e+00
1.263162e+02,0.000000e+00
1.272804e+02,0.000000e+00
1.282446e+02,0.000000e+00
1.292089e+02,0.000000e+00
1.301731e+02,0.000000e+00
1.311373e+02,0.000000e+00
1.321016e+02,0.000000e+00
1.330658e+02,0.000000e+00
1.340300e+02,0.000000e+00
1.349943e+02,0.000000e+00
1.359585e+02,0.000000e+00
1.369227e+02,0.000000e+00
1.378870e+02,0.000000e+00
1.388512e+02,0.000000e+00
1.398154e+02,0.000000e+00
1.407797e+02,0.000000e+00
1.417439e+02,0.000000e+00
1.427081e+02,0.000000e+00
1.436724e+02,0.000000e+00
1.446366e+02,0.000000e+00
1.456008e+02,0.000000e+00
1.465651e+02,0.000000e+00
1.475293e+02,0.000000e+00
1.484935e+02,0.000000e+00
1.494578e+02,0.000000e+00
1.504220e+02,0.000000e+00
1.513862e+02,0.000000e+00
1.523505e+02,0.000000e+00
1.533147e+02,0.000000e+00
1.542789e+02,0.000000e+00
1.552432e+02,0.000000e+00
1.562074e+02,0.000000e+00
1.571716e+02,0.000000e+00
1.581359e+02,0.000000e+00
1.591001e+02,0.000000e+00
1.600643e+02,0.000000e+00
1.610286e+02,0.000000e+00
1.619928e+02,0.000000e+00
1.629570e+02,0.000000e+00
1.639213e+02,0.000000e+00
1.648855e+02,0.000000e+00
1.658497e+02,0.000000e+00
1.668140e+02,0.000000e+00
1.677782e+02,0.000000e+00
1.687424e+02,0.000000e+00
1.697067e+02,0.000000e+00
1.706709e+02,0.000000e+00
1.716351e+02,0.000000e+00
1.725994e+02,0.000000e+00
1.735636e+02,0.000000e+00
1.745278e+02,0.000000e+00
1.754921e+02,0.000000e+00
1.764563e+02,0.000000e+00
1.774205e+02,0.000000e+00
1.783848e+02,0.000000e+00
1.793490e+02,0.000000e+00
1.803132e+02,0.000000e+00
1.812775e+02,0.000000e+00
1.822417e+02,0.000000e+00
1.832059e+02,0.000000e+00
1.841702e+02,0.000000e+00
1.851344e+02,0.000000e+00
1.860986e+02,0.000000e+00
1.870629e+02,0.000000e+00
1.880271e+02,0.000000e+00
1.889913e+02,0.000000e+00
1.899556e+02,0.000000e+00
1.909198e+02,0.000000e+00
1.918840e+02,0.000000e+00
1.928483e+02,0.000000e+00
1.938125e+02,0.000000e+00
1.947767e+02,0.000000e+00
1.957410e+02,0.000000e+00
1.967052e+02,0.000000e+00
1.976694e+02,0.000000e+00
1.986337e+02,0.000000e+00
1.995979e+02,1.016206e+04
2.005621e+02,1.015818e+04
2.015264e+02,1.015841e+04
2.024906e+02,1.016684e+04
2.034548e+02,1.017584e+04
2.044191e+02,1.018228e+04
2.053833e+02,1.018426e+04
2.063475e+02,1.018178e+04
2.073118e+02,1.017415e+04
2.082760e+02,1.015816e+04
2.092402e+02,1.014735e+04
2.102045e+02,1.015462e+04
2.111687e+02,1.016788e+04
2.121329e+02,1.017556e+04
2.130972e+02,1.016857e+04
2.140614e+02,1.015302e+04
2.150256e+02,1.015103e+04
2.159899e+02,1.017669e+04
2.169541e+02,1.019817e+04
2.179183e+02,1.020137e+04
2.188826e+02,1.018932e+04
2.198468e+02,1.017706e+04
2.208110e+02,1.017699e+04
2.217753e+02,1.018737e+04
2.227395e+02,1.019038e+04
2.237037e+02,1.018523e+04
2.246680e+02,1.017645e+04
2.256322e+02,1.016559e+04
2.265964e+02,1.015407e+04
2.275607e+02,1.014631e+04
2.285249e+02,1.014667e+04
2.294892e+02,1.015601e+04
2.304534e+02,1.017042e+04
2.314176e+02,1.018493e+04
2.323819e+02,1.019746e+04
2.333461e+02,1.020614e+04
2.343103e+02,1.021114e+04
2.352746e+02,1.021433e+04
2.362388e+02,1.021669e+04
2.372030e+02,1.021607e+04
2.381673e+02,1.020954e+04
2.391315e+02,1.019842e+04
2.400957e+02,1.018403e+04
2.410600e+02,1.017321e+04
2.420242e+02,1.017363e+04
2.429884e+02,1.018498e+04
2.439527e+02,1.019888e+04
2.449169e+02,1.020678e+04
2.458811e+02,1.020581e+04
2.468454e+02,1.020422e+04
2.478096e+02,1.019972e+04
2.487738e+02,1.019633e+04
2.497381e+02,1.019711e+04
2.507023e+02,1.020271e+04
2.516665e+02,1.021135e+04
2.526308e+02,1.021953e+04
2.535950e+02,1.022477e+04
2.545592e+02,1.022312e+04
2.555235e+02,1.021301e+04
2.564877e+02,1.019936e+04
2.574519e+02,1.018859e+04
2.584161e+02,1.018556e+04
2.593804e+02,1.019131e+04
2.603446e+02,1.020096e+04
2.613088e+02,1.021405e+04
2.622731e+02,1.022585e+04
2.632373e+02,1.023516e+04
2.642015e+02,1.023954e+04
2.651658e+02,1.023819e+04
2.661300e+02,1.023169e+04
2.670942e+02,1.022189e+04
2.680585e+02,1.021588e+04
2.690227e+02,1.021980e+04
2.699869e+02,1.022495e+04
2.709512e+02,1.022363e+04
2.719154e+02,1.021399e+04
2.728796e+02,1.020372e+04
2.738439e+02,1.020378e+04
2.748081e+02,1.021866e+04
2.757723e+02,1.024006e+04
2.767366e+02,1.025671e+04
2.777008e+02,1.026514e+04
2.786650e+02,1.026732e+04
2.796293e+02,1.026490e+04
2.805935e+02,1.026084e+04
2.815577e+02,1.025739e+04
2.825220e+02,1.025390e+04
2.834862e+02,1.024879e+04
2.844504e+02,1.024113e+04
2.854147e+02,1.023292e+04
2.863789e+02,1.022456e+04
2.873431e+02,1.021775e+04
2.883074e+02,1.021435e+04
2.892716e+02,1.021472e+04
2.902358e+02,1.021729e+04
2.912001e+02,1.022073e+04
2.921643e+02,1.022343e+04
2.931285e+02,1.022745e+04
2.940928e+02,1.023325e+04
2.950570e+02,1.024079e+04
2.960212e+02,1.024776e+04
2.969855e+02,1.025110e+04
2.979497e+02,1.024948e+04
2.989139e+02,1.024445e+04
2.998782e+02,1.023630e+04
3.008424e+02,1.022525e+04
3.018066e+02,1.021746e+04
3.027709e+02,1.021453e+04
3.037351e+02,1.021589e+04
3.046993e+02,1.021885e+04
3.056636e+02,1.022111e+04
3.066278e+02,1.022450e+04
3.075920e+02,1.022799e+04
3.085563e+02,1.023256e+04
3.095205e+02,1.023912e+04
3.104847e+02,1.024442e+04
3.114490e+02,1.023939e+04
3.124132e+02,1.022878e+04
3.133774e+02,1.022621e+04
3.143417e+02,1.023486e+04
3.153059e+02,1.024516e+04
3.162701e+02,1.025055e+04
3.172344e+02,1.025832e+04
3.181986e+02,1.025535e+04
3.191628e+02,1.022613e+04
3.201271e+02,1.018442e+04
3.210913e+02,1.015605e+04
3.220555e+02,1.015293e+04
3.230198e+02,1.017082e+04
3.239840e+02,1.018660e+04
3.249482e+02,1.020430e+04
3.259125e+02,1.021506e+04
3.268767e+02,1.021250e+04
3.278409e+02,1.020016e+04
3.288052e+02,1.018697e+04
3.297694e+02,1.018054e+04
3.307336e+02,1.018188e+04
3.316979e+02,1.018313e+04
3.326621e+02,1.018968e+04
3.336263e+02,1.019010e+04
3.345906e+02,1.017753e+04
3.355548e+02,1.015300e+04
3.365190e+02,1.012834e+04
3.374833e+02,1.011414e+04
3.384475e+02,1.011021e+04
3.394117e+02,1.011088e+04
3.403760e+02,1.011447e+04
3.413402e+02,1.011819e+04
3.423044e+02,1.011826e+04
3.432687e+02,1.010719e+04
3.442329e+02,1.009542e+04
3.451971e+02,1.009333e+04
3.461614e+02,1.009854e+04
3.471256e+02,1.009794e+04
3.480898e+02,1.008328e+04
3.490541e+02,1.005142e+04
3.500183e+02,1.002702e+04
3.509825e+02,1.001621e+04
3.519468e+02,1.001406e+04
3.529110e+02,1.001505e+04
3.538752e+02,1.001575e+04
3.548395e+02,1.001550e+04
3.558037e+02,1.001653e+04
3.567680e+02,1.002198e+04
3.577322e+02,1.002404e+04
3.586964e+02,1.002360e+04
3.596607e+02,1.002350e+04
3.606249e+02,1.002393e+04
3.615891e+02,1.002124e+04
3.625534e+02,1.001308e+04
3.635176e+02,1.000184e+04
3.644818e+02,9.991468e+03
3.654461e+02,9.979272e+03
3.664103e+02,9.966776e+03
3.673745e+02,9.958435e+03
3.683388e+02,9.953361e+03
3.693030e+02,9.944734e+03
3.702672e+02,9.933861e+03
3.712315e+02,9.925632e+03
3.721957e+02,9.920513e+03
3.731599e+02,9.915067e+03
3.741242e+02,9.907421e+03
3.750884e+02,9.899047e+03
3.760526e+02,9.897483e+03
3.770169e+02,9.910582e+03
3.779811e+02,9.926404e+03
3.789453e+02,9.928155e+03
3.799096e+02,9.905269e+03
3.808738e+02,9.865375e+03
3.818380e+02,9.841105e+03
3.828023e+02,9.850786e+03
3.837665e+02,9.861427e+03
3.847307e+02,9.859463e+03
3.856950e+02,9.849129e+03
3.866592e+02,9.840578e+03
3.876234e+02,9.842452e+03
3.885877e+02,9.849828e+03
3.895519e+02,9.848173e+03
3.905161e+02,9.833161e+03
3.914804e+02,9.811792e+03
3.924446e+02,9.791403e+03
3.934088e+02,9.772690e+03
3.943731e+02,9.760114e+03
3.953373e+02,9.758712e+03
3.963015e+02,9.762490e+03
3.972658e+02,9.763412e+03
3.982300e+02,9.759806e+03
3.991942e+02,9.755604e+03
4.001585e+02,9.753654e+03
4.011227e+02,9.748405e+03
4.020869e+02,9.744649e+03
4.030512e+02,9.739068e+03
4.040154e+02,9.731934e+03
4.049796e+02,9.727158e+03
4.059439e+02,9.729131e+03
4.069081e+02,9.734524e+03
4.078723e+02,9.730554e+03
4.088366e+02,9.709501e+03
4.098008e+02,9.685214e+03
4.107650e+02,9.673384e+03
4.117293e+02,9.673874e+03
4.126935e+02,9.673373e+03
4.136577e+02,9.666903e+03
4.146220e+02,9.656531e+03
4.155862e+02,9.643410e+03
4.165504e+02,9.627356e+03
4.175147e+02,9.614165e+03
4.184789e+02,9.612665e+03
4.194431e+02,9.642624e+03
4.204074e+02,9.659655e+03
4.213716e+02,9.655172e+03
4.223358e+02,9.640213e+03
4.233001e+02,9.626778e+03
4.242643e+02,9.621480e+03
4.252285e+02,9.620393e+03
4.261928e+02,9.611494e+03
4.271570e+02,9.590658e+03
4.281212e+02,9.573651e+03
4.290855e+02,9.568274e+03
4.300497e+02,9.569558e+03
4.310139e+02,9.568450e+03
4.319782e+02,9.562041e+03
4.329424e+02,9.554416e+03
4.339066e+02,9.547741e+03
4.348709e+02,9.541010e+03
4.358351e+02,9.535915e+03
4.367993e+02,9.535893e+03
4.377636e+02,9.547835e+03
4.387278e+02,9.547486e+03
4.396920e+02,9.524427e+03
4.406563e+02,9.498899e+03
4.416205e+02,9.485790e+03
4.425847e+02,9.488127e+03
4.435490e+02,9.494177e+03
4.445132e+02,9.486962e+03
4.454774e+02,9.463903e+03
4.464417e+02,9.447245e+03
4.474059e+02,9.443154e+03
4.483701e+02,9.445095e+03
4.493344e+02,9.446937e+03
4.502986e+02,9.452505e+03
4.512628e+02,9.457106e+03
4.522271e+02,9.456754e+03
4.531913e+02,9.452004e+03
4.541555e+02,9.444916e+03
4.551198e+02,9.435501e+03
4.560840e+02,9.424231e+03
4.570482e+02,9.414769e+03
4.580125e+02,9.416796e+03
4.589767e+02,9.419551e+03
4.599409e+02,9.414623e+03
4.609052e+02,9.400796e+03
4.618694e+02,9.384166e+03
4.628336e+02,9.369394e+03
4.637979e+02,9.357395e+03
4.647621e+02,9.351729e+03
4.657263e+02,9.359796e+03
4.666906e+02,9.371881e+03
4.676548e+02,9.372939e+03
4.686190e+02,9.357765e+03
4.695833e+02,9.344473e+03
4.705475e+02,9.339779e+03
4.715117e+02,9.338780e+03
4.724760e+02,9.335656e+03
4.734402e+02,9.329104e+03
4.744044e+02,9.320420e+03
4.753687e+02,9.311391e+03
4.763329e+02,9.301119e+03
4.772971e+02,9.292439e+03
4.782614e+02,9.286155e+03
4.792256e+02,9.282134e+03
4.801898e+02,9.279374e+03
4.811541e+02,9.275790e+03
4.821183e+02,9.272230e+03
4.830826e+02,9.271172e+03
4.840468e+02,9.272094e+03
4.850110e+02,9.270376e+03
4.859753e+02,9.263888e+03
4.869395e+02,9.251659e+03
4.879037e+02,9.241470e+03
4.888680e+02,9.238581e+03
4.898322e+02,9.235296e+03
4.907964e+02,9.225799e+03
4.917607e+02,9.211689e+03
4.927249e+02,9.199927e+03
4.936891e+02,9.199708e+03
4.946534e+02,9.211943e+03
4.956176e+02,9.213943e+03
4.965818e+02,9.195982e+03
4.975461e+02,9.176729e+03
4.985103e+02,9.171931e+03
4.994745e+02,9.183860e+03
5.004388e+02,9.191938e+03
5.014030e+02,9.188525e+03
5.023672e+02,9.178454e+03
5.033315e+02,9.167447e+03
5.042957e+02,9.156484e+03
5.052599e+02,9.145200e+03
5.062242e+02,9.135904e+03
5.071884e+02,9.135410e+03
5.081526e+02,9.130130e+03
5.091169e+02,9.117199e+03
5.100811e+02,9.102041e+03
5.110453e+02,9.088860e+03
5.120095e+02,9.080404e+03
5.129738e+02,9.075629e+03
5.139380e+02,9.072357e+03
5.149022e+02,9.070926e+03
5.158665e+02,9.073465e+03
5.168307e+02,9.079966e+03
5.177949e+02,9.085643e+03
5.187592e+02,9.079804e+03
5.197234e+02,9.067048e+03
5.206876e+02,9.053888e+03
5.216519e+02,9.039900e+03
5.226161e+02,9.027571e+03
5.235803e+02,9.021220e+03
5.245446e+02,9.027813e+03
5.255088e+02,9.044743e+03
5.264730e+02,9.055082e+03
5.274373e+02,9.059650e+03
5.284015e+02,9.055425e+03
5.293657e+02,9.031706e+03
5.303300e+02,8.985354e+03
5.312942e+02,8.951283e+03
5.322584e+02,8.950078e+03
5.332227e+02,8.962844e+03
5.341869e+02,8.970160e+03
5.351511e+02,8.966378e+03
5.361154e+02,8.956081e+03
5.370796e+02,8.946204e+03
5.380438e+02,8.937677e+03
5.390081e+02,8.931265e+03
5.399723e+02,8.929994e+03
5.409365e+02,8.930869e+03
5.419008e+02,8.928114e+03
5.428650e+02,8.915540e+03
5.438292e+02,8.903788e+03
5.447935e+02,8.901485e+03
5.457577e+02,8.904573e+03
5.467219e+02,8.904850e+03
5.476862e+02,8.899228e+03
5.486504e+02,8.888661e+03
5.496146e+02,8.876392e+03
5.505789e+02,8.860216e+03
5.515431e+02,8.844886e+03
5.525073e+02,8.836436e+03
5.534716e+02,8.834083e+03
5.544358e+02,8.831903e+03
5.554000e+02,8.816815e+03
5.563643e+02,8.803151e+03
5.573285e+02,8.810701e+03
5.582927e+02,8.835449e+03
5.592570e+02,8.855850e+03
5.602212e+02,8.859344e+03
5.611854e+02,8.845342e+03
5.621497e+02,8.832700e+03
5.631139e+02,8.815283e+03
5.640781e+02,8.800860e+03
5.650424e+02,8.799985e+03
5.660066e+02,8.808864e+03
5.669708e+02,8.811993e+03
5.679351e+02,8.797927e+03
5.688993e+02,8.775019e+03
5.698635e+02,8.755949e+03
5.708278e+02,8.742255e+03
5.717920e+02,8.735772e+03
5.727562e+02,8.737098e+03
5.737205e+02,8.747639e+03
5.746847e+02,8.753616e+03
5.756489e+02,8.750302e+03
5.766132e+02,8.744453e+03
5.775774e+02,8.742431e+03
5.785416e+02,8.744885e+03
5.795059e+02,8.743501e+03
5.804701e+02,8.728212e+03
5.814343e+02,8.703442e+03
5.823986e+02,8.683353e+03
5.833628e+02,8.671044e+03
5.843270e+02,8.664496e+03
5.852913e+02,8.660500e+03
5.862555e+02,8.664149e+03
5.872197e+02,8.662524e+03
5.881840e+02,8.646259e+03
5.891482e+02,8.628504e+03
5.901124e+02,8.621382e+03
5.910767e+02,8.629373e+03
5.920409e+02,8.641743e+03
5.930051e+02,8.648754e+03
5.939694e+02,8.650013e+03
5.949336e+02,8.646777e+03
5.958978e+02,8.639264e+03
5.968621e+02,8.628229e+03
5.978263e+02,8.615989e+03
5.987905e+02,8.602277e+03
5.997548e+02,8.590351e+03
6.007190e+02,8.580272e+03
6.016832e+02,8.573892e+03
6.026475e+02,8.571340e+03
6.036117e+02,8.570152e+03
6.045759e+02,8.572187e+03
6.055402e+02,8.584885e+03
6.065044e+02,8.605011e+03
6.074686e+02,8.613202e+03
6.084329e+02,8.600185e+03
6.093971e+02,8.571850e+03
6.103613e+02,8.553170e+03
6.113256e+02,8.557976e+03
6.122899e+02,8.558761e+03
6.132541e+02,8.550076e+03
6.142183e+02,8.533941e+03
6.151826e+02,8.514573e+03
6.161468e+02,8.489034e+03
6.171110e+02,8.467939e+03
6.180753e+02,8.466150e+03
6.190395e+02,8.481092e+03
6.200037e+02,8.495830e+03
6.209680e+02,8.499837e+03
6.219322e+02,8.494813e+03
6.228964e+02,8.491913e+03
6.238607e+02,8.492076e+03
6.248249e+02,8.491996e+03
6.257891e+02,8.490190e+03
6.267534e+02,8.483854e+03
6.277176e+02,8.471003e+03
6.286818e+02,8.447021e+03
6.296461e+02,8.422904e+03
6.306103e+02,8.410778e+03
6.315745e+02,8.410649e+03
6.325388e+02,8.415001e+03
6.335030e+02,8.416944e+03
6.344672e+02,8.415066e+03
6.354315e+02,8.414146e+03
6.363957e+02,8.414528e+03
6.373599e+02,8.411146e+03
6.383242e+02,8.402369e+03
6.392884e+02,8.389923e+03
6.402526e+02,8.379885e+03
6.412169e+02,8.377139e+03
6.421811e+02,8.375155e+03
6.431453e+02,8.366151e+03
6.441096e+02,8.350572e+03
6.450738e+02,8.335999e+03
6.460380e+02,8.332820e+03
6.470023e+02,8.343232e+03
6.479665e+02,8.347415e+03
6.489307e+02,8.337861e+03
6.498950e+02,8.327815e+03
6.508592e+02,8.329548e+03
6.518234e+02,8.343675e+03
6.527877e+02,8.348869e+03
6.537519e+02,8.335909e+03
6.547161e+02,8.318463e+03
6.556804e+02,8.306704e+03
6.566446e+02,8.302006e+03
6.576088e+02,8.299367e+03
6.585731e+02,8.294231e+03
6.595373e+02,8.286937e+03
6.605015e+02,8.280112e+03
6.614658e+02,8.274713e+03
6.624300e+02,8.268136e+03
6.633942e+02,8.256243e+03
6.643585e+02,8.230971e+03
6.653227e+02,8.220771e+03
6.662869e+02,8.233176e+03
6.672512e+02,8.251955e+03
6.682154e+02,8.270937e+03
6.691796e+02,8.287548e+03
6.701439e+02,8.295165e+03
6.711081e+02,8.285768e+03
6.720723e+02,8.264943e+03
6.730366e+02,8.243177e+03
6.740008e+02,8.222900e+03
6.749650e+02,8.205962e+03
6.759293e+02,8.196122e+03
6.768935e+02,8.199891e+03
6.778577e+02,8.195081e+03
6.788220e+02,8.174840e+03
6.797862e+02,8.155735e+03
6.807504e+02,8.144913e+03
6.817147e+02,8.140894e+03
6.826789e+02,8.142010e+03
6.836431e+02,8.152100e+03
6.846074e+02,8.161636e+03
6.855716e+02,8.161912e+03
6.865358e+02,8.152880e+03
6.875001e+02,8.140342e+03
6.884643e+02,8.128458e+03
6.894285e+02,8.117598e+03
6.903928e+02,8.113116e+03
6.913570e+02,8.117924e+03
6.923212e+02,8.123226e+03
6.932855e+02,8.120088e+03
6.942497e+02,8.104758e+03
6.952139e+02,8.095658e+03
6.961782e+02,8.092468e+03
6.971424e+02,8.093942e+03
6.981066e+02,8.100448e+03
6.990709e+02,8.108936e+03
7.000351e+02,8.109266e+03
7.009993e+02,8.090817e+03
7.019636e+02,8.065168e+03
7.029278e+02,8.055664e+03
7.038920e+02,8.066403e+03
7.048563e+02,8.080624e+03
7.058205e+02,8.079556e+03
7.067847e+02,8.062458e+03
7.077490e+02,8.043451e+03
7.087132e+02,8.019060e+03
7.096774e+02,8.003458e+03
7.106417e+02,8.002976e+03
7.116059e+02,8.020302e+03
7.125701e+02,8.032885e+03
7.135344e+02,8.036594e+03
7.144986e+02,8.034931e+03
7.154628e+02,8.027003e+03
7.164271e+02,8.012588e+03
7.173913e+02,7.998206e+03
7.183555e+02,7.991023e+03
7.193198e+02,7.989499e+03
7.202840e+02,7.988372e+03
7.212482e+02,7.988770e+03
7.222125e+02,7.988532e+03
7.231767e+02,7.983742e+03
7.241409e+02,7.969834e+03
7.251052e+02,7.957524e+03
7.260694e+02,7.940184e+03
7.270336e+02,7.928839e+03
7.279979e+02,7.936978e+03
7.289621e+02,7.966175e+03
7.299263e+02,7.985662e+03
7.308906e+02,7.975014e+03
7.318548e+02,7.950629e+03
7.328190e+02,7.927929e+03
7.337833e+02,7.909830e+03
7.347475e+02,7.897326e+03
7.357117e+02,7.896468e+03
7.366760e+02,7.907067e+03
7.376402e+02,7.911448e+03
7.386044e+02,7.908299e+03
7.395687e+02,7.901508e+03
7.405329e+02,7.891908e+03
7.414971e+02,7.877530e+03
7.424614e+02,7.866408e+03
7.434256e+02,7.866823e+03
7.443898e+02,7.870952e+03
7.453541e+02,7.870002e+03
7.463183e+02,7.860790e+03
7.472825e+02,7.852949e+03
7.482468e+02,7.858944e+03
7.492110e+02,7.865071e+03
7.501752e+02,7.856907e+03
7.511395e+02,7.838497e+03
7.521037e+02,7.822485e+03
7.530679e+02,7.817300e+03
7.540322e+02,7.819398e+03
7.549964e+02,7.817017e+03
7.559606e+02,7.810483e+03
7.569249e+02,7.804831e+03
7.578891e+02,7.804055e+03
7.588533e+02,7.809416e+03
7.598176e+02,7.812485e+03
7.607818e+02,7.799403e+03
7.617460e+02,7.785245e+03
7.627103e+02,7.780125e+03
7.636745e+02,7.784438e+03
7.646387e+02,7.788877e+03
7.656030e+02,7.789451e+03
7.665672e+02,7.788388e+03
7.675314e+02,7.782197e+03
7.684957e+02,7.768401e+03
7.694599e+02,7.752364e+03
7.704241e+02,7.742986e+03
7.713884e+02,7.739560e+03
7.723526e+02,7.731180e+03
7.733168e+02,7.718595e+03
7.742811e+02,7.711513e+03
7.752453e+02,7.710965e+03
7.762095e+02,7.713407e+03
7.771738e+02,7.713849e+03
7.781380e+02,7.709961e+03
7.791022e+02,7.700726e+03
7.800665e+02,7.684794e+03
7.810307e+02,7.667472e+03
7.819949e+02,7.656434e+03
7.829592e+02,7.664444e+03
7.839234e+02,7.673060e+03
7.848876e+02,7.669700e+03
7.858519e+02,7.659004e+03
7.868161e+02,7.649625e+03
7.877803e+02,7.645293e+03
7.887446e+02,7.643116e+03
7.897088e+02,7.640975e+03
7.906730e+02,7.641624e+03
7.916373e+02,7.646370e+03
7.926015e+02,7.652409e+03
7.935657e+02,7.654080e+03
7.945300e+02,7.649622e+03
7.954942e+02,7.641344e+03
7.964584e+02,7.629306e+03
7.974227e+02,7.619060e+03
7.983869e+02,7.613493e+03
7.993511e+02,7.606562e+03
8.003154e+02,7.588607e+03
8.012796e+02,7.573100e+03
8.022438e+02,7.566688e+03
8.032081e+02,7.567146e+03
8.041723e+02,7.573664e+03
8.051365e+02,7.585183e+03
8.061008e+02,7.593869e+03
8.070650e+02,7.592155e+03
8.080292e+02,7.581516e+03
8.089935e+02,7.565352e+03
8.099577e+02,7.546659e+03
8.109219e+02,7.532580e+03
8.118862e+02,7.533932e+03
8.128504e+02,7.549813e+03
8.138146e+02,7.550749e+03
8.147789e+02,7.529615e+03
8.157431e+02,7.505649e+03
8.167073e+02,7.497742e+03
8.176716e+02,7.514674e+03
8.186358e+02,7.520810e+03
8.196000e+02,7.499098e+03
8.205643e+02,7.481400e+03
8.215285e+02,7.480728e+03
8.224927e+02,7.494461e+03
8.234570e+02,7.503623e+03
8.244212e+02,7.500996e+03
8.253854e+02,7.495162e+03
8.263497e+02,7.488275e+03
8.273139e+02,7.479307e+03
8.282781e+02,7.469795e+03
8.292424e+02,7.464218e+03
8.302066e+02,7.462758e+03
8.311708e+02,7.463427e+03
8.321351e+02,7.465914e+03
8.330993e+02,7.468905e+03
8.340635e+02,7.470532e+03
8.350278e+02,7.470096e+03
8.359920e+02,7.468271e+03
8.369562e+02,7.465750e+03
8.379205e+02,7.459382e+03
8.388847e+02,7.447107e+03
8.398489e+02,7.431258e+03
8.408132e+02,7.416068e+03
8.417774e+02,7.393196e+03
8.427416e+02,7.380563e+03
8.437059e+02,7.388402e+03
8.446701e+02,7.402928e+03
8.456343e+02,7.410429e+03
8.465986e+02,7.407178e+03
8.475628e+02,7.398758e+03
8.485270e+02,7.382795e+03
8.494913e+02,7.364560e+03
8.504555e+02,7.349611e+03
8.514197e+02,7.340079e+03
8.523840e+02,7.336460e+03
8.533482e+02,7.341384e+03
8.543124e+02,7.349505e+03
8.552767e+02,7.352047e+03
8.562409e+02,7.347272e+03
8.572051e+02,7.338516e+03
8.581694e+02,7.329144e+03
8.591336e+02,7.320542e+03
8.600978e+02,7.319266e+03
8.610621e+02,7.328983e+03
8.620263e+02,7.336878e+03
8.629905e+02,7.329797e+03
8.639548e+02,7.303864e+03
8.649190e+02,7.285484e+03
8.658832e+02,7.281480e+03
8.668475e+02,7.283025e+03
8.678117e+02,7.288148e+03
8.687759e+02,7.295194e+03
8.697402e+02,7.300182e+03
8.707044e+02,7.301152e+03
8.716686e+02,7.294040e+03
8.726329e+02,7.277544e+03
8.735971e+02,7.257537e+03
8.745613e+02,7.241483e+03
8.755256e+02,7.234532e+03
8.764898e+02,7.234039e+03
8.774540e+02,7.238625e+03
8.784183e+02,7.245542e+03
8.793825e+02,7.251865e+03
8.803467e+02,7.256991e+03
8.813110e+02,7.257934e+03
8.822752e+02,7.247234e+03
8.832394e+02,7.230863e+03
8.842037e+02,7.226794e+03
8.851679e+02,7.238284e+03
8.861321e+02,7.252549e+03
8.870964e+02,7.253075e+03
8.880606e+02,7.238640e+03
8.890248e+02,7.223463e+03
8.899891e+02,7.211047e+03
8.909533e+02,7.202297e+03
8.919175e+02,7.197043e+03
8.928818e+02,7.196526e+03
8.938460e+02,7.192799e+03
8.948102e+02,7.178404e+03
8.957745e+02,7.165218e+03
8.967387e+02,7.164021e+03
8.977029e+02,7.172453e+03
8.986672e+02,7.171517e+03
8.996314e+02,7.152581e+03
9.005956e+02,7.139110e+03
9.015599e+02,7.144879e+03
9.025241e+02,7.161836e+03
9.034883e+02,7.170889e+03
9.044526e+02,7.157644e+03
9.054168e+02,7.137956e+03
9.063810e+02,7.124536e+03
9.073453e+02,7.119244e+03
9.083095e+02,7.119167e+03
9.092737e+02,7.121986e+03
9.102380e+02,7.122813e+03
9.112022e+02,7.115868e+03
9.121664e+02,7.103197e+03
9.131307e+02,7.090739e+03
9.140949e+02,7.082357e+03
9.150591e+02,7.081306e+03
9.160234e+02,7.090594e+03
9.169876e+02,7.104627e+03
9.179518e+02,7.107326e+03
9.189161e+02,7.096198e+03
9.198803e+02,7.076930e+03
9.208445e+02,7.055143e+03
9.218088e+02,7.031581e+03
9.227730e+02,7.020628e+03
9.237372e+02,7.024838e+03
9.247015e+02,7.031415e+03
9.256657e+02,7.032610e+03
9.266299e+02,7.027697e+03
9.275942e+02,7.023364e+03
9.285584e+02,7.014134e+03
9.295226e+02,7.008979e+03
9.304869e+02,7.018111e+03
9.314511e+02,7.036440e+03
9.324153e+02,7.043821e+03
9.333796e+02,7.029214e+03
9.343438e+02,7.013938e+03
9.353080e+02,7.001266e+03
9.362723e+02,6.988773e+03
9.372365e+02,6.975692e+03
9.382007e+02,6.964211e+03
9.391650e+02,6.958307e+03
9.401292e+02,6.964075e+03
9.410934e+02,6.973204e+03
9.420577e+02,6.973233e+03
9.430219e+02,6.959876e+03
9.439861e+02,6.945521e+03
9.449504e+02,6.941989e+03
9.459146e+02,6.947749e+03
9.468788e+02,6.958765e+03
9.478431e+02,6.969542e+03
9.488073e+02,6.971818e+03
9.497715e+02,6.957017e+03
9.507358e+02,6.934390e+03
9.517000e+02,6.924969e+03
9.526642e+02,6.930076e+03
9.536285e+02,6.935217e+03
9.545927e+02,6.928329e+03
9.555569e+02,6.914117e+03
9.565212e+02,6.909953e+03
9.574854e+02,6.918479e+03
9.584496e+02,6.928453e+03
9.594139e+02,6.933041e+03
9.603781e+02,6.931263e+03
9.613423e+02,6.925501e+03
9.623066e+02,6.915950e+03
9.632708e+02,6.902638e+03
9.642350e+02,6.884856e+03
9.651993e+02,6.868365e+03
9.661635e+02,6.858743e+03
9.671277e+02,6.855318e+03
9.680920e+02,6.855178e+03
9.690562e+02,6.865732e+03
9.700204e+02,6.870375e+03
9.709847e+02,6.854649e+03
9.719489e+02,6.812980e+03
9.729131e+02,6.791413e+03
9.738774e+02,6.808925e+03
9.748416e+02,6.830439e+03
9.758058e+02,6.838931e+03
9.767701e+02,6.834578e+03
9.777343e+02,6.830724e+03
9.786985e+02,6.832391e+03
9.796628e+02,6.829665e+03
9.806270e+02,6.817385e+03
9.815912e+02,6.799812e+03
9.825555e+02,6.784583e+03
9.835197e+02,6.778247e+03
9.844839e+02,6.774169e+03
9.854482e+02,6.771098e+03
9.864124e+02,6.769313e+03
9.873766e+02,6.766427e+03
9.883409e+02,6.761895e+03
9.893051e+02,6.761222e+03
9.902693e+02,6.773247e+03
9.912336e+02,6.788282e+03
9.921978e+02,6.791837e+03
9.931620e+02,6.781633e+03
9.941263e+02,6.769187e+03
9.950905e+02,6.765594e+03
9.960547e+02,6.764001e+03
9.970190e+02,6.753573e+03
9.979832e+02,6.735680e+03
9.989474e+02,6.719584e+03
9.999117e+02,6.715587e+03
1.000876e+03,6.715978e+03
1.001840e+03,6.704025e+03
1.002804e+03,6.686138e+03
1.003769e+03,6.680519e+03
1.004733e+03,6.693548e+03
1.005697e+03,6.710704e+03
1.006661e+03,6.708216e+03
1.007626e+03,6.691894e+03
1.008590e+03,6.688403e+03
1.009554e+03,6.701634e+03
1.010518e+03,6.714403e+03
1.011482e+03,6.708782e+03
1.012447e+03,6.686523e+03
1.013411e+03,6.659297e+03
1.014375e+03,6.629792e+03
1.015339e+03,6.611499e+03
1.016304e+03,6.614017e+03
1.017268e+03,6.632918e+03
1.018232e+03,6.647546e+03
1.019196e+03,6.657216e+03
1.020161e+03,6.660044e+03
1.021125e+03,6.655342e+03
1.022089e+03,6.647611e+03
1.023053e+03,6.643432e+03
1.024018e+03,6.640689e+03
1.024982e+03,6.640188e+03
1.025946e+03,6.642857e+03
1.026910e+03,6.641616e+03
1.027875e+03,6.629587e+03
1.028839e+03,6.605296e+03
1.029803e+03,6.590095e+03
1.030767e+03,6.588104e+03
1.031731e+03,6.588822e+03
1.032696e+03,6.581954e+03
1.033660e+03,6.566062e+03
1.034624e+03,6.562842e+03
1.035588e+03,6.583539e+03
1.036552e+03,6.601877e+03
1.037517e+03,6.604649e+03
1.038481e+03,6.594134e+03
1.039445e+03,6.586128e+03
1.040409e+03,6.582623e+03
1.041374e+03,6.579031e+03
1.042338e+03,6.578131e+03
1.043302e+03,6.577584e+03
1.044266e+03,6.572403e+03
1.045231e+03,6.557443e+03
1.046195e+03,6.545375e+03
1.047159e+03,6.539429e+03
1.048123e+03,6.536246e+03
1.049088e+03,6.534579e+03
1.050052e+03,6.537107e+03
1.051016e+03,6.536929e+03
1.051980e+03,6.526425e+03
1.052945e+03,6.519550e+03
1.053909e+03,6.522273e+03
1.054873e+03,6.528383e+03
1.055837e+03,6.526039e+03
1.056802e+03,6.508833e+03
1.057766e+03,6.494938e+03
1.058730e+03,6.491933e+03
1.059694e+03,6.493735e+03
1.060658e+03,6.491512e+03
1.061623e+03,6.483709e+03
1.062587e+03,6.476854e+03
1.063551e+03,6.470481e+03
1.064515e+03,6.466910e+03
1.065479e+03,6.469010e+03
1.066444e+03,6.478959e+03
1.067408e+03,6.481594e+03
1.068372e+03,6.462442e+03
1.069336e+03,6.447634e+03
1.070301e+03,6.447556e+03
1.071265e+03,6.457546e+03
1.072229e+03,6.467131e+03
1.073193e+03,6.483596e+03
1.074158e+03,6.488322e+03
1.075122e+03,6.466306e+03
1.076086e+03,6.434927e+03
1.077050e+03,6.416957e+03
1.078015e+03,6.425914e+03
1.078979e+03,6.434828e+03
1.079943e+03,6.436357e+03
1.080907e+03,6.435342e+03
1.081872e+03,6.431844e+03
1.082836e+03,6.424280e+03
1.083800e+03,6.419346e+03
1.084764e+03,6.421909e+03
1.085729e+03,6.427274e+03
1.086693e+03,6.436519e+03
1.087657e+03,6.445395e+03
1.088621e+03,6.445268e+03
1.089585e+03,6.426610e+03
1.090550e+03,6.405314e+03
1.091514e+03,6.385454e+03
1.092478e+03,6.370065e+03
1.093442e+03,6.361178e+03
1.094406e+03,6.360604e+03
1.095371e+03,6.363844e+03
1.096335e+03,6.372600e+03
1.097299e+03,6.380228e+03
1.098263e+03,6.382073e+03
1.099228e+03,6.377493e+03
1.100192e+03,6.372319e+03
1.101156e+03,6.365815e+03
1.102120e+03,6.359631e+03
1.103085e+03,6.355303e+03
1.104049e+03,6.352350e+03
1.105013e+03,6.349632e+03
1.105977e+03,6.349649e+03
1.106942e+03,6.347561e+03
1.107906e+03,6.342805e+03
1.108870e+03,6.336219e+03
1.109834e+03,6.327484e+03
1.110799e+03,6.315290e+03
1.111763e+03,6.306750e+03
1.112727e+03,6.304530e+03
1.113691e+03,6.306259e+03
1.114656e+03,6.310906e+03
1.115620e+03,6.317934e+03
1.116584e+03,6.324344e+03
1.117548e+03,6.329765e+03
1.118512e+03,6.329472e+03
1.119477e+03,6.320986e+03
1.120441e+03,6.307310e+03
1.121405e+03,6.293803e+03
1.122369e+03,6.280894e+03
1.123334e+03,6.268162e+03
1.124298e+03,6.255125e+03
1.125262e+03,6.244835e+03
1.126226e+03,6.240078e+03
1.127191e+03,6.241853e+03
1.128155e+03,6.244544e+03
1.129119e+03,6.245929e+03
1.130083e+03,6.248271e+03
1.131047e+03,6.252851e+03
1.132012e+03,6.257171e+03
1.132976e+03,6.257799e+03
1.133940e+03,6.254693e+03
1.134904e+03,6.246821e+03
1.135869e+03,6.232623e+03
1.136833e+03,6.218953e+03
1.137797e+03,6.214034e+03
1.138761e+03,6.223482e+03
1.139726e+03,6.227928e+03
1.140690e+03,6.224845e+03
1.141654e+03,6.219250e+03
1.142618e+03,6.213256e+03
1.143583e+03,6.207236e+03
1.144547e+03,6.200557e+03
1.145511e+03,6.192537e+03
1.146475e+03,6.185277e+03
1.147439e+03,6.178271e+03
1.148404e+03,6.174348e+03
1.149368e+03,6.178170e+03
1.150332e+03,6.190227e+03
1.151296e+03,6.196312e+03
1.152261e+03,6.191229e+03
1.153225e+03,6.180947e+03
1.154189e+03,6.175849e+03
1.155153e+03,6.177195e+03
1.156118e+03,6.173564e+03
1.157082e+03,6.166832e+03
1.158046e+03,6.161106e+03
1.159010e+03,6.155158e+03
1.159974e+03,6.150925e+03
1.160939e+03,6.156497e+03
1.161903e+03,6.168120e+03
1.162867e+03,6.167321e+03
1.163831e+03,6.149466e+03
1.164796e+03,6.128229e+03
1.165760e+03,6.123709e+03
1.166724e+03,6.128858e+03
1.167688e+03,6.118145e+03
1.168653e+03,6.093711e+03
1.169617e+03,6.076575e+03
1.170581e+03,6.085475e+03
1.171545e+03,6.103623e+03
1.172510e+03,6.106846e+03
1.173474e+03,6.099839e+03
1.174438e+03,6.090367e+03
1.175402e+03,6.079352e+03
1.176366e+03,6.070680e+03
1.177331e+03,6.070295e+03
1.178295e+03,6.074234e+03
1.179259e+03,6.078049e+03
1.180223e+03,6.079452e+03
1.181188e+03,6.075987e+03
1.182152e+03,6.063737e+03
1.183116e+03,6.049259e+03
1.184080e+03,6.036628e+03
1.185045e+03,6.027687e+03
1.186009e+03,6.024156e+03
1.186973e+03,6.031579e+03
1.187937e+03,6.037774e+03
1.188901e+03,6.034769e+03
1.189866e+03,6.029173e+03
1.190830e+03,6.025733e+03
1.191794e+03,6.023817e+03
1.192758e+03,6.019364e+03
1.193723e+03,6.009328e+03
1.194687e+03,6.003910e+03
1.195651e+03,6.008353e+03
1.196615e+03,6.018724e+03
1.197580e+03,6.025371e+03
1.198544e+03,6.023670e+03
1.199508e+03,6.016410e+03
1.200472e+03,6.005805e+03
1.201437e+03,5.993602e+03
1.202401e+03,5.981100e+03
1.203365e+03,5.969096e+03
1.204329e+03,5.963125e+03
1.205293e+03,5.963732e+03
1.206258e+03,5.966947e+03
1.207222e+03,5.970838e+03
1.208186e+03,5.974502e+03
1.209150e+03,5.977587e+03
1.210115e+03,5.978669e+03
1.211079e+03,5.974589e+03
1.212043e+03,5.964835e+03
1.213007e+03,5.952552e+03
1.213972e+03,5.943896e+03
1.214936e+03,5.939333e+03
1.215900e+03,5.929342e+03
1.216864e+03,5.914664e+03
1.217828e+03,5.907165e+03
1.218793e+03,5.917922e+03
1.219757e+03,5.933756e+03
1.220721e+03,5.928618e+03
1.221685e+03,5.910743e+03
1.222650e+03,5.898697e+03
1.223614e+03,5.895377e+03
1.224578e+03,5.896628e+03
1.225542e+03,5.906229e+03
1.226507e+03,5.917662e+03
1.227471e+03,5.921698e+03
1.228435e+03,5.917455e+03
1.229399e+03,5.909584e+03
1.230364e+03,5.904464e+03
1.231328e+03,5.895059e+03
1.232292e+03,5.872470e+03
1.233256e+03,5.850149e+03
1.234220e+03,5.844294e+03
1.235185e+03,5.866891e+03
1.236149e+03,5.881488e+03
1.237113e+03,5.874304e+03
1.238077e+03,5.864201e+03
1.239042e+03,5.857049e+03
1.240006e+03,5.850576e+03
1.240970e+03,5.845368e+03
1.241934e+03,5.842432e+03
1.242899e+03,5.838390e+03
1.243863e+03,5.833193e+03
1.244827e+03,5.828998e+03
1.245791e+03,5.828756e+03
1.246755e+03,5.833961e+03
1.247720e+03,5.834125e+03
1.248684e+03,5.829037e+03
1.249648e+03,5.822615e+03
1.250612e+03,5.815715e+03
1.251577e+03,5.808560e+03
1.252541e+03,5.805202e+03
1.253505e+03,5.804605e+03
1.254469e+03,5.803721e+03
1.255434e+03,5.802765e+03
1.256398e+03,5.802506e+03
1.257362e+03,5.800209e+03
1.258326e+03,5.797408e+03
1.259291e+03,5.803011e+03
1.260255e+03,5.813866e+03
1.261219e+03,5.814709e+03
1.262183e+03,5.791169e+03
1.263147e+03,5.765896e+03
1.264112e+03,5.754274e+03
1.265076e+03,5.751477e+03
1.266040e+03,5.749285e+03
1.267004e+03,5.745177e+03
1.267969e+03,5.745080e+03
1.268933e+03,5.760654e+03
1.269897e+03,5.776981e+03
1.270861e+03,5.777493e+03
1.271826e+03,5.760076e+03
1.272790e+03,5.750078e+03
1.273754e+03,5.756914e+03
1.274718e+03,5.759226e+03
1.275682e+03,5.755328e+03
1.276647e+03,5.748021e+03
1.277611e+03,5.737917e+03
1.278575e+03,5.723354e+03
1.279539e+03,5.713075e+03
1.280504e+03,5.710538e+03
1.281468e+03,5.711446e+03
1.282432e+03,5.712204e+03
1.283396e+03,5.712598e+03
1.284361e+03,5.711125e+03
1.285325e+03,5.707417e+03
1.286289e+03,5.705536e+03
1.287253e+03,5.706242e+03
1.288218e+03,5.706592e+03
1.289182e+03,5.706144e+03
1.290146e+03,5.704117e+03
1.291110e+03,5.698690e+03
1.292074e+03,5.691570e+03
1.293039e+03,5.686187e+03
1.294003e+03,5.686907e+03
1.294967e+03,5.684132e+03
1.295931e+03,5.672611e+03
1.296896e+03,5.659526e+03
1.297860e+03,5.652091e+03
1.298824e+03,5.652298e+03
1.299788e+03,5.647587e+03
1.300753e+03,5.627937e+03
1.301717e+03,5.615744e+03
1.302681e+03,5.623510e+03
1.303645e+03,5.643312e+03
1.304609e+03,5.652420e+03
1.305574e+03,5.647266e+03
1.306538e+03,5.640041e+03
1.307502e+03,5.635231e+03
1.308466e+03,5.630250e+03
1.309431e+03,5.617645e+03
1.310395e+03,5.601669e+03
1.311359e+03,5.598958e+03
1.312323e+03,5.604376e+03
1.313288e+03,5.603660e+03
1.314252e+03,5.591284e+03
1.315216e+03,5.579767e+03
1.316180e+03,5.580152e+03
1.317145e+03,5.586521e+03
1.318109e+03,5.589882e+03
1.319073e+03,5.587183e+03
1.320037e+03,5.584628e+03
1.321001e+03,5.590237e+03
1.321966e+03,5.590846e+03
1.322930e+03,5.578294e+03
1.323894e+03,5.561598e+03
1.324858e+03,5.554115e+03
1.325823e+03,5.562135e+03
1.326787e+03,5.563396e+03
1.327751e+03,5.552549e+03
1.328715e+03,5.542083e+03
1.329680e+03,5.541738e+03
1.330644e+03,5.549159e+03
1.331608e+03,5.552427e+03
1.332572e+03,5.551431e+03
1.333536e+03,5.551916e+03
1.334501e+03,5.554967e+03
1.335465e+03,5.555427e+03
1.336429e+03,5.548968e+03
1.337393e+03,5.539574e+03
1.338358e+03,5.531627e+03
1.339322e+03,5.525141e+03
1.340286e+03,5.518424e+03
1.341250e+03,5.509058e+03
1.342215e+03,5.500857e+03
1.343179e+03,5.500936e+03
1.344143e+03,5.505304e+03
1.345107e+03,5.505814e+03
1.346072e+03,5.498670e+03
1.347036e+03,5.492547e+03
1.348000e+03,5.485345e+03
1.348964e+03,5.480236e+03
1.349928e+03,5.481633e+03
1.350893e+03,5.486638e+03
1.351857e+03,5.483539e+03
1.352821e+03,5.471526e+03
1.353785e+03,5.461385e+03
1.354750e+03,5.453771e+03
1.355714e+03,5.446639e+03
1.356678e+03,5.440749e+03
1.357642e+03,5.437694e+03
1.358607e+03,5.437632e+03
1.359571e+03,5.438664e+03
1.360535e+03,5.438298e+03
1.361499e+03,5.436904e+03
1.362464e+03,5.434105e+03
1.363428e+03,5.427357e+03
1.364392e+03,5.423021e+03
1.365356e+03,5.424847e+03
1.366320e+03,5.429458e+03
1.367285e+03,5.427106e+03
1.368249e+03,5.415707e+03
1.369213e+03,5.408826e+03
1.370177e+03,5.410829e+03
1.371142e+03,5.414042e+03
1.372106e+03,5.409445e+03
1.373070e+03,5.397942e+03
1.374034e+03,5.383969e+03
1.374999e+03,5.369813e+03
1.375963e+03,5.363439e+03
1.376927e+03,5.371352e+03
1.377891e+03,5.381683e+03
1.378855e+03,5.383411e+03
1.379820e+03,5.377784e+03
1.380784e+03,5.363417e+03
1.381748e+03,5.342055e+03
1.382712e+03,5.329911e+03
1.383677e+03,5.336121e+03
1.384641e+03,5.341822e+03
1.385605e+03,5.340500e+03
1.386569e+03,5.334349e+03
1.387534e+03,5.326873e+03
1.388498e+03,5.317721e+03
1.389462e+03,5.312713e+03
1.390426e+03,5.310846e+03
1.391391e+03,5.310875e+03
1.392355e+03,5.314891e+03
1.393319e+03,5.320670e+03
1.394283e+03,5.320004e+03
1.395247e+03,5.315269e+03
1.396212e+03,5.314454e+03
1.397176e+03,5.319733e+03
1.398140e+03,5.323447e+03
1.399104e+03,5.320611e+03
1.400069e+03,5.312855e+03
1.401033e+03,5.296475e+03
1.401997e+03,5.276875e+03
1.402961e+03,5.269072e+03
1.403926e+03,5.282536e+03
1.404890e+03,5.284837e+03
1.405854e+03,5.271705e+03
1.406818e+03,5.257655e+03
1.407782e+03,5.254482e+03
1.408747e+03,5.259668e+03
1.409711e+03,5.256958e+03
1.410675e+03,5.246181e+03
1.411639e+03,5.240515e+03
1.412604e+03,5.245317e+03
1.413568e+03,5.250375e+03
1.414532e+03,5.248650e+03
1.415496e+03,5.245567e+03
1.416461e+03,5.243453e+03
1.417425e+03,5.240708e+03
1.418389e+03,5.236174e+03
1.419353e+03,5.227266e+03
1.420318e+03,5.221399e+03
1.421282e+03,5.223875e+03
1.422246e+03,5.226352e+03
1.423210e+03,5.220821e+03
1.424174e+03,5.209108e+03
1.425139e+03,5.196921e+03
1.426103e+03,5.183456e+03
1.427067e+03,5.174451e+03
1.428031e+03,5.172626e+03
1.428996e+03,5.174283e+03
1.429960e+03,5.176926e+03
1.430924e+03,5.178352e+03
1.431888e+03,5.176878e+03
1.432853e+03,5.172715e+03
1.433817e+03,5.166344e+03
1.434781e+03,5.153531e+03
1.435745e+03,5.147732e+03
1.436709e+03,5.151157e+03
1.437674e+03,5.156033e+03
1.438638e+03,5.158757e+03
1.439602e+03,5.160391e+03
1.440566e+03,5.154235e+03
1.441531e+03,5.140670e+03
1.442495e+03,5.129311e+03
1.443459e+03,5.122590e+03
1.444423e+03,5.119817e+03
1.445388e+03,5.125210e+03
1.446352e+03,5.128870e+03
1.447316e+03,5.118706e+03
1.448280e+03,5.099090e+03
1.449245e+03,5.087404e+03
1.450209e+03,5.094493e+03
1.451173e+03,5.099046e+03
1.452137e+03,5.094325e+03
1.453101e+03,5.087093e+03
1.454066e+03,5.085903e+03
1.455030e+03,5.090047e+03
1.455994e+03,5.093333e+03
1.456958e+03,5.095129e+03
1.457923e+03,5.090619e+03
1.458887e+03,5.074717e+03
1.459851e+03,5.059573e+03
1.460815e+03,5.056330e+03
1.461780e+03,5.057073e+03
1.462744e+03,5.060300e+03
1.463708e+03,5.065209e+03
1.464672e+03,5.062344e+03
1.465636e+03,5.047728e+03
1.466601e+03,5.037046e+03
1.467565e+03,5.031648e+03
1.468529e+03,5.031386e+03
1.469493e+03,5.038135e+03
1.470458e+03,5.047218e+03
1.471422e+03,5.041391e+03
1.472386e+03,5.026214e+03
1.473350e+03,5.019693e+03
1.474315e+03,5.029536e+03
1.475279e+03,5.038484e+03
1.476243e+03,5.035851e+03
1.477207e+03,5.026531e+03
1.478172e+03,5.013508e+03
1.479136e+03,4.998982e+03
1.480100e+03,4.988852e+03
1.481064e+03,4.984719e+03
1.482028e+03,4.980967e+03
1.482993e+03,4.977566e+03
1.483957e+03,4.975506e+03
1.484921e+03,4.975274e+03
1.485885e+03,4.975353e+03
1.486850e+03,4.970900e+03
1.487814e+03,4.963177e+03
1.488778e+03,4.959079e+03
1.489742e+03,4.963867e+03
1.490707e+03,4.962581e+03
1.491671e+03,4.947417e+03
1.492635e+03,4.934018e+03
1.493599e+03,4.926606e+03
1.494563e+03,4.923279e+03
1.495528e+03,4.922876e+03
1.496492e+03,4.924533e+03
1.497456e+03,4.926748e+03
1.498420e+03,4.930865e+03
1.499385e+03,4.934345e+03
1.500349e+03,4.934926e+03
1.501313e+03,4.934466e+03
1.502277e+03,4.932698e+03
1.503242e+03,4.930203e+03
1.504206e+03,4.928620e+03
1.505170e+03,4.928817e+03
1.506134e+03,4.922428e+03
1.507099e+03,4.906546e+03
1.508063e+03,4.893703e+03
1.509027e+03,4.889223e+03
1.509991e+03,4.888724e+03
1.510955e+03,4.885939e+03
1.511920e+03,4.881175e+03
1.512884e+03,4.875552e+03
1.513848e+03,4.871271e+03
1.514812e+03,4.869518e+03
1.515777e+03,4.867855e+03
1.516741e+03,4.865397e+03
1.517705e+03,4.858360e+03
1.518669e+03,4.852680e+03
1.519634e+03,4.855408e+03
1.520598e+03,4.865194e+03
1.521562e+03,4.872490e+03
1.522526e+03,4.875857e+03
1.523490e+03,4.874327e+03
1.524455e+03,4.867852e+03
1.525419e+03,4.858519e+03
1.526383e+03,4.846331e+03
1.527347e+03,4.834530e+03
1.528312e+03,4.829278e+03
1.529276e+03,4.830529e+03
1.530240e+03,4.829297e+03
1.531204e+03,4.821750e+03
1.532169e+03,4.815482e+03
1.533133e+03,4.811055e+03
1.534097e+03,4.808421e+03
1.535061e+03,4.808408e+03
1.536026e+03,4.808083e+03
1.536990e+03,4.802168e+03
1.537954e+03,4.794107e+03
1.538918e+03,4.790221e+03
1.539882e+03,4.792127e+03
1.540847e+03,4.792680e+03
1.541811e+03,4.787453e+03
1.542775e+03,4.780828e+03
1.543739e+03,4.775868e+03
1.544704e+03,4.772025e+03
1.545668e+03,4.766970e+03
1.546632e+03,4.761728e+03
1.547596e+03,4.758122e+03
1.548561e+03,4.756331e+03
1.549525e+03,4.757268e+03
1.550489e+03,4.760742e+03
1.551453e+03,4.764757e+03
1.552417e+03,4.771995e+03
1.553382e+03,4.775686e+03
1.554346e+03,4.770732e+03
1.555310e+03,4.759193e+03
1.556274e+03,4.751849e+03
1.557239e+03,4.748134e+03
1.558203e+03,4.740333e+03
1.559167e+03,4.726242e+03
1.560131e+03,4.715385e+03
1.561096e+03,4.722572e+03
1.562060e+03,4.731752e+03
1.563024e+03,4.725677e+03
1.563988e+03,4.711924e+03
1.564953e+03,4.709242e+03
1.565917e+03,4.723193e+03
1.566881e+03,4.730287e+03
1.567845e+03,4.728716e+03
1.568809e+03,4.722648e+03
1.569774e+03,4.712796e+03
1.570738e+03,4.704479e+03
1.571702e+03,4.709974e+03
1.572666e+03,4.717939e+03
1.573631e+03,4.711835e+03
1.574595e+03,4.691530e+03
1.575559e+03,4.677598e+03
1.576523e+03,4.671538e+03
1.577488e+03,4.675119e+03
1.578452e+03,4.688964e+03
1.579416e+03,4.701064e+03
1.580380e+03,4.698457e+03
1.581344e+03,4.687440e+03
1.582309e+03,4.679483e+03
1.583273e+03,4.674121e+03
1.584237e+03,4.667868e+03
1.585201e+03,4.658906e+03
1.586166e+03,4.651657e+03
1.587130e+03,4.643598e+03
1.588094e+03,4.640250e+03
1.589058e+03,4.647750e+03
1.590023e+03,4.658527e+03
1.590987e+03,4.653255e+03
1.591951e+03,4.640272e+03
1.592915e+03,4.636265e+03
1.593880e+03,4.639806e+03
1.594844e+03,4.640813e+03
1.595808e+03,4.635774e+03
1.596772e+03,4.627692e+03
1.597736e+03,4.615639e+03
1.598701e+03,4.607128e+03
1.599665e+03,4.609940e+03
1.600629e+03,4.620259e+03
1.601593e+03,4.624021e+03
1.602558e+03,4.621437e+03
1.603522e+03,4.610937e+03
1.604486e+03,4.589377e+03
1.605450e+03,4.574835e+03
1.606415e+03,4.588794e+03
1.607379e+03,4.596880e+03
1.608343e+03,4.580223e+03
1.609307e+03,4.555679e+03
1.610271e+03,4.559456e+03
1.611236e+03,4.582383e+03
1.612200e+03,4.582479e+03
1.613164e+03,4.562228e+03
1.614128e+03,4.544589e+03
1.615093e+03,4.536321e+03
1.616057e+03,4.537493e+03
1.617021e+03,4.562039e+03
1.617985e+03,4.577817e+03
1.618950e+03,4.561803e+03
1.619914e+03,4.524851e+03
1.620878e+03,4.510260e+03
1.621842e+03,4.512990e+03
1.622807e+03,4.509731e+03
1.623771e+03,4.496516e+03
1.624735e+03,4.490280e+03
1.625699e+03,4.507242e+03
1.626663e+03,4.519445e+03
1.627628e+03,4.512736e+03
1.628592e+03,4.498417e+03
1.629556e+03,4.495653e+03
1.630520e+03,4.503515e+03
1.631485e+03,4.502111e+03
1.632449e+03,4.492569e+03
1.633413e+03,4.482497e+03
1.634377e+03,4.474832e+03
1.635342e+03,4.468668e+03
1.636306e+03,4.465536e+03
1.637270e+03,4.462289e+03
1.638234e+03,4.456675e+03
1.639198e+03,4.450875e+03
1.640163e+03,4.447368e+03
1.641127e+03,4.447158e+03
1.642091e+03,4.451509e+03
1.643055e+03,4.458229e+03
1.644020e+03,4.461313e+03
1.644984e+03,4.453084e+03
1.645948e+03,4.445214e+03
1.646912e+03,4.442798e+03
1.647877e+03,4.439807e+03
1.648841e+03,4.430071e+03
1.649805e+03,4.417221e+03
1.650769e+03,4.412193e+03
1.651734e+03,4.412125e+03
1.652698e+03,4.411772e+03
1.653662e+03,4.408673e+03
1.654626e+03,4.402423e+03
1.655590e+03,4.387154e+03
1.656555e+03,4.380716e+03
1.657519e+03,4.393403e+03
1.658483e+03,4.410403e+03
1.659447e+03,4.404468e+03
1.660412e+03,4.385580e+03
1.661376e+03,4.377902e+03
1.662340e+03,4.379859e+03
1.663304e+03,4.378620e+03
1.664269e+03,4.359696e+03
1.665233e+03,4.351940e+03
1.666197e+03,4.356838e+03
1.667161e+03,4.365150e+03
1.668125e+03,4.375840e+03
1.669090e+03,4.382565e+03
1.670054e+03,4.371001e+03
1.671018e+03,4.352422e+03
1.671982e+03,4.342916e+03
1.672947e+03,4.344051e+03
1.673911e+03,4.344505e+03
1.674875e+03,4.341172e+03
1.675839e+03,4.338219e+03
1.676804e+03,4.338739e+03
1.677768e+03,4.338335e+03
1.678732e+03,4.328688e+03
1.679696e+03,4.316678e+03
1.680661e+03,4.306044e+03
1.681625e+03,4.296936e+03
1.682589e+03,4.293927e+03
1.683553e+03,4.298921e+03
1.684517e+03,4.299276e+03
1.685482e+03,4.294487e+03
1.686446e+03,4.287995e+03
1.687410e+03,4.280226e+03
1.688374e+03,4.275046e+03
1.689339e+03,4.280436e+03
1.690303e+03,4.283116e+03
1.691267e+03,4.271875e+03
1.692231e+03,4.255852e+03
1.693196e+03,4.247847e+03
1.694160e+03,4.246185e+03
1.695124e+03,4.250825e+03
1.696088e+03,4.260606e+03
1.697052e+03,4.266493e+03
1.698017e+03,4.256991e+03
1.698981e+03,4.249813e+03
1.699945e+03,4.250369e+03
1.700909e+03,4.248651e+03
1.701874e+03,4.241949e+03
1.702838e+03,4.235502e+03
1.703802e+03,4.235888e+03
1.704766e+03,4.238618e+03
1.705731e+03,4.241314e+03
1.706695e+03,4.243921e+03
1.707659e+03,4.239155e+03
1.708623e+03,4.222334e+03
1.709588e+03,4.213471e+03
1.710552e+03,4.213933e+03
1.711516e+03,4.214587e+03
1.712480e+03,4.209139e+03
1.713444e+03,4.199910e+03
1.714409e+03,4.187303e+03
1.715373e+03,4.176491e+03
1.716337e+03,4.175639e+03
1.717301e+03,4.185978e+03
1.718266e+03,4.186259e+03
1.719230e+03,4.175915e+03
1.720194e+03,4.175060e+03
1.721158e+03,4.190351e+03
1.722123e+03,4.199382e+03
1.723087e+03,4.177345e+03
1.724051e+03,4.155180e+03
1.725015e+03,4.150541e+03
1.725979e+03,4.154223e+03
1.726944e+03,4.150750e+03
1.727908e+03,4.142640e+03
1.728872e+03,4.141875e+03
1.729836e+03,4.145172e+03
1.730801e+03,4.144483e+03
1.731765e+03,4.134084e+03
1.732729e+03,4.128940e+03
1.733693e+03,4.132746e+03
1.734658e+03,4.135670e+03
1.735622e+03,4.133014e+03
1.736586e+03,4.126562e+03
1.737550e+03,4.115250e+03
1.738515e+03,4.104769e+03
1.739479e+03,4.104870e+03
1.740443e+03,4.113275e+03
1.741407e+03,4.113267e+03
1.742371e+03,4.103402e+03
1.743336e+03,4.100433e+03
1.744300e+03,4.105239e+03
1.745264e+03,4.107976e+03
1.746228e+03,4.105822e+03
1.747193e+03,4.099878e+03
1.748157e+03,4.087935e+03
1.749121e+03,4.078798e+03
1.750085e+03,4.073542e+03
1.751050e+03,4.069347e+03
1.752014e+03,4.071335e+03
1.752978e+03,4.077498e+03
1.753942e+03,4.079828e+03
1.754906e+03,4.076140e+03
1.755871e+03,4.073095e+03
1.756835e+03,4.071208e+03
1.757799e+03,4.064218e+03
1.758763e+03,4.054659e+03
1.759728e+03,4.046219e+03
1.760692e+03,4.039554e+03
1.761656e+03,4.036634e+03
1.762620e+03,4.039810e+03
1.763585e+03,4.045140e+03
1.764549e+03,4.046797e+03
1.765513e+03,4.043201e+03
1.766477e+03,4.043679e+03
1.767442e+03,4.047664e+03
1.768406e+03,4.043388e+03
1.769370e+03,4.025519e+03
1.770334e+03,4.013551e+03
1.771298e+03,4.019628e+03
1.772263e+03,4.024054e+03
1.773227e+03,4.021945e+03
1.774191e+03,4.018869e+03
1.775155e+03,4.024902e+03
1.776120e+03,4.031489e+03
1.777084e+03,4.025770e+03
1.778048e+03,4.010836e+03
1.779012e+03,3.994413e+03
1.779977e+03,3.975429e+03
1.780941e+03,3.970004e+03
1.781905e+03,3.976108e+03
1.782869e+03,3.982537e+03
1.783833e+03,3.984286e+03
1.784798e+03,3.987665e+03
1.785762e+03,4.003505e+03
1.786726e+03,4.011816e+03
1.787690e+03,4.001828e+03
1.788655e+03,3.983106e+03
1.789619e+03,3.971104e+03
1.790583e+03,3.963487e+03
1.791547e+03,3.953866e+03
1.792512e+03,3.943228e+03
1.793476e+03,3.937497e+03
1.794440e+03,3.935538e+03
1.795404e+03,3.939771e+03
1.796369e+03,3.949484e+03
1.797333e+03,3.951897e+03
1.798297e+03,3.934236e+03
1.799261e+03,3.918395e+03
1.800225e+03,3.922990e+03
1.801190e+03,3.928759e+03
1.802154e+03,3.925888e+03
1.803118e+03,3.914501e+03
1.804082e+03,3.888672e+03
1.805047e+03,3.860344e+03
1.806011e+03,3.858896e+03
1.806975e+03,3.884145e+03
1.807939e+03,3.898727e+03
1.808904e+03,3.893992e+03
1.809868e+03,3.887754e+03
1.810832e+03,3.882647e+03
1.811796e+03,3.881020e+03
1.812760e+03,3.887816e+03
1.813725e+03,3.893234e+03
1.814689e+03,3.891156e+03
1.815653e+03,3.884938e+03
1.816617e+03,3.876184e+03
1.817582e+03,3.866365e+03
1.818546e+03,3.858850e+03
1.819510e+03,3.853201e+03
1.820474e+03,3.850245e+03
1.821439e+03,3.850754e+03
1.822403e+03,3.849593e+03
1.823367e+03,3.846997e+03
1.824331e+03,3.840115e+03
1.825296e+03,3.827041e+03
1.826260e+03,3.816196e+03
1.827224e+03,3.821394e+03
1.828188e+03,3.828766e+03
1.829152e+03,3.827159e+03
1.830117e+03,3.823269e+03
1.831081e+03,3.821914e+03
1.832045e+03,3.821880e+03
1.833009e+03,3.826493e+03
1.833974e+03,3.834675e+03
1.834938e+03,3.838013e+03
1.835902e+03,3.832652e+03
1.836866e+03,3.824724e+03
1.837831e+03,3.813906e+03
1.838795e+03,3.798752e+03
1.839759e+03,3.780165e+03
1.840723e+03,3.769376e+03
1.841688e+03,3.777633e+03
1.842652e+03,3.787974e+03
1.843616e+03,3.795336e+03
1.844580e+03,3.795299e+03
1.845544e+03,3.779342e+03
1.846509e+03,3.759357e+03
1.847473e+03,3.760164e+03
1.848437e+03,3.770077e+03
1.849401e+03,3.765709e+03
1.850366e+03,3.746890e+03
1.851330e+03,3.735378e+03
1.852294e+03,3.731376e+03
1.853258e+03,3.724819e+03
1.854223e+03,3.712035e+03
1.855187e+03,3.707515e+03
1.856151e+03,3.723843e+03
1.857115e+03,3.736589e+03
1.858079e+03,3.741027e+03
1.859044e+03,3.737729e+03
1.860008e+03,3.722558e+03
1.860972e+03,3.707989e+03
1.861936e+03,3.707226e+03
1.862901e+03,3.714395e+03
1.863865e+03,3.719654e+03
1.864829e+03,3.720362e+03
1.865793e+03,3.713028e+03
1.866758e+03,3.701643e+03
1.867722e+03,3.693953e+03
1.868686e+03,3.690999e+03
1.869650e+03,3.695050e+03
1.870615e+03,3.707484e+03
1.871579e+03,3.708801e+03
1.872543e+03,3.694276e+03
1.873507e+03,3.684235e+03
1.874471e+03,3.698755e+03
1.875436e+03,3.710160e+03
1.876400e+03,3.708423e+03
1.877364e+03,3.698453e+03
1.878328e+03,3.681430e+03
1.879293e+03,3.662063e+03
1.880257e+03,3.645797e+03
1.881221e+03,3.634000e+03
1.882185e+03,3.635144e+03
1.883150e+03,3.650486e+03
1.884114e+03,3.645438e+03
1.885078e+03,3.623061e+03
1.886042e+03,3.612737e+03
1.887006e+03,3.623867e+03
1.887971e+03,3.637250e+03
1.888935e+03,3.653090e+03
1.889899e+03,3.661839e+03
1.890863e+03,3.658513e+03
1.891828e+03,3.649401e+03
1.892792e+03,3.644376e+03
1.893756e+03,3.636058e+03
1.894720e+03,3.614561e+03
1.895685e+03,3.596200e+03
1.896649e+03,3.598736e+03
1.897613e+03,3.612776e+03
1.898577e+03,3.612203e+03
1.899542e+03,3.602012e+03
1.900506e+03,3.590020e+03
1.901470e+03,3.576071e+03
1.902434e+03,3.576575e+03
1.903398e+03,3.590750e+03
1.904363e+03,3.595917e+03
1.905327e+03,3.586016e+03
1.906291e+03,3.577195e+03
1.907255e+03,3.574300e+03
1.908220e+03,3.575106e+03
1.909184e+03,3.580949e+03
1.910148e+03,3.583617e+03
1.911112e+03,3.571774e+03
1.912077e+03,3.560001e+03
1.913041e+03,3.565872e+03
1.914005e+03,3.573321e+03
1.914969e+03,3.561127e+03
1.915933e+03,3.538339e+03
1.916898e+03,3.542605e+03
1.917862e+03,3.560316e+03
1.918826e+03,3.558854e+03
1.919790e+03,3.533299e+03
1.920755e+03,3.525895e+03
1.921719e+03,3.533724e+03
1.922683e+03,3.536251e+03
1.923647e+03,3.530462e+03
1.924612e+03,3.523281e+03
1.925576e+03,3.512344e+03
1.926540e+03,3.512496e+03
1.927504e+03,3.526864e+03
1.928469e+03,3.534132e+03
1.929433e+03,3.501909e+03
1.930397e+03,3.470356e+03
1.931361e+03,3.476458e+03
1.932325e+03,3.490183e+03
1.933290e+03,3.489309e+03
1.934254e+03,3.482627e+03
1.935218e+03,3.487488e+03
1.936182e+03,3.493496e+03
1.937147e+03,3.486614e+03
1.938111e+03,3.468905e+03
1.939075e+03,3.452975e+03
1.940039e+03,3.441025e+03
1.941004e+03,3.437221e+03
1.941968e+03,3.439763e+03
1.942932e+03,3.445340e+03
1.943896e+03,3.459153e+03
1.944860e+03,3.461085e+03
1.945825e+03,3.450259e+03
1.946789e+03,3.438804e+03
1.947753e+03,3.432891e+03
1.948717e+03,3.428287e+03
1.949682e+03,3.423476e+03
1.950646e+03,3.417720e+03
1.951610e+03,3.408655e+03
1.952574e+03,3.402129e+03
1.953539e+03,3.411086e+03
1.954503e+03,3.423117e+03
1.955467e+03,3.426107e+03
1.956431e+03,3.423335e+03
1.957396e+03,3.420778e+03
1.958360e+03,3.417410e+03
1.959324e+03,3.412240e+03
1.960288e+03,3.407201e+03
1.961252e+03,3.405827e+03
1.962217e+03,3.407138e+03
1.963181e+03,3.397584e+03
1.964145e+03,3.377899e+03
1.965109e+03,3.364710e+03
1.966074e+03,3.369211e+03
1.967038e+03,3.380821e+03
1.968002e+03,3.397310e+03
1.968966e+03,3.404843e+03
1.969931e+03,3.396145e+03
1.970895e+03,3.380493e+03
1.971859e+03,3.360522e+03
1.972823e+03,3.349690e+03
1.973787e+03,3.354417e+03
1.974752e+03,3.362667e+03
1.975716e+03,3.357179e+03
1.976680e+03,3.346915e+03
1.977644e+03,3.345053e+03
1.978609e+03,3.348252e+03
1.979573e+03,3.347517e+03
1.980537e+03,3.342957e+03
1.981501e+03,3.335535e+03
1.982466e+03,3.328292e+03
1.983430e+03,3.329603e+03
1.984394e+03,3.340257e+03
1.985358e+03,3.345648e+03
1.986323e+03,3.345787e+03
1.987287e+03,3.343415e+03
1.988251e+03,3.338675e+03
1.989215e+03,3.331980e+03
1.990179e+03,3.324006e+03
1.991144e+03,3.316907e+03
1.992108e+03,3.312520e+03
1.993072e+03,3.308203e+03
1.994036e+03,3.301644e+03
1.995001e+03,3.290377e+03
1.995965e+03,3.270576e+03
1.996929e+03,3.258620e+03
1.997893e+03,3.277256e+03
1.998858e+03,3.298989e+03
1.999822e+03,3.296594e+03
2.000786e+03,3.288116e+03
2.001750e+03,3.295144e+03
2.002714e+03,3.308046e+03
2.003679e+03,3.293414e+03
2.004643e+03,3.266625e+03
2.005607e+03,3.255928e+03
2.006571e+03,3.257952e+03
2.007536e+03,3.251366e+03
2.008500e+03,3.239200e+03
2.009464e+03,3.227543e+03
2.010428e+03,3.219204e+03
2.011393e+03,3.222684e+03
2.012357e+03,3.239005e+03
2.013321e+03,3.247203e+03
2.014285e+03,3.243826e+03
2.015250e+03,3.236280e+03
2.016214e+03,3.225253e+03
2.017178e+03,3.214919e+03
2.018142e+03,3.205905e+03
2.019106e+03,3.202821e+03
2.020071e+03,3.211270e+03
2.021035e+03,3.216273e+03
2.021999e+03,3.207146e+03
2.022963e+03,3.198154e+03
2.023928e+03,3.195681e+03
2.024892e+03,3.196792e+03
2.025856e+03,3.198199e+03
2.026820e+03,3.201380e+03
2.027785e+03,3.207972e+03
2.028749e+03,3.213516e+03
2.029713e+03,3.212011e+03
2.030677e+03,3.208113e+03
2.031641e+03,3.209615e+03
2.032606e+03,3.210122e+03
2.033570e+03,3.195804e+03
2.034534e+03,3.172059e+03
2.035498e+03,3.168091e+03
2.036463e+03,3.175698e+03
2.037427e+03,3.173636e+03
2.038391e+03,3.162589e+03
2.039355e+03,3.154772e+03
2.040320e+03,3.150833e+03
2.041284e+03,3.152640e+03
2.042248e+03,3.159859e+03
2.043212e+03,3.161690e+03
2.044177e+03,3.158236e+03
2.045141e+03,3.157372e+03
2.046105e+03,3.159395e+03
2.047069e+03,3.156066e+03
2.048033e+03,3.131887e+03
2.048998e+03,3.122412e+03
2.049962e+03,3.132583e+03
2.050926e+03,3.143033e+03
2.051890e+03,3.142846e+03
2.052854e+03,3.135582e+03
2.053819e+03,3.117382e+03
2.054783e+03,3.102374e+03
2.055747e+03,3.101020e+03
2.056711e+03,3.106261e+03
2.057676e+03,3.117187e+03
2.058640e+03,3.123116e+03
2.059604e+03,3.114792e+03
2.060568e+03,3.100332e+03
2.061533e+03,3.092831e+03
2.062497e+03,3.088287e+03
2.063461e+03,3.081991e+03
2.064425e+03,3.076380e+03
2.065390e+03,3.077970e+03
2.066354e+03,3.080626e+03
2.067318e+03,3.071523e+03
2.068282e+03,3.057445e+03
2.069247e+03,3.050547e+03
2.070211e+03,3.049292e+03
2.071175e+03,3.050589e+03
2.072139e+03,3.053237e+03
2.073104e+03,3.052354e+03
2.074068e+03,3.048111e+03
2.075032e+03,3.051267e+03
2.075996e+03,3.058418e+03
2.076960e+03,3.059134e+03
2.077925e+03,3.051155e+03
2.078889e+03,3.046479e+03
2.079853e+03,3.045899e+03
2.080817e+03,3.048532e+03
2.081782e+03,3.053420e+03
2.082746e+03,3.050516e+03
2.083710e+03,3.033459e+03
2.084674e+03,3.022681e+03
2.085639e+03,3.020969e+03
2.086603e+03,3.022277e+03
2.087567e+03,3.019443e+03
2.088531e+03,3.015102e+03
2.089496e+03,3.008425e+03
2.090460e+03,2.998445e+03
2.091424e+03,2.988341e+03
2.092388e+03,2.982973e+03
2.093353e+03,2.987771e+03
2.094317e+03,2.988804e+03
2.095281e+03,2.976988e+03
2.096245e+03,2.966356e+03
2.097209e+03,2.978066e+03
2.098174e+03,2.986788e+03
2.099138e+03,2.982622e+03
2.100102e+03,2.973135e+03
2.101066e+03,2.961107e+03
2.102031e+03,2.952638e+03
2.102995e+03,2.959852e+03
2.103959e+03,2.966500e+03
2.104923e+03,2.954204e+03
2.105887e+03,2.940396e+03
2.106852e+03,2.953515e+03
2.107816e+03,2.971926e+03
2.108780e+03,2.975638e+03
2.109744e+03,2.968134e+03
2.110708e+03,2.957227e+03
2.111673e+03,2.946441e+03
2.112637e+03,2.937623e+03
2.113601e+03,2.928187e+03
2.114565e+03,2.911721e+03
2.115530e+03,2.895830e+03
2.116494e+03,2.901028e+03
2.117458e+03,2.925258e+03
2.118422e+03,2.941820e+03
2.119387e+03,2.948606e+03
2.120351e+03,2.946885e+03
2.121315e+03,2.937153e+03
2.122279e+03,2.926518e+03
2.123244e+03,2.915282e+03
2.124208e+03,2.907017e+03
2.125172e+03,2.901671e+03
2.126136e+03,2.894202e+03
2.127101e+03,2.883304e+03
2.128065e+03,2.881860e+03
2.129029e+03,2.888077e+03
2.129993e+03,2.894407e+03
2.130958e+03,2.896496e+03
2.131922e+03,2.892234e+03
2.132886e+03,2.882318e+03
2.133850e+03,2.877530e+03
2.134814e+03,2.881291e+03
2.135779e+03,2.883208e+03
2.136743e+03,2.877002e+03
2.137707e+03,2.869603e+03
2.138671e+03,2.862550e+03
2.139636e+03,2.858316e+03
2.140600e+03,2.861145e+03
2.141564e+03,2.858666e+03
2.142528e+03,2.850299e+03
2.143493e+03,2.845419e+03
2.144457e+03,2.847851e+03
2.145421e+03,2.845866e+03
2.146385e+03,2.835584e+03
2.147350e+03,2.829621e+03
2.148314e+03,2.833606e+03
2.149278e+03,2.838621e+03
2.150242e+03,2.832262e+03
2.151207e+03,2.829809e+03
2.152171e+03,2.833490e+03
2.153135e+03,2.835240e+03
2.154099e+03,2.831561e+03
2.155063e+03,2.828713e+03
2.156028e+03,2.829018e+03
2.156992e+03,2.831132e+03
2.157956e+03,2.833955e+03
2.158920e+03,2.829246e+03
2.159885e+03,2.807351e+03
2.160849e+03,2.793653e+03
2.161813e+03,2.804970e+03
2.162777e+03,2.815822e+03
2.163741e+03,2.802004e+03
2.164706e+03,2.785654e+03
2.165670e+03,2.776900e+03
2.166634e+03,2.774527e+03
2.167598e+03,2.776569e+03
2.168563e+03,2.780886e+03
2.169527e+03,2.785143e+03
2.170491e+03,2.785239e+03
2.171455e+03,2.778283e+03
2.172420e+03,2.770854e+03
2.173384e+03,2.768033e+03
2.174348e+03,2.766291e+03
2.175312e+03,2.759932e+03
2.176277e+03,2.753756e+03
2.177241e+03,2.757608e+03
2.178205e+03,2.758550e+03
2.179169e+03,2.747208e+03
2.180134e+03,2.736485e+03
2.181098e+03,2.746042e+03
2.182062e+03,2.756901e+03
2.183026e+03,2.753853e+03
2.183990e+03,2.743900e+03
2.184955e+03,2.732336e+03
2.185919e+03,2.726583e+03
2.186883e+03,2.736243e+03
2.187847e+03,2.743922e+03
2.188812e+03,2.721997e+03
2.189776e+03,2.695610e+03
2.190740e+03,2.691282e+03
2.191704e+03,2.696269e+03
2.192668e+03,2.705381e+03
2.193633e+03,2.714100e+03
2.194597e+03,2.715843e+03
2.195561e+03,2.712281e+03
2.196525e+03,2.701277e+03
2.197490e+03,2.689531e+03
2.198454e+03,2.692074e+03
2.199418e+03,2.697746e+03
2.200382e+03,2.697642e+03
2.201347e+03,2.694695e+03
2.202311e+03,2.688159e+03
2.203275e+03,2.681886e+03
2.204239e+03,2.678051e+03
2.205204e+03,2.674389e+03
2.206168e+03,2.675269e+03
2.207132e+03,2.675710e+03
2.208096e+03,2.661357e+03
2.209061e+03,2.645288e+03
2.210025e+03,2.647026e+03
2.210989e+03,2.655579e+03
2.211953e+03,2.656401e+03
2.212917e+03,2.656260e+03
2.213882e+03,2.652016e+03
2.214846e+03,2.647660e+03
2.215810e+03,2.663126e+03
2.216774e+03,2.673786e+03
2.217739e+03,2.660745e+03
2.218703e+03,2.638477e+03
2.219667e+03,2.630218e+03
2.220631e+03,2.626207e+03
2.221595e+03,2.613384e+03
2.222560e+03,2.600777e+03
2.223524e+03,2.606639e+03
2.224488e+03,2.616492e+03
2.225452e+03,2.613196e+03
2.226417e+03,2.607121e+03
2.227381e+03,2.605788e+03
2.228345e+03,2.610036e+03
2.229309e+03,2.623208e+03
2.230274e+03,2.634363e+03
2.231238e+03,2.635359e+03
2.232202e+03,2.629060e+03
2.233166e+03,2.616600e+03
2.234131e+03,2.608924e+03
2.235095e+03,2.615663e+03
2.236059e+03,2.623625e+03
2.237023e+03,2.606690e+03
2.237988e+03,2.587388e+03
2.238952e+03,2.581144e+03
2.239916e+03,2.579260e+03
2.240880e+03,2.575717e+03
2.241844e+03,2.569899e+03
2.242809e+03,2.558139e+03
2.243773e+03,2.549924e+03
2.244737e+03,2.557650e+03
2.245701e+03,2.566645e+03
2.246666e+03,2.563560e+03
2.247630e+03,2.557453e+03
2.248594e+03,2.556828e+03
2.249558e+03,2.559077e+03
2.250522e+03,2.562564e+03
2.251487e+03,2.562723e+03
2.252451e+03,2.552989e+03
2.253415e+03,2.539784e+03
2.254379e+03,2.532141e+03
2.255344e+03,2.529292e+03
2.256308e+03,2.532666e+03
2.257272e+03,2.535167e+03
2.258236e+03,2.527326e+03
2.259201e+03,2.520199e+03
2.260165e+03,2.516356e+03
2.261129e+03,2.513046e+03
2.262093e+03,2.504458e+03
2.263058e+03,2.501381e+03
2.264022e+03,2.509667e+03
2.264986e+03,2.518393e+03
2.265950e+03,2.517152e+03
2.266915e+03,2.515486e+03
2.267879e+03,2.515641e+03
2.268843e+03,2.509268e+03
2.269807e+03,2.493864e+03
2.270771e+03,2.480124e+03
2.271736e+03,2.471324e+03
2.272700e+03,2.471458e+03
2.273664e+03,2.479973e+03
2.274628e+03,2.489493e+03
2.275593e+03,2.497126e+03
2.276557e+03,2.502846e+03
2.277521e+03,2.508782e+03
2.278485e+03,2.507001e+03
2.279449e+03,2.486295e+03
2.280414e+03,2.475969e+03
2.281378e+03,2.477112e+03
2.282342e+03,2.478342e+03
2.283306e+03,2.473031e+03
2.284271e+03,2.462676e+03
2.285235e+03,2.447469e+03
2.286199e+03,2.437009e+03
2.287163e+03,2.439750e+03
2.288128e+03,2.443913e+03
2.289092e+03,2.446611e+03
2.290056e+03,2.443322e+03
2.291020e+03,2.433384e+03
2.291985e+03,2.427866e+03
2.292949e+03,2.428300e+03
2.293913e+03,2.428092e+03
2.294877e+03,2.426199e+03
2.295842e+03,2.430513e+03
2.296806e+03,2.438523e+03
2.297770e+03,2.441014e+03
2.298734e+03,2.437695e+03
2.299698e+03,2.431846e+03
2.300663e+03,2.424899e+03
2.301627e+03,2.419417e+03
2.302591e+03,2.412843e+03
2.303555e+03,2.399727e+03
2.304520e+03,2.383398e+03
2.305484e+03,2.375953e+03
2.306448e+03,2.376638e+03
2.307412e+03,2.385212e+03
2.308376e+03,2.395368e+03
2.309341e+03,2.392599e+03
2.310305e+03,2.384758e+03
2.311269e+03,2.383974e+03
2.312233e+03,2.387916e+03
2.313198e+03,2.391224e+03
2.314162e+03,2.392248e+03
2.315126e+03,2.390746e+03
2.316090e+03,2.385539e+03
2.317055e+03,2.371581e+03
2.318019e+03,2.359725e+03
2.318983e+03,2.361240e+03
2.319947e+03,2.363042e+03
2.320912e+03,2.356221e+03
2.321876e+03,2.350273e+03
2.322840e+03,2.354050e+03
2.323804e+03,2.355309e+03
2.324769e+03,2.347282e+03
2.325733e+03,2.341755e+03
2.326697e+03,2.345323e+03
2.327661e+03,2.355108e+03
2.328625e+03,2.371416e+03
2.329590e+03,2.374793e+03
2.330554e+03,2.344743e+03
2.331518e+03,2.331573e+03
2.332482e+03,2.343310e+03
2.333447e+03,2.349637e+03
2.334411e+03,2.330740e+03
2.335375e+03,2.316694e+03
2.336339e+03,2.309508e+03
2.337303e+03,2.309999e+03
2.338268e+03,2.323439e+03
2.339232e+03,2.320749e+03
2.340196e+03,2.305686e+03
2.341160e+03,2.299223e+03
2.342125e+03,2.307046e+03
2.343089e+03,2.322110e+03
2.344053e+03,2.337208e+03
2.345017e+03,2.334873e+03
2.345982e+03,2.315598e+03
2.346946e+03,2.295906e+03
2.347910e+03,2.280509e+03
2.348874e+03,2.280548e+03
2.349839e+03,2.288149e+03
2.350803e+03,2.282119e+03
2.351767e+03,2.272323e+03
2.352731e+03,2.280177e+03
2.353696e+03,2.296089e+03
2.354660e+03,2.303568e+03
2.355624e+03,2.302974e+03
2.356588e+03,2.290765e+03
2.357552e+03,2.280961e+03
2.358517e+03,2.288866e+03
2.359481e+03,2.300801e+03
2.360445e+03,2.300479e+03
2.361409e+03,2.293828e+03
2.362374e+03,2.281978e+03
2.363338e+03,2.270847e+03
2.364302e+03,2.275166e+03
2.365266e+03,2.273212e+03
2.366230e+03,2.255416e+03
2.367195e+03,2.238256e+03
2.368159e+03,2.230265e+03
2.369123e+03,2.228911e+03
2.370087e+03,2.236296e+03
2.371052e+03,2.243045e+03
2.372016e+03,2.246828e+03
2.372980e+03,2.241619e+03
2.373944e+03,2.227496e+03
2.374909e+03,2.220558e+03
2.375873e+03,2.228772e+03
2.376837e+03,2.231116e+03
2.377801e+03,2.228712e+03
2.378766e+03,2.222614e+03
2.379730e+03,2.213849e+03
2.380694e+03,2.215146e+03
2.381658e+03,2.223152e+03
2.382623e+03,2.223562e+03
2.383587e+03,2.218709e+03
2.384551e+03,2.220424e+03
2.385515e+03,2.223767e+03
2.386479e+03,2.224891e+03
2.387444e+03,2.222252e+03
2.388408e+03,2.208921e+03
2.389372e+03,2.196038e+03
2.390336e+03,2.194813e+03
2.391301e+03,2.196494e+03
2.392265e+03,2.190196e+03
2.393229e+03,2.186413e+03
2.394193e+03,2.192971e+03
2.395157e+03,2.201167e+03
2.396122e+03,2.209729e+03
2.397086e+03,2.210648e+03
2.398050e+03,2.201900e+03
2.399014e+03,2.191868e+03
2.399979e+03,2.182058e+03
2.400943e+03,2.176489e+03
2.401907e+03,2.174717e+03
2.402871e+03,2.173433e+03
2.403836e+03,2.172743e+03
2.404800e+03,2.169741e+03
2.405764e+03,2.164189e+03
2.406728e+03,2.165485e+03
2.407693e+03,2.170869e+03
2.408657e+03,2.165881e+03
2.409621e+03,2.153973e+03
2.410585e+03,2.144658e+03
2.411550e+03,2.140778e+03
2.412514e+03,2.147656e+03
2.413478e+03,2.158281e+03
2.414442e+03,2.152216e+03
2.415406e+03,2.142036e+03
2.416371e+03,2.142475e+03
2.417335e+03,2.145548e+03
2.418299e+03,2.136613e+03
2.419263e+03,2.128713e+03
2.420228e+03,2.128398e+03
2.421192e+03,2.131571e+03
2.422156e+03,2.140413e+03
2.423120e+03,2.142165e+03
2.424084e+03,2.130594e+03
2.425049e+03,2.123035e+03
2.426013e+03,2.136548e+03
2.426977e+03,2.139505e+03
2.427941e+03,2.130989e+03
2.428906e+03,2.122338e+03
2.429870e+03,2.114709e+03
2.430834e+03,2.110712e+03
2.431798e+03,2.110740e+03
2.432763e+03,2.115240e+03
2.433727e+03,2.122080e+03
2.434691e+03,2.117857e+03
2.435655e+03,2.107633e+03
2.436620e+03,2.102781e+03
2.437584e+03,2.101091e+03
2.438548e+03,2.093605e+03
2.439512e+03,2.089607e+03
2.440477e+03,2.098953e+03
2.441441e+03,2.108967e+03
2.442405e+03,2.105041e+03
2.443369e+03,2.096532e+03
2.444333e+03,2.088471e+03
2.445298e+03,2.083256e+03
2.446262e+03,2.083251e+03
2.447226e+03,2.085876e+03
2.448190e+03,2.091962e+03
2.449155e+03,2.091769e+03
2.450119e+03,2.072964e+03
2.451083e+03,2.067024e+03
2.452047e+03,2.072022e+03
2.453011e+03,2.072508e+03
2.453976e+03,2.065507e+03
2.454940e+03,2.060681e+03
2.455904e+03,2.058691e+03
2.456868e+03,2.055217e+03
2.457833e+03,2.050720e+03
2.458797e+03,2.056291e+03
2.459761e+03,2.063302e+03
2.460725e+03,2.055890e+03
2.461690e+03,2.044307e+03
2.462654e+03,2.044146e+03
2.463618e+03,2.047034e+03
2.464582e+03,2.049648e+03
2.465547e+03,2.049969e+03
2.466511e+03,2.038670e+03
2.467475e+03,2.030263e+03
2.468439e+03,2.027766e+03
2.469404e+03,2.027967e+03
2.470368e+03,2.032150e+03
2.471332e+03,2.042078e+03
2.472296e+03,2.055138e+03
2.473260e+03,2.058207e+03
2.474225e+03,2.047531e+03
2.475189e+03,2.037928e+03
2.476153e+03,2.031172e+03
2.477117e+03,2.028901e+03
2.478082e+03,2.028704e+03
2.479046e+03,2.025959e+03
2.480010e+03,2.022264e+03
2.480974e+03,2.021229e+03
2.481938e+03,2.021094e+03
2.482903e+03,2.020065e+03
2.483867e+03,2.017994e+03
2.484831e+03,2.014898e+03
2.485795e+03,2.008398e+03
2.486760e+03,1.992636e+03
2.487724e+03,1.985618e+03
2.488688e+03,1.990807e+03
2.489652e+03,1.994338e+03
2.490617e+03,1.983908e+03
2.491581e+03,1.984330e+03
2.492545e+03,1.994110e+03
2.493509e+03,1.996958e+03
2.494474e+03,1.989739e+03
2.495438e+03,1.983025e+03
2.496402e+03,1.978862e+03
2.497366e+03,1.985736e+03
2.498331e+03,1.995779e+03
2.499295e+03,1.992507e+03
2.500259e+03,1.985634e+03
2.501223e+03,1.986811e+03
2.502188e+03,1.988888e+03
2.503152e+03,1.983679e+03
2.504116e+03,1.976105e+03
2.505080e+03,1.967683e+03
2.506044e+03,1.961582e+03
2.507009e+03,1.959746e+03
2.507973e+03,1.957723e+03
2.508937e+03,1.956366e+03
2.509901e+03,1.956395e+03
2.510865e+03,1.957297e+03
2.511830e+03,1.963128e+03
2.512794e+03,1.969059e+03
2.513758e+03,1.962916e+03
2.514722e+03,1.952234e+03
2.515687e+03,1.957812e+03
2.516651e+03,1.964787e+03
2.517615e+03,1.956195e+03
2.518579e+03,1.944449e+03
2.519544e+03,1.948798e+03
2.520508e+03,1.948395e+03
2.521472e+03,1.935322e+03
2.522436e+03,1.924811e+03
2.523401e+03,1.930068e+03
2.524365e+03,1.936191e+03
2.525329e+03,1.940547e+03
2.526293e+03,1.943112e+03
2.527258e+03,1.945833e+03
2.528222e+03,1.941620e+03
2.529186e+03,1.933163e+03
2.530150e+03,1.929621e+03
2.531115e+03,1.930172e+03
2.532079e+03,1.927016e+03
2.533043e+03,1.923177e+03
2.534007e+03,1.921863e+03
2.534971e+03,1.918242e+03
2.535936e+03,1.902930e+03
2.536900e+03,1.897830e+03
2.537864e+03,1.912646e+03
2.538828e+03,1.921169e+03
2.539792e+03,1.902892e+03
2.540757e+03,1.895765e+03
2.541721e+03,1.903563e+03
2.542685e+03,1.910677e+03
2.543649e+03,1.915553e+03
2.544614e+03,1.909699e+03
2.545578e+03,1.897553e+03
2.546542e+03,1.898949e+03
2.547506e+03,1.907083e+03
2.548471e+03,1.897464e+03
2.549435e+03,1.891563e+03
2.550399e+03,1.916891e+03
2.551363e+03,1.935779e+03
2.552328e+03,1.909501e+03
2.553292e+03,1.892836e+03
2.554256e+03,1.908367e+03
2.555220e+03,1.911422e+03
2.556185e+03,1.893338e+03
2.557149e+03,1.881909e+03
2.558113e+03,1.882000e+03
2.559077e+03,1.883803e+03
2.560042e+03,1.885823e+03
2.561006e+03,1.892402e+03
2.561970e+03,1.900160e+03
2.562934e+03,1.895292e+03
2.563898e+03,1.883722e+03
2.564863e+03,1.866225e+03
2.565827e+03,1.854953e+03
2.566791e+03,1.870571e+03
2.567755e+03,1.884214e+03
2.568719e+03,1.886515e+03
2.569684e+03,1.881749e+03
2.570648e+03,1.869672e+03
2.571612e+03,1.859928e+03
2.572576e+03,1.854742e+03
2.573541e+03,1.854839e+03
2.574505e+03,1.857399e+03
2.575469e+03,1.861332e+03
2.576433e+03,1.862997e+03
2.577398e+03,1.857582e+03
2.578362e+03,1.851759e+03
2.579326e+03,1.858160e+03
2.580290e+03,1.861012e+03
2.581255e+03,1.852315e+03
2.582219e+03,1.843075e+03
2.583183e+03,1.843687e+03
2.584147e+03,1.840698e+03
2.585112e+03,1.836298e+03
2.586076e+03,1.834258e+03
2.587040e+03,1.834856e+03
2.588004e+03,1.841128e+03
2.588969e+03,1.847643e+03
2.589933e+03,1.846189e+03
2.590897e+03,1.840348e+03
2.591861e+03,1.833812e+03
2.592825e+03,1.831540e+03
2.593790e+03,1.837391e+03
2.594754e+03,1.839781e+03
2.595718e+03,1.827954e+03
2.596682e+03,1.822911e+03
2.597646e+03,1.828349e+03
2.598611e+03,1.827088e+03
2.599575e+03,1.819712e+03
2.600539e+03,1.813702e+03
2.601503e+03,1.811794e+03
2.602468e+03,1.824619e+03
2.603432e+03,1.840447e+03
2.604396e+03,1.835259e+03
2.605360e+03,1.824329e+03
2.606325e+03,1.818749e+03
2.607289e+03,1.810948e+03
2.608253e+03,1.797356e+03
2.609217e+03,1.787395e+03
2.610182e+03,1.783063e+03
2.611146e+03,1.784498e+03
2.612110e+03,1.790486e+03
2.613074e+03,1.789519e+03
2.614039e+03,1.783001e+03
2.615003e+03,1.783438e+03
2.615967e+03,1.786491e+03
2.616931e+03,1.791614e+03
2.617896e+03,1.794193e+03
2.618860e+03,1.782100e+03
2.619824e+03,1.773377e+03
2.620788e+03,1.773979e+03
2.621752e+03,1.777256e+03
2.622717e+03,1.783529e+03
2.623681e+03,1.781382e+03
2.624645e+03,1.771597e+03
2.625609e+03,1.771101e+03
2.626573e+03,1.778528e+03
2.627538e+03,1.774358e+03
2.628502e+03,1.768058e+03
2.629466e+03,1.772699e+03
2.630430e+03,1.779652e+03
2.631395e+03,1.775943e+03
2.632359e+03,1.771911e+03
2.633323e+03,1.771993e+03
2.634287e+03,1.769578e+03
2.635252e+03,1.764032e+03
2.636216e+03,1.762232e+03
2.637180e+03,1.763690e+03
2.638144e+03,1.760406e+03
2.639109e+03,1.752334e+03
2.640073e+03,1.735257e+03
2.641037e+03,1.725549e+03
2.642001e+03,1.755606e+03
2.642966e+03,1.778271e+03
2.643930e+03,1.765814e+03
2.644894e+03,1.748964e+03
2.645858e+03,1.746910e+03
2.646823e+03,1.745365e+03
2.647787e+03,1.742576e+03
2.648751e+03,1.746710e+03
2.649715e+03,1.756323e+03
2.650679e+03,1.746631e+03
2.651644e+03,1.729764e+03
2.652608e+03,1.723099e+03
2.653572e+03,1.724436e+03
2.654536e+03,1.736191e+03
2.655500e+03,1.749180e+03
2.656465e+03,1.761676e+03
2.657429e+03,1.760367e+03
2.658393e+03,1.739092e+03
2.659357e+03,1.728731e+03
2.660322e+03,1.733408e+03
2.661286e+03,1.730715e+03
2.662250e+03,1.723665e+03
2.663214e+03,1.726228e+03
2.664179e+03,1.729036e+03
2.665143e+03,1.716045e+03
2.666107e+03,1.708702e+03
2.667071e+03,1.719088e+03
2.668036e+03,1.728915e+03
2.669000e+03,1.726187e+03
2.669964e+03,1.720061e+03
2.670928e+03,1.712135e+03
2.671893e+03,1.712355e+03
2.672857e+03,1.719098e+03
2.673821e+03,1.716527e+03
2.674785e+03,1.709552e+03
2.675750e+03,1.704758e+03
2.676714e+03,1.703158e+03
2.677678e+03,1.709090e+03
2.678642e+03,1.707746e+03
2.679606e+03,1.695725e+03
2.680571e+03,1.691202e+03
2.681535e+03,1.696129e+03
2.682499e+03,1.691267e+03
2.683463e+03,1.681206e+03
2.684427e+03,1.695202e+03
2.685392e+03,1.714969e+03
2.686356e+03,1.700564e+03
2.687320e+03,1.681708e+03
2.688284e+03,1.677318e+03
2.689249e+03,1.677652e+03
2.690213e+03,1.678973e+03
2.691177e+03,1.676137e+03
2.692141e+03,1.668564e+03
2.693106e+03,1.673090e+03
2.694070e+03,1.682778e+03
2.695034e+03,1.677190e+03
2.695998e+03,1.666615e+03
2.696963e+03,1.671652e+03
2.697927e+03,1.677482e+03
2.698891e+03,1.675045e+03
2.699855e+03,1.670155e+03
2.700820e+03,1.667525e+03
2.701784e+03,1.656451e+03
2.702748e+03,1.639055e+03
2.703712e+03,1.646279e+03
2.704677e+03,1.668014e+03
2.705641e+03,1.674035e+03
2.706605e+03,1.671693e+03
2.707569e+03,1.661031e+03
2.708533e+03,1.654298e+03
2.709498e+03,1.656408e+03
2.710462e+03,1.659378e+03
2.711426e+03,1.663085e+03
2.712390e+03,1.659380e+03
2.713354e+03,1.651451e+03
2.714319e+03,1.659554e+03
2.715283e+03,1.671964e+03
2.716247e+03,1.652443e+03
2.717211e+03,1.632574e+03
2.718176e+03,1.634645e+03
2.719140e+03,1.644275e+03
2.720104e+03,1.655377e+03
2.721068e+03,1.654403e+03
2.722033e+03,1.641262e+03
2.722997e+03,1.640170e+03
2.723961e+03,1.648994e+03
2.724925e+03,1.662663e+03
2.725890e+03,1.671690e+03
2.726854e+03,1.657247e+03
2.727818e+03,1.641729e+03
2.728782e+03,1.635136e+03
2.729747e+03,1.632503e+03
2.730711e+03,1.634577e+03
2.731675e+03,1.633260e+03
2.732639e+03,1.630107e+03
2.733604e+03,1.629942e+03
2.734568e+03,1.632370e+03
2.735532e+03,1.640722e+03
2.736496e+03,1.645552e+03
2.737460e+03,1.642155e+03
2.738425e+03,1.630921e+03
2.739389e+03,1.606267e+03
2.740353e+03,1.604839e+03
2.741317e+03,1.630698e+03
2.742281e+03,1.631403e+03
2.743246e+03,1.614347e+03
2.744210e+03,1.604179e+03
2.745174e+03,1.599760e+03
2.746138e+03,1.607027e+03
2.747103e+03,1.612132e+03
2.748067e+03,1.610293e+03
2.749031e+03,1.610676e+03
2.749995e+03,1.617913e+03
2.750960e+03,1.624586e+03
2.751924e+03,1.629030e+03
2.752888e+03,1.625123e+03
2.753852e+03,1.615536e+03
2.754817e+03,1.601664e+03
2.755781e+03,1.594546e+03
2.756745e+03,1.601839e+03
2.757709e+03,1.606031e+03
2.758674e+03,1.599988e+03
2.759638e+03,1.595974e+03
2.760602e+03,1.596899e+03
2.761566e+03,1.600450e+03
2.762531e+03,1.606314e+03
2.763495e+03,1.612999e+03
2.764459e+03,1.613720e+03
2.765423e+03,1.596292e+03
2.766387e+03,1.583138e+03
2.767352e+03,1.579849e+03
2.768316e+03,1.584415e+03
2.769280e+03,1.595064e+03
2.770244e+03,1.589526e+03
2.771208e+03,1.577778e+03
2.772173e+03,1.579166e+03
2.773137e+03,1.583703e+03
2.774101e+03,1.582576e+03
2.775065e+03,1.584946e+03
2.776030e+03,1.596404e+03
2.776994e+03,1.588746e+03
2.777958e+03,1.564719e+03
2.778922e+03,1.558782e+03
2.779887e+03,1.568090e+03
2.780851e+03,1.585033e+03
2.781815e+03,1.590593e+03
2.782779e+03,1.573980e+03
2.783744e+03,1.559069e+03
2.784708e+03,1.559123e+03
2.785672e+03,1.563033e+03
2.786636e+03,1.568169e+03
2.787601e+03,1.565175e+03
2.788565e+03,1.559262e+03
2.789529e+03,1.562952e+03
2.790493e+03,1.569302e+03
2.791458e+03,1.572161e+03
2.792422e+03,1.571942e+03
2.793386e+03,1.570876e+03
2.794350e+03,1.570506e+03
2.795314e+03,1.570097e+03
2.796279e+03,1.564024e+03
2.797243e+03,1.557332e+03
2.798207e+03,1.562465e+03
2.799171e+03,1.569138e+03
2.800135e+03,1.559576e+03
2.801100e+03,1.554580e+03
2.802064e+03,1.560505e+03
2.803028e+03,1.557261e+03
2.803992e+03,1.546748e+03
2.804957e+03,1.556584e+03
2.805921e+03,1.571792e+03
2.806885e+03,1.554108e+03
2.807849e+03,1.539779e+03
2.808814e+03,1.546671e+03
2.809778e+03,1.555190e+03
2.810742e+03,1.558009e+03
2.811706e+03,1.554246e+03
2.812671e+03,1.545102e+03
2.813635e+03,1.538593e+03
2.814599e+03,1.536275e+03
2.815563e+03,1.548751e+03
2.816528e+03,1.556514e+03
2.817492e+03,1.549122e+03
2.818456e+03,1.533574e+03
2.819420e+03,1.513162e+03
2.820385e+03,1.514378e+03
2.821349e+03,1.533399e+03
2.822313e+03,1.550433e+03
2.823277e+03,1.551235e+03
2.824241e+03,1.522706e+03
2.825206e+03,1.506646e+03
2.826170e+03,1.535315e+03
2.827134e+03,1.547707e+03
2.828098e+03,1.537399e+03
2.829063e+03,1.525693e+03
2.830027e+03,1.517190e+03
2.830991e+03,1.526146e+03
2.831955e+03,1.536694e+03
2.832919e+03,1.530027e+03
2.833884e+03,1.527718e+03
2.834848e+03,1.531752e+03
2.835812e+03,1.527366e+03
2.836776e+03,1.516118e+03
2.837741e+03,1.523926e+03
2.838705e+03,1.533128e+03
2.839669e+03,1.522584e+03
2.840633e+03,1.512088e+03
2.841598e+03,1.513148e+03
2.842562e+03,1.509755e+03
2.843526e+03,1.499797e+03
2.844490e+03,1.503063e+03
2.845455e+03,1.510378e+03
2.846419e+03,1.506241e+03
2.847383e+03,1.501574e+03
2.848347e+03,1.514079e+03
2.849312e+03,1.512339e+03
2.850276e+03,1.491695e+03
2.851240e+03,1.496364e+03
2.852204e+03,1.519015e+03
2.853168e+03,1.507952e+03
2.854133e+03,1.488400e+03
2.855097e+03,1.497077e+03
2.856061e+03,1.509055e+03
2.857025e+03,1.513566e+03
2.857990e+03,1.512056e+03
2.858954e+03,1.505428e+03
2.859918e+03,1.490552e+03
2.860882e+03,1.480562e+03
2.861846e+03,1.496281e+03
2.862811e+03,1.516903e+03
2.863775e+03,1.525991e+03
2.864739e+03,1.520074e+03
2.865703e+03,1.496165e+03
2.866668e+03,1.491577e+03
2.867632e+03,1.500362e+03
2.868596e+03,1.504538e+03
2.869560e+03,1.505290e+03
2.870525e+03,1.508092e+03
2.871489e+03,1.504687e+03
2.872453e+03,1.492510e+03
2.873417e+03,1.495411e+03
2.874382e+03,1.510311e+03
2.875346e+03,1.508249e+03
2.876310e+03,1.499394e+03
2.877274e+03,1.492628e+03
2.878239e+03,1.494958e+03
2.879203e+03,1.507237e+03
2.880167e+03,1.507962e+03
2.881131e+03,1.491937e+03
2.882095e+03,1.477838e+03
2.883060e+03,1.471479e+03
2.884024e+03,1.480381e+03
2.884988e+03,1.491528e+03
2.885952e+03,1.494763e+03
2.886917e+03,1.485723e+03
2.887881e+03,1.464288e+03
2.888845e+03,1.479724e+03
2.889809e+03,1.509281e+03
2.890773e+03,1.492091e+03
2.891738e+03,1.465140e+03
2.892702e+03,1.475651e+03
2.893666e+03,1.482794e+03
2.894630e+03,1.479474e+03
2.895595e+03,1.484012e+03
2.896559e+03,1.493409e+03
2.897523e+03,1.485769e+03
2.898487e+03,1.476781e+03
2.899452e+03,1.486413e+03
2.900416e+03,1.493852e+03
2.901380e+03,1.493638e+03
2.902344e+03,1.486339e+03
2.903309e+03,1.474101e+03
2.904273e+03,1.474487e+03
2.905237e+03,1.476664e+03
2.906201e+03,1.468823e+03
2.907166e+03,1.456608e+03
2.908130e+03,1.441870e+03
2.909094e+03,1.452643e+03
2.910058e+03,1.487270e+03
2.911022e+03,1.469799e+03
2.911987e+03,1.442060e+03
2.912951e+03,1.449440e+03
2.913915e+03,1.466850e+03
2.914879e+03,1.480832e+03
2.915844e+03,1.479960e+03
2.916808e+03,1.465658e+03
2.917772e+03,1.453222e+03
2.918736e+03,1.446493e+03
2.919700e+03,1.450332e+03
2.920665e+03,1.457047e+03
2.921629e+03,1.471399e+03
2.922593e+03,1.454832e+03
2.923557e+03,1.417876e+03
2.924522e+03,1.413592e+03
2.925486e+03,1.429650e+03
2.926450e+03,1.445281e+03
2.927414e+03,1.447942e+03
2.928379e+03,1.424600e+03
2.929343e+03,1.422111e+03
2.930307e+03,1.437576e+03
2.931271e+03,1.431762e+03
2.932236e+03,1.419951e+03
2.933200e+03,1.440048e+03
2.934164e+03,1.443608e+03
2.935128e+03,1.407193e+03
2.936093e+03,1.411698e+03
2.937057e+03,1.455190e+03
2.938021e+03,1.452234e+03
2.938985e+03,1.430765e+03
2.939949e+03,1.443767e+03
2.940914e+03,1.446962e+03
2.941878e+03,1.426400e+03
2.942842e+03,1.423097e+03
2.943806e+03,1.440582e+03
2.944771e+03,1.454490e+03
2.945735e+03,1.465676e+03
2.946699e+03,1.485462e+03
2.947663e+03,1.475497e+03
2.948627e+03,1.425745e+03
2.949592e+03,1.404685e+03
2.950556e+03,1.421840e+03
2.951520e+03,1.408341e+03
2.952484e+03,1.397232e+03
2.953449e+03,1.425670e+03
2.954413e+03,1.448514e+03
2.955377e+03,1.447671e+03
2.956341e+03,1.454870e+03
2.957306e+03,1.469757e+03
2.958270e+03,1.473620e+03
2.959234e+03,1.459129e+03
2.960198e+03,1.423000e+03
2.961163e+03,1.409649e+03
2.962127e+03,1.440225e+03
2.963091e+03,1.435303e+03
2.964055e+03,1.402755e+03
2.965020e+03,1.396259e+03
2.965984e+03,1.406494e+03
2.966948e+03,1.425706e+03
2.967912e+03,1.426640e+03
2.968876e+03,1.390495e+03
2.969841e+03,1.376418e+03
2.970805e+03,1.381247e+03
2.971769e+03,1.402759e+03
2.972733e+03,1.409791e+03
2.973698e+03,1.377057e+03
2.974662e+03,1.354291e+03
2.975626e+03,1.356208e+03
2.976590e+03,1.382264e+03
2.977554e+03,1.407095e+03
2.978519e+03,1.394727e+03
2.979483e+03,1.378359e+03
2.980447e+03,1.382333e+03
2.981411e+03,1.382763e+03
2.982376e+03,1.379712e+03
2.983340e+03,1.396247e+03
2.984304e+03,1.403837e+03
2.985268e+03,1.370258e+03
2.986233e+03,1.359186e+03
2.987197e+03,1.418822e+03
2.988161e+03,1.431409e+03
2.989125e+03,1.405479e+03
2.990090e+03,1.385525e+03
2.991054e+03,1.381104e+03
2.992018e+03,1.400809e+03
2.992982e+03,1.409150e+03
2.993947e+03,1.391483e+03
2.994911e+03,1.394636e+03
2.995875e+03,1.404016e+03
2.996839e+03,1.390847e+03
2.997803e+03,1.374344e+03
2.998768e+03,1.368479e+03
2.999732e+03,1.367916e+03
3.000696e+03,1.371859e+03
3.001660e+03,1.358914e+03
3.002625e+03,1.345942e+03
3.003589e+03,1.351614e+03
3.004553e+03,1.355851e+03
3.005517e+03,1.349828e+03
3.006481e+03,1.353439e+03
3.007446e+03,1.363457e+03
3.008410e+03,1.363036e+03
3.009374e+03,1.373801e+03
3.010338e+03,1.412584e+03
3.011303e+03,1.407539e+03
3.012267e+03,1.333133e+03
3.013231e+03,1.324336e+03
3.014195e+03,1.355287e+03
3.015160e+03,1.383303e+03
3.016124e+03,1.391623e+03
3.017088e+03,1.377428e+03
3.018052e+03,1.369413e+03
3.019017e+03,1.369909e+03
3.019981e+03,1.364391e+03
3.020945e+03,1.356736e+03
3.021909e+03,1.347886e+03
3.022874e+03,1.352674e+03
3.023838e+03,1.369388e+03
3.024802e+03,1.367563e+03
3.025766e+03,1.355974e+03
3.026730e+03,1.362430e+03
3.027695e+03,1.364803e+03
3.028659e+03,1.353820e+03
3.029623e+03,1.353116e+03
3.030587e+03,1.361581e+03
3.031552e+03,1.354889e+03
3.032516e+03,1.345854e+03
3.033480e+03,1.360027e+03
3.034444e+03,1.357432e+03
3.035408e+03,1.335419e+03
3.036373e+03,1.335780e+03
3.037337e+03,1.350088e+03
3.038301e+03,1.350942e+03
3.039265e+03,1.349379e+03
3.040230e+03,1.346759e+03
3.041194e+03,1.356840e+03
3.042158e+03,1.370490e+03
3.043122e+03,1.350753e+03
3.044087e+03,1.330787e+03
3.045051e+03,1.365158e+03
3.046015e+03,1.378786e+03
3.046979e+03,1.348770e+03
3.047944e+03,1.330590e+03
3.048908e+03,1.330213e+03
3.049872e+03,1.353061e+03
3.050836e+03,1.376057e+03
3.051801e+03,1.384662e+03
3.052765e+03,1.382045e+03
3.053729e+03,1.368306e+03
3.054693e+03,1.349519e+03
3.055657e+03,1.347945e+03
3.056622e+03,1.375969e+03
3.057586e+03,1.395061e+03
3.058550e+03,1.394455e+03
3.059514e+03,1.385760e+03
3.060479e+03,1.373502e+03
3.061443e+03,1.354182e+03
3.062407e+03,1.354816e+03
3.063371e+03,1.377697e+03
3.064335e+03,1.354259e+03
3.065300e+03,1.301647e+03
3.066264e+03,1.321616e+03
3.067228e+03,1.350851e+03
3.068192e+03,1.347830e+03
3.069157e+03,1.347734e+03
3.070121e+03,1.353797e+03
3.071085e+03,1.359539e+03
3.072049e+03,1.361304e+03
3.073014e+03,1.348750e+03
3.073978e+03,1.346467e+03
3.074942e+03,1.357984e+03
3.075906e+03,1.346307e+03
3.076871e+03,1.326429e+03
3.077835e+03,1.321742e+03
3.078799e+03,1.324634e+03
3.079763e+03,1.332080e+03
3.080728e+03,1.337823e+03
3.081692e+03,1.339936e+03
3.082656e+03,1.325746e+03
3.083620e+03,1.322791e+03
3.084584e+03,1.345596e+03
3.085549e+03,1.365528e+03
3.086513e+03,1.375015e+03
3.087477e+03,1.325765e+03
3.088441e+03,1.281354e+03
3.089406e+03,1.319533e+03
3.090370e+03,1.362029e+03
3.091334e+03,1.389043e+03
3.092298e+03,1.369776e+03
3.093262e+03,1.335022e+03
3.094227e+03,1.346848e+03
3.095191e+03,1.357606e+03
3.096155e+03,1.351205e+03
3.097119e+03,1.351972e+03
3.098084e+03,1.354904e+03
3.099048e+03,1.342801e+03
3.100012e+03,1.331824e+03
3.100976e+03,1.335764e+03
3.101941e+03,1.335495e+03
3.102905e+03,1.332589e+03
3.103869e+03,1.344932e+03
3.104833e+03,1.351931e+03
3.105798e+03,1.342748e+03
3.106762e+03,1.328594e+03
3.107726e+03,1.315258e+03
3.108690e+03,1.311239e+03
3.109655e+03,1.314306e+03
3.110619e+03,1.329668e+03
3.111583e+03,1.325011e+03
3.112547e+03,1.305905e+03
3.113511e+03,1.346031e+03
3.114476e+03,1.404543e+03
3.115440e+03,1.381112e+03
3.116404e+03,1.357808e+03
3.117368e+03,1.366756e+03
3.118333e+03,1.342908e+03
3.119297e+03,1.318692e+03
3.120261e+03,1.353634e+03
3.121225e+03,1.377538e+03
3.122189e+03,1.350054e+03
3.123154e+03,1.342773e+03
3.124118e+03,1.350854e+03
3.125082e+03,1.318561e+03
3.126046e+03,1.311870e+03
3.127011e+03,1.360173e+03
3.127975e+03,1.376187e+03
3.128939e+03,1.358219e+03
3.129903e+03,1.338712e+03
3.130868e+03,1.322954e+03
3.131832e+03,1.308794e+03
3.132796e+03,1.322193e+03
3.133760e+03,1.353818e+03
3.134725e+03,1.351704e+03
3.135689e+03,1.339975e+03
3.136653e+03,1.340955e+03
3.137617e+03,1.362867e+03
3.138582e+03,1.408934e+03
3.139546e+03,1.400323e+03
3.140510e+03,1.373994e+03
3.141474e+03,1.374506e+03
3.142438e+03,1.374444e+03
3.143403e+03,1.368330e+03
3.144367e+03,1.365615e+03
3.145331e+03,1.362948e+03
3.146295e+03,1.349013e+03
3.147260e+03,1.342899e+03
3.148224e+03,1.347005e+03
3.149188e+03,1.349317e+03
3.150152e+03,1.342303e+03
3.151116e+03,1.313451e+03
3.152081e+03,1.309287e+03
3.153045e+03,1.347381e+03
3.154009e+03,1.335546e+03
3.154973e+03,1.302428e+03
3.155938e+03,1.315175e+03
3.156902e+03,1.333454e+03
3.157866e+03,1.340693e+03
3.158830e+03,1.318971e+03
3.159795e+03,1.291852e+03
3.160759e+03,1.316501e+03
3.161723e+03,1.336459e+03
3.162687e+03,1.317609e+03
3.163652e+03,1.308587e+03
3.164616e+03,1.311067e+03
3.165580e+03,1.321427e+03
3.166544e+03,1.333819e+03
3.167509e+03,1.346328e+03
3.168473e+03,1.359075e+03
3.169437e+03,1.364709e+03
3.170401e+03,1.324463e+03
3.171365e+03,1.296273e+03
3.172330e+03,1.307182e+03
3.173294e+03,1.328897e+03
3.174258e+03,1.349275e+03
3.175222e+03,1.351329e+03
3.176187e+03,1.351583e+03
3.177151e+03,1.365768e+03
3.178115e+03,1.340695e+03
3.179079e+03,1.296854e+03
3.180043e+03,1.300982e+03
3.181008e+03,1.330031e+03
3.181972e+03,1.370633e+03
3.182936e+03,1.341515e+03
3.183900e+03,1.277939e+03
3.184865e+03,1.308209e+03
3.185829e+03,1.343647e+03
3.186793e+03,1.332725e+03
3.187757e+03,1.334664e+03
3.188722e+03,1.346863e+03
3.189686e+03,1.360773e+03
3.190650e+03,1.380875e+03
3.191614e+03,1.406004e+03
3.192579e+03,1.381794e+03
3.193543e+03,1.333353e+03
3.194507e+03,1.359545e+03
3.195471e+03,1.367552e+03
3.196436e+03,1.314259e+03
3.197400e+03,1.307479e+03
3.198364e+03,1.331601e+03
3.199328e+03,1.353210e+03
3.200292e+03,1.361303e+03
3.201257e+03,0.000000e+00
3.202221e+03,0.000000e+00
3.203185e+03,0.000000e+00
3.204149e+03,0.000000e+00
3.205114e+03,0.000000e+00
3.206078e+03,0.000000e+00
3.207042e+03,0.000000e+00
3.208006e+03,0.000000e+00
3.208970e+03,0.000000e+00
3.209935e+03,0.000000e+00
3.210899e+03,0.000000e+00
3.211863e+03,0.000000e+00
3.212827e+03,0.000000e+00
3.213792e+03,0.000000e+00
3.214756e+03,0.000000e+00
3.215720e+03,0.000000e+00
3.216684e+03,0.000000e+00
3.217649e+03,0.000000e+00
3.218613e+03,0.000000e+00
3.219577e+03,0.000000e+00
3.220541e+03,0.000000e+00
3.221506e+03,0.000000e+00
3.222470e+03,0.000000e+00
3.223434e+03,0.000000e+00
3.224398e+03,0.000000e+00
3.225363e+03,0.000000e+00
3.226327e+03,0.000000e+00
3.227291e+03,0.000000e+00
3.228255e+03,0.000000e+00
3.229219e+03,0.000000e+00
3.230184e+03,0.000000e+00
3.231148e+03,0.000000e+00
3.232112e+03,0.000000e+00
3.233076e+03,0.000000e+00
3.234041e+03,0.000000e+00
3.235005e+03,0.000000e+00
3.235969e+03,0.000000e+00
3.236933e+03,0.000000e+00
3.237897e+03,0.000000e+00
3.238862e+03,0.000000e+00
3.239826e+03,0.000000e+00
3.240790e+03,0.000000e+00
3.241754e+03,0.000000e+00
3.242719e+03,0.000000e+00
3.243683e+03,0.000000e+00
3.244647e+03,0.000000e+00
3.245611e+03,0.000000e+00
3.246576e+03,0.000000e+00
3.247540e+03,0.000000e+00
3.248504e+03,0.000000e+00
3.249468e+03,0.000000e+00
3.250433e+03,0.000000e+00
3.251397e+03,0.000000e+00
3.252361e+03,0.000000e+00
3.253325e+03,0.000000e+00
3.254290e+03,0.000000e+00
3.255254e+03,0.000000e+00
3.256218e+03,0.000000e+00
3.257182e+03,0.000000e+00
3.258146e+03,0.000000e+00
3.259111e+03,0.000000e+00
3.260075e+03,0.000000e+00
3.261039e+03,0.000000e+00
3.262003e+03,0.000000e+00
3.262968e+03,0.000000e+00
3.263932e+03,0.000000e+00
3.264896e+03,0.000000e+00
3.265860e+03,0.000000e+00
3.266824e+03,0.000000e+00
3.267789e+03,0.000000e+00
3.268753e+03,0.000000e+00
3.269717e+03,0.000000e+00
3.270681e+03,0.000000e+00
3.271646e+03,0.000000e+00
3.272610e+03,0.000000e+00
3.273574e+03,0.000000e+00
3.274538e+03,0.000000e+00
3.275503e+03,0.000000e+00
3.276467e+03,0.000000e+00
3.277431e+03,0.000000e+00
3.278395e+03,0.000000e+00
3.279360e+03,0.000000e+00
3.280324e+03,0.000000e+00
3.281288e+03,0.000000e+00
3.282252e+03,0.000000e+00
3.283217e+03,0.000000e+00
3.284181e+03,0.000000e+00
3.285145e+03,0.000000e+00
3.286109e+03,0.000000e+00
3.287073e+03,0.000000e+00
3.288038e+03,0.000000e+00
3.289002e+03,0.000000e+00
3.289966e+03,0.000000e+00
3.290930e+03,0.000000e+00
3.291895e+03,0.000000e+00
3.292859e+03,0.000000e+00
3.293823e+03,0.000000e+00
3.294787e+03,0.000000e+00
3.295751e+03,0.000000e+00
3.296716e+03,0.000000e+00
3.297680e+03,0.000000e+00
3.298644e+03,0.000000e+00
3.299608e+03,0.000000e+00
3.300573e+03,0.000000e+00
3.301537e+03,0.000000e+00
3.302501e+03,0.000000e+00
3.303465e+03,0.000000e+00
3.304430e+03,0.000000e+00
3.305394e+03,0.000000e+00
3.306358e+03,0.000000e+00
3.307322e+03,0.000000e+00
3.308287e+03,0.000000e+00
3.309251e+03,0.000000e+00
3.310215e+03,0.000000e+00
3.311179e+03,0.000000e+00
3.312144e+03,0.000000e+00
3.313108e+03,0.000000e+00
3.314072e+03,0.000000e+00
3.315036e+03,0.000000e+00
3.316000e+03,0.000000e+00
3.316965e+03,0.000000e+00
3.317929e+03,0.000000e+00
3.318893e+03,0.000000e+00
3.319857e+03,0.000000e+00
3.320822e+03,0.000000e+00
3.321786e+03,0.000000e+00
3.322750e+03,0.000000e+00
3.323714e+03,0.000000e+00
3.324678e+03,0.000000e+00
3.325643e+03,0.000000e+00
3.326607e+03,0.000000e+00
3.327571e+03,0.000000e+00
3.328535e+03,0.000000e+00
3.329500e+03,0.000000e+00
3.330464e+03,0.000000e+00
3.331428e+03,0.000000e+00
3.332392e+03,0.000000e+00
3.333357e+03,0.000000e+00
3.334321e+03,0.000000e+00
3.335285e+03,0.000000e+00
3.336249e+03,0.000000e+00
3.337214e+03,0.000000e+00
3.338178e+03,0.000000e+00
3.339142e+03,0.000000e+00
3.340106e+03,0.000000e+00
3.341071e+03,0.000000e+00
3.342035e+03,0.000000e+00
3.342999e+03,0.000000e+00
3.343963e+03,0.000000e+00
3.344927e+03,0.000000e+00
3.345892e+03,0.000000e+00
3.346856e+03,0.000000e+00
3.347820e+03,0.000000e+00
3.348784e+03,0.000000e+00
3.349749e+03,0.000000e+00
3.350713e+03,0.000000e+00
3.351677e+03,0.000000e+00
3.352641e+03,0.000000e+00
3.353605e+03,0.000000e+00
3.354570e+03,0.000000e+00
3.355534e+03,0.000000e+00
3.356498e+03,0.000000e+00
3.357462e+03,0.000000e+00
3.358427e+03,0.000000e+00
3.359391e+03,0.000000e+00
3.360355e+03,0.000000e+00
3.361319e+03,0.000000e+00
3.362284e+03,0.000000e+00
3.363248e+03,0.000000e+00
3.364212e+03,0.000000e+00
3.365176e+03,0.000000e+00
3.366141e+03,0.000000e+00
3.367105e+03,0.000000e+00
3.368069e+03,0.000000e+00
3.369033e+03,0.000000e+00
3.369998e+03,0.000000e+00
3.370962e+03,0.000000e+00
3.371926e+03,0.000000e+00
3.372890e+03,0.000000e+00
3.373854e+03,0.000000e+00
3.374819e+03,0.000000e+00
3.375783e+03,0.000000e+00
3.376747e+03,0.000000e+00
3.377711e+03,0.000000e+00
3.378676e+03,0.000000e+00
3.379640e+03,0.000000e+00
3.380604e+03,0.000000e+00
3.381568e+03,0.000000e+00
3.382532e+03,0.000000e+00
3.383497e+03,0.000000e+00
3.384461e+03,0.000000e+00
3.385425e+03,0.000000e+00
3.386389e+03,0.000000e+00
3.387354e+03,0.000000e+00
3.388318e+03,0.000000e+00
3.389282e+03,0.000000e+00
3.390246e+03,0.000000e+00
3.391211e+03,0.000000e+00
3.392175e+03,0.000000e+00
3.393139e+03,0.000000e+00
3.394103e+03,0.000000e+00
3.395068e+03,0.000000e+00
3.396032e+03,0.000000e+00
3.396996e+03,0.000000e+00
3.397960e+03,0.000000e+00
3.398925e+03,0.000000e+00
3.399889e+03,0.000000e+00
3.400853e+03,0.000000e+00
3.401817e+03,0.000000e+00
3.402781e+03,0.000000e+00
3.403746e+03,0.000000e+00
3.404710e+03,0.000000e+00
3.405674e+03,0.000000e+00
3.406638e+03,0.000000e+00
3.407603e+03,0.000000e+00
3.408567e+03,0.000000e+00
3.409531e+03,0.000000e+00
3.410495e+03,0.000000e+00
3.411459e+03,0.000000e+00
3.412424e+03,0.000000e+00
3.413388e+03,0.000000e+00
3.414352e+03,0.000000e+00
3.415316e+03,0.000000e+00
3.416281e+03,0.000000e+00
3.417245e+03,0.000000e+00
3.418209e+03,0.000000e+00
3.419173e+03,0.000000e+00
3.420138e+03,0.000000e+00
3.421102e+03,0.000000e+00
3.422066e+03,0.000000e+00
3.423030e+03,0.000000e+00
3.423995e+03,0.000000e+00
3.424959e+03,0.000000e+00
3.425923e+03,0.000000e+00
3.426887e+03,0.000000e+00
3.427852e+03,0.000000e+00
3.428816e+03,0.000000e+00
3.429780e+03,0.000000e+00
3.430744e+03,0.000000e+00
3.431708e+03,0.000000e+00
3.432673e+03,0.000000e+00
3.433637e+03,0.000000e+00
3.434601e+03,0.000000e+00
3.435565e+03,0.000000e+00
3.436530e+03,0.000000e+00
3.437494e+03,0.000000e+00
3.438458e+03,0.000000e+00
3.439422e+03,0.000000e+00
3.440386e+03,0.000000e+00
3.441351e+03,0.000000e+00
3.442315e+03,0.000000e+00
3.443279e+03,0.000000e+00
3.444243e+03,0.000000e+00
3.445208e+03,0.000000e+00
3.446172e+03,0.000000e+00
3.447136e+03,0.000000e+00
3.448100e+03,0.000000e+00
3.449065e+03,0.000000e+00
3.450029e+03,0.000000e+00
3.450993e+03,0.000000e+00
3.451957e+03,0.000000e+00
3.452922e+03,0.000000e+00
3.453886e+03,0.000000e+00
3.454850e+03,0.000000e+00
3.455814e+03,0.000000e+00
3.456779e+03,0.000000e+00
3.457743e+03,0.000000e+00
3.458707e+03,0.000000e+00
3.459671e+03,0.000000e+00
3.460635e+03,0.000000e+00
3.461600e+03,0.000000e+00
3.462564e+03,0.000000e+00
3.463528e+03,0.000000e+00
3.464492e+03,0.000000e+00
3.465457e+03,0.000000e+00
3.466421e+03,0.000000e+00
3.467385e+03,0.000000e+00
3.468349e+03,0.000000e+00
3.469313e+03,0.000000e+00
3.470278e+03,0.000000e+00
3.471242e+03,0.000000e+00
3.472206e+03,0.000000e+00
3.473170e+03,0.000000e+00
3.474135e+03,0.000000e+00
3.475099e+03,0.000000e+00
3.476063e+03,0.000000e+00
3.477027e+03,0.000000e+00
3.477992e+03,0.000000e+00
3.478956e+03,0.000000e+00
3.479920e+03,0.000000e+00
3.480884e+03,0.000000e+00
3.481849e+03,0.000000e+00
3.482813e+03,0.000000e+00
3.483777e+03,0.000000e+00
3.484741e+03,0.000000e+00
3.485706e+03,0.000000e+00
3.486670e+03,0.000000e+00
3.487634e+03,0.000000e+00
3.488598e+03,0.000000e+00
3.489563e+03,0.000000e+00
3.490527e+03,0.000000e+00
3.491491e+03,0.000000e+00
3.492455e+03,0.000000e+00
3.493419e+03,0.000000e+00
3.494384e+03,0.000000e+00
3.495348e+03,0.000000e+00
3.496312e+03,0.000000e+00
3.497276e+03,0.000000e+00
3.498240e+03,0.000000e+00
3.499205e+03,0.000000e+00
3.500169e+03,0.000000e+00
