9.931763e+01,0.000000e+00
1.002819e+02,0.000000e+00
1.012461e+02,0.000000e+00
1.022103e+02,0.000000e+00
1.031746e+02,0.000000e+00
1.041388e+02,0.000000e+00
1.051030e+02,0.000000e+00
1.060673e+02,0.000000e+00
1.070315e+02,0.000000e+00
1.079957e+02,0.000000e+00
1.089600e+02,0.000000e+00
1.099242e+02,0.000000e+00
1.108884e+02,0.000000e+00
1.118527e+02,0.000000e+00
1.128169e+02,0.000000e+00
1.137811e+02,0.000000e+00
1.147454e+02,0.000000e+00
1.157096e+02,0.000000e+00
1.166738e+02,0.000000e+00
1.176381e+02,0.000000e+00
1.186023e+02,0.000000e+00
1.195665e+02,0.000000e+00
1.205308e+02,0.000000e+00
1.214950e+02,0.000000e+00
1.224592e+02,0.000000e+00
1.234235e+02,0.000000e+00
1.243877e+02,0.000000e+00
1.253519e+02,0.000000e+00
1.263162e+02,0.000000e+00
1.272804e+02,0.000000e+00
1.282446e+02,0.000000e+00
1.292089e+02,0.000000e+00
1.301731e+02,0.000000e+00
1.311373e+02,0.000000e+00
1.321016e+02,0.000000e+00
1.330658e+02,0.000000e+00
1.340300e+02,0.000000e+00
1.349943e+02,0.000000e+00
1.359585e+02,0.000000e+00
1.369227e+02,0.000000e+00
1.378870e+02,0.000000e+00
1.388512e+02,0.000000e+00
1.398154e+02,0.000000e+00
1.407797e+02,0.000000e+00
1.417439e+02,0.000000e+00
1.427081e+02,0.000000e+00
1.436724e+02,0.000000e+00
1.446366e+02,0.000000e+00
1.456008e+02,0.000000e+00
1.465651e+02,0.000000e+00
1.475293e+02,0.000000e+00
1.484935e+02,0.000000e+00
1.494578e+02,0.000000e+00
1.504220e+02,0.000000e+00
1.513862e+02,0.000000e+00
1.523505e+02,0.000000e+00
1.533147e+02,0.000000e+00
1.542789e+02,0.000000e+00
1.552432e+02,0.000000e+00
1.562074e+02,0.000000e+00
1.571716e+02,0.000000e+00
1.581359e+02,0.000000e+00
1.591001e+02,0.000000e+00
1.600643e+02,0.000000e+00
1.610286e+02,0.000000e+00
1.619928e+02,0.000000e+00
1.629570e+02,0.000000e+00
1.639213e+02,0.000000e+00
1.648855e+02,0.000000e+00
1.658497e+02,0.000000e+00
1.668140e+02,0.000000e+00
1.677782e+02,0.000000e+00
1.687424e+02,0.000000e+00
1.697067e+02,0.000000e+00
1.706709e+02,0.000000e+00
1.716351e+02,0.000000e+00
1.725994e+02,0.000000e+00
1.735636e+02,0.000000e+00
1.745278e+02,0.000000e+00
1.754921e+02,0.000000e+00
1.764563e+02,0.000000e+00
1.774205e+02,0.000000e+00
1.783848e+02,0.000000e+00
1.793490e+02,0.000000e+00
1.803132e+02,0.000000e+00
1.812775e+02,0.000000e+00
1.822417e+02,0.000000e+00
1.832059e+02,0.000000e+00
1.841702e+02,0.000000e+00
1.851344e+02,0.000000e+00
1.860986e+02,0.000000e+00
1.870629e+02,0.000000e+00
1.880271e+02,0.000000e+00
1.889913e+02,0.000000e+00
1.899556e+02,0.000000e+00
1.909198e+02,0.000000e+00
1.918840e+02,0.000000e+00
1.928483e+02,0.000000e+00
1.938125e+02,0.000000e+00
1.947767e+02,0.000000e+00
1.957410e+02,0.000000e+00
1.967052e+02,0.000000e+00
1.976694e+02,0.000000e+00
1.986337e+02,0.000000e+00
1.995979e+02,1.046964e+04
2.005621e+02,1.047981e+04
2.015264e+02,1.049152e+04
2.024906e+02,1.050666e+04
2.034548e+02,1.052143e+04
2.044191e+02,1.053267e+04
2.053833e+02,1.053887e+04
2.063475e+02,1.054102e+04
2.073118e+02,1.054126e+04
2.082760e+02,1.054022e+04
2.092402e+02,1.053519e+04
2.102045e+02,1.052613e+04
2.111687e+02,1.052019e+04
2.121329e+02,1.052192e+04
2.130972e+02,1.053223e+04
2.140614e+02,1.054575e+04
2.150256e+02,1.055253e+04
2.159899e+02,1.054684e+04
2.169541e+02,1.054541e+04
2.179183e+02,1.055927e+04
2.188826e+02,1.058403e+04
2.198468e+02,1.060750e+04
2.208110e+02,1.062045e+04
2.217753e+02,1.062171e+04
2.227395e+02,1.061699e+04
2.237037e+02,1.060906e+04
2.246680e+02,1.060126e+04
2.256322e+02,1.059416e+04
2.265964e+02,1.059082e+04
2.275607e+02,1.059214e+04
2.285249e+02,1.059920e+04
2.294892e+02,1.061302e+04
2.304534e+02,1.062887e+04
2.314176e+02,1.063770e+04
2.323819e+02,1.063925e+04
2.333461e+02,1.064073e+04
2.343103e+02,1.064595e+04
2.352746e+02,1.065494e+04
2.362388e+02,1.066571e+04
2.372030e+02,1.067611e+04
2.381673e+02,1.068169e+04
2.391315e+02,1.068161e+04
2.400957e+02,1.068169e+04
2.410600e+02,1.067985e+04
2.420242e+02,1.067530e+04
2.429884e+02,1.067160e+04
2.439527e+02,1.067375e+04
2.449169e+02,1.068209e+04
2.458811e+02,1.069550e+04
2.468454e+02,1.070726e+04
2.478096e+02,1.071719e+04
2.487738e+02,1.072606e+04
2.497381e+02,1.073451e+04
2.507023e+02,1.074278e+04
2.516665e+02,1.075036e+04
2.526308e+02,1.075554e+04
2.535950e+02,1.075065e+04
2.545592e+02,1.074300e+04
2.555235e+02,1.073219e+04
2.564877e+02,1.072194e+04
2.574519e+02,1.071808e+04
2.584161e+02,1.072625e+04
2.593804e+02,1.074666e+04
2.603446e+02,1.076422e+04
2.613088e+02,1.077167e+04
2.622731e+02,1.077594e+04
2.632373e+02,1.077679e+04
2.642015e+02,1.077280e+04
2.651658e+02,1.076623e+04
2.661300e+02,1.076310e+04
2.670942e+02,1.076783e+04
2.680585e+02,1.077150e+04
2.690227e+02,1.077224e+04
2.699869e+02,1.077077e+04
2.709512e+02,1.076644e+04
2.719154e+02,1.076175e+04
2.728796e+02,1.075815e+04
2.738439e+02,1.075706e+04
2.748081e+02,1.076124e+04
2.757723e+02,1.077065e+04
2.767366e+02,1.077762e+04
2.777008e+02,1.077824e+04
2.786650e+02,1.077496e+04
2.796293e+02,1.077022e+04
2.805935e+02,1.076644e+04
2.815577e+02,1.076557e+04
2.825220e+02,1.076782e+04
2.834862e+02,1.076878e+04
2.844504e+02,1.076215e+04
2.854147e+02,1.074649e+04
2.863789e+02,1.073190e+04
2.873431e+02,1.072363e+04
2.883074e+02,1.072223e+04
2.892716e+02,1.072521e+04
2.902358e+02,1.072950e+04
2.912001e+02,1.073374e+04
2.921643e+02,1.073566e+04
2.931285e+02,1.073638e+04
2.940928e+02,1.073863e+04
2.950570e+02,1.074321e+04
2.960212e+02,1.074777e+04
2.969855e+02,1.074897e+04
2.979497e+02,1.074450e+04
2.989139e+02,1.073369e+04
2.998782e+02,1.072520e+04
3.008424e+02,1.072588e+04
3.018066e+02,1.073176e+04
3.027709e+02,1.073670e+04
3.037351e+02,1.073677e+04
3.046993e+02,1.073258e+04
3.056636e+02,1.072748e+04
3.066278e+02,1.072305e+04
3.075920e+02,1.071934e+04
3.085563e+02,1.071532e+04
3.095205e+02,1.071391e+04
3.104847e+02,1.071720e+04
3.114490e+02,1.072513e+04
3.124132e+02,1.073410e+04
3.133774e+02,1.073979e+04
3.143417e+02,1.074079e+04
3.153059e+02,1.073636e+04
3.162701e+02,1.072921e+04
3.172344e+02,1.072184e+04
3.181986e+02,1.071569e+04
3.191628e+02,1.071199e+04
3.201271e+02,1.071064e+04
3.210913e+02,1.070993e+04
3.220555e+02,1.070771e+04
3.230198e+02,1.070434e+04
3.239840e+02,1.070770e+04
3.249482e+02,1.072654e+04
3.259125e+02,1.074170e+04
3.268767e+02,1.074621e+04
3.278409e+02,1.074215e+04
3.288052e+02,1.073564e+04
3.297694e+02,1.073190e+04
3.307336e+02,1.073161e+04
3.316979e+02,1.072881e+04
3.326621e+02,1.072141e+04
3.336263e+02,1.071050e+04
3.345906e+02,1.069823e+04
3.355548e+02,1.068825e+04
3.365190e+02,1.067988e+04
3.374833e+02,1.066710e+04
3.384475e+02,1.064750e+04
3.394117e+02,1.063756e+04
3.403760e+02,1.065007e+04
3.413402e+02,1.067132e+04
3.423044e+02,1.067777e+04
3.432687e+02,1.064944e+04
3.442329e+02,1.061374e+04
3.451971e+02,1.059201e+04
3.461614e+02,1.058217e+04
3.471256e+02,1.057837e+04
3.480898e+02,1.058271e+04
3.490541e+02,1.060549e+04
3.500183e+02,1.061147e+04
3.509825e+02,1.058637e+04
3.519468e+02,1.055761e+04
3.529110e+02,1.054516e+04
3.538752e+02,1.055213e+04
3.548395e+02,1.056885e+04
3.558037e+02,1.058287e+04
3.567680e+02,1.059982e+04
3.577322e+02,1.060424e+04
3.586964e+02,1.058905e+04
3.596607e+02,1.056830e+04
3.606249e+02,1.055508e+04
3.615891e+02,1.055467e+04
3.625534e+02,1.055713e+04
3.635176e+02,1.054553e+04
3.644818e+02,1.051846e+04
3.654461e+02,1.049110e+04
3.664103e+02,1.047786e+04
3.673745e+02,1.048093e+04
3.683388e+02,1.048761e+04
3.693030e+02,1.048898e+04
3.702672e+02,1.048540e+04
3.712315e+02,1.047922e+04
3.721957e+02,1.046963e+04
3.731599e+02,1.045749e+04
3.741242e+02,1.044778e+04
3.750884e+02,1.045078e+04
3.760526e+02,1.045447e+04
3.770169e+02,1.045884e+04
3.779811e+02,1.046078e+04
3.789453e+02,1.045512e+04
3.799096e+02,1.043769e+04
3.808738e+02,1.041158e+04
3.818380e+02,1.039209e+04
3.828023e+02,1.039153e+04
3.837665e+02,1.039088e+04
3.847307e+02,1.038090e+04
3.856950e+02,1.036468e+04
3.866592e+02,1.034954e+04
3.876234e+02,1.033877e+04
3.885877e+02,1.033124e+04
3.895519e+02,1.032423e+04
3.905161e+02,1.031605e+04
3.914804e+02,1.030760e+04
3.924446e+02,1.030211e+04
3.934088e+02,1.030305e+04
3.943731e+02,1.030294e+04
3.953373e+02,1.030068e+04
3.963015e+02,1.029515e+04
3.972658e+02,1.028320e+04
3.982300e+02,1.026414e+04
3.991942e+02,1.024545e+04
4.001585e+02,1.023976e+04
4.011227e+02,1.025585e+04
4.020869e+02,1.026788e+04
4.030512e+02,1.026766e+04
4.040154e+02,1.025784e+04
4.049796e+02,1.024595e+04
4.059439e+02,1.023603e+04
4.069081e+02,1.022695e+04
4.078723e+02,1.021519e+04
4.088366e+02,1.019660e+04
4.098008e+02,1.017491e+04
4.107650e+02,1.015731e+04
4.117293e+02,1.014457e+04
4.126935e+02,1.013537e+04
4.136577e+02,1.012968e+04
4.146220e+02,1.012678e+04
4.155862e+02,1.012728e+04
4.165504e+02,1.013212e+04
4.175147e+02,1.013781e+04
4.184789e+02,1.013830e+04
4.194431e+02,1.013052e+04
4.204074e+02,1.011967e+04
4.213716e+02,1.009994e+04
4.223358e+02,1.007901e+04
4.233001e+02,1.006675e+04
4.242643e+02,1.007006e+04
4.252285e+02,1.008138e+04
4.261928e+02,1.008036e+04
4.271570e+02,1.006221e+04
4.281212e+02,1.004479e+04
4.290855e+02,1.003430e+04
4.300497e+02,1.002781e+04
4.310139e+02,1.002092e+04
4.319782e+02,1.001328e+04
4.329424e+02,1.000669e+04
4.339066e+02,1.000190e+04
4.348709e+02,9.997734e+03
4.358351e+02,9.992819e+03
4.367993e+02,9.986522e+03
4.377636e+02,9.979540e+03
4.387278e+02,9.970813e+03
4.396920e+02,9.962656e+03
4.406563e+02,9.953975e+03
4.416205e+02,9.940661e+03
4.425847e+02,9.921484e+03
4.435490e+02,9.903125e+03
4.445132e+02,9.898478e+03
4.454774e+02,9.912983e+03
4.464417e+02,9.922266e+03
4.474059e+02,9.912624e+03
4.483701e+02,9.894205e+03
4.493344e+02,9.881799e+03
4.502986e+02,9.884684e+03
4.512628e+02,9.891113e+03
4.522271e+02,9.895350e+03
4.531913e+02,9.896689e+03
4.541555e+02,9.891244e+03
4.551198e+02,9.874671e+03
4.560840e+02,9.847448e+03
4.570482e+02,9.824498e+03
4.580125e+02,9.812031e+03
4.589767e+02,9.806115e+03
4.599409e+02,9.803522e+03
4.609052e+02,9.800932e+03
4.618694e+02,9.796627e+03
4.628336e+02,9.791506e+03
4.637979e+02,9.785998e+03
4.647621e+02,9.777472e+03
4.657263e+02,9.766783e+03
4.666906e+02,9.758488e+03
4.676548e+02,9.753409e+03
4.686190e+02,9.751124e+03
4.695833e+02,9.746673e+03
4.705475e+02,9.735219e+03
4.715117e+02,9.720041e+03
4.724760e+02,9.706657e+03
4.734402e+02,9.697499e+03
4.744044e+02,9.692245e+03
4.753687e+02,9.689920e+03
4.763329e+02,9.697550e+03
4.772971e+02,9.697324e+03
4.782614e+02,9.677428e+03
4.792256e+02,9.652312e+03
4.801898e+02,9.639844e+03
4.811541e+02,9.653317e+03
4.821183e+02,9.675776e+03
4.830826e+02,9.683066e+03
4.840468e+02,9.673665e+03
4.850110e+02,9.659235e+03
4.859753e+02,9.646393e+03
4.869395e+02,9.634637e+03
4.879037e+02,9.628881e+03
4.888680e+02,9.640973e+03
4.898322e+02,9.651173e+03
4.907964e+02,9.648222e+03
4.917607e+02,9.633142e+03
4.927249e+02,9.614129e+03
4.936891e+02,9.597044e+03
4.946534e+02,9.581524e+03
4.956176e+02,9.568974e+03
4.965818e+02,9.560896e+03
4.975461e+02,9.555637e+03
4.985103e+02,9.550809e+03
4.994745e+02,9.544863e+03
5.004388e+02,9.536129e+03
5.014030e+02,9.524831e+03
5.023672e+02,9.513345e+03
5.033315e+02,9.503753e+03
5.042957e+02,9.496098e+03
5.052599e+02,9.489270e+03
5.062242e+02,9.483559e+03
5.071884e+02,9.480746e+03
5.081526e+02,9.480558e+03
5.091169e+02,9.489740e+03
5.100811e+02,9.501582e+03
5.110453e+02,9.506300e+03
5.120095e+02,9.499972e+03
5.129738e+02,9.487698e+03
5.139380e+02,9.473286e+03
5.149022e+02,9.457136e+03
5.158665e+02,9.443382e+03
5.168307e+02,9.431205e+03
5.177949e+02,9.416031e+03
5.187592e+02,9.399384e+03
5.197234e+02,9.392073e+03
5.206876e+02,9.387563e+03
5.216519e+02,9.384514e+03
5.226161e+02,9.382684e+03
5.235803e+02,9.380329e+03
5.245446e+02,9.375144e+03
5.255088e+02,9.367462e+03
5.264730e+02,9.359574e+03
5.274373e+02,9.349800e+03
5.284015e+02,9.342486e+03
5.293657e+02,9.343261e+03
5.303300e+02,9.354884e+03
5.312942e+02,9.355290e+03
5.322584e+02,9.335240e+03
5.332227e+02,9.311380e+03
5.341869e+02,9.297771e+03
5.351511e+02,9.295382e+03
5.361154e+02,9.295538e+03
5.370796e+02,9.288119e+03
5.380438e+02,9.272326e+03
5.390081e+02,9.257504e+03
5.399723e+02,9.242264e+03
5.409365e+02,9.231939e+03
5.419008e+02,9.229590e+03
5.428650e+02,9.236298e+03
5.438292e+02,9.242869e+03
5.447935e+02,9.246196e+03
5.457577e+02,9.246332e+03
5.467219e+02,9.243578e+03
5.476862e+02,9.238357e+03
5.486504e+02,9.230095e+03
5.496146e+02,9.217099e+03
5.505789e+02,9.193354e+03
5.515431e+02,9.173409e+03
5.525073e+02,9.166525e+03
5.534716e+02,9.169645e+03
5.544358e+02,9.173439e+03
5.554000e+02,9.168137e+03
5.563643e+02,9.160989e+03
5.573285e+02,9.160456e+03
5.582927e+02,9.164699e+03
5.592570e+02,9.168064e+03
5.602212e+02,9.168843e+03
5.611854e+02,9.166256e+03
5.621497e+02,9.159803e+03
5.631139e+02,9.140774e+03
5.640781e+02,9.121348e+03
5.650424e+02,9.110235e+03
5.660066e+02,9.105858e+03
5.669708e+02,9.099423e+03
5.679351e+02,9.084872e+03
5.688993e+02,9.067249e+03
5.698635e+02,9.053932e+03
5.708278e+02,9.046199e+03
5.717920e+02,9.045600e+03
5.727562e+02,9.053168e+03
5.737205e+02,9.072494e+03
5.746847e+02,9.079380e+03
5.756489e+02,9.063384e+03
5.766132e+02,9.042340e+03
5.775774e+02,9.025183e+03
5.785416e+02,9.013822e+03
5.795059e+02,9.007575e+03
5.804701e+02,9.011802e+03
5.814343e+02,9.021466e+03
5.823986e+02,9.018757e+03
5.833628e+02,8.998854e+03
5.843270e+02,8.973399e+03
5.852913e+02,8.957097e+03
5.862555e+02,8.954060e+03
5.872197e+02,8.954860e+03
5.881840e+02,8.964025e+03
5.891482e+02,8.972529e+03
5.901124e+02,8.972057e+03
5.910767e+02,8.959196e+03
5.920409e+02,8.944192e+03
5.930051e+02,8.936116e+03
5.939694e+02,8.933493e+03
5.949336e+02,8.933081e+03
5.958978e+02,8.935518e+03
5.968621e+02,8.937892e+03
5.978263e+02,8.934104e+03
5.987905e+02,8.919597e+03
5.997548e+02,8.906798e+03
6.007190e+02,8.897162e+03
6.016832e+02,8.891322e+03
6.026475e+02,8.888059e+03
6.036117e+02,8.884651e+03
6.045759e+02,8.882395e+03
6.055402e+02,8.884949e+03
6.065044e+02,8.890255e+03
6.074686e+02,8.890566e+03
6.084329e+02,8.883654e+03
6.093971e+02,8.871728e+03
6.103613e+02,8.861407e+03
6.113256e+02,8.859942e+03
6.122899e+02,8.853051e+03
6.132541e+02,8.833219e+03
6.142183e+02,8.806589e+03
6.151826e+02,8.784209e+03
6.161468e+02,8.774108e+03
6.171110e+02,8.772466e+03
6.180753e+02,8.774815e+03
6.190395e+02,8.779894e+03
6.200037e+02,8.782972e+03
6.209680e+02,8.780162e+03
6.219322e+02,8.773114e+03
6.228964e+02,8.771218e+03
6.238607e+02,8.778637e+03
6.248249e+02,8.785456e+03
6.257891e+02,8.786348e+03
6.267534e+02,8.780327e+03
6.277176e+02,8.771173e+03
6.286818e+02,8.764871e+03
6.296461e+02,8.758538e+03
6.306103e+02,8.746034e+03
6.315745e+02,8.728530e+03
6.325388e+02,8.713236e+03
6.335030e+02,8.704293e+03
6.344672e+02,8.700502e+03
6.354315e+02,8.697720e+03
6.363957e+02,8.694520e+03
6.373599e+02,8.689632e+03
6.383242e+02,8.684937e+03
6.392884e+02,8.681371e+03
6.402526e+02,8.677343e+03
6.412169e+02,8.672548e+03
6.421811e+02,8.666323e+03
6.431453e+02,8.657563e+03
6.441096e+02,8.646381e+03
6.450738e+02,8.634603e+03
6.460380e+02,8.625651e+03
6.470023e+02,8.621487e+03
6.479665e+02,8.616510e+03
6.489307e+02,8.605895e+03
6.498950e+02,8.596356e+03
6.508592e+02,8.594118e+03
6.518234e+02,8.599019e+03
6.527877e+02,8.598824e+03
6.537519e+02,8.590689e+03
6.547161e+02,8.578927e+03
6.556804e+02,8.564825e+03
6.566446e+02,8.549889e+03
6.576088e+02,8.538098e+03
6.585731e+02,8.534909e+03
6.595373e+02,8.538640e+03
6.605015e+02,8.539252e+03
6.614658e+02,8.535371e+03
6.624300e+02,8.530114e+03
6.633942e+02,8.526271e+03
6.643585e+02,8.523315e+03
6.653227e+02,8.522013e+03
6.662869e+02,8.520415e+03
6.672512e+02,8.519341e+03
6.682154e+02,8.520464e+03
6.691796e+02,8.522807e+03
6.701439e+02,8.523053e+03
6.711081e+02,8.520136e+03
6.720723e+02,8.513731e+03
6.730366e+02,8.503205e+03
6.740008e+02,8.489297e+03
6.749650e+02,8.473802e+03
6.759293e+02,8.458145e+03
6.768935e+02,8.442205e+03
6.778577e+02,8.430347e+03
6.788220e+02,8.428048e+03
6.797862e+02,8.430587e+03
6.807504e+02,8.430506e+03
6.817147e+02,8.423777e+03
6.826789e+02,8.421149e+03
6.836431e+02,8.431729e+03
6.846074e+02,8.442577e+03
6.855716e+02,8.440433e+03
6.865358e+02,8.424671e+03
6.875001e+02,8.405365e+03
6.884643e+02,8.394577e+03
6.894285e+02,8.392525e+03
6.903928e+02,8.384684e+03
6.913570e+02,8.365683e+03
6.923212e+02,8.343977e+03
6.932855e+02,8.329723e+03
6.942497e+02,8.329011e+03
6.952139e+02,8.331355e+03
6.961782e+02,8.336213e+03
6.971424e+02,8.342361e+03
6.981066e+02,8.347529e+03
6.990709e+02,8.348196e+03
7.000351e+02,8.344459e+03
7.009993e+02,8.343003e+03
7.019636e+02,8.342872e+03
7.029278e+02,8.335685e+03
7.038920e+02,8.319012e+03
7.048563e+02,8.297247e+03
7.058205e+02,8.277092e+03
7.067847e+02,8.260712e+03
7.077490e+02,8.250414e+03
7.087132e+02,8.253397e+03
7.096774e+02,8.264048e+03
7.106417e+02,8.270974e+03
7.116059e+02,8.271526e+03
7.125701e+02,8.271584e+03
7.135344e+02,8.277896e+03
7.144986e+02,8.284410e+03
7.154628e+02,8.282154e+03
7.164271e+02,8.269370e+03
7.173913e+02,8.254592e+03
7.183555e+02,8.247767e+03
7.193198e+02,8.246547e+03
7.202840e+02,8.239648e+03
7.212482e+02,8.225567e+03
7.222125e+02,8.212288e+03
7.231767e+02,8.207569e+03
7.241409e+02,8.214171e+03
7.251052e+02,8.214815e+03
7.260694e+02,8.202904e+03
7.270336e+02,8.189446e+03
7.279979e+02,8.182458e+03
7.289621e+02,8.182519e+03
7.299263e+02,8.183160e+03
7.308906e+02,8.180981e+03
7.318548e+02,8.176798e+03
7.328190e+02,8.174073e+03
7.337833e+02,8.172647e+03
7.347475e+02,8.167260e+03
7.357117e+02,8.150995e+03
7.366760e+02,8.126784e+03
7.376402e+02,8.112304e+03
7.386044e+02,8.110590e+03
7.395687e+02,8.113464e+03
7.405329e+02,8.113053e+03
7.414971e+02,8.108236e+03
7.424614e+02,8.102431e+03
7.434256e+02,8.099063e+03
7.443898e+02,8.100033e+03
7.453541e+02,8.104714e+03
7.463183e+02,8.108311e+03
7.472825e+02,8.105185e+03
7.482468e+02,8.087587e+03
7.492110e+02,8.066395e+03
7.501752e+02,8.058667e+03
7.511395e+02,8.066177e+03
7.521037e+02,8.075170e+03
7.530679e+02,8.069369e+03
7.540322e+02,8.049381e+03
7.549964e+02,8.035656e+03
7.559606e+02,8.031169e+03
7.569249e+02,8.029299e+03
7.578891e+02,8.025803e+03
7.588533e+02,8.021258e+03
7.598176e+02,8.022031e+03
7.607818e+02,8.026354e+03
7.617460e+02,8.024503e+03
7.627103e+02,8.015493e+03
7.636745e+02,8.003439e+03
7.646387e+02,7.991772e+03
7.656030e+02,7.976583e+03
7.665672e+02,7.965575e+03
7.675314e+02,7.965499e+03
7.684957e+02,7.968658e+03
7.694599e+02,7.963231e+03
7.704241e+02,7.943771e+03
7.713884e+02,7.919448e+03
7.723526e+02,7.910237e+03
7.733168e+02,7.919256e+03
7.742811e+02,7.933280e+03
7.752453e+02,7.943238e+03
7.762095e+02,7.946813e+03
7.771738e+02,7.946260e+03
7.781380e+02,7.933819e+03
7.791022e+02,7.920667e+03
7.800665e+02,7.913349e+03
7.810307e+02,7.909694e+03
7.819949e+02,7.905141e+03
7.829592e+02,7.901182e+03
7.839234e+02,7.898818e+03
7.848876e+02,7.896799e+03
7.858519e+02,7.894383e+03
7.868161e+02,7.892386e+03
7.877803e+02,7.892161e+03
7.887446e+02,7.889073e+03
7.897088e+02,7.873815e+03
7.906730e+02,7.851705e+03
7.916373e+02,7.843369e+03
7.926015e+02,7.853333e+03
7.935657e+02,7.867412e+03
7.945300e+02,7.866553e+03
7.954942e+02,7.849099e+03
7.964584e+02,7.829347e+03
7.974227e+02,7.813784e+03
7.983869e+02,7.806192e+03
7.993511e+02,7.801932e+03
8.003154e+02,7.797398e+03
8.012796e+02,7.788268e+03
8.022438e+02,7.770919e+03
8.032081e+02,7.756726e+03
8.041723e+02,7.757415e+03
8.051365e+02,7.774959e+03
8.061008e+02,7.791450e+03
8.070650e+02,7.790437e+03
8.080292e+02,7.777687e+03
8.089935e+02,7.765611e+03
8.099577e+02,7.758383e+03
8.109219e+02,7.755264e+03
8.118862e+02,7.756810e+03
8.128504e+02,7.762593e+03
8.138146e+02,7.758924e+03
8.147789e+02,7.741005e+03
8.157431e+02,7.720826e+03
8.167073e+02,7.710049e+03
8.176716e+02,7.714548e+03
8.186358e+02,7.719016e+03
8.196000e+02,7.721757e+03
8.205643e+02,7.724962e+03
8.215285e+02,7.727955e+03
8.224927e+02,7.729603e+03
8.234570e+02,7.725301e+03
8.244212e+02,7.704517e+03
8.253854e+02,7.686172e+03
8.263497e+02,7.684260e+03
8.273139e+02,7.691854e+03
8.282781e+02,7.693852e+03
8.292424e+02,7.681318e+03
8.302066e+02,7.664966e+03
8.311708e+02,7.657976e+03
8.321351e+02,7.658702e+03
8.330993e+02,7.658712e+03
8.340635e+02,7.651696e+03
8.350278e+02,7.639939e+03
8.359920e+02,7.632583e+03
8.369562e+02,7.630250e+03
8.379205e+02,7.630567e+03
8.388847e+02,7.633189e+03
8.398489e+02,7.638034e+03
8.408132e+02,7.643990e+03
8.417774e+02,7.659036e+03
8.427416e+02,7.660967e+03
8.437059e+02,7.635403e+03
8.446701e+02,7.602555e+03
8.456343e+02,7.585128e+03
8.465986e+02,7.593583e+03
8.475628e+02,7.600614e+03
8.485270e+02,7.598115e+03
8.494913e+02,7.588977e+03
8.504555e+02,7.574385e+03
8.514197e+02,7.555263e+03
8.523840e+02,7.542048e+03
8.533482e+02,7.546755e+03
8.543124e+02,7.559947e+03
8.552767e+02,7.565154e+03
8.562409e+02,7.559556e+03
8.572051e+02,7.549328e+03
8.581694e+02,7.542628e+03
8.591336e+02,7.540008e+03
8.600978e+02,7.535047e+03
8.610621e+02,7.528320e+03
8.620263e+02,7.522407e+03
8.629905e+02,7.516998e+03
8.639548e+02,7.509360e+03
8.649190e+02,7.501057e+03
8.658832e+02,7.496459e+03
8.668475e+02,7.492643e+03
8.678117e+02,7.487847e+03
8.687759e+02,7.481480e+03
8.697402e+02,7.475606e+03
8.707044e+02,7.464181e+03
8.716686e+02,7.451800e+03
8.726329e+02,7.446015e+03
8.735971e+02,7.445116e+03
8.745613e+02,7.442833e+03
8.755256e+02,7.438649e+03
8.764898e+02,7.435148e+03
8.774540e+02,7.428139e+03
8.784183e+02,7.421221e+03
8.793825e+02,7.424290e+03
8.803467e+02,7.443345e+03
8.813110e+02,7.461984e+03
8.822752e+02,7.457486e+03
8.832394e+02,7.437295e+03
8.842037e+02,7.421477e+03
8.851679e+02,7.412688e+03
8.861321e+02,7.408550e+03
8.870964e+02,7.410825e+03
8.880606e+02,7.419801e+03
8.890248e+02,7.415971e+03
8.899891e+02,7.397434e+03
8.909533e+02,7.375817e+03
8.919175e+02,7.359282e+03
8.928818e+02,7.347056e+03
8.938460e+02,7.342696e+03
8.948102e+02,7.348749e+03
8.957745e+02,7.356197e+03
8.967387e+02,7.363468e+03
8.977029e+02,7.368778e+03
8.986672e+02,7.365189e+03
8.996314e+02,7.349830e+03
9.005956e+02,7.335923e+03
9.015599e+02,7.326285e+03
9.025241e+02,7.320141e+03
9.034883e+02,7.317276e+03
9.044526e+02,7.323345e+03
9.054168e+02,7.323585e+03
9.063810e+02,7.307784e+03
9.073453e+02,7.288088e+03
9.083095e+02,7.280769e+03
9.092737e+02,7.293596e+03
9.102380e+02,7.309138e+03
9.112022e+02,7.308469e+03
9.121664e+02,7.295803e+03
9.131307e+02,7.282412e+03
9.140949e+02,7.273744e+03
9.150591e+02,7.271944e+03
9.160234e+02,7.278124e+03
9.169876e+02,7.286820e+03
9.179518e+02,7.282618e+03
9.189161e+02,7.262299e+03
9.198803e+02,7.237164e+03
9.208445e+02,7.221433e+03
9.218088e+02,7.218646e+03
9.227730e+02,7.216320e+03
9.237372e+02,7.212746e+03
9.247015e+02,7.208131e+03
9.256657e+02,7.202500e+03
9.266299e+02,7.195227e+03
9.275942e+02,7.190033e+03
9.285584e+02,7.185471e+03
9.295226e+02,7.181562e+03
9.304869e+02,7.180221e+03
9.314511e+02,7.181619e+03
9.324153e+02,7.182702e+03
9.333796e+02,7.182021e+03
9.343438e+02,7.181878e+03
9.353080e+02,7.184898e+03
9.362723e+02,7.184574e+03
9.372365e+02,7.174284e+03
9.382007e+02,7.149635e+03
9.391650e+02,7.130070e+03
9.401292e+02,7.126599e+03
9.410934e+02,7.130796e+03
9.420577e+02,7.131501e+03
9.430219e+02,7.125118e+03
9.439861e+02,7.116921e+03
9.449504e+02,7.112872e+03
9.459146e+02,7.114430e+03
9.468788e+02,7.120222e+03
9.478431e+02,7.125522e+03
9.488073e+02,7.124839e+03
9.497715e+02,7.116269e+03
9.507358e+02,7.103170e+03
9.517000e+02,7.090150e+03
9.526642e+02,7.079669e+03
9.536285e+02,7.072702e+03
9.545927e+02,7.069392e+03
9.555569e+02,7.068000e+03
9.565212e+02,7.062380e+03
9.574854e+02,7.054739e+03
9.584496e+02,7.053183e+03
9.594139e+02,7.059202e+03
9.603781e+02,7.066796e+03
9.613423e+02,7.065163e+03
9.623066e+02,7.052571e+03
9.632708e+02,7.040243e+03
9.642350e+02,7.030110e+03
9.651993e+02,7.025517e+03
9.661635e+02,7.030485e+03
9.671277e+02,7.053409e+03
9.680920e+02,7.058786e+03
9.690562e+02,7.035889e+03
9.700204e+02,7.005343e+03
9.709847e+02,6.983612e+03
9.719489e+02,6.973612e+03
9.729131e+02,6.968634e+03
9.738774e+02,6.974222e+03
9.748416e+02,6.982631e+03
9.758058e+02,6.989674e+03
9.767701e+02,6.992994e+03
9.777343e+02,6.991638e+03
9.786985e+02,6.980007e+03
9.796628e+02,6.967885e+03
9.806270e+02,6.960918e+03
9.815912e+02,6.956166e+03
9.825555e+02,6.949016e+03
9.835197e+02,6.940157e+03
9.844839e+02,6.932083e+03
9.854482e+02,6.927624e+03
9.864124e+02,6.924859e+03
9.873766e+02,6.918675e+03
9.883409e+02,6.907646e+03
9.893051e+02,6.899945e+03
9.902693e+02,6.901518e+03
9.912336e+02,6.909045e+03
9.921978e+02,6.918006e+03
9.931620e+02,6.925401e+03
9.941263e+02,6.929304e+03
9.950905e+02,6.930008e+03
9.960547e+02,6.927187e+03
9.970190e+02,6.918017e+03
9.979832e+02,6.903400e+03
9.989474e+02,6.889370e+03
9.999117e+02,6.883667e+03
1.000876e+03,6.881076e+03
1.001840e+03,6.870417e+03
1.002804e+03,6.856113e+03
1.003769e+03,6.847713e+03
1.004733e+03,6.847037e+03
1.005697e+03,6.850038e+03
1.006661e+03,6.855110e+03
1.007626e+03,6.861072e+03
1.008590e+03,6.857802e+03
1.009554e+03,6.841438e+03
1.010518e+03,6.822811e+03
1.011482e+03,6.819486e+03
1.012447e+03,6.828291e+03
1.013411e+03,6.822885e+03
1.014375e+03,6.804681e+03
1.015339e+03,6.786771e+03
1.016304e+03,6.774688e+03
1.017268e+03,6.768146e+03
1.018232e+03,6.772346e+03
1.019196e+03,6.788400e+03
1.020161e+03,6.798966e+03
1.021125e+03,6.797957e+03
1.022089e+03,6.790414e+03
1.023053e+03,6.783191e+03
1.024018e+03,6.772876e+03
1.024982e+03,6.767926e+03
1.025946e+03,6.771166e+03
1.026910e+03,6.773278e+03
1.027875e+03,6.765088e+03
1.028839e+03,6.746093e+03
1.029803e+03,6.732903e+03
1.030767e+03,6.727653e+03
1.031731e+03,6.725515e+03
1.032696e+03,6.721877e+03
1.033660e+03,6.715967e+03
1.034624e+03,6.711178e+03
1.035588e+03,6.710442e+03
1.036552e+03,6.710319e+03
1.037517e+03,6.705776e+03
1.038481e+03,6.697722e+03
1.039445e+03,6.697651e+03
1.040409e+03,6.716349e+03
1.041374e+03,6.725495e+03
1.042338e+03,6.718335e+03
1.043302e+03,6.703735e+03
1.044266e+03,6.691424e+03
1.045231e+03,6.681443e+03
1.046195e+03,6.671862e+03
1.047159e+03,6.665349e+03
1.048123e+03,6.659658e+03
1.049088e+03,6.652920e+03
1.050052e+03,6.646881e+03
1.051016e+03,6.643331e+03
1.051980e+03,6.639539e+03
1.052945e+03,6.639476e+03
1.053909e+03,6.644757e+03
1.054873e+03,6.650388e+03
1.055837e+03,6.649436e+03
1.056802e+03,6.639221e+03
1.057766e+03,6.630032e+03
1.058730e+03,6.627188e+03
1.059694e+03,6.626473e+03
1.060658e+03,6.620939e+03
1.061623e+03,6.606144e+03
1.062587e+03,6.597392e+03
1.063551e+03,6.602291e+03
1.064515e+03,6.609923e+03
1.065479e+03,6.611749e+03
1.066444e+03,6.608247e+03
1.067408e+03,6.603896e+03
1.068372e+03,6.594814e+03
1.069336e+03,6.589386e+03
1.070301e+03,6.590767e+03
1.071265e+03,6.595075e+03
1.072229e+03,6.595574e+03
1.073193e+03,6.591443e+03
1.074158e+03,6.582713e+03
1.075122e+03,6.563789e+03
1.076086e+03,6.543168e+03
1.077050e+03,6.533106e+03
1.078015e+03,6.544849e+03
1.078979e+03,6.555565e+03
1.079943e+03,6.556172e+03
1.080907e+03,6.555526e+03
1.081872e+03,6.559150e+03
1.082836e+03,6.565728e+03
1.083800e+03,6.566971e+03
1.084764e+03,6.557787e+03
1.085729e+03,6.549813e+03
1.086693e+03,6.546484e+03
1.087657e+03,6.547041e+03
1.088621e+03,6.550575e+03
1.089585e+03,6.566220e+03
1.090550e+03,6.570247e+03
1.091514e+03,6.552396e+03
1.092478e+03,6.527556e+03
1.093442e+03,6.510256e+03
1.094406e+03,6.504420e+03
1.095371e+03,6.502331e+03
1.096335e+03,6.505188e+03
1.097299e+03,6.506453e+03
1.098263e+03,6.499693e+03
1.099228e+03,6.484718e+03
1.100192e+03,6.475216e+03
1.101156e+03,6.477138e+03
1.102120e+03,6.479930e+03
1.103085e+03,6.481395e+03
1.104049e+03,6.481431e+03
1.105013e+03,6.480005e+03
1.105977e+03,6.481509e+03
1.106942e+03,6.476997e+03
1.107906e+03,6.458989e+03
1.108870e+03,6.438948e+03
1.109834e+03,6.427144e+03
1.110799e+03,6.426026e+03
1.111763e+03,6.426691e+03
1.112727e+03,6.433366e+03
1.113691e+03,6.438692e+03
1.114656e+03,6.435967e+03
1.115620e+03,6.426524e+03
1.116584e+03,6.421250e+03
1.117548e+03,6.417685e+03
1.118512e+03,6.416768e+03
1.119477e+03,6.423739e+03
1.120441e+03,6.432446e+03
1.121405e+03,6.434466e+03
1.122369e+03,6.428104e+03
1.123334e+03,6.417999e+03
1.124298e+03,6.400698e+03
1.125262e+03,6.384859e+03
1.126226e+03,6.377092e+03
1.127191e+03,6.378666e+03
1.128155e+03,6.381273e+03
1.129119e+03,6.382974e+03
1.130083e+03,6.385331e+03
1.131047e+03,6.389838e+03
1.132012e+03,6.393508e+03
1.132976e+03,6.391002e+03
1.133940e+03,6.378985e+03
1.134904e+03,6.366994e+03
1.135869e+03,6.359622e+03
1.136833e+03,6.353142e+03
1.137797e+03,6.342313e+03
1.138761e+03,6.326735e+03
1.139726e+03,6.316302e+03
1.140690e+03,6.310556e+03
1.141654e+03,6.308484e+03
1.142618e+03,6.310269e+03
1.143583e+03,6.315390e+03
1.144547e+03,6.316281e+03
1.145511e+03,6.312130e+03
1.146475e+03,6.305249e+03
1.147439e+03,6.294260e+03
1.148404e+03,6.284426e+03
1.149368e+03,6.284212e+03
1.150332e+03,6.293995e+03
1.151296e+03,6.301876e+03
1.152261e+03,6.304047e+03
1.153225e+03,6.299539e+03
1.154189e+03,6.292101e+03
1.155153e+03,6.284030e+03
1.156118e+03,6.271998e+03
1.157082e+03,6.257919e+03
1.158046e+03,6.245874e+03
1.159010e+03,6.234750e+03
1.159974e+03,6.226000e+03
1.160939e+03,6.224265e+03
1.161903e+03,6.227311e+03
1.162867e+03,6.229568e+03
1.163831e+03,6.229638e+03
1.164796e+03,6.226620e+03
1.165760e+03,6.220813e+03
1.166724e+03,6.213632e+03
1.167688e+03,6.205116e+03
1.168653e+03,6.195970e+03
1.169617e+03,6.189728e+03
1.170581e+03,6.191623e+03
1.171545e+03,6.195847e+03
1.172510e+03,6.191809e+03
1.173474e+03,6.183557e+03
1.174438e+03,6.178953e+03
1.175402e+03,6.179745e+03
1.176366e+03,6.181721e+03
1.177331e+03,6.182981e+03
1.178295e+03,6.183642e+03
1.179259e+03,6.182866e+03
1.180223e+03,6.179344e+03
1.181188e+03,6.172891e+03
1.182152e+03,6.160385e+03
1.183116e+03,6.148511e+03
1.184080e+03,6.146866e+03
1.185045e+03,6.150448e+03
1.186009e+03,6.148128e+03
1.186973e+03,6.134800e+03
1.187937e+03,6.123608e+03
1.188901e+03,6.118653e+03
1.189866e+03,6.117065e+03
1.190830e+03,6.115715e+03
1.191794e+03,6.113031e+03
1.192758e+03,6.110399e+03
1.193723e+03,6.111235e+03
1.194687e+03,6.113769e+03
1.195651e+03,6.117979e+03
1.196615e+03,6.121777e+03
1.197580e+03,6.120274e+03
1.198544e+03,6.104134e+03
1.199508e+03,6.088250e+03
1.200472e+03,6.076202e+03
1.201437e+03,6.068150e+03
1.202401e+03,6.065997e+03
1.203365e+03,6.072581e+03
1.204329e+03,6.074363e+03
1.205293e+03,6.066917e+03
1.206258e+03,6.063964e+03
1.207222e+03,6.072689e+03
1.208186e+03,6.087327e+03
1.209150e+03,6.091318e+03
1.210115e+03,6.081788e+03
1.211079e+03,6.072593e+03
1.212043e+03,6.067499e+03
1.213007e+03,6.060530e+03
1.213972e+03,6.044841e+03
1.214936e+03,6.023859e+03
1.215900e+03,6.007877e+03
1.216864e+03,5.997380e+03
1.217828e+03,5.992640e+03
1.218793e+03,5.995950e+03
1.219757e+03,6.002276e+03
1.220721e+03,6.001041e+03
1.221685e+03,5.996244e+03
1.222650e+03,5.997497e+03
1.223614e+03,6.005773e+03
1.224578e+03,6.010047e+03
1.225542e+03,5.998188e+03
1.226507e+03,5.982898e+03
1.227471e+03,5.979644e+03
1.228435e+03,5.984907e+03
1.229399e+03,5.985182e+03
1.230364e+03,5.973367e+03
1.231328e+03,5.958656e+03
1.232292e+03,5.946330e+03
1.233256e+03,5.938333e+03
1.234220e+03,5.934223e+03
1.235185e+03,5.936819e+03
1.236149e+03,5.938721e+03
1.237113e+03,5.936719e+03
1.238077e+03,5.936656e+03
1.239042e+03,5.938872e+03
1.240006e+03,5.940558e+03
1.240970e+03,5.939795e+03
1.241934e+03,5.935106e+03
1.242899e+03,5.930120e+03
1.243863e+03,5.927201e+03
1.244827e+03,5.925589e+03
1.245791e+03,5.923891e+03
1.246755e+03,5.922658e+03
1.247720e+03,5.917627e+03
1.248684e+03,5.908598e+03
1.249648e+03,5.900226e+03
1.250612e+03,5.894833e+03
1.251577e+03,5.890739e+03
1.252541e+03,5.884718e+03
1.253505e+03,5.876542e+03
1.254469e+03,5.869543e+03
1.255434e+03,5.865823e+03
1.256398e+03,5.864514e+03
1.257362e+03,5.861804e+03
1.258326e+03,5.858631e+03
1.259291e+03,5.860598e+03
1.260255e+03,5.865901e+03
1.261219e+03,5.866940e+03
1.262183e+03,5.861013e+03
1.263147e+03,5.853962e+03
1.264112e+03,5.849217e+03
1.265076e+03,5.845287e+03
1.266040e+03,5.837803e+03
1.267004e+03,5.823369e+03
1.267969e+03,5.815610e+03
1.268933e+03,5.828932e+03
1.269897e+03,5.846110e+03
1.270861e+03,5.851285e+03
1.271826e+03,5.841282e+03
1.272790e+03,5.833258e+03
1.273754e+03,5.831286e+03
1.274718e+03,5.828719e+03
1.275682e+03,5.827539e+03
1.276647e+03,5.826789e+03
1.277611e+03,5.822985e+03
1.278575e+03,5.814745e+03
1.279539e+03,5.808424e+03
1.280504e+03,5.807700e+03
1.281468e+03,5.806070e+03
1.282432e+03,5.796346e+03
1.283396e+03,5.783801e+03
1.284361e+03,5.782783e+03
1.285325e+03,5.789539e+03
1.286289e+03,5.794114e+03
1.287253e+03,5.793701e+03
1.288218e+03,5.789767e+03
1.289182e+03,5.785208e+03
1.290146e+03,5.778835e+03
1.291110e+03,5.766628e+03
1.292074e+03,5.751792e+03
1.293039e+03,5.742845e+03
1.294003e+03,5.751597e+03
1.294967e+03,5.755384e+03
1.295931e+03,5.741439e+03
1.296896e+03,5.722847e+03
1.297860e+03,5.712375e+03
1.298824e+03,5.712017e+03
1.299788e+03,5.712697e+03
1.300753e+03,5.714920e+03
1.301717e+03,5.715130e+03
1.302681e+03,5.711650e+03
1.303645e+03,5.705644e+03
1.304609e+03,5.699831e+03
1.305574e+03,5.691443e+03
1.306538e+03,5.687787e+03
1.307502e+03,5.693607e+03
1.308466e+03,5.700901e+03
1.309431e+03,5.698563e+03
1.310395e+03,5.690049e+03
1.311359e+03,5.687754e+03
1.312323e+03,5.687716e+03
1.313288e+03,5.680902e+03
1.314252e+03,5.663523e+03
1.315216e+03,5.649000e+03
1.316180e+03,5.651167e+03
1.317145e+03,5.660726e+03
1.318109e+03,5.664171e+03
1.319073e+03,5.657991e+03
1.320037e+03,5.652474e+03
1.321001e+03,5.655490e+03
1.321966e+03,5.656214e+03
1.322930e+03,5.651835e+03
1.323894e+03,5.645215e+03
1.324858e+03,5.638185e+03
1.325823e+03,5.627723e+03
1.326787e+03,5.623567e+03
1.327751e+03,5.626258e+03
1.328715e+03,5.629679e+03
1.329680e+03,5.630942e+03
1.330644e+03,5.630753e+03
1.331608e+03,5.630430e+03
1.332572e+03,5.629597e+03
1.333536e+03,5.630976e+03
1.334501e+03,5.634889e+03
1.335465e+03,5.635973e+03
1.336429e+03,5.629474e+03
1.337393e+03,5.619823e+03
1.338358e+03,5.612435e+03
1.339322e+03,5.607000e+03
1.340286e+03,5.600360e+03
1.341250e+03,5.589051e+03
1.342215e+03,5.578176e+03
1.343179e+03,5.573621e+03
1.344143e+03,5.574035e+03
1.345107e+03,5.574244e+03
1.346072e+03,5.571338e+03
1.347036e+03,5.570763e+03
1.348000e+03,5.573719e+03
1.348964e+03,5.573007e+03
1.349928e+03,5.566178e+03
1.350893e+03,5.558037e+03
1.351857e+03,5.556876e+03
1.352821e+03,5.561117e+03
1.353785e+03,5.561142e+03
1.354750e+03,5.555011e+03
1.355714e+03,5.546423e+03
1.356678e+03,5.542111e+03
1.357642e+03,5.540052e+03
1.358607e+03,5.532841e+03
1.359571e+03,5.522044e+03
1.360535e+03,5.512627e+03
1.361499e+03,5.507179e+03
1.362464e+03,5.504294e+03
1.363428e+03,5.505042e+03
1.364392e+03,5.508571e+03
1.365356e+03,5.512590e+03
1.366320e+03,5.514232e+03
1.367285e+03,5.511740e+03
1.368249e+03,5.505310e+03
1.369213e+03,5.500731e+03
1.370177e+03,5.500324e+03
1.371142e+03,5.499417e+03
1.372106e+03,5.490632e+03
1.373070e+03,5.475814e+03
1.374034e+03,5.471088e+03
1.374999e+03,5.476524e+03
1.375963e+03,5.479523e+03
1.376927e+03,5.472345e+03
1.377891e+03,5.461964e+03
1.378855e+03,5.452395e+03
1.379820e+03,5.444447e+03
1.380784e+03,5.440606e+03
1.381748e+03,5.442644e+03
1.382712e+03,5.445324e+03
1.383677e+03,5.445042e+03
1.384641e+03,5.441665e+03
1.385605e+03,5.433269e+03
1.386569e+03,5.422218e+03
1.387534e+03,5.412720e+03
1.388498e+03,5.405192e+03
1.389462e+03,5.401006e+03
1.390426e+03,5.399280e+03
1.391391e+03,5.395894e+03
1.392355e+03,5.388726e+03
1.393319e+03,5.381813e+03
1.394283e+03,5.380943e+03
1.395247e+03,5.384155e+03
1.396212e+03,5.390504e+03
1.397176e+03,5.400212e+03
1.398140e+03,5.403865e+03
1.399104e+03,5.383614e+03
1.400069e+03,5.365156e+03
1.401033e+03,5.372014e+03
1.401997e+03,5.393276e+03
1.402961e+03,5.396752e+03
1.403926e+03,5.369396e+03
1.404890e+03,5.351642e+03
1.405854e+03,5.349067e+03
1.406818e+03,5.350450e+03
1.407782e+03,5.348041e+03
1.408747e+03,5.344358e+03
1.409711e+03,5.342922e+03
1.410675e+03,5.340754e+03
1.411639e+03,5.337695e+03
1.412604e+03,5.334549e+03
1.413568e+03,5.331260e+03
1.414532e+03,5.330857e+03
1.415496e+03,5.331014e+03
1.416461e+03,5.325760e+03
1.417425e+03,5.315476e+03
1.418389e+03,5.308018e+03
1.419353e+03,5.312023e+03
1.420318e+03,5.307695e+03
1.421282e+03,5.291054e+03
1.422246e+03,5.275011e+03
1.423210e+03,5.269549e+03
1.424174e+03,5.273970e+03
1.425139e+03,5.279286e+03
1.426103e+03,5.283858e+03
1.427067e+03,5.286515e+03
1.428031e+03,5.287563e+03
1.428996e+03,5.285704e+03
1.429960e+03,5.277195e+03
1.430924e+03,5.264842e+03
1.431888e+03,5.250121e+03
1.432853e+03,5.234561e+03
1.433817e+03,5.222190e+03
1.434781e+03,5.217219e+03
1.435745e+03,5.213580e+03
1.436709e+03,5.209025e+03
1.437674e+03,5.202677e+03
1.438638e+03,5.195002e+03
1.439602e+03,5.187934e+03
1.440566e+03,5.186069e+03
1.441531e+03,5.188538e+03
1.442495e+03,5.193037e+03
1.443459e+03,5.198614e+03
1.444423e+03,5.202068e+03
1.445388e+03,5.198194e+03
1.446352e+03,5.190225e+03
1.447316e+03,5.184079e+03
1.448280e+03,5.181126e+03
1.449245e+03,5.175100e+03
1.450209e+03,5.154892e+03
1.451173e+03,5.146624e+03
1.452137e+03,5.156333e+03
1.453101e+03,5.167073e+03
1.454066e+03,5.163118e+03
1.455030e+03,5.147377e+03
1.455994e+03,5.142591e+03
1.456958e+03,5.146979e+03
1.457923e+03,5.148643e+03
1.458887e+03,5.140693e+03
1.459851e+03,5.132615e+03
1.460815e+03,5.132375e+03
1.461780e+03,5.134781e+03
1.462744e+03,5.141350e+03
1.463708e+03,5.150964e+03
1.464672e+03,5.150728e+03
1.465636e+03,5.137370e+03
1.466601e+03,5.123302e+03
1.467565e+03,5.107042e+03
1.468529e+03,5.096908e+03
1.469493e+03,5.104162e+03
1.470458e+03,5.121219e+03
1.471422e+03,5.120500e+03
1.472386e+03,5.107446e+03
1.473350e+03,5.098928e+03
1.474315e+03,5.101204e+03
1.475279e+03,5.102640e+03
1.476243e+03,5.092071e+03
1.477207e+03,5.079719e+03
1.478172e+03,5.078282e+03
1.479136e+03,5.084415e+03
1.480100e+03,5.078289e+03
1.481064e+03,5.054837e+03
1.482028e+03,5.042637e+03
1.482993e+03,5.047233e+03
1.483957e+03,5.056497e+03
1.484921e+03,5.057481e+03
1.485885e+03,5.054904e+03
1.486850e+03,5.058408e+03
1.487814e+03,5.063775e+03
1.488778e+03,5.064680e+03
1.489742e+03,5.059080e+03
1.490707e+03,5.052220e+03
1.491671e+03,5.048392e+03
1.492635e+03,5.046693e+03
1.493599e+03,5.046312e+03
1.494563e+03,5.043805e+03
1.495528e+03,5.030916e+03
1.496492e+03,5.007414e+03
1.497456e+03,4.990827e+03
1.498420e+03,4.984773e+03
1.499385e+03,4.984616e+03
1.500349e+03,4.990772e+03
1.501313e+03,4.997626e+03
1.502277e+03,4.999037e+03
1.503242e+03,4.996781e+03
1.504206e+03,4.993206e+03
1.505170e+03,4.986666e+03
1.506134e+03,4.983273e+03
1.507099e+03,4.984931e+03
1.508063e+03,4.986384e+03
1.509027e+03,4.986304e+03
1.509991e+03,4.983349e+03
1.510955e+03,4.972468e+03
1.511920e+03,4.957943e+03
1.512884e+03,4.952195e+03
1.513848e+03,4.956690e+03
1.514812e+03,4.961376e+03
1.515777e+03,4.954123e+03
1.516741e+03,4.948090e+03
1.517705e+03,4.948717e+03
1.518669e+03,4.950879e+03
1.519634e+03,4.952570e+03
1.520598e+03,4.952763e+03
1.521562e+03,4.945722e+03
1.522526e+03,4.930935e+03
1.523490e+03,4.923442e+03
1.524455e+03,4.930258e+03
1.525419e+03,4.937132e+03
1.526383e+03,4.932494e+03
1.527347e+03,4.921304e+03
1.528312e+03,4.905368e+03
1.529276e+03,4.889817e+03
1.530240e+03,4.886377e+03
1.531204e+03,4.900348e+03
1.532169e+03,4.905375e+03
1.533133e+03,4.897858e+03
1.534097e+03,4.889268e+03
1.535061e+03,4.888602e+03
1.536026e+03,4.890903e+03
1.536990e+03,4.888471e+03
1.537954e+03,4.883908e+03
1.538918e+03,4.881824e+03
1.539882e+03,4.883314e+03
1.540847e+03,4.882852e+03
1.541811e+03,4.877346e+03
1.542775e+03,4.868208e+03
1.543739e+03,4.856226e+03
1.544704e+03,4.844744e+03
1.545668e+03,4.836285e+03
1.546632e+03,4.832636e+03
1.547596e+03,4.845849e+03
1.548561e+03,4.872026e+03
1.549525e+03,4.886357e+03
1.550489e+03,4.862526e+03
1.551453e+03,4.838774e+03
1.552417e+03,4.833720e+03
1.553382e+03,4.835333e+03
1.554346e+03,4.835814e+03
1.555310e+03,4.835833e+03
1.556274e+03,4.832592e+03
1.557239e+03,4.825772e+03
1.558203e+03,4.821491e+03
1.559167e+03,4.821532e+03
1.560131e+03,4.820720e+03
1.561096e+03,4.813374e+03
1.562060e+03,4.805519e+03
1.563024e+03,4.801596e+03
1.563988e+03,4.800658e+03
1.564953e+03,4.799419e+03
1.565917e+03,4.796258e+03
1.566881e+03,4.797594e+03
1.567845e+03,4.803220e+03
1.568809e+03,4.806769e+03
1.569774e+03,4.805809e+03
1.570738e+03,4.800750e+03
1.571702e+03,4.786455e+03
1.572666e+03,4.771250e+03
1.573631e+03,4.770389e+03
1.574595e+03,4.786342e+03
1.575559e+03,4.787945e+03
1.576523e+03,4.763678e+03
1.577488e+03,4.750041e+03
1.578452e+03,4.752086e+03
1.579416e+03,4.760364e+03
1.580380e+03,4.769800e+03
1.581344e+03,4.777932e+03
1.582309e+03,4.779897e+03
1.583273e+03,4.777481e+03
1.584237e+03,4.773704e+03
1.585201e+03,4.770602e+03
1.586166e+03,4.762783e+03
1.587130e+03,4.743655e+03
1.588094e+03,4.728789e+03
1.589058e+03,4.727698e+03
1.590023e+03,4.733636e+03
1.590987e+03,4.731439e+03
1.591951e+03,4.725833e+03
1.592915e+03,4.724225e+03
1.593880e+03,4.724803e+03
1.594844e+03,4.723654e+03
1.595808e+03,4.721911e+03
1.596772e+03,4.715277e+03
1.597736e+03,4.701283e+03
1.598701e+03,4.688944e+03
1.599665e+03,4.686978e+03
1.600629e+03,4.691780e+03
1.601593e+03,4.688122e+03
1.602558e+03,4.678228e+03
1.603522e+03,4.668622e+03
1.604486e+03,4.660683e+03
1.605450e+03,4.654229e+03
1.606415e+03,4.653147e+03
1.607379e+03,4.652064e+03
1.608343e+03,4.646305e+03
1.609307e+03,4.640445e+03
1.610271e+03,4.647566e+03
1.611236e+03,4.662162e+03
1.612200e+03,4.659090e+03
1.613164e+03,4.641153e+03
1.614128e+03,4.625992e+03
1.615093e+03,4.619682e+03
1.616057e+03,4.619577e+03
1.617021e+03,4.630208e+03
1.617985e+03,4.638467e+03
1.618950e+03,4.638047e+03
1.619914e+03,4.630138e+03
1.620878e+03,4.616295e+03
1.621842e+03,4.598901e+03
1.622807e+03,4.584082e+03
1.623771e+03,4.573955e+03
1.624735e+03,4.570005e+03
1.625699e+03,4.575797e+03
1.626663e+03,4.580557e+03
1.627628e+03,4.579333e+03
1.628592e+03,4.573187e+03
1.629556e+03,4.566732e+03
1.630520e+03,4.561840e+03
1.631485e+03,4.555717e+03
1.632449e+03,4.548223e+03
1.633413e+03,4.540349e+03
1.634377e+03,4.531168e+03
1.635342e+03,4.526756e+03
1.636306e+03,4.536811e+03
1.637270e+03,4.544165e+03
1.638234e+03,4.539901e+03
1.639198e+03,4.529192e+03
1.640163e+03,4.520432e+03
1.641127e+03,4.514875e+03
1.642091e+03,4.513746e+03
1.643055e+03,4.515262e+03
1.644020e+03,4.516588e+03
1.644984e+03,4.517592e+03
1.645948e+03,4.513211e+03
1.646912e+03,4.500992e+03
1.647877e+03,4.489202e+03
1.648841e+03,4.485849e+03
1.649805e+03,4.488640e+03
1.650769e+03,4.489639e+03
1.651734e+03,4.488868e+03
1.652698e+03,4.488031e+03
1.653662e+03,4.486448e+03
1.654626e+03,4.481329e+03
1.655590e+03,4.467910e+03
1.656555e+03,4.459175e+03
1.657519e+03,4.462224e+03
1.658483e+03,4.469450e+03
1.659447e+03,4.465343e+03
1.660412e+03,4.454563e+03
1.661376e+03,4.449585e+03
1.662340e+03,4.451167e+03
1.663304e+03,4.455533e+03
1.664269e+03,4.465759e+03
1.665233e+03,4.464412e+03
1.666197e+03,4.446236e+03
1.667161e+03,4.429229e+03
1.668125e+03,4.425455e+03
1.669090e+03,4.426536e+03
1.670054e+03,4.418980e+03
1.671018e+03,4.409007e+03
1.671982e+03,4.406254e+03
1.672947e+03,4.411665e+03
1.673911e+03,4.417561e+03
1.674875e+03,4.422462e+03
1.675839e+03,4.421448e+03
1.676804e+03,4.415823e+03
1.677768e+03,4.408811e+03
1.678732e+03,4.397369e+03
1.679696e+03,4.387389e+03
1.680661e+03,4.386744e+03
1.681625e+03,4.387953e+03
1.682589e+03,4.382922e+03
1.683553e+03,4.372854e+03
1.684517e+03,4.368595e+03
1.685482e+03,4.369314e+03
1.686446e+03,4.368556e+03
1.687410e+03,4.363867e+03
1.688374e+03,4.360109e+03
1.689339e+03,4.360372e+03
1.690303e+03,4.362951e+03
1.691267e+03,4.369312e+03
1.692231e+03,4.375933e+03
1.693196e+03,4.373660e+03
1.694160e+03,4.362859e+03
1.695124e+03,4.356699e+03
1.696088e+03,4.355474e+03
1.697052e+03,4.353496e+03
1.698017e+03,4.343931e+03
1.698981e+03,4.333959e+03
1.699945e+03,4.322519e+03
1.700909e+03,4.311917e+03
1.701874e+03,4.307162e+03
1.702838e+03,4.308158e+03
1.703802e+03,4.310939e+03
1.704766e+03,4.312217e+03
1.705731e+03,4.310058e+03
1.706695e+03,4.305197e+03
1.707659e+03,4.299111e+03
1.708623e+03,4.292288e+03
1.709588e+03,4.289914e+03
1.710552e+03,4.291758e+03
1.711516e+03,4.288313e+03
1.712480e+03,4.265354e+03
1.713444e+03,4.240012e+03
1.714409e+03,4.233437e+03
1.715373e+03,4.238861e+03
1.716337e+03,4.245824e+03
1.717301e+03,4.254733e+03
1.718266e+03,4.264019e+03
1.719230e+03,4.272537e+03
1.720194e+03,4.276317e+03
1.721158e+03,4.273725e+03
1.722123e+03,4.265147e+03
1.723087e+03,4.243337e+03
1.724051e+03,4.224896e+03
1.725015e+03,4.220072e+03
1.725979e+03,4.222849e+03
1.726944e+03,4.223734e+03
1.727908e+03,4.223220e+03
1.728872e+03,4.224189e+03
1.729836e+03,4.224462e+03
1.730801e+03,4.221042e+03
1.731765e+03,4.209778e+03
1.732729e+03,4.204951e+03
1.733693e+03,4.210552e+03
1.734658e+03,4.214918e+03
1.735622e+03,4.211804e+03
1.736586e+03,4.205976e+03
1.737550e+03,4.206249e+03
1.738515e+03,4.207021e+03
1.739479e+03,4.199448e+03
1.740443e+03,4.185518e+03
1.741407e+03,4.180323e+03
1.742371e+03,4.185116e+03
1.743336e+03,4.189095e+03
1.744300e+03,4.190988e+03
1.745264e+03,4.188948e+03
1.746228e+03,4.185161e+03
1.747193e+03,4.177550e+03
1.748157e+03,4.158237e+03
1.749121e+03,4.146103e+03
1.750085e+03,4.152808e+03
1.751050e+03,4.167602e+03
1.752014e+03,4.166011e+03
1.752978e+03,4.154782e+03
1.753942e+03,4.147931e+03
1.754906e+03,4.147176e+03
1.755871e+03,4.144321e+03
1.756835e+03,4.133770e+03
1.757799e+03,4.124959e+03
1.758763e+03,4.124290e+03
1.759728e+03,4.124954e+03
1.760692e+03,4.115373e+03
1.761656e+03,4.107193e+03
1.762620e+03,4.116075e+03
1.763585e+03,4.128368e+03
1.764549e+03,4.121538e+03
1.765513e+03,4.094556e+03
1.766477e+03,4.088056e+03
1.767442e+03,4.099750e+03
1.768406e+03,4.109865e+03
1.769370e+03,4.113235e+03
1.770334e+03,4.112025e+03
1.771298e+03,4.101301e+03
1.772263e+03,4.089108e+03
1.773227e+03,4.078272e+03
1.774191e+03,4.069108e+03
1.775155e+03,4.060938e+03
1.776120e+03,4.053909e+03
1.777084e+03,4.051463e+03
1.778048e+03,4.051120e+03
1.779012e+03,4.044117e+03
1.779977e+03,4.027094e+03
1.780941e+03,4.024526e+03
1.781905e+03,4.034277e+03
1.782869e+03,4.041558e+03
1.783833e+03,4.039359e+03
1.784798e+03,4.037085e+03
1.785762e+03,4.044774e+03
1.786726e+03,4.046888e+03
1.787690e+03,4.034014e+03
1.788655e+03,4.016558e+03
1.789619e+03,4.015005e+03
1.790583e+03,4.021627e+03
1.791547e+03,4.019039e+03
1.792512e+03,4.008440e+03
1.793476e+03,4.000635e+03
1.794440e+03,3.993563e+03
1.795404e+03,3.996483e+03
1.796369e+03,4.008989e+03
1.797333e+03,4.017708e+03
1.798297e+03,4.012991e+03
1.799261e+03,4.007198e+03
1.800225e+03,4.008078e+03
1.801190e+03,4.009006e+03
1.802154e+03,4.007745e+03
1.803118e+03,4.003625e+03
1.804082e+03,3.995109e+03
1.805047e+03,3.985898e+03
1.806011e+03,3.983965e+03
1.806975e+03,3.988499e+03
1.807939e+03,3.982711e+03
1.808904e+03,3.957337e+03
1.809868e+03,3.945760e+03
1.810832e+03,3.953203e+03
1.811796e+03,3.961239e+03
1.812760e+03,3.949835e+03
1.813725e+03,3.940564e+03
1.814689e+03,3.955379e+03
1.815653e+03,3.970691e+03
1.816617e+03,3.968551e+03
1.817582e+03,3.953419e+03
1.818546e+03,3.934201e+03
1.819510e+03,3.913991e+03
1.820474e+03,3.901586e+03
1.821439e+03,3.899130e+03
1.822403e+03,3.894804e+03
1.823367e+03,3.885949e+03
1.824331e+03,3.887501e+03
1.825296e+03,3.901280e+03
1.826260e+03,3.908581e+03
1.827224e+03,3.887729e+03
1.828188e+03,3.871568e+03
1.829152e+03,3.879711e+03
1.830117e+03,3.894023e+03
1.831081e+03,3.901621e+03
1.832045e+03,3.902622e+03
1.833009e+03,3.901148e+03
1.833974e+03,3.899738e+03
1.834938e+03,3.896280e+03
1.835902e+03,3.888296e+03
1.836866e+03,3.882539e+03
1.837831e+03,3.879185e+03
1.838795e+03,3.869068e+03
1.839759e+03,3.851503e+03
1.840723e+03,3.839375e+03
1.841688e+03,3.840773e+03
1.842652e+03,3.848394e+03
1.843616e+03,3.861739e+03
1.844580e+03,3.869488e+03
1.845544e+03,3.858043e+03
1.846509e+03,3.838230e+03
1.847473e+03,3.826302e+03
1.848437e+03,3.820462e+03
1.849401e+03,3.818667e+03
1.850366e+03,3.820875e+03
1.851330e+03,3.820464e+03
1.852294e+03,3.818894e+03
1.853258e+03,3.818555e+03
1.854223e+03,3.819945e+03
1.855187e+03,3.821636e+03
1.856151e+03,3.820467e+03
1.857115e+03,3.820482e+03
1.858079e+03,3.822728e+03
1.859044e+03,3.822848e+03
1.860008e+03,3.814017e+03
1.860972e+03,3.806400e+03
1.861936e+03,3.816631e+03
1.862901e+03,3.829269e+03
1.863865e+03,3.817616e+03
1.864829e+03,3.783873e+03
1.865793e+03,3.767982e+03
1.866758e+03,3.766037e+03
1.867722e+03,3.761692e+03
1.868686e+03,3.748130e+03
1.869650e+03,3.745021e+03
1.870615e+03,3.754060e+03
1.871579e+03,3.762747e+03
1.872543e+03,3.770225e+03
1.873507e+03,3.775509e+03
1.874471e+03,3.771636e+03
1.875436e+03,3.764344e+03
1.876400e+03,3.757425e+03
1.877364e+03,3.752100e+03
1.878328e+03,3.751817e+03
1.879293e+03,3.752107e+03
1.880257e+03,3.741418e+03
1.881221e+03,3.723922e+03
1.882185e+03,3.710012e+03
1.883150e+03,3.701025e+03
1.884114e+03,3.700290e+03
1.885078e+03,3.705801e+03
1.886042e+03,3.710476e+03
1.887006e+03,3.711797e+03
1.887971e+03,3.715859e+03
1.888935e+03,3.732125e+03
1.889899e+03,3.738786e+03
1.890863e+03,3.727923e+03
1.891828e+03,3.708866e+03
1.892792e+03,3.683526e+03
1.893756e+03,3.665625e+03
1.894720e+03,3.679408e+03
1.895685e+03,3.701336e+03
1.896649e+03,3.702240e+03
1.897613e+03,3.687018e+03
1.898577e+03,3.674358e+03
1.899542e+03,3.664782e+03
1.900506e+03,3.658657e+03
1.901470e+03,3.655676e+03
1.902434e+03,3.652169e+03
1.903398e+03,3.648365e+03
1.904363e+03,3.643659e+03
1.905327e+03,3.637857e+03
1.906291e+03,3.637593e+03
1.907255e+03,3.651599e+03
1.908220e+03,3.657701e+03
1.909184e+03,3.650803e+03
1.910148e+03,3.640186e+03
1.911112e+03,3.637636e+03
1.912077e+03,3.636280e+03
1.913041e+03,3.630850e+03
1.914005e+03,3.621849e+03
1.914969e+03,3.606657e+03
1.915933e+03,3.589573e+03
1.916898e+03,3.587986e+03
1.917862e+03,3.596193e+03
1.918826e+03,3.601353e+03
1.919790e+03,3.602291e+03
1.920755e+03,3.601947e+03
1.921719e+03,3.598312e+03
1.922683e+03,3.592440e+03
1.923647e+03,3.585797e+03
1.924612e+03,3.579933e+03
1.925576e+03,3.573963e+03
1.926540e+03,3.572003e+03
1.927504e+03,3.572986e+03
1.928469e+03,3.574279e+03
1.929433e+03,3.573825e+03
1.930397e+03,3.571543e+03
1.931361e+03,3.566938e+03
1.932325e+03,3.561306e+03
1.933290e+03,3.557379e+03
1.934254e+03,3.556383e+03
1.935218e+03,3.552885e+03
1.936182e+03,3.547814e+03
1.937147e+03,3.550672e+03
1.938111e+03,3.560804e+03
1.939075e+03,3.557062e+03
1.940039e+03,3.543630e+03
1.941004e+03,3.538207e+03
1.941968e+03,3.540468e+03
1.942932e+03,3.534815e+03
1.943896e+03,3.512927e+03
1.944860e+03,3.501716e+03
1.945825e+03,3.505866e+03
1.946789e+03,3.509112e+03
1.947753e+03,3.489180e+03
1.948717e+03,3.478261e+03
1.949682e+03,3.494770e+03
1.950646e+03,3.512000e+03
1.951610e+03,3.513932e+03
1.952574e+03,3.508904e+03
1.953539e+03,3.508021e+03
1.954503e+03,3.507154e+03
1.955467e+03,3.502434e+03
1.956431e+03,3.496204e+03
1.957396e+03,3.492695e+03
1.958360e+03,3.490029e+03
1.959324e+03,3.485807e+03
1.960288e+03,3.481440e+03
1.961252e+03,3.477722e+03
1.962217e+03,3.472860e+03
1.963181e+03,3.465445e+03
1.964145e+03,3.455702e+03
1.965109e+03,3.450636e+03
1.966074e+03,3.461435e+03
1.967038e+03,3.465091e+03
1.968002e+03,3.455284e+03
1.968966e+03,3.443455e+03
1.969931e+03,3.434921e+03
1.970895e+03,3.427222e+03
1.971859e+03,3.421266e+03
1.972823e+03,3.420497e+03
1.973787e+03,3.426829e+03
1.974752e+03,3.431474e+03
1.975716e+03,3.420019e+03
1.976680e+03,3.402780e+03
1.977644e+03,3.390432e+03
1.978609e+03,3.386128e+03
1.979573e+03,3.395495e+03
1.980537e+03,3.411842e+03
1.981501e+03,3.414365e+03
1.982466e+03,3.407062e+03
1.983430e+03,3.400919e+03
1.984394e+03,3.396496e+03
1.985358e+03,3.394624e+03
1.986323e+03,3.394109e+03
1.987287e+03,3.389949e+03
1.988251e+03,3.379079e+03
1.989215e+03,3.371154e+03
1.990179e+03,3.367994e+03
1.991144e+03,3.369426e+03
1.992108e+03,3.377416e+03
1.993072e+03,3.382258e+03
1.994036e+03,3.364837e+03
1.995001e+03,3.360326e+03
1.995965e+03,3.382013e+03
1.996929e+03,3.404393e+03
1.997893e+03,3.401306e+03
1.998858e+03,3.384859e+03
1.999822e+03,3.353755e+03
2.000786e+03,3.327708e+03
2.001750e+03,3.331048e+03
2.002714e+03,3.350320e+03
2.003679e+03,3.349078e+03
2.004643e+03,3.336056e+03
2.005607e+03,3.325623e+03
2.006571e+03,3.319138e+03
2.007536e+03,3.316254e+03
2.008500e+03,3.315708e+03
2.009464e+03,3.311717e+03
2.010428e+03,3.304881e+03
2.011393e+03,3.299717e+03
2.012357e+03,3.296141e+03
2.013321e+03,3.297989e+03
2.014285e+03,3.302300e+03
2.015250e+03,3.299853e+03
2.016214e+03,3.276972e+03
2.017178e+03,3.265429e+03
2.018142e+03,3.268047e+03
2.019106e+03,3.274655e+03
2.020071e+03,3.282173e+03
2.021035e+03,3.285370e+03
2.021999e+03,3.278732e+03
2.022963e+03,3.271184e+03
2.023928e+03,3.267136e+03
2.024892e+03,3.264962e+03
2.025856e+03,3.260145e+03
2.026820e+03,3.259584e+03
2.027785e+03,3.270054e+03
2.028749e+03,3.280019e+03
2.029713e+03,3.271049e+03
2.030677e+03,3.256137e+03
2.031641e+03,3.250007e+03
2.032606e+03,3.251066e+03
2.033570e+03,3.258674e+03
2.034534e+03,3.268273e+03
2.035498e+03,3.258589e+03
2.036463e+03,3.238500e+03
2.037427e+03,3.228544e+03
2.038391e+03,3.231376e+03
2.039355e+03,3.226594e+03
2.040320e+03,3.217288e+03
2.041284e+03,3.215325e+03
2.042248e+03,3.222505e+03
2.043212e+03,3.224944e+03
2.044177e+03,3.222675e+03
2.045141e+03,3.219154e+03
2.046105e+03,3.214244e+03
2.047069e+03,3.209349e+03
2.048033e+03,3.201459e+03
2.048998e+03,3.198125e+03
2.049962e+03,3.201595e+03
2.050926e+03,3.202653e+03
2.051890e+03,3.187744e+03
2.052854e+03,3.181980e+03
2.053819e+03,3.196530e+03
2.054783e+03,3.202926e+03
2.055747e+03,3.184782e+03
2.056711e+03,3.164827e+03
2.057676e+03,3.164483e+03
2.058640e+03,3.169733e+03
2.059604e+03,3.171500e+03
2.060568e+03,3.169410e+03
2.061533e+03,3.163003e+03
2.062497e+03,3.156257e+03
2.063461e+03,3.153066e+03
2.064425e+03,3.151900e+03
2.065390e+03,3.151963e+03
2.066354e+03,3.151288e+03
2.067318e+03,3.147088e+03
2.068282e+03,3.141065e+03
2.069247e+03,3.134945e+03
2.070211e+03,3.128069e+03
2.071175e+03,3.122240e+03
2.072139e+03,3.116970e+03
2.073104e+03,3.107053e+03
2.074068e+03,3.093302e+03
2.075032e+03,3.105394e+03
2.075996e+03,3.134089e+03
2.076960e+03,3.141241e+03
2.077925e+03,3.119548e+03
2.078889e+03,3.111865e+03
2.079853e+03,3.121386e+03
2.080817e+03,3.122523e+03
2.081782e+03,3.112213e+03
2.082746e+03,3.097718e+03
2.083710e+03,3.080876e+03
2.084674e+03,3.067248e+03
2.085639e+03,3.058903e+03
2.086603e+03,3.060848e+03
2.087567e+03,3.078957e+03
2.088531e+03,3.089762e+03
2.089496e+03,3.088238e+03
2.090460e+03,3.081972e+03
2.091424e+03,3.079225e+03
2.092388e+03,3.076943e+03
2.093353e+03,3.069334e+03
2.094317e+03,3.064293e+03
2.095281e+03,3.061307e+03
2.096245e+03,3.058595e+03
2.097209e+03,3.055710e+03
2.098174e+03,3.052078e+03
2.099138e+03,3.049019e+03
2.100102e+03,3.045686e+03
2.101066e+03,3.039707e+03
2.102031e+03,3.033758e+03
2.102995e+03,3.030169e+03
2.103959e+03,3.028404e+03
2.104923e+03,3.029899e+03
2.105887e+03,3.033531e+03
2.106852e+03,3.029383e+03
2.107816e+03,3.023789e+03
2.108780e+03,3.028931e+03
2.109744e+03,3.036795e+03
2.110708e+03,3.028710e+03
2.111673e+03,3.013856e+03
2.112637e+03,2.998250e+03
2.113601e+03,2.984034e+03
2.114565e+03,2.984731e+03
2.115530e+03,2.991774e+03
2.116494e+03,2.980735e+03
2.117458e+03,2.963019e+03
2.118422e+03,2.971002e+03
2.119387e+03,2.996719e+03
2.120351e+03,3.012183e+03
2.121315e+03,3.015645e+03
2.122279e+03,3.010626e+03
2.123244e+03,2.997797e+03
2.124208e+03,2.987728e+03
2.125172e+03,2.980806e+03
2.126136e+03,2.974240e+03
2.127101e+03,2.967717e+03
2.128065e+03,2.962636e+03
2.129029e+03,2.958999e+03
2.129993e+03,2.965917e+03
2.130958e+03,2.982115e+03
2.131922e+03,2.979279e+03
2.132886e+03,2.955317e+03
2.133850e+03,2.940625e+03
2.134814e+03,2.940967e+03
2.135779e+03,2.944257e+03
2.136743e+03,2.945992e+03
2.137707e+03,2.943387e+03
2.138671e+03,2.937634e+03
2.139636e+03,2.933507e+03
2.140600e+03,2.936552e+03
2.141564e+03,2.931757e+03
2.142528e+03,2.918208e+03
2.143493e+03,2.910657e+03
2.144457e+03,2.916178e+03
2.145421e+03,2.914755e+03
2.146385e+03,2.899065e+03
2.147350e+03,2.892189e+03
2.148314e+03,2.903634e+03
2.149278e+03,2.912490e+03
2.150242e+03,2.891903e+03
2.151207e+03,2.883230e+03
2.152171e+03,2.894025e+03
2.153135e+03,2.900713e+03
2.154099e+03,2.883503e+03
2.155063e+03,2.869725e+03
2.156028e+03,2.866008e+03
2.156992e+03,2.869765e+03
2.157956e+03,2.883506e+03
2.158920e+03,2.887671e+03
2.159885e+03,2.867241e+03
2.160849e+03,2.851787e+03
2.161813e+03,2.857118e+03
2.162777e+03,2.867083e+03
2.163741e+03,2.874200e+03
2.164706e+03,2.873585e+03
2.165670e+03,2.865423e+03
2.166634e+03,2.855181e+03
2.167598e+03,2.837310e+03
2.168563e+03,2.831582e+03
2.169527e+03,2.846879e+03
2.170491e+03,2.861849e+03
2.171455e+03,2.858974e+03
2.172420e+03,2.847033e+03
2.173384e+03,2.826456e+03
2.174348e+03,2.811231e+03
2.175312e+03,2.813739e+03
2.176277e+03,2.822957e+03
2.177241e+03,2.837625e+03
2.178205e+03,2.842258e+03
2.179169e+03,2.823617e+03
2.180134e+03,2.802219e+03
2.181098e+03,2.806931e+03
2.182062e+03,2.815440e+03
2.183026e+03,2.809601e+03
2.183990e+03,2.798215e+03
2.184955e+03,2.792244e+03
2.185919e+03,2.790746e+03
2.186883e+03,2.792401e+03
2.187847e+03,2.794553e+03
2.188812e+03,2.797252e+03
2.189776e+03,2.799062e+03
2.190740e+03,2.797233e+03
2.191704e+03,2.791147e+03
2.192668e+03,2.778028e+03
2.193633e+03,2.765192e+03
2.194597e+03,2.766719e+03
2.195561e+03,2.769542e+03
2.196525e+03,2.757719e+03
2.197490e+03,2.742741e+03
2.198454e+03,2.746660e+03
2.199418e+03,2.758065e+03
2.200382e+03,2.769285e+03
2.201347e+03,2.777427e+03
2.202311e+03,2.768337e+03
2.203275e+03,2.757089e+03
2.204239e+03,2.759387e+03
2.205204e+03,2.764024e+03
2.206168e+03,2.761687e+03
2.207132e+03,2.755099e+03
2.208096e+03,2.741687e+03
2.209061e+03,2.726140e+03
2.210025e+03,2.716165e+03
2.210989e+03,2.708953e+03
2.211953e+03,2.697507e+03
2.212917e+03,2.695428e+03
2.213882e+03,2.710890e+03
2.214846e+03,2.731171e+03
2.215810e+03,2.741785e+03
2.216774e+03,2.737175e+03
2.217739e+03,2.715263e+03
2.218703e+03,2.691251e+03
2.219667e+03,2.692583e+03
2.220631e+03,2.703273e+03
2.221595e+03,2.708837e+03
2.222560e+03,2.708316e+03
2.223524e+03,2.698054e+03
2.224488e+03,2.684634e+03
2.225452e+03,2.674266e+03
2.226417e+03,2.669375e+03
2.227381e+03,2.676412e+03
2.228345e+03,2.686703e+03
2.229309e+03,2.683493e+03
2.230274e+03,2.677108e+03
2.231238e+03,2.678356e+03
2.232202e+03,2.681891e+03
2.233166e+03,2.683726e+03
2.234131e+03,2.684342e+03
2.235095e+03,2.683101e+03
2.236059e+03,2.680541e+03
2.237023e+03,2.678068e+03
2.237988e+03,2.671132e+03
2.238952e+03,2.654069e+03
2.239916e+03,2.635755e+03
2.240880e+03,2.629516e+03
2.241844e+03,2.631386e+03
2.242809e+03,2.640452e+03
2.243773e+03,2.649841e+03
2.244737e+03,2.653492e+03
2.245701e+03,2.650006e+03
2.246666e+03,2.632024e+03
2.247630e+03,2.615472e+03
2.248594e+03,2.615435e+03
2.249558e+03,2.622410e+03
2.250522e+03,2.628505e+03
2.251487e+03,2.633243e+03
2.252451e+03,2.633762e+03
2.253415e+03,2.628688e+03
2.254379e+03,2.617228e+03
2.255344e+03,2.608235e+03
2.256308e+03,2.607079e+03
2.257272e+03,2.604395e+03
2.258236e+03,2.582158e+03
2.259201e+03,2.570397e+03
2.260165e+03,2.577982e+03
2.261129e+03,2.592355e+03
2.262093e+03,2.613283e+03
2.263058e+03,2.617312e+03
2.264022e+03,2.598984e+03
2.264986e+03,2.581440e+03
2.265950e+03,2.577499e+03
2.266915e+03,2.577975e+03
2.267879e+03,2.580087e+03
2.268843e+03,2.573336e+03
2.269807e+03,2.552322e+03
2.270771e+03,2.538510e+03
2.271736e+03,2.541734e+03
2.272700e+03,2.548913e+03
2.273664e+03,2.554156e+03
2.274628e+03,2.560698e+03
2.275593e+03,2.574529e+03
2.276557e+03,2.569477e+03
2.277521e+03,2.543058e+03
2.278485e+03,2.524543e+03
2.279449e+03,2.530898e+03
2.280414e+03,2.541195e+03
2.281378e+03,2.553296e+03
2.282342e+03,2.556272e+03
2.283306e+03,2.532979e+03
2.284271e+03,2.520204e+03
2.285235e+03,2.516625e+03
2.286199e+03,2.511977e+03
2.287163e+03,2.505411e+03
2.288128e+03,2.505607e+03
2.289092e+03,2.509482e+03
2.290056e+03,2.507195e+03
2.291020e+03,2.497059e+03
2.291985e+03,2.499011e+03
2.292949e+03,2.513408e+03
2.293913e+03,2.525382e+03
2.294877e+03,2.530392e+03
2.295842e+03,2.520122e+03
2.296806e+03,2.496729e+03
2.297770e+03,2.489538e+03
2.298734e+03,2.495168e+03
2.299698e+03,2.492456e+03
2.300663e+03,2.483189e+03
2.301627e+03,2.485315e+03
2.302591e+03,2.491562e+03
2.303555e+03,2.485216e+03
2.304520e+03,2.470093e+03
2.305484e+03,2.461876e+03
2.306448e+03,2.458611e+03
2.307412e+03,2.454571e+03
2.308376e+03,2.450691e+03
2.309341e+03,2.457634e+03
2.310305e+03,2.464384e+03
2.311269e+03,2.454052e+03
2.312233e+03,2.440437e+03
2.313198e+03,2.445324e+03
2.314162e+03,2.454465e+03
2.315126e+03,2.454836e+03
2.316090e+03,2.448446e+03
2.317055e+03,2.430813e+03
2.318019e+03,2.417692e+03
2.318983e+03,2.426368e+03
2.319947e+03,2.437344e+03
2.320912e+03,2.438712e+03
2.321876e+03,2.439163e+03
2.322840e+03,2.447150e+03
2.323804e+03,2.449948e+03
2.324769e+03,2.440484e+03
2.325733e+03,2.430479e+03
2.326697e+03,2.424688e+03
2.327661e+03,2.424333e+03
2.328625e+03,2.429481e+03
2.329590e+03,2.429298e+03
2.330554e+03,2.414819e+03
2.331518e+03,2.409927e+03
2.332482e+03,2.418419e+03
2.333447e+03,2.422504e+03
2.334411e+03,2.408640e+03
2.335375e+03,2.403432e+03
2.336339e+03,2.407886e+03
2.337303e+03,2.407885e+03
2.338268e+03,2.391124e+03
2.339232e+03,2.390627e+03
2.340196e+03,2.403870e+03
2.341160e+03,2.407931e+03
2.342125e+03,2.395594e+03
2.343089e+03,2.389897e+03
2.344053e+03,2.386392e+03
2.345017e+03,2.380175e+03
2.345982e+03,2.372429e+03
2.346946e+03,2.372530e+03
2.347910e+03,2.378271e+03
2.348874e+03,2.377979e+03
2.349839e+03,2.370657e+03
2.350803e+03,2.359729e+03
2.351767e+03,2.350701e+03
2.352731e+03,2.358507e+03
2.353696e+03,2.371571e+03
2.354660e+03,2.367292e+03
2.355624e+03,2.354190e+03
2.356588e+03,2.341966e+03
2.357552e+03,2.339173e+03
2.358517e+03,2.359854e+03
2.359481e+03,2.383187e+03
2.360445e+03,2.382676e+03
2.361409e+03,2.372690e+03
2.362374e+03,2.358674e+03
2.363338e+03,2.343813e+03
2.364302e+03,2.335626e+03
2.365266e+03,2.327208e+03
2.366230e+03,2.313012e+03
2.367195e+03,2.307077e+03
2.368159e+03,2.327353e+03
2.369123e+03,2.335164e+03
2.370087e+03,2.326984e+03
2.371052e+03,2.319263e+03
2.372016e+03,2.320434e+03
2.372980e+03,2.321961e+03
2.373944e+03,2.322039e+03
2.374909e+03,2.314514e+03
2.375873e+03,2.293151e+03
2.376837e+03,2.293878e+03
2.377801e+03,2.310642e+03
2.378766e+03,2.312207e+03
2.379730e+03,2.295503e+03
2.380694e+03,2.282964e+03
2.381658e+03,2.275919e+03
2.382623e+03,2.274540e+03
2.383587e+03,2.277173e+03
2.384551e+03,2.284134e+03
2.385515e+03,2.290442e+03
2.386479e+03,2.287769e+03
2.387444e+03,2.283583e+03
2.388408e+03,2.292797e+03
2.389372e+03,2.303162e+03
2.390336e+03,2.299264e+03
2.391301e+03,2.290543e+03
2.392265e+03,2.282500e+03
2.393229e+03,2.275867e+03
2.394193e+03,2.271672e+03
2.395157e+03,2.269357e+03
2.396122e+03,2.271458e+03
2.397086e+03,2.270609e+03
2.398050e+03,2.265069e+03
2.399014e+03,2.259676e+03
2.399979e+03,2.255756e+03
2.400943e+03,2.251011e+03
2.401907e+03,2.243994e+03
2.402871e+03,2.241973e+03
2.403836e+03,2.247454e+03
2.404800e+03,2.248155e+03
2.405764e+03,2.243038e+03
2.406728e+03,2.240587e+03
2.407693e+03,2.239820e+03
2.408657e+03,2.236696e+03
2.409621e+03,2.233228e+03
2.410585e+03,2.234978e+03
2.411550e+03,2.239092e+03
2.412514e+03,2.237379e+03
2.413478e+03,2.231355e+03
2.414442e+03,2.223471e+03
2.415406e+03,2.217362e+03
2.416371e+03,2.218616e+03
2.417335e+03,2.219250e+03
2.418299e+03,2.199947e+03
2.419263e+03,2.185603e+03
2.420228e+03,2.190398e+03
2.421192e+03,2.199908e+03
2.422156e+03,2.205350e+03
2.423120e+03,2.206050e+03
2.424084e+03,2.199274e+03
2.425049e+03,2.191281e+03
2.426013e+03,2.188184e+03
2.426977e+03,2.183706e+03
2.427941e+03,2.179289e+03
2.428906e+03,2.185172e+03
2.429870e+03,2.206009e+03
2.430834e+03,2.202568e+03
2.431798e+03,2.180042e+03
2.432763e+03,2.166799e+03
2.433727e+03,2.163808e+03
2.434691e+03,2.164966e+03
2.435655e+03,2.168024e+03
2.436620e+03,2.168562e+03
2.437584e+03,2.167847e+03
2.438548e+03,2.173477e+03
2.439512e+03,2.176101e+03
2.440477e+03,2.163878e+03
2.441441e+03,2.147340e+03
2.442405e+03,2.142246e+03
2.443369e+03,2.144308e+03
2.444333e+03,2.153261e+03
2.445298e+03,2.158903e+03
2.446262e+03,2.145509e+03
2.447226e+03,2.138233e+03
2.448190e+03,2.142703e+03
2.449155e+03,2.146809e+03
2.450119e+03,2.143184e+03
2.451083e+03,2.142393e+03
2.452047e+03,2.144318e+03
2.453011e+03,2.154814e+03
2.453976e+03,2.177162e+03
2.454940e+03,2.175416e+03
2.455904e+03,2.157909e+03
2.456868e+03,2.140845e+03
2.457833e+03,2.126201e+03
2.458797e+03,2.119399e+03
2.459761e+03,2.120429e+03
2.460725e+03,2.131068e+03
2.461690e+03,2.140892e+03
2.462654e+03,2.131615e+03
2.463618e+03,2.120245e+03
2.464582e+03,2.119496e+03
2.465547e+03,2.119772e+03
2.466511e+03,2.105131e+03
2.467475e+03,2.094823e+03
2.468439e+03,2.092832e+03
2.469404e+03,2.095005e+03
2.470368e+03,2.108190e+03
2.471332e+03,2.110442e+03
2.472296e+03,2.101062e+03
2.473260e+03,2.091622e+03
2.474225e+03,2.085241e+03
2.475189e+03,2.089801e+03
2.476153e+03,2.101745e+03
2.477117e+03,2.103052e+03
2.478082e+03,2.096747e+03
2.479046e+03,2.098750e+03
2.480010e+03,2.102978e+03
2.480974e+03,2.103107e+03
2.481938e+03,2.099847e+03
2.482903e+03,2.092038e+03
2.483867e+03,2.083478e+03
2.484831e+03,2.075380e+03
2.485795e+03,2.068149e+03
2.486760e+03,2.064196e+03
2.487724e+03,2.060047e+03
2.488688e+03,2.055519e+03
2.489652e+03,2.059993e+03
2.490617e+03,2.085521e+03
2.491581e+03,2.092098e+03
2.492545e+03,2.083604e+03
2.493509e+03,2.077946e+03
2.494474e+03,2.076242e+03
2.495438e+03,2.069939e+03
2.496402e+03,2.061523e+03
2.497366e+03,2.057217e+03
2.498331e+03,2.055263e+03
2.499295e+03,2.051846e+03
2.500259e+03,2.048850e+03
2.501223e+03,2.050869e+03
2.502188e+03,2.053789e+03
2.503152e+03,2.056219e+03
2.504116e+03,2.049375e+03
2.505080e+03,2.030223e+03
2.506044e+03,2.017389e+03
2.507009e+03,2.028292e+03
2.507973e+03,2.032203e+03
2.508937e+03,2.029313e+03
2.509901e+03,2.025273e+03
2.510865e+03,2.020484e+03
2.511830e+03,2.022509e+03
2.512794e+03,2.028368e+03
2.513758e+03,2.037316e+03
2.514722e+03,2.045994e+03
2.515687e+03,2.034199e+03
2.516651e+03,2.022215e+03
2.517615e+03,2.034212e+03
2.518579e+03,2.048045e+03
2.519544e+03,2.028719e+03
2.520508e+03,2.014175e+03
2.521472e+03,2.019667e+03
2.522436e+03,2.025859e+03
2.523401e+03,2.017335e+03
2.524365e+03,2.012800e+03
2.525329e+03,2.011675e+03
2.526293e+03,2.011955e+03
2.527258e+03,2.014404e+03
2.528222e+03,2.026446e+03
2.529186e+03,2.040495e+03
2.530150e+03,2.030585e+03
2.531115e+03,2.007631e+03
2.532079e+03,2.006516e+03
2.533043e+03,2.010847e+03
2.534007e+03,1.999653e+03
2.534971e+03,1.986409e+03
2.535936e+03,1.996195e+03
2.536900e+03,2.003369e+03
2.537864e+03,1.998456e+03
2.538828e+03,1.991390e+03
2.539792e+03,1.982451e+03
2.540757e+03,1.978592e+03
2.541721e+03,1.980316e+03
2.542685e+03,1.984192e+03
2.543649e+03,1.989707e+03
2.544614e+03,1.980972e+03
2.545578e+03,1.963127e+03
2.546542e+03,1.957133e+03
2.547506e+03,1.960327e+03
2.548471e+03,1.968217e+03
2.549435e+03,1.974171e+03
2.550399e+03,1.971602e+03
2.551363e+03,1.967424e+03
2.552328e+03,1.969047e+03
2.553292e+03,1.970837e+03
2.554256e+03,1.971697e+03
2.555220e+03,1.968185e+03
2.556185e+03,1.959726e+03
2.557149e+03,1.950199e+03
2.558113e+03,1.941289e+03
2.559077e+03,1.947715e+03
2.560042e+03,1.962163e+03
2.561006e+03,1.960222e+03
2.561970e+03,1.951901e+03
2.562934e+03,1.954409e+03
2.563898e+03,1.959618e+03
2.564863e+03,1.957249e+03
2.565827e+03,1.951059e+03
2.566791e+03,1.945026e+03
2.567755e+03,1.942666e+03
2.568719e+03,1.942095e+03
2.569684e+03,1.939990e+03
2.570648e+03,1.934972e+03
2.571612e+03,1.931114e+03
2.572576e+03,1.930904e+03
2.573541e+03,1.939849e+03
2.574505e+03,1.951942e+03
2.575469e+03,1.943498e+03
2.576433e+03,1.924680e+03
2.577398e+03,1.911209e+03
2.578362e+03,1.904177e+03
2.579326e+03,1.911522e+03
2.580290e+03,1.914717e+03
2.581255e+03,1.904280e+03
2.582219e+03,1.894703e+03
2.583183e+03,1.900580e+03
2.584147e+03,1.901198e+03
2.585112e+03,1.898516e+03
2.586076e+03,1.896782e+03
2.587040e+03,1.896455e+03
2.588004e+03,1.909333e+03
2.588969e+03,1.925096e+03
2.589933e+03,1.924492e+03
2.590897e+03,1.915622e+03
2.591861e+03,1.913267e+03
2.592825e+03,1.913261e+03
2.593790e+03,1.912808e+03
2.594754e+03,1.908695e+03
2.595718e+03,1.895738e+03
2.596682e+03,1.891358e+03
2.597646e+03,1.898726e+03
2.598611e+03,1.899015e+03
2.599575e+03,1.892437e+03
2.600539e+03,1.881756e+03
2.601503e+03,1.870876e+03
2.602468e+03,1.875898e+03
2.603432e+03,1.887534e+03
2.604396e+03,1.892457e+03
2.605360e+03,1.891479e+03
2.606325e+03,1.873037e+03
2.607289e+03,1.867308e+03
2.608253e+03,1.890757e+03
2.609217e+03,1.902895e+03
2.610182e+03,1.875558e+03
2.611146e+03,1.861682e+03
2.612110e+03,1.863120e+03
2.613074e+03,1.865368e+03
2.614039e+03,1.866547e+03
2.615003e+03,1.862516e+03
2.615967e+03,1.856754e+03
2.616931e+03,1.859624e+03
2.617896e+03,1.865852e+03
2.618860e+03,1.869010e+03
2.619824e+03,1.870000e+03
2.620788e+03,1.868675e+03
2.621752e+03,1.866030e+03
2.622717e+03,1.863353e+03
2.623681e+03,1.861860e+03
2.624645e+03,1.861026e+03
2.625609e+03,1.862240e+03
2.626573e+03,1.864583e+03
2.627538e+03,1.860277e+03
2.628502e+03,1.854328e+03
2.629466e+03,1.852796e+03
2.630430e+03,1.851185e+03
2.631395e+03,1.839965e+03
2.632359e+03,1.831801e+03
2.633323e+03,1.832902e+03
2.634287e+03,1.831588e+03
2.635252e+03,1.825824e+03
2.636216e+03,1.829485e+03
2.637180e+03,1.842574e+03
2.638144e+03,1.840528e+03
2.639109e+03,1.829457e+03
2.640073e+03,1.830297e+03
2.641037e+03,1.838807e+03
2.642001e+03,1.851694e+03
2.642966e+03,1.851235e+03
2.643930e+03,1.825453e+03
2.644894e+03,1.805198e+03
2.645858e+03,1.815653e+03
2.646823e+03,1.830290e+03
2.647787e+03,1.844292e+03
2.648751e+03,1.841579e+03
2.649715e+03,1.822304e+03
2.650679e+03,1.808013e+03
2.651644e+03,1.802390e+03
2.652608e+03,1.811619e+03
2.653572e+03,1.823803e+03
2.654536e+03,1.821586e+03
2.655500e+03,1.818987e+03
2.656465e+03,1.821922e+03
2.657429e+03,1.819231e+03
2.658393e+03,1.805574e+03
2.659357e+03,1.797114e+03
2.660322e+03,1.797502e+03
2.661286e+03,1.796247e+03
2.662250e+03,1.794004e+03
2.663214e+03,1.796992e+03
2.664179e+03,1.798130e+03
2.665143e+03,1.781148e+03
2.666107e+03,1.776133e+03
2.667071e+03,1.801330e+03
2.668036e+03,1.817894e+03
2.669000e+03,1.795892e+03
2.669964e+03,1.782339e+03
2.670928e+03,1.778218e+03
2.671893e+03,1.781148e+03
2.672857e+03,1.787610e+03
2.673821e+03,1.775811e+03
2.674785e+03,1.763088e+03
2.675750e+03,1.771451e+03
2.676714e+03,1.783369e+03
2.677678e+03,1.776660e+03
2.678642e+03,1.767855e+03
2.679606e+03,1.760133e+03
2.680571e+03,1.766718e+03
2.681535e+03,1.787201e+03
2.682499e+03,1.796135e+03
2.683463e+03,1.791531e+03
2.684427e+03,1.781458e+03
2.685392e+03,1.770943e+03
2.686356e+03,1.767713e+03
2.687320e+03,1.766031e+03
2.688284e+03,1.762887e+03
2.689249e+03,1.763017e+03
2.690213e+03,1.766376e+03
2.691177e+03,1.763076e+03
2.692141e+03,1.750754e+03
2.693106e+03,1.751486e+03
2.694070e+03,1.759053e+03
2.695034e+03,1.756523e+03
2.695998e+03,1.748966e+03
2.696963e+03,1.745205e+03
2.697927e+03,1.742251e+03
2.698891e+03,1.736273e+03
2.699855e+03,1.733366e+03
2.700820e+03,1.739050e+03
2.701784e+03,1.740141e+03
2.702748e+03,1.736010e+03
2.703712e+03,1.741830e+03
2.704677e+03,1.752123e+03
2.705641e+03,1.746326e+03
2.706605e+03,1.739778e+03
2.707569e+03,1.751269e+03
2.708533e+03,1.758055e+03
2.709498e+03,1.748933e+03
2.710462e+03,1.735853e+03
2.711426e+03,1.723170e+03
2.712390e+03,1.723646e+03
2.713354e+03,1.731447e+03
2.714319e+03,1.716073e+03
2.715283e+03,1.691714e+03
2.716247e+03,1.698649e+03
2.717211e+03,1.713825e+03
2.718176e+03,1.721336e+03
2.719140e+03,1.721950e+03
2.720104e+03,1.714034e+03
2.721068e+03,1.701270e+03
2.722033e+03,1.685786e+03
2.722997e+03,1.688146e+03
2.723961e+03,1.701922e+03
2.724925e+03,1.701827e+03
2.725890e+03,1.696350e+03
2.726854e+03,1.697555e+03
2.727818e+03,1.699735e+03
2.728782e+03,1.697566e+03
2.729747e+03,1.694002e+03
2.730711e+03,1.689270e+03
2.731675e+03,1.691852e+03
2.732639e+03,1.700042e+03
2.733604e+03,1.701038e+03
2.734568e+03,1.698227e+03
2.735532e+03,1.706825e+03
2.736496e+03,1.711143e+03
2.737460e+03,1.699524e+03
2.738425e+03,1.690912e+03
2.739389e+03,1.697909e+03
2.740353e+03,1.698378e+03
2.741317e+03,1.690840e+03
2.742281e+03,1.692844e+03
2.743246e+03,1.702209e+03
2.744210e+03,1.707016e+03
2.745174e+03,1.706088e+03
2.746138e+03,1.702857e+03
2.747103e+03,1.692590e+03
2.748067e+03,1.673882e+03
2.749031e+03,1.668350e+03
2.749995e+03,1.694998e+03
2.750960e+03,1.699457e+03
2.751924e+03,1.689124e+03
2.752888e+03,1.687574e+03
2.753852e+03,1.691244e+03
2.754817e+03,1.696209e+03
2.755781e+03,1.691281e+03
2.756745e+03,1.665401e+03
2.757709e+03,1.650859e+03
2.758674e+03,1.655471e+03
2.759638e+03,1.659523e+03
2.760602e+03,1.661034e+03
2.761566e+03,1.671140e+03
2.762531e+03,1.682879e+03
2.763495e+03,1.679617e+03
2.764459e+03,1.670224e+03
2.765423e+03,1.664460e+03
2.766387e+03,1.653662e+03
2.767352e+03,1.637402e+03
2.768316e+03,1.628603e+03
2.769280e+03,1.629174e+03
2.770244e+03,1.634331e+03
2.771208e+03,1.647207e+03
2.772173e+03,1.674508e+03
2.773137e+03,1.697319e+03
2.774101e+03,1.699621e+03
2.775065e+03,1.681107e+03
2.776030e+03,1.628535e+03
2.776994e+03,1.613724e+03
2.777958e+03,1.632286e+03
2.778922e+03,1.638498e+03
2.779887e+03,1.636164e+03
2.780851e+03,1.650792e+03
2.781815e+03,1.661462e+03
2.782779e+03,1.656135e+03
2.783744e+03,1.647619e+03
2.784708e+03,1.641249e+03
2.785672e+03,1.632618e+03
2.786636e+03,1.623485e+03
2.787601e+03,1.630812e+03
2.788565e+03,1.646889e+03
2.789529e+03,1.646673e+03
2.790493e+03,1.641625e+03
2.791458e+03,1.640362e+03
2.792422e+03,1.634474e+03
2.793386e+03,1.624369e+03
2.794350e+03,1.616237e+03
2.795314e+03,1.610669e+03
2.796279e+03,1.613159e+03
2.797243e+03,1.619564e+03
2.798207e+03,1.627275e+03
2.799171e+03,1.633437e+03
2.800135e+03,1.633105e+03
2.801100e+03,1.625692e+03
2.802064e+03,1.611207e+03
2.803028e+03,1.597558e+03
2.803992e+03,1.587186e+03
2.804957e+03,1.595745e+03
2.805921e+03,1.613204e+03
2.806885e+03,1.625346e+03
2.807849e+03,1.622087e+03
2.808814e+03,1.599489e+03
2.809778e+03,1.586326e+03
2.810742e+03,1.601673e+03
2.811706e+03,1.599071e+03
2.812671e+03,1.584492e+03
2.813635e+03,1.588815e+03
2.814599e+03,1.602186e+03
2.815563e+03,1.611065e+03
2.816528e+03,1.610921e+03
2.817492e+03,1.593047e+03
2.818456e+03,1.588973e+03
2.819420e+03,1.598180e+03
2.820385e+03,1.594318e+03
2.821349e+03,1.584100e+03
2.822313e+03,1.605021e+03
2.823277e+03,1.623356e+03
2.824241e+03,1.611529e+03
2.825206e+03,1.593767e+03
2.826170e+03,1.583797e+03
2.827134e+03,1.585418e+03
2.828098e+03,1.596654e+03
2.829063e+03,1.607663e+03
2.830027e+03,1.612681e+03
2.830991e+03,1.594462e+03
2.831955e+03,1.581373e+03
2.832919e+03,1.603495e+03
2.833884e+03,1.604962e+03
2.834848e+03,1.580090e+03
2.835812e+03,1.574098e+03
2.836776e+03,1.589392e+03
2.837741e+03,1.603234e+03
2.838705e+03,1.608519e+03
2.839669e+03,1.595171e+03
2.840633e+03,1.586877e+03
2.841598e+03,1.598811e+03
2.842562e+03,1.588296e+03
2.843526e+03,1.546907e+03
2.844490e+03,1.566217e+03
2.845455e+03,1.605411e+03
2.846419e+03,1.588472e+03
2.847383e+03,1.560538e+03
2.848347e+03,1.572899e+03
2.849312e+03,1.584575e+03
2.850276e+03,1.587861e+03
2.851240e+03,1.588100e+03
2.852204e+03,1.585077e+03
2.853168e+03,1.575181e+03
2.854133e+03,1.565551e+03
2.855097e+03,1.563689e+03
2.856061e+03,1.575054e+03
2.857025e+03,1.597426e+03
2.857990e+03,1.604892e+03
2.858954e+03,1.589858e+03
2.859918e+03,1.598422e+03
2.860882e+03,1.608755e+03
2.861846e+03,1.579932e+03
2.862811e+03,1.556379e+03
2.863775e+03,1.588862e+03
2.864739e+03,1.601330e+03
2.865703e+03,1.573170e+03
2.866668e+03,1.573618e+03
2.867632e+03,1.589719e+03
2.868596e+03,1.572167e+03
2.869560e+03,1.549614e+03
2.870525e+03,1.564896e+03
2.871489e+03,1.579991e+03
2.872453e+03,1.584516e+03
2.873417e+03,1.582499e+03
2.874382e+03,1.575718e+03
2.875346e+03,1.567119e+03
2.876310e+03,1.561891e+03
2.877274e+03,1.566970e+03
2.878239e+03,1.568635e+03
2.879203e+03,1.560968e+03
2.880167e+03,1.552688e+03
2.881131e+03,1.548199e+03
2.882095e+03,1.553787e+03
2.883060e+03,1.560982e+03
2.884024e+03,1.551795e+03
2.884988e+03,1.547721e+03
2.885952e+03,1.572287e+03
2.886917e+03,1.588406e+03
2.887881e+03,1.587567e+03
2.888845e+03,1.571441e+03
2.889809e+03,1.550125e+03
2.890773e+03,1.540868e+03
2.891738e+03,1.540732e+03
2.892702e+03,1.560526e+03
2.893666e+03,1.570153e+03
2.894630e+03,1.564543e+03
2.895595e+03,1.554334e+03
2.896559e+03,1.544754e+03
2.897523e+03,1.556536e+03
2.898487e+03,1.573487e+03
2.899452e+03,1.580023e+03
2.900416e+03,1.581137e+03
2.901380e+03,1.578350e+03
2.902344e+03,1.567272e+03
2.903309e+03,1.549137e+03
2.904273e+03,1.536743e+03
2.905237e+03,1.531998e+03
2.906201e+03,1.535640e+03
2.907166e+03,1.545151e+03
2.908130e+03,1.559563e+03
2.909094e+03,1.559493e+03
2.910058e+03,1.542123e+03
2.911022e+03,1.525036e+03
2.911987e+03,1.513504e+03
2.912951e+03,1.510019e+03
2.913915e+03,1.515879e+03
2.914879e+03,1.538145e+03
2.915844e+03,1.540535e+03
2.916808e+03,1.523954e+03
2.917772e+03,1.517954e+03
2.918736e+03,1.519260e+03
2.919700e+03,1.521774e+03
2.920665e+03,1.521821e+03
2.921629e+03,1.513146e+03
2.922593e+03,1.514162e+03
2.923557e+03,1.523023e+03
2.924522e+03,1.520640e+03
2.925486e+03,1.513849e+03
2.926450e+03,1.526171e+03
2.927414e+03,1.527715e+03
2.928379e+03,1.497695e+03
2.929343e+03,1.490052e+03
2.930307e+03,1.503650e+03
2.931271e+03,1.511346e+03
2.932236e+03,1.513858e+03
2.933200e+03,1.510723e+03
2.934164e+03,1.505894e+03
2.935128e+03,1.498500e+03
2.936093e+03,1.510304e+03
2.937057e+03,1.536599e+03
2.938021e+03,1.522849e+03
2.938985e+03,1.495019e+03
2.939949e+03,1.492128e+03
2.940914e+03,1.501926e+03
2.941878e+03,1.518915e+03
2.942842e+03,1.521881e+03
2.943806e+03,1.506712e+03
2.944771e+03,1.494471e+03
2.945735e+03,1.489812e+03
2.946699e+03,1.500504e+03
2.947663e+03,1.510424e+03
2.948627e+03,1.512114e+03
2.949592e+03,1.512938e+03
2.950556e+03,1.514841e+03
2.951520e+03,1.504095e+03
2.952484e+03,1.491740e+03
2.953449e+03,1.489415e+03
2.954413e+03,1.496252e+03
2.955377e+03,1.512878e+03
2.956341e+03,1.521252e+03
2.957306e+03,1.521073e+03
2.958270e+03,1.535036e+03
2.959234e+03,1.537412e+03
2.960198e+03,1.510593e+03
2.961163e+03,1.494581e+03
2.962127e+03,1.505513e+03
2.963091e+03,1.512070e+03
2.964055e+03,1.508154e+03
2.965020e+03,1.490966e+03
2.965984e+03,1.476217e+03
2.966948e+03,1.472914e+03
2.967912e+03,1.472371e+03
2.968876e+03,1.472381e+03
2.969841e+03,1.469007e+03
2.970805e+03,1.460865e+03
2.971769e+03,1.444741e+03
2.972733e+03,1.436000e+03
2.973698e+03,1.445857e+03
2.974662e+03,1.463738e+03
2.975626e+03,1.487294e+03
2.976590e+03,1.493431e+03
2.977554e+03,1.482242e+03
2.978519e+03,1.450985e+03
2.979483e+03,1.428540e+03
2.980447e+03,1.437086e+03
2.981411e+03,1.452265e+03
2.982376e+03,1.469772e+03
2.983340e+03,1.478725e+03
2.984304e+03,1.479633e+03
2.985268e+03,1.474095e+03
2.986233e+03,1.467547e+03
2.987197e+03,1.463653e+03
2.988161e+03,1.456780e+03
2.989125e+03,1.451369e+03
2.990090e+03,1.460918e+03
2.991054e+03,1.468084e+03
2.992018e+03,1.458349e+03
2.992982e+03,1.448783e+03
2.993947e+03,1.447906e+03
2.994911e+03,1.442494e+03
2.995875e+03,1.443407e+03
2.996839e+03,1.468417e+03
2.997803e+03,1.482193e+03
2.998768e+03,1.463086e+03
2.999732e+03,1.447051e+03
3.000696e+03,1.442625e+03
3.001660e+03,1.437976e+03
3.002625e+03,1.433441e+03
3.003589e+03,1.430782e+03
3.004553e+03,1.428468e+03
3.005517e+03,1.427025e+03
3.006481e+03,1.426463e+03
3.007446e+03,1.426807e+03
3.008410e+03,1.439747e+03
3.009374e+03,1.443085e+03
3.010338e+03,1.425576e+03
3.011303e+03,1.414213e+03
3.012267e+03,1.414846e+03
3.013231e+03,1.429006e+03
3.014195e+03,1.444430e+03
3.015160e+03,1.437539e+03
3.016124e+03,1.436712e+03
3.017088e+03,1.450571e+03
3.018052e+03,1.455088e+03
3.019017e+03,1.446151e+03
3.019981e+03,1.437439e+03
3.020945e+03,1.427822e+03
3.021909e+03,1.414302e+03
3.022874e+03,1.409795e+03
3.023838e+03,1.414215e+03
3.024802e+03,1.415319e+03
3.025766e+03,1.415898e+03
3.026730e+03,1.431814e+03
3.027695e+03,1.432517e+03
3.028659e+03,1.405380e+03
3.029623e+03,1.396744e+03
3.030587e+03,1.407285e+03
3.031552e+03,1.413458e+03
3.032516e+03,1.416157e+03
3.033480e+03,1.417461e+03
3.034444e+03,1.431460e+03
3.035408e+03,1.455950e+03
3.036373e+03,1.432342e+03
3.037337e+03,1.385708e+03
3.038301e+03,1.405254e+03
3.039265e+03,1.431831e+03
3.040230e+03,1.431361e+03
3.041194e+03,1.435224e+03
3.042158e+03,1.440047e+03
3.043122e+03,1.426356e+03
3.044087e+03,1.406896e+03
3.045051e+03,1.392685e+03
3.046015e+03,1.392439e+03
3.046979e+03,1.412519e+03
3.047944e+03,1.405203e+03
3.048908e+03,1.396064e+03
3.049872e+03,1.427778e+03
3.050836e+03,1.449078e+03
3.051801e+03,1.421926e+03
3.052765e+03,1.394981e+03
3.053729e+03,1.378114e+03
3.054693e+03,1.394607e+03
3.055657e+03,1.416344e+03
3.056622e+03,1.421251e+03
3.057586e+03,1.425522e+03
3.058550e+03,1.435352e+03
3.059514e+03,1.429163e+03
3.060479e+03,1.412060e+03
3.061443e+03,1.378684e+03
3.062407e+03,1.371073e+03
3.063371e+03,1.395056e+03
3.064335e+03,1.407022e+03
3.065300e+03,1.405074e+03
3.066264e+03,1.395193e+03
3.067228e+03,1.389155e+03
3.068192e+03,1.394719e+03
3.069157e+03,1.394349e+03
3.070121e+03,1.390838e+03
3.071085e+03,1.413320e+03
3.072049e+03,1.433969e+03
3.073014e+03,1.394213e+03
3.073978e+03,1.379745e+03
3.074942e+03,1.407759e+03
3.075906e+03,1.425798e+03
3.076871e+03,1.424140e+03
3.077835e+03,1.386828e+03
3.078799e+03,1.365288e+03
3.079763e+03,1.398511e+03
3.080728e+03,1.415232e+03
3.081692e+03,1.411579e+03
3.082656e+03,1.384171e+03
3.083620e+03,1.379551e+03
3.084584e+03,1.421979e+03
3.085549e+03,1.437440e+03
3.086513e+03,1.412403e+03
3.087477e+03,1.392809e+03
3.088441e+03,1.385640e+03
3.089406e+03,1.407664e+03
3.090370e+03,1.420547e+03
3.091334e+03,1.418067e+03
3.092298e+03,1.391434e+03
3.093262e+03,1.363138e+03
3.094227e+03,1.386285e+03
3.095191e+03,1.406237e+03
3.096155e+03,1.404188e+03
3.097119e+03,1.422570e+03
3.098084e+03,1.445927e+03
3.099048e+03,1.434068e+03
3.100012e+03,1.420962e+03
3.100976e+03,1.436846e+03
3.101941e+03,1.426344e+03
3.102905e+03,1.394850e+03
3.103869e+03,1.402167e+03
3.104833e+03,1.411837e+03
3.105798e+03,1.400498e+03
3.106762e+03,1.404526e+03
3.107726e+03,1.428867e+03
3.108690e+03,1.394586e+03
3.109655e+03,1.352155e+03
3.110619e+03,1.368279e+03
3.111583e+03,1.391985e+03
3.112547e+03,1.411728e+03
3.113511e+03,1.421043e+03
3.114476e+03,1.419494e+03
3.115440e+03,1.390991e+03
3.116404e+03,1.378001e+03
3.117368e+03,1.404414e+03
3.118333e+03,1.412962e+03
3.119297e+03,1.407952e+03
3.120261e+03,1.398102e+03
3.121225e+03,1.399560e+03
3.122189e+03,1.420785e+03
3.123154e+03,1.417170e+03
3.124118e+03,1.392333e+03
3.125082e+03,1.383894e+03
3.126046e+03,1.384489e+03
3.127011e+03,1.388523e+03
3.127975e+03,1.383412e+03
3.128939e+03,1.370224e+03
3.129903e+03,1.352987e+03
3.130868e+03,1.341501e+03
3.131832e+03,1.346696e+03
3.132796e+03,1.357080e+03
3.133760e+03,1.368529e+03
3.134725e+03,1.361810e+03
3.135689e+03,1.369607e+03
3.136653e+03,1.425900e+03
3.137617e+03,1.449242e+03
3.138582e+03,1.416175e+03
3.139546e+03,1.418090e+03
3.140510e+03,1.431779e+03
3.141474e+03,1.439799e+03
3.142438e+03,1.420102e+03
3.143403e+03,1.379758e+03
3.144367e+03,1.377820e+03
3.145331e+03,1.399597e+03
3.146295e+03,1.441061e+03
3.147260e+03,1.452363e+03
3.148224e+03,1.416293e+03
3.149188e+03,1.392358e+03
3.150152e+03,1.382715e+03
3.151116e+03,1.384316e+03
3.152081e+03,1.386032e+03
3.153045e+03,1.380057e+03
3.154009e+03,1.391152e+03
3.154973e+03,1.406933e+03
3.155938e+03,1.384260e+03
3.156902e+03,1.390139e+03
3.157866e+03,1.433993e+03
3.158830e+03,1.435252e+03
3.159795e+03,1.409244e+03
3.160759e+03,1.391348e+03
3.161723e+03,1.383222e+03
3.162687e+03,1.396445e+03
3.163652e+03,1.397392e+03
3.164616e+03,1.398391e+03
3.165580e+03,1.425805e+03
3.166544e+03,1.429917e+03
3.167509e+03,1.395230e+03
3.168473e+03,1.354383e+03
3.169437e+03,1.324127e+03
3.170401e+03,1.357729e+03
3.171365e+03,1.374615e+03
3.172330e+03,1.339444e+03
3.173294e+03,1.355892e+03
3.174258e+03,1.394162e+03
3.175222e+03,1.375380e+03
3.176187e+03,1.358278e+03
3.177151e+03,1.385645e+03
3.178115e+03,1.394784e+03
3.179079e+03,1.388032e+03
3.180043e+03,1.385583e+03
3.181008e+03,1.384823e+03
3.181972e+03,1.386503e+03
3.182936e+03,1.396766e+03
3.183900e+03,1.406297e+03
3.184865e+03,1.376759e+03
3.185829e+03,1.362797e+03
3.186793e+03,1.432300e+03
3.187757e+03,1.415561e+03
3.188722e+03,1.363499e+03
3.189686e+03,1.396692e+03
3.190650e+03,1.438258e+03
3.191614e+03,1.453488e+03
3.192579e+03,1.436774e+03
3.193543e+03,1.402673e+03
3.194507e+03,1.379535e+03
3.195471e+03,1.369104e+03
3.196436e+03,1.372063e+03
3.197400e+03,1.410244e+03
3.198364e+03,1.454486e+03
3.199328e+03,1.460377e+03
3.200292e+03,1.464813e+03
3.201257e+03,0.000000e+00
3.202221e+03,0.000000e+00
3.203185e+03,0.000000e+00
3.204149e+03,0.000000e+00
3.205114e+03,0.000000e+00
3.206078e+03,0.000000e+00
3.207042e+03,0.000000e+00
3.208006e+03,0.000000e+00
3.208970e+03,0.000000e+00
3.209935e+03,0.000000e+00
3.210899e+03,0.000000e+00
3.211863e+03,0.000000e+00
3.212827e+03,0.000000e+00
3.213792e+03,0.000000e+00
3.214756e+03,0.000000e+00
3.215720e+03,0.000000e+00
3.216684e+03,0.000000e+00
3.217649e+03,0.000000e+00
3.218613e+03,0.000000e+00
3.219577e+03,0.000000e+00
3.220541e+03,0.000000e+00
3.221506e+03,0.000000e+00
3.222470e+03,0.000000e+00
3.223434e+03,0.000000e+00
3.224398e+03,0.000000e+00
3.225363e+03,0.000000e+00
3.226327e+03,0.000000e+00
3.227291e+03,0.000000e+00
3.228255e+03,0.000000e+00
3.229219e+03,0.000000e+00
3.230184e+03,0.000000e+00
3.231148e+03,0.000000e+00
3.232112e+03,0.000000e+00
3.233076e+03,0.000000e+00
3.234041e+03,0.000000e+00
3.235005e+03,0.000000e+00
3.235969e+03,0.000000e+00
3.236933e+03,0.000000e+00
3.237897e+03,0.000000e+00
3.238862e+03,0.000000e+00
3.239826e+03,0.000000e+00
3.240790e+03,0.000000e+00
3.241754e+03,0.000000e+00
3.242719e+03,0.000000e+00
3.243683e+03,0.000000e+00
3.244647e+03,0.000000e+00
3.245611e+03,0.000000e+00
3.246576e+03,0.000000e+00
3.247540e+03,0.000000e+00
3.248504e+03,0.000000e+00
3.249468e+03,0.000000e+00
3.250433e+03,0.000000e+00
3.251397e+03,0.000000e+00
3.252361e+03,0.000000e+00
3.253325e+03,0.000000e+00
3.254290e+03,0.000000e+00
3.255254e+03,0.000000e+00
3.256218e+03,0.000000e+00
3.257182e+03,0.000000e+00
3.258146e+03,0.000000e+00
3.259111e+03,0.000000e+00
3.260075e+03,0.000000e+00
3.261039e+03,0.000000e+00
3.262003e+03,0.000000e+00
3.262968e+03,0.000000e+00
3.263932e+03,0.000000e+00
3.264896e+03,0.000000e+00
3.265860e+03,0.000000e+00
3.266824e+03,0.000000e+00
3.267789e+03,0.000000e+00
3.268753e+03,0.000000e+00
3.269717e+03,0.000000e+00
3.270681e+03,0.000000e+00
3.271646e+03,0.000000e+00
3.272610e+03,0.000000e+00
3.273574e+03,0.000000e+00
3.274538e+03,0.000000e+00
3.275503e+03,0.000000e+00
3.276467e+03,0.000000e+00
3.277431e+03,0.000000e+00
3.278395e+03,0.000000e+00
3.279360e+03,0.000000e+00
3.280324e+03,0.000000e+00
3.281288e+03,0.000000e+00
3.282252e+03,0.000000e+00
3.283217e+03,0.000000e+00
3.284181e+03,0.000000e+00
3.285145e+03,0.000000e+00
3.286109e+03,0.000000e+00
3.287073e+03,0.000000e+00
3.288038e+03,0.000000e+00
3.289002e+03,0.000000e+00
3.289966e+03,0.000000e+00
3.290930e+03,0.000000e+00
3.291895e+03,0.000000e+00
3.292859e+03,0.000000e+00
3.293823e+03,0.000000e+00
3.294787e+03,0.000000e+00
3.295751e+03,0.000000e+00
3.296716e+03,0.000000e+00
3.297680e+03,0.000000e+00
3.298644e+03,0.000000e+00
3.299608e+03,0.000000e+00
3.300573e+03,0.000000e+00
3.301537e+03,0.000000e+00
3.302501e+03,0.000000e+00
3.303465e+03,0.000000e+00
3.304430e+03,0.000000e+00
3.305394e+03,0.000000e+00
3.306358e+03,0.000000e+00
3.307322e+03,0.000000e+00
3.308287e+03,0.000000e+00
3.309251e+03,0.000000e+00
3.310215e+03,0.000000e+00
3.311179e+03,0.000000e+00
3.312144e+03,0.000000e+00
3.313108e+03,0.000000e+00
3.314072e+03,0.000000e+00
3.315036e+03,0.000000e+00
3.316000e+03,0.000000e+00
3.316965e+03,0.000000e+00
3.317929e+03,0.000000e+00
3.318893e+03,0.000000e+00
3.319857e+03,0.000000e+00
3.320822e+03,0.000000e+00
3.321786e+03,0.000000e+00
3.322750e+03,0.000000e+00
3.323714e+03,0.000000e+00
3.324678e+03,0.000000e+00
3.325643e+03,0.000000e+00
3.326607e+03,0.000000e+00
3.327571e+03,0.000000e+00
3.328535e+03,0.000000e+00
3.329500e+03,0.000000e+00
3.330464e+03,0.000000e+00
3.331428e+03,0.000000e+00
3.332392e+03,0.000000e+00
3.333357e+03,0.000000e+00
3.334321e+03,0.000000e+00
3.335285e+03,0.000000e+00
3.336249e+03,0.000000e+00
3.337214e+03,0.000000e+00
3.338178e+03,0.000000e+00
3.339142e+03,0.000000e+00
3.340106e+03,0.000000e+00
3.341071e+03,0.000000e+00
3.342035e+03,0.000000e+00
3.342999e+03,0.000000e+00
3.343963e+03,0.000000e+00
3.344927e+03,0.000000e+00
3.345892e+03,0.000000e+00
3.346856e+03,0.000000e+00
3.347820e+03,0.000000e+00
3.348784e+03,0.000000e+00
3.349749e+03,0.000000e+00
3.350713e+03,0.000000e+00
3.351677e+03,0.000000e+00
3.352641e+03,0.000000e+00
3.353605e+03,0.000000e+00
3.354570e+03,0.000000e+00
3.355534e+03,0.000000e+00
3.356498e+03,0.000000e+00
3.357462e+03,0.000000e+00
3.358427e+03,0.000000e+00
3.359391e+03,0.000000e+00
3.360355e+03,0.000000e+00
3.361319e+03,0.000000e+00
3.362284e+03,0.000000e+00
3.363248e+03,0.000000e+00
3.364212e+03,0.000000e+00
3.365176e+03,0.000000e+00
3.366141e+03,0.000000e+00
3.367105e+03,0.000000e+00
3.368069e+03,0.000000e+00
3.369033e+03,0.000000e+00
3.369998e+03,0.000000e+00
3.370962e+03,0.000000e+00
3.371926e+03,0.000000e+00
3.372890e+03,0.000000e+00
3.373854e+03,0.000000e+00
3.374819e+03,0.000000e+00
3.375783e+03,0.000000e+00
3.376747e+03,0.000000e+00
3.377711e+03,0.000000e+00
3.378676e+03,0.000000e+00
3.379640e+03,0.000000e+00
3.380604e+03,0.000000e+00
3.381568e+03,0.000000e+00
3.382532e+03,0.000000e+00
3.383497e+03,0.000000e+00
3.384461e+03,0.000000e+00
3.385425e+03,0.000000e+00
3.386389e+03,0.000000e+00
3.387354e+03,0.000000e+00
3.388318e+03,0.000000e+00
3.389282e+03,0.000000e+00
3.390246e+03,0.000000e+00
3.391211e+03,0.000000e+00
3.392175e+03,0.000000e+00
3.393139e+03,0.000000e+00
3.394103e+03,0.000000e+00
3.395068e+03,0.000000e+00
3.396032e+03,0.000000e+00
3.396996e+03,0.000000e+00
3.397960e+03,0.000000e+00
3.398925e+03,0.000000e+00
3.399889e+03,0.000000e+00
3.400853e+03,0.000000e+00
3.401817e+03,0.000000e+00
3.402781e+03,0.000000e+00
3.403746e+03,0.000000e+00
3.404710e+03,0.000000e+00
3.405674e+03,0.000000e+00
3.406638e+03,0.000000e+00
3.407603e+03,0.000000e+00
3.408567e+03,0.000000e+00
3.409531e+03,0.000000e+00
3.410495e+03,0.000000e+00
3.411459e+03,0.000000e+00
3.412424e+03,0.000000e+00
3.413388e+03,0.000000e+00
3.414352e+03,0.000000e+00
3.415316e+03,0.000000e+00
3.416281e+03,0.000000e+00
3.417245e+03,0.000000e+00
3.418209e+03,0.000000e+00
3.419173e+03,0.000000e+00
3.420138e+03,0.000000e+00
3.421102e+03,0.000000e+00
3.422066e+03,0.000000e+00
3.423030e+03,0.000000e+00
3.423995e+03,0.000000e+00
3.424959e+03,0.000000e+00
3.425923e+03,0.000000e+00
3.426887e+03,0.000000e+00
3.427852e+03,0.000000e+00
3.428816e+03,0.000000e+00
3.429780e+03,0.000000e+00
3.430744e+03,0.000000e+00
3.431708e+03,0.000000e+00
3.432673e+03,0.000000e+00
3.433637e+03,0.000000e+00
3.434601e+03,0.000000e+00
3.435565e+03,0.000000e+00
3.436530e+03,0.000000e+00
3.437494e+03,0.000000e+00
3.438458e+03,0.000000e+00
3.439422e+03,0.000000e+00
3.440386e+03,0.000000e+00
3.441351e+03,0.000000e+00
3.442315e+03,0.000000e+00
3.443279e+03,0.000000e+00
3.444243e+03,0.000000e+00
3.445208e+03,0.000000e+00
3.446172e+03,0.000000e+00
3.447136e+03,0.000000e+00
3.448100e+03,0.000000e+00
3.449065e+03,0.000000e+00
3.450029e+03,0.000000e+00
3.450993e+03,0.000000e+00
3.451957e+03,0.000000e+00
3.452922e+03,0.000000e+00
3.453886e+03,0.000000e+00
3.454850e+03,0.000000e+00
3.455814e+03,0.000000e+00
3.456779e+03,0.000000e+00
3.457743e+03,0.000000e+00
3.458707e+03,0.000000e+00
3.459671e+03,0.000000e+00
3.460635e+03,0.000000e+00
3.461600e+03,0.000000e+00
3.462564e+03,0.000000e+00
3.463528e+03,0.000000e+00
3.464492e+03,0.000000e+00
3.465457e+03,0.000000e+00
3.466421e+03,0.000000e+00
3.467385e+03,0.000000e+00
3.468349e+03,0.000000e+00
3.469313e+03,0.000000e+00
3.470278e+03,0.000000e+00
3.471242e+03,0.000000e+00
3.472206e+03,0.000000e+00
3.473170e+03,0.000000e+00
3.474135e+03,0.000000e+00
3.475099e+03,0.000000e+00
3.476063e+03,0.000000e+00
3.477027e+03,0.000000e+00
3.477992e+03,0.000000e+00
3.478956e+03,0.000000e+00
3.479920e+03,0.000000e+00
3.480884e+03,0.000000e+00
3.481849e+03,0.000000e+00
3.482813e+03,0.000000e+00
3.483777e+03,0.000000e+00
3.484741e+03,0.000000e+00
3.485706e+03,0.000000e+00
3.486670e+03,0.000000e+00
3.487634e+03,0.000000e+00
3.488598e+03,0.000000e+00
3.489563e+03,0.000000e+00
3.490527e+03,0.000000e+00
3.491491e+03,0.000000e+00
3.492455e+03,0.000000e+00
3.493419e+03,0.000000e+00
3.494384e+03,0.000000e+00
3.495348e+03,0.000000e+00
3.496312e+03,0.000000e+00
3.497276e+03,0.000000e+00
3.498240e+03,0.000000e+00
3.499205e+03,0.000000e+00
3.500169e+03,0.000000e+00
