9.931763e+01,0.000000e+00
1.002819e+02,0.000000e+00
1.012461e+02,0.000000e+00
1.022103e+02,0.000000e+00
1.031746e+02,0.000000e+00
1.041388e+02,0.000000e+00
1.051030e+02,0.000000e+00
1.060673e+02,0.000000e+00
1.070315e+02,0.000000e+00
1.079957e+02,0.000000e+00
1.089600e+02,0.000000e+00
1.099242e+02,0.000000e+00
1.108884e+02,0.000000e+00
1.118527e+02,0.000000e+00
1.128169e+02,0.000000e+00
1.137811e+02,0.000000e+00
1.147454e+02,0.000000e+00
1.157096e+02,0.000000e+00
1.166738e+02,0.000000e+00
1.176381e+02,0.000000e+00
1.186023e+02,0.000000e+00
1.195665e+02,0.000000e+00
1.205308e+02,0.000000e+00
1.214950e+02,0.000000e+00
1.224592e+02,0.000000e+00
1.234235e+02,0.000000e+00
1.243877e+02,0.000000e+00
1.253519e+02,0.000000e+00
1.263162e+02,0.000000e+00
1.272804e+02,0.000000e+00
1.282446e+02,0.000000e+00
1.292089e+02,0.000000e+00
1.301731e+02,0.000000e+00
1.311373e+02,0.000000e+00
1.321016e+02,0.000000e+00
1.330658e+02,0.000000e+00
1.340300e+02,0.000000e+00
1.349943e+02,0.000000e+00
1.359585e+02,0.000000e+00
1.369227e+02,0.000000e+00
1.378870e+02,0.000000e+00
1.388512e+02,0.000000e+00
1.398154e+02,0.000000e+00
1.407797e+02,0.000000e+00
1.417439e+02,0.000000e+00
1.427081e+02,0.000000e+00
1.436724e+02,0.000000e+00
1.446366e+02,0.000000e+00
1.456008e+02,0.000000e+00
1.465651e+02,0.000000e+00
1.475293e+02,0.000000e+00
1.484935e+02,0.000000e+00
1.494578e+02,0.000000e+00
1.504220e+02,0.000000e+00
1.513862e+02,0.000000e+00
1.523505e+02,0.000000e+00
1.533147e+02,0.000000e+00
1.542789e+02,0.000000e+00
1.552432e+02,0.000000e+00
1.562074e+02,0.000000e+00
1.571716e+02,0.000000e+00
1.581359e+02,0.000000e+00
1.591001e+02,0.000000e+00
1.600643e+02,0.000000e+00
1.610286e+02,0.000000e+00
1.619928e+02,0.000000e+00
1.629570e+02,0.000000e+00
1.639213e+02,0.000000e+00
1.648855e+02,0.000000e+00
1.658497e+02,0.000000e+00
1.668140e+02,0.000000e+00
1.677782e+02,0.000000e+00
1.687424e+02,0.000000e+00
1.697067e+02,0.000000e+00
1.706709e+02,0.000000e+00
1.716351e+02,0.000000e+00
1.725994e+02,0.000000e+00
1.735636e+02,0.000000e+00
1.745278e+02,0.000000e+00
1.754921e+02,0.000000e+00
1.764563e+02,0.000000e+00
1.774205e+02,0.000000e+00
1.783848e+02,0.000000e+00
1.793490e+02,0.000000e+00
1.803132e+02,0.000000e+00
1.812775e+02,0.000000e+00
1.822417e+02,0.000000e+00
1.832059e+02,0.000000e+00
1.841702e+02,0.000000e+00
1.851344e+02,0.000000e+00
1.860986e+02,0.000000e+00
1.870629e+02,0.000000e+00
1.880271e+02,0.000000e+00
1.889913e+02,0.000000e+00
1.899556e+02,0.000000e+00
1.909198e+02,0.000000e+00
1.918840e+02,0.000000e+00
1.928483e+02,0.000000e+00
1.938125e+02,0.000000e+00
1.947767e+02,0.000000e+00
1.957410e+02,0.000000e+00
1.967052e+02,0.000000e+00
1.976694e+02,0.000000e+00
1.986337e+02,0.000000e+00
1.995979e+02,1.010273e+04
2.005621e+02,1.010655e+04
2.015264e+02,1.011433e+04
2.024906e+02,1.013280e+04
2.034548e+02,1.014925e+04
2.044191e+02,1.015783e+04
2.053833e+02,1.015754e+04
2.063475e+02,1.015204e+04
2.073118e+02,1.014536e+04
2.082760e+02,1.013726e+04
2.092402e+02,1.012897e+04
2.102045e+02,1.012709e+04
2.111687e+02,1.012862e+04
2.121329e+02,1.012918e+04
2.130972e+02,1.012375e+04
2.140614e+02,1.011440e+04
2.150256e+02,1.011169e+04
2.159899e+02,1.012226e+04
2.169541e+02,1.013265e+04
2.179183e+02,1.013905e+04
2.188826e+02,1.014109e+04
2.198468e+02,1.014134e+04
2.208110e+02,1.014000e+04
2.217753e+02,1.013588e+04
2.227395e+02,1.013125e+04
2.237037e+02,1.013398e+04
2.246680e+02,1.013868e+04
2.256322e+02,1.013774e+04
2.265964e+02,1.013021e+04
2.275607e+02,1.012361e+04
2.285249e+02,1.012681e+04
2.294892e+02,1.014178e+04
2.304534e+02,1.015807e+04
2.314176e+02,1.016067e+04
2.323819e+02,1.015122e+04
2.333461e+02,1.014534e+04
2.343103e+02,1.015383e+04
2.352746e+02,1.017080e+04
2.362388e+02,1.018288e+04
2.372030e+02,1.018413e+04
2.381673e+02,1.017497e+04
2.391315e+02,1.016321e+04
2.400957e+02,1.015365e+04
2.410600e+02,1.014525e+04
2.420242e+02,1.013948e+04
2.429884e+02,1.013847e+04
2.439527e+02,1.014249e+04
2.449169e+02,1.014879e+04
2.458811e+02,1.015573e+04
2.468454e+02,1.016206e+04
2.478096e+02,1.016772e+04
2.487738e+02,1.017313e+04
2.497381e+02,1.017827e+04
2.507023e+02,1.018333e+04
2.516665e+02,1.018881e+04
2.526308e+02,1.019481e+04
2.535950e+02,1.020032e+04
2.545592e+02,1.019821e+04
2.555235e+02,1.018716e+04
2.564877e+02,1.017175e+04
2.574519e+02,1.015758e+04
2.584161e+02,1.014862e+04
2.593804e+02,1.014635e+04
2.603446e+02,1.015108e+04
2.613088e+02,1.016720e+04
2.622731e+02,1.018110e+04
2.632373e+02,1.018680e+04
2.642015e+02,1.018301e+04
2.651658e+02,1.017530e+04
2.661300e+02,1.017188e+04
2.670942e+02,1.017662e+04
2.680585e+02,1.018322e+04
2.690227e+02,1.019567e+04
2.699869e+02,1.020663e+04
2.709512e+02,1.020906e+04
2.719154e+02,1.020149e+04
2.728796e+02,1.019108e+04
2.738439e+02,1.018723e+04
2.748081e+02,1.019343e+04
2.757723e+02,1.020582e+04
2.767366e+02,1.021283e+04
2.777008e+02,1.021217e+04
2.786650e+02,1.021331e+04
2.796293e+02,1.022835e+04
2.805935e+02,1.025008e+04
2.815577e+02,1.026253e+04
2.825220e+02,1.026020e+04
2.834862e+02,1.024790e+04
2.844504e+02,1.023554e+04
2.854147e+02,1.022563e+04
2.863789e+02,1.021658e+04
2.873431e+02,1.020968e+04
2.883074e+02,1.020681e+04
2.892716e+02,1.020878e+04
2.902358e+02,1.021477e+04
2.912001e+02,1.022349e+04
2.921643e+02,1.022710e+04
2.931285e+02,1.022408e+04
2.940928e+02,1.022229e+04
2.950570e+02,1.022384e+04
2.960212e+02,1.022699e+04
2.969855e+02,1.022918e+04
2.979497e+02,1.023016e+04
2.989139e+02,1.023325e+04
2.998782e+02,1.023267e+04
3.008424e+02,1.023131e+04
3.018066e+02,1.023117e+04
3.027709e+02,1.022971e+04
3.037351e+02,1.022373e+04
3.046993e+02,1.021543e+04
3.056636e+02,1.021181e+04
3.066278e+02,1.021677e+04
3.075920e+02,1.022247e+04
3.085563e+02,1.022446e+04
3.095205e+02,1.022646e+04
3.104847e+02,1.023235e+04
3.114490e+02,1.024364e+04
3.124132e+02,1.025578e+04
3.133774e+02,1.026151e+04
3.143417e+02,1.025781e+04
3.153059e+02,1.024825e+04
3.162701e+02,1.024160e+04
3.172344e+02,1.024214e+04
3.181986e+02,1.024322e+04
3.191628e+02,1.024440e+04
3.201271e+02,1.024553e+04
3.210913e+02,1.024465e+04
3.220555e+02,1.023938e+04
3.230198e+02,1.023036e+04
3.239840e+02,1.022704e+04
3.249482e+02,1.024289e+04
3.259125e+02,1.024977e+04
3.268767e+02,1.023290e+04
3.278409e+02,1.019849e+04
3.288052e+02,1.016372e+04
3.297694e+02,1.014215e+04
3.307336e+02,1.013440e+04
3.316979e+02,1.013560e+04
3.326621e+02,1.016100e+04
3.336263e+02,1.018288e+04
3.345906e+02,1.018709e+04
3.355548e+02,1.017307e+04
3.365190e+02,1.015492e+04
3.374833e+02,1.014875e+04
3.384475e+02,1.015585e+04
3.394117e+02,1.015384e+04
3.403760e+02,1.011637e+04
3.413402e+02,1.006501e+04
3.423044e+02,1.003999e+04
3.432687e+02,1.006631e+04
3.442329e+02,1.010917e+04
3.451971e+02,1.013959e+04
3.461614e+02,1.015406e+04
3.471256e+02,1.015271e+04
3.480898e+02,1.013702e+04
3.490541e+02,1.010332e+04
3.500183e+02,1.007922e+04
3.509825e+02,1.007450e+04
3.519468e+02,1.007857e+04
3.529110e+02,1.008007e+04
3.538752e+02,1.007422e+04
3.548395e+02,1.006508e+04
3.558037e+02,1.006397e+04
3.567680e+02,1.008172e+04
3.577322e+02,1.009008e+04
3.586964e+02,1.008275e+04
3.596607e+02,1.007082e+04
3.606249e+02,1.006407e+04
3.615891e+02,1.006558e+04
3.625534e+02,1.006750e+04
3.635176e+02,1.005869e+04
3.644818e+02,1.004064e+04
3.654461e+02,1.001861e+04
3.664103e+02,9.996108e+03
3.673745e+02,9.978208e+03
3.683388e+02,9.970097e+03
3.693030e+02,9.971675e+03
3.702672e+02,9.977544e+03
3.712315e+02,9.983062e+03
3.721957e+02,9.986894e+03
3.731599e+02,9.986722e+03
3.741242e+02,9.982392e+03
3.750884e+02,9.979988e+03
3.760526e+02,9.976365e+03
3.770169e+02,9.967294e+03
3.779811e+02,9.955516e+03
3.789453e+02,9.944152e+03
3.799096e+02,9.934138e+03
3.808738e+02,9.924036e+03
3.818380e+02,9.911030e+03
3.828023e+02,9.895283e+03
3.837665e+02,9.885772e+03
3.847307e+02,9.883189e+03
3.856950e+02,9.886691e+03
3.866592e+02,9.894012e+03
3.876234e+02,9.909313e+03
3.885877e+02,9.927101e+03
3.895519e+02,9.929635e+03
3.905161e+02,9.909391e+03
3.914804e+02,9.882098e+03
3.924446e+02,9.868183e+03
3.934088e+02,9.874448e+03
3.943731e+02,9.874457e+03
3.953373e+02,9.852223e+03
3.963015e+02,9.820857e+03
3.972658e+02,9.800594e+03
3.982300e+02,9.800604e+03
3.991942e+02,9.816166e+03
4.001585e+02,9.826010e+03
4.011227e+02,9.815821e+03
4.020869e+02,9.808663e+03
4.030512e+02,9.805354e+03
4.040154e+02,9.803230e+03
4.049796e+02,9.801266e+03
4.059439e+02,9.797980e+03
4.069081e+02,9.794105e+03
4.078723e+02,9.794578e+03
4.088366e+02,9.801248e+03
4.098008e+02,9.801472e+03
4.107650e+02,9.788817e+03
4.117293e+02,9.765626e+03
4.126935e+02,9.747307e+03
4.136577e+02,9.741248e+03
4.146220e+02,9.742248e+03
4.155862e+02,9.743439e+03
4.165504e+02,9.743729e+03
4.175147e+02,9.744155e+03
4.184789e+02,9.745911e+03
4.194431e+02,9.758359e+03
4.204074e+02,9.759249e+03
4.213716e+02,9.738013e+03
4.223358e+02,9.708598e+03
4.233001e+02,9.686200e+03
4.242643e+02,9.679046e+03
4.252285e+02,9.681893e+03
4.261928e+02,9.681919e+03
4.271570e+02,9.680389e+03
4.281212e+02,9.675331e+03
4.290855e+02,9.659588e+03
4.300497e+02,9.637322e+03
4.310139e+02,9.619714e+03
4.319782e+02,9.614502e+03
4.329424e+02,9.616029e+03
4.339066e+02,9.617533e+03
4.348709e+02,9.617314e+03
4.358351e+02,9.614016e+03
4.367993e+02,9.606249e+03
4.377636e+02,9.591250e+03
4.387278e+02,9.580935e+03
4.396920e+02,9.582303e+03
4.406563e+02,9.586047e+03
4.416205e+02,9.584379e+03
4.425847e+02,9.574873e+03
4.435490e+02,9.561179e+03
4.445132e+02,9.547886e+03
4.454774e+02,9.535557e+03
4.464417e+02,9.528501e+03
4.474059e+02,9.531226e+03
4.483701e+02,9.535364e+03
4.493344e+02,9.532089e+03
4.502986e+02,9.513504e+03
4.512628e+02,9.497266e+03
4.522271e+02,9.500654e+03
4.531913e+02,9.519165e+03
4.541555e+02,9.532013e+03
4.551198e+02,9.525456e+03
4.560840e+02,9.499901e+03
4.570482e+02,9.475619e+03
4.580125e+02,9.452809e+03
4.589767e+02,9.438988e+03
4.599409e+02,9.436810e+03
4.609052e+02,9.441692e+03
4.618694e+02,9.445603e+03
4.628336e+02,9.442747e+03
4.637979e+02,9.434530e+03
4.647621e+02,9.429243e+03
4.657263e+02,9.432628e+03
4.666906e+02,9.439159e+03
4.676548e+02,9.438413e+03
4.686190e+02,9.426480e+03
4.695833e+02,9.415271e+03
4.705475e+02,9.407156e+03
4.715117e+02,9.400973e+03
4.724760e+02,9.396976e+03
4.734402e+02,9.396152e+03
4.744044e+02,9.396647e+03
4.753687e+02,9.393184e+03
4.763329e+02,9.384863e+03
4.772971e+02,9.374046e+03
4.782614e+02,9.357218e+03
4.792256e+02,9.340182e+03
4.801898e+02,9.329780e+03
4.811541e+02,9.331551e+03
4.821183e+02,9.336737e+03
4.830826e+02,9.330692e+03
4.840468e+02,9.311785e+03
4.850110e+02,9.295560e+03
4.859753e+02,9.295267e+03
4.869395e+02,9.311756e+03
4.879037e+02,9.315714e+03
4.888680e+02,9.296825e+03
4.898322e+02,9.276526e+03
4.907964e+02,9.269072e+03
4.917607e+02,9.273745e+03
4.927249e+02,9.278891e+03
4.936891e+02,9.269965e+03
4.946534e+02,9.245234e+03
4.956176e+02,9.231464e+03
4.965818e+02,9.237447e+03
4.975461e+02,9.248647e+03
4.985103e+02,9.251460e+03
4.994745e+02,9.242274e+03
5.004388e+02,9.230182e+03
5.014030e+02,9.219785e+03
5.023672e+02,9.212026e+03
5.033315e+02,9.206843e+03
5.042957e+02,9.203697e+03
5.052599e+02,9.201458e+03
5.062242e+02,9.201063e+03
5.071884e+02,9.212205e+03
5.081526e+02,9.213755e+03
5.091169e+02,9.197183e+03
5.100811e+02,9.175247e+03
5.110453e+02,9.160912e+03
5.120095e+02,9.163184e+03
5.129738e+02,9.172826e+03
5.139380e+02,9.178192e+03
5.149022e+02,9.179653e+03
5.158665e+02,9.180920e+03
5.168307e+02,9.181736e+03
5.177949e+02,9.177421e+03
5.187592e+02,9.163814e+03
5.197234e+02,9.143476e+03
5.206876e+02,9.126611e+03
5.216519e+02,9.119255e+03
5.226161e+02,9.119876e+03
5.235803e+02,9.121392e+03
5.245446e+02,9.118375e+03
5.255088e+02,9.111092e+03
5.264730e+02,9.100572e+03
5.274373e+02,9.083109e+03
5.284015e+02,9.068503e+03
5.293657e+02,9.066993e+03
5.303300e+02,9.081045e+03
5.312942e+02,9.087638e+03
5.322584e+02,9.085082e+03
5.332227e+02,9.078234e+03
5.341869e+02,9.066728e+03
5.351511e+02,9.049382e+03
5.361154e+02,9.030934e+03
5.370796e+02,9.020241e+03
5.380438e+02,9.020899e+03
5.390081e+02,9.020045e+03
5.399723e+02,9.013661e+03
5.409365e+02,9.008292e+03
5.419008e+02,9.008263e+03
5.428650e+02,9.014887e+03
5.438292e+02,9.018604e+03
5.447935e+02,9.013770e+03
5.457577e+02,9.002870e+03
5.467219e+02,8.990746e+03
5.476862e+02,8.979329e+03
5.486504e+02,8.968588e+03
5.496146e+02,8.959255e+03
5.505789e+02,8.952149e+03
5.515431e+02,8.944306e+03
5.525073e+02,8.938832e+03
5.534716e+02,8.937339e+03
5.544358e+02,8.937407e+03
5.554000e+02,8.932917e+03
5.563643e+02,8.927774e+03
5.573285e+02,8.927663e+03
5.582927e+02,8.930755e+03
5.592570e+02,8.930816e+03
5.602212e+02,8.924646e+03
5.611854e+02,8.911595e+03
5.621497e+02,8.901360e+03
5.631139e+02,8.894466e+03
5.640781e+02,8.885594e+03
5.650424e+02,8.876364e+03
5.660066e+02,8.867268e+03
5.669708e+02,8.857712e+03
5.679351e+02,8.849040e+03
5.688993e+02,8.841065e+03
5.698635e+02,8.830668e+03
5.708278e+02,8.817942e+03
5.717920e+02,8.811576e+03
5.727562e+02,8.819341e+03
5.737205e+02,8.847366e+03
5.746847e+02,8.860603e+03
5.756489e+02,8.847393e+03
5.766132e+02,8.828112e+03
5.775774e+02,8.813200e+03
5.785416e+02,8.804696e+03
5.795059e+02,8.800623e+03
5.804701e+02,8.804146e+03
5.814343e+02,8.811464e+03
5.823986e+02,8.809569e+03
5.833628e+02,8.795385e+03
5.843270e+02,8.776197e+03
5.852913e+02,8.760959e+03
5.862555e+02,8.752553e+03
5.872197e+02,8.744058e+03
5.881840e+02,8.729566e+03
5.891482e+02,8.716522e+03
5.901124e+02,8.712464e+03
5.910767e+02,8.720447e+03
5.920409e+02,8.731925e+03
5.930051e+02,8.739928e+03
5.939694e+02,8.743486e+03
5.949336e+02,8.740575e+03
5.958978e+02,8.730252e+03
5.968621e+02,8.714095e+03
5.978263e+02,8.696241e+03
5.987905e+02,8.669145e+03
5.997548e+02,8.652392e+03
6.007190e+02,8.657225e+03
6.016832e+02,8.671482e+03
6.026475e+02,8.678728e+03
6.036117e+02,8.667721e+03
6.045759e+02,8.650951e+03
6.055402e+02,8.642083e+03
6.065044e+02,8.639525e+03
6.074686e+02,8.640662e+03
6.084329e+02,8.647989e+03
6.093971e+02,8.659728e+03
6.103613e+02,8.662859e+03
6.113256e+02,8.652278e+03
6.122899e+02,8.638941e+03
6.132541e+02,8.623182e+03
6.142183e+02,8.605785e+03
6.151826e+02,8.588345e+03
6.161468e+02,8.569095e+03
6.171110e+02,8.555427e+03
6.180753e+02,8.558938e+03
6.190395e+02,8.576996e+03
6.200037e+02,8.592056e+03
6.209680e+02,8.592916e+03
6.219322e+02,8.581431e+03
6.228964e+02,8.571512e+03
6.238607e+02,8.559840e+03
6.248249e+02,8.552115e+03
6.257891e+02,8.550048e+03
6.267534e+02,8.549825e+03
6.277176e+02,8.546191e+03
6.286818e+02,8.541252e+03
6.296461e+02,8.534104e+03
6.306103e+02,8.520114e+03
6.315745e+02,8.500698e+03
6.325388e+02,8.484072e+03
6.335030e+02,8.474958e+03
6.344672e+02,8.472160e+03
6.354315e+02,8.472967e+03
6.363957e+02,8.478443e+03
6.373599e+02,8.482137e+03
6.383242e+02,8.484232e+03
6.392884e+02,8.485510e+03
6.402526e+02,8.483089e+03
6.412169e+02,8.472002e+03
6.421811e+02,8.458724e+03
6.431453e+02,8.449119e+03
6.441096e+02,8.443404e+03
6.450738e+02,8.439463e+03
6.460380e+02,8.437396e+03
6.470023e+02,8.439083e+03
6.479665e+02,8.440300e+03
6.489307e+02,8.437417e+03
6.498950e+02,8.434360e+03
6.508592e+02,8.434863e+03
6.518234e+02,8.438778e+03
6.527877e+02,8.436140e+03
6.537519e+02,8.422825e+03
6.547161e+02,8.405603e+03
6.556804e+02,8.386533e+03
6.566446e+02,8.367671e+03
6.576088e+02,8.354961e+03
6.585731e+02,8.358222e+03
6.595373e+02,8.374021e+03
6.605015e+02,8.381903e+03
6.614658e+02,8.379223e+03
6.624300e+02,8.371169e+03
6.633942e+02,8.362247e+03
6.643585e+02,8.351159e+03
6.653227e+02,8.341314e+03
6.662869e+02,8.325841e+03
6.672512e+02,8.314191e+03
6.682154e+02,8.316317e+03
6.691796e+02,8.331886e+03
6.701439e+02,8.343759e+03
6.711081e+02,8.337074e+03
6.720723e+02,8.318896e+03
6.730366e+02,8.303860e+03
6.740008e+02,8.295295e+03
6.749650e+02,8.290530e+03
6.759293e+02,8.288051e+03
6.768935e+02,8.293207e+03
6.778577e+02,8.288184e+03
6.788220e+02,8.261519e+03
6.797862e+02,8.238094e+03
6.807504e+02,8.233521e+03
6.817147e+02,8.250007e+03
6.826789e+02,8.263254e+03
6.836431e+02,8.260684e+03
6.846074e+02,8.248780e+03
6.855716e+02,8.234435e+03
6.865358e+02,8.220988e+03
6.875001e+02,8.212667e+03
6.884643e+02,8.218770e+03
6.894285e+02,8.239373e+03
6.903928e+02,8.245637e+03
6.913570e+02,8.229385e+03
6.923212e+02,8.203467e+03
6.932855e+02,8.182225e+03
6.942497e+02,8.169508e+03
6.952139e+02,8.161455e+03
6.961782e+02,8.157021e+03
6.971424e+02,8.155905e+03
6.981066e+02,8.156710e+03
6.990709e+02,8.156170e+03
7.000351e+02,8.153212e+03
7.009993e+02,8.152300e+03
7.019636e+02,8.154054e+03
7.029278e+02,8.154729e+03
7.038920e+02,8.152958e+03
7.048563e+02,8.148603e+03
7.058205e+02,8.143609e+03
7.067847e+02,8.141220e+03
7.077490e+02,8.138709e+03
7.087132e+02,8.141646e+03
7.096774e+02,8.146867e+03
7.106417e+02,8.144814e+03
7.116059e+02,8.132219e+03
7.125701e+02,8.118452e+03
7.135344e+02,8.102386e+03
7.144986e+02,8.091263e+03
7.154628e+02,8.094522e+03
7.164271e+02,8.111438e+03
7.173913e+02,8.125346e+03
7.183555e+02,8.115630e+03
7.193198e+02,8.087153e+03
7.202840e+02,8.067092e+03
7.212482e+02,8.061067e+03
7.222125e+02,8.060257e+03
7.231767e+02,8.053064e+03
7.241409e+02,8.030294e+03
7.251052e+02,8.020335e+03
7.260694e+02,8.035808e+03
7.270336e+02,8.053206e+03
7.279979e+02,8.062677e+03
7.289621e+02,8.063000e+03
7.299263e+02,8.057518e+03
7.308906e+02,8.038766e+03
7.318548e+02,8.018157e+03
7.328190e+02,8.011680e+03
7.337833e+02,8.019963e+03
7.347475e+02,8.029295e+03
7.357117e+02,8.026273e+03
7.366760e+02,8.013681e+03
7.376402e+02,8.006985e+03
7.386044e+02,8.008542e+03
7.395687e+02,8.012555e+03
7.405329e+02,8.013260e+03
7.414971e+02,8.010240e+03
7.424614e+02,8.003160e+03
7.434256e+02,7.992536e+03
7.443898e+02,7.985907e+03
7.453541e+02,7.984670e+03
7.463183e+02,7.984370e+03
7.472825e+02,7.979825e+03
7.482468e+02,7.970128e+03
7.492110e+02,7.955481e+03
7.501752e+02,7.936171e+03
7.511395e+02,7.916460e+03
7.521037e+02,7.902617e+03
7.530679e+02,7.898805e+03
7.540322e+02,7.901399e+03
7.549964e+02,7.898154e+03
7.559606e+02,7.889408e+03
7.569249e+02,7.879859e+03
7.578891e+02,7.871208e+03
7.588533e+02,7.863930e+03
7.598176e+02,7.865919e+03
7.607818e+02,7.876625e+03
7.617460e+02,7.883984e+03
7.627103e+02,7.891831e+03
7.636745e+02,7.899607e+03
7.646387e+02,7.896726e+03
7.656030e+02,7.860983e+03
7.665672e+02,7.826021e+03
7.675314e+02,7.820020e+03
7.684957e+02,7.832964e+03
7.694599e+02,7.844360e+03
7.704241e+02,7.848946e+03
7.713884e+02,7.847765e+03
7.723526e+02,7.830811e+03
7.733168e+02,7.796938e+03
7.742811e+02,7.775338e+03
7.752453e+02,7.777924e+03
7.762095e+02,7.797517e+03
7.771738e+02,7.808423e+03
7.781380e+02,7.798208e+03
7.791022e+02,7.788562e+03
7.800665e+02,7.790009e+03
7.810307e+02,7.797282e+03
7.819949e+02,7.800753e+03
7.829592e+02,7.802078e+03
7.839234e+02,7.800435e+03
7.848876e+02,7.791393e+03
7.858519e+02,7.777273e+03
7.868161e+02,7.762611e+03
7.877803e+02,7.748872e+03
7.887446e+02,7.736474e+03
7.897088e+02,7.727354e+03
7.906730e+02,7.724268e+03
7.916373e+02,7.729168e+03
7.926015e+02,7.740362e+03
7.935657e+02,7.748663e+03
7.945300e+02,7.744697e+03
7.954942e+02,7.727515e+03
7.964584e+02,7.708873e+03
7.974227e+02,7.695774e+03
7.983869e+02,7.690618e+03
7.993511e+02,7.686596e+03
8.003154e+02,7.674773e+03
8.012796e+02,7.666323e+03
8.022438e+02,7.674078e+03
8.032081e+02,7.685677e+03
8.041723e+02,7.688442e+03
8.051365e+02,7.678047e+03
8.061008e+02,7.665486e+03
8.070650e+02,7.657471e+03
8.080292e+02,7.650348e+03
8.089935e+02,7.641596e+03
8.099577e+02,7.632857e+03
8.109219e+02,7.625443e+03
8.118862e+02,7.618394e+03
8.128504e+02,7.611822e+03
8.138146e+02,7.612119e+03
8.147789e+02,7.621387e+03
8.157431e+02,7.627745e+03
8.167073e+02,7.622315e+03
8.176716e+02,7.606182e+03
8.186358e+02,7.595977e+03
8.196000e+02,7.594968e+03
8.205643e+02,7.595841e+03
8.215285e+02,7.591779e+03
8.224927e+02,7.583038e+03
8.234570e+02,7.575972e+03
8.244212e+02,7.575329e+03
8.253854e+02,7.574626e+03
8.263497e+02,7.566927e+03
8.273139e+02,7.552307e+03
8.282781e+02,7.537127e+03
8.292424e+02,7.527347e+03
8.302066e+02,7.524142e+03
8.311708e+02,7.528757e+03
8.321351e+02,7.539683e+03
8.330993e+02,7.549225e+03
8.340635e+02,7.551810e+03
8.350278e+02,7.548782e+03
8.359920e+02,7.547284e+03
8.369562e+02,7.548674e+03
8.379205e+02,7.545351e+03
8.388847e+02,7.532599e+03
8.398489e+02,7.515250e+03
8.408132e+02,7.504347e+03
8.417774e+02,7.502876e+03
8.427416e+02,7.501109e+03
8.437059e+02,7.497384e+03
8.446701e+02,7.493475e+03
8.456343e+02,7.492161e+03
8.465986e+02,7.495158e+03
8.475628e+02,7.496118e+03
8.485270e+02,7.491974e+03
8.494913e+02,7.485018e+03
8.504555e+02,7.477813e+03
8.514197e+02,7.471780e+03
8.523840e+02,7.468978e+03
8.533482e+02,7.473039e+03
8.543124e+02,7.478539e+03
8.552767e+02,7.475539e+03
8.562409e+02,7.462339e+03
8.572051e+02,7.445733e+03
8.581694e+02,7.433884e+03
8.591336e+02,7.427517e+03
8.600978e+02,7.422794e+03
8.610621e+02,7.420567e+03
8.620263e+02,7.422635e+03
8.629905e+02,7.430501e+03
8.639548e+02,7.442477e+03
8.649190e+02,7.438536e+03
8.658832e+02,7.409122e+03
8.668475e+02,7.383759e+03
8.678117e+02,7.378010e+03
8.687759e+02,7.387360e+03
8.697402e+02,7.393651e+03
8.707044e+02,7.390208e+03
8.716686e+02,7.381632e+03
8.726329e+02,7.373048e+03
8.735971e+02,7.365519e+03
8.745613e+02,7.357796e+03
8.755256e+02,7.353742e+03
8.764898e+02,7.349107e+03
8.774540e+02,7.333735e+03
8.784183e+02,7.314346e+03
8.793825e+02,7.305228e+03
8.803467e+02,7.313219e+03
8.813110e+02,7.325357e+03
8.822752e+02,7.325930e+03
8.832394e+02,7.319355e+03
8.842037e+02,7.315933e+03
8.851679e+02,7.316262e+03
8.861321e+02,7.317170e+03
8.870964e+02,7.315958e+03
8.880606e+02,7.311989e+03
8.890248e+02,7.308304e+03
8.899891e+02,7.309583e+03
8.909533e+02,7.309999e+03
8.919175e+02,7.301017e+03
8.928818e+02,7.278566e+03
8.938460e+02,7.264507e+03
8.948102e+02,7.260740e+03
8.957745e+02,7.259649e+03
8.967387e+02,7.259083e+03
8.977029e+02,7.257390e+03
8.986672e+02,7.253322e+03
8.996314e+02,7.254321e+03
9.005956e+02,7.253379e+03
9.015599e+02,7.242581e+03
9.025241e+02,7.225065e+03
9.034883e+02,7.211789e+03
9.044526e+02,7.207307e+03
9.054168e+02,7.204157e+03
9.063810e+02,7.207681e+03
9.073453e+02,7.215652e+03
9.083095e+02,7.216294e+03
9.092737e+02,7.198792e+03
9.102380e+02,7.177016e+03
9.112022e+02,7.166974e+03
9.121664e+02,7.165307e+03
9.131307e+02,7.166127e+03
9.140949e+02,7.170331e+03
9.150591e+02,7.178664e+03
9.160234e+02,7.190598e+03
9.169876e+02,7.200765e+03
9.179518e+02,7.193374e+03
9.189161e+02,7.164575e+03
9.198803e+02,7.129570e+03
9.208445e+02,7.104893e+03
9.218088e+02,7.092900e+03
9.227730e+02,7.092842e+03
9.237372e+02,7.106739e+03
9.247015e+02,7.123675e+03
9.256657e+02,7.138825e+03
9.266299e+02,7.151912e+03
9.275942e+02,7.156132e+03
9.285584e+02,7.144241e+03
9.295226e+02,7.128897e+03
9.304869e+02,7.112383e+03
9.314511e+02,7.097506e+03
9.324153e+02,7.089865e+03
9.333796e+02,7.095400e+03
9.343438e+02,7.101396e+03
9.353080e+02,7.105394e+03
9.362723e+02,7.103859e+03
9.372365e+02,7.094502e+03
9.382007e+02,7.074809e+03
9.391650e+02,7.061072e+03
9.401292e+02,7.064804e+03
9.410934e+02,7.075403e+03
9.420577e+02,7.079058e+03
9.430219e+02,7.071428e+03
9.439861e+02,7.059938e+03
9.449504e+02,7.051146e+03
9.459146e+02,7.047287e+03
9.468788e+02,7.046929e+03
9.478431e+02,7.045866e+03
9.488073e+02,7.041856e+03
9.497715e+02,7.039030e+03
9.507358e+02,7.035845e+03
9.517000e+02,7.025609e+03
9.526642e+02,7.010878e+03
9.536285e+02,6.996826e+03
9.545927e+02,6.984745e+03
9.555569e+02,6.974854e+03
9.565212e+02,6.969155e+03
9.574854e+02,6.970092e+03
9.584496e+02,6.974864e+03
9.594139e+02,6.979952e+03
9.603781e+02,6.983037e+03
9.613423e+02,6.983177e+03
9.623066e+02,6.980314e+03
9.632708e+02,6.976678e+03
9.642350e+02,6.974223e+03
9.651993e+02,6.973104e+03
9.661635e+02,6.970882e+03
9.671277e+02,6.964302e+03
9.680920e+02,6.958597e+03
9.690562e+02,6.955288e+03
9.700204e+02,6.950187e+03
9.709847e+02,6.941944e+03
9.719489e+02,6.931803e+03
9.729131e+02,6.923467e+03
9.738774e+02,6.918210e+03
9.748416e+02,6.916856e+03
9.758058e+02,6.919599e+03
9.767701e+02,6.923107e+03
9.777343e+02,6.920946e+03
9.786985e+02,6.904275e+03
9.796628e+02,6.888732e+03
9.806270e+02,6.882841e+03
9.815912e+02,6.881917e+03
9.825555e+02,6.878461e+03
9.835197e+02,6.873455e+03
9.844839e+02,6.867382e+03
9.854482e+02,6.859680e+03
9.864124e+02,6.852639e+03
9.873766e+02,6.846667e+03
9.883409e+02,6.842318e+03
9.893051e+02,6.840665e+03
9.902693e+02,6.843773e+03
9.912336e+02,6.849678e+03
9.921978e+02,6.854085e+03
9.931620e+02,6.854640e+03
9.941263e+02,6.852782e+03
9.950905e+02,6.850833e+03
9.960547e+02,6.847893e+03
9.970190e+02,6.843842e+03
9.979832e+02,6.837001e+03
9.989474e+02,6.823309e+03
9.999117e+02,6.798017e+03
1.000876e+03,6.772929e+03
1.001840e+03,6.768666e+03
1.002804e+03,6.781094e+03
1.003769e+03,6.790453e+03
1.004733e+03,6.787135e+03
1.005697e+03,6.778546e+03
1.006661e+03,6.776650e+03
1.007626e+03,6.780675e+03
1.008590e+03,6.785529e+03
1.009554e+03,6.788896e+03
1.010518e+03,6.788331e+03
1.011482e+03,6.781944e+03
1.012447e+03,6.770327e+03
1.013411e+03,6.759528e+03
1.014375e+03,6.753075e+03
1.015339e+03,6.749046e+03
1.016304e+03,6.743906e+03
1.017268e+03,6.737445e+03
1.018232e+03,6.731671e+03
1.019196e+03,6.725331e+03
1.020161e+03,6.722626e+03
1.021125e+03,6.727670e+03
1.022089e+03,6.738693e+03
1.023053e+03,6.745958e+03
1.024018e+03,6.746386e+03
1.024982e+03,6.745787e+03
1.025946e+03,6.744771e+03
1.026910e+03,6.739037e+03
1.027875e+03,6.725601e+03
1.028839e+03,6.704123e+03
1.029803e+03,6.690177e+03
1.030767e+03,6.685149e+03
1.031731e+03,6.686572e+03
1.032696e+03,6.693890e+03
1.033660e+03,6.707130e+03
1.034624e+03,6.707893e+03
1.035588e+03,6.689380e+03
1.036552e+03,6.675232e+03
1.037517e+03,6.674756e+03
1.038481e+03,6.682396e+03
1.039445e+03,6.684358e+03
1.040409e+03,6.678968e+03
1.041374e+03,6.671162e+03
1.042338e+03,6.662181e+03
1.043302e+03,6.653864e+03
1.044266e+03,6.646893e+03
1.045231e+03,6.640856e+03
1.046195e+03,6.635079e+03
1.047159e+03,6.631279e+03
1.048123e+03,6.628968e+03
1.049088e+03,6.628453e+03
1.050052e+03,6.632343e+03
1.051016e+03,6.634591e+03
1.051980e+03,6.628995e+03
1.052945e+03,6.626624e+03
1.053909e+03,6.630493e+03
1.054873e+03,6.636114e+03
1.055837e+03,6.638208e+03
1.056802e+03,6.643250e+03
1.057766e+03,6.641221e+03
1.058730e+03,6.624830e+03
1.059694e+03,6.604364e+03
1.060658e+03,6.591451e+03
1.061623e+03,6.592742e+03
1.062587e+03,6.594377e+03
1.063551e+03,6.595334e+03
1.064515e+03,6.596453e+03
1.065479e+03,6.597131e+03
1.066444e+03,6.598649e+03
1.067408e+03,6.600330e+03
1.068372e+03,6.600181e+03
1.069336e+03,6.601920e+03
1.070301e+03,6.604934e+03
1.071265e+03,6.607288e+03
1.072229e+03,6.608475e+03
1.073193e+03,6.611853e+03
1.074158e+03,6.609658e+03
1.075122e+03,6.598176e+03
1.076086e+03,6.581130e+03
1.077050e+03,6.563464e+03
1.078015e+03,6.546722e+03
1.078979e+03,6.538154e+03
1.079943e+03,6.542458e+03
1.080907e+03,6.550705e+03
1.081872e+03,6.556005e+03
1.082836e+03,6.555937e+03
1.083800e+03,6.551123e+03
1.084764e+03,6.537232e+03
1.085729e+03,6.526648e+03
1.086693e+03,6.526409e+03
1.087657e+03,6.532328e+03
1.088621e+03,6.534918e+03
1.089585e+03,6.530884e+03
1.090550e+03,6.521917e+03
1.091514e+03,6.509125e+03
1.092478e+03,6.496529e+03
1.093442e+03,6.486867e+03
1.094406e+03,6.481036e+03
1.095371e+03,6.478655e+03
1.096335e+03,6.481506e+03
1.097299e+03,6.483665e+03
1.098263e+03,6.480771e+03
1.099228e+03,6.472212e+03
1.100192e+03,6.464177e+03
1.101156e+03,6.455274e+03
1.102120e+03,6.448566e+03
1.103085e+03,6.449148e+03
1.104049e+03,6.452848e+03
1.105013e+03,6.451208e+03
1.105977e+03,6.436744e+03
1.106942e+03,6.426195e+03
1.107906e+03,6.425259e+03
1.108870e+03,6.428078e+03
1.109834e+03,6.429406e+03
1.110799e+03,6.428888e+03
1.111763e+03,6.427239e+03
1.112727e+03,6.425545e+03
1.113691e+03,6.423753e+03
1.114656e+03,6.419975e+03
1.115620e+03,6.414620e+03
1.116584e+03,6.411294e+03
1.117548e+03,6.410594e+03
1.118512e+03,6.406144e+03
1.119477e+03,6.394040e+03
1.120441e+03,6.378897e+03
1.121405e+03,6.368611e+03
1.122369e+03,6.367140e+03
1.123334e+03,6.365182e+03
1.124298e+03,6.363971e+03
1.125262e+03,6.363425e+03
1.126226e+03,6.365062e+03
1.127191e+03,6.370427e+03
1.128155e+03,6.368274e+03
1.129119e+03,6.347495e+03
1.130083e+03,6.331347e+03
1.131047e+03,6.329662e+03
1.132012e+03,6.337033e+03
1.132976e+03,6.340849e+03
1.133940e+03,6.341810e+03
1.134904e+03,6.336440e+03
1.135869e+03,6.321581e+03
1.136833e+03,6.306970e+03
1.137797e+03,6.304782e+03
1.138761e+03,6.323118e+03
1.139726e+03,6.329591e+03
1.140690e+03,6.316547e+03
1.141654e+03,6.304834e+03
1.142618e+03,6.306975e+03
1.143583e+03,6.321365e+03
1.144547e+03,6.332301e+03
1.145511e+03,6.339262e+03
1.146475e+03,6.343320e+03
1.147439e+03,6.343118e+03
1.148404e+03,6.343043e+03
1.149368e+03,6.351023e+03
1.150332e+03,6.367979e+03
1.151296e+03,6.373033e+03
1.152261e+03,6.358609e+03
1.153225e+03,6.340651e+03
1.154189e+03,6.341447e+03
1.155153e+03,6.359495e+03
1.156118e+03,6.354702e+03
1.157082e+03,6.328374e+03
1.158046e+03,6.310154e+03
1.159010e+03,6.311774e+03
1.159974e+03,6.326005e+03
1.160939e+03,6.340485e+03
1.161903e+03,6.353593e+03
1.162867e+03,6.364508e+03
1.163831e+03,6.372894e+03
1.164796e+03,6.374568e+03
1.165760e+03,6.363740e+03
1.166724e+03,6.345727e+03
1.167688e+03,6.330722e+03
1.168653e+03,6.319571e+03
1.169617e+03,6.313274e+03
1.170581e+03,6.316954e+03
1.171545e+03,6.322371e+03
1.172510e+03,6.314993e+03
1.173474e+03,6.300040e+03
1.174438e+03,6.288093e+03
1.175402e+03,6.281836e+03
1.176366e+03,6.275420e+03
1.177331e+03,6.262981e+03
1.178295e+03,6.249274e+03
1.179259e+03,6.239291e+03
1.180223e+03,6.231891e+03
1.181188e+03,6.223811e+03
1.182152e+03,6.215366e+03
1.183116e+03,6.204256e+03
1.184080e+03,6.187606e+03
1.185045e+03,6.169998e+03
1.186009e+03,6.157570e+03
1.186973e+03,6.155222e+03
1.187937e+03,6.156123e+03
1.188901e+03,6.160078e+03
1.189866e+03,6.162666e+03
1.190830e+03,6.157227e+03
1.191794e+03,6.141782e+03
1.192758e+03,6.130163e+03
1.193723e+03,6.133693e+03
1.194687e+03,6.137283e+03
1.195651e+03,6.132166e+03
1.196615e+03,6.121452e+03
1.197580e+03,6.113562e+03
1.198544e+03,6.104888e+03
1.199508e+03,6.096146e+03
1.200472e+03,6.091085e+03
1.201437e+03,6.088394e+03
1.202401e+03,6.088493e+03
1.203365e+03,6.093854e+03
1.204329e+03,6.094753e+03
1.205293e+03,6.088164e+03
1.206258e+03,6.082332e+03
1.207222e+03,6.080029e+03
1.208186e+03,6.079800e+03
1.209150e+03,6.079072e+03
1.210115e+03,6.075957e+03
1.211079e+03,6.073347e+03
1.212043e+03,6.072836e+03
1.213007e+03,6.070991e+03
1.213972e+03,6.065384e+03
1.214936e+03,6.058063e+03
1.215900e+03,6.050168e+03
1.216864e+03,6.042257e+03
1.217828e+03,6.039386e+03
1.218793e+03,6.048088e+03
1.219757e+03,6.058385e+03
1.220721e+03,6.049299e+03
1.221685e+03,6.028456e+03
1.222650e+03,6.013256e+03
1.223614e+03,6.006333e+03
1.224578e+03,6.001792e+03
1.225542e+03,5.999061e+03
1.226507e+03,5.997024e+03
1.227471e+03,5.993446e+03
1.228435e+03,5.986622e+03
1.229399e+03,5.975961e+03
1.230364e+03,5.958989e+03
1.231328e+03,5.943756e+03
1.232292e+03,5.937360e+03
1.233256e+03,5.938412e+03
1.234220e+03,5.943592e+03
1.235185e+03,5.958206e+03
1.236149e+03,5.962297e+03
1.237113e+03,5.936933e+03
1.238077e+03,5.914899e+03
1.239042e+03,5.914442e+03
1.240006e+03,5.930417e+03
1.240970e+03,5.939085e+03
1.241934e+03,5.936733e+03
1.242899e+03,5.933570e+03
1.243863e+03,5.935754e+03
1.244827e+03,5.936526e+03
1.245791e+03,5.923195e+03
1.246755e+03,5.890980e+03
1.247720e+03,5.874410e+03
1.248684e+03,5.877424e+03
1.249648e+03,5.883647e+03
1.250612e+03,5.881742e+03
1.251577e+03,5.873898e+03
1.252541e+03,5.869987e+03
1.253505e+03,5.868992e+03
1.254469e+03,5.868585e+03
1.255434e+03,5.869463e+03
1.256398e+03,5.869694e+03
1.257362e+03,5.861781e+03
1.258326e+03,5.850416e+03
1.259291e+03,5.849165e+03
1.260255e+03,5.855695e+03
1.261219e+03,5.856134e+03
1.262183e+03,5.839688e+03
1.263147e+03,5.823076e+03
1.264112e+03,5.819350e+03
1.265076e+03,5.822240e+03
1.266040e+03,5.821169e+03
1.267004e+03,5.812364e+03
1.267969e+03,5.805516e+03
1.268933e+03,5.806467e+03
1.269897e+03,5.812744e+03
1.270861e+03,5.820557e+03
1.271826e+03,5.824965e+03
1.272790e+03,5.823361e+03
1.273754e+03,5.813225e+03
1.274718e+03,5.805776e+03
1.275682e+03,5.807328e+03
1.276647e+03,5.812527e+03
1.277611e+03,5.813248e+03
1.278575e+03,5.808582e+03
1.279539e+03,5.798347e+03
1.280504e+03,5.784393e+03
1.281468e+03,5.775509e+03
1.282432e+03,5.776771e+03
1.283396e+03,5.783068e+03
1.284361e+03,5.780187e+03
1.285325e+03,5.769547e+03
1.286289e+03,5.762252e+03
1.287253e+03,5.760755e+03
1.288218e+03,5.762039e+03
1.289182e+03,5.768666e+03
1.290146e+03,5.774822e+03
1.291110e+03,5.772019e+03
1.292074e+03,5.762814e+03
1.293039e+03,5.755190e+03
1.294003e+03,5.755625e+03
1.294967e+03,5.752770e+03
1.295931e+03,5.739034e+03
1.296896e+03,5.724531e+03
1.297860e+03,5.719334e+03
1.298824e+03,5.725667e+03
1.299788e+03,5.731848e+03
1.300753e+03,5.737391e+03
1.301717e+03,5.741021e+03
1.302681e+03,5.742318e+03
1.303645e+03,5.741629e+03
1.304609e+03,5.739653e+03
1.305574e+03,5.733757e+03
1.306538e+03,5.729109e+03
1.307502e+03,5.729467e+03
1.308466e+03,5.731738e+03
1.309431e+03,5.729664e+03
1.310395e+03,5.725737e+03
1.311359e+03,5.728994e+03
1.312323e+03,5.735704e+03
1.313288e+03,5.738715e+03
1.314252e+03,5.736665e+03
1.315216e+03,5.736290e+03
1.316180e+03,5.743845e+03
1.317145e+03,5.754397e+03
1.318109e+03,5.758756e+03
1.319073e+03,5.754171e+03
1.320037e+03,5.752173e+03
1.321001e+03,5.764920e+03
1.321966e+03,5.773118e+03
1.322930e+03,5.769769e+03
1.323894e+03,5.759834e+03
1.324858e+03,5.748889e+03
1.325823e+03,5.731554e+03
1.326787e+03,5.726077e+03
1.327751e+03,5.735811e+03
1.328715e+03,5.745577e+03
1.329680e+03,5.746702e+03
1.330644e+03,5.740883e+03
1.331608e+03,5.734130e+03
1.332572e+03,5.725805e+03
1.333536e+03,5.713657e+03
1.334501e+03,5.695458e+03
1.335465e+03,5.678138e+03
1.336429e+03,5.675713e+03
1.337393e+03,5.679582e+03
1.338358e+03,5.675486e+03
1.339322e+03,5.663884e+03
1.340286e+03,5.651282e+03
1.341250e+03,5.642015e+03
1.342215e+03,5.630665e+03
1.343179e+03,5.615487e+03
1.344143e+03,5.602206e+03
1.345107e+03,5.593109e+03
1.346072e+03,5.586511e+03
1.347036e+03,5.584208e+03
1.348000e+03,5.587881e+03
1.348964e+03,5.589193e+03
1.349928e+03,5.586126e+03
1.350893e+03,5.581851e+03
1.351857e+03,5.581304e+03
1.352821e+03,5.582866e+03
1.353785e+03,5.574258e+03
1.354750e+03,5.553156e+03
1.355714e+03,5.532436e+03
1.356678e+03,5.527548e+03
1.357642e+03,5.531900e+03
1.358607e+03,5.534345e+03
1.359571e+03,5.534202e+03
1.360535e+03,5.531487e+03
1.361499e+03,5.526450e+03
1.362464e+03,5.522057e+03
1.363428e+03,5.520833e+03
1.364392e+03,5.521618e+03
1.365356e+03,5.520335e+03
1.366320e+03,5.514931e+03
1.367285e+03,5.511506e+03
1.368249e+03,5.515674e+03
1.369213e+03,5.514210e+03
1.370177e+03,5.503674e+03
1.371142e+03,5.489170e+03
1.372106e+03,5.476631e+03
1.373070e+03,5.465783e+03
1.374034e+03,5.453323e+03
1.374999e+03,5.441109e+03
1.375963e+03,5.434401e+03
1.376927e+03,5.436995e+03
1.377891e+03,5.442182e+03
1.378855e+03,5.441708e+03
1.379820e+03,5.438792e+03
1.380784e+03,5.439271e+03
1.381748e+03,5.445367e+03
1.382712e+03,5.448330e+03
1.383677e+03,5.438458e+03
1.384641e+03,5.427556e+03
1.385605e+03,5.419167e+03
1.386569e+03,5.411499e+03
1.387534e+03,5.402400e+03
1.388498e+03,5.391709e+03
1.389462e+03,5.383942e+03
1.390426e+03,5.377944e+03
1.391391e+03,5.373274e+03
1.392355e+03,5.372190e+03
1.393319e+03,5.373106e+03
1.394283e+03,5.369989e+03
1.395247e+03,5.363888e+03
1.396212e+03,5.359290e+03
1.397176e+03,5.357436e+03
1.398140e+03,5.354515e+03
1.399104e+03,5.342453e+03
1.400069e+03,5.331974e+03
1.401033e+03,5.332716e+03
1.401997e+03,5.340628e+03
1.402961e+03,5.343969e+03
1.403926e+03,5.341107e+03
1.404890e+03,5.335280e+03
1.405854e+03,5.326853e+03
1.406818e+03,5.318019e+03
1.407782e+03,5.308724e+03
1.408747e+03,5.302601e+03
1.409711e+03,5.312041e+03
1.410675e+03,5.329976e+03
1.411639e+03,5.337129e+03
1.412604e+03,5.327972e+03
1.413568e+03,5.314343e+03
1.414532e+03,5.305484e+03
1.415496e+03,5.300110e+03
1.416461e+03,5.294386e+03
1.417425e+03,5.287564e+03
1.418389e+03,5.283221e+03
1.419353e+03,5.285403e+03
1.420318e+03,5.286124e+03
1.421282e+03,5.289451e+03
1.422246e+03,5.288018e+03
1.423210e+03,5.270767e+03
1.424174e+03,5.242907e+03
1.425139e+03,5.238930e+03
1.426103e+03,5.254445e+03
1.427067e+03,5.264596e+03
1.428031e+03,5.261159e+03
1.428996e+03,5.252938e+03
1.429960e+03,5.243619e+03
1.430924e+03,5.235352e+03
1.431888e+03,5.231560e+03
1.432853e+03,5.231812e+03
1.433817e+03,5.231667e+03
1.434781e+03,5.237633e+03
1.435745e+03,5.233416e+03
1.436709e+03,5.206090e+03
1.437674e+03,5.179086e+03
1.438638e+03,5.177867e+03
1.439602e+03,5.200617e+03
1.440566e+03,5.213329e+03
1.441531e+03,5.216052e+03
1.442495e+03,5.214788e+03
1.443459e+03,5.210589e+03
1.444423e+03,5.203969e+03
1.445388e+03,5.190772e+03
1.446352e+03,5.177010e+03
1.447316e+03,5.173460e+03
1.448280e+03,5.180130e+03
1.449245e+03,5.181862e+03
1.450209e+03,5.168555e+03
1.451173e+03,5.160002e+03
1.452137e+03,5.156977e+03
1.453101e+03,5.154873e+03
1.454066e+03,5.152127e+03
1.455030e+03,5.148618e+03
1.455994e+03,5.139429e+03
1.456958e+03,5.125762e+03
1.457923e+03,5.116708e+03
1.458887e+03,5.114733e+03
1.459851e+03,5.115472e+03
1.460815e+03,5.114971e+03
1.461780e+03,5.114145e+03
1.462744e+03,5.120686e+03
1.463708e+03,5.133026e+03
1.464672e+03,5.131867e+03
1.465636e+03,5.108993e+03
1.466601e+03,5.091942e+03
1.467565e+03,5.084202e+03
1.468529e+03,5.081897e+03
1.469493e+03,5.081997e+03
1.470458e+03,5.081926e+03
1.471422e+03,5.074880e+03
1.472386e+03,5.063938e+03
1.473350e+03,5.057300e+03
1.474315e+03,5.057773e+03
1.475279e+03,5.058194e+03
1.476243e+03,5.052920e+03
1.477207e+03,5.045315e+03
1.478172e+03,5.038541e+03
1.479136e+03,5.033864e+03
1.480100e+03,5.034312e+03
1.481064e+03,5.043359e+03
1.482028e+03,5.044811e+03
1.482993e+03,5.036131e+03
1.483957e+03,5.027719e+03
1.484921e+03,5.029744e+03
1.485885e+03,5.036111e+03
1.486850e+03,5.033567e+03
1.487814e+03,5.024702e+03
1.488778e+03,5.018878e+03
1.489742e+03,5.021120e+03
1.490707e+03,5.020460e+03
1.491671e+03,5.014275e+03
1.492635e+03,5.009209e+03
1.493599e+03,5.006924e+03
1.494563e+03,5.004424e+03
1.495528e+03,4.995079e+03
1.496492e+03,4.978563e+03
1.497456e+03,4.971531e+03
1.498420e+03,4.977140e+03
1.499385e+03,4.980954e+03
1.500349e+03,4.964544e+03
1.501313e+03,4.948872e+03
1.502277e+03,4.955332e+03
1.503242e+03,4.971830e+03
1.504206e+03,4.981255e+03
1.505170e+03,4.978931e+03
1.506134e+03,4.971397e+03
1.507099e+03,4.955768e+03
1.508063e+03,4.944721e+03
1.509027e+03,4.944041e+03
1.509991e+03,4.947945e+03
1.510955e+03,4.949746e+03
1.511920e+03,4.947714e+03
1.512884e+03,4.935884e+03
1.513848e+03,4.917628e+03
1.514812e+03,4.904724e+03
1.515777e+03,4.898569e+03
1.516741e+03,4.896869e+03
1.517705e+03,4.902165e+03
1.518669e+03,4.908245e+03
1.519634e+03,4.912330e+03
1.520598e+03,4.913386e+03
1.521562e+03,4.905308e+03
1.522526e+03,4.887647e+03
1.523490e+03,4.875331e+03
1.524455e+03,4.874446e+03
1.525419e+03,4.877254e+03
1.526383e+03,4.881792e+03
1.527347e+03,4.883165e+03
1.528312e+03,4.876751e+03
1.529276e+03,4.866333e+03
1.530240e+03,4.860288e+03
1.531204e+03,4.858563e+03
1.532169e+03,4.856007e+03
1.533133e+03,4.851573e+03
1.534097e+03,4.850031e+03
1.535061e+03,4.857390e+03
1.536026e+03,4.866432e+03
1.536990e+03,4.863792e+03
1.537954e+03,4.854927e+03
1.538918e+03,4.850449e+03
1.539882e+03,4.853473e+03
1.540847e+03,4.850778e+03
1.541811e+03,4.827248e+03
1.542775e+03,4.810484e+03
1.543739e+03,4.812970e+03
1.544704e+03,4.824139e+03
1.545668e+03,4.824483e+03
1.546632e+03,4.817370e+03
1.547596e+03,4.817047e+03
1.548561e+03,4.822939e+03
1.549525e+03,4.826919e+03
1.550489e+03,4.818878e+03
1.551453e+03,4.812750e+03
1.552417e+03,4.816886e+03
1.553382e+03,4.823931e+03
1.554346e+03,4.830354e+03
1.555310e+03,4.836367e+03
1.556274e+03,4.834682e+03
1.557239e+03,4.825077e+03
1.558203e+03,4.818775e+03
1.559167e+03,4.818901e+03
1.560131e+03,4.817050e+03
1.561096e+03,4.803478e+03
1.562060e+03,4.788217e+03
1.563024e+03,4.776443e+03
1.563988e+03,4.769729e+03
1.564953e+03,4.770790e+03
1.565917e+03,4.783063e+03
1.566881e+03,4.790213e+03
1.567845e+03,4.790797e+03
1.568809e+03,4.786411e+03
1.569774e+03,4.776839e+03
1.570738e+03,4.766696e+03
1.571702e+03,4.760888e+03
1.572666e+03,4.758643e+03
1.573631e+03,4.761494e+03
1.574595e+03,4.770646e+03
1.575559e+03,4.773838e+03
1.576523e+03,4.766648e+03
1.577488e+03,4.764872e+03
1.578452e+03,4.770342e+03
1.579416e+03,4.774392e+03
1.580380e+03,4.766579e+03
1.581344e+03,4.753775e+03
1.582309e+03,4.751518e+03
1.583273e+03,4.755699e+03
1.584237e+03,4.754550e+03
1.585201e+03,4.743949e+03
1.586166e+03,4.729354e+03
1.587130e+03,4.704477e+03
1.588094e+03,4.686826e+03
1.589058e+03,4.687473e+03
1.590023e+03,4.697365e+03
1.590987e+03,4.697593e+03
1.591951e+03,4.692764e+03
1.592915e+03,4.689389e+03
1.593880e+03,4.685953e+03
1.594844e+03,4.681206e+03
1.595808e+03,4.673096e+03
1.596772e+03,4.667429e+03
1.597736e+03,4.666519e+03
1.598701e+03,4.669852e+03
1.599665e+03,4.678169e+03
1.600629e+03,4.688868e+03
1.601593e+03,4.690329e+03
1.602558e+03,4.684811e+03
1.603522e+03,4.678986e+03
1.604486e+03,4.674342e+03
1.605450e+03,4.670136e+03
1.606415e+03,4.668642e+03
1.607379e+03,4.668110e+03
1.608343e+03,4.667273e+03
1.609307e+03,4.665623e+03
1.610271e+03,4.662597e+03
1.611236e+03,4.658013e+03
1.612200e+03,4.655612e+03
1.613164e+03,4.655575e+03
1.614128e+03,4.651160e+03
1.615093e+03,4.630392e+03
1.616057e+03,4.614212e+03
1.617021e+03,4.614505e+03
1.617985e+03,4.613320e+03
1.618950e+03,4.599603e+03
1.619914e+03,4.577924e+03
1.620878e+03,4.565772e+03
1.621842e+03,4.561593e+03
1.622807e+03,4.556866e+03
1.623771e+03,4.550687e+03
1.624735e+03,4.547490e+03
1.625699e+03,4.550092e+03
1.626663e+03,4.551419e+03
1.627628e+03,4.546323e+03
1.628592e+03,4.538515e+03
1.629556e+03,4.536933e+03
1.630520e+03,4.542267e+03
1.631485e+03,4.545387e+03
1.632449e+03,4.545897e+03
1.633413e+03,4.544977e+03
1.634377e+03,4.545238e+03
1.635342e+03,4.540001e+03
1.636306e+03,4.518789e+03
1.637270e+03,4.501813e+03
1.638234e+03,4.499788e+03
1.639198e+03,4.505971e+03
1.640163e+03,4.499739e+03
1.641127e+03,4.487187e+03
1.642091e+03,4.487435e+03
1.643055e+03,4.499172e+03
1.644020e+03,4.505328e+03
1.644984e+03,4.488527e+03
1.645948e+03,4.476116e+03
1.646912e+03,4.476648e+03
1.647877e+03,4.480882e+03
1.648841e+03,4.483173e+03
1.649805e+03,4.482922e+03
1.650769e+03,4.474019e+03
1.651734e+03,4.459806e+03
1.652698e+03,4.450178e+03
1.653662e+03,4.446689e+03
1.654626e+03,4.443010e+03
1.655590e+03,4.437854e+03
1.656555e+03,4.432477e+03
1.657519e+03,4.429227e+03
1.658483e+03,4.427649e+03
1.659447e+03,4.423580e+03
1.660412e+03,4.416953e+03
1.661376e+03,4.410546e+03
1.662340e+03,4.406433e+03
1.663304e+03,4.406551e+03
1.664269e+03,4.412308e+03
1.665233e+03,4.416135e+03
1.666197e+03,4.416893e+03
1.667161e+03,4.414616e+03
1.668125e+03,4.410804e+03
1.669090e+03,4.404152e+03
1.670054e+03,4.388476e+03
1.671018e+03,4.371632e+03
1.671982e+03,4.365998e+03
1.672947e+03,4.372622e+03
1.673911e+03,4.379676e+03
1.674875e+03,4.385368e+03
1.675839e+03,4.385556e+03
1.676804e+03,4.381579e+03
1.677768e+03,4.377235e+03
1.678732e+03,4.373768e+03
1.679696e+03,4.369295e+03
1.680661e+03,4.361087e+03
1.681625e+03,4.349428e+03
1.682589e+03,4.337798e+03
1.683553e+03,4.327881e+03
1.684517e+03,4.320778e+03
1.685482e+03,4.315954e+03
1.686446e+03,4.316845e+03
1.687410e+03,4.325513e+03
1.688374e+03,4.333159e+03
1.689339e+03,4.333838e+03
1.690303e+03,4.329855e+03
1.691267e+03,4.320144e+03
1.692231e+03,4.309206e+03
1.693196e+03,4.302835e+03
1.694160e+03,4.299269e+03
1.695124e+03,4.295753e+03
1.696088e+03,4.292777e+03
1.697052e+03,4.290019e+03
1.698017e+03,4.281815e+03
1.698981e+03,4.277349e+03
1.699945e+03,4.280174e+03
1.700909e+03,4.281128e+03
1.701874e+03,4.278076e+03
1.702838e+03,4.275853e+03
1.703802e+03,4.281970e+03
1.704766e+03,4.289509e+03
1.705731e+03,4.289343e+03
1.706695e+03,4.281544e+03
1.707659e+03,4.272417e+03
1.708623e+03,4.263916e+03
1.709588e+03,4.256597e+03
1.710552e+03,4.248067e+03
1.711516e+03,4.240004e+03
1.712480e+03,4.236290e+03
1.713444e+03,4.233314e+03
1.714409e+03,4.228080e+03
1.715373e+03,4.223059e+03
1.716337e+03,4.220940e+03
1.717301e+03,4.222952e+03
1.718266e+03,4.221479e+03
1.719230e+03,4.215703e+03
1.720194e+03,4.214071e+03
1.721158e+03,4.218820e+03
1.722123e+03,4.223035e+03
1.723087e+03,4.223341e+03
1.724051e+03,4.219919e+03
1.725015e+03,4.212240e+03
1.725979e+03,4.203821e+03
1.726944e+03,4.197554e+03
1.727908e+03,4.193103e+03
1.728872e+03,4.189120e+03
1.729836e+03,4.184290e+03
1.730801e+03,4.179142e+03
1.731765e+03,4.172731e+03
1.732729e+03,4.171879e+03
1.733693e+03,4.179383e+03
1.734658e+03,4.186349e+03
1.735622e+03,4.188761e+03
1.736586e+03,4.187266e+03
1.737550e+03,4.180812e+03
1.738515e+03,4.172921e+03
1.739479e+03,4.169240e+03
1.740443e+03,4.168596e+03
1.741407e+03,4.162946e+03
1.742371e+03,4.151641e+03
1.743336e+03,4.141421e+03
1.744300e+03,4.132710e+03
1.745264e+03,4.126899e+03
1.746228e+03,4.131261e+03
1.747193e+03,4.135415e+03
1.748157e+03,4.135782e+03
1.749121e+03,4.135875e+03
1.750085e+03,4.133050e+03
1.751050e+03,4.125279e+03
1.752014e+03,4.116542e+03
1.752978e+03,4.109399e+03
1.753942e+03,4.109538e+03
1.754906e+03,4.117196e+03
1.755871e+03,4.116976e+03
1.756835e+03,4.097607e+03
1.757799e+03,4.087845e+03
1.758763e+03,4.099230e+03
1.759728e+03,4.108641e+03
1.760692e+03,4.083047e+03
1.761656e+03,4.053920e+03
1.762620e+03,4.052127e+03
1.763585e+03,4.064720e+03
1.764549e+03,4.071947e+03
1.765513e+03,4.071905e+03
1.766477e+03,4.070805e+03
1.767442e+03,4.069400e+03
1.768406e+03,4.065555e+03
1.769370e+03,4.058672e+03
1.770334e+03,4.050991e+03
1.771298e+03,4.038020e+03
1.772263e+03,4.027860e+03
1.773227e+03,4.024467e+03
1.774191e+03,4.024432e+03
1.775155e+03,4.022416e+03
1.776120e+03,4.019755e+03
1.777084e+03,4.020732e+03
1.778048e+03,4.023705e+03
1.779012e+03,4.022818e+03
1.779977e+03,4.017555e+03
1.780941e+03,4.014200e+03
1.781905e+03,4.011024e+03
1.782869e+03,4.011743e+03
1.783833e+03,4.021186e+03
1.784798e+03,4.026638e+03
1.785762e+03,4.015249e+03
1.786726e+03,4.002535e+03
1.787690e+03,3.996798e+03
1.788655e+03,3.995063e+03
1.789619e+03,3.991124e+03
1.790583e+03,3.985463e+03
1.791547e+03,3.976236e+03
1.792512e+03,3.965198e+03
1.793476e+03,3.959670e+03
1.794440e+03,3.959463e+03
1.795404e+03,3.961951e+03
1.796369e+03,3.965876e+03
1.797333e+03,3.968204e+03
1.798297e+03,3.968244e+03
1.799261e+03,3.965853e+03
1.800225e+03,3.957894e+03
1.801190e+03,3.947441e+03
1.802154e+03,3.937410e+03
1.803118e+03,3.928065e+03
1.804082e+03,3.922913e+03
1.805047e+03,3.921636e+03
1.806011e+03,3.921588e+03
1.806975e+03,3.921817e+03
1.807939e+03,3.918571e+03
1.808904e+03,3.906836e+03
1.809868e+03,3.905604e+03
1.810832e+03,3.918680e+03
1.811796e+03,3.929180e+03
1.812760e+03,3.918767e+03
1.813725e+03,3.906973e+03
1.814689e+03,3.910732e+03
1.815653e+03,3.914203e+03
1.816617e+03,3.903175e+03
1.817582e+03,3.884499e+03
1.818546e+03,3.880163e+03
1.819510e+03,3.884465e+03
1.820474e+03,3.886724e+03
1.821439e+03,3.885800e+03
1.822403e+03,3.882434e+03
1.823367e+03,3.876078e+03
1.824331e+03,3.872286e+03
1.825296e+03,3.870743e+03
1.826260e+03,3.871035e+03
1.827224e+03,3.883940e+03
1.828188e+03,3.891739e+03
1.829152e+03,3.875875e+03
1.830117e+03,3.854952e+03
1.831081e+03,3.844254e+03
1.832045e+03,3.838725e+03
1.833009e+03,3.825228e+03
1.833974e+03,3.812478e+03
1.834938e+03,3.812974e+03
1.835902e+03,3.829199e+03
1.836866e+03,3.836110e+03
1.837831e+03,3.832917e+03
1.838795e+03,3.826359e+03
1.839759e+03,3.819311e+03
1.840723e+03,3.815304e+03
1.841688e+03,3.815341e+03
1.842652e+03,3.817824e+03
1.843616e+03,3.821740e+03
1.844580e+03,3.822896e+03
1.845544e+03,3.817659e+03
1.846509e+03,3.810046e+03
1.847473e+03,3.807335e+03
1.848437e+03,3.806174e+03
1.849401e+03,3.799220e+03
1.850366e+03,3.786891e+03
1.851330e+03,3.779595e+03
1.852294e+03,3.777950e+03
1.853258e+03,3.777275e+03
1.854223e+03,3.776301e+03
1.855187e+03,3.775023e+03
1.856151e+03,3.774327e+03
1.857115e+03,3.766498e+03
1.858079e+03,3.746998e+03
1.859044e+03,3.728663e+03
1.860008e+03,3.727529e+03
1.860972e+03,3.735416e+03
1.861936e+03,3.749797e+03
1.862901e+03,3.763363e+03
1.863865e+03,3.763665e+03
1.864829e+03,3.750304e+03
1.865793e+03,3.738690e+03
1.866758e+03,3.730573e+03
1.867722e+03,3.728255e+03
1.868686e+03,3.732863e+03
1.869650e+03,3.734438e+03
1.870615e+03,3.730449e+03
1.871579e+03,3.727025e+03
1.872543e+03,3.727796e+03
1.873507e+03,3.729843e+03
1.874471e+03,3.726585e+03
1.875436e+03,3.720878e+03
1.876400e+03,3.716290e+03
1.877364e+03,3.711631e+03
1.878328e+03,3.705214e+03
1.879293e+03,3.697246e+03
1.880257e+03,3.684723e+03
1.881221e+03,3.670540e+03
1.882185e+03,3.663226e+03
1.883150e+03,3.663819e+03
1.884114e+03,3.670978e+03
1.885078e+03,3.681952e+03
1.886042e+03,3.683379e+03
1.887006e+03,3.669925e+03
1.887971e+03,3.657790e+03
1.888935e+03,3.652419e+03
1.889899e+03,3.654443e+03
1.890863e+03,3.663684e+03
1.891828e+03,3.669690e+03
1.892792e+03,3.665172e+03
1.893756e+03,3.653398e+03
1.894720e+03,3.630560e+03
1.895685e+03,3.613391e+03
1.896649e+03,3.622791e+03
1.897613e+03,3.645751e+03
1.898577e+03,3.637746e+03
1.899542e+03,3.614261e+03
1.900506e+03,3.610709e+03
1.901470e+03,3.634264e+03
1.902434e+03,3.643902e+03
1.903398e+03,3.640068e+03
1.904363e+03,3.625500e+03
1.905327e+03,3.599712e+03
1.906291e+03,3.583645e+03
1.907255e+03,3.593269e+03
1.908220e+03,3.602539e+03
1.909184e+03,3.608521e+03
1.910148e+03,3.606343e+03
1.911112e+03,3.582703e+03
1.912077e+03,3.561289e+03
1.913041e+03,3.569663e+03
1.914005e+03,3.584520e+03
1.914969e+03,3.579337e+03
1.915933e+03,3.561192e+03
1.916898e+03,3.554478e+03
1.917862e+03,3.555578e+03
1.918826e+03,3.554823e+03
1.919790e+03,3.551605e+03
1.920755e+03,3.558258e+03
1.921719e+03,3.571926e+03
1.922683e+03,3.571147e+03
1.923647e+03,3.552424e+03
1.924612e+03,3.539282e+03
1.925576e+03,3.550248e+03
1.926540e+03,3.553551e+03
1.927504e+03,3.541243e+03
1.928469e+03,3.527732e+03
1.929433e+03,3.526800e+03
1.930397e+03,3.527207e+03
1.931361e+03,3.521344e+03
1.932325e+03,3.512569e+03
1.933290e+03,3.503007e+03
1.934254e+03,3.497609e+03
1.935218e+03,3.506956e+03
1.936182e+03,3.519276e+03
1.937147e+03,3.516708e+03
1.938111e+03,3.502365e+03
1.939075e+03,3.504281e+03
1.940039e+03,3.520312e+03
1.941004e+03,3.524724e+03
1.941968e+03,3.511978e+03
1.942932e+03,3.496578e+03
1.943896e+03,3.480839e+03
1.944860e+03,3.473378e+03
1.945825e+03,3.477075e+03
1.946789e+03,3.479391e+03
1.947753e+03,3.465294e+03
1.948717e+03,3.453382e+03
1.949682e+03,3.454344e+03
1.950646e+03,3.451597e+03
1.951610e+03,3.430581e+03
1.952574e+03,3.408819e+03
1.953539e+03,3.415878e+03
1.954503e+03,3.432627e+03
1.955467e+03,3.440195e+03
1.956431e+03,3.442353e+03
1.957396e+03,3.451109e+03
1.958360e+03,3.459836e+03
1.959324e+03,3.449058e+03
1.960288e+03,3.424002e+03
1.961252e+03,3.418222e+03
1.962217e+03,3.433737e+03
1.963181e+03,3.430331e+03
1.964145e+03,3.408021e+03
1.965109e+03,3.391234e+03
1.966074e+03,3.396521e+03
1.967038e+03,3.403330e+03
1.968002e+03,3.407104e+03
1.968966e+03,3.406074e+03
1.969931e+03,3.398309e+03
1.970895e+03,3.390132e+03
1.971859e+03,3.391977e+03
1.972823e+03,3.394524e+03
1.973787e+03,3.391719e+03
1.974752e+03,3.386517e+03
1.975716e+03,3.385626e+03
1.976680e+03,3.383987e+03
1.977644e+03,3.376925e+03
1.978609e+03,3.369312e+03
1.979573e+03,3.365363e+03
1.980537e+03,3.364240e+03
1.981501e+03,3.369956e+03
1.982466e+03,3.378660e+03
1.983430e+03,3.376098e+03
1.984394e+03,3.359325e+03
1.985358e+03,3.350283e+03
1.986323e+03,3.347490e+03
1.987287e+03,3.344641e+03
1.988251e+03,3.338957e+03
1.989215e+03,3.337191e+03
1.990179e+03,3.342624e+03
1.991144e+03,3.341481e+03
1.992108e+03,3.331000e+03
1.993072e+03,3.321857e+03
1.994036e+03,3.320787e+03
1.995001e+03,3.320645e+03
1.995965e+03,3.319162e+03
1.996929e+03,3.319482e+03
1.997893e+03,3.326262e+03
1.998858e+03,3.329977e+03
1.999822e+03,3.317376e+03
2.000786e+03,3.302616e+03
2.001750e+03,3.302214e+03
2.002714e+03,3.310525e+03
2.003679e+03,3.307586e+03
2.004643e+03,3.299271e+03
2.005607e+03,3.299297e+03
2.006571e+03,3.305106e+03
2.007536e+03,3.296838e+03
2.008500e+03,3.280885e+03
2.009464e+03,3.280036e+03
2.010428e+03,3.294968e+03
2.011393e+03,3.290438e+03
2.012357e+03,3.262235e+03
2.013321e+03,3.255211e+03
2.014285e+03,3.268531e+03
2.015250e+03,3.276643e+03
2.016214e+03,3.264963e+03
2.017178e+03,3.249936e+03
2.018142e+03,3.232338e+03
2.019106e+03,3.221774e+03
2.020071e+03,3.223990e+03
2.021035e+03,3.230999e+03
2.021999e+03,3.243677e+03
2.022963e+03,3.249744e+03
2.023928e+03,3.245524e+03
2.024892e+03,3.234982e+03
2.025856e+03,3.214953e+03
2.026820e+03,3.198453e+03
2.027785e+03,3.192271e+03
2.028749e+03,3.193503e+03
2.029713e+03,3.207051e+03
2.030677e+03,3.221183e+03
2.031641e+03,3.213559e+03
2.032606e+03,3.196823e+03
2.033570e+03,3.195149e+03
2.034534e+03,3.203267e+03
2.035498e+03,3.200940e+03
2.036463e+03,3.191906e+03
2.037427e+03,3.183038e+03
2.038391e+03,3.176870e+03
2.039355e+03,3.170710e+03
2.040320e+03,3.166053e+03
2.041284e+03,3.168491e+03
2.042248e+03,3.178531e+03
2.043212e+03,3.182644e+03
2.044177e+03,3.180950e+03
2.045141e+03,3.175938e+03
2.046105e+03,3.167497e+03
2.047069e+03,3.163252e+03
2.048033e+03,3.170550e+03
2.048998e+03,3.171374e+03
2.049962e+03,3.165257e+03
2.050926e+03,3.155580e+03
2.051890e+03,3.140016e+03
2.052854e+03,3.127724e+03
2.053819e+03,3.117394e+03
2.054783e+03,3.116973e+03
2.055747e+03,3.140489e+03
2.056711e+03,3.160468e+03
2.057676e+03,3.140426e+03
2.058640e+03,3.119166e+03
2.059604e+03,3.115995e+03
2.060568e+03,3.118153e+03
2.061533e+03,3.105853e+03
2.062497e+03,3.093802e+03
2.063461e+03,3.099690e+03
2.064425e+03,3.112490e+03
2.065390e+03,3.119382e+03
2.066354e+03,3.120401e+03
2.067318e+03,3.116571e+03
2.068282e+03,3.108347e+03
2.069247e+03,3.093514e+03
2.070211e+03,3.073752e+03
2.071175e+03,3.066584e+03
2.072139e+03,3.068155e+03
2.073104e+03,3.068365e+03
2.074068e+03,3.066410e+03
2.075032e+03,3.068755e+03
2.075996e+03,3.072894e+03
2.076960e+03,3.072223e+03
2.077925e+03,3.065283e+03
2.078889e+03,3.063892e+03
2.079853e+03,3.068970e+03
2.080817e+03,3.070406e+03
2.081782e+03,3.066773e+03
2.082746e+03,3.059275e+03
2.083710e+03,3.048711e+03
2.084674e+03,3.038919e+03
2.085639e+03,3.031830e+03
2.086603e+03,3.030104e+03
2.087567e+03,3.032670e+03
2.088531e+03,3.035005e+03
2.089496e+03,3.036123e+03
2.090460e+03,3.028840e+03
2.091424e+03,3.011359e+03
2.092388e+03,3.000250e+03
2.093353e+03,3.007959e+03
2.094317e+03,3.017223e+03
2.095281e+03,3.020811e+03
2.096245e+03,3.019470e+03
2.097209e+03,3.011971e+03
2.098174e+03,3.003195e+03
2.099138e+03,2.995662e+03
2.100102e+03,2.991688e+03
2.101066e+03,3.000121e+03
2.102031e+03,3.005526e+03
2.102995e+03,2.986146e+03
2.103959e+03,2.965108e+03
2.104923e+03,2.961974e+03
2.105887e+03,2.970440e+03
2.106852e+03,2.980696e+03
2.107816e+03,2.985836e+03
2.108780e+03,2.981925e+03
2.109744e+03,2.971447e+03
2.110708e+03,2.959936e+03
2.111673e+03,2.951027e+03
2.112637e+03,2.946402e+03
2.113601e+03,2.944141e+03
2.114565e+03,2.947617e+03
2.115530e+03,2.952993e+03
2.116494e+03,2.950853e+03
2.117458e+03,2.945665e+03
2.118422e+03,2.941484e+03
2.119387e+03,2.936889e+03
2.120351e+03,2.943273e+03
2.121315e+03,2.954191e+03
2.122279e+03,2.953128e+03
2.123244e+03,2.938943e+03
2.124208e+03,2.925495e+03
2.125172e+03,2.914947e+03
2.126136e+03,2.912355e+03
2.127101e+03,2.920354e+03
2.128065e+03,2.920007e+03
2.129029e+03,2.912405e+03
2.129993e+03,2.913239e+03
2.130958e+03,2.922611e+03
2.131922e+03,2.920873e+03
2.132886e+03,2.906732e+03
2.133850e+03,2.901069e+03
2.134814e+03,2.908168e+03
2.135779e+03,2.911591e+03
2.136743e+03,2.902405e+03
2.137707e+03,2.892921e+03
2.138671e+03,2.884747e+03
2.139636e+03,2.876065e+03
2.140600e+03,2.862003e+03
2.141564e+03,2.858550e+03
2.142528e+03,2.867899e+03
2.143493e+03,2.870433e+03
2.144457e+03,2.854412e+03
2.145421e+03,2.839426e+03
2.146385e+03,2.829417e+03
2.147350e+03,2.831359e+03
2.148314e+03,2.851034e+03
2.149278e+03,2.867078e+03
2.150242e+03,2.852226e+03
2.151207e+03,2.847816e+03
2.152171e+03,2.861002e+03
2.153135e+03,2.871833e+03
2.154099e+03,2.871095e+03
2.155063e+03,2.861602e+03
2.156028e+03,2.843673e+03
2.156992e+03,2.829159e+03
2.157956e+03,2.822156e+03
2.158920e+03,2.820398e+03
2.159885e+03,2.826149e+03
2.160849e+03,2.827991e+03
2.161813e+03,2.818474e+03
2.162777e+03,2.807729e+03
2.163741e+03,2.806414e+03
2.164706e+03,2.805257e+03
2.165670e+03,2.803755e+03
2.166634e+03,2.803165e+03
2.167598e+03,2.806150e+03
2.168563e+03,2.800883e+03
2.169527e+03,2.776237e+03
2.170491e+03,2.754265e+03
2.171455e+03,2.770903e+03
2.172420e+03,2.790208e+03
2.173384e+03,2.787589e+03
2.174348e+03,2.780927e+03
2.175312e+03,2.785710e+03
2.176277e+03,2.788837e+03
2.177241e+03,2.771243e+03
2.178205e+03,2.755841e+03
2.179169e+03,2.762382e+03
2.180134e+03,2.773746e+03
2.181098e+03,2.759562e+03
2.182062e+03,2.743852e+03
2.183026e+03,2.740632e+03
2.183990e+03,2.744003e+03
2.184955e+03,2.747699e+03
2.185919e+03,2.752583e+03
2.186883e+03,2.759084e+03
2.187847e+03,2.763728e+03
2.188812e+03,2.763823e+03
2.189776e+03,2.761398e+03
2.190740e+03,2.755465e+03
2.191704e+03,2.748109e+03
2.192668e+03,2.743933e+03
2.193633e+03,2.739976e+03
2.194597e+03,2.727133e+03
2.195561e+03,2.717438e+03
2.196525e+03,2.722009e+03
2.197490e+03,2.731600e+03
2.198454e+03,2.732845e+03
2.199418e+03,2.726818e+03
2.200382e+03,2.713997e+03
2.201347e+03,2.701891e+03
2.202311e+03,2.698058e+03
2.203275e+03,2.702340e+03
2.204239e+03,2.719537e+03
2.205204e+03,2.732426e+03
2.206168e+03,2.715737e+03
2.207132e+03,2.690552e+03
2.208096e+03,2.681732e+03
2.209061e+03,2.676627e+03
2.210025e+03,2.660531e+03
2.210989e+03,2.643789e+03
2.211953e+03,2.647235e+03
2.212917e+03,2.660601e+03
2.213882e+03,2.665965e+03
2.214846e+03,2.665088e+03
2.215810e+03,2.662193e+03
2.216774e+03,2.659618e+03
2.217739e+03,2.667912e+03
2.218703e+03,2.676306e+03
2.219667e+03,2.657667e+03
2.220631e+03,2.634417e+03
2.221595e+03,2.626929e+03
2.222560e+03,2.627355e+03
2.223524e+03,2.627605e+03
2.224488e+03,2.627760e+03
2.225452e+03,2.631945e+03
2.226417e+03,2.634224e+03
2.227381e+03,2.623862e+03
2.228345e+03,2.611943e+03
2.229309e+03,2.612832e+03
2.230274e+03,2.614242e+03
2.231238e+03,2.604653e+03
2.232202e+03,2.592416e+03
2.233166e+03,2.594082e+03
2.234131e+03,2.600279e+03
2.235095e+03,2.602898e+03
2.236059e+03,2.603193e+03
2.237023e+03,2.601782e+03
2.237988e+03,2.598342e+03
2.238952e+03,2.591937e+03
2.239916e+03,2.582984e+03
2.240880e+03,2.573009e+03
2.241844e+03,2.565017e+03
2.242809e+03,2.560582e+03
2.243773e+03,2.559034e+03
2.244737e+03,2.558149e+03
2.245701e+03,2.558931e+03
2.246666e+03,2.564064e+03
2.247630e+03,2.567416e+03
2.248594e+03,2.567356e+03
2.249558e+03,2.566864e+03
2.250522e+03,2.565006e+03
2.251487e+03,2.566238e+03
2.252451e+03,2.571695e+03
2.253415e+03,2.573193e+03
2.254379e+03,2.565261e+03
2.255344e+03,2.553957e+03
2.256308e+03,2.541601e+03
2.257272e+03,2.530789e+03
2.258236e+03,2.522952e+03
2.259201e+03,2.519559e+03
2.260165e+03,2.519564e+03
2.261129e+03,2.521924e+03
2.262093e+03,2.527458e+03
2.263058e+03,2.531470e+03
2.264022e+03,2.535445e+03
2.264986e+03,2.537014e+03
2.265950e+03,2.529335e+03
2.266915e+03,2.523619e+03
2.267879e+03,2.522399e+03
2.268843e+03,2.516777e+03
2.269807e+03,2.504832e+03
2.270771e+03,2.494347e+03
2.271736e+03,2.489302e+03
2.272700e+03,2.485262e+03
2.273664e+03,2.478009e+03
2.274628e+03,2.473176e+03
2.275593e+03,2.472664e+03
2.276557e+03,2.475918e+03
2.277521e+03,2.485090e+03
2.278485e+03,2.490238e+03
2.279449e+03,2.483552e+03
2.280414e+03,2.478157e+03
2.281378e+03,2.474542e+03
2.282342e+03,2.472986e+03
2.283306e+03,2.475104e+03
2.284271e+03,2.469156e+03
2.285235e+03,2.455367e+03
2.286199e+03,2.443728e+03
2.287163e+03,2.441423e+03
2.288128e+03,2.443507e+03
2.289092e+03,2.447526e+03
2.290056e+03,2.455365e+03
2.291020e+03,2.468186e+03
2.291985e+03,2.462488e+03
2.292949e+03,2.442887e+03
2.293913e+03,2.434512e+03
2.294877e+03,2.438754e+03
2.295842e+03,2.443378e+03
2.296806e+03,2.445796e+03
2.297770e+03,2.441925e+03
2.298734e+03,2.433545e+03
2.299698e+03,2.431108e+03
2.300663e+03,2.433895e+03
2.301627e+03,2.425075e+03
2.302591e+03,2.409008e+03
2.303555e+03,2.398278e+03
2.304520e+03,2.393162e+03
2.305484e+03,2.392486e+03
2.306448e+03,2.394803e+03
2.307412e+03,2.395862e+03
2.308376e+03,2.395671e+03
2.309341e+03,2.401225e+03
2.310305e+03,2.403572e+03
2.311269e+03,2.387262e+03
2.312233e+03,2.368286e+03
2.313198e+03,2.372487e+03
2.314162e+03,2.382899e+03
2.315126e+03,2.380936e+03
2.316090e+03,2.376286e+03
2.317055e+03,2.383900e+03
2.318019e+03,2.391422e+03
2.318983e+03,2.383665e+03
2.319947e+03,2.372937e+03
2.320912e+03,2.370163e+03
2.321876e+03,2.369222e+03
2.322840e+03,2.364196e+03
2.323804e+03,2.358609e+03
2.324769e+03,2.353732e+03
2.325733e+03,2.352983e+03
2.326697e+03,2.360576e+03
2.327661e+03,2.363940e+03
2.328625e+03,2.356288e+03
2.329590e+03,2.350944e+03
2.330554e+03,2.366652e+03
2.331518e+03,2.363312e+03
2.332482e+03,2.333395e+03
2.333447e+03,2.314255e+03
2.334411e+03,2.332529e+03
2.335375e+03,2.338832e+03
2.336339e+03,2.330680e+03
2.337303e+03,2.320644e+03
2.338268e+03,2.309483e+03
2.339232e+03,2.305662e+03
2.340196e+03,2.308991e+03
2.341160e+03,2.313688e+03
2.342125e+03,2.318118e+03
2.343089e+03,2.327931e+03
2.344053e+03,2.337251e+03
2.345017e+03,2.333620e+03
2.345982e+03,2.318437e+03
2.346946e+03,2.311672e+03
2.347910e+03,2.311950e+03
2.348874e+03,2.311236e+03
2.349839e+03,2.306778e+03
2.350803e+03,2.297259e+03
2.351767e+03,2.287509e+03
2.352731e+03,2.288089e+03
2.353696e+03,2.293268e+03
2.354660e+03,2.289385e+03
2.355624e+03,2.282073e+03
2.356588e+03,2.285055e+03
2.357552e+03,2.289323e+03
2.358517e+03,2.284922e+03
2.359481e+03,2.279485e+03
2.360445e+03,2.283317e+03
2.361409e+03,2.284929e+03
2.362374e+03,2.278160e+03
2.363338e+03,2.268438e+03
2.364302e+03,2.263821e+03
2.365266e+03,2.259920e+03
2.366230e+03,2.252704e+03
2.367195e+03,2.250459e+03
2.368159e+03,2.264376e+03
2.369123e+03,2.267388e+03
2.370087e+03,2.257418e+03
2.371052e+03,2.251160e+03
2.372016e+03,2.261637e+03
2.372980e+03,2.256784e+03
2.373944e+03,2.236068e+03
2.374909e+03,2.226012e+03
2.375873e+03,2.238525e+03
2.376837e+03,2.246787e+03
2.377801e+03,2.250134e+03
2.378766e+03,2.239537e+03
2.379730e+03,2.215756e+03
2.380694e+03,2.204707e+03
2.381658e+03,2.204376e+03
2.382623e+03,2.207811e+03
2.383587e+03,2.212076e+03
2.384551e+03,2.212753e+03
2.385515e+03,2.209774e+03
2.386479e+03,2.203410e+03
2.387444e+03,2.198001e+03
2.388408e+03,2.201687e+03
2.389372e+03,2.208920e+03
2.390336e+03,2.213513e+03
2.391301e+03,2.215226e+03
2.392265e+03,2.212400e+03
2.393229e+03,2.206000e+03
2.394193e+03,2.195180e+03
2.395157e+03,2.188672e+03
2.396122e+03,2.198382e+03
2.397086e+03,2.199820e+03
2.398050e+03,2.184274e+03
2.399014e+03,2.173278e+03
2.399979e+03,2.175205e+03
2.400943e+03,2.178717e+03
2.401907e+03,2.180830e+03
2.402871e+03,2.180986e+03
2.403836e+03,2.179746e+03
2.404800e+03,2.176630e+03
2.405764e+03,2.171489e+03
2.406728e+03,2.169395e+03
2.407693e+03,2.169108e+03
2.408657e+03,2.167135e+03
2.409621e+03,2.165186e+03
2.410585e+03,2.167630e+03
2.411550e+03,2.171629e+03
2.412514e+03,2.169086e+03
2.413478e+03,2.162129e+03
2.414442e+03,2.156958e+03
2.415406e+03,2.151394e+03
2.416371e+03,2.140803e+03
2.417335e+03,2.131706e+03
2.418299e+03,2.136372e+03
2.419263e+03,2.141974e+03
2.420228e+03,2.141611e+03
2.421192e+03,2.137702e+03
2.422156e+03,2.126768e+03
2.423120e+03,2.128132e+03
2.424084e+03,2.146669e+03
2.425049e+03,2.155932e+03
2.426013e+03,2.140329e+03
2.426977e+03,2.124967e+03
2.427941e+03,2.113908e+03
2.428906e+03,2.108080e+03
2.429870e+03,2.106016e+03
2.430834e+03,2.111782e+03
2.431798e+03,2.122867e+03
2.432763e+03,2.119892e+03
2.433727e+03,2.103543e+03
2.434691e+03,2.107140e+03
2.435655e+03,2.118184e+03
2.436620e+03,2.108141e+03
2.437584e+03,2.088319e+03
2.438548e+03,2.093979e+03
2.439512e+03,2.104068e+03
2.440477e+03,2.094542e+03
2.441441e+03,2.079063e+03
2.442405e+03,2.077858e+03
2.443369e+03,2.083894e+03
2.444333e+03,2.095905e+03
2.445298e+03,2.102790e+03
2.446262e+03,2.087056e+03
2.447226e+03,2.076551e+03
2.448190e+03,2.077312e+03
2.449155e+03,2.079510e+03
2.450119e+03,2.080836e+03
2.451083e+03,2.077313e+03
2.452047e+03,2.069393e+03
2.453011e+03,2.068419e+03
2.453976e+03,2.078591e+03
2.454940e+03,2.075056e+03
2.455904e+03,2.063423e+03
2.456868e+03,2.053869e+03
2.457833e+03,2.046347e+03
2.458797e+03,2.042915e+03
2.459761e+03,2.042838e+03
2.460725e+03,2.044045e+03
2.461690e+03,2.044935e+03
2.462654e+03,2.044790e+03
2.463618e+03,2.041517e+03
2.464582e+03,2.034680e+03
2.465547e+03,2.028922e+03
2.466511e+03,2.021682e+03
2.467475e+03,2.023875e+03
2.468439e+03,2.038053e+03
2.469404e+03,2.046230e+03
2.470368e+03,2.037699e+03
2.471332e+03,2.024789e+03
2.472296e+03,2.008424e+03
2.473260e+03,2.008408e+03
2.474225e+03,2.031659e+03
2.475189e+03,2.035552e+03
2.476153e+03,2.027786e+03
2.477117e+03,2.026646e+03
2.478082e+03,2.030113e+03
2.479046e+03,2.029976e+03
2.480010e+03,2.027852e+03
2.480974e+03,2.027021e+03
2.481938e+03,2.026857e+03
2.482903e+03,2.027567e+03
2.483867e+03,2.026566e+03
2.484831e+03,2.022454e+03
2.485795e+03,2.014846e+03
2.486760e+03,2.003223e+03
2.487724e+03,1.989558e+03
2.488688e+03,1.974648e+03
2.489652e+03,1.971601e+03
2.490617e+03,1.993742e+03
2.491581e+03,2.007632e+03
2.492545e+03,2.013691e+03
2.493509e+03,2.005581e+03
2.494474e+03,1.983737e+03
2.495438e+03,1.978636e+03
2.496402e+03,1.984723e+03
2.497366e+03,1.996151e+03
2.498331e+03,2.003476e+03
2.499295e+03,1.978362e+03
2.500259e+03,1.952810e+03
2.501223e+03,1.958645e+03
2.502188e+03,1.971588e+03
2.503152e+03,1.965870e+03
2.504116e+03,1.959494e+03
2.505080e+03,1.958255e+03
2.506044e+03,1.957727e+03
2.507009e+03,1.952183e+03
2.507973e+03,1.950817e+03
2.508937e+03,1.954613e+03
2.509901e+03,1.959645e+03
2.510865e+03,1.964578e+03
2.511830e+03,1.966350e+03
2.512794e+03,1.962701e+03
2.513758e+03,1.947073e+03
2.514722e+03,1.929167e+03
2.515687e+03,1.937041e+03
2.516651e+03,1.949527e+03
2.517615e+03,1.942013e+03
2.518579e+03,1.932126e+03
2.519544e+03,1.950370e+03
2.520508e+03,1.958495e+03
2.521472e+03,1.941709e+03
2.522436e+03,1.928078e+03
2.523401e+03,1.944375e+03
2.524365e+03,1.951854e+03
2.525329e+03,1.946820e+03
2.526293e+03,1.939794e+03
2.527258e+03,1.934977e+03
2.528222e+03,1.925982e+03
2.529186e+03,1.916858e+03
2.530150e+03,1.922588e+03
2.531115e+03,1.937243e+03
2.532079e+03,1.939206e+03
2.533043e+03,1.931570e+03
2.534007e+03,1.917055e+03
2.534971e+03,1.900986e+03
2.535936e+03,1.890273e+03
2.536900e+03,1.888592e+03
2.537864e+03,1.897949e+03
2.538828e+03,1.908684e+03
2.539792e+03,1.912972e+03
2.540757e+03,1.918379e+03
2.541721e+03,1.925219e+03
2.542685e+03,1.926198e+03
2.543649e+03,1.922031e+03
2.544614e+03,1.905058e+03
2.545578e+03,1.883264e+03
2.546542e+03,1.885195e+03
2.547506e+03,1.900480e+03
2.548471e+03,1.904460e+03
2.549435e+03,1.901319e+03
2.550399e+03,1.893276e+03
2.551363e+03,1.885760e+03
2.552328e+03,1.885587e+03
2.553292e+03,1.885480e+03
2.554256e+03,1.883470e+03
2.555220e+03,1.879276e+03
2.556185e+03,1.872822e+03
2.557149e+03,1.861935e+03
2.558113e+03,1.847503e+03
2.559077e+03,1.848883e+03
2.560042e+03,1.861436e+03
2.561006e+03,1.876057e+03
2.561970e+03,1.889734e+03
2.562934e+03,1.891208e+03
2.563898e+03,1.886936e+03
2.564863e+03,1.883512e+03
2.565827e+03,1.876387e+03
2.566791e+03,1.860801e+03
2.567755e+03,1.850726e+03
2.568719e+03,1.846381e+03
2.569684e+03,1.847408e+03
2.570648e+03,1.858333e+03
2.571612e+03,1.855234e+03
2.572576e+03,1.843292e+03
2.573541e+03,1.845891e+03
2.574505e+03,1.859476e+03
2.575469e+03,1.862430e+03
2.576433e+03,1.857210e+03
2.577398e+03,1.846550e+03
2.578362e+03,1.839474e+03
2.579326e+03,1.858469e+03
2.580290e+03,1.866636e+03
2.581255e+03,1.846588e+03
2.582219e+03,1.827008e+03
2.583183e+03,1.834751e+03
2.584147e+03,1.832212e+03
2.585112e+03,1.820969e+03
2.586076e+03,1.814578e+03
2.587040e+03,1.814983e+03
2.588004e+03,1.811172e+03
2.588969e+03,1.806328e+03
2.589933e+03,1.810626e+03
2.590897e+03,1.820379e+03
2.591861e+03,1.830253e+03
2.592825e+03,1.837349e+03
2.593790e+03,1.839215e+03
2.594754e+03,1.836858e+03
2.595718e+03,1.830041e+03
2.596682e+03,1.822188e+03
2.597646e+03,1.812824e+03
2.598611e+03,1.807854e+03
2.599575e+03,1.808976e+03
2.600539e+03,1.815597e+03
2.601503e+03,1.824348e+03
2.602468e+03,1.827666e+03
2.603432e+03,1.824090e+03
2.604396e+03,1.806779e+03
2.605360e+03,1.790227e+03
2.606325e+03,1.786057e+03
2.607289e+03,1.785759e+03
2.608253e+03,1.786048e+03
2.609217e+03,1.786576e+03
2.610182e+03,1.784468e+03
2.611146e+03,1.781078e+03
2.612110e+03,1.778173e+03
2.613074e+03,1.785122e+03
2.614039e+03,1.800653e+03
2.615003e+03,1.807016e+03
2.615967e+03,1.802542e+03
2.616931e+03,1.786007e+03
2.617896e+03,1.769421e+03
2.618860e+03,1.767521e+03
2.619824e+03,1.770137e+03
2.620788e+03,1.772543e+03
2.621752e+03,1.773740e+03
2.622717e+03,1.773876e+03
2.623681e+03,1.775547e+03
2.624645e+03,1.777928e+03
2.625609e+03,1.778403e+03
2.626573e+03,1.777250e+03
2.627538e+03,1.778488e+03
2.628502e+03,1.778689e+03
2.629466e+03,1.770084e+03
2.630430e+03,1.758661e+03
2.631395e+03,1.747484e+03
2.632359e+03,1.746078e+03
2.633323e+03,1.763874e+03
2.634287e+03,1.765490e+03
2.635252e+03,1.744758e+03
2.636216e+03,1.739105e+03
2.637180e+03,1.753143e+03
2.638144e+03,1.754727e+03
2.639109e+03,1.747810e+03
2.640073e+03,1.745749e+03
2.641037e+03,1.750069e+03
2.642001e+03,1.765928e+03
2.642966e+03,1.771727e+03
2.643930e+03,1.753932e+03
2.644894e+03,1.737798e+03
2.645858e+03,1.741338e+03
2.646823e+03,1.750825e+03
2.647787e+03,1.762345e+03
2.648751e+03,1.761168e+03
2.649715e+03,1.746511e+03
2.650679e+03,1.729583e+03
2.651644e+03,1.716536e+03
2.652608e+03,1.717089e+03
2.653572e+03,1.721526e+03
2.654536e+03,1.713416e+03
2.655500e+03,1.713205e+03
2.656465e+03,1.731541e+03
2.657429e+03,1.733448e+03
2.658393e+03,1.705552e+03
2.659357e+03,1.684942e+03
2.660322e+03,1.679792e+03
2.661286e+03,1.690963e+03
2.662250e+03,1.709451e+03
2.663214e+03,1.709245e+03
2.664179e+03,1.703170e+03
2.665143e+03,1.709994e+03
2.666107e+03,1.715330e+03
2.667071e+03,1.711859e+03
2.668036e+03,1.706577e+03
2.669000e+03,1.698011e+03
2.669964e+03,1.696720e+03
2.670928e+03,1.701925e+03
2.671893e+03,1.711499e+03
2.672857e+03,1.724099e+03
2.673821e+03,1.737391e+03
2.674785e+03,1.739703e+03
2.675750e+03,1.719401e+03
2.676714e+03,1.695492e+03
2.677678e+03,1.685149e+03
2.678642e+03,1.684692e+03
2.679606e+03,1.694911e+03
2.680571e+03,1.688989e+03
2.681535e+03,1.663878e+03
2.682499e+03,1.660304e+03
2.683463e+03,1.673704e+03
2.684427e+03,1.676250e+03
2.685392e+03,1.674993e+03
2.686356e+03,1.682625e+03
2.687320e+03,1.688420e+03
2.688284e+03,1.683439e+03
2.689249e+03,1.680985e+03
2.690213e+03,1.683154e+03
2.691177e+03,1.680356e+03
2.692141e+03,1.670566e+03
2.693106e+03,1.671230e+03
2.694070e+03,1.676841e+03
2.695034e+03,1.671623e+03
2.695998e+03,1.661984e+03
2.696963e+03,1.657459e+03
2.697927e+03,1.659221e+03
2.698891e+03,1.666346e+03
2.699855e+03,1.671092e+03
2.700820e+03,1.670286e+03
2.701784e+03,1.674269e+03
2.702748e+03,1.680125e+03
2.703712e+03,1.666187e+03
2.704677e+03,1.641754e+03
2.705641e+03,1.643158e+03
2.706605e+03,1.653955e+03
2.707569e+03,1.655164e+03
2.708533e+03,1.646143e+03
2.709498e+03,1.624211e+03
2.710462e+03,1.616180e+03
2.711426e+03,1.644882e+03
2.712390e+03,1.649405e+03
2.713354e+03,1.635475e+03
2.714319e+03,1.632455e+03
2.715283e+03,1.637511e+03
2.716247e+03,1.645343e+03
2.717211e+03,1.648986e+03
2.718176e+03,1.644146e+03
2.719140e+03,1.636873e+03
2.720104e+03,1.628486e+03
2.721068e+03,1.627569e+03
2.722033e+03,1.635106e+03
2.722997e+03,1.644634e+03
2.723961e+03,1.652051e+03
2.724925e+03,1.644526e+03
2.725890e+03,1.630609e+03
2.726854e+03,1.618790e+03
2.727818e+03,1.611153e+03
2.728782e+03,1.606100e+03
2.729747e+03,1.605160e+03
2.730711e+03,1.612211e+03
2.731675e+03,1.617397e+03
2.732639e+03,1.621897e+03
2.733604e+03,1.632755e+03
2.734568e+03,1.643465e+03
2.735532e+03,1.629767e+03
2.736496e+03,1.614114e+03
2.737460e+03,1.614363e+03
2.738425e+03,1.619819e+03
2.739389e+03,1.625487e+03
2.740353e+03,1.620179e+03
2.741317e+03,1.604728e+03
2.742281e+03,1.609823e+03
2.743246e+03,1.627731e+03
2.744210e+03,1.624301e+03
2.745174e+03,1.610537e+03
2.746138e+03,1.598460e+03
2.747103e+03,1.600485e+03
2.748067e+03,1.622517e+03
2.749031e+03,1.629092e+03
2.749995e+03,1.588389e+03
2.750960e+03,1.583166e+03
2.751924e+03,1.602531e+03
2.752888e+03,1.610496e+03
2.753852e+03,1.608740e+03
2.754817e+03,1.600944e+03
2.755781e+03,1.598344e+03
2.756745e+03,1.609850e+03
2.757709e+03,1.608945e+03
2.758674e+03,1.585801e+03
2.759638e+03,1.588846e+03
2.760602e+03,1.622162e+03
2.761566e+03,1.617865e+03
2.762531e+03,1.595681e+03
2.763495e+03,1.583842e+03
2.764459e+03,1.578780e+03
2.765423e+03,1.583190e+03
2.766387e+03,1.585280e+03
2.767352e+03,1.583583e+03
2.768316e+03,1.574887e+03
2.769280e+03,1.559017e+03
2.770244e+03,1.567487e+03
2.771208e+03,1.588623e+03
2.772173e+03,1.596326e+03
2.773137e+03,1.593267e+03
2.774101e+03,1.581564e+03
2.775065e+03,1.572478e+03
2.776030e+03,1.570149e+03
2.776994e+03,1.566022e+03
2.777958e+03,1.558470e+03
2.778922e+03,1.547704e+03
2.779887e+03,1.540559e+03
2.780851e+03,1.561324e+03
2.781815e+03,1.581635e+03
2.782779e+03,1.584725e+03
2.783744e+03,1.578060e+03
2.784708e+03,1.559261e+03
2.785672e+03,1.555411e+03
2.786636e+03,1.565681e+03
2.787601e+03,1.564732e+03
2.788565e+03,1.558108e+03
2.789529e+03,1.561522e+03
2.790493e+03,1.567617e+03
2.791458e+03,1.574112e+03
2.792422e+03,1.564942e+03
2.793386e+03,1.540434e+03
2.794350e+03,1.531298e+03
2.795314e+03,1.543939e+03
2.796279e+03,1.549684e+03
2.797243e+03,1.552406e+03
2.798207e+03,1.564052e+03
2.799171e+03,1.573340e+03
2.800135e+03,1.562444e+03
2.801100e+03,1.542228e+03
2.802064e+03,1.514305e+03
2.803028e+03,1.515758e+03
2.803992e+03,1.539681e+03
2.804957e+03,1.546988e+03
2.805921e+03,1.543284e+03
2.806885e+03,1.535595e+03
2.807849e+03,1.536011e+03
2.808814e+03,1.550730e+03
2.809778e+03,1.554350e+03
2.810742e+03,1.531146e+03
2.811706e+03,1.518363e+03
2.812671e+03,1.515431e+03
2.813635e+03,1.521833e+03
2.814599e+03,1.530001e+03
2.815563e+03,1.524983e+03
2.816528e+03,1.521870e+03
2.817492e+03,1.529449e+03
2.818456e+03,1.529913e+03
2.819420e+03,1.521634e+03
2.820385e+03,1.524544e+03
2.821349e+03,1.536485e+03
2.822313e+03,1.533413e+03
2.823277e+03,1.531412e+03
2.824241e+03,1.544467e+03
2.825206e+03,1.546521e+03
2.826170e+03,1.518342e+03
2.827134e+03,1.508828e+03
2.828098e+03,1.518809e+03
2.829063e+03,1.516330e+03
2.830027e+03,1.505161e+03
2.830991e+03,1.492165e+03
2.831955e+03,1.488725e+03
2.832919e+03,1.513338e+03
2.833884e+03,1.517589e+03
2.834848e+03,1.496979e+03
2.835812e+03,1.495740e+03
2.836776e+03,1.515063e+03
2.837741e+03,1.521930e+03
2.838705e+03,1.516455e+03
2.839669e+03,1.494867e+03
2.840633e+03,1.484285e+03
2.841598e+03,1.500355e+03
2.842562e+03,1.513573e+03
2.843526e+03,1.518114e+03
2.844490e+03,1.521943e+03
2.845455e+03,1.518193e+03
2.846419e+03,1.490798e+03
2.847383e+03,1.469382e+03
2.848347e+03,1.499592e+03
2.849312e+03,1.518256e+03
2.850276e+03,1.514064e+03
2.851240e+03,1.504529e+03
2.852204e+03,1.493166e+03
2.853168e+03,1.486677e+03
2.854133e+03,1.484363e+03
2.855097e+03,1.486095e+03
2.856061e+03,1.494623e+03
2.857025e+03,1.508061e+03
2.857990e+03,1.509169e+03
2.858954e+03,1.493027e+03
2.859918e+03,1.487188e+03
2.860882e+03,1.489647e+03
2.861846e+03,1.496182e+03
2.862811e+03,1.502162e+03
2.863775e+03,1.503192e+03
2.864739e+03,1.503060e+03
2.865703e+03,1.502302e+03
2.866668e+03,1.495067e+03
2.867632e+03,1.486056e+03
2.868596e+03,1.493557e+03
2.869560e+03,1.500429e+03
2.870525e+03,1.478847e+03
2.871489e+03,1.472764e+03
2.872453e+03,1.491795e+03
2.873417e+03,1.493146e+03
2.874382e+03,1.476498e+03
2.875346e+03,1.483298e+03
2.876310e+03,1.500248e+03
2.877274e+03,1.500637e+03
2.878239e+03,1.506092e+03
2.879203e+03,1.524121e+03
2.880167e+03,1.521760e+03
2.881131e+03,1.489504e+03
2.882095e+03,1.495123e+03
2.883060e+03,1.515588e+03
2.884024e+03,1.512183e+03
2.884988e+03,1.498159e+03
2.885952e+03,1.481928e+03
2.886917e+03,1.472191e+03
2.887881e+03,1.473906e+03
2.888845e+03,1.490834e+03
2.889809e+03,1.512791e+03
2.890773e+03,1.516068e+03
2.891738e+03,1.507751e+03
2.892702e+03,1.488962e+03
2.893666e+03,1.483833e+03
2.894630e+03,1.495259e+03
2.895595e+03,1.489594e+03
2.896559e+03,1.470642e+03
2.897523e+03,1.469360e+03
2.898487e+03,1.473059e+03
2.899452e+03,1.461776e+03
2.900416e+03,1.467409e+03
2.901380e+03,1.493668e+03
2.902344e+03,1.493844e+03
2.903309e+03,1.465880e+03
2.904273e+03,1.467258e+03
2.905237e+03,1.472453e+03
2.906201e+03,1.449460e+03
2.907166e+03,1.437738e+03
2.908130e+03,1.454057e+03
2.909094e+03,1.470213e+03
2.910058e+03,1.478810e+03
2.911022e+03,1.466908e+03
2.911987e+03,1.451138e+03
2.912951e+03,1.448039e+03
2.913915e+03,1.451420e+03
2.914879e+03,1.458593e+03
2.915844e+03,1.465524e+03
2.916808e+03,1.469995e+03
2.917772e+03,1.455399e+03
2.918736e+03,1.441590e+03
2.919700e+03,1.463149e+03
2.920665e+03,1.482330e+03
2.921629e+03,1.472921e+03
2.922593e+03,1.451565e+03
2.923557e+03,1.425635e+03
2.924522e+03,1.418717e+03
2.925486e+03,1.423220e+03
2.926450e+03,1.422339e+03
2.927414e+03,1.426342e+03
2.928379e+03,1.442752e+03
2.929343e+03,1.450570e+03
2.930307e+03,1.448308e+03
2.931271e+03,1.437867e+03
2.932236e+03,1.428047e+03
2.933200e+03,1.431403e+03
2.934164e+03,1.441528e+03
2.935128e+03,1.454975e+03
2.936093e+03,1.455877e+03
2.937057e+03,1.446764e+03
2.938021e+03,1.442243e+03
2.938985e+03,1.440566e+03
2.939949e+03,1.433766e+03
2.940914e+03,1.428802e+03
2.941878e+03,1.428569e+03
2.942842e+03,1.424140e+03
2.943806e+03,1.412723e+03
2.944771e+03,1.412651e+03
2.945735e+03,1.417627e+03
2.946699e+03,1.417783e+03
2.947663e+03,1.418711e+03
2.948627e+03,1.420261e+03
2.949592e+03,1.426281e+03
2.950556e+03,1.436685e+03
2.951520e+03,1.425222e+03
2.952484e+03,1.415310e+03
2.953449e+03,1.436416e+03
2.954413e+03,1.439202e+03
2.955377e+03,1.404164e+03
2.956341e+03,1.400990e+03
2.957306e+03,1.428673e+03
2.958270e+03,1.427515e+03
2.959234e+03,1.412002e+03
2.960198e+03,1.396631e+03
2.961163e+03,1.401052e+03
2.962127e+03,1.433489e+03
2.963091e+03,1.455171e+03
2.964055e+03,1.454600e+03
2.965020e+03,1.411417e+03
2.965984e+03,1.379277e+03
2.966948e+03,1.396118e+03
2.967912e+03,1.412470e+03
2.968876e+03,1.407792e+03
2.969841e+03,1.405061e+03
2.970805e+03,1.397932e+03
2.971769e+03,1.372241e+03
2.972733e+03,1.355870e+03
2.973698e+03,1.370506e+03
2.974662e+03,1.383476e+03
2.975626e+03,1.386617e+03
2.976590e+03,1.397486e+03
2.977554e+03,1.400549e+03
2.978519e+03,1.368810e+03
2.979483e+03,1.356859e+03
2.980447e+03,1.412553e+03
2.981411e+03,1.424143e+03
2.982376e+03,1.384678e+03
2.983340e+03,1.379411e+03
2.984304e+03,1.384788e+03
2.985268e+03,1.376041e+03
2.986233e+03,1.371797e+03
2.987197e+03,1.386769e+03
2.988161e+03,1.383089e+03
2.989125e+03,1.368457e+03
2.990090e+03,1.374344e+03
2.991054e+03,1.378755e+03
2.992018e+03,1.362555e+03
2.992982e+03,1.351657e+03
2.993947e+03,1.358969e+03
2.994911e+03,1.362439e+03
2.995875e+03,1.368184e+03
2.996839e+03,1.387807e+03
2.997803e+03,1.390701e+03
2.998768e+03,1.357049e+03
2.999732e+03,1.339026e+03
3.000696e+03,1.348610e+03
3.001660e+03,1.367574e+03
3.002625e+03,1.378510e+03
3.003589e+03,1.366931e+03
3.004553e+03,1.350470e+03
3.005517e+03,1.338292e+03
3.006481e+03,1.336545e+03
3.007446e+03,1.343155e+03
3.008410e+03,1.355881e+03
3.009374e+03,1.364510e+03
3.010338e+03,1.364912e+03
3.011303e+03,1.366841e+03
3.012267e+03,1.370981e+03
3.013231e+03,1.353452e+03
3.014195e+03,1.331067e+03
3.015160e+03,1.333692e+03
3.016124e+03,1.346866e+03
3.017088e+03,1.362753e+03
3.018052e+03,1.363098e+03
3.019017e+03,1.348262e+03
3.019981e+03,1.358328e+03
3.020945e+03,1.368079e+03
3.021909e+03,1.354239e+03
3.022874e+03,1.340883e+03
3.023838e+03,1.333995e+03
3.024802e+03,1.347600e+03
3.025766e+03,1.364098e+03
3.026730e+03,1.319988e+03
3.027695e+03,1.300549e+03
3.028659e+03,1.343201e+03
3.029623e+03,1.368807e+03
3.030587e+03,1.368574e+03
3.031552e+03,1.344507e+03
3.032516e+03,1.322569e+03
3.033480e+03,1.344138e+03
3.034444e+03,1.355602e+03
3.035408e+03,1.348920e+03
3.036373e+03,1.342986e+03
3.037337e+03,1.340023e+03
3.038301e+03,1.349624e+03
3.039265e+03,1.351859e+03
3.040230e+03,1.324793e+03
3.041194e+03,1.310285e+03
3.042158e+03,1.312526e+03
3.043122e+03,1.340140e+03
3.044087e+03,1.368672e+03
3.045051e+03,1.362138e+03
3.046015e+03,1.348858e+03
3.046979e+03,1.335972e+03
3.047944e+03,1.324143e+03
3.048908e+03,1.324007e+03
3.049872e+03,1.353111e+03
3.050836e+03,1.371249e+03
3.051801e+03,1.348483e+03
3.052765e+03,1.326349e+03
3.053729e+03,1.311246e+03
3.054693e+03,1.313476e+03
3.055657e+03,1.323130e+03
3.056622e+03,1.330903e+03
3.057586e+03,1.335459e+03
3.058550e+03,1.337552e+03
3.059514e+03,1.330048e+03
3.060479e+03,1.319270e+03
3.061443e+03,1.307193e+03
3.062407e+03,1.311253e+03
3.063371e+03,1.332183e+03
3.064335e+03,1.327623e+03
3.065300e+03,1.307592e+03
3.066264e+03,1.339674e+03
3.067228e+03,1.366416e+03
3.068192e+03,1.345524e+03
3.069157e+03,1.334893e+03
3.070121e+03,1.341376e+03
3.071085e+03,1.370593e+03
3.072049e+03,1.391285e+03
3.073014e+03,1.332098e+03
3.073978e+03,1.315991e+03
3.074942e+03,1.365591e+03
3.075906e+03,1.348030e+03
3.076871e+03,1.305615e+03
3.077835e+03,1.309241e+03
3.078799e+03,1.333672e+03
3.079763e+03,1.373214e+03
3.080728e+03,1.362327e+03
3.081692e+03,1.314678e+03
3.082656e+03,1.294066e+03
3.083620e+03,1.282541e+03
3.084584e+03,1.267672e+03
3.085549e+03,1.282832e+03
3.086513e+03,1.331903e+03
3.087477e+03,1.338778e+03
3.088441e+03,1.331220e+03
3.089406e+03,1.343783e+03
3.090370e+03,1.349232e+03
3.091334e+03,1.343685e+03
3.092298e+03,1.326326e+03
3.093262e+03,1.307017e+03
3.094227e+03,1.304942e+03
3.095191e+03,1.305382e+03
3.096155e+03,1.303889e+03
3.097119e+03,1.303215e+03
3.098084e+03,1.298335e+03
3.099048e+03,1.269622e+03
3.100012e+03,1.263463e+03
3.100976e+03,1.328152e+03
3.101941e+03,1.360639e+03
3.102905e+03,1.352601e+03
3.103869e+03,1.335167e+03
3.104833e+03,1.316226e+03
3.105798e+03,1.301704e+03
3.106762e+03,1.291477e+03
3.107726e+03,1.286847e+03
3.108690e+03,1.301349e+03
3.109655e+03,1.316386e+03
3.110619e+03,1.306222e+03
3.111583e+03,1.300903e+03
3.112547e+03,1.304965e+03
3.113511e+03,1.304941e+03
3.114476e+03,1.302621e+03
3.115440e+03,1.302681e+03
3.116404e+03,1.308893e+03
3.117368e+03,1.328458e+03
3.118333e+03,1.320830e+03
3.119297e+03,1.307107e+03
3.120261e+03,1.327377e+03
3.121225e+03,1.333773e+03
3.122189e+03,1.298047e+03
3.123154e+03,1.292320e+03
3.124118e+03,1.310839e+03
3.125082e+03,1.304969e+03
3.126046e+03,1.300511e+03
3.127011e+03,1.309259e+03
3.127975e+03,1.311809e+03
3.128939e+03,1.309505e+03
3.129903e+03,1.333651e+03
3.130868e+03,1.347376e+03
3.131832e+03,1.292411e+03
3.132796e+03,1.285394e+03
3.133760e+03,1.320527e+03
3.134725e+03,1.316364e+03
3.135689e+03,1.303171e+03
3.136653e+03,1.312432e+03
3.137617e+03,1.321505e+03
3.138582e+03,1.324562e+03
3.139546e+03,1.328276e+03
3.140510e+03,1.331622e+03
3.141474e+03,1.340620e+03
3.142438e+03,1.329345e+03
3.143403e+03,1.299583e+03
3.144367e+03,1.282604e+03
3.145331e+03,1.275736e+03
3.146295e+03,1.275501e+03
3.147260e+03,1.281982e+03
3.148224e+03,1.292923e+03
3.149188e+03,1.303124e+03
3.150152e+03,1.297822e+03
3.151116e+03,1.252885e+03
3.152081e+03,1.247228e+03
3.153045e+03,1.312474e+03
3.154009e+03,1.330790e+03
3.154973e+03,1.320061e+03
3.155938e+03,1.328317e+03
3.156902e+03,1.333436e+03
3.157866e+03,1.327162e+03
3.158830e+03,1.316543e+03
3.159795e+03,1.307521e+03
3.160759e+03,1.303329e+03
3.161723e+03,1.299646e+03
3.162687e+03,1.295223e+03
3.163652e+03,1.297512e+03
3.164616e+03,1.310445e+03
3.165580e+03,1.341008e+03
3.166544e+03,1.350842e+03
3.167509e+03,1.328987e+03
3.168473e+03,1.324919e+03
3.169437e+03,1.334367e+03
3.170401e+03,1.324358e+03
3.171365e+03,1.312671e+03
3.172330e+03,1.307955e+03
3.173294e+03,1.290036e+03
3.174258e+03,1.275202e+03
3.175222e+03,1.300348e+03
3.176187e+03,1.321720e+03
3.177151e+03,1.314731e+03
3.178115e+03,1.291389e+03
3.179079e+03,1.271060e+03
3.180043e+03,1.313714e+03
3.181008e+03,1.339527e+03
3.181972e+03,1.323278e+03
3.182936e+03,1.329857e+03
3.183900e+03,1.349739e+03
3.184865e+03,1.327775e+03
3.185829e+03,1.308426e+03
3.186793e+03,1.330110e+03
3.187757e+03,1.341487e+03
3.188722e+03,1.334027e+03
3.189686e+03,1.284220e+03
3.190650e+03,1.272046e+03
3.191614e+03,1.319685e+03
3.192579e+03,1.315719e+03
3.193543e+03,1.282673e+03
3.194507e+03,1.342758e+03
3.195471e+03,1.384438e+03
3.196436e+03,1.357351e+03
3.197400e+03,1.320909e+03
3.198364e+03,1.299643e+03
3.199328e+03,1.325968e+03
3.200292e+03,1.348809e+03
3.201257e+03,0.000000e+00
3.202221e+03,0.000000e+00
3.203185e+03,0.000000e+00
3.204149e+03,0.000000e+00
3.205114e+03,0.000000e+00
3.206078e+03,0.000000e+00
3.207042e+03,0.000000e+00
3.208006e+03,0.000000e+00
3.208970e+03,0.000000e+00
3.209935e+03,0.000000e+00
3.210899e+03,0.000000e+00
3.211863e+03,0.000000e+00
3.212827e+03,0.000000e+00
3.213792e+03,0.000000e+00
3.214756e+03,0.000000e+00
3.215720e+03,0.000000e+00
3.216684e+03,0.000000e+00
3.217649e+03,0.000000e+00
3.218613e+03,0.000000e+00
3.219577e+03,0.000000e+00
3.220541e+03,0.000000e+00
3.221506e+03,0.000000e+00
3.222470e+03,0.000000e+00
3.223434e+03,0.000000e+00
3.224398e+03,0.000000e+00
3.225363e+03,0.000000e+00
3.226327e+03,0.000000e+00
3.227291e+03,0.000000e+00
3.228255e+03,0.000000e+00
3.229219e+03,0.000000e+00
3.230184e+03,0.000000e+00
3.231148e+03,0.000000e+00
3.232112e+03,0.000000e+00
3.233076e+03,0.000000e+00
3.234041e+03,0.000000e+00
3.235005e+03,0.000000e+00
3.235969e+03,0.000000e+00
3.236933e+03,0.000000e+00
3.237897e+03,0.000000e+00
3.238862e+03,0.000000e+00
3.239826e+03,0.000000e+00
3.240790e+03,0.000000e+00
3.241754e+03,0.000000e+00
3.242719e+03,0.000000e+00
3.243683e+03,0.000000e+00
3.244647e+03,0.000000e+00
3.245611e+03,0.000000e+00
3.246576e+03,0.000000e+00
3.247540e+03,0.000000e+00
3.248504e+03,0.000000e+00
3.249468e+03,0.000000e+00
3.250433e+03,0.000000e+00
3.251397e+03,0.000000e+00
3.252361e+03,0.000000e+00
3.253325e+03,0.000000e+00
3.254290e+03,0.000000e+00
3.255254e+03,0.000000e+00
3.256218e+03,0.000000e+00
3.257182e+03,0.000000e+00
3.258146e+03,0.000000e+00
3.259111e+03,0.000000e+00
3.260075e+03,0.000000e+00
3.261039e+03,0.000000e+00
3.262003e+03,0.000000e+00
3.262968e+03,0.000000e+00
3.263932e+03,0.000000e+00
3.264896e+03,0.000000e+00
3.265860e+03,0.000000e+00
3.266824e+03,0.000000e+00
3.267789e+03,0.000000e+00
3.268753e+03,0.000000e+00
3.269717e+03,0.000000e+00
3.270681e+03,0.000000e+00
3.271646e+03,0.000000e+00
3.272610e+03,0.000000e+00
3.273574e+03,0.000000e+00
3.274538e+03,0.000000e+00
3.275503e+03,0.000000e+00
3.276467e+03,0.000000e+00
3.277431e+03,0.000000e+00
3.278395e+03,0.000000e+00
3.279360e+03,0.000000e+00
3.280324e+03,0.000000e+00
3.281288e+03,0.000000e+00
3.282252e+03,0.000000e+00
3.283217e+03,0.000000e+00
3.284181e+03,0.000000e+00
3.285145e+03,0.000000e+00
3.286109e+03,0.000000e+00
3.287073e+03,0.000000e+00
3.288038e+03,0.000000e+00
3.289002e+03,0.000000e+00
3.289966e+03,0.000000e+00
3.290930e+03,0.000000e+00
3.291895e+03,0.000000e+00
3.292859e+03,0.000000e+00
3.293823e+03,0.000000e+00
3.294787e+03,0.000000e+00
3.295751e+03,0.000000e+00
3.296716e+03,0.000000e+00
3.297680e+03,0.000000e+00
3.298644e+03,0.000000e+00
3.299608e+03,0.000000e+00
3.300573e+03,0.000000e+00
3.301537e+03,0.000000e+00
3.302501e+03,0.000000e+00
3.303465e+03,0.000000e+00
3.304430e+03,0.000000e+00
3.305394e+03,0.000000e+00
3.306358e+03,0.000000e+00
3.307322e+03,0.000000e+00
3.308287e+03,0.000000e+00
3.309251e+03,0.000000e+00
3.310215e+03,0.000000e+00
3.311179e+03,0.000000e+00
3.312144e+03,0.000000e+00
3.313108e+03,0.000000e+00
3.314072e+03,0.000000e+00
3.315036e+03,0.000000e+00
3.316000e+03,0.000000e+00
3.316965e+03,0.000000e+00
3.317929e+03,0.000000e+00
3.318893e+03,0.000000e+00
3.319857e+03,0.000000e+00
3.320822e+03,0.000000e+00
3.321786e+03,0.000000e+00
3.322750e+03,0.000000e+00
3.323714e+03,0.000000e+00
3.324678e+03,0.000000e+00
3.325643e+03,0.000000e+00
3.326607e+03,0.000000e+00
3.327571e+03,0.000000e+00
3.328535e+03,0.000000e+00
3.329500e+03,0.000000e+00
3.330464e+03,0.000000e+00
3.331428e+03,0.000000e+00
3.332392e+03,0.000000e+00
3.333357e+03,0.000000e+00
3.334321e+03,0.000000e+00
3.335285e+03,0.000000e+00
3.336249e+03,0.000000e+00
3.337214e+03,0.000000e+00
3.338178e+03,0.000000e+00
3.339142e+03,0.000000e+00
3.340106e+03,0.000000e+00
3.341071e+03,0.000000e+00
3.342035e+03,0.000000e+00
3.342999e+03,0.000000e+00
3.343963e+03,0.000000e+00
3.344927e+03,0.000000e+00
3.345892e+03,0.000000e+00
3.346856e+03,0.000000e+00
3.347820e+03,0.000000e+00
3.348784e+03,0.000000e+00
3.349749e+03,0.000000e+00
3.350713e+03,0.000000e+00
3.351677e+03,0.000000e+00
3.352641e+03,0.000000e+00
3.353605e+03,0.000000e+00
3.354570e+03,0.000000e+00
3.355534e+03,0.000000e+00
3.356498e+03,0.000000e+00
3.357462e+03,0.000000e+00
3.358427e+03,0.000000e+00
3.359391e+03,0.000000e+00
3.360355e+03,0.000000e+00
3.361319e+03,0.000000e+00
3.362284e+03,0.000000e+00
3.363248e+03,0.000000e+00
3.364212e+03,0.000000e+00
3.365176e+03,0.000000e+00
3.366141e+03,0.000000e+00
3.367105e+03,0.000000e+00
3.368069e+03,0.000000e+00
3.369033e+03,0.000000e+00
3.369998e+03,0.000000e+00
3.370962e+03,0.000000e+00
3.371926e+03,0.000000e+00
3.372890e+03,0.000000e+00
3.373854e+03,0.000000e+00
3.374819e+03,0.000000e+00
3.375783e+03,0.000000e+00
3.376747e+03,0.000000e+00
3.377711e+03,0.000000e+00
3.378676e+03,0.000000e+00
3.379640e+03,0.000000e+00
3.380604e+03,0.000000e+00
3.381568e+03,0.000000e+00
3.382532e+03,0.000000e+00
3.383497e+03,0.000000e+00
3.384461e+03,0.000000e+00
3.385425e+03,0.000000e+00
3.386389e+03,0.000000e+00
3.387354e+03,0.000000e+00
3.388318e+03,0.000000e+00
3.389282e+03,0.000000e+00
3.390246e+03,0.000000e+00
3.391211e+03,0.000000e+00
3.392175e+03,0.000000e+00
3.393139e+03,0.000000e+00
3.394103e+03,0.000000e+00
3.395068e+03,0.000000e+00
3.396032e+03,0.000000e+00
3.396996e+03,0.000000e+00
3.397960e+03,0.000000e+00
3.398925e+03,0.000000e+00
3.399889e+03,0.000000e+00
3.400853e+03,0.000000e+00
3.401817e+03,0.000000e+00
3.402781e+03,0.000000e+00
3.403746e+03,0.000000e+00
3.404710e+03,0.000000e+00
3.405674e+03,0.000000e+00
3.406638e+03,0.000000e+00
3.407603e+03,0.000000e+00
3.408567e+03,0.000000e+00
3.409531e+03,0.000000e+00
3.410495e+03,0.000000e+00
3.411459e+03,0.000000e+00
3.412424e+03,0.000000e+00
3.413388e+03,0.000000e+00
3.414352e+03,0.000000e+00
3.415316e+03,0.000000e+00
3.416281e+03,0.000000e+00
3.417245e+03,0.000000e+00
3.418209e+03,0.000000e+00
3.419173e+03,0.000000e+00
3.420138e+03,0.000000e+00
3.421102e+03,0.000000e+00
3.422066e+03,0.000000e+00
3.423030e+03,0.000000e+00
3.423995e+03,0.000000e+00
3.424959e+03,0.000000e+00
3.425923e+03,0.000000e+00
3.426887e+03,0.000000e+00
3.427852e+03,0.000000e+00
3.428816e+03,0.000000e+00
3.429780e+03,0.000000e+00
3.430744e+03,0.000000e+00
3.431708e+03,0.000000e+00
3.432673e+03,0.000000e+00
3.433637e+03,0.000000e+00
3.434601e+03,0.000000e+00
3.435565e+03,0.000000e+00
3.436530e+03,0.000000e+00
3.437494e+03,0.000000e+00
3.438458e+03,0.000000e+00
3.439422e+03,0.000000e+00
3.440386e+03,0.000000e+00
3.441351e+03,0.000000e+00
3.442315e+03,0.000000e+00
3.443279e+03,0.000000e+00
3.444243e+03,0.000000e+00
3.445208e+03,0.000000e+00
3.446172e+03,0.000000e+00
3.447136e+03,0.000000e+00
3.448100e+03,0.000000e+00
3.449065e+03,0.000000e+00
3.450029e+03,0.000000e+00
3.450993e+03,0.000000e+00
3.451957e+03,0.000000e+00
3.452922e+03,0.000000e+00
3.453886e+03,0.000000e+00
3.454850e+03,0.000000e+00
3.455814e+03,0.000000e+00
3.456779e+03,0.000000e+00
3.457743e+03,0.000000e+00
3.458707e+03,0.000000e+00
3.459671e+03,0.000000e+00
3.460635e+03,0.000000e+00
3.461600e+03,0.000000e+00
3.462564e+03,0.000000e+00
3.463528e+03,0.000000e+00
3.464492e+03,0.000000e+00
3.465457e+03,0.000000e+00
3.466421e+03,0.000000e+00
3.467385e+03,0.000000e+00
3.468349e+03,0.000000e+00
3.469313e+03,0.000000e+00
3.470278e+03,0.000000e+00
3.471242e+03,0.000000e+00
3.472206e+03,0.000000e+00
3.473170e+03,0.000000e+00
3.474135e+03,0.000000e+00
3.475099e+03,0.000000e+00
3.476063e+03,0.000000e+00
3.477027e+03,0.000000e+00
3.477992e+03,0.000000e+00
3.478956e+03,0.000000e+00
3.479920e+03,0.000000e+00
3.480884e+03,0.000000e+00
3.481849e+03,0.000000e+00
3.482813e+03,0.000000e+00
3.483777e+03,0.000000e+00
3.484741e+03,0.000000e+00
3.485706e+03,0.000000e+00
3.486670e+03,0.000000e+00
3.487634e+03,0.000000e+00
3.488598e+03,0.000000e+00
3.489563e+03,0.000000e+00
3.490527e+03,0.000000e+00
3.491491e+03,0.000000e+00
3.492455e+03,0.000000e+00
3.493419e+03,0.000000e+00
3.494384e+03,0.000000e+00
3.495348e+03,0.000000e+00
3.496312e+03,0.000000e+00
3.497276e+03,0.000000e+00
3.498240e+03,0.000000e+00
3.499205e+03,0.000000e+00
3.500169e+03,0.000000e+00
