9.931763e+01,0.000000e+00
1.002819e+02,0.000000e+00
1.012461e+02,0.000000e+00
1.022103e+02,0.000000e+00
1.031746e+02,0.000000e+00
1.041388e+02,0.000000e+00
1.051030e+02,0.000000e+00
1.060673e+02,0.000000e+00
1.070315e+02,0.000000e+00
1.079957e+02,0.000000e+00
1.089600e+02,0.000000e+00
1.099242e+02,0.000000e+00
1.108884e+02,0.000000e+00
1.118527e+02,0.000000e+00
1.128169e+02,0.000000e+00
1.137811e+02,0.000000e+00
1.147454e+02,0.000000e+00
1.157096e+02,0.000000e+00
1.166738e+02,0.000000e+00
1.176381e+02,0.000000e+00
1.186023e+02,0.000000e+00
1.195665e+02,0.000000e+00
1.205308e+02,0.000000e+00
1.214950e+02,0.000000e+00
1.224592e+02,0.000000e+00
1.234235e+02,0.000000e+00
1.243877e+02,0.000000e+00
1.253519e+02,0.000000e+00
1.263162e+02,0.000000e+00
1.272804e+02,0.000000e+00
1.282446e+02,0.000000e+00
1.292089e+02,0.000000e+00
1.301731e+02,0.000000e+00
1.311373e+02,0.000000e+00
1.321016e+02,0.000000e+00
1.330658e+02,0.000000e+00
1.340300e+02,0.000000e+00
1.349943e+02,0.000000e+00
1.359585e+02,0.000000e+00
1.369227e+02,0.000000e+00
1.378870e+02,0.000000e+00
1.388512e+02,0.000000e+00
1.398154e+02,0.000000e+00
1.407797e+02,0.000000e+00
1.417439e+02,0.000000e+00
1.427081e+02,0.000000e+00
1.436724e+02,0.000000e+00
1.446366e+02,0.000000e+00
1.456008e+02,0.000000e+00
1.465651e+02,0.000000e+00
1.475293e+02,0.000000e+00
1.484935e+02,0.000000e+00
1.494578e+02,0.000000e+00
1.504220e+02,0.000000e+00
1.513862e+02,0.000000e+00
1.523505e+02,0.000000e+00
1.533147e+02,0.000000e+00
1.542789e+02,0.000000e+00
1.552432e+02,0.000000e+00
1.562074e+02,0.000000e+00
1.571716e+02,0.000000e+00
1.581359e+02,0.000000e+00
1.591001e+02,0.000000e+00
1.600643e+02,0.000000e+00
1.610286e+02,0.000000e+00
1.619928e+02,0.000000e+00
1.629570e+02,0.000000e+00
1.639213e+02,0.000000e+00
1.648855e+02,0.000000e+00
1.658497e+02,0.000000e+00
1.668140e+02,0.000000e+00
1.677782e+02,0.000000e+00
1.687424e+02,0.000000e+00
1.697067e+02,0.000000e+00
1.706709e+02,0.000000e+00
1.716351e+02,0.000000e+00
1.725994e+02,0.000000e+00
1.735636e+02,0.000000e+00
1.745278e+02,0.000000e+00
1.754921e+02,0.000000e+00
1.764563e+02,0.000000e+00
1.774205e+02,0.000000e+00
1.783848e+02,0.000000e+00
1.793490e+02,0.000000e+00
1.803132e+02,0.000000e+00
1.812775e+02,0.000000e+00
1.822417e+02,0.000000e+00
1.832059e+02,0.000000e+00
1.841702e+02,0.000000e+00
1.851344e+02,0.000000e+00
1.860986e+02,0.000000e+00
1.870629e+02,0.000000e+00
1.880271e+02,0.000000e+00
1.889913e+02,0.000000e+00
1.899556e+02,0.000000e+00
1.909198e+02,0.000000e+00
1.918840e+02,0.000000e+00
1.928483e+02,0.000000e+00
1.938125e+02,0.000000e+00
1.947767e+02,0.000000e+00
1.957410e+02,0.000000e+00
1.967052e+02,0.000000e+00
1.976694e+02,0.000000e+00
1.986337e+02,0.000000e+00
1.995979e+02,8.393054e+03
2.005621e+02,8.383921e+03
2.015264e+02,8.380580e+03
2.024906e+02,8.389339e+03
2.034548e+02,8.398667e+03
2.044191e+02,8.406356e+03
2.053833e+02,8.409921e+03
2.063475e+02,8.407107e+03
2.073118e+02,8.393935e+03
2.082760e+02,8.365129e+03
2.092402e+02,8.342670e+03
2.102045e+02,8.336634e+03
2.111687e+02,8.338299e+03
2.121329e+02,8.340677e+03
2.130972e+02,8.339321e+03
2.140614e+02,8.333915e+03
2.150256e+02,8.327139e+03
2.159899e+02,8.319237e+03
2.169541e+02,8.311661e+03
2.179183e+02,8.304712e+03
2.188826e+02,8.298285e+03
2.198468e+02,8.294838e+03
2.208110e+02,8.299842e+03
2.217753e+02,8.311766e+03
2.227395e+02,8.312197e+03
2.237037e+02,8.293342e+03
2.246680e+02,8.269423e+03
2.256322e+02,8.251981e+03
2.265964e+02,8.247928e+03
2.275607e+02,8.250536e+03
2.285249e+02,8.252136e+03
2.294892e+02,8.252599e+03
2.304534e+02,8.253733e+03
2.314176e+02,8.252850e+03
2.323819e+02,8.248880e+03
2.333461e+02,8.243107e+03
2.343103e+02,8.236128e+03
2.352746e+02,8.229608e+03
2.362388e+02,8.225188e+03
2.372030e+02,8.222257e+03
2.381673e+02,8.216091e+03
2.391315e+02,8.203319e+03
2.400957e+02,8.183757e+03
2.410600e+02,8.166266e+03
2.420242e+02,8.156522e+03
2.429884e+02,8.155211e+03
2.439527e+02,8.159008e+03
2.449169e+02,8.163752e+03
2.458811e+02,8.168038e+03
2.468454e+02,8.170693e+03
2.478096e+02,8.175338e+03
2.487738e+02,8.176514e+03
2.497381e+02,8.168162e+03
2.507023e+02,8.149619e+03
2.516665e+02,8.127500e+03
2.526308e+02,8.111610e+03
2.535950e+02,8.101763e+03
2.545592e+02,8.092091e+03
2.555235e+02,8.085459e+03
2.564877e+02,8.080439e+03
2.574519e+02,8.076345e+03
2.584161e+02,8.074328e+03
2.593804e+02,8.075045e+03
2.603446e+02,8.072972e+03
2.613088e+02,8.056942e+03
2.622731e+02,8.043005e+03
2.632373e+02,8.036752e+03
2.642015e+02,8.035825e+03
2.651658e+02,8.034578e+03
2.661300e+02,8.029736e+03
2.670942e+02,8.023184e+03
2.680585e+02,8.017550e+03
2.690227e+02,8.014384e+03
2.699869e+02,8.011161e+03
2.709512e+02,8.005782e+03
2.719154e+02,8.000796e+03
2.728796e+02,7.994963e+03
2.738439e+02,7.983971e+03
2.748081e+02,7.967060e+03
2.757723e+02,7.956636e+03
2.767366e+02,7.958704e+03
2.777008e+02,7.966546e+03
2.786650e+02,7.968550e+03
2.796293e+02,7.962085e+03
2.805935e+02,7.950755e+03
2.815577e+02,7.936799e+03
2.825220e+02,7.917867e+03
2.834862e+02,7.898503e+03
2.844504e+02,7.890161e+03
2.854147e+02,7.906356e+03
2.863789e+02,7.915624e+03
2.873431e+02,7.906837e+03
2.883074e+02,7.887055e+03
2.892716e+02,7.868026e+03
2.902358e+02,7.854361e+03
2.912001e+02,7.845037e+03
2.921643e+02,7.838563e+03
2.931285e+02,7.839517e+03
2.940928e+02,7.842086e+03
2.950570e+02,7.842898e+03
2.960212e+02,7.840400e+03
2.969855e+02,7.835185e+03
2.979497e+02,7.830589e+03
2.989139e+02,7.831960e+03
2.998782e+02,7.824888e+03
3.008424e+02,7.805470e+03
3.018066e+02,7.784828e+03
3.027709e+02,7.768022e+03
3.037351e+02,7.755385e+03
3.046993e+02,7.746269e+03
3.056636e+02,7.743068e+03
3.066278e+02,7.751061e+03
3.075920e+02,7.756375e+03
3.085563e+02,7.748927e+03
3.095205e+02,7.735432e+03
3.104847e+02,7.727837e+03
3.114490e+02,7.733233e+03
3.124132e+02,7.744551e+03
3.133774e+02,7.749518e+03
3.143417e+02,7.745563e+03
3.153059e+02,7.734463e+03
3.162701e+02,7.720989e+03
3.172344e+02,7.707625e+03
3.181986e+02,7.693468e+03
3.191628e+02,7.676363e+03
3.201271e+02,7.658913e+03
3.210913e+02,7.645503e+03
3.220555e+02,7.637677e+03
3.230198e+02,7.634415e+03
3.239840e+02,7.632560e+03
3.249482e+02,7.636055e+03
3.259125e+02,7.636136e+03
3.268767e+02,7.626147e+03
3.278409e+02,7.609795e+03
3.288052e+02,7.596841e+03
3.297694e+02,7.598250e+03
3.307336e+02,7.618406e+03
3.316979e+02,7.627891e+03
3.326621e+02,7.618043e+03
3.336263e+02,7.601328e+03
3.345906e+02,7.583431e+03
3.355548e+02,7.567701e+03
3.365190e+02,7.555237e+03
3.374833e+02,7.545351e+03
3.384475e+02,7.537296e+03
3.394117e+02,7.532749e+03
3.403760e+02,7.532162e+03
3.413402e+02,7.533180e+03
3.423044e+02,7.532441e+03
3.432687e+02,7.525907e+03
3.442329e+02,7.518831e+03
3.451971e+02,7.516821e+03
3.461614e+02,7.518024e+03
3.471256e+02,7.513149e+03
3.480898e+02,7.495474e+03
3.490541e+02,7.460389e+03
3.500183e+02,7.437458e+03
3.509825e+02,7.437576e+03
3.519468e+02,7.447125e+03
3.529110e+02,7.454681e+03
3.538752e+02,7.455711e+03
3.548395e+02,7.451113e+03
3.558037e+02,7.444327e+03
3.567680e+02,7.433923e+03
3.577322e+02,7.424175e+03
3.586964e+02,7.418292e+03
3.596607e+02,7.415572e+03
3.606249e+02,7.413112e+03
3.615891e+02,7.406594e+03
3.625534e+02,7.395112e+03
3.635176e+02,7.381695e+03
3.644818e+02,7.368085e+03
3.654461e+02,7.356208e+03
3.664103e+02,7.351864e+03
3.673745e+02,7.356818e+03
3.683388e+02,7.362295e+03
3.693030e+02,7.359905e+03
3.702672e+02,7.352580e+03
3.712315e+02,7.346677e+03
3.721957e+02,7.343022e+03
3.731599e+02,7.338922e+03
3.741242e+02,7.332802e+03
3.750884e+02,7.328377e+03
3.760526e+02,7.325127e+03
3.770169e+02,7.323170e+03
3.779811e+02,7.320540e+03
3.789453e+02,7.314497e+03
3.799096e+02,7.303067e+03
3.808738e+02,7.286749e+03
3.818380e+02,7.269104e+03
3.828023e+02,7.249397e+03
3.837665e+02,7.236456e+03
3.847307e+02,7.232958e+03
3.856950e+02,7.236585e+03
3.866592e+02,7.241727e+03
3.876234e+02,7.246831e+03
3.885877e+02,7.250605e+03
3.895519e+02,7.249133e+03
3.905161e+02,7.239939e+03
3.914804e+02,7.227058e+03
3.924446e+02,7.216058e+03
3.934088e+02,7.209624e+03
3.943731e+02,7.201554e+03
3.953373e+02,7.187003e+03
3.963015e+02,7.169992e+03
3.972658e+02,7.157019e+03
3.982300e+02,7.151596e+03
3.991942e+02,7.152930e+03
4.001585e+02,7.152939e+03
4.011227e+02,7.144881e+03
4.020869e+02,7.137743e+03
4.030512e+02,7.130453e+03
4.040154e+02,7.122216e+03
4.049796e+02,7.114113e+03
4.059439e+02,7.106603e+03
4.069081e+02,7.099419e+03
4.078723e+02,7.092045e+03
4.088366e+02,7.081821e+03
4.098008e+02,7.070787e+03
4.107650e+02,7.064396e+03
4.117293e+02,7.063009e+03
4.126935e+02,7.062859e+03
4.136577e+02,7.065166e+03
4.146220e+02,7.067041e+03
4.155862e+02,7.063619e+03
4.165504e+02,7.053725e+03
4.175147e+02,7.041204e+03
4.184789e+02,7.031760e+03
4.194431e+02,7.027623e+03
4.204074e+02,7.023531e+03
4.213716e+02,7.022478e+03
4.223358e+02,7.020166e+03
4.233001e+02,7.010312e+03
4.242643e+02,6.988704e+03
4.252285e+02,6.963746e+03
4.261928e+02,6.956046e+03
4.271570e+02,6.974151e+03
4.281212e+02,6.992174e+03
4.290855e+02,6.998458e+03
4.300497e+02,6.995318e+03
4.310139e+02,6.988157e+03
4.319782e+02,6.977156e+03
4.329424e+02,6.965313e+03
4.339066e+02,6.953740e+03
4.348709e+02,6.941653e+03
4.358351e+02,6.931884e+03
4.367993e+02,6.928711e+03
4.377636e+02,6.938850e+03
4.387278e+02,6.938636e+03
4.396920e+02,6.920664e+03
4.406563e+02,6.899499e+03
4.416205e+02,6.884099e+03
4.425847e+02,6.876439e+03
4.435490e+02,6.873031e+03
4.445132e+02,6.870729e+03
4.454774e+02,6.870928e+03
4.464417e+02,6.870705e+03
4.474059e+02,6.867623e+03
4.483701e+02,6.862061e+03
4.493344e+02,6.855888e+03
4.502986e+02,6.850979e+03
4.512628e+02,6.846679e+03
4.522271e+02,6.842429e+03
4.531913e+02,6.838175e+03
4.541555e+02,6.833627e+03
4.551198e+02,6.828421e+03
4.560840e+02,6.822910e+03
4.570482e+02,6.814275e+03
4.580125e+02,6.801985e+03
4.589767e+02,6.793043e+03
4.599409e+02,6.787973e+03
4.609052e+02,6.784702e+03
4.618694e+02,6.781331e+03
4.628336e+02,6.779117e+03
4.637979e+02,6.777926e+03
4.647621e+02,6.771880e+03
4.657263e+02,6.761385e+03
4.666906e+02,6.749438e+03
4.676548e+02,6.734605e+03
4.686190e+02,6.713117e+03
4.695833e+02,6.696839e+03
4.705475e+02,6.690792e+03
4.715117e+02,6.690897e+03
4.724760e+02,6.693169e+03
4.734402e+02,6.697051e+03
4.744044e+02,6.701002e+03
4.753687e+02,6.700675e+03
4.763329e+02,6.694727e+03
4.772971e+02,6.686524e+03
4.782614e+02,6.671921e+03
4.792256e+02,6.657413e+03
4.801898e+02,6.650995e+03
4.811541e+02,6.659670e+03
4.821183e+02,6.673361e+03
4.830826e+02,6.677492e+03
4.840468e+02,6.671028e+03
4.850110e+02,6.662109e+03
4.859753e+02,6.656649e+03
4.869395e+02,6.654546e+03
4.879037e+02,6.649753e+03
4.888680e+02,6.640877e+03
4.898322e+02,6.632010e+03
4.907964e+02,6.626297e+03
4.917607e+02,6.623742e+03
4.927249e+02,6.621614e+03
4.936891e+02,6.616588e+03
4.946534e+02,6.608199e+03
4.956176e+02,6.601127e+03
4.965818e+02,6.596556e+03
4.975461e+02,6.593119e+03
4.985103e+02,6.588991e+03
4.994745e+02,6.582899e+03
5.004388e+02,6.574723e+03
5.014030e+02,6.566123e+03
5.023672e+02,6.557333e+03
5.033315e+02,6.546554e+03
5.042957e+02,6.532444e+03
5.052599e+02,6.517253e+03
5.062242e+02,6.508414e+03
5.071884e+02,6.515356e+03
5.081526e+02,6.516974e+03
5.091169e+02,6.508314e+03
5.100811e+02,6.496146e+03
5.110453e+02,6.486778e+03
5.120095e+02,6.483834e+03
5.129738e+02,6.484978e+03
5.139380e+02,6.487865e+03
5.149022e+02,6.492677e+03
5.158665e+02,6.497388e+03
5.168307e+02,6.499456e+03
5.177949e+02,6.495592e+03
5.187592e+02,6.484682e+03
5.197234e+02,6.470591e+03
5.206876e+02,6.456678e+03
5.216519e+02,6.443301e+03
5.226161e+02,6.431375e+03
5.235803e+02,6.421842e+03
5.245446e+02,6.416128e+03
5.255088e+02,6.413581e+03
5.264730e+02,6.409503e+03
5.274373e+02,6.402472e+03
5.284015e+02,6.396072e+03
5.293657e+02,6.394397e+03
5.303300e+02,6.399302e+03
5.312942e+02,6.396472e+03
5.322584e+02,6.378084e+03
5.332227e+02,6.357945e+03
5.341869e+02,6.349157e+03
5.351511e+02,6.352833e+03
5.361154e+02,6.358904e+03
5.370796e+02,6.353808e+03
5.380438e+02,6.334493e+03
5.390081e+02,6.320271e+03
5.399723e+02,6.317505e+03
5.409365e+02,6.319866e+03
5.419008e+02,6.319520e+03
5.428650e+02,6.312075e+03
5.438292e+02,6.304448e+03
5.447935e+02,6.303422e+03
5.457577e+02,6.305179e+03
5.467219e+02,6.300722e+03
5.476862e+02,6.285675e+03
5.486504e+02,6.264483e+03
5.496146e+02,6.251288e+03
5.505789e+02,6.251748e+03
5.515431e+02,6.251016e+03
5.525073e+02,6.247830e+03
5.534716e+02,6.245269e+03
5.544358e+02,6.244490e+03
5.554000e+02,6.242807e+03
5.563643e+02,6.241366e+03
5.573285e+02,6.243291e+03
5.582927e+02,6.247098e+03
5.592570e+02,6.246667e+03
5.602212e+02,6.237817e+03
5.611854e+02,6.220175e+03
5.621497e+02,6.209389e+03
5.631139e+02,6.211808e+03
5.640781e+02,6.212346e+03
5.650424e+02,6.210154e+03
5.660066e+02,6.205009e+03
5.669708e+02,6.195583e+03
5.679351e+02,6.177920e+03
5.688993e+02,6.157556e+03
5.698635e+02,6.144196e+03
5.708278e+02,6.139304e+03
5.717920e+02,6.139216e+03
5.727562e+02,6.139061e+03
5.737205e+02,6.136063e+03
5.746847e+02,6.137379e+03
5.756489e+02,6.148969e+03
5.766132e+02,6.158158e+03
5.775774e+02,6.157420e+03
5.785416e+02,6.146382e+03
5.795059e+02,6.133269e+03
5.804701e+02,6.124859e+03
5.814343e+02,6.119511e+03
5.823986e+02,6.111282e+03
5.833628e+02,6.098563e+03
5.843270e+02,6.086042e+03
5.852913e+02,6.079704e+03
5.862555e+02,6.086521e+03
5.872197e+02,6.089135e+03
5.881840e+02,6.084557e+03
5.891482e+02,6.076478e+03
5.901124e+02,6.067962e+03
5.910767e+02,6.059898e+03
5.920409e+02,6.051521e+03
5.930051e+02,6.039939e+03
5.939694e+02,6.025724e+03
5.949336e+02,6.015428e+03
5.958978e+02,6.011891e+03
5.968621e+02,6.012547e+03
5.978263e+02,6.011870e+03
5.987905e+02,6.011519e+03
5.997548e+02,6.009560e+03
6.007190e+02,6.003968e+03
6.016832e+02,5.998554e+03
6.026475e+02,5.996834e+03
6.036117e+02,6.000085e+03
6.045759e+02,6.004170e+03
6.055402e+02,6.004333e+03
6.065044e+02,6.000019e+03
6.074686e+02,5.993626e+03
6.084329e+02,5.987571e+03
6.093971e+02,5.981837e+03
6.103613e+02,5.973399e+03
6.113256e+02,5.957220e+03
6.122899e+02,5.944399e+03
6.132541e+02,5.938258e+03
6.142183e+02,5.936376e+03
6.151826e+02,5.935052e+03
6.161468e+02,5.936133e+03
6.171110e+02,5.937250e+03
6.180753e+02,5.932486e+03
6.190395e+02,5.922023e+03
6.200037e+02,5.913057e+03
6.209680e+02,5.910784e+03
6.219322e+02,5.915357e+03
6.228964e+02,5.912763e+03
6.238607e+02,5.889652e+03
6.248249e+02,5.872615e+03
6.257891e+02,5.873155e+03
6.267534e+02,5.884341e+03
6.277176e+02,5.889078e+03
6.286818e+02,5.878143e+03
6.296461e+02,5.861714e+03
6.306103e+02,5.849896e+03
6.315745e+02,5.843105e+03
6.325388e+02,5.837874e+03
6.335030e+02,5.829831e+03
6.344672e+02,5.817773e+03
6.354315e+02,5.812113e+03
6.363957e+02,5.816793e+03
6.373599e+02,5.820610e+03
6.383242e+02,5.819708e+03
6.392884e+02,5.815123e+03
6.402526e+02,5.809514e+03
6.412169e+02,5.801254e+03
6.421811e+02,5.793415e+03
6.431453e+02,5.789774e+03
6.441096e+02,5.789992e+03
6.450738e+02,5.790560e+03
6.460380e+02,5.789756e+03
6.470023e+02,5.788857e+03
6.479665e+02,5.785557e+03
6.489307e+02,5.776327e+03
6.498950e+02,5.766344e+03
6.508592e+02,5.759014e+03
6.518234e+02,5.753624e+03
6.527877e+02,5.748604e+03
6.537519e+02,5.746213e+03
6.547161e+02,5.743318e+03
6.556804e+02,5.737860e+03
6.566446e+02,5.729882e+03
6.576088e+02,5.720125e+03
6.585731e+02,5.706094e+03
6.595373e+02,5.689523e+03
6.605015e+02,5.681976e+03
6.614658e+02,5.686489e+03
6.624300e+02,5.695103e+03
6.633942e+02,5.700670e+03
6.643585e+02,5.703122e+03
6.653227e+02,5.701233e+03
6.662869e+02,5.687357e+03
6.672512e+02,5.673332e+03
6.682154e+02,5.668110e+03
6.691796e+02,5.671993e+03
6.701439e+02,5.675444e+03
6.711081e+02,5.670604e+03
6.720723e+02,5.661008e+03
6.730366e+02,5.655344e+03
6.740008e+02,5.655903e+03
6.749650e+02,5.657016e+03
6.759293e+02,5.651288e+03
6.768935e+02,5.636042e+03
6.778577e+02,5.624276e+03
6.788220e+02,5.617819e+03
6.797862e+02,5.616906e+03
6.807504e+02,5.621581e+03
6.817147e+02,5.632186e+03
6.826789e+02,5.636856e+03
6.836431e+02,5.624475e+03
6.846074e+02,5.604942e+03
6.855716e+02,5.590966e+03
6.865358e+02,5.585826e+03
6.875001e+02,5.583751e+03
6.884643e+02,5.576828e+03
6.894285e+02,5.565356e+03
6.903928e+02,5.558352e+03
6.913570e+02,5.557536e+03
6.923212e+02,5.558690e+03
6.932855e+02,5.558286e+03
6.942497e+02,5.558788e+03
6.952139e+02,5.557397e+03
6.961782e+02,5.549374e+03
6.971424e+02,5.541224e+03
6.981066e+02,5.536901e+03
6.990709e+02,5.535142e+03
7.000351e+02,5.531919e+03
7.009993e+02,5.526616e+03
7.019636e+02,5.521604e+03
7.029278e+02,5.518924e+03
7.038920e+02,5.518532e+03
7.048563e+02,5.518176e+03
7.058205e+02,5.517558e+03
7.067847e+02,5.520817e+03
7.077490e+02,5.517028e+03
7.087132e+02,5.502345e+03
7.096774e+02,5.488327e+03
7.106417e+02,5.479396e+03
7.116059e+02,5.475111e+03
7.125701e+02,5.472417e+03
7.135344e+02,5.475124e+03
7.144986e+02,5.478399e+03
7.154628e+02,5.475028e+03
7.164271e+02,5.463804e+03
7.173913e+02,5.452368e+03
7.183555e+02,5.449283e+03
7.193198e+02,5.452724e+03
7.202840e+02,5.454435e+03
7.212482e+02,5.453872e+03
7.222125e+02,5.453857e+03
7.231767e+02,5.457335e+03
7.241409e+02,5.467017e+03
7.251052e+02,5.468057e+03
7.260694e+02,5.450696e+03
7.270336e+02,5.431897e+03
7.279979e+02,5.422585e+03
7.289621e+02,5.423754e+03
7.299263e+02,5.425653e+03
7.308906e+02,5.425087e+03
7.318548e+02,5.421639e+03
7.328190e+02,5.414124e+03
7.337833e+02,5.403048e+03
7.347475e+02,5.392403e+03
7.357117e+02,5.389920e+03
7.366760e+02,5.395112e+03
7.376402e+02,5.390561e+03
7.386044e+02,5.372692e+03
7.395687e+02,5.353655e+03
7.405329e+02,5.342532e+03
7.414971e+02,5.340882e+03
7.424614e+02,5.338992e+03
7.434256e+02,5.342450e+03
7.443898e+02,5.346243e+03
7.453541e+02,5.343534e+03
7.463183e+02,5.332564e+03
7.472825e+02,5.323093e+03
7.482468e+02,5.325636e+03
7.492110e+02,5.329227e+03
7.501752e+02,5.320680e+03
7.511395e+02,5.303513e+03
7.521037e+02,5.291767e+03
7.530679e+02,5.299703e+03
7.540322e+02,5.321896e+03
7.549964e+02,5.325052e+03
7.559606e+02,5.304907e+03
7.569249e+02,5.284763e+03
7.578891e+02,5.280168e+03
7.588533e+02,5.292705e+03
7.598176e+02,5.301227e+03
7.607818e+02,5.298240e+03
7.617460e+02,5.290263e+03
7.627103e+02,5.280748e+03
7.636745e+02,5.271947e+03
7.646387e+02,5.263864e+03
7.656030e+02,5.253723e+03
7.665672e+02,5.245936e+03
7.675314e+02,5.241500e+03
7.684957e+02,5.237741e+03
7.694599e+02,5.235515e+03
7.704241e+02,5.241417e+03
7.713884e+02,5.251516e+03
7.723526e+02,5.246046e+03
7.733168e+02,5.223897e+03
7.742811e+02,5.207850e+03
7.752453e+02,5.206674e+03
7.762095e+02,5.216017e+03
7.771738e+02,5.221268e+03
7.781380e+02,5.215882e+03
7.791022e+02,5.210413e+03
7.800665e+02,5.211537e+03
7.810307e+02,5.215489e+03
7.819949e+02,5.215451e+03
7.829592e+02,5.210367e+03
7.839234e+02,5.203937e+03
7.848876e+02,5.194119e+03
7.858519e+02,5.183176e+03
7.868161e+02,5.176378e+03
7.877803e+02,5.177046e+03
7.887446e+02,5.179102e+03
7.897088e+02,5.173388e+03
7.906730e+02,5.163102e+03
7.916373e+02,5.159550e+03
7.926015e+02,5.164904e+03
7.935657e+02,5.170589e+03
7.945300e+02,5.165217e+03
7.954942e+02,5.146656e+03
7.964584e+02,5.128003e+03
7.974227e+02,5.112925e+03
7.983869e+02,5.105417e+03
7.993511e+02,5.104375e+03
8.003154e+02,5.110298e+03
8.012796e+02,5.112076e+03
8.022438e+02,5.107228e+03
8.032081e+02,5.102021e+03
8.041723e+02,5.102057e+03
8.051365e+02,5.107970e+03
8.061008e+02,5.113439e+03
8.070650e+02,5.113394e+03
8.080292e+02,5.108073e+03
8.089935e+02,5.099080e+03
8.099577e+02,5.088226e+03
8.109219e+02,5.078854e+03
8.118862e+02,5.074809e+03
8.128504e+02,5.075813e+03
8.138146e+02,5.073591e+03
8.147789e+02,5.066217e+03
8.157431e+02,5.056947e+03
8.167073e+02,5.049374e+03
8.176716e+02,5.046297e+03
8.186358e+02,5.044771e+03
8.196000e+02,5.046134e+03
8.205643e+02,5.047065e+03
8.215285e+02,5.044545e+03
8.224927e+02,5.038275e+03
8.234570e+02,5.028898e+03
8.244212e+02,5.010125e+03
8.253854e+02,4.994256e+03
8.263497e+02,4.990078e+03
8.273139e+02,4.993361e+03
8.282781e+02,4.994998e+03
8.292424e+02,4.990291e+03
8.302066e+02,4.984874e+03
8.311708e+02,4.986019e+03
8.321351e+02,4.992467e+03
8.330993e+02,4.997658e+03
8.340635e+02,4.996871e+03
8.350278e+02,4.991915e+03
8.359920e+02,4.990887e+03
8.369562e+02,4.995483e+03
8.379205e+02,4.995640e+03
8.388847e+02,4.986482e+03
8.398489e+02,4.972006e+03
8.408132e+02,4.961494e+03
8.417774e+02,4.955803e+03
8.427416e+02,4.951231e+03
8.437059e+02,4.947636e+03
8.446701e+02,4.944959e+03
8.456343e+02,4.943247e+03
8.465986e+02,4.940680e+03
8.475628e+02,4.941453e+03
8.485270e+02,4.955365e+03
8.494913e+02,4.968754e+03
8.504555e+02,4.964841e+03
8.514197e+02,4.939807e+03
8.523840e+02,4.915687e+03
8.533482e+02,4.912133e+03
8.543124e+02,4.920026e+03
8.552767e+02,4.924482e+03
8.562409e+02,4.922812e+03
8.572051e+02,4.916136e+03
8.581694e+02,4.904623e+03
8.591336e+02,4.889624e+03
8.600978e+02,4.880027e+03
8.610621e+02,4.877881e+03
8.620263e+02,4.877513e+03
8.629905e+02,4.873125e+03
8.639548e+02,4.862600e+03
8.649190e+02,4.854067e+03
8.658832e+02,4.851581e+03
8.668475e+02,4.850394e+03
8.678117e+02,4.848030e+03
8.687759e+02,4.844334e+03
8.697402e+02,4.841885e+03
8.707044e+02,4.839023e+03
8.716686e+02,4.834151e+03
8.726329e+02,4.830359e+03
8.735971e+02,4.827276e+03
8.745613e+02,4.822131e+03
8.755256e+02,4.811531e+03
8.764898e+02,4.804328e+03
8.774540e+02,4.807787e+03
8.784183e+02,4.816576e+03
8.793825e+02,4.822329e+03
8.803467e+02,4.821785e+03
8.813110e+02,4.817155e+03
8.822752e+02,4.809146e+03
8.832394e+02,4.800532e+03
8.842037e+02,4.799039e+03
8.851679e+02,4.805817e+03
8.861321e+02,4.813244e+03
8.870964e+02,4.811099e+03
8.880606e+02,4.798500e+03
8.890248e+02,4.786496e+03
8.899891e+02,4.777336e+03
8.909533e+02,4.772280e+03
8.919175e+02,4.772351e+03
8.928818e+02,4.779587e+03
8.938460e+02,4.782046e+03
8.948102e+02,4.774497e+03
8.957745e+02,4.765383e+03
8.967387e+02,4.760702e+03
8.977029e+02,4.759126e+03
8.986672e+02,4.754304e+03
8.996314e+02,4.745600e+03
9.005956e+02,4.738953e+03
9.015599e+02,4.736607e+03
9.025241e+02,4.736812e+03
9.034883e+02,4.736519e+03
9.044526e+02,4.734622e+03
9.054168e+02,4.729547e+03
9.063810e+02,4.721944e+03
9.073453e+02,4.715532e+03
9.083095e+02,4.713149e+03
9.092737e+02,4.715764e+03
9.102380e+02,4.717076e+03
9.112022e+02,4.708511e+03
9.121664e+02,4.693548e+03
9.131307e+02,4.682336e+03
9.140949e+02,4.679468e+03
9.150591e+02,4.682006e+03
9.160234e+02,4.682428e+03
9.169876e+02,4.678773e+03
9.179518e+02,4.676318e+03
9.189161e+02,4.676517e+03
9.198803e+02,4.675140e+03
9.208445e+02,4.668250e+03
9.218088e+02,4.656295e+03
9.227730e+02,4.648765e+03
9.237372e+02,4.645770e+03
9.247015e+02,4.643604e+03
9.256657e+02,4.639400e+03
9.266299e+02,4.632572e+03
9.275942e+02,4.631061e+03
9.285584e+02,4.640218e+03
9.295226e+02,4.646217e+03
9.304869e+02,4.644069e+03
9.314511e+02,4.636174e+03
9.324153e+02,4.627819e+03
9.333796e+02,4.615254e+03
9.343438e+02,4.606682e+03
9.353080e+02,4.605928e+03
9.362723e+02,4.607688e+03
9.372365e+02,4.606701e+03
9.382007e+02,4.604295e+03
9.391650e+02,4.601053e+03
9.401292e+02,4.594232e+03
9.410934e+02,4.587400e+03
9.420577e+02,4.584461e+03
9.430219e+02,4.586224e+03
9.439861e+02,4.586966e+03
9.449504e+02,4.581609e+03
9.459146e+02,4.576751e+03
9.468788e+02,4.580743e+03
9.478431e+02,4.590951e+03
9.488073e+02,4.596422e+03
9.497715e+02,4.586930e+03
9.507358e+02,4.569750e+03
9.517000e+02,4.560867e+03
9.526642e+02,4.561336e+03
9.536285e+02,4.562781e+03
9.545927e+02,4.558872e+03
9.555569e+02,4.551049e+03
9.565212e+02,4.543557e+03
9.574854e+02,4.537852e+03
9.584496e+02,4.537120e+03
9.594139e+02,4.541526e+03
9.603781e+02,4.547509e+03
9.613423e+02,4.549871e+03
9.623066e+02,4.548991e+03
9.632708e+02,4.543126e+03
9.642350e+02,4.530392e+03
9.651993e+02,4.517370e+03
9.661635e+02,4.512211e+03
9.671277e+02,4.518592e+03
9.680920e+02,4.519896e+03
9.690562e+02,4.513560e+03
9.700204e+02,4.503956e+03
9.709847e+02,4.495375e+03
9.719489e+02,4.489210e+03
9.729131e+02,4.484173e+03
9.738774e+02,4.482775e+03
9.748416e+02,4.482211e+03
9.758058e+02,4.479103e+03
9.767701e+02,4.472839e+03
9.777343e+02,4.467454e+03
9.786985e+02,4.463451e+03
9.796628e+02,4.459353e+03
9.806270e+02,4.454821e+03
9.815912e+02,4.450439e+03
9.825555e+02,4.447648e+03
9.835197e+02,4.451610e+03
9.844839e+02,4.454340e+03
9.854482e+02,4.451187e+03
9.864124e+02,4.446552e+03
9.873766e+02,4.444964e+03
9.883409e+02,4.448564e+03
9.893051e+02,4.450413e+03
9.902693e+02,4.442047e+03
9.912336e+02,4.432563e+03
9.921978e+02,4.432244e+03
9.931620e+02,4.439750e+03
9.941263e+02,4.444624e+03
9.950905e+02,4.438270e+03
9.960547e+02,4.427102e+03
9.970190e+02,4.417447e+03
9.979832e+02,4.409386e+03
9.989474e+02,4.403824e+03
9.999117e+02,4.405425e+03
1.000876e+03,4.408531e+03
1.001840e+03,4.401226e+03
1.002804e+03,4.387873e+03
1.003769e+03,4.379843e+03
1.004733e+03,4.380352e+03
1.005697e+03,4.384779e+03
1.006661e+03,4.389320e+03
1.007626e+03,4.393427e+03
1.008590e+03,4.392499e+03
1.009554e+03,4.384582e+03
1.010518e+03,4.372664e+03
1.011482e+03,4.359479e+03
1.012447e+03,4.345626e+03
1.013411e+03,4.337690e+03
1.014375e+03,4.338397e+03
1.015339e+03,4.340860e+03
1.016304e+03,4.338355e+03
1.017268e+03,4.331910e+03
1.018232e+03,4.331206e+03
1.019196e+03,4.336712e+03
1.020161e+03,4.339250e+03
1.021125e+03,4.335229e+03
1.022089e+03,4.328663e+03
1.023053e+03,4.327309e+03
1.024018e+03,4.330844e+03
1.024982e+03,4.333084e+03
1.025946e+03,4.332314e+03
1.026910e+03,4.327620e+03
1.027875e+03,4.319651e+03
1.028839e+03,4.308958e+03
1.029803e+03,4.302134e+03
1.030767e+03,4.300651e+03
1.031731e+03,4.301083e+03
1.032696e+03,4.300645e+03
1.033660e+03,4.298958e+03
1.034624e+03,4.295015e+03
1.035588e+03,4.289217e+03
1.036552e+03,4.283426e+03
1.037517e+03,4.276094e+03
1.038481e+03,4.267341e+03
1.039445e+03,4.262487e+03
1.040409e+03,4.265208e+03
1.041374e+03,4.266067e+03
1.042338e+03,4.263755e+03
1.043302e+03,4.260614e+03
1.044266e+03,4.258775e+03
1.045231e+03,4.260382e+03
1.046195e+03,4.258195e+03
1.047159e+03,4.250702e+03
1.048123e+03,4.242443e+03
1.049088e+03,4.235961e+03
1.050052e+03,4.232565e+03
1.051016e+03,4.231585e+03
1.051980e+03,4.234424e+03
1.052945e+03,4.237204e+03
1.053909e+03,4.236622e+03
1.054873e+03,4.231600e+03
1.055837e+03,4.225647e+03
1.056802e+03,4.219347e+03
1.057766e+03,4.214658e+03
1.058730e+03,4.215337e+03
1.059694e+03,4.217318e+03
1.060658e+03,4.214476e+03
1.061623e+03,4.203180e+03
1.062587e+03,4.195217e+03
1.063551e+03,4.194205e+03
1.064515e+03,4.195612e+03
1.065479e+03,4.196070e+03
1.066444e+03,4.196194e+03
1.067408e+03,4.195309e+03
1.068372e+03,4.192882e+03
1.069336e+03,4.189745e+03
1.070301e+03,4.182002e+03
1.071265e+03,4.171157e+03
1.072229e+03,4.165278e+03
1.073193e+03,4.172831e+03
1.074158e+03,4.176785e+03
1.075122e+03,4.170499e+03
1.076086e+03,4.159406e+03
1.077050e+03,4.150903e+03
1.078015e+03,4.149504e+03
1.078979e+03,4.149426e+03
1.079943e+03,4.148535e+03
1.080907e+03,4.147937e+03
1.081872e+03,4.145169e+03
1.082836e+03,4.139071e+03
1.083800e+03,4.140216e+03
1.084764e+03,4.166362e+03
1.085729e+03,4.186618e+03
1.086693e+03,4.180511e+03
1.087657e+03,4.156919e+03
1.088621e+03,4.140926e+03
1.089585e+03,4.144431e+03
1.090550e+03,4.145690e+03
1.091514e+03,4.141278e+03
1.092478e+03,4.134119e+03
1.093442e+03,4.126161e+03
1.094406e+03,4.117201e+03
1.095371e+03,4.110241e+03
1.096335e+03,4.104743e+03
1.097299e+03,4.100724e+03
1.098263e+03,4.099023e+03
1.099228e+03,4.098996e+03
1.100192e+03,4.097581e+03
1.101156e+03,4.091370e+03
1.102120e+03,4.086010e+03
1.103085e+03,4.085271e+03
1.104049e+03,4.087094e+03
1.105013e+03,4.087160e+03
1.105977e+03,4.086584e+03
1.106942e+03,4.082685e+03
1.107906e+03,4.071219e+03
1.108870e+03,4.059128e+03
1.109834e+03,4.053006e+03
1.110799e+03,4.055059e+03
1.111763e+03,4.056329e+03
1.112727e+03,4.056148e+03
1.113691e+03,4.055948e+03
1.114656e+03,4.055206e+03
1.115620e+03,4.054158e+03
1.116584e+03,4.054692e+03
1.117548e+03,4.058828e+03
1.118512e+03,4.058892e+03
1.119477e+03,4.048473e+03
1.120441e+03,4.035003e+03
1.121405e+03,4.030426e+03
1.122369e+03,4.046136e+03
1.123334e+03,4.053868e+03
1.124298e+03,4.051392e+03
1.125262e+03,4.044276e+03
1.126226e+03,4.035899e+03
1.127191e+03,4.026425e+03
1.128155e+03,4.016832e+03
1.129119e+03,4.003184e+03
1.130083e+03,3.992941e+03
1.131047e+03,3.990257e+03
1.132012e+03,3.991746e+03
1.132976e+03,3.989120e+03
1.133940e+03,3.979723e+03
1.134904e+03,3.970943e+03
1.135869e+03,3.963905e+03
1.136833e+03,3.960226e+03
1.137797e+03,3.962480e+03
1.138761e+03,3.974948e+03
1.139726e+03,3.981828e+03
1.140690e+03,3.981022e+03
1.141654e+03,3.977051e+03
1.142618e+03,3.971226e+03
1.143583e+03,3.964352e+03
1.144547e+03,3.960951e+03
1.145511e+03,3.961657e+03
1.146475e+03,3.963104e+03
1.147439e+03,3.964577e+03
1.148404e+03,3.965954e+03
1.149368e+03,3.965417e+03
1.150332e+03,3.962265e+03
1.151296e+03,3.959546e+03
1.152261e+03,3.955951e+03
1.153225e+03,3.949476e+03
1.154189e+03,3.941810e+03
1.155153e+03,3.934132e+03
1.156118e+03,3.920147e+03
1.157082e+03,3.900822e+03
1.158046e+03,3.888574e+03
1.159010e+03,3.888716e+03
1.159974e+03,3.895579e+03
1.160939e+03,3.897790e+03
1.161903e+03,3.895261e+03
1.162867e+03,3.892863e+03
1.163831e+03,3.891383e+03
1.164796e+03,3.889583e+03
1.165760e+03,3.888151e+03
1.166724e+03,3.886677e+03
1.167688e+03,3.881257e+03
1.168653e+03,3.872565e+03
1.169617e+03,3.865504e+03
1.170581e+03,3.864983e+03
1.171545e+03,3.866669e+03
1.172510e+03,3.863473e+03
1.173474e+03,3.857530e+03
1.174438e+03,3.852552e+03
1.175402e+03,3.849110e+03
1.176366e+03,3.846483e+03
1.177331e+03,3.845364e+03
1.178295e+03,3.844823e+03
1.179259e+03,3.842651e+03
1.180223e+03,3.838233e+03
1.181188e+03,3.833523e+03
1.182152e+03,3.829736e+03
1.183116e+03,3.826382e+03
1.184080e+03,3.825770e+03
1.185045e+03,3.826218e+03
1.186009e+03,3.823270e+03
1.186973e+03,3.814128e+03
1.187937e+03,3.807521e+03
1.188901e+03,3.807871e+03
1.189866e+03,3.810426e+03
1.190830e+03,3.810505e+03
1.191794e+03,3.806810e+03
1.192758e+03,3.803317e+03
1.193723e+03,3.804570e+03
1.194687e+03,3.805223e+03
1.195651e+03,3.800290e+03
1.196615e+03,3.792492e+03
1.197580e+03,3.789052e+03
1.198544e+03,3.794885e+03
1.199508e+03,3.791839e+03
1.200472e+03,3.774254e+03
1.201437e+03,3.755960e+03
1.202401e+03,3.749922e+03
1.203365e+03,3.759122e+03
1.204329e+03,3.764387e+03
1.205293e+03,3.763949e+03
1.206258e+03,3.762408e+03
1.207222e+03,3.760642e+03
1.208186e+03,3.758930e+03
1.209150e+03,3.760179e+03
1.210115e+03,3.763896e+03
1.211079e+03,3.763732e+03
1.212043e+03,3.758678e+03
1.213007e+03,3.750734e+03
1.213972e+03,3.741418e+03
1.214936e+03,3.732714e+03
1.215900e+03,3.733439e+03
1.216864e+03,3.743045e+03
1.217828e+03,3.748162e+03
1.218793e+03,3.739003e+03
1.219757e+03,3.724329e+03
1.220721e+03,3.719021e+03
1.221685e+03,3.720522e+03
1.222650e+03,3.720319e+03
1.223614e+03,3.714902e+03
1.224578e+03,3.708530e+03
1.225542e+03,3.707333e+03
1.226507e+03,3.708117e+03
1.227471e+03,3.705687e+03
1.228435e+03,3.699776e+03
1.229399e+03,3.694116e+03
1.230364e+03,3.692723e+03
1.231328e+03,3.691663e+03
1.232292e+03,3.692954e+03
1.233256e+03,3.694235e+03
1.234220e+03,3.689652e+03
1.235185e+03,3.676630e+03
1.236149e+03,3.665699e+03
1.237113e+03,3.657307e+03
1.238077e+03,3.654109e+03
1.239042e+03,3.657765e+03
1.240006e+03,3.665553e+03
1.240970e+03,3.668516e+03
1.241934e+03,3.664162e+03
1.242899e+03,3.658978e+03
1.243863e+03,3.654708e+03
1.244827e+03,3.651553e+03
1.245791e+03,3.649618e+03
1.246755e+03,3.649416e+03
1.247720e+03,3.647121e+03
1.248684e+03,3.642566e+03
1.249648e+03,3.638870e+03
1.250612e+03,3.637990e+03
1.251577e+03,3.638205e+03
1.252541e+03,3.635051e+03
1.253505e+03,3.628591e+03
1.254469e+03,3.622368e+03
1.255434e+03,3.618059e+03
1.256398e+03,3.615288e+03
1.257362e+03,3.611941e+03
1.258326e+03,3.608480e+03
1.259291e+03,3.607681e+03
1.260255e+03,3.608722e+03
1.261219e+03,3.608541e+03
1.262183e+03,3.607423e+03
1.263147e+03,3.606423e+03
1.264112e+03,3.606548e+03
1.265076e+03,3.606414e+03
1.266040e+03,3.602651e+03
1.267004e+03,3.592936e+03
1.267969e+03,3.586121e+03
1.268933e+03,3.588137e+03
1.269897e+03,3.594107e+03
1.270861e+03,3.599225e+03
1.271826e+03,3.600730e+03
1.272790e+03,3.600495e+03
1.273754e+03,3.600074e+03
1.274718e+03,3.597632e+03
1.275682e+03,3.593674e+03
1.276647e+03,3.589812e+03
1.277611e+03,3.587264e+03
1.278575e+03,3.585975e+03
1.279539e+03,3.581600e+03
1.280504e+03,3.575310e+03
1.281468e+03,3.572105e+03
1.282432e+03,3.575082e+03
1.283396e+03,3.580712e+03
1.284361e+03,3.579159e+03
1.285325e+03,3.571512e+03
1.286289e+03,3.565812e+03
1.287253e+03,3.563928e+03
1.288218e+03,3.562331e+03
1.289182e+03,3.558917e+03
1.290146e+03,3.554293e+03
1.291110e+03,3.549423e+03
1.292074e+03,3.544628e+03
1.293039e+03,3.539177e+03
1.294003e+03,3.530843e+03
1.294967e+03,3.522664e+03
1.295931e+03,3.515569e+03
1.296896e+03,3.511528e+03
1.297860e+03,3.513259e+03
1.298824e+03,3.523149e+03
1.299788e+03,3.526331e+03
1.300753e+03,3.517065e+03
1.301717e+03,3.507498e+03
1.302681e+03,3.502542e+03
1.303645e+03,3.500672e+03
1.304609e+03,3.497136e+03
1.305574e+03,3.489937e+03
1.306538e+03,3.485774e+03
1.307502e+03,3.487792e+03
1.308466e+03,3.491296e+03
1.309431e+03,3.489639e+03
1.310395e+03,3.484954e+03
1.311359e+03,3.484282e+03
1.312323e+03,3.485632e+03
1.313288e+03,3.486438e+03
1.314252e+03,3.488030e+03
1.315216e+03,3.488707e+03
1.316180e+03,3.481528e+03
1.317145e+03,3.473908e+03
1.318109e+03,3.476954e+03
1.319073e+03,3.489825e+03
1.320037e+03,3.494375e+03
1.321001e+03,3.474595e+03
1.321966e+03,3.455919e+03
1.322930e+03,3.452214e+03
1.323894e+03,3.457709e+03
1.324858e+03,3.459199e+03
1.325823e+03,3.453591e+03
1.326787e+03,3.451063e+03
1.327751e+03,3.452637e+03
1.328715e+03,3.452027e+03
1.329680e+03,3.444031e+03
1.330644e+03,3.431882e+03
1.331608e+03,3.429885e+03
1.332572e+03,3.437072e+03
1.333536e+03,3.446543e+03
1.334501e+03,3.456535e+03
1.335465e+03,3.461671e+03
1.336429e+03,3.455387e+03
1.337393e+03,3.443358e+03
1.338358e+03,3.431271e+03
1.339322e+03,3.420396e+03
1.340286e+03,3.412941e+03
1.341250e+03,3.414487e+03
1.342215e+03,3.414106e+03
1.343179e+03,3.404496e+03
1.344143e+03,3.395363e+03
1.345107e+03,3.396562e+03
1.346072e+03,3.411441e+03
1.347036e+03,3.418590e+03
1.348000e+03,3.414072e+03
1.348964e+03,3.407052e+03
1.349928e+03,3.401910e+03
1.350893e+03,3.398099e+03
1.351857e+03,3.390668e+03
1.352821e+03,3.379191e+03
1.353785e+03,3.372952e+03
1.354750e+03,3.372709e+03
1.355714e+03,3.373542e+03
1.356678e+03,3.375504e+03
1.357642e+03,3.376363e+03
1.358607e+03,3.367073e+03
1.359571e+03,3.352405e+03
1.360535e+03,3.343917e+03
1.361499e+03,3.346915e+03
1.362464e+03,3.354306e+03
1.363428e+03,3.371644e+03
1.364392e+03,3.385913e+03
1.365356e+03,3.382256e+03
1.366320e+03,3.361303e+03
1.367285e+03,3.349119e+03
1.368249e+03,3.351659e+03
1.369213e+03,3.352761e+03
1.370177e+03,3.349636e+03
1.371142e+03,3.343994e+03
1.372106e+03,3.337565e+03
1.373070e+03,3.330466e+03
1.374034e+03,3.322051e+03
1.374999e+03,3.313785e+03
1.375963e+03,3.311941e+03
1.376927e+03,3.322580e+03
1.377891e+03,3.333541e+03
1.378855e+03,3.329614e+03
1.379820e+03,3.318707e+03
1.380784e+03,3.310625e+03
1.381748e+03,3.307808e+03
1.382712e+03,3.307121e+03
1.383677e+03,3.308485e+03
1.384641e+03,3.307231e+03
1.385605e+03,3.300505e+03
1.386569e+03,3.290678e+03
1.387534e+03,3.281524e+03
1.388498e+03,3.273104e+03
1.389462e+03,3.267004e+03
1.390426e+03,3.262387e+03
1.391391e+03,3.260147e+03
1.392355e+03,3.263162e+03
1.393319e+03,3.268413e+03
1.394283e+03,3.267787e+03
1.395247e+03,3.263161e+03
1.396212e+03,3.259533e+03
1.397176e+03,3.258101e+03
1.398140e+03,3.258614e+03
1.399104e+03,3.262822e+03
1.400069e+03,3.265653e+03
1.401033e+03,3.263799e+03
1.401997e+03,3.258290e+03
1.402961e+03,3.252257e+03
1.403926e+03,3.244739e+03
1.404890e+03,3.238739e+03
1.405854e+03,3.235421e+03
1.406818e+03,3.233081e+03
1.407782e+03,3.230620e+03
1.408747e+03,3.228973e+03
1.409711e+03,3.228173e+03
1.410675e+03,3.226579e+03
1.411639e+03,3.224752e+03
1.412604e+03,3.223351e+03
1.413568e+03,3.222407e+03
1.414532e+03,3.225887e+03
1.415496e+03,3.228541e+03
1.416461e+03,3.222253e+03
1.417425e+03,3.208587e+03
1.418389e+03,3.197936e+03
1.419353e+03,3.193839e+03
1.420318e+03,3.190947e+03
1.421282e+03,3.190770e+03
1.422246e+03,3.191621e+03
1.423210e+03,3.191840e+03
1.424174e+03,3.191832e+03
1.425139e+03,3.191461e+03
1.426103e+03,3.189746e+03
1.427067e+03,3.185354e+03
1.428031e+03,3.177572e+03
1.428996e+03,3.170644e+03
1.429960e+03,3.166771e+03
1.430924e+03,3.166017e+03
1.431888e+03,3.172571e+03
1.432853e+03,3.183663e+03
1.433817e+03,3.185907e+03
1.434781e+03,3.167452e+03
1.435745e+03,3.154028e+03
1.436709e+03,3.148666e+03
1.437674e+03,3.145754e+03
1.438638e+03,3.140704e+03
1.439602e+03,3.135247e+03
1.440566e+03,3.141042e+03
1.441531e+03,3.156100e+03
1.442495e+03,3.162458e+03
1.443459e+03,3.151406e+03
1.444423e+03,3.137689e+03
1.445388e+03,3.137228e+03
1.446352e+03,3.139672e+03
1.447316e+03,3.133788e+03
1.448280e+03,3.121861e+03
1.449245e+03,3.114821e+03
1.450209e+03,3.122282e+03
1.451173e+03,3.123213e+03
1.452137e+03,3.108907e+03
1.453101e+03,3.093727e+03
1.454066e+03,3.093679e+03
1.455030e+03,3.106541e+03
1.455994e+03,3.114190e+03
1.456958e+03,3.116799e+03
1.457923e+03,3.115240e+03
1.458887e+03,3.108024e+03
1.459851e+03,3.100467e+03
1.460815e+03,3.099051e+03
1.461780e+03,3.097200e+03
1.462744e+03,3.088736e+03
1.463708e+03,3.075482e+03
1.464672e+03,3.067816e+03
1.465636e+03,3.071460e+03
1.466601e+03,3.072979e+03
1.467565e+03,3.069341e+03
1.468529e+03,3.066531e+03
1.469493e+03,3.071482e+03
1.470458e+03,3.080346e+03
1.471422e+03,3.079267e+03
1.472386e+03,3.071396e+03
1.473350e+03,3.065722e+03
1.474315e+03,3.064422e+03
1.475279e+03,3.067007e+03
1.476243e+03,3.079036e+03
1.477207e+03,3.088666e+03
1.478172e+03,3.087991e+03
1.479136e+03,3.078444e+03
1.480100e+03,3.065739e+03
1.481064e+03,3.048109e+03
1.482028e+03,3.036252e+03
1.482993e+03,3.032488e+03
1.483957e+03,3.031672e+03
1.484921e+03,3.027717e+03
1.485885e+03,3.023220e+03
1.486850e+03,3.023203e+03
1.487814e+03,3.025622e+03
1.488778e+03,3.028983e+03
1.489742e+03,3.035510e+03
1.490707e+03,3.034324e+03
1.491671e+03,3.014443e+03
1.492635e+03,2.998064e+03
1.493599e+03,2.994885e+03
1.494563e+03,2.999523e+03
1.495528e+03,2.999851e+03
1.496492e+03,2.995542e+03
1.497456e+03,2.991423e+03
1.498420e+03,2.989029e+03
1.499385e+03,2.987406e+03
1.500349e+03,2.984909e+03
1.501313e+03,2.983838e+03
1.502277e+03,2.987196e+03
1.503242e+03,2.991918e+03
1.504206e+03,2.993960e+03
1.505170e+03,2.992188e+03
1.506134e+03,2.986063e+03
1.507099e+03,2.973639e+03
1.508063e+03,2.963234e+03
1.509027e+03,2.958429e+03
1.509991e+03,2.956169e+03
1.510955e+03,2.950875e+03
1.511920e+03,2.944321e+03
1.512884e+03,2.942323e+03
1.513848e+03,2.945543e+03
1.514812e+03,2.947937e+03
1.515777e+03,2.937880e+03
1.516741e+03,2.933146e+03
1.517705e+03,2.948796e+03
1.518669e+03,2.963982e+03
1.519634e+03,2.960099e+03
1.520598e+03,2.938124e+03
1.521562e+03,2.928294e+03
1.522526e+03,2.929300e+03
1.523490e+03,2.932467e+03
1.524455e+03,2.935728e+03
1.525419e+03,2.937852e+03
1.526383e+03,2.940771e+03
1.527347e+03,2.939848e+03
1.528312e+03,2.928640e+03
1.529276e+03,2.911483e+03
1.530240e+03,2.902000e+03
1.531204e+03,2.901537e+03
1.532169e+03,2.903555e+03
1.533133e+03,2.908432e+03
1.534097e+03,2.912079e+03
1.535061e+03,2.910331e+03
1.536026e+03,2.905547e+03
1.536990e+03,2.903995e+03
1.537954e+03,2.903626e+03
1.538918e+03,2.899396e+03
1.539882e+03,2.889142e+03
1.540847e+03,2.881059e+03
1.541811e+03,2.878210e+03
1.542775e+03,2.874753e+03
1.543739e+03,2.869197e+03
1.544704e+03,2.864776e+03
1.545668e+03,2.868378e+03
1.546632e+03,2.877793e+03
1.547596e+03,2.880458e+03
1.548561e+03,2.876617e+03
1.549525e+03,2.873024e+03
1.550489e+03,2.872292e+03
1.551453e+03,2.872091e+03
1.552417e+03,2.873190e+03
1.553382e+03,2.872456e+03
1.554346e+03,2.867349e+03
1.555310e+03,2.859198e+03
1.556274e+03,2.855566e+03
1.557239e+03,2.856063e+03
1.558203e+03,2.854285e+03
1.559167e+03,2.848615e+03
1.560131e+03,2.842909e+03
1.561096e+03,2.843446e+03
1.562060e+03,2.843396e+03
1.563024e+03,2.831492e+03
1.563988e+03,2.815816e+03
1.564953e+03,2.816098e+03
1.565917e+03,2.841493e+03
1.566881e+03,2.851609e+03
1.567845e+03,2.843649e+03
1.568809e+03,2.832630e+03
1.569774e+03,2.826351e+03
1.570738e+03,2.822852e+03
1.571702e+03,2.819565e+03
1.572666e+03,2.817068e+03
1.573631e+03,2.816864e+03
1.574595e+03,2.819882e+03
1.575559e+03,2.822676e+03
1.576523e+03,2.826868e+03
1.577488e+03,2.826326e+03
1.578452e+03,2.816842e+03
1.579416e+03,2.806795e+03
1.580380e+03,2.807263e+03
1.581344e+03,2.813603e+03
1.582309e+03,2.819720e+03
1.583273e+03,2.824271e+03
1.584237e+03,2.823256e+03
1.585201e+03,2.812642e+03
1.586166e+03,2.804418e+03
1.587130e+03,2.799691e+03
1.588094e+03,2.795886e+03
1.589058e+03,2.792829e+03
1.590023e+03,2.790661e+03
1.590987e+03,2.788382e+03
1.591951e+03,2.787411e+03
1.592915e+03,2.789888e+03
1.593880e+03,2.794017e+03
1.594844e+03,2.794818e+03
1.595808e+03,2.788596e+03
1.596772e+03,2.781956e+03
1.597736e+03,2.777840e+03
1.598701e+03,2.773317e+03
1.599665e+03,2.763404e+03
1.600629e+03,2.750876e+03
1.601593e+03,2.749543e+03
1.602558e+03,2.755632e+03
1.603522e+03,2.757329e+03
1.604486e+03,2.750474e+03
1.605450e+03,2.742557e+03
1.606415e+03,2.734872e+03
1.607379e+03,2.731648e+03
1.608343e+03,2.735709e+03
1.609307e+03,2.742149e+03
1.610271e+03,2.742890e+03
1.611236e+03,2.738329e+03
1.612200e+03,2.730287e+03
1.613164e+03,2.720724e+03
1.614128e+03,2.714823e+03
1.615093e+03,2.717979e+03
1.616057e+03,2.720081e+03
1.617021e+03,2.715325e+03
1.617985e+03,2.709550e+03
1.618950e+03,2.707662e+03
1.619914e+03,2.708102e+03
1.620878e+03,2.702408e+03
1.621842e+03,2.693293e+03
1.622807e+03,2.691573e+03
1.623771e+03,2.699993e+03
1.624735e+03,2.705792e+03
1.625699e+03,2.696448e+03
1.626663e+03,2.688187e+03
1.627628e+03,2.686916e+03
1.628592e+03,2.687342e+03
1.629556e+03,2.685395e+03
1.630520e+03,2.682410e+03
1.631485e+03,2.676257e+03
1.632449e+03,2.668362e+03
1.633413e+03,2.666456e+03
1.634377e+03,2.677876e+03
1.635342e+03,2.685165e+03
1.636306e+03,2.678474e+03
1.637270e+03,2.669774e+03
1.638234e+03,2.663477e+03
1.639198e+03,2.659556e+03
1.640163e+03,2.656582e+03
1.641127e+03,2.655321e+03
1.642091e+03,2.658036e+03
1.643055e+03,2.663045e+03
1.644020e+03,2.662666e+03
1.644984e+03,2.643986e+03
1.645948e+03,2.631501e+03
1.646912e+03,2.632742e+03
1.647877e+03,2.638367e+03
1.648841e+03,2.640978e+03
1.649805e+03,2.642172e+03
1.650769e+03,2.649577e+03
1.651734e+03,2.658272e+03
1.652698e+03,2.654231e+03
1.653662e+03,2.630323e+03
1.654626e+03,2.614896e+03
1.655590e+03,2.622522e+03
1.656555e+03,2.626817e+03
1.657519e+03,2.621256e+03
1.658483e+03,2.612158e+03
1.659447e+03,2.605502e+03
1.660412e+03,2.599849e+03
1.661376e+03,2.594592e+03
1.662340e+03,2.590747e+03
1.663304e+03,2.589332e+03
1.664269e+03,2.589695e+03
1.665233e+03,2.592085e+03
1.666197e+03,2.597292e+03
1.667161e+03,2.598727e+03
1.668125e+03,2.592364e+03
1.669090e+03,2.583123e+03
1.670054e+03,2.577012e+03
1.671018e+03,2.573950e+03
1.671982e+03,2.575868e+03
1.672947e+03,2.582490e+03
1.673911e+03,2.585883e+03
1.674875e+03,2.583879e+03
1.675839e+03,2.580514e+03
1.676804e+03,2.577764e+03
1.677768e+03,2.573778e+03
1.678732e+03,2.562961e+03
1.679696e+03,2.551661e+03
1.680661e+03,2.544350e+03
1.681625e+03,2.540238e+03
1.682589e+03,2.541640e+03
1.683553e+03,2.549824e+03
1.684517e+03,2.548060e+03
1.685482e+03,2.536406e+03
1.686446e+03,2.528594e+03
1.687410e+03,2.529359e+03
1.688374e+03,2.531396e+03
1.689339e+03,2.527411e+03
1.690303e+03,2.524747e+03
1.691267e+03,2.530942e+03
1.692231e+03,2.539221e+03
1.693196e+03,2.535412e+03
1.694160e+03,2.520917e+03
1.695124e+03,2.510334e+03
1.696088e+03,2.505004e+03
1.697052e+03,2.505541e+03
1.698017e+03,2.515790e+03
1.698981e+03,2.521454e+03
1.699945e+03,2.515498e+03
1.700909e+03,2.507619e+03
1.701874e+03,2.505154e+03
1.702838e+03,2.506048e+03
1.703802e+03,2.500370e+03
1.704766e+03,2.491901e+03
1.705731e+03,2.492515e+03
1.706695e+03,2.503172e+03
1.707659e+03,2.508456e+03
1.708623e+03,2.505352e+03
1.709588e+03,2.501283e+03
1.710552e+03,2.495637e+03
1.711516e+03,2.488995e+03
1.712480e+03,2.480542e+03
1.713444e+03,2.473597e+03
1.714409e+03,2.474629e+03
1.715373e+03,2.479757e+03
1.716337e+03,2.483182e+03
1.717301e+03,2.485402e+03
1.718266e+03,2.481069e+03
1.719230e+03,2.469814e+03
1.720194e+03,2.461305e+03
1.721158e+03,2.457933e+03
1.722123e+03,2.456830e+03
1.723087e+03,2.459719e+03
1.724051e+03,2.459818e+03
1.725015e+03,2.451919e+03
1.725979e+03,2.442590e+03
1.726944e+03,2.441222e+03
1.727908e+03,2.445447e+03
1.728872e+03,2.443407e+03
1.729836e+03,2.436752e+03
1.730801e+03,2.436215e+03
1.731765e+03,2.453004e+03
1.732729e+03,2.459966e+03
1.733693e+03,2.452332e+03
1.734658e+03,2.441704e+03
1.735622e+03,2.431673e+03
1.736586e+03,2.424306e+03
1.737550e+03,2.425969e+03
1.738515e+03,2.429942e+03
1.739479e+03,2.427812e+03
1.740443e+03,2.419949e+03
1.741407e+03,2.413750e+03
1.742371e+03,2.409398e+03
1.743336e+03,2.405893e+03
1.744300e+03,2.403008e+03
1.745264e+03,2.400603e+03
1.746228e+03,2.400758e+03
1.747193e+03,2.401348e+03
1.748157e+03,2.403369e+03
1.749121e+03,2.405261e+03
1.750085e+03,2.401997e+03
1.751050e+03,2.394726e+03
1.752014e+03,2.396606e+03
1.752978e+03,2.403925e+03
1.753942e+03,2.405312e+03
1.754906e+03,2.398286e+03
1.755871e+03,2.392601e+03
1.756835e+03,2.389314e+03
1.757799e+03,2.384871e+03
1.758763e+03,2.380898e+03
1.759728e+03,2.378788e+03
1.760692e+03,2.382922e+03
1.761656e+03,2.385539e+03
1.762620e+03,2.371127e+03
1.763585e+03,2.353464e+03
1.764549e+03,2.355106e+03
1.765513e+03,2.374544e+03
1.766477e+03,2.378779e+03
1.767442e+03,2.370669e+03
1.768406e+03,2.363586e+03
1.769370e+03,2.361656e+03
1.770334e+03,2.361016e+03
1.771298e+03,2.358313e+03
1.772263e+03,2.356617e+03
1.773227e+03,2.358055e+03
1.774191e+03,2.359968e+03
1.775155e+03,2.357707e+03
1.776120e+03,2.353438e+03
1.777084e+03,2.351886e+03
1.778048e+03,2.351619e+03
1.779012e+03,2.347396e+03
1.779977e+03,2.338054e+03
1.780941e+03,2.331635e+03
1.781905e+03,2.327142e+03
1.782869e+03,2.327626e+03
1.783833e+03,2.337910e+03
1.784798e+03,2.343587e+03
1.785762e+03,2.328047e+03
1.786726e+03,2.314539e+03
1.787690e+03,2.316415e+03
1.788655e+03,2.324679e+03
1.789619e+03,2.320584e+03
1.790583e+03,2.309797e+03
1.791547e+03,2.302715e+03
1.792512e+03,2.299704e+03
1.793476e+03,2.296892e+03
1.794440e+03,2.290851e+03
1.795404e+03,2.293183e+03
1.796369e+03,2.304184e+03
1.797333e+03,2.308117e+03
1.798297e+03,2.289478e+03
1.799261e+03,2.273499e+03
1.800225e+03,2.281340e+03
1.801190e+03,2.293161e+03
1.802154e+03,2.297414e+03
1.803118e+03,2.295639e+03
1.804082e+03,2.292521e+03
1.805047e+03,2.288456e+03
1.806011e+03,2.280978e+03
1.806975e+03,2.270479e+03
1.807939e+03,2.266395e+03
1.808904e+03,2.272221e+03
1.809868e+03,2.271008e+03
1.810832e+03,2.261323e+03
1.811796e+03,2.253850e+03
1.812760e+03,2.258023e+03
1.813725e+03,2.264317e+03
1.814689e+03,2.269059e+03
1.815653e+03,2.271008e+03
1.816617e+03,2.268630e+03
1.817582e+03,2.263436e+03
1.818546e+03,2.259971e+03
1.819510e+03,2.256935e+03
1.820474e+03,2.251216e+03
1.821439e+03,2.242843e+03
1.822403e+03,2.238837e+03
1.823367e+03,2.241347e+03
1.824331e+03,2.239494e+03
1.825296e+03,2.230724e+03
1.826260e+03,2.222142e+03
1.827224e+03,2.220748e+03
1.828188e+03,2.223459e+03
1.829152e+03,2.229770e+03
1.830117e+03,2.235362e+03
1.831081e+03,2.236967e+03
1.832045e+03,2.234502e+03
1.833009e+03,2.228798e+03
1.833974e+03,2.222919e+03
1.834938e+03,2.220048e+03
1.835902e+03,2.220271e+03
1.836866e+03,2.212382e+03
1.837831e+03,2.195220e+03
1.838795e+03,2.184720e+03
1.839759e+03,2.185352e+03
1.840723e+03,2.189354e+03
1.841688e+03,2.191655e+03
1.842652e+03,2.194033e+03
1.843616e+03,2.197186e+03
1.844580e+03,2.197566e+03
1.845544e+03,2.190058e+03
1.846509e+03,2.180470e+03
1.847473e+03,2.179440e+03
1.848437e+03,2.183238e+03
1.849401e+03,2.185856e+03
1.850366e+03,2.187216e+03
1.851330e+03,2.182401e+03
1.852294e+03,2.173055e+03
1.853258e+03,2.168378e+03
1.854223e+03,2.171142e+03
1.855187e+03,2.172301e+03
1.856151e+03,2.164254e+03
1.857115e+03,2.157872e+03
1.858079e+03,2.155031e+03
1.859044e+03,2.153997e+03
1.860008e+03,2.156405e+03
1.860972e+03,2.158303e+03
1.861936e+03,2.153253e+03
1.862901e+03,2.146361e+03
1.863865e+03,2.144210e+03
1.864829e+03,2.144681e+03
1.865793e+03,2.141052e+03
1.866758e+03,2.135766e+03
1.867722e+03,2.134995e+03
1.868686e+03,2.141490e+03
1.869650e+03,2.140490e+03
1.870615e+03,2.128578e+03
1.871579e+03,2.119715e+03
1.872543e+03,2.118512e+03
1.873507e+03,2.122195e+03
1.874471e+03,2.131777e+03
1.875436e+03,2.136342e+03
1.876400e+03,2.130372e+03
1.877364e+03,2.121481e+03
1.878328e+03,2.117373e+03
1.879293e+03,2.116603e+03
1.880257e+03,2.118641e+03
1.881221e+03,2.120049e+03
1.882185e+03,2.113457e+03
1.883150e+03,2.099008e+03
1.884114e+03,2.094462e+03
1.885078e+03,2.097885e+03
1.886042e+03,2.099645e+03
1.887006e+03,2.096555e+03
1.887971e+03,2.095123e+03
1.888935e+03,2.099724e+03
1.889899e+03,2.103933e+03
1.890863e+03,2.105312e+03
1.891828e+03,2.103961e+03
1.892792e+03,2.101193e+03
1.893756e+03,2.096571e+03
1.894720e+03,2.091184e+03
1.895685e+03,2.085832e+03
1.896649e+03,2.077261e+03
1.897613e+03,2.067234e+03
1.898577e+03,2.067554e+03
1.899542e+03,2.073046e+03
1.900506e+03,2.070432e+03
1.901470e+03,2.056294e+03
1.902434e+03,2.049355e+03
1.903398e+03,2.049525e+03
1.904363e+03,2.052731e+03
1.905327e+03,2.058580e+03
1.906291e+03,2.062870e+03
1.907255e+03,2.061110e+03
1.908220e+03,2.058291e+03
1.909184e+03,2.054999e+03
1.910148e+03,2.052310e+03
1.911112e+03,2.054551e+03
1.912077e+03,2.056400e+03
1.913041e+03,2.052743e+03
1.914005e+03,2.046061e+03
1.914969e+03,2.037462e+03
1.915933e+03,2.028544e+03
1.916898e+03,2.027135e+03
1.917862e+03,2.029311e+03
1.918826e+03,2.023805e+03
1.919790e+03,2.009115e+03
1.920755e+03,2.010236e+03
1.921719e+03,2.025161e+03
1.922683e+03,2.033019e+03
1.923647e+03,2.030063e+03
1.924612e+03,2.029571e+03
1.925576e+03,2.044724e+03
1.926540e+03,2.049469e+03
1.927504e+03,2.037622e+03
1.928469e+03,2.021564e+03
1.929433e+03,2.009212e+03
1.930397e+03,1.999649e+03
1.931361e+03,1.992848e+03
1.932325e+03,1.988614e+03
1.933290e+03,1.988986e+03
1.934254e+03,1.992678e+03
1.935218e+03,1.991589e+03
1.936182e+03,1.987871e+03
1.937147e+03,1.988659e+03
1.938111e+03,1.994275e+03
1.939075e+03,1.999429e+03
1.940039e+03,2.004017e+03
1.941004e+03,1.998163e+03
1.941968e+03,1.980078e+03
1.942932e+03,1.969180e+03
1.943896e+03,1.974960e+03
1.944860e+03,1.977941e+03
1.945825e+03,1.977179e+03
1.946789e+03,1.974168e+03
1.947753e+03,1.966391e+03
1.948717e+03,1.959555e+03
1.949682e+03,1.955004e+03
1.950646e+03,1.953231e+03
1.951610e+03,1.955780e+03
1.952574e+03,1.959673e+03
1.953539e+03,1.961331e+03
1.954503e+03,1.961015e+03
1.955467e+03,1.959893e+03
1.956431e+03,1.957786e+03
1.957396e+03,1.950234e+03
1.958360e+03,1.940375e+03
1.959324e+03,1.939387e+03
1.960288e+03,1.946585e+03
1.961252e+03,1.946234e+03
1.962217e+03,1.935782e+03
1.963181e+03,1.926666e+03
1.964145e+03,1.919741e+03
1.965109e+03,1.918376e+03
1.966074e+03,1.929270e+03
1.967038e+03,1.939301e+03
1.968002e+03,1.946265e+03
1.968966e+03,1.946117e+03
1.969931e+03,1.934601e+03
1.970895e+03,1.923248e+03
1.971859e+03,1.924910e+03
1.972823e+03,1.928020e+03
1.973787e+03,1.926702e+03
1.974752e+03,1.922868e+03
1.975716e+03,1.918625e+03
1.976680e+03,1.914777e+03
1.977644e+03,1.916581e+03
1.978609e+03,1.919288e+03
1.979573e+03,1.909493e+03
1.980537e+03,1.892891e+03
1.981501e+03,1.893624e+03
1.982466e+03,1.906208e+03
1.983430e+03,1.913077e+03
1.984394e+03,1.912429e+03
1.985358e+03,1.900260e+03
1.986323e+03,1.879538e+03
1.987287e+03,1.872645e+03
1.988251e+03,1.890193e+03
1.989215e+03,1.894740e+03
1.990179e+03,1.880024e+03
1.991144e+03,1.867413e+03
1.992108e+03,1.862562e+03
1.993072e+03,1.861269e+03
1.994036e+03,1.860515e+03
1.995001e+03,1.861389e+03
1.995965e+03,1.864192e+03
1.996929e+03,1.868629e+03
1.997893e+03,1.876837e+03
1.998858e+03,1.881371e+03
1.999822e+03,1.872244e+03
2.000786e+03,1.859198e+03
2.001750e+03,1.850730e+03
2.002714e+03,1.847798e+03
2.003679e+03,1.852458e+03
2.004643e+03,1.859205e+03
2.005607e+03,1.860683e+03
2.006571e+03,1.858020e+03
2.007536e+03,1.853193e+03
2.008500e+03,1.846837e+03
2.009464e+03,1.838416e+03
2.010428e+03,1.829494e+03
2.011393e+03,1.830392e+03
2.012357e+03,1.842369e+03
2.013321e+03,1.845441e+03
2.014285e+03,1.837475e+03
2.015250e+03,1.828054e+03
2.016214e+03,1.817930e+03
2.017178e+03,1.815516e+03
2.018142e+03,1.822324e+03
2.019106e+03,1.828259e+03
2.020071e+03,1.828327e+03
2.021035e+03,1.824593e+03
2.021999e+03,1.812744e+03
2.022963e+03,1.807631e+03
2.023928e+03,1.818336e+03
2.024892e+03,1.829737e+03
2.025856e+03,1.823402e+03
2.026820e+03,1.811741e+03
2.027785e+03,1.800862e+03
2.028749e+03,1.792383e+03
2.029713e+03,1.790309e+03
2.030677e+03,1.792186e+03
2.031641e+03,1.795444e+03
2.032606e+03,1.798772e+03
2.033570e+03,1.800227e+03
2.034534e+03,1.800043e+03
2.035498e+03,1.803740e+03
2.036463e+03,1.807190e+03
2.037427e+03,1.795977e+03
2.038391e+03,1.771801e+03
2.039355e+03,1.768204e+03
2.040320e+03,1.780245e+03
2.041284e+03,1.785524e+03
2.042248e+03,1.778442e+03
2.043212e+03,1.773096e+03
2.044177e+03,1.771379e+03
2.045141e+03,1.766716e+03
2.046105e+03,1.757954e+03
2.047069e+03,1.754083e+03
2.048033e+03,1.763208e+03
2.048998e+03,1.768659e+03
2.049962e+03,1.769701e+03
2.050926e+03,1.768250e+03
2.051890e+03,1.763796e+03
2.052854e+03,1.759527e+03
2.053819e+03,1.755284e+03
2.054783e+03,1.751422e+03
2.055747e+03,1.749807e+03
2.056711e+03,1.749202e+03
2.057676e+03,1.748903e+03
2.058640e+03,1.747764e+03
2.059604e+03,1.743658e+03
2.060568e+03,1.737795e+03
2.061533e+03,1.730820e+03
2.062497e+03,1.726384e+03
2.063461e+03,1.731830e+03
2.064425e+03,1.738546e+03
2.065390e+03,1.731352e+03
2.066354e+03,1.718701e+03
2.067318e+03,1.718573e+03
2.068282e+03,1.725717e+03
2.069247e+03,1.726773e+03
2.070211e+03,1.722351e+03
2.071175e+03,1.719400e+03
2.072139e+03,1.718105e+03
2.073104e+03,1.719895e+03
2.074068e+03,1.724471e+03
2.075032e+03,1.717888e+03
2.075996e+03,1.703337e+03
2.076960e+03,1.698746e+03
2.077925e+03,1.707368e+03
2.078889e+03,1.715177e+03
2.079853e+03,1.721372e+03
2.080817e+03,1.721638e+03
2.081782e+03,1.715568e+03
2.082746e+03,1.706685e+03
2.083710e+03,1.694984e+03
2.084674e+03,1.688051e+03
2.085639e+03,1.687226e+03
2.086603e+03,1.687712e+03
2.087567e+03,1.682223e+03
2.088531e+03,1.681531e+03
2.089496e+03,1.687583e+03
2.090460e+03,1.688891e+03
2.091424e+03,1.681866e+03
2.092388e+03,1.675124e+03
2.093353e+03,1.672333e+03
2.094317e+03,1.671526e+03
2.095281e+03,1.670845e+03
2.096245e+03,1.669532e+03
2.097209e+03,1.666331e+03
2.098174e+03,1.663543e+03
2.099138e+03,1.662227e+03
2.100102e+03,1.663640e+03
2.101066e+03,1.676680e+03
2.102031e+03,1.684415e+03
2.102995e+03,1.661684e+03
2.103959e+03,1.636136e+03
2.104923e+03,1.628813e+03
2.105887e+03,1.635337e+03
2.106852e+03,1.655371e+03
2.107816e+03,1.673259e+03
2.108780e+03,1.673838e+03
2.109744e+03,1.663071e+03
2.110708e+03,1.654143e+03
2.111673e+03,1.647664e+03
2.112637e+03,1.642327e+03
2.113601e+03,1.637589e+03
2.114565e+03,1.636486e+03
2.115530e+03,1.636982e+03
2.116494e+03,1.632966e+03
2.117458e+03,1.628505e+03
2.118422e+03,1.631467e+03
2.119387e+03,1.639050e+03
2.120351e+03,1.644941e+03
2.121315e+03,1.647519e+03
2.122279e+03,1.645226e+03
2.123244e+03,1.638005e+03
2.124208e+03,1.636589e+03
2.125172e+03,1.638760e+03
2.126136e+03,1.633243e+03
2.127101e+03,1.616548e+03
2.128065e+03,1.608052e+03
2.129029e+03,1.606984e+03
2.129993e+03,1.612386e+03
2.130958e+03,1.622533e+03
2.131922e+03,1.626902e+03
2.132886e+03,1.625173e+03
2.133850e+03,1.621583e+03
2.134814e+03,1.618212e+03
2.135779e+03,1.614330e+03
2.136743e+03,1.607584e+03
2.137707e+03,1.603089e+03
2.138671e+03,1.601545e+03
2.139636e+03,1.599993e+03
2.140600e+03,1.597635e+03
2.141564e+03,1.592782e+03
2.142528e+03,1.585523e+03
2.143493e+03,1.579112e+03
2.144457e+03,1.572699e+03
2.145421e+03,1.573590e+03
2.146385e+03,1.587314e+03
2.147350e+03,1.591490e+03
2.148314e+03,1.579747e+03
2.149278e+03,1.569461e+03
2.150242e+03,1.570127e+03
2.151207e+03,1.573055e+03
2.152171e+03,1.577174e+03
2.153135e+03,1.577092e+03
2.154099e+03,1.565343e+03
2.155063e+03,1.559411e+03
2.156028e+03,1.564542e+03
2.156992e+03,1.570720e+03
2.157956e+03,1.571568e+03
2.158920e+03,1.564789e+03
2.159885e+03,1.543542e+03
2.160849e+03,1.530200e+03
2.161813e+03,1.538237e+03
2.162777e+03,1.550473e+03
2.163741e+03,1.556280e+03
2.164706e+03,1.556296e+03
2.165670e+03,1.551415e+03
2.166634e+03,1.545929e+03
2.167598e+03,1.539522e+03
2.168563e+03,1.538726e+03
2.169527e+03,1.546136e+03
2.170491e+03,1.553154e+03
2.171455e+03,1.553435e+03
2.172420e+03,1.549998e+03
2.173384e+03,1.543424e+03
2.174348e+03,1.537586e+03
2.175312e+03,1.534685e+03
2.176277e+03,1.533455e+03
2.177241e+03,1.533874e+03
2.178205e+03,1.535395e+03
2.179169e+03,1.541072e+03
2.180134e+03,1.544086e+03
2.181098e+03,1.525562e+03
2.182062e+03,1.509808e+03
2.183026e+03,1.513098e+03
2.183990e+03,1.523302e+03
2.184955e+03,1.524765e+03
2.185919e+03,1.522424e+03
2.186883e+03,1.518075e+03
2.187847e+03,1.514566e+03
2.188812e+03,1.519841e+03
2.189776e+03,1.525234e+03
2.190740e+03,1.517935e+03
2.191704e+03,1.506867e+03
2.192668e+03,1.499691e+03
2.193633e+03,1.495896e+03
2.194597e+03,1.495289e+03
2.195561e+03,1.497412e+03
2.196525e+03,1.502735e+03
2.197490e+03,1.506642e+03
2.198454e+03,1.498653e+03
2.199418e+03,1.487276e+03
2.200382e+03,1.480391e+03
2.201347e+03,1.477489e+03
2.202311e+03,1.475619e+03
2.203275e+03,1.476290e+03
2.204239e+03,1.481361e+03
2.205204e+03,1.486598e+03
2.206168e+03,1.488774e+03
2.207132e+03,1.490004e+03
2.208096e+03,1.496070e+03
2.209061e+03,1.496135e+03
2.210025e+03,1.470800e+03
2.210989e+03,1.440777e+03
2.211953e+03,1.442323e+03
2.212917e+03,1.458078e+03
2.213882e+03,1.467605e+03
2.214846e+03,1.470967e+03
2.215810e+03,1.467933e+03
2.216774e+03,1.461546e+03
2.217739e+03,1.457969e+03
2.218703e+03,1.455848e+03
2.219667e+03,1.449336e+03
2.220631e+03,1.445551e+03
2.221595e+03,1.454508e+03
2.222560e+03,1.463430e+03
2.223524e+03,1.448959e+03
2.224488e+03,1.429836e+03
2.225452e+03,1.430695e+03
2.226417e+03,1.437948e+03
2.227381e+03,1.438035e+03
2.228345e+03,1.436914e+03
2.229309e+03,1.444289e+03
2.230274e+03,1.448726e+03
2.231238e+03,1.437179e+03
2.232202e+03,1.422700e+03
2.233166e+03,1.431399e+03
2.234131e+03,1.441940e+03
2.235095e+03,1.436329e+03
2.236059e+03,1.425148e+03
2.237023e+03,1.421986e+03
2.237988e+03,1.423079e+03
2.238952e+03,1.426028e+03
2.239916e+03,1.427389e+03
2.240880e+03,1.424946e+03
2.241844e+03,1.418433e+03
2.242809e+03,1.403410e+03
2.243773e+03,1.393070e+03
2.244737e+03,1.406746e+03
2.245701e+03,1.422084e+03
2.246666e+03,1.418947e+03
2.247630e+03,1.411326e+03
2.248594e+03,1.409219e+03
2.249558e+03,1.409398e+03
2.250522e+03,1.409083e+03
2.251487e+03,1.407319e+03
2.252451e+03,1.401507e+03
2.253415e+03,1.393806e+03
2.254379e+03,1.387817e+03
2.255344e+03,1.383477e+03
2.256308e+03,1.380943e+03
2.257272e+03,1.380290e+03
2.258236e+03,1.384319e+03
2.259201e+03,1.385501e+03
2.260165e+03,1.380260e+03
2.261129e+03,1.374224e+03
2.262093e+03,1.371571e+03
2.263058e+03,1.370161e+03
2.264022e+03,1.370699e+03
2.264986e+03,1.371146e+03
2.265950e+03,1.366626e+03
2.266915e+03,1.366029e+03
2.267879e+03,1.371937e+03
2.268843e+03,1.375349e+03
2.269807e+03,1.373799e+03
2.270771e+03,1.371522e+03
2.271736e+03,1.371911e+03
2.272700e+03,1.365812e+03
2.273664e+03,1.347341e+03
2.274628e+03,1.336460e+03
2.275593e+03,1.345553e+03
2.276557e+03,1.351272e+03
2.277521e+03,1.351317e+03
2.278485e+03,1.349040e+03
2.279449e+03,1.342409e+03
2.280414e+03,1.344379e+03
2.281378e+03,1.355071e+03
2.282342e+03,1.361007e+03
2.283306e+03,1.349720e+03
2.284271e+03,1.342288e+03
2.285235e+03,1.338360e+03
2.286199e+03,1.337241e+03
2.287163e+03,1.342014e+03
2.288128e+03,1.343912e+03
2.289092e+03,1.342068e+03
2.290056e+03,1.341717e+03
2.291020e+03,1.344451e+03
2.291985e+03,1.340480e+03
2.292949e+03,1.331866e+03
2.293913e+03,1.329167e+03
2.294877e+03,1.332358e+03
2.295842e+03,1.331935e+03
2.296806e+03,1.327586e+03
2.297770e+03,1.327078e+03
2.298734e+03,1.329521e+03
2.299698e+03,1.330403e+03
2.300663e+03,1.329875e+03
2.301627e+03,1.327610e+03
2.302591e+03,1.322625e+03
2.303555e+03,1.312083e+03
2.304520e+03,1.299285e+03
2.305484e+03,1.299147e+03
2.306448e+03,1.306260e+03
2.307412e+03,1.312131e+03
2.308376e+03,1.314569e+03
2.309341e+03,1.307217e+03
2.310305e+03,1.296750e+03
2.311269e+03,1.293079e+03
2.312233e+03,1.293722e+03
2.313198e+03,1.292917e+03
2.314162e+03,1.292718e+03
2.315126e+03,1.298564e+03
2.316090e+03,1.302654e+03
2.317055e+03,1.292436e+03
2.318019e+03,1.282320e+03
2.318983e+03,1.286223e+03
2.319947e+03,1.292957e+03
2.320912e+03,1.298904e+03
2.321876e+03,1.300357e+03
2.322840e+03,1.287768e+03
2.323804e+03,1.281888e+03
2.324769e+03,1.297541e+03
2.325733e+03,1.309175e+03
2.326697e+03,1.292729e+03
2.327661e+03,1.277981e+03
2.328625e+03,1.271734e+03
2.329590e+03,1.269214e+03
2.330554e+03,1.272152e+03
2.331518e+03,1.271322e+03
2.332482e+03,1.264987e+03
2.333447e+03,1.259449e+03
2.334411e+03,1.257262e+03
2.335375e+03,1.256912e+03
2.336339e+03,1.258430e+03
2.337303e+03,1.263810e+03
2.338268e+03,1.277478e+03
2.339232e+03,1.278540e+03
2.340196e+03,1.269354e+03
2.341160e+03,1.263505e+03
2.342125e+03,1.264616e+03
2.343089e+03,1.264999e+03
2.344053e+03,1.262967e+03
2.345017e+03,1.257182e+03
2.345982e+03,1.249487e+03
2.346946e+03,1.254754e+03
2.347910e+03,1.266473e+03
2.348874e+03,1.260881e+03
2.349839e+03,1.243298e+03
2.350803e+03,1.238075e+03
2.351767e+03,1.240090e+03
2.352731e+03,1.238428e+03
2.353696e+03,1.236351e+03
2.354660e+03,1.239089e+03
2.355624e+03,1.242682e+03
2.356588e+03,1.242237e+03
2.357552e+03,1.240619e+03
2.358517e+03,1.240538e+03
2.359481e+03,1.240225e+03
2.360445e+03,1.236935e+03
2.361409e+03,1.231338e+03
2.362374e+03,1.222636e+03
2.363338e+03,1.215303e+03
2.364302e+03,1.216877e+03
2.365266e+03,1.220505e+03
2.366230e+03,1.223783e+03
2.367195e+03,1.225723e+03
2.368159e+03,1.224386e+03
2.369123e+03,1.222024e+03
2.370087e+03,1.219987e+03
2.371052e+03,1.218925e+03
2.372016e+03,1.219868e+03
2.372980e+03,1.219902e+03
2.373944e+03,1.218538e+03
2.374909e+03,1.217877e+03
2.375873e+03,1.220123e+03
2.376837e+03,1.215252e+03
2.377801e+03,1.205188e+03
2.378766e+03,1.196609e+03
2.379730e+03,1.190781e+03
2.380694e+03,1.193323e+03
2.381658e+03,1.200750e+03
2.382623e+03,1.199771e+03
2.383587e+03,1.193660e+03
2.384551e+03,1.197712e+03
2.385515e+03,1.204103e+03
2.386479e+03,1.198695e+03
2.387444e+03,1.189907e+03
2.388408e+03,1.192543e+03
2.389372e+03,1.196552e+03
2.390336e+03,1.187932e+03
2.391301e+03,1.179625e+03
2.392265e+03,1.187702e+03
2.393229e+03,1.194742e+03
2.394193e+03,1.189729e+03
2.395157e+03,1.183513e+03
2.396122e+03,1.183378e+03
2.397086e+03,1.182590e+03
2.398050e+03,1.179093e+03
2.399014e+03,1.177220e+03
2.399979e+03,1.179727e+03
2.400943e+03,1.175951e+03
2.401907e+03,1.163871e+03
2.402871e+03,1.152746e+03
2.403836e+03,1.145107e+03
2.404800e+03,1.153148e+03
2.405764e+03,1.174821e+03
2.406728e+03,1.182881e+03
2.407693e+03,1.175718e+03
2.408657e+03,1.169119e+03
2.409621e+03,1.165052e+03
2.410585e+03,1.167007e+03
2.411550e+03,1.172015e+03
2.412514e+03,1.172655e+03
2.413478e+03,1.169519e+03
2.414442e+03,1.163516e+03
2.415406e+03,1.155795e+03
2.416371e+03,1.145194e+03
2.417335e+03,1.137910e+03
2.418299e+03,1.146565e+03
2.419263e+03,1.158172e+03
2.420228e+03,1.167877e+03
2.421192e+03,1.169163e+03
2.422156e+03,1.144845e+03
2.423120e+03,1.131849e+03
2.424084e+03,1.138893e+03
2.425049e+03,1.146189e+03
2.426013e+03,1.145506e+03
2.426977e+03,1.139542e+03
2.427941e+03,1.129789e+03
2.428906e+03,1.126732e+03
2.429870e+03,1.133370e+03
2.430834e+03,1.137351e+03
2.431798e+03,1.138519e+03
2.432763e+03,1.135210e+03
2.433727e+03,1.127971e+03
2.434691e+03,1.123234e+03
2.435655e+03,1.121527e+03
2.436620e+03,1.125703e+03
2.437584e+03,1.131723e+03
2.438548e+03,1.127841e+03
2.439512e+03,1.122625e+03
2.440477e+03,1.124714e+03
2.441441e+03,1.128214e+03
2.442405e+03,1.128814e+03
2.443369e+03,1.124003e+03
2.444333e+03,1.112081e+03
2.445298e+03,1.104002e+03
2.446262e+03,1.113230e+03
2.447226e+03,1.120722e+03
2.448190e+03,1.123760e+03
2.449155e+03,1.122982e+03
2.450119e+03,1.113711e+03
2.451083e+03,1.116723e+03
2.452047e+03,1.129508e+03
2.453011e+03,1.128406e+03
2.453976e+03,1.107326e+03
2.454940e+03,1.104158e+03
2.455904e+03,1.113534e+03
2.456868e+03,1.116926e+03
2.457833e+03,1.114182e+03
2.458797e+03,1.110990e+03
2.459761e+03,1.107805e+03
2.460725e+03,1.104381e+03
2.461690e+03,1.100527e+03
2.462654e+03,1.094433e+03
2.463618e+03,1.090834e+03
2.464582e+03,1.094142e+03
2.465547e+03,1.096687e+03
2.466511e+03,1.084537e+03
2.467475e+03,1.079819e+03
2.468439e+03,1.087579e+03
2.469404e+03,1.094491e+03
2.470368e+03,1.093500e+03
2.471332e+03,1.093289e+03
2.472296e+03,1.093253e+03
2.473260e+03,1.091062e+03
2.474225e+03,1.086161e+03
2.475189e+03,1.079564e+03
2.476153e+03,1.074415e+03
2.477117e+03,1.081850e+03
2.478082e+03,1.095198e+03
2.479046e+03,1.093766e+03
2.480010e+03,1.084848e+03
2.480974e+03,1.077263e+03
2.481938e+03,1.072745e+03
2.482903e+03,1.076078e+03
2.483867e+03,1.079132e+03
2.484831e+03,1.077269e+03
2.485795e+03,1.073419e+03
2.486760e+03,1.070383e+03
2.487724e+03,1.066134e+03
2.488688e+03,1.060686e+03
2.489652e+03,1.057657e+03
2.490617e+03,1.060050e+03
2.491581e+03,1.057198e+03
2.492545e+03,1.051195e+03
2.493509e+03,1.053415e+03
2.494474e+03,1.063572e+03
2.495438e+03,1.064965e+03
2.496402e+03,1.060620e+03
2.497366e+03,1.055393e+03
2.498331e+03,1.051944e+03
2.499295e+03,1.059195e+03
2.500259e+03,1.064638e+03
2.501223e+03,1.057964e+03
2.502188e+03,1.049175e+03
2.503152e+03,1.046254e+03
2.504116e+03,1.049558e+03
2.505080e+03,1.059588e+03
2.506044e+03,1.064939e+03
2.507009e+03,1.049476e+03
2.507973e+03,1.048903e+03
2.508937e+03,1.063044e+03
2.509901e+03,1.065612e+03
2.510865e+03,1.049008e+03
2.511830e+03,1.040646e+03
2.512794e+03,1.037887e+03
2.513758e+03,1.036252e+03
2.514722e+03,1.035995e+03
2.515687e+03,1.039098e+03
2.516651e+03,1.041784e+03
2.517615e+03,1.039507e+03
2.518579e+03,1.036640e+03
2.519544e+03,1.040266e+03
2.520508e+03,1.042785e+03
2.521472e+03,1.041881e+03
2.522436e+03,1.038706e+03
2.523401e+03,1.031402e+03
2.524365e+03,1.027774e+03
2.525329e+03,1.027424e+03
2.526293e+03,1.030344e+03
2.527258e+03,1.037993e+03
2.528222e+03,1.034202e+03
2.529186e+03,1.023254e+03
2.530150e+03,1.019224e+03
2.531115e+03,1.020741e+03
2.532079e+03,1.021097e+03
2.533043e+03,1.018864e+03
2.534007e+03,1.010985e+03
2.534971e+03,1.003944e+03
2.535936e+03,1.010557e+03
2.536900e+03,1.017523e+03
2.537864e+03,1.020526e+03
2.538828e+03,1.019406e+03
2.539792e+03,1.009897e+03
2.540757e+03,1.008646e+03
2.541721e+03,1.016955e+03
2.542685e+03,1.018707e+03
2.543649e+03,1.013517e+03
2.544614e+03,1.010884e+03
2.545578e+03,1.009305e+03
2.546542e+03,1.002678e+03
2.547506e+03,9.965867e+02
2.548471e+03,1.008149e+03
2.549435e+03,1.023038e+03
2.550399e+03,1.030121e+03
2.551363e+03,1.030824e+03
2.552328e+03,1.024315e+03
2.553292e+03,1.019033e+03
2.554256e+03,1.018002e+03
2.555220e+03,1.018284e+03
2.556185e+03,1.018999e+03
2.557149e+03,1.013607e+03
2.558113e+03,1.001422e+03
2.559077e+03,9.946851e+02
2.560042e+03,9.932770e+02
2.561006e+03,1.003168e+03
2.561970e+03,1.016102e+03
2.562934e+03,1.007851e+03
2.563898e+03,9.961608e+02
2.564863e+03,1.003495e+03
2.565827e+03,1.012110e+03
2.566791e+03,1.012244e+03
2.567755e+03,1.006736e+03
2.568719e+03,9.950945e+02
2.569684e+03,9.884074e+02
2.570648e+03,9.933438e+02
2.571612e+03,1.002797e+03
2.572576e+03,1.014715e+03
2.573541e+03,1.010643e+03
2.574505e+03,9.928979e+02
2.575469e+03,9.929869e+02
2.576433e+03,9.980497e+02
2.577398e+03,9.876601e+02
2.578362e+03,9.747061e+02
2.579326e+03,9.801161e+02
2.580290e+03,9.839692e+02
2.581255e+03,9.767142e+02
2.582219e+03,9.695115e+02
2.583183e+03,9.720038e+02
2.584147e+03,9.733196e+02
2.585112e+03,9.742402e+02
2.586076e+03,9.745087e+02
2.587040e+03,9.740286e+02
2.588004e+03,9.788107e+02
2.588969e+03,9.843397e+02
2.589933e+03,9.832228e+02
2.590897e+03,9.774637e+02
2.591861e+03,9.675042e+02
2.592825e+03,9.596182e+02
2.593790e+03,9.572452e+02
2.594754e+03,9.574836e+02
2.595718e+03,9.587327e+02
2.596682e+03,9.632703e+02
2.597646e+03,9.715621e+02
2.598611e+03,9.667527e+02
2.599575e+03,9.503939e+02
2.600539e+03,9.421570e+02
2.601503e+03,9.421747e+02
2.602468e+03,9.418437e+02
2.603432e+03,9.409287e+02
2.604396e+03,9.387144e+02
2.605360e+03,9.388583e+02
2.606325e+03,9.467967e+02
2.607289e+03,9.524122e+02
2.608253e+03,9.513719e+02
2.609217e+03,9.500315e+02
2.610182e+03,9.501091e+02
2.611146e+03,9.475182e+02
2.612110e+03,9.429397e+02
2.613074e+03,9.402786e+02
2.614039e+03,9.398978e+02
2.615003e+03,9.356702e+02
2.615967e+03,9.318678e+02
2.616931e+03,9.389003e+02
2.617896e+03,9.478322e+02
2.618860e+03,9.453611e+02
2.619824e+03,9.426286e+02
2.620788e+03,9.438927e+02
2.621752e+03,9.426542e+02
2.622717e+03,9.333856e+02
2.623681e+03,9.317620e+02
2.624645e+03,9.368738e+02
2.625609e+03,9.374282e+02
2.626573e+03,9.336270e+02
2.627538e+03,9.322360e+02
2.628502e+03,9.342394e+02
2.629466e+03,9.412878e+02
2.630430e+03,9.463439e+02
2.631395e+03,9.333333e+02
2.632359e+03,9.264673e+02
2.633323e+03,9.380283e+02
2.634287e+03,9.404481e+02
2.635252e+03,9.283914e+02
2.636216e+03,9.217607e+02
2.637180e+03,9.235974e+02
2.638144e+03,9.258744e+02
2.639109e+03,9.271756e+02
2.640073e+03,9.242980e+02
2.641037e+03,9.215338e+02
2.642001e+03,9.245578e+02
2.642966e+03,9.251122e+02
2.643930e+03,9.178141e+02
2.644894e+03,9.121537e+02
2.645858e+03,9.173865e+02
2.646823e+03,9.188941e+02
2.647787e+03,9.156242e+02
2.648751e+03,9.116225e+02
2.649715e+03,9.079607e+02
2.650679e+03,9.144493e+02
2.651644e+03,9.235953e+02
2.652608e+03,9.237087e+02
2.653572e+03,9.192435e+02
2.654536e+03,9.129318e+02
2.655500e+03,9.137621e+02
2.656465e+03,9.271314e+02
2.657429e+03,9.309046e+02
2.658393e+03,9.166658e+02
2.659357e+03,9.091342e+02
2.660322e+03,9.115980e+02
2.661286e+03,9.126595e+02
2.662250e+03,9.114975e+02
2.663214e+03,9.036345e+02
2.664179e+03,8.975649e+02
2.665143e+03,9.091158e+02
2.666107e+03,9.180733e+02
2.667071e+03,9.136995e+02
2.668036e+03,9.083383e+02
2.669000e+03,9.059387e+02
2.669964e+03,9.081895e+02
2.670928e+03,9.133992e+02
2.671893e+03,9.131723e+02
2.672857e+03,9.080958e+02
2.673821e+03,8.974046e+02
2.674785e+03,8.887534e+02
2.675750e+03,8.910930e+02
2.676714e+03,8.976684e+02
2.677678e+03,9.027959e+02
2.678642e+03,9.053494e+02
2.679606e+03,9.052455e+02
2.680571e+03,9.030728e+02
2.681535e+03,8.990429e+02
2.682499e+03,8.911260e+02
2.683463e+03,8.825041e+02
2.684427e+03,8.871189e+02
2.685392e+03,8.965358e+02
2.686356e+03,8.932068e+02
2.687320e+03,8.890184e+02
2.688284e+03,8.946896e+02
2.689249e+03,8.955067e+02
2.690213e+03,8.882169e+02
2.691177e+03,8.845212e+02
2.692141e+03,8.896638e+02
2.693106e+03,8.914211e+02
2.694070e+03,8.901604e+02
2.695034e+03,8.841841e+02
2.695998e+03,8.787467e+02
2.696963e+03,8.855204e+02
2.697927e+03,8.937188e+02
2.698891e+03,8.976205e+02
2.699855e+03,8.954308e+02
2.700820e+03,8.851695e+02
2.701784e+03,8.817828e+02
2.702748e+03,8.848293e+02
2.703712e+03,8.819333e+02
2.704677e+03,8.755305e+02
2.705641e+03,8.777562e+02
2.706605e+03,8.832668e+02
2.707569e+03,8.864037e+02
2.708533e+03,8.835714e+02
2.709498e+03,8.723572e+02
2.710462e+03,8.636680e+02
2.711426e+03,8.636224e+02
2.712390e+03,8.710432e+02
2.713354e+03,8.818878e+02
2.714319e+03,8.755840e+02
2.715283e+03,8.622639e+02
2.716247e+03,8.708849e+02
2.717211e+03,8.817141e+02
2.718176e+03,8.804854e+02
2.719140e+03,8.770042e+02
2.720104e+03,8.768537e+02
2.721068e+03,8.801795e+02
2.722033e+03,8.858968e+02
2.722997e+03,8.766976e+02
2.723961e+03,8.584433e+02
2.724925e+03,8.635426e+02
2.725890e+03,8.743727e+02
2.726854e+03,8.597732e+02
2.727818e+03,8.464155e+02
2.728782e+03,8.478260e+02
2.729747e+03,8.532662e+02
2.730711e+03,8.601607e+02
2.731675e+03,8.644387e+02
2.732639e+03,8.665098e+02
2.733604e+03,8.667074e+02
2.734568e+03,8.651613e+02
2.735532e+03,8.600528e+02
2.736496e+03,8.548173e+02
2.737460e+03,8.527048e+02
2.738425e+03,8.508096e+02
2.739389e+03,8.462751e+02
2.740353e+03,8.458098e+02
2.741317e+03,8.506444e+02
2.742281e+03,8.543983e+02
2.743246e+03,8.559479e+02
2.744210e+03,8.454268e+02
2.745174e+03,8.353145e+02
2.746138e+03,8.505898e+02
2.747103e+03,8.604020e+02
2.748067e+03,8.528954e+02
2.749031e+03,8.470667e+02
2.749995e+03,8.544409e+02
2.750960e+03,8.497072e+02
2.751924e+03,8.384579e+02
2.752888e+03,8.391745e+02
2.753852e+03,8.460783e+02
2.754817e+03,8.479118e+02
2.755781e+03,8.457064e+02
2.756745e+03,8.382554e+02
2.757709e+03,8.352072e+02
2.758674e+03,8.383865e+02
2.759638e+03,8.439124e+02
2.760602e+03,8.506258e+02
2.761566e+03,8.536700e+02
2.762531e+03,8.517607e+02
2.763495e+03,8.360850e+02
2.764459e+03,8.234133e+02
2.765423e+03,8.392878e+02
2.766387e+03,8.478494e+02
2.767352e+03,8.422830e+02
2.768316e+03,8.358399e+02
2.769280e+03,8.315777e+02
2.770244e+03,8.290419e+02
2.771208e+03,8.284420e+02
2.772173e+03,8.290080e+02
2.773137e+03,8.286608e+02
2.774101e+03,8.256756e+02
2.775065e+03,8.248907e+02
2.776030e+03,8.290195e+02
2.776994e+03,8.262839e+02
2.777958e+03,8.173010e+02
2.778922e+03,8.149769e+02
2.779887e+03,8.180965e+02
2.780851e+03,8.226496e+02
2.781815e+03,8.227052e+02
2.782779e+03,8.148840e+02
2.783744e+03,8.104151e+02
2.784708e+03,8.168126e+02
2.785672e+03,8.208493e+02
2.786636e+03,8.216917e+02
2.787601e+03,8.245638e+02
2.788565e+03,8.286891e+02
2.789529e+03,8.292773e+02
2.790493e+03,8.288230e+02
2.791458e+03,8.271205e+02
2.792422e+03,8.280881e+02
2.793386e+03,8.330432e+02
2.794350e+03,8.388765e+02
2.795314e+03,8.441464e+02
2.796279e+03,8.448489e+02
2.797243e+03,8.398026e+02
2.798207e+03,8.275384e+02
2.799171e+03,8.180667e+02
2.800135e+03,8.276696e+02
2.801100e+03,8.326768e+02
2.802064e+03,8.280487e+02
2.803028e+03,8.233080e+02
2.803992e+03,8.189742e+02
2.804957e+03,8.106868e+02
2.805921e+03,8.025186e+02
2.806885e+03,7.984806e+02
2.807849e+03,8.048401e+02
2.808814e+03,8.246074e+02
2.809778e+03,8.321604e+02
2.810742e+03,8.108825e+02
2.811706e+03,8.015136e+02
2.812671e+03,8.031191e+02
2.813635e+03,8.104454e+02
2.814599e+03,8.189005e+02
2.815563e+03,8.222644e+02
2.816528e+03,8.223376e+02
2.817492e+03,8.184571e+02
2.818456e+03,8.152940e+02
2.819420e+03,8.121999e+02
2.820385e+03,7.996353e+02
2.821349e+03,7.847067e+02
2.822313e+03,8.008108e+02
2.823277e+03,8.153424e+02
2.824241e+03,8.001615e+02
2.825206e+03,7.899746e+02
2.826170e+03,8.095105e+02
2.827134e+03,8.196719e+02
2.828098e+03,8.157567e+02
2.829063e+03,8.068207e+02
2.830027e+03,7.976663e+02
2.830991e+03,7.992600e+02
2.831955e+03,8.049329e+02
2.832919e+03,8.107115e+02
2.833884e+03,8.127872e+02
2.834848e+03,8.106832e+02
2.835812e+03,8.044084e+02
2.836776e+03,7.966334e+02
2.837741e+03,8.087935e+02
2.838705e+03,8.217980e+02
2.839669e+03,8.150712e+02
2.840633e+03,8.002795e+02
2.841598e+03,7.829848e+02
2.842562e+03,7.746888e+02
2.843526e+03,7.803043e+02
2.844490e+03,7.897473e+02
2.845455e+03,7.984995e+02
2.846419e+03,7.987043e+02
2.847383e+03,7.980843e+02
2.848347e+03,8.068232e+02
2.849312e+03,8.132813e+02
2.850276e+03,8.149735e+02
2.851240e+03,8.053930e+02
2.852204e+03,7.888686e+02
2.853168e+03,7.898759e+02
2.854133e+03,7.989245e+02
2.855097e+03,8.087347e+02
2.856061e+03,8.107441e+02
2.857025e+03,8.024932e+02
2.857990e+03,7.926830e+02
2.858954e+03,7.840143e+02
2.859918e+03,7.936490e+02
2.860882e+03,8.087471e+02
2.861846e+03,8.089580e+02
2.862811e+03,8.010414e+02
2.863775e+03,7.874382e+02
2.864739e+03,7.828657e+02
2.865703e+03,7.921354e+02
2.866668e+03,7.943971e+02
2.867632e+03,7.925941e+02
2.868596e+03,7.992151e+02
2.869560e+03,8.071495e+02
2.870525e+03,8.098450e+02
2.871489e+03,8.076443e+02
2.872453e+03,8.004680e+02
2.873417e+03,8.040070e+02
2.874382e+03,8.157670e+02
2.875346e+03,8.142282e+02
2.876310e+03,8.043246e+02
2.877274e+03,7.855862e+02
2.878239e+03,7.775545e+02
2.879203e+03,7.855546e+02
2.880167e+03,7.960467e+02
2.881131e+03,8.062711e+02
2.882095e+03,8.103801e+02
2.883060e+03,8.105763e+02
2.884024e+03,8.101157e+02
2.884988e+03,8.097516e+02
2.885952e+03,8.105282e+02
2.886917e+03,8.075608e+02
2.887881e+03,8.003859e+02
2.888845e+03,8.032646e+02
2.889809e+03,8.119615e+02
2.890773e+03,8.170799e+02
2.891738e+03,8.154809e+02
2.892702e+03,7.967546e+02
2.893666e+03,7.903793e+02
2.894630e+03,8.007939e+02
2.895595e+03,8.053803e+02
2.896559e+03,8.034661e+02
2.897523e+03,8.043091e+02
2.898487e+03,8.045726e+02
2.899452e+03,7.976777e+02
2.900416e+03,7.949598e+02
2.901380e+03,7.980650e+02
2.902344e+03,7.981375e+02
2.903309e+03,7.938361e+02
2.904273e+03,7.865003e+02
2.905237e+03,7.805755e+02
2.906201e+03,7.799288e+02
2.907166e+03,7.838327e+02
2.908130e+03,7.918116e+02
2.909094e+03,7.944360e+02
2.910058e+03,7.903790e+02
2.911022e+03,7.886443e+02
2.911987e+03,7.875417e+02
2.912951e+03,7.832188e+02
2.913915e+03,7.840189e+02
2.914879e+03,8.002255e+02
2.915844e+03,8.020572e+02
2.916808e+03,7.885369e+02
2.917772e+03,7.726426e+02
2.918736e+03,7.634330e+02
2.919700e+03,7.761921e+02
2.920665e+03,7.907159e+02
2.921629e+03,7.975257e+02
2.922593e+03,7.905557e+02
2.923557e+03,7.738564e+02
2.924522e+03,7.610147e+02
2.925486e+03,7.567708e+02
2.926450e+03,7.839637e+02
2.927414e+03,8.002751e+02
2.928379e+03,7.810865e+02
2.929343e+03,7.704449e+02
2.930307e+03,7.706927e+02
2.931271e+03,7.685018e+02
2.932236e+03,7.652365e+02
2.933200e+03,7.651047e+02
2.934164e+03,7.619152e+02
2.935128e+03,7.516450e+02
2.936093e+03,7.543260e+02
2.937057e+03,7.688797e+02
2.938021e+03,7.723340e+02
2.938985e+03,7.709288e+02
2.939949e+03,7.773083e+02
2.940914e+03,7.775877e+02
2.941878e+03,7.681142e+02
2.942842e+03,7.592791e+02
2.943806e+03,7.526980e+02
2.944771e+03,7.580777e+02
2.945735e+03,7.676461e+02
2.946699e+03,7.715602e+02
2.947663e+03,7.712180e+02
2.948627e+03,7.668379e+02
2.949592e+03,7.666839e+02
2.950556e+03,7.718102e+02
2.951520e+03,7.644056e+02
2.952484e+03,7.606102e+02
2.953449e+03,7.794059e+02
2.954413e+03,7.902310e+02
2.955377e+03,7.808879e+02
2.956341e+03,7.808870e+02
2.957306e+03,7.903516e+02
2.958270e+03,7.923577e+02
2.959234e+03,7.790181e+02
2.960198e+03,7.448750e+02
2.961163e+03,7.303367e+02
2.962127e+03,7.551954e+02
2.963091e+03,7.614246e+02
2.964055e+03,7.504103e+02
2.965020e+03,7.515204e+02
2.965984e+03,7.480043e+02
2.966948e+03,7.242870e+02
2.967912e+03,7.161542e+02
2.968876e+03,7.459974e+02
2.969841e+03,7.447165e+02
2.970805e+03,7.295557e+02
2.971769e+03,7.394047e+02
2.972733e+03,7.478727e+02
2.973698e+03,7.337878e+02
2.974662e+03,7.288175e+02
2.975626e+03,7.417899e+02
2.976590e+03,7.451733e+02
2.977554e+03,7.444987e+02
2.978519e+03,7.479617e+02
2.979483e+03,7.460610e+02
2.980447e+03,7.311710e+02
2.981411e+03,7.216920e+02
2.982376e+03,7.220935e+02
2.983340e+03,7.374623e+02
2.984304e+03,7.472346e+02
2.985268e+03,7.290817e+02
2.986233e+03,7.210216e+02
2.987197e+03,7.514203e+02
2.988161e+03,7.462947e+02
2.989125e+03,7.184211e+02
2.990090e+03,7.217409e+02
2.991054e+03,7.314241e+02
2.992018e+03,7.267463e+02
2.992982e+03,7.206611e+02
2.993947e+03,7.179387e+02
2.994911e+03,7.300090e+02
2.995875e+03,7.442951e+02
2.996839e+03,7.376326e+02
2.997803e+03,7.279653e+02
2.998768e+03,7.276453e+02
2.999732e+03,7.316855e+02
3.000696e+03,7.388132e+02
3.001660e+03,7.328752e+02
3.002625e+03,7.251563e+02
3.003589e+03,7.284925e+02
3.004553e+03,7.291404e+02
3.005517e+03,7.208774e+02
3.006481e+03,7.192170e+02
3.007446e+03,7.213412e+02
3.008410e+03,7.097170e+02
3.009374e+03,7.087288e+02
3.010338e+03,7.338799e+02
3.011303e+03,7.455826e+02
3.012267e+03,7.297155e+02
3.013231e+03,7.243293e+02
3.014195e+03,7.277728e+02
3.015160e+03,7.405226e+02
3.016124e+03,7.415733e+02
3.017088e+03,7.250595e+02
3.018052e+03,7.287939e+02
3.019017e+03,7.520021e+02
3.019981e+03,7.404314e+02
3.020945e+03,7.202609e+02
3.021909e+03,7.128262e+02
3.022874e+03,7.167953e+02
3.023838e+03,7.275312e+02
3.024802e+03,7.231317e+02
3.025766e+03,7.096236e+02
3.026730e+03,7.006243e+02
3.027695e+03,6.990556e+02
3.028659e+03,7.059103e+02
3.029623e+03,7.166290e+02
3.030587e+03,7.282311e+02
3.031552e+03,7.329893e+02
3.032516e+03,7.315096e+02
3.033480e+03,7.212894e+02
3.034444e+03,7.153248e+02
3.035408e+03,7.160220e+02
3.036373e+03,7.211198e+02
3.037337e+03,7.254891e+02
3.038301e+03,7.137261e+02
3.039265e+03,7.021063e+02
3.040230e+03,6.968609e+02
3.041194e+03,7.044567e+02
3.042158e+03,7.192404e+02
3.043122e+03,7.220027e+02
3.044087e+03,7.219755e+02
3.045051e+03,7.359263e+02
3.046015e+03,7.326767e+02
3.046979e+03,7.013869e+02
3.047944e+03,7.022126e+02
3.048908e+03,7.193782e+02
3.049872e+03,7.270284e+02
3.050836e+03,7.242748e+02
3.051801e+03,7.074894e+02
3.052765e+03,7.051444e+02
3.053729e+03,7.158586e+02
3.054693e+03,7.157363e+02
3.055657e+03,7.146663e+02
3.056622e+03,7.191522e+02
3.057586e+03,7.214141e+02
3.058550e+03,7.195251e+02
3.059514e+03,7.002800e+02
3.060479e+03,6.839103e+02
3.061443e+03,7.114121e+02
3.062407e+03,7.262309e+02
3.063371e+03,7.146765e+02
3.064335e+03,6.991224e+02
3.065300e+03,6.889885e+02
3.066264e+03,7.171304e+02
3.067228e+03,7.398467e+02
3.068192e+03,7.247158e+02
3.069157e+03,7.208793e+02
3.070121e+03,7.308306e+02
3.071085e+03,7.405463e+02
3.072049e+03,7.445216e+02
3.073014e+03,7.322684e+02
3.073978e+03,7.159060e+02
3.074942e+03,6.988528e+02
3.075906e+03,7.052297e+02
3.076871e+03,7.215112e+02
3.077835e+03,7.265178e+02
3.078799e+03,7.257154e+02
3.079763e+03,7.216093e+02
3.080728e+03,7.116847e+02
3.081692e+03,7.013342e+02
3.082656e+03,7.074188e+02
3.083620e+03,7.126137e+02
3.084584e+03,7.072385e+02
3.085549e+03,7.127271e+02
3.086513e+03,7.322241e+02
3.087477e+03,7.138591e+02
3.088441e+03,6.890131e+02
3.089406e+03,6.935605e+02
3.090370e+03,7.030029e+02
3.091334e+03,7.101146e+02
3.092298e+03,6.997051e+02
3.093262e+03,6.847720e+02
3.094227e+03,6.924036e+02
3.095191e+03,7.060591e+02
3.096155e+03,7.212664e+02
3.097119e+03,7.319834e+02
3.098084e+03,7.371118e+02
3.099048e+03,7.339767e+02
3.100012e+03,7.259805e+02
3.100976e+03,7.132948e+02
3.101941e+03,7.076052e+02
3.102905e+03,7.082317e+02
3.103869e+03,7.004996e+02
3.104833e+03,6.940704e+02
3.105798e+03,6.953681e+02
3.106762e+03,6.956113e+02
3.107726e+03,6.939616e+02
3.108690e+03,7.058993e+02
3.109655e+03,7.141693e+02
3.110619e+03,6.869833e+02
3.111583e+03,6.817650e+02
3.112547e+03,7.030760e+02
3.113511e+03,7.175538e+02
3.114476e+03,7.246512e+02
3.115440e+03,7.263658e+02
3.116404e+03,7.293210e+02
3.117368e+03,7.383008e+02
3.118333e+03,7.337495e+02
3.119297e+03,7.223651e+02
3.120261e+03,7.159638e+02
3.121225e+03,7.126826e+02
3.122189e+03,7.108568e+02
3.123154e+03,7.075356e+02
3.124118e+03,7.035969e+02
3.125082e+03,7.072424e+02
3.126046e+03,7.134645e+02
3.127011e+03,7.193862e+02
3.127975e+03,7.090038e+02
3.128939e+03,6.894502e+02
3.129903e+03,7.001038e+02
3.130868e+03,7.154803e+02
3.131832e+03,7.120894e+02
3.132796e+03,7.099344e+02
3.133760e+03,7.115798e+02
3.134725e+03,7.192820e+02
3.135689e+03,7.261624e+02
3.136653e+03,7.256964e+02
3.137617e+03,7.240491e+02
3.138582e+03,7.234679e+02
3.139546e+03,7.396867e+02
3.140510e+03,7.540442e+02
3.141474e+03,7.486666e+02
3.142438e+03,7.376979e+02
3.143403e+03,7.259999e+02
3.144367e+03,7.129094e+02
3.145331e+03,7.036115e+02
3.146295e+03,7.127557e+02
3.147260e+03,7.182863e+02
3.148224e+03,7.145635e+02
3.149188e+03,7.424781e+02
3.150152e+03,7.621373e+02
3.151116e+03,7.185613e+02
3.152081e+03,6.877911e+02
3.153045e+03,7.015948e+02
3.154009e+03,7.229805e+02
3.154973e+03,7.403818e+02
3.155938e+03,7.303973e+02
3.156902e+03,7.233444e+02
3.157866e+03,7.260978e+02
3.158830e+03,7.194808e+02
3.159795e+03,7.121390e+02
3.160759e+03,7.306528e+02
3.161723e+03,7.471796e+02
3.162687e+03,7.507752e+02
3.163652e+03,7.262628e+02
3.164616e+03,6.968126e+02
3.165580e+03,7.046018e+02
3.166544e+03,7.183669e+02
3.167509e+03,7.241017e+02
3.168473e+03,7.363625e+02
3.169437e+03,7.534100e+02
3.170401e+03,7.691234e+02
3.171365e+03,7.732524e+02
3.172330e+03,7.611426e+02
3.173294e+03,7.408691e+02
3.174258e+03,7.226132e+02
3.175222e+03,7.235012e+02
3.176187e+03,7.231883e+02
3.177151e+03,7.057672e+02
3.178115e+03,7.070541e+02
3.179079e+03,7.974274e+02
3.180043e+03,1.327347e+03
3.181008e+03,1.471335e+03
3.181972e+03,9.945788e+02
3.182936e+03,7.347288e+02
3.183900e+03,7.086952e+02
3.184865e+03,7.180692e+02
3.185829e+03,7.323615e+02
3.186793e+03,7.431357e+02
3.187757e+03,7.518015e+02
3.188722e+03,7.537932e+02
3.189686e+03,7.370182e+02
3.190650e+03,7.373131e+02
3.191614e+03,7.640158e+02
3.192579e+03,7.376208e+02
3.193543e+03,6.814268e+02
3.194507e+03,6.812354e+02
3.195471e+03,7.045164e+02
3.196436e+03,7.410352e+02
3.197400e+03,7.719741e+02
3.198364e+03,7.879758e+02
3.199328e+03,7.798917e+02
3.200292e+03,7.615329e+02
3.201257e+03,0.000000e+00
3.202221e+03,0.000000e+00
3.203185e+03,0.000000e+00
3.204149e+03,0.000000e+00
3.205114e+03,0.000000e+00
3.206078e+03,0.000000e+00
3.207042e+03,0.000000e+00
3.208006e+03,0.000000e+00
3.208970e+03,0.000000e+00
3.209935e+03,0.000000e+00
3.210899e+03,0.000000e+00
3.211863e+03,0.000000e+00
3.212827e+03,0.000000e+00
3.213792e+03,0.000000e+00
3.214756e+03,0.000000e+00
3.215720e+03,0.000000e+00
3.216684e+03,0.000000e+00
3.217649e+03,0.000000e+00
3.218613e+03,0.000000e+00
3.219577e+03,0.000000e+00
3.220541e+03,0.000000e+00
3.221506e+03,0.000000e+00
3.222470e+03,0.000000e+00
3.223434e+03,0.000000e+00
3.224398e+03,0.000000e+00
3.225363e+03,0.000000e+00
3.226327e+03,0.000000e+00
3.227291e+03,0.000000e+00
3.228255e+03,0.000000e+00
3.229219e+03,0.000000e+00
3.230184e+03,0.000000e+00
3.231148e+03,0.000000e+00
3.232112e+03,0.000000e+00
3.233076e+03,0.000000e+00
3.234041e+03,0.000000e+00
3.235005e+03,0.000000e+00
3.235969e+03,0.000000e+00
3.236933e+03,0.000000e+00
3.237897e+03,0.000000e+00
3.238862e+03,0.000000e+00
3.239826e+03,0.000000e+00
3.240790e+03,0.000000e+00
3.241754e+03,0.000000e+00
3.242719e+03,0.000000e+00
3.243683e+03,0.000000e+00
3.244647e+03,0.000000e+00
3.245611e+03,0.000000e+00
3.246576e+03,0.000000e+00
3.247540e+03,0.000000e+00
3.248504e+03,0.000000e+00
3.249468e+03,0.000000e+00
3.250433e+03,0.000000e+00
3.251397e+03,0.000000e+00
3.252361e+03,0.000000e+00
3.253325e+03,0.000000e+00
3.254290e+03,0.000000e+00
3.255254e+03,0.000000e+00
3.256218e+03,0.000000e+00
3.257182e+03,0.000000e+00
3.258146e+03,0.000000e+00
3.259111e+03,0.000000e+00
3.260075e+03,0.000000e+00
3.261039e+03,0.000000e+00
3.262003e+03,0.000000e+00
3.262968e+03,0.000000e+00
3.263932e+03,0.000000e+00
3.264896e+03,0.000000e+00
3.265860e+03,0.000000e+00
3.266824e+03,0.000000e+00
3.267789e+03,0.000000e+00
3.268753e+03,0.000000e+00
3.269717e+03,0.000000e+00
3.270681e+03,0.000000e+00
3.271646e+03,0.000000e+00
3.272610e+03,0.000000e+00
3.273574e+03,0.000000e+00
3.274538e+03,0.000000e+00
3.275503e+03,0.000000e+00
3.276467e+03,0.000000e+00
3.277431e+03,0.000000e+00
3.278395e+03,0.000000e+00
3.279360e+03,0.000000e+00
3.280324e+03,0.000000e+00
3.281288e+03,0.000000e+00
3.282252e+03,0.000000e+00
3.283217e+03,0.000000e+00
3.284181e+03,0.000000e+00
3.285145e+03,0.000000e+00
3.286109e+03,0.000000e+00
3.287073e+03,0.000000e+00
3.288038e+03,0.000000e+00
3.289002e+03,0.000000e+00
3.289966e+03,0.000000e+00
3.290930e+03,0.000000e+00
3.291895e+03,0.000000e+00
3.292859e+03,0.000000e+00
3.293823e+03,0.000000e+00
3.294787e+03,0.000000e+00
3.295751e+03,0.000000e+00
3.296716e+03,0.000000e+00
3.297680e+03,0.000000e+00
3.298644e+03,0.000000e+00
3.299608e+03,0.000000e+00
3.300573e+03,0.000000e+00
3.301537e+03,0.000000e+00
3.302501e+03,0.000000e+00
3.303465e+03,0.000000e+00
3.304430e+03,0.000000e+00
3.305394e+03,0.000000e+00
3.306358e+03,0.000000e+00
3.307322e+03,0.000000e+00
3.308287e+03,0.000000e+00
3.309251e+03,0.000000e+00
3.310215e+03,0.000000e+00
3.311179e+03,0.000000e+00
3.312144e+03,0.000000e+00
3.313108e+03,0.000000e+00
3.314072e+03,0.000000e+00
3.315036e+03,0.000000e+00
3.316000e+03,0.000000e+00
3.316965e+03,0.000000e+00
3.317929e+03,0.000000e+00
3.318893e+03,0.000000e+00
3.319857e+03,0.000000e+00
3.320822e+03,0.000000e+00
3.321786e+03,0.000000e+00
3.322750e+03,0.000000e+00
3.323714e+03,0.000000e+00
3.324678e+03,0.000000e+00
3.325643e+03,0.000000e+00
3.326607e+03,0.000000e+00
3.327571e+03,0.000000e+00
3.328535e+03,0.000000e+00
3.329500e+03,0.000000e+00
3.330464e+03,0.000000e+00
3.331428e+03,0.000000e+00
3.332392e+03,0.000000e+00
3.333357e+03,0.000000e+00
3.334321e+03,0.000000e+00
3.335285e+03,0.000000e+00
3.336249e+03,0.000000e+00
3.337214e+03,0.000000e+00
3.338178e+03,0.000000e+00
3.339142e+03,0.000000e+00
3.340106e+03,0.000000e+00
3.341071e+03,0.000000e+00
3.342035e+03,0.000000e+00
3.342999e+03,0.000000e+00
3.343963e+03,0.000000e+00
3.344927e+03,0.000000e+00
3.345892e+03,0.000000e+00
3.346856e+03,0.000000e+00
3.347820e+03,0.000000e+00
3.348784e+03,0.000000e+00
3.349749e+03,0.000000e+00
3.350713e+03,0.000000e+00
3.351677e+03,0.000000e+00
3.352641e+03,0.000000e+00
3.353605e+03,0.000000e+00
3.354570e+03,0.000000e+00
3.355534e+03,0.000000e+00
3.356498e+03,0.000000e+00
3.357462e+03,0.000000e+00
3.358427e+03,0.000000e+00
3.359391e+03,0.000000e+00
3.360355e+03,0.000000e+00
3.361319e+03,0.000000e+00
3.362284e+03,0.000000e+00
3.363248e+03,0.000000e+00
3.364212e+03,0.000000e+00
3.365176e+03,0.000000e+00
3.366141e+03,0.000000e+00
3.367105e+03,0.000000e+00
3.368069e+03,0.000000e+00
3.369033e+03,0.000000e+00
3.369998e+03,0.000000e+00
3.370962e+03,0.000000e+00
3.371926e+03,0.000000e+00
3.372890e+03,0.000000e+00
3.373854e+03,0.000000e+00
3.374819e+03,0.000000e+00
3.375783e+03,0.000000e+00
3.376747e+03,0.000000e+00
3.377711e+03,0.000000e+00
3.378676e+03,0.000000e+00
3.379640e+03,0.000000e+00
3.380604e+03,0.000000e+00
3.381568e+03,0.000000e+00
3.382532e+03,0.000000e+00
3.383497e+03,0.000000e+00
3.384461e+03,0.000000e+00
3.385425e+03,0.000000e+00
3.386389e+03,0.000000e+00
3.387354e+03,0.000000e+00
3.388318e+03,0.000000e+00
3.389282e+03,0.000000e+00
3.390246e+03,0.000000e+00
3.391211e+03,0.000000e+00
3.392175e+03,0.000000e+00
3.393139e+03,0.000000e+00
3.394103e+03,0.000000e+00
3.395068e+03,0.000000e+00
3.396032e+03,0.000000e+00
3.396996e+03,0.000000e+00
3.397960e+03,0.000000e+00
3.398925e+03,0.000000e+00
3.399889e+03,0.000000e+00
3.400853e+03,0.000000e+00
3.401817e+03,0.000000e+00
3.402781e+03,0.000000e+00
3.403746e+03,0.000000e+00
3.404710e+03,0.000000e+00
3.405674e+03,0.000000e+00
3.406638e+03,0.000000e+00
3.407603e+03,0.000000e+00
3.408567e+03,0.000000e+00
3.409531e+03,0.000000e+00
3.410495e+03,0.000000e+00
3.411459e+03,0.000000e+00
3.412424e+03,0.000000e+00
3.413388e+03,0.000000e+00
3.414352e+03,0.000000e+00
3.415316e+03,0.000000e+00
3.416281e+03,0.000000e+00
3.417245e+03,0.000000e+00
3.418209e+03,0.000000e+00
3.419173e+03,0.000000e+00
3.420138e+03,0.000000e+00
3.421102e+03,0.000000e+00
3.422066e+03,0.000000e+00
3.423030e+03,0.000000e+00
3.423995e+03,0.000000e+00
3.424959e+03,0.000000e+00
3.425923e+03,0.000000e+00
3.426887e+03,0.000000e+00
3.427852e+03,0.000000e+00
3.428816e+03,0.000000e+00
3.429780e+03,0.000000e+00
3.430744e+03,0.000000e+00
3.431708e+03,0.000000e+00
3.432673e+03,0.000000e+00
3.433637e+03,0.000000e+00
3.434601e+03,0.000000e+00
3.435565e+03,0.000000e+00
3.436530e+03,0.000000e+00
3.437494e+03,0.000000e+00
3.438458e+03,0.000000e+00
3.439422e+03,0.000000e+00
3.440386e+03,0.000000e+00
3.441351e+03,0.000000e+00
3.442315e+03,0.000000e+00
3.443279e+03,0.000000e+00
3.444243e+03,0.000000e+00
3.445208e+03,0.000000e+00
3.446172e+03,0.000000e+00
3.447136e+03,0.000000e+00
3.448100e+03,0.000000e+00
3.449065e+03,0.000000e+00
3.450029e+03,0.000000e+00
3.450993e+03,0.000000e+00
3.451957e+03,0.000000e+00
3.452922e+03,0.000000e+00
3.453886e+03,0.000000e+00
3.454850e+03,0.000000e+00
3.455814e+03,0.000000e+00
3.456779e+03,0.000000e+00
3.457743e+03,0.000000e+00
3.458707e+03,0.000000e+00
3.459671e+03,0.000000e+00
3.460635e+03,0.000000e+00
3.461600e+03,0.000000e+00
3.462564e+03,0.000000e+00
3.463528e+03,0.000000e+00
3.464492e+03,0.000000e+00
3.465457e+03,0.000000e+00
3.466421e+03,0.000000e+00
3.467385e+03,0.000000e+00
3.468349e+03,0.000000e+00
3.469313e+03,0.000000e+00
3.470278e+03,0.000000e+00
3.471242e+03,0.000000e+00
3.472206e+03,0.000000e+00
3.473170e+03,0.000000e+00
3.474135e+03,0.000000e+00
3.475099e+03,0.000000e+00
3.476063e+03,0.000000e+00
3.477027e+03,0.000000e+00
3.477992e+03,0.000000e+00
3.478956e+03,0.000000e+00
3.479920e+03,0.000000e+00
3.480884e+03,0.000000e+00
3.481849e+03,0.000000e+00
3.482813e+03,0.000000e+00
3.483777e+03,0.000000e+00
3.484741e+03,0.000000e+00
3.485706e+03,0.000000e+00
3.486670e+03,0.000000e+00
3.487634e+03,0.000000e+00
3.488598e+03,0.000000e+00
3.489563e+03,0.000000e+00
3.490527e+03,0.000000e+00
3.491491e+03,0.000000e+00
3.492455e+03,0.000000e+00
3.493419e+03,0.000000e+00
3.494384e+03,0.000000e+00
3.495348e+03,0.000000e+00
3.496312e+03,0.000000e+00
3.497276e+03,0.000000e+00
3.498240e+03,0.000000e+00
3.499205e+03,0.000000e+00
3.500169e+03,0.000000e+00
