9.931763e+01,0.000000e+00
1.002819e+02,0.000000e+00
1.012461e+02,0.000000e+00
1.022103e+02,0.000000e+00
1.031746e+02,0.000000e+00
1.041388e+02,0.000000e+00
1.051030e+02,0.000000e+00
1.060673e+02,0.000000e+00
1.070315e+02,0.000000e+00
1.079957e+02,0.000000e+00
1.089600e+02,0.000000e+00
1.099242e+02,0.000000e+00
1.108884e+02,0.000000e+00
1.118527e+02,0.000000e+00
1.128169e+02,0.000000e+00
1.137811e+02,0.000000e+00
1.147454e+02,0.000000e+00
1.157096e+02,0.000000e+00
1.166738e+02,0.000000e+00
1.176381e+02,0.000000e+00
1.186023e+02,0.000000e+00
1.195665e+02,0.000000e+00
1.205308e+02,0.000000e+00
1.214950e+02,0.000000e+00
1.224592e+02,0.000000e+00
1.234235e+02,0.000000e+00
1.243877e+02,0.000000e+00
1.253519e+02,0.000000e+00
1.263162e+02,0.000000e+00
1.272804e+02,0.000000e+00
1.282446e+02,0.000000e+00
1.292089e+02,0.000000e+00
1.301731e+02,0.000000e+00
1.311373e+02,0.000000e+00
1.321016e+02,0.000000e+00
1.330658e+02,0.000000e+00
1.340300e+02,0.000000e+00
1.349943e+02,0.000000e+00
1.359585e+02,0.000000e+00
1.369227e+02,0.000000e+00
1.378870e+02,0.000000e+00
1.388512e+02,0.000000e+00
1.398154e+02,0.000000e+00
1.407797e+02,0.000000e+00
1.417439e+02,0.000000e+00
1.427081e+02,0.000000e+00
1.436724e+02,0.000000e+00
1.446366e+02,0.000000e+00
1.456008e+02,0.000000e+00
1.465651e+02,0.000000e+00
1.475293e+02,0.000000e+00
1.484935e+02,0.000000e+00
1.494578e+02,0.000000e+00
1.504220e+02,0.000000e+00
1.513862e+02,0.000000e+00
1.523505e+02,0.000000e+00
1.533147e+02,0.000000e+00
1.542789e+02,0.000000e+00
1.552432e+02,0.000000e+00
1.562074e+02,0.000000e+00
1.571716e+02,0.000000e+00
1.581359e+02,0.000000e+00
1.591001e+02,0.000000e+00
1.600643e+02,0.000000e+00
1.610286e+02,0.000000e+00
1.619928e+02,0.000000e+00
1.629570e+02,0.000000e+00
1.639213e+02,0.000000e+00
1.648855e+02,0.000000e+00
1.658497e+02,0.000000e+00
1.668140e+02,0.000000e+00
1.677782e+02,0.000000e+00
1.687424e+02,0.000000e+00
1.697067e+02,0.000000e+00
1.706709e+02,0.000000e+00
1.716351e+02,0.000000e+00
1.725994e+02,0.000000e+00
1.735636e+02,0.000000e+00
1.745278e+02,0.000000e+00
1.754921e+02,0.000000e+00
1.764563e+02,0.000000e+00
1.774205e+02,0.000000e+00
1.783848e+02,0.000000e+00
1.793490e+02,0.000000e+00
1.803132e+02,0.000000e+00
1.812775e+02,0.000000e+00
1.822417e+02,0.000000e+00
1.832059e+02,0.000000e+00
1.841702e+02,0.000000e+00
1.851344e+02,0.000000e+00
1.860986e+02,0.000000e+00
1.870629e+02,0.000000e+00
1.880271e+02,0.000000e+00
1.889913e+02,0.000000e+00
1.899556e+02,0.000000e+00
1.909198e+02,0.000000e+00
1.918840e+02,0.000000e+00
1.928483e+02,0.000000e+00
1.938125e+02,0.000000e+00
1.947767e+02,0.000000e+00
1.957410e+02,0.000000e+00
1.967052e+02,0.000000e+00
1.976694e+02,0.000000e+00
1.986337e+02,0.000000e+00
1.995979e+02,6.348106e+03
2.005621e+02,6.362094e+03
2.015264e+02,6.368356e+03
2.024906e+02,6.352787e+03
2.034548e+02,6.341050e+03
2.044191e+02,6.340430e+03
2.053833e+02,6.348220e+03
2.063475e+02,6.356116e+03
2.073118e+02,6.355819e+03
2.082760e+02,6.344780e+03
2.092402e+02,6.333236e+03
2.102045e+02,6.323497e+03
2.111687e+02,6.316956e+03
2.121329e+02,6.314019e+03
2.130972e+02,6.313865e+03
2.140614e+02,6.314719e+03
2.150256e+02,6.315066e+03
2.159899e+02,6.316321e+03
2.169541e+02,6.316380e+03
2.179183e+02,6.314641e+03
2.188826e+02,6.311091e+03
2.198468e+02,6.307960e+03
2.208110e+02,6.307515e+03
2.217753e+02,6.308833e+03
2.227395e+02,6.306364e+03
2.237037e+02,6.301635e+03
2.246680e+02,6.295166e+03
2.256322e+02,6.285869e+03
2.265964e+02,6.274206e+03
2.275607e+02,6.263365e+03
2.285249e+02,6.255900e+03
2.294892e+02,6.251933e+03
2.304534e+02,6.251518e+03
2.314176e+02,6.252647e+03
2.323819e+02,6.254025e+03
2.333461e+02,6.255788e+03
2.343103e+02,6.261575e+03
2.352746e+02,6.268983e+03
2.362388e+02,6.271617e+03
2.372030e+02,6.265708e+03
2.381673e+02,6.252551e+03
2.391315e+02,6.238947e+03
2.400957e+02,6.229091e+03
2.410600e+02,6.219467e+03
2.420242e+02,6.208314e+03
2.429884e+02,6.198093e+03
2.439527e+02,6.193244e+03
2.449169e+02,6.195499e+03
2.458811e+02,6.204809e+03
2.468454e+02,6.210729e+03
2.478096e+02,6.211604e+03
2.487738e+02,6.210639e+03
2.497381e+02,6.209970e+03
2.507023e+02,6.210085e+03
2.516665e+02,6.210236e+03
2.526308e+02,6.208658e+03
2.535950e+02,6.199157e+03
2.545592e+02,6.190000e+03
2.555235e+02,6.184427e+03
2.564877e+02,6.180356e+03
2.574519e+02,6.175760e+03
2.584161e+02,6.170276e+03
2.593804e+02,6.164862e+03
2.603446e+02,6.160228e+03
2.613088e+02,6.152986e+03
2.622731e+02,6.145940e+03
2.632373e+02,6.139040e+03
2.642015e+02,6.131291e+03
2.651658e+02,6.123492e+03
2.661300e+02,6.119419e+03
2.670942e+02,6.122257e+03
2.680585e+02,6.122433e+03
2.690227e+02,6.116524e+03
2.699869e+02,6.107698e+03
2.709512e+02,6.097140e+03
2.719154e+02,6.086048e+03
2.728796e+02,6.076465e+03
2.738439e+02,6.071073e+03
2.748081e+02,6.071816e+03
2.757723e+02,6.076929e+03
2.767366e+02,6.081848e+03
2.777008e+02,6.084016e+03
2.786650e+02,6.083500e+03
2.796293e+02,6.083491e+03
2.805935e+02,6.082930e+03
2.815577e+02,6.076188e+03
2.825220e+02,6.058953e+03
2.834862e+02,6.038912e+03
2.844504e+02,6.032736e+03
2.854147e+02,6.054845e+03
2.863789e+02,6.070028e+03
2.873431e+02,6.065053e+03
2.883074e+02,6.047627e+03
2.892716e+02,6.032312e+03
2.902358e+02,6.026729e+03
2.912001e+02,6.030149e+03
2.921643e+02,6.026413e+03
2.931285e+02,6.008975e+03
2.940928e+02,5.993596e+03
2.950570e+02,5.985825e+03
2.960212e+02,5.985052e+03
2.969855e+02,5.988308e+03
2.979497e+02,5.995787e+03
2.989139e+02,6.015478e+03
2.998782e+02,6.022537e+03
3.008424e+02,6.011289e+03
3.018066e+02,5.994696e+03
3.027709e+02,5.979231e+03
3.037351e+02,5.965767e+03
3.046993e+02,5.954427e+03
3.056636e+02,5.947797e+03
3.066278e+02,5.949241e+03
3.075920e+02,5.950542e+03
3.085563e+02,5.946998e+03
3.095205e+02,5.941671e+03
3.104847e+02,5.938814e+03
3.114490e+02,5.939813e+03
3.124132e+02,5.942104e+03
3.133774e+02,5.941891e+03
3.143417e+02,5.937860e+03
3.153059e+02,5.930908e+03
3.162701e+02,5.924922e+03
3.172344e+02,5.923244e+03
3.181986e+02,5.919588e+03
3.191628e+02,5.910163e+03
3.201271e+02,5.897954e+03
3.210913e+02,5.888076e+03
3.220555e+02,5.882420e+03
3.230198e+02,5.880169e+03
3.239840e+02,5.878659e+03
3.249482e+02,5.879206e+03
3.259125e+02,5.878451e+03
3.268767e+02,5.874557e+03
3.278409e+02,5.868547e+03
3.288052e+02,5.862893e+03
3.297694e+02,5.859641e+03
3.307336e+02,5.859041e+03
3.316979e+02,5.858767e+03
3.326621e+02,5.861695e+03
3.336263e+02,5.861664e+03
3.345906e+02,5.856069e+03
3.355548e+02,5.845976e+03
3.365190e+02,5.834221e+03
3.374833e+02,5.819259e+03
3.384475e+02,5.799197e+03
3.394117e+02,5.789127e+03
3.403760e+02,5.801427e+03
3.413402e+02,5.824234e+03
3.423044e+02,5.836697e+03
3.432687e+02,5.826423e+03
3.442329e+02,5.809592e+03
3.451971e+02,5.799345e+03
3.461614e+02,5.794556e+03
3.471256e+02,5.790067e+03
3.480898e+02,5.784002e+03
3.490541e+02,5.777856e+03
3.500183e+02,5.771578e+03
3.509825e+02,5.766736e+03
3.519468e+02,5.763627e+03
3.529110e+02,5.761156e+03
3.538752e+02,5.757940e+03
3.548395e+02,5.753643e+03
3.558037e+02,5.749429e+03
3.567680e+02,5.745869e+03
3.577322e+02,5.741862e+03
3.586964e+02,5.738857e+03
3.596607e+02,5.737367e+03
3.606249e+02,5.736166e+03
3.615891e+02,5.731916e+03
3.625534e+02,5.724534e+03
3.635176e+02,5.718516e+03
3.644818e+02,5.716867e+03
3.654461e+02,5.715709e+03
3.664103e+02,5.715615e+03
3.673745e+02,5.718786e+03
3.683388e+02,5.722226e+03
3.693030e+02,5.722244e+03
3.702672e+02,5.718622e+03
3.712315e+02,5.711256e+03
3.721957e+02,5.699006e+03
3.731599e+02,5.684962e+03
3.741242e+02,5.675945e+03
3.750884e+02,5.681716e+03
3.760526e+02,5.686220e+03
3.770169e+02,5.687098e+03
3.779811e+02,5.685161e+03
3.789453e+02,5.680931e+03
3.799096e+02,5.674040e+03
3.808738e+02,5.664745e+03
3.818380e+02,5.656041e+03
3.828023e+02,5.653372e+03
3.837665e+02,5.648992e+03
3.847307e+02,5.637336e+03
3.856950e+02,5.621221e+03
3.866592e+02,5.607260e+03
3.876234e+02,5.598056e+03
3.885877e+02,5.593265e+03
3.895519e+02,5.593065e+03
3.905161e+02,5.598397e+03
3.914804e+02,5.604690e+03
3.924446e+02,5.608780e+03
3.934088e+02,5.613501e+03
3.943731e+02,5.612674e+03
3.953373e+02,5.600553e+03
3.963015e+02,5.582373e+03
3.972658e+02,5.565026e+03
3.982300e+02,5.551442e+03
3.991942e+02,5.543083e+03
4.001585e+02,5.539571e+03
4.011227e+02,5.541008e+03
4.020869e+02,5.543436e+03
4.030512e+02,5.546318e+03
4.040154e+02,5.547606e+03
4.049796e+02,5.545999e+03
4.059439e+02,5.539221e+03
4.069081e+02,5.528921e+03
4.078723e+02,5.521944e+03
4.088366e+02,5.518144e+03
4.098008e+02,5.513831e+03
4.107650e+02,5.509434e+03
4.117293e+02,5.505581e+03
4.126935e+02,5.502858e+03
4.136577e+02,5.503219e+03
4.146220e+02,5.504170e+03
4.155862e+02,5.501924e+03
4.165504e+02,5.495690e+03
4.175147e+02,5.487507e+03
4.184789e+02,5.480245e+03
4.194431e+02,5.470377e+03
4.204074e+02,5.465682e+03
4.213716e+02,5.472151e+03
4.223358e+02,5.481542e+03
4.233001e+02,5.484924e+03
4.242643e+02,5.478167e+03
4.252285e+02,5.465445e+03
4.261928e+02,5.455577e+03
4.271570e+02,5.450075e+03
4.281212e+02,5.445436e+03
4.290855e+02,5.438515e+03
4.300497e+02,5.430120e+03
4.310139e+02,5.423133e+03
4.319782e+02,5.419799e+03
4.329424e+02,5.419049e+03
4.339066e+02,5.419259e+03
4.348709e+02,5.419646e+03
4.358351e+02,5.419351e+03
4.367993e+02,5.417945e+03
4.377636e+02,5.415836e+03
4.387278e+02,5.412222e+03
4.396920e+02,5.407390e+03
4.406563e+02,5.402354e+03
4.416205e+02,5.396730e+03
4.425847e+02,5.390215e+03
4.435490e+02,5.383875e+03
4.445132e+02,5.380091e+03
4.454774e+02,5.380219e+03
4.464417e+02,5.380454e+03
4.474059e+02,5.378452e+03
4.483701e+02,5.374823e+03
4.493344e+02,5.371439e+03
4.502986e+02,5.370513e+03
4.512628e+02,5.370157e+03
4.522271e+02,5.369948e+03
4.531913e+02,5.369393e+03
4.541555e+02,5.366000e+03
4.551198e+02,5.357503e+03
4.560840e+02,5.344174e+03
4.570482e+02,5.331256e+03
4.580125e+02,5.319911e+03
4.589767e+02,5.312386e+03
4.599409e+02,5.308221e+03
4.609052e+02,5.305704e+03
4.618694e+02,5.303499e+03
4.628336e+02,5.302067e+03
4.637979e+02,5.301548e+03
4.647621e+02,5.299714e+03
4.657263e+02,5.297197e+03
4.666906e+02,5.296019e+03
4.676548e+02,5.296360e+03
4.686190e+02,5.298262e+03
4.695833e+02,5.297990e+03
4.705475e+02,5.292646e+03
4.715117e+02,5.284072e+03
4.724760e+02,5.275488e+03
4.734402e+02,5.268331e+03
4.744044e+02,5.262056e+03
4.753687e+02,5.254359e+03
4.763329e+02,5.240829e+03
4.772971e+02,5.233310e+03
4.782614e+02,5.236533e+03
4.792256e+02,5.245667e+03
4.801898e+02,5.254483e+03
4.811541e+02,5.261104e+03
4.821183e+02,5.264308e+03
4.830826e+02,5.260375e+03
4.840468e+02,5.248345e+03
4.850110e+02,5.237587e+03
4.859753e+02,5.235583e+03
4.869395e+02,5.242774e+03
4.879037e+02,5.244835e+03
4.888680e+02,5.239993e+03
4.898322e+02,5.232916e+03
4.907964e+02,5.225153e+03
4.917607e+02,5.217642e+03
4.927249e+02,5.211708e+03
4.936891e+02,5.209977e+03
4.946534e+02,5.212817e+03
4.956176e+02,5.210200e+03
4.965818e+02,5.198204e+03
4.975461e+02,5.184305e+03
4.985103e+02,5.174311e+03
4.994745e+02,5.168081e+03
5.004388e+02,5.161142e+03
5.014030e+02,5.153000e+03
5.023672e+02,5.144393e+03
5.033315e+02,5.134502e+03
5.042957e+02,5.122334e+03
5.052599e+02,5.110375e+03
5.062242e+02,5.106108e+03
5.071884e+02,5.118498e+03
5.081526e+02,5.127228e+03
5.091169e+02,5.131010e+03
5.100811e+02,5.131258e+03
5.110453e+02,5.128065e+03
5.120095e+02,5.120037e+03
5.129738e+02,5.111533e+03
5.139380e+02,5.108069e+03
5.149022e+02,5.109757e+03
5.158665e+02,5.112914e+03
5.168307e+02,5.114484e+03
5.177949e+02,5.111925e+03
5.187592e+02,5.105330e+03
5.197234e+02,5.098355e+03
5.206876e+02,5.092221e+03
5.216519e+02,5.088741e+03
5.226161e+02,5.087070e+03
5.235803e+02,5.083788e+03
5.245446e+02,5.072144e+03
5.255088e+02,5.054438e+03
5.264730e+02,5.049422e+03
5.274373e+02,5.063764e+03
5.284015e+02,5.079742e+03
5.293657e+02,5.079323e+03
5.303300e+02,5.061244e+03
5.312942e+02,5.044638e+03
5.322584e+02,5.036143e+03
5.332227e+02,5.032499e+03
5.341869e+02,5.030182e+03
5.351511e+02,5.027399e+03
5.361154e+02,5.022840e+03
5.370796e+02,5.014495e+03
5.380438e+02,5.001041e+03
5.390081e+02,4.992342e+03
5.399723e+02,4.994289e+03
5.409365e+02,4.999830e+03
5.419008e+02,5.000558e+03
5.428650e+02,4.991108e+03
5.438292e+02,4.982064e+03
5.447935e+02,4.980128e+03
5.457577e+02,4.982951e+03
5.467219e+02,4.986472e+03
5.476862e+02,4.989673e+03
5.486504e+02,4.991197e+03
5.496146e+02,4.987037e+03
5.505789e+02,4.973432e+03
5.515431e+02,4.959280e+03
5.525073e+02,4.945758e+03
5.534716e+02,4.936276e+03
5.544358e+02,4.933327e+03
5.554000e+02,4.941493e+03
5.563643e+02,4.951035e+03
5.573285e+02,4.950419e+03
5.582927e+02,4.940548e+03
5.592570e+02,4.932117e+03
5.602212e+02,4.933556e+03
5.611854e+02,4.944305e+03
5.621497e+02,4.947167e+03
5.631139e+02,4.929275e+03
5.640781e+02,4.912794e+03
5.650424e+02,4.908360e+03
5.660066e+02,4.913498e+03
5.669708e+02,4.916964e+03
5.679351e+02,4.912583e+03
5.688993e+02,4.903466e+03
5.698635e+02,4.894158e+03
5.708278e+02,4.885357e+03
5.717920e+02,4.877833e+03
5.727562e+02,4.870479e+03
5.737205e+02,4.860274e+03
5.746847e+02,4.856741e+03
5.756489e+02,4.868028e+03
5.766132e+02,4.877590e+03
5.775774e+02,4.875234e+03
5.785416e+02,4.860327e+03
5.795059e+02,4.843784e+03
5.804701e+02,4.833550e+03
5.814343e+02,4.828388e+03
5.823986e+02,4.824677e+03
5.833628e+02,4.822240e+03
5.843270e+02,4.820939e+03
5.852913e+02,4.820189e+03
5.862555e+02,4.820106e+03
5.872197e+02,4.820491e+03
5.881840e+02,4.822403e+03
5.891482e+02,4.823218e+03
5.901124e+02,4.820288e+03
5.910767e+02,4.812375e+03
5.920409e+02,4.803945e+03
5.930051e+02,4.799312e+03
5.939694e+02,4.797525e+03
5.949336e+02,4.795628e+03
5.958978e+02,4.793063e+03
5.968621e+02,4.789706e+03
5.978263e+02,4.785596e+03
5.987905e+02,4.781768e+03
5.997548e+02,4.777365e+03
6.007190e+02,4.771334e+03
6.016832e+02,4.765994e+03
6.026475e+02,4.763123e+03
6.036117e+02,4.762714e+03
6.045759e+02,4.763436e+03
6.055402e+02,4.764444e+03
6.065044e+02,4.764929e+03
6.074686e+02,4.763670e+03
6.084329e+02,4.761482e+03
6.093971e+02,4.758278e+03
6.103613e+02,4.751258e+03
6.113256e+02,4.731177e+03
6.122899e+02,4.717847e+03
6.132541e+02,4.721426e+03
6.142183e+02,4.733048e+03
6.151826e+02,4.737896e+03
6.161468e+02,4.724508e+03
6.171110e+02,4.706227e+03
6.180753e+02,4.698693e+03
6.190395e+02,4.700636e+03
6.200037e+02,4.704174e+03
6.209680e+02,4.704563e+03
6.219322e+02,4.702632e+03
6.228964e+02,4.702287e+03
6.238607e+02,4.706738e+03
6.248249e+02,4.708468e+03
6.257891e+02,4.702949e+03
6.267534e+02,4.690671e+03
6.277176e+02,4.676733e+03
6.286818e+02,4.660326e+03
6.296461e+02,4.647499e+03
6.306103e+02,4.647873e+03
6.315745e+02,4.660353e+03
6.325388e+02,4.672164e+03
6.335030e+02,4.671642e+03
6.344672e+02,4.657477e+03
6.354315e+02,4.649451e+03
6.363957e+02,4.652132e+03
6.373599e+02,4.653502e+03
6.383242e+02,4.647729e+03
6.392884e+02,4.636249e+03
6.402526e+02,4.626920e+03
6.412169e+02,4.625017e+03
6.421811e+02,4.624232e+03
6.431453e+02,4.616736e+03
6.441096e+02,4.603130e+03
6.450738e+02,4.591474e+03
6.460380e+02,4.592841e+03
6.470023e+02,4.608724e+03
6.479665e+02,4.614948e+03
6.489307e+02,4.604626e+03
6.498950e+02,4.591587e+03
6.508592e+02,4.586739e+03
6.518234e+02,4.590122e+03
6.527877e+02,4.591683e+03
6.537519e+02,4.591899e+03
6.547161e+02,4.589206e+03
6.556804e+02,4.579920e+03
6.566446e+02,4.565147e+03
6.576088e+02,4.552599e+03
6.585731e+02,4.551718e+03
6.595373e+02,4.560175e+03
6.605015e+02,4.563764e+03
6.614658e+02,4.560322e+03
6.624300e+02,4.554646e+03
6.633942e+02,4.551463e+03
6.643585e+02,4.552268e+03
6.653227e+02,4.551020e+03
6.662869e+02,4.542180e+03
6.672512e+02,4.534144e+03
6.682154e+02,4.534073e+03
6.691796e+02,4.542083e+03
6.701439e+02,4.548550e+03
6.711081e+02,4.547300e+03
6.720723e+02,4.539811e+03
6.730366e+02,4.527483e+03
6.740008e+02,4.510715e+03
6.749650e+02,4.495135e+03
6.759293e+02,4.488278e+03
6.768935e+02,4.495040e+03
6.778577e+02,4.498114e+03
6.788220e+02,4.495545e+03
6.797862e+02,4.493209e+03
6.807504e+02,4.493692e+03
6.817147e+02,4.496589e+03
6.826789e+02,4.497729e+03
6.836431e+02,4.492953e+03
6.846074e+02,4.485113e+03
6.855716e+02,4.478750e+03
6.865358e+02,4.475461e+03
6.875001e+02,4.473220e+03
6.884643e+02,4.468438e+03
6.894285e+02,4.461349e+03
6.903928e+02,4.458796e+03
6.913570e+02,4.463599e+03
6.923212e+02,4.468563e+03
6.932855e+02,4.466118e+03
6.942497e+02,4.452522e+03
6.952139e+02,4.442860e+03
6.961782e+02,4.435069e+03
6.971424e+02,4.431656e+03
6.981066e+02,4.436938e+03
6.990709e+02,4.449946e+03
7.000351e+02,4.456597e+03
7.009993e+02,4.443381e+03
7.019636e+02,4.419779e+03
7.029278e+02,4.403543e+03
7.038920e+02,4.397465e+03
7.048563e+02,4.397087e+03
7.058205e+02,4.399368e+03
7.067847e+02,4.408102e+03
7.077490e+02,4.412579e+03
7.087132e+02,4.412261e+03
7.096774e+02,4.411659e+03
7.106417e+02,4.411048e+03
7.116059e+02,4.410021e+03
7.125701e+02,4.406350e+03
7.135344e+02,4.397275e+03
7.144986e+02,4.388176e+03
7.154628e+02,4.383451e+03
7.164271e+02,4.383221e+03
7.173913e+02,4.384205e+03
7.183555e+02,4.384252e+03
7.193198e+02,4.382956e+03
7.202840e+02,4.378157e+03
7.212482e+02,4.369229e+03
7.222125e+02,4.361391e+03
7.231767e+02,4.360203e+03
7.241409e+02,4.369109e+03
7.251052e+02,4.371390e+03
7.260694e+02,4.359801e+03
7.270336e+02,4.346902e+03
7.279979e+02,4.341255e+03
7.289621e+02,4.343667e+03
7.299263e+02,4.345039e+03
7.308906e+02,4.339032e+03
7.318548e+02,4.330556e+03
7.328190e+02,4.326573e+03
7.337833e+02,4.327386e+03
7.347475e+02,4.327167e+03
7.357117e+02,4.318771e+03
7.366760e+02,4.304147e+03
7.376402e+02,4.296979e+03
7.386044e+02,4.299180e+03
7.395687e+02,4.305977e+03
7.405329e+02,4.314004e+03
7.414971e+02,4.325205e+03
7.424614e+02,4.327898e+03
7.434256e+02,4.319339e+03
7.443898e+02,4.309870e+03
7.453541e+02,4.300344e+03
7.463183e+02,4.289533e+03
7.472825e+02,4.282033e+03
7.482468e+02,4.285414e+03
7.492110e+02,4.290631e+03
7.501752e+02,4.288784e+03
7.511395e+02,4.281749e+03
7.521037e+02,4.275487e+03
7.530679e+02,4.274351e+03
7.540322e+02,4.276157e+03
7.549964e+02,4.271624e+03
7.559606e+02,4.259483e+03
7.569249e+02,4.248947e+03
7.578891e+02,4.246633e+03
7.588533e+02,4.253557e+03
7.598176e+02,4.258175e+03
7.607818e+02,4.253598e+03
7.617460e+02,4.246763e+03
7.627103e+02,4.241458e+03
7.636745e+02,4.239043e+03
7.646387e+02,4.238032e+03
7.656030e+02,4.238351e+03
7.665672e+02,4.239110e+03
7.675314e+02,4.238101e+03
7.684957e+02,4.233033e+03
7.694599e+02,4.223947e+03
7.704241e+02,4.212933e+03
7.713884e+02,4.201844e+03
7.723526e+02,4.190637e+03
7.733168e+02,4.179662e+03
7.742811e+02,4.175058e+03
7.752453e+02,4.179159e+03
7.762095e+02,4.188545e+03
7.771738e+02,4.191827e+03
7.781380e+02,4.180450e+03
7.791022e+02,4.170304e+03
7.800665e+02,4.167735e+03
7.810307e+02,4.169796e+03
7.819949e+02,4.171113e+03
7.829592e+02,4.172208e+03
7.839234e+02,4.173305e+03
7.848876e+02,4.173920e+03
7.858519e+02,4.173314e+03
7.868161e+02,4.170650e+03
7.877803e+02,4.165211e+03
7.887446e+02,4.158585e+03
7.897088e+02,4.154046e+03
7.906730e+02,4.152790e+03
7.916373e+02,4.153414e+03
7.926015e+02,4.153796e+03
7.935657e+02,4.150998e+03
7.945300e+02,4.143834e+03
7.954942e+02,4.131922e+03
7.964584e+02,4.121250e+03
7.974227e+02,4.116756e+03
7.983869e+02,4.117779e+03
7.993511e+02,4.118723e+03
8.003154e+02,4.117033e+03
8.012796e+02,4.112309e+03
8.022438e+02,4.102220e+03
8.032081e+02,4.093755e+03
8.041723e+02,4.094128e+03
8.051365e+02,4.104642e+03
8.061008e+02,4.114620e+03
8.070650e+02,4.112959e+03
8.080292e+02,4.104954e+03
8.089935e+02,4.103187e+03
8.099577e+02,4.110421e+03
8.109219e+02,4.117741e+03
8.118862e+02,4.112497e+03
8.128504e+02,4.095266e+03
8.138146e+02,4.086082e+03
8.147789e+02,4.087378e+03
8.157431e+02,4.089909e+03
8.167073e+02,4.086877e+03
8.176716e+02,4.078978e+03
8.186358e+02,4.074358e+03
8.196000e+02,4.073688e+03
8.205643e+02,4.075178e+03
8.215285e+02,4.078287e+03
8.224927e+02,4.082017e+03
8.234570e+02,4.081304e+03
8.244212e+02,4.070622e+03
8.253854e+02,4.059141e+03
8.263497e+02,4.051576e+03
8.273139e+02,4.046289e+03
8.282781e+02,4.040741e+03
8.292424e+02,4.036268e+03
8.302066e+02,4.032376e+03
8.311708e+02,4.024292e+03
8.321351e+02,4.013579e+03
8.330993e+02,4.009132e+03
8.340635e+02,4.016018e+03
8.350278e+02,4.029526e+03
8.359920e+02,4.036476e+03
8.369562e+02,4.035984e+03
8.379205e+02,4.034413e+03
8.388847e+02,4.033770e+03
8.398489e+02,4.033552e+03
8.408132e+02,4.031703e+03
8.417774e+02,4.025614e+03
8.427416e+02,4.020235e+03
8.437059e+02,4.018373e+03
8.446701e+02,4.016466e+03
8.456343e+02,4.010771e+03
8.465986e+02,3.998261e+03
8.475628e+02,3.985982e+03
8.485270e+02,3.974193e+03
8.494913e+02,3.964726e+03
8.504555e+02,3.960969e+03
8.514197e+02,3.964292e+03
8.523840e+02,3.969244e+03
8.533482e+02,3.971311e+03
8.543124e+02,3.970594e+03
8.552767e+02,3.966933e+03
8.562409e+02,3.960226e+03
8.572051e+02,3.953715e+03
8.581694e+02,3.953039e+03
8.591336e+02,3.957975e+03
8.600978e+02,3.958728e+03
8.610621e+02,3.954985e+03
8.620263e+02,3.950494e+03
8.629905e+02,3.946516e+03
8.639548e+02,3.941554e+03
8.649190e+02,3.937841e+03
8.658832e+02,3.939582e+03
8.668475e+02,3.940776e+03
8.678117e+02,3.937675e+03
8.687759e+02,3.930780e+03
8.697402e+02,3.925450e+03
8.707044e+02,3.917021e+03
8.716686e+02,3.911271e+03
8.726329e+02,3.917793e+03
8.735971e+02,3.930159e+03
8.745613e+02,3.934958e+03
8.755256e+02,3.922258e+03
8.764898e+02,3.908896e+03
8.774540e+02,3.905737e+03
8.784183e+02,3.908210e+03
8.793825e+02,3.908907e+03
8.803467e+02,3.904731e+03
8.813110e+02,3.898860e+03
8.822752e+02,3.893878e+03
8.832394e+02,3.891514e+03
8.842037e+02,3.897636e+03
8.851679e+02,3.913574e+03
8.861321e+02,3.928054e+03
8.870964e+02,3.923848e+03
8.880606e+02,3.899499e+03
8.890248e+02,3.880533e+03
8.899891e+02,3.871476e+03
8.909533e+02,3.867938e+03
8.919175e+02,3.865294e+03
8.928818e+02,3.863515e+03
8.938460e+02,3.862414e+03
8.948102e+02,3.861804e+03
8.957745e+02,3.860108e+03
8.967387e+02,3.857051e+03
8.977029e+02,3.851824e+03
8.986672e+02,3.844832e+03
8.996314e+02,3.835101e+03
9.005956e+02,3.828827e+03
9.015599e+02,3.829791e+03
9.025241e+02,3.835117e+03
9.034883e+02,3.838619e+03
9.044526e+02,3.837698e+03
9.054168e+02,3.832698e+03
9.063810e+02,3.823727e+03
9.073453e+02,3.815180e+03
9.083095e+02,3.811764e+03
9.092737e+02,3.815380e+03
9.102380e+02,3.819907e+03
9.112022e+02,3.818382e+03
9.121664e+02,3.812707e+03
9.131307e+02,3.809323e+03
9.140949e+02,3.811583e+03
9.150591e+02,3.815744e+03
9.160234e+02,3.812667e+03
9.169876e+02,3.801450e+03
9.179518e+02,3.791672e+03
9.189161e+02,3.784917e+03
9.198803e+02,3.779447e+03
9.208445e+02,3.775052e+03
9.218088e+02,3.773287e+03
9.227730e+02,3.769794e+03
9.237372e+02,3.761699e+03
9.247015e+02,3.755341e+03
9.256657e+02,3.755633e+03
9.266299e+02,3.762602e+03
9.275942e+02,3.767995e+03
9.285584e+02,3.771009e+03
9.295226e+02,3.771672e+03
9.304869e+02,3.771132e+03
9.314511e+02,3.769399e+03
9.324153e+02,3.764477e+03
9.333796e+02,3.749577e+03
9.343438e+02,3.738818e+03
9.353080e+02,3.738698e+03
9.362723e+02,3.742302e+03
9.372365e+02,3.741286e+03
9.382007e+02,3.732702e+03
9.391650e+02,3.726063e+03
9.401292e+02,3.727341e+03
9.410934e+02,3.731533e+03
9.420577e+02,3.732100e+03
9.430219e+02,3.726968e+03
9.439861e+02,3.719372e+03
9.449504e+02,3.709430e+03
9.459146e+02,3.702590e+03
9.468788e+02,3.706501e+03
9.478431e+02,3.718817e+03
9.488073e+02,3.728219e+03
9.497715e+02,3.724969e+03
9.507358e+02,3.714758e+03
9.517000e+02,3.710524e+03
9.526642e+02,3.712991e+03
9.536285e+02,3.713717e+03
9.545927e+02,3.705089e+03
9.555569e+02,3.690954e+03
9.565212e+02,3.685313e+03
9.574854e+02,3.689652e+03
9.584496e+02,3.694583e+03
9.594139e+02,3.694860e+03
9.603781e+02,3.691195e+03
9.613423e+02,3.688168e+03
9.623066e+02,3.686403e+03
9.632708e+02,3.683089e+03
9.642350e+02,3.677770e+03
9.651993e+02,3.672721e+03
9.661635e+02,3.669907e+03
9.671277e+02,3.669337e+03
9.680920e+02,3.667917e+03
9.690562e+02,3.666559e+03
9.700204e+02,3.662732e+03
9.709847e+02,3.654797e+03
9.719489e+02,3.642391e+03
9.729131e+02,3.633786e+03
9.738774e+02,3.631086e+03
9.748416e+02,3.631753e+03
9.758058e+02,3.634608e+03
9.767701e+02,3.638102e+03
9.777343e+02,3.640032e+03
9.786985e+02,3.640742e+03
9.796628e+02,3.638200e+03
9.806270e+02,3.630686e+03
9.815912e+02,3.620218e+03
9.825555e+02,3.610251e+03
9.835197e+02,3.601958e+03
9.844839e+02,3.597145e+03
9.854482e+02,3.600294e+03
9.864124e+02,3.606119e+03
9.873766e+02,3.606664e+03
9.883409e+02,3.599453e+03
9.893051e+02,3.594097e+03
9.902693e+02,3.599340e+03
9.912336e+02,3.608132e+03
9.921978e+02,3.610372e+03
9.931620e+02,3.604820e+03
9.941263e+02,3.599728e+03
9.950905e+02,3.605456e+03
9.960547e+02,3.612946e+03
9.970190e+02,3.608216e+03
9.979832e+02,3.593624e+03
9.989474e+02,3.581046e+03
9.999117e+02,3.580090e+03
1.000876e+03,3.584585e+03
1.001840e+03,3.584743e+03
1.002804e+03,3.582470e+03
1.003769e+03,3.581056e+03
1.004733e+03,3.580570e+03
1.005697e+03,3.580880e+03
1.006661e+03,3.584302e+03
1.007626e+03,3.589678e+03
1.008590e+03,3.589483e+03
1.009554e+03,3.581323e+03
1.010518e+03,3.570630e+03
1.011482e+03,3.565050e+03
1.012447e+03,3.563650e+03
1.013411e+03,3.559527e+03
1.014375e+03,3.554067e+03
1.015339e+03,3.547971e+03
1.016304e+03,3.539875e+03
1.017268e+03,3.530252e+03
1.018232e+03,3.523648e+03
1.019196e+03,3.519577e+03
1.020161e+03,3.519069e+03
1.021125e+03,3.524429e+03
1.022089e+03,3.533489e+03
1.023053e+03,3.537705e+03
1.024018e+03,3.534995e+03
1.024982e+03,3.530614e+03
1.025946e+03,3.523889e+03
1.026910e+03,3.516209e+03
1.027875e+03,3.511623e+03
1.028839e+03,3.512813e+03
1.029803e+03,3.514938e+03
1.030767e+03,3.520004e+03
1.031731e+03,3.522561e+03
1.032696e+03,3.517153e+03
1.033660e+03,3.503010e+03
1.034624e+03,3.491140e+03
1.035588e+03,3.481550e+03
1.036552e+03,3.476891e+03
1.037517e+03,3.478545e+03
1.038481e+03,3.484180e+03
1.039445e+03,3.488862e+03
1.040409e+03,3.493138e+03
1.041374e+03,3.495906e+03
1.042338e+03,3.499313e+03
1.043302e+03,3.501301e+03
1.044266e+03,3.498071e+03
1.045231e+03,3.485377e+03
1.046195e+03,3.474190e+03
1.047159e+03,3.464999e+03
1.048123e+03,3.458262e+03
1.049088e+03,3.454449e+03
1.050052e+03,3.454847e+03
1.051016e+03,3.456917e+03
1.051980e+03,3.461422e+03
1.052945e+03,3.465991e+03
1.053909e+03,3.469313e+03
1.054873e+03,3.469536e+03
1.055837e+03,3.465942e+03
1.056802e+03,3.458623e+03
1.057766e+03,3.449829e+03
1.058730e+03,3.437029e+03
1.059694e+03,3.425093e+03
1.060658e+03,3.420061e+03
1.061623e+03,3.430699e+03
1.062587e+03,3.434392e+03
1.063551e+03,3.421345e+03
1.064515e+03,3.406541e+03
1.065479e+03,3.400308e+03
1.066444e+03,3.404606e+03
1.067408e+03,3.407905e+03
1.068372e+03,3.407140e+03
1.069336e+03,3.406323e+03
1.070301e+03,3.404124e+03
1.071265e+03,3.401161e+03
1.072229e+03,3.401920e+03
1.073193e+03,3.414752e+03
1.074158e+03,3.422137e+03
1.075122e+03,3.415639e+03
1.076086e+03,3.403156e+03
1.077050e+03,3.395119e+03
1.078015e+03,3.397603e+03
1.078979e+03,3.399409e+03
1.079943e+03,3.395334e+03
1.080907e+03,3.390969e+03
1.081872e+03,3.389054e+03
1.082836e+03,3.388961e+03
1.083800e+03,3.389810e+03
1.084764e+03,3.395478e+03
1.085729e+03,3.399721e+03
1.086693e+03,3.396744e+03
1.087657e+03,3.389477e+03
1.088621e+03,3.386473e+03
1.089585e+03,3.395483e+03
1.090550e+03,3.399908e+03
1.091514e+03,3.396347e+03
1.092478e+03,3.388463e+03
1.093442e+03,3.378474e+03
1.094406e+03,3.364393e+03
1.095371e+03,3.356314e+03
1.096335e+03,3.360539e+03
1.097299e+03,3.366431e+03
1.098263e+03,3.367094e+03
1.099228e+03,3.362044e+03
1.100192e+03,3.357333e+03
1.101156e+03,3.354708e+03
1.102120e+03,3.351253e+03
1.103085e+03,3.344364e+03
1.104049e+03,3.336536e+03
1.105013e+03,3.332716e+03
1.105977e+03,3.340074e+03
1.106942e+03,3.343656e+03
1.107906e+03,3.337752e+03
1.108870e+03,3.329606e+03
1.109834e+03,3.325861e+03
1.110799e+03,3.328323e+03
1.111763e+03,3.330104e+03
1.112727e+03,3.331155e+03
1.113691e+03,3.331739e+03
1.114656e+03,3.330625e+03
1.115620e+03,3.328230e+03
1.116584e+03,3.327788e+03
1.117548e+03,3.332860e+03
1.118512e+03,3.333108e+03
1.119477e+03,3.321535e+03
1.120441e+03,3.305739e+03
1.121405e+03,3.297765e+03
1.122369e+03,3.306254e+03
1.123334e+03,3.309877e+03
1.124298e+03,3.308027e+03
1.125262e+03,3.302954e+03
1.126226e+03,3.295024e+03
1.127191e+03,3.283636e+03
1.128155e+03,3.277186e+03
1.129119e+03,3.277006e+03
1.130083e+03,3.278440e+03
1.131047e+03,3.280749e+03
1.132012e+03,3.282366e+03
1.132976e+03,3.280215e+03
1.133940e+03,3.270874e+03
1.134904e+03,3.264678e+03
1.135869e+03,3.266899e+03
1.136833e+03,3.270653e+03
1.137797e+03,3.267040e+03
1.138761e+03,3.253296e+03
1.139726e+03,3.247398e+03
1.140690e+03,3.251937e+03
1.141654e+03,3.257750e+03
1.142618e+03,3.259890e+03
1.143583e+03,3.258636e+03
1.144547e+03,3.253419e+03
1.145511e+03,3.242263e+03
1.146475e+03,3.234440e+03
1.147439e+03,3.233018e+03
1.148404e+03,3.235781e+03
1.149368e+03,3.237829e+03
1.150332e+03,3.238637e+03
1.151296e+03,3.240638e+03
1.152261e+03,3.243247e+03
1.153225e+03,3.242023e+03
1.154189e+03,3.234695e+03
1.155153e+03,3.223260e+03
1.156118e+03,3.212857e+03
1.157082e+03,3.204485e+03
1.158046e+03,3.199654e+03
1.159010e+03,3.197805e+03
1.159974e+03,3.198953e+03
1.160939e+03,3.206479e+03
1.161903e+03,3.217839e+03
1.162867e+03,3.219028e+03
1.163831e+03,3.206619e+03
1.164796e+03,3.190818e+03
1.165760e+03,3.184295e+03
1.166724e+03,3.183930e+03
1.167688e+03,3.179392e+03
1.168653e+03,3.171012e+03
1.169617e+03,3.163945e+03
1.170581e+03,3.162692e+03
1.171545e+03,3.163871e+03
1.172510e+03,3.161879e+03
1.173474e+03,3.158464e+03
1.174438e+03,3.157120e+03
1.175402e+03,3.158681e+03
1.176366e+03,3.160105e+03
1.177331e+03,3.157924e+03
1.178295e+03,3.155212e+03
1.179259e+03,3.156757e+03
1.180223e+03,3.161213e+03
1.181188e+03,3.161839e+03
1.182152e+03,3.151760e+03
1.183116e+03,3.139798e+03
1.184080e+03,3.130949e+03
1.185045e+03,3.126254e+03
1.186009e+03,3.127139e+03
1.186973e+03,3.139477e+03
1.187937e+03,3.147641e+03
1.188901e+03,3.140156e+03
1.189866e+03,3.128908e+03
1.190830e+03,3.122902e+03
1.191794e+03,3.122588e+03
1.192758e+03,3.123405e+03
1.193723e+03,3.129304e+03
1.194687e+03,3.133474e+03
1.195651e+03,3.130903e+03
1.196615e+03,3.124039e+03
1.197580e+03,3.119283e+03
1.198544e+03,3.115576e+03
1.199508e+03,3.111450e+03
1.200472e+03,3.109834e+03
1.201437e+03,3.107814e+03
1.202401e+03,3.102717e+03
1.203365e+03,3.094544e+03
1.204329e+03,3.090074e+03
1.205293e+03,3.090204e+03
1.206258e+03,3.090507e+03
1.207222e+03,3.088191e+03
1.208186e+03,3.084445e+03
1.209150e+03,3.084429e+03
1.210115e+03,3.087766e+03
1.211079e+03,3.089332e+03
1.212043e+03,3.088626e+03
1.213007e+03,3.085495e+03
1.213972e+03,3.080265e+03
1.214936e+03,3.073973e+03
1.215900e+03,3.067219e+03
1.216864e+03,3.060278e+03
1.217828e+03,3.055157e+03
1.218793e+03,3.053214e+03
1.219757e+03,3.053688e+03
1.220721e+03,3.056429e+03
1.221685e+03,3.060598e+03
1.222650e+03,3.062265e+03
1.223614e+03,3.059313e+03
1.224578e+03,3.055277e+03
1.225542e+03,3.055662e+03
1.226507e+03,3.057122e+03
1.227471e+03,3.054054e+03
1.228435e+03,3.046648e+03
1.229399e+03,3.039878e+03
1.230364e+03,3.038946e+03
1.231328e+03,3.037898e+03
1.232292e+03,3.034750e+03
1.233256e+03,3.031344e+03
1.234220e+03,3.028489e+03
1.235185e+03,3.027587e+03
1.236149e+03,3.025680e+03
1.237113e+03,3.019833e+03
1.238077e+03,3.015691e+03
1.239042e+03,3.014847e+03
1.240006e+03,3.015838e+03
1.240970e+03,3.017147e+03
1.241934e+03,3.019438e+03
1.242899e+03,3.020585e+03
1.243863e+03,3.020617e+03
1.244827e+03,3.020429e+03
1.245791e+03,3.021081e+03
1.246755e+03,3.023086e+03
1.247720e+03,3.022897e+03
1.248684e+03,3.020568e+03
1.249648e+03,3.017332e+03
1.250612e+03,3.013130e+03
1.251577e+03,3.008192e+03
1.252541e+03,3.005200e+03
1.253505e+03,3.003502e+03
1.254469e+03,3.000272e+03
1.255434e+03,2.995093e+03
1.256398e+03,2.990294e+03
1.257362e+03,2.987104e+03
1.258326e+03,2.985111e+03
1.259291e+03,2.986495e+03
1.260255e+03,2.989739e+03
1.261219e+03,2.988664e+03
1.262183e+03,2.976270e+03
1.263147e+03,2.964803e+03
1.264112e+03,2.962881e+03
1.265076e+03,2.967520e+03
1.266040e+03,2.975204e+03
1.267004e+03,2.987736e+03
1.267969e+03,2.994113e+03
1.268933e+03,2.986350e+03
1.269897e+03,2.978083e+03
1.270861e+03,2.976658e+03
1.271826e+03,2.979109e+03
1.272790e+03,2.976300e+03
1.273754e+03,2.964375e+03
1.274718e+03,2.956146e+03
1.275682e+03,2.957045e+03
1.276647e+03,2.961531e+03
1.277611e+03,2.961283e+03
1.278575e+03,2.954953e+03
1.279539e+03,2.951628e+03
1.280504e+03,2.953458e+03
1.281468e+03,2.955439e+03
1.282432e+03,2.953619e+03
1.283396e+03,2.949475e+03
1.284361e+03,2.945671e+03
1.285325e+03,2.941999e+03
1.286289e+03,2.940558e+03
1.287253e+03,2.941766e+03
1.288218e+03,2.943574e+03
1.289182e+03,2.946539e+03
1.290146e+03,2.948348e+03
1.291110e+03,2.945447e+03
1.292074e+03,2.939110e+03
1.293039e+03,2.933075e+03
1.294003e+03,2.928666e+03
1.294967e+03,2.924230e+03
1.295931e+03,2.919071e+03
1.296896e+03,2.915219e+03
1.297860e+03,2.914741e+03
1.298824e+03,2.918531e+03
1.299788e+03,2.920283e+03
1.300753e+03,2.918604e+03
1.301717e+03,2.915643e+03
1.302681e+03,2.911918e+03
1.303645e+03,2.907799e+03
1.304609e+03,2.904014e+03
1.305574e+03,2.899127e+03
1.306538e+03,2.897366e+03
1.307502e+03,2.901454e+03
1.308466e+03,2.905718e+03
1.309431e+03,2.903114e+03
1.310395e+03,2.895500e+03
1.311359e+03,2.886860e+03
1.312323e+03,2.877093e+03
1.313288e+03,2.871457e+03
1.314252e+03,2.875254e+03
1.315216e+03,2.881352e+03
1.316180e+03,2.881894e+03
1.317145e+03,2.879979e+03
1.318109e+03,2.877885e+03
1.319073e+03,2.875042e+03
1.320037e+03,2.872770e+03
1.321001e+03,2.874056e+03
1.321966e+03,2.873640e+03
1.322930e+03,2.869125e+03
1.323894e+03,2.863363e+03
1.324858e+03,2.859767e+03
1.325823e+03,2.858267e+03
1.326787e+03,2.859270e+03
1.327751e+03,2.863771e+03
1.328715e+03,2.865888e+03
1.329680e+03,2.860935e+03
1.330644e+03,2.851587e+03
1.331608e+03,2.850564e+03
1.332572e+03,2.856744e+03
1.333536e+03,2.858627e+03
1.334501e+03,2.852175e+03
1.335465e+03,2.843793e+03
1.336429e+03,2.842721e+03
1.337393e+03,2.845064e+03
1.338358e+03,2.844402e+03
1.339322e+03,2.840865e+03
1.340286e+03,2.837111e+03
1.341250e+03,2.834136e+03
1.342215e+03,2.831394e+03
1.343179e+03,2.831415e+03
1.344143e+03,2.832728e+03
1.345107e+03,2.831369e+03
1.346072e+03,2.824797e+03
1.347036e+03,2.821447e+03
1.348000e+03,2.823010e+03
1.348964e+03,2.822757e+03
1.349928e+03,2.818330e+03
1.350893e+03,2.812502e+03
1.351857e+03,2.809481e+03
1.352821e+03,2.808617e+03
1.353785e+03,2.810337e+03
1.354750e+03,2.814365e+03
1.355714e+03,2.815448e+03
1.356678e+03,2.807762e+03
1.357642e+03,2.797890e+03
1.358607e+03,2.794590e+03
1.359571e+03,2.795120e+03
1.360535e+03,2.794076e+03
1.361499e+03,2.789825e+03
1.362464e+03,2.785297e+03
1.363428e+03,2.780935e+03
1.364392e+03,2.778474e+03
1.365356e+03,2.778430e+03
1.366320e+03,2.779289e+03
1.367285e+03,2.778751e+03
1.368249e+03,2.778375e+03
1.369213e+03,2.775606e+03
1.370177e+03,2.769100e+03
1.371142e+03,2.762033e+03
1.372106e+03,2.758422e+03
1.373070e+03,2.757858e+03
1.374034e+03,2.757308e+03
1.374999e+03,2.757440e+03
1.375963e+03,2.758865e+03
1.376927e+03,2.762003e+03
1.377891e+03,2.765605e+03
1.378855e+03,2.769391e+03
1.379820e+03,2.771559e+03
1.380784e+03,2.769472e+03
1.381748e+03,2.763594e+03
1.382712e+03,2.758104e+03
1.383677e+03,2.752429e+03
1.384641e+03,2.746564e+03
1.385605e+03,2.739480e+03
1.386569e+03,2.732439e+03
1.387534e+03,2.727989e+03
1.388498e+03,2.726818e+03
1.389462e+03,2.726110e+03
1.390426e+03,2.725009e+03
1.391391e+03,2.724668e+03
1.392355e+03,2.728331e+03
1.393319e+03,2.732027e+03
1.394283e+03,2.722365e+03
1.395247e+03,2.705897e+03
1.396212e+03,2.700885e+03
1.397176e+03,2.712158e+03
1.398140e+03,2.720920e+03
1.399104e+03,2.710647e+03
1.400069e+03,2.698382e+03
1.401033e+03,2.696290e+03
1.401997e+03,2.700792e+03
1.402961e+03,2.700426e+03
1.403926e+03,2.689867e+03
1.404890e+03,2.686022e+03
1.405854e+03,2.692730e+03
1.406818e+03,2.700151e+03
1.407782e+03,2.701056e+03
1.408747e+03,2.697730e+03
1.409711e+03,2.694984e+03
1.410675e+03,2.691519e+03
1.411639e+03,2.688254e+03
1.412604e+03,2.685969e+03
1.413568e+03,2.683584e+03
1.414532e+03,2.680400e+03
1.415496e+03,2.678222e+03
1.416461e+03,2.678343e+03
1.417425e+03,2.679204e+03
1.418389e+03,2.677802e+03
1.419353e+03,2.672377e+03
1.420318e+03,2.666701e+03
1.421282e+03,2.661392e+03
1.422246e+03,2.657773e+03
1.423210e+03,2.656991e+03
1.424174e+03,2.658863e+03
1.425139e+03,2.659275e+03
1.426103e+03,2.657740e+03
1.427067e+03,2.656254e+03
1.428031e+03,2.655654e+03
1.428996e+03,2.655980e+03
1.429960e+03,2.658806e+03
1.430924e+03,2.660376e+03
1.431888e+03,2.656887e+03
1.432853e+03,2.648726e+03
1.433817e+03,2.638543e+03
1.434781e+03,2.622307e+03
1.435745e+03,2.612253e+03
1.436709e+03,2.609833e+03
1.437674e+03,2.611334e+03
1.438638e+03,2.616563e+03
1.439602e+03,2.625137e+03
1.440566e+03,2.622290e+03
1.441531e+03,2.609239e+03
1.442495e+03,2.602437e+03
1.443459e+03,2.608827e+03
1.444423e+03,2.616220e+03
1.445388e+03,2.610707e+03
1.446352e+03,2.600338e+03
1.447316e+03,2.593874e+03
1.448280e+03,2.592546e+03
1.449245e+03,2.592491e+03
1.450209e+03,2.594083e+03
1.451173e+03,2.595069e+03
1.452137e+03,2.593539e+03
1.453101e+03,2.590656e+03
1.454066e+03,2.587933e+03
1.455030e+03,2.585732e+03
1.455994e+03,2.587330e+03
1.456958e+03,2.591773e+03
1.457923e+03,2.592573e+03
1.458887e+03,2.585909e+03
1.459851e+03,2.577544e+03
1.460815e+03,2.571113e+03
1.461780e+03,2.565763e+03
1.462744e+03,2.562696e+03
1.463708e+03,2.562042e+03
1.464672e+03,2.560989e+03
1.465636e+03,2.559912e+03
1.466601e+03,2.559753e+03
1.467565e+03,2.560999e+03
1.468529e+03,2.562101e+03
1.469493e+03,2.560157e+03
1.470458e+03,2.555793e+03
1.471422e+03,2.554282e+03
1.472386e+03,2.555605e+03
1.473350e+03,2.558260e+03
1.474315e+03,2.561728e+03
1.475279e+03,2.563628e+03
1.476243e+03,2.561961e+03
1.477207e+03,2.557796e+03
1.478172e+03,2.551973e+03
1.479136e+03,2.545411e+03
1.480100e+03,2.540250e+03
1.481064e+03,2.536560e+03
1.482028e+03,2.536000e+03
1.482993e+03,2.539874e+03
1.483957e+03,2.543004e+03
1.484921e+03,2.538275e+03
1.485885e+03,2.530012e+03
1.486850e+03,2.526069e+03
1.487814e+03,2.524458e+03
1.488778e+03,2.522377e+03
1.489742e+03,2.519223e+03
1.490707e+03,2.516041e+03
1.491671e+03,2.515640e+03
1.492635e+03,2.515204e+03
1.493599e+03,2.511247e+03
1.494563e+03,2.505669e+03
1.495528e+03,2.506700e+03
1.496492e+03,2.513548e+03
1.497456e+03,2.514436e+03
1.498420e+03,2.508913e+03
1.499385e+03,2.501640e+03
1.500349e+03,2.492837e+03
1.501313e+03,2.487110e+03
1.502277e+03,2.490971e+03
1.503242e+03,2.498704e+03
1.504206e+03,2.502022e+03
1.505170e+03,2.497933e+03
1.506134e+03,2.493589e+03
1.507099e+03,2.489302e+03
1.508063e+03,2.484633e+03
1.509027e+03,2.479395e+03
1.509991e+03,2.473720e+03
1.510955e+03,2.467288e+03
1.511920e+03,2.460869e+03
1.512884e+03,2.456898e+03
1.513848e+03,2.456315e+03
1.514812e+03,2.457646e+03
1.515777e+03,2.457519e+03
1.516741e+03,2.458927e+03
1.517705e+03,2.465824e+03
1.518669e+03,2.471678e+03
1.519634e+03,2.470709e+03
1.520598e+03,2.463070e+03
1.521562e+03,2.461284e+03
1.522526e+03,2.464248e+03
1.523490e+03,2.464735e+03
1.524455e+03,2.460419e+03
1.525419e+03,2.454588e+03
1.526383e+03,2.450938e+03
1.527347e+03,2.446971e+03
1.528312e+03,2.439688e+03
1.529276e+03,2.431622e+03
1.530240e+03,2.429794e+03
1.531204e+03,2.436959e+03
1.532169e+03,2.440019e+03
1.533133e+03,2.437535e+03
1.534097e+03,2.433109e+03
1.535061e+03,2.428125e+03
1.536026e+03,2.423584e+03
1.536990e+03,2.422637e+03
1.537954e+03,2.424383e+03
1.538918e+03,2.427849e+03
1.539882e+03,2.433387e+03
1.540847e+03,2.433995e+03
1.541811e+03,2.421559e+03
1.542775e+03,2.410473e+03
1.543739e+03,2.405507e+03
1.544704e+03,2.405150e+03
1.545668e+03,2.408154e+03
1.546632e+03,2.413461e+03
1.547596e+03,2.414219e+03
1.548561e+03,2.410700e+03
1.549525e+03,2.407462e+03
1.550489e+03,2.406671e+03
1.551453e+03,2.405453e+03
1.552417e+03,2.400666e+03
1.553382e+03,2.396454e+03
1.554346e+03,2.397671e+03
1.555310e+03,2.403724e+03
1.556274e+03,2.405778e+03
1.557239e+03,2.403632e+03
1.558203e+03,2.398073e+03
1.559167e+03,2.389035e+03
1.560131e+03,2.381405e+03
1.561096e+03,2.380767e+03
1.562060e+03,2.382789e+03
1.563024e+03,2.384749e+03
1.563988e+03,2.386202e+03
1.564953e+03,2.386166e+03
1.565917e+03,2.383200e+03
1.566881e+03,2.383903e+03
1.567845e+03,2.388537e+03
1.568809e+03,2.390976e+03
1.569774e+03,2.388157e+03
1.570738e+03,2.381817e+03
1.571702e+03,2.369663e+03
1.572666e+03,2.357931e+03
1.573631e+03,2.357263e+03
1.574595e+03,2.369199e+03
1.575559e+03,2.374992e+03
1.576523e+03,2.370228e+03
1.577488e+03,2.367723e+03
1.578452e+03,2.369026e+03
1.579416e+03,2.370184e+03
1.580380e+03,2.367310e+03
1.581344e+03,2.362272e+03
1.582309e+03,2.358555e+03
1.583273e+03,2.356077e+03
1.584237e+03,2.353841e+03
1.585201e+03,2.352473e+03
1.586166e+03,2.348729e+03
1.587130e+03,2.338664e+03
1.588094e+03,2.332078e+03
1.589058e+03,2.335429e+03
1.590023e+03,2.342696e+03
1.590987e+03,2.339509e+03
1.591951e+03,2.331286e+03
1.592915e+03,2.329382e+03
1.593880e+03,2.333272e+03
1.594844e+03,2.336434e+03
1.595808e+03,2.337173e+03
1.596772e+03,2.336021e+03
1.597736e+03,2.333190e+03
1.598701e+03,2.330419e+03
1.599665e+03,2.329043e+03
1.600629e+03,2.328439e+03
1.601593e+03,2.326145e+03
1.602558e+03,2.322406e+03
1.603522e+03,2.317453e+03
1.604486e+03,2.310650e+03
1.605450e+03,2.306077e+03
1.606415e+03,2.310086e+03
1.607379e+03,2.312644e+03
1.608343e+03,2.308781e+03
1.609307e+03,2.301808e+03
1.610271e+03,2.298117e+03
1.611236e+03,2.296590e+03
1.612200e+03,2.292315e+03
1.613164e+03,2.286642e+03
1.614128e+03,2.285110e+03
1.615093e+03,2.295737e+03
1.616057e+03,2.302587e+03
1.617021e+03,2.296004e+03
1.617985e+03,2.287119e+03
1.618950e+03,2.282933e+03
1.619914e+03,2.282618e+03
1.620878e+03,2.284410e+03
1.621842e+03,2.287110e+03
1.622807e+03,2.282909e+03
1.623771e+03,2.270599e+03
1.624735e+03,2.263200e+03
1.625699e+03,2.272179e+03
1.626663e+03,2.279554e+03
1.627628e+03,2.277341e+03
1.628592e+03,2.270656e+03
1.629556e+03,2.267669e+03
1.630520e+03,2.268621e+03
1.631485e+03,2.268695e+03
1.632449e+03,2.267428e+03
1.633413e+03,2.264064e+03
1.634377e+03,2.257754e+03
1.635342e+03,2.251547e+03
1.636306e+03,2.245834e+03
1.637270e+03,2.241778e+03
1.638234e+03,2.239359e+03
1.639198e+03,2.239519e+03
1.640163e+03,2.246451e+03
1.641127e+03,2.257093e+03
1.642091e+03,2.258026e+03
1.643055e+03,2.248142e+03
1.644020e+03,2.238389e+03
1.644984e+03,2.231390e+03
1.645948e+03,2.227823e+03
1.646912e+03,2.230772e+03
1.647877e+03,2.232981e+03
1.648841e+03,2.227597e+03
1.649805e+03,2.217540e+03
1.650769e+03,2.209890e+03
1.651734e+03,2.204906e+03
1.652698e+03,2.204126e+03
1.653662e+03,2.207483e+03
1.654626e+03,2.213291e+03
1.655590e+03,2.226668e+03
1.656555e+03,2.232484e+03
1.657519e+03,2.225909e+03
1.658483e+03,2.215015e+03
1.659447e+03,2.209421e+03
1.660412e+03,2.205728e+03
1.661376e+03,2.197039e+03
1.662340e+03,2.186746e+03
1.663304e+03,2.184279e+03
1.664269e+03,2.201422e+03
1.665233e+03,2.207503e+03
1.666197e+03,2.198686e+03
1.667161e+03,2.188264e+03
1.668125e+03,2.184144e+03
1.669090e+03,2.182333e+03
1.670054e+03,2.174204e+03
1.671018e+03,2.166282e+03
1.671982e+03,2.170944e+03
1.672947e+03,2.188010e+03
1.673911e+03,2.193996e+03
1.674875e+03,2.183401e+03
1.675839e+03,2.177052e+03
1.676804e+03,2.179512e+03
1.677768e+03,2.181705e+03
1.678732e+03,2.170287e+03
1.679696e+03,2.158333e+03
1.680661e+03,2.161259e+03
1.681625e+03,2.168735e+03
1.682589e+03,2.166994e+03
1.683553e+03,2.156286e+03
1.684517e+03,2.145491e+03
1.685482e+03,2.134601e+03
1.686446e+03,2.134180e+03
1.687410e+03,2.149570e+03
1.688374e+03,2.161993e+03
1.689339e+03,2.153332e+03
1.690303e+03,2.141058e+03
1.691267e+03,2.134414e+03
1.692231e+03,2.132252e+03
1.693196e+03,2.132618e+03
1.694160e+03,2.134472e+03
1.695124e+03,2.135030e+03
1.696088e+03,2.134708e+03
1.697052e+03,2.134599e+03
1.698017e+03,2.133142e+03
1.698981e+03,2.132576e+03
1.699945e+03,2.135605e+03
1.700909e+03,2.133716e+03
1.701874e+03,2.121626e+03
1.702838e+03,2.107593e+03
1.703802e+03,2.109081e+03
1.704766e+03,2.118172e+03
1.705731e+03,2.122432e+03
1.706695e+03,2.120827e+03
1.707659e+03,2.117814e+03
1.708623e+03,2.114702e+03
1.709588e+03,2.111045e+03
1.710552e+03,2.105308e+03
1.711516e+03,2.100079e+03
1.712480e+03,2.099415e+03
1.713444e+03,2.099629e+03
1.714409e+03,2.097642e+03
1.715373e+03,2.094569e+03
1.716337e+03,2.090756e+03
1.717301e+03,2.086816e+03
1.718266e+03,2.085736e+03
1.719230e+03,2.086982e+03
1.720194e+03,2.089361e+03
1.721158e+03,2.092571e+03
1.722123e+03,2.093630e+03
1.723087e+03,2.088815e+03
1.724051e+03,2.083108e+03
1.725015e+03,2.078289e+03
1.725979e+03,2.075775e+03
1.726944e+03,2.077359e+03
1.727908e+03,2.082161e+03
1.728872e+03,2.088911e+03
1.729836e+03,2.094910e+03
1.730801e+03,2.093353e+03
1.731765e+03,2.075665e+03
1.732729e+03,2.066094e+03
1.733693e+03,2.069833e+03
1.734658e+03,2.072889e+03
1.735622e+03,2.067727e+03
1.736586e+03,2.061315e+03
1.737550e+03,2.068854e+03
1.738515e+03,2.077706e+03
1.739479e+03,2.068055e+03
1.740443e+03,2.043977e+03
1.741407e+03,2.037443e+03
1.742371e+03,2.051417e+03
1.743336e+03,2.054941e+03
1.744300e+03,2.045651e+03
1.745264e+03,2.036729e+03
1.746228e+03,2.042379e+03
1.747193e+03,2.046036e+03
1.748157e+03,2.035106e+03
1.749121e+03,2.025342e+03
1.750085e+03,2.026056e+03
1.751050e+03,2.032342e+03
1.752014e+03,2.035580e+03
1.752978e+03,2.036112e+03
1.753942e+03,2.031512e+03
1.754906e+03,2.020973e+03
1.755871e+03,2.017427e+03
1.756835e+03,2.026865e+03
1.757799e+03,2.029294e+03
1.758763e+03,2.022816e+03
1.759728e+03,2.014329e+03
1.760692e+03,2.007852e+03
1.761656e+03,2.004024e+03
1.762620e+03,2.001785e+03
1.763585e+03,2.002589e+03
1.764549e+03,2.010273e+03
1.765513e+03,2.023578e+03
1.766477e+03,2.022035e+03
1.767442e+03,2.009061e+03
1.768406e+03,2.003192e+03
1.769370e+03,2.011495e+03
1.770334e+03,2.017652e+03
1.771298e+03,2.010381e+03
1.772263e+03,2.002617e+03
1.773227e+03,1.998014e+03
1.774191e+03,1.995821e+03
1.775155e+03,1.996301e+03
1.776120e+03,1.996883e+03
1.777084e+03,1.993414e+03
1.778048e+03,1.987426e+03
1.779012e+03,1.983277e+03
1.779977e+03,1.982768e+03
1.780941e+03,1.977857e+03
1.781905e+03,1.967888e+03
1.782869e+03,1.963859e+03
1.783833e+03,1.974146e+03
1.784798e+03,1.980977e+03
1.785762e+03,1.966138e+03
1.786726e+03,1.953443e+03
1.787690e+03,1.956177e+03
1.788655e+03,1.965886e+03
1.789619e+03,1.965393e+03
1.790583e+03,1.959475e+03
1.791547e+03,1.957084e+03
1.792512e+03,1.958368e+03
1.793476e+03,1.959316e+03
1.794440e+03,1.957460e+03
1.795404e+03,1.960190e+03
1.796369e+03,1.967545e+03
1.797333e+03,1.969067e+03
1.798297e+03,1.954640e+03
1.799261e+03,1.940663e+03
1.800225e+03,1.939582e+03
1.801190e+03,1.940663e+03
1.802154e+03,1.937052e+03
1.803118e+03,1.931211e+03
1.804082e+03,1.931084e+03
1.805047e+03,1.935158e+03
1.806011e+03,1.939721e+03
1.806975e+03,1.943799e+03
1.807939e+03,1.943914e+03
1.808904e+03,1.938546e+03
1.809868e+03,1.931642e+03
1.810832e+03,1.924113e+03
1.811796e+03,1.916387e+03
1.812760e+03,1.904271e+03
1.813725e+03,1.896772e+03
1.814689e+03,1.902458e+03
1.815653e+03,1.913624e+03
1.816617e+03,1.927213e+03
1.817582e+03,1.939556e+03
1.818546e+03,1.934568e+03
1.819510e+03,1.919824e+03
1.820474e+03,1.913381e+03
1.821439e+03,1.918431e+03
1.822403e+03,1.918479e+03
1.823367e+03,1.911309e+03
1.824331e+03,1.904456e+03
1.825296e+03,1.898385e+03
1.826260e+03,1.894937e+03
1.827224e+03,1.902443e+03
1.828188e+03,1.907908e+03
1.829152e+03,1.899139e+03
1.830117e+03,1.888197e+03
1.831081e+03,1.885524e+03
1.832045e+03,1.887206e+03
1.833009e+03,1.883921e+03
1.833974e+03,1.879090e+03
1.834938e+03,1.876501e+03
1.835902e+03,1.876327e+03
1.836866e+03,1.872393e+03
1.837831e+03,1.863947e+03
1.838795e+03,1.861318e+03
1.839759e+03,1.867710e+03
1.840723e+03,1.875467e+03
1.841688e+03,1.881079e+03
1.842652e+03,1.882210e+03
1.843616e+03,1.876228e+03
1.844580e+03,1.867743e+03
1.845544e+03,1.861189e+03
1.846509e+03,1.857416e+03
1.847473e+03,1.858953e+03
1.848437e+03,1.863281e+03
1.849401e+03,1.866143e+03
1.850366e+03,1.867580e+03
1.851330e+03,1.866526e+03
1.852294e+03,1.863837e+03
1.853258e+03,1.862760e+03
1.854223e+03,1.864535e+03
1.855187e+03,1.861920e+03
1.856151e+03,1.843013e+03
1.857115e+03,1.832912e+03
1.858079e+03,1.838594e+03
1.859044e+03,1.845673e+03
1.860008e+03,1.837654e+03
1.860972e+03,1.826293e+03
1.861936e+03,1.821833e+03
1.862901e+03,1.822529e+03
1.863865e+03,1.824605e+03
1.864829e+03,1.826699e+03
1.865793e+03,1.828365e+03
1.866758e+03,1.829575e+03
1.867722e+03,1.827802e+03
1.868686e+03,1.820867e+03
1.869650e+03,1.817922e+03
1.870615e+03,1.819453e+03
1.871579e+03,1.822303e+03
1.872543e+03,1.827181e+03
1.873507e+03,1.829166e+03
1.874471e+03,1.815948e+03
1.875436e+03,1.805507e+03
1.876400e+03,1.809499e+03
1.877364e+03,1.816745e+03
1.878328e+03,1.813874e+03
1.879293e+03,1.805368e+03
1.880257e+03,1.797398e+03
1.881221e+03,1.790648e+03
1.882185e+03,1.787986e+03
1.883150e+03,1.789841e+03
1.884114e+03,1.790862e+03
1.885078e+03,1.790736e+03
1.886042e+03,1.791030e+03
1.887006e+03,1.792369e+03
1.887971e+03,1.791808e+03
1.888935e+03,1.787831e+03
1.889899e+03,1.786449e+03
1.890863e+03,1.788381e+03
1.891828e+03,1.790301e+03
1.892792e+03,1.791646e+03
1.893756e+03,1.790447e+03
1.894720e+03,1.785077e+03
1.895685e+03,1.779190e+03
1.896649e+03,1.774016e+03
1.897613e+03,1.769303e+03
1.898577e+03,1.766228e+03
1.899542e+03,1.765382e+03
1.900506e+03,1.768573e+03
1.901470e+03,1.776341e+03
1.902434e+03,1.778463e+03
1.903398e+03,1.775298e+03
1.904363e+03,1.772766e+03
1.905327e+03,1.772666e+03
1.906291e+03,1.772093e+03
1.907255e+03,1.766418e+03
1.908220e+03,1.763611e+03
1.909184e+03,1.766005e+03
1.910148e+03,1.767949e+03
1.911112e+03,1.765922e+03
1.912077e+03,1.760442e+03
1.913041e+03,1.747411e+03
1.914005e+03,1.734784e+03
1.914969e+03,1.731417e+03
1.915933e+03,1.734658e+03
1.916898e+03,1.737233e+03
1.917862e+03,1.738225e+03
1.918826e+03,1.733241e+03
1.919790e+03,1.721836e+03
1.920755e+03,1.718871e+03
1.921719e+03,1.723067e+03
1.922683e+03,1.728524e+03
1.923647e+03,1.734732e+03
1.924612e+03,1.737547e+03
1.925576e+03,1.731779e+03
1.926540e+03,1.727519e+03
1.927504e+03,1.725032e+03
1.928469e+03,1.723988e+03
1.929433e+03,1.725275e+03
1.930397e+03,1.726062e+03
1.931361e+03,1.724675e+03
1.932325e+03,1.721436e+03
1.933290e+03,1.716476e+03
1.934254e+03,1.712215e+03
1.935218e+03,1.711826e+03
1.936182e+03,1.712582e+03
1.937147e+03,1.712758e+03
1.938111e+03,1.712638e+03
1.939075e+03,1.712197e+03
1.940039e+03,1.711667e+03
1.941004e+03,1.705264e+03
1.941968e+03,1.691668e+03
1.942932e+03,1.683518e+03
1.943896e+03,1.686261e+03
1.944860e+03,1.691908e+03
1.945825e+03,1.700884e+03
1.946789e+03,1.704573e+03
1.947753e+03,1.690583e+03
1.948717e+03,1.676801e+03
1.949682e+03,1.668452e+03
1.950646e+03,1.665387e+03
1.951610e+03,1.668828e+03
1.952574e+03,1.676007e+03
1.953539e+03,1.687425e+03
1.954503e+03,1.696064e+03
1.955467e+03,1.694391e+03
1.956431e+03,1.685724e+03
1.957396e+03,1.674115e+03
1.958360e+03,1.662037e+03
1.959324e+03,1.657062e+03
1.960288e+03,1.659920e+03
1.961252e+03,1.665702e+03
1.962217e+03,1.673533e+03
1.963181e+03,1.675820e+03
1.964145e+03,1.672459e+03
1.965109e+03,1.668615e+03
1.966074e+03,1.667081e+03
1.967038e+03,1.666329e+03
1.968002e+03,1.664418e+03
1.968966e+03,1.663241e+03
1.969931e+03,1.665486e+03
1.970895e+03,1.664005e+03
1.971859e+03,1.649239e+03
1.972823e+03,1.638888e+03
1.973787e+03,1.641143e+03
1.974752e+03,1.646930e+03
1.975716e+03,1.645050e+03
1.976680e+03,1.638485e+03
1.977644e+03,1.627306e+03
1.978609e+03,1.618298e+03
1.979573e+03,1.624509e+03
1.980537e+03,1.639221e+03
1.981501e+03,1.638309e+03
1.982466e+03,1.627568e+03
1.983430e+03,1.625776e+03
1.984394e+03,1.635475e+03
1.985358e+03,1.638086e+03
1.986323e+03,1.634221e+03
1.987287e+03,1.628583e+03
1.988251e+03,1.621748e+03
1.989215e+03,1.616584e+03
1.990179e+03,1.613802e+03
1.991144e+03,1.612485e+03
1.992108e+03,1.613148e+03
1.993072e+03,1.613973e+03
1.994036e+03,1.613089e+03
1.995001e+03,1.611049e+03
1.995965e+03,1.607488e+03
1.996929e+03,1.605301e+03
1.997893e+03,1.608964e+03
1.998858e+03,1.611279e+03
1.999822e+03,1.603932e+03
2.000786e+03,1.593858e+03
2.001750e+03,1.587302e+03
2.002714e+03,1.585105e+03
2.003679e+03,1.590076e+03
2.004643e+03,1.595862e+03
2.005607e+03,1.590196e+03
2.006571e+03,1.578058e+03
2.007536e+03,1.581097e+03
2.008500e+03,1.594141e+03
2.009464e+03,1.599958e+03
2.010428e+03,1.597514e+03
2.011393e+03,1.597988e+03
2.012357e+03,1.602537e+03
2.013321e+03,1.601262e+03
2.014285e+03,1.592773e+03
2.015250e+03,1.583181e+03
2.016214e+03,1.569756e+03
2.017178e+03,1.569259e+03
2.018142e+03,1.584250e+03
2.019106e+03,1.594139e+03
2.020071e+03,1.587035e+03
2.021035e+03,1.574496e+03
2.021999e+03,1.556154e+03
2.022963e+03,1.544529e+03
2.023928e+03,1.546469e+03
2.024892e+03,1.552780e+03
2.025856e+03,1.551896e+03
2.026820e+03,1.552954e+03
2.027785e+03,1.563094e+03
2.028749e+03,1.574465e+03
2.029713e+03,1.578133e+03
2.030677e+03,1.575734e+03
2.031641e+03,1.563485e+03
2.032606e+03,1.549639e+03
2.033570e+03,1.549987e+03
2.034534e+03,1.559464e+03
2.035498e+03,1.555718e+03
2.036463e+03,1.544537e+03
2.037427e+03,1.539396e+03
2.038391e+03,1.541823e+03
2.039355e+03,1.540649e+03
2.040320e+03,1.537331e+03
2.041284e+03,1.537648e+03
2.042248e+03,1.542486e+03
2.043212e+03,1.544069e+03
2.044177e+03,1.542556e+03
2.045141e+03,1.535436e+03
2.046105e+03,1.522293e+03
2.047069e+03,1.514544e+03
2.048033e+03,1.522566e+03
2.048998e+03,1.525284e+03
2.049962e+03,1.521353e+03
2.050926e+03,1.515985e+03
2.051890e+03,1.510473e+03
2.052854e+03,1.507626e+03
2.053819e+03,1.507801e+03
2.054783e+03,1.509045e+03
2.055747e+03,1.512885e+03
2.056711e+03,1.515358e+03
2.057676e+03,1.506112e+03
2.058640e+03,1.503289e+03
2.059604e+03,1.518491e+03
2.060568e+03,1.535365e+03
2.061533e+03,1.526701e+03
2.062497e+03,1.511745e+03
2.063461e+03,1.510822e+03
2.064425e+03,1.515129e+03
2.065390e+03,1.513720e+03
2.066354e+03,1.507275e+03
2.067318e+03,1.493307e+03
2.068282e+03,1.478584e+03
2.069247e+03,1.475823e+03
2.070211e+03,1.482167e+03
2.071175e+03,1.479440e+03
2.072139e+03,1.473133e+03
2.073104e+03,1.477852e+03
2.074068e+03,1.494336e+03
2.075032e+03,1.506595e+03
2.075996e+03,1.512852e+03
2.076960e+03,1.504169e+03
2.077925e+03,1.479008e+03
2.078889e+03,1.469135e+03
2.079853e+03,1.476757e+03
2.080817e+03,1.477189e+03
2.081782e+03,1.467873e+03
2.082746e+03,1.460727e+03
2.083710e+03,1.463433e+03
2.084674e+03,1.460501e+03
2.085639e+03,1.451971e+03
2.086603e+03,1.449722e+03
2.087567e+03,1.463820e+03
2.088531e+03,1.472695e+03
2.089496e+03,1.472888e+03
2.090460e+03,1.466697e+03
2.091424e+03,1.455036e+03
2.092388e+03,1.447268e+03
2.093353e+03,1.450159e+03
2.094317e+03,1.455252e+03
2.095281e+03,1.459399e+03
2.096245e+03,1.461272e+03
2.097209e+03,1.458568e+03
2.098174e+03,1.454958e+03
2.099138e+03,1.452955e+03
2.100102e+03,1.451022e+03
2.101066e+03,1.449977e+03
2.102031e+03,1.445120e+03
2.102995e+03,1.424826e+03
2.103959e+03,1.406696e+03
2.104923e+03,1.407172e+03
2.105887e+03,1.418079e+03
2.106852e+03,1.429333e+03
2.107816e+03,1.434989e+03
2.108780e+03,1.429354e+03
2.109744e+03,1.418101e+03
2.110708e+03,1.417056e+03
2.111673e+03,1.420819e+03
2.112637e+03,1.418764e+03
2.113601e+03,1.412863e+03
2.114565e+03,1.410781e+03
2.115530e+03,1.410996e+03
2.116494e+03,1.409150e+03
2.117458e+03,1.408339e+03
2.118422e+03,1.413568e+03
2.119387e+03,1.422412e+03
2.120351e+03,1.429204e+03
2.121315e+03,1.432706e+03
2.122279e+03,1.433148e+03
2.123244e+03,1.430773e+03
2.124208e+03,1.420493e+03
2.125172e+03,1.406026e+03
2.126136e+03,1.399485e+03
2.127101e+03,1.404826e+03
2.128065e+03,1.400963e+03
2.129029e+03,1.389646e+03
2.129993e+03,1.388979e+03
2.130958e+03,1.401103e+03
2.131922e+03,1.405320e+03
2.132886e+03,1.400014e+03
2.133850e+03,1.395577e+03
2.134814e+03,1.394318e+03
2.135779e+03,1.390769e+03
2.136743e+03,1.378933e+03
2.137707e+03,1.376195e+03
2.138671e+03,1.383344e+03
2.139636e+03,1.388788e+03
2.140600e+03,1.386459e+03
2.141564e+03,1.381828e+03
2.142528e+03,1.375488e+03
2.143493e+03,1.369932e+03
2.144457e+03,1.364663e+03
2.145421e+03,1.363742e+03
2.146385e+03,1.370117e+03
2.147350e+03,1.372864e+03
2.148314e+03,1.369543e+03
2.149278e+03,1.365806e+03
2.150242e+03,1.360329e+03
2.151207e+03,1.360887e+03
2.152171e+03,1.369478e+03
2.153135e+03,1.374213e+03
2.154099e+03,1.362772e+03
2.155063e+03,1.355332e+03
2.156028e+03,1.357468e+03
2.156992e+03,1.361201e+03
2.157956e+03,1.359923e+03
2.158920e+03,1.356104e+03
2.159885e+03,1.348834e+03
2.160849e+03,1.345093e+03
2.161813e+03,1.350273e+03
2.162777e+03,1.354561e+03
2.163741e+03,1.349803e+03
2.164706e+03,1.340622e+03
2.165670e+03,1.327812e+03
2.166634e+03,1.320841e+03
2.167598e+03,1.335873e+03
2.168563e+03,1.349164e+03
2.169527e+03,1.349047e+03
2.170491e+03,1.342403e+03
2.171455e+03,1.334349e+03
2.172420e+03,1.329036e+03
2.173384e+03,1.330526e+03
2.174348e+03,1.333719e+03
2.175312e+03,1.336349e+03
2.176277e+03,1.335159e+03
2.177241e+03,1.321867e+03
2.178205e+03,1.310555e+03
2.179169e+03,1.312632e+03
2.180134e+03,1.318965e+03
2.181098e+03,1.315475e+03
2.182062e+03,1.310605e+03
2.183026e+03,1.309256e+03
2.183990e+03,1.309135e+03
2.184955e+03,1.305818e+03
2.185919e+03,1.304168e+03
2.186883e+03,1.308875e+03
2.187847e+03,1.313942e+03
2.188812e+03,1.313623e+03
2.189776e+03,1.309508e+03
2.190740e+03,1.297285e+03
2.191704e+03,1.287038e+03
2.192668e+03,1.290879e+03
2.193633e+03,1.301497e+03
2.194597e+03,1.315031e+03
2.195561e+03,1.321265e+03
2.196525e+03,1.306943e+03
2.197490e+03,1.286354e+03
2.198454e+03,1.286311e+03
2.199418e+03,1.292775e+03
2.200382e+03,1.293901e+03
2.201347e+03,1.291453e+03
2.202311e+03,1.282012e+03
2.203275e+03,1.275001e+03
2.204239e+03,1.282171e+03
2.205204e+03,1.292621e+03
2.206168e+03,1.295853e+03
2.207132e+03,1.293621e+03
2.208096e+03,1.282356e+03
2.209061e+03,1.269701e+03
2.210025e+03,1.265418e+03
2.210989e+03,1.265401e+03
2.211953e+03,1.264930e+03
2.212917e+03,1.265834e+03
2.213882e+03,1.265571e+03
2.214846e+03,1.265199e+03
2.215810e+03,1.270699e+03
2.216774e+03,1.275360e+03
2.217739e+03,1.275712e+03
2.218703e+03,1.273564e+03
2.219667e+03,1.270861e+03
2.220631e+03,1.267247e+03
2.221595e+03,1.260439e+03
2.222560e+03,1.254057e+03
2.223524e+03,1.256535e+03
2.224488e+03,1.259744e+03
2.225452e+03,1.251544e+03
2.226417e+03,1.242651e+03
2.227381e+03,1.244332e+03
2.228345e+03,1.250897e+03
2.229309e+03,1.255938e+03
2.230274e+03,1.257563e+03
2.231238e+03,1.252886e+03
2.232202e+03,1.247152e+03
2.233166e+03,1.252766e+03
2.234131e+03,1.258250e+03
2.235095e+03,1.254100e+03
2.236059e+03,1.245505e+03
2.237023e+03,1.237627e+03
2.237988e+03,1.231361e+03
2.238952e+03,1.226739e+03
2.239916e+03,1.223040e+03
2.240880e+03,1.219273e+03
2.241844e+03,1.219280e+03
2.242809e+03,1.227782e+03
2.243773e+03,1.236273e+03
2.244737e+03,1.233895e+03
2.245701e+03,1.229079e+03
2.246666e+03,1.229506e+03
2.247630e+03,1.228751e+03
2.248594e+03,1.221568e+03
2.249558e+03,1.216047e+03
2.250522e+03,1.222258e+03
2.251487e+03,1.228562e+03
2.252451e+03,1.227902e+03
2.253415e+03,1.223944e+03
2.254379e+03,1.223004e+03
2.255344e+03,1.219815e+03
2.256308e+03,1.212248e+03
2.257272e+03,1.203790e+03
2.258236e+03,1.194151e+03
2.259201e+03,1.191174e+03
2.260165e+03,1.196922e+03
2.261129e+03,1.205685e+03
2.262093e+03,1.217505e+03
2.263058e+03,1.221393e+03
2.264022e+03,1.215105e+03
2.264986e+03,1.207804e+03
2.265950e+03,1.204076e+03
2.266915e+03,1.200871e+03
2.267879e+03,1.196569e+03
2.268843e+03,1.190533e+03
2.269807e+03,1.182503e+03
2.270771e+03,1.179620e+03
2.271736e+03,1.186759e+03
2.272700e+03,1.191148e+03
2.273664e+03,1.187353e+03
2.274628e+03,1.186023e+03
2.275593e+03,1.194821e+03
2.276557e+03,1.194703e+03
2.277521e+03,1.183530e+03
2.278485e+03,1.176278e+03
2.279449e+03,1.184564e+03
2.280414e+03,1.183963e+03
2.281378e+03,1.173203e+03
2.282342e+03,1.164613e+03
2.283306e+03,1.162897e+03
2.284271e+03,1.166462e+03
2.285235e+03,1.174288e+03
2.286199e+03,1.176807e+03
2.287163e+03,1.170120e+03
2.288128e+03,1.169796e+03
2.289092e+03,1.174035e+03
2.290056e+03,1.172798e+03
2.291020e+03,1.163855e+03
2.291985e+03,1.159704e+03
2.292949e+03,1.161182e+03
2.293913e+03,1.165738e+03
2.294877e+03,1.171817e+03
2.295842e+03,1.174386e+03
2.296806e+03,1.172865e+03
2.297770e+03,1.167604e+03
2.298734e+03,1.160432e+03
2.299698e+03,1.159061e+03
2.300663e+03,1.162787e+03
2.301627e+03,1.161913e+03
2.302591e+03,1.157537e+03
2.303555e+03,1.153404e+03
2.304520e+03,1.150145e+03
2.305484e+03,1.148168e+03
2.306448e+03,1.148443e+03
2.307412e+03,1.154417e+03
2.308376e+03,1.160337e+03
2.309341e+03,1.148049e+03
2.310305e+03,1.130576e+03
2.311269e+03,1.126256e+03
2.312233e+03,1.129965e+03
2.313198e+03,1.134741e+03
2.314162e+03,1.138552e+03
2.315126e+03,1.139922e+03
2.316090e+03,1.138825e+03
2.317055e+03,1.133701e+03
2.318019e+03,1.128684e+03
2.318983e+03,1.126583e+03
2.319947e+03,1.126077e+03
2.320912e+03,1.128979e+03
2.321876e+03,1.131298e+03
2.322840e+03,1.127529e+03
2.323804e+03,1.125805e+03
2.324769e+03,1.131998e+03
2.325733e+03,1.136562e+03
2.326697e+03,1.129607e+03
2.327661e+03,1.124295e+03
2.328625e+03,1.123786e+03
2.329590e+03,1.121770e+03
2.330554e+03,1.114119e+03
2.331518e+03,1.108763e+03
2.332482e+03,1.106678e+03
2.333447e+03,1.108358e+03
2.334411e+03,1.117880e+03
2.335375e+03,1.118465e+03
2.336339e+03,1.109745e+03
2.337303e+03,1.104950e+03
2.338268e+03,1.111270e+03
2.339232e+03,1.112883e+03
2.340196e+03,1.110320e+03
2.341160e+03,1.104166e+03
2.342125e+03,1.093518e+03
2.343089e+03,1.094286e+03
2.344053e+03,1.101886e+03
2.345017e+03,1.104654e+03
2.345982e+03,1.101682e+03
2.346946e+03,1.096838e+03
2.347910e+03,1.092490e+03
2.348874e+03,1.094467e+03
2.349839e+03,1.098495e+03
2.350803e+03,1.093176e+03
2.351767e+03,1.083539e+03
2.352731e+03,1.076810e+03
2.353696e+03,1.074937e+03
2.354660e+03,1.082026e+03
2.355624e+03,1.090681e+03
2.356588e+03,1.090377e+03
2.357552e+03,1.086071e+03
2.358517e+03,1.079733e+03
2.359481e+03,1.075401e+03
2.360445e+03,1.082468e+03
2.361409e+03,1.084997e+03
2.362374e+03,1.072668e+03
2.363338e+03,1.059062e+03
2.364302e+03,1.057018e+03
2.365266e+03,1.062423e+03
2.366230e+03,1.075682e+03
2.367195e+03,1.082548e+03
2.368159e+03,1.065597e+03
2.369123e+03,1.055300e+03
2.370087e+03,1.056812e+03
2.371052e+03,1.063666e+03
2.372016e+03,1.077705e+03
2.372980e+03,1.081597e+03
2.373944e+03,1.074714e+03
2.374909e+03,1.066118e+03
2.375873e+03,1.057852e+03
2.376837e+03,1.052492e+03
2.377801e+03,1.050135e+03
2.378766e+03,1.051150e+03
2.379730e+03,1.055119e+03
2.380694e+03,1.056700e+03
2.381658e+03,1.056957e+03
2.382623e+03,1.056059e+03
2.383587e+03,1.054362e+03
2.384551e+03,1.053255e+03
2.385515e+03,1.051719e+03
2.386479e+03,1.049143e+03
2.387444e+03,1.046242e+03
2.388408e+03,1.044101e+03
2.389372e+03,1.042443e+03
2.390336e+03,1.039191e+03
2.391301e+03,1.037592e+03
2.392265e+03,1.041756e+03
2.393229e+03,1.047289e+03
2.394193e+03,1.053196e+03
2.395157e+03,1.055408e+03
2.396122e+03,1.051592e+03
2.397086e+03,1.041687e+03
2.398050e+03,1.024040e+03
2.399014e+03,1.016753e+03
2.399979e+03,1.030143e+03
2.400943e+03,1.036124e+03
2.401907e+03,1.029531e+03
2.402871e+03,1.024433e+03
2.403836e+03,1.024217e+03
2.404800e+03,1.027382e+03
2.405764e+03,1.032786e+03
2.406728e+03,1.033901e+03
2.407693e+03,1.030228e+03
2.408657e+03,1.027545e+03
2.409621e+03,1.026716e+03
2.410585e+03,1.029036e+03
2.411550e+03,1.032271e+03
2.412514e+03,1.030288e+03
2.413478e+03,1.025368e+03
2.414442e+03,1.023765e+03
2.415406e+03,1.023550e+03
2.416371e+03,1.022566e+03
2.417335e+03,1.020871e+03
2.418299e+03,1.017463e+03
2.419263e+03,1.014081e+03
2.420228e+03,1.010769e+03
2.421192e+03,1.010049e+03
2.422156e+03,1.018094e+03
2.423120e+03,1.024509e+03
2.424084e+03,1.026312e+03
2.425049e+03,1.022558e+03
2.426013e+03,1.011119e+03
2.426977e+03,1.002644e+03
2.427941e+03,9.988815e+02
2.428906e+03,9.986276e+02
2.429870e+03,1.001169e+03
2.430834e+03,1.003745e+03
2.431798e+03,1.006094e+03
2.432763e+03,1.005109e+03
2.433727e+03,1.000922e+03
2.434691e+03,9.998417e+02
2.435655e+03,1.000518e+03
2.436620e+03,1.000249e+03
2.437584e+03,9.996099e+02
2.438548e+03,1.001676e+03
2.439512e+03,1.003708e+03
2.440477e+03,1.002817e+03
2.441441e+03,9.990261e+02
2.442405e+03,9.917760e+02
2.443369e+03,9.849830e+02
2.444333e+03,9.800190e+02
2.445298e+03,9.798098e+02
2.446262e+03,9.931512e+02
2.447226e+03,9.982369e+02
2.448190e+03,9.917408e+02
2.449155e+03,9.855654e+02
2.450119e+03,9.885908e+02
2.451083e+03,9.880627e+02
2.452047e+03,9.840283e+02
2.453011e+03,9.815363e+02
2.453976e+03,9.824307e+02
2.454940e+03,9.760895e+02
2.455904e+03,9.664936e+02
2.456868e+03,9.639191e+02
2.457833e+03,9.662306e+02
2.458797e+03,9.683759e+02
2.459761e+03,9.703160e+02
2.460725e+03,9.711699e+02
2.461690e+03,9.712243e+02
2.462654e+03,9.712232e+02
2.463618e+03,9.700514e+02
2.464582e+03,9.673240e+02
2.465547e+03,9.655049e+02
2.466511e+03,9.647656e+02
2.467475e+03,9.666984e+02
2.468439e+03,9.717929e+02
2.469404e+03,9.732081e+02
2.470368e+03,9.646508e+02
2.471332e+03,9.606490e+02
2.472296e+03,9.604443e+02
2.473260e+03,9.575905e+02
2.474225e+03,9.503246e+02
2.475189e+03,9.515328e+02
2.476153e+03,9.583414e+02
2.477117e+03,9.584766e+02
2.478082e+03,9.539537e+02
2.479046e+03,9.546853e+02
2.480010e+03,9.575853e+02
2.480974e+03,9.597072e+02
2.481938e+03,9.603686e+02
2.482903e+03,9.585413e+02
2.483867e+03,9.542083e+02
2.484831e+03,9.462221e+02
2.485795e+03,9.411127e+02
2.486760e+03,9.508807e+02
2.487724e+03,9.520178e+02
2.488688e+03,9.410652e+02
2.489652e+03,9.328530e+02
2.490617e+03,9.333735e+02
2.491581e+03,9.433727e+02
2.492545e+03,9.600659e+02
2.493509e+03,9.621290e+02
2.494474e+03,9.473417e+02
2.495438e+03,9.364291e+02
2.496402e+03,9.307056e+02
2.497366e+03,9.386038e+02
2.498331e+03,9.490275e+02
2.499295e+03,9.363148e+02
2.500259e+03,9.197214e+02
2.501223e+03,9.158715e+02
2.502188e+03,9.207449e+02
2.503152e+03,9.396644e+02
2.504116e+03,9.482543e+02
2.505080e+03,9.394108e+02
2.506044e+03,9.291201e+02
2.507009e+03,9.244251e+02
2.507973e+03,9.274147e+02
2.508937e+03,9.371640e+02
2.509901e+03,9.367576e+02
2.510865e+03,9.207347e+02
2.511830e+03,9.208918e+02
2.512794e+03,9.306010e+02
2.513758e+03,9.337129e+02
2.514722e+03,9.317063e+02
2.515687e+03,9.260569e+02
2.516651e+03,9.212780e+02
2.517615e+03,9.223778e+02
2.518579e+03,9.250301e+02
2.519544e+03,9.261135e+02
2.520508e+03,9.218778e+02
2.521472e+03,9.107353e+02
2.522436e+03,9.021119e+02
2.523401e+03,9.038226e+02
2.524365e+03,9.094711e+02
2.525329e+03,9.174011e+02
2.526293e+03,9.177816e+02
2.527258e+03,9.087646e+02
2.528222e+03,9.022950e+02
2.529186e+03,8.994369e+02
2.530150e+03,9.049601e+02
2.531115e+03,9.143273e+02
2.532079e+03,9.086270e+02
2.533043e+03,8.998928e+02
2.534007e+03,9.013333e+02
2.534971e+03,9.048730e+02
2.535936e+03,9.018500e+02
2.536900e+03,8.976331e+02
2.537864e+03,8.935298e+02
2.538828e+03,8.919592e+02
2.539792e+03,8.921400e+02
2.540757e+03,8.997828e+02
2.541721e+03,9.147217e+02
2.542685e+03,9.172807e+02
2.543649e+03,9.078962e+02
2.544614e+03,9.048826e+02
2.545578e+03,9.061744e+02
2.546542e+03,9.037322e+02
2.547506e+03,9.002083e+02
2.548471e+03,9.018738e+02
2.549435e+03,9.059670e+02
2.550399e+03,9.116846e+02
2.551363e+03,9.149958e+02
2.552328e+03,9.127440e+02
2.553292e+03,9.077982e+02
2.554256e+03,8.998008e+02
2.555220e+03,8.958427e+02
2.556185e+03,8.967380e+02
2.557149e+03,8.959053e+02
2.558113e+03,8.923811e+02
2.559077e+03,8.918955e+02
2.560042e+03,8.936327e+02
2.561006e+03,8.990672e+02
2.561970e+03,9.043604e+02
2.562934e+03,8.963975e+02
2.563898e+03,8.853393e+02
2.564863e+03,8.811498e+02
2.565827e+03,8.822143e+02
2.566791e+03,8.977225e+02
2.567755e+03,9.025783e+02
2.568719e+03,8.898484e+02
2.569684e+03,8.778626e+02
2.570648e+03,8.746893e+02
2.571612e+03,8.739136e+02
2.572576e+03,8.762383e+02
2.573541e+03,8.849344e+02
2.574505e+03,8.966640e+02
2.575469e+03,8.996080e+02
2.576433e+03,8.946850e+02
2.577398e+03,8.822269e+02
2.578362e+03,8.693242e+02
2.579326e+03,8.652197e+02
2.580290e+03,8.639354e+02
2.581255e+03,8.616572e+02
2.582219e+03,8.621422e+02
2.583183e+03,8.724865e+02
2.584147e+03,8.778325e+02
2.585112e+03,8.787003e+02
2.586076e+03,8.753137e+02
2.587040e+03,8.680369e+02
2.588004e+03,8.656395e+02
2.588969e+03,8.654384e+02
2.589933e+03,8.625878e+02
2.590897e+03,8.593375e+02
2.591861e+03,8.609003e+02
2.592825e+03,8.640870e+02
2.593790e+03,8.671581e+02
2.594754e+03,8.672170e+02
2.595718e+03,8.605358e+02
2.596682e+03,8.573085e+02
2.597646e+03,8.593559e+02
2.598611e+03,8.581512e+02
2.599575e+03,8.539323e+02
2.600539e+03,8.516652e+02
2.601503e+03,8.508854e+02
2.602468e+03,8.482640e+02
2.603432e+03,8.450301e+02
2.604396e+03,8.463098e+02
2.605360e+03,8.474714e+02
2.606325e+03,8.387844e+02
2.607289e+03,8.371525e+02
2.608253e+03,8.514659e+02
2.609217e+03,8.614438e+02
2.610182e+03,8.551227e+02
2.611146e+03,8.461951e+02
2.612110e+03,8.372102e+02
2.613074e+03,8.356669e+02
2.614039e+03,8.416526e+02
2.615003e+03,8.485790e+02
2.615967e+03,8.540342e+02
2.616931e+03,8.572526e+02
2.617896e+03,8.569808e+02
2.618860e+03,8.452408e+02
2.619824e+03,8.394554e+02
2.620788e+03,8.462472e+02
2.621752e+03,8.494619e+02
2.622717e+03,8.372684e+02
2.623681e+03,8.343227e+02
2.624645e+03,8.397106e+02
2.625609e+03,8.372463e+02
2.626573e+03,8.281291e+02
2.627538e+03,8.329793e+02
2.628502e+03,8.401433e+02
2.629466e+03,8.289050e+02
2.630430e+03,8.140338e+02
2.631395e+03,8.147991e+02
2.632359e+03,8.204987e+02
2.633323e+03,8.297961e+02
2.634287e+03,8.354349e+02
2.635252e+03,8.366698e+02
2.636216e+03,8.301100e+02
2.637180e+03,8.158748e+02
2.638144e+03,8.164632e+02
2.639109e+03,8.256551e+02
2.640073e+03,8.287217e+02
2.641037e+03,8.277765e+02
2.642001e+03,8.205649e+02
2.642966e+03,8.161698e+02
2.643930e+03,8.201381e+02
2.644894e+03,8.234745e+02
2.645858e+03,8.168566e+02
2.646823e+03,8.192246e+02
2.647787e+03,8.292963e+02
2.648751e+03,8.299591e+02
2.649715e+03,8.200199e+02
2.650679e+03,8.152278e+02
2.651644e+03,8.131502e+02
2.652608e+03,8.095820e+02
2.653572e+03,8.055458e+02
2.654536e+03,8.016296e+02
2.655500e+03,8.014302e+02
2.656465e+03,8.068067e+02
2.657429e+03,8.123990e+02
2.658393e+03,8.161711e+02
2.659357e+03,8.127367e+02
2.660322e+03,8.039488e+02
2.661286e+03,8.007975e+02
2.662250e+03,8.026749e+02
2.663214e+03,8.107637e+02
2.664179e+03,8.182179e+02
2.665143e+03,8.145143e+02
2.666107e+03,8.127797e+02
2.667071e+03,8.211511e+02
2.668036e+03,8.243348e+02
2.669000e+03,8.081857e+02
2.669964e+03,8.009946e+02
2.670928e+03,8.023763e+02
2.671893e+03,8.047708e+02
2.672857e+03,8.070749e+02
2.673821e+03,8.070052e+02
2.674785e+03,8.061352e+02
2.675750e+03,8.076520e+02
2.676714e+03,8.080703e+02
2.677678e+03,7.999273e+02
2.678642e+03,7.954282e+02
2.679606e+03,7.976687e+02
2.680571e+03,7.950689e+02
2.681535e+03,7.859241e+02
2.682499e+03,7.866297e+02
2.683463e+03,7.956479e+02
2.684427e+03,8.040307e+02
2.685392e+03,8.104359e+02
2.686356e+03,8.119785e+02
2.687320e+03,8.081727e+02
2.688284e+03,7.917546e+02
2.689249e+03,7.857902e+02
2.690213e+03,7.938546e+02
2.691177e+03,7.979844e+02
2.692141e+03,7.928150e+02
2.693106e+03,7.953640e+02
2.694070e+03,8.015963e+02
2.695034e+03,8.006033e+02
2.695998e+03,7.960882e+02
2.696963e+03,7.931860e+02
2.697927e+03,7.934151e+02
2.698891e+03,7.970523e+02
2.699855e+03,7.978961e+02
2.700820e+03,7.928886e+02
2.701784e+03,7.898069e+02
2.702748e+03,7.881344e+02
2.703712e+03,7.810445e+02
2.704677e+03,7.715403e+02
2.705641e+03,7.728047e+02
2.706605e+03,7.776863e+02
2.707569e+03,7.751979e+02
2.708533e+03,7.738643e+02
2.709498e+03,7.773065e+02
2.710462e+03,7.811789e+02
2.711426e+03,7.849635e+02
2.712390e+03,7.878410e+02
2.713354e+03,7.896481e+02
2.714319e+03,7.912466e+02
2.715283e+03,7.903965e+02
2.716247e+03,7.777637e+02
2.717211e+03,7.635300e+02
2.718176e+03,7.536404e+02
2.719140e+03,7.525442e+02
2.720104e+03,7.678740e+02
2.721068e+03,7.738868e+02
2.722033e+03,7.684529e+02
2.722997e+03,7.708424e+02
2.723961e+03,7.787551e+02
2.724925e+03,7.785534e+02
2.725890e+03,7.743605e+02
2.726854e+03,7.705287e+02
2.727818e+03,7.692168e+02
2.728782e+03,7.711006e+02
2.729747e+03,7.700412e+02
2.730711e+03,7.593939e+02
2.731675e+03,7.599666e+02
2.732639e+03,7.695159e+02
2.733604e+03,7.759598e+02
2.734568e+03,7.782038e+02
2.735532e+03,7.737874e+02
2.736496e+03,7.667352e+02
2.737460e+03,7.605851e+02
2.738425e+03,7.551450e+02
2.739389e+03,7.490158e+02
2.740353e+03,7.493220e+02
2.741317e+03,7.572561e+02
2.742281e+03,7.623777e+02
2.743246e+03,7.650059e+02
2.744210e+03,7.660224e+02
2.745174e+03,7.651825e+02
2.746138e+03,7.625207e+02
2.747103e+03,7.614265e+02
2.748067e+03,7.636708e+02
2.749031e+03,7.650175e+02
2.749995e+03,7.625825e+02
2.750960e+03,7.602009e+02
2.751924e+03,7.570951e+02
2.752888e+03,7.488775e+02
2.753852e+03,7.400034e+02
2.754817e+03,7.419369e+02
2.755781e+03,7.482244e+02
2.756745e+03,7.560475e+02
2.757709e+03,7.610007e+02
2.758674e+03,7.612287e+02
2.759638e+03,7.604515e+02
2.760602e+03,7.588635e+02
2.761566e+03,7.508260e+02
2.762531e+03,7.429871e+02
2.763495e+03,7.472642e+02
2.764459e+03,7.531543e+02
2.765423e+03,7.521575e+02
2.766387e+03,7.454551e+02
2.767352e+03,7.343530e+02
2.768316e+03,7.338884e+02
2.769280e+03,7.462064e+02
2.770244e+03,7.519518e+02
2.771208e+03,7.509156e+02
2.772173e+03,7.412297e+02
2.773137e+03,7.337975e+02
2.774101e+03,7.471122e+02
2.775065e+03,7.526921e+02
2.776030e+03,7.355175e+02
2.776994e+03,7.262982e+02
2.777958e+03,7.260078e+02
2.778922e+03,7.286230e+02
2.779887e+03,7.326490e+02
2.780851e+03,7.391313e+02
2.781815e+03,7.393214e+02
2.782779e+03,7.273154e+02
2.783744e+03,7.221537e+02
2.784708e+03,7.386395e+02
2.785672e+03,7.471595e+02
2.786636e+03,7.450619e+02
2.787601e+03,7.368926e+02
2.788565e+03,7.281166e+02
2.789529e+03,7.319307e+02
2.790493e+03,7.396490e+02
2.791458e+03,7.457302e+02
2.792422e+03,7.473017e+02
2.793386e+03,7.451896e+02
2.794350e+03,7.458922e+02
2.795314e+03,7.503497e+02
2.796279e+03,7.441371e+02
2.797243e+03,7.342944e+02
2.798207e+03,7.333078e+02
2.799171e+03,7.371381e+02
2.800135e+03,7.432103e+02
2.801100e+03,7.452269e+02
2.802064e+03,7.417940e+02
2.803028e+03,7.408096e+02
2.803992e+03,7.416619e+02
2.804957e+03,7.369818e+02
2.805921e+03,7.311003e+02
2.806885e+03,7.322751e+02
2.807849e+03,7.347913e+02
2.808814e+03,7.357253e+02
2.809778e+03,7.349618e+02
2.810742e+03,7.328320e+02
2.811706e+03,7.271857e+02
2.812671e+03,7.194368e+02
2.813635e+03,7.162111e+02
2.814599e+03,7.164742e+02
2.815563e+03,7.211442e+02
2.816528e+03,7.250837e+02
2.817492e+03,7.249962e+02
2.818456e+03,7.276735e+02
2.819420e+03,7.325491e+02
2.820385e+03,7.338345e+02
2.821349e+03,7.316432e+02
2.822313e+03,7.218630e+02
2.823277e+03,7.152815e+02
2.824241e+03,7.189607e+02
2.825206e+03,7.277321e+02
2.826170e+03,7.418568e+02
2.827134e+03,7.439717e+02
2.828098e+03,7.334655e+02
2.829063e+03,7.301232e+02
2.830027e+03,7.307531e+02
2.830991e+03,7.277419e+02
2.831955e+03,7.265573e+02
2.832919e+03,7.318995e+02
2.833884e+03,7.358542e+02
2.834848e+03,7.368171e+02
2.835812e+03,7.333956e+02
2.836776e+03,7.265413e+02
2.837741e+03,7.160495e+02
2.838705e+03,7.089199e+02
2.839669e+03,7.121250e+02
2.840633e+03,7.202114e+02
2.841598e+03,7.313125e+02
2.842562e+03,7.313990e+02
2.843526e+03,7.172546e+02
2.844490e+03,7.212234e+02
2.845455e+03,7.303561e+02
2.846419e+03,7.198100e+02
2.847383e+03,7.079785e+02
2.848347e+03,7.201104e+02
2.849312e+03,7.252147e+02
2.850276e+03,7.179856e+02
2.851240e+03,7.144899e+02
2.852204e+03,7.147812e+02
2.853168e+03,7.117109e+02
2.854133e+03,7.095230e+02
2.855097e+03,7.145910e+02
2.856061e+03,7.245482e+02
2.857025e+03,7.371467e+02
2.857990e+03,7.378742e+02
2.858954e+03,7.222596e+02
2.859918e+03,7.215098e+02
2.860882e+03,7.255040e+02
2.861846e+03,7.158207e+02
2.862811e+03,7.064584e+02
2.863775e+03,7.121465e+02
2.864739e+03,7.159327e+02
2.865703e+03,7.135988e+02
2.866668e+03,7.135845e+02
2.867632e+03,7.167742e+02
2.868596e+03,7.272802e+02
2.869560e+03,7.373443e+02
2.870525e+03,7.404520e+02
2.871489e+03,7.337303e+02
2.872453e+03,7.165714e+02
2.873417e+03,7.167662e+02
2.874382e+03,7.313000e+02
2.875346e+03,7.237850e+02
2.876310e+03,7.094964e+02
2.877274e+03,7.098487e+02
2.878239e+03,7.155770e+02
2.879203e+03,7.219631e+02
2.880167e+03,7.236574e+02
2.881131e+03,7.196974e+02
2.882095e+03,7.169329e+02
2.883060e+03,7.155886e+02
2.884024e+03,7.143129e+02
2.884988e+03,7.160788e+02
2.885952e+03,7.260349e+02
2.886917e+03,7.272593e+02
2.887881e+03,7.156535e+02
2.888845e+03,7.105907e+02
2.889809e+03,7.113270e+02
2.890773e+03,7.148900e+02
2.891738e+03,7.173419e+02
2.892702e+03,7.141459e+02
2.893666e+03,7.147081e+02
2.894630e+03,7.203969e+02
2.895595e+03,7.237808e+02
2.896559e+03,7.236104e+02
2.897523e+03,7.148592e+02
2.898487e+03,7.067224e+02
2.899452e+03,7.082525e+02
2.900416e+03,7.178344e+02
2.901380e+03,7.329879e+02
2.902344e+03,7.315614e+02
2.903309e+03,7.137303e+02
2.904273e+03,7.113747e+02
2.905237e+03,7.180206e+02
2.906201e+03,7.279466e+02
2.907166e+03,7.315671e+02
2.908130e+03,7.253167e+02
2.909094e+03,7.129993e+02
2.910058e+03,6.972444e+02
2.911022e+03,6.963102e+02
2.911987e+03,7.019459e+02
2.912951e+03,7.034584e+02
2.913915e+03,7.061816e+02
2.914879e+03,7.165096e+02
2.915844e+03,7.154247e+02
2.916808e+03,7.026797e+02
2.917772e+03,6.894346e+02
2.918736e+03,6.803585e+02
2.919700e+03,6.814225e+02
2.920665e+03,6.878851e+02
2.921629e+03,7.043829e+02
2.922593e+03,7.072454e+02
2.923557e+03,6.979568e+02
2.924522e+03,6.846412e+02
2.925486e+03,6.742241e+02
2.926450e+03,6.845740e+02
2.927414e+03,6.974189e+02
2.928379e+03,7.055608e+02
2.929343e+03,7.125541e+02
2.930307e+03,7.163600e+02
2.931271e+03,6.936848e+02
2.932236e+03,6.681013e+02
2.933200e+03,6.902990e+02
2.934164e+03,7.120655e+02
2.935128e+03,7.133504e+02
2.936093e+03,7.087902e+02
2.937057e+03,7.024255e+02
2.938021e+03,6.827928e+02
2.938985e+03,6.660031e+02
2.939949e+03,6.848330e+02
2.940914e+03,7.006301e+02
2.941878e+03,7.004465e+02
2.942842e+03,6.969784e+02
2.943806e+03,6.925089e+02
2.944771e+03,6.839601e+02
2.945735e+03,6.779880e+02
2.946699e+03,6.882785e+02
2.947663e+03,6.875207e+02
2.948627e+03,6.670388e+02
2.949592e+03,6.716644e+02
2.950556e+03,7.048607e+02
2.951520e+03,6.996992e+02
2.952484e+03,6.843599e+02
2.953449e+03,6.895533e+02
2.954413e+03,6.991459e+02
2.955377e+03,7.064117e+02
2.956341e+03,7.122385e+02
2.957306e+03,7.174502e+02
2.958270e+03,7.347956e+02
2.959234e+03,7.373207e+02
2.960198e+03,7.058409e+02
2.961163e+03,6.770267e+02
2.962127e+03,6.658026e+02
2.963091e+03,6.636149e+02
2.964055e+03,6.664926e+02
2.965020e+03,6.664488e+02
2.965984e+03,6.637712e+02
2.966948e+03,6.569588e+02
2.967912e+03,6.559520e+02
2.968876e+03,6.668528e+02
2.969841e+03,6.773145e+02
2.970805e+03,6.818519e+02
2.971769e+03,6.695690e+02
2.972733e+03,6.604764e+02
2.973698e+03,6.694145e+02
2.974662e+03,6.828153e+02
2.975626e+03,6.971722e+02
2.976590e+03,6.930378e+02
2.977554e+03,6.806616e+02
2.978519e+03,6.733038e+02
2.979483e+03,6.688604e+02
2.980447e+03,6.671061e+02
2.981411e+03,6.627676e+02
2.982376e+03,6.570841e+02
2.983340e+03,6.604668e+02
2.984304e+03,6.658314e+02
2.985268e+03,6.657813e+02
2.986233e+03,6.680208e+02
2.987197e+03,6.796827e+02
2.988161e+03,6.781666e+02
2.989125e+03,6.654570e+02
2.990090e+03,6.515489e+02
2.991054e+03,6.394524e+02
2.992018e+03,6.303827e+02
2.992982e+03,6.300446e+02
2.993947e+03,6.442263e+02
2.994911e+03,6.471999e+02
2.995875e+03,6.441998e+02
2.996839e+03,6.429519e+02
2.997803e+03,6.433286e+02
2.998768e+03,6.459910e+02
2.999732e+03,6.487714e+02
3.000696e+03,6.511563e+02
3.001660e+03,6.448668e+02
3.002625e+03,6.352697e+02
3.003589e+03,6.271239e+02
3.004553e+03,6.301829e+02
3.005517e+03,6.503392e+02
3.006481e+03,6.564099e+02
3.007446e+03,6.511447e+02
3.008410e+03,6.627356e+02
3.009374e+03,6.716547e+02
3.010338e+03,6.672137e+02
3.011303e+03,6.593762e+02
3.012267e+03,6.501853e+02
3.013231e+03,6.492403e+02
3.014195e+03,6.539820e+02
3.015160e+03,6.632931e+02
3.016124e+03,6.639896e+02
3.017088e+03,6.525416e+02
3.018052e+03,6.555507e+02
3.019017e+03,6.720974e+02
3.019981e+03,6.606289e+02
3.020945e+03,6.454740e+02
3.021909e+03,6.472328e+02
3.022874e+03,6.560266e+02
3.023838e+03,6.664752e+02
3.024802e+03,6.634676e+02
3.025766e+03,6.526385e+02
3.026730e+03,6.453382e+02
3.027695e+03,6.456720e+02
3.028659e+03,6.556506e+02
3.029623e+03,6.556948e+02
3.030587e+03,6.462443e+02
3.031552e+03,6.369405e+02
3.032516e+03,6.291655e+02
3.033480e+03,6.226303e+02
3.034444e+03,6.291844e+02
3.035408e+03,6.481484e+02
3.036373e+03,6.529562e+02
3.037337e+03,6.471928e+02
3.038301e+03,6.444213e+02
3.039265e+03,6.435738e+02
3.040230e+03,6.433575e+02
3.041194e+03,6.483925e+02
3.042158e+03,6.543622e+02
3.043122e+03,6.449969e+02
3.044087e+03,6.335399e+02
3.045051e+03,6.377972e+02
3.046015e+03,6.454221e+02
3.046979e+03,6.542140e+02
3.047944e+03,6.449695e+02
3.048908e+03,6.320952e+02
3.049872e+03,6.371768e+02
3.050836e+03,6.469308e+02
3.051801e+03,6.540539e+02
3.052765e+03,6.447021e+02
3.053729e+03,6.249391e+02
3.054693e+03,6.401019e+02
3.055657e+03,6.594186e+02
3.056622e+03,6.601852e+02
3.057586e+03,6.584754e+02
3.058550e+03,6.600677e+02
3.059514e+03,6.446157e+02
3.060479e+03,6.242235e+02
3.061443e+03,6.147658e+02
3.062407e+03,6.184068e+02
3.063371e+03,6.323312e+02
3.064335e+03,6.269435e+02
3.065300e+03,6.096132e+02
3.066264e+03,6.285810e+02
3.067228e+03,6.441898e+02
3.068192e+03,6.278925e+02
3.069157e+03,6.159788e+02
3.070121e+03,6.142793e+02
3.071085e+03,6.289495e+02
3.072049e+03,6.462151e+02
3.073014e+03,6.521339e+02
3.073978e+03,6.373322e+02
3.074942e+03,6.014631e+02
3.075906e+03,6.169489e+02
3.076871e+03,6.500092e+02
3.077835e+03,6.441838e+02
3.078799e+03,6.331728e+02
3.079763e+03,6.377811e+02
3.080728e+03,6.442554e+02
3.081692e+03,6.466327e+02
3.082656e+03,6.221533e+02
3.083620e+03,6.091162e+02
3.084584e+03,6.274757e+02
3.085549e+03,6.466618e+02
3.086513e+03,6.582644e+02
3.087477e+03,6.306473e+02
3.088441e+03,6.082321e+02
3.089406e+03,6.509537e+02
3.090370e+03,6.689356e+02
3.091334e+03,6.520894e+02
3.092298e+03,6.490486e+02
3.093262e+03,6.520003e+02
3.094227e+03,6.296234e+02
3.095191e+03,6.162090e+02
3.096155e+03,6.247542e+02
3.097119e+03,6.376478e+02
3.098084e+03,6.503163e+02
3.099048e+03,6.570061e+02
3.100012e+03,6.587322e+02
3.100976e+03,6.551907e+02
3.101941e+03,6.508188e+02
3.102905e+03,6.441307e+02
3.103869e+03,6.210305e+02
3.104833e+03,6.076070e+02
3.105798e+03,6.185037e+02
3.106762e+03,6.392767e+02
3.107726e+03,6.637994e+02
3.108690e+03,6.694665e+02
3.109655e+03,6.629654e+02
3.110619e+03,6.454114e+02
3.111583e+03,6.421775e+02
3.112547e+03,6.533522e+02
3.113511e+03,6.516896e+02
3.114476e+03,6.425749e+02
3.115440e+03,6.388221e+02
3.116404e+03,6.379525e+02
3.117368e+03,6.412360e+02
3.118333e+03,6.531104e+02
3.119297e+03,6.600416e+02
3.120261e+03,6.382433e+02
3.121225e+03,6.228002e+02
3.122189e+03,6.329076e+02
3.123154e+03,6.371910e+02
3.124118e+03,6.348828e+02
3.125082e+03,6.449391e+02
3.126046e+03,6.459260e+02
3.127011e+03,6.272707e+02
3.127975e+03,6.315419e+02
3.128939e+03,6.534514e+02
3.129903e+03,6.495977e+02
3.130868e+03,6.406034e+02
3.131832e+03,6.434075e+02
3.132796e+03,6.479651e+02
3.133760e+03,6.504893e+02
3.134725e+03,6.339084e+02
3.135689e+03,6.299029e+02
3.136653e+03,6.722585e+02
3.137617e+03,6.723438e+02
3.138582e+03,6.043577e+02
3.139546e+03,6.131662e+02
3.140510e+03,6.465255e+02
3.141474e+03,6.514286e+02
3.142438e+03,6.368959e+02
3.143403e+03,6.128388e+02
3.144367e+03,6.159925e+02
3.145331e+03,6.280431e+02
3.146295e+03,6.114828e+02
3.147260e+03,6.098885e+02
3.148224e+03,6.327349e+02
3.149188e+03,6.357534e+02
3.150152e+03,6.265260e+02
3.151116e+03,6.160952e+02
3.152081e+03,6.153033e+02
3.153045e+03,6.272582e+02
3.154009e+03,6.361755e+02
3.154973e+03,6.422574e+02
3.155938e+03,6.529115e+02
3.156902e+03,6.410029e+02
3.157866e+03,6.039508e+02
3.158830e+03,5.987247e+02
3.159795e+03,6.178259e+02
3.160759e+03,6.368914e+02
3.161723e+03,6.499885e+02
3.162687e+03,6.537357e+02
3.163652e+03,6.384921e+02
3.164616e+03,6.266855e+02
3.165580e+03,6.625777e+02
3.166544e+03,6.883621e+02
3.167509e+03,6.818152e+02
3.168473e+03,6.676999e+02
3.169437e+03,6.522526e+02
3.170401e+03,6.340606e+02
3.171365e+03,6.323465e+02
3.172330e+03,6.570699e+02
3.173294e+03,6.656067e+02
3.174258e+03,6.612341e+02
3.175222e+03,6.568514e+02
3.176187e+03,6.530754e+02
3.177151e+03,6.507097e+02
3.178115e+03,6.620333e+02
3.179079e+03,6.752299e+02
3.180043e+03,6.406772e+02
3.181008e+03,6.328095e+02
3.181972e+03,6.752089e+02
3.182936e+03,6.791778e+02
3.183900e+03,6.535601e+02
3.184865e+03,6.445580e+02
3.185829e+03,6.499002e+02
3.186793e+03,6.925009e+02
3.187757e+03,6.763340e+02
3.188722e+03,6.326055e+02
3.189686e+03,6.359141e+02
3.190650e+03,6.418844e+02
3.191614e+03,6.316977e+02
3.192579e+03,6.456006e+02
3.193543e+03,6.721247e+02
3.194507e+03,6.647881e+02
3.195471e+03,6.515172e+02
3.196436e+03,6.417283e+02
3.197400e+03,6.422585e+02
3.198364e+03,6.514598e+02
3.199328e+03,6.695690e+02
3.200292e+03,6.720471e+02
3.201257e+03,0.000000e+00
3.202221e+03,0.000000e+00
3.203185e+03,0.000000e+00
3.204149e+03,0.000000e+00
3.205114e+03,0.000000e+00
3.206078e+03,0.000000e+00
3.207042e+03,0.000000e+00
3.208006e+03,0.000000e+00
3.208970e+03,0.000000e+00
3.209935e+03,0.000000e+00
3.210899e+03,0.000000e+00
3.211863e+03,0.000000e+00
3.212827e+03,0.000000e+00
3.213792e+03,0.000000e+00
3.214756e+03,0.000000e+00
3.215720e+03,0.000000e+00
3.216684e+03,0.000000e+00
3.217649e+03,0.000000e+00
3.218613e+03,0.000000e+00
3.219577e+03,0.000000e+00
3.220541e+03,0.000000e+00
3.221506e+03,0.000000e+00
3.222470e+03,0.000000e+00
3.223434e+03,0.000000e+00
3.224398e+03,0.000000e+00
3.225363e+03,0.000000e+00
3.226327e+03,0.000000e+00
3.227291e+03,0.000000e+00
3.228255e+03,0.000000e+00
3.229219e+03,0.000000e+00
3.230184e+03,0.000000e+00
3.231148e+03,0.000000e+00
3.232112e+03,0.000000e+00
3.233076e+03,0.000000e+00
3.234041e+03,0.000000e+00
3.235005e+03,0.000000e+00
3.235969e+03,0.000000e+00
3.236933e+03,0.000000e+00
3.237897e+03,0.000000e+00
3.238862e+03,0.000000e+00
3.239826e+03,0.000000e+00
3.240790e+03,0.000000e+00
3.241754e+03,0.000000e+00
3.242719e+03,0.000000e+00
3.243683e+03,0.000000e+00
3.244647e+03,0.000000e+00
3.245611e+03,0.000000e+00
3.246576e+03,0.000000e+00
3.247540e+03,0.000000e+00
3.248504e+03,0.000000e+00
3.249468e+03,0.000000e+00
3.250433e+03,0.000000e+00
3.251397e+03,0.000000e+00
3.252361e+03,0.000000e+00
3.253325e+03,0.000000e+00
3.254290e+03,0.000000e+00
3.255254e+03,0.000000e+00
3.256218e+03,0.000000e+00
3.257182e+03,0.000000e+00
3.258146e+03,0.000000e+00
3.259111e+03,0.000000e+00
3.260075e+03,0.000000e+00
3.261039e+03,0.000000e+00
3.262003e+03,0.000000e+00
3.262968e+03,0.000000e+00
3.263932e+03,0.000000e+00
3.264896e+03,0.000000e+00
3.265860e+03,0.000000e+00
3.266824e+03,0.000000e+00
3.267789e+03,0.000000e+00
3.268753e+03,0.000000e+00
3.269717e+03,0.000000e+00
3.270681e+03,0.000000e+00
3.271646e+03,0.000000e+00
3.272610e+03,0.000000e+00
3.273574e+03,0.000000e+00
3.274538e+03,0.000000e+00
3.275503e+03,0.000000e+00
3.276467e+03,0.000000e+00
3.277431e+03,0.000000e+00
3.278395e+03,0.000000e+00
3.279360e+03,0.000000e+00
3.280324e+03,0.000000e+00
3.281288e+03,0.000000e+00
3.282252e+03,0.000000e+00
3.283217e+03,0.000000e+00
3.284181e+03,0.000000e+00
3.285145e+03,0.000000e+00
3.286109e+03,0.000000e+00
3.287073e+03,0.000000e+00
3.288038e+03,0.000000e+00
3.289002e+03,0.000000e+00
3.289966e+03,0.000000e+00
3.290930e+03,0.000000e+00
3.291895e+03,0.000000e+00
3.292859e+03,0.000000e+00
3.293823e+03,0.000000e+00
3.294787e+03,0.000000e+00
3.295751e+03,0.000000e+00
3.296716e+03,0.000000e+00
3.297680e+03,0.000000e+00
3.298644e+03,0.000000e+00
3.299608e+03,0.000000e+00
3.300573e+03,0.000000e+00
3.301537e+03,0.000000e+00
3.302501e+03,0.000000e+00
3.303465e+03,0.000000e+00
3.304430e+03,0.000000e+00
3.305394e+03,0.000000e+00
3.306358e+03,0.000000e+00
3.307322e+03,0.000000e+00
3.308287e+03,0.000000e+00
3.309251e+03,0.000000e+00
3.310215e+03,0.000000e+00
3.311179e+03,0.000000e+00
3.312144e+03,0.000000e+00
3.313108e+03,0.000000e+00
3.314072e+03,0.000000e+00
3.315036e+03,0.000000e+00
3.316000e+03,0.000000e+00
3.316965e+03,0.000000e+00
3.317929e+03,0.000000e+00
3.318893e+03,0.000000e+00
3.319857e+03,0.000000e+00
3.320822e+03,0.000000e+00
3.321786e+03,0.000000e+00
3.322750e+03,0.000000e+00
3.323714e+03,0.000000e+00
3.324678e+03,0.000000e+00
3.325643e+03,0.000000e+00
3.326607e+03,0.000000e+00
3.327571e+03,0.000000e+00
3.328535e+03,0.000000e+00
3.329500e+03,0.000000e+00
3.330464e+03,0.000000e+00
3.331428e+03,0.000000e+00
3.332392e+03,0.000000e+00
3.333357e+03,0.000000e+00
3.334321e+03,0.000000e+00
3.335285e+03,0.000000e+00
3.336249e+03,0.000000e+00
3.337214e+03,0.000000e+00
3.338178e+03,0.000000e+00
3.339142e+03,0.000000e+00
3.340106e+03,0.000000e+00
3.341071e+03,0.000000e+00
3.342035e+03,0.000000e+00
3.342999e+03,0.000000e+00
3.343963e+03,0.000000e+00
3.344927e+03,0.000000e+00
3.345892e+03,0.000000e+00
3.346856e+03,0.000000e+00
3.347820e+03,0.000000e+00
3.348784e+03,0.000000e+00
3.349749e+03,0.000000e+00
3.350713e+03,0.000000e+00
3.351677e+03,0.000000e+00
3.352641e+03,0.000000e+00
3.353605e+03,0.000000e+00
3.354570e+03,0.000000e+00
3.355534e+03,0.000000e+00
3.356498e+03,0.000000e+00
3.357462e+03,0.000000e+00
3.358427e+03,0.000000e+00
3.359391e+03,0.000000e+00
3.360355e+03,0.000000e+00
3.361319e+03,0.000000e+00
3.362284e+03,0.000000e+00
3.363248e+03,0.000000e+00
3.364212e+03,0.000000e+00
3.365176e+03,0.000000e+00
3.366141e+03,0.000000e+00
3.367105e+03,0.000000e+00
3.368069e+03,0.000000e+00
3.369033e+03,0.000000e+00
3.369998e+03,0.000000e+00
3.370962e+03,0.000000e+00
3.371926e+03,0.000000e+00
3.372890e+03,0.000000e+00
3.373854e+03,0.000000e+00
3.374819e+03,0.000000e+00
3.375783e+03,0.000000e+00
3.376747e+03,0.000000e+00
3.377711e+03,0.000000e+00
3.378676e+03,0.000000e+00
3.379640e+03,0.000000e+00
3.380604e+03,0.000000e+00
3.381568e+03,0.000000e+00
3.382532e+03,0.000000e+00
3.383497e+03,0.000000e+00
3.384461e+03,0.000000e+00
3.385425e+03,0.000000e+00
3.386389e+03,0.000000e+00
3.387354e+03,0.000000e+00
3.388318e+03,0.000000e+00
3.389282e+03,0.000000e+00
3.390246e+03,0.000000e+00
3.391211e+03,0.000000e+00
3.392175e+03,0.000000e+00
3.393139e+03,0.000000e+00
3.394103e+03,0.000000e+00
3.395068e+03,0.000000e+00
3.396032e+03,0.000000e+00
3.396996e+03,0.000000e+00
3.397960e+03,0.000000e+00
3.398925e+03,0.000000e+00
3.399889e+03,0.000000e+00
3.400853e+03,0.000000e+00
3.401817e+03,0.000000e+00
3.402781e+03,0.000000e+00
3.403746e+03,0.000000e+00
3.404710e+03,0.000000e+00
3.405674e+03,0.000000e+00
3.406638e+03,0.000000e+00
3.407603e+03,0.000000e+00
3.408567e+03,0.000000e+00
3.409531e+03,0.000000e+00
3.410495e+03,0.000000e+00
3.411459e+03,0.000000e+00
3.412424e+03,0.000000e+00
3.413388e+03,0.000000e+00
3.414352e+03,0.000000e+00
3.415316e+03,0.000000e+00
3.416281e+03,0.000000e+00
3.417245e+03,0.000000e+00
3.418209e+03,0.000000e+00
3.419173e+03,0.000000e+00
3.420138e+03,0.000000e+00
3.421102e+03,0.000000e+00
3.422066e+03,0.000000e+00
3.423030e+03,0.000000e+00
3.423995e+03,0.000000e+00
3.424959e+03,0.000000e+00
3.425923e+03,0.000000e+00
3.426887e+03,0.000000e+00
3.427852e+03,0.000000e+00
3.428816e+03,0.000000e+00
3.429780e+03,0.000000e+00
3.430744e+03,0.000000e+00
3.431708e+03,0.000000e+00
3.432673e+03,0.000000e+00
3.433637e+03,0.000000e+00
3.434601e+03,0.000000e+00
3.435565e+03,0.000000e+00
3.436530e+03,0.000000e+00
3.437494e+03,0.000000e+00
3.438458e+03,0.000000e+00
3.439422e+03,0.000000e+00
3.440386e+03,0.000000e+00
3.441351e+03,0.000000e+00
3.442315e+03,0.000000e+00
3.443279e+03,0.000000e+00
3.444243e+03,0.000000e+00
3.445208e+03,0.000000e+00
3.446172e+03,0.000000e+00
3.447136e+03,0.000000e+00
3.448100e+03,0.000000e+00
3.449065e+03,0.000000e+00
3.450029e+03,0.000000e+00
3.450993e+03,0.000000e+00
3.451957e+03,0.000000e+00
3.452922e+03,0.000000e+00
3.453886e+03,0.000000e+00
3.454850e+03,0.000000e+00
3.455814e+03,0.000000e+00
3.456779e+03,0.000000e+00
3.457743e+03,0.000000e+00
3.458707e+03,0.000000e+00
3.459671e+03,0.000000e+00
3.460635e+03,0.000000e+00
3.461600e+03,0.000000e+00
3.462564e+03,0.000000e+00
3.463528e+03,0.000000e+00
3.464492e+03,0.000000e+00
3.465457e+03,0.000000e+00
3.466421e+03,0.000000e+00
3.467385e+03,0.000000e+00
3.468349e+03,0.000000e+00
3.469313e+03,0.000000e+00
3.470278e+03,0.000000e+00
3.471242e+03,0.000000e+00
3.472206e+03,0.000000e+00
3.473170e+03,0.000000e+00
3.474135e+03,0.000000e+00
3.475099e+03,0.000000e+00
3.476063e+03,0.000000e+00
3.477027e+03,0.000000e+00
3.477992e+03,0.000000e+00
3.478956e+03,0.000000e+00
3.479920e+03,0.000000e+00
3.480884e+03,0.000000e+00
3.481849e+03,0.000000e+00
3.482813e+03,0.000000e+00
3.483777e+03,0.000000e+00
3.484741e+03,0.000000e+00
3.485706e+03,0.000000e+00
3.486670e+03,0.000000e+00
3.487634e+03,0.000000e+00
3.488598e+03,0.000000e+00
3.489563e+03,0.000000e+00
3.490527e+03,0.000000e+00
3.491491e+03,0.000000e+00
3.492455e+03,0.000000e+00
3.493419e+03,0.000000e+00
3.494384e+03,0.000000e+00
3.495348e+03,0.000000e+00
3.496312e+03,0.000000e+00
3.497276e+03,0.000000e+00
3.498240e+03,0.000000e+00
3.499205e+03,0.000000e+00
3.500169e+03,0.000000e+00
