9.931763e+01,0.000000e+00
1.002819e+02,0.000000e+00
1.012461e+02,0.000000e+00
1.022103e+02,0.000000e+00
1.031746e+02,0.000000e+00
1.041388e+02,0.000000e+00
1.051030e+02,0.000000e+00
1.060673e+02,0.000000e+00
1.070315e+02,0.000000e+00
1.079957e+02,0.000000e+00
1.089600e+02,0.000000e+00
1.099242e+02,0.000000e+00
1.108884e+02,0.000000e+00
1.118527e+02,0.000000e+00
1.128169e+02,0.000000e+00
1.137811e+02,0.000000e+00
1.147454e+02,0.000000e+00
1.157096e+02,0.000000e+00
1.166738e+02,0.000000e+00
1.176381e+02,0.000000e+00
1.186023e+02,0.000000e+00
1.195665e+02,0.000000e+00
1.205308e+02,0.000000e+00
1.214950e+02,0.000000e+00
1.224592e+02,0.000000e+00
1.234235e+02,0.000000e+00
1.243877e+02,0.000000e+00
1.253519e+02,0.000000e+00
1.263162e+02,0.000000e+00
1.272804e+02,0.000000e+00
1.282446e+02,0.000000e+00
1.292089e+02,0.000000e+00
1.301731e+02,0.000000e+00
1.311373e+02,0.000000e+00
1.321016e+02,0.000000e+00
1.330658e+02,0.000000e+00
1.340300e+02,0.000000e+00
1.349943e+02,0.000000e+00
1.359585e+02,0.000000e+00
1.369227e+02,0.000000e+00
1.378870e+02,0.000000e+00
1.388512e+02,0.000000e+00
1.398154e+02,0.000000e+00
1.407797e+02,0.000000e+00
1.417439e+02,0.000000e+00
1.427081e+02,0.000000e+00
1.436724e+02,0.000000e+00
1.446366e+02,0.000000e+00
1.456008e+02,0.000000e+00
1.465651e+02,0.000000e+00
1.475293e+02,0.000000e+00
1.484935e+02,0.000000e+00
1.494578e+02,0.000000e+00
1.504220e+02,0.000000e+00
1.513862e+02,0.000000e+00
1.523505e+02,0.000000e+00
1.533147e+02,0.000000e+00
1.542789e+02,0.000000e+00
1.552432e+02,0.000000e+00
1.562074e+02,0.000000e+00
1.571716e+02,0.000000e+00
1.581359e+02,0.000000e+00
1.591001e+02,0.000000e+00
1.600643e+02,0.000000e+00
1.610286e+02,0.000000e+00
1.619928e+02,0.000000e+00
1.629570e+02,0.000000e+00
1.639213e+02,0.000000e+00
1.648855e+02,0.000000e+00
1.658497e+02,0.000000e+00
1.668140e+02,0.000000e+00
1.677782e+02,0.000000e+00
1.687424e+02,0.000000e+00
1.697067e+02,0.000000e+00
1.706709e+02,0.000000e+00
1.716351e+02,0.000000e+00
1.725994e+02,0.000000e+00
1.735636e+02,0.000000e+00
1.745278e+02,0.000000e+00
1.754921e+02,0.000000e+00
1.764563e+02,0.000000e+00
1.774205e+02,0.000000e+00
1.783848e+02,0.000000e+00
1.793490e+02,0.000000e+00
1.803132e+02,0.000000e+00
1.812775e+02,0.000000e+00
1.822417e+02,0.000000e+00
1.832059e+02,0.000000e+00
1.841702e+02,0.000000e+00
1.851344e+02,0.000000e+00
1.860986e+02,0.000000e+00
1.870629e+02,0.000000e+00
1.880271e+02,0.000000e+00
1.889913e+02,0.000000e+00
1.899556e+02,0.000000e+00
1.909198e+02,0.000000e+00
1.918840e+02,0.000000e+00
1.928483e+02,0.000000e+00
1.938125e+02,0.000000e+00
1.947767e+02,0.000000e+00
1.957410e+02,0.000000e+00
1.967052e+02,0.000000e+00
1.976694e+02,0.000000e+00
1.986337e+02,0.000000e+00
1.995979e+02,1.046964e+04
2.005621e+02,1.047981e+04
2.015264e+02,1.049152e+04
2.024906e+02,1.050564e+04
2.034548e+02,1.052034e+04
2.044191e+02,1.053340e+04
2.053833e+02,1.054303e+04
2.063475e+02,1.054905e+04
2.073118e+02,1.055229e+04
2.082760e+02,1.055275e+04
2.092402e+02,1.055023e+04
2.102045e+02,1.054658e+04
2.111687e+02,1.054622e+04
2.121329e+02,1.055114e+04
2.130972e+02,1.056043e+04
2.140614e+02,1.057110e+04
2.150256e+02,1.057994e+04
2.159899e+02,1.058612e+04
2.169541e+02,1.059435e+04
2.179183e+02,1.060919e+04
2.188826e+02,1.062824e+04
2.198468e+02,1.064671e+04
2.208110e+02,1.066058e+04
2.217753e+02,1.066859e+04
2.227395e+02,1.067257e+04
2.237037e+02,1.067718e+04
2.246680e+02,1.068221e+04
2.256322e+02,1.068503e+04
2.265964e+02,1.068749e+04
2.275607e+02,1.069241e+04
2.285249e+02,1.070199e+04
2.294892e+02,1.071674e+04
2.304534e+02,1.073503e+04
2.314176e+02,1.075159e+04
2.323819e+02,1.076485e+04
2.333461e+02,1.077655e+04
2.343103e+02,1.078854e+04
2.352746e+02,1.080180e+04
2.362388e+02,1.081599e+04
2.372030e+02,1.082920e+04
2.381673e+02,1.083688e+04
2.391315e+02,1.083789e+04
2.400957e+02,1.083586e+04
2.410600e+02,1.083374e+04
2.420242e+02,1.083454e+04
2.429884e+02,1.084039e+04
2.439527e+02,1.085114e+04
2.449169e+02,1.086350e+04
2.458811e+02,1.087555e+04
2.468454e+02,1.088743e+04
2.478096e+02,1.089928e+04
2.487738e+02,1.091119e+04
2.497381e+02,1.092293e+04
2.507023e+02,1.093465e+04
2.516665e+02,1.094691e+04
2.526308e+02,1.095972e+04
2.535950e+02,1.096986e+04
2.545592e+02,1.097477e+04
2.555235e+02,1.097477e+04
2.564877e+02,1.097263e+04
2.574519e+02,1.097223e+04
2.584161e+02,1.097703e+04
2.593804e+02,1.098841e+04
2.603446e+02,1.100378e+04
2.613088e+02,1.102010e+04
2.622731e+02,1.103715e+04
2.632373e+02,1.105562e+04
2.642015e+02,1.107264e+04
2.651658e+02,1.108527e+04
2.661300e+02,1.109288e+04
2.670942e+02,1.109793e+04
2.680585e+02,1.110515e+04
2.690227e+02,1.111871e+04
2.699869e+02,1.113241e+04
2.709512e+02,1.114052e+04
2.719154e+02,1.114331e+04
2.728796e+02,1.114520e+04
2.738439e+02,1.115154e+04
2.748081e+02,1.116541e+04
2.757723e+02,1.118599e+04
2.767366e+02,1.120554e+04
2.777008e+02,1.121963e+04
2.786650e+02,1.122956e+04
2.796293e+02,1.123792e+04
2.805935e+02,1.124688e+04
2.815577e+02,1.125743e+04
2.825220e+02,1.126901e+04
2.834862e+02,1.127886e+04
2.844504e+02,1.128402e+04
2.854147e+02,1.128623e+04
2.863789e+02,1.128756e+04
2.873431e+02,1.129060e+04
2.883074e+02,1.129709e+04
2.892716e+02,1.130667e+04
2.902358e+02,1.131700e+04
2.912001e+02,1.132663e+04
2.921643e+02,1.133578e+04
2.931285e+02,1.134644e+04
2.940928e+02,1.135958e+04
2.950570e+02,1.137532e+04
2.960212e+02,1.139113e+04
2.969855e+02,1.140364e+04
2.979497e+02,1.141115e+04
2.989139e+02,1.141448e+04
2.998782e+02,1.141725e+04
3.008424e+02,1.142350e+04
3.018066e+02,1.143413e+04
3.027709e+02,1.144636e+04
3.037351e+02,1.145768e+04
3.046993e+02,1.146692e+04
3.056636e+02,1.147431e+04
3.066278e+02,1.148101e+04
3.075920e+02,1.148884e+04
3.085563e+02,1.149845e+04
3.095205e+02,1.151189e+04
3.104847e+02,1.152890e+04
3.114490e+02,1.154741e+04
3.124132e+02,1.156491e+04
3.133774e+02,1.157925e+04
3.143417e+02,1.158917e+04
3.153059e+02,1.159377e+04
3.162701e+02,1.159601e+04
3.172344e+02,1.159868e+04
3.181986e+02,1.160278e+04
3.191628e+02,1.160888e+04
3.201271e+02,1.161750e+04
3.210913e+02,1.162868e+04
3.220555e+02,1.164175e+04
3.230198e+02,1.165575e+04
3.239840e+02,1.167008e+04
3.249482e+02,1.168424e+04
3.259125e+02,1.169771e+04
3.268767e+02,1.171076e+04
3.278409e+02,1.172364e+04
3.288052e+02,1.173625e+04
3.297694e+02,1.174823e+04
3.307336e+02,1.175929e+04
3.316979e+02,1.176965e+04
3.326621e+02,1.177917e+04
3.336263e+02,1.178546e+04
3.345906e+02,1.178808e+04
3.355548e+02,1.179020e+04
3.365190e+02,1.179593e+04
3.374833e+02,1.180784e+04
3.384475e+02,1.182536e+04
3.394117e+02,1.184477e+04
3.403760e+02,1.186072e+04
3.413402e+02,1.187475e+04
3.423044e+02,1.189110e+04
3.432687e+02,1.191061e+04
3.442329e+02,1.193150e+04
3.451971e+02,1.195065e+04
3.461614e+02,1.196491e+04
3.471256e+02,1.197256e+04
3.480898e+02,1.197636e+04
3.490541e+02,1.197884e+04
3.500183e+02,1.198235e+04
3.509825e+02,1.198931e+04
3.519468e+02,1.200161e+04
3.529110e+02,1.201902e+04
3.538752e+02,1.203903e+04
3.548395e+02,1.205831e+04
3.558037e+02,1.207473e+04
3.567680e+02,1.208796e+04
3.577322e+02,1.209937e+04
3.586964e+02,1.211193e+04
3.596607e+02,1.212734e+04
3.606249e+02,1.214420e+04
3.615891e+02,1.215814e+04
3.625534e+02,1.216518e+04
3.635176e+02,1.216445e+04
3.644818e+02,1.215827e+04
3.654461e+02,1.215143e+04
3.664103e+02,1.215042e+04
3.673745e+02,1.215997e+04
3.683388e+02,1.217766e+04
3.693030e+02,1.219936e+04
3.702672e+02,1.222116e+04
3.712315e+02,1.224066e+04
3.721957e+02,1.225655e+04
3.731599e+02,1.226728e+04
3.741242e+02,1.227460e+04
3.750884e+02,1.228331e+04
3.760526e+02,1.229588e+04
3.770169e+02,1.231209e+04
3.779811e+02,1.232940e+04
3.789453e+02,1.234456e+04
3.799096e+02,1.235504e+04
3.808738e+02,1.236076e+04
3.818380e+02,1.236471e+04
3.828023e+02,1.237077e+04
3.837665e+02,1.238138e+04
3.847307e+02,1.239503e+04
3.856950e+02,1.241141e+04
3.866592e+02,1.242942e+04
3.876234e+02,1.244819e+04
3.885877e+02,1.246715e+04
3.895519e+02,1.248583e+04
3.905161e+02,1.250335e+04
3.914804e+02,1.251785e+04
3.924446e+02,1.252836e+04
3.934088e+02,1.253735e+04
3.943731e+02,1.254654e+04
3.953373e+02,1.255656e+04
3.963015e+02,1.256595e+04
3.972658e+02,1.257221e+04
3.982300e+02,1.257562e+04
3.991942e+02,1.258175e+04
4.001585e+02,1.259571e+04
4.011227e+02,1.261709e+04
4.020869e+02,1.263801e+04
4.030512e+02,1.265208e+04
4.040154e+02,1.266066e+04
4.049796e+02,1.267012e+04
4.059439e+02,1.268439e+04
4.069081e+02,1.270183e+04
4.078723e+02,1.271719e+04
4.088366e+02,1.272684e+04
4.098008e+02,1.273115e+04
4.107650e+02,1.273667e+04
4.117293e+02,1.274472e+04
4.126935e+02,1.275391e+04
4.136577e+02,1.276351e+04
4.146220e+02,1.277363e+04
4.155862e+02,1.278514e+04
4.165504e+02,1.279876e+04
4.175147e+02,1.281375e+04
4.184789e+02,1.282808e+04
4.194431e+02,1.284042e+04
4.204074e+02,1.285257e+04
4.213716e+02,1.286533e+04
4.223358e+02,1.287724e+04
4.233001e+02,1.288676e+04
4.242643e+02,1.289395e+04
4.252285e+02,1.290059e+04
4.261928e+02,1.290905e+04
4.271570e+02,1.292052e+04
4.281212e+02,1.293422e+04
4.290855e+02,1.294774e+04
4.300497e+02,1.296031e+04
4.310139e+02,1.297290e+04
4.319782e+02,1.298699e+04
4.329424e+02,1.300393e+04
4.339066e+02,1.302397e+04
4.348709e+02,1.304558e+04
4.358351e+02,1.306580e+04
4.367993e+02,1.308250e+04
4.377636e+02,1.309523e+04
4.387278e+02,1.310746e+04
4.396920e+02,1.312154e+04
4.406563e+02,1.313692e+04
4.416205e+02,1.315178e+04
4.425847e+02,1.316490e+04
4.435490e+02,1.317664e+04
4.445132e+02,1.318845e+04
4.454774e+02,1.320192e+04
4.464417e+02,1.321787e+04
4.474059e+02,1.323620e+04
4.483701e+02,1.325284e+04
4.493344e+02,1.326524e+04
4.502986e+02,1.327414e+04
4.512628e+02,1.328288e+04
4.522271e+02,1.329400e+04
4.531913e+02,1.330678e+04
4.541555e+02,1.331778e+04
4.551198e+02,1.332378e+04
4.560840e+02,1.332536e+04
4.570482e+02,1.332676e+04
4.580125e+02,1.333318e+04
4.589767e+02,1.334581e+04
4.599409e+02,1.336213e+04
4.609052e+02,1.337773e+04
4.618694e+02,1.338995e+04
4.628336e+02,1.339856e+04
4.637979e+02,1.340457e+04
4.647621e+02,1.340945e+04
4.657263e+02,1.341577e+04
4.666906e+02,1.342731e+04
4.676548e+02,1.344260e+04
4.686190e+02,1.346030e+04
4.695833e+02,1.347680e+04
4.705475e+02,1.349026e+04
4.715117e+02,1.350012e+04
4.724760e+02,1.350742e+04
4.734402e+02,1.351355e+04
4.744044e+02,1.351789e+04
4.753687e+02,1.351668e+04
4.763329e+02,1.350256e+04
4.772971e+02,1.349515e+04
4.782614e+02,1.349975e+04
4.792256e+02,1.351235e+04
4.801898e+02,1.352703e+04
4.811541e+02,1.354101e+04
4.821183e+02,1.355278e+04
4.830826e+02,1.355908e+04
4.840468e+02,1.355839e+04
4.850110e+02,1.355805e+04
4.859753e+02,1.356646e+04
4.869395e+02,1.358365e+04
4.879037e+02,1.358915e+04
4.888680e+02,1.357162e+04
4.898322e+02,1.355517e+04
4.907964e+02,1.355535e+04
4.917607e+02,1.357186e+04
4.927249e+02,1.359303e+04
4.936891e+02,1.360751e+04
4.946534e+02,1.361442e+04
4.956176e+02,1.362188e+04
4.965818e+02,1.363224e+04
4.975461e+02,1.364256e+04
4.985103e+02,1.364895e+04
4.994745e+02,1.364823e+04
5.004388e+02,1.364294e+04
5.014030e+02,1.363339e+04
5.023672e+02,1.362477e+04
5.033315e+02,1.362523e+04
5.042957e+02,1.363733e+04
5.052599e+02,1.365264e+04
5.062242e+02,1.365592e+04
5.071884e+02,1.363808e+04
5.081526e+02,1.362767e+04
5.091169e+02,1.363700e+04
5.100811e+02,1.365557e+04
5.110453e+02,1.366813e+04
5.120095e+02,1.366760e+04
5.129738e+02,1.366376e+04
5.139380e+02,1.366755e+04
5.149022e+02,1.367938e+04
5.158665e+02,1.369608e+04
5.168307e+02,1.371406e+04
5.177949e+02,1.372619e+04
5.187592e+02,1.372082e+04
5.197234e+02,1.370517e+04
5.206876e+02,1.368857e+04
5.216519e+02,1.367200e+04
5.226161e+02,1.365782e+04
5.235803e+02,1.364868e+04
5.245446e+02,1.364691e+04
5.255088e+02,1.365168e+04
5.264730e+02,1.365934e+04
5.274373e+02,1.367273e+04
5.284015e+02,1.368363e+04
5.293657e+02,1.368029e+04
5.303300e+02,1.366212e+04
5.312942e+02,1.364378e+04
5.322584e+02,1.363481e+04
5.332227e+02,1.363273e+04
5.341869e+02,1.363183e+04
5.351511e+02,1.362848e+04
5.361154e+02,1.362243e+04
5.370796e+02,1.361467e+04
5.380438e+02,1.360537e+04
5.390081e+02,1.360216e+04
5.399723e+02,1.361271e+04
5.409365e+02,1.362854e+04
5.419008e+02,1.363754e+04
5.428650e+02,1.363071e+04
5.438292e+02,1.362232e+04
5.447935e+02,1.362216e+04
5.457577e+02,1.362666e+04
5.467219e+02,1.362901e+04
5.476862e+02,1.362705e+04
5.486504e+02,1.362045e+04
5.496146e+02,1.360907e+04
5.505789e+02,1.359083e+04
5.515431e+02,1.356939e+04
5.525073e+02,1.354648e+04
5.534716e+02,1.352977e+04
5.544358e+02,1.352341e+04
5.554000e+02,1.352698e+04
5.563643e+02,1.353453e+04
5.573285e+02,1.354149e+04
5.582927e+02,1.354639e+04
5.592570e+02,1.354948e+04
5.602212e+02,1.355286e+04
5.611854e+02,1.355537e+04
5.621497e+02,1.355706e+04
5.631139e+02,1.355692e+04
5.640781e+02,1.354984e+04
5.650424e+02,1.353681e+04
5.660066e+02,1.352016e+04
5.669708e+02,1.350388e+04
5.679351e+02,1.349218e+04
5.688993e+02,1.348453e+04
5.698635e+02,1.348004e+04
5.708278e+02,1.348023e+04
5.717920e+02,1.348200e+04
5.727562e+02,1.347828e+04
5.737205e+02,1.346132e+04
5.746847e+02,1.345386e+04
5.756489e+02,1.346267e+04
5.766132e+02,1.347108e+04
5.775774e+02,1.347049e+04
5.785416e+02,1.346060e+04
5.795059e+02,1.344958e+04
5.804701e+02,1.344492e+04
5.814343e+02,1.344432e+04
5.823986e+02,1.344030e+04
5.833628e+02,1.343173e+04
5.843270e+02,1.342253e+04
5.852913e+02,1.341679e+04
5.862555e+02,1.341573e+04
5.872197e+02,1.341678e+04
5.881840e+02,1.341667e+04
5.891482e+02,1.341773e+04
5.901124e+02,1.342399e+04
5.910767e+02,1.343761e+04
5.920409e+02,1.345018e+04
5.930051e+02,1.345109e+04
5.939694e+02,1.344091e+04
5.949336e+02,1.342871e+04
5.958978e+02,1.341725e+04
5.968621e+02,1.340608e+04
5.978263e+02,1.339501e+04
5.987905e+02,1.338490e+04
5.997548e+02,1.337817e+04
6.007190e+02,1.337868e+04
6.016832e+02,1.338407e+04
6.026475e+02,1.338884e+04
6.036117e+02,1.338739e+04
6.045759e+02,1.338292e+04
6.055402e+02,1.338031e+04
6.065044e+02,1.337718e+04
6.074686e+02,1.336777e+04
6.084329e+02,1.335064e+04
6.093971e+02,1.332950e+04
6.103613e+02,1.331625e+04
6.113256e+02,1.332697e+04
6.122899e+02,1.332971e+04
6.132541e+02,1.331311e+04
6.142183e+02,1.328504e+04
6.151826e+02,1.326013e+04
6.161468e+02,1.325168e+04
6.171110e+02,1.325092e+04
6.180753e+02,1.324246e+04
6.190395e+02,1.322621e+04
6.200037e+02,1.321329e+04
6.209680e+02,1.321171e+04
6.219322e+02,1.322221e+04
6.228964e+02,1.322239e+04
6.238607e+02,1.319478e+04
6.248249e+02,1.317306e+04
6.257891e+02,1.316953e+04
6.267534e+02,1.317503e+04
6.277176e+02,1.317090e+04
6.286818e+02,1.314634e+04
6.296461e+02,1.311733e+04
6.306103e+02,1.310025e+04
6.315745e+02,1.309558e+04
6.325388e+02,1.309553e+04
6.335030e+02,1.309159e+04
6.344672e+02,1.308143e+04
6.354315e+02,1.307648e+04
6.363957e+02,1.308040e+04
6.373599e+02,1.307869e+04
6.383242e+02,1.306616e+04
6.392884e+02,1.304553e+04
6.402526e+02,1.302650e+04
6.412169e+02,1.301102e+04
6.421811e+02,1.299813e+04
6.431453e+02,1.298888e+04
6.441096e+02,1.298232e+04
6.450738e+02,1.297433e+04
6.460380e+02,1.296197e+04
6.470023e+02,1.294786e+04
6.479665e+02,1.293997e+04
6.489307e+02,1.293765e+04
6.498950e+02,1.293520e+04
6.508592e+02,1.292540e+04
6.518234e+02,1.290576e+04
6.527877e+02,1.288835e+04
6.537519e+02,1.287656e+04
6.547161e+02,1.286846e+04
6.556804e+02,1.286628e+04
6.566446e+02,1.286929e+04
6.576088e+02,1.286885e+04
6.585731e+02,1.285426e+04
6.595373e+02,1.282782e+04
6.605015e+02,1.280216e+04
6.614658e+02,1.277714e+04
6.624300e+02,1.275722e+04
6.633942e+02,1.274714e+04
6.643585e+02,1.274976e+04
6.653227e+02,1.275356e+04
6.662869e+02,1.275484e+04
6.672512e+02,1.275626e+04
6.682154e+02,1.276225e+04
6.691796e+02,1.277141e+04
6.701439e+02,1.277449e+04
6.711081e+02,1.276408e+04
6.720723e+02,1.274372e+04
6.730366e+02,1.272115e+04
6.740008e+02,1.269903e+04
6.749650e+02,1.267632e+04
6.759293e+02,1.265084e+04
6.768935e+02,1.262174e+04
6.778577e+02,1.259796e+04
6.788220e+02,1.258153e+04
6.797862e+02,1.257653e+04
6.807504e+02,1.258350e+04
6.817147e+02,1.260176e+04
6.826789e+02,1.261486e+04
6.836431e+02,1.261280e+04
6.846074e+02,1.259935e+04
6.855716e+02,1.258002e+04
6.865358e+02,1.255857e+04
6.875001e+02,1.253914e+04
6.884643e+02,1.252659e+04
6.894285e+02,1.252133e+04
6.903928e+02,1.251509e+04
6.913570e+02,1.250564e+04
6.923212e+02,1.249339e+04
6.932855e+02,1.247980e+04
6.942497e+02,1.246551e+04
6.952139e+02,1.246003e+04
6.961782e+02,1.246827e+04
6.971424e+02,1.247910e+04
6.981066e+02,1.248243e+04
6.990709e+02,1.247170e+04
7.000351e+02,1.245112e+04
7.009993e+02,1.242793e+04
7.019636e+02,1.240630e+04
7.029278e+02,1.238749e+04
7.038920e+02,1.237067e+04
7.048563e+02,1.235382e+04
7.058205e+02,1.233821e+04
7.067847e+02,1.232954e+04
7.077490e+02,1.231973e+04
7.087132e+02,1.231026e+04
7.096774e+02,1.230928e+04
7.106417e+02,1.231610e+04
7.116059e+02,1.233287e+04
7.125701e+02,1.233545e+04
7.135344e+02,1.230650e+04
7.144986e+02,1.227154e+04
7.154628e+02,1.225085e+04
7.164271e+02,1.224654e+04
7.173913e+02,1.224975e+04
7.183555e+02,1.225869e+04
7.193198e+02,1.226951e+04
7.202840e+02,1.226114e+04
7.212482e+02,1.222865e+04
7.222125e+02,1.219503e+04
7.231767e+02,1.218434e+04
7.241409e+02,1.220743e+04
7.251052e+02,1.221297e+04
7.260694e+02,1.218220e+04
7.270336e+02,1.214757e+04
7.279979e+02,1.212962e+04
7.289621e+02,1.213009e+04
7.299263e+02,1.213350e+04
7.308906e+02,1.213611e+04
7.318548e+02,1.213452e+04
7.328190e+02,1.212642e+04
7.337833e+02,1.211181e+04
7.347475e+02,1.209229e+04
7.357117e+02,1.206801e+04
7.366760e+02,1.204224e+04
7.376402e+02,1.203014e+04
7.386044e+02,1.203656e+04
7.395687e+02,1.204671e+04
7.405329e+02,1.204601e+04
7.414971e+02,1.203084e+04
7.424614e+02,1.201652e+04
7.434256e+02,1.201236e+04
7.443898e+02,1.201303e+04
7.453541e+02,1.200946e+04
7.463183e+02,1.199629e+04
7.472825e+02,1.198204e+04
7.482468e+02,1.197820e+04
7.492110e+02,1.197278e+04
7.501752e+02,1.195428e+04
7.511395e+02,1.192845e+04
7.521037e+02,1.190749e+04
7.530679e+02,1.189847e+04
7.540322e+02,1.189662e+04
7.549964e+02,1.188823e+04
7.559606e+02,1.187352e+04
7.569249e+02,1.186144e+04
7.578891e+02,1.185897e+04
7.588533e+02,1.186810e+04
7.598176e+02,1.187449e+04
7.607818e+02,1.186598e+04
7.617460e+02,1.184765e+04
7.627103e+02,1.182075e+04
7.636745e+02,1.179358e+04
7.646387e+02,1.177678e+04
7.656030e+02,1.178131e+04
7.665672e+02,1.179165e+04
7.675314e+02,1.178715e+04
7.684957e+02,1.176569e+04
7.694599e+02,1.174273e+04
7.704241e+02,1.173759e+04
7.713884e+02,1.174562e+04
7.723526e+02,1.173887e+04
7.733168e+02,1.171755e+04
7.742811e+02,1.170580e+04
7.752453e+02,1.171011e+04
7.762095e+02,1.172371e+04
7.771738e+02,1.173109e+04
7.781380e+02,1.172561e+04
7.791022e+02,1.171261e+04
7.800665e+02,1.169624e+04
7.810307e+02,1.167827e+04
7.819949e+02,1.166007e+04
7.829592e+02,1.164614e+04
7.839234e+02,1.163558e+04
7.848876e+02,1.162448e+04
7.858519e+02,1.161323e+04
7.868161e+02,1.160531e+04
7.877803e+02,1.160350e+04
7.887446e+02,1.160109e+04
7.897088e+02,1.158919e+04
7.906730e+02,1.157336e+04
7.916373e+02,1.156609e+04
7.926015e+02,1.156677e+04
7.935657e+02,1.156363e+04
7.945300e+02,1.154557e+04
7.954942e+02,1.150830e+04
7.964584e+02,1.148038e+04
7.974227e+02,1.148407e+04
7.983869e+02,1.150553e+04
7.993511e+02,1.151430e+04
8.003154e+02,1.149469e+04
8.012796e+02,1.147033e+04
8.022438e+02,1.144419e+04
8.032081e+02,1.142476e+04
8.041723e+02,1.142139e+04
8.051365e+02,1.143500e+04
8.061008e+02,1.144653e+04
8.070650e+02,1.143489e+04
8.080292e+02,1.140972e+04
8.089935e+02,1.139552e+04
8.099577e+02,1.139866e+04
8.109219e+02,1.140347e+04
8.118862e+02,1.138567e+04
8.128504e+02,1.134646e+04
8.138146e+02,1.132966e+04
8.147789e+02,1.134230e+04
8.157431e+02,1.135617e+04
8.167073e+02,1.135007e+04
8.176716e+02,1.132515e+04
8.186358e+02,1.130921e+04
8.196000e+02,1.130397e+04
8.205643e+02,1.130470e+04
8.215285e+02,1.130891e+04
8.224927e+02,1.131435e+04
8.234570e+02,1.131075e+04
8.244212e+02,1.128481e+04
8.253854e+02,1.125926e+04
8.263497e+02,1.124473e+04
8.273139e+02,1.123763e+04
8.282781e+02,1.123383e+04
8.292424e+02,1.124400e+04
8.302066e+02,1.125751e+04
8.311708e+02,1.125145e+04
8.321351e+02,1.122920e+04
8.330993e+02,1.120746e+04
8.340635e+02,1.119168e+04
8.350278e+02,1.118103e+04
8.359920e+02,1.117942e+04
8.369562e+02,1.119037e+04
8.379205e+02,1.119352e+04
8.388847e+02,1.118032e+04
8.398489e+02,1.115680e+04
8.408132e+02,1.113607e+04
8.417774e+02,1.111329e+04
8.427416e+02,1.109652e+04
8.437059e+02,1.109143e+04
8.446701e+02,1.109043e+04
8.456343e+02,1.108591e+04
8.465986e+02,1.107222e+04
8.475628e+02,1.106144e+04
8.485270e+02,1.106271e+04
8.494913e+02,1.106585e+04
8.504555e+02,1.106072e+04
8.514197e+02,1.104603e+04
8.523840e+02,1.103201e+04
8.533482e+02,1.102438e+04
8.543124e+02,1.102026e+04
8.552767e+02,1.101734e+04
8.562409e+02,1.101428e+04
8.572051e+02,1.100856e+04
8.581694e+02,1.100039e+04
8.591336e+02,1.099124e+04
8.600978e+02,1.097915e+04
8.610621e+02,1.096461e+04
8.620263e+02,1.095420e+04
8.629905e+02,1.095030e+04
8.639548e+02,1.094935e+04
8.649190e+02,1.094523e+04
8.658832e+02,1.094661e+04
8.668475e+02,1.094382e+04
8.678117e+02,1.092588e+04
8.687759e+02,1.089601e+04
8.697402e+02,1.087942e+04
8.707044e+02,1.088111e+04
8.716686e+02,1.088078e+04
8.726329e+02,1.087940e+04
8.735971e+02,1.087809e+04
8.745613e+02,1.087524e+04
8.755256e+02,1.087945e+04
8.764898e+02,1.087842e+04
8.774540e+02,1.085008e+04
8.784183e+02,1.080924e+04
8.793825e+02,1.078489e+04
8.803467e+02,1.078980e+04
8.813110e+02,1.080458e+04
8.822752e+02,1.080897e+04
8.832394e+02,1.080678e+04
8.842037e+02,1.080336e+04
8.851679e+02,1.079708e+04
8.861321e+02,1.078651e+04
8.870964e+02,1.077053e+04
8.880606e+02,1.074795e+04
8.890248e+02,1.072887e+04
8.899891e+02,1.071965e+04
8.909533e+02,1.071496e+04
8.919175e+02,1.070686e+04
8.928818e+02,1.069317e+04
8.938460e+02,1.068501e+04
8.948102e+02,1.068260e+04
8.957745e+02,1.068009e+04
8.967387e+02,1.067691e+04
8.977029e+02,1.067064e+04
8.986672e+02,1.065882e+04
8.996314e+02,1.064378e+04
9.005956e+02,1.063237e+04
9.015599e+02,1.062754e+04
9.025241e+02,1.062531e+04
9.034883e+02,1.061913e+04
9.044526e+02,1.060229e+04
9.054168e+02,1.057969e+04
9.063810e+02,1.055719e+04
9.073453e+02,1.054257e+04
9.083095e+02,1.054100e+04
9.092737e+02,1.055381e+04
9.102380e+02,1.056843e+04
9.112022e+02,1.057491e+04
9.121664e+02,1.057283e+04
9.131307e+02,1.056265e+04
9.140949e+02,1.054776e+04
9.150591e+02,1.053448e+04
9.160234e+02,1.052341e+04
9.169876e+02,1.050890e+04
9.179518e+02,1.048877e+04
9.189161e+02,1.046215e+04
9.198803e+02,1.043633e+04
9.208445e+02,1.042377e+04
9.218088e+02,1.043005e+04
9.227730e+02,1.043229e+04
9.237372e+02,1.042618e+04
9.247015e+02,1.041767e+04
9.256657e+02,1.040994e+04
9.266299e+02,1.040209e+04
9.275942e+02,1.040023e+04
9.285584e+02,1.040976e+04
9.295226e+02,1.041415e+04
9.304869e+02,1.040800e+04
9.314511e+02,1.039495e+04
9.324153e+02,1.038134e+04
9.333796e+02,1.036297e+04
9.343438e+02,1.034869e+04
9.353080e+02,1.033933e+04
9.362723e+02,1.033087e+04
9.372365e+02,1.032313e+04
9.382007e+02,1.032785e+04
9.391650e+02,1.032806e+04
9.401292e+02,1.030583e+04
9.410934e+02,1.027804e+04
9.420577e+02,1.026352e+04
9.430219e+02,1.026673e+04
9.439861e+02,1.027019e+04
9.449504e+02,1.026193e+04
9.459146e+02,1.025392e+04
9.468788e+02,1.025778e+04
9.478431e+02,1.026819e+04
9.488073e+02,1.027222e+04
9.497715e+02,1.026616e+04
9.507358e+02,1.025195e+04
9.517000e+02,1.022737e+04
9.526642e+02,1.019676e+04
9.536285e+02,1.017094e+04
9.545927e+02,1.015417e+04
9.555569e+02,1.014575e+04
9.565212e+02,1.014781e+04
9.574854e+02,1.016423e+04
9.584496e+02,1.017919e+04
9.594139e+02,1.018199e+04
9.603781e+02,1.017359e+04
9.613423e+02,1.016378e+04
9.623066e+02,1.015362e+04
9.632708e+02,1.013906e+04
9.642350e+02,1.011920e+04
9.651993e+02,1.010075e+04
9.661635e+02,1.009012e+04
9.671277e+02,1.008930e+04
9.680920e+02,1.008226e+04
9.690562e+02,1.006261e+04
9.700204e+02,1.004191e+04
9.709847e+02,1.003480e+04
9.719489e+02,1.004988e+04
9.729131e+02,1.005007e+04
9.738774e+02,1.001951e+04
9.748416e+02,9.995206e+03
9.758058e+02,9.990910e+03
9.767701e+02,1.000077e+04
9.777343e+02,1.000830e+04
9.786985e+02,1.001539e+04
9.796628e+02,1.001263e+04
9.806270e+02,9.992280e+03
9.815912e+02,9.962433e+03
9.825555e+02,9.937174e+03
9.835197e+02,9.927752e+03
9.844839e+02,9.921673e+03
9.854482e+02,9.915186e+03
9.864124e+02,9.910381e+03
9.873766e+02,9.907600e+03
9.883409e+02,9.908259e+03
9.893051e+02,9.908005e+03
9.902693e+02,9.900354e+03
9.912336e+02,9.893479e+03
9.921978e+02,9.895186e+03
9.931620e+02,9.902213e+03
9.941263e+02,9.904091e+03
9.950905e+02,9.893431e+03
9.960547e+02,9.876031e+03
9.970190e+02,9.856327e+03
9.979832e+02,9.834521e+03
9.989474e+02,9.813817e+03
9.999117e+02,9.800384e+03
1.000876e+03,9.791921e+03
1.001840e+03,9.781983e+03
1.002804e+03,9.774379e+03
1.003769e+03,9.775920e+03
1.004733e+03,9.787736e+03
1.005697e+03,9.799212e+03
1.006661e+03,9.794851e+03
1.007626e+03,9.778459e+03
1.008590e+03,9.762474e+03
1.009554e+03,9.746728e+03
1.010518e+03,9.732363e+03
1.011482e+03,9.725090e+03
1.012447e+03,9.723553e+03
1.013411e+03,9.719084e+03
1.014375e+03,9.716010e+03
1.015339e+03,9.713514e+03
1.016304e+03,9.707638e+03
1.017268e+03,9.698143e+03
1.018232e+03,9.689050e+03
1.019196e+03,9.679110e+03
1.020161e+03,9.668843e+03
1.021125e+03,9.660416e+03
1.022089e+03,9.655671e+03
1.023053e+03,9.652635e+03
1.024018e+03,9.648392e+03
1.024982e+03,9.641466e+03
1.025946e+03,9.628498e+03
1.026910e+03,9.611173e+03
1.027875e+03,9.597591e+03
1.028839e+03,9.594144e+03
1.029803e+03,9.590615e+03
1.030767e+03,9.587093e+03
1.031731e+03,9.584108e+03
1.032696e+03,9.580077e+03
1.033660e+03,9.574002e+03
1.034624e+03,9.567952e+03
1.035588e+03,9.565644e+03
1.036552e+03,9.563700e+03
1.037517e+03,9.557774e+03
1.038481e+03,9.546658e+03
1.039445e+03,9.536085e+03
1.040409e+03,9.526428e+03
1.041374e+03,9.517599e+03
1.042338e+03,9.512613e+03
1.043302e+03,9.510851e+03
1.044266e+03,9.509514e+03
1.045231e+03,9.512907e+03
1.046195e+03,9.506200e+03
1.047159e+03,9.484479e+03
1.048123e+03,9.460720e+03
1.049088e+03,9.442196e+03
1.050052e+03,9.431766e+03
1.051016e+03,9.428370e+03
1.051980e+03,9.432429e+03
1.052945e+03,9.440799e+03
1.053909e+03,9.454448e+03
1.054873e+03,9.465312e+03
1.055837e+03,9.460245e+03
1.056802e+03,9.431931e+03
1.057766e+03,9.402630e+03
1.058730e+03,9.372459e+03
1.059694e+03,9.347519e+03
1.060658e+03,9.334093e+03
1.061623e+03,9.342279e+03
1.062587e+03,9.348804e+03
1.063551e+03,9.354375e+03
1.064515e+03,9.355933e+03
1.065479e+03,9.348447e+03
1.066444e+03,9.333024e+03
1.067408e+03,9.317899e+03
1.068372e+03,9.295905e+03
1.069336e+03,9.282527e+03
1.070301e+03,9.284760e+03
1.071265e+03,9.295989e+03
1.072229e+03,9.302982e+03
1.073193e+03,9.305827e+03
1.074158e+03,9.300999e+03
1.075122e+03,9.282528e+03
1.076086e+03,9.258670e+03
1.077050e+03,9.241567e+03
1.078015e+03,9.242322e+03
1.078979e+03,9.243004e+03
1.079943e+03,9.232701e+03
1.080907e+03,9.223691e+03
1.081872e+03,9.223714e+03
1.082836e+03,9.230925e+03
1.083800e+03,9.233066e+03
1.084764e+03,9.224896e+03
1.085729e+03,9.218751e+03
1.086693e+03,9.220088e+03
1.087657e+03,9.225725e+03
1.088621e+03,9.229370e+03
1.089585e+03,9.236468e+03
1.090550e+03,9.228815e+03
1.091514e+03,9.194793e+03
1.092478e+03,9.154938e+03
1.093442e+03,9.129812e+03
1.094406e+03,9.126697e+03
1.095371e+03,9.127549e+03
1.096335e+03,9.131627e+03
1.097299e+03,9.132576e+03
1.098263e+03,9.123244e+03
1.099228e+03,9.103391e+03
1.100192e+03,9.090544e+03
1.101156e+03,9.092122e+03
1.102120e+03,9.094889e+03
1.103085e+03,9.101240e+03
1.104049e+03,9.105161e+03
1.105013e+03,9.094957e+03
1.105977e+03,9.048943e+03
1.106942e+03,9.016450e+03
1.107906e+03,9.016374e+03
1.108870e+03,9.026890e+03
1.109834e+03,9.028168e+03
1.110799e+03,9.016854e+03
1.111763e+03,9.004582e+03
1.112727e+03,8.985071e+03
1.113691e+03,8.974740e+03
1.114656e+03,8.987536e+03
1.115620e+03,9.018934e+03
1.116584e+03,9.035804e+03
1.117548e+03,9.017691e+03
1.118512e+03,8.999235e+03
1.119477e+03,8.994271e+03
1.120441e+03,8.992387e+03
1.121405e+03,8.978811e+03
1.122369e+03,8.940417e+03
1.123334e+03,8.911022e+03
1.124298e+03,8.898219e+03
1.125262e+03,8.890854e+03
1.126226e+03,8.881201e+03
1.127191e+03,8.869067e+03
1.128155e+03,8.862858e+03
1.129119e+03,8.863171e+03
1.130083e+03,8.864272e+03
1.131047e+03,8.863798e+03
1.132012e+03,8.860073e+03
1.132976e+03,8.854126e+03
1.133940e+03,8.844990e+03
1.134904e+03,8.834722e+03
1.135869e+03,8.826620e+03
1.136833e+03,8.819620e+03
1.137797e+03,8.812631e+03
1.138761e+03,8.810112e+03
1.139726e+03,8.800022e+03
1.140690e+03,8.774108e+03
1.141654e+03,8.754591e+03
1.142618e+03,8.757452e+03
1.143583e+03,8.778900e+03
1.144547e+03,8.782361e+03
1.145511e+03,8.762104e+03
1.146475e+03,8.744854e+03
1.147439e+03,8.738980e+03
1.148404e+03,8.739330e+03
1.149368e+03,8.732104e+03
1.150332e+03,8.714681e+03
1.151296e+03,8.707282e+03
1.152261e+03,8.709886e+03
1.153225e+03,8.708046e+03
1.154189e+03,8.694820e+03
1.155153e+03,8.674816e+03
1.156118e+03,8.655851e+03
1.157082e+03,8.640609e+03
1.158046e+03,8.633424e+03
1.159010e+03,8.633652e+03
1.159974e+03,8.638888e+03
1.160939e+03,8.647566e+03
1.161903e+03,8.656502e+03
1.162867e+03,8.655542e+03
1.163831e+03,8.641849e+03
1.164796e+03,8.622581e+03
1.165760e+03,8.606407e+03
1.166724e+03,8.594126e+03
1.167688e+03,8.585541e+03
1.168653e+03,8.580112e+03
1.169617e+03,8.573663e+03
1.170581e+03,8.565182e+03
1.171545e+03,8.555097e+03
1.172510e+03,8.540840e+03
1.173474e+03,8.525752e+03
1.174438e+03,8.515194e+03
1.175402e+03,8.509698e+03
1.176366e+03,8.507172e+03
1.177331e+03,8.508958e+03
1.178295e+03,8.512800e+03
1.179259e+03,8.515455e+03
1.180223e+03,8.514488e+03
1.181188e+03,8.508082e+03
1.182152e+03,8.494116e+03
1.183116e+03,8.476381e+03
1.184080e+03,8.455484e+03
1.185045e+03,8.436733e+03
1.186009e+03,8.427972e+03
1.186973e+03,8.441861e+03
1.187937e+03,8.449388e+03
1.188901e+03,8.426068e+03
1.189866e+03,8.398680e+03
1.190830e+03,8.390915e+03
1.191794e+03,8.403889e+03
1.192758e+03,8.408872e+03
1.193723e+03,8.395754e+03
1.194687e+03,8.385187e+03
1.195651e+03,8.383104e+03
1.196615e+03,8.387548e+03
1.197580e+03,8.393766e+03
1.198544e+03,8.403549e+03
1.199508e+03,8.399940e+03
1.200472e+03,8.383531e+03
1.201437e+03,8.360061e+03
1.202401e+03,8.332661e+03
1.203365e+03,8.301058e+03
1.204329e+03,8.285807e+03
1.205293e+03,8.290665e+03
1.206258e+03,8.299722e+03
1.207222e+03,8.306010e+03
1.208186e+03,8.309196e+03
1.209150e+03,8.310275e+03
1.210115e+03,8.306577e+03
1.211079e+03,8.303209e+03
1.212043e+03,8.302760e+03
1.213007e+03,8.299249e+03
1.213972e+03,8.286937e+03
1.214936e+03,8.269455e+03
1.215900e+03,8.253877e+03
1.216864e+03,8.240915e+03
1.217828e+03,8.234233e+03
1.218793e+03,8.239125e+03
1.219757e+03,8.247244e+03
1.220721e+03,8.240080e+03
1.221685e+03,8.225202e+03
1.222650e+03,8.220176e+03
1.223614e+03,8.227269e+03
1.224578e+03,8.234647e+03
1.225542e+03,8.239283e+03
1.226507e+03,8.239558e+03
1.227471e+03,8.229881e+03
1.228435e+03,8.209790e+03
1.229399e+03,8.185808e+03
1.230364e+03,8.161544e+03
1.231328e+03,8.138206e+03
1.232292e+03,8.117365e+03
1.233256e+03,8.103475e+03
1.234220e+03,8.099921e+03
1.235185e+03,8.115573e+03
1.236149e+03,8.121160e+03
1.237113e+03,8.097017e+03
1.238077e+03,8.075579e+03
1.239042e+03,8.072075e+03
1.240006e+03,8.081336e+03
1.240970e+03,8.087578e+03
1.241934e+03,8.093091e+03
1.242899e+03,8.090489e+03
1.243863e+03,8.078245e+03
1.244827e+03,8.061632e+03
1.245791e+03,8.046224e+03
1.246755e+03,8.032026e+03
1.247720e+03,8.018501e+03
1.248684e+03,8.005981e+03
1.249648e+03,7.997813e+03
1.250612e+03,7.996030e+03
1.251577e+03,7.997492e+03
1.252541e+03,7.994264e+03
1.253505e+03,7.986507e+03
1.254469e+03,7.983983e+03
1.255434e+03,7.991849e+03
1.256398e+03,8.000032e+03
1.257362e+03,7.989766e+03
1.258326e+03,7.969905e+03
1.259291e+03,7.962110e+03
1.260255e+03,7.964095e+03
1.261219e+03,7.959343e+03
1.262183e+03,7.936071e+03
1.263147e+03,7.913205e+03
1.264112e+03,7.903445e+03
1.265076e+03,7.902282e+03
1.266040e+03,7.902249e+03
1.267004e+03,7.902447e+03
1.267969e+03,7.902378e+03
1.268933e+03,7.909353e+03
1.269897e+03,7.916157e+03
1.270861e+03,7.907550e+03
1.271826e+03,7.880716e+03
1.272790e+03,7.867404e+03
1.273754e+03,7.887011e+03
1.274718e+03,7.891273e+03
1.275682e+03,7.867670e+03
1.276647e+03,7.836896e+03
1.277611e+03,7.824634e+03
1.278575e+03,7.833730e+03
1.279539e+03,7.828225e+03
1.280504e+03,7.809749e+03
1.281468e+03,7.794233e+03
1.282432e+03,7.788537e+03
1.283396e+03,7.790255e+03
1.284361e+03,7.794490e+03
1.285325e+03,7.799315e+03
1.286289e+03,7.805302e+03
1.287253e+03,7.812382e+03
1.288218e+03,7.814166e+03
1.289182e+03,7.802360e+03
1.290146e+03,7.785900e+03
1.291110e+03,7.776515e+03
1.292074e+03,7.774039e+03
1.293039e+03,7.771412e+03
1.294003e+03,7.766677e+03
1.294967e+03,7.756567e+03
1.295931e+03,7.735769e+03
1.296896e+03,7.715691e+03
1.297860e+03,7.708968e+03
1.298824e+03,7.720862e+03
1.299788e+03,7.722020e+03
1.300753e+03,7.700233e+03
1.301717e+03,7.681258e+03
1.302681e+03,7.675624e+03
1.303645e+03,7.679969e+03
1.304609e+03,7.686793e+03
1.305574e+03,7.694688e+03
1.306538e+03,7.691780e+03
1.307502e+03,7.678844e+03
1.308466e+03,7.664805e+03
1.309431e+03,7.654279e+03
1.310395e+03,7.647916e+03
1.311359e+03,7.651087e+03
1.312323e+03,7.657639e+03
1.313288e+03,7.651543e+03
1.314252e+03,7.624881e+03
1.315216e+03,7.601096e+03
1.316180e+03,7.603500e+03
1.317145e+03,7.618194e+03
1.318109e+03,7.627210e+03
1.319073e+03,7.625276e+03
1.320037e+03,7.618930e+03
1.321001e+03,7.611203e+03
1.321966e+03,7.599935e+03
1.322930e+03,7.586468e+03
1.323894e+03,7.572922e+03
1.324858e+03,7.558058e+03
1.325823e+03,7.536011e+03
1.326787e+03,7.526338e+03
1.327751e+03,7.531803e+03
1.328715e+03,7.537510e+03
1.329680e+03,7.534300e+03
1.330644e+03,7.525251e+03
1.331608e+03,7.522682e+03
1.332572e+03,7.525431e+03
1.333536e+03,7.528945e+03
1.334501e+03,7.531370e+03
1.335465e+03,7.527412e+03
1.336429e+03,7.507584e+03
1.337393e+03,7.485104e+03
1.338358e+03,7.481794e+03
1.339322e+03,7.493971e+03
1.340286e+03,7.500898e+03
1.341250e+03,7.496546e+03
1.342215e+03,7.479576e+03
1.343179e+03,7.437331e+03
1.344143e+03,7.396654e+03
1.345107e+03,7.384536e+03
1.346072e+03,7.408593e+03
1.347036e+03,7.424333e+03
1.348000e+03,7.429872e+03
1.348964e+03,7.425250e+03
1.349928e+03,7.409826e+03
1.350893e+03,7.390780e+03
1.351857e+03,7.379080e+03
1.352821e+03,7.372986e+03
1.353785e+03,7.371578e+03
1.354750e+03,7.373843e+03
1.355714e+03,7.372111e+03
1.356678e+03,7.362506e+03
1.357642e+03,7.350022e+03
1.358607e+03,7.334686e+03
1.359571e+03,7.318216e+03
1.360535e+03,7.306060e+03
1.361499e+03,7.300897e+03
1.362464e+03,7.302787e+03
1.363428e+03,7.321048e+03
1.364392e+03,7.340985e+03
1.365356e+03,7.348435e+03
1.366320e+03,7.340404e+03
1.367285e+03,7.327958e+03
1.368249e+03,7.311202e+03
1.369213e+03,7.298322e+03
1.370177e+03,7.292313e+03
1.371142e+03,7.287498e+03
1.372106e+03,7.277094e+03
1.373070e+03,7.261947e+03
1.374034e+03,7.247565e+03
1.374999e+03,7.235968e+03
1.375963e+03,7.228896e+03
1.376927e+03,7.228024e+03
1.377891e+03,7.228376e+03
1.378855e+03,7.222476e+03
1.379820e+03,7.213957e+03
1.380784e+03,7.208468e+03
1.381748e+03,7.208817e+03
1.382712e+03,7.210444e+03
1.383677e+03,7.209110e+03
1.384641e+03,7.204477e+03
1.385605e+03,7.194040e+03
1.386569e+03,7.180763e+03
1.387534e+03,7.171150e+03
1.388498e+03,7.167602e+03
1.389462e+03,7.157294e+03
1.390426e+03,7.136713e+03
1.391391e+03,7.117885e+03
1.392355e+03,7.111179e+03
1.393319e+03,7.112835e+03
1.394283e+03,7.114385e+03
1.395247e+03,7.114611e+03
1.396212e+03,7.112207e+03
1.397176e+03,7.106874e+03
1.398140e+03,7.102538e+03
1.399104e+03,7.100833e+03
1.400069e+03,7.098456e+03
1.401033e+03,7.096626e+03
1.401997e+03,7.092727e+03
1.402961e+03,7.079125e+03
1.403926e+03,7.044011e+03
1.404890e+03,7.026803e+03
1.405854e+03,7.037619e+03
1.406818e+03,7.049582e+03
1.407782e+03,7.041126e+03
1.408747e+03,7.021147e+03
1.409711e+03,7.017041e+03
1.410675e+03,7.021231e+03
1.411639e+03,7.014564e+03
1.412604e+03,6.991040e+03
1.413568e+03,6.971197e+03
1.414532e+03,6.978215e+03
1.415496e+03,6.995460e+03
1.416461e+03,7.010665e+03
1.417425e+03,7.018944e+03
1.418389e+03,7.014601e+03
1.419353e+03,6.984288e+03
1.420318e+03,6.961288e+03
1.421282e+03,6.953882e+03
1.422246e+03,6.950648e+03
1.423210e+03,6.940390e+03
1.424174e+03,6.925850e+03
1.425139e+03,6.919410e+03
1.426103e+03,6.918593e+03
1.427067e+03,6.919483e+03
1.428031e+03,6.922028e+03
1.428996e+03,6.922733e+03
1.429960e+03,6.913542e+03
1.430924e+03,6.901463e+03
1.431888e+03,6.895507e+03
1.432853e+03,6.894800e+03
1.433817e+03,6.890299e+03
1.434781e+03,6.877161e+03
1.435745e+03,6.867494e+03
1.436709e+03,6.860977e+03
1.437674e+03,6.854049e+03
1.438638e+03,6.846638e+03
1.439602e+03,6.840524e+03
1.440566e+03,6.832157e+03
1.441531e+03,6.821326e+03
1.442495e+03,6.814098e+03
1.443459e+03,6.811929e+03
1.444423e+03,6.811778e+03
1.445388e+03,6.814170e+03
1.446352e+03,6.812094e+03
1.447316e+03,6.796971e+03
1.448280e+03,6.773823e+03
1.449245e+03,6.758028e+03
1.450209e+03,6.757034e+03
1.451173e+03,6.757424e+03
1.452137e+03,6.753813e+03
1.453101e+03,6.748904e+03
1.454066e+03,6.747278e+03
1.455030e+03,6.749208e+03
1.455994e+03,6.757347e+03
1.456958e+03,6.769766e+03
1.457923e+03,6.773021e+03
1.458887e+03,6.758126e+03
1.459851e+03,6.740906e+03
1.460815e+03,6.734399e+03
1.461780e+03,6.730877e+03
1.462744e+03,6.731831e+03
1.463708e+03,6.735588e+03
1.464672e+03,6.723450e+03
1.465636e+03,6.681990e+03
1.466601e+03,6.657581e+03
1.467565e+03,6.659706e+03
1.468529e+03,6.669889e+03
1.469493e+03,6.668831e+03
1.470458e+03,6.658249e+03
1.471422e+03,6.650103e+03
1.472386e+03,6.646244e+03
1.473350e+03,6.650448e+03
1.474315e+03,6.665398e+03
1.475279e+03,6.675961e+03
1.476243e+03,6.669907e+03
1.477207e+03,6.656201e+03
1.478172e+03,6.642157e+03
1.479136e+03,6.629131e+03
1.480100e+03,6.617893e+03
1.481064e+03,6.609602e+03
1.482028e+03,6.601524e+03
1.482993e+03,6.594214e+03
1.483957e+03,6.588267e+03
1.484921e+03,6.584048e+03
1.485885e+03,6.579170e+03
1.486850e+03,6.565323e+03
1.487814e+03,6.545732e+03
1.488778e+03,6.532097e+03
1.489742e+03,6.530590e+03
1.490707e+03,6.528202e+03
1.491671e+03,6.524130e+03
1.492635e+03,6.522031e+03
1.493599e+03,6.521185e+03
1.494563e+03,6.519439e+03
1.495528e+03,6.515019e+03
1.496492e+03,6.506990e+03
1.497456e+03,6.499672e+03
1.498420e+03,6.495583e+03
1.499385e+03,6.490664e+03
1.500349e+03,6.480136e+03
1.501313e+03,6.469216e+03
1.502277e+03,6.458201e+03
1.503242e+03,6.449624e+03
1.504206e+03,6.448791e+03
1.505170e+03,6.459501e+03
1.506134e+03,6.460907e+03
1.507099e+03,6.449943e+03
1.508063e+03,6.440319e+03
1.509027e+03,6.438123e+03
1.509991e+03,6.437551e+03
1.510955e+03,6.427087e+03
1.511920e+03,6.411289e+03
1.512884e+03,6.403499e+03
1.513848e+03,6.405759e+03
1.514812e+03,6.407608e+03
1.515777e+03,6.395425e+03
1.516741e+03,6.383291e+03
1.517705e+03,6.374991e+03
1.518669e+03,6.368543e+03
1.519634e+03,6.364102e+03
1.520598e+03,6.360604e+03
1.521562e+03,6.359363e+03
1.522526e+03,6.358421e+03
1.523490e+03,6.354747e+03
1.524455e+03,6.348191e+03
1.525419e+03,6.338483e+03
1.526383e+03,6.324728e+03
1.527347e+03,6.309224e+03
1.528312e+03,6.293528e+03
1.529276e+03,6.282080e+03
1.530240e+03,6.282202e+03
1.531204e+03,6.297913e+03
1.532169e+03,6.305977e+03
1.533133e+03,6.303767e+03
1.534097e+03,6.298386e+03
1.535061e+03,6.294757e+03
1.536026e+03,6.290154e+03
1.536990e+03,6.281505e+03
1.537954e+03,6.270525e+03
1.538918e+03,6.257677e+03
1.539882e+03,6.241104e+03
1.540847e+03,6.233693e+03
1.541811e+03,6.249083e+03
1.542775e+03,6.256576e+03
1.543739e+03,6.248958e+03
1.544704e+03,6.233005e+03
1.545668e+03,6.215549e+03
1.546632e+03,6.198889e+03
1.547596e+03,6.191238e+03
1.548561e+03,6.192011e+03
1.549525e+03,6.195646e+03
1.550489e+03,6.196338e+03
1.551453e+03,6.198968e+03
1.552417e+03,6.212298e+03
1.553382e+03,6.222100e+03
1.554346e+03,6.216345e+03
1.555310e+03,6.198747e+03
1.556274e+03,6.193710e+03
1.557239e+03,6.200258e+03
1.558203e+03,6.197704e+03
1.559167e+03,6.180521e+03
1.560131e+03,6.165296e+03
1.561096e+03,6.169523e+03
1.562060e+03,6.180758e+03
1.563024e+03,6.191095e+03
1.563988e+03,6.199403e+03
1.564953e+03,6.203539e+03
1.565917e+03,6.200827e+03
1.566881e+03,6.201290e+03
1.567845e+03,6.203455e+03
1.568809e+03,6.210518e+03
1.569774e+03,6.228117e+03
1.570738e+03,6.245972e+03
1.571702e+03,6.253595e+03
1.572666e+03,6.250178e+03
1.573631e+03,6.231316e+03
1.574595e+03,6.199070e+03
1.575559e+03,6.173944e+03
1.576523e+03,6.158683e+03
1.577488e+03,6.149888e+03
1.578452e+03,6.144288e+03
1.579416e+03,6.140502e+03
1.580380e+03,6.141757e+03
1.581344e+03,6.144148e+03
1.582309e+03,6.141354e+03
1.583273e+03,6.134278e+03
1.584237e+03,6.123508e+03
1.585201e+03,6.109807e+03
1.586166e+03,6.090667e+03
1.587130e+03,6.060068e+03
1.588094e+03,6.031585e+03
1.589058e+03,6.013332e+03
1.590023e+03,6.001424e+03
1.590987e+03,5.983557e+03
1.591951e+03,5.966762e+03
1.592915e+03,5.965830e+03
1.593880e+03,5.977307e+03
1.594844e+03,5.983686e+03
1.595808e+03,5.976381e+03
1.596772e+03,5.966362e+03
1.597736e+03,5.955646e+03
1.598701e+03,5.948204e+03
1.599665e+03,5.947353e+03
1.600629e+03,5.951192e+03
1.601593e+03,5.954096e+03
1.602558e+03,5.954777e+03
1.603522e+03,5.948443e+03
1.604486e+03,5.932264e+03
1.605450e+03,5.915375e+03
1.606415e+03,5.904150e+03
1.607379e+03,5.894279e+03
1.608343e+03,5.881706e+03
1.609307e+03,5.869661e+03
1.610271e+03,5.865400e+03
1.611236e+03,5.866896e+03
1.612200e+03,5.869279e+03
1.613164e+03,5.873502e+03
1.614128e+03,5.878659e+03
1.615093e+03,5.887263e+03
1.616057e+03,5.889450e+03
1.617021e+03,5.874570e+03
1.617985e+03,5.856337e+03
1.618950e+03,5.844712e+03
1.619914e+03,5.838077e+03
1.620878e+03,5.827646e+03
1.621842e+03,5.816069e+03
1.622807e+03,5.813871e+03
1.623771e+03,5.824322e+03
1.624735e+03,5.827104e+03
1.625699e+03,5.793494e+03
1.626663e+03,5.768169e+03
1.627628e+03,5.768212e+03
1.628592e+03,5.777700e+03
1.629556e+03,5.784572e+03
1.630520e+03,5.790364e+03
1.631485e+03,5.784022e+03
1.632449e+03,5.767610e+03
1.633413e+03,5.752449e+03
1.634377e+03,5.744130e+03
1.635342e+03,5.736522e+03
1.636306e+03,5.728775e+03
1.637270e+03,5.719887e+03
1.638234e+03,5.706812e+03
1.639198e+03,5.695028e+03
1.640163e+03,5.696855e+03
1.641127e+03,5.709645e+03
1.642091e+03,5.722560e+03
1.643055e+03,5.731484e+03
1.644020e+03,5.731693e+03
1.644984e+03,5.712839e+03
1.645948e+03,5.692494e+03
1.646912e+03,5.674472e+03
1.647877e+03,5.659845e+03
1.648841e+03,5.650522e+03
1.649805e+03,5.645884e+03
1.650769e+03,5.641685e+03
1.651734e+03,5.638609e+03
1.652698e+03,5.641495e+03
1.653662e+03,5.651209e+03
1.654626e+03,5.654953e+03
1.655590e+03,5.648616e+03
1.656555e+03,5.637424e+03
1.657519e+03,5.623229e+03
1.658483e+03,5.611804e+03
1.659447e+03,5.609378e+03
1.660412e+03,5.609507e+03
1.661376e+03,5.604709e+03
1.662340e+03,5.597383e+03
1.663304e+03,5.591532e+03
1.664269e+03,5.585588e+03
1.665233e+03,5.579031e+03
1.666197e+03,5.569289e+03
1.667161e+03,5.562080e+03
1.668125e+03,5.563208e+03
1.669090e+03,5.567140e+03
1.670054e+03,5.565165e+03
1.671018e+03,5.561251e+03
1.671982e+03,5.563374e+03
1.672947e+03,5.571764e+03
1.673911e+03,5.573596e+03
1.674875e+03,5.563314e+03
1.675839e+03,5.555558e+03
1.676804e+03,5.555748e+03
1.677768e+03,5.555373e+03
1.678732e+03,5.542041e+03
1.679696e+03,5.524418e+03
1.680661e+03,5.505521e+03
1.681625e+03,5.488136e+03
1.682589e+03,5.481972e+03
1.683553e+03,5.489568e+03
1.684517e+03,5.492095e+03
1.685482e+03,5.488820e+03
1.686446e+03,5.481187e+03
1.687410e+03,5.468435e+03
1.688374e+03,5.459263e+03
1.689339e+03,5.463011e+03
1.690303e+03,5.468888e+03
1.691267e+03,5.472899e+03
1.692231e+03,5.473617e+03
1.693196e+03,5.463534e+03
1.694160e+03,5.443440e+03
1.695124e+03,5.430938e+03
1.696088e+03,5.427236e+03
1.697052e+03,5.429147e+03
1.698017e+03,5.435255e+03
1.698981e+03,5.438275e+03
1.699945e+03,5.434077e+03
1.700909e+03,5.425134e+03
1.701874e+03,5.416259e+03
1.702838e+03,5.410164e+03
1.703802e+03,5.406578e+03
1.704766e+03,5.401896e+03
1.705731e+03,5.395645e+03
1.706695e+03,5.388606e+03
1.707659e+03,5.377053e+03
1.708623e+03,5.356597e+03
1.709588e+03,5.348917e+03
1.710552e+03,5.355505e+03
1.711516e+03,5.363908e+03
1.712480e+03,5.370404e+03
1.713444e+03,5.368651e+03
1.714409e+03,5.346436e+03
1.715373e+03,5.317366e+03
1.716337e+03,5.300264e+03
1.717301e+03,5.297164e+03
1.718266e+03,5.291197e+03
1.719230e+03,5.281347e+03
1.720194e+03,5.278360e+03
1.721158e+03,5.285157e+03
1.722123e+03,5.292254e+03
1.723087e+03,5.296896e+03
1.724051e+03,5.295086e+03
1.725015e+03,5.282640e+03
1.725979e+03,5.267948e+03
1.726944e+03,5.260354e+03
1.727908e+03,5.258602e+03
1.728872e+03,5.260138e+03
1.729836e+03,5.261048e+03
1.730801e+03,5.254275e+03
1.731765e+03,5.230748e+03
1.732729e+03,5.218556e+03
1.733693e+03,5.224831e+03
1.734658e+03,5.229541e+03
1.735622e+03,5.222931e+03
1.736586e+03,5.210439e+03
1.737550e+03,5.196117e+03
1.738515e+03,5.183930e+03
1.739479e+03,5.181704e+03
1.740443e+03,5.187128e+03
1.741407e+03,5.184667e+03
1.742371e+03,5.173034e+03
1.743336e+03,5.165495e+03
1.744300e+03,5.162955e+03
1.745264e+03,5.165546e+03
1.746228e+03,5.188398e+03
1.747193e+03,5.203219e+03
1.748157e+03,5.187974e+03
1.749121e+03,5.171924e+03
1.750085e+03,5.171319e+03
1.751050e+03,5.175303e+03
1.752014e+03,5.158269e+03
1.752978e+03,5.131719e+03
1.753942e+03,5.122804e+03
1.754906e+03,5.135414e+03
1.755871e+03,5.143351e+03
1.756835e+03,5.140156e+03
1.757799e+03,5.126018e+03
1.758763e+03,5.104408e+03
1.759728e+03,5.085795e+03
1.760692e+03,5.078443e+03
1.761656e+03,5.078154e+03
1.762620e+03,5.081517e+03
1.763585e+03,5.085540e+03
1.764549e+03,5.086449e+03
1.765513e+03,5.082213e+03
1.766477e+03,5.076593e+03
1.767442e+03,5.071439e+03
1.768406e+03,5.070561e+03
1.769370e+03,5.076318e+03
1.770334e+03,5.080670e+03
1.771298e+03,5.078984e+03
1.772263e+03,5.069627e+03
1.773227e+03,5.051247e+03
1.774191e+03,5.031850e+03
1.775155e+03,5.020388e+03
1.776120e+03,5.014212e+03
1.777084e+03,5.012295e+03
1.778048e+03,5.013439e+03
1.779012e+03,5.014366e+03
1.779977e+03,5.017118e+03
1.780941e+03,5.014350e+03
1.781905e+03,5.003961e+03
1.782869e+03,4.992953e+03
1.783833e+03,4.983666e+03
1.784798e+03,4.978702e+03
1.785762e+03,4.985438e+03
1.786726e+03,4.988144e+03
1.787690e+03,4.977721e+03
1.788655e+03,4.963804e+03
1.789619e+03,4.967279e+03
1.790583e+03,4.977630e+03
1.791547e+03,4.969217e+03
1.792512e+03,4.945275e+03
1.793476e+03,4.928460e+03
1.794440e+03,4.917629e+03
1.795404e+03,4.923122e+03
1.796369e+03,4.944729e+03
1.797333e+03,4.956759e+03
1.798297e+03,4.938920e+03
1.799261e+03,4.918700e+03
1.800225e+03,4.914501e+03
1.801190e+03,4.911915e+03
1.802154e+03,4.902449e+03
1.803118e+03,4.889510e+03
1.804082e+03,4.885344e+03
1.805047e+03,4.888216e+03
1.806011e+03,4.892404e+03
1.806975e+03,4.896243e+03
1.807939e+03,4.893498e+03
1.808904e+03,4.878039e+03
1.809868e+03,4.872138e+03
1.810832e+03,4.880097e+03
1.811796e+03,4.886690e+03
1.812760e+03,4.878267e+03
1.813725e+03,4.865540e+03
1.814689e+03,4.853542e+03
1.815653e+03,4.842667e+03
1.816617e+03,4.833537e+03
1.817582e+03,4.825727e+03
1.818546e+03,4.816150e+03
1.819510e+03,4.805761e+03
1.820474e+03,4.798004e+03
1.821439e+03,4.794364e+03
1.822403e+03,4.791983e+03
1.823367e+03,4.791275e+03
1.824331e+03,4.790002e+03
1.825296e+03,4.786393e+03
1.826260e+03,4.780935e+03
1.827224e+03,4.777722e+03
1.828188e+03,4.776690e+03
1.829152e+03,4.775451e+03
1.830117e+03,4.772799e+03
1.831081e+03,4.769120e+03
1.832045e+03,4.761319e+03
1.833009e+03,4.741463e+03
1.833974e+03,4.719634e+03
1.834938e+03,4.706717e+03
1.835902e+03,4.703530e+03
1.836866e+03,4.710998e+03
1.837831e+03,4.730419e+03
1.838795e+03,4.733851e+03
1.839759e+03,4.716898e+03
1.840723e+03,4.700494e+03
1.841688e+03,4.695308e+03
1.842652e+03,4.695143e+03
1.843616e+03,4.697089e+03
1.844580e+03,4.696826e+03
1.845544e+03,4.690924e+03
1.846509e+03,4.683752e+03
1.847473e+03,4.684892e+03
1.848437e+03,4.688126e+03
1.849401e+03,4.680041e+03
1.850366e+03,4.661180e+03
1.851330e+03,4.649078e+03
1.852294e+03,4.644268e+03
1.853258e+03,4.637822e+03
1.854223e+03,4.626716e+03
1.855187e+03,4.620009e+03
1.856151e+03,4.620505e+03
1.857115e+03,4.624656e+03
1.858079e+03,4.632409e+03
1.859044e+03,4.638414e+03
1.860008e+03,4.640010e+03
1.860972e+03,4.638397e+03
1.861936e+03,4.632208e+03
1.862901e+03,4.624203e+03
1.863865e+03,4.615795e+03
1.864829e+03,4.604179e+03
1.865793e+03,4.590257e+03
1.866758e+03,4.576757e+03
1.867722e+03,4.567540e+03
1.868686e+03,4.563306e+03
1.869650e+03,4.557403e+03
1.870615e+03,4.545727e+03
1.871579e+03,4.545969e+03
1.872543e+03,4.566663e+03
1.873507e+03,4.587640e+03
1.874471e+03,4.588158e+03
1.875436e+03,4.578400e+03
1.876400e+03,4.563969e+03
1.877364e+03,4.548193e+03
1.878328e+03,4.531803e+03
1.879293e+03,4.517593e+03
1.880257e+03,4.513042e+03
1.881221e+03,4.512083e+03
1.882185e+03,4.503196e+03
1.883150e+03,4.486618e+03
1.884114e+03,4.485391e+03
1.885078e+03,4.495623e+03
1.886042e+03,4.497371e+03
1.887006e+03,4.483083e+03
1.887971e+03,4.474988e+03
1.888935e+03,4.489822e+03
1.889899e+03,4.493055e+03
1.890863e+03,4.471955e+03
1.891828e+03,4.448055e+03
1.892792e+03,4.450021e+03
1.893756e+03,4.455044e+03
1.894720e+03,4.447025e+03
1.895685e+03,4.438249e+03
1.896649e+03,4.439292e+03
1.897613e+03,4.444012e+03
1.898577e+03,4.434240e+03
1.899542e+03,4.418295e+03
1.900506e+03,4.415382e+03
1.901470e+03,4.429466e+03
1.902434e+03,4.427315e+03
1.903398e+03,4.410128e+03
1.904363e+03,4.399049e+03
1.905327e+03,4.400273e+03
1.906291e+03,4.403677e+03
1.907255e+03,4.404798e+03
1.908220e+03,4.400454e+03
1.909184e+03,4.389040e+03
1.910148e+03,4.376726e+03
1.911112e+03,4.373751e+03
1.912077e+03,4.372481e+03
1.913041e+03,4.365274e+03
1.914005e+03,4.356294e+03
1.914969e+03,4.349443e+03
1.915933e+03,4.344374e+03
1.916898e+03,4.339378e+03
1.917862e+03,4.335721e+03
1.918826e+03,4.334849e+03
1.919790e+03,4.338283e+03
1.920755e+03,4.336840e+03
1.921719e+03,4.328381e+03
1.922683e+03,4.320570e+03
1.923647e+03,4.316521e+03
1.924612e+03,4.315127e+03
1.925576e+03,4.318228e+03
1.926540e+03,4.320295e+03
1.927504e+03,4.318381e+03
1.928469e+03,4.311638e+03
1.929433e+03,4.292824e+03
1.930397e+03,4.275252e+03
1.931361e+03,4.272787e+03
1.932325e+03,4.272604e+03
1.933290e+03,4.264967e+03
1.934254e+03,4.257853e+03
1.935218e+03,4.268688e+03
1.936182e+03,4.282141e+03
1.937147e+03,4.274602e+03
1.938111e+03,4.249946e+03
1.939075e+03,4.241405e+03
1.940039e+03,4.247920e+03
1.941004e+03,4.249389e+03
1.941968e+03,4.240347e+03
1.942932e+03,4.229685e+03
1.943896e+03,4.222291e+03
1.944860e+03,4.209313e+03
1.945825e+03,4.191128e+03
1.946789e+03,4.182200e+03
1.947753e+03,4.204977e+03
1.948717e+03,4.216992e+03
1.949682e+03,4.192265e+03
1.950646e+03,4.168195e+03
1.951610e+03,4.168862e+03
1.952574e+03,4.179568e+03
1.953539e+03,4.182702e+03
1.954503e+03,4.180305e+03
1.955467e+03,4.176270e+03
1.956431e+03,4.170243e+03
1.957396e+03,4.153205e+03
1.958360e+03,4.131083e+03
1.959324e+03,4.122720e+03
1.960288e+03,4.129172e+03
1.961252e+03,4.133880e+03
1.962217e+03,4.133533e+03
1.963181e+03,4.127715e+03
1.964145e+03,4.117126e+03
1.965109e+03,4.112861e+03
1.966074e+03,4.132362e+03
1.967038e+03,4.137234e+03
1.968002e+03,4.117417e+03
1.968966e+03,4.100777e+03
1.969931e+03,4.103228e+03
1.970895e+03,4.105346e+03
1.971859e+03,4.091077e+03
1.972823e+03,4.085130e+03
1.973787e+03,4.100781e+03
1.974752e+03,4.115771e+03
1.975716e+03,4.092944e+03
1.976680e+03,4.057729e+03
1.977644e+03,4.039163e+03
1.978609e+03,4.033877e+03
1.979573e+03,4.032020e+03
1.980537e+03,4.032675e+03
1.981501e+03,4.038318e+03
1.982466e+03,4.047324e+03
1.983430e+03,4.053921e+03
1.984394e+03,4.057389e+03
1.985358e+03,4.050848e+03
1.986323e+03,4.035601e+03
1.987287e+03,4.022915e+03
1.988251e+03,4.015397e+03
1.989215e+03,4.012689e+03
1.990179e+03,4.016892e+03
1.991144e+03,4.017416e+03
1.992108e+03,4.013050e+03
1.993072e+03,4.007233e+03
1.994036e+03,4.000724e+03
1.995001e+03,3.990292e+03
1.995965e+03,3.972658e+03
1.996929e+03,3.960974e+03
1.997893e+03,3.969627e+03
1.998858e+03,3.982875e+03
1.999822e+03,3.990880e+03
2.000786e+03,3.992349e+03
2.001750e+03,3.988453e+03
2.002714e+03,3.983030e+03
2.003679e+03,3.974525e+03
2.004643e+03,3.965898e+03
2.005607e+03,3.968425e+03
2.006571e+03,3.978266e+03
2.007536e+03,3.974355e+03
2.008500e+03,3.960038e+03
2.009464e+03,3.941261e+03
2.010428e+03,3.921327e+03
2.011393e+03,3.910402e+03
2.012357e+03,3.908479e+03
2.013321e+03,3.918938e+03
2.014285e+03,3.937083e+03
2.015250e+03,3.942147e+03
2.016214e+03,3.914528e+03
2.017178e+03,3.888269e+03
2.018142e+03,3.865055e+03
2.019106e+03,3.854340e+03
2.020071e+03,3.866550e+03
2.021035e+03,3.876551e+03
2.021999e+03,3.870910e+03
2.022963e+03,3.860729e+03
2.023928e+03,3.849976e+03
2.024892e+03,3.842301e+03
2.025856e+03,3.843762e+03
2.026820e+03,3.846513e+03
2.027785e+03,3.844731e+03
2.028749e+03,3.840860e+03
2.029713e+03,3.842634e+03
2.030677e+03,3.844379e+03
2.031641e+03,3.831151e+03
2.032606e+03,3.814768e+03
2.033570e+03,3.818452e+03
2.034534e+03,3.835012e+03
2.035498e+03,3.838073e+03
2.036463e+03,3.830587e+03
2.037427e+03,3.816580e+03
2.038391e+03,3.799370e+03
2.039355e+03,3.776548e+03
2.040320e+03,3.752282e+03
2.041284e+03,3.743899e+03
2.042248e+03,3.754662e+03
2.043212e+03,3.758017e+03
2.044177e+03,3.752547e+03
2.045141e+03,3.756161e+03
2.046105e+03,3.770401e+03
2.047069e+03,3.780630e+03
2.048033e+03,3.775684e+03
2.048998e+03,3.768211e+03
2.049962e+03,3.760299e+03
2.050926e+03,3.752627e+03
2.051890e+03,3.745095e+03
2.052854e+03,3.738260e+03
2.053819e+03,3.730394e+03
2.054783e+03,3.721862e+03
2.055747e+03,3.715851e+03
2.056711e+03,3.711707e+03
2.057676e+03,3.706905e+03
2.058640e+03,3.705109e+03
2.059604e+03,3.705817e+03
2.060568e+03,3.706271e+03
2.061533e+03,3.704480e+03
2.062497e+03,3.702937e+03
2.063461e+03,3.707277e+03
2.064425e+03,3.709980e+03
2.065390e+03,3.695830e+03
2.066354e+03,3.674556e+03
2.067318e+03,3.666645e+03
2.068282e+03,3.667699e+03
2.069247e+03,3.664609e+03
2.070211e+03,3.656998e+03
2.071175e+03,3.648510e+03
2.072139e+03,3.640770e+03
2.073104e+03,3.637051e+03
2.074068e+03,3.637691e+03
2.075032e+03,3.639316e+03
2.075996e+03,3.639567e+03
2.076960e+03,3.633094e+03
2.077925e+03,3.618579e+03
2.078889e+03,3.608810e+03
2.079853e+03,3.604495e+03
2.080817e+03,3.606231e+03
2.081782e+03,3.613078e+03
2.082746e+03,3.613130e+03
2.083710e+03,3.602015e+03
2.084674e+03,3.589586e+03
2.085639e+03,3.578451e+03
2.086603e+03,3.578419e+03
2.087567e+03,3.600441e+03
2.088531e+03,3.607987e+03
2.089496e+03,3.592542e+03
2.090460e+03,3.576098e+03
2.091424e+03,3.575929e+03
2.092388e+03,3.576201e+03
2.093353e+03,3.561548e+03
2.094317e+03,3.549412e+03
2.095281e+03,3.540506e+03
2.096245e+03,3.536645e+03
2.097209e+03,3.545499e+03
2.098174e+03,3.554108e+03
2.099138e+03,3.559511e+03
2.100102e+03,3.560070e+03
2.101066e+03,3.553676e+03
2.102031e+03,3.540999e+03
2.102995e+03,3.515150e+03
2.103959e+03,3.491513e+03
2.104923e+03,3.481908e+03
2.105887e+03,3.485978e+03
2.106852e+03,3.507579e+03
2.107816e+03,3.526456e+03
2.108780e+03,3.524417e+03
2.109744e+03,3.508408e+03
2.110708e+03,3.494679e+03
2.111673e+03,3.484864e+03
2.112637e+03,3.479124e+03
2.113601e+03,3.472496e+03
2.114565e+03,3.452758e+03
2.115530e+03,3.430752e+03
2.116494e+03,3.434702e+03
2.117458e+03,3.461913e+03
2.118422e+03,3.477345e+03
2.119387e+03,3.480029e+03
2.120351e+03,3.482980e+03
2.121315e+03,3.483045e+03
2.122279e+03,3.474559e+03
2.123244e+03,3.457032e+03
2.124208e+03,3.447017e+03
2.125172e+03,3.442874e+03
2.126136e+03,3.433617e+03
2.127101e+03,3.416458e+03
2.128065e+03,3.401730e+03
2.129029e+03,3.389799e+03
2.129993e+03,3.394643e+03
2.130958e+03,3.415581e+03
2.131922e+03,3.415393e+03
2.132886e+03,3.390728e+03
2.133850e+03,3.385490e+03
2.134814e+03,3.406032e+03
2.135779e+03,3.417519e+03
2.136743e+03,3.401984e+03
2.137707e+03,3.388822e+03
2.138671e+03,3.380617e+03
2.139636e+03,3.374551e+03
2.140600e+03,3.370287e+03
2.141564e+03,3.365076e+03
2.142528e+03,3.359228e+03
2.143493e+03,3.356101e+03
2.144457e+03,3.357123e+03
2.145421e+03,3.350790e+03
2.146385e+03,3.331421e+03
2.147350e+03,3.324292e+03
2.148314e+03,3.340153e+03
2.149278e+03,3.354145e+03
2.150242e+03,3.340310e+03
2.151207e+03,3.329006e+03
2.152171e+03,3.324331e+03
2.153135e+03,3.319144e+03
2.154099e+03,3.307220e+03
2.155063e+03,3.307605e+03
2.156028e+03,3.328221e+03
2.156992e+03,3.344609e+03
2.157956e+03,3.328210e+03
2.158920e+03,3.312181e+03
2.159885e+03,3.313234e+03
2.160849e+03,3.313804e+03
2.161813e+03,3.304104e+03
2.162777e+03,3.294410e+03
2.163741e+03,3.300721e+03
2.164706e+03,3.299546e+03
2.165670e+03,3.283229e+03
2.166634e+03,3.267669e+03
2.167598e+03,3.265249e+03
2.168563e+03,3.270465e+03
2.169527e+03,3.279485e+03
2.170491e+03,3.284122e+03
2.171455e+03,3.279457e+03
2.172420e+03,3.270437e+03
2.173384e+03,3.259298e+03
2.174348e+03,3.248827e+03
2.175312e+03,3.239442e+03
2.176277e+03,3.230414e+03
2.177241e+03,3.221813e+03
2.178205e+03,3.214469e+03
2.179169e+03,3.211336e+03
2.180134e+03,3.211313e+03
2.181098e+03,3.209601e+03
2.182062e+03,3.209332e+03
2.183026e+03,3.210447e+03
2.183990e+03,3.211061e+03
2.184955e+03,3.211148e+03
2.185919e+03,3.206878e+03
2.186883e+03,3.189466e+03
2.187847e+03,3.172627e+03
2.188812e+03,3.183237e+03
2.189776e+03,3.197980e+03
2.190740e+03,3.183690e+03
2.191704e+03,3.163446e+03
2.192668e+03,3.162272e+03
2.193633e+03,3.168387e+03
2.194597e+03,3.167297e+03
2.195561e+03,3.160401e+03
2.196525e+03,3.144869e+03
2.197490e+03,3.128238e+03
2.198454e+03,3.127059e+03
2.199418e+03,3.129402e+03
2.200382e+03,3.124773e+03
2.201347e+03,3.119119e+03
2.202311e+03,3.116177e+03
2.203275e+03,3.118679e+03
2.204239e+03,3.132382e+03
2.205204e+03,3.143073e+03
2.206168e+03,3.133645e+03
2.207132e+03,3.116915e+03
2.208096e+03,3.105016e+03
2.209061e+03,3.092899e+03
2.210025e+03,3.073789e+03
2.210989e+03,3.056384e+03
2.211953e+03,3.058598e+03
2.212917e+03,3.073242e+03
2.213882e+03,3.085961e+03
2.214846e+03,3.092780e+03
2.215810e+03,3.086289e+03
2.216774e+03,3.075732e+03
2.217739e+03,3.078875e+03
2.218703e+03,3.084397e+03
2.219667e+03,3.066086e+03
2.220631e+03,3.042130e+03
2.221595e+03,3.026829e+03
2.222560e+03,3.018600e+03
2.223524e+03,3.020206e+03
2.224488e+03,3.024160e+03
2.225452e+03,3.023485e+03
2.226417e+03,3.021286e+03
2.227381e+03,3.018205e+03
2.228345e+03,3.017262e+03
2.229309e+03,3.021225e+03
2.230274e+03,3.023884e+03
2.231238e+03,3.019515e+03
2.232202e+03,3.013730e+03
2.233166e+03,3.022911e+03
2.234131e+03,3.031161e+03
2.235095e+03,3.024431e+03
2.236059e+03,3.011553e+03
2.237023e+03,3.002318e+03
2.237988e+03,2.995400e+03
2.238952e+03,2.988661e+03
2.239916e+03,2.981652e+03
2.240880e+03,2.977013e+03
2.241844e+03,2.974598e+03
2.242809e+03,2.974997e+03
2.243773e+03,2.974669e+03
2.244737e+03,2.963031e+03
2.245701e+03,2.954175e+03
2.246666e+03,2.966635e+03
2.247630e+03,2.974697e+03
2.248594e+03,2.959885e+03
2.249558e+03,2.942717e+03
2.250522e+03,2.940318e+03
2.251487e+03,2.943605e+03
2.252451e+03,2.946378e+03
2.253415e+03,2.946179e+03
2.254379e+03,2.946919e+03
2.255344e+03,2.943478e+03
2.256308e+03,2.934066e+03
2.257272e+03,2.923250e+03
2.258236e+03,2.914105e+03
2.259201e+03,2.906780e+03
2.260165e+03,2.899557e+03
2.261129e+03,2.893559e+03
2.262093e+03,2.890671e+03
2.263058e+03,2.886294e+03
2.264022e+03,2.881245e+03
2.264986e+03,2.878471e+03
2.265950e+03,2.879001e+03
2.266915e+03,2.876823e+03
2.267879e+03,2.866311e+03
2.268843e+03,2.860491e+03
2.269807e+03,2.871217e+03
2.270771e+03,2.881663e+03
2.271736e+03,2.888441e+03
2.272700e+03,2.885986e+03
2.273664e+03,2.867444e+03
2.274628e+03,2.854436e+03
2.275593e+03,2.859718e+03
2.276557e+03,2.858031e+03
2.277521e+03,2.847751e+03
2.278485e+03,2.841917e+03
2.279449e+03,2.850944e+03
2.280414e+03,2.851740e+03
2.281378e+03,2.842810e+03
2.282342e+03,2.834887e+03
2.283306e+03,2.833592e+03
2.284271e+03,2.824484e+03
2.285235e+03,2.807790e+03
2.286199e+03,2.794731e+03
2.287163e+03,2.793848e+03
2.288128e+03,2.800091e+03
2.289092e+03,2.809299e+03
2.290056e+03,2.807594e+03
2.291020e+03,2.791854e+03
2.291985e+03,2.777192e+03
2.292949e+03,2.766703e+03
2.293913e+03,2.763987e+03
2.294877e+03,2.767508e+03
2.295842e+03,2.768438e+03
2.296806e+03,2.765338e+03
2.297770e+03,2.764234e+03
2.298734e+03,2.764026e+03
2.299698e+03,2.760717e+03
2.300663e+03,2.755310e+03
2.301627e+03,2.747155e+03
2.302591e+03,2.737842e+03
2.303555e+03,2.733355e+03
2.304520e+03,2.733528e+03
2.305484e+03,2.737577e+03
2.306448e+03,2.742990e+03
2.307412e+03,2.742730e+03
2.308376e+03,2.738784e+03
2.309341e+03,2.740182e+03
2.310305e+03,2.742317e+03
2.311269e+03,2.741270e+03
2.312233e+03,2.738711e+03
2.313198e+03,2.733604e+03
2.314162e+03,2.724997e+03
2.315126e+03,2.709305e+03
2.316090e+03,2.695701e+03
2.317055e+03,2.701460e+03
2.318019e+03,2.708241e+03
2.318983e+03,2.691380e+03
2.319947e+03,2.676796e+03
2.320912e+03,2.692787e+03
2.321876e+03,2.709319e+03
2.322840e+03,2.698142e+03
2.323804e+03,2.685588e+03
2.324769e+03,2.684753e+03
2.325733e+03,2.685205e+03
2.326697e+03,2.674655e+03
2.327661e+03,2.670775e+03
2.328625e+03,2.678052e+03
2.329590e+03,2.680922e+03
2.330554e+03,2.671113e+03
2.331518e+03,2.661629e+03
2.332482e+03,2.653979e+03
2.333447e+03,2.646374e+03
2.334411e+03,2.636276e+03
2.335375e+03,2.629240e+03
2.336339e+03,2.625776e+03
2.337303e+03,2.628049e+03
2.338268e+03,2.640523e+03
2.339232e+03,2.640290e+03
2.340196e+03,2.629717e+03
2.341160e+03,2.618497e+03
2.342125e+03,2.608016e+03
2.343089e+03,2.611907e+03
2.344053e+03,2.622552e+03
2.345017e+03,2.623754e+03
2.345982e+03,2.615594e+03
2.346946e+03,2.612606e+03
2.347910e+03,2.613982e+03
2.348874e+03,2.611013e+03
2.349839e+03,2.602527e+03
2.350803e+03,2.594333e+03
2.351767e+03,2.586790e+03
2.352731e+03,2.576845e+03
2.353696e+03,2.569444e+03
2.354660e+03,2.569419e+03
2.355624e+03,2.572869e+03
2.356588e+03,2.578907e+03
2.357552e+03,2.585617e+03
2.358517e+03,2.591609e+03
2.359481e+03,2.596308e+03
2.360445e+03,2.599046e+03
2.361409e+03,2.596069e+03
2.362374e+03,2.585029e+03
2.363338e+03,2.569459e+03
2.364302e+03,2.552507e+03
2.365266e+03,2.541544e+03
2.366230e+03,2.536706e+03
2.367195e+03,2.535848e+03
2.368159e+03,2.539742e+03
2.369123e+03,2.539037e+03
2.370087e+03,2.534643e+03
2.371052e+03,2.530039e+03
2.372016e+03,2.527077e+03
2.372980e+03,2.523196e+03
2.373944e+03,2.517793e+03
2.374909e+03,2.517817e+03
2.375873e+03,2.529314e+03
2.376837e+03,2.526689e+03
2.377801e+03,2.513862e+03
2.378766e+03,2.506527e+03
2.379730e+03,2.506427e+03
2.380694e+03,2.499174e+03
2.381658e+03,2.490558e+03
2.382623e+03,2.494339e+03
2.383587e+03,2.504253e+03
2.384551e+03,2.498249e+03
2.385515e+03,2.484594e+03
2.386479e+03,2.482082e+03
2.387444e+03,2.482670e+03
2.388408e+03,2.469633e+03
2.389372e+03,2.458574e+03
2.390336e+03,2.466100e+03
2.391301e+03,2.478498e+03
2.392265e+03,2.488040e+03
2.393229e+03,2.487154e+03
2.394193e+03,2.468389e+03
2.395157e+03,2.451529e+03
2.396122e+03,2.451364e+03
2.397086e+03,2.452317e+03
2.398050e+03,2.450651e+03
2.399014e+03,2.445628e+03
2.399979e+03,2.434459e+03
2.400943e+03,2.429553e+03
2.401907e+03,2.431875e+03
2.402871e+03,2.433626e+03
2.403836e+03,2.434018e+03
2.404800e+03,2.430217e+03
2.405764e+03,2.422495e+03
2.406728e+03,2.429039e+03
2.407693e+03,2.445199e+03
2.408657e+03,2.440871e+03
2.409621e+03,2.421476e+03
2.410585e+03,2.406691e+03
2.411550e+03,2.398440e+03
2.412514e+03,2.397563e+03
2.413478e+03,2.399475e+03
2.414442e+03,2.390361e+03
2.415406e+03,2.380531e+03
2.416371e+03,2.381535e+03
2.417335e+03,2.386629e+03
2.418299e+03,2.385366e+03
2.419263e+03,2.383953e+03
2.420228e+03,2.385607e+03
2.421192e+03,2.387110e+03
2.422156e+03,2.385827e+03
2.423120e+03,2.386427e+03
2.424084e+03,2.388510e+03
2.425049e+03,2.384793e+03
2.426013e+03,2.371127e+03
2.426977e+03,2.362101e+03
2.427941e+03,2.360677e+03
2.428906e+03,2.358671e+03
2.429870e+03,2.351340e+03
2.430834e+03,2.350999e+03
2.431798e+03,2.357182e+03
2.432763e+03,2.363551e+03
2.433727e+03,2.368031e+03
2.434691e+03,2.362492e+03
2.435655e+03,2.351987e+03
2.436620e+03,2.348379e+03
2.437584e+03,2.348316e+03
2.438548e+03,2.341445e+03
2.439512e+03,2.334833e+03
2.440477e+03,2.335363e+03
2.441441e+03,2.335468e+03
2.442405e+03,2.327045e+03
2.443369e+03,2.317246e+03
2.444333e+03,2.309673e+03
2.445298e+03,2.306967e+03
2.446262e+03,2.317289e+03
2.447226e+03,2.317840e+03
2.448190e+03,2.305634e+03
2.449155e+03,2.298448e+03
2.450119e+03,2.313105e+03
2.451083e+03,2.323421e+03
2.452047e+03,2.328052e+03
2.453011e+03,2.323121e+03
2.453976e+03,2.308156e+03
2.454940e+03,2.297849e+03
2.455904e+03,2.294380e+03
2.456868e+03,2.305340e+03
2.457833e+03,2.319800e+03
2.458797e+03,2.300912e+03
2.459761e+03,2.271872e+03
2.460725e+03,2.264803e+03
2.461690e+03,2.265147e+03
2.462654e+03,2.249402e+03
2.463618e+03,2.233752e+03
2.464582e+03,2.227505e+03
2.465547e+03,2.232805e+03
2.466511e+03,2.262889e+03
2.467475e+03,2.274485e+03
2.468439e+03,2.257586e+03
2.469404e+03,2.241496e+03
2.470368e+03,2.247382e+03
2.471332e+03,2.256615e+03
2.472296e+03,2.265776e+03
2.473260e+03,2.260873e+03
2.474225e+03,2.237416e+03
2.475189e+03,2.233092e+03
2.476153e+03,2.241588e+03
2.477117e+03,2.233148e+03
2.478082e+03,2.215945e+03
2.479046e+03,2.234484e+03
2.480010e+03,2.256837e+03
2.480974e+03,2.234998e+03
2.481938e+03,2.201997e+03
2.482903e+03,2.199120e+03
2.483867e+03,2.207565e+03
2.484831e+03,2.217190e+03
2.485795e+03,2.221493e+03
2.486760e+03,2.211147e+03
2.487724e+03,2.207025e+03
2.488688e+03,2.213394e+03
2.489652e+03,2.217311e+03
2.490617e+03,2.208389e+03
2.491581e+03,2.200277e+03
2.492545e+03,2.194537e+03
2.493509e+03,2.194424e+03
2.494474e+03,2.198194e+03
2.495438e+03,2.198233e+03
2.496402e+03,2.195769e+03
2.497366e+03,2.195105e+03
2.498331e+03,2.193351e+03
2.499295e+03,2.179436e+03
2.500259e+03,2.166411e+03
2.501223e+03,2.168607e+03
2.502188e+03,2.175919e+03
2.503152e+03,2.181769e+03
2.504116e+03,2.180672e+03
2.505080e+03,2.171365e+03
2.506044e+03,2.161569e+03
2.507009e+03,2.154429e+03
2.507973e+03,2.145871e+03
2.508937e+03,2.137538e+03
2.509901e+03,2.139037e+03
2.510865e+03,2.152867e+03
2.511830e+03,2.154127e+03
2.512794e+03,2.147267e+03
2.513758e+03,2.153331e+03
2.514722e+03,2.166161e+03
2.515687e+03,2.158730e+03
2.516651e+03,2.145408e+03
2.517615e+03,2.141264e+03
2.518579e+03,2.141202e+03
2.519544e+03,2.143317e+03
2.520508e+03,2.137648e+03
2.521472e+03,2.119932e+03
2.522436e+03,2.108935e+03
2.523401e+03,2.127383e+03
2.524365e+03,2.134973e+03
2.525329e+03,2.127836e+03
2.526293e+03,2.117979e+03
2.527258e+03,2.109754e+03
2.528222e+03,2.105517e+03
2.529186e+03,2.103980e+03
2.530150e+03,2.101056e+03
2.531115e+03,2.098483e+03
2.532079e+03,2.097923e+03
2.533043e+03,2.101098e+03
2.534007e+03,2.108894e+03
2.534971e+03,2.115809e+03
2.535936e+03,2.123240e+03
2.536900e+03,2.117409e+03
2.537864e+03,2.090506e+03
2.538828e+03,2.070958e+03
2.539792e+03,2.070947e+03
2.540757e+03,2.076605e+03
2.541721e+03,2.085627e+03
2.542685e+03,2.084952e+03
2.543649e+03,2.076190e+03
2.544614e+03,2.081249e+03
2.545578e+03,2.093622e+03
2.546542e+03,2.096126e+03
2.547506e+03,2.092135e+03
2.548471e+03,2.085474e+03
2.549435e+03,2.079930e+03
2.550399e+03,2.081943e+03
2.551363e+03,2.079991e+03
2.552328e+03,2.059439e+03
2.553292e+03,2.052914e+03
2.554256e+03,2.078360e+03
2.555220e+03,2.080514e+03
2.556185e+03,2.049588e+03
2.557149e+03,2.035777e+03
2.558113e+03,2.047316e+03
2.559077e+03,2.055576e+03
2.560042e+03,2.057979e+03
2.561006e+03,2.051508e+03
2.561970e+03,2.044760e+03
2.562934e+03,2.050862e+03
2.563898e+03,2.057861e+03
2.564863e+03,2.047398e+03
2.565827e+03,2.036484e+03
2.566791e+03,2.046503e+03
2.567755e+03,2.053093e+03
2.568719e+03,2.047741e+03
2.569684e+03,2.037501e+03
2.570648e+03,2.022440e+03
2.571612e+03,2.023973e+03
2.572576e+03,2.039634e+03
2.573541e+03,2.039720e+03
2.574505e+03,2.023432e+03
2.575469e+03,2.018109e+03
2.576433e+03,2.018600e+03
2.577398e+03,2.020387e+03
2.578362e+03,2.022297e+03
2.579326e+03,2.026406e+03
2.580290e+03,2.024299e+03
2.581255e+03,2.011306e+03
2.582219e+03,1.997992e+03
2.583183e+03,1.993297e+03
2.584147e+03,1.988876e+03
2.585112e+03,1.987086e+03
2.586076e+03,1.989029e+03
2.587040e+03,1.994451e+03
2.588004e+03,1.987592e+03
2.588969e+03,1.975667e+03
2.589933e+03,1.979905e+03
2.590897e+03,1.990262e+03
2.591861e+03,1.983025e+03
2.592825e+03,1.972661e+03
2.593790e+03,1.965544e+03
2.594754e+03,1.966823e+03
2.595718e+03,1.985999e+03
2.596682e+03,1.993877e+03
2.597646e+03,1.982981e+03
2.598611e+03,1.975541e+03
2.599575e+03,1.975694e+03
2.600539e+03,1.971271e+03
2.601503e+03,1.963810e+03
2.602468e+03,1.969906e+03
2.603432e+03,1.978365e+03
2.604396e+03,1.963734e+03
2.605360e+03,1.947319e+03
2.606325e+03,1.947018e+03
2.607289e+03,1.949512e+03
2.608253e+03,1.949050e+03
2.609217e+03,1.951156e+03
2.610182e+03,1.958778e+03
2.611146e+03,1.951163e+03
2.612110e+03,1.931300e+03
2.613074e+03,1.920215e+03
2.614039e+03,1.920492e+03
2.615003e+03,1.922637e+03
2.615967e+03,1.925319e+03
2.616931e+03,1.932098e+03
2.617896e+03,1.939171e+03
2.618860e+03,1.943367e+03
2.619824e+03,1.938065e+03
2.620788e+03,1.919737e+03
2.621752e+03,1.906354e+03
2.622717e+03,1.911599e+03
2.623681e+03,1.917461e+03
2.624645e+03,1.922088e+03
2.625609e+03,1.923976e+03
2.626573e+03,1.923657e+03
2.627538e+03,1.921885e+03
2.628502e+03,1.922098e+03
2.629466e+03,1.927862e+03
2.630430e+03,1.933052e+03
2.631395e+03,1.928906e+03
2.632359e+03,1.919006e+03
2.633323e+03,1.901895e+03
2.634287e+03,1.892322e+03
2.635252e+03,1.893456e+03
2.636216e+03,1.904741e+03
2.637180e+03,1.922671e+03
2.638144e+03,1.918110e+03
2.639109e+03,1.898424e+03
2.640073e+03,1.883386e+03
2.641037e+03,1.877049e+03
2.642001e+03,1.885512e+03
2.642966e+03,1.891844e+03
2.643930e+03,1.885972e+03
2.644894e+03,1.878607e+03
2.645858e+03,1.878018e+03
2.646823e+03,1.872788e+03
2.647787e+03,1.862199e+03
2.648751e+03,1.860176e+03
2.649715e+03,1.866738e+03
2.650679e+03,1.870602e+03
2.651644e+03,1.869586e+03
2.652608e+03,1.858117e+03
2.653572e+03,1.847196e+03
2.654536e+03,1.858294e+03
2.655500e+03,1.870226e+03
2.656465e+03,1.876354e+03
2.657429e+03,1.870773e+03
2.658393e+03,1.849349e+03
2.659357e+03,1.844596e+03
2.660322e+03,1.860051e+03
2.661286e+03,1.865935e+03
2.662250e+03,1.864031e+03
2.663214e+03,1.861959e+03
2.664179e+03,1.858480e+03
2.665143e+03,1.849203e+03
2.666107e+03,1.845347e+03
2.667071e+03,1.854514e+03
2.668036e+03,1.856586e+03
2.669000e+03,1.829967e+03
2.669964e+03,1.824862e+03
2.670928e+03,1.837577e+03
2.671893e+03,1.834350e+03
2.672857e+03,1.818775e+03
2.673821e+03,1.818543e+03
2.674785e+03,1.822152e+03
2.675750e+03,1.818064e+03
2.676714e+03,1.812366e+03
2.677678e+03,1.807049e+03
2.678642e+03,1.810272e+03
2.679606e+03,1.824871e+03
2.680571e+03,1.835036e+03
2.681535e+03,1.837591e+03
2.682499e+03,1.833209e+03
2.683463e+03,1.822593e+03
2.684427e+03,1.813419e+03
2.685392e+03,1.806490e+03
2.686356e+03,1.797919e+03
2.687320e+03,1.797257e+03
2.688284e+03,1.825928e+03
2.689249e+03,1.834070e+03
2.690213e+03,1.812083e+03
2.691177e+03,1.793389e+03
2.692141e+03,1.790650e+03
2.693106e+03,1.794438e+03
2.694070e+03,1.799479e+03
2.695034e+03,1.788412e+03
2.695998e+03,1.773205e+03
2.696963e+03,1.775003e+03
2.697927e+03,1.784877e+03
2.698891e+03,1.797599e+03
2.699855e+03,1.800241e+03
2.700820e+03,1.785108e+03
2.701784e+03,1.777742e+03
2.702748e+03,1.779083e+03
2.703712e+03,1.784643e+03
2.704677e+03,1.789315e+03
2.705641e+03,1.777145e+03
2.706605e+03,1.762478e+03
2.707569e+03,1.753896e+03
2.708533e+03,1.756343e+03
2.709498e+03,1.771953e+03
2.710462e+03,1.781605e+03
2.711426e+03,1.777752e+03
2.712390e+03,1.767517e+03
2.713354e+03,1.753130e+03
2.714319e+03,1.741453e+03
2.715283e+03,1.734873e+03
2.716247e+03,1.747020e+03
2.717211e+03,1.757859e+03
2.718176e+03,1.751758e+03
2.719140e+03,1.750785e+03
2.720104e+03,1.775777e+03
2.721068e+03,1.782120e+03
2.722033e+03,1.765730e+03
2.722997e+03,1.755574e+03
2.723961e+03,1.751733e+03
2.724925e+03,1.748180e+03
2.725890e+03,1.746068e+03
2.726854e+03,1.749211e+03
2.727818e+03,1.748567e+03
2.728782e+03,1.736615e+03
2.729747e+03,1.724061e+03
2.730711e+03,1.712900e+03
2.731675e+03,1.724500e+03
2.732639e+03,1.751221e+03
2.733604e+03,1.749534e+03
2.734568e+03,1.730648e+03
2.735532e+03,1.729142e+03
2.736496e+03,1.726960e+03
2.737460e+03,1.709484e+03
2.738425e+03,1.700106e+03
2.739389e+03,1.715662e+03
2.740353e+03,1.723226e+03
2.741317e+03,1.718873e+03
2.742281e+03,1.713159e+03
2.743246e+03,1.709055e+03
2.744210e+03,1.708719e+03
2.745174e+03,1.711524e+03
2.746138e+03,1.730802e+03
2.747103e+03,1.734781e+03
2.748067e+03,1.712578e+03
2.749031e+03,1.696117e+03
2.749995e+03,1.703699e+03
2.750960e+03,1.704616e+03
2.751924e+03,1.699827e+03
2.752888e+03,1.690120e+03
2.753852e+03,1.679942e+03
2.754817e+03,1.682474e+03
2.755781e+03,1.685541e+03
2.756745e+03,1.681405e+03
2.757709e+03,1.676525e+03
2.758674e+03,1.671254e+03
2.759638e+03,1.671286e+03
2.760602e+03,1.678144e+03
2.761566e+03,1.685454e+03
2.762531e+03,1.692889e+03
2.763495e+03,1.697495e+03
2.764459e+03,1.696687e+03
2.765423e+03,1.683506e+03
2.766387e+03,1.675155e+03
2.767352e+03,1.676047e+03
2.768316e+03,1.681094e+03
2.769280e+03,1.688230e+03
2.770244e+03,1.688345e+03
2.771208e+03,1.684343e+03
2.772173e+03,1.678523e+03
2.773137e+03,1.675759e+03
2.774101e+03,1.688086e+03
2.775065e+03,1.697637e+03
2.776030e+03,1.696859e+03
2.776994e+03,1.681722e+03
2.777958e+03,1.657041e+03
2.778922e+03,1.662552e+03
2.779887e+03,1.683635e+03
2.780851e+03,1.669119e+03
2.781815e+03,1.646132e+03
2.782779e+03,1.635072e+03
2.783744e+03,1.635256e+03
2.784708e+03,1.647309e+03
2.785672e+03,1.662020e+03
2.786636e+03,1.675244e+03
2.787601e+03,1.669925e+03
2.788565e+03,1.654258e+03
2.789529e+03,1.642217e+03
2.790493e+03,1.637346e+03
2.791458e+03,1.647956e+03
2.792422e+03,1.652288e+03
2.793386e+03,1.647776e+03
2.794350e+03,1.645666e+03
2.795314e+03,1.647455e+03
2.796279e+03,1.634956e+03
2.797243e+03,1.619262e+03
2.798207e+03,1.620849e+03
2.799171e+03,1.631107e+03
2.800135e+03,1.643318e+03
2.801100e+03,1.647468e+03
2.802064e+03,1.641379e+03
2.803028e+03,1.643538e+03
2.803992e+03,1.652060e+03
2.804957e+03,1.651871e+03
2.805921e+03,1.647222e+03
2.806885e+03,1.649435e+03
2.807849e+03,1.639824e+03
2.808814e+03,1.608434e+03
2.809778e+03,1.596559e+03
2.810742e+03,1.633533e+03
2.811706e+03,1.641878e+03
2.812671e+03,1.626344e+03
2.813635e+03,1.616361e+03
2.814599e+03,1.613356e+03
2.815563e+03,1.623704e+03
2.816528e+03,1.636373e+03
2.817492e+03,1.651269e+03
2.818456e+03,1.641365e+03
2.819420e+03,1.608254e+03
2.820385e+03,1.590600e+03
2.821349e+03,1.592484e+03
2.822313e+03,1.617795e+03
2.823277e+03,1.635351e+03
2.824241e+03,1.620007e+03
2.825206e+03,1.600185e+03
2.826170e+03,1.592160e+03
2.827134e+03,1.599318e+03
2.828098e+03,1.617703e+03
2.829063e+03,1.619751e+03
2.830027e+03,1.614728e+03
2.830991e+03,1.630467e+03
2.831955e+03,1.645093e+03
2.832919e+03,1.631308e+03
2.833884e+03,1.623944e+03
2.834848e+03,1.626628e+03
2.835812e+03,1.616350e+03
2.836776e+03,1.594711e+03
2.837741e+03,1.592262e+03
2.838705e+03,1.596205e+03
2.839669e+03,1.592859e+03
2.840633e+03,1.583215e+03
2.841598e+03,1.567301e+03
2.842562e+03,1.558719e+03
2.843526e+03,1.563266e+03
2.844490e+03,1.568853e+03
2.845455e+03,1.572654e+03
2.846419e+03,1.570390e+03
2.847383e+03,1.571017e+03
2.848347e+03,1.590240e+03
2.849312e+03,1.603053e+03
2.850276e+03,1.604506e+03
2.851240e+03,1.593401e+03
2.852204e+03,1.573651e+03
2.853168e+03,1.562707e+03
2.854133e+03,1.559003e+03
2.855097e+03,1.560319e+03
2.856061e+03,1.572468e+03
2.857025e+03,1.593747e+03
2.857990e+03,1.602848e+03
2.858954e+03,1.593837e+03
2.859918e+03,1.578487e+03
2.860882e+03,1.564308e+03
2.861846e+03,1.561404e+03
2.862811e+03,1.565596e+03
2.863775e+03,1.575774e+03
2.864739e+03,1.580950e+03
2.865703e+03,1.577776e+03
2.866668e+03,1.578985e+03
2.867632e+03,1.584481e+03
2.868596e+03,1.597237e+03
2.869560e+03,1.605414e+03
2.870525e+03,1.586739e+03
2.871489e+03,1.583481e+03
2.872453e+03,1.604788e+03
2.873417e+03,1.608628e+03
2.874382e+03,1.593633e+03
2.875346e+03,1.592610e+03
2.876310e+03,1.592865e+03
2.877274e+03,1.560508e+03
2.878239e+03,1.542192e+03
2.879203e+03,1.552650e+03
2.880167e+03,1.568619e+03
2.881131e+03,1.585773e+03
2.882095e+03,1.584467e+03
2.883060e+03,1.574849e+03
2.884024e+03,1.571393e+03
2.884988e+03,1.574345e+03
2.885952e+03,1.587787e+03
2.886917e+03,1.585875e+03
2.887881e+03,1.562895e+03
2.888845e+03,1.560457e+03
2.889809e+03,1.571529e+03
2.890773e+03,1.576698e+03
2.891738e+03,1.576536e+03
2.892702e+03,1.571925e+03
2.893666e+03,1.573731e+03
2.894630e+03,1.582925e+03
2.895595e+03,1.576957e+03
2.896559e+03,1.559928e+03
2.897523e+03,1.557237e+03
2.898487e+03,1.560095e+03
2.899452e+03,1.559407e+03
2.900416e+03,1.557672e+03
2.901380e+03,1.555186e+03
2.902344e+03,1.561361e+03
2.903309e+03,1.574544e+03
2.904273e+03,1.566057e+03
2.905237e+03,1.553154e+03
2.906201e+03,1.555573e+03
2.907166e+03,1.556367e+03
2.908130e+03,1.547897e+03
2.909094e+03,1.543240e+03
2.910058e+03,1.543400e+03
2.911022e+03,1.533326e+03
2.911987e+03,1.522470e+03
2.912951e+03,1.518553e+03
2.913915e+03,1.522797e+03
2.914879e+03,1.540581e+03
2.915844e+03,1.546160e+03
2.916808e+03,1.538385e+03
2.917772e+03,1.525694e+03
2.918736e+03,1.516312e+03
2.919700e+03,1.523978e+03
2.920665e+03,1.528869e+03
2.921629e+03,1.512500e+03
2.922593e+03,1.501700e+03
2.923557e+03,1.500929e+03
2.924522e+03,1.522345e+03
2.925486e+03,1.549623e+03
2.926450e+03,1.544518e+03
2.927414e+03,1.534748e+03
2.928379e+03,1.531726e+03
2.929343e+03,1.524494e+03
2.930307e+03,1.513750e+03
2.931271e+03,1.518157e+03
2.932236e+03,1.525858e+03
2.933200e+03,1.500474e+03
2.934164e+03,1.491716e+03
2.935128e+03,1.518901e+03
2.936093e+03,1.536625e+03
2.937057e+03,1.540320e+03
2.938021e+03,1.538880e+03
2.938985e+03,1.532833e+03
2.939949e+03,1.511595e+03
2.940914e+03,1.497951e+03
2.941878e+03,1.499340e+03
2.942842e+03,1.509328e+03
2.943806e+03,1.521257e+03
2.944771e+03,1.504932e+03
2.945735e+03,1.479137e+03
2.946699e+03,1.463318e+03
2.947663e+03,1.467502e+03
2.948627e+03,1.489535e+03
2.949592e+03,1.502132e+03
2.950556e+03,1.501461e+03
2.951520e+03,1.489428e+03
2.952484e+03,1.479900e+03
2.953449e+03,1.489512e+03
2.954413e+03,1.494053e+03
2.955377e+03,1.484180e+03
2.956341e+03,1.500957e+03
2.957306e+03,1.538770e+03
2.958270e+03,1.543166e+03
2.959234e+03,1.521969e+03
2.960198e+03,1.485799e+03
2.961163e+03,1.468734e+03
2.962127e+03,1.484894e+03
2.963091e+03,1.492275e+03
2.964055e+03,1.487827e+03
2.965020e+03,1.485790e+03
2.965984e+03,1.478687e+03
2.966948e+03,1.458486e+03
2.967912e+03,1.437787e+03
2.968876e+03,1.417952e+03
2.969841e+03,1.437451e+03
2.970805e+03,1.469631e+03
2.971769e+03,1.461916e+03
2.972733e+03,1.447963e+03
2.973698e+03,1.453262e+03
2.974662e+03,1.456358e+03
2.975626e+03,1.452067e+03
2.976590e+03,1.457523e+03
2.977554e+03,1.464614e+03
2.978519e+03,1.460734e+03
2.979483e+03,1.453845e+03
2.980447e+03,1.449951e+03
2.981411e+03,1.453718e+03
2.982376e+03,1.463475e+03
2.983340e+03,1.455469e+03
2.984304e+03,1.443235e+03
2.985268e+03,1.440619e+03
2.986233e+03,1.443732e+03
2.987197e+03,1.453547e+03
2.988161e+03,1.460171e+03
2.989125e+03,1.459613e+03
2.990090e+03,1.436173e+03
2.991054e+03,1.418794e+03
2.992018e+03,1.431985e+03
2.992982e+03,1.437129e+03
2.993947e+03,1.419255e+03
2.994911e+03,1.414391e+03
2.995875e+03,1.426608e+03
2.996839e+03,1.464046e+03
2.997803e+03,1.477349e+03
2.998768e+03,1.434043e+03
2.999732e+03,1.416315e+03
3.000696e+03,1.438844e+03
3.001660e+03,1.441705e+03
3.002625e+03,1.425937e+03
3.003589e+03,1.393825e+03
3.004553e+03,1.376882e+03
3.005517e+03,1.391313e+03
3.006481e+03,1.412323e+03
3.007446e+03,1.428875e+03
3.008410e+03,1.414000e+03
3.009374e+03,1.407494e+03
3.010338e+03,1.436683e+03
3.011303e+03,1.436957e+03
3.012267e+03,1.384698e+03
3.013231e+03,1.390300e+03
3.014195e+03,1.424292e+03
3.015160e+03,1.437098e+03
3.016124e+03,1.429383e+03
3.017088e+03,1.404602e+03
3.018052e+03,1.403362e+03
3.019017e+03,1.426548e+03
3.019981e+03,1.448742e+03
3.020945e+03,1.449506e+03
3.021909e+03,1.403059e+03
3.022874e+03,1.394455e+03
3.023838e+03,1.431849e+03
3.024802e+03,1.449064e+03
3.025766e+03,1.444409e+03
3.026730e+03,1.412733e+03
3.027695e+03,1.398835e+03
3.028659e+03,1.422460e+03
3.029623e+03,1.436110e+03
3.030587e+03,1.433482e+03
3.031552e+03,1.404113e+03
3.032516e+03,1.378497e+03
3.033480e+03,1.406998e+03
3.034444e+03,1.423560e+03
3.035408e+03,1.417764e+03
3.036373e+03,1.410719e+03
3.037337e+03,1.404011e+03
3.038301e+03,1.396053e+03
3.039265e+03,1.389000e+03
3.040230e+03,1.379466e+03
3.041194e+03,1.383549e+03
3.042158e+03,1.398705e+03
3.043122e+03,1.418085e+03
3.044087e+03,1.430708e+03
3.045051e+03,1.413901e+03
3.046015e+03,1.402281e+03
3.046979e+03,1.407267e+03
3.047944e+03,1.407480e+03
3.048908e+03,1.405757e+03
3.049872e+03,1.406325e+03
3.050836e+03,1.403099e+03
3.051801e+03,1.388456e+03
3.052765e+03,1.396238e+03
3.053729e+03,1.420448e+03
3.054693e+03,1.409320e+03
3.055657e+03,1.409974e+03
3.056622e+03,1.454296e+03
3.057586e+03,1.474787e+03
3.058550e+03,1.452799e+03
3.059514e+03,1.447800e+03
3.060479e+03,1.445086e+03
3.061443e+03,1.397908e+03
3.062407e+03,1.387943e+03
3.063371e+03,1.429371e+03
3.064335e+03,1.423873e+03
3.065300e+03,1.381608e+03
3.066264e+03,1.386350e+03
3.067228e+03,1.403315e+03
3.068192e+03,1.412400e+03
3.069157e+03,1.408311e+03
3.070121e+03,1.397020e+03
3.071085e+03,1.403879e+03
3.072049e+03,1.415270e+03
3.073014e+03,1.410043e+03
3.073978e+03,1.408998e+03
3.074942e+03,1.414141e+03
3.075906e+03,1.388148e+03
3.076871e+03,1.361001e+03
3.077835e+03,1.380678e+03
3.078799e+03,1.405031e+03
3.079763e+03,1.409414e+03
3.080728e+03,1.397433e+03
3.081692e+03,1.378749e+03
3.082656e+03,1.378824e+03
3.083620e+03,1.388726e+03
3.084584e+03,1.402461e+03
3.085549e+03,1.415907e+03
3.086513e+03,1.428442e+03
3.087477e+03,1.425277e+03
3.088441e+03,1.410986e+03
3.089406e+03,1.387521e+03
3.090370e+03,1.383424e+03
3.091334e+03,1.398056e+03
3.092298e+03,1.393138e+03
3.093262e+03,1.378220e+03
3.094227e+03,1.370809e+03
3.095191e+03,1.376903e+03
3.096155e+03,1.400873e+03
3.097119e+03,1.414172e+03
3.098084e+03,1.416639e+03
3.099048e+03,1.407102e+03
3.100012e+03,1.401933e+03
3.100976e+03,1.418246e+03
3.101941e+03,1.408056e+03
3.102905e+03,1.377551e+03
3.103869e+03,1.386662e+03
3.104833e+03,1.396945e+03
3.105798e+03,1.383547e+03
3.106762e+03,1.391030e+03
3.107726e+03,1.425820e+03
3.108690e+03,1.419402e+03
3.109655e+03,1.394160e+03
3.110619e+03,1.370360e+03
3.111583e+03,1.366086e+03
3.112547e+03,1.379155e+03
3.113511e+03,1.373383e+03
3.114476e+03,1.365319e+03
3.115440e+03,1.414620e+03
3.116404e+03,1.434682e+03
3.117368e+03,1.386713e+03
3.118333e+03,1.360659e+03
3.119297e+03,1.356449e+03
3.120261e+03,1.366972e+03
3.121225e+03,1.383264e+03
3.122189e+03,1.400597e+03
3.123154e+03,1.394380e+03
3.124118e+03,1.373839e+03
3.125082e+03,1.390723e+03
3.126046e+03,1.414979e+03
3.127011e+03,1.430864e+03
3.127975e+03,1.411814e+03
3.128939e+03,1.370153e+03
3.129903e+03,1.352446e+03
3.130868e+03,1.351414e+03
3.131832e+03,1.369794e+03
3.132796e+03,1.389724e+03
3.133760e+03,1.404686e+03
3.134725e+03,1.395848e+03
3.135689e+03,1.383754e+03
3.136653e+03,1.386889e+03
3.137617e+03,1.397008e+03
3.138582e+03,1.412769e+03
3.139546e+03,1.437845e+03
3.140510e+03,1.448413e+03
3.141474e+03,1.420088e+03
3.142438e+03,1.393922e+03
3.143403e+03,1.380756e+03
3.144367e+03,1.404276e+03
3.145331e+03,1.434503e+03
3.146295e+03,1.414510e+03
3.147260e+03,1.403998e+03
3.148224e+03,1.415559e+03
3.149188e+03,1.437609e+03
3.150152e+03,1.440207e+03
3.151116e+03,1.381350e+03
3.152081e+03,1.356865e+03
3.153045e+03,1.405449e+03
3.154009e+03,1.436928e+03
3.154973e+03,1.446064e+03
3.155938e+03,1.420089e+03
3.156902e+03,1.408789e+03
3.157866e+03,1.422064e+03
3.158830e+03,1.445730e+03
3.159795e+03,1.464130e+03
3.160759e+03,1.416233e+03
3.161723e+03,1.390063e+03
3.162687e+03,1.464122e+03
3.163652e+03,1.468117e+03
3.164616e+03,1.437410e+03
3.165580e+03,1.444010e+03
3.166544e+03,1.449191e+03
3.167509e+03,1.437410e+03
3.168473e+03,1.414315e+03
3.169437e+03,1.393703e+03
3.170401e+03,1.427833e+03
3.171365e+03,1.446367e+03
3.172330e+03,1.418603e+03
3.173294e+03,1.410830e+03
3.174258e+03,1.419042e+03
3.175222e+03,1.422557e+03
3.176187e+03,1.422859e+03
3.177151e+03,1.424280e+03
3.178115e+03,1.425403e+03
3.179079e+03,1.425435e+03
3.180043e+03,1.413065e+03
3.181008e+03,1.422251e+03
3.181972e+03,1.462927e+03
3.182936e+03,1.457349e+03
3.183900e+03,1.421791e+03
3.184865e+03,1.426181e+03
3.185829e+03,1.433894e+03
3.186793e+03,1.428549e+03
3.187757e+03,1.422300e+03
3.188722e+03,1.417653e+03
3.189686e+03,1.419818e+03
3.190650e+03,1.425718e+03
3.191614e+03,1.432125e+03
3.192579e+03,1.424709e+03
3.193543e+03,1.411038e+03
3.194507e+03,1.419501e+03
3.195471e+03,1.429239e+03
3.196436e+03,1.429962e+03
3.197400e+03,1.434717e+03
3.198364e+03,1.448958e+03
3.199328e+03,1.485857e+03
3.200292e+03,1.498232e+03
3.201257e+03,0.000000e+00
3.202221e+03,0.000000e+00
3.203185e+03,0.000000e+00
3.204149e+03,0.000000e+00
3.205114e+03,0.000000e+00
3.206078e+03,0.000000e+00
3.207042e+03,0.000000e+00
3.208006e+03,0.000000e+00
3.208970e+03,0.000000e+00
3.209935e+03,0.000000e+00
3.210899e+03,0.000000e+00
3.211863e+03,0.000000e+00
3.212827e+03,0.000000e+00
3.213792e+03,0.000000e+00
3.214756e+03,0.000000e+00
3.215720e+03,0.000000e+00
3.216684e+03,0.000000e+00
3.217649e+03,0.000000e+00
3.218613e+03,0.000000e+00
3.219577e+03,0.000000e+00
3.220541e+03,0.000000e+00
3.221506e+03,0.000000e+00
3.222470e+03,0.000000e+00
3.223434e+03,0.000000e+00
3.224398e+03,0.000000e+00
3.225363e+03,0.000000e+00
3.226327e+03,0.000000e+00
3.227291e+03,0.000000e+00
3.228255e+03,0.000000e+00
3.229219e+03,0.000000e+00
3.230184e+03,0.000000e+00
3.231148e+03,0.000000e+00
3.232112e+03,0.000000e+00
3.233076e+03,0.000000e+00
3.234041e+03,0.000000e+00
3.235005e+03,0.000000e+00
3.235969e+03,0.000000e+00
3.236933e+03,0.000000e+00
3.237897e+03,0.000000e+00
3.238862e+03,0.000000e+00
3.239826e+03,0.000000e+00
3.240790e+03,0.000000e+00
3.241754e+03,0.000000e+00
3.242719e+03,0.000000e+00
3.243683e+03,0.000000e+00
3.244647e+03,0.000000e+00
3.245611e+03,0.000000e+00
3.246576e+03,0.000000e+00
3.247540e+03,0.000000e+00
3.248504e+03,0.000000e+00
3.249468e+03,0.000000e+00
3.250433e+03,0.000000e+00
3.251397e+03,0.000000e+00
3.252361e+03,0.000000e+00
3.253325e+03,0.000000e+00
3.254290e+03,0.000000e+00
3.255254e+03,0.000000e+00
3.256218e+03,0.000000e+00
3.257182e+03,0.000000e+00
3.258146e+03,0.000000e+00
3.259111e+03,0.000000e+00
3.260075e+03,0.000000e+00
3.261039e+03,0.000000e+00
3.262003e+03,0.000000e+00
3.262968e+03,0.000000e+00
3.263932e+03,0.000000e+00
3.264896e+03,0.000000e+00
3.265860e+03,0.000000e+00
3.266824e+03,0.000000e+00
3.267789e+03,0.000000e+00
3.268753e+03,0.000000e+00
3.269717e+03,0.000000e+00
3.270681e+03,0.000000e+00
3.271646e+03,0.000000e+00
3.272610e+03,0.000000e+00
3.273574e+03,0.000000e+00
3.274538e+03,0.000000e+00
3.275503e+03,0.000000e+00
3.276467e+03,0.000000e+00
3.277431e+03,0.000000e+00
3.278395e+03,0.000000e+00
3.279360e+03,0.000000e+00
3.280324e+03,0.000000e+00
3.281288e+03,0.000000e+00
3.282252e+03,0.000000e+00
3.283217e+03,0.000000e+00
3.284181e+03,0.000000e+00
3.285145e+03,0.000000e+00
3.286109e+03,0.000000e+00
3.287073e+03,0.000000e+00
3.288038e+03,0.000000e+00
3.289002e+03,0.000000e+00
3.289966e+03,0.000000e+00
3.290930e+03,0.000000e+00
3.291895e+03,0.000000e+00
3.292859e+03,0.000000e+00
3.293823e+03,0.000000e+00
3.294787e+03,0.000000e+00
3.295751e+03,0.000000e+00
3.296716e+03,0.000000e+00
3.297680e+03,0.000000e+00
3.298644e+03,0.000000e+00
3.299608e+03,0.000000e+00
3.300573e+03,0.000000e+00
3.301537e+03,0.000000e+00
3.302501e+03,0.000000e+00
3.303465e+03,0.000000e+00
3.304430e+03,0.000000e+00
3.305394e+03,0.000000e+00
3.306358e+03,0.000000e+00
3.307322e+03,0.000000e+00
3.308287e+03,0.000000e+00
3.309251e+03,0.000000e+00
3.310215e+03,0.000000e+00
3.311179e+03,0.000000e+00
3.312144e+03,0.000000e+00
3.313108e+03,0.000000e+00
3.314072e+03,0.000000e+00
3.315036e+03,0.000000e+00
3.316000e+03,0.000000e+00
3.316965e+03,0.000000e+00
3.317929e+03,0.000000e+00
3.318893e+03,0.000000e+00
3.319857e+03,0.000000e+00
3.320822e+03,0.000000e+00
3.321786e+03,0.000000e+00
3.322750e+03,0.000000e+00
3.323714e+03,0.000000e+00
3.324678e+03,0.000000e+00
3.325643e+03,0.000000e+00
3.326607e+03,0.000000e+00
3.327571e+03,0.000000e+00
3.328535e+03,0.000000e+00
3.329500e+03,0.000000e+00
3.330464e+03,0.000000e+00
3.331428e+03,0.000000e+00
3.332392e+03,0.000000e+00
3.333357e+03,0.000000e+00
3.334321e+03,0.000000e+00
3.335285e+03,0.000000e+00
3.336249e+03,0.000000e+00
3.337214e+03,0.000000e+00
3.338178e+03,0.000000e+00
3.339142e+03,0.000000e+00
3.340106e+03,0.000000e+00
3.341071e+03,0.000000e+00
3.342035e+03,0.000000e+00
3.342999e+03,0.000000e+00
3.343963e+03,0.000000e+00
3.344927e+03,0.000000e+00
3.345892e+03,0.000000e+00
3.346856e+03,0.000000e+00
3.347820e+03,0.000000e+00
3.348784e+03,0.000000e+00
3.349749e+03,0.000000e+00
3.350713e+03,0.000000e+00
3.351677e+03,0.000000e+00
3.352641e+03,0.000000e+00
3.353605e+03,0.000000e+00
3.354570e+03,0.000000e+00
3.355534e+03,0.000000e+00
3.356498e+03,0.000000e+00
3.357462e+03,0.000000e+00
3.358427e+03,0.000000e+00
3.359391e+03,0.000000e+00
3.360355e+03,0.000000e+00
3.361319e+03,0.000000e+00
3.362284e+03,0.000000e+00
3.363248e+03,0.000000e+00
3.364212e+03,0.000000e+00
3.365176e+03,0.000000e+00
3.366141e+03,0.000000e+00
3.367105e+03,0.000000e+00
3.368069e+03,0.000000e+00
3.369033e+03,0.000000e+00
3.369998e+03,0.000000e+00
3.370962e+03,0.000000e+00
3.371926e+03,0.000000e+00
3.372890e+03,0.000000e+00
3.373854e+03,0.000000e+00
3.374819e+03,0.000000e+00
3.375783e+03,0.000000e+00
3.376747e+03,0.000000e+00
3.377711e+03,0.000000e+00
3.378676e+03,0.000000e+00
3.379640e+03,0.000000e+00
3.380604e+03,0.000000e+00
3.381568e+03,0.000000e+00
3.382532e+03,0.000000e+00
3.383497e+03,0.000000e+00
3.384461e+03,0.000000e+00
3.385425e+03,0.000000e+00
3.386389e+03,0.000000e+00
3.387354e+03,0.000000e+00
3.388318e+03,0.000000e+00
3.389282e+03,0.000000e+00
3.390246e+03,0.000000e+00
3.391211e+03,0.000000e+00
3.392175e+03,0.000000e+00
3.393139e+03,0.000000e+00
3.394103e+03,0.000000e+00
3.395068e+03,0.000000e+00
3.396032e+03,0.000000e+00
3.396996e+03,0.000000e+00
3.397960e+03,0.000000e+00
3.398925e+03,0.000000e+00
3.399889e+03,0.000000e+00
3.400853e+03,0.000000e+00
3.401817e+03,0.000000e+00
3.402781e+03,0.000000e+00
3.403746e+03,0.000000e+00
3.404710e+03,0.000000e+00
3.405674e+03,0.000000e+00
3.406638e+03,0.000000e+00
3.407603e+03,0.000000e+00
3.408567e+03,0.000000e+00
3.409531e+03,0.000000e+00
3.410495e+03,0.000000e+00
3.411459e+03,0.000000e+00
3.412424e+03,0.000000e+00
3.413388e+03,0.000000e+00
3.414352e+03,0.000000e+00
3.415316e+03,0.000000e+00
3.416281e+03,0.000000e+00
3.417245e+03,0.000000e+00
3.418209e+03,0.000000e+00
3.419173e+03,0.000000e+00
3.420138e+03,0.000000e+00
3.421102e+03,0.000000e+00
3.422066e+03,0.000000e+00
3.423030e+03,0.000000e+00
3.423995e+03,0.000000e+00
3.424959e+03,0.000000e+00
3.425923e+03,0.000000e+00
3.426887e+03,0.000000e+00
3.427852e+03,0.000000e+00
3.428816e+03,0.000000e+00
3.429780e+03,0.000000e+00
3.430744e+03,0.000000e+00
3.431708e+03,0.000000e+00
3.432673e+03,0.000000e+00
3.433637e+03,0.000000e+00
3.434601e+03,0.000000e+00
3.435565e+03,0.000000e+00
3.436530e+03,0.000000e+00
3.437494e+03,0.000000e+00
3.438458e+03,0.000000e+00
3.439422e+03,0.000000e+00
3.440386e+03,0.000000e+00
3.441351e+03,0.000000e+00
3.442315e+03,0.000000e+00
3.443279e+03,0.000000e+00
3.444243e+03,0.000000e+00
3.445208e+03,0.000000e+00
3.446172e+03,0.000000e+00
3.447136e+03,0.000000e+00
3.448100e+03,0.000000e+00
3.449065e+03,0.000000e+00
3.450029e+03,0.000000e+00
3.450993e+03,0.000000e+00
3.451957e+03,0.000000e+00
3.452922e+03,0.000000e+00
3.453886e+03,0.000000e+00
3.454850e+03,0.000000e+00
3.455814e+03,0.000000e+00
3.456779e+03,0.000000e+00
3.457743e+03,0.000000e+00
3.458707e+03,0.000000e+00
3.459671e+03,0.000000e+00
3.460635e+03,0.000000e+00
3.461600e+03,0.000000e+00
3.462564e+03,0.000000e+00
3.463528e+03,0.000000e+00
3.464492e+03,0.000000e+00
3.465457e+03,0.000000e+00
3.466421e+03,0.000000e+00
3.467385e+03,0.000000e+00
3.468349e+03,0.000000e+00
3.469313e+03,0.000000e+00
3.470278e+03,0.000000e+00
3.471242e+03,0.000000e+00
3.472206e+03,0.000000e+00
3.473170e+03,0.000000e+00
3.474135e+03,0.000000e+00
3.475099e+03,0.000000e+00
3.476063e+03,0.000000e+00
3.477027e+03,0.000000e+00
3.477992e+03,0.000000e+00
3.478956e+03,0.000000e+00
3.479920e+03,0.000000e+00
3.480884e+03,0.000000e+00
3.481849e+03,0.000000e+00
3.482813e+03,0.000000e+00
3.483777e+03,0.000000e+00
3.484741e+03,0.000000e+00
3.485706e+03,0.000000e+00
3.486670e+03,0.000000e+00
3.487634e+03,0.000000e+00
3.488598e+03,0.000000e+00
3.489563e+03,0.000000e+00
3.490527e+03,0.000000e+00
3.491491e+03,0.000000e+00
3.492455e+03,0.000000e+00
3.493419e+03,0.000000e+00
3.494384e+03,0.000000e+00
3.495348e+03,0.000000e+00
3.496312e+03,0.000000e+00
3.497276e+03,0.000000e+00
3.498240e+03,0.000000e+00
3.499205e+03,0.000000e+00
3.500169e+03,0.000000e+00
