9.931763e+01,0.000000e+00
1.002819e+02,0.000000e+00
1.012461e+02,0.000000e+00
1.022103e+02,0.000000e+00
1.031746e+02,0.000000e+00
1.041388e+02,0.000000e+00
1.051030e+02,0.000000e+00
1.060673e+02,0.000000e+00
1.070315e+02,0.000000e+00
1.079957e+02,0.000000e+00
1.089600e+02,0.000000e+00
1.099242e+02,0.000000e+00
1.108884e+02,0.000000e+00
1.118527e+02,0.000000e+00
1.128169e+02,0.000000e+00
1.137811e+02,0.000000e+00
1.147454e+02,0.000000e+00
1.157096e+02,0.000000e+00
1.166738e+02,0.000000e+00
1.176381e+02,0.000000e+00
1.186023e+02,0.000000e+00
1.195665e+02,0.000000e+00
1.205308e+02,0.000000e+00
1.214950e+02,0.000000e+00
1.224592e+02,0.000000e+00
1.234235e+02,0.000000e+00
1.243877e+02,0.000000e+00
1.253519e+02,0.000000e+00
1.263162e+02,0.000000e+00
1.272804e+02,0.000000e+00
1.282446e+02,0.000000e+00
1.292089e+02,0.000000e+00
1.301731e+02,0.000000e+00
1.311373e+02,0.000000e+00
1.321016e+02,0.000000e+00
1.330658e+02,0.000000e+00
1.340300e+02,0.000000e+00
1.349943e+02,0.000000e+00
1.359585e+02,0.000000e+00
1.369227e+02,0.000000e+00
1.378870e+02,0.000000e+00
1.388512e+02,0.000000e+00
1.398154e+02,0.000000e+00
1.407797e+02,0.000000e+00
1.417439e+02,0.000000e+00
1.427081e+02,0.000000e+00
1.436724e+02,0.000000e+00
1.446366e+02,0.000000e+00
1.456008e+02,0.000000e+00
1.465651e+02,0.000000e+00
1.475293e+02,0.000000e+00
1.484935e+02,0.000000e+00
1.494578e+02,0.000000e+00
1.504220e+02,0.000000e+00
1.513862e+02,0.000000e+00
1.523505e+02,0.000000e+00
1.533147e+02,0.000000e+00
1.542789e+02,0.000000e+00
1.552432e+02,0.000000e+00
1.562074e+02,0.000000e+00
1.571716e+02,0.000000e+00
1.581359e+02,0.000000e+00
1.591001e+02,0.000000e+00
1.600643e+02,0.000000e+00
1.610286e+02,0.000000e+00
1.619928e+02,0.000000e+00
1.629570e+02,0.000000e+00
1.639213e+02,0.000000e+00
1.648855e+02,0.000000e+00
1.658497e+02,0.000000e+00
1.668140e+02,0.000000e+00
1.677782e+02,0.000000e+00
1.687424e+02,0.000000e+00
1.697067e+02,0.000000e+00
1.706709e+02,0.000000e+00
1.716351e+02,0.000000e+00
1.725994e+02,0.000000e+00
1.735636e+02,0.000000e+00
1.745278e+02,0.000000e+00
1.754921e+02,0.000000e+00
1.764563e+02,0.000000e+00
1.774205e+02,0.000000e+00
1.783848e+02,0.000000e+00
1.793490e+02,0.000000e+00
1.803132e+02,0.000000e+00
1.812775e+02,0.000000e+00
1.822417e+02,0.000000e+00
1.832059e+02,0.000000e+00
1.841702e+02,0.000000e+00
1.851344e+02,0.000000e+00
1.860986e+02,0.000000e+00
1.870629e+02,0.000000e+00
1.880271e+02,0.000000e+00
1.889913e+02,0.000000e+00
1.899556e+02,0.000000e+00
1.909198e+02,0.000000e+00
1.918840e+02,0.000000e+00
1.928483e+02,0.000000e+00
1.938125e+02,0.000000e+00
1.947767e+02,0.000000e+00
1.957410e+02,0.000000e+00
1.967052e+02,0.000000e+00
1.976694e+02,0.000000e+00
1.986337e+02,0.000000e+00
1.995979e+02,2.819648e+03
2.005621e+02,2.812817e+03
2.015264e+02,2.807136e+03
2.024906e+02,2.800426e+03
2.034548e+02,2.796995e+03
2.044191e+02,2.799610e+03
2.053833e+02,2.806475e+03
2.063475e+02,2.812750e+03
2.073118e+02,2.813403e+03
2.082760e+02,2.806669e+03
2.092402e+02,2.799586e+03
2.102045e+02,2.793617e+03
2.111687e+02,2.788890e+03
2.121329e+02,2.784815e+03
2.130972e+02,2.780156e+03
2.140614e+02,2.775620e+03
2.150256e+02,2.774870e+03
2.159899e+02,2.781938e+03
2.169541e+02,2.787657e+03
2.179183e+02,2.788747e+03
2.188826e+02,2.785605e+03
2.198468e+02,2.780840e+03
2.208110e+02,2.774821e+03
2.217753e+02,2.767326e+03
2.227395e+02,2.762044e+03
2.237037e+02,2.763817e+03
2.246680e+02,2.767549e+03
2.256322e+02,2.767934e+03
2.265964e+02,2.764228e+03
2.275607e+02,2.758811e+03
2.285249e+02,2.753004e+03
2.294892e+02,2.746325e+03
2.304534e+02,2.741993e+03
2.314176e+02,2.742696e+03
2.323819e+02,2.746765e+03
2.333461e+02,2.749298e+03
2.343103e+02,2.748186e+03
2.352746e+02,2.745338e+03
2.362388e+02,2.744005e+03
2.372030e+02,2.745008e+03
2.381673e+02,2.745336e+03
2.391315e+02,2.741114e+03
2.400957e+02,2.730695e+03
2.410600e+02,2.720949e+03
2.420242e+02,2.715051e+03
2.429884e+02,2.713149e+03
2.439527e+02,2.713985e+03
2.449169e+02,2.716481e+03
2.458811e+02,2.720454e+03
2.468454e+02,2.721695e+03
2.478096e+02,2.717743e+03
2.487738e+02,2.712936e+03
2.497381e+02,2.710301e+03
2.507023e+02,2.710438e+03
2.516665e+02,2.712037e+03
2.526308e+02,2.712764e+03
2.535950e+02,2.709572e+03
2.545592e+02,2.706856e+03
2.555235e+02,2.707542e+03
2.564877e+02,2.708882e+03
2.574519e+02,2.707292e+03
2.584161e+02,2.700382e+03
2.593804e+02,2.689397e+03
2.603446e+02,2.683499e+03
2.613088e+02,2.686810e+03
2.622731e+02,2.690536e+03
2.632373e+02,2.692719e+03
2.642015e+02,2.692484e+03
2.651658e+02,2.689870e+03
2.661300e+02,2.684494e+03
2.670942e+02,2.676179e+03
2.680585e+02,2.671147e+03
2.690227e+02,2.674493e+03
2.699869e+02,2.679487e+03
2.709512e+02,2.681037e+03
2.719154e+02,2.677573e+03
2.728796e+02,2.672128e+03
2.738439e+02,2.668687e+03
2.748081e+02,2.668213e+03
2.757723e+02,2.669414e+03
2.767366e+02,2.669811e+03
2.777008e+02,2.668442e+03
2.786650e+02,2.665795e+03
2.796293e+02,2.662086e+03
2.805935e+02,2.658320e+03
2.815577e+02,2.655454e+03
2.825220e+02,2.653364e+03
2.834862e+02,2.651679e+03
2.844504e+02,2.650522e+03
2.854147e+02,2.652091e+03
2.863789e+02,2.652232e+03
2.873431e+02,2.649845e+03
2.883074e+02,2.646052e+03
2.892716e+02,2.642300e+03
2.902358e+02,2.638944e+03
2.912001e+02,2.635640e+03
2.921643e+02,2.630917e+03
2.931285e+02,2.621905e+03
2.940928e+02,2.615151e+03
2.950570e+02,2.614730e+03
2.960212e+02,2.619549e+03
2.969855e+02,2.624701e+03
2.979497e+02,2.624864e+03
2.989139e+02,2.618272e+03
2.998782e+02,2.612427e+03
3.008424e+02,2.609068e+03
3.018066e+02,2.607245e+03
3.027709e+02,2.605612e+03
3.037351e+02,2.603361e+03
3.046993e+02,2.600247e+03
3.056636e+02,2.596087e+03
3.066278e+02,2.590543e+03
3.075920e+02,2.586079e+03
3.085563e+02,2.584234e+03
3.095205e+02,2.584754e+03
3.104847e+02,2.585994e+03
3.114490e+02,2.585852e+03
3.124132e+02,2.585064e+03
3.133774e+02,2.586731e+03
3.143417e+02,2.592435e+03
3.153059e+02,2.597271e+03
3.162701e+02,2.594984e+03
3.172344e+02,2.583929e+03
3.181986e+02,2.573990e+03
3.191628e+02,2.568558e+03
3.201271e+02,2.566464e+03
3.210913e+02,2.565499e+03
3.220555e+02,2.564659e+03
3.230198e+02,2.563709e+03
3.239840e+02,2.562224e+03
3.249482e+02,2.557647e+03
3.259125e+02,2.554714e+03
3.268767e+02,2.556677e+03
3.278409e+02,2.562129e+03
3.288052e+02,2.566930e+03
3.297694e+02,2.567050e+03
3.307336e+02,2.561439e+03
3.316979e+02,2.556479e+03
3.326621e+02,2.553322e+03
3.336263e+02,2.549493e+03
3.345906e+02,2.543340e+03
3.355548e+02,2.535104e+03
3.365190e+02,2.528237e+03
3.374833e+02,2.526679e+03
3.384475e+02,2.530764e+03
3.394117e+02,2.535219e+03
3.403760e+02,2.537797e+03
3.413402e+02,2.538803e+03
3.423044e+02,2.539139e+03
3.432687e+02,2.538719e+03
3.442329e+02,2.537557e+03
3.451971e+02,2.534693e+03
3.461614e+02,2.529456e+03
3.471256e+02,2.523341e+03
3.480898e+02,2.518375e+03
3.490541e+02,2.515576e+03
3.500183e+02,2.514083e+03
3.509825e+02,2.518449e+03
3.519468e+02,2.522812e+03
3.529110e+02,2.520246e+03
3.538752e+02,2.508671e+03
3.548395e+02,2.493629e+03
3.558037e+02,2.486001e+03
3.567680e+02,2.491771e+03
3.577322e+02,2.495633e+03
3.586964e+02,2.496083e+03
3.596607e+02,2.494920e+03
3.606249e+02,2.493270e+03
3.615891e+02,2.490223e+03
3.625534e+02,2.485846e+03
3.635176e+02,2.482467e+03
3.644818e+02,2.481698e+03
3.654461e+02,2.480860e+03
3.664103e+02,2.478907e+03
3.673745e+02,2.477180e+03
3.683388e+02,2.476845e+03
3.693030e+02,2.476769e+03
3.702672e+02,2.476959e+03
3.712315e+02,2.478692e+03
3.721957e+02,2.482374e+03
3.731599e+02,2.485582e+03
3.741242e+02,2.485379e+03
3.750884e+02,2.479237e+03
3.760526e+02,2.475633e+03
3.770169e+02,2.477502e+03
3.779811e+02,2.480953e+03
3.789453e+02,2.481122e+03
3.799096e+02,2.475363e+03
3.808738e+02,2.464757e+03
3.818380e+02,2.453837e+03
3.828023e+02,2.441871e+03
3.837665e+02,2.433049e+03
3.847307e+02,2.428770e+03
3.856950e+02,2.427962e+03
3.866592e+02,2.428067e+03
3.876234e+02,2.428587e+03
3.885877e+02,2.428807e+03
3.895519e+02,2.426087e+03
3.905161e+02,2.418535e+03
3.914804e+02,2.410388e+03
3.924446e+02,2.407555e+03
3.934088e+02,2.412162e+03
3.943731e+02,2.414884e+03
3.953373e+02,2.412010e+03
3.963015e+02,2.405895e+03
3.972658e+02,2.399366e+03
3.982300e+02,2.393512e+03
3.991942e+02,2.389609e+03
4.001585e+02,2.389334e+03
4.011227e+02,2.395841e+03
4.020869e+02,2.400754e+03
4.030512e+02,2.402300e+03
4.040154e+02,2.400719e+03
4.049796e+02,2.397043e+03
4.059439e+02,2.390497e+03
4.069081e+02,2.382378e+03
4.078723e+02,2.378098e+03
4.088366e+02,2.378555e+03
4.098008e+02,2.379565e+03
4.107650e+02,2.380048e+03
4.117293e+02,2.380305e+03
4.126935e+02,2.380041e+03
4.136577e+02,2.379332e+03
4.146220e+02,2.377911e+03
4.155862e+02,2.374935e+03
4.165504e+02,2.370107e+03
4.175147e+02,2.365139e+03
4.184789e+02,2.362643e+03
4.194431e+02,2.365687e+03
4.204074e+02,2.367409e+03
4.213716e+02,2.367615e+03
4.223358e+02,2.366445e+03
4.233001e+02,2.363744e+03
4.242643e+02,2.359297e+03
4.252285e+02,2.354381e+03
4.261928e+02,2.351635e+03
4.271570e+02,2.351709e+03
4.281212e+02,2.353138e+03
4.290855e+02,2.356401e+03
4.300497e+02,2.360151e+03
4.310139e+02,2.361621e+03
4.319782e+02,2.359347e+03
4.329424e+02,2.355256e+03
4.339066e+02,2.350935e+03
4.348709e+02,2.346218e+03
4.358351e+02,2.341026e+03
4.367993e+02,2.335315e+03
4.377636e+02,2.328735e+03
4.387278e+02,2.323055e+03
4.396920e+02,2.318604e+03
4.406563e+02,2.315361e+03
4.416205e+02,2.313058e+03
4.425847e+02,2.311516e+03
4.435490e+02,2.310722e+03
4.445132e+02,2.311219e+03
4.454774e+02,2.313679e+03
4.464417e+02,2.315961e+03
4.474059e+02,2.317550e+03
4.483701e+02,2.317865e+03
4.493344e+02,2.316618e+03
4.502986e+02,2.313281e+03
4.512628e+02,2.309730e+03
4.522271e+02,2.306765e+03
4.531913e+02,2.304471e+03
4.541555e+02,2.303405e+03
4.551198e+02,2.304271e+03
4.560840e+02,2.307195e+03
4.570482e+02,2.306568e+03
4.580125e+02,2.301444e+03
4.589767e+02,2.295853e+03
4.599409e+02,2.288728e+03
4.609052e+02,2.280536e+03
4.618694e+02,2.274274e+03
4.628336e+02,2.274764e+03
4.637979e+02,2.281162e+03
4.647621e+02,2.283467e+03
4.657263e+02,2.280306e+03
4.666906e+02,2.275234e+03
4.676548e+02,2.270583e+03
4.686190e+02,2.265837e+03
4.695833e+02,2.261601e+03
4.705475e+02,2.257997e+03
4.715117e+02,2.254698e+03
4.724760e+02,2.251160e+03
4.734402e+02,2.247241e+03
4.744044e+02,2.243946e+03
4.753687e+02,2.243597e+03
4.763329e+02,2.249004e+03
4.772971e+02,2.253195e+03
4.782614e+02,2.254615e+03
4.792256e+02,2.254672e+03
4.801898e+02,2.255041e+03
4.811541e+02,2.257145e+03
4.821183e+02,2.258723e+03
4.830826e+02,2.255076e+03
4.840468e+02,2.245593e+03
4.850110e+02,2.237919e+03
4.859753e+02,2.237933e+03
4.869395e+02,2.246163e+03
4.879037e+02,2.250502e+03
4.888680e+02,2.250150e+03
4.898322e+02,2.247313e+03
4.907964e+02,2.241491e+03
4.917607e+02,2.233783e+03
4.927249e+02,2.227603e+03
4.936891e+02,2.227665e+03
4.946534e+02,2.234516e+03
4.956176e+02,2.236637e+03
4.965818e+02,2.230218e+03
4.975461e+02,2.222219e+03
4.985103e+02,2.218652e+03
4.994745e+02,2.220382e+03
5.004388e+02,2.220833e+03
5.014030e+02,2.217013e+03
5.023672e+02,2.210862e+03
5.033315e+02,2.204613e+03
5.042957e+02,2.198607e+03
5.052599e+02,2.193682e+03
5.062242e+02,2.192730e+03
5.071884e+02,2.201165e+03
5.081526e+02,2.206235e+03
5.091169e+02,2.205347e+03
5.100811e+02,2.201609e+03
5.110453e+02,2.198048e+03
5.120095e+02,2.196138e+03
5.129738e+02,2.195077e+03
5.139380e+02,2.193474e+03
5.149022e+02,2.191427e+03
5.158665e+02,2.190456e+03
5.168307e+02,2.191329e+03
5.177949e+02,2.192825e+03
5.187592e+02,2.190066e+03
5.197234e+02,2.182632e+03
5.206876e+02,2.175271e+03
5.216519e+02,2.169079e+03
5.226161e+02,2.164569e+03
5.235803e+02,2.162220e+03
5.245446e+02,2.164112e+03
5.255088e+02,2.169226e+03
5.264730e+02,2.169773e+03
5.274373e+02,2.163373e+03
5.284015e+02,2.156211e+03
5.293657e+02,2.154187e+03
5.303300e+02,2.158203e+03
5.312942e+02,2.159481e+03
5.322584e+02,2.154829e+03
5.332227e+02,2.149065e+03
5.341869e+02,2.146839e+03
5.351511e+02,2.148555e+03
5.361154e+02,2.150523e+03
5.370796e+02,2.146992e+03
5.380438e+02,2.135701e+03
5.390081e+02,2.129610e+03
5.399723e+02,2.136169e+03
5.409365e+02,2.145658e+03
5.419008e+02,2.148110e+03
5.428650e+02,2.138947e+03
5.438292e+02,2.128195e+03
5.447935e+02,2.118794e+03
5.457577e+02,2.111847e+03
5.467219e+02,2.110880e+03
5.476862e+02,2.118245e+03
5.486504e+02,2.130174e+03
5.496146e+02,2.135421e+03
5.505789e+02,2.130150e+03
5.515431e+02,2.123623e+03
5.525073e+02,2.117532e+03
5.534716e+02,2.112983e+03
5.544358e+02,2.110503e+03
5.554000e+02,2.111033e+03
5.563643e+02,2.111910e+03
5.573285e+02,2.109407e+03
5.582927e+02,2.103943e+03
5.592570e+02,2.100345e+03
5.602212e+02,2.102568e+03
5.611854e+02,2.110353e+03
5.621497e+02,2.114500e+03
5.631139e+02,2.112487e+03
5.640781e+02,2.107853e+03
5.650424e+02,2.101102e+03
5.660066e+02,2.093085e+03
5.669708e+02,2.085667e+03
5.679351e+02,2.078180e+03
5.688993e+02,2.072827e+03
5.698635e+02,2.075246e+03
5.708278e+02,2.086569e+03
5.717920e+02,2.098982e+03
5.727562e+02,2.104945e+03
5.737205e+02,2.101994e+03
5.746847e+02,2.098844e+03
5.756489e+02,2.095013e+03
5.766132e+02,2.090834e+03
5.775774e+02,2.085835e+03
5.785416e+02,2.080271e+03
5.795059e+02,2.076780e+03
5.804701e+02,2.079955e+03
5.814343e+02,2.087166e+03
5.823986e+02,2.089761e+03
5.833628e+02,2.085869e+03
5.843270e+02,2.078578e+03
5.852913e+02,2.071633e+03
5.862555e+02,2.062627e+03
5.872197e+02,2.057925e+03
5.881840e+02,2.060874e+03
5.891482e+02,2.065605e+03
5.901124e+02,2.066985e+03
5.910767e+02,2.063137e+03
5.920409e+02,2.058665e+03
5.930051e+02,2.058938e+03
5.939694e+02,2.062795e+03
5.949336e+02,2.064213e+03
5.958978e+02,2.060752e+03
5.968621e+02,2.054822e+03
5.978263e+02,2.052166e+03
5.987905e+02,2.059687e+03
5.997548e+02,2.062910e+03
6.007190e+02,2.057834e+03
6.016832e+02,2.049324e+03
6.026475e+02,2.042355e+03
6.036117e+02,2.037942e+03
6.045759e+02,2.036025e+03
6.055402e+02,2.037982e+03
6.065044e+02,2.043004e+03
6.074686e+02,2.046329e+03
6.084329e+02,2.046097e+03
6.093971e+02,2.043151e+03
6.103613e+02,2.040672e+03
6.113256e+02,2.040084e+03
6.122899e+02,2.038628e+03
6.132541e+02,2.035357e+03
6.142183e+02,2.030878e+03
6.151826e+02,2.026380e+03
6.161468e+02,2.022717e+03
6.171110e+02,2.019957e+03
6.180753e+02,2.017197e+03
6.190395e+02,2.014436e+03
6.200037e+02,2.013693e+03
6.209680e+02,2.016846e+03
6.219322e+02,2.023809e+03
6.228964e+02,2.026913e+03
6.238607e+02,2.021976e+03
6.248249e+02,2.017120e+03
6.257891e+02,2.014468e+03
6.267534e+02,2.013002e+03
6.277176e+02,2.010880e+03
6.286818e+02,2.007304e+03
6.296461e+02,2.003817e+03
6.306103e+02,2.001999e+03
6.315745e+02,2.001902e+03
6.325388e+02,2.002646e+03
6.335030e+02,2.003491e+03
6.344672e+02,2.004173e+03
6.354315e+02,2.003257e+03
6.363957e+02,1.998873e+03
6.373599e+02,1.993987e+03
6.383242e+02,1.990798e+03
6.392884e+02,1.989335e+03
6.402526e+02,1.987541e+03
6.412169e+02,1.983996e+03
6.421811e+02,1.980176e+03
6.431453e+02,1.977539e+03
6.441096e+02,1.976085e+03
6.450738e+02,1.975021e+03
6.460380e+02,1.973728e+03
6.470023e+02,1.972594e+03
6.479665e+02,1.973354e+03
6.489307e+02,1.976985e+03
6.498950e+02,1.980027e+03
6.508592e+02,1.978461e+03
6.518234e+02,1.971442e+03
6.527877e+02,1.966850e+03
6.537519e+02,1.969033e+03
6.547161e+02,1.972126e+03
6.556804e+02,1.971284e+03
6.566446e+02,1.966423e+03
6.576088e+02,1.961262e+03
6.585731e+02,1.959248e+03
6.595373e+02,1.959926e+03
6.605015e+02,1.961180e+03
6.614658e+02,1.963529e+03
6.624300e+02,1.964590e+03
6.633942e+02,1.961616e+03
6.643585e+02,1.951875e+03
6.653227e+02,1.944799e+03
6.662869e+02,1.940138e+03
6.672512e+02,1.937639e+03
6.682154e+02,1.938025e+03
6.691796e+02,1.941010e+03
6.701439e+02,1.943842e+03
6.711081e+02,1.944411e+03
6.720723e+02,1.943558e+03
6.730366e+02,1.943168e+03
6.740008e+02,1.943772e+03
6.749650e+02,1.944829e+03
6.759293e+02,1.946420e+03
6.768935e+02,1.950754e+03
6.778577e+02,1.949792e+03
6.788220e+02,1.937757e+03
6.797862e+02,1.925879e+03
6.807504e+02,1.921594e+03
6.817147e+02,1.926146e+03
6.826789e+02,1.930057e+03
6.836431e+02,1.929119e+03
6.846074e+02,1.925348e+03
6.855716e+02,1.920872e+03
6.865358e+02,1.916576e+03
6.875001e+02,1.913309e+03
6.884643e+02,1.911982e+03
6.894285e+02,1.912662e+03
6.903928e+02,1.914835e+03
6.913570e+02,1.919682e+03
6.923212e+02,1.923485e+03
6.932855e+02,1.921966e+03
6.942497e+02,1.910890e+03
6.952139e+02,1.904800e+03
6.961782e+02,1.907101e+03
6.971424e+02,1.911805e+03
6.981066e+02,1.914504e+03
6.990709e+02,1.913625e+03
7.000351e+02,1.910862e+03
7.009993e+02,1.908418e+03
7.019636e+02,1.906389e+03
7.029278e+02,1.903854e+03
7.038920e+02,1.900493e+03
7.048563e+02,1.896073e+03
7.058205e+02,1.890338e+03
7.067847e+02,1.882923e+03
7.077490e+02,1.878122e+03
7.087132e+02,1.877201e+03
7.096774e+02,1.879771e+03
7.106417e+02,1.884736e+03
7.116059e+02,1.892900e+03
7.125701e+02,1.897985e+03
7.135344e+02,1.896449e+03
7.144986e+02,1.892927e+03
7.154628e+02,1.891179e+03
7.164271e+02,1.891635e+03
7.173913e+02,1.892639e+03
7.183555e+02,1.893864e+03
7.193198e+02,1.894597e+03
7.202840e+02,1.890251e+03
7.212482e+02,1.879194e+03
7.222125e+02,1.868571e+03
7.231767e+02,1.866336e+03
7.241409e+02,1.877119e+03
7.251052e+02,1.881755e+03
7.260694e+02,1.873006e+03
7.270336e+02,1.863680e+03
7.279979e+02,1.862257e+03
7.289621e+02,1.869654e+03
7.299263e+02,1.875502e+03
7.308906e+02,1.874494e+03
7.318548e+02,1.869884e+03
7.328190e+02,1.864472e+03
7.337833e+02,1.858933e+03
7.347475e+02,1.854322e+03
7.357117e+02,1.852809e+03
7.366760e+02,1.854315e+03
7.376402e+02,1.853609e+03
7.386044e+02,1.849175e+03
7.395687e+02,1.846586e+03
7.405329e+02,1.851481e+03
7.414971e+02,1.867667e+03
7.424614e+02,1.874443e+03
7.434256e+02,1.863660e+03
7.443898e+02,1.853364e+03
7.453541e+02,1.852587e+03
7.463183e+02,1.859906e+03
7.472825e+02,1.865437e+03
7.482468e+02,1.863765e+03
7.492110e+02,1.858884e+03
7.501752e+02,1.856714e+03
7.511395e+02,1.857484e+03
7.521037e+02,1.856031e+03
7.530679e+02,1.843976e+03
7.540322e+02,1.823505e+03
7.549964e+02,1.816820e+03
7.559606e+02,1.828039e+03
7.569249e+02,1.840381e+03
7.578891e+02,1.842904e+03
7.588533e+02,1.835144e+03
7.598176e+02,1.831271e+03
7.607818e+02,1.833691e+03
7.617460e+02,1.834461e+03
7.627103e+02,1.830060e+03
7.636745e+02,1.822875e+03
7.646387e+02,1.818495e+03
7.656030e+02,1.820111e+03
7.665672e+02,1.824448e+03
7.675314e+02,1.830000e+03
7.684957e+02,1.834590e+03
7.694599e+02,1.834693e+03
7.704241e+02,1.828191e+03
7.713884e+02,1.818013e+03
7.723526e+02,1.809965e+03
7.733168e+02,1.804271e+03
7.742811e+02,1.802943e+03
7.752453e+02,1.807026e+03
7.762095e+02,1.814758e+03
7.771738e+02,1.819700e+03
7.781380e+02,1.820083e+03
7.791022e+02,1.818292e+03
7.800665e+02,1.814590e+03
7.810307e+02,1.810031e+03
7.819949e+02,1.806083e+03
7.829592e+02,1.803996e+03
7.839234e+02,1.802878e+03
7.848876e+02,1.802098e+03
7.858519e+02,1.801428e+03
7.868161e+02,1.800652e+03
7.877803e+02,1.799515e+03
7.887446e+02,1.798690e+03
7.897088e+02,1.800545e+03
7.906730e+02,1.805133e+03
7.916373e+02,1.808073e+03
7.926015e+02,1.806824e+03
7.935657e+02,1.802349e+03
7.945300e+02,1.799163e+03
7.954942e+02,1.799579e+03
7.964584e+02,1.797210e+03
7.974227e+02,1.790770e+03
7.983869e+02,1.784189e+03
7.993511e+02,1.779887e+03
8.003154e+02,1.776327e+03
8.012796e+02,1.774544e+03
8.022438e+02,1.779203e+03
8.032081e+02,1.784479e+03
8.041723e+02,1.783885e+03
8.051365e+02,1.775439e+03
8.061008e+02,1.767549e+03
8.070650e+02,1.767596e+03
8.080292e+02,1.771367e+03
8.089935e+02,1.772704e+03
8.099577e+02,1.771107e+03
8.109219e+02,1.768385e+03
8.118862e+02,1.765558e+03
8.128504e+02,1.762672e+03
8.138146e+02,1.761839e+03
8.147789e+02,1.763508e+03
8.157431e+02,1.765179e+03
8.167073e+02,1.765159e+03
8.176716e+02,1.763958e+03
8.186358e+02,1.763648e+03
8.196000e+02,1.765660e+03
8.205643e+02,1.766960e+03
8.215285e+02,1.764787e+03
8.224927e+02,1.759537e+03
8.234570e+02,1.755283e+03
8.244212e+02,1.753609e+03
8.253854e+02,1.752859e+03
8.263497e+02,1.752089e+03
8.273139e+02,1.750651e+03
8.282781e+02,1.748297e+03
8.292424e+02,1.745168e+03
8.302066e+02,1.742371e+03
8.311708e+02,1.740602e+03
8.321351e+02,1.739871e+03
8.330993e+02,1.740322e+03
8.340635e+02,1.741756e+03
8.350278e+02,1.743924e+03
8.359920e+02,1.747647e+03
8.369562e+02,1.754061e+03
8.379205e+02,1.755852e+03
8.388847e+02,1.748402e+03
8.398489e+02,1.736274e+03
8.408132e+02,1.730939e+03
8.417774e+02,1.738562e+03
8.427416e+02,1.743636e+03
8.437059e+02,1.744315e+03
8.446701e+02,1.742018e+03
8.456343e+02,1.738096e+03
8.465986e+02,1.731302e+03
8.475628e+02,1.725311e+03
8.485270e+02,1.719963e+03
8.494913e+02,1.716670e+03
8.504555e+02,1.718761e+03
8.514197e+02,1.727389e+03
8.523840e+02,1.734573e+03
8.533482e+02,1.729842e+03
8.543124e+02,1.719526e+03
8.552767e+02,1.717108e+03
8.562409e+02,1.724090e+03
8.572051e+02,1.731923e+03
8.581694e+02,1.731313e+03
8.591336e+02,1.723367e+03
8.600978e+02,1.718927e+03
8.610621e+02,1.719378e+03
8.620263e+02,1.720140e+03
8.629905e+02,1.717151e+03
8.639548e+02,1.709519e+03
8.649190e+02,1.702848e+03
8.658832e+02,1.696765e+03
8.668475e+02,1.693809e+03
8.678117e+02,1.697121e+03
8.687759e+02,1.705048e+03
8.697402e+02,1.709920e+03
8.707044e+02,1.707139e+03
8.716686e+02,1.703836e+03
8.726329e+02,1.703906e+03
8.735971e+02,1.706254e+03
8.745613e+02,1.707991e+03
8.755256e+02,1.708361e+03
8.764898e+02,1.708576e+03
8.774540e+02,1.708732e+03
8.784183e+02,1.708751e+03
8.793825e+02,1.708708e+03
8.803467e+02,1.708567e+03
8.813110e+02,1.708456e+03
8.822752e+02,1.708806e+03
8.832394e+02,1.709884e+03
8.842037e+02,1.711983e+03
8.851679e+02,1.714931e+03
8.861321e+02,1.716335e+03
8.870964e+02,1.712208e+03
8.880606e+02,1.702048e+03
8.890248e+02,1.694214e+03
8.899891e+02,1.690287e+03
8.909533e+02,1.689075e+03
8.919175e+02,1.689487e+03
8.928818e+02,1.692150e+03
8.938460e+02,1.693342e+03
8.948102e+02,1.691124e+03
8.957745e+02,1.688668e+03
8.967387e+02,1.688672e+03
8.977029e+02,1.690591e+03
8.986672e+02,1.689972e+03
8.996314e+02,1.684855e+03
9.005956e+02,1.680629e+03
9.015599e+02,1.679805e+03
9.025241e+02,1.681154e+03
9.034883e+02,1.681849e+03
9.044526e+02,1.680141e+03
9.054168e+02,1.677325e+03
9.063810e+02,1.675824e+03
9.073453e+02,1.675405e+03
9.083095e+02,1.673828e+03
9.092737e+02,1.668932e+03
9.102380e+02,1.663306e+03
9.112022e+02,1.660285e+03
9.121664e+02,1.658916e+03
9.131307e+02,1.657068e+03
9.140949e+02,1.654638e+03
9.150591e+02,1.653199e+03
9.160234e+02,1.654210e+03
9.169876e+02,1.656454e+03
9.179518e+02,1.656900e+03
9.189161e+02,1.655077e+03
9.198803e+02,1.652165e+03
9.208445e+02,1.649898e+03
9.218088e+02,1.648928e+03
9.227730e+02,1.647782e+03
9.237372e+02,1.645791e+03
9.247015e+02,1.643810e+03
9.256657e+02,1.642051e+03
9.266299e+02,1.640308e+03
9.275942e+02,1.641451e+03
9.285584e+02,1.649434e+03
9.295226e+02,1.654813e+03
9.304869e+02,1.652447e+03
9.314511e+02,1.645098e+03
9.324153e+02,1.640884e+03
9.333796e+02,1.642307e+03
9.343438e+02,1.644619e+03
9.353080e+02,1.648560e+03
9.362723e+02,1.651110e+03
9.372365e+02,1.648468e+03
9.382007e+02,1.636968e+03
9.391650e+02,1.627247e+03
9.401292e+02,1.624432e+03
9.410934e+02,1.625616e+03
9.420577e+02,1.628120e+03
9.430219e+02,1.631328e+03
9.439861e+02,1.632166e+03
9.449504e+02,1.626107e+03
9.459146e+02,1.618597e+03
9.468788e+02,1.617192e+03
9.478431e+02,1.621331e+03
9.488073e+02,1.624551e+03
9.497715e+02,1.620898e+03
9.507358e+02,1.613730e+03
9.517000e+02,1.610201e+03
9.526642e+02,1.610776e+03
9.536285e+02,1.612993e+03
9.545927e+02,1.615499e+03
9.555569e+02,1.617760e+03
9.565212e+02,1.617691e+03
9.574854e+02,1.615770e+03
9.584496e+02,1.615167e+03
9.594139e+02,1.616885e+03
9.603781e+02,1.618967e+03
9.613423e+02,1.616657e+03
9.623066e+02,1.608289e+03
9.632708e+02,1.604484e+03
9.642350e+02,1.609701e+03
9.651993e+02,1.617847e+03
9.661635e+02,1.619401e+03
9.671277e+02,1.609255e+03
9.680920e+02,1.603730e+03
9.690562e+02,1.606451e+03
9.700204e+02,1.609864e+03
9.709847e+02,1.608610e+03
9.719489e+02,1.602078e+03
9.729131e+02,1.596745e+03
9.738774e+02,1.591424e+03
9.748416e+02,1.589200e+03
9.758058e+02,1.592230e+03
9.767701e+02,1.599008e+03
9.777343e+02,1.604072e+03
9.786985e+02,1.605875e+03
9.796628e+02,1.606282e+03
9.806270e+02,1.606716e+03
9.815912e+02,1.606229e+03
9.825555e+02,1.603165e+03
9.835197e+02,1.594875e+03
9.844839e+02,1.588501e+03
9.854482e+02,1.589244e+03
9.864124e+02,1.592628e+03
9.873766e+02,1.592522e+03
9.883409e+02,1.586975e+03
9.893051e+02,1.582810e+03
9.902693e+02,1.587090e+03
9.912336e+02,1.593372e+03
9.921978e+02,1.593029e+03
9.931620e+02,1.585444e+03
9.941263e+02,1.577859e+03
9.950905e+02,1.576233e+03
9.960547e+02,1.577233e+03
9.970190e+02,1.576215e+03
9.979832e+02,1.573609e+03
9.989474e+02,1.572530e+03
9.999117e+02,1.577131e+03
1.000876e+03,1.582794e+03
1.001840e+03,1.580853e+03
1.002804e+03,1.573796e+03
1.003769e+03,1.568883e+03
1.004733e+03,1.568529e+03
1.005697e+03,1.569710e+03
1.006661e+03,1.567786e+03
1.007626e+03,1.563771e+03
1.008590e+03,1.561990e+03
1.009554e+03,1.562938e+03
1.010518e+03,1.564351e+03
1.011482e+03,1.564283e+03
1.012447e+03,1.562814e+03
1.013411e+03,1.560688e+03
1.014375e+03,1.558623e+03
1.015339e+03,1.557203e+03
1.016304e+03,1.555939e+03
1.017268e+03,1.555099e+03
1.018232e+03,1.558816e+03
1.019196e+03,1.568062e+03
1.020161e+03,1.571944e+03
1.021125e+03,1.564988e+03
1.022089e+03,1.552385e+03
1.023053e+03,1.547272e+03
1.024018e+03,1.550948e+03
1.024982e+03,1.552300e+03
1.025946e+03,1.547763e+03
1.026910e+03,1.541597e+03
1.027875e+03,1.541173e+03
1.028839e+03,1.550457e+03
1.029803e+03,1.553248e+03
1.030767e+03,1.545987e+03
1.031731e+03,1.538443e+03
1.032696e+03,1.537582e+03
1.033660e+03,1.543602e+03
1.034624e+03,1.547679e+03
1.035588e+03,1.549973e+03
1.036552e+03,1.551075e+03
1.037517e+03,1.550189e+03
1.038481e+03,1.547585e+03
1.039445e+03,1.546037e+03
1.040409e+03,1.546832e+03
1.041374e+03,1.546630e+03
1.042338e+03,1.544233e+03
1.043302e+03,1.541662e+03
1.044266e+03,1.541432e+03
1.045231e+03,1.547525e+03
1.046195e+03,1.548230e+03
1.047159e+03,1.537884e+03
1.048123e+03,1.527603e+03
1.049088e+03,1.525523e+03
1.050052e+03,1.533411e+03
1.051016e+03,1.539309e+03
1.051980e+03,1.543036e+03
1.052945e+03,1.544590e+03
1.053909e+03,1.542141e+03
1.054873e+03,1.536149e+03
1.055837e+03,1.531020e+03
1.056802e+03,1.528547e+03
1.057766e+03,1.526121e+03
1.058730e+03,1.523168e+03
1.059694e+03,1.520396e+03
1.060658e+03,1.518354e+03
1.061623e+03,1.517220e+03
1.062587e+03,1.517383e+03
1.063551e+03,1.521385e+03
1.064515e+03,1.524933e+03
1.065479e+03,1.524215e+03
1.066444e+03,1.519003e+03
1.067408e+03,1.514765e+03
1.068372e+03,1.510285e+03
1.069336e+03,1.508911e+03
1.070301e+03,1.513883e+03
1.071265e+03,1.522459e+03
1.072229e+03,1.527373e+03
1.073193e+03,1.524948e+03
1.074158e+03,1.521607e+03
1.075122e+03,1.518221e+03
1.076086e+03,1.515278e+03
1.077050e+03,1.513817e+03
1.078015e+03,1.515971e+03
1.078979e+03,1.517413e+03
1.079943e+03,1.515165e+03
1.080907e+03,1.513047e+03
1.081872e+03,1.512798e+03
1.082836e+03,1.514214e+03
1.083800e+03,1.518197e+03
1.084764e+03,1.530380e+03
1.085729e+03,1.540442e+03
1.086693e+03,1.542550e+03
1.087657e+03,1.538609e+03
1.088621e+03,1.534381e+03
1.089585e+03,1.528872e+03
1.090550e+03,1.525126e+03
1.091514e+03,1.525717e+03
1.092478e+03,1.528704e+03
1.093442e+03,1.532332e+03
1.094406e+03,1.538096e+03
1.095371e+03,1.539734e+03
1.096335e+03,1.530547e+03
1.097299e+03,1.520814e+03
1.098263e+03,1.518553e+03
1.099228e+03,1.523382e+03
1.100192e+03,1.524279e+03
1.101156e+03,1.514895e+03
1.102120e+03,1.505696e+03
1.103085e+03,1.500259e+03
1.104049e+03,1.498006e+03
1.105013e+03,1.497471e+03
1.105977e+03,1.500940e+03
1.106942e+03,1.503110e+03
1.107906e+03,1.503337e+03
1.108870e+03,1.501979e+03
1.109834e+03,1.498323e+03
1.110799e+03,1.490613e+03
1.111763e+03,1.487745e+03
1.112727e+03,1.496106e+03
1.113691e+03,1.504827e+03
1.114656e+03,1.508350e+03
1.115620e+03,1.507062e+03
1.116584e+03,1.504986e+03
1.117548e+03,1.500154e+03
1.118512e+03,1.495961e+03
1.119477e+03,1.493373e+03
1.120441e+03,1.491972e+03
1.121405e+03,1.491354e+03
1.122369e+03,1.492448e+03
1.123334e+03,1.493029e+03
1.124298e+03,1.494020e+03
1.125262e+03,1.494207e+03
1.126226e+03,1.492496e+03
1.127191e+03,1.488709e+03
1.128155e+03,1.485657e+03
1.129119e+03,1.482160e+03
1.130083e+03,1.480385e+03
1.131047e+03,1.482385e+03
1.132012e+03,1.486140e+03
1.132976e+03,1.485930e+03
1.133940e+03,1.479429e+03
1.134904e+03,1.473447e+03
1.135869e+03,1.469371e+03
1.136833e+03,1.466623e+03
1.137797e+03,1.464446e+03
1.138761e+03,1.463162e+03
1.139726e+03,1.463244e+03
1.140690e+03,1.465166e+03
1.141654e+03,1.466802e+03
1.142618e+03,1.466504e+03
1.143583e+03,1.464743e+03
1.144547e+03,1.464685e+03
1.145511e+03,1.466829e+03
1.146475e+03,1.468585e+03
1.147439e+03,1.469116e+03
1.148404e+03,1.469048e+03
1.149368e+03,1.469072e+03
1.150332e+03,1.469090e+03
1.151296e+03,1.468530e+03
1.152261e+03,1.466860e+03
1.153225e+03,1.462765e+03
1.154189e+03,1.455225e+03
1.155153e+03,1.445490e+03
1.156118e+03,1.439116e+03
1.157082e+03,1.436594e+03
1.158046e+03,1.437238e+03
1.159010e+03,1.441104e+03
1.159974e+03,1.445541e+03
1.160939e+03,1.444024e+03
1.161903e+03,1.437286e+03
1.162867e+03,1.432205e+03
1.163831e+03,1.430129e+03
1.164796e+03,1.429350e+03
1.165760e+03,1.429111e+03
1.166724e+03,1.429161e+03
1.167688e+03,1.428205e+03
1.168653e+03,1.426281e+03
1.169617e+03,1.423808e+03
1.170581e+03,1.420897e+03
1.171545e+03,1.418204e+03
1.172510e+03,1.416258e+03
1.173474e+03,1.415328e+03
1.174438e+03,1.415920e+03
1.175402e+03,1.418128e+03
1.176366e+03,1.420414e+03
1.177331e+03,1.421105e+03
1.178295e+03,1.421580e+03
1.179259e+03,1.424313e+03
1.180223e+03,1.428516e+03
1.181188e+03,1.430082e+03
1.182152e+03,1.423912e+03
1.183116e+03,1.417110e+03
1.184080e+03,1.416182e+03
1.185045e+03,1.418384e+03
1.186009e+03,1.418169e+03
1.186973e+03,1.412863e+03
1.187937e+03,1.408194e+03
1.188901e+03,1.405243e+03
1.189866e+03,1.404320e+03
1.190830e+03,1.406187e+03
1.191794e+03,1.410651e+03
1.192758e+03,1.413970e+03
1.193723e+03,1.416663e+03
1.194687e+03,1.417873e+03
1.195651e+03,1.416010e+03
1.196615e+03,1.412155e+03
1.197580e+03,1.409086e+03
1.198544e+03,1.407068e+03
1.199508e+03,1.403415e+03
1.200472e+03,1.397286e+03
1.201437e+03,1.391591e+03
1.202401e+03,1.389193e+03
1.203365e+03,1.390957e+03
1.204329e+03,1.391836e+03
1.205293e+03,1.390929e+03
1.206258e+03,1.391008e+03
1.207222e+03,1.393632e+03
1.208186e+03,1.397398e+03
1.209150e+03,1.398084e+03
1.210115e+03,1.394910e+03
1.211079e+03,1.392393e+03
1.212043e+03,1.391634e+03
1.213007e+03,1.391114e+03
1.213972e+03,1.389762e+03
1.214936e+03,1.387905e+03
1.215900e+03,1.384265e+03
1.216864e+03,1.379128e+03
1.217828e+03,1.376446e+03
1.218793e+03,1.379448e+03
1.219757e+03,1.384868e+03
1.220721e+03,1.387637e+03
1.221685e+03,1.388320e+03
1.222650e+03,1.387446e+03
1.223614e+03,1.384628e+03
1.224578e+03,1.381457e+03
1.225542e+03,1.379915e+03
1.226507e+03,1.379306e+03
1.227471e+03,1.379324e+03
1.228435e+03,1.379039e+03
1.229399e+03,1.376420e+03
1.230364e+03,1.367240e+03
1.231328e+03,1.359765e+03
1.232292e+03,1.360261e+03
1.233256e+03,1.365234e+03
1.234220e+03,1.369971e+03
1.235185e+03,1.374917e+03
1.236149e+03,1.376319e+03
1.237113e+03,1.369330e+03
1.238077e+03,1.362645e+03
1.239042e+03,1.361329e+03
1.240006e+03,1.364037e+03
1.240970e+03,1.363677e+03
1.241934e+03,1.356386e+03
1.242899e+03,1.353119e+03
1.243863e+03,1.358641e+03
1.244827e+03,1.366912e+03
1.245791e+03,1.369524e+03
1.246755e+03,1.365633e+03
1.247720e+03,1.360604e+03
1.248684e+03,1.354251e+03
1.249648e+03,1.348871e+03
1.250612e+03,1.345273e+03
1.251577e+03,1.343775e+03
1.252541e+03,1.347542e+03
1.253505e+03,1.355605e+03
1.254469e+03,1.361816e+03
1.255434e+03,1.364747e+03
1.256398e+03,1.364804e+03
1.257362e+03,1.359514e+03
1.258326e+03,1.352053e+03
1.259291e+03,1.348879e+03
1.260255e+03,1.349843e+03
1.261219e+03,1.351826e+03
1.262183e+03,1.355814e+03
1.263147e+03,1.358815e+03
1.264112e+03,1.357318e+03
1.265076e+03,1.353525e+03
1.266040e+03,1.350189e+03
1.267004e+03,1.347790e+03
1.267969e+03,1.346949e+03
1.268933e+03,1.349640e+03
1.269897e+03,1.353521e+03
1.270861e+03,1.356667e+03
1.271826e+03,1.357934e+03
1.272790e+03,1.357260e+03
1.273754e+03,1.352807e+03
1.274718e+03,1.350714e+03
1.275682e+03,1.353598e+03
1.276647e+03,1.358713e+03
1.277611e+03,1.361854e+03
1.278575e+03,1.362240e+03
1.279539e+03,1.366235e+03
1.280504e+03,1.375499e+03
1.281468e+03,1.382244e+03
1.282432e+03,1.380693e+03
1.283396e+03,1.374291e+03
1.284361e+03,1.371541e+03
1.285325e+03,1.371246e+03
1.286289e+03,1.369827e+03
1.287253e+03,1.366323e+03
1.288218e+03,1.361132e+03
1.289182e+03,1.352307e+03
1.290146e+03,1.343987e+03
1.291110e+03,1.342976e+03
1.292074e+03,1.347656e+03
1.293039e+03,1.350601e+03
1.294003e+03,1.347148e+03
1.294967e+03,1.342230e+03
1.295931e+03,1.337882e+03
1.296896e+03,1.333945e+03
1.297860e+03,1.329513e+03
1.298824e+03,1.323442e+03
1.299788e+03,1.320527e+03
1.300753e+03,1.322868e+03
1.301717e+03,1.325272e+03
1.302681e+03,1.326165e+03
1.303645e+03,1.325575e+03
1.304609e+03,1.323216e+03
1.305574e+03,1.318157e+03
1.306538e+03,1.314181e+03
1.307502e+03,1.312537e+03
1.308466e+03,1.312033e+03
1.309431e+03,1.310638e+03
1.310395e+03,1.309145e+03
1.311359e+03,1.310764e+03
1.312323e+03,1.314318e+03
1.313288e+03,1.316815e+03
1.314252e+03,1.317641e+03
1.315216e+03,1.317580e+03
1.316180e+03,1.315032e+03
1.317145e+03,1.312771e+03
1.318109e+03,1.314842e+03
1.319073e+03,1.320943e+03
1.320037e+03,1.324772e+03
1.321001e+03,1.322815e+03
1.321966e+03,1.319583e+03
1.322930e+03,1.317020e+03
1.323894e+03,1.315221e+03
1.324858e+03,1.313428e+03
1.325823e+03,1.311332e+03
1.326787e+03,1.309673e+03
1.327751e+03,1.307778e+03
1.328715e+03,1.306832e+03
1.329680e+03,1.308023e+03
1.330644e+03,1.310970e+03
1.331608e+03,1.314156e+03
1.332572e+03,1.317350e+03
1.333536e+03,1.319030e+03
1.334501e+03,1.318526e+03
1.335465e+03,1.316556e+03
1.336429e+03,1.313578e+03
1.337393e+03,1.310769e+03
1.338358e+03,1.309960e+03
1.339322e+03,1.310787e+03
1.340286e+03,1.311305e+03
1.341250e+03,1.312088e+03
1.342215e+03,1.310481e+03
1.343179e+03,1.302661e+03
1.344143e+03,1.294714e+03
1.345107e+03,1.293276e+03
1.346072e+03,1.300701e+03
1.347036e+03,1.303711e+03
1.348000e+03,1.299713e+03
1.348964e+03,1.295323e+03
1.349928e+03,1.293355e+03
1.350893e+03,1.293228e+03
1.351857e+03,1.292316e+03
1.352821e+03,1.290450e+03
1.353785e+03,1.291313e+03
1.354750e+03,1.295218e+03
1.355714e+03,1.298543e+03
1.356678e+03,1.298788e+03
1.357642e+03,1.297400e+03
1.358607e+03,1.294924e+03
1.359571e+03,1.291859e+03
1.360535e+03,1.289695e+03
1.361499e+03,1.289417e+03
1.362464e+03,1.289473e+03
1.363428e+03,1.289367e+03
1.364392e+03,1.289613e+03
1.365356e+03,1.289870e+03
1.366320e+03,1.289618e+03
1.367285e+03,1.289658e+03
1.368249e+03,1.291503e+03
1.369213e+03,1.291256e+03
1.370177e+03,1.287640e+03
1.371142e+03,1.282986e+03
1.372106e+03,1.280123e+03
1.373070e+03,1.278811e+03
1.374034e+03,1.277544e+03
1.374999e+03,1.276505e+03
1.375963e+03,1.274697e+03
1.376927e+03,1.270669e+03
1.377891e+03,1.267469e+03
1.378855e+03,1.269133e+03
1.379820e+03,1.272786e+03
1.380784e+03,1.275418e+03
1.381748e+03,1.276876e+03
1.382712e+03,1.276608e+03
1.383677e+03,1.271307e+03
1.384641e+03,1.266636e+03
1.385605e+03,1.264969e+03
1.386569e+03,1.264511e+03
1.387534e+03,1.262504e+03
1.388498e+03,1.258470e+03
1.389462e+03,1.256957e+03
1.390426e+03,1.258268e+03
1.391391e+03,1.257855e+03
1.392355e+03,1.252242e+03
1.393319e+03,1.244872e+03
1.394283e+03,1.241933e+03
1.395247e+03,1.242134e+03
1.396212e+03,1.242974e+03
1.397176e+03,1.243898e+03
1.398140e+03,1.245474e+03
1.399104e+03,1.249947e+03
1.400069e+03,1.252762e+03
1.401033e+03,1.249780e+03
1.401997e+03,1.243063e+03
1.402961e+03,1.238491e+03
1.403926e+03,1.236394e+03
1.404890e+03,1.236110e+03
1.405854e+03,1.238502e+03
1.406818e+03,1.241171e+03
1.407782e+03,1.242318e+03
1.408747e+03,1.242714e+03
1.409711e+03,1.244483e+03
1.410675e+03,1.246379e+03
1.411639e+03,1.245312e+03
1.412604e+03,1.240203e+03
1.413568e+03,1.235682e+03
1.414532e+03,1.237443e+03
1.415496e+03,1.240668e+03
1.416461e+03,1.240816e+03
1.417425e+03,1.237829e+03
1.418389e+03,1.234023e+03
1.419353e+03,1.227598e+03
1.420318e+03,1.224278e+03
1.421282e+03,1.226858e+03
1.422246e+03,1.229760e+03
1.423210e+03,1.227784e+03
1.424174e+03,1.222025e+03
1.425139e+03,1.218735e+03
1.426103e+03,1.217407e+03
1.427067e+03,1.216857e+03
1.428031e+03,1.216989e+03
1.428996e+03,1.216765e+03
1.429960e+03,1.214228e+03
1.430924e+03,1.211045e+03
1.431888e+03,1.209364e+03
1.432853e+03,1.208929e+03
1.433817e+03,1.207474e+03
1.434781e+03,1.202811e+03
1.435745e+03,1.200186e+03
1.436709e+03,1.200410e+03
1.437674e+03,1.201340e+03
1.438638e+03,1.201739e+03
1.439602e+03,1.201942e+03
1.440566e+03,1.201570e+03
1.441531e+03,1.200572e+03
1.442495e+03,1.199492e+03
1.443459e+03,1.197982e+03
1.444423e+03,1.198102e+03
1.445388e+03,1.204638e+03
1.446352e+03,1.211455e+03
1.447316e+03,1.211762e+03
1.448280e+03,1.206614e+03
1.449245e+03,1.202429e+03
1.450209e+03,1.200779e+03
1.451173e+03,1.199859e+03
1.452137e+03,1.199003e+03
1.453101e+03,1.198073e+03
1.454066e+03,1.197596e+03
1.455030e+03,1.197448e+03
1.455994e+03,1.195833e+03
1.456958e+03,1.193005e+03
1.457923e+03,1.190912e+03
1.458887e+03,1.190058e+03
1.459851e+03,1.189503e+03
1.460815e+03,1.187208e+03
1.461780e+03,1.185466e+03
1.462744e+03,1.189048e+03
1.463708e+03,1.196885e+03
1.464672e+03,1.198835e+03
1.465636e+03,1.190964e+03
1.466601e+03,1.185031e+03
1.467565e+03,1.182591e+03
1.468529e+03,1.181837e+03
1.469493e+03,1.181177e+03
1.470458e+03,1.180188e+03
1.471422e+03,1.177976e+03
1.472386e+03,1.175208e+03
1.473350e+03,1.173522e+03
1.474315e+03,1.173314e+03
1.475279e+03,1.173848e+03
1.476243e+03,1.175895e+03
1.477207e+03,1.177041e+03
1.478172e+03,1.175272e+03
1.479136e+03,1.171479e+03
1.480100e+03,1.169542e+03
1.481064e+03,1.170703e+03
1.482028e+03,1.168736e+03
1.482993e+03,1.162458e+03
1.483957e+03,1.156503e+03
1.484921e+03,1.154844e+03
1.485885e+03,1.156042e+03
1.486850e+03,1.157742e+03
1.487814e+03,1.159652e+03
1.488778e+03,1.162255e+03
1.489742e+03,1.166679e+03
1.490707e+03,1.168609e+03
1.491671e+03,1.164921e+03
1.492635e+03,1.161722e+03
1.493599e+03,1.161521e+03
1.494563e+03,1.162839e+03
1.495528e+03,1.162543e+03
1.496492e+03,1.160488e+03
1.497456e+03,1.157496e+03
1.498420e+03,1.154125e+03
1.499385e+03,1.152638e+03
1.500349e+03,1.158529e+03
1.501313e+03,1.163432e+03
1.502277e+03,1.155977e+03
1.503242e+03,1.144053e+03
1.504206e+03,1.139904e+03
1.505170e+03,1.148368e+03
1.506134e+03,1.152636e+03
1.507099e+03,1.151467e+03
1.508063e+03,1.149836e+03
1.509027e+03,1.149724e+03
1.509991e+03,1.149804e+03
1.510955e+03,1.147115e+03
1.511920e+03,1.143115e+03
1.512884e+03,1.142340e+03
1.513848e+03,1.144844e+03
1.514812e+03,1.145767e+03
1.515777e+03,1.136844e+03
1.516741e+03,1.131716e+03
1.517705e+03,1.139930e+03
1.518669e+03,1.149561e+03
1.519634e+03,1.150801e+03
1.520598e+03,1.143968e+03
1.521562e+03,1.138960e+03
1.522526e+03,1.135518e+03
1.523490e+03,1.134780e+03
1.524455e+03,1.137904e+03
1.525419e+03,1.139961e+03
1.526383e+03,1.135215e+03
1.527347e+03,1.128482e+03
1.528312e+03,1.123641e+03
1.529276e+03,1.121395e+03
1.530240e+03,1.121663e+03
1.531204e+03,1.125714e+03
1.532169e+03,1.126437e+03
1.533133e+03,1.122340e+03
1.534097e+03,1.119531e+03
1.535061e+03,1.124287e+03
1.536026e+03,1.131476e+03
1.536990e+03,1.130938e+03
1.537954e+03,1.126260e+03
1.538918e+03,1.123936e+03
1.539882e+03,1.125492e+03
1.540847e+03,1.127990e+03
1.541811e+03,1.134546e+03
1.542775e+03,1.135368e+03
1.543739e+03,1.125856e+03
1.544704e+03,1.112752e+03
1.545668e+03,1.106663e+03
1.546632e+03,1.106806e+03
1.547596e+03,1.110008e+03
1.548561e+03,1.115503e+03
1.549525e+03,1.120702e+03
1.550489e+03,1.124877e+03
1.551453e+03,1.126708e+03
1.552417e+03,1.123502e+03
1.553382e+03,1.119341e+03
1.554346e+03,1.118273e+03
1.555310e+03,1.119922e+03
1.556274e+03,1.118912e+03
1.557239e+03,1.115204e+03
1.558203e+03,1.111716e+03
1.559167e+03,1.109147e+03
1.560131e+03,1.107190e+03
1.561096e+03,1.104885e+03
1.562060e+03,1.104020e+03
1.563024e+03,1.107994e+03
1.563988e+03,1.113975e+03
1.564953e+03,1.115000e+03
1.565917e+03,1.108031e+03
1.566881e+03,1.106051e+03
1.567845e+03,1.109601e+03
1.568809e+03,1.113113e+03
1.569774e+03,1.113752e+03
1.570738e+03,1.112879e+03
1.571702e+03,1.112055e+03
1.572666e+03,1.110907e+03
1.573631e+03,1.108113e+03
1.574595e+03,1.104034e+03
1.575559e+03,1.104338e+03
1.576523e+03,1.112142e+03
1.577488e+03,1.117702e+03
1.578452e+03,1.118458e+03
1.579416e+03,1.116992e+03
1.580380e+03,1.115947e+03
1.581344e+03,1.115209e+03
1.582309e+03,1.115211e+03
1.583273e+03,1.115417e+03
1.584237e+03,1.114171e+03
1.585201e+03,1.110509e+03
1.586166e+03,1.106703e+03
1.587130e+03,1.102352e+03
1.588094e+03,1.098387e+03
1.589058e+03,1.095418e+03
1.590023e+03,1.093584e+03
1.590987e+03,1.093453e+03
1.591951e+03,1.094529e+03
1.592915e+03,1.094859e+03
1.593880e+03,1.093690e+03
1.594844e+03,1.091287e+03
1.595808e+03,1.085102e+03
1.596772e+03,1.082144e+03
1.597736e+03,1.085843e+03
1.598701e+03,1.090400e+03
1.599665e+03,1.089955e+03
1.600629e+03,1.086101e+03
1.601593e+03,1.086106e+03
1.602558e+03,1.088488e+03
1.603522e+03,1.088347e+03
1.604486e+03,1.083705e+03
1.605450e+03,1.079555e+03
1.606415e+03,1.080029e+03
1.607379e+03,1.079494e+03
1.608343e+03,1.074320e+03
1.609307e+03,1.068284e+03
1.610271e+03,1.069108e+03
1.611236e+03,1.075100e+03
1.612200e+03,1.080451e+03
1.613164e+03,1.084481e+03
1.614128e+03,1.084893e+03
1.615093e+03,1.076214e+03
1.616057e+03,1.069112e+03
1.617021e+03,1.067152e+03
1.617985e+03,1.067462e+03
1.618950e+03,1.069816e+03
1.619914e+03,1.072953e+03
1.620878e+03,1.071164e+03
1.621842e+03,1.065640e+03
1.622807e+03,1.059390e+03
1.623771e+03,1.053224e+03
1.624735e+03,1.051236e+03
1.625699e+03,1.059732e+03
1.626663e+03,1.066666e+03
1.627628e+03,1.066807e+03
1.628592e+03,1.063749e+03
1.629556e+03,1.062940e+03
1.630520e+03,1.064234e+03
1.631485e+03,1.062967e+03
1.632449e+03,1.059729e+03
1.633413e+03,1.057916e+03
1.634377e+03,1.060235e+03
1.635342e+03,1.060849e+03
1.636306e+03,1.055690e+03
1.637270e+03,1.050510e+03
1.638234e+03,1.047689e+03
1.639198e+03,1.046696e+03
1.640163e+03,1.045958e+03
1.641127e+03,1.045707e+03
1.642091e+03,1.045593e+03
1.643055e+03,1.045377e+03
1.644020e+03,1.046279e+03
1.644984e+03,1.051430e+03
1.645948e+03,1.053227e+03
1.646912e+03,1.049358e+03
1.647877e+03,1.044045e+03
1.648841e+03,1.040273e+03
1.649805e+03,1.038291e+03
1.650769e+03,1.039429e+03
1.651734e+03,1.042518e+03
1.652698e+03,1.045303e+03
1.653662e+03,1.047123e+03
1.654626e+03,1.046668e+03
1.655590e+03,1.042248e+03
1.656555e+03,1.037834e+03
1.657519e+03,1.034534e+03
1.658483e+03,1.033109e+03
1.659447e+03,1.035231e+03
1.660412e+03,1.038417e+03
1.661376e+03,1.038755e+03
1.662340e+03,1.036923e+03
1.663304e+03,1.034822e+03
1.664269e+03,1.031524e+03
1.665233e+03,1.029539e+03
1.666197e+03,1.029040e+03
1.667161e+03,1.028266e+03
1.668125e+03,1.026524e+03
1.669090e+03,1.024231e+03
1.670054e+03,1.021305e+03
1.671018e+03,1.018768e+03
1.671982e+03,1.019084e+03
1.672947e+03,1.022133e+03
1.673911e+03,1.021883e+03
1.674875e+03,1.016141e+03
1.675839e+03,1.013483e+03
1.676804e+03,1.015905e+03
1.677768e+03,1.019057e+03
1.678732e+03,1.018987e+03
1.679696e+03,1.017130e+03
1.680661e+03,1.013289e+03
1.681625e+03,1.008927e+03
1.682589e+03,1.007121e+03
1.683553e+03,1.008373e+03
1.684517e+03,1.009370e+03
1.685482e+03,1.009942e+03
1.686446e+03,1.009362e+03
1.687410e+03,1.007210e+03
1.688374e+03,1.005122e+03
1.689339e+03,1.003488e+03
1.690303e+03,1.003186e+03
1.691267e+03,1.006193e+03
1.692231e+03,1.009862e+03
1.693196e+03,1.007892e+03
1.694160e+03,1.001394e+03
1.695124e+03,1.002293e+03
1.696088e+03,1.009590e+03
1.697052e+03,1.014268e+03
1.698017e+03,1.009094e+03
1.698981e+03,1.004720e+03
1.699945e+03,1.003115e+03
1.700909e+03,1.003260e+03
1.701874e+03,1.006047e+03
1.702838e+03,1.010546e+03
1.703802e+03,1.015454e+03
1.704766e+03,1.018210e+03
1.705731e+03,1.013407e+03
1.706695e+03,1.001293e+03
1.707659e+03,9.916542e+02
1.708623e+03,9.868876e+02
1.709588e+03,9.831423e+02
1.710552e+03,9.791148e+02
1.711516e+03,9.774691e+02
1.712480e+03,9.840035e+02
1.713444e+03,9.913245e+02
1.714409e+03,9.913129e+02
1.715373e+03,9.871337e+02
1.716337e+03,9.819842e+02
1.717301e+03,9.763319e+02
1.718266e+03,9.768262e+02
1.719230e+03,9.830560e+02
1.720194e+03,9.875297e+02
1.721158e+03,9.879841e+02
1.722123e+03,9.868610e+02
1.723087e+03,9.833597e+02
1.724051e+03,9.820959e+02
1.725015e+03,9.881861e+02
1.725979e+03,9.950858e+02
1.726944e+03,9.901965e+02
1.727908e+03,9.777779e+02
1.728872e+03,9.778663e+02
1.729836e+03,9.869891e+02
1.730801e+03,9.917131e+02
1.731765e+03,9.847873e+02
1.732729e+03,9.788812e+02
1.733693e+03,9.747059e+02
1.734658e+03,9.735825e+02
1.735622e+03,9.769822e+02
1.736586e+03,9.811455e+02
1.737550e+03,9.797760e+02
1.738515e+03,9.766738e+02
1.739479e+03,9.778541e+02
1.740443e+03,9.819661e+02
1.741407e+03,9.790051e+02
1.742371e+03,9.675247e+02
1.743336e+03,9.641017e+02
1.744300e+03,9.697649e+02
1.745264e+03,9.743072e+02
1.746228e+03,9.687310e+02
1.747193e+03,9.642171e+02
1.748157e+03,9.704697e+02
1.749121e+03,9.762834e+02
1.750085e+03,9.708746e+02
1.751050e+03,9.589543e+02
1.752014e+03,9.616393e+02
1.752978e+03,9.729670e+02
1.753942e+03,9.774583e+02
1.754906e+03,9.721613e+02
1.755871e+03,9.658337e+02
1.756835e+03,9.579695e+02
1.757799e+03,9.534148e+02
1.758763e+03,9.543075e+02
1.759728e+03,9.572636e+02
1.760692e+03,9.596868e+02
1.761656e+03,9.616400e+02
1.762620e+03,9.622703e+02
1.763585e+03,9.623705e+02
1.764549e+03,9.636881e+02
1.765513e+03,9.657445e+02
1.766477e+03,9.634196e+02
1.767442e+03,9.577191e+02
1.768406e+03,9.536813e+02
1.769370e+03,9.534474e+02
1.770334e+03,9.510374e+02
1.771298e+03,9.365095e+02
1.772263e+03,9.294918e+02
1.773227e+03,9.379726e+02
1.774191e+03,9.506603e+02
1.775155e+03,9.513992e+02
1.776120e+03,9.467988e+02
1.777084e+03,9.477784e+02
1.778048e+03,9.520433e+02
1.779012e+03,9.513936e+02
1.779977e+03,9.436488e+02
1.780941e+03,9.412086e+02
1.781905e+03,9.435200e+02
1.782869e+03,9.450623e+02
1.783833e+03,9.434485e+02
1.784798e+03,9.409719e+02
1.785762e+03,9.378724e+02
1.786726e+03,9.355043e+02
1.787690e+03,9.347450e+02
1.788655e+03,9.351037e+02
1.789619e+03,9.365665e+02
1.790583e+03,9.376152e+02
1.791547e+03,9.327000e+02
1.792512e+03,9.237258e+02
1.793476e+03,9.215863e+02
1.794440e+03,9.298223e+02
1.795404e+03,9.354882e+02
1.796369e+03,9.377549e+02
1.797333e+03,9.361053e+02
1.798297e+03,9.268291e+02
1.799261e+03,9.201775e+02
1.800225e+03,9.263713e+02
1.801190e+03,9.340663e+02
1.802154e+03,9.366627e+02
1.803118e+03,9.349391e+02
1.804082e+03,9.299373e+02
1.805047e+03,9.234431e+02
1.806011e+03,9.183566e+02
1.806975e+03,9.150664e+02
1.807939e+03,9.145723e+02
1.808904e+03,9.174765e+02
1.809868e+03,9.199578e+02
1.810832e+03,9.220322e+02
1.811796e+03,9.219947e+02
1.812760e+03,9.146999e+02
1.813725e+03,9.091595e+02
1.814689e+03,9.134374e+02
1.815653e+03,9.201200e+02
1.816617e+03,9.245184e+02
1.817582e+03,9.262410e+02
1.818546e+03,9.224230e+02
1.819510e+03,9.151996e+02
1.820474e+03,9.090929e+02
1.821439e+03,9.050825e+02
1.822403e+03,9.029576e+02
1.823367e+03,9.031570e+02
1.824331e+03,9.018475e+02
1.825296e+03,8.979637e+02
1.826260e+03,8.971752e+02
1.827224e+03,9.118452e+02
1.828188e+03,9.227600e+02
1.829152e+03,9.138996e+02
1.830117e+03,9.012640e+02
1.831081e+03,8.975477e+02
1.832045e+03,8.996839e+02
1.833009e+03,9.009146e+02
1.833974e+03,9.019913e+02
1.834938e+03,9.026419e+02
1.835902e+03,9.023320e+02
1.836866e+03,9.036628e+02
1.837831e+03,9.069344e+02
1.838795e+03,9.052545e+02
1.839759e+03,8.972855e+02
1.840723e+03,8.915058e+02
1.841688e+03,8.963453e+02
1.842652e+03,9.002063e+02
1.843616e+03,8.981252e+02
1.844580e+03,8.943618e+02
1.845544e+03,8.938233e+02
1.846509e+03,8.951005e+02
1.847473e+03,8.951845e+02
1.848437e+03,8.950400e+02
1.849401e+03,8.975432e+02
1.850366e+03,9.028478e+02
1.851330e+03,9.011451e+02
1.852294e+03,8.936451e+02
1.853258e+03,8.886558e+02
1.854223e+03,8.884424e+02
1.855187e+03,8.884980e+02
1.856151e+03,8.865895e+02
1.857115e+03,8.842170e+02
1.858079e+03,8.813976e+02
1.859044e+03,8.786164e+02
1.860008e+03,8.755993e+02
1.860972e+03,8.744404e+02
1.861936e+03,8.782758e+02
1.862901e+03,8.846575e+02
1.863865e+03,8.906082e+02
1.864829e+03,8.949580e+02
1.865793e+03,8.912662e+02
1.866758e+03,8.823974e+02
1.867722e+03,8.756622e+02
1.868686e+03,8.727307e+02
1.869650e+03,8.731271e+02
1.870615e+03,8.771760e+02
1.871579e+03,8.800660e+02
1.872543e+03,8.811584e+02
1.873507e+03,8.802012e+02
1.874471e+03,8.731893e+02
1.875436e+03,8.670208e+02
1.876400e+03,8.660721e+02
1.877364e+03,8.665781e+02
1.878328e+03,8.635640e+02
1.879293e+03,8.592587e+02
1.880257e+03,8.573511e+02
1.881221e+03,8.573578e+02
1.882185e+03,8.588893e+02
1.883150e+03,8.619768e+02
1.884114e+03,8.676005e+02
1.885078e+03,8.746100e+02
1.886042e+03,8.756243e+02
1.887006e+03,8.674808e+02
1.887971e+03,8.618182e+02
1.888935e+03,8.652398e+02
1.889899e+03,8.645882e+02
1.890863e+03,8.552451e+02
1.891828e+03,8.469941e+02
1.892792e+03,8.524699e+02
1.893756e+03,8.609166e+02
1.894720e+03,8.674999e+02
1.895685e+03,8.707193e+02
1.896649e+03,8.661179e+02
1.897613e+03,8.562342e+02
1.898577e+03,8.499791e+02
1.899542e+03,8.467740e+02
1.900506e+03,8.452158e+02
1.901470e+03,8.449804e+02
1.902434e+03,8.459805e+02
1.903398e+03,8.482242e+02
1.904363e+03,8.516067e+02
1.905327e+03,8.565599e+02
1.906291e+03,8.581807e+02
1.907255e+03,8.477768e+02
1.908220e+03,8.433268e+02
1.909184e+03,8.492864e+02
1.910148e+03,8.568461e+02
1.911112e+03,8.593625e+02
1.912077e+03,8.581761e+02
1.913041e+03,8.518127e+02
1.914005e+03,8.443133e+02
1.914969e+03,8.393386e+02
1.915933e+03,8.367245e+02
1.916898e+03,8.374427e+02
1.917862e+03,8.395235e+02
1.918826e+03,8.377908e+02
1.919790e+03,8.315107e+02
1.920755e+03,8.287560e+02
1.921719e+03,8.289892e+02
1.922683e+03,8.310720e+02
1.923647e+03,8.351048e+02
1.924612e+03,8.390457e+02
1.925576e+03,8.440600e+02
1.926540e+03,8.443043e+02
1.927504e+03,8.375579e+02
1.928469e+03,8.304399e+02
1.929433e+03,8.285423e+02
1.930397e+03,8.285079e+02
1.931361e+03,8.298273e+02
1.932325e+03,8.298683e+02
1.933290e+03,8.256535e+02
1.934254e+03,8.205952e+02
1.935218e+03,8.234327e+02
1.936182e+03,8.287982e+02
1.937147e+03,8.281835e+02
1.938111e+03,8.222103e+02
1.939075e+03,8.185303e+02
1.940039e+03,8.172877e+02
1.941004e+03,8.173393e+02
1.941968e+03,8.178736e+02
1.942932e+03,8.170548e+02
1.943896e+03,8.137423e+02
1.944860e+03,8.120082e+02
1.945825e+03,8.126035e+02
1.946789e+03,8.147988e+02
1.947753e+03,8.184532e+02
1.948717e+03,8.224092e+02
1.949682e+03,8.273102e+02
1.950646e+03,8.299152e+02
1.951610e+03,8.271331e+02
1.952574e+03,8.229153e+02
1.953539e+03,8.245467e+02
1.954503e+03,8.263859e+02
1.955467e+03,8.219374e+02
1.956431e+03,8.140400e+02
1.957396e+03,8.093166e+02
1.958360e+03,8.068267e+02
1.959324e+03,8.045585e+02
1.960288e+03,8.030791e+02
1.961252e+03,8.049570e+02
1.962217e+03,8.102631e+02
1.963181e+03,8.105607e+02
1.964145e+03,8.061795e+02
1.965109e+03,8.049718e+02
1.966074e+03,8.168661e+02
1.967038e+03,8.199085e+02
1.968002e+03,8.103663e+02
1.968966e+03,7.998966e+02
1.969931e+03,7.927542e+02
1.970895e+03,7.899846e+02
1.971859e+03,7.980480e+02
1.972823e+03,8.049726e+02
1.973787e+03,8.048395e+02
1.974752e+03,8.015276e+02
1.975716e+03,8.003304e+02
1.976680e+03,7.996401e+02
1.977644e+03,7.978654e+02
1.978609e+03,7.963864e+02
1.979573e+03,7.979274e+02
1.980537e+03,8.005959e+02
1.981501e+03,7.966533e+02
1.982466e+03,7.892151e+02
1.983430e+03,7.887526e+02
1.984394e+03,7.971512e+02
1.985358e+03,7.940081e+02
1.986323e+03,7.817502e+02
1.987287e+03,7.767498e+02
1.988251e+03,7.853864e+02
1.989215e+03,7.917554e+02
1.990179e+03,7.940182e+02
1.991144e+03,7.943030e+02
1.992108e+03,7.933087e+02
1.993072e+03,7.915137e+02
1.994036e+03,7.880066e+02
1.995001e+03,7.848486e+02
1.995965e+03,7.826798e+02
1.996929e+03,7.808861e+02
1.997893e+03,7.761264e+02
1.998858e+03,7.734557e+02
1.999822e+03,7.818784e+02
2.000786e+03,7.902119e+02
2.001750e+03,7.886773e+02
2.002714e+03,7.818701e+02
2.003679e+03,7.763029e+02
2.004643e+03,7.731422e+02
2.005607e+03,7.768776e+02
2.006571e+03,7.851751e+02
2.007536e+03,7.887127e+02
2.008500e+03,7.884678e+02
2.009464e+03,7.868185e+02
2.010428e+03,7.843382e+02
2.011393e+03,7.808928e+02
2.012357e+03,7.761667e+02
2.013321e+03,7.760579e+02
2.014285e+03,7.799474e+02
2.015250e+03,7.820317e+02
2.016214e+03,7.779504e+02
2.017178e+03,7.746010e+02
2.018142e+03,7.724213e+02
2.019106e+03,7.719401e+02
2.020071e+03,7.742759e+02
2.021035e+03,7.758723e+02
2.021999e+03,7.749384e+02
2.022963e+03,7.725262e+02
2.023928e+03,7.689294e+02
2.024892e+03,7.653796e+02
2.025856e+03,7.620741e+02
2.026820e+03,7.608679e+02
2.027785e+03,7.638347e+02
2.028749e+03,7.669482e+02
2.029713e+03,7.639915e+02
2.030677e+03,7.588062e+02
2.031641e+03,7.551385e+02
2.032606e+03,7.536541e+02
2.033570e+03,7.555552e+02
2.034534e+03,7.596992e+02
2.035498e+03,7.623199e+02
2.036463e+03,7.635024e+02
2.037427e+03,7.629232e+02
2.038391e+03,7.611609e+02
2.039355e+03,7.585027e+02
2.040320e+03,7.552471e+02
2.041284e+03,7.518450e+02
2.042248e+03,7.481345e+02
2.043212e+03,7.460201e+02
2.044177e+03,7.458717e+02
2.045141e+03,7.465173e+02
2.046105e+03,7.475889e+02
2.047069e+03,7.482125e+02
2.048033e+03,7.459687e+02
2.048998e+03,7.468328e+02
2.049962e+03,7.518126e+02
2.050926e+03,7.560684e+02
2.051890e+03,7.550430e+02
2.052854e+03,7.548982e+02
2.053819e+03,7.582960e+02
2.054783e+03,7.589300e+02
2.055747e+03,7.528555e+02
2.056711e+03,7.462443e+02
2.057676e+03,7.444408e+02
2.058640e+03,7.449384e+02
2.059604e+03,7.464367e+02
2.060568e+03,7.470295e+02
2.061533e+03,7.430038e+02
2.062497e+03,7.383696e+02
2.063461e+03,7.374709e+02
2.064425e+03,7.382354e+02
2.065390e+03,7.385325e+02
2.066354e+03,7.378636e+02
2.067318e+03,7.339006e+02
2.068282e+03,7.296513e+02
2.069247e+03,7.317628e+02
2.070211e+03,7.380630e+02
2.071175e+03,7.331238e+02
2.072139e+03,7.223782e+02
2.073104e+03,7.192922e+02
2.074068e+03,7.248920e+02
2.075032e+03,7.288750e+02
2.075996e+03,7.311383e+02
2.076960e+03,7.324485e+02
2.077925e+03,7.328087e+02
2.078889e+03,7.322623e+02
2.079853e+03,7.308243e+02
2.080817e+03,7.307338e+02
2.081782e+03,7.319366e+02
2.082746e+03,7.298385e+02
2.083710e+03,7.219977e+02
2.084674e+03,7.126429e+02
2.085639e+03,7.024592e+02
2.086603e+03,7.006816e+02
2.087567e+03,7.190284e+02
2.088531e+03,7.310827e+02
2.089496e+03,7.330968e+02
2.090460e+03,7.281009e+02
2.091424e+03,7.161013e+02
2.092388e+03,7.065599e+02
2.093353e+03,7.056036e+02
2.094317e+03,7.074457e+02
2.095281e+03,7.104120e+02
2.096245e+03,7.127452e+02
2.097209e+03,7.121996e+02
2.098174e+03,7.114130e+02
2.099138e+03,7.121133e+02
2.100102e+03,7.127537e+02
2.101066e+03,7.109879e+02
2.102031e+03,7.089175e+02
2.102995e+03,7.083068e+02
2.103959e+03,7.086722e+02
2.104923e+03,7.111282e+02
2.105887e+03,7.134078e+02
2.106852e+03,7.078171e+02
2.107816e+03,7.012407e+02
2.108780e+03,7.023033e+02
2.109744e+03,7.075012e+02
2.110708e+03,7.104321e+02
2.111673e+03,7.111363e+02
2.112637e+03,7.070178e+02
2.113601e+03,7.002748e+02
2.114565e+03,6.962126e+02
2.115530e+03,6.944120e+02
2.116494e+03,6.938205e+02
2.117458e+03,6.956383e+02
2.118422e+03,7.012621e+02
2.119387e+03,7.087821e+02
2.120351e+03,7.091853e+02
2.121315e+03,7.045498e+02
2.122279e+03,7.053838e+02
2.123244e+03,7.123552e+02
2.124208e+03,7.097029e+02
2.125172e+03,7.006828e+02
2.126136e+03,6.960879e+02
2.127101e+03,6.990035e+02
2.128065e+03,6.960627e+02
2.129029e+03,6.883589e+02
2.129993e+03,6.867092e+02
2.130958e+03,6.925342e+02
2.131922e+03,6.941898e+02
2.132886e+03,6.906209e+02
2.133850e+03,6.889832e+02
2.134814e+03,6.906307e+02
2.135779e+03,6.926963e+02
2.136743e+03,6.948658e+02
2.137707e+03,6.923221e+02
2.138671e+03,6.854445e+02
2.139636e+03,6.813401e+02
2.140600e+03,6.861490e+02
2.141564e+03,6.879337e+02
2.142528e+03,6.860042e+02
2.143493e+03,6.825861e+02
2.144457e+03,6.771344e+02
2.145421e+03,6.745909e+02
2.146385e+03,6.768453e+02
2.147350e+03,6.792805e+02
2.148314e+03,6.810317e+02
2.149278e+03,6.836874e+02
2.150242e+03,6.889487e+02
2.151207e+03,6.921024e+02
2.152171e+03,6.922983e+02
2.153135e+03,6.891248e+02
2.154099e+03,6.792064e+02
2.155063e+03,6.732587e+02
2.156028e+03,6.742820e+02
2.156992e+03,6.765058e+02
2.157956e+03,6.747488e+02
2.158920e+03,6.730953e+02
2.159885e+03,6.737064e+02
2.160849e+03,6.739995e+02
2.161813e+03,6.723007e+02
2.162777e+03,6.709169e+02
2.163741e+03,6.731028e+02
2.164706e+03,6.747249e+02
2.165670e+03,6.749493e+02
2.166634e+03,6.746026e+02
2.167598e+03,6.729051e+02
2.168563e+03,6.720978e+02
2.169527e+03,6.730648e+02
2.170491e+03,6.730934e+02
2.171455e+03,6.694923e+02
2.172420e+03,6.652506e+02
2.173384e+03,6.616404e+02
2.174348e+03,6.598451e+02
2.175312e+03,6.623849e+02
2.176277e+03,6.647199e+02
2.177241e+03,6.612746e+02
2.178205e+03,6.571575e+02
2.179169e+03,6.558731e+02
2.180134e+03,6.563394e+02
2.181098e+03,6.582258e+02
2.182062e+03,6.583634e+02
2.183026e+03,6.532121e+02
2.183990e+03,6.477275e+02
2.184955e+03,6.504696e+02
2.185919e+03,6.553820e+02
2.186883e+03,6.575245e+02
2.187847e+03,6.580400e+02
2.188812e+03,6.585743e+02
2.189776e+03,6.589209e+02
2.190740e+03,6.577194e+02
2.191704e+03,6.566317e+02
2.192668e+03,6.590789e+02
2.193633e+03,6.615837e+02
2.194597e+03,6.582347e+02
2.195561e+03,6.527372e+02
2.196525e+03,6.471572e+02
2.197490e+03,6.431480e+02
2.198454e+03,6.450590e+02
2.199418e+03,6.490578e+02
2.200382e+03,6.523457e+02
2.201347e+03,6.544228e+02
2.202311e+03,6.518355e+02
2.203275e+03,6.488687e+02
2.204239e+03,6.497883e+02
2.205204e+03,6.521161e+02
2.206168e+03,6.556965e+02
2.207132e+03,6.576965e+02
2.208096e+03,6.517967e+02
2.209061e+03,6.432567e+02
2.210025e+03,6.359467e+02
2.210989e+03,6.321868e+02
2.211953e+03,6.406086e+02
2.212917e+03,6.508548e+02
2.213882e+03,6.492338e+02
2.214846e+03,6.429142e+02
2.215810e+03,6.494818e+02
2.216774e+03,6.551111e+02
2.217739e+03,6.466869e+02
2.218703e+03,6.340461e+02
2.219667e+03,6.354631e+02
2.220631e+03,6.406985e+02
2.221595e+03,6.396809e+02
2.222560e+03,6.354302e+02
2.223524e+03,6.305289e+02
2.224488e+03,6.268868e+02
2.225452e+03,6.282590e+02
2.226417e+03,6.313723e+02
2.227381e+03,6.339247e+02
2.228345e+03,6.356046e+02
2.229309e+03,6.329540e+02
2.230274e+03,6.313887e+02
2.231238e+03,6.379086e+02
2.232202e+03,6.453889e+02
2.233166e+03,6.432411e+02
2.234131e+03,6.372350e+02
2.235095e+03,6.304666e+02
2.236059e+03,6.259772e+02
2.237023e+03,6.326408e+02
2.237988e+03,6.378541e+02
2.238952e+03,6.322043e+02
2.239916e+03,6.221281e+02
2.240880e+03,6.132043e+02
2.241844e+03,6.086797e+02
2.242809e+03,6.117300e+02
2.243773e+03,6.175047e+02
2.244737e+03,6.226260e+02
2.245701e+03,6.261413e+02
2.246666e+03,6.274669e+02
2.247630e+03,6.259209e+02
2.248594e+03,6.191358e+02
2.249558e+03,6.136506e+02
2.250522e+03,6.173441e+02
2.251487e+03,6.222538e+02
2.252451e+03,6.246428e+02
2.253415e+03,6.239885e+02
2.254379e+03,6.194042e+02
2.255344e+03,6.136909e+02
2.256308e+03,6.077029e+02
2.257272e+03,6.029527e+02
2.258236e+03,5.998747e+02
2.259201e+03,6.008322e+02
2.260165e+03,6.064612e+02
2.261129e+03,6.130663e+02
2.262093e+03,6.198730e+02
2.263058e+03,6.219489e+02
2.264022e+03,6.184373e+02
2.264986e+03,6.139487e+02
2.265950e+03,6.099501e+02
2.266915e+03,6.074659e+02
2.267879e+03,6.065956e+02
2.268843e+03,6.048515e+02
2.269807e+03,6.010466e+02
2.270771e+03,6.003887e+02
2.271736e+03,6.069305e+02
2.272700e+03,6.082586e+02
2.273664e+03,5.991887e+02
2.274628e+03,5.935624e+02
2.275593e+03,5.993679e+02
2.276557e+03,6.033680e+02
2.277521e+03,6.041578e+02
2.278485e+03,6.024765e+02
2.279449e+03,5.966999e+02
2.280414e+03,5.932713e+02
2.281378e+03,5.924305e+02
2.282342e+03,5.918615e+02
2.283306e+03,5.887512e+02
2.284271e+03,5.892198e+02
2.285235e+03,5.928148e+02
2.286199e+03,5.956487e+02
2.287163e+03,5.973232e+02
2.288128e+03,5.966988e+02
2.289092e+03,5.937962e+02
2.290056e+03,5.946672e+02
2.291020e+03,6.010303e+02
2.291985e+03,5.998604e+02
2.292949e+03,5.926323e+02
2.293913e+03,5.910328e+02
2.294877e+03,5.952350e+02
2.295842e+03,5.932488e+02
2.296806e+03,5.858842e+02
2.297770e+03,5.880911e+02
2.298734e+03,5.969533e+02
2.299698e+03,5.973359e+02
2.300663e+03,5.903748e+02
2.301627e+03,5.866279e+02
2.302591e+03,5.850693e+02
2.303555e+03,5.833671e+02
2.304520e+03,5.815096e+02
2.305484e+03,5.791080e+02
2.306448e+03,5.772916e+02
2.307412e+03,5.774853e+02
2.308376e+03,5.792620e+02
2.309341e+03,5.853290e+02
2.310305e+03,5.899764e+02
2.311269e+03,5.829923e+02
2.312233e+03,5.736751e+02
2.313198e+03,5.784581e+02
2.314162e+03,5.866855e+02
2.315126e+03,5.869908e+02
2.316090e+03,5.838835e+02
2.317055e+03,5.806755e+02
2.318019e+03,5.788828e+02
2.318983e+03,5.805598e+02
2.319947e+03,5.822631e+02
2.320912e+03,5.832987e+02
2.321876e+03,5.816240e+02
2.322840e+03,5.714083e+02
2.323804e+03,5.658027e+02
2.324769e+03,5.734724e+02
2.325733e+03,5.809670e+02
2.326697e+03,5.773870e+02
2.327661e+03,5.731230e+02
2.328625e+03,5.701410e+02
2.329590e+03,5.686198e+02
2.330554e+03,5.706266e+02
2.331518e+03,5.713839e+02
2.332482e+03,5.700911e+02
2.333447e+03,5.680348e+02
2.334411e+03,5.650809e+02
2.335375e+03,5.633550e+02
2.336339e+03,5.629377e+02
2.337303e+03,5.625400e+02
2.338268e+03,5.605656e+02
2.339232e+03,5.617439e+02
2.340196e+03,5.656833e+02
2.341160e+03,5.686718e+02
2.342125e+03,5.696701e+02
2.343089e+03,5.694528e+02
2.344053e+03,5.681701e+02
2.345017e+03,5.712113e+02
2.345982e+03,5.778763e+02
2.346946e+03,5.731488e+02
2.347910e+03,5.625925e+02
2.348874e+03,5.601892e+02
2.349839e+03,5.636003e+02
2.350803e+03,5.646273e+02
2.351767e+03,5.641049e+02
2.352731e+03,5.627935e+02
2.353696e+03,5.613932e+02
2.354660e+03,5.595593e+02
2.355624e+03,5.580828e+02
2.356588e+03,5.597365e+02
2.357552e+03,5.621837e+02
2.358517e+03,5.636010e+02
2.359481e+03,5.641248e+02
2.360445e+03,5.634893e+02
2.361409e+03,5.617067e+02
2.362374e+03,5.588156e+02
2.363338e+03,5.548499e+02
2.364302e+03,5.486411e+02
2.365266e+03,5.459384e+02
2.366230e+03,5.484725e+02
2.367195e+03,5.512338e+02
2.368159e+03,5.506138e+02
2.369123e+03,5.491317e+02
2.370087e+03,5.475566e+02
2.371052e+03,5.469086e+02
2.372016e+03,5.482675e+02
2.372980e+03,5.486247e+02
2.373944e+03,5.478145e+02
2.374909e+03,5.486643e+02
2.375873e+03,5.533420e+02
2.376837e+03,5.529368e+02
2.377801e+03,5.486598e+02
2.378766e+03,5.448702e+02
2.379730e+03,5.423974e+02
2.380694e+03,5.450660e+02
2.381658e+03,5.498958e+02
2.382623e+03,5.451959e+02
2.383587e+03,5.354952e+02
2.384551e+03,5.380460e+02
2.385515e+03,5.460856e+02
2.386479e+03,5.507460e+02
2.387444e+03,5.514984e+02
2.388408e+03,5.434180e+02
2.389372e+03,5.360219e+02
2.390336e+03,5.405857e+02
2.391301e+03,5.473262e+02
2.392265e+03,5.465233e+02
2.393229e+03,5.446934e+02
2.394193e+03,5.461263e+02
2.395157e+03,5.473700e+02
2.396122e+03,5.461202e+02
2.397086e+03,5.452133e+02
2.398050e+03,5.462459e+02
2.399014e+03,5.449438e+02
2.399979e+03,5.385145e+02
2.400943e+03,5.348872e+02
2.401907e+03,5.351287e+02
2.402871e+03,5.353748e+02
2.403836e+03,5.350097e+02
2.404800e+03,5.334330e+02
2.405764e+03,5.307418e+02
2.406728e+03,5.304796e+02
2.407693e+03,5.321263e+02
2.408657e+03,5.313576e+02
2.409621e+03,5.294271e+02
2.410585e+03,5.331016e+02
2.411550e+03,5.393283e+02
2.412514e+03,5.402605e+02
2.413478e+03,5.372322e+02
2.414442e+03,5.325507e+02
2.415406e+03,5.277031e+02
2.416371e+03,5.238100e+02
2.417335e+03,5.212498e+02
2.418299e+03,5.207661e+02
2.419263e+03,5.218312e+02
2.420228e+03,5.247074e+02
2.421192e+03,5.264435e+02
2.422156e+03,5.214765e+02
2.423120e+03,5.209623e+02
2.424084e+03,5.276306e+02
2.425049e+03,5.331800e+02
2.426013e+03,5.338415e+02
2.426977e+03,5.318790e+02
2.427941e+03,5.280953e+02
2.428906e+03,5.279462e+02
2.429870e+03,5.334706e+02
2.430834e+03,5.324770e+02
2.431798e+03,5.267223e+02
2.432763e+03,5.272253e+02
2.433727e+03,5.335453e+02
2.434691e+03,5.342841e+02
2.435655e+03,5.312332e+02
2.436620e+03,5.276701e+02
2.437584e+03,5.246099e+02
2.438548e+03,5.253086e+02
2.439512e+03,5.265413e+02
2.440477e+03,5.247864e+02
2.441441e+03,5.213273e+02
2.442405e+03,5.179797e+02
2.443369e+03,5.149600e+02
2.444333e+03,5.123246e+02
2.445298e+03,5.109949e+02
2.446262e+03,5.118625e+02
2.447226e+03,5.145647e+02
2.448190e+03,5.193883e+02
2.449155e+03,5.212941e+02
2.450119e+03,5.143735e+02
2.451083e+03,5.125891e+02
2.452047e+03,5.150800e+02
2.453011e+03,5.131465e+02
2.453976e+03,5.045692e+02
2.454940e+03,5.051450e+02
2.455904e+03,5.114547e+02
2.456868e+03,5.110378e+02
2.457833e+03,5.054297e+02
2.458797e+03,5.013599e+02
2.459761e+03,5.001648e+02
2.460725e+03,5.047445e+02
2.461690e+03,5.101256e+02
2.462654e+03,5.079701e+02
2.463618e+03,5.052860e+02
2.464582e+03,5.066271e+02
2.465547e+03,5.098852e+02
2.466511e+03,5.152267e+02
2.467475e+03,5.153794e+02
2.468439e+03,5.086016e+02
2.469404e+03,5.037147e+02
2.470368e+03,5.106470e+02
2.471332e+03,5.090187e+02
2.472296e+03,4.991388e+02
2.473260e+03,4.934221e+02
2.474225e+03,4.953979e+02
2.475189e+03,4.979750e+02
2.476153e+03,5.009498e+02
2.477117e+03,5.017796e+02
2.478082e+03,5.013395e+02
2.479046e+03,5.042997e+02
2.480010e+03,5.073904e+02
2.480974e+03,5.063738e+02
2.481938e+03,5.032010e+02
2.482903e+03,4.982252e+02
2.483867e+03,4.952773e+02
2.484831e+03,4.961202e+02
2.485795e+03,4.982936e+02
2.486760e+03,5.006900e+02
2.487724e+03,5.047159e+02
2.488688e+03,5.109333e+02
2.489652e+03,5.104210e+02
2.490617e+03,4.902771e+02
2.491581e+03,4.882752e+02
2.492545e+03,5.013751e+02
2.493509e+03,5.089709e+02
2.494474e+03,5.078413e+02
2.495438e+03,5.066852e+02
2.496402e+03,5.058942e+02
2.497366e+03,5.078255e+02
2.498331e+03,5.095387e+02
2.499295e+03,5.035952e+02
2.500259e+03,4.956482e+02
2.501223e+03,4.903159e+02
2.502188e+03,4.887928e+02
2.503152e+03,4.964927e+02
2.504116e+03,5.009036e+02
2.505080e+03,4.983652e+02
2.506044e+03,4.945532e+02
2.507009e+03,4.918751e+02
2.507973e+03,4.896402e+02
2.508937e+03,4.881412e+02
2.509901e+03,4.887740e+02
2.510865e+03,4.919608e+02
2.511830e+03,4.903583e+02
2.512794e+03,4.862504e+02
2.513758e+03,4.880482e+02
2.514722e+03,4.939541e+02
2.515687e+03,5.001982e+02
2.516651e+03,5.030514e+02
2.517615e+03,4.985443e+02
2.518579e+03,4.912305e+02
2.519544e+03,4.841637e+02
2.520508e+03,4.811476e+02
2.521472e+03,4.839024e+02
2.522436e+03,4.861663e+02
2.523401e+03,4.827243e+02
2.524365e+03,4.790814e+02
2.525329e+03,4.754646e+02
2.526293e+03,4.782376e+02
2.527258e+03,4.900182e+02
2.528222e+03,4.884752e+02
2.529186e+03,4.791199e+02
2.530150e+03,4.811053e+02
2.531115e+03,4.900172e+02
2.532079e+03,4.867494e+02
2.533043e+03,4.798117e+02
2.534007e+03,4.780268e+02
2.534971e+03,4.790733e+02
2.535936e+03,4.832294e+02
2.536900e+03,4.854310e+02
2.537864e+03,4.834732e+02
2.538828e+03,4.823810e+02
2.539792e+03,4.845854e+02
2.540757e+03,4.847343e+02
2.541721e+03,4.822383e+02
2.542685e+03,4.798200e+02
2.543649e+03,4.781867e+02
2.544614e+03,4.794365e+02
2.545578e+03,4.825364e+02
2.546542e+03,4.860826e+02
2.547506e+03,4.885802e+02
2.548471e+03,4.828545e+02
2.549435e+03,4.777228e+02
2.550399e+03,4.819458e+02
2.551363e+03,4.884454e+02
2.552328e+03,4.923003e+02
2.553292e+03,4.958919e+02
2.554256e+03,5.013557e+02
2.555220e+03,4.971629e+02
2.556185e+03,4.818199e+02
2.557149e+03,4.737339e+02
2.558113e+03,4.761608e+02
2.559077e+03,4.788039e+02
2.560042e+03,4.808032e+02
2.561006e+03,4.820804e+02
2.561970e+03,4.833960e+02
2.562934e+03,4.849700e+02
2.563898e+03,4.858724e+02
2.564863e+03,4.831301e+02
2.565827e+03,4.822559e+02
2.566791e+03,4.949645e+02
2.567755e+03,4.975668e+02
2.568719e+03,4.837985e+02
2.569684e+03,4.726972e+02
2.570648e+03,4.735496e+02
2.571612e+03,4.743821e+02
2.572576e+03,4.755567e+02
2.573541e+03,4.811315e+02
2.574505e+03,4.887047e+02
2.575469e+03,4.860499e+02
2.576433e+03,4.774943e+02
2.577398e+03,4.685305e+02
2.578362e+03,4.623453e+02
2.579326e+03,4.641454e+02
2.580290e+03,4.700286e+02
2.581255e+03,4.784235e+02
2.582219e+03,4.826392e+02
2.583183e+03,4.729691e+02
2.584147e+03,4.705999e+02
2.585112e+03,4.762821e+02
2.586076e+03,4.751327e+02
2.587040e+03,4.648599e+02
2.588004e+03,4.688958e+02
2.588969e+03,4.778598e+02
2.589933e+03,4.701234e+02
2.590897e+03,4.567676e+02
2.591861e+03,4.650934e+02
2.592825e+03,4.735782e+02
2.593790e+03,4.676786e+02
2.594754e+03,4.588942e+02
2.595718e+03,4.534182e+02
2.596682e+03,4.537660e+02
2.597646e+03,4.608353e+02
2.598611e+03,4.591546e+02
2.599575e+03,4.490927e+02
2.600539e+03,4.469091e+02
2.601503e+03,4.525877e+02
2.602468e+03,4.584429e+02
2.603432e+03,4.630922e+02
2.604396e+03,4.638134e+02
2.605360e+03,4.625336e+02
2.606325e+03,4.568476e+02
2.607289e+03,4.564336e+02
2.608253e+03,4.667544e+02
2.609217e+03,4.722519e+02
2.610182e+03,4.625916e+02
2.611146e+03,4.568652e+02
2.612110e+03,4.557156e+02
2.613074e+03,4.531896e+02
2.614039e+03,4.490954e+02
2.615003e+03,4.448566e+02
2.615967e+03,4.430316e+02
2.616931e+03,4.505688e+02
2.617896e+03,4.585754e+02
2.618860e+03,4.514715e+02
2.619824e+03,4.476778e+02
2.620788e+03,4.540317e+02
2.621752e+03,4.611043e+02
2.622717e+03,4.651827e+02
2.623681e+03,4.646317e+02
2.624645e+03,4.598720e+02
2.625609e+03,4.560967e+02
2.626573e+03,4.536915e+02
2.627538e+03,4.515974e+02
2.628502e+03,4.500429e+02
2.629466e+03,4.488353e+02
2.630430e+03,4.474912e+02
2.631395e+03,4.444361e+02
2.632359e+03,4.421869e+02
2.633323e+03,4.412684e+02
2.634287e+03,4.450236e+02
2.635252e+03,4.539305e+02
2.636216e+03,4.579803e+02
2.637180e+03,4.553057e+02
2.638144e+03,4.567809e+02
2.639109e+03,4.599991e+02
2.640073e+03,4.571469e+02
2.641037e+03,4.534379e+02
2.642001e+03,4.561884e+02
2.642966e+03,4.596056e+02
2.643930e+03,4.607813e+02
2.644894e+03,4.588784e+02
2.645858e+03,4.498599e+02
2.646823e+03,4.448251e+02
2.647787e+03,4.440147e+02
2.648751e+03,4.487620e+02
2.649715e+03,4.575282e+02
2.650679e+03,4.556136e+02
2.651644e+03,4.481986e+02
2.652608e+03,4.428886e+02
2.653572e+03,4.401191e+02
2.654536e+03,4.416712e+02
2.655500e+03,4.452104e+02
2.656465e+03,4.505089e+02
2.657429e+03,4.527294e+02
2.658393e+03,4.501845e+02
2.659357e+03,4.432876e+02
2.660322e+03,4.341639e+02
2.661286e+03,4.337644e+02
2.662250e+03,4.384061e+02
2.663214e+03,4.358718e+02
2.664179e+03,4.325847e+02
2.665143e+03,4.393604e+02
2.666107e+03,4.447359e+02
2.667071e+03,4.426744e+02
2.668036e+03,4.396748e+02
2.669000e+03,4.374081e+02
2.669964e+03,4.390313e+02
2.670928e+03,4.432149e+02
2.671893e+03,4.411070e+02
2.672857e+03,4.346798e+02
2.673821e+03,4.361925e+02
2.674785e+03,4.387338e+02
2.675750e+03,4.350760e+02
2.676714e+03,4.292018e+02
2.677678e+03,4.214907e+02
2.678642e+03,4.218827e+02
2.679606e+03,4.333318e+02
2.680571e+03,4.359654e+02
2.681535e+03,4.271800e+02
2.682499e+03,4.337965e+02
2.683463e+03,4.510600e+02
2.684427e+03,4.560115e+02
2.685392e+03,4.528135e+02
2.686356e+03,4.433267e+02
2.687320e+03,4.359454e+02
2.688284e+03,4.371263e+02
2.689249e+03,4.432992e+02
2.690213e+03,4.529178e+02
2.691177e+03,4.512429e+02
2.692141e+03,4.320276e+02
2.693106e+03,4.326917e+02
2.694070e+03,4.447452e+02
2.695034e+03,4.477843e+02
2.695998e+03,4.447086e+02
2.696963e+03,4.381967e+02
2.697927e+03,4.343549e+02
2.698891e+03,4.358915e+02
2.699855e+03,4.372646e+02
2.700820e+03,4.367502e+02
2.701784e+03,4.291409e+02
2.702748e+03,4.165416e+02
2.703712e+03,4.203181e+02
2.704677e+03,4.341134e+02
2.705641e+03,4.368641e+02
2.706605e+03,4.352354e+02
2.707569e+03,4.350887e+02
2.708533e+03,4.361938e+02
2.709498e+03,4.385145e+02
2.710462e+03,4.384896e+02
2.711426e+03,4.340733e+02
2.712390e+03,4.302583e+02
2.713354e+03,4.271773e+02
2.714319e+03,4.250868e+02
2.715283e+03,4.240237e+02
2.716247e+03,4.243531e+02
2.717211e+03,4.277497e+02
2.718176e+03,4.361503e+02
2.719140e+03,4.409855e+02
2.720104e+03,4.350331e+02
2.721068e+03,4.267492e+02
2.722033e+03,4.181788e+02
2.722997e+03,4.215096e+02
2.723961e+03,4.326769e+02
2.724925e+03,4.363154e+02
2.725890e+03,4.350258e+02
2.726854e+03,4.311803e+02
2.727818e+03,4.285612e+02
2.728782e+03,4.291061e+02
2.729747e+03,4.274182e+02
2.730711e+03,4.177288e+02
2.731675e+03,4.178188e+02
2.732639e+03,4.256772e+02
2.733604e+03,4.307837e+02
2.734568e+03,4.326047e+02
2.735532e+03,4.300658e+02
2.736496e+03,4.266771e+02
2.737460e+03,4.252702e+02
2.738425e+03,4.251685e+02
2.739389e+03,4.264533e+02
2.740353e+03,4.241666e+02
2.741317e+03,4.184835e+02
2.742281e+03,4.206413e+02
2.743246e+03,4.281848e+02
2.744210e+03,4.318749e+02
2.745174e+03,4.321868e+02
2.746138e+03,4.292026e+02
2.747103e+03,4.277627e+02
2.748067e+03,4.302456e+02
2.749031e+03,4.297684e+02
2.749995e+03,4.195763e+02
2.750960e+03,4.198753e+02
2.751924e+03,4.261841e+02
2.752888e+03,4.226248e+02
2.753852e+03,4.144398e+02
2.754817e+03,4.145882e+02
2.755781e+03,4.173577e+02
2.756745e+03,4.201097e+02
2.757709e+03,4.198163e+02
2.758674e+03,4.152216e+02
2.759638e+03,4.161290e+02
2.760602e+03,4.231777e+02
2.761566e+03,4.209364e+02
2.762531e+03,4.143665e+02
2.763495e+03,4.102843e+02
2.764459e+03,4.085898e+02
2.765423e+03,4.109094e+02
2.766387e+03,4.140404e+02
2.767352e+03,4.174318e+02
2.768316e+03,4.188345e+02
2.769280e+03,4.178415e+02
2.770244e+03,4.143011e+02
2.771208e+03,4.107133e+02
2.772173e+03,4.109849e+02
2.773137e+03,4.131564e+02
2.774101e+03,4.170307e+02
2.775065e+03,4.186455e+02
2.776030e+03,4.151042e+02
2.776994e+03,4.146377e+02
2.777958e+03,4.165685e+02
2.778922e+03,4.147904e+02
2.779887e+03,4.102742e+02
2.780851e+03,4.037018e+02
2.781815e+03,4.011399e+02
2.782779e+03,4.071935e+02
2.783744e+03,4.119029e+02
2.784708e+03,4.081004e+02
2.785672e+03,4.026372e+02
2.786636e+03,3.975637e+02
2.787601e+03,4.020266e+02
2.788565e+03,4.121843e+02
2.789529e+03,4.182433e+02
2.790493e+03,4.216385e+02
2.791458e+03,4.240036e+02
2.792422e+03,4.203402e+02
2.793386e+03,4.108862e+02
2.794350e+03,4.062191e+02
2.795314e+03,4.086901e+02
2.796279e+03,4.137804e+02
2.797243e+03,4.175881e+02
2.798207e+03,4.144970e+02
2.799171e+03,4.102710e+02
2.800135e+03,4.122785e+02
2.801100e+03,4.124008e+02
2.802064e+03,4.088909e+02
2.803028e+03,4.097466e+02
2.803992e+03,4.138444e+02
2.804957e+03,4.120269e+02
2.805921e+03,4.082513e+02
2.806885e+03,4.116819e+02
2.807849e+03,4.134831e+02
2.808814e+03,4.093326e+02
2.809778e+03,4.055768e+02
2.810742e+03,4.058147e+02
2.811706e+03,4.032628e+02
2.812671e+03,3.997199e+02
2.813635e+03,4.038806e+02
2.814599e+03,4.104727e+02
2.815563e+03,4.085532e+02
2.816528e+03,4.064634e+02
2.817492e+03,4.079317e+02
2.818456e+03,4.096911e+02
2.819420e+03,4.108540e+02
2.820385e+03,4.123875e+02
2.821349e+03,4.146384e+02
2.822313e+03,4.207476e+02
2.823277e+03,4.192417e+02
2.824241e+03,3.996079e+02
2.825206e+03,3.893405e+02
2.826170e+03,4.091894e+02
2.827134e+03,4.181121e+02
2.828098e+03,4.130859e+02
2.829063e+03,4.143236e+02
2.830027e+03,4.187222e+02
2.830991e+03,4.193883e+02
2.831955e+03,4.181095e+02
2.832919e+03,4.131443e+02
2.833884e+03,4.097377e+02
2.834848e+03,4.084813e+02
2.835812e+03,4.096848e+02
2.836776e+03,4.127599e+02
2.837741e+03,4.153518e+02
2.838705e+03,4.156689e+02
2.839669e+03,4.119189e+02
2.840633e+03,4.059267e+02
2.841598e+03,3.980772e+02
2.842562e+03,3.982021e+02
2.843526e+03,4.093261e+02
2.844490e+03,4.045763e+02
2.845455e+03,3.936449e+02
2.846419e+03,3.944197e+02
2.847383e+03,4.015288e+02
2.848347e+03,4.127806e+02
2.849312e+03,4.230334e+02
2.850276e+03,4.310349e+02
2.851240e+03,4.303364e+02
2.852204e+03,4.225109e+02
2.853168e+03,4.136284e+02
2.854133e+03,4.057734e+02
2.855097e+03,4.010475e+02
2.856061e+03,3.988492e+02
2.857025e+03,3.976666e+02
2.857990e+03,4.049331e+02
2.858954e+03,4.234436e+02
2.859918e+03,4.225493e+02
2.860882e+03,4.153045e+02
2.861846e+03,4.250872e+02
2.862811e+03,4.342227e+02
2.863775e+03,4.244605e+02
2.864739e+03,4.134350e+02
2.865703e+03,4.052502e+02
2.866668e+03,4.071421e+02
2.867632e+03,4.155532e+02
2.868596e+03,4.229865e+02
2.869560e+03,4.271461e+02
2.870525e+03,4.235667e+02
2.871489e+03,4.196016e+02
2.872453e+03,4.168759e+02
2.873417e+03,4.240356e+02
2.874382e+03,4.376109e+02
2.875346e+03,4.318506e+02
2.876310e+03,4.191910e+02
2.877274e+03,4.165536e+02
2.878239e+03,4.178744e+02
2.879203e+03,4.197821e+02
2.880167e+03,4.238317e+02
2.881131e+03,4.311957e+02
2.882095e+03,4.350439e+02
2.883060e+03,4.370543e+02
2.884024e+03,4.411718e+02
2.884988e+03,4.410236e+02
2.885952e+03,4.273331e+02
2.886917e+03,4.241141e+02
2.887881e+03,4.382203e+02
2.888845e+03,4.362425e+02
2.889809e+03,4.270467e+02
2.890773e+03,4.345929e+02
2.891738e+03,4.434179e+02
2.892702e+03,4.339603e+02
2.893666e+03,4.269870e+02
2.894630e+03,4.264431e+02
2.895595e+03,4.323564e+02
2.896559e+03,4.408539e+02
2.897523e+03,4.390009e+02
2.898487e+03,4.325082e+02
2.899452e+03,4.211276e+02
2.900416e+03,4.241303e+02
2.901380e+03,4.431570e+02
2.902344e+03,4.469831e+02
2.903309e+03,4.337734e+02
2.904273e+03,4.404772e+02
2.905237e+03,4.469770e+02
2.906201e+03,4.303465e+02
2.907166e+03,4.134487e+02
2.908130e+03,4.061953e+02
2.909094e+03,4.044590e+02
2.910058e+03,4.083552e+02
2.911022e+03,4.232266e+02
2.911987e+03,4.376328e+02
2.912951e+03,4.391765e+02
2.913915e+03,4.340752e+02
2.914879e+03,4.226061e+02
2.915844e+03,4.241980e+02
2.916808e+03,4.370609e+02
2.917772e+03,4.351459e+02
2.918736e+03,4.248020e+02
2.919700e+03,4.146055e+02
2.920665e+03,4.068360e+02
2.921629e+03,4.040005e+02
2.922593e+03,4.025103e+02
2.923557e+03,4.034246e+02
2.924522e+03,4.139868e+02
2.925486e+03,4.259605e+02
2.926450e+03,4.159829e+02
2.927414e+03,4.080737e+02
2.928379e+03,4.147213e+02
2.929343e+03,4.170761e+02
2.930307e+03,4.132847e+02
2.931271e+03,4.028631e+02
2.932236e+03,3.920923e+02
2.933200e+03,3.903790e+02
2.934164e+03,3.942160e+02
2.935128e+03,4.018215e+02
2.936093e+03,4.099109e+02
2.937057e+03,4.167010e+02
2.938021e+03,4.069222e+02
2.938985e+03,3.938091e+02
2.939949e+03,4.033555e+02
2.940914e+03,4.056447e+02
2.941878e+03,3.910748e+02
2.942842e+03,3.905171e+02
2.943806e+03,4.068827e+02
2.944771e+03,4.082862e+02
2.945735e+03,4.029708e+02
2.946699e+03,4.016140e+02
2.947663e+03,4.041508e+02
2.948627e+03,4.093661e+02
2.949592e+03,4.086912e+02
2.950556e+03,4.015916e+02
2.951520e+03,3.951093e+02
2.952484e+03,3.904391e+02
2.953449e+03,3.873415e+02
2.954413e+03,3.924102e+02
2.955377e+03,4.082709e+02
2.956341e+03,4.256505e+02
2.957306e+03,4.395000e+02
2.958270e+03,4.356751e+02
2.959234e+03,4.201770e+02
2.960198e+03,3.987066e+02
2.961163e+03,3.897868e+02
2.962127e+03,4.029534e+02
2.963091e+03,4.014419e+02
2.964055e+03,3.880474e+02
2.965020e+03,3.837987e+02
2.965984e+03,3.850918e+02
2.966948e+03,3.886954e+02
2.967912e+03,3.898380e+02
2.968876e+03,3.862435e+02
2.969841e+03,3.778103e+02
2.970805e+03,3.711214e+02
2.971769e+03,3.823139e+02
2.972733e+03,3.863406e+02
2.973698e+03,3.621716e+02
2.974662e+03,3.539612e+02
2.975626e+03,3.745490e+02
2.976590e+03,3.880117e+02
2.977554e+03,3.915512e+02
2.978519e+03,3.810527e+02
2.979483e+03,3.725483e+02
2.980447e+03,3.784308e+02
2.981411e+03,3.767386e+02
2.982376e+03,3.686516e+02
2.983340e+03,3.864668e+02
2.984304e+03,4.015859e+02
2.985268e+03,3.833786e+02
2.986233e+03,3.735359e+02
2.987197e+03,4.010459e+02
2.988161e+03,4.008353e+02
2.989125e+03,3.808430e+02
2.990090e+03,3.775630e+02
2.991054e+03,3.812955e+02
2.992018e+03,3.845197e+02
2.992982e+03,3.811994e+02
2.993947e+03,3.673450e+02
2.994911e+03,3.663886e+02
2.995875e+03,3.734655e+02
2.996839e+03,3.797277e+02
2.997803e+03,3.807274e+02
2.998768e+03,3.738839e+02
2.999732e+03,3.700791e+02
3.000696e+03,3.709023e+02
3.001660e+03,3.619139e+02
3.002625e+03,3.517633e+02
3.003589e+03,3.489456e+02
3.004553e+03,3.509142e+02
3.005517e+03,3.568493e+02
3.006481e+03,3.615973e+02
3.007446e+03,3.638961e+02
3.008410e+03,3.637151e+02
3.009374e+03,3.622744e+02
3.010338e+03,3.608596e+02
3.011303e+03,3.603201e+02
3.012267e+03,3.601896e+02
3.013231e+03,3.606392e+02
3.014195e+03,3.638174e+02
3.015160e+03,3.775739e+02
3.016124e+03,3.825112e+02
3.017088e+03,3.730335e+02
3.018052e+03,3.748564e+02
3.019017e+03,3.884152e+02
3.019981e+03,3.803990e+02
3.020945e+03,3.717669e+02
3.021909e+03,3.829403e+02
3.022874e+03,3.849308e+02
3.023838e+03,3.734325e+02
3.024802e+03,3.676686e+02
3.025766e+03,3.665232e+02
3.026730e+03,3.618481e+02
3.027695e+03,3.576276e+02
3.028659e+03,3.553324e+02
3.029623e+03,3.650122e+02
3.030587e+03,3.821227e+02
3.031552e+03,3.807081e+02
3.032516e+03,3.731327e+02
3.033480e+03,3.756630e+02
3.034444e+03,3.729662e+02
3.035408e+03,3.636344e+02
3.036373e+03,3.628347e+02
3.037337e+03,3.655453e+02
3.038301e+03,3.486505e+02
3.039265e+03,3.381673e+02
3.040230e+03,3.523395e+02
3.041194e+03,3.736220e+02
3.042158e+03,3.927279e+02
3.043122e+03,3.843318e+02
3.044087e+03,3.658219e+02
3.045051e+03,3.577551e+02
3.046015e+03,3.510767e+02
3.046979e+03,3.444440e+02
3.047944e+03,3.531801e+02
3.048908e+03,3.694505e+02
3.049872e+03,3.824934e+02
3.050836e+03,3.837822e+02
3.051801e+03,3.638615e+02
3.052765e+03,3.610991e+02
3.053729e+03,3.741646e+02
3.054693e+03,3.697811e+02
3.055657e+03,3.650661e+02
3.056622e+03,3.717820e+02
3.057586e+03,3.778152e+02
3.058550e+03,3.794739e+02
3.059514e+03,3.698657e+02
3.060479e+03,3.602640e+02
3.061443e+03,3.735074e+02
3.062407e+03,3.785972e+02
3.063371e+03,3.683435e+02
3.064335e+03,3.576414e+02
3.065300e+03,3.510873e+02
3.066264e+03,3.649099e+02
3.067228e+03,3.712161e+02
3.068192e+03,3.465519e+02
3.069157e+03,3.434798e+02
3.070121e+03,3.610923e+02
3.071085e+03,3.727333e+02
3.072049e+03,3.786486e+02
3.073014e+03,3.819589e+02
3.073978e+03,3.752803e+02
3.074942e+03,3.569332e+02
3.075906e+03,3.452129e+02
3.076871e+03,3.456234e+02
3.077835e+03,3.671232e+02
3.078799e+03,3.836598e+02
3.079763e+03,3.782259e+02
3.080728e+03,3.639917e+02
3.081692e+03,3.464464e+02
3.082656e+03,3.383753e+02
3.083620e+03,3.349660e+02
3.084584e+03,3.322860e+02
3.085549e+03,3.431841e+02
3.086513e+03,3.681130e+02
3.087477e+03,3.565225e+02
3.088441e+03,3.386669e+02
3.089406e+03,3.487284e+02
3.090370e+03,3.613769e+02
3.091334e+03,3.701302e+02
3.092298e+03,3.657366e+02
3.093262e+03,3.597806e+02
3.094227e+03,3.864185e+02
3.095191e+03,3.960398e+02
3.096155e+03,3.691399e+02
3.097119e+03,3.646706e+02
3.098084e+03,3.735339e+02
3.099048e+03,3.696891e+02
3.100012e+03,3.617152e+02
3.100976e+03,3.562204e+02
3.101941e+03,3.461955e+02
3.102905e+03,3.356627e+02
3.103869e+03,3.457860e+02
3.104833e+03,3.577208e+02
3.105798e+03,3.593604e+02
3.106762e+03,3.620322e+02
3.107726e+03,3.683075e+02
3.108690e+03,3.678640e+02
3.109655e+03,3.600743e+02
3.110619e+03,3.326132e+02
3.111583e+03,3.370227e+02
3.112547e+03,3.709809e+02
3.113511e+03,3.642765e+02
3.114476e+03,3.405075e+02
3.115440e+03,3.634977e+02
3.116404e+03,3.778471e+02
3.117368e+03,3.613866e+02
3.118333e+03,3.613767e+02
3.119297e+03,3.686383e+02
3.120261e+03,3.655561e+02
3.121225e+03,3.587548e+02
3.122189e+03,3.514379e+02
3.123154e+03,3.664607e+02
3.124118e+03,3.914805e+02
3.125082e+03,3.687237e+02
3.126046e+03,3.512245e+02
3.127011e+03,3.646817e+02
3.127975e+03,3.619648e+02
3.128939e+03,3.462889e+02
3.129903e+03,3.709679e+02
3.130868e+03,3.959356e+02
3.131832e+03,3.765172e+02
3.132796e+03,3.746153e+02
3.133760e+03,3.877651e+02
3.134725e+03,3.739342e+02
3.135689e+03,3.599757e+02
3.136653e+03,3.731432e+02
3.137617e+03,3.799099e+02
3.138582e+03,3.707671e+02
3.139546e+03,3.743929e+02
3.140510e+03,3.814925e+02
3.141474e+03,3.843955e+02
3.142438e+03,3.776395e+02
3.143403e+03,3.639590e+02
3.144367e+03,3.627868e+02
3.145331e+03,3.667594e+02
3.146295e+03,3.627777e+02
3.147260e+03,3.593847e+02
3.148224e+03,3.587993e+02
3.149188e+03,3.749935e+02
3.150152e+03,3.880649e+02
3.151116e+03,3.718778e+02
3.152081e+03,3.570290e+02
3.153045e+03,3.562701e+02
3.154009e+03,3.479611e+02
3.154973e+03,3.434654e+02
3.155938e+03,3.805438e+02
3.156902e+03,3.909246e+02
3.157866e+03,3.602447e+02
3.158830e+03,3.484633e+02
3.159795e+03,3.555621e+02
3.160759e+03,3.705490e+02
3.161723e+03,3.840953e+02
3.162687e+03,3.933703e+02
3.163652e+03,3.895036e+02
3.164616e+03,3.791667e+02
3.165580e+03,3.755711e+02
3.166544e+03,3.715977e+02
3.167509e+03,3.645149e+02
3.168473e+03,3.592740e+02
3.169437e+03,3.543069e+02
3.170401e+03,3.348616e+02
3.171365e+03,3.304486e+02
3.172330e+03,3.551674e+02
3.173294e+03,3.838712e+02
3.174258e+03,4.029152e+02
3.175222e+03,3.903191e+02
3.176187e+03,3.746914e+02
3.177151e+03,3.747391e+02
3.178115e+03,3.662439e+02
3.179079e+03,3.543837e+02
3.180043e+03,3.603051e+02
3.181008e+03,3.686609e+02
3.181972e+03,3.733504e+02
3.182936e+03,3.677808e+02
3.183900e+03,3.580087e+02
3.184865e+03,3.624267e+02
3.185829e+03,3.709066e+02
3.186793e+03,3.866790e+02
3.187757e+03,3.757015e+02
3.188722e+03,3.533024e+02
3.189686e+03,3.508463e+02
3.190650e+03,3.696891e+02
3.191614e+03,4.044403e+02
3.192579e+03,3.848476e+02
3.193543e+03,3.364790e+02
3.194507e+03,3.544100e+02
3.195471e+03,3.802030e+02
3.196436e+03,3.909218e+02
3.197400e+03,3.847016e+02
3.198364e+03,3.760843e+02
3.199328e+03,3.891792e+02
3.200292e+03,3.960041e+02
3.201257e+03,0.000000e+00
3.202221e+03,0.000000e+00
3.203185e+03,0.000000e+00
3.204149e+03,0.000000e+00
3.205114e+03,0.000000e+00
3.206078e+03,0.000000e+00
3.207042e+03,0.000000e+00
3.208006e+03,0.000000e+00
3.208970e+03,0.000000e+00
3.209935e+03,0.000000e+00
3.210899e+03,0.000000e+00
3.211863e+03,0.000000e+00
3.212827e+03,0.000000e+00
3.213792e+03,0.000000e+00
3.214756e+03,0.000000e+00
3.215720e+03,0.000000e+00
3.216684e+03,0.000000e+00
3.217649e+03,0.000000e+00
3.218613e+03,0.000000e+00
3.219577e+03,0.000000e+00
3.220541e+03,0.000000e+00
3.221506e+03,0.000000e+00
3.222470e+03,0.000000e+00
3.223434e+03,0.000000e+00
3.224398e+03,0.000000e+00
3.225363e+03,0.000000e+00
3.226327e+03,0.000000e+00
3.227291e+03,0.000000e+00
3.228255e+03,0.000000e+00
3.229219e+03,0.000000e+00
3.230184e+03,0.000000e+00
3.231148e+03,0.000000e+00
3.232112e+03,0.000000e+00
3.233076e+03,0.000000e+00
3.234041e+03,0.000000e+00
3.235005e+03,0.000000e+00
3.235969e+03,0.000000e+00
3.236933e+03,0.000000e+00
3.237897e+03,0.000000e+00
3.238862e+03,0.000000e+00
3.239826e+03,0.000000e+00
3.240790e+03,0.000000e+00
3.241754e+03,0.000000e+00
3.242719e+03,0.000000e+00
3.243683e+03,0.000000e+00
3.244647e+03,0.000000e+00
3.245611e+03,0.000000e+00
3.246576e+03,0.000000e+00
3.247540e+03,0.000000e+00
3.248504e+03,0.000000e+00
3.249468e+03,0.000000e+00
3.250433e+03,0.000000e+00
3.251397e+03,0.000000e+00
3.252361e+03,0.000000e+00
3.253325e+03,0.000000e+00
3.254290e+03,0.000000e+00
3.255254e+03,0.000000e+00
3.256218e+03,0.000000e+00
3.257182e+03,0.000000e+00
3.258146e+03,0.000000e+00
3.259111e+03,0.000000e+00
3.260075e+03,0.000000e+00
3.261039e+03,0.000000e+00
3.262003e+03,0.000000e+00
3.262968e+03,0.000000e+00
3.263932e+03,0.000000e+00
3.264896e+03,0.000000e+00
3.265860e+03,0.000000e+00
3.266824e+03,0.000000e+00
3.267789e+03,0.000000e+00
3.268753e+03,0.000000e+00
3.269717e+03,0.000000e+00
3.270681e+03,0.000000e+00
3.271646e+03,0.000000e+00
3.272610e+03,0.000000e+00
3.273574e+03,0.000000e+00
3.274538e+03,0.000000e+00
3.275503e+03,0.000000e+00
3.276467e+03,0.000000e+00
3.277431e+03,0.000000e+00
3.278395e+03,0.000000e+00
3.279360e+03,0.000000e+00
3.280324e+03,0.000000e+00
3.281288e+03,0.000000e+00
3.282252e+03,0.000000e+00
3.283217e+03,0.000000e+00
3.284181e+03,0.000000e+00
3.285145e+03,0.000000e+00
3.286109e+03,0.000000e+00
3.287073e+03,0.000000e+00
3.288038e+03,0.000000e+00
3.289002e+03,0.000000e+00
3.289966e+03,0.000000e+00
3.290930e+03,0.000000e+00
3.291895e+03,0.000000e+00
3.292859e+03,0.000000e+00
3.293823e+03,0.000000e+00
3.294787e+03,0.000000e+00
3.295751e+03,0.000000e+00
3.296716e+03,0.000000e+00
3.297680e+03,0.000000e+00
3.298644e+03,0.000000e+00
3.299608e+03,0.000000e+00
3.300573e+03,0.000000e+00
3.301537e+03,0.000000e+00
3.302501e+03,0.000000e+00
3.303465e+03,0.000000e+00
3.304430e+03,0.000000e+00
3.305394e+03,0.000000e+00
3.306358e+03,0.000000e+00
3.307322e+03,0.000000e+00
3.308287e+03,0.000000e+00
3.309251e+03,0.000000e+00
3.310215e+03,0.000000e+00
3.311179e+03,0.000000e+00
3.312144e+03,0.000000e+00
3.313108e+03,0.000000e+00
3.314072e+03,0.000000e+00
3.315036e+03,0.000000e+00
3.316000e+03,0.000000e+00
3.316965e+03,0.000000e+00
3.317929e+03,0.000000e+00
3.318893e+03,0.000000e+00
3.319857e+03,0.000000e+00
3.320822e+03,0.000000e+00
3.321786e+03,0.000000e+00
3.322750e+03,0.000000e+00
3.323714e+03,0.000000e+00
3.324678e+03,0.000000e+00
3.325643e+03,0.000000e+00
3.326607e+03,0.000000e+00
3.327571e+03,0.000000e+00
3.328535e+03,0.000000e+00
3.329500e+03,0.000000e+00
3.330464e+03,0.000000e+00
3.331428e+03,0.000000e+00
3.332392e+03,0.000000e+00
3.333357e+03,0.000000e+00
3.334321e+03,0.000000e+00
3.335285e+03,0.000000e+00
3.336249e+03,0.000000e+00
3.337214e+03,0.000000e+00
3.338178e+03,0.000000e+00
3.339142e+03,0.000000e+00
3.340106e+03,0.000000e+00
3.341071e+03,0.000000e+00
3.342035e+03,0.000000e+00
3.342999e+03,0.000000e+00
3.343963e+03,0.000000e+00
3.344927e+03,0.000000e+00
3.345892e+03,0.000000e+00
3.346856e+03,0.000000e+00
3.347820e+03,0.000000e+00
3.348784e+03,0.000000e+00
3.349749e+03,0.000000e+00
3.350713e+03,0.000000e+00
3.351677e+03,0.000000e+00
3.352641e+03,0.000000e+00
3.353605e+03,0.000000e+00
3.354570e+03,0.000000e+00
3.355534e+03,0.000000e+00
3.356498e+03,0.000000e+00
3.357462e+03,0.000000e+00
3.358427e+03,0.000000e+00
3.359391e+03,0.000000e+00
3.360355e+03,0.000000e+00
3.361319e+03,0.000000e+00
3.362284e+03,0.000000e+00
3.363248e+03,0.000000e+00
3.364212e+03,0.000000e+00
3.365176e+03,0.000000e+00
3.366141e+03,0.000000e+00
3.367105e+03,0.000000e+00
3.368069e+03,0.000000e+00
3.369033e+03,0.000000e+00
3.369998e+03,0.000000e+00
3.370962e+03,0.000000e+00
3.371926e+03,0.000000e+00
3.372890e+03,0.000000e+00
3.373854e+03,0.000000e+00
3.374819e+03,0.000000e+00
3.375783e+03,0.000000e+00
3.376747e+03,0.000000e+00
3.377711e+03,0.000000e+00
3.378676e+03,0.000000e+00
3.379640e+03,0.000000e+00
3.380604e+03,0.000000e+00
3.381568e+03,0.000000e+00
3.382532e+03,0.000000e+00
3.383497e+03,0.000000e+00
3.384461e+03,0.000000e+00
3.385425e+03,0.000000e+00
3.386389e+03,0.000000e+00
3.387354e+03,0.000000e+00
3.388318e+03,0.000000e+00
3.389282e+03,0.000000e+00
3.390246e+03,0.000000e+00
3.391211e+03,0.000000e+00
3.392175e+03,0.000000e+00
3.393139e+03,0.000000e+00
3.394103e+03,0.000000e+00
3.395068e+03,0.000000e+00
3.396032e+03,0.000000e+00
3.396996e+03,0.000000e+00
3.397960e+03,0.000000e+00
3.398925e+03,0.000000e+00
3.399889e+03,0.000000e+00
3.400853e+03,0.000000e+00
3.401817e+03,0.000000e+00
3.402781e+03,0.000000e+00
3.403746e+03,0.000000e+00
3.404710e+03,0.000000e+00
3.405674e+03,0.000000e+00
3.406638e+03,0.000000e+00
3.407603e+03,0.000000e+00
3.408567e+03,0.000000e+00
3.409531e+03,0.000000e+00
3.410495e+03,0.000000e+00
3.411459e+03,0.000000e+00
3.412424e+03,0.000000e+00
3.413388e+03,0.000000e+00
3.414352e+03,0.000000e+00
3.415316e+03,0.000000e+00
3.416281e+03,0.000000e+00
3.417245e+03,0.000000e+00
3.418209e+03,0.000000e+00
3.419173e+03,0.000000e+00
3.420138e+03,0.000000e+00
3.421102e+03,0.000000e+00
3.422066e+03,0.000000e+00
3.423030e+03,0.000000e+00
3.423995e+03,0.000000e+00
3.424959e+03,0.000000e+00
3.425923e+03,0.000000e+00
3.426887e+03,0.000000e+00
3.427852e+03,0.000000e+00
3.428816e+03,0.000000e+00
3.429780e+03,0.000000e+00
3.430744e+03,0.000000e+00
3.431708e+03,0.000000e+00
3.432673e+03,0.000000e+00
3.433637e+03,0.000000e+00
3.434601e+03,0.000000e+00
3.435565e+03,0.000000e+00
3.436530e+03,0.000000e+00
3.437494e+03,0.000000e+00
3.438458e+03,0.000000e+00
3.439422e+03,0.000000e+00
3.440386e+03,0.000000e+00
3.441351e+03,0.000000e+00
3.442315e+03,0.000000e+00
3.443279e+03,0.000000e+00
3.444243e+03,0.000000e+00
3.445208e+03,0.000000e+00
3.446172e+03,0.000000e+00
3.447136e+03,0.000000e+00
3.448100e+03,0.000000e+00
3.449065e+03,0.000000e+00
3.450029e+03,0.000000e+00
3.450993e+03,0.000000e+00
3.451957e+03,0.000000e+00
3.452922e+03,0.000000e+00
3.453886e+03,0.000000e+00
3.454850e+03,0.000000e+00
3.455814e+03,0.000000e+00
3.456779e+03,0.000000e+00
3.457743e+03,0.000000e+00
3.458707e+03,0.000000e+00
3.459671e+03,0.000000e+00
3.460635e+03,0.000000e+00
3.461600e+03,0.000000e+00
3.462564e+03,0.000000e+00
3.463528e+03,0.000000e+00
3.464492e+03,0.000000e+00
3.465457e+03,0.000000e+00
3.466421e+03,0.000000e+00
3.467385e+03,0.000000e+00
3.468349e+03,0.000000e+00
3.469313e+03,0.000000e+00
3.470278e+03,0.000000e+00
3.471242e+03,0.000000e+00
3.472206e+03,0.000000e+00
3.473170e+03,0.000000e+00
3.474135e+03,0.000000e+00
3.475099e+03,0.000000e+00
3.476063e+03,0.000000e+00
3.477027e+03,0.000000e+00
3.477992e+03,0.000000e+00
3.478956e+03,0.000000e+00
3.479920e+03,0.000000e+00
3.480884e+03,0.000000e+00
3.481849e+03,0.000000e+00
3.482813e+03,0.000000e+00
3.483777e+03,0.000000e+00
3.484741e+03,0.000000e+00
3.485706e+03,0.000000e+00
3.486670e+03,0.000000e+00
3.487634e+03,0.000000e+00
3.488598e+03,0.000000e+00
3.489563e+03,0.000000e+00
3.490527e+03,0.000000e+00
3.491491e+03,0.000000e+00
3.492455e+03,0.000000e+00
3.493419e+03,0.000000e+00
3.494384e+03,0.000000e+00
3.495348e+03,0.000000e+00
3.496312e+03,0.000000e+00
3.497276e+03,0.000000e+00
3.498240e+03,0.000000e+00
3.499205e+03,0.000000e+00
3.500169e+03,0.000000e+00
