9.931763e+01,0.000000e+00
1.002819e+02,0.000000e+00
1.012461e+02,0.000000e+00
1.022103e+02,0.000000e+00
1.031746e+02,0.000000e+00
1.041388e+02,0.000000e+00
1.051030e+02,0.000000e+00
1.060673e+02,0.000000e+00
1.070315e+02,0.000000e+00
1.079957e+02,0.000000e+00
1.089600e+02,0.000000e+00
1.099242e+02,0.000000e+00
1.108884e+02,0.000000e+00
1.118527e+02,0.000000e+00
1.128169e+02,0.000000e+00
1.137811e+02,0.000000e+00
1.147454e+02,0.000000e+00
1.157096e+02,0.000000e+00
1.166738e+02,0.000000e+00
1.176381e+02,0.000000e+00
1.186023e+02,0.000000e+00
1.195665e+02,0.000000e+00
1.205308e+02,0.000000e+00
1.214950e+02,0.000000e+00
1.224592e+02,0.000000e+00
1.234235e+02,0.000000e+00
1.243877e+02,0.000000e+00
1.253519e+02,0.000000e+00
1.263162e+02,0.000000e+00
1.272804e+02,0.000000e+00
1.282446e+02,0.000000e+00
1.292089e+02,0.000000e+00
1.301731e+02,0.000000e+00
1.311373e+02,0.000000e+00
1.321016e+02,0.000000e+00
1.330658e+02,0.000000e+00
1.340300e+02,0.000000e+00
1.349943e+02,0.000000e+00
1.359585e+02,0.000000e+00
1.369227e+02,0.000000e+00
1.378870e+02,0.000000e+00
1.388512e+02,0.000000e+00
1.398154e+02,0.000000e+00
1.407797e+02,0.000000e+00
1.417439e+02,0.000000e+00
1.427081e+02,0.000000e+00
1.436724e+02,0.000000e+00
1.446366e+02,0.000000e+00
1.456008e+02,0.000000e+00
1.465651e+02,0.000000e+00
1.475293e+02,0.000000e+00
1.484935e+02,0.000000e+00
1.494578e+02,0.000000e+00
1.504220e+02,0.000000e+00
1.513862e+02,0.000000e+00
1.523505e+02,0.000000e+00
1.533147e+02,0.000000e+00
1.542789e+02,0.000000e+00
1.552432e+02,0.000000e+00
1.562074e+02,0.000000e+00
1.571716e+02,0.000000e+00
1.581359e+02,0.000000e+00
1.591001e+02,0.000000e+00
1.600643e+02,0.000000e+00
1.610286e+02,0.000000e+00
1.619928e+02,0.000000e+00
1.629570e+02,0.000000e+00
1.639213e+02,0.000000e+00
1.648855e+02,0.000000e+00
1.658497e+02,0.000000e+00
1.668140e+02,0.000000e+00
1.677782e+02,0.000000e+00
1.687424e+02,0.000000e+00
1.697067e+02,0.000000e+00
1.706709e+02,0.000000e+00
1.716351e+02,0.000000e+00
1.725994e+02,0.000000e+00
1.735636e+02,0.000000e+00
1.745278e+02,0.000000e+00
1.754921e+02,0.000000e+00
1.764563e+02,0.000000e+00
1.774205e+02,0.000000e+00
1.783848e+02,0.000000e+00
1.793490e+02,0.000000e+00
1.803132e+02,0.000000e+00
1.812775e+02,0.000000e+00
1.822417e+02,0.000000e+00
1.832059e+02,0.000000e+00
1.841702e+02,0.000000e+00
1.851344e+02,0.000000e+00
1.860986e+02,0.000000e+00
1.870629e+02,0.000000e+00
1.880271e+02,0.000000e+00
1.889913e+02,0.000000e+00
1.899556e+02,0.000000e+00
1.909198e+02,0.000000e+00
1.918840e+02,0.000000e+00
1.928483e+02,0.000000e+00
1.938125e+02,0.000000e+00
1.947767e+02,0.000000e+00
1.957410e+02,0.000000e+00
1.967052e+02,0.000000e+00
1.976694e+02,0.000000e+00
1.986337e+02,0.000000e+00
1.995979e+02,1.046964e+04
2.005621e+02,1.047981e+04
2.015264e+02,1.049152e+04
2.024906e+02,1.050564e+04
2.034548e+02,1.052034e+04
2.044191e+02,1.053340e+04
2.053833e+02,1.054303e+04
2.063475e+02,1.054905e+04
2.073118e+02,1.055229e+04
2.082760e+02,1.055275e+04
2.092402e+02,1.055023e+04
2.102045e+02,1.054658e+04
2.111687e+02,1.054622e+04
2.121329e+02,1.055114e+04
2.130972e+02,1.056043e+04
2.140614e+02,1.057110e+04
2.150256e+02,1.057994e+04
2.159899e+02,1.058612e+04
2.169541e+02,1.059435e+04
2.179183e+02,1.060919e+04
2.188826e+02,1.062824e+04
2.198468e+02,1.064671e+04
2.208110e+02,1.066058e+04
2.217753e+02,1.066859e+04
2.227395e+02,1.067257e+04
2.237037e+02,1.067718e+04
2.246680e+02,1.068221e+04
2.256322e+02,1.068503e+04
2.265964e+02,1.068749e+04
2.275607e+02,1.069241e+04
2.285249e+02,1.070199e+04
2.294892e+02,1.071674e+04
2.304534e+02,1.073503e+04
2.314176e+02,1.075159e+04
2.323819e+02,1.076485e+04
2.333461e+02,1.077655e+04
2.343103e+02,1.078854e+04
2.352746e+02,1.080180e+04
2.362388e+02,1.081599e+04
2.372030e+02,1.082920e+04
2.381673e+02,1.083688e+04
2.391315e+02,1.083789e+04
2.400957e+02,1.083586e+04
2.410600e+02,1.083374e+04
2.420242e+02,1.083454e+04
2.429884e+02,1.084039e+04
2.439527e+02,1.085114e+04
2.449169e+02,1.086350e+04
2.458811e+02,1.087555e+04
2.468454e+02,1.088743e+04
2.478096e+02,1.089928e+04
2.487738e+02,1.091119e+04
2.497381e+02,1.092293e+04
2.507023e+02,1.093465e+04
2.516665e+02,1.094691e+04
2.526308e+02,1.095972e+04
2.535950e+02,1.096986e+04
2.545592e+02,1.097477e+04
2.555235e+02,1.097477e+04
2.564877e+02,1.097263e+04
2.574519e+02,1.097223e+04
2.584161e+02,1.097703e+04
2.593804e+02,1.098841e+04
2.603446e+02,1.100378e+04
2.613088e+02,1.102010e+04
2.622731e+02,1.103715e+04
2.632373e+02,1.105562e+04
2.642015e+02,1.107264e+04
2.651658e+02,1.108527e+04
2.661300e+02,1.109288e+04
2.670942e+02,1.109793e+04
2.680585e+02,1.110515e+04
2.690227e+02,1.111871e+04
2.699869e+02,1.113241e+04
2.709512e+02,1.114052e+04
2.719154e+02,1.114331e+04
2.728796e+02,1.114520e+04
2.738439e+02,1.115154e+04
2.748081e+02,1.116541e+04
2.757723e+02,1.118599e+04
2.767366e+02,1.120554e+04
2.777008e+02,1.121963e+04
2.786650e+02,1.122956e+04
2.796293e+02,1.123792e+04
2.805935e+02,1.124688e+04
2.815577e+02,1.125743e+04
2.825220e+02,1.126901e+04
2.834862e+02,1.127886e+04
2.844504e+02,1.128402e+04
2.854147e+02,1.128623e+04
2.863789e+02,1.128756e+04
2.873431e+02,1.129060e+04
2.883074e+02,1.129709e+04
2.892716e+02,1.130667e+04
2.902358e+02,1.131700e+04
2.912001e+02,1.132663e+04
2.921643e+02,1.133578e+04
2.931285e+02,1.134644e+04
2.940928e+02,1.135958e+04
2.950570e+02,1.137532e+04
2.960212e+02,1.139113e+04
2.969855e+02,1.140364e+04
2.979497e+02,1.141115e+04
2.989139e+02,1.141448e+04
2.998782e+02,1.141725e+04
3.008424e+02,1.142350e+04
3.018066e+02,1.143413e+04
3.027709e+02,1.144636e+04
3.037351e+02,1.145768e+04
3.046993e+02,1.146692e+04
3.056636e+02,1.147431e+04
3.066278e+02,1.148101e+04
3.075920e+02,1.148884e+04
3.085563e+02,1.149845e+04
3.095205e+02,1.151189e+04
3.104847e+02,1.152890e+04
3.114490e+02,1.154741e+04
3.124132e+02,1.156491e+04
3.133774e+02,1.157925e+04
3.143417e+02,1.158917e+04
3.153059e+02,1.159377e+04
3.162701e+02,1.159601e+04
3.172344e+02,1.159868e+04
3.181986e+02,1.160278e+04
3.191628e+02,1.160888e+04
3.201271e+02,1.161750e+04
3.210913e+02,1.162868e+04
3.220555e+02,1.164175e+04
3.230198e+02,1.165575e+04
3.239840e+02,1.167008e+04
3.249482e+02,1.168424e+04
3.259125e+02,1.169771e+04
3.268767e+02,1.171076e+04
3.278409e+02,1.172364e+04
3.288052e+02,1.173625e+04
3.297694e+02,1.174823e+04
3.307336e+02,1.175929e+04
3.316979e+02,1.176965e+04
3.326621e+02,1.177917e+04
3.336263e+02,1.178546e+04
3.345906e+02,1.178808e+04
3.355548e+02,1.179020e+04
3.365190e+02,1.179593e+04
3.374833e+02,1.180784e+04
3.384475e+02,1.182536e+04
3.394117e+02,1.184477e+04
3.403760e+02,1.186072e+04
3.413402e+02,1.187475e+04
3.423044e+02,1.189110e+04
3.432687e+02,1.191061e+04
3.442329e+02,1.193150e+04
3.451971e+02,1.195065e+04
3.461614e+02,1.196491e+04
3.471256e+02,1.197256e+04
3.480898e+02,1.197636e+04
3.490541e+02,1.197884e+04
3.500183e+02,1.198235e+04
3.509825e+02,1.198931e+04
3.519468e+02,1.200161e+04
3.529110e+02,1.201902e+04
3.538752e+02,1.203903e+04
3.548395e+02,1.205831e+04
3.558037e+02,1.207473e+04
3.567680e+02,1.208796e+04
3.577322e+02,1.209937e+04
3.586964e+02,1.211193e+04
3.596607e+02,1.212734e+04
3.606249e+02,1.214420e+04
3.615891e+02,1.215814e+04
3.625534e+02,1.216518e+04
3.635176e+02,1.216445e+04
3.644818e+02,1.215827e+04
3.654461e+02,1.215143e+04
3.664103e+02,1.215042e+04
3.673745e+02,1.215997e+04
3.683388e+02,1.217766e+04
3.693030e+02,1.219936e+04
3.702672e+02,1.222116e+04
3.712315e+02,1.224066e+04
3.721957e+02,1.225655e+04
3.731599e+02,1.226728e+04
3.741242e+02,1.227460e+04
3.750884e+02,1.228331e+04
3.760526e+02,1.229588e+04
3.770169e+02,1.231209e+04
3.779811e+02,1.232940e+04
3.789453e+02,1.234456e+04
3.799096e+02,1.235504e+04
3.808738e+02,1.236076e+04
3.818380e+02,1.236471e+04
3.828023e+02,1.237077e+04
3.837665e+02,1.238138e+04
3.847307e+02,1.239503e+04
3.856950e+02,1.241141e+04
3.866592e+02,1.242942e+04
3.876234e+02,1.244819e+04
3.885877e+02,1.246715e+04
3.895519e+02,1.248583e+04
3.905161e+02,1.250335e+04
3.914804e+02,1.251785e+04
3.924446e+02,1.252836e+04
3.934088e+02,1.253735e+04
3.943731e+02,1.254654e+04
3.953373e+02,1.255656e+04
3.963015e+02,1.256595e+04
3.972658e+02,1.257221e+04
3.982300e+02,1.257562e+04
3.991942e+02,1.258175e+04
4.001585e+02,1.259571e+04
4.011227e+02,1.261709e+04
4.020869e+02,1.263801e+04
4.030512e+02,1.265208e+04
4.040154e+02,1.266066e+04
4.049796e+02,1.267012e+04
4.059439e+02,1.268439e+04
4.069081e+02,1.270183e+04
4.078723e+02,1.271719e+04
4.088366e+02,1.272684e+04
4.098008e+02,1.273115e+04
4.107650e+02,1.273667e+04
4.117293e+02,1.274472e+04
4.126935e+02,1.275391e+04
4.136577e+02,1.276351e+04
4.146220e+02,1.277363e+04
4.155862e+02,1.278514e+04
4.165504e+02,1.279876e+04
4.175147e+02,1.281375e+04
4.184789e+02,1.282808e+04
4.194431e+02,1.284042e+04
4.204074e+02,1.285257e+04
4.213716e+02,1.286533e+04
4.223358e+02,1.287724e+04
4.233001e+02,1.288676e+04
4.242643e+02,1.289395e+04
4.252285e+02,1.290059e+04
4.261928e+02,1.290905e+04
4.271570e+02,1.292052e+04
4.281212e+02,1.293422e+04
4.290855e+02,1.294774e+04
4.300497e+02,1.296031e+04
4.310139e+02,1.297290e+04
4.319782e+02,1.298699e+04
4.329424e+02,1.300393e+04
4.339066e+02,1.302397e+04
4.348709e+02,1.304558e+04
4.358351e+02,1.306580e+04
4.367993e+02,1.308250e+04
4.377636e+02,1.309523e+04
4.387278e+02,1.310746e+04
4.396920e+02,1.312154e+04
4.406563e+02,1.313692e+04
4.416205e+02,1.315178e+04
4.425847e+02,1.316490e+04
4.435490e+02,1.317664e+04
4.445132e+02,1.318845e+04
4.454774e+02,1.320192e+04
4.464417e+02,1.321787e+04
4.474059e+02,1.323620e+04
4.483701e+02,1.325284e+04
4.493344e+02,1.326524e+04
4.502986e+02,1.327414e+04
4.512628e+02,1.328288e+04
4.522271e+02,1.329400e+04
4.531913e+02,1.330678e+04
4.541555e+02,1.331778e+04
4.551198e+02,1.332378e+04
4.560840e+02,1.332536e+04
4.570482e+02,1.332676e+04
4.580125e+02,1.333318e+04
4.589767e+02,1.334581e+04
4.599409e+02,1.336213e+04
4.609052e+02,1.337773e+04
4.618694e+02,1.338995e+04
4.628336e+02,1.339856e+04
4.637979e+02,1.340457e+04
4.647621e+02,1.340945e+04
4.657263e+02,1.341577e+04
4.666906e+02,1.342731e+04
4.676548e+02,1.344245e+04
4.686190e+02,1.345959e+04
4.695833e+02,1.347626e+04
4.705475e+02,1.349112e+04
4.715117e+02,1.350331e+04
4.724760e+02,1.351270e+04
4.734402e+02,1.352007e+04
4.744044e+02,1.352671e+04
4.753687e+02,1.353410e+04
4.763329e+02,1.354281e+04
4.772971e+02,1.355213e+04
4.782614e+02,1.356131e+04
4.792256e+02,1.357221e+04
4.801898e+02,1.358607e+04
4.811541e+02,1.360236e+04
4.821183e+02,1.361925e+04
4.830826e+02,1.363477e+04
4.840468e+02,1.364771e+04
4.850110e+02,1.365878e+04
4.859753e+02,1.367048e+04
4.869395e+02,1.368210e+04
4.879037e+02,1.369153e+04
4.888680e+02,1.369953e+04
4.898322e+02,1.370779e+04
4.907964e+02,1.371801e+04
4.917607e+02,1.373081e+04
4.927249e+02,1.374528e+04
4.936891e+02,1.376011e+04
4.946534e+02,1.377487e+04
4.956176e+02,1.378946e+04
4.965818e+02,1.380458e+04
4.975461e+02,1.382020e+04
4.985103e+02,1.383496e+04
4.994745e+02,1.384642e+04
5.004388e+02,1.385327e+04
5.014030e+02,1.385635e+04
5.023672e+02,1.385897e+04
5.033315e+02,1.386479e+04
5.042957e+02,1.387435e+04
5.052599e+02,1.388399e+04
5.062242e+02,1.388943e+04
5.071884e+02,1.389094e+04
5.081526e+02,1.389362e+04
5.091169e+02,1.390177e+04
5.100811e+02,1.391389e+04
5.110453e+02,1.392515e+04
5.120095e+02,1.393477e+04
5.129738e+02,1.394534e+04
5.139380e+02,1.395983e+04
5.149022e+02,1.397866e+04
5.158665e+02,1.399864e+04
5.168307e+02,1.401432e+04
5.177949e+02,1.401878e+04
5.187592e+02,1.401324e+04
5.197234e+02,1.400611e+04
5.206876e+02,1.400367e+04
5.216519e+02,1.400965e+04
5.226161e+02,1.402352e+04
5.235803e+02,1.404020e+04
5.245446e+02,1.405543e+04
5.255088e+02,1.406928e+04
5.264730e+02,1.408429e+04
5.274373e+02,1.410163e+04
5.284015e+02,1.411754e+04
5.293657e+02,1.412550e+04
5.303300e+02,1.412588e+04
5.312942e+02,1.412302e+04
5.322584e+02,1.412197e+04
5.332227e+02,1.412560e+04
5.341869e+02,1.413296e+04
5.351511e+02,1.414131e+04
5.361154e+02,1.414876e+04
5.370796e+02,1.415512e+04
5.380438e+02,1.416168e+04
5.390081e+02,1.417050e+04
5.399723e+02,1.418307e+04
5.409365e+02,1.420013e+04
5.419008e+02,1.421884e+04
5.428650e+02,1.423590e+04
5.438292e+02,1.425011e+04
5.447935e+02,1.426149e+04
5.457577e+02,1.427032e+04
5.467219e+02,1.427737e+04
5.476862e+02,1.428333e+04
5.486504e+02,1.428750e+04
5.496146e+02,1.428900e+04
5.505789e+02,1.428684e+04
5.515431e+02,1.428182e+04
5.525073e+02,1.427654e+04
5.534716e+02,1.427754e+04
5.544358e+02,1.428688e+04
5.554000e+02,1.430265e+04
5.563643e+02,1.432018e+04
5.573285e+02,1.433506e+04
5.582927e+02,1.434608e+04
5.592570e+02,1.435616e+04
5.602212e+02,1.436940e+04
5.611854e+02,1.438454e+04
5.621497e+02,1.439771e+04
5.631139e+02,1.440496e+04
5.640781e+02,1.440638e+04
5.650424e+02,1.440605e+04
5.660066e+02,1.440517e+04
5.669708e+02,1.440352e+04
5.679351e+02,1.440203e+04
5.688993e+02,1.440236e+04
5.698635e+02,1.440597e+04
5.708278e+02,1.441442e+04
5.717920e+02,1.442877e+04
5.727562e+02,1.444706e+04
5.737205e+02,1.446703e+04
5.746847e+02,1.448613e+04
5.756489e+02,1.450327e+04
5.766132e+02,1.451686e+04
5.775774e+02,1.452726e+04
5.785416e+02,1.453512e+04
5.795059e+02,1.454171e+04
5.804701e+02,1.454792e+04
5.814343e+02,1.455359e+04
5.823986e+02,1.455829e+04
5.833628e+02,1.456252e+04
5.843270e+02,1.456812e+04
5.852913e+02,1.457644e+04
5.862555e+02,1.458832e+04
5.872197e+02,1.460200e+04
5.881840e+02,1.461572e+04
5.891482e+02,1.462927e+04
5.901124e+02,1.464325e+04
5.910767e+02,1.465786e+04
5.920409e+02,1.467274e+04
5.930051e+02,1.468703e+04
5.939694e+02,1.469935e+04
5.949336e+02,1.470816e+04
5.958978e+02,1.471322e+04
5.968621e+02,1.471511e+04
5.978263e+02,1.471625e+04
5.987905e+02,1.471903e+04
5.997548e+02,1.472276e+04
6.007190e+02,1.472743e+04
6.016832e+02,1.473596e+04
6.026475e+02,1.474913e+04
6.036117e+02,1.476522e+04
6.045759e+02,1.478114e+04
6.055402e+02,1.479394e+04
6.065044e+02,1.480164e+04
6.074686e+02,1.480414e+04
6.084329e+02,1.480400e+04
6.093971e+02,1.480281e+04
6.103613e+02,1.480117e+04
6.113256e+02,1.479959e+04
6.122899e+02,1.479857e+04
6.132541e+02,1.479843e+04
6.142183e+02,1.479833e+04
6.151826e+02,1.479787e+04
6.161468e+02,1.479927e+04
6.171110e+02,1.480506e+04
6.180753e+02,1.481610e+04
6.190395e+02,1.483061e+04
6.200037e+02,1.484453e+04
6.209680e+02,1.485462e+04
6.219322e+02,1.486313e+04
6.228964e+02,1.487450e+04
6.238607e+02,1.488985e+04
6.248249e+02,1.490432e+04
6.257891e+02,1.491219e+04
6.267534e+02,1.491131e+04
6.277176e+02,1.490618e+04
6.286818e+02,1.490214e+04
6.296461e+02,1.490105e+04
6.306103e+02,1.490276e+04
6.315745e+02,1.490820e+04
6.325388e+02,1.491863e+04
6.335030e+02,1.493296e+04
6.344672e+02,1.494905e+04
6.354315e+02,1.496458e+04
6.363957e+02,1.497678e+04
6.373599e+02,1.498393e+04
6.383242e+02,1.498855e+04
6.392884e+02,1.499267e+04
6.402526e+02,1.499711e+04
6.412169e+02,1.500204e+04
6.421811e+02,1.500636e+04
6.431453e+02,1.500872e+04
6.441096e+02,1.500903e+04
6.450738e+02,1.500892e+04
6.460380e+02,1.501161e+04
6.470023e+02,1.502031e+04
6.479665e+02,1.503492e+04
6.489307e+02,1.505329e+04
6.498950e+02,1.507207e+04
6.508592e+02,1.508725e+04
6.518234e+02,1.509699e+04
6.527877e+02,1.510284e+04
6.537519e+02,1.510643e+04
6.547161e+02,1.510748e+04
6.556804e+02,1.510486e+04
6.566446e+02,1.509975e+04
6.576088e+02,1.509536e+04
6.585731e+02,1.509446e+04
6.595373e+02,1.509648e+04
6.605015e+02,1.509805e+04
6.614658e+02,1.509839e+04
6.624300e+02,1.510049e+04
6.633942e+02,1.510734e+04
6.643585e+02,1.511926e+04
6.653227e+02,1.513308e+04
6.662869e+02,1.514652e+04
6.672512e+02,1.515898e+04
6.682154e+02,1.517125e+04
6.691796e+02,1.518144e+04
6.701439e+02,1.518759e+04
6.711081e+02,1.518883e+04
6.720723e+02,1.518572e+04
6.730366e+02,1.518052e+04
6.740008e+02,1.517525e+04
6.749650e+02,1.516938e+04
6.759293e+02,1.516196e+04
6.768935e+02,1.515402e+04
6.778577e+02,1.514802e+04
6.788220e+02,1.514704e+04
6.797862e+02,1.515445e+04
6.807504e+02,1.516739e+04
6.817147e+02,1.518239e+04
6.826789e+02,1.519640e+04
6.836431e+02,1.520608e+04
6.846074e+02,1.520919e+04
6.855716e+02,1.520678e+04
6.865358e+02,1.520188e+04
6.875001e+02,1.519729e+04
6.884643e+02,1.519484e+04
6.894285e+02,1.519513e+04
6.903928e+02,1.519692e+04
6.913570e+02,1.519876e+04
6.923212e+02,1.519975e+04
6.932855e+02,1.520076e+04
6.942497e+02,1.520564e+04
6.952139e+02,1.521645e+04
6.961782e+02,1.523265e+04
6.971424e+02,1.525153e+04
6.981066e+02,1.526940e+04
6.990709e+02,1.527987e+04
7.000351e+02,1.528018e+04
7.009993e+02,1.527333e+04
7.019636e+02,1.526599e+04
7.029278e+02,1.526464e+04
7.038920e+02,1.526940e+04
7.048563e+02,1.527217e+04
7.058205e+02,1.526622e+04
7.067847e+02,1.525439e+04
7.077490e+02,1.524566e+04
7.087132e+02,1.524811e+04
7.096774e+02,1.526092e+04
7.106417e+02,1.527094e+04
7.116059e+02,1.527457e+04
7.125701e+02,1.527581e+04
7.135344e+02,1.527810e+04
7.144986e+02,1.528268e+04
7.154628e+02,1.528784e+04
7.164271e+02,1.529164e+04
7.173913e+02,1.529331e+04
7.183555e+02,1.529253e+04
7.193198e+02,1.528880e+04
7.202840e+02,1.528187e+04
7.212482e+02,1.527303e+04
7.222125e+02,1.526706e+04
7.231767e+02,1.526684e+04
7.241409e+02,1.527056e+04
7.251052e+02,1.527262e+04
7.260694e+02,1.527049e+04
7.270336e+02,1.526713e+04
7.279979e+02,1.526762e+04
7.289621e+02,1.527202e+04
7.299263e+02,1.527675e+04
7.308906e+02,1.527891e+04
7.318548e+02,1.527851e+04
7.328190e+02,1.527825e+04
7.337833e+02,1.527829e+04
7.347475e+02,1.527569e+04
7.357117e+02,1.526930e+04
7.366760e+02,1.526222e+04
7.376402e+02,1.525925e+04
7.386044e+02,1.526215e+04
7.395687e+02,1.526710e+04
7.405329e+02,1.526814e+04
7.414971e+02,1.526360e+04
7.424614e+02,1.525773e+04
7.434256e+02,1.525636e+04
7.443898e+02,1.526421e+04
7.453541e+02,1.527956e+04
7.463183e+02,1.529385e+04
7.472825e+02,1.529960e+04
7.482468e+02,1.529409e+04
7.492110e+02,1.528047e+04
7.501752e+02,1.526551e+04
7.511395e+02,1.525585e+04
7.521037e+02,1.525320e+04
7.530679e+02,1.525431e+04
7.540322e+02,1.525486e+04
7.549964e+02,1.525090e+04
7.559606e+02,1.524391e+04
7.569249e+02,1.523974e+04
7.578891e+02,1.524240e+04
7.588533e+02,1.525382e+04
7.598176e+02,1.526981e+04
7.607818e+02,1.528174e+04
7.617460e+02,1.528184e+04
7.627103e+02,1.526987e+04
7.636745e+02,1.525475e+04
7.646387e+02,1.524558e+04
7.656030e+02,1.524599e+04
7.665672e+02,1.525236e+04
7.675314e+02,1.525678e+04
7.684957e+02,1.525076e+04
7.694599e+02,1.523354e+04
7.704241e+02,1.521191e+04
7.713884e+02,1.519305e+04
7.723526e+02,1.518254e+04
7.733168e+02,1.518383e+04
7.742811e+02,1.519640e+04
7.752453e+02,1.521344e+04
7.762095e+02,1.522938e+04
7.771738e+02,1.524245e+04
7.781380e+02,1.524892e+04
7.791022e+02,1.524479e+04
7.800665e+02,1.523307e+04
7.810307e+02,1.521699e+04
7.819949e+02,1.519989e+04
7.829592e+02,1.518655e+04
7.839234e+02,1.517846e+04
7.848876e+02,1.517437e+04
7.858519e+02,1.517132e+04
7.868161e+02,1.516677e+04
7.877803e+02,1.515950e+04
7.887446e+02,1.515029e+04
7.897088e+02,1.514275e+04
7.906730e+02,1.514235e+04
7.916373e+02,1.515223e+04
7.926015e+02,1.516737e+04
7.935657e+02,1.517511e+04
7.945300e+02,1.516842e+04
7.954942e+02,1.514923e+04
7.964584e+02,1.512699e+04
7.974227e+02,1.511322e+04
7.983869e+02,1.511434e+04
7.993511e+02,1.512025e+04
8.003154e+02,1.512204e+04
8.012796e+02,1.511676e+04
8.022438e+02,1.510734e+04
8.032081e+02,1.510093e+04
8.041723e+02,1.510259e+04
8.051365e+02,1.511129e+04
8.061008e+02,1.512111e+04
8.070650e+02,1.512649e+04
8.080292e+02,1.512501e+04
8.089935e+02,1.511922e+04
8.099577e+02,1.511368e+04
8.109219e+02,1.510991e+04
8.118862e+02,1.510713e+04
8.128504e+02,1.510524e+04
8.138146e+02,1.510410e+04
8.147789e+02,1.510239e+04
8.157431e+02,1.509608e+04
8.167073e+02,1.508447e+04
8.176716e+02,1.507370e+04
8.186358e+02,1.506969e+04
8.196000e+02,1.507412e+04
8.205643e+02,1.508175e+04
8.215285e+02,1.508409e+04
8.224927e+02,1.508079e+04
8.234570e+02,1.507726e+04
8.244212e+02,1.507599e+04
8.253854e+02,1.507502e+04
8.263497e+02,1.507040e+04
8.273139e+02,1.505855e+04
8.282781e+02,1.504107e+04
8.292424e+02,1.502364e+04
8.302066e+02,1.501106e+04
8.311708e+02,1.500484e+04
8.321351e+02,1.500431e+04
8.330993e+02,1.500665e+04
8.340635e+02,1.500798e+04
8.350278e+02,1.500698e+04
8.359920e+02,1.500431e+04
8.369562e+02,1.500045e+04
8.379205e+02,1.499512e+04
8.388847e+02,1.498766e+04
8.398489e+02,1.497962e+04
8.408132e+02,1.497231e+04
8.417774e+02,1.496403e+04
8.427416e+02,1.495380e+04
8.437059e+02,1.494061e+04
8.446701e+02,1.492651e+04
8.456343e+02,1.491493e+04
8.465986e+02,1.490606e+04
8.475628e+02,1.489637e+04
8.485270e+02,1.488333e+04
8.494913e+02,1.486913e+04
8.504555e+02,1.485796e+04
8.514197e+02,1.485256e+04
8.523840e+02,1.485159e+04
8.533482e+02,1.485192e+04
8.543124e+02,1.485149e+04
8.552767e+02,1.484976e+04
8.562409e+02,1.484545e+04
8.572051e+02,1.483683e+04
8.581694e+02,1.482484e+04
8.591336e+02,1.481177e+04
8.600978e+02,1.479960e+04
8.610621e+02,1.479045e+04
8.620263e+02,1.478606e+04
8.629905e+02,1.478422e+04
8.639548e+02,1.477980e+04
8.649190e+02,1.477040e+04
8.658832e+02,1.475915e+04
8.668475e+02,1.475304e+04
8.678117e+02,1.475676e+04
8.687759e+02,1.476681e+04
8.697402e+02,1.477465e+04
8.707044e+02,1.477327e+04
8.716686e+02,1.476069e+04
8.726329e+02,1.474195e+04
8.735971e+02,1.472187e+04
8.745613e+02,1.470286e+04
8.755256e+02,1.468903e+04
8.764898e+02,1.468207e+04
8.774540e+02,1.468101e+04
8.784183e+02,1.468225e+04
8.793825e+02,1.468172e+04
8.803467e+02,1.467744e+04
8.813110e+02,1.467096e+04
8.822752e+02,1.466579e+04
8.832394e+02,1.466477e+04
8.842037e+02,1.466786e+04
8.851679e+02,1.467146e+04
8.861321e+02,1.467148e+04
8.870964e+02,1.466571e+04
8.880606e+02,1.465300e+04
8.890248e+02,1.463441e+04
8.899891e+02,1.461404e+04
8.909533e+02,1.459730e+04
8.919175e+02,1.458591e+04
8.928818e+02,1.458019e+04
8.938460e+02,1.457673e+04
8.948102e+02,1.457230e+04
8.957745e+02,1.456619e+04
8.967387e+02,1.456069e+04
8.977029e+02,1.455250e+04
8.986672e+02,1.453923e+04
8.996314e+02,1.452496e+04
9.005956e+02,1.451730e+04
9.015599e+02,1.451989e+04
9.025241e+02,1.452712e+04
9.034883e+02,1.452976e+04
9.044526e+02,1.452144e+04
9.054168e+02,1.450319e+04
9.063810e+02,1.448216e+04
9.073453e+02,1.446693e+04
9.083095e+02,1.445947e+04
9.092737e+02,1.445627e+04
9.102380e+02,1.445255e+04
9.112022e+02,1.444510e+04
9.121664e+02,1.443397e+04
9.131307e+02,1.442254e+04
9.140949e+02,1.441661e+04
9.150591e+02,1.441934e+04
9.160234e+02,1.442657e+04
9.169876e+02,1.442994e+04
9.179518e+02,1.442280e+04
9.189161e+02,1.440419e+04
9.198803e+02,1.437926e+04
9.208445e+02,1.435686e+04
9.218088e+02,1.434154e+04
9.227730e+02,1.433191e+04
9.237372e+02,1.432475e+04
9.247015e+02,1.432007e+04
9.256657e+02,1.431909e+04
9.266299e+02,1.432090e+04
9.275942e+02,1.432269e+04
9.285584e+02,1.432151e+04
9.295226e+02,1.431743e+04
9.304869e+02,1.431238e+04
9.314511e+02,1.430841e+04
9.324153e+02,1.430501e+04
9.333796e+02,1.430106e+04
9.343438e+02,1.429789e+04
9.353080e+02,1.429450e+04
9.362723e+02,1.428538e+04
9.372365e+02,1.426897e+04
9.382007e+02,1.425009e+04
9.391650e+02,1.423593e+04
9.401292e+02,1.422962e+04
9.410934e+02,1.422755e+04
9.420577e+02,1.422252e+04
9.430219e+02,1.421133e+04
9.439861e+02,1.419716e+04
9.449504e+02,1.418632e+04
9.459146e+02,1.418399e+04
9.468788e+02,1.418974e+04
9.478431e+02,1.419474e+04
9.488073e+02,1.418936e+04
9.497715e+02,1.417138e+04
9.507358e+02,1.414663e+04
9.517000e+02,1.412447e+04
9.526642e+02,1.410908e+04
9.536285e+02,1.409520e+04
9.545927e+02,1.407620e+04
9.555569e+02,1.405368e+04
9.565212e+02,1.403403e+04
9.574854e+02,1.402200e+04
9.584496e+02,1.401745e+04
9.594139e+02,1.401509e+04
9.603781e+02,1.401045e+04
9.613423e+02,1.400254e+04
9.623066e+02,1.399183e+04
9.632708e+02,1.397930e+04
9.642350e+02,1.396746e+04
9.651993e+02,1.395879e+04
9.661635e+02,1.395200e+04
9.671277e+02,1.394430e+04
9.680920e+02,1.393317e+04
9.690562e+02,1.391784e+04
9.700204e+02,1.389770e+04
9.709847e+02,1.387590e+04
9.719489e+02,1.385578e+04
9.729131e+02,1.383936e+04
9.738774e+02,1.382912e+04
9.748416e+02,1.382681e+04
9.758058e+02,1.383007e+04
9.767701e+02,1.383404e+04
9.777343e+02,1.383521e+04
9.786985e+02,1.383164e+04
9.796628e+02,1.382323e+04
9.806270e+02,1.381314e+04
9.815912e+02,1.379938e+04
9.825555e+02,1.377941e+04
9.835197e+02,1.375511e+04
9.844839e+02,1.373304e+04
9.854482e+02,1.371758e+04
9.864124e+02,1.370741e+04
9.873766e+02,1.369705e+04
9.883409e+02,1.368608e+04
9.893051e+02,1.367814e+04
9.902693e+02,1.367584e+04
9.912336e+02,1.367865e+04
9.921978e+02,1.368226e+04
9.931620e+02,1.368204e+04
9.941263e+02,1.367717e+04
9.950905e+02,1.366892e+04
9.960547e+02,1.365794e+04
9.970190e+02,1.364452e+04
9.979832e+02,1.362702e+04
9.989474e+02,1.360420e+04
9.999117e+02,1.357852e+04
1.000876e+03,1.355446e+04
1.001840e+03,1.353603e+04
1.002804e+03,1.352586e+04
1.003769e+03,1.352240e+04
1.004733e+03,1.352163e+04
1.005697e+03,1.352145e+04
1.006661e+03,1.352168e+04
1.007626e+03,1.352325e+04
1.008590e+03,1.352654e+04
1.009554e+03,1.352874e+04
1.010518e+03,1.352471e+04
1.011482e+03,1.351182e+04
1.012447e+03,1.349048e+04
1.013411e+03,1.346525e+04
1.014375e+03,1.344237e+04
1.015339e+03,1.342581e+04
1.016304e+03,1.341451e+04
1.017268e+03,1.340663e+04
1.018232e+03,1.339959e+04
1.019196e+03,1.339172e+04
1.020161e+03,1.338303e+04
1.021125e+03,1.337592e+04
1.022089e+03,1.337375e+04
1.023053e+03,1.337622e+04
1.024018e+03,1.337980e+04
1.024982e+03,1.338008e+04
1.025946e+03,1.337380e+04
1.026910e+03,1.335846e+04
1.027875e+03,1.333784e+04
1.028839e+03,1.331705e+04
1.029803e+03,1.329977e+04
1.030767e+03,1.328700e+04
1.031731e+03,1.327746e+04
1.032696e+03,1.326776e+04
1.033660e+03,1.325654e+04
1.034624e+03,1.324562e+04
1.035588e+03,1.323795e+04
1.036552e+03,1.323509e+04
1.037517e+03,1.323569e+04
1.038481e+03,1.323512e+04
1.039445e+03,1.323010e+04
1.040409e+03,1.321993e+04
1.041374e+03,1.320767e+04
1.042338e+03,1.319751e+04
1.043302e+03,1.318915e+04
1.044266e+03,1.317886e+04
1.045231e+03,1.316458e+04
1.046195e+03,1.314841e+04
1.047159e+03,1.313289e+04
1.048123e+03,1.311863e+04
1.049088e+03,1.310517e+04
1.050052e+03,1.309618e+04
1.051016e+03,1.309315e+04
1.051980e+03,1.309514e+04
1.052945e+03,1.310096e+04
1.053909e+03,1.310733e+04
1.054873e+03,1.310765e+04
1.055837e+03,1.310048e+04
1.056802e+03,1.308790e+04
1.057766e+03,1.307455e+04
1.058730e+03,1.306401e+04
1.059694e+03,1.305507e+04
1.060658e+03,1.304369e+04
1.061623e+03,1.303081e+04
1.062587e+03,1.302000e+04
1.063551e+03,1.301333e+04
1.064515e+03,1.300896e+04
1.065479e+03,1.300263e+04
1.066444e+03,1.299641e+04
1.067408e+03,1.299428e+04
1.068372e+03,1.299774e+04
1.069336e+03,1.300415e+04
1.070301e+03,1.300772e+04
1.071265e+03,1.300558e+04
1.072229e+03,1.300034e+04
1.073193e+03,1.299277e+04
1.074158e+03,1.298119e+04
1.075122e+03,1.296534e+04
1.076086e+03,1.294577e+04
1.077050e+03,1.292508e+04
1.078015e+03,1.290890e+04
1.078979e+03,1.290034e+04
1.079943e+03,1.289903e+04
1.080907e+03,1.290201e+04
1.081872e+03,1.290441e+04
1.082836e+03,1.290236e+04
1.083800e+03,1.289690e+04
1.084764e+03,1.289094e+04
1.085729e+03,1.288571e+04
1.086693e+03,1.288069e+04
1.087657e+03,1.287397e+04
1.088621e+03,1.286404e+04
1.089585e+03,1.284816e+04
1.090550e+03,1.282595e+04
1.091514e+03,1.280080e+04
1.092478e+03,1.277777e+04
1.093442e+03,1.275942e+04
1.094406e+03,1.274735e+04
1.095371e+03,1.274029e+04
1.096335e+03,1.273574e+04
1.097299e+03,1.273295e+04
1.098263e+03,1.273241e+04
1.099228e+03,1.273254e+04
1.100192e+03,1.273119e+04
1.101156e+03,1.272673e+04
1.102120e+03,1.271967e+04
1.103085e+03,1.271147e+04
1.104049e+03,1.270214e+04
1.105013e+03,1.269134e+04
1.105977e+03,1.267960e+04
1.106942e+03,1.266797e+04
1.107906e+03,1.265762e+04
1.108870e+03,1.264821e+04
1.109834e+03,1.263882e+04
1.110799e+03,1.262938e+04
1.111763e+03,1.262101e+04
1.112727e+03,1.261493e+04
1.113691e+03,1.261279e+04
1.114656e+03,1.261395e+04
1.115620e+03,1.261799e+04
1.116584e+03,1.262312e+04
1.117548e+03,1.262586e+04
1.118512e+03,1.262314e+04
1.119477e+03,1.261465e+04
1.120441e+03,1.260149e+04
1.121405e+03,1.258696e+04
1.122369e+03,1.257191e+04
1.123334e+03,1.255537e+04
1.124298e+03,1.253762e+04
1.125262e+03,1.252245e+04
1.126226e+03,1.251300e+04
1.127191e+03,1.251054e+04
1.128155e+03,1.251135e+04
1.129119e+03,1.251258e+04
1.130083e+03,1.251493e+04
1.131047e+03,1.251886e+04
1.132012e+03,1.252052e+04
1.132976e+03,1.251656e+04
1.133940e+03,1.250538e+04
1.134904e+03,1.249040e+04
1.135869e+03,1.247542e+04
1.136833e+03,1.246081e+04
1.137797e+03,1.244569e+04
1.138761e+03,1.243278e+04
1.139726e+03,1.242496e+04
1.140690e+03,1.242165e+04
1.141654e+03,1.241935e+04
1.142618e+03,1.241501e+04
1.143583e+03,1.240975e+04
1.144547e+03,1.240605e+04
1.145511e+03,1.240400e+04
1.146475e+03,1.240131e+04
1.147439e+03,1.239617e+04
1.148404e+03,1.239220e+04
1.149368e+03,1.239221e+04
1.150332e+03,1.239522e+04
1.151296e+03,1.239692e+04
1.152261e+03,1.239153e+04
1.153225e+03,1.237575e+04
1.154189e+03,1.235424e+04
1.155153e+03,1.233257e+04
1.156118e+03,1.231467e+04
1.157082e+03,1.230447e+04
1.158046e+03,1.230259e+04
1.159010e+03,1.230535e+04
1.159974e+03,1.231113e+04
1.160939e+03,1.231853e+04
1.161903e+03,1.232450e+04
1.162867e+03,1.232622e+04
1.163831e+03,1.232244e+04
1.164796e+03,1.231307e+04
1.165760e+03,1.230042e+04
1.166724e+03,1.228697e+04
1.167688e+03,1.227430e+04
1.168653e+03,1.226258e+04
1.169617e+03,1.225057e+04
1.170581e+03,1.223851e+04
1.171545e+03,1.222835e+04
1.172510e+03,1.222180e+04
1.173474e+03,1.221939e+04
1.174438e+03,1.221942e+04
1.175402e+03,1.221976e+04
1.176366e+03,1.221955e+04
1.177331e+03,1.221896e+04
1.178295e+03,1.221964e+04
1.179259e+03,1.222240e+04
1.180223e+03,1.222434e+04
1.181188e+03,1.222203e+04
1.182152e+03,1.221424e+04
1.183116e+03,1.220226e+04
1.184080e+03,1.218908e+04
1.185045e+03,1.217689e+04
1.186009e+03,1.216541e+04
1.186973e+03,1.215668e+04
1.187937e+03,1.215299e+04
1.188901e+03,1.215480e+04
1.189866e+03,1.215900e+04
1.190830e+03,1.216130e+04
1.191794e+03,1.215878e+04
1.192758e+03,1.215399e+04
1.193723e+03,1.215114e+04
1.194687e+03,1.215199e+04
1.195651e+03,1.215549e+04
1.196615e+03,1.216027e+04
1.197580e+03,1.216367e+04
1.198544e+03,1.215996e+04
1.199508e+03,1.214604e+04
1.200472e+03,1.212476e+04
1.201437e+03,1.210229e+04
1.202401e+03,1.208463e+04
1.203365e+03,1.207488e+04
1.204329e+03,1.207045e+04
1.205293e+03,1.206965e+04
1.206258e+03,1.207408e+04
1.207222e+03,1.208390e+04
1.208186e+03,1.209622e+04
1.209150e+03,1.210635e+04
1.210115e+03,1.211086e+04
1.211079e+03,1.211098e+04
1.212043e+03,1.210827e+04
1.213007e+03,1.210106e+04
1.213972e+03,1.208985e+04
1.214936e+03,1.207852e+04
1.215900e+03,1.207097e+04
1.216864e+03,1.206756e+04
1.217828e+03,1.206533e+04
1.218793e+03,1.206245e+04
1.219757e+03,1.206084e+04
1.220721e+03,1.206292e+04
1.221685e+03,1.206958e+04
1.222650e+03,1.207873e+04
1.223614e+03,1.208614e+04
1.224578e+03,1.208925e+04
1.225542e+03,1.208930e+04
1.226507e+03,1.208992e+04
1.227471e+03,1.209407e+04
1.228435e+03,1.209763e+04
1.229399e+03,1.209398e+04
1.230364e+03,1.208161e+04
1.231328e+03,1.206591e+04
1.232292e+03,1.205400e+04
1.233256e+03,1.204761e+04
1.234220e+03,1.204151e+04
1.235185e+03,1.203624e+04
1.236149e+03,1.203647e+04
1.237113e+03,1.204526e+04
1.238077e+03,1.206109e+04
1.239042e+03,1.207756e+04
1.240006e+03,1.208922e+04
1.240970e+03,1.209601e+04
1.241934e+03,1.209733e+04
1.242899e+03,1.209364e+04
1.243863e+03,1.208701e+04
1.244827e+03,1.207964e+04
1.245791e+03,1.207265e+04
1.246755e+03,1.206604e+04
1.247720e+03,1.205952e+04
1.248684e+03,1.205383e+04
1.249648e+03,1.205246e+04
1.250612e+03,1.205655e+04
1.251577e+03,1.206325e+04
1.252541e+03,1.206874e+04
1.253505e+03,1.207197e+04
1.254469e+03,1.207512e+04
1.255434e+03,1.208109e+04
1.256398e+03,1.208948e+04
1.257362e+03,1.209666e+04
1.258326e+03,1.210036e+04
1.259291e+03,1.210071e+04
1.260255e+03,1.209609e+04
1.261219e+03,1.208576e+04
1.262183e+03,1.207357e+04
1.263147e+03,1.206519e+04
1.264112e+03,1.206358e+04
1.265076e+03,1.206637e+04
1.266040e+03,1.206795e+04
1.267004e+03,1.206713e+04
1.267969e+03,1.206765e+04
1.268933e+03,1.207416e+04
1.269897e+03,1.208969e+04
1.270861e+03,1.211051e+04
1.271826e+03,1.212658e+04
1.272790e+03,1.213244e+04
1.273754e+03,1.212878e+04
1.274718e+03,1.212200e+04
1.275682e+03,1.211832e+04
1.276647e+03,1.211686e+04
1.277611e+03,1.211267e+04
1.278575e+03,1.210388e+04
1.279539e+03,1.209201e+04
1.280504e+03,1.208246e+04
1.281468e+03,1.208050e+04
1.282432e+03,1.208648e+04
1.283396e+03,1.209816e+04
1.284361e+03,1.211078e+04
1.285325e+03,1.212164e+04
1.286289e+03,1.213122e+04
1.287253e+03,1.213897e+04
1.288218e+03,1.214276e+04
1.289182e+03,1.214228e+04
1.290146e+03,1.213952e+04
1.291110e+03,1.213736e+04
1.292074e+03,1.213719e+04
1.293039e+03,1.213763e+04
1.294003e+03,1.213659e+04
1.294967e+03,1.213297e+04
1.295931e+03,1.212777e+04
1.296896e+03,1.212598e+04
1.297860e+03,1.213077e+04
1.298824e+03,1.214152e+04
1.299788e+03,1.215301e+04
1.300753e+03,1.216289e+04
1.301717e+03,1.217306e+04
1.302681e+03,1.218566e+04
1.303645e+03,1.219906e+04
1.304609e+03,1.220968e+04
1.305574e+03,1.221313e+04
1.306538e+03,1.220819e+04
1.307502e+03,1.219931e+04
1.308466e+03,1.219353e+04
1.309431e+03,1.219440e+04
1.310395e+03,1.220083e+04
1.311359e+03,1.220751e+04
1.312323e+03,1.220981e+04
1.313288e+03,1.220867e+04
1.314252e+03,1.221000e+04
1.315216e+03,1.221711e+04
1.316180e+03,1.222983e+04
1.317145e+03,1.224658e+04
1.318109e+03,1.226287e+04
1.319073e+03,1.227336e+04
1.320037e+03,1.227777e+04
1.321001e+03,1.227634e+04
1.321966e+03,1.226999e+04
1.322930e+03,1.226070e+04
1.323894e+03,1.225404e+04
1.324858e+03,1.225254e+04
1.325823e+03,1.225626e+04
1.326787e+03,1.226360e+04
1.327751e+03,1.227167e+04
1.328715e+03,1.227983e+04
1.329680e+03,1.228990e+04
1.330644e+03,1.230208e+04
1.331608e+03,1.231475e+04
1.332572e+03,1.232678e+04
1.333536e+03,1.233858e+04
1.334501e+03,1.234862e+04
1.335465e+03,1.235362e+04
1.336429e+03,1.235397e+04
1.337393e+03,1.235368e+04
1.338358e+03,1.235666e+04
1.339322e+03,1.236213e+04
1.340286e+03,1.236559e+04
1.341250e+03,1.236473e+04
1.342215e+03,1.236083e+04
1.343179e+03,1.235840e+04
1.344143e+03,1.236319e+04
1.345107e+03,1.237413e+04
1.346072e+03,1.238830e+04
1.347036e+03,1.240102e+04
1.348000e+03,1.240926e+04
1.348964e+03,1.241407e+04
1.349928e+03,1.241894e+04
1.350893e+03,1.242690e+04
1.351857e+03,1.243669e+04
1.352821e+03,1.244547e+04
1.353785e+03,1.245105e+04
1.354750e+03,1.245151e+04
1.355714e+03,1.244750e+04
1.356678e+03,1.244352e+04
1.357642e+03,1.244433e+04
1.358607e+03,1.245100e+04
1.359571e+03,1.245997e+04
1.360535e+03,1.246664e+04
1.361499e+03,1.247094e+04
1.362464e+03,1.247704e+04
1.363428e+03,1.248835e+04
1.364392e+03,1.250516e+04
1.365356e+03,1.252285e+04
1.366320e+03,1.253539e+04
1.367285e+03,1.254206e+04
1.368249e+03,1.254573e+04
1.369213e+03,1.255059e+04
1.370177e+03,1.255814e+04
1.371142e+03,1.256569e+04
1.372106e+03,1.257047e+04
1.373070e+03,1.257279e+04
1.374034e+03,1.257515e+04
1.374999e+03,1.258062e+04
1.375963e+03,1.258918e+04
1.376927e+03,1.259968e+04
1.377891e+03,1.261267e+04
1.378855e+03,1.262827e+04
1.379820e+03,1.264369e+04
1.380784e+03,1.265576e+04
1.381748e+03,1.266767e+04
1.382712e+03,1.268462e+04
1.383677e+03,1.270505e+04
1.384641e+03,1.272096e+04
1.385605e+03,1.272639e+04
1.386569e+03,1.272591e+04
1.387534e+03,1.272866e+04
1.388498e+03,1.273648e+04
1.389462e+03,1.274506e+04
1.390426e+03,1.275080e+04
1.391391e+03,1.275552e+04
1.392355e+03,1.276364e+04
1.393319e+03,1.277696e+04
1.394283e+03,1.279445e+04
1.395247e+03,1.281360e+04
1.396212e+03,1.283248e+04
1.397176e+03,1.285091e+04
1.398140e+03,1.286956e+04
1.399104e+03,1.288714e+04
1.400069e+03,1.290108e+04
1.401033e+03,1.290957e+04
1.401997e+03,1.291416e+04
1.402961e+03,1.291931e+04
1.403926e+03,1.292533e+04
1.404890e+03,1.292853e+04
1.405854e+03,1.292941e+04
1.406818e+03,1.293384e+04
1.407782e+03,1.294678e+04
1.408747e+03,1.296993e+04
1.409711e+03,1.299908e+04
1.410675e+03,1.302575e+04
1.411639e+03,1.304413e+04
1.412604e+03,1.305415e+04
1.413568e+03,1.306061e+04
1.414532e+03,1.306945e+04
1.415496e+03,1.308281e+04
1.416461e+03,1.309809e+04
1.417425e+03,1.311092e+04
1.418389e+03,1.311972e+04
1.419353e+03,1.312374e+04
1.420318e+03,1.312560e+04
1.421282e+03,1.312875e+04
1.422246e+03,1.313627e+04
1.423210e+03,1.314874e+04
1.424174e+03,1.316763e+04
1.425139e+03,1.319102e+04
1.426103e+03,1.321487e+04
1.427067e+03,1.323534e+04
1.428031e+03,1.325206e+04
1.428996e+03,1.326814e+04
1.429960e+03,1.328490e+04
1.430924e+03,1.329847e+04
1.431888e+03,1.330421e+04
1.432853e+03,1.330423e+04
1.433817e+03,1.330603e+04
1.434781e+03,1.331469e+04
1.435745e+03,1.332725e+04
1.436709e+03,1.333871e+04
1.437674e+03,1.334780e+04
1.438638e+03,1.335838e+04
1.439602e+03,1.337429e+04
1.440566e+03,1.339520e+04
1.441531e+03,1.341933e+04
1.442495e+03,1.344363e+04
1.443459e+03,1.346514e+04
1.444423e+03,1.348399e+04
1.445388e+03,1.349989e+04
1.446352e+03,1.350880e+04
1.447316e+03,1.350816e+04
1.448280e+03,1.350499e+04
1.449245e+03,1.350886e+04
1.450209e+03,1.352345e+04
1.451173e+03,1.354278e+04
1.452137e+03,1.355963e+04
1.453101e+03,1.357444e+04
1.454066e+03,1.359272e+04
1.455030e+03,1.361478e+04
1.455994e+03,1.363758e+04
1.456958e+03,1.366123e+04
1.457923e+03,1.368887e+04
1.458887e+03,1.371918e+04
1.459851e+03,1.374628e+04
1.460815e+03,1.376501e+04
1.461780e+03,1.377436e+04
1.462744e+03,1.377980e+04
1.463708e+03,1.378466e+04
1.464672e+03,1.378912e+04
1.465636e+03,1.379692e+04
1.466601e+03,1.380993e+04
1.467565e+03,1.382836e+04
1.468529e+03,1.385142e+04
1.469493e+03,1.387589e+04
1.470458e+03,1.389807e+04
1.471422e+03,1.391670e+04
1.472386e+03,1.393552e+04
1.473350e+03,1.395874e+04
1.474315e+03,1.398580e+04
1.475279e+03,1.401144e+04
1.476243e+03,1.403146e+04
1.477207e+03,1.404525e+04
1.478172e+03,1.405714e+04
1.479136e+03,1.406881e+04
1.480100e+03,1.408003e+04
1.481064e+03,1.409178e+04
1.482028e+03,1.410545e+04
1.482993e+03,1.412307e+04
1.483957e+03,1.414603e+04
1.484921e+03,1.417298e+04
1.485885e+03,1.420235e+04
1.486850e+03,1.423150e+04
1.487814e+03,1.425586e+04
1.488778e+03,1.427413e+04
1.489742e+03,1.428720e+04
1.490707e+03,1.429652e+04
1.491671e+03,1.430683e+04
1.492635e+03,1.432543e+04
1.493599e+03,1.435119e+04
1.494563e+03,1.437821e+04
1.495528e+03,1.440002e+04
1.496492e+03,1.441447e+04
1.497456e+03,1.442619e+04
1.498420e+03,1.444047e+04
1.499385e+03,1.445800e+04
1.500349e+03,1.447843e+04
1.501313e+03,1.450363e+04
1.502277e+03,1.453370e+04
1.503242e+03,1.456573e+04
1.504206e+03,1.459644e+04
1.505170e+03,1.462279e+04
1.506134e+03,1.464618e+04
1.507099e+03,1.466777e+04
1.508063e+03,1.468746e+04
1.509027e+03,1.470497e+04
1.509991e+03,1.472057e+04
1.510955e+03,1.473512e+04
1.511920e+03,1.474838e+04
1.512884e+03,1.476067e+04
1.513848e+03,1.477867e+04
1.514812e+03,1.480763e+04
1.515777e+03,1.484341e+04
1.516741e+03,1.487727e+04
1.517705e+03,1.490679e+04
1.518669e+03,1.492975e+04
1.519634e+03,1.494568e+04
1.520598e+03,1.495285e+04
1.521562e+03,1.496974e+04
1.522526e+03,1.499172e+04
1.523490e+03,1.501305e+04
1.524455e+03,1.503467e+04
1.525419e+03,1.504911e+04
1.526383e+03,1.504506e+04
1.527347e+03,1.503642e+04
1.528312e+03,1.504071e+04
1.529276e+03,1.506205e+04
1.530240e+03,1.508873e+04
1.531204e+03,1.511775e+04
1.532169e+03,1.514050e+04
1.533133e+03,1.515644e+04
1.534097e+03,1.516613e+04
1.535061e+03,1.516481e+04
1.536026e+03,1.515817e+04
1.536990e+03,1.516576e+04
1.537954e+03,1.518091e+04
1.538918e+03,1.518734e+04
1.539882e+03,1.517850e+04
1.540847e+03,1.517309e+04
1.541811e+03,1.517375e+04
1.542775e+03,1.517243e+04
1.543739e+03,1.517358e+04
1.544704e+03,1.517666e+04
1.545668e+03,1.517498e+04
1.546632e+03,1.517271e+04
1.547596e+03,1.518449e+04
1.548561e+03,1.520826e+04
1.549525e+03,1.522934e+04
1.550489e+03,1.523019e+04
1.551453e+03,1.522974e+04
1.552417e+03,1.523858e+04
1.553382e+03,1.524708e+04
1.554346e+03,1.525194e+04
1.555310e+03,1.525577e+04
1.556274e+03,1.525547e+04
1.557239e+03,1.524981e+04
1.558203e+03,1.524732e+04
1.559167e+03,1.525043e+04
1.560131e+03,1.525533e+04
1.561096e+03,1.526162e+04
1.562060e+03,1.526934e+04
1.563024e+03,1.527509e+04
1.563988e+03,1.528159e+04
1.564953e+03,1.529436e+04
1.565917e+03,1.531598e+04
1.566881e+03,1.533236e+04
1.567845e+03,1.533975e+04
1.568809e+03,1.534077e+04
1.569774e+03,1.533845e+04
1.570738e+03,1.533299e+04
1.571702e+03,1.532089e+04
1.572666e+03,1.530633e+04
1.573631e+03,1.529923e+04
1.574595e+03,1.530473e+04
1.575559e+03,1.529764e+04
1.576523e+03,1.526591e+04
1.577488e+03,1.525254e+04
1.578452e+03,1.525826e+04
1.579416e+03,1.527364e+04
1.580380e+03,1.531020e+04
1.581344e+03,1.534489e+04
1.582309e+03,1.532314e+04
1.583273e+03,1.526699e+04
1.584237e+03,1.522459e+04
1.585201e+03,1.521358e+04
1.586166e+03,1.520999e+04
1.587130e+03,1.521003e+04
1.588094e+03,1.520752e+04
1.589058e+03,1.520701e+04
1.590023e+03,1.520185e+04
1.590987e+03,1.515709e+04
1.591951e+03,1.510247e+04
1.592915e+03,1.510698e+04
1.593880e+03,1.516247e+04
1.594844e+03,1.520011e+04
1.595808e+03,1.518608e+04
1.596772e+03,1.516115e+04
1.597736e+03,1.513263e+04
1.598701e+03,1.511045e+04
1.599665e+03,1.510040e+04
1.600629e+03,1.510077e+04
1.601593e+03,1.511226e+04
1.602558e+03,1.512790e+04
1.603522e+03,1.512580e+04
1.604486e+03,1.509733e+04
1.605450e+03,1.505815e+04
1.606415e+03,1.499874e+04
1.607379e+03,1.496329e+04
1.608343e+03,1.497145e+04
1.609307e+03,1.500102e+04
1.610271e+03,1.501686e+04
1.611236e+03,1.501945e+04
1.612200e+03,1.502321e+04
1.613164e+03,1.503051e+04
1.614128e+03,1.502781e+04
1.615093e+03,1.498952e+04
1.616057e+03,1.495836e+04
1.617021e+03,1.495088e+04
1.617985e+03,1.494370e+04
1.618950e+03,1.492795e+04
1.619914e+03,1.490566e+04
1.620878e+03,1.488278e+04
1.621842e+03,1.485990e+04
1.622807e+03,1.482629e+04
1.623771e+03,1.478247e+04
1.624735e+03,1.475951e+04
1.625699e+03,1.478200e+04
1.626663e+03,1.480600e+04
1.627628e+03,1.481310e+04
1.628592e+03,1.480579e+04
1.629556e+03,1.480050e+04
1.630520e+03,1.480122e+04
1.631485e+03,1.478260e+04
1.632449e+03,1.474789e+04
1.633413e+03,1.471818e+04
1.634377e+03,1.470550e+04
1.635342e+03,1.469386e+04
1.636306e+03,1.467963e+04
1.637270e+03,1.466419e+04
1.638234e+03,1.464604e+04
1.639198e+03,1.462906e+04
1.640163e+03,1.461486e+04
1.641127e+03,1.460644e+04
1.642091e+03,1.460076e+04
1.643055e+03,1.459324e+04
1.644020e+03,1.459020e+04
1.644984e+03,1.459972e+04
1.645948e+03,1.459715e+04
1.646912e+03,1.457753e+04
1.647877e+03,1.455524e+04
1.648841e+03,1.454537e+04
1.649805e+03,1.454342e+04
1.650769e+03,1.452788e+04
1.651734e+03,1.450341e+04
1.652698e+03,1.448644e+04
1.653662e+03,1.447736e+04
1.654626e+03,1.446636e+04
1.655590e+03,1.445305e+04
1.656555e+03,1.443529e+04
1.657519e+03,1.441694e+04
1.658483e+03,1.440464e+04
1.659447e+03,1.439873e+04
1.660412e+03,1.439215e+04
1.661376e+03,1.438650e+04
1.662340e+03,1.438393e+04
1.663304e+03,1.437901e+04
1.664269e+03,1.435311e+04
1.665233e+03,1.433923e+04
1.666197e+03,1.433768e+04
1.667161e+03,1.433288e+04
1.668125e+03,1.431939e+04
1.669090e+03,1.430258e+04
1.670054e+03,1.428995e+04
1.671018e+03,1.428083e+04
1.671982e+03,1.427929e+04
1.672947e+03,1.428560e+04
1.673911e+03,1.428796e+04
1.674875e+03,1.427738e+04
1.675839e+03,1.426569e+04
1.676804e+03,1.426250e+04
1.677768e+03,1.425735e+04
1.678732e+03,1.422456e+04
1.679696e+03,1.418850e+04
1.680661e+03,1.417009e+04
1.681625e+03,1.415821e+04
1.682589e+03,1.414757e+04
1.683553e+03,1.414300e+04
1.684517e+03,1.414929e+04
1.685482e+03,1.416374e+04
1.686446e+03,1.416518e+04
1.687410e+03,1.414490e+04
1.688374e+03,1.412408e+04
1.689339e+03,1.411703e+04
1.690303e+03,1.411458e+04
1.691267e+03,1.411283e+04
1.692231e+03,1.411256e+04
1.693196e+03,1.411108e+04
1.694160e+03,1.410366e+04
1.695124e+03,1.408140e+04
1.696088e+03,1.405144e+04
1.697052e+03,1.403992e+04
1.698017e+03,1.405925e+04
1.698981e+03,1.407648e+04
1.699945e+03,1.408086e+04
1.700909e+03,1.407282e+04
1.701874e+03,1.406421e+04
1.702838e+03,1.405727e+04
1.703802e+03,1.402992e+04
1.704766e+03,1.399081e+04
1.705731e+03,1.397794e+04
1.706695e+03,1.399556e+04
1.707659e+03,1.399232e+04
1.708623e+03,1.395277e+04
1.709588e+03,1.392813e+04
1.710552e+03,1.391813e+04
1.711516e+03,1.391350e+04
1.712480e+03,1.391466e+04
1.713444e+03,1.391489e+04
1.714409e+03,1.391807e+04
1.715373e+03,1.391800e+04
1.716337e+03,1.389353e+04
1.717301e+03,1.384814e+04
1.718266e+03,1.383917e+04
1.719230e+03,1.386215e+04
1.720194e+03,1.386793e+04
1.721158e+03,1.383903e+04
1.722123e+03,1.380857e+04
1.723087e+03,1.380548e+04
1.724051e+03,1.380196e+04
1.725015e+03,1.378295e+04
1.725979e+03,1.376290e+04
1.726944e+03,1.375665e+04
1.727908e+03,1.376175e+04
1.728872e+03,1.377225e+04
1.729836e+03,1.378034e+04
1.730801e+03,1.377719e+04
1.731765e+03,1.375727e+04
1.732729e+03,1.373851e+04
1.733693e+03,1.372421e+04
1.734658e+03,1.370862e+04
1.735622e+03,1.368737e+04
1.736586e+03,1.366297e+04
1.737550e+03,1.363295e+04
1.738515e+03,1.360794e+04
1.739479e+03,1.360738e+04
1.740443e+03,1.362645e+04
1.741407e+03,1.363348e+04
1.742371e+03,1.362857e+04
1.743336e+03,1.360876e+04
1.744300e+03,1.357349e+04
1.745264e+03,1.353633e+04
1.746228e+03,1.351157e+04
1.747193e+03,1.349592e+04
1.748157e+03,1.350138e+04
1.749121e+03,1.351360e+04
1.750085e+03,1.350573e+04
1.751050e+03,1.347642e+04
1.752014e+03,1.345882e+04
1.752978e+03,1.345507e+04
1.753942e+03,1.346680e+04
1.754906e+03,1.349179e+04
1.755871e+03,1.349974e+04
1.756835e+03,1.347343e+04
1.757799e+03,1.343701e+04
1.758763e+03,1.340706e+04
1.759728e+03,1.338353e+04
1.760692e+03,1.335772e+04
1.761656e+03,1.334070e+04
1.762620e+03,1.334261e+04
1.763585e+03,1.335221e+04
1.764549e+03,1.335388e+04
1.765513e+03,1.334214e+04
1.766477e+03,1.332694e+04
1.767442e+03,1.331246e+04
1.768406e+03,1.330251e+04
1.769370e+03,1.329917e+04
1.770334e+03,1.330065e+04
1.771298e+03,1.330720e+04
1.772263e+03,1.330006e+04
1.773227e+03,1.327323e+04
1.774191e+03,1.324538e+04
1.775155e+03,1.324886e+04
1.776120e+03,1.325754e+04
1.777084e+03,1.322383e+04
1.778048e+03,1.316745e+04
1.779012e+03,1.314402e+04
1.779977e+03,1.316637e+04
1.780941e+03,1.319633e+04
1.781905e+03,1.322733e+04
1.782869e+03,1.322856e+04
1.783833e+03,1.317531e+04
1.784798e+03,1.313080e+04
1.785762e+03,1.315153e+04
1.786726e+03,1.316651e+04
1.787690e+03,1.314087e+04
1.788655e+03,1.309674e+04
1.789619e+03,1.306432e+04
1.790583e+03,1.304460e+04
1.791547e+03,1.304092e+04
1.792512e+03,1.305073e+04
1.793476e+03,1.305757e+04
1.794440e+03,1.305262e+04
1.795404e+03,1.304484e+04
1.796369e+03,1.302996e+04
1.797333e+03,1.302054e+04
1.798297e+03,1.302841e+04
1.799261e+03,1.304143e+04
1.800225e+03,1.305841e+04
1.801190e+03,1.305790e+04
1.802154e+03,1.302474e+04
1.803118e+03,1.297526e+04
1.804082e+03,1.296738e+04
1.805047e+03,1.298429e+04
1.806011e+03,1.297420e+04
1.806975e+03,1.293374e+04
1.807939e+03,1.290866e+04
1.808904e+03,1.290645e+04
1.809868e+03,1.289394e+04
1.810832e+03,1.287100e+04
1.811796e+03,1.285586e+04
1.812760e+03,1.287008e+04
1.813725e+03,1.288160e+04
1.814689e+03,1.286062e+04
1.815653e+03,1.283987e+04
1.816617e+03,1.284938e+04
1.817582e+03,1.287501e+04
1.818546e+03,1.286372e+04
1.819510e+03,1.283066e+04
1.820474e+03,1.281473e+04
1.821439e+03,1.282431e+04
1.822403e+03,1.281988e+04
1.823367e+03,1.279565e+04
1.824331e+03,1.277842e+04
1.825296e+03,1.276871e+04
1.826260e+03,1.275679e+04
1.827224e+03,1.274941e+04
1.828188e+03,1.274235e+04
1.829152e+03,1.271483e+04
1.830117e+03,1.269081e+04
1.831081e+03,1.269765e+04
1.832045e+03,1.271562e+04
1.833009e+03,1.269586e+04
1.833974e+03,1.266461e+04
1.834938e+03,1.265358e+04
1.835902e+03,1.266570e+04
1.836866e+03,1.265927e+04
1.837831e+03,1.263164e+04
1.838795e+03,1.260946e+04
1.839759e+03,1.260401e+04
1.840723e+03,1.260509e+04
1.841688e+03,1.259848e+04
1.842652e+03,1.259577e+04
1.843616e+03,1.259822e+04
1.844580e+03,1.259327e+04
1.845544e+03,1.256667e+04
1.846509e+03,1.253726e+04
1.847473e+03,1.254504e+04
1.848437e+03,1.256805e+04
1.849401e+03,1.256385e+04
1.850366e+03,1.253314e+04
1.851330e+03,1.249839e+04
1.852294e+03,1.246494e+04
1.853258e+03,1.244528e+04
1.854223e+03,1.244216e+04
1.855187e+03,1.245086e+04
1.856151e+03,1.247880e+04
1.857115e+03,1.249053e+04
1.858079e+03,1.247545e+04
1.859044e+03,1.244691e+04
1.860008e+03,1.241778e+04
1.860972e+03,1.239489e+04
1.861936e+03,1.238533e+04
1.862901e+03,1.238458e+04
1.863865e+03,1.237843e+04
1.864829e+03,1.236067e+04
1.865793e+03,1.234805e+04
1.866758e+03,1.234312e+04
1.867722e+03,1.234143e+04
1.868686e+03,1.233896e+04
1.869650e+03,1.234017e+04
1.870615e+03,1.234245e+04
1.871579e+03,1.233984e+04
1.872543e+03,1.233716e+04
1.873507e+03,1.233553e+04
1.874471e+03,1.231524e+04
1.875436e+03,1.229588e+04
1.876400e+03,1.229823e+04
1.877364e+03,1.230293e+04
1.878328e+03,1.228283e+04
1.879293e+03,1.225047e+04
1.880257e+03,1.222377e+04
1.881221e+03,1.220049e+04
1.882185e+03,1.218455e+04
1.883150e+03,1.217881e+04
1.884114e+03,1.217106e+04
1.885078e+03,1.215866e+04
1.886042e+03,1.214497e+04
1.887006e+03,1.212840e+04
1.887971e+03,1.212804e+04
1.888935e+03,1.217080e+04
1.889899e+03,1.219886e+04
1.890863e+03,1.219125e+04
1.891828e+03,1.216564e+04
1.892792e+03,1.213851e+04
1.893756e+03,1.211439e+04
1.894720e+03,1.211314e+04
1.895685e+03,1.212310e+04
1.896649e+03,1.212019e+04
1.897613e+03,1.210334e+04
1.898577e+03,1.208589e+04
1.899542e+03,1.206754e+04
1.900506e+03,1.204116e+04
1.901470e+03,1.200221e+04
1.902434e+03,1.197616e+04
1.903398e+03,1.196372e+04
1.904363e+03,1.196838e+04
1.905327e+03,1.199470e+04
1.906291e+03,1.201115e+04
1.907255e+03,1.198818e+04
1.908220e+03,1.195814e+04
1.909184e+03,1.192560e+04
1.910148e+03,1.189309e+04
1.911112e+03,1.186692e+04
1.912077e+03,1.184945e+04
1.913041e+03,1.184568e+04
1.914005e+03,1.184767e+04
1.914969e+03,1.185056e+04
1.915933e+03,1.185021e+04
1.916898e+03,1.182325e+04
1.917862e+03,1.178576e+04
1.918826e+03,1.176490e+04
1.919790e+03,1.176892e+04
1.920755e+03,1.178654e+04
1.921719e+03,1.180985e+04
1.922683e+03,1.180814e+04
1.923647e+03,1.177875e+04
1.924612e+03,1.175623e+04
1.925576e+03,1.175978e+04
1.926540e+03,1.176679e+04
1.927504e+03,1.176775e+04
1.928469e+03,1.176508e+04
1.929433e+03,1.176336e+04
1.930397e+03,1.175280e+04
1.931361e+03,1.172192e+04
1.932325e+03,1.168364e+04
1.933290e+03,1.164692e+04
1.934254e+03,1.162659e+04
1.935218e+03,1.165006e+04
1.936182e+03,1.168505e+04
1.937147e+03,1.169355e+04
1.938111e+03,1.167922e+04
1.939075e+03,1.166266e+04
1.940039e+03,1.164963e+04
1.941004e+03,1.164286e+04
1.941968e+03,1.163478e+04
1.942932e+03,1.161712e+04
1.943896e+03,1.158990e+04
1.944860e+03,1.155965e+04
1.945825e+03,1.153147e+04
1.946789e+03,1.151601e+04
1.947753e+03,1.152624e+04
1.948717e+03,1.153118e+04
1.949682e+03,1.151022e+04
1.950646e+03,1.149321e+04
1.951610e+03,1.150333e+04
1.952574e+03,1.151961e+04
1.953539e+03,1.150916e+04
1.954503e+03,1.148873e+04
1.955467e+03,1.148181e+04
1.956431e+03,1.148229e+04
1.957396e+03,1.145672e+04
1.958360e+03,1.141846e+04
1.959324e+03,1.141345e+04
1.960288e+03,1.144307e+04
1.961252e+03,1.145771e+04
1.962217e+03,1.144748e+04
1.963181e+03,1.142468e+04
1.964145e+03,1.139256e+04
1.965109e+03,1.138533e+04
1.966074e+03,1.146087e+04
1.967038e+03,1.148817e+04
1.968002e+03,1.143706e+04
1.968966e+03,1.139036e+04
1.969931e+03,1.139320e+04
1.970895e+03,1.139607e+04
1.971859e+03,1.136613e+04
1.972823e+03,1.134592e+04
1.973787e+03,1.135093e+04
1.974752e+03,1.136114e+04
1.975716e+03,1.135567e+04
1.976680e+03,1.133716e+04
1.977644e+03,1.130851e+04
1.978609e+03,1.128516e+04
1.979573e+03,1.128730e+04
1.980537e+03,1.130142e+04
1.981501e+03,1.128631e+04
1.982466e+03,1.125423e+04
1.983430e+03,1.124086e+04
1.984394e+03,1.124956e+04
1.985358e+03,1.123829e+04
1.986323e+03,1.121078e+04
1.987287e+03,1.120477e+04
1.988251e+03,1.123842e+04
1.989215e+03,1.123841e+04
1.990179e+03,1.119491e+04
1.991144e+03,1.114736e+04
1.992108e+03,1.110690e+04
1.993072e+03,1.108810e+04
1.994036e+03,1.111879e+04
1.995001e+03,1.113510e+04
1.995965e+03,1.111633e+04
1.996929e+03,1.109532e+04
1.997893e+03,1.109829e+04
1.998858e+03,1.110444e+04
1.999822e+03,1.109947e+04
2.000786e+03,1.108487e+04
2.001750e+03,1.106732e+04
2.002714e+03,1.105741e+04
2.003679e+03,1.106768e+04
2.004643e+03,1.107929e+04
2.005607e+03,1.106821e+04
2.006571e+03,1.104177e+04
2.007536e+03,1.101140e+04
2.008500e+03,1.098163e+04
2.009464e+03,1.096510e+04
2.010428e+03,1.096452e+04
2.011393e+03,1.095549e+04
2.012357e+03,1.093402e+04
2.013321e+03,1.093632e+04
2.014285e+03,1.095558e+04
2.015250e+03,1.096810e+04
2.016214e+03,1.096598e+04
2.017178e+03,1.094818e+04
2.018142e+03,1.091626e+04
2.019106e+03,1.088583e+04
2.020071e+03,1.086049e+04
2.021035e+03,1.084333e+04
2.021999e+03,1.083539e+04
2.022963e+03,1.083381e+04
2.023928e+03,1.084682e+04
2.024892e+03,1.085442e+04
2.025856e+03,1.081163e+04
2.026820e+03,1.078058e+04
2.027785e+03,1.080728e+04
2.028749e+03,1.084542e+04
2.029713e+03,1.082506e+04
2.030677e+03,1.078908e+04
2.031641e+03,1.079773e+04
2.032606e+03,1.082579e+04
2.033570e+03,1.082792e+04
2.034534e+03,1.080810e+04
2.035498e+03,1.079100e+04
2.036463e+03,1.077571e+04
2.037427e+03,1.075455e+04
2.038391e+03,1.073339e+04
2.039355e+03,1.071365e+04
2.040320e+03,1.069809e+04
2.041284e+03,1.069237e+04
2.042248e+03,1.069467e+04
2.043212e+03,1.069041e+04
2.044177e+03,1.068160e+04
2.045141e+03,1.067986e+04
2.046105e+03,1.068441e+04
2.047069e+03,1.068779e+04
2.048033e+03,1.068627e+04
2.048998e+03,1.066695e+04
2.049962e+03,1.063148e+04
2.050926e+03,1.059386e+04
2.051890e+03,1.055129e+04
2.052854e+03,1.052842e+04
2.053819e+03,1.053303e+04
2.054783e+03,1.053372e+04
2.055747e+03,1.052116e+04
2.056711e+03,1.050924e+04
2.057676e+03,1.050721e+04
2.058640e+03,1.051200e+04
2.059604e+03,1.051377e+04
2.060568e+03,1.051274e+04
2.061533e+03,1.052071e+04
2.062497e+03,1.052806e+04
2.063461e+03,1.052543e+04
2.064425e+03,1.051394e+04
2.065390e+03,1.049140e+04
2.066354e+03,1.046066e+04
2.067318e+03,1.042441e+04
2.068282e+03,1.039408e+04
2.069247e+03,1.038511e+04
2.070211e+03,1.039053e+04
2.071175e+03,1.038627e+04
2.072139e+03,1.037564e+04
2.073104e+03,1.036181e+04
2.074068e+03,1.034647e+04
2.075032e+03,1.033120e+04
2.075996e+03,1.031560e+04
2.076960e+03,1.032126e+04
2.077925e+03,1.035058e+04
2.078889e+03,1.035975e+04
2.079853e+03,1.034635e+04
2.080817e+03,1.032861e+04
2.081782e+03,1.030780e+04
2.082746e+03,1.027480e+04
2.083710e+03,1.021960e+04
2.084674e+03,1.019663e+04
2.085639e+03,1.021443e+04
2.086603e+03,1.023613e+04
2.087567e+03,1.021902e+04
2.088531e+03,1.020931e+04
2.089496e+03,1.021073e+04
2.090460e+03,1.020308e+04
2.091424e+03,1.019405e+04
2.092388e+03,1.018687e+04
2.093353e+03,1.016949e+04
2.094317e+03,1.016578e+04
2.095281e+03,1.017520e+04
2.096245e+03,1.018371e+04
2.097209e+03,1.018208e+04
2.098174e+03,1.017169e+04
2.099138e+03,1.015750e+04
2.100102e+03,1.014272e+04
2.101066e+03,1.013216e+04
2.102031e+03,1.011824e+04
2.102995e+03,1.008526e+04
2.103959e+03,1.005607e+04
2.104923e+03,1.005190e+04
2.105887e+03,1.006875e+04
2.106852e+03,1.008856e+04
2.107816e+03,1.010268e+04
2.108780e+03,1.011710e+04
2.109744e+03,1.012197e+04
2.110708e+03,1.008991e+04
2.111673e+03,1.004981e+04
2.112637e+03,1.004093e+04
2.113601e+03,1.003856e+04
2.114565e+03,9.981642e+03
2.115530e+03,9.903521e+03
2.116494e+03,9.875814e+03
2.117458e+03,9.908314e+03
2.118422e+03,9.959880e+03
2.119387e+03,1.001576e+04
2.120351e+03,1.004446e+04
2.121315e+03,1.004187e+04
2.122279e+03,1.001542e+04
2.123244e+03,9.966004e+03
2.124208e+03,9.947419e+03
2.125172e+03,9.952237e+03
2.126136e+03,9.939799e+03
2.127101e+03,9.899972e+03
2.128065e+03,9.868401e+03
2.129029e+03,9.844063e+03
2.129993e+03,9.841488e+03
2.130958e+03,9.854088e+03
2.131922e+03,9.861679e+03
2.132886e+03,9.866288e+03
2.133850e+03,9.856563e+03
2.134814e+03,9.841621e+03
2.135779e+03,9.833629e+03
2.136743e+03,9.830553e+03
2.137707e+03,9.826839e+03
2.138671e+03,9.825871e+03
2.139636e+03,9.828168e+03
2.140600e+03,9.846968e+03
2.141564e+03,9.830091e+03
2.142528e+03,9.774499e+03
2.143493e+03,9.734342e+03
2.144457e+03,9.730639e+03
2.145421e+03,9.720660e+03
2.146385e+03,9.693124e+03
2.147350e+03,9.672064e+03
2.148314e+03,9.669511e+03
2.149278e+03,9.678740e+03
2.150242e+03,9.688779e+03
2.151207e+03,9.692435e+03
2.152171e+03,9.685722e+03
2.153135e+03,9.670467e+03
2.154099e+03,9.667079e+03
2.155063e+03,9.647130e+03
2.156028e+03,9.600529e+03
2.156992e+03,9.577604e+03
2.157956e+03,9.626972e+03
2.158920e+03,9.658108e+03
2.159885e+03,9.619154e+03
2.160849e+03,9.581088e+03
2.161813e+03,9.576763e+03
2.162777e+03,9.584345e+03
2.163741e+03,9.610612e+03
2.164706e+03,9.606274e+03
2.165670e+03,9.553565e+03
2.166634e+03,9.506809e+03
2.167598e+03,9.529202e+03
2.168563e+03,9.548956e+03
2.169527e+03,9.521618e+03
2.170491e+03,9.484919e+03
2.171455e+03,9.500265e+03
2.172420e+03,9.518607e+03
2.173384e+03,9.507066e+03
2.174348e+03,9.490606e+03
2.175312e+03,9.485655e+03
2.176277e+03,9.479314e+03
2.177241e+03,9.460423e+03
2.178205e+03,9.437223e+03
2.179169e+03,9.418962e+03
2.180134e+03,9.409786e+03
2.181098e+03,9.409947e+03
2.182062e+03,9.413210e+03
2.183026e+03,9.408382e+03
2.183990e+03,9.397475e+03
2.184955e+03,9.385460e+03
2.185919e+03,9.369388e+03
2.186883e+03,9.335229e+03
2.187847e+03,9.304546e+03
2.188812e+03,9.321309e+03
2.189776e+03,9.351266e+03
2.190740e+03,9.354926e+03
2.191704e+03,9.341436e+03
2.192668e+03,9.315911e+03
2.193633e+03,9.291511e+03
2.194597e+03,9.289228e+03
2.195561e+03,9.295059e+03
2.196525e+03,9.293208e+03
2.197490e+03,9.283204e+03
2.198454e+03,9.257753e+03
2.199418e+03,9.232946e+03
2.200382e+03,9.227940e+03
2.201347e+03,9.234591e+03
2.202311e+03,9.221940e+03
2.203275e+03,9.211422e+03
2.204239e+03,9.225987e+03
2.205204e+03,9.237866e+03
2.206168e+03,9.222986e+03
2.207132e+03,9.197255e+03
2.208096e+03,9.165721e+03
2.209061e+03,9.131096e+03
2.210025e+03,9.103483e+03
2.210989e+03,9.081734e+03
2.211953e+03,9.063575e+03
2.212917e+03,9.071236e+03
2.213882e+03,9.104775e+03
2.214846e+03,9.141410e+03
2.215810e+03,9.156714e+03
2.216774e+03,9.147578e+03
2.217739e+03,9.132905e+03
2.218703e+03,9.112542e+03
2.219667e+03,9.073322e+03
2.220631e+03,9.031313e+03
2.221595e+03,8.994498e+03
2.222560e+03,8.965155e+03
2.223524e+03,8.953931e+03
2.224488e+03,8.949250e+03
2.225452e+03,8.943521e+03
2.226417e+03,8.939560e+03
2.227381e+03,8.934873e+03
2.228345e+03,8.938094e+03
2.229309e+03,8.956143e+03
2.230274e+03,8.973838e+03
2.231238e+03,8.985646e+03
2.232202e+03,8.985421e+03
2.233166e+03,8.965100e+03
2.234131e+03,8.944797e+03
2.235095e+03,8.937512e+03
2.236059e+03,8.933056e+03
2.237023e+03,8.909626e+03
2.237988e+03,8.883509e+03
2.238952e+03,8.863953e+03
2.239916e+03,8.842986e+03
2.240880e+03,8.815829e+03
2.241844e+03,8.795028e+03
2.242809e+03,8.789767e+03
2.243773e+03,8.790464e+03
2.244737e+03,8.782458e+03
2.245701e+03,8.771519e+03
2.246666e+03,8.757450e+03
2.247630e+03,8.748625e+03
2.248594e+03,8.769161e+03
2.249558e+03,8.794165e+03
2.250522e+03,8.786440e+03
2.251487e+03,8.781239e+03
2.252451e+03,8.789526e+03
2.253415e+03,8.786114e+03
2.254379e+03,8.755221e+03
2.255344e+03,8.715614e+03
2.256308e+03,8.673441e+03
2.257272e+03,8.642204e+03
2.258236e+03,8.637633e+03
2.259201e+03,8.646692e+03
2.260165e+03,8.661144e+03
2.261129e+03,8.674432e+03
2.262093e+03,8.679075e+03
2.263058e+03,8.680021e+03
2.264022e+03,8.687719e+03
2.264986e+03,8.692862e+03
2.265950e+03,8.678615e+03
2.266915e+03,8.660693e+03
2.267879e+03,8.637708e+03
2.268843e+03,8.608350e+03
2.269807e+03,8.582161e+03
2.270771e+03,8.558987e+03
2.271736e+03,8.538728e+03
2.272700e+03,8.535657e+03
2.273664e+03,8.546866e+03
2.274628e+03,8.553252e+03
2.275593e+03,8.545101e+03
2.276557e+03,8.522062e+03
2.277521e+03,8.489980e+03
2.278485e+03,8.479792e+03
2.279449e+03,8.521006e+03
2.280414e+03,8.544619e+03
2.281378e+03,8.545511e+03
2.282342e+03,8.539063e+03
2.283306e+03,8.522156e+03
2.284271e+03,8.498942e+03
2.285235e+03,8.468198e+03
2.286199e+03,8.438137e+03
2.287163e+03,8.421567e+03
2.288128e+03,8.431993e+03
2.289092e+03,8.457405e+03
2.290056e+03,8.456350e+03
2.291020e+03,8.420118e+03
2.291985e+03,8.389083e+03
2.292949e+03,8.371820e+03
2.293913e+03,8.374621e+03
2.294877e+03,8.392664e+03
2.295842e+03,8.406229e+03
2.296806e+03,8.409377e+03
2.297770e+03,8.402156e+03
2.298734e+03,8.385395e+03
2.299698e+03,8.367804e+03
2.300663e+03,8.352099e+03
2.301627e+03,8.329146e+03
2.302591e+03,8.301904e+03
2.303555e+03,8.285307e+03
2.304520e+03,8.278674e+03
2.305484e+03,8.275596e+03
2.306448e+03,8.272843e+03
2.307412e+03,8.255713e+03
2.308376e+03,8.230589e+03
2.309341e+03,8.223936e+03
2.310305e+03,8.224338e+03
2.311269e+03,8.221229e+03
2.312233e+03,8.222948e+03
2.313198e+03,8.239057e+03
2.314162e+03,8.252941e+03
2.315126e+03,8.251209e+03
2.316090e+03,8.236231e+03
2.317055e+03,8.201134e+03
2.318019e+03,8.172365e+03
2.318983e+03,8.174420e+03
2.319947e+03,8.179417e+03
2.320912e+03,8.175333e+03
2.321876e+03,8.171296e+03
2.322840e+03,8.170373e+03
2.323804e+03,8.171569e+03
2.324769e+03,8.182019e+03
2.325733e+03,8.183189e+03
2.326697e+03,8.140218e+03
2.327661e+03,8.119220e+03
2.328625e+03,8.137052e+03
2.329590e+03,8.144670e+03
2.330554e+03,8.111572e+03
2.331518e+03,8.097746e+03
2.332482e+03,8.112091e+03
2.333447e+03,8.118160e+03
2.334411e+03,8.089830e+03
2.335375e+03,8.072329e+03
2.336339e+03,8.067725e+03
2.337303e+03,8.058623e+03
2.338268e+03,8.031692e+03
2.339232e+03,7.998732e+03
2.340196e+03,7.965748e+03
2.341160e+03,7.958727e+03
2.342125e+03,7.986495e+03
2.343089e+03,8.007586e+03
2.344053e+03,8.013845e+03
2.345017e+03,8.019661e+03
2.345982e+03,8.027130e+03
2.346946e+03,8.012909e+03
2.347910e+03,7.988166e+03
2.348874e+03,7.954248e+03
2.349839e+03,7.916560e+03
2.350803e+03,7.915304e+03
2.351767e+03,7.933532e+03
2.352731e+03,7.928310e+03
2.353696e+03,7.919691e+03
2.354660e+03,7.939221e+03
2.355624e+03,7.959372e+03
2.356588e+03,7.938157e+03
2.357552e+03,7.911011e+03
2.358517e+03,7.911874e+03
2.359481e+03,7.918813e+03
2.360445e+03,7.899299e+03
2.361409e+03,7.874077e+03
2.362374e+03,7.853562e+03
2.363338e+03,7.834260e+03
2.364302e+03,7.825436e+03
2.365266e+03,7.829087e+03
2.366230e+03,7.842632e+03
2.367195e+03,7.845344e+03
2.368159e+03,7.806686e+03
2.369123e+03,7.779919e+03
2.370087e+03,7.779838e+03
2.371052e+03,7.778702e+03
2.372016e+03,7.758474e+03
2.372980e+03,7.764071e+03
2.373944e+03,7.791138e+03
2.374909e+03,7.790736e+03
2.375873e+03,7.737732e+03
2.376837e+03,7.727151e+03
2.377801e+03,7.747672e+03
2.378766e+03,7.735790e+03
2.379730e+03,7.686068e+03
2.380694e+03,7.658271e+03
2.381658e+03,7.651333e+03
2.382623e+03,7.653317e+03
2.383587e+03,7.656544e+03
2.384551e+03,7.643118e+03
2.385515e+03,7.620958e+03
2.386479e+03,7.613520e+03
2.387444e+03,7.614826e+03
2.388408e+03,7.621986e+03
2.389372e+03,7.629540e+03
2.390336e+03,7.626821e+03
2.391301e+03,7.616231e+03
2.392265e+03,7.587116e+03
2.393229e+03,7.563741e+03
2.394193e+03,7.566704e+03
2.395157e+03,7.567919e+03
2.396122e+03,7.548585e+03
2.397086e+03,7.533445e+03
2.398050e+03,7.534459e+03
2.399014e+03,7.534597e+03
2.399979e+03,7.525397e+03
2.400943e+03,7.516149e+03
2.401907e+03,7.505764e+03
2.402871e+03,7.498823e+03
2.403836e+03,7.499164e+03
2.404800e+03,7.500000e+03
2.405764e+03,7.498701e+03
2.406728e+03,7.498437e+03
2.407693e+03,7.494545e+03
2.408657e+03,7.487137e+03
2.409621e+03,7.480068e+03
2.410585e+03,7.467632e+03
2.411550e+03,7.453953e+03
2.412514e+03,7.448133e+03
2.413478e+03,7.443027e+03
2.414442e+03,7.413945e+03
2.415406e+03,7.385290e+03
2.416371e+03,7.380951e+03
2.417335e+03,7.392369e+03
2.418299e+03,7.422448e+03
2.419263e+03,7.433845e+03
2.420228e+03,7.397885e+03
2.421192e+03,7.363114e+03
2.422156e+03,7.394909e+03
2.423120e+03,7.410548e+03
2.424084e+03,7.383264e+03
2.425049e+03,7.343564e+03
2.426013e+03,7.309765e+03
2.426977e+03,7.291895e+03
2.427941e+03,7.296042e+03
2.428906e+03,7.304795e+03
2.429870e+03,7.310445e+03
2.430834e+03,7.294004e+03
2.431798e+03,7.265164e+03
2.432763e+03,7.270995e+03
2.433727e+03,7.306132e+03
2.434691e+03,7.319043e+03
2.435655e+03,7.313044e+03
2.436620e+03,7.293920e+03
2.437584e+03,7.269774e+03
2.438548e+03,7.257537e+03
2.439512e+03,7.256610e+03
2.440477e+03,7.265443e+03
2.441441e+03,7.266771e+03
2.442405e+03,7.239122e+03
2.443369e+03,7.214197e+03
2.444333e+03,7.210067e+03
2.445298e+03,7.212556e+03
2.446262e+03,7.211247e+03
2.447226e+03,7.202497e+03
2.448190e+03,7.189476e+03
2.449155e+03,7.178431e+03
2.450119e+03,7.179966e+03
2.451083e+03,7.176342e+03
2.452047e+03,7.166448e+03
2.453011e+03,7.163822e+03
2.453976e+03,7.175664e+03
2.454940e+03,7.159459e+03
2.455904e+03,7.131894e+03
2.456868e+03,7.130838e+03
2.457833e+03,7.141939e+03
2.458797e+03,7.126341e+03
2.459761e+03,7.100110e+03
2.460725e+03,7.076688e+03
2.461690e+03,7.058690e+03
2.462654e+03,7.048325e+03
2.463618e+03,7.051947e+03
2.464582e+03,7.079882e+03
2.465547e+03,7.108268e+03
2.466511e+03,7.109223e+03
2.467475e+03,7.083075e+03
2.468439e+03,7.029642e+03
2.469404e+03,6.987438e+03
2.470368e+03,6.994843e+03
2.471332e+03,7.011394e+03
2.472296e+03,7.028808e+03
2.473260e+03,7.026559e+03
2.474225e+03,6.999194e+03
2.475189e+03,6.963603e+03
2.476153e+03,6.935456e+03
2.477117e+03,6.962296e+03
2.478082e+03,7.016423e+03
2.479046e+03,7.017071e+03
2.480010e+03,6.989996e+03
2.480974e+03,6.969538e+03
2.481938e+03,6.957727e+03
2.482903e+03,6.963065e+03
2.483867e+03,6.966140e+03
2.484831e+03,6.954924e+03
2.485795e+03,6.936272e+03
2.486760e+03,6.909490e+03
2.487724e+03,6.906464e+03
2.488688e+03,6.934380e+03
2.489652e+03,6.948975e+03
2.490617e+03,6.909003e+03
2.491581e+03,6.889537e+03
2.492545e+03,6.890929e+03
2.493509e+03,6.894141e+03
2.494474e+03,6.890431e+03
2.495438e+03,6.867487e+03
2.496402e+03,6.841171e+03
2.497366e+03,6.858132e+03
2.498331e+03,6.891328e+03
2.499295e+03,6.892846e+03
2.500259e+03,6.871461e+03
2.501223e+03,6.840071e+03
2.502188e+03,6.815339e+03
2.503152e+03,6.820284e+03
2.504116e+03,6.822625e+03
2.505080e+03,6.812668e+03
2.506044e+03,6.803009e+03
2.507009e+03,6.797579e+03
2.507973e+03,6.788970e+03
2.508937e+03,6.780840e+03
2.509901e+03,6.781417e+03
2.510865e+03,6.792155e+03
2.511830e+03,6.761479e+03
2.512794e+03,6.708414e+03
2.513758e+03,6.715165e+03
2.514722e+03,6.757884e+03
2.515687e+03,6.755149e+03
2.516651e+03,6.725740e+03
2.517615e+03,6.684358e+03
2.518579e+03,6.653026e+03
2.519544e+03,6.671486e+03
2.520508e+03,6.691946e+03
2.521472e+03,6.699112e+03
2.522436e+03,6.697677e+03
2.523401e+03,6.687776e+03
2.524365e+03,6.671760e+03
2.525329e+03,6.645702e+03
2.526293e+03,6.645487e+03
2.527258e+03,6.687392e+03
2.528222e+03,6.686824e+03
2.529186e+03,6.658811e+03
2.530150e+03,6.655257e+03
2.531115e+03,6.671162e+03
2.532079e+03,6.673096e+03
2.533043e+03,6.664003e+03
2.534007e+03,6.643945e+03
2.534971e+03,6.619087e+03
2.535936e+03,6.608121e+03
2.536900e+03,6.599647e+03
2.537864e+03,6.587305e+03
2.538828e+03,6.588953e+03
2.539792e+03,6.608829e+03
2.540757e+03,6.617432e+03
2.541721e+03,6.610837e+03
2.542685e+03,6.601904e+03
2.543649e+03,6.595586e+03
2.544614e+03,6.574164e+03
2.545578e+03,6.544304e+03
2.546542e+03,6.543442e+03
2.547506e+03,6.559516e+03
2.548471e+03,6.560959e+03
2.549435e+03,6.550033e+03
2.550399e+03,6.526151e+03
2.551363e+03,6.502534e+03
2.552328e+03,6.495995e+03
2.553292e+03,6.492178e+03
2.554256e+03,6.487445e+03
2.555220e+03,6.479491e+03
2.556185e+03,6.466382e+03
2.557149e+03,6.468493e+03
2.558113e+03,6.487175e+03
2.559077e+03,6.491188e+03
2.560042e+03,6.480027e+03
2.561006e+03,6.469185e+03
2.561970e+03,6.467294e+03
2.562934e+03,6.468024e+03
2.563898e+03,6.469024e+03
2.564863e+03,6.464958e+03
2.565827e+03,6.453513e+03
2.566791e+03,6.439953e+03
2.567755e+03,6.435562e+03
2.568719e+03,6.434470e+03
2.569684e+03,6.427403e+03
2.570648e+03,6.411496e+03
2.571612e+03,6.391895e+03
2.572576e+03,6.377645e+03
2.573541e+03,6.384229e+03
2.574505e+03,6.401146e+03
2.575469e+03,6.406043e+03
2.576433e+03,6.400523e+03
2.577398e+03,6.395314e+03
2.578362e+03,6.387969e+03
2.579326e+03,6.366708e+03
2.580290e+03,6.358864e+03
2.581255e+03,6.373769e+03
2.582219e+03,6.379975e+03
2.583183e+03,6.349340e+03
2.584147e+03,6.325354e+03
2.585112e+03,6.318363e+03
2.586076e+03,6.314408e+03
2.587040e+03,6.309872e+03
2.588004e+03,6.312717e+03
2.588969e+03,6.316499e+03
2.589933e+03,6.321865e+03
2.590897e+03,6.323339e+03
2.591861e+03,6.299748e+03
2.592825e+03,6.276172e+03
2.593790e+03,6.265260e+03
2.594754e+03,6.258695e+03
2.595718e+03,6.252511e+03
2.596682e+03,6.247726e+03
2.597646e+03,6.241515e+03
2.598611e+03,6.232385e+03
2.599575e+03,6.226554e+03
2.600539e+03,6.232188e+03
2.601503e+03,6.243815e+03
2.602468e+03,6.246292e+03
2.603432e+03,6.240207e+03
2.604396e+03,6.234307e+03
2.605360e+03,6.227872e+03
2.606325e+03,6.204127e+03
2.607289e+03,6.192718e+03
2.608253e+03,6.209599e+03
2.609217e+03,6.226386e+03
2.610182e+03,6.223592e+03
2.611146e+03,6.198298e+03
2.612110e+03,6.159814e+03
2.613074e+03,6.155635e+03
2.614039e+03,6.185610e+03
2.615003e+03,6.192131e+03
2.615967e+03,6.178474e+03
2.616931e+03,6.160784e+03
2.617896e+03,6.148738e+03
2.618860e+03,6.159336e+03
2.619824e+03,6.160052e+03
2.620788e+03,6.134939e+03
2.621752e+03,6.121224e+03
2.622717e+03,6.156006e+03
2.623681e+03,6.162050e+03
2.624645e+03,6.137959e+03
2.625609e+03,6.121734e+03
2.626573e+03,6.116209e+03
2.627538e+03,6.118681e+03
2.628502e+03,6.122271e+03
2.629466e+03,6.107171e+03
2.630430e+03,6.086963e+03
2.631395e+03,6.075597e+03
2.632359e+03,6.070052e+03
2.633323e+03,6.073347e+03
2.634287e+03,6.071376e+03
2.635252e+03,6.063656e+03
2.636216e+03,6.066975e+03
2.637180e+03,6.078986e+03
2.638144e+03,6.075729e+03
2.639109e+03,6.061736e+03
2.640073e+03,6.063487e+03
2.641037e+03,6.074430e+03
2.642001e+03,6.067771e+03
2.642966e+03,6.058170e+03
2.643930e+03,6.054014e+03
2.644894e+03,6.049493e+03
2.645858e+03,6.039481e+03
2.646823e+03,6.035744e+03
2.647787e+03,6.033458e+03
2.648751e+03,6.021416e+03
2.649715e+03,5.998951e+03
2.650679e+03,5.998294e+03
2.651644e+03,6.009004e+03
2.652608e+03,6.014227e+03
2.653572e+03,6.013842e+03
2.654536e+03,6.013788e+03
2.655500e+03,6.000772e+03
2.656465e+03,5.966430e+03
2.657429e+03,5.948089e+03
2.658393e+03,5.954829e+03
2.659357e+03,5.940670e+03
2.660322e+03,5.912149e+03
2.661286e+03,5.905380e+03
2.662250e+03,5.911186e+03
2.663214e+03,5.903089e+03
2.664179e+03,5.886313e+03
2.665143e+03,5.861771e+03
2.666107e+03,5.851696e+03
2.667071e+03,5.869676e+03
2.668036e+03,5.884506e+03
2.669000e+03,5.864261e+03
2.669964e+03,5.866148e+03
2.670928e+03,5.887312e+03
2.671893e+03,5.909545e+03
2.672857e+03,5.930154e+03
2.673821e+03,5.935295e+03
2.674785e+03,5.918040e+03
2.675750e+03,5.873376e+03
2.676714e+03,5.834263e+03
2.677678e+03,5.845403e+03
2.678642e+03,5.844784e+03
2.679606e+03,5.819432e+03
2.680571e+03,5.812223e+03
2.681535e+03,5.827283e+03
2.682499e+03,5.835619e+03
2.683463e+03,5.834124e+03
2.684427e+03,5.845327e+03
2.685392e+03,5.852390e+03
2.686356e+03,5.798092e+03
2.687320e+03,5.749927e+03
2.688284e+03,5.766770e+03
2.689249e+03,5.784276e+03
2.690213e+03,5.784639e+03
2.691177e+03,5.773685e+03
2.692141e+03,5.757490e+03
2.693106e+03,5.760841e+03
2.694070e+03,5.774228e+03
2.695034e+03,5.769268e+03
2.695998e+03,5.755056e+03
2.696963e+03,5.744083e+03
2.697927e+03,5.744305e+03
2.698891e+03,5.755429e+03
2.699855e+03,5.750918e+03
2.700820e+03,5.715649e+03
2.701784e+03,5.712606e+03
2.702748e+03,5.738877e+03
2.703712e+03,5.747496e+03
2.704677e+03,5.739893e+03
2.705641e+03,5.737166e+03
2.706605e+03,5.735882e+03
2.707569e+03,5.714575e+03
2.708533e+03,5.692303e+03
2.709498e+03,5.673437e+03
2.710462e+03,5.671077e+03
2.711426e+03,5.710990e+03
2.712390e+03,5.709194e+03
2.713354e+03,5.675339e+03
2.714319e+03,5.658650e+03
2.715283e+03,5.653073e+03
2.716247e+03,5.636767e+03
2.717211e+03,5.629064e+03
2.718176e+03,5.645464e+03
2.719140e+03,5.657998e+03
2.720104e+03,5.639680e+03
2.721068e+03,5.640566e+03
2.722033e+03,5.664979e+03
2.722997e+03,5.672217e+03
2.723961e+03,5.661795e+03
2.724925e+03,5.649735e+03
2.725890e+03,5.640783e+03
2.726854e+03,5.640380e+03
2.727818e+03,5.636730e+03
2.728782e+03,5.616157e+03
2.729747e+03,5.590977e+03
2.730711e+03,5.560421e+03
2.731675e+03,5.569323e+03
2.732639e+03,5.607100e+03
2.733604e+03,5.607923e+03
2.734568e+03,5.585197e+03
2.735532e+03,5.581409e+03
2.736496e+03,5.583686e+03
2.737460e+03,5.588021e+03
2.738425e+03,5.582335e+03
2.739389e+03,5.552237e+03
2.740353e+03,5.534651e+03
2.741317e+03,5.537705e+03
2.742281e+03,5.537025e+03
2.743246e+03,5.536031e+03
2.744210e+03,5.544195e+03
2.745174e+03,5.544188e+03
2.746138e+03,5.516591e+03
2.747103e+03,5.497909e+03
2.748067e+03,5.504261e+03
2.749031e+03,5.524062e+03
2.749995e+03,5.562130e+03
2.750960e+03,5.549304e+03
2.751924e+03,5.507090e+03
2.752888e+03,5.503670e+03
2.753852e+03,5.522361e+03
2.754817e+03,5.538888e+03
2.755781e+03,5.535367e+03
2.756745e+03,5.491852e+03
2.757709e+03,5.469177e+03
2.758674e+03,5.479570e+03
2.759638e+03,5.500201e+03
2.760602e+03,5.523620e+03
2.761566e+03,5.504293e+03
2.762531e+03,5.470761e+03
2.763495e+03,5.458670e+03
2.764459e+03,5.459016e+03
2.765423e+03,5.483390e+03
2.766387e+03,5.488311e+03
2.767352e+03,5.469299e+03
2.768316e+03,5.457413e+03
2.769280e+03,5.457965e+03
2.770244e+03,5.449228e+03
2.771208e+03,5.435807e+03
2.772173e+03,5.420579e+03
2.773137e+03,5.401263e+03
2.774101e+03,5.378697e+03
2.775065e+03,5.380315e+03
2.776030e+03,5.427614e+03
2.776994e+03,5.410990e+03
2.777958e+03,5.338911e+03
2.778922e+03,5.340405e+03
2.779887e+03,5.394314e+03
2.780851e+03,5.428097e+03
2.781815e+03,5.429814e+03
2.782779e+03,5.400672e+03
2.783744e+03,5.374542e+03
2.784708e+03,5.367860e+03
2.785672e+03,5.356136e+03
2.786636e+03,5.338928e+03
2.787601e+03,5.333676e+03
2.788565e+03,5.342173e+03
2.789529e+03,5.372813e+03
2.790493e+03,5.393341e+03
2.791458e+03,5.352096e+03
2.792422e+03,5.326970e+03
2.793386e+03,5.339657e+03
2.794350e+03,5.348086e+03
2.795314e+03,5.337913e+03
2.796279e+03,5.298947e+03
2.797243e+03,5.266843e+03
2.798207e+03,5.315002e+03
2.799171e+03,5.375359e+03
2.800135e+03,5.345757e+03
2.801100e+03,5.329938e+03
2.802064e+03,5.356323e+03
2.803028e+03,5.358454e+03
2.803992e+03,5.332148e+03
2.804957e+03,5.284464e+03
2.805921e+03,5.241316e+03
2.806885e+03,5.246420e+03
2.807849e+03,5.261362e+03
2.808814e+03,5.265085e+03
2.809778e+03,5.268584e+03
2.810742e+03,5.282939e+03
2.811706e+03,5.274469e+03
2.812671e+03,5.246992e+03
2.813635e+03,5.237802e+03
2.814599e+03,5.235179e+03
2.815563e+03,5.212359e+03
2.816528e+03,5.202759e+03
2.817492e+03,5.233122e+03
2.818456e+03,5.226122e+03
2.819420e+03,5.176857e+03
2.820385e+03,5.161450e+03
2.821349e+03,5.183799e+03
2.822313e+03,5.223760e+03
2.823277e+03,5.244385e+03
2.824241e+03,5.213081e+03
2.825206e+03,5.187454e+03
2.826170e+03,5.215378e+03
2.827134e+03,5.195333e+03
2.828098e+03,5.127562e+03
2.829063e+03,5.136826e+03
2.830027e+03,5.186494e+03
2.830991e+03,5.207474e+03
2.831955e+03,5.222239e+03
2.832919e+03,5.238978e+03
2.833884e+03,5.230963e+03
2.834848e+03,5.196877e+03
2.835812e+03,5.189634e+03
2.836776e+03,5.208508e+03
2.837741e+03,5.179253e+03
2.838705e+03,5.140798e+03
2.839669e+03,5.134055e+03
2.840633e+03,5.140040e+03
2.841598e+03,5.150509e+03
2.842562e+03,5.148607e+03
2.843526e+03,5.134404e+03
2.844490e+03,5.132010e+03
2.845455e+03,5.130089e+03
2.846419e+03,5.113850e+03
2.847383e+03,5.100599e+03
2.848347e+03,5.114123e+03
2.849312e+03,5.123503e+03
2.850276e+03,5.122474e+03
2.851240e+03,5.123826e+03
2.852204e+03,5.125089e+03
2.853168e+03,5.137465e+03
2.854133e+03,5.143540e+03
2.855097e+03,5.110132e+03
2.856061e+03,5.100769e+03
2.857025e+03,5.126354e+03
2.857990e+03,5.127938e+03
2.858954e+03,5.089359e+03
2.859918e+03,5.097781e+03
2.860882e+03,5.125612e+03
2.861846e+03,5.127698e+03
2.862811e+03,5.112082e+03
2.863775e+03,5.078342e+03
2.864739e+03,5.056287e+03
2.865703e+03,5.055194e+03
2.866668e+03,5.083328e+03
2.867632e+03,5.119774e+03
2.868596e+03,5.104627e+03
2.869560e+03,5.072303e+03
2.870525e+03,5.069375e+03
2.871489e+03,5.069958e+03
2.872453e+03,5.064779e+03
2.873417e+03,5.052083e+03
2.874382e+03,5.033107e+03
2.875346e+03,5.044727e+03
2.876310e+03,5.059793e+03
2.877274e+03,5.008398e+03
2.878239e+03,4.977619e+03
2.879203e+03,4.994262e+03
2.880167e+03,5.022900e+03
2.881131e+03,5.060724e+03
2.882095e+03,5.059745e+03
2.883060e+03,5.029632e+03
2.884024e+03,4.973429e+03
2.884988e+03,4.948650e+03
2.885952e+03,5.025772e+03
2.886917e+03,5.054924e+03
2.887881e+03,5.002143e+03
2.888845e+03,4.995825e+03
2.889809e+03,5.019684e+03
2.890773e+03,5.019319e+03
2.891738e+03,5.009259e+03
2.892702e+03,5.022671e+03
2.893666e+03,5.024165e+03
2.894630e+03,5.008178e+03
2.895595e+03,5.000614e+03
2.896559e+03,4.998564e+03
2.897523e+03,4.981460e+03
2.898487e+03,4.965239e+03
2.899452e+03,4.969640e+03
2.900416e+03,4.972999e+03
2.901380e+03,4.968092e+03
2.902344e+03,4.962094e+03
2.903309e+03,4.955736e+03
2.904273e+03,4.947832e+03
2.905237e+03,4.936592e+03
2.906201e+03,4.913880e+03
2.907166e+03,4.914969e+03
2.908130e+03,4.954844e+03
2.909094e+03,4.962150e+03
2.910058e+03,4.930727e+03
2.911022e+03,4.961280e+03
2.911987e+03,4.992095e+03
2.912951e+03,4.947408e+03
2.913915e+03,4.895582e+03
2.914879e+03,4.881688e+03
2.915844e+03,4.878648e+03
2.916808e+03,4.885065e+03
2.917772e+03,4.889000e+03
2.918736e+03,4.892854e+03
2.919700e+03,4.896868e+03
2.920665e+03,4.900817e+03
2.921629e+03,4.910691e+03
2.922593e+03,4.905303e+03
2.923557e+03,4.888669e+03
2.924522e+03,4.861715e+03
2.925486e+03,4.844038e+03
2.926450e+03,4.911932e+03
2.927414e+03,4.946404e+03
2.928379e+03,4.874292e+03
2.929343e+03,4.845025e+03
2.930307e+03,4.861396e+03
2.931271e+03,4.865614e+03
2.932236e+03,4.864984e+03
2.933200e+03,4.874503e+03
2.934164e+03,4.882548e+03
2.935128e+03,4.880233e+03
2.936093e+03,4.858085e+03
2.937057e+03,4.825491e+03
2.938021e+03,4.809848e+03
2.938985e+03,4.804196e+03
2.939949e+03,4.770275e+03
2.940914e+03,4.777760e+03
2.941878e+03,4.847692e+03
2.942842e+03,4.875963e+03
2.943806e+03,4.841504e+03
2.944771e+03,4.848671e+03
2.945735e+03,4.862248e+03
2.946699e+03,4.818714e+03
2.947663e+03,4.793010e+03
2.948627e+03,4.801430e+03
2.949592e+03,4.808199e+03
2.950556e+03,4.810361e+03
2.951520e+03,4.822211e+03
2.952484e+03,4.814584e+03
2.953449e+03,4.756064e+03
2.954413e+03,4.736807e+03
2.955377e+03,4.798832e+03
2.956341e+03,4.842989e+03
2.957306e+03,4.850907e+03
2.958270e+03,4.823541e+03
2.959234e+03,4.776312e+03
2.960198e+03,4.731878e+03
2.961163e+03,4.716970e+03
2.962127e+03,4.733075e+03
2.963091e+03,4.764999e+03
2.964055e+03,4.794697e+03
2.965020e+03,4.798366e+03
2.965984e+03,4.794577e+03
2.966948e+03,4.791467e+03
2.967912e+03,4.773873e+03
2.968876e+03,4.731869e+03
2.969841e+03,4.679588e+03
2.970805e+03,4.645450e+03
2.971769e+03,4.690757e+03
2.972733e+03,4.738792e+03
2.973698e+03,4.731245e+03
2.974662e+03,4.734216e+03
2.975626e+03,4.764954e+03
2.976590e+03,4.778799e+03
2.977554e+03,4.766829e+03
2.978519e+03,4.710697e+03
2.979483e+03,4.661009e+03
2.980447e+03,4.658097e+03
2.981411e+03,4.661604e+03
2.982376e+03,4.668666e+03
2.983340e+03,4.675053e+03
2.984304e+03,4.679397e+03
2.985268e+03,4.681403e+03
2.986233e+03,4.691138e+03
2.987197e+03,4.724932e+03
2.988161e+03,4.707138e+03
2.989125e+03,4.662312e+03
2.990090e+03,4.675534e+03
2.991054e+03,4.698667e+03
2.992018e+03,4.693277e+03
2.992982e+03,4.669354e+03
2.993947e+03,4.632051e+03
2.994911e+03,4.602956e+03
2.995875e+03,4.605372e+03
2.996839e+03,4.673220e+03
2.997803e+03,4.711618e+03
2.998768e+03,4.664586e+03
2.999732e+03,4.608722e+03
3.000696e+03,4.568537e+03
3.001660e+03,4.570453e+03
3.002625e+03,4.586737e+03
3.003589e+03,4.592866e+03
3.004553e+03,4.593964e+03
3.005517e+03,4.595902e+03
3.006481e+03,4.627410e+03
3.007446e+03,4.668128e+03
3.008410e+03,4.661427e+03
3.009374e+03,4.639243e+03
3.010338e+03,4.628854e+03
3.011303e+03,4.621789e+03
3.012267e+03,4.606061e+03
3.013231e+03,4.596655e+03
3.014195e+03,4.596137e+03
3.015160e+03,4.618781e+03
3.016124e+03,4.627803e+03
3.017088e+03,4.610268e+03
3.018052e+03,4.612275e+03
3.019017e+03,4.628689e+03
3.019981e+03,4.576016e+03
3.020945e+03,4.528106e+03
3.021909e+03,4.552614e+03
3.022874e+03,4.565592e+03
3.023838e+03,4.548614e+03
3.024802e+03,4.542781e+03
3.025766e+03,4.547686e+03
3.026730e+03,4.540432e+03
3.027695e+03,4.554039e+03
3.028659e+03,4.605534e+03
3.029623e+03,4.613898e+03
3.030587e+03,4.582051e+03
3.031552e+03,4.557221e+03
3.032516e+03,4.531646e+03
3.033480e+03,4.489704e+03
3.034444e+03,4.490140e+03
3.035408e+03,4.537165e+03
3.036373e+03,4.550564e+03
3.037337e+03,4.540108e+03
3.038301e+03,4.571751e+03
3.039265e+03,4.592494e+03
3.040230e+03,4.551460e+03
3.041194e+03,4.533543e+03
3.042158e+03,4.539531e+03
3.043122e+03,4.556659e+03
3.044087e+03,4.573012e+03
3.045051e+03,4.566939e+03
3.046015e+03,4.550423e+03
3.046979e+03,4.528433e+03
3.047944e+03,4.515945e+03
3.048908e+03,4.512249e+03
3.049872e+03,4.508744e+03
3.050836e+03,4.509199e+03
3.051801e+03,4.513177e+03
3.052765e+03,4.547481e+03
3.053729e+03,4.586670e+03
3.054693e+03,4.511063e+03
3.055657e+03,4.456183e+03
3.056622e+03,4.511419e+03
3.057586e+03,4.534115e+03
3.058550e+03,4.484757e+03
3.059514e+03,4.508026e+03
3.060479e+03,4.551624e+03
3.061443e+03,4.488087e+03
3.062407e+03,4.470174e+03
3.063371e+03,4.530060e+03
3.064335e+03,4.526669e+03
3.065300e+03,4.471834e+03
3.066264e+03,4.469324e+03
3.067228e+03,4.469375e+03
3.068192e+03,4.428174e+03
3.069157e+03,4.444093e+03
3.070121e+03,4.502658e+03
3.071085e+03,4.504875e+03
3.072049e+03,4.481841e+03
3.073014e+03,4.472445e+03
3.073978e+03,4.486416e+03
3.074942e+03,4.523422e+03
3.075906e+03,4.538504e+03
3.076871e+03,4.521224e+03
3.077835e+03,4.446681e+03
3.078799e+03,4.403676e+03
3.079763e+03,4.459721e+03
3.080728e+03,4.485768e+03
3.081692e+03,4.486205e+03
3.082656e+03,4.509837e+03
3.083620e+03,4.512640e+03
3.084584e+03,4.475122e+03
3.085549e+03,4.451265e+03
3.086513e+03,4.455515e+03
3.087477e+03,4.438667e+03
3.088441e+03,4.429280e+03
3.089406e+03,4.482271e+03
3.090370e+03,4.494708e+03
3.091334e+03,4.461452e+03
3.092298e+03,4.470445e+03
3.093262e+03,4.494966e+03
3.094227e+03,4.466813e+03
3.095191e+03,4.423422e+03
3.096155e+03,4.374823e+03
3.097119e+03,4.372461e+03
3.098084e+03,4.399851e+03
3.099048e+03,4.412183e+03
3.100012e+03,4.425397e+03
3.100976e+03,4.455785e+03
3.101941e+03,4.474296e+03
3.102905e+03,4.480930e+03
3.103869e+03,4.495229e+03
3.104833e+03,4.490949e+03
3.105798e+03,4.458292e+03
3.106762e+03,4.420322e+03
3.107726e+03,4.390732e+03
3.108690e+03,4.414606e+03
3.109655e+03,4.436003e+03
3.110619e+03,4.374761e+03
3.111583e+03,4.325089e+03
3.112547e+03,4.308590e+03
3.113511e+03,4.337199e+03
3.114476e+03,4.387250e+03
3.115440e+03,4.436209e+03
3.116404e+03,4.450615e+03
3.117368e+03,4.413699e+03
3.118333e+03,4.413455e+03
3.119297e+03,4.422697e+03
3.120261e+03,4.385313e+03
3.121225e+03,4.376142e+03
3.122189e+03,4.435633e+03
3.123154e+03,4.455563e+03
3.124118e+03,4.428914e+03
3.125082e+03,4.402646e+03
3.126046e+03,4.367660e+03
3.127011e+03,4.315495e+03
3.127975e+03,4.320330e+03
3.128939e+03,4.363048e+03
3.129903e+03,4.325801e+03
3.130868e+03,4.295518e+03
3.131832e+03,4.367416e+03
3.132796e+03,4.433458e+03
3.133760e+03,4.459942e+03
3.134725e+03,4.334713e+03
3.135689e+03,4.242735e+03
3.136653e+03,4.361906e+03
3.137617e+03,4.447180e+03
3.138582e+03,4.429110e+03
3.139546e+03,4.380072e+03
3.140510e+03,4.344256e+03
3.141474e+03,4.390136e+03
3.142438e+03,4.395261e+03
3.143403e+03,4.346993e+03
3.144367e+03,4.304179e+03
3.145331e+03,4.282522e+03
3.146295e+03,4.321878e+03
3.147260e+03,4.356197e+03
3.148224e+03,4.360357e+03
3.149188e+03,4.368600e+03
3.150152e+03,4.370263e+03
3.151116e+03,4.343940e+03
3.152081e+03,4.335119e+03
3.153045e+03,4.354081e+03
3.154009e+03,4.393327e+03
3.154973e+03,4.425936e+03
3.155938e+03,4.372766e+03
3.156902e+03,4.331648e+03
3.157866e+03,4.324698e+03
3.158830e+03,4.365271e+03
3.159795e+03,4.419383e+03
3.160759e+03,4.363713e+03
3.161723e+03,4.316313e+03
3.162687e+03,4.363600e+03
3.163652e+03,4.375147e+03
3.164616e+03,4.370375e+03
3.165580e+03,4.379102e+03
3.166544e+03,4.376762e+03
3.167509e+03,4.358483e+03
3.168473e+03,4.374493e+03
3.169437e+03,4.409148e+03
3.170401e+03,4.388683e+03
3.171365e+03,4.372800e+03
3.172330e+03,4.391041e+03
3.173294e+03,4.432936e+03
3.174258e+03,4.468062e+03
3.175222e+03,4.437914e+03
3.176187e+03,4.396266e+03
3.177151e+03,4.386081e+03
3.178115e+03,4.360450e+03
3.179079e+03,4.330976e+03
3.180043e+03,4.333408e+03
3.181008e+03,4.353473e+03
3.181972e+03,4.387496e+03
3.182936e+03,4.376320e+03
3.183900e+03,4.339401e+03
3.184865e+03,4.362021e+03
3.185829e+03,4.381595e+03
3.186793e+03,4.374205e+03
3.187757e+03,4.351816e+03
3.188722e+03,4.324117e+03
3.189686e+03,4.306191e+03
3.190650e+03,4.327274e+03
3.191614e+03,4.386322e+03
3.192579e+03,4.366653e+03
3.193543e+03,4.306851e+03
3.194507e+03,4.374945e+03
3.195471e+03,4.431218e+03
3.196436e+03,4.410712e+03
3.197400e+03,4.384396e+03
3.198364e+03,4.369083e+03
3.199328e+03,4.392037e+03
3.200292e+03,4.389361e+03
3.201257e+03,0.000000e+00
3.202221e+03,0.000000e+00
3.203185e+03,0.000000e+00
3.204149e+03,0.000000e+00
3.205114e+03,0.000000e+00
3.206078e+03,0.000000e+00
3.207042e+03,0.000000e+00
3.208006e+03,0.000000e+00
3.208970e+03,0.000000e+00
3.209935e+03,0.000000e+00
3.210899e+03,0.000000e+00
3.211863e+03,0.000000e+00
3.212827e+03,0.000000e+00
3.213792e+03,0.000000e+00
3.214756e+03,0.000000e+00
3.215720e+03,0.000000e+00
3.216684e+03,0.000000e+00
3.217649e+03,0.000000e+00
3.218613e+03,0.000000e+00
3.219577e+03,0.000000e+00
3.220541e+03,0.000000e+00
3.221506e+03,0.000000e+00
3.222470e+03,0.000000e+00
3.223434e+03,0.000000e+00
3.224398e+03,0.000000e+00
3.225363e+03,0.000000e+00
3.226327e+03,0.000000e+00
3.227291e+03,0.000000e+00
3.228255e+03,0.000000e+00
3.229219e+03,0.000000e+00
3.230184e+03,0.000000e+00
3.231148e+03,0.000000e+00
3.232112e+03,0.000000e+00
3.233076e+03,0.000000e+00
3.234041e+03,0.000000e+00
3.235005e+03,0.000000e+00
3.235969e+03,0.000000e+00
3.236933e+03,0.000000e+00
3.237897e+03,0.000000e+00
3.238862e+03,0.000000e+00
3.239826e+03,0.000000e+00
3.240790e+03,0.000000e+00
3.241754e+03,0.000000e+00
3.242719e+03,0.000000e+00
3.243683e+03,0.000000e+00
3.244647e+03,0.000000e+00
3.245611e+03,0.000000e+00
3.246576e+03,0.000000e+00
3.247540e+03,0.000000e+00
3.248504e+03,0.000000e+00
3.249468e+03,0.000000e+00
3.250433e+03,0.000000e+00
3.251397e+03,0.000000e+00
3.252361e+03,0.000000e+00
3.253325e+03,0.000000e+00
3.254290e+03,0.000000e+00
3.255254e+03,0.000000e+00
3.256218e+03,0.000000e+00
3.257182e+03,0.000000e+00
3.258146e+03,0.000000e+00
3.259111e+03,0.000000e+00
3.260075e+03,0.000000e+00
3.261039e+03,0.000000e+00
3.262003e+03,0.000000e+00
3.262968e+03,0.000000e+00
3.263932e+03,0.000000e+00
3.264896e+03,0.000000e+00
3.265860e+03,0.000000e+00
3.266824e+03,0.000000e+00
3.267789e+03,0.000000e+00
3.268753e+03,0.000000e+00
3.269717e+03,0.000000e+00
3.270681e+03,0.000000e+00
3.271646e+03,0.000000e+00
3.272610e+03,0.000000e+00
3.273574e+03,0.000000e+00
3.274538e+03,0.000000e+00
3.275503e+03,0.000000e+00
3.276467e+03,0.000000e+00
3.277431e+03,0.000000e+00
3.278395e+03,0.000000e+00
3.279360e+03,0.000000e+00
3.280324e+03,0.000000e+00
3.281288e+03,0.000000e+00
3.282252e+03,0.000000e+00
3.283217e+03,0.000000e+00
3.284181e+03,0.000000e+00
3.285145e+03,0.000000e+00
3.286109e+03,0.000000e+00
3.287073e+03,0.000000e+00
3.288038e+03,0.000000e+00
3.289002e+03,0.000000e+00
3.289966e+03,0.000000e+00
3.290930e+03,0.000000e+00
3.291895e+03,0.000000e+00
3.292859e+03,0.000000e+00
3.293823e+03,0.000000e+00
3.294787e+03,0.000000e+00
3.295751e+03,0.000000e+00
3.296716e+03,0.000000e+00
3.297680e+03,0.000000e+00
3.298644e+03,0.000000e+00
3.299608e+03,0.000000e+00
3.300573e+03,0.000000e+00
3.301537e+03,0.000000e+00
3.302501e+03,0.000000e+00
3.303465e+03,0.000000e+00
3.304430e+03,0.000000e+00
3.305394e+03,0.000000e+00
3.306358e+03,0.000000e+00
3.307322e+03,0.000000e+00
3.308287e+03,0.000000e+00
3.309251e+03,0.000000e+00
3.310215e+03,0.000000e+00
3.311179e+03,0.000000e+00
3.312144e+03,0.000000e+00
3.313108e+03,0.000000e+00
3.314072e+03,0.000000e+00
3.315036e+03,0.000000e+00
3.316000e+03,0.000000e+00
3.316965e+03,0.000000e+00
3.317929e+03,0.000000e+00
3.318893e+03,0.000000e+00
3.319857e+03,0.000000e+00
3.320822e+03,0.000000e+00
3.321786e+03,0.000000e+00
3.322750e+03,0.000000e+00
3.323714e+03,0.000000e+00
3.324678e+03,0.000000e+00
3.325643e+03,0.000000e+00
3.326607e+03,0.000000e+00
3.327571e+03,0.000000e+00
3.328535e+03,0.000000e+00
3.329500e+03,0.000000e+00
3.330464e+03,0.000000e+00
3.331428e+03,0.000000e+00
3.332392e+03,0.000000e+00
3.333357e+03,0.000000e+00
3.334321e+03,0.000000e+00
3.335285e+03,0.000000e+00
3.336249e+03,0.000000e+00
3.337214e+03,0.000000e+00
3.338178e+03,0.000000e+00
3.339142e+03,0.000000e+00
3.340106e+03,0.000000e+00
3.341071e+03,0.000000e+00
3.342035e+03,0.000000e+00
3.342999e+03,0.000000e+00
3.343963e+03,0.000000e+00
3.344927e+03,0.000000e+00
3.345892e+03,0.000000e+00
3.346856e+03,0.000000e+00
3.347820e+03,0.000000e+00
3.348784e+03,0.000000e+00
3.349749e+03,0.000000e+00
3.350713e+03,0.000000e+00
3.351677e+03,0.000000e+00
3.352641e+03,0.000000e+00
3.353605e+03,0.000000e+00
3.354570e+03,0.000000e+00
3.355534e+03,0.000000e+00
3.356498e+03,0.000000e+00
3.357462e+03,0.000000e+00
3.358427e+03,0.000000e+00
3.359391e+03,0.000000e+00
3.360355e+03,0.000000e+00
3.361319e+03,0.000000e+00
3.362284e+03,0.000000e+00
3.363248e+03,0.000000e+00
3.364212e+03,0.000000e+00
3.365176e+03,0.000000e+00
3.366141e+03,0.000000e+00
3.367105e+03,0.000000e+00
3.368069e+03,0.000000e+00
3.369033e+03,0.000000e+00
3.369998e+03,0.000000e+00
3.370962e+03,0.000000e+00
3.371926e+03,0.000000e+00
3.372890e+03,0.000000e+00
3.373854e+03,0.000000e+00
3.374819e+03,0.000000e+00
3.375783e+03,0.000000e+00
3.376747e+03,0.000000e+00
3.377711e+03,0.000000e+00
3.378676e+03,0.000000e+00
3.379640e+03,0.000000e+00
3.380604e+03,0.000000e+00
3.381568e+03,0.000000e+00
3.382532e+03,0.000000e+00
3.383497e+03,0.000000e+00
3.384461e+03,0.000000e+00
3.385425e+03,0.000000e+00
3.386389e+03,0.000000e+00
3.387354e+03,0.000000e+00
3.388318e+03,0.000000e+00
3.389282e+03,0.000000e+00
3.390246e+03,0.000000e+00
3.391211e+03,0.000000e+00
3.392175e+03,0.000000e+00
3.393139e+03,0.000000e+00
3.394103e+03,0.000000e+00
3.395068e+03,0.000000e+00
3.396032e+03,0.000000e+00
3.396996e+03,0.000000e+00
3.397960e+03,0.000000e+00
3.398925e+03,0.000000e+00
3.399889e+03,0.000000e+00
3.400853e+03,0.000000e+00
3.401817e+03,0.000000e+00
3.402781e+03,0.000000e+00
3.403746e+03,0.000000e+00
3.404710e+03,0.000000e+00
3.405674e+03,0.000000e+00
3.406638e+03,0.000000e+00
3.407603e+03,0.000000e+00
3.408567e+03,0.000000e+00
3.409531e+03,0.000000e+00
3.410495e+03,0.000000e+00
3.411459e+03,0.000000e+00
3.412424e+03,0.000000e+00
3.413388e+03,0.000000e+00
3.414352e+03,0.000000e+00
3.415316e+03,0.000000e+00
3.416281e+03,0.000000e+00
3.417245e+03,0.000000e+00
3.418209e+03,0.000000e+00
3.419173e+03,0.000000e+00
3.420138e+03,0.000000e+00
3.421102e+03,0.000000e+00
3.422066e+03,0.000000e+00
3.423030e+03,0.000000e+00
3.423995e+03,0.000000e+00
3.424959e+03,0.000000e+00
3.425923e+03,0.000000e+00
3.426887e+03,0.000000e+00
3.427852e+03,0.000000e+00
3.428816e+03,0.000000e+00
3.429780e+03,0.000000e+00
3.430744e+03,0.000000e+00
3.431708e+03,0.000000e+00
3.432673e+03,0.000000e+00
3.433637e+03,0.000000e+00
3.434601e+03,0.000000e+00
3.435565e+03,0.000000e+00
3.436530e+03,0.000000e+00
3.437494e+03,0.000000e+00
3.438458e+03,0.000000e+00
3.439422e+03,0.000000e+00
3.440386e+03,0.000000e+00
3.441351e+03,0.000000e+00
3.442315e+03,0.000000e+00
3.443279e+03,0.000000e+00
3.444243e+03,0.000000e+00
3.445208e+03,0.000000e+00
3.446172e+03,0.000000e+00
3.447136e+03,0.000000e+00
3.448100e+03,0.000000e+00
3.449065e+03,0.000000e+00
3.450029e+03,0.000000e+00
3.450993e+03,0.000000e+00
3.451957e+03,0.000000e+00
3.452922e+03,0.000000e+00
3.453886e+03,0.000000e+00
3.454850e+03,0.000000e+00
3.455814e+03,0.000000e+00
3.456779e+03,0.000000e+00
3.457743e+03,0.000000e+00
3.458707e+03,0.000000e+00
3.459671e+03,0.000000e+00
3.460635e+03,0.000000e+00
3.461600e+03,0.000000e+00
3.462564e+03,0.000000e+00
3.463528e+03,0.000000e+00
3.464492e+03,0.000000e+00
3.465457e+03,0.000000e+00
3.466421e+03,0.000000e+00
3.467385e+03,0.000000e+00
3.468349e+03,0.000000e+00
3.469313e+03,0.000000e+00
3.470278e+03,0.000000e+00
3.471242e+03,0.000000e+00
3.472206e+03,0.000000e+00
3.473170e+03,0.000000e+00
3.474135e+03,0.000000e+00
3.475099e+03,0.000000e+00
3.476063e+03,0.000000e+00
3.477027e+03,0.000000e+00
3.477992e+03,0.000000e+00
3.478956e+03,0.000000e+00
3.479920e+03,0.000000e+00
3.480884e+03,0.000000e+00
3.481849e+03,0.000000e+00
3.482813e+03,0.000000e+00
3.483777e+03,0.000000e+00
3.484741e+03,0.000000e+00
3.485706e+03,0.000000e+00
3.486670e+03,0.000000e+00
3.487634e+03,0.000000e+00
3.488598e+03,0.000000e+00
3.489563e+03,0.000000e+00
3.490527e+03,0.000000e+00
3.491491e+03,0.000000e+00
3.492455e+03,0.000000e+00
3.493419e+03,0.000000e+00
3.494384e+03,0.000000e+00
3.495348e+03,0.000000e+00
3.496312e+03,0.000000e+00
3.497276e+03,0.000000e+00
3.498240e+03,0.000000e+00
3.499205e+03,0.000000e+00
3.500169e+03,0.000000e+00
