9.931763e+01,0.000000e+00
1.002819e+02,0.000000e+00
1.012461e+02,0.000000e+00
1.022103e+02,0.000000e+00
1.031746e+02,0.000000e+00
1.041388e+02,0.000000e+00
1.051030e+02,0.000000e+00
1.060673e+02,0.000000e+00
1.070315e+02,0.000000e+00
1.079957e+02,0.000000e+00
1.089600e+02,0.000000e+00
1.099242e+02,0.000000e+00
1.108884e+02,0.000000e+00
1.118527e+02,0.000000e+00
1.128169e+02,0.000000e+00
1.137811e+02,0.000000e+00
1.147454e+02,0.000000e+00
1.157096e+02,0.000000e+00
1.166738e+02,0.000000e+00
1.176381e+02,0.000000e+00
1.186023e+02,0.000000e+00
1.195665e+02,0.000000e+00
1.205308e+02,0.000000e+00
1.214950e+02,0.000000e+00
1.224592e+02,0.000000e+00
1.234235e+02,0.000000e+00
1.243877e+02,0.000000e+00
1.253519e+02,0.000000e+00
1.263162e+02,0.000000e+00
1.272804e+02,0.000000e+00
1.282446e+02,0.000000e+00
1.292089e+02,0.000000e+00
1.301731e+02,0.000000e+00
1.311373e+02,0.000000e+00
1.321016e+02,0.000000e+00
1.330658e+02,0.000000e+00
1.340300e+02,0.000000e+00
1.349943e+02,0.000000e+00
1.359585e+02,0.000000e+00
1.369227e+02,0.000000e+00
1.378870e+02,0.000000e+00
1.388512e+02,0.000000e+00
1.398154e+02,0.000000e+00
1.407797e+02,0.000000e+00
1.417439e+02,0.000000e+00
1.427081e+02,0.000000e+00
1.436724e+02,0.000000e+00
1.446366e+02,0.000000e+00
1.456008e+02,0.000000e+00
1.465651e+02,0.000000e+00
1.475293e+02,0.000000e+00
1.484935e+02,0.000000e+00
1.494578e+02,0.000000e+00
1.504220e+02,0.000000e+00
1.513862e+02,0.000000e+00
1.523505e+02,0.000000e+00
1.533147e+02,0.000000e+00
1.542789e+02,0.000000e+00
1.552432e+02,0.000000e+00
1.562074e+02,0.000000e+00
1.571716e+02,0.000000e+00
1.581359e+02,0.000000e+00
1.591001e+02,0.000000e+00
1.600643e+02,0.000000e+00
1.610286e+02,0.000000e+00
1.619928e+02,0.000000e+00
1.629570e+02,0.000000e+00
1.639213e+02,0.000000e+00
1.648855e+02,0.000000e+00
1.658497e+02,0.000000e+00
1.668140e+02,0.000000e+00
1.677782e+02,0.000000e+00
1.687424e+02,0.000000e+00
1.697067e+02,0.000000e+00
1.706709e+02,0.000000e+00
1.716351e+02,0.000000e+00
1.725994e+02,0.000000e+00
1.735636e+02,0.000000e+00
1.745278e+02,0.000000e+00
1.754921e+02,0.000000e+00
1.764563e+02,0.000000e+00
1.774205e+02,0.000000e+00
1.783848e+02,0.000000e+00
1.793490e+02,0.000000e+00
1.803132e+02,0.000000e+00
1.812775e+02,0.000000e+00
1.822417e+02,0.000000e+00
1.832059e+02,0.000000e+00
1.841702e+02,0.000000e+00
1.851344e+02,0.000000e+00
1.860986e+02,0.000000e+00
1.870629e+02,0.000000e+00
1.880271e+02,0.000000e+00
1.889913e+02,0.000000e+00
1.899556e+02,0.000000e+00
1.909198e+02,0.000000e+00
1.918840e+02,0.000000e+00
1.928483e+02,0.000000e+00
1.938125e+02,0.000000e+00
1.947767e+02,0.000000e+00
1.957410e+02,0.000000e+00
1.967052e+02,0.000000e+00
1.976694e+02,0.000000e+00
1.986337e+02,0.000000e+00
1.995979e+02,1.046964e+04
2.005621e+02,1.047981e+04
2.015264e+02,1.049152e+04
2.024906e+02,1.050564e+04
2.034548e+02,1.052034e+04
2.044191e+02,1.053340e+04
2.053833e+02,1.054303e+04
2.063475e+02,1.054905e+04
2.073118e+02,1.055229e+04
2.082760e+02,1.055275e+04
2.092402e+02,1.055023e+04
2.102045e+02,1.054658e+04
2.111687e+02,1.054622e+04
2.121329e+02,1.055114e+04
2.130972e+02,1.056043e+04
2.140614e+02,1.057110e+04
2.150256e+02,1.057994e+04
2.159899e+02,1.058612e+04
2.169541e+02,1.059435e+04
2.179183e+02,1.060919e+04
2.188826e+02,1.062824e+04
2.198468e+02,1.064671e+04
2.208110e+02,1.066058e+04
2.217753e+02,1.066859e+04
2.227395e+02,1.067257e+04
2.237037e+02,1.067718e+04
2.246680e+02,1.068221e+04
2.256322e+02,1.068503e+04
2.265964e+02,1.068749e+04
2.275607e+02,1.069241e+04
2.285249e+02,1.070199e+04
2.294892e+02,1.071674e+04
2.304534e+02,1.073503e+04
2.314176e+02,1.075159e+04
2.323819e+02,1.076485e+04
2.333461e+02,1.077655e+04
2.343103e+02,1.078854e+04
2.352746e+02,1.080180e+04
2.362388e+02,1.081599e+04
2.372030e+02,1.082920e+04
2.381673e+02,1.083688e+04
2.391315e+02,1.083789e+04
2.400957e+02,1.083586e+04
2.410600e+02,1.083374e+04
2.420242e+02,1.083454e+04
2.429884e+02,1.084039e+04
2.439527e+02,1.085114e+04
2.449169e+02,1.086350e+04
2.458811e+02,1.087555e+04
2.468454e+02,1.088743e+04
2.478096e+02,1.089928e+04
2.487738e+02,1.091119e+04
2.497381e+02,1.092293e+04
2.507023e+02,1.093465e+04
2.516665e+02,1.094691e+04
2.526308e+02,1.095972e+04
2.535950e+02,1.096986e+04
2.545592e+02,1.097477e+04
2.555235e+02,1.097477e+04
2.564877e+02,1.097263e+04
2.574519e+02,1.097223e+04
2.584161e+02,1.097703e+04
2.593804e+02,1.098841e+04
2.603446e+02,1.100378e+04
2.613088e+02,1.102010e+04
2.622731e+02,1.103715e+04
2.632373e+02,1.105562e+04
2.642015e+02,1.107264e+04
2.651658e+02,1.108527e+04
2.661300e+02,1.109288e+04
2.670942e+02,1.109793e+04
2.680585e+02,1.110515e+04
2.690227e+02,1.111871e+04
2.699869e+02,1.113241e+04
2.709512e+02,1.114052e+04
2.719154e+02,1.114331e+04
2.728796e+02,1.114520e+04
2.738439e+02,1.115154e+04
2.748081e+02,1.116541e+04
2.757723e+02,1.118599e+04
2.767366e+02,1.120554e+04
2.777008e+02,1.121963e+04
2.786650e+02,1.122956e+04
2.796293e+02,1.123792e+04
2.805935e+02,1.124688e+04
2.815577e+02,1.125743e+04
2.825220e+02,1.126901e+04
2.834862e+02,1.127886e+04
2.844504e+02,1.128402e+04
2.854147e+02,1.128623e+04
2.863789e+02,1.128756e+04
2.873431e+02,1.129060e+04
2.883074e+02,1.129709e+04
2.892716e+02,1.130667e+04
2.902358e+02,1.131700e+04
2.912001e+02,1.132663e+04
2.921643e+02,1.133578e+04
2.931285e+02,1.134644e+04
2.940928e+02,1.135958e+04
2.950570e+02,1.137532e+04
2.960212e+02,1.139113e+04
2.969855e+02,1.140364e+04
2.979497e+02,1.141115e+04
2.989139e+02,1.141448e+04
2.998782e+02,1.141725e+04
3.008424e+02,1.142350e+04
3.018066e+02,1.143413e+04
3.027709e+02,1.144636e+04
3.037351e+02,1.145768e+04
3.046993e+02,1.146692e+04
3.056636e+02,1.147431e+04
3.066278e+02,1.148101e+04
3.075920e+02,1.148884e+04
3.085563e+02,1.149845e+04
3.095205e+02,1.151189e+04
3.104847e+02,1.152890e+04
3.114490e+02,1.154741e+04
3.124132e+02,1.156491e+04
3.133774e+02,1.157925e+04
3.143417e+02,1.158917e+04
3.153059e+02,1.159377e+04
3.162701e+02,1.159601e+04
3.172344e+02,1.159868e+04
3.181986e+02,1.160278e+04
3.191628e+02,1.160888e+04
3.201271e+02,1.161750e+04
3.210913e+02,1.162868e+04
3.220555e+02,1.164175e+04
3.230198e+02,1.165575e+04
3.239840e+02,1.167008e+04
3.249482e+02,1.168424e+04
3.259125e+02,1.169771e+04
3.268767e+02,1.171076e+04
3.278409e+02,1.172364e+04
3.288052e+02,1.173625e+04
3.297694e+02,1.174823e+04
3.307336e+02,1.175929e+04
3.316979e+02,1.176965e+04
3.326621e+02,1.177917e+04
3.336263e+02,1.178546e+04
3.345906e+02,1.178808e+04
3.355548e+02,1.179020e+04
3.365190e+02,1.179593e+04
3.374833e+02,1.180784e+04
3.384475e+02,1.182536e+04
3.394117e+02,1.184477e+04
3.403760e+02,1.186072e+04
3.413402e+02,1.187475e+04
3.423044e+02,1.189110e+04
3.432687e+02,1.191061e+04
3.442329e+02,1.193150e+04
3.451971e+02,1.195065e+04
3.461614e+02,1.196491e+04
3.471256e+02,1.197256e+04
3.480898e+02,1.197636e+04
3.490541e+02,1.197884e+04
3.500183e+02,1.198235e+04
3.509825e+02,1.198931e+04
3.519468e+02,1.200161e+04
3.529110e+02,1.201902e+04
3.538752e+02,1.203903e+04
3.548395e+02,1.205831e+04
3.558037e+02,1.207473e+04
3.567680e+02,1.208796e+04
3.577322e+02,1.209937e+04
3.586964e+02,1.211193e+04
3.596607e+02,1.212734e+04
3.606249e+02,1.214420e+04
3.615891e+02,1.215814e+04
3.625534e+02,1.216518e+04
3.635176e+02,1.216445e+04
3.644818e+02,1.215827e+04
3.654461e+02,1.215143e+04
3.664103e+02,1.215042e+04
3.673745e+02,1.215997e+04
3.683388e+02,1.217766e+04
3.693030e+02,1.219936e+04
3.702672e+02,1.222116e+04
3.712315e+02,1.224066e+04
3.721957e+02,1.225655e+04
3.731599e+02,1.226728e+04
3.741242e+02,1.227460e+04
3.750884e+02,1.228331e+04
3.760526e+02,1.229588e+04
3.770169e+02,1.231209e+04
3.779811e+02,1.232940e+04
3.789453e+02,1.234456e+04
3.799096e+02,1.235504e+04
3.808738e+02,1.236076e+04
3.818380e+02,1.236471e+04
3.828023e+02,1.237077e+04
3.837665e+02,1.238138e+04
3.847307e+02,1.239503e+04
3.856950e+02,1.241141e+04
3.866592e+02,1.242942e+04
3.876234e+02,1.244819e+04
3.885877e+02,1.246715e+04
3.895519e+02,1.248583e+04
3.905161e+02,1.250335e+04
3.914804e+02,1.251785e+04
3.924446e+02,1.252836e+04
3.934088e+02,1.253735e+04
3.943731e+02,1.254654e+04
3.953373e+02,1.255656e+04
3.963015e+02,1.256595e+04
3.972658e+02,1.257221e+04
3.982300e+02,1.257562e+04
3.991942e+02,1.258175e+04
4.001585e+02,1.259571e+04
4.011227e+02,1.261709e+04
4.020869e+02,1.263801e+04
4.030512e+02,1.265208e+04
4.040154e+02,1.266066e+04
4.049796e+02,1.267012e+04
4.059439e+02,1.268439e+04
4.069081e+02,1.270183e+04
4.078723e+02,1.271719e+04
4.088366e+02,1.272684e+04
4.098008e+02,1.273115e+04
4.107650e+02,1.273667e+04
4.117293e+02,1.274472e+04
4.126935e+02,1.275391e+04
4.136577e+02,1.276351e+04
4.146220e+02,1.277363e+04
4.155862e+02,1.278514e+04
4.165504e+02,1.279876e+04
4.175147e+02,1.281375e+04
4.184789e+02,1.282808e+04
4.194431e+02,1.284042e+04
4.204074e+02,1.285257e+04
4.213716e+02,1.286533e+04
4.223358e+02,1.287724e+04
4.233001e+02,1.288676e+04
4.242643e+02,1.289395e+04
4.252285e+02,1.290059e+04
4.261928e+02,1.290905e+04
4.271570e+02,1.292052e+04
4.281212e+02,1.293422e+04
4.290855e+02,1.294774e+04
4.300497e+02,1.296031e+04
4.310139e+02,1.297290e+04
4.319782e+02,1.298699e+04
4.329424e+02,1.300393e+04
4.339066e+02,1.302397e+04
4.348709e+02,1.304558e+04
4.358351e+02,1.306580e+04
4.367993e+02,1.308250e+04
4.377636e+02,1.309523e+04
4.387278e+02,1.310746e+04
4.396920e+02,1.312269e+04
4.406563e+02,1.313850e+04
4.416205e+02,1.315167e+04
4.425847e+02,1.316063e+04
4.435490e+02,1.316672e+04
4.445132e+02,1.317254e+04
4.454774e+02,1.317958e+04
4.464417e+02,1.318910e+04
4.474059e+02,1.320096e+04
4.483701e+02,1.321121e+04
4.493344e+02,1.321756e+04
4.502986e+02,1.322124e+04
4.512628e+02,1.322462e+04
4.522271e+02,1.322881e+04
4.531913e+02,1.323362e+04
4.541555e+02,1.323809e+04
4.551198e+02,1.324096e+04
4.560840e+02,1.324285e+04
4.570482e+02,1.324178e+04
4.580125e+02,1.324038e+04
4.589767e+02,1.324494e+04
4.599409e+02,1.325587e+04
4.609052e+02,1.326793e+04
4.618694e+02,1.327475e+04
4.628336e+02,1.327092e+04
4.637979e+02,1.325858e+04
4.647621e+02,1.324981e+04
4.657263e+02,1.324897e+04
4.666906e+02,1.325694e+04
4.676548e+02,1.326974e+04
4.686190e+02,1.328658e+04
4.695833e+02,1.330157e+04
4.705475e+02,1.331316e+04
4.715117e+02,1.331987e+04
4.724760e+02,1.331945e+04
4.734402e+02,1.331150e+04
4.744044e+02,1.330101e+04
4.753687e+02,1.329859e+04
4.763329e+02,1.331256e+04
4.772971e+02,1.332254e+04
4.782614e+02,1.332347e+04
4.792256e+02,1.332071e+04
4.801898e+02,1.331960e+04
4.811541e+02,1.331983e+04
4.821183e+02,1.332141e+04
4.830826e+02,1.332599e+04
4.840468e+02,1.333273e+04
4.850110e+02,1.333682e+04
4.859753e+02,1.333743e+04
4.869395e+02,1.333350e+04
4.879037e+02,1.332659e+04
4.888680e+02,1.331610e+04
4.898322e+02,1.330608e+04
4.907964e+02,1.329865e+04
4.917607e+02,1.329489e+04
4.927249e+02,1.329508e+04
4.936891e+02,1.330048e+04
4.946534e+02,1.331117e+04
4.956176e+02,1.331877e+04
4.965818e+02,1.332517e+04
4.975461e+02,1.332715e+04
4.985103e+02,1.331865e+04
4.994745e+02,1.329307e+04
5.004388e+02,1.327062e+04
5.014030e+02,1.326659e+04
5.023672e+02,1.327471e+04
5.033315e+02,1.328302e+04
5.042957e+02,1.328733e+04
5.052599e+02,1.328642e+04
5.062242e+02,1.328140e+04
5.071884e+02,1.327558e+04
5.081526e+02,1.326571e+04
5.091169e+02,1.324869e+04
5.100811e+02,1.323242e+04
5.110453e+02,1.322362e+04
5.120095e+02,1.322984e+04
5.129738e+02,1.324242e+04
5.139380e+02,1.324988e+04
5.149022e+02,1.325276e+04
5.158665e+02,1.325542e+04
5.168307e+02,1.325664e+04
5.177949e+02,1.324976e+04
5.187592e+02,1.323163e+04
5.197234e+02,1.320981e+04
5.206876e+02,1.319128e+04
5.216519e+02,1.317835e+04
5.226161e+02,1.317171e+04
5.235803e+02,1.316991e+04
5.245446e+02,1.317360e+04
5.255088e+02,1.318151e+04
5.264730e+02,1.318521e+04
5.274373e+02,1.318301e+04
5.284015e+02,1.317881e+04
5.293657e+02,1.317359e+04
5.303300e+02,1.316821e+04
5.312942e+02,1.315969e+04
5.322584e+02,1.315261e+04
5.332227e+02,1.314864e+04
5.341869e+02,1.314477e+04
5.351511e+02,1.313828e+04
5.361154e+02,1.313100e+04
5.370796e+02,1.312799e+04
5.380438e+02,1.313185e+04
5.390081e+02,1.313742e+04
5.399723e+02,1.314550e+04
5.409365e+02,1.315677e+04
5.419008e+02,1.316893e+04
5.428650e+02,1.318015e+04
5.438292e+02,1.318580e+04
5.447935e+02,1.318169e+04
5.457577e+02,1.317101e+04
5.467219e+02,1.316108e+04
5.476862e+02,1.315565e+04
5.486504e+02,1.315160e+04
5.496146e+02,1.314035e+04
5.505789e+02,1.311762e+04
5.515431e+02,1.309267e+04
5.525073e+02,1.306930e+04
5.534716e+02,1.305329e+04
5.544358e+02,1.304626e+04
5.554000e+02,1.304690e+04
5.563643e+02,1.305006e+04
5.573285e+02,1.305115e+04
5.582927e+02,1.304905e+04
5.592570e+02,1.304666e+04
5.602212e+02,1.304917e+04
5.611854e+02,1.305535e+04
5.621497e+02,1.304948e+04
5.631139e+02,1.300773e+04
5.640781e+02,1.296941e+04
5.650424e+02,1.295511e+04
5.660066e+02,1.296043e+04
5.669708e+02,1.296417e+04
5.679351e+02,1.295903e+04
5.688993e+02,1.294615e+04
5.698635e+02,1.292229e+04
5.708278e+02,1.288740e+04
5.717920e+02,1.285722e+04
5.727562e+02,1.284379e+04
5.737205e+02,1.285042e+04
5.746847e+02,1.285170e+04
5.756489e+02,1.283978e+04
5.766132e+02,1.282598e+04
5.775774e+02,1.282011e+04
5.785416e+02,1.282329e+04
5.795059e+02,1.282372e+04
5.804701e+02,1.280874e+04
5.814343e+02,1.278325e+04
5.823986e+02,1.276414e+04
5.833628e+02,1.275634e+04
5.843270e+02,1.275309e+04
5.852913e+02,1.274376e+04
5.862555e+02,1.271770e+04
5.872197e+02,1.270208e+04
5.881840e+02,1.270603e+04
5.891482e+02,1.271223e+04
5.901124e+02,1.270473e+04
5.910767e+02,1.267716e+04
5.920409e+02,1.264811e+04
5.930051e+02,1.263679e+04
5.939694e+02,1.263940e+04
5.949336e+02,1.264052e+04
5.958978e+02,1.263575e+04
5.968621e+02,1.262726e+04
5.978263e+02,1.262103e+04
5.987905e+02,1.263072e+04
5.997548e+02,1.263000e+04
6.007190e+02,1.260588e+04
6.016832e+02,1.257670e+04
6.026475e+02,1.256274e+04
6.036117e+02,1.257521e+04
6.045759e+02,1.259246e+04
6.055402e+02,1.258647e+04
6.065044e+02,1.255800e+04
6.074686e+02,1.252859e+04
6.084329e+02,1.250962e+04
6.093971e+02,1.250078e+04
6.103613e+02,1.249432e+04
6.113256e+02,1.250075e+04
6.122899e+02,1.249936e+04
6.132541e+02,1.248078e+04
6.142183e+02,1.245222e+04
6.151826e+02,1.242683e+04
6.161468e+02,1.241380e+04
6.171110e+02,1.241004e+04
6.180753e+02,1.241116e+04
6.190395e+02,1.241554e+04
6.200037e+02,1.241866e+04
6.209680e+02,1.241737e+04
6.219322e+02,1.241350e+04
6.228964e+02,1.240947e+04
6.238607e+02,1.240079e+04
6.248249e+02,1.239478e+04
6.257891e+02,1.239427e+04
6.267534e+02,1.239329e+04
6.277176e+02,1.238296e+04
6.286818e+02,1.235725e+04
6.296461e+02,1.232848e+04
6.306103e+02,1.230869e+04
6.315745e+02,1.229847e+04
6.325388e+02,1.229284e+04
6.335030e+02,1.228627e+04
6.344672e+02,1.227677e+04
6.354315e+02,1.226729e+04
6.363957e+02,1.225185e+04
6.373599e+02,1.223736e+04
6.383242e+02,1.223358e+04
6.392884e+02,1.224030e+04
6.402526e+02,1.224116e+04
6.412169e+02,1.222765e+04
6.421811e+02,1.220727e+04
6.431453e+02,1.218454e+04
6.441096e+02,1.216068e+04
6.450738e+02,1.213907e+04
6.460380e+02,1.212513e+04
6.470023e+02,1.212160e+04
6.479665e+02,1.212241e+04
6.489307e+02,1.212577e+04
6.498950e+02,1.212914e+04
6.508592e+02,1.213020e+04
6.518234e+02,1.212798e+04
6.527877e+02,1.211910e+04
6.537519e+02,1.209890e+04
6.547161e+02,1.207660e+04
6.556804e+02,1.205900e+04
6.566446e+02,1.204745e+04
6.576088e+02,1.203911e+04
6.585731e+02,1.203150e+04
6.595373e+02,1.202460e+04
6.605015e+02,1.201946e+04
6.614658e+02,1.201772e+04
6.624300e+02,1.201412e+04
6.633942e+02,1.200213e+04
6.643585e+02,1.197349e+04
6.653227e+02,1.195632e+04
6.662869e+02,1.195421e+04
6.672512e+02,1.195688e+04
6.682154e+02,1.195864e+04
6.691796e+02,1.195718e+04
6.701439e+02,1.195573e+04
6.711081e+02,1.196369e+04
6.720723e+02,1.197289e+04
6.730366e+02,1.196530e+04
6.740008e+02,1.193881e+04
6.749650e+02,1.190472e+04
6.759293e+02,1.187598e+04
6.768935e+02,1.185656e+04
6.778577e+02,1.183604e+04
6.788220e+02,1.180981e+04
6.797862e+02,1.179305e+04
6.807504e+02,1.179486e+04
6.817147e+02,1.181668e+04
6.826789e+02,1.183130e+04
6.836431e+02,1.181821e+04
6.846074e+02,1.179313e+04
6.855716e+02,1.178001e+04
6.865358e+02,1.178454e+04
6.875001e+02,1.178860e+04
6.884643e+02,1.176304e+04
6.894285e+02,1.170880e+04
6.903928e+02,1.167739e+04
6.913570e+02,1.168017e+04
6.923212e+02,1.169480e+04
6.932855e+02,1.169900e+04
6.942497e+02,1.169121e+04
6.952139e+02,1.168599e+04
6.961782e+02,1.168018e+04
6.971424e+02,1.167635e+04
6.981066e+02,1.167590e+04
6.990709e+02,1.167472e+04
7.000351e+02,1.166513e+04
7.009993e+02,1.164257e+04
7.019636e+02,1.161617e+04
7.029278e+02,1.159947e+04
7.038920e+02,1.159404e+04
7.048563e+02,1.159232e+04
7.058205e+02,1.158960e+04
7.067847e+02,1.159262e+04
7.077490e+02,1.158732e+04
7.087132e+02,1.156992e+04
7.096774e+02,1.155724e+04
7.106417e+02,1.155386e+04
7.116059e+02,1.155992e+04
7.125701e+02,1.156304e+04
7.135344e+02,1.156377e+04
7.144986e+02,1.156219e+04
7.154628e+02,1.155483e+04
7.164271e+02,1.154028e+04
7.173913e+02,1.152281e+04
7.183555e+02,1.150378e+04
7.193198e+02,1.148429e+04
7.202840e+02,1.147504e+04
7.212482e+02,1.148155e+04
7.222125e+02,1.149039e+04
7.231767e+02,1.148464e+04
7.241409e+02,1.145293e+04
7.251052e+02,1.142895e+04
7.260694e+02,1.141578e+04
7.270336e+02,1.140664e+04
7.279979e+02,1.140241e+04
7.289621e+02,1.140291e+04
7.299263e+02,1.140072e+04
7.308906e+02,1.138874e+04
7.318548e+02,1.137246e+04
7.328190e+02,1.135862e+04
7.337833e+02,1.134825e+04
7.347475e+02,1.133981e+04
7.357117e+02,1.133679e+04
7.366760e+02,1.134000e+04
7.376402e+02,1.133441e+04
7.386044e+02,1.131645e+04
7.395687e+02,1.129970e+04
7.405329e+02,1.129501e+04
7.414971e+02,1.130744e+04
7.424614e+02,1.130682e+04
7.434256e+02,1.128447e+04
7.443898e+02,1.126936e+04
7.453541e+02,1.127599e+04
7.463183e+02,1.129652e+04
7.472825e+02,1.130478e+04
7.482468e+02,1.128219e+04
7.492110e+02,1.124717e+04
7.501752e+02,1.122150e+04
7.511395e+02,1.121038e+04
7.521037e+02,1.120829e+04
7.530679e+02,1.120875e+04
7.540322e+02,1.120826e+04
7.549964e+02,1.120068e+04
7.559606e+02,1.118607e+04
7.569249e+02,1.117351e+04
7.578891e+02,1.117016e+04
7.588533e+02,1.117797e+04
7.598176e+02,1.118179e+04
7.607818e+02,1.116611e+04
7.617460e+02,1.114394e+04
7.627103e+02,1.112281e+04
7.636745e+02,1.110713e+04
7.646387e+02,1.109592e+04
7.656030e+02,1.108613e+04
7.665672e+02,1.108172e+04
7.675314e+02,1.108391e+04
7.684957e+02,1.108468e+04
7.694599e+02,1.107724e+04
7.704241e+02,1.106283e+04
7.713884e+02,1.104753e+04
7.723526e+02,1.103847e+04
7.733168e+02,1.103855e+04
7.742811e+02,1.104340e+04
7.752453e+02,1.104613e+04
7.762095e+02,1.104311e+04
7.771738e+02,1.103511e+04
7.781380e+02,1.101159e+04
7.791022e+02,1.098761e+04
7.800665e+02,1.097069e+04
7.810307e+02,1.095962e+04
7.819949e+02,1.095097e+04
7.829592e+02,1.095236e+04
7.839234e+02,1.095482e+04
7.848876e+02,1.095201e+04
7.858519e+02,1.094401e+04
7.868161e+02,1.093155e+04
7.877803e+02,1.091351e+04
7.887446e+02,1.089513e+04
7.897088e+02,1.089016e+04
7.906730e+02,1.089985e+04
7.916373e+02,1.090432e+04
7.926015e+02,1.089033e+04
7.935657e+02,1.086237e+04
7.945300e+02,1.084412e+04
7.954942e+02,1.084625e+04
7.964584e+02,1.084265e+04
7.974227e+02,1.083886e+04
7.983869e+02,1.083902e+04
7.993511e+02,1.083457e+04
8.003154e+02,1.080963e+04
8.012796e+02,1.078946e+04
8.022438e+02,1.079345e+04
8.032081e+02,1.080365e+04
8.041723e+02,1.080017e+04
8.051365e+02,1.077624e+04
8.061008e+02,1.075447e+04
8.070650e+02,1.075484e+04
8.080292e+02,1.076372e+04
8.089935e+02,1.076499e+04
8.099577e+02,1.075872e+04
8.109219e+02,1.074569e+04
8.118862e+02,1.071793e+04
8.128504e+02,1.067648e+04
8.138146e+02,1.065900e+04
8.147789e+02,1.067226e+04
8.157431e+02,1.068876e+04
8.167073e+02,1.068849e+04
8.176716e+02,1.067348e+04
8.186358e+02,1.066343e+04
8.196000e+02,1.066068e+04
8.205643e+02,1.065924e+04
8.215285e+02,1.064923e+04
8.224927e+02,1.063189e+04
8.234570e+02,1.062201e+04
8.244212e+02,1.063494e+04
8.253854e+02,1.064707e+04
8.263497e+02,1.063797e+04
8.273139e+02,1.061060e+04
8.282781e+02,1.058329e+04
8.292424e+02,1.057462e+04
8.302066e+02,1.057614e+04
8.311708e+02,1.057163e+04
8.321351e+02,1.056221e+04
8.330993e+02,1.055363e+04
8.340635e+02,1.054655e+04
8.350278e+02,1.054021e+04
8.359920e+02,1.053626e+04
8.369562e+02,1.053580e+04
8.379205e+02,1.053425e+04
8.388847e+02,1.053095e+04
8.398489e+02,1.052556e+04
8.408132e+02,1.051509e+04
8.417774e+02,1.049020e+04
8.427416e+02,1.046998e+04
8.437059e+02,1.046077e+04
8.446701e+02,1.045516e+04
8.456343e+02,1.044540e+04
8.465986e+02,1.042446e+04
8.475628e+02,1.040863e+04
8.485270e+02,1.040791e+04
8.494913e+02,1.041220e+04
8.504555e+02,1.041259e+04
8.514197e+02,1.040812e+04
8.523840e+02,1.040355e+04
8.533482e+02,1.040053e+04
8.543124e+02,1.039725e+04
8.552767e+02,1.039356e+04
8.562409e+02,1.038841e+04
8.572051e+02,1.037803e+04
8.581694e+02,1.035864e+04
8.591336e+02,1.033266e+04
8.600978e+02,1.031165e+04
8.610621e+02,1.029769e+04
8.620263e+02,1.029013e+04
8.629905e+02,1.028596e+04
8.639548e+02,1.028149e+04
8.649190e+02,1.027820e+04
8.658832e+02,1.028478e+04
8.668475e+02,1.029087e+04
8.678117e+02,1.029082e+04
8.687759e+02,1.028450e+04
8.697402e+02,1.027790e+04
8.707044e+02,1.026276e+04
8.716686e+02,1.024552e+04
8.726329e+02,1.023564e+04
8.735971e+02,1.023189e+04
8.745613e+02,1.022777e+04
8.755256e+02,1.022842e+04
8.764898e+02,1.022605e+04
8.774540e+02,1.020639e+04
8.784183e+02,1.017785e+04
8.793825e+02,1.015619e+04
8.803467e+02,1.014712e+04
8.813110e+02,1.014635e+04
8.822752e+02,1.015484e+04
8.832394e+02,1.017118e+04
8.842037e+02,1.018263e+04
8.851679e+02,1.018336e+04
8.861321e+02,1.017615e+04
8.870964e+02,1.016756e+04
8.880606e+02,1.015713e+04
8.890248e+02,1.013708e+04
8.899891e+02,1.010678e+04
8.909533e+02,1.008004e+04
8.919175e+02,1.006905e+04
8.928818e+02,1.007884e+04
8.938460e+02,1.007997e+04
8.948102e+02,1.006020e+04
8.957745e+02,1.003986e+04
8.967387e+02,1.003376e+04
8.977029e+02,1.003886e+04
8.986672e+02,1.003756e+04
8.996314e+02,1.003467e+04
9.005956e+02,1.003007e+04
9.015599e+02,1.001844e+04
9.025241e+02,1.000172e+04
9.034883e+02,9.988410e+03
9.044526e+02,9.986619e+03
9.054168e+02,9.979428e+03
9.063810e+02,9.956476e+03
9.073453e+02,9.931907e+03
9.083095e+02,9.923206e+03
9.092737e+02,9.937933e+03
9.102380e+02,9.957264e+03
9.112022e+02,9.962722e+03
9.121664e+02,9.956983e+03
9.131307e+02,9.949292e+03
9.140949e+02,9.945724e+03
9.150591e+02,9.945348e+03
9.160234e+02,9.938415e+03
9.169876e+02,9.920709e+03
9.179518e+02,9.901154e+03
9.189161e+02,9.881362e+03
9.198803e+02,9.860668e+03
9.208445e+02,9.841002e+03
9.218088e+02,9.825382e+03
9.227730e+02,9.813262e+03
9.237372e+02,9.801076e+03
9.247015e+02,9.793343e+03
9.256657e+02,9.796122e+03
9.266299e+02,9.809496e+03
9.275942e+02,9.811061e+03
9.285584e+02,9.784614e+03
9.295226e+02,9.761387e+03
9.304869e+02,9.758438e+03
9.314511e+02,9.770561e+03
9.324153e+02,9.775982e+03
9.333796e+02,9.765657e+03
9.343438e+02,9.756304e+03
9.353080e+02,9.750858e+03
9.362723e+02,9.744785e+03
9.372365e+02,9.736301e+03
9.382007e+02,9.732551e+03
9.391650e+02,9.727489e+03
9.401292e+02,9.711791e+03
9.410934e+02,9.694806e+03
9.420577e+02,9.687385e+03
9.430219e+02,9.692054e+03
9.439861e+02,9.693103e+03
9.449504e+02,9.676702e+03
9.459146e+02,9.658402e+03
9.468788e+02,9.657203e+03
9.478431e+02,9.668056e+03
9.488073e+02,9.669700e+03
9.497715e+02,9.639597e+03
9.507358e+02,9.595796e+03
9.517000e+02,9.580200e+03
9.526642e+02,9.594261e+03
9.536285e+02,9.611191e+03
9.545927e+02,9.612121e+03
9.555569e+02,9.601035e+03
9.565212e+02,9.592108e+03
9.574854e+02,9.588749e+03
9.584496e+02,9.584342e+03
9.594139e+02,9.570646e+03
9.603781e+02,9.551068e+03
9.613423e+02,9.543606e+03
9.623066e+02,9.553045e+03
9.632708e+02,9.553864e+03
9.642350e+02,9.541014e+03
9.651993e+02,9.523381e+03
9.661635e+02,9.508896e+03
9.671277e+02,9.491785e+03
9.680920e+02,9.484353e+03
9.690562e+02,9.496114e+03
9.700204e+02,9.505927e+03
9.709847e+02,9.498609e+03
9.719489e+02,9.471580e+03
9.729131e+02,9.456611e+03
9.738774e+02,9.471478e+03
9.748416e+02,9.485146e+03
9.758058e+02,9.476221e+03
9.767701e+02,9.447253e+03
9.777343e+02,9.427936e+03
9.786985e+02,9.430458e+03
9.796628e+02,9.432112e+03
9.806270e+02,9.428775e+03
9.815912e+02,9.419729e+03
9.825555e+02,9.404907e+03
9.835197e+02,9.386790e+03
9.844839e+02,9.367679e+03
9.854482e+02,9.344032e+03
9.864124e+02,9.323731e+03
9.873766e+02,9.314549e+03
9.883409e+02,9.320313e+03
9.893051e+02,9.328813e+03
9.902693e+02,9.333859e+03
9.912336e+02,9.337821e+03
9.921978e+02,9.339095e+03
9.931620e+02,9.335408e+03
9.941263e+02,9.329981e+03
9.950905e+02,9.328987e+03
9.960547e+02,9.327400e+03
9.970190e+02,9.317444e+03
9.979832e+02,9.299380e+03
9.989474e+02,9.278526e+03
9.999117e+02,9.260838e+03
1.000876e+03,9.246205e+03
1.001840e+03,9.231509e+03
1.002804e+03,9.220063e+03
1.003769e+03,9.216693e+03
1.004733e+03,9.221395e+03
1.005697e+03,9.227623e+03
1.006661e+03,9.228094e+03
1.007626e+03,9.224079e+03
1.008590e+03,9.216864e+03
1.009554e+03,9.204366e+03
1.010518e+03,9.190130e+03
1.011482e+03,9.182154e+03
1.012447e+03,9.179015e+03
1.013411e+03,9.169637e+03
1.014375e+03,9.157491e+03
1.015339e+03,9.149866e+03
1.016304e+03,9.150354e+03
1.017268e+03,9.155999e+03
1.018232e+03,9.154484e+03
1.019196e+03,9.144005e+03
1.020161e+03,9.129528e+03
1.021125e+03,9.112826e+03
1.022089e+03,9.099731e+03
1.023053e+03,9.101510e+03
1.024018e+03,9.119331e+03
1.024982e+03,9.128265e+03
1.025946e+03,9.120100e+03
1.026910e+03,9.100812e+03
1.027875e+03,9.083091e+03
1.028839e+03,9.072197e+03
1.029803e+03,9.062294e+03
1.030767e+03,9.053870e+03
1.031731e+03,9.046410e+03
1.032696e+03,9.037786e+03
1.033660e+03,9.027068e+03
1.034624e+03,9.015688e+03
1.035588e+03,9.004463e+03
1.036552e+03,8.997704e+03
1.037517e+03,8.995462e+03
1.038481e+03,8.994622e+03
1.039445e+03,8.993612e+03
1.040409e+03,8.997616e+03
1.041374e+03,8.993174e+03
1.042338e+03,8.972560e+03
1.043302e+03,8.949785e+03
1.044266e+03,8.941541e+03
1.045231e+03,8.960530e+03
1.046195e+03,8.968495e+03
1.047159e+03,8.961847e+03
1.048123e+03,8.950954e+03
1.049088e+03,8.941271e+03
1.050052e+03,8.935252e+03
1.051016e+03,8.934279e+03
1.051980e+03,8.943709e+03
1.052945e+03,8.950491e+03
1.053909e+03,8.943325e+03
1.054873e+03,8.922400e+03
1.055837e+03,8.904313e+03
1.056802e+03,8.895875e+03
1.057766e+03,8.889378e+03
1.058730e+03,8.888387e+03
1.059694e+03,8.888449e+03
1.060658e+03,8.882062e+03
1.061623e+03,8.865576e+03
1.062587e+03,8.853103e+03
1.063551e+03,8.850774e+03
1.064515e+03,8.850393e+03
1.065479e+03,8.844022e+03
1.066444e+03,8.832494e+03
1.067408e+03,8.823525e+03
1.068372e+03,8.817493e+03
1.069336e+03,8.814735e+03
1.070301e+03,8.810620e+03
1.071265e+03,8.804561e+03
1.072229e+03,8.802238e+03
1.073193e+03,8.814894e+03
1.074158e+03,8.818684e+03
1.075122e+03,8.802321e+03
1.076086e+03,8.776470e+03
1.077050e+03,8.755142e+03
1.078015e+03,8.744970e+03
1.078979e+03,8.742872e+03
1.079943e+03,8.754720e+03
1.080907e+03,8.766462e+03
1.081872e+03,8.762411e+03
1.082836e+03,8.739095e+03
1.083800e+03,8.722638e+03
1.084764e+03,8.725720e+03
1.085729e+03,8.734111e+03
1.086693e+03,8.743682e+03
1.087657e+03,8.751551e+03
1.088621e+03,8.753668e+03
1.089585e+03,8.746072e+03
1.090550e+03,8.732368e+03
1.091514e+03,8.716988e+03
1.092478e+03,8.701163e+03
1.093442e+03,8.682988e+03
1.094406e+03,8.659243e+03
1.095371e+03,8.644965e+03
1.096335e+03,8.648001e+03
1.097299e+03,8.653896e+03
1.098263e+03,8.655433e+03
1.099228e+03,8.650971e+03
1.100192e+03,8.640040e+03
1.101156e+03,8.609647e+03
1.102120e+03,8.585122e+03
1.103085e+03,8.582564e+03
1.104049e+03,8.592472e+03
1.105013e+03,8.595170e+03
1.105977e+03,8.580667e+03
1.106942e+03,8.569640e+03
1.107906e+03,8.571252e+03
1.108870e+03,8.574894e+03
1.109834e+03,8.569128e+03
1.110799e+03,8.549333e+03
1.111763e+03,8.536274e+03
1.112727e+03,8.537012e+03
1.113691e+03,8.542991e+03
1.114656e+03,8.552798e+03
1.115620e+03,8.564504e+03
1.116584e+03,8.566112e+03
1.117548e+03,8.540398e+03
1.118512e+03,8.517039e+03
1.119477e+03,8.506271e+03
1.120441e+03,8.501471e+03
1.121405e+03,8.493721e+03
1.122369e+03,8.478406e+03
1.123334e+03,8.467898e+03
1.124298e+03,8.473142e+03
1.125262e+03,8.476510e+03
1.126226e+03,8.462759e+03
1.127191e+03,8.429048e+03
1.128155e+03,8.410380e+03
1.129119e+03,8.414106e+03
1.130083e+03,8.418658e+03
1.131047e+03,8.414490e+03
1.132012e+03,8.403075e+03
1.132976e+03,8.396061e+03
1.133940e+03,8.398838e+03
1.134904e+03,8.393801e+03
1.135869e+03,8.376762e+03
1.136833e+03,8.357899e+03
1.137797e+03,8.348647e+03
1.138761e+03,8.354767e+03
1.139726e+03,8.359843e+03
1.140690e+03,8.364794e+03
1.141654e+03,8.362361e+03
1.142618e+03,8.342971e+03
1.143583e+03,8.311459e+03
1.144547e+03,8.305269e+03
1.145511e+03,8.332772e+03
1.146475e+03,8.352656e+03
1.147439e+03,8.352244e+03
1.148404e+03,8.339380e+03
1.149368e+03,8.321897e+03
1.150332e+03,8.297282e+03
1.151296e+03,8.285242e+03
1.152261e+03,8.286017e+03
1.153225e+03,8.284718e+03
1.154189e+03,8.274274e+03
1.155153e+03,8.258787e+03
1.156118e+03,8.244500e+03
1.157082e+03,8.234107e+03
1.158046e+03,8.225607e+03
1.159010e+03,8.213926e+03
1.159974e+03,8.203154e+03
1.160939e+03,8.204449e+03
1.161903e+03,8.214240e+03
1.162867e+03,8.221537e+03
1.163831e+03,8.223831e+03
1.164796e+03,8.218817e+03
1.165760e+03,8.201771e+03
1.166724e+03,8.179446e+03
1.167688e+03,8.168565e+03
1.168653e+03,8.168223e+03
1.169617e+03,8.166213e+03
1.170581e+03,8.155826e+03
1.171545e+03,8.141289e+03
1.172510e+03,8.123333e+03
1.173474e+03,8.106631e+03
1.174438e+03,8.101647e+03
1.175402e+03,8.111569e+03
1.176366e+03,8.122558e+03
1.177331e+03,8.124500e+03
1.178295e+03,8.121073e+03
1.179259e+03,8.112145e+03
1.180223e+03,8.098078e+03
1.181188e+03,8.087679e+03
1.182152e+03,8.096761e+03
1.183116e+03,8.101842e+03
1.184080e+03,8.083539e+03
1.185045e+03,8.053521e+03
1.186009e+03,8.030172e+03
1.186973e+03,8.023635e+03
1.187937e+03,8.020312e+03
1.188901e+03,8.012114e+03
1.189866e+03,8.004625e+03
1.190830e+03,8.001895e+03
1.191794e+03,8.002822e+03
1.192758e+03,8.001777e+03
1.193723e+03,7.999477e+03
1.194687e+03,7.999533e+03
1.195651e+03,8.003106e+03
1.196615e+03,8.008068e+03
1.197580e+03,8.009513e+03
1.198544e+03,8.002071e+03
1.199508e+03,7.987769e+03
1.200472e+03,7.969342e+03
1.201437e+03,7.949309e+03
1.202401e+03,7.928323e+03
1.203365e+03,7.906119e+03
1.204329e+03,7.903827e+03
1.205293e+03,7.929860e+03
1.206258e+03,7.951576e+03
1.207222e+03,7.952028e+03
1.208186e+03,7.937994e+03
1.209150e+03,7.933601e+03
1.210115e+03,7.938038e+03
1.211079e+03,7.935266e+03
1.212043e+03,7.922484e+03
1.213007e+03,7.905388e+03
1.213972e+03,7.892517e+03
1.214936e+03,7.885283e+03
1.215900e+03,7.880249e+03
1.216864e+03,7.877354e+03
1.217828e+03,7.872403e+03
1.218793e+03,7.861072e+03
1.219757e+03,7.849788e+03
1.220721e+03,7.850401e+03
1.221685e+03,7.860285e+03
1.222650e+03,7.870908e+03
1.223614e+03,7.877843e+03
1.224578e+03,7.876645e+03
1.225542e+03,7.860280e+03
1.226507e+03,7.841122e+03
1.227471e+03,7.833315e+03
1.228435e+03,7.833303e+03
1.229399e+03,7.829326e+03
1.230364e+03,7.818629e+03
1.231328e+03,7.803451e+03
1.232292e+03,7.784842e+03
1.233256e+03,7.768404e+03
1.234220e+03,7.757585e+03
1.235185e+03,7.757335e+03
1.236149e+03,7.755069e+03
1.237113e+03,7.743796e+03
1.238077e+03,7.735734e+03
1.239042e+03,7.735197e+03
1.240006e+03,7.737694e+03
1.240970e+03,7.733213e+03
1.241934e+03,7.714937e+03
1.242899e+03,7.701915e+03
1.243863e+03,7.704627e+03
1.244827e+03,7.710781e+03
1.245791e+03,7.700397e+03
1.246755e+03,7.668625e+03
1.247720e+03,7.649498e+03
1.248684e+03,7.645943e+03
1.249648e+03,7.648859e+03
1.250612e+03,7.652385e+03
1.251577e+03,7.655455e+03
1.252541e+03,7.659729e+03
1.253505e+03,7.663565e+03
1.254469e+03,7.659370e+03
1.255434e+03,7.645688e+03
1.256398e+03,7.631142e+03
1.257362e+03,7.622637e+03
1.258326e+03,7.617246e+03
1.259291e+03,7.613723e+03
1.260255e+03,7.610200e+03
1.261219e+03,7.603171e+03
1.262183e+03,7.592837e+03
1.263147e+03,7.584664e+03
1.264112e+03,7.584491e+03
1.265076e+03,7.586820e+03
1.266040e+03,7.581167e+03
1.267004e+03,7.562333e+03
1.267969e+03,7.547319e+03
1.268933e+03,7.547627e+03
1.269897e+03,7.554236e+03
1.270861e+03,7.556015e+03
1.271826e+03,7.548019e+03
1.272790e+03,7.540966e+03
1.273754e+03,7.537548e+03
1.274718e+03,7.536318e+03
1.275682e+03,7.543128e+03
1.276647e+03,7.551584e+03
1.277611e+03,7.551447e+03
1.278575e+03,7.541232e+03
1.279539e+03,7.523603e+03
1.280504e+03,7.501098e+03
1.281468e+03,7.483624e+03
1.282432e+03,7.474853e+03
1.283396e+03,7.472932e+03
1.284361e+03,7.476118e+03
1.285325e+03,7.480914e+03
1.286289e+03,7.478405e+03
1.287253e+03,7.465609e+03
1.288218e+03,7.451345e+03
1.289182e+03,7.448768e+03
1.290146e+03,7.448733e+03
1.291110e+03,7.438625e+03
1.292074e+03,7.421556e+03
1.293039e+03,7.407689e+03
1.294003e+03,7.401592e+03
1.294967e+03,7.396865e+03
1.295931e+03,7.394383e+03
1.296896e+03,7.394096e+03
1.297860e+03,7.395007e+03
1.298824e+03,7.396667e+03
1.299788e+03,7.394453e+03
1.300753e+03,7.384872e+03
1.301717e+03,7.373827e+03
1.302681e+03,7.361726e+03
1.303645e+03,7.351080e+03
1.304609e+03,7.350634e+03
1.305574e+03,7.359445e+03
1.306538e+03,7.365188e+03
1.307502e+03,7.370084e+03
1.308466e+03,7.372278e+03
1.309431e+03,7.366199e+03
1.310395e+03,7.354214e+03
1.311359e+03,7.343091e+03
1.312323e+03,7.329678e+03
1.313288e+03,7.311983e+03
1.314252e+03,7.290874e+03
1.315216e+03,7.275180e+03
1.316180e+03,7.271969e+03
1.317145e+03,7.276763e+03
1.318109e+03,7.283907e+03
1.319073e+03,7.289519e+03
1.320037e+03,7.290045e+03
1.321001e+03,7.281820e+03
1.321966e+03,7.271830e+03
1.322930e+03,7.268126e+03
1.323894e+03,7.267425e+03
1.324858e+03,7.259095e+03
1.325823e+03,7.235663e+03
1.326787e+03,7.221433e+03
1.327751e+03,7.217633e+03
1.328715e+03,7.214656e+03
1.329680e+03,7.206242e+03
1.330644e+03,7.195490e+03
1.331608e+03,7.196435e+03
1.332572e+03,7.207382e+03
1.333536e+03,7.215776e+03
1.334501e+03,7.217199e+03
1.335465e+03,7.212238e+03
1.336429e+03,7.202974e+03
1.337393e+03,7.192177e+03
1.338358e+03,7.181250e+03
1.339322e+03,7.170865e+03
1.340286e+03,7.162594e+03
1.341250e+03,7.163200e+03
1.342215e+03,7.158508e+03
1.343179e+03,7.140268e+03
1.344143e+03,7.121836e+03
1.345107e+03,7.113627e+03
1.346072e+03,7.116425e+03
1.347036e+03,7.118079e+03
1.348000e+03,7.116541e+03
1.348964e+03,7.113348e+03
1.349928e+03,7.111058e+03
1.350893e+03,7.110874e+03
1.351857e+03,7.111662e+03
1.352821e+03,7.111655e+03
1.353785e+03,7.104412e+03
1.354750e+03,7.088170e+03
1.355714e+03,7.070625e+03
1.356678e+03,7.063583e+03
1.357642e+03,7.062340e+03
1.358607e+03,7.053733e+03
1.359571e+03,7.041004e+03
1.360535e+03,7.034211e+03
1.361499e+03,7.040428e+03
1.362464e+03,7.046127e+03
1.363428e+03,7.046550e+03
1.364392e+03,7.045492e+03
1.365356e+03,7.040880e+03
1.366320e+03,7.030220e+03
1.367285e+03,7.020590e+03
1.368249e+03,7.016843e+03
1.369213e+03,7.010014e+03
1.370177e+03,6.997583e+03
1.371142e+03,6.983680e+03
1.372106e+03,6.974138e+03
1.373070e+03,6.968134e+03
1.374034e+03,6.957592e+03
1.374999e+03,6.945103e+03
1.375963e+03,6.940033e+03
1.376927e+03,6.949544e+03
1.377891e+03,6.961091e+03
1.378855e+03,6.962327e+03
1.379820e+03,6.955311e+03
1.380784e+03,6.940104e+03
1.381748e+03,6.919075e+03
1.382712e+03,6.906396e+03
1.383677e+03,6.909993e+03
1.384641e+03,6.910967e+03
1.385605e+03,6.899514e+03
1.386569e+03,6.883006e+03
1.387534e+03,6.875124e+03
1.388498e+03,6.879556e+03
1.389462e+03,6.875335e+03
1.390426e+03,6.858967e+03
1.391391e+03,6.840388e+03
1.392355e+03,6.826377e+03
1.393319e+03,6.818665e+03
1.394283e+03,6.820681e+03
1.395247e+03,6.828023e+03
1.396212e+03,6.832950e+03
1.397176e+03,6.833797e+03
1.398140e+03,6.831982e+03
1.399104e+03,6.822225e+03
1.400069e+03,6.813074e+03
1.401033e+03,6.813196e+03
1.401997e+03,6.818482e+03
1.402961e+03,6.817067e+03
1.403926e+03,6.804984e+03
1.404890e+03,6.792898e+03
1.405854e+03,6.781805e+03
1.406818e+03,6.773977e+03
1.407782e+03,6.772325e+03
1.408747e+03,6.776521e+03
1.409711e+03,6.779696e+03
1.410675e+03,6.777977e+03
1.411639e+03,6.769013e+03
1.412604e+03,6.752172e+03
1.413568e+03,6.738763e+03
1.414532e+03,6.747156e+03
1.415496e+03,6.759716e+03
1.416461e+03,6.757335e+03
1.417425e+03,6.740617e+03
1.418389e+03,6.723382e+03
1.419353e+03,6.706349e+03
1.420318e+03,6.692470e+03
1.421282e+03,6.684384e+03
1.422246e+03,6.681952e+03
1.423210e+03,6.686788e+03
1.424174e+03,6.697337e+03
1.425139e+03,6.693749e+03
1.426103e+03,6.676042e+03
1.427067e+03,6.659417e+03
1.428031e+03,6.649044e+03
1.428996e+03,6.644889e+03
1.429960e+03,6.649263e+03
1.430924e+03,6.655469e+03
1.431888e+03,6.659643e+03
1.432853e+03,6.660479e+03
1.433817e+03,6.653230e+03
1.434781e+03,6.624324e+03
1.435745e+03,6.609454e+03
1.436709e+03,6.617693e+03
1.437674e+03,6.627161e+03
1.438638e+03,6.619114e+03
1.439602e+03,6.597938e+03
1.440566e+03,6.590298e+03
1.441531e+03,6.594197e+03
1.442495e+03,6.597091e+03
1.443459e+03,6.593379e+03
1.444423e+03,6.586737e+03
1.445388e+03,6.579446e+03
1.446352e+03,6.569840e+03
1.447316e+03,6.557406e+03
1.448280e+03,6.545289e+03
1.449245e+03,6.536300e+03
1.450209e+03,6.529865e+03
1.451173e+03,6.528553e+03
1.452137e+03,6.531077e+03
1.453101e+03,6.533018e+03
1.454066e+03,6.532049e+03
1.455030e+03,6.529176e+03
1.455994e+03,6.531019e+03
1.456958e+03,6.536607e+03
1.457923e+03,6.540665e+03
1.458887e+03,6.539875e+03
1.459851e+03,6.533962e+03
1.460815e+03,6.517201e+03
1.461780e+03,6.497768e+03
1.462744e+03,6.487532e+03
1.463708e+03,6.487086e+03
1.464672e+03,6.485857e+03
1.465636e+03,6.487222e+03
1.466601e+03,6.484518e+03
1.467565e+03,6.474755e+03
1.468529e+03,6.465491e+03
1.469493e+03,6.464158e+03
1.470458e+03,6.466118e+03
1.471422e+03,6.456867e+03
1.472386e+03,6.441115e+03
1.473350e+03,6.432288e+03
1.474315e+03,6.435273e+03
1.475279e+03,6.438834e+03
1.476243e+03,6.436145e+03
1.477207e+03,6.429136e+03
1.478172e+03,6.420353e+03
1.479136e+03,6.411315e+03
1.480100e+03,6.404737e+03
1.481064e+03,6.401735e+03
1.482028e+03,6.400541e+03
1.482993e+03,6.402537e+03
1.483957e+03,6.403262e+03
1.484921e+03,6.396387e+03
1.485885e+03,6.384346e+03
1.486850e+03,6.368604e+03
1.487814e+03,6.349938e+03
1.488778e+03,6.333516e+03
1.489742e+03,6.321097e+03
1.490707e+03,6.313452e+03
1.491671e+03,6.321534e+03
1.492635e+03,6.329482e+03
1.493599e+03,6.326066e+03
1.494563e+03,6.314981e+03
1.495528e+03,6.310770e+03
1.496492e+03,6.312123e+03
1.497456e+03,6.310901e+03
1.498420e+03,6.308186e+03
1.499385e+03,6.304038e+03
1.500349e+03,6.296372e+03
1.501313e+03,6.289508e+03
1.502277e+03,6.287241e+03
1.503242e+03,6.286247e+03
1.504206e+03,6.281583e+03
1.505170e+03,6.269763e+03
1.506134e+03,6.259603e+03
1.507099e+03,6.251022e+03
1.508063e+03,6.246959e+03
1.509027e+03,6.250050e+03
1.509991e+03,6.254497e+03
1.510955e+03,6.251242e+03
1.511920e+03,6.241627e+03
1.512884e+03,6.227958e+03
1.513848e+03,6.213907e+03
1.514812e+03,6.204950e+03
1.515777e+03,6.200002e+03
1.516741e+03,6.196114e+03
1.517705e+03,6.190643e+03
1.518669e+03,6.186346e+03
1.519634e+03,6.187580e+03
1.520598e+03,6.193022e+03
1.521562e+03,6.198306e+03
1.522526e+03,6.201566e+03
1.523490e+03,6.200916e+03
1.524455e+03,6.196448e+03
1.525419e+03,6.188394e+03
1.526383e+03,6.177691e+03
1.527347e+03,6.163821e+03
1.528312e+03,6.145030e+03
1.529276e+03,6.126563e+03
1.530240e+03,6.119917e+03
1.531204e+03,6.129182e+03
1.532169e+03,6.131757e+03
1.533133e+03,6.125177e+03
1.534097e+03,6.115829e+03
1.535061e+03,6.107021e+03
1.536026e+03,6.098396e+03
1.536990e+03,6.092123e+03
1.537954e+03,6.087706e+03
1.538918e+03,6.081788e+03
1.539882e+03,6.071807e+03
1.540847e+03,6.070455e+03
1.541811e+03,6.093988e+03
1.542775e+03,6.104770e+03
1.543739e+03,6.090615e+03
1.544704e+03,6.066260e+03
1.545668e+03,6.053744e+03
1.546632e+03,6.052088e+03
1.547596e+03,6.056681e+03
1.548561e+03,6.065288e+03
1.549525e+03,6.068732e+03
1.550489e+03,6.052698e+03
1.551453e+03,6.039486e+03
1.552417e+03,6.041087e+03
1.553382e+03,6.048556e+03
1.554346e+03,6.059002e+03
1.555310e+03,6.071589e+03
1.556274e+03,6.065695e+03
1.557239e+03,6.041358e+03
1.558203e+03,6.026647e+03
1.559167e+03,6.028994e+03
1.560131e+03,6.031975e+03
1.561096e+03,6.014469e+03
1.562060e+03,5.999272e+03
1.563024e+03,6.008701e+03
1.563988e+03,6.033629e+03
1.564953e+03,6.050817e+03
1.565917e+03,6.056181e+03
1.566881e+03,6.062553e+03
1.567845e+03,6.068345e+03
1.568809e+03,6.078659e+03
1.569774e+03,6.102431e+03
1.570738e+03,6.121936e+03
1.571702e+03,6.107784e+03
1.572666e+03,6.077088e+03
1.573631e+03,6.051073e+03
1.574595e+03,6.034369e+03
1.575559e+03,6.019376e+03
1.576523e+03,6.004067e+03
1.577488e+03,5.996353e+03
1.578452e+03,5.996451e+03
1.579416e+03,5.995011e+03
1.580380e+03,5.979959e+03
1.581344e+03,5.960352e+03
1.582309e+03,5.957291e+03
1.583273e+03,5.964553e+03
1.584237e+03,5.964188e+03
1.585201e+03,5.946656e+03
1.586166e+03,5.934078e+03
1.587130e+03,5.930927e+03
1.588094e+03,5.924576e+03
1.589058e+03,5.910631e+03
1.590023e+03,5.893189e+03
1.590987e+03,5.876714e+03
1.591951e+03,5.863846e+03
1.592915e+03,5.855152e+03
1.593880e+03,5.848325e+03
1.594844e+03,5.845678e+03
1.595808e+03,5.857200e+03
1.596772e+03,5.862404e+03
1.597736e+03,5.860461e+03
1.598701e+03,5.850897e+03
1.599665e+03,5.827081e+03
1.600629e+03,5.795400e+03
1.601593e+03,5.784651e+03
1.602558e+03,5.789257e+03
1.603522e+03,5.793856e+03
1.604486e+03,5.795015e+03
1.605450e+03,5.786970e+03
1.606415e+03,5.756408e+03
1.607379e+03,5.734495e+03
1.608343e+03,5.733753e+03
1.609307e+03,5.744199e+03
1.610271e+03,5.751888e+03
1.611236e+03,5.755280e+03
1.612200e+03,5.749085e+03
1.613164e+03,5.736061e+03
1.614128e+03,5.724211e+03
1.615093e+03,5.714001e+03
1.616057e+03,5.707875e+03
1.617021e+03,5.704500e+03
1.617985e+03,5.705297e+03
1.618950e+03,5.717037e+03
1.619914e+03,5.733647e+03
1.620878e+03,5.726523e+03
1.621842e+03,5.702422e+03
1.622807e+03,5.683952e+03
1.623771e+03,5.676823e+03
1.624735e+03,5.675203e+03
1.625699e+03,5.677167e+03
1.626663e+03,5.677861e+03
1.627628e+03,5.675346e+03
1.628592e+03,5.666918e+03
1.629556e+03,5.650397e+03
1.630520e+03,5.630954e+03
1.631485e+03,5.625583e+03
1.632449e+03,5.630502e+03
1.633413e+03,5.631566e+03
1.634377e+03,5.623520e+03
1.635342e+03,5.612132e+03
1.636306e+03,5.595150e+03
1.637270e+03,5.581339e+03
1.638234e+03,5.573663e+03
1.639198e+03,5.572695e+03
1.640163e+03,5.580713e+03
1.641127e+03,5.595015e+03
1.642091e+03,5.601103e+03
1.643055e+03,5.596432e+03
1.644020e+03,5.590897e+03
1.644984e+03,5.589635e+03
1.645948e+03,5.583220e+03
1.646912e+03,5.567928e+03
1.647877e+03,5.554248e+03
1.648841e+03,5.553735e+03
1.649805e+03,5.561354e+03
1.650769e+03,5.558528e+03
1.651734e+03,5.548425e+03
1.652698e+03,5.540494e+03
1.653662e+03,5.535544e+03
1.654626e+03,5.530014e+03
1.655590e+03,5.524309e+03
1.656555e+03,5.516177e+03
1.657519e+03,5.506669e+03
1.658483e+03,5.498653e+03
1.659447e+03,5.492556e+03
1.660412e+03,5.485783e+03
1.661376e+03,5.477533e+03
1.662340e+03,5.470210e+03
1.663304e+03,5.466613e+03
1.664269e+03,5.467849e+03
1.665233e+03,5.465356e+03
1.666197e+03,5.455620e+03
1.667161e+03,5.448653e+03
1.668125e+03,5.453896e+03
1.669090e+03,5.460658e+03
1.670054e+03,5.448874e+03
1.671018e+03,5.430947e+03
1.671982e+03,5.426840e+03
1.672947e+03,5.437519e+03
1.673911e+03,5.438769e+03
1.674875e+03,5.423947e+03
1.675839e+03,5.410779e+03
1.676804e+03,5.404583e+03
1.677768e+03,5.402172e+03
1.678732e+03,5.399119e+03
1.679696e+03,5.395137e+03
1.680661e+03,5.387497e+03
1.681625e+03,5.377931e+03
1.682589e+03,5.374086e+03
1.683553e+03,5.378413e+03
1.684517e+03,5.377896e+03
1.685482e+03,5.371999e+03
1.686446e+03,5.369383e+03
1.687410e+03,5.373760e+03
1.688374e+03,5.374612e+03
1.689339e+03,5.355150e+03
1.690303e+03,5.338806e+03
1.691267e+03,5.345390e+03
1.692231e+03,5.360424e+03
1.693196e+03,5.356296e+03
1.694160e+03,5.334252e+03
1.695124e+03,5.311989e+03
1.696088e+03,5.292919e+03
1.697052e+03,5.284598e+03
1.698017e+03,5.293528e+03
1.698981e+03,5.299940e+03
1.699945e+03,5.294515e+03
1.700909e+03,5.288068e+03
1.701874e+03,5.291917e+03
1.702838e+03,5.301735e+03
1.703802e+03,5.300792e+03
1.704766e+03,5.291067e+03
1.705731e+03,5.281428e+03
1.706695e+03,5.274050e+03
1.707659e+03,5.266032e+03
1.708623e+03,5.257234e+03
1.709588e+03,5.253633e+03
1.710552e+03,5.254115e+03
1.711516e+03,5.252383e+03
1.712480e+03,5.241461e+03
1.713444e+03,5.229003e+03
1.714409e+03,5.226858e+03
1.715373e+03,5.230436e+03
1.716337e+03,5.231501e+03
1.717301e+03,5.231167e+03
1.718266e+03,5.227763e+03
1.719230e+03,5.220127e+03
1.720194e+03,5.212912e+03
1.721158e+03,5.206761e+03
1.722123e+03,5.199799e+03
1.723087e+03,5.190097e+03
1.724051e+03,5.180210e+03
1.725015e+03,5.171499e+03
1.725979e+03,5.165568e+03
1.726944e+03,5.164383e+03
1.727908e+03,5.165828e+03
1.728872e+03,5.157857e+03
1.729836e+03,5.142419e+03
1.730801e+03,5.134500e+03
1.731765e+03,5.148601e+03
1.732729e+03,5.151108e+03
1.733693e+03,5.133100e+03
1.734658e+03,5.121767e+03
1.735622e+03,5.131738e+03
1.736586e+03,5.146226e+03
1.737550e+03,5.141231e+03
1.738515e+03,5.126750e+03
1.739479e+03,5.113115e+03
1.740443e+03,5.101575e+03
1.741407e+03,5.092341e+03
1.742371e+03,5.085440e+03
1.743336e+03,5.082258e+03
1.744300e+03,5.082513e+03
1.745264e+03,5.083065e+03
1.746228e+03,5.087384e+03
1.747193e+03,5.090203e+03
1.748157e+03,5.090983e+03
1.749121e+03,5.091500e+03
1.750085e+03,5.087127e+03
1.751050e+03,5.075135e+03
1.752014e+03,5.058876e+03
1.752978e+03,5.042636e+03
1.753942e+03,5.034464e+03
1.754906e+03,5.034856e+03
1.755871e+03,5.035292e+03
1.756835e+03,5.031852e+03
1.757799e+03,5.025144e+03
1.758763e+03,5.020096e+03
1.759728e+03,5.017227e+03
1.760692e+03,5.017607e+03
1.761656e+03,5.017638e+03
1.762620e+03,5.007304e+03
1.763585e+03,4.994901e+03
1.764549e+03,4.994766e+03
1.765513e+03,5.004456e+03
1.766477e+03,5.000953e+03
1.767442e+03,4.987411e+03
1.768406e+03,4.973836e+03
1.769370e+03,4.962608e+03
1.770334e+03,4.957952e+03
1.771298e+03,4.968232e+03
1.772263e+03,4.970304e+03
1.773227e+03,4.957469e+03
1.774191e+03,4.939555e+03
1.775155e+03,4.924710e+03
1.776120e+03,4.914958e+03
1.777084e+03,4.918886e+03
1.778048e+03,4.931237e+03
1.779012e+03,4.935893e+03
1.779977e+03,4.929984e+03
1.780941e+03,4.933408e+03
1.781905e+03,4.943706e+03
1.782869e+03,4.950190e+03
1.783833e+03,4.948918e+03
1.784798e+03,4.942939e+03
1.785762e+03,4.930899e+03
1.786726e+03,4.916765e+03
1.787690e+03,4.902369e+03
1.788655e+03,4.889741e+03
1.789619e+03,4.881616e+03
1.790583e+03,4.876563e+03
1.791547e+03,4.869256e+03
1.792512e+03,4.861129e+03
1.793476e+03,4.859677e+03
1.794440e+03,4.865727e+03
1.795404e+03,4.870588e+03
1.796369e+03,4.872378e+03
1.797333e+03,4.869770e+03
1.798297e+03,4.860265e+03
1.799261e+03,4.851339e+03
1.800225e+03,4.847631e+03
1.801190e+03,4.843456e+03
1.802154e+03,4.837192e+03
1.803118e+03,4.828571e+03
1.804082e+03,4.816724e+03
1.805047e+03,4.806446e+03
1.806011e+03,4.807961e+03
1.806975e+03,4.820438e+03
1.807939e+03,4.825637e+03
1.808904e+03,4.818139e+03
1.809868e+03,4.809342e+03
1.810832e+03,4.801712e+03
1.811796e+03,4.795235e+03
1.812760e+03,4.787902e+03
1.813725e+03,4.782200e+03
1.814689e+03,4.783087e+03
1.815653e+03,4.783511e+03
1.816617e+03,4.777178e+03
1.817582e+03,4.767265e+03
1.818546e+03,4.767593e+03
1.819510e+03,4.769749e+03
1.820474e+03,4.750953e+03
1.821439e+03,4.709042e+03
1.822403e+03,4.690336e+03
1.823367e+03,4.703175e+03
1.824331e+03,4.713917e+03
1.825296e+03,4.716195e+03
1.826260e+03,4.711064e+03
1.827224e+03,4.696070e+03
1.828188e+03,4.686210e+03
1.829152e+03,4.689415e+03
1.830117e+03,4.695836e+03
1.831081e+03,4.698493e+03
1.832045e+03,4.696919e+03
1.833009e+03,4.697051e+03
1.833974e+03,4.698541e+03
1.834938e+03,4.691128e+03
1.835902e+03,4.669444e+03
1.836866e+03,4.655344e+03
1.837831e+03,4.648771e+03
1.838795e+03,4.646349e+03
1.839759e+03,4.649654e+03
1.840723e+03,4.653594e+03
1.841688e+03,4.652430e+03
1.842652e+03,4.649345e+03
1.843616e+03,4.641991e+03
1.844580e+03,4.633967e+03
1.845544e+03,4.633547e+03
1.846509e+03,4.636445e+03
1.847473e+03,4.633394e+03
1.848437e+03,4.626759e+03
1.849401e+03,4.621568e+03
1.850366e+03,4.618795e+03
1.851330e+03,4.609437e+03
1.852294e+03,4.595871e+03
1.853258e+03,4.586373e+03
1.854223e+03,4.582992e+03
1.855187e+03,4.581716e+03
1.856151e+03,4.580420e+03
1.857115e+03,4.577727e+03
1.858079e+03,4.573300e+03
1.859044e+03,4.564430e+03
1.860008e+03,4.542455e+03
1.860972e+03,4.524374e+03
1.861936e+03,4.531983e+03
1.862901e+03,4.550966e+03
1.863865e+03,4.558625e+03
1.864829e+03,4.553155e+03
1.865793e+03,4.541843e+03
1.866758e+03,4.528623e+03
1.867722e+03,4.520503e+03
1.868686e+03,4.518531e+03
1.869650e+03,4.521897e+03
1.870615e+03,4.530357e+03
1.871579e+03,4.535017e+03
1.872543e+03,4.536061e+03
1.873507e+03,4.534246e+03
1.874471e+03,4.521584e+03
1.875436e+03,4.506669e+03
1.876400e+03,4.494014e+03
1.877364e+03,4.486381e+03
1.878328e+03,4.492219e+03
1.879293e+03,4.501226e+03
1.880257e+03,4.487708e+03
1.881221e+03,4.461917e+03
1.882185e+03,4.449402e+03
1.883150e+03,4.452662e+03
1.884114e+03,4.453688e+03
1.885078e+03,4.451336e+03
1.886042e+03,4.445753e+03
1.887006e+03,4.436232e+03
1.887971e+03,4.427794e+03
1.888935e+03,4.425485e+03
1.889899e+03,4.421995e+03
1.890863e+03,4.412013e+03
1.891828e+03,4.404523e+03
1.892792e+03,4.420487e+03
1.893756e+03,4.434312e+03
1.894720e+03,4.426752e+03
1.895685e+03,4.412306e+03
1.896649e+03,4.398598e+03
1.897613e+03,4.385350e+03
1.898577e+03,4.377977e+03
1.899542e+03,4.375977e+03
1.900506e+03,4.377885e+03
1.901470e+03,4.383173e+03
1.902434e+03,4.384867e+03
1.903398e+03,4.383309e+03
1.904363e+03,4.379926e+03
1.905327e+03,4.375203e+03
1.906291e+03,4.374053e+03
1.907255e+03,4.380197e+03
1.908220e+03,4.383443e+03
1.909184e+03,4.382972e+03
1.910148e+03,4.375175e+03
1.911112e+03,4.349766e+03
1.912077e+03,4.326835e+03
1.913041e+03,4.330744e+03
1.914005e+03,4.339524e+03
1.914969e+03,4.327003e+03
1.915933e+03,4.301498e+03
1.916898e+03,4.292427e+03
1.917862e+03,4.294418e+03
1.918826e+03,4.294237e+03
1.919790e+03,4.290896e+03
1.920755e+03,4.294821e+03
1.921719e+03,4.303033e+03
1.922683e+03,4.302037e+03
1.923647e+03,4.290379e+03
1.924612e+03,4.281958e+03
1.925576e+03,4.285622e+03
1.926540e+03,4.289776e+03
1.927504e+03,4.291100e+03
1.928469e+03,4.286867e+03
1.929433e+03,4.273113e+03
1.930397e+03,4.253562e+03
1.931361e+03,4.219079e+03
1.932325e+03,4.193935e+03
1.933290e+03,4.204827e+03
1.934254e+03,4.237945e+03
1.935218e+03,4.260243e+03
1.936182e+03,4.266338e+03
1.937147e+03,4.244674e+03
1.938111e+03,4.202461e+03
1.939075e+03,4.185264e+03
1.940039e+03,4.191335e+03
1.941004e+03,4.197630e+03
1.941968e+03,4.197938e+03
1.942932e+03,4.195633e+03
1.943896e+03,4.193416e+03
1.944860e+03,4.188789e+03
1.945825e+03,4.183307e+03
1.946789e+03,4.177660e+03
1.947753e+03,4.167534e+03
1.948717e+03,4.160182e+03
1.949682e+03,4.159881e+03
1.950646e+03,4.159131e+03
1.951610e+03,4.153382e+03
1.952574e+03,4.145518e+03
1.953539e+03,4.135201e+03
1.954503e+03,4.128960e+03
1.955467e+03,4.138711e+03
1.956431e+03,4.156427e+03
1.957396e+03,4.158471e+03
1.958360e+03,4.148289e+03
1.959324e+03,4.134197e+03
1.960288e+03,4.120224e+03
1.961252e+03,4.112557e+03
1.962217e+03,4.109596e+03
1.963181e+03,4.102759e+03
1.964145e+03,4.092024e+03
1.965109e+03,4.086879e+03
1.966074e+03,4.100420e+03
1.967038e+03,4.107574e+03
1.968002e+03,4.101625e+03
1.968966e+03,4.090582e+03
1.969931e+03,4.075326e+03
1.970895e+03,4.066083e+03
1.971859e+03,4.088601e+03
1.972823e+03,4.102819e+03
1.973787e+03,4.085816e+03
1.974752e+03,4.059385e+03
1.975716e+03,4.059728e+03
1.976680e+03,4.065674e+03
1.977644e+03,4.052847e+03
1.978609e+03,4.035293e+03
1.979573e+03,4.035392e+03
1.980537e+03,4.046246e+03
1.981501e+03,4.047695e+03
1.982466e+03,4.043032e+03
1.983430e+03,4.042607e+03
1.984394e+03,4.047669e+03
1.985358e+03,4.042105e+03
1.986323e+03,4.027446e+03
1.987287e+03,4.017949e+03
1.988251e+03,4.019528e+03
1.989215e+03,4.010465e+03
1.990179e+03,3.986245e+03
1.991144e+03,3.971435e+03
1.992108e+03,3.974033e+03
1.993072e+03,3.979133e+03
1.994036e+03,3.972061e+03
1.995001e+03,3.968147e+03
1.995965e+03,3.971878e+03
1.996929e+03,3.979171e+03
1.997893e+03,3.985368e+03
1.998858e+03,3.988799e+03
1.999822e+03,3.990265e+03
2.000786e+03,3.985706e+03
2.001750e+03,3.973705e+03
2.002714e+03,3.958901e+03
2.003679e+03,3.938688e+03
2.004643e+03,3.920101e+03
2.005607e+03,3.923766e+03
2.006571e+03,3.942023e+03
2.007536e+03,3.934839e+03
2.008500e+03,3.912281e+03
2.009464e+03,3.908375e+03
2.010428e+03,3.925051e+03
2.011393e+03,3.921890e+03
2.012357e+03,3.894521e+03
2.013321e+03,3.881388e+03
2.014285e+03,3.882216e+03
2.015250e+03,3.886055e+03
2.016214e+03,3.897121e+03
2.017178e+03,3.889922e+03
2.018142e+03,3.862102e+03
2.019106e+03,3.845713e+03
2.020071e+03,3.864420e+03
2.021035e+03,3.877887e+03
2.021999e+03,3.861238e+03
2.022963e+03,3.844319e+03
2.023928e+03,3.839890e+03
2.024892e+03,3.839549e+03
2.025856e+03,3.831425e+03
2.026820e+03,3.826079e+03
2.027785e+03,3.831069e+03
2.028749e+03,3.838008e+03
2.029713e+03,3.838480e+03
2.030677e+03,3.834178e+03
2.031641e+03,3.818945e+03
2.032606e+03,3.803989e+03
2.033570e+03,3.811441e+03
2.034534e+03,3.833073e+03
2.035498e+03,3.837413e+03
2.036463e+03,3.828994e+03
2.037427e+03,3.814255e+03
2.038391e+03,3.797010e+03
2.039355e+03,3.788088e+03
2.040320e+03,3.786161e+03
2.041284e+03,3.782948e+03
2.042248e+03,3.775414e+03
2.043212e+03,3.767871e+03
2.044177e+03,3.761764e+03
2.045141e+03,3.758846e+03
2.046105e+03,3.758499e+03
2.047069e+03,3.758250e+03
2.048033e+03,3.754572e+03
2.048998e+03,3.750321e+03
2.049962e+03,3.746842e+03
2.050926e+03,3.745903e+03
2.051890e+03,3.751939e+03
2.052854e+03,3.755215e+03
2.053819e+03,3.752239e+03
2.054783e+03,3.741055e+03
2.055747e+03,3.718892e+03
2.056711e+03,3.701562e+03
2.057676e+03,3.707981e+03
2.058640e+03,3.719393e+03
2.059604e+03,3.724614e+03
2.060568e+03,3.721945e+03
2.061533e+03,3.705978e+03
2.062497e+03,3.688117e+03
2.063461e+03,3.679374e+03
2.064425e+03,3.676306e+03
2.065390e+03,3.675136e+03
2.066354e+03,3.675328e+03
2.067318e+03,3.680825e+03
2.068282e+03,3.686855e+03
2.069247e+03,3.681999e+03
2.070211e+03,3.667146e+03
2.071175e+03,3.651424e+03
2.072139e+03,3.637854e+03
2.073104e+03,3.634336e+03
2.074068e+03,3.641109e+03
2.075032e+03,3.643214e+03
2.075996e+03,3.640819e+03
2.076960e+03,3.641782e+03
2.077925e+03,3.647056e+03
2.078889e+03,3.649753e+03
2.079853e+03,3.649747e+03
2.080817e+03,3.640563e+03
2.081782e+03,3.621972e+03
2.082746e+03,3.606424e+03
2.083710e+03,3.601553e+03
2.084674e+03,3.598172e+03
2.085639e+03,3.597847e+03
2.086603e+03,3.605561e+03
2.087567e+03,3.630360e+03
2.088531e+03,3.634022e+03
2.089496e+03,3.606775e+03
2.090460e+03,3.580834e+03
2.091424e+03,3.577428e+03
2.092388e+03,3.579798e+03
2.093353e+03,3.575122e+03
2.094317e+03,3.574433e+03
2.095281e+03,3.577927e+03
2.096245e+03,3.581921e+03
2.097209e+03,3.591257e+03
2.098174e+03,3.587330e+03
2.099138e+03,3.560610e+03
2.100102e+03,3.533145e+03
2.101066e+03,3.527375e+03
2.102031e+03,3.532479e+03
2.102995e+03,3.549919e+03
2.103959e+03,3.561267e+03
2.104923e+03,3.543021e+03
2.105887e+03,3.520000e+03
2.106852e+03,3.537056e+03
2.107816e+03,3.556023e+03
2.108780e+03,3.536836e+03
2.109744e+03,3.496553e+03
2.110708e+03,3.475370e+03
2.111673e+03,3.468550e+03
2.112637e+03,3.468350e+03
2.113601e+03,3.469428e+03
2.114565e+03,3.467024e+03
2.115530e+03,3.462591e+03
2.116494e+03,3.458351e+03
2.117458e+03,3.458815e+03
2.118422e+03,3.460449e+03
2.119387e+03,3.461659e+03
2.120351e+03,3.475856e+03
2.121315e+03,3.495736e+03
2.122279e+03,3.503527e+03
2.123244e+03,3.497941e+03
2.124208e+03,3.491810e+03
2.125172e+03,3.485526e+03
2.126136e+03,3.475072e+03
2.127101e+03,3.459366e+03
2.128065e+03,3.444664e+03
2.129029e+03,3.430763e+03
2.129993e+03,3.422426e+03
2.130958e+03,3.417423e+03
2.131922e+03,3.420892e+03
2.132886e+03,3.434614e+03
2.133850e+03,3.445173e+03
2.134814e+03,3.453632e+03
2.135779e+03,3.448984e+03
2.136743e+03,3.415379e+03
2.137707e+03,3.403484e+03
2.138671e+03,3.415442e+03
2.139636e+03,3.418594e+03
2.140600e+03,3.384222e+03
2.141564e+03,3.371449e+03
2.142528e+03,3.385866e+03
2.143493e+03,3.392350e+03
2.144457e+03,3.371828e+03
2.145421e+03,3.355694e+03
2.146385e+03,3.354198e+03
2.147350e+03,3.352261e+03
2.148314e+03,3.347552e+03
2.149278e+03,3.346491e+03
2.150242e+03,3.348445e+03
2.151207e+03,3.354952e+03
2.152171e+03,3.366711e+03
2.153135e+03,3.370218e+03
2.154099e+03,3.353307e+03
2.155063e+03,3.338773e+03
2.156028e+03,3.333284e+03
2.156992e+03,3.330086e+03
2.157956e+03,3.317974e+03
2.158920e+03,3.307953e+03
2.159885e+03,3.303997e+03
2.160849e+03,3.306615e+03
2.161813e+03,3.319839e+03
2.162777e+03,3.329517e+03
2.163741e+03,3.325582e+03
2.164706e+03,3.310537e+03
2.165670e+03,3.285039e+03
2.166634e+03,3.265381e+03
2.167598e+03,3.270241e+03
2.168563e+03,3.279284e+03
2.169527e+03,3.280891e+03
2.170491e+03,3.277125e+03
2.171455e+03,3.270535e+03
2.172420e+03,3.267871e+03
2.173384e+03,3.277117e+03
2.174348e+03,3.286546e+03
2.175312e+03,3.285798e+03
2.176277e+03,3.278141e+03
2.177241e+03,3.264568e+03
2.178205e+03,3.249615e+03
2.179169e+03,3.236678e+03
2.180134e+03,3.229204e+03
2.181098e+03,3.232028e+03
2.182062e+03,3.237199e+03
2.183026e+03,3.236268e+03
2.183990e+03,3.233247e+03
2.184955e+03,3.236429e+03
2.185919e+03,3.238825e+03
2.186883e+03,3.232320e+03
2.187847e+03,3.222257e+03
2.188812e+03,3.217615e+03
2.189776e+03,3.214632e+03
2.190740e+03,3.205343e+03
2.191704e+03,3.195847e+03
2.192668e+03,3.199456e+03
2.193633e+03,3.202938e+03
2.194597e+03,3.177812e+03
2.195561e+03,3.151786e+03
2.196525e+03,3.148479e+03
2.197490e+03,3.157625e+03
2.198454e+03,3.168480e+03
2.199418e+03,3.174471e+03
2.200382e+03,3.170371e+03
2.201347e+03,3.162841e+03
2.202311e+03,3.156324e+03
2.203275e+03,3.153222e+03
2.204239e+03,3.156215e+03
2.205204e+03,3.157804e+03
2.206168e+03,3.152446e+03
2.207132e+03,3.144847e+03
2.208096e+03,3.138270e+03
2.209061e+03,3.129034e+03
2.210025e+03,3.111009e+03
2.210989e+03,3.094309e+03
2.211953e+03,3.100170e+03
2.212917e+03,3.118187e+03
2.213882e+03,3.129921e+03
2.214846e+03,3.134495e+03
2.215810e+03,3.132033e+03
2.216774e+03,3.125358e+03
2.217739e+03,3.124657e+03
2.218703e+03,3.125753e+03
2.219667e+03,3.119563e+03
2.220631e+03,3.109329e+03
2.221595e+03,3.094380e+03
2.222560e+03,3.079909e+03
2.223524e+03,3.077546e+03
2.224488e+03,3.076832e+03
2.225452e+03,3.060831e+03
2.226417e+03,3.047769e+03
2.227381e+03,3.060679e+03
2.228345e+03,3.082849e+03
2.229309e+03,3.093034e+03
2.230274e+03,3.091810e+03
2.231238e+03,3.077387e+03
2.232202e+03,3.059363e+03
2.233166e+03,3.055067e+03
2.234131e+03,3.057980e+03
2.235095e+03,3.063000e+03
2.236059e+03,3.065963e+03
2.237023e+03,3.056648e+03
2.237988e+03,3.044665e+03
2.238952e+03,3.035843e+03
2.239916e+03,3.027484e+03
2.240880e+03,3.018976e+03
2.241844e+03,3.012223e+03
2.242809e+03,3.007695e+03
2.243773e+03,3.005972e+03
2.244737e+03,3.007156e+03
2.245701e+03,3.008557e+03
2.246666e+03,3.009378e+03
2.247630e+03,3.005800e+03
2.248594e+03,2.994813e+03
2.249558e+03,2.987015e+03
2.250522e+03,2.991626e+03
2.251487e+03,3.002934e+03
2.252451e+03,3.019965e+03
2.253415e+03,3.025657e+03
2.254379e+03,2.993770e+03
2.255344e+03,2.967777e+03
2.256308e+03,2.966036e+03
2.257272e+03,2.973378e+03
2.258236e+03,2.981944e+03
2.259201e+03,2.983578e+03
2.260165e+03,2.973622e+03
2.261129e+03,2.961313e+03
2.262093e+03,2.953051e+03
2.263058e+03,2.945098e+03
2.264022e+03,2.937452e+03
2.264986e+03,2.937561e+03
2.265950e+03,2.958601e+03
2.266915e+03,2.964612e+03
2.267879e+03,2.940485e+03
2.268843e+03,2.915319e+03
2.269807e+03,2.904855e+03
2.270771e+03,2.900228e+03
2.271736e+03,2.899569e+03
2.272700e+03,2.900750e+03
2.273664e+03,2.899324e+03
2.274628e+03,2.905388e+03
2.275593e+03,2.929679e+03
2.276557e+03,2.938089e+03
2.277521e+03,2.927644e+03
2.278485e+03,2.914837e+03
2.279449e+03,2.904388e+03
2.280414e+03,2.900853e+03
2.281378e+03,2.903650e+03
2.282342e+03,2.901252e+03
2.283306e+03,2.878015e+03
2.284271e+03,2.864940e+03
2.285235e+03,2.860935e+03
2.286199e+03,2.861180e+03
2.287163e+03,2.871546e+03
2.288128e+03,2.867935e+03
2.289092e+03,2.849749e+03
2.290056e+03,2.839652e+03
2.291020e+03,2.844124e+03
2.291985e+03,2.837975e+03
2.292949e+03,2.825094e+03
2.293913e+03,2.827244e+03
2.294877e+03,2.844178e+03
2.295842e+03,2.855836e+03
2.296806e+03,2.859926e+03
2.297770e+03,2.858859e+03
2.298734e+03,2.853304e+03
2.299698e+03,2.846484e+03
2.300663e+03,2.839927e+03
2.301627e+03,2.837577e+03
2.302591e+03,2.835517e+03
2.303555e+03,2.825235e+03
2.304520e+03,2.810627e+03
2.305484e+03,2.811058e+03
2.306448e+03,2.817162e+03
2.307412e+03,2.809323e+03
2.308376e+03,2.793125e+03
2.309341e+03,2.786862e+03
2.310305e+03,2.783911e+03
2.311269e+03,2.776014e+03
2.312233e+03,2.769273e+03
2.313198e+03,2.772414e+03
2.314162e+03,2.777594e+03
2.315126e+03,2.778397e+03
2.316090e+03,2.775255e+03
2.317055e+03,2.769201e+03
2.318019e+03,2.761067e+03
2.318983e+03,2.745120e+03
2.319947e+03,2.733722e+03
2.320912e+03,2.743186e+03
2.321876e+03,2.755593e+03
2.322840e+03,2.755329e+03
2.323804e+03,2.753564e+03
2.324769e+03,2.757006e+03
2.325733e+03,2.758512e+03
2.326697e+03,2.746040e+03
2.327661e+03,2.742302e+03
2.328625e+03,2.754226e+03
2.329590e+03,2.757035e+03
2.330554e+03,2.730180e+03
2.331518e+03,2.716751e+03
2.332482e+03,2.723383e+03
2.333447e+03,2.727662e+03
2.334411e+03,2.716219e+03
2.335375e+03,2.705123e+03
2.336339e+03,2.695843e+03
2.337303e+03,2.695915e+03
2.338268e+03,2.714398e+03
2.339232e+03,2.713491e+03
2.340196e+03,2.697502e+03
2.341160e+03,2.691499e+03
2.342125e+03,2.702894e+03
2.343089e+03,2.704868e+03
2.344053e+03,2.696985e+03
2.345017e+03,2.694246e+03
2.345982e+03,2.697441e+03
2.346946e+03,2.685395e+03
2.347910e+03,2.665563e+03
2.348874e+03,2.647876e+03
2.349839e+03,2.634037e+03
2.350803e+03,2.634366e+03
2.351767e+03,2.643410e+03
2.352731e+03,2.650661e+03
2.353696e+03,2.656456e+03
2.354660e+03,2.658835e+03
2.355624e+03,2.657402e+03
2.356588e+03,2.653388e+03
2.357552e+03,2.649271e+03
2.358517e+03,2.646753e+03
2.359481e+03,2.645247e+03
2.360445e+03,2.644474e+03
2.361409e+03,2.640208e+03
2.362374e+03,2.630105e+03
2.363338e+03,2.616987e+03
2.364302e+03,2.604365e+03
2.365266e+03,2.597966e+03
2.366230e+03,2.597611e+03
2.367195e+03,2.600476e+03
2.368159e+03,2.606607e+03
2.369123e+03,2.606991e+03
2.370087e+03,2.602509e+03
2.371052e+03,2.600776e+03
2.372016e+03,2.608587e+03
2.372980e+03,2.609191e+03
2.373944e+03,2.601372e+03
2.374909e+03,2.593866e+03
2.375873e+03,2.589138e+03
2.376837e+03,2.590882e+03
2.377801e+03,2.597031e+03
2.378766e+03,2.593917e+03
2.379730e+03,2.580729e+03
2.380694e+03,2.576380e+03
2.381658e+03,2.577479e+03
2.382623e+03,2.566675e+03
2.383587e+03,2.549379e+03
2.384551e+03,2.549126e+03
2.385515e+03,2.554940e+03
2.386479e+03,2.548807e+03
2.387444e+03,2.541317e+03
2.388408e+03,2.555417e+03
2.389372e+03,2.570979e+03
2.390336e+03,2.561970e+03
2.391301e+03,2.548218e+03
2.392265e+03,2.548155e+03
2.393229e+03,2.549078e+03
2.394193e+03,2.544246e+03
2.395157e+03,2.537549e+03
2.396122e+03,2.529848e+03
2.397086e+03,2.526832e+03
2.398050e+03,2.532471e+03
2.399014e+03,2.533142e+03
2.399979e+03,2.520030e+03
2.400943e+03,2.518672e+03
2.401907e+03,2.532407e+03
2.402871e+03,2.538642e+03
2.403836e+03,2.533268e+03
2.404800e+03,2.528717e+03
2.405764e+03,2.525590e+03
2.406728e+03,2.522567e+03
2.407693e+03,2.517168e+03
2.408657e+03,2.504580e+03
2.409621e+03,2.489239e+03
2.410585e+03,2.488118e+03
2.411550e+03,2.494763e+03
2.412514e+03,2.488586e+03
2.413478e+03,2.476161e+03
2.414442e+03,2.478297e+03
2.415406e+03,2.483274e+03
2.416371e+03,2.476019e+03
2.417335e+03,2.466456e+03
2.418299e+03,2.471593e+03
2.419263e+03,2.474655e+03
2.420228e+03,2.464187e+03
2.421192e+03,2.454898e+03
2.422156e+03,2.467346e+03
2.423120e+03,2.474718e+03
2.424084e+03,2.468223e+03
2.425049e+03,2.458600e+03
2.426013e+03,2.454371e+03
2.426977e+03,2.448215e+03
2.427941e+03,2.441621e+03
2.428906e+03,2.442212e+03
2.429870e+03,2.451575e+03
2.430834e+03,2.456362e+03
2.431798e+03,2.456746e+03
2.432763e+03,2.449710e+03
2.433727e+03,2.436152e+03
2.434691e+03,2.434266e+03
2.435655e+03,2.437985e+03
2.436620e+03,2.435389e+03
2.437584e+03,2.428266e+03
2.438548e+03,2.420383e+03
2.439512e+03,2.415056e+03
2.440477e+03,2.415601e+03
2.441441e+03,2.414205e+03
2.442405e+03,2.398403e+03
2.443369e+03,2.387844e+03
2.444333e+03,2.393659e+03
2.445298e+03,2.399691e+03
2.446262e+03,2.387674e+03
2.447226e+03,2.378933e+03
2.448190e+03,2.378516e+03
2.449155e+03,2.379298e+03
2.450119e+03,2.379827e+03
2.451083e+03,2.379231e+03
2.452047e+03,2.376745e+03
2.453011e+03,2.371390e+03
2.453976e+03,2.363708e+03
2.454940e+03,2.360676e+03
2.455904e+03,2.362703e+03
2.456868e+03,2.365905e+03
2.457833e+03,2.367936e+03
2.458797e+03,2.370317e+03
2.459761e+03,2.369649e+03
2.460725e+03,2.357837e+03
2.461690e+03,2.341255e+03
2.462654e+03,2.321934e+03
2.463618e+03,2.314179e+03
2.464582e+03,2.329714e+03
2.465547e+03,2.346876e+03
2.466511e+03,2.338515e+03
2.467475e+03,2.332874e+03
2.468439e+03,2.336722e+03
2.469404e+03,2.338424e+03
2.470368e+03,2.330343e+03
2.471332e+03,2.331795e+03
2.472296e+03,2.340350e+03
2.473260e+03,2.340722e+03
2.474225e+03,2.328735e+03
2.475189e+03,2.322702e+03
2.476153e+03,2.323784e+03
2.477117e+03,2.335266e+03
2.478082e+03,2.348698e+03
2.479046e+03,2.338023e+03
2.480010e+03,2.317698e+03
2.480974e+03,2.307417e+03
2.481938e+03,2.303923e+03
2.482903e+03,2.306440e+03
2.483867e+03,2.308423e+03
2.484831e+03,2.306276e+03
2.485795e+03,2.299897e+03
2.486760e+03,2.284975e+03
2.487724e+03,2.278865e+03
2.488688e+03,2.284888e+03
2.489652e+03,2.293186e+03
2.490617e+03,2.300751e+03
2.491581e+03,2.295158e+03
2.492545e+03,2.280447e+03
2.493509e+03,2.274854e+03
2.494474e+03,2.278802e+03
2.495438e+03,2.278803e+03
2.496402e+03,2.277110e+03
2.497366e+03,2.281477e+03
2.498331e+03,2.286289e+03
2.499295e+03,2.280316e+03
2.500259e+03,2.265755e+03
2.501223e+03,2.243551e+03
2.502188e+03,2.230249e+03
2.503152e+03,2.256992e+03
2.504116e+03,2.271087e+03
2.505080e+03,2.256282e+03
2.506044e+03,2.242968e+03
2.507009e+03,2.250034e+03
2.507973e+03,2.261477e+03
2.508937e+03,2.276297e+03
2.509901e+03,2.279571e+03
2.510865e+03,2.266457e+03
2.511830e+03,2.250970e+03
2.512794e+03,2.234703e+03
2.513758e+03,2.229814e+03
2.514722e+03,2.232779e+03
2.515687e+03,2.228443e+03
2.516651e+03,2.224735e+03
2.517615e+03,2.232613e+03
2.518579e+03,2.237638e+03
2.519544e+03,2.210672e+03
2.520508e+03,2.194392e+03
2.521472e+03,2.205951e+03
2.522436e+03,2.218456e+03
2.523401e+03,2.211348e+03
2.524365e+03,2.207144e+03
2.525329e+03,2.205419e+03
2.526293e+03,2.206204e+03
2.527258e+03,2.211501e+03
2.528222e+03,2.213042e+03
2.529186e+03,2.211497e+03
2.530150e+03,2.209202e+03
2.531115e+03,2.207877e+03
2.532079e+03,2.210419e+03
2.533043e+03,2.211105e+03
2.534007e+03,2.202706e+03
2.534971e+03,2.190410e+03
2.535936e+03,2.181788e+03
2.536900e+03,2.178251e+03
2.537864e+03,2.180395e+03
2.538828e+03,2.184805e+03
2.539792e+03,2.187625e+03
2.540757e+03,2.185151e+03
2.541721e+03,2.177068e+03
2.542685e+03,2.173271e+03
2.543649e+03,2.175307e+03
2.544614e+03,2.178007e+03
2.545578e+03,2.179714e+03
2.546542e+03,2.184586e+03
2.547506e+03,2.187742e+03
2.548471e+03,2.165548e+03
2.549435e+03,2.145336e+03
2.550399e+03,2.156043e+03
2.551363e+03,2.170307e+03
2.552328e+03,2.167497e+03
2.553292e+03,2.159509e+03
2.554256e+03,2.147458e+03
2.555220e+03,2.145362e+03
2.556185e+03,2.154490e+03
2.557149e+03,2.160286e+03
2.558113e+03,2.159914e+03
2.559077e+03,2.160329e+03
2.560042e+03,2.160267e+03
2.561006e+03,2.163007e+03
2.561970e+03,2.164036e+03
2.562934e+03,2.137454e+03
2.563898e+03,2.112060e+03
2.564863e+03,2.129206e+03
2.565827e+03,2.144433e+03
2.566791e+03,2.116035e+03
2.567755e+03,2.104478e+03
2.568719e+03,2.122226e+03
2.569684e+03,2.132068e+03
2.570648e+03,2.113007e+03
2.571612e+03,2.116771e+03
2.572576e+03,2.140991e+03
2.573541e+03,2.152388e+03
2.574505e+03,2.146555e+03
2.575469e+03,2.133948e+03
2.576433e+03,2.119572e+03
2.577398e+03,2.114128e+03
2.578362e+03,2.112561e+03
2.579326e+03,2.109778e+03
2.580290e+03,2.107235e+03
2.581255e+03,2.105156e+03
2.582219e+03,2.097885e+03
2.583183e+03,2.074777e+03
2.584147e+03,2.065242e+03
2.585112e+03,2.072017e+03
2.586076e+03,2.070994e+03
2.587040e+03,2.058026e+03
2.588004e+03,2.062508e+03
2.588969e+03,2.076382e+03
2.589933e+03,2.087346e+03
2.590897e+03,2.093180e+03
2.591861e+03,2.085366e+03
2.592825e+03,2.075583e+03
2.593790e+03,2.070715e+03
2.594754e+03,2.064335e+03
2.595718e+03,2.048570e+03
2.596682e+03,2.045802e+03
2.597646e+03,2.060452e+03
2.598611e+03,2.066420e+03
2.599575e+03,2.063455e+03
2.600539e+03,2.061153e+03
2.601503e+03,2.060364e+03
2.602468e+03,2.063285e+03
2.603432e+03,2.066784e+03
2.604396e+03,2.069569e+03
2.605360e+03,2.068348e+03
2.606325e+03,2.050235e+03
2.607289e+03,2.038659e+03
2.608253e+03,2.044544e+03
2.609217e+03,2.054841e+03
2.610182e+03,2.064896e+03
2.611146e+03,2.057956e+03
2.612110e+03,2.037773e+03
2.613074e+03,2.028442e+03
2.614039e+03,2.031565e+03
2.615003e+03,2.028672e+03
2.615967e+03,2.021786e+03
2.616931e+03,2.018691e+03
2.617896e+03,2.017964e+03
2.618860e+03,2.017673e+03
2.619824e+03,2.015524e+03
2.620788e+03,2.009264e+03
2.621752e+03,2.009209e+03
2.622717e+03,2.029573e+03
2.623681e+03,2.030037e+03
2.624645e+03,2.011394e+03
2.625609e+03,2.002331e+03
2.626573e+03,2.003606e+03
2.627538e+03,2.004760e+03
2.628502e+03,2.005714e+03
2.629466e+03,2.003695e+03
2.630430e+03,2.000611e+03
2.631395e+03,1.994727e+03
2.632359e+03,1.996961e+03
2.633323e+03,2.016702e+03
2.634287e+03,2.021189e+03
2.635252e+03,2.004979e+03
2.636216e+03,2.000170e+03
2.637180e+03,2.010705e+03
2.638144e+03,2.016720e+03
2.639109e+03,2.016163e+03
2.640073e+03,2.003475e+03
2.641037e+03,1.989307e+03
2.642001e+03,1.980788e+03
2.642966e+03,1.978187e+03
2.643930e+03,1.981104e+03
2.644894e+03,1.986156e+03
2.645858e+03,1.998474e+03
2.646823e+03,1.989782e+03
2.647787e+03,1.961947e+03
2.648751e+03,1.964184e+03
2.649715e+03,1.996939e+03
2.650679e+03,1.997564e+03
2.651644e+03,1.979386e+03
2.652608e+03,1.960771e+03
2.653572e+03,1.949342e+03
2.654536e+03,1.965167e+03
2.655500e+03,1.979545e+03
2.656465e+03,1.982201e+03
2.657429e+03,1.978516e+03
2.658393e+03,1.968930e+03
2.659357e+03,1.959527e+03
2.660322e+03,1.954538e+03
2.661286e+03,1.957418e+03
2.662250e+03,1.963970e+03
2.663214e+03,1.961983e+03
2.664179e+03,1.957067e+03
2.665143e+03,1.958365e+03
2.666107e+03,1.958727e+03
2.667071e+03,1.954948e+03
2.668036e+03,1.948490e+03
2.669000e+03,1.933453e+03
2.669964e+03,1.929458e+03
2.670928e+03,1.934675e+03
2.671893e+03,1.937713e+03
2.672857e+03,1.938518e+03
2.673821e+03,1.935388e+03
2.674785e+03,1.933527e+03
2.675750e+03,1.941807e+03
2.676714e+03,1.949244e+03
2.677678e+03,1.937503e+03
2.678642e+03,1.930131e+03
2.679606e+03,1.933059e+03
2.680571e+03,1.926322e+03
2.681535e+03,1.907052e+03
2.682499e+03,1.906936e+03
2.683463e+03,1.919114e+03
2.684427e+03,1.911532e+03
2.685392e+03,1.898233e+03
2.686356e+03,1.902447e+03
2.687320e+03,1.912434e+03
2.688284e+03,1.929154e+03
2.689249e+03,1.933917e+03
2.690213e+03,1.923298e+03
2.691177e+03,1.909606e+03
2.692141e+03,1.897910e+03
2.693106e+03,1.903375e+03
2.694070e+03,1.917508e+03
2.695034e+03,1.918358e+03
2.695998e+03,1.910671e+03
2.696963e+03,1.897683e+03
2.697927e+03,1.890234e+03
2.698891e+03,1.891124e+03
2.699855e+03,1.897779e+03
2.700820e+03,1.913726e+03
2.701784e+03,1.911803e+03
2.702748e+03,1.891950e+03
2.703712e+03,1.885196e+03
2.704677e+03,1.889169e+03
2.705641e+03,1.901346e+03
2.706605e+03,1.910066e+03
2.707569e+03,1.888340e+03
2.708533e+03,1.876119e+03
2.709498e+03,1.892729e+03
2.710462e+03,1.899677e+03
2.711426e+03,1.877378e+03
2.712390e+03,1.864404e+03
2.713354e+03,1.859098e+03
2.714319e+03,1.849948e+03
2.715283e+03,1.841465e+03
2.716247e+03,1.852963e+03
2.717211e+03,1.867737e+03
2.718176e+03,1.873902e+03
2.719140e+03,1.878327e+03
2.720104e+03,1.888302e+03
2.721068e+03,1.880262e+03
2.722033e+03,1.853441e+03
2.722997e+03,1.843337e+03
2.723961e+03,1.846340e+03
2.724925e+03,1.842760e+03
2.725890e+03,1.838161e+03
2.726854e+03,1.840186e+03
2.727818e+03,1.845843e+03
2.728782e+03,1.851746e+03
2.729747e+03,1.852673e+03
2.730711e+03,1.840388e+03
2.731675e+03,1.850297e+03
2.732639e+03,1.874853e+03
2.733604e+03,1.867337e+03
2.734568e+03,1.841426e+03
2.735532e+03,1.834407e+03
2.736496e+03,1.838156e+03
2.737460e+03,1.848944e+03
2.738425e+03,1.853512e+03
2.739389e+03,1.842117e+03
2.740353e+03,1.822479e+03
2.741317e+03,1.799766e+03
2.742281e+03,1.815410e+03
2.743246e+03,1.853555e+03
2.744210e+03,1.853361e+03
2.745174e+03,1.834701e+03
2.746138e+03,1.823510e+03
2.747103e+03,1.817440e+03
2.748067e+03,1.815451e+03
2.749031e+03,1.818306e+03
2.749995e+03,1.829186e+03
2.750960e+03,1.827957e+03
2.751924e+03,1.819718e+03
2.752888e+03,1.820856e+03
2.753852e+03,1.826330e+03
2.754817e+03,1.826352e+03
2.755781e+03,1.823155e+03
2.756745e+03,1.816656e+03
2.757709e+03,1.811247e+03
2.758674e+03,1.806404e+03
2.759638e+03,1.802878e+03
2.760602e+03,1.801870e+03
2.761566e+03,1.802373e+03
2.762531e+03,1.808469e+03
2.763495e+03,1.830661e+03
2.764459e+03,1.843862e+03
2.765423e+03,1.809574e+03
2.766387e+03,1.789613e+03
2.767352e+03,1.797506e+03
2.768316e+03,1.791685e+03
2.769280e+03,1.763705e+03
2.770244e+03,1.766954e+03
2.771208e+03,1.789088e+03
2.772173e+03,1.801147e+03
2.773137e+03,1.801842e+03
2.774101e+03,1.789799e+03
2.775065e+03,1.775712e+03
2.776030e+03,1.760189e+03
2.776994e+03,1.752687e+03
2.777958e+03,1.752695e+03
2.778922e+03,1.772454e+03
2.779887e+03,1.799657e+03
2.780851e+03,1.796004e+03
2.781815e+03,1.784537e+03
2.782779e+03,1.785036e+03
2.783744e+03,1.784664e+03
2.784708e+03,1.770717e+03
2.785672e+03,1.769325e+03
2.786636e+03,1.779439e+03
2.787601e+03,1.775399e+03
2.788565e+03,1.765469e+03
2.789529e+03,1.773758e+03
2.790493e+03,1.786017e+03
2.791458e+03,1.793332e+03
2.792422e+03,1.785984e+03
2.793386e+03,1.765928e+03
2.794350e+03,1.757279e+03
2.795314e+03,1.764528e+03
2.796279e+03,1.751758e+03
2.797243e+03,1.738088e+03
2.798207e+03,1.761395e+03
2.799171e+03,1.787938e+03
2.800135e+03,1.767601e+03
2.801100e+03,1.749643e+03
2.802064e+03,1.746113e+03
2.803028e+03,1.742010e+03
2.803992e+03,1.737290e+03
2.804957e+03,1.752921e+03
2.805921e+03,1.773751e+03
2.806885e+03,1.766651e+03
2.807849e+03,1.753163e+03
2.808814e+03,1.744677e+03
2.809778e+03,1.741006e+03
2.810742e+03,1.744415e+03
2.811706e+03,1.747248e+03
2.812671e+03,1.745783e+03
2.813635e+03,1.731776e+03
2.814599e+03,1.717203e+03
2.815563e+03,1.733974e+03
2.816528e+03,1.749392e+03
2.817492e+03,1.748546e+03
2.818456e+03,1.738105e+03
2.819420e+03,1.721192e+03
2.820385e+03,1.722818e+03
2.821349e+03,1.739616e+03
2.822313e+03,1.747251e+03
2.823277e+03,1.747825e+03
2.824241e+03,1.743896e+03
2.825206e+03,1.733122e+03
2.826170e+03,1.712157e+03
2.827134e+03,1.706764e+03
2.828098e+03,1.717101e+03
2.829063e+03,1.728479e+03
2.830027e+03,1.734161e+03
2.830991e+03,1.716345e+03
2.831955e+03,1.702275e+03
2.832919e+03,1.715186e+03
2.833884e+03,1.720327e+03
2.834848e+03,1.713157e+03
2.835812e+03,1.722569e+03
2.836776e+03,1.746702e+03
2.837741e+03,1.739828e+03
2.838705e+03,1.718449e+03
2.839669e+03,1.696847e+03
2.840633e+03,1.690396e+03
2.841598e+03,1.708585e+03
2.842562e+03,1.722794e+03
2.843526e+03,1.726781e+03
2.844490e+03,1.712910e+03
2.845455e+03,1.693100e+03
2.846419e+03,1.693092e+03
2.847383e+03,1.698480e+03
2.848347e+03,1.691591e+03
2.849312e+03,1.689165e+03
2.850276e+03,1.693957e+03
2.851240e+03,1.709736e+03
2.852204e+03,1.727981e+03
2.853168e+03,1.707992e+03
2.854133e+03,1.679888e+03
2.855097e+03,1.687783e+03
2.856061e+03,1.696165e+03
2.857025e+03,1.690543e+03
2.857990e+03,1.690057e+03
2.858954e+03,1.701229e+03
2.859918e+03,1.714748e+03
2.860882e+03,1.719066e+03
2.861846e+03,1.692905e+03
2.862811e+03,1.668462e+03
2.863775e+03,1.679294e+03
2.864739e+03,1.685744e+03
2.865703e+03,1.678018e+03
2.866668e+03,1.680041e+03
2.867632e+03,1.690133e+03
2.868596e+03,1.704975e+03
2.869560e+03,1.716424e+03
2.870525e+03,1.715206e+03
2.871489e+03,1.712233e+03
2.872453e+03,1.709554e+03
2.873417e+03,1.704935e+03
2.874382e+03,1.698043e+03
2.875346e+03,1.693990e+03
2.876310e+03,1.694678e+03
2.877274e+03,1.703114e+03
2.878239e+03,1.703885e+03
2.879203e+03,1.690566e+03
2.880167e+03,1.685433e+03
2.881131e+03,1.697824e+03
2.882095e+03,1.702575e+03
2.883060e+03,1.700611e+03
2.884024e+03,1.693032e+03
2.884988e+03,1.682698e+03
2.885952e+03,1.668927e+03
2.886917e+03,1.665918e+03
2.887881e+03,1.680072e+03
2.888845e+03,1.694516e+03
2.889809e+03,1.703199e+03
2.890773e+03,1.686969e+03
2.891738e+03,1.667860e+03
2.892702e+03,1.674228e+03
2.893666e+03,1.689218e+03
2.894630e+03,1.708349e+03
2.895595e+03,1.708657e+03
2.896559e+03,1.694977e+03
2.897523e+03,1.696326e+03
2.898487e+03,1.696724e+03
2.899452e+03,1.668698e+03
2.900416e+03,1.654800e+03
2.901380e+03,1.662255e+03
2.902344e+03,1.671361e+03
2.903309e+03,1.677544e+03
2.904273e+03,1.682442e+03
2.905237e+03,1.681419e+03
2.906201e+03,1.665784e+03
2.907166e+03,1.664997e+03
2.908130e+03,1.692126e+03
2.909094e+03,1.692878e+03
2.910058e+03,1.660614e+03
2.911022e+03,1.646258e+03
2.911987e+03,1.642495e+03
2.912951e+03,1.637762e+03
2.913915e+03,1.637988e+03
2.914879e+03,1.649710e+03
2.915844e+03,1.658367e+03
2.916808e+03,1.661865e+03
2.917772e+03,1.652887e+03
2.918736e+03,1.643505e+03
2.919700e+03,1.652928e+03
2.920665e+03,1.662316e+03
2.921629e+03,1.663778e+03
2.922593e+03,1.640383e+03
2.923557e+03,1.604915e+03
2.924522e+03,1.617465e+03
2.925486e+03,1.653091e+03
2.926450e+03,1.658067e+03
2.927414e+03,1.650832e+03
2.928379e+03,1.632262e+03
2.929343e+03,1.640864e+03
2.930307e+03,1.669733e+03
2.931271e+03,1.669897e+03
2.932236e+03,1.656697e+03
2.933200e+03,1.658118e+03
2.934164e+03,1.653200e+03
2.935128e+03,1.630566e+03
2.936093e+03,1.627459e+03
2.937057e+03,1.644460e+03
2.938021e+03,1.652756e+03
2.938985e+03,1.655714e+03
2.939949e+03,1.661181e+03
2.940914e+03,1.655629e+03
2.941878e+03,1.636706e+03
2.942842e+03,1.619117e+03
2.943806e+03,1.604344e+03
2.944771e+03,1.608385e+03
2.945735e+03,1.619130e+03
2.946699e+03,1.615191e+03
2.947663e+03,1.622887e+03
2.948627e+03,1.647303e+03
2.949592e+03,1.649715e+03
2.950556e+03,1.628702e+03
2.951520e+03,1.638638e+03
2.952484e+03,1.652196e+03
2.953449e+03,1.643072e+03
2.954413e+03,1.626072e+03
2.955377e+03,1.609338e+03
2.956341e+03,1.623535e+03
2.957306e+03,1.659446e+03
2.958270e+03,1.646074e+03
2.959234e+03,1.617201e+03
2.960198e+03,1.605075e+03
2.961163e+03,1.604163e+03
2.962127e+03,1.608571e+03
2.963091e+03,1.612223e+03
2.964055e+03,1.609426e+03
2.965020e+03,1.590747e+03
2.965984e+03,1.577820e+03
2.966948e+03,1.584193e+03
2.967912e+03,1.590943e+03
2.968876e+03,1.591977e+03
2.969841e+03,1.577650e+03
2.970805e+03,1.558157e+03
2.971769e+03,1.557068e+03
2.972733e+03,1.555903e+03
2.973698e+03,1.539311e+03
2.974662e+03,1.533886e+03
2.975626e+03,1.548233e+03
2.976590e+03,1.573489e+03
2.977554e+03,1.594233e+03
2.978519e+03,1.586676e+03
2.979483e+03,1.583232e+03
2.980447e+03,1.612029e+03
2.981411e+03,1.614881e+03
2.982376e+03,1.587356e+03
2.983340e+03,1.562101e+03
2.984304e+03,1.555727e+03
2.985268e+03,1.587942e+03
2.986233e+03,1.605807e+03
2.987197e+03,1.575364e+03
2.988161e+03,1.560146e+03
2.989125e+03,1.559454e+03
2.990090e+03,1.550981e+03
2.991054e+03,1.550989e+03
2.992018e+03,1.573865e+03
2.992982e+03,1.589087e+03
2.993947e+03,1.586025e+03
2.994911e+03,1.586894e+03
2.995875e+03,1.585041e+03
2.996839e+03,1.564556e+03
2.997803e+03,1.546149e+03
2.998768e+03,1.545146e+03
2.999732e+03,1.544726e+03
3.000696e+03,1.544215e+03
3.001660e+03,1.551510e+03
3.002625e+03,1.555018e+03
3.003589e+03,1.543157e+03
3.004553e+03,1.544147e+03
3.005517e+03,1.574158e+03
3.006481e+03,1.580711e+03
3.007446e+03,1.564284e+03
3.008410e+03,1.556315e+03
3.009374e+03,1.549668e+03
3.010338e+03,1.540387e+03
3.011303e+03,1.546590e+03
3.012267e+03,1.571081e+03
3.013231e+03,1.555330e+03
3.014195e+03,1.524393e+03
3.015160e+03,1.528071e+03
3.016124e+03,1.530452e+03
3.017088e+03,1.517743e+03
3.018052e+03,1.525042e+03
3.019017e+03,1.551694e+03
3.019981e+03,1.557934e+03
3.020945e+03,1.557946e+03
3.021909e+03,1.564467e+03
3.022874e+03,1.570391e+03
3.023838e+03,1.573070e+03
3.024802e+03,1.567084e+03
3.025766e+03,1.556228e+03
3.026730e+03,1.551045e+03
3.027695e+03,1.532357e+03
3.028659e+03,1.491542e+03
3.029623e+03,1.493097e+03
3.030587e+03,1.530754e+03
3.031552e+03,1.554196e+03
3.032516e+03,1.561042e+03
3.033480e+03,1.543346e+03
3.034444e+03,1.531504e+03
3.035408e+03,1.531407e+03
3.036373e+03,1.533937e+03
3.037337e+03,1.535856e+03
3.038301e+03,1.534852e+03
3.039265e+03,1.534478e+03
3.040230e+03,1.530416e+03
3.041194e+03,1.553740e+03
3.042158e+03,1.587387e+03
3.043122e+03,1.567778e+03
3.044087e+03,1.532147e+03
3.045051e+03,1.528587e+03
3.046015e+03,1.526404e+03
3.046979e+03,1.519591e+03
3.047944e+03,1.525146e+03
3.048908e+03,1.536915e+03
3.049872e+03,1.543548e+03
3.050836e+03,1.546044e+03
3.051801e+03,1.543528e+03
3.052765e+03,1.546100e+03
3.053729e+03,1.550348e+03
3.054693e+03,1.542426e+03
3.055657e+03,1.537695e+03
3.056622e+03,1.545216e+03
3.057586e+03,1.546299e+03
3.058550e+03,1.536543e+03
3.059514e+03,1.519254e+03
3.060479e+03,1.507309e+03
3.061443e+03,1.521674e+03
3.062407e+03,1.533895e+03
3.063371e+03,1.535830e+03
3.064335e+03,1.532265e+03
3.065300e+03,1.527864e+03
3.066264e+03,1.530872e+03
3.067228e+03,1.539771e+03
3.068192e+03,1.554767e+03
3.069157e+03,1.561848e+03
3.070121e+03,1.558933e+03
3.071085e+03,1.538129e+03
3.072049e+03,1.517467e+03
3.073014e+03,1.525184e+03
3.073978e+03,1.545829e+03
3.074942e+03,1.573820e+03
3.075906e+03,1.560172e+03
3.076871e+03,1.529009e+03
3.077835e+03,1.517331e+03
3.078799e+03,1.513812e+03
3.079763e+03,1.511193e+03
3.080728e+03,1.522476e+03
3.081692e+03,1.539519e+03
3.082656e+03,1.522692e+03
3.083620e+03,1.512822e+03
3.084584e+03,1.532990e+03
3.085549e+03,1.543723e+03
3.086513e+03,1.537075e+03
3.087477e+03,1.515581e+03
3.088441e+03,1.495444e+03
3.089406e+03,1.497738e+03
3.090370e+03,1.506997e+03
3.091334e+03,1.517969e+03
3.092298e+03,1.518552e+03
3.093262e+03,1.515671e+03
3.094227e+03,1.533377e+03
3.095191e+03,1.527289e+03
3.096155e+03,1.478488e+03
3.097119e+03,1.476959e+03
3.098084e+03,1.502765e+03
3.099048e+03,1.502281e+03
3.100012e+03,1.502573e+03
3.100976e+03,1.530151e+03
3.101941e+03,1.532571e+03
3.102905e+03,1.511675e+03
3.103869e+03,1.507457e+03
3.104833e+03,1.512834e+03
3.105798e+03,1.523104e+03
3.106762e+03,1.522725e+03
3.107726e+03,1.513321e+03
3.108690e+03,1.552130e+03
3.109655e+03,1.585092e+03
3.110619e+03,1.525712e+03
3.111583e+03,1.498706e+03
3.112547e+03,1.518304e+03
3.113511e+03,1.526826e+03
3.114476e+03,1.526935e+03
3.115440e+03,1.538615e+03
3.116404e+03,1.543597e+03
3.117368e+03,1.536579e+03
3.118333e+03,1.518529e+03
3.119297e+03,1.502184e+03
3.120261e+03,1.508863e+03
3.121225e+03,1.513807e+03
3.122189e+03,1.502321e+03
3.123154e+03,1.490489e+03
3.124118e+03,1.483445e+03
3.125082e+03,1.508287e+03
3.126046e+03,1.517214e+03
3.127011e+03,1.487091e+03
3.127975e+03,1.467943e+03
3.128939e+03,1.467062e+03
3.129903e+03,1.504078e+03
3.130868e+03,1.536224e+03
3.131832e+03,1.511918e+03
3.132796e+03,1.507992e+03
3.133760e+03,1.524139e+03
3.134725e+03,1.518768e+03
3.135689e+03,1.518925e+03
3.136653e+03,1.554439e+03
3.137617e+03,1.556930e+03
3.138582e+03,1.506723e+03
3.139546e+03,1.488425e+03
3.140510e+03,1.495394e+03
3.141474e+03,1.527914e+03
3.142438e+03,1.544029e+03
3.143403e+03,1.538930e+03
3.144367e+03,1.520674e+03
3.145331e+03,1.501509e+03
3.146295e+03,1.500821e+03
3.147260e+03,1.496398e+03
3.148224e+03,1.482256e+03
3.149188e+03,1.518995e+03
3.150152e+03,1.554075e+03
3.151116e+03,1.513226e+03
3.152081e+03,1.499249e+03
3.153045e+03,1.554447e+03
3.154009e+03,1.543651e+03
3.154973e+03,1.505689e+03
3.155938e+03,1.544562e+03
3.156902e+03,1.558435e+03
3.157866e+03,1.520853e+03
3.158830e+03,1.502580e+03
3.159795e+03,1.504863e+03
3.160759e+03,1.503550e+03
3.161723e+03,1.510891e+03
3.162687e+03,1.549659e+03
3.163652e+03,1.551041e+03
3.164616e+03,1.530045e+03
3.165580e+03,1.514659e+03
3.166544e+03,1.501890e+03
3.167509e+03,1.490950e+03
3.168473e+03,1.489246e+03
3.169437e+03,1.492049e+03
3.170401e+03,1.473973e+03
3.171365e+03,1.475428e+03
3.172330e+03,1.516428e+03
3.173294e+03,1.536466e+03
3.174258e+03,1.541498e+03
3.175222e+03,1.553979e+03
3.176187e+03,1.561574e+03
3.177151e+03,1.559047e+03
3.178115e+03,1.551842e+03
3.179079e+03,1.542247e+03
3.180043e+03,1.533734e+03
3.181008e+03,1.522523e+03
3.181972e+03,1.510166e+03
3.182936e+03,1.509752e+03
3.183900e+03,1.516852e+03
3.184865e+03,1.521861e+03
3.185829e+03,1.528935e+03
3.186793e+03,1.555101e+03
3.187757e+03,1.541785e+03
3.188722e+03,1.517901e+03
3.189686e+03,1.556015e+03
3.190650e+03,1.576734e+03
3.191614e+03,1.550978e+03
3.192579e+03,1.538308e+03
3.193543e+03,1.540976e+03
3.194507e+03,1.548986e+03
3.195471e+03,1.555410e+03
3.196436e+03,1.555024e+03
3.197400e+03,1.560480e+03
3.198364e+03,1.561837e+03
3.199328e+03,1.544202e+03
3.200292e+03,1.524863e+03
3.201257e+03,0.000000e+00
3.202221e+03,0.000000e+00
3.203185e+03,0.000000e+00
3.204149e+03,0.000000e+00
3.205114e+03,0.000000e+00
3.206078e+03,0.000000e+00
3.207042e+03,0.000000e+00
3.208006e+03,0.000000e+00
3.208970e+03,0.000000e+00
3.209935e+03,0.000000e+00
3.210899e+03,0.000000e+00
3.211863e+03,0.000000e+00
3.212827e+03,0.000000e+00
3.213792e+03,0.000000e+00
3.214756e+03,0.000000e+00
3.215720e+03,0.000000e+00
3.216684e+03,0.000000e+00
3.217649e+03,0.000000e+00
3.218613e+03,0.000000e+00
3.219577e+03,0.000000e+00
3.220541e+03,0.000000e+00
3.221506e+03,0.000000e+00
3.222470e+03,0.000000e+00
3.223434e+03,0.000000e+00
3.224398e+03,0.000000e+00
3.225363e+03,0.000000e+00
3.226327e+03,0.000000e+00
3.227291e+03,0.000000e+00
3.228255e+03,0.000000e+00
3.229219e+03,0.000000e+00
3.230184e+03,0.000000e+00
3.231148e+03,0.000000e+00
3.232112e+03,0.000000e+00
3.233076e+03,0.000000e+00
3.234041e+03,0.000000e+00
3.235005e+03,0.000000e+00
3.235969e+03,0.000000e+00
3.236933e+03,0.000000e+00
3.237897e+03,0.000000e+00
3.238862e+03,0.000000e+00
3.239826e+03,0.000000e+00
3.240790e+03,0.000000e+00
3.241754e+03,0.000000e+00
3.242719e+03,0.000000e+00
3.243683e+03,0.000000e+00
3.244647e+03,0.000000e+00
3.245611e+03,0.000000e+00
3.246576e+03,0.000000e+00
3.247540e+03,0.000000e+00
3.248504e+03,0.000000e+00
3.249468e+03,0.000000e+00
3.250433e+03,0.000000e+00
3.251397e+03,0.000000e+00
3.252361e+03,0.000000e+00
3.253325e+03,0.000000e+00
3.254290e+03,0.000000e+00
3.255254e+03,0.000000e+00
3.256218e+03,0.000000e+00
3.257182e+03,0.000000e+00
3.258146e+03,0.000000e+00
3.259111e+03,0.000000e+00
3.260075e+03,0.000000e+00
3.261039e+03,0.000000e+00
3.262003e+03,0.000000e+00
3.262968e+03,0.000000e+00
3.263932e+03,0.000000e+00
3.264896e+03,0.000000e+00
3.265860e+03,0.000000e+00
3.266824e+03,0.000000e+00
3.267789e+03,0.000000e+00
3.268753e+03,0.000000e+00
3.269717e+03,0.000000e+00
3.270681e+03,0.000000e+00
3.271646e+03,0.000000e+00
3.272610e+03,0.000000e+00
3.273574e+03,0.000000e+00
3.274538e+03,0.000000e+00
3.275503e+03,0.000000e+00
3.276467e+03,0.000000e+00
3.277431e+03,0.000000e+00
3.278395e+03,0.000000e+00
3.279360e+03,0.000000e+00
3.280324e+03,0.000000e+00
3.281288e+03,0.000000e+00
3.282252e+03,0.000000e+00
3.283217e+03,0.000000e+00
3.284181e+03,0.000000e+00
3.285145e+03,0.000000e+00
3.286109e+03,0.000000e+00
3.287073e+03,0.000000e+00
3.288038e+03,0.000000e+00
3.289002e+03,0.000000e+00
3.289966e+03,0.000000e+00
3.290930e+03,0.000000e+00
3.291895e+03,0.000000e+00
3.292859e+03,0.000000e+00
3.293823e+03,0.000000e+00
3.294787e+03,0.000000e+00
3.295751e+03,0.000000e+00
3.296716e+03,0.000000e+00
3.297680e+03,0.000000e+00
3.298644e+03,0.000000e+00
3.299608e+03,0.000000e+00
3.300573e+03,0.000000e+00
3.301537e+03,0.000000e+00
3.302501e+03,0.000000e+00
3.303465e+03,0.000000e+00
3.304430e+03,0.000000e+00
3.305394e+03,0.000000e+00
3.306358e+03,0.000000e+00
3.307322e+03,0.000000e+00
3.308287e+03,0.000000e+00
3.309251e+03,0.000000e+00
3.310215e+03,0.000000e+00
3.311179e+03,0.000000e+00
3.312144e+03,0.000000e+00
3.313108e+03,0.000000e+00
3.314072e+03,0.000000e+00
3.315036e+03,0.000000e+00
3.316000e+03,0.000000e+00
3.316965e+03,0.000000e+00
3.317929e+03,0.000000e+00
3.318893e+03,0.000000e+00
3.319857e+03,0.000000e+00
3.320822e+03,0.000000e+00
3.321786e+03,0.000000e+00
3.322750e+03,0.000000e+00
3.323714e+03,0.000000e+00
3.324678e+03,0.000000e+00
3.325643e+03,0.000000e+00
3.326607e+03,0.000000e+00
3.327571e+03,0.000000e+00
3.328535e+03,0.000000e+00
3.329500e+03,0.000000e+00
3.330464e+03,0.000000e+00
3.331428e+03,0.000000e+00
3.332392e+03,0.000000e+00
3.333357e+03,0.000000e+00
3.334321e+03,0.000000e+00
3.335285e+03,0.000000e+00
3.336249e+03,0.000000e+00
3.337214e+03,0.000000e+00
3.338178e+03,0.000000e+00
3.339142e+03,0.000000e+00
3.340106e+03,0.000000e+00
3.341071e+03,0.000000e+00
3.342035e+03,0.000000e+00
3.342999e+03,0.000000e+00
3.343963e+03,0.000000e+00
3.344927e+03,0.000000e+00
3.345892e+03,0.000000e+00
3.346856e+03,0.000000e+00
3.347820e+03,0.000000e+00
3.348784e+03,0.000000e+00
3.349749e+03,0.000000e+00
3.350713e+03,0.000000e+00
3.351677e+03,0.000000e+00
3.352641e+03,0.000000e+00
3.353605e+03,0.000000e+00
3.354570e+03,0.000000e+00
3.355534e+03,0.000000e+00
3.356498e+03,0.000000e+00
3.357462e+03,0.000000e+00
3.358427e+03,0.000000e+00
3.359391e+03,0.000000e+00
3.360355e+03,0.000000e+00
3.361319e+03,0.000000e+00
3.362284e+03,0.000000e+00
3.363248e+03,0.000000e+00
3.364212e+03,0.000000e+00
3.365176e+03,0.000000e+00
3.366141e+03,0.000000e+00
3.367105e+03,0.000000e+00
3.368069e+03,0.000000e+00
3.369033e+03,0.000000e+00
3.369998e+03,0.000000e+00
3.370962e+03,0.000000e+00
3.371926e+03,0.000000e+00
3.372890e+03,0.000000e+00
3.373854e+03,0.000000e+00
3.374819e+03,0.000000e+00
3.375783e+03,0.000000e+00
3.376747e+03,0.000000e+00
3.377711e+03,0.000000e+00
3.378676e+03,0.000000e+00
3.379640e+03,0.000000e+00
3.380604e+03,0.000000e+00
3.381568e+03,0.000000e+00
3.382532e+03,0.000000e+00
3.383497e+03,0.000000e+00
3.384461e+03,0.000000e+00
3.385425e+03,0.000000e+00
3.386389e+03,0.000000e+00
3.387354e+03,0.000000e+00
3.388318e+03,0.000000e+00
3.389282e+03,0.000000e+00
3.390246e+03,0.000000e+00
3.391211e+03,0.000000e+00
3.392175e+03,0.000000e+00
3.393139e+03,0.000000e+00
3.394103e+03,0.000000e+00
3.395068e+03,0.000000e+00
3.396032e+03,0.000000e+00
3.396996e+03,0.000000e+00
3.397960e+03,0.000000e+00
3.398925e+03,0.000000e+00
3.399889e+03,0.000000e+00
3.400853e+03,0.000000e+00
3.401817e+03,0.000000e+00
3.402781e+03,0.000000e+00
3.403746e+03,0.000000e+00
3.404710e+03,0.000000e+00
3.405674e+03,0.000000e+00
3.406638e+03,0.000000e+00
3.407603e+03,0.000000e+00
3.408567e+03,0.000000e+00
3.409531e+03,0.000000e+00
3.410495e+03,0.000000e+00
3.411459e+03,0.000000e+00
3.412424e+03,0.000000e+00
3.413388e+03,0.000000e+00
3.414352e+03,0.000000e+00
3.415316e+03,0.000000e+00
3.416281e+03,0.000000e+00
3.417245e+03,0.000000e+00
3.418209e+03,0.000000e+00
3.419173e+03,0.000000e+00
3.420138e+03,0.000000e+00
3.421102e+03,0.000000e+00
3.422066e+03,0.000000e+00
3.423030e+03,0.000000e+00
3.423995e+03,0.000000e+00
3.424959e+03,0.000000e+00
3.425923e+03,0.000000e+00
3.426887e+03,0.000000e+00
3.427852e+03,0.000000e+00
3.428816e+03,0.000000e+00
3.429780e+03,0.000000e+00
3.430744e+03,0.000000e+00
3.431708e+03,0.000000e+00
3.432673e+03,0.000000e+00
3.433637e+03,0.000000e+00
3.434601e+03,0.000000e+00
3.435565e+03,0.000000e+00
3.436530e+03,0.000000e+00
3.437494e+03,0.000000e+00
3.438458e+03,0.000000e+00
3.439422e+03,0.000000e+00
3.440386e+03,0.000000e+00
3.441351e+03,0.000000e+00
3.442315e+03,0.000000e+00
3.443279e+03,0.000000e+00
3.444243e+03,0.000000e+00
3.445208e+03,0.000000e+00
3.446172e+03,0.000000e+00
3.447136e+03,0.000000e+00
3.448100e+03,0.000000e+00
3.449065e+03,0.000000e+00
3.450029e+03,0.000000e+00
3.450993e+03,0.000000e+00
3.451957e+03,0.000000e+00
3.452922e+03,0.000000e+00
3.453886e+03,0.000000e+00
3.454850e+03,0.000000e+00
3.455814e+03,0.000000e+00
3.456779e+03,0.000000e+00
3.457743e+03,0.000000e+00
3.458707e+03,0.000000e+00
3.459671e+03,0.000000e+00
3.460635e+03,0.000000e+00
3.461600e+03,0.000000e+00
3.462564e+03,0.000000e+00
3.463528e+03,0.000000e+00
3.464492e+03,0.000000e+00
3.465457e+03,0.000000e+00
3.466421e+03,0.000000e+00
3.467385e+03,0.000000e+00
3.468349e+03,0.000000e+00
3.469313e+03,0.000000e+00
3.470278e+03,0.000000e+00
3.471242e+03,0.000000e+00
3.472206e+03,0.000000e+00
3.473170e+03,0.000000e+00
3.474135e+03,0.000000e+00
3.475099e+03,0.000000e+00
3.476063e+03,0.000000e+00
3.477027e+03,0.000000e+00
3.477992e+03,0.000000e+00
3.478956e+03,0.000000e+00
3.479920e+03,0.000000e+00
3.480884e+03,0.000000e+00
3.481849e+03,0.000000e+00
3.482813e+03,0.000000e+00
3.483777e+03,0.000000e+00
3.484741e+03,0.000000e+00
3.485706e+03,0.000000e+00
3.486670e+03,0.000000e+00
3.487634e+03,0.000000e+00
3.488598e+03,0.000000e+00
3.489563e+03,0.000000e+00
3.490527e+03,0.000000e+00
3.491491e+03,0.000000e+00
3.492455e+03,0.000000e+00
3.493419e+03,0.000000e+00
3.494384e+03,0.000000e+00
3.495348e+03,0.000000e+00
3.496312e+03,0.000000e+00
3.497276e+03,0.000000e+00
3.498240e+03,0.000000e+00
3.499205e+03,0.000000e+00
3.500169e+03,0.000000e+00
