9.931763e+01,0.000000e+00
1.002819e+02,0.000000e+00
1.012461e+02,0.000000e+00
1.022103e+02,0.000000e+00
1.031746e+02,0.000000e+00
1.041388e+02,0.000000e+00
1.051030e+02,0.000000e+00
1.060673e+02,0.000000e+00
1.070315e+02,0.000000e+00
1.079957e+02,0.000000e+00
1.089600e+02,0.000000e+00
1.099242e+02,0.000000e+00
1.108884e+02,0.000000e+00
1.118527e+02,0.000000e+00
1.128169e+02,0.000000e+00
1.137811e+02,0.000000e+00
1.147454e+02,0.000000e+00
1.157096e+02,0.000000e+00
1.166738e+02,0.000000e+00
1.176381e+02,0.000000e+00
1.186023e+02,0.000000e+00
1.195665e+02,0.000000e+00
1.205308e+02,0.000000e+00
1.214950e+02,0.000000e+00
1.224592e+02,0.000000e+00
1.234235e+02,0.000000e+00
1.243877e+02,0.000000e+00
1.253519e+02,0.000000e+00
1.263162e+02,0.000000e+00
1.272804e+02,0.000000e+00
1.282446e+02,0.000000e+00
1.292089e+02,0.000000e+00
1.301731e+02,0.000000e+00
1.311373e+02,0.000000e+00
1.321016e+02,0.000000e+00
1.330658e+02,0.000000e+00
1.340300e+02,0.000000e+00
1.349943e+02,0.000000e+00
1.359585e+02,0.000000e+00
1.369227e+02,0.000000e+00
1.378870e+02,0.000000e+00
1.388512e+02,0.000000e+00
1.398154e+02,0.000000e+00
1.407797e+02,0.000000e+00
1.417439e+02,0.000000e+00
1.427081e+02,0.000000e+00
1.436724e+02,0.000000e+00
1.446366e+02,0.000000e+00
1.456008e+02,0.000000e+00
1.465651e+02,0.000000e+00
1.475293e+02,0.000000e+00
1.484935e+02,0.000000e+00
1.494578e+02,0.000000e+00
1.504220e+02,0.000000e+00
1.513862e+02,0.000000e+00
1.523505e+02,0.000000e+00
1.533147e+02,0.000000e+00
1.542789e+02,0.000000e+00
1.552432e+02,0.000000e+00
1.562074e+02,0.000000e+00
1.571716e+02,0.000000e+00
1.581359e+02,0.000000e+00
1.591001e+02,0.000000e+00
1.600643e+02,0.000000e+00
1.610286e+02,0.000000e+00
1.619928e+02,0.000000e+00
1.629570e+02,0.000000e+00
1.639213e+02,0.000000e+00
1.648855e+02,0.000000e+00
1.658497e+02,0.000000e+00
1.668140e+02,0.000000e+00
1.677782e+02,0.000000e+00
1.687424e+02,0.000000e+00
1.697067e+02,0.000000e+00
1.706709e+02,0.000000e+00
1.716351e+02,0.000000e+00
1.725994e+02,0.000000e+00
1.735636e+02,0.000000e+00
1.745278e+02,0.000000e+00
1.754921e+02,0.000000e+00
1.764563e+02,0.000000e+00
1.774205e+02,0.000000e+00
1.783848e+02,0.000000e+00
1.793490e+02,0.000000e+00
1.803132e+02,0.000000e+00
1.812775e+02,0.000000e+00
1.822417e+02,0.000000e+00
1.832059e+02,0.000000e+00
1.841702e+02,0.000000e+00
1.851344e+02,0.000000e+00
1.860986e+02,0.000000e+00
1.870629e+02,0.000000e+00
1.880271e+02,0.000000e+00
1.889913e+02,0.000000e+00
1.899556e+02,0.000000e+00
1.909198e+02,0.000000e+00
1.918840e+02,0.000000e+00
1.928483e+02,0.000000e+00
1.938125e+02,0.000000e+00
1.947767e+02,0.000000e+00
1.957410e+02,0.000000e+00
1.967052e+02,0.000000e+00
1.976694e+02,0.000000e+00
1.986337e+02,0.000000e+00
1.995979e+02,1.046964e+04
2.005621e+02,1.047981e+04
2.015264e+02,1.049152e+04
2.024906e+02,1.050564e+04
2.034548e+02,1.052034e+04
2.044191e+02,1.053340e+04
2.053833e+02,1.054303e+04
2.063475e+02,1.054905e+04
2.073118e+02,1.055229e+04
2.082760e+02,1.055275e+04
2.092402e+02,1.055023e+04
2.102045e+02,1.054658e+04
2.111687e+02,1.054622e+04
2.121329e+02,1.055114e+04
2.130972e+02,1.056043e+04
2.140614e+02,1.057110e+04
2.150256e+02,1.057994e+04
2.159899e+02,1.058612e+04
2.169541e+02,1.059435e+04
2.179183e+02,1.060919e+04
2.188826e+02,1.062824e+04
2.198468e+02,1.064671e+04
2.208110e+02,1.066058e+04
2.217753e+02,1.066859e+04
2.227395e+02,1.067257e+04
2.237037e+02,1.067718e+04
2.246680e+02,1.068221e+04
2.256322e+02,1.068503e+04
2.265964e+02,1.068749e+04
2.275607e+02,1.069241e+04
2.285249e+02,1.070199e+04
2.294892e+02,1.071674e+04
2.304534e+02,1.073503e+04
2.314176e+02,1.075159e+04
2.323819e+02,1.076485e+04
2.333461e+02,1.077655e+04
2.343103e+02,1.078854e+04
2.352746e+02,1.080180e+04
2.362388e+02,1.081599e+04
2.372030e+02,1.082920e+04
2.381673e+02,1.083688e+04
2.391315e+02,1.083789e+04
2.400957e+02,1.083586e+04
2.410600e+02,1.083374e+04
2.420242e+02,1.083454e+04
2.429884e+02,1.084039e+04
2.439527e+02,1.085114e+04
2.449169e+02,1.086350e+04
2.458811e+02,1.087555e+04
2.468454e+02,1.088743e+04
2.478096e+02,1.089928e+04
2.487738e+02,1.091119e+04
2.497381e+02,1.092293e+04
2.507023e+02,1.093465e+04
2.516665e+02,1.094691e+04
2.526308e+02,1.095972e+04
2.535950e+02,1.096986e+04
2.545592e+02,1.097477e+04
2.555235e+02,1.097477e+04
2.564877e+02,1.097263e+04
2.574519e+02,1.097223e+04
2.584161e+02,1.097703e+04
2.593804e+02,1.098841e+04
2.603446e+02,1.100378e+04
2.613088e+02,1.102010e+04
2.622731e+02,1.103715e+04
2.632373e+02,1.105562e+04
2.642015e+02,1.107264e+04
2.651658e+02,1.108527e+04
2.661300e+02,1.109288e+04
2.670942e+02,1.109793e+04
2.680585e+02,1.110515e+04
2.690227e+02,1.111871e+04
2.699869e+02,1.113241e+04
2.709512e+02,1.114052e+04
2.719154e+02,1.114331e+04
2.728796e+02,1.114520e+04
2.738439e+02,1.115154e+04
2.748081e+02,1.116541e+04
2.757723e+02,1.118599e+04
2.767366e+02,1.120554e+04
2.777008e+02,1.121963e+04
2.786650e+02,1.122956e+04
2.796293e+02,1.123792e+04
2.805935e+02,1.124688e+04
2.815577e+02,1.125743e+04
2.825220e+02,1.126901e+04
2.834862e+02,1.127886e+04
2.844504e+02,1.128402e+04
2.854147e+02,1.128623e+04
2.863789e+02,1.128756e+04
2.873431e+02,1.129060e+04
2.883074e+02,1.129709e+04
2.892716e+02,1.130667e+04
2.902358e+02,1.131700e+04
2.912001e+02,1.132663e+04
2.921643e+02,1.133578e+04
2.931285e+02,1.134644e+04
2.940928e+02,1.135958e+04
2.950570e+02,1.137532e+04
2.960212e+02,1.139113e+04
2.969855e+02,1.140364e+04
2.979497e+02,1.141115e+04
2.989139e+02,1.141448e+04
2.998782e+02,1.141725e+04
3.008424e+02,1.142350e+04
3.018066e+02,1.143413e+04
3.027709e+02,1.144636e+04
3.037351e+02,1.145768e+04
3.046993e+02,1.146692e+04
3.056636e+02,1.147431e+04
3.066278e+02,1.148101e+04
3.075920e+02,1.148884e+04
3.085563e+02,1.149845e+04
3.095205e+02,1.151189e+04
3.104847e+02,1.152890e+04
3.114490e+02,1.154741e+04
3.124132e+02,1.156491e+04
3.133774e+02,1.157925e+04
3.143417e+02,1.158917e+04
3.153059e+02,1.159377e+04
3.162701e+02,1.159601e+04
3.172344e+02,1.159868e+04
3.181986e+02,1.160278e+04
3.191628e+02,1.160888e+04
3.201271e+02,1.161750e+04
3.210913e+02,1.162868e+04
3.220555e+02,1.164175e+04
3.230198e+02,1.165575e+04
3.239840e+02,1.167008e+04
3.249482e+02,1.168424e+04
3.259125e+02,1.169771e+04
3.268767e+02,1.171076e+04
3.278409e+02,1.172364e+04
3.288052e+02,1.173625e+04
3.297694e+02,1.174823e+04
3.307336e+02,1.175929e+04
3.316979e+02,1.176965e+04
3.326621e+02,1.177917e+04
3.336263e+02,1.178546e+04
3.345906e+02,1.178808e+04
3.355548e+02,1.179020e+04
3.365190e+02,1.179593e+04
3.374833e+02,1.180784e+04
3.384475e+02,1.182536e+04
3.394117e+02,1.184477e+04
3.403760e+02,1.186072e+04
3.413402e+02,1.187475e+04
3.423044e+02,1.189110e+04
3.432687e+02,1.191061e+04
3.442329e+02,1.193150e+04
3.451971e+02,1.195065e+04
3.461614e+02,1.196491e+04
3.471256e+02,1.197256e+04
3.480898e+02,1.197636e+04
3.490541e+02,1.197884e+04
3.500183e+02,1.198235e+04
3.509825e+02,1.198931e+04
3.519468e+02,1.200161e+04
3.529110e+02,1.201902e+04
3.538752e+02,1.203903e+04
3.548395e+02,1.205831e+04
3.558037e+02,1.207473e+04
3.567680e+02,1.208796e+04
3.577322e+02,1.209937e+04
3.586964e+02,1.211193e+04
3.596607e+02,1.212734e+04
3.606249e+02,1.214420e+04
3.615891e+02,1.215814e+04
3.625534e+02,1.216518e+04
3.635176e+02,1.216445e+04
3.644818e+02,1.215827e+04
3.654461e+02,1.215143e+04
3.664103e+02,1.215042e+04
3.673745e+02,1.215997e+04
3.683388e+02,1.217766e+04
3.693030e+02,1.219936e+04
3.702672e+02,1.222116e+04
3.712315e+02,1.224066e+04
3.721957e+02,1.225655e+04
3.731599e+02,1.226728e+04
3.741242e+02,1.227460e+04
3.750884e+02,1.228331e+04
3.760526e+02,1.229588e+04
3.770169e+02,1.231209e+04
3.779811e+02,1.232940e+04
3.789453e+02,1.234456e+04
3.799096e+02,1.235504e+04
3.808738e+02,1.236076e+04
3.818380e+02,1.236471e+04
3.828023e+02,1.237077e+04
3.837665e+02,1.238138e+04
3.847307e+02,1.239503e+04
3.856950e+02,1.241141e+04
3.866592e+02,1.242942e+04
3.876234e+02,1.244819e+04
3.885877e+02,1.246715e+04
3.895519e+02,1.248583e+04
3.905161e+02,1.250335e+04
3.914804e+02,1.251785e+04
3.924446e+02,1.252836e+04
3.934088e+02,1.253735e+04
3.943731e+02,1.254654e+04
3.953373e+02,1.255656e+04
3.963015e+02,1.256595e+04
3.972658e+02,1.257221e+04
3.982300e+02,1.257562e+04
3.991942e+02,1.258175e+04
4.001585e+02,1.259571e+04
4.011227e+02,1.261709e+04
4.020869e+02,1.263801e+04
4.030512e+02,1.265208e+04
4.040154e+02,1.266066e+04
4.049796e+02,1.267012e+04
4.059439e+02,1.268439e+04
4.069081e+02,1.270183e+04
4.078723e+02,1.271719e+04
4.088366e+02,1.272684e+04
4.098008e+02,1.273115e+04
4.107650e+02,1.273667e+04
4.117293e+02,1.274472e+04
4.126935e+02,1.275391e+04
4.136577e+02,1.276351e+04
4.146220e+02,1.277363e+04
4.155862e+02,1.278514e+04
4.165504e+02,1.279876e+04
4.175147e+02,1.281375e+04
4.184789e+02,1.282808e+04
4.194431e+02,1.284042e+04
4.204074e+02,1.285257e+04
4.213716e+02,1.286533e+04
4.223358e+02,1.287724e+04
4.233001e+02,1.288676e+04
4.242643e+02,1.289395e+04
4.252285e+02,1.290059e+04
4.261928e+02,1.290905e+04
4.271570e+02,1.292052e+04
4.281212e+02,1.293422e+04
4.290855e+02,1.294774e+04
4.300497e+02,1.296031e+04
4.310139e+02,1.297290e+04
4.319782e+02,1.298699e+04
4.329424e+02,1.300393e+04
4.339066e+02,1.302397e+04
4.348709e+02,1.304558e+04
4.358351e+02,1.306580e+04
4.367993e+02,1.308250e+04
4.377636e+02,1.309523e+04
4.387278e+02,1.310746e+04
4.396920e+02,1.312154e+04
4.406563e+02,1.313692e+04
4.416205e+02,1.315178e+04
4.425847e+02,1.316490e+04
4.435490e+02,1.317664e+04
4.445132e+02,1.318845e+04
4.454774e+02,1.320192e+04
4.464417e+02,1.321787e+04
4.474059e+02,1.323620e+04
4.483701e+02,1.325284e+04
4.493344e+02,1.326524e+04
4.502986e+02,1.327414e+04
4.512628e+02,1.328288e+04
4.522271e+02,1.329400e+04
4.531913e+02,1.330678e+04
4.541555e+02,1.331778e+04
4.551198e+02,1.332378e+04
4.560840e+02,1.332536e+04
4.570482e+02,1.332676e+04
4.580125e+02,1.333318e+04
4.589767e+02,1.334581e+04
4.599409e+02,1.336213e+04
4.609052e+02,1.337773e+04
4.618694e+02,1.338995e+04
4.628336e+02,1.339856e+04
4.637979e+02,1.340457e+04
4.647621e+02,1.340945e+04
4.657263e+02,1.341577e+04
4.666906e+02,1.342731e+04
4.676548e+02,1.344245e+04
4.686190e+02,1.345959e+04
4.695833e+02,1.347626e+04
4.705475e+02,1.349112e+04
4.715117e+02,1.350331e+04
4.724760e+02,1.351270e+04
4.734402e+02,1.352007e+04
4.744044e+02,1.352671e+04
4.753687e+02,1.353410e+04
4.763329e+02,1.354281e+04
4.772971e+02,1.355213e+04
4.782614e+02,1.356131e+04
4.792256e+02,1.357221e+04
4.801898e+02,1.358607e+04
4.811541e+02,1.360236e+04
4.821183e+02,1.361925e+04
4.830826e+02,1.363477e+04
4.840468e+02,1.364771e+04
4.850110e+02,1.365878e+04
4.859753e+02,1.367048e+04
4.869395e+02,1.368210e+04
4.879037e+02,1.369153e+04
4.888680e+02,1.369953e+04
4.898322e+02,1.370779e+04
4.907964e+02,1.371801e+04
4.917607e+02,1.373081e+04
4.927249e+02,1.374528e+04
4.936891e+02,1.376011e+04
4.946534e+02,1.377487e+04
4.956176e+02,1.378946e+04
4.965818e+02,1.380458e+04
4.975461e+02,1.382020e+04
4.985103e+02,1.383496e+04
4.994745e+02,1.384642e+04
5.004388e+02,1.385327e+04
5.014030e+02,1.385635e+04
5.023672e+02,1.385897e+04
5.033315e+02,1.386479e+04
5.042957e+02,1.387435e+04
5.052599e+02,1.388399e+04
5.062242e+02,1.388943e+04
5.071884e+02,1.389094e+04
5.081526e+02,1.389362e+04
5.091169e+02,1.390177e+04
5.100811e+02,1.391389e+04
5.110453e+02,1.392515e+04
5.120095e+02,1.393477e+04
5.129738e+02,1.394534e+04
5.139380e+02,1.395983e+04
5.149022e+02,1.397866e+04
5.158665e+02,1.399864e+04
5.168307e+02,1.401432e+04
5.177949e+02,1.401878e+04
5.187592e+02,1.401324e+04
5.197234e+02,1.400611e+04
5.206876e+02,1.400367e+04
5.216519e+02,1.400965e+04
5.226161e+02,1.402352e+04
5.235803e+02,1.404020e+04
5.245446e+02,1.405543e+04
5.255088e+02,1.406928e+04
5.264730e+02,1.408429e+04
5.274373e+02,1.410163e+04
5.284015e+02,1.411754e+04
5.293657e+02,1.412550e+04
5.303300e+02,1.412588e+04
5.312942e+02,1.412302e+04
5.322584e+02,1.412197e+04
5.332227e+02,1.412560e+04
5.341869e+02,1.413296e+04
5.351511e+02,1.414131e+04
5.361154e+02,1.414876e+04
5.370796e+02,1.415512e+04
5.380438e+02,1.416168e+04
5.390081e+02,1.417050e+04
5.399723e+02,1.418307e+04
5.409365e+02,1.420013e+04
5.419008e+02,1.421884e+04
5.428650e+02,1.423590e+04
5.438292e+02,1.425011e+04
5.447935e+02,1.426149e+04
5.457577e+02,1.427032e+04
5.467219e+02,1.427737e+04
5.476862e+02,1.428333e+04
5.486504e+02,1.428750e+04
5.496146e+02,1.428900e+04
5.505789e+02,1.428684e+04
5.515431e+02,1.428182e+04
5.525073e+02,1.427654e+04
5.534716e+02,1.427754e+04
5.544358e+02,1.428688e+04
5.554000e+02,1.430265e+04
5.563643e+02,1.432018e+04
5.573285e+02,1.433506e+04
5.582927e+02,1.434608e+04
5.592570e+02,1.435616e+04
5.602212e+02,1.436940e+04
5.611854e+02,1.438454e+04
5.621497e+02,1.439771e+04
5.631139e+02,1.440496e+04
5.640781e+02,1.440638e+04
5.650424e+02,1.440605e+04
5.660066e+02,1.440517e+04
5.669708e+02,1.440352e+04
5.679351e+02,1.440203e+04
5.688993e+02,1.440236e+04
5.698635e+02,1.440597e+04
5.708278e+02,1.441442e+04
5.717920e+02,1.442877e+04
5.727562e+02,1.444706e+04
5.737205e+02,1.446703e+04
5.746847e+02,1.448613e+04
5.756489e+02,1.450327e+04
5.766132e+02,1.451686e+04
5.775774e+02,1.452726e+04
5.785416e+02,1.453512e+04
5.795059e+02,1.454171e+04
5.804701e+02,1.454792e+04
5.814343e+02,1.455359e+04
5.823986e+02,1.455829e+04
5.833628e+02,1.456252e+04
5.843270e+02,1.456812e+04
5.852913e+02,1.457644e+04
5.862555e+02,1.458832e+04
5.872197e+02,1.460200e+04
5.881840e+02,1.461572e+04
5.891482e+02,1.462927e+04
5.901124e+02,1.464325e+04
5.910767e+02,1.465786e+04
5.920409e+02,1.467274e+04
5.930051e+02,1.468703e+04
5.939694e+02,1.469935e+04
5.949336e+02,1.470816e+04
5.958978e+02,1.471322e+04
5.968621e+02,1.471511e+04
5.978263e+02,1.471625e+04
5.987905e+02,1.471903e+04
5.997548e+02,1.472276e+04
6.007190e+02,1.472743e+04
6.016832e+02,1.473596e+04
6.026475e+02,1.474913e+04
6.036117e+02,1.476522e+04
6.045759e+02,1.478114e+04
6.055402e+02,1.479394e+04
6.065044e+02,1.480164e+04
6.074686e+02,1.480414e+04
6.084329e+02,1.480400e+04
6.093971e+02,1.480281e+04
6.103613e+02,1.480117e+04
6.113256e+02,1.479959e+04
6.122899e+02,1.479857e+04
6.132541e+02,1.479843e+04
6.142183e+02,1.479833e+04
6.151826e+02,1.479787e+04
6.161468e+02,1.479927e+04
6.171110e+02,1.480506e+04
6.180753e+02,1.481610e+04
6.190395e+02,1.483061e+04
6.200037e+02,1.484453e+04
6.209680e+02,1.485462e+04
6.219322e+02,1.486313e+04
6.228964e+02,1.487450e+04
6.238607e+02,1.488985e+04
6.248249e+02,1.490432e+04
6.257891e+02,1.491219e+04
6.267534e+02,1.491131e+04
6.277176e+02,1.490618e+04
6.286818e+02,1.490214e+04
6.296461e+02,1.490105e+04
6.306103e+02,1.490276e+04
6.315745e+02,1.490820e+04
6.325388e+02,1.491863e+04
6.335030e+02,1.493296e+04
6.344672e+02,1.494905e+04
6.354315e+02,1.496458e+04
6.363957e+02,1.497678e+04
6.373599e+02,1.498393e+04
6.383242e+02,1.498855e+04
6.392884e+02,1.499267e+04
6.402526e+02,1.499711e+04
6.412169e+02,1.500204e+04
6.421811e+02,1.500636e+04
6.431453e+02,1.500872e+04
6.441096e+02,1.500903e+04
6.450738e+02,1.500892e+04
6.460380e+02,1.501161e+04
6.470023e+02,1.502031e+04
6.479665e+02,1.503492e+04
6.489307e+02,1.505329e+04
6.498950e+02,1.507207e+04
6.508592e+02,1.508725e+04
6.518234e+02,1.509699e+04
6.527877e+02,1.510284e+04
6.537519e+02,1.510643e+04
6.547161e+02,1.510748e+04
6.556804e+02,1.510486e+04
6.566446e+02,1.509975e+04
6.576088e+02,1.509536e+04
6.585731e+02,1.509446e+04
6.595373e+02,1.509648e+04
6.605015e+02,1.509805e+04
6.614658e+02,1.509839e+04
6.624300e+02,1.510049e+04
6.633942e+02,1.510734e+04
6.643585e+02,1.511926e+04
6.653227e+02,1.513308e+04
6.662869e+02,1.514652e+04
6.672512e+02,1.515898e+04
6.682154e+02,1.517125e+04
6.691796e+02,1.518144e+04
6.701439e+02,1.518759e+04
6.711081e+02,1.518883e+04
6.720723e+02,1.518572e+04
6.730366e+02,1.518052e+04
6.740008e+02,1.517525e+04
6.749650e+02,1.516938e+04
6.759293e+02,1.516196e+04
6.768935e+02,1.515402e+04
6.778577e+02,1.514802e+04
6.788220e+02,1.514704e+04
6.797862e+02,1.515445e+04
6.807504e+02,1.516739e+04
6.817147e+02,1.518239e+04
6.826789e+02,1.519640e+04
6.836431e+02,1.520608e+04
6.846074e+02,1.520919e+04
6.855716e+02,1.520678e+04
6.865358e+02,1.520188e+04
6.875001e+02,1.519729e+04
6.884643e+02,1.519484e+04
6.894285e+02,1.519513e+04
6.903928e+02,1.519692e+04
6.913570e+02,1.519876e+04
6.923212e+02,1.519975e+04
6.932855e+02,1.520076e+04
6.942497e+02,1.520564e+04
6.952139e+02,1.521645e+04
6.961782e+02,1.523265e+04
6.971424e+02,1.525153e+04
6.981066e+02,1.526940e+04
6.990709e+02,1.527987e+04
7.000351e+02,1.528018e+04
7.009993e+02,1.527333e+04
7.019636e+02,1.526599e+04
7.029278e+02,1.526464e+04
7.038920e+02,1.526940e+04
7.048563e+02,1.527217e+04
7.058205e+02,1.526622e+04
7.067847e+02,1.525439e+04
7.077490e+02,1.524566e+04
7.087132e+02,1.524811e+04
7.096774e+02,1.526092e+04
7.106417e+02,1.527094e+04
7.116059e+02,1.527457e+04
7.125701e+02,1.527581e+04
7.135344e+02,1.527810e+04
7.144986e+02,1.528268e+04
7.154628e+02,1.528784e+04
7.164271e+02,1.529164e+04
7.173913e+02,1.529331e+04
7.183555e+02,1.529253e+04
7.193198e+02,1.528880e+04
7.202840e+02,1.528187e+04
7.212482e+02,1.527303e+04
7.222125e+02,1.526706e+04
7.231767e+02,1.526684e+04
7.241409e+02,1.527056e+04
7.251052e+02,1.527262e+04
7.260694e+02,1.527049e+04
7.270336e+02,1.526713e+04
7.279979e+02,1.526762e+04
7.289621e+02,1.527202e+04
7.299263e+02,1.527675e+04
7.308906e+02,1.527891e+04
7.318548e+02,1.527851e+04
7.328190e+02,1.527825e+04
7.337833e+02,1.527829e+04
7.347475e+02,1.527569e+04
7.357117e+02,1.526930e+04
7.366760e+02,1.526222e+04
7.376402e+02,1.525925e+04
7.386044e+02,1.526215e+04
7.395687e+02,1.526710e+04
7.405329e+02,1.526814e+04
7.414971e+02,1.526360e+04
7.424614e+02,1.525773e+04
7.434256e+02,1.525636e+04
7.443898e+02,1.526421e+04
7.453541e+02,1.527956e+04
7.463183e+02,1.529385e+04
7.472825e+02,1.529960e+04
7.482468e+02,1.529409e+04
7.492110e+02,1.528047e+04
7.501752e+02,1.526551e+04
7.511395e+02,1.525585e+04
7.521037e+02,1.525320e+04
7.530679e+02,1.525431e+04
7.540322e+02,1.525486e+04
7.549964e+02,1.525090e+04
7.559606e+02,1.524391e+04
7.569249e+02,1.523974e+04
7.578891e+02,1.524240e+04
7.588533e+02,1.525382e+04
7.598176e+02,1.526981e+04
7.607818e+02,1.528174e+04
7.617460e+02,1.528184e+04
7.627103e+02,1.526987e+04
7.636745e+02,1.525475e+04
7.646387e+02,1.524558e+04
7.656030e+02,1.524599e+04
7.665672e+02,1.525236e+04
7.675314e+02,1.525678e+04
7.684957e+02,1.525076e+04
7.694599e+02,1.523354e+04
7.704241e+02,1.521191e+04
7.713884e+02,1.519305e+04
7.723526e+02,1.518254e+04
7.733168e+02,1.518383e+04
7.742811e+02,1.519640e+04
7.752453e+02,1.521344e+04
7.762095e+02,1.522938e+04
7.771738e+02,1.524245e+04
7.781380e+02,1.524892e+04
7.791022e+02,1.524479e+04
7.800665e+02,1.523307e+04
7.810307e+02,1.521699e+04
7.819949e+02,1.519989e+04
7.829592e+02,1.518655e+04
7.839234e+02,1.517846e+04
7.848876e+02,1.517437e+04
7.858519e+02,1.517132e+04
7.868161e+02,1.516677e+04
7.877803e+02,1.515950e+04
7.887446e+02,1.515029e+04
7.897088e+02,1.514275e+04
7.906730e+02,1.514235e+04
7.916373e+02,1.515223e+04
7.926015e+02,1.516737e+04
7.935657e+02,1.517511e+04
7.945300e+02,1.516842e+04
7.954942e+02,1.514923e+04
7.964584e+02,1.512699e+04
7.974227e+02,1.511322e+04
7.983869e+02,1.511434e+04
7.993511e+02,1.512025e+04
8.003154e+02,1.512204e+04
8.012796e+02,1.511676e+04
8.022438e+02,1.510734e+04
8.032081e+02,1.510093e+04
8.041723e+02,1.510259e+04
8.051365e+02,1.511129e+04
8.061008e+02,1.512111e+04
8.070650e+02,1.512649e+04
8.080292e+02,1.512501e+04
8.089935e+02,1.511922e+04
8.099577e+02,1.511368e+04
8.109219e+02,1.510991e+04
8.118862e+02,1.510713e+04
8.128504e+02,1.510524e+04
8.138146e+02,1.510410e+04
8.147789e+02,1.510239e+04
8.157431e+02,1.509608e+04
8.167073e+02,1.508447e+04
8.176716e+02,1.507370e+04
8.186358e+02,1.506969e+04
8.196000e+02,1.507412e+04
8.205643e+02,1.508175e+04
8.215285e+02,1.508409e+04
8.224927e+02,1.508079e+04
8.234570e+02,1.507726e+04
8.244212e+02,1.507599e+04
8.253854e+02,1.507502e+04
8.263497e+02,1.507040e+04
8.273139e+02,1.505855e+04
8.282781e+02,1.504107e+04
8.292424e+02,1.502364e+04
8.302066e+02,1.501106e+04
8.311708e+02,1.500484e+04
8.321351e+02,1.500431e+04
8.330993e+02,1.500665e+04
8.340635e+02,1.500798e+04
8.350278e+02,1.500698e+04
8.359920e+02,1.500431e+04
8.369562e+02,1.500045e+04
8.379205e+02,1.499512e+04
8.388847e+02,1.498766e+04
8.398489e+02,1.497962e+04
8.408132e+02,1.497231e+04
8.417774e+02,1.496403e+04
8.427416e+02,1.495380e+04
8.437059e+02,1.494061e+04
8.446701e+02,1.492651e+04
8.456343e+02,1.491493e+04
8.465986e+02,1.490606e+04
8.475628e+02,1.489637e+04
8.485270e+02,1.488333e+04
8.494913e+02,1.486913e+04
8.504555e+02,1.485796e+04
8.514197e+02,1.485256e+04
8.523840e+02,1.485159e+04
8.533482e+02,1.485192e+04
8.543124e+02,1.485149e+04
8.552767e+02,1.484976e+04
8.562409e+02,1.484545e+04
8.572051e+02,1.483683e+04
8.581694e+02,1.482484e+04
8.591336e+02,1.481177e+04
8.600978e+02,1.479960e+04
8.610621e+02,1.479045e+04
8.620263e+02,1.478606e+04
8.629905e+02,1.478422e+04
8.639548e+02,1.477980e+04
8.649190e+02,1.477040e+04
8.658832e+02,1.475915e+04
8.668475e+02,1.475304e+04
8.678117e+02,1.475676e+04
8.687759e+02,1.476681e+04
8.697402e+02,1.477465e+04
8.707044e+02,1.477327e+04
8.716686e+02,1.476069e+04
8.726329e+02,1.474195e+04
8.735971e+02,1.472187e+04
8.745613e+02,1.470286e+04
8.755256e+02,1.468903e+04
8.764898e+02,1.468207e+04
8.774540e+02,1.468101e+04
8.784183e+02,1.468225e+04
8.793825e+02,1.468172e+04
8.803467e+02,1.467744e+04
8.813110e+02,1.467096e+04
8.822752e+02,1.466579e+04
8.832394e+02,1.466477e+04
8.842037e+02,1.466786e+04
8.851679e+02,1.467146e+04
8.861321e+02,1.467148e+04
8.870964e+02,1.466571e+04
8.880606e+02,1.465300e+04
8.890248e+02,1.463441e+04
8.899891e+02,1.461404e+04
8.909533e+02,1.459730e+04
8.919175e+02,1.458591e+04
8.928818e+02,1.458019e+04
8.938460e+02,1.457673e+04
8.948102e+02,1.457230e+04
8.957745e+02,1.456619e+04
8.967387e+02,1.456069e+04
8.977029e+02,1.455250e+04
8.986672e+02,1.453923e+04
8.996314e+02,1.452496e+04
9.005956e+02,1.451730e+04
9.015599e+02,1.451989e+04
9.025241e+02,1.452712e+04
9.034883e+02,1.452976e+04
9.044526e+02,1.452144e+04
9.054168e+02,1.450319e+04
9.063810e+02,1.448216e+04
9.073453e+02,1.446693e+04
9.083095e+02,1.445947e+04
9.092737e+02,1.445627e+04
9.102380e+02,1.445255e+04
9.112022e+02,1.444510e+04
9.121664e+02,1.443397e+04
9.131307e+02,1.442254e+04
9.140949e+02,1.441661e+04
9.150591e+02,1.441934e+04
9.160234e+02,1.442657e+04
9.169876e+02,1.442994e+04
9.179518e+02,1.442280e+04
9.189161e+02,1.440419e+04
9.198803e+02,1.437926e+04
9.208445e+02,1.435686e+04
9.218088e+02,1.434154e+04
9.227730e+02,1.433191e+04
9.237372e+02,1.432475e+04
9.247015e+02,1.432007e+04
9.256657e+02,1.431909e+04
9.266299e+02,1.432090e+04
9.275942e+02,1.432269e+04
9.285584e+02,1.432151e+04
9.295226e+02,1.431743e+04
9.304869e+02,1.431238e+04
9.314511e+02,1.430841e+04
9.324153e+02,1.430501e+04
9.333796e+02,1.430106e+04
9.343438e+02,1.429789e+04
9.353080e+02,1.429450e+04
9.362723e+02,1.428538e+04
9.372365e+02,1.426897e+04
9.382007e+02,1.425009e+04
9.391650e+02,1.423593e+04
9.401292e+02,1.422962e+04
9.410934e+02,1.422755e+04
9.420577e+02,1.422252e+04
9.430219e+02,1.421133e+04
9.439861e+02,1.419716e+04
9.449504e+02,1.418632e+04
9.459146e+02,1.418399e+04
9.468788e+02,1.418974e+04
9.478431e+02,1.419474e+04
9.488073e+02,1.418936e+04
9.497715e+02,1.417138e+04
9.507358e+02,1.414663e+04
9.517000e+02,1.412447e+04
9.526642e+02,1.410908e+04
9.536285e+02,1.409520e+04
9.545927e+02,1.407620e+04
9.555569e+02,1.405368e+04
9.565212e+02,1.403403e+04
9.574854e+02,1.402200e+04
9.584496e+02,1.401745e+04
9.594139e+02,1.401509e+04
9.603781e+02,1.401045e+04
9.613423e+02,1.400254e+04
9.623066e+02,1.399183e+04
9.632708e+02,1.397930e+04
9.642350e+02,1.396746e+04
9.651993e+02,1.395879e+04
9.661635e+02,1.395200e+04
9.671277e+02,1.394430e+04
9.680920e+02,1.393317e+04
9.690562e+02,1.391784e+04
9.700204e+02,1.389770e+04
9.709847e+02,1.387590e+04
9.719489e+02,1.385578e+04
9.729131e+02,1.383936e+04
9.738774e+02,1.382912e+04
9.748416e+02,1.382681e+04
9.758058e+02,1.383007e+04
9.767701e+02,1.383404e+04
9.777343e+02,1.383521e+04
9.786985e+02,1.383164e+04
9.796628e+02,1.382323e+04
9.806270e+02,1.381314e+04
9.815912e+02,1.379938e+04
9.825555e+02,1.377941e+04
9.835197e+02,1.375511e+04
9.844839e+02,1.373304e+04
9.854482e+02,1.371758e+04
9.864124e+02,1.370741e+04
9.873766e+02,1.369705e+04
9.883409e+02,1.368608e+04
9.893051e+02,1.367814e+04
9.902693e+02,1.367584e+04
9.912336e+02,1.367865e+04
9.921978e+02,1.368226e+04
9.931620e+02,1.368204e+04
9.941263e+02,1.367717e+04
9.950905e+02,1.366892e+04
9.960547e+02,1.365794e+04
9.970190e+02,1.364452e+04
9.979832e+02,1.362702e+04
9.989474e+02,1.360420e+04
9.999117e+02,1.357852e+04
1.000876e+03,1.355446e+04
1.001840e+03,1.353603e+04
1.002804e+03,1.352586e+04
1.003769e+03,1.352240e+04
1.004733e+03,1.352163e+04
1.005697e+03,1.352145e+04
1.006661e+03,1.352168e+04
1.007626e+03,1.352325e+04
1.008590e+03,1.352654e+04
1.009554e+03,1.352874e+04
1.010518e+03,1.352471e+04
1.011482e+03,1.351182e+04
1.012447e+03,1.349048e+04
1.013411e+03,1.346525e+04
1.014375e+03,1.344237e+04
1.015339e+03,1.342581e+04
1.016304e+03,1.341451e+04
1.017268e+03,1.340663e+04
1.018232e+03,1.339959e+04
1.019196e+03,1.339172e+04
1.020161e+03,1.338303e+04
1.021125e+03,1.337592e+04
1.022089e+03,1.337375e+04
1.023053e+03,1.337622e+04
1.024018e+03,1.337980e+04
1.024982e+03,1.338008e+04
1.025946e+03,1.337380e+04
1.026910e+03,1.335846e+04
1.027875e+03,1.333784e+04
1.028839e+03,1.331705e+04
1.029803e+03,1.329977e+04
1.030767e+03,1.328700e+04
1.031731e+03,1.327746e+04
1.032696e+03,1.326776e+04
1.033660e+03,1.325654e+04
1.034624e+03,1.324562e+04
1.035588e+03,1.323795e+04
1.036552e+03,1.323509e+04
1.037517e+03,1.323569e+04
1.038481e+03,1.323512e+04
1.039445e+03,1.323010e+04
1.040409e+03,1.321993e+04
1.041374e+03,1.320767e+04
1.042338e+03,1.319751e+04
1.043302e+03,1.318915e+04
1.044266e+03,1.317886e+04
1.045231e+03,1.316458e+04
1.046195e+03,1.314841e+04
1.047159e+03,1.313289e+04
1.048123e+03,1.311863e+04
1.049088e+03,1.310517e+04
1.050052e+03,1.309618e+04
1.051016e+03,1.309315e+04
1.051980e+03,1.309514e+04
1.052945e+03,1.310096e+04
1.053909e+03,1.310733e+04
1.054873e+03,1.310765e+04
1.055837e+03,1.310048e+04
1.056802e+03,1.308790e+04
1.057766e+03,1.307455e+04
1.058730e+03,1.306401e+04
1.059694e+03,1.305507e+04
1.060658e+03,1.304369e+04
1.061623e+03,1.303081e+04
1.062587e+03,1.302000e+04
1.063551e+03,1.301333e+04
1.064515e+03,1.300896e+04
1.065479e+03,1.300263e+04
1.066444e+03,1.299641e+04
1.067408e+03,1.299428e+04
1.068372e+03,1.299774e+04
1.069336e+03,1.300415e+04
1.070301e+03,1.300772e+04
1.071265e+03,1.300558e+04
1.072229e+03,1.300034e+04
1.073193e+03,1.299277e+04
1.074158e+03,1.298119e+04
1.075122e+03,1.296534e+04
1.076086e+03,1.294577e+04
1.077050e+03,1.292508e+04
1.078015e+03,1.290890e+04
1.078979e+03,1.290034e+04
1.079943e+03,1.289903e+04
1.080907e+03,1.290201e+04
1.081872e+03,1.290441e+04
1.082836e+03,1.290236e+04
1.083800e+03,1.289690e+04
1.084764e+03,1.289094e+04
1.085729e+03,1.288571e+04
1.086693e+03,1.288069e+04
1.087657e+03,1.287397e+04
1.088621e+03,1.286404e+04
1.089585e+03,1.284816e+04
1.090550e+03,1.282595e+04
1.091514e+03,1.280080e+04
1.092478e+03,1.277777e+04
1.093442e+03,1.275942e+04
1.094406e+03,1.274735e+04
1.095371e+03,1.274029e+04
1.096335e+03,1.273574e+04
1.097299e+03,1.273295e+04
1.098263e+03,1.273241e+04
1.099228e+03,1.273254e+04
1.100192e+03,1.273119e+04
1.101156e+03,1.272673e+04
1.102120e+03,1.271967e+04
1.103085e+03,1.271147e+04
1.104049e+03,1.270214e+04
1.105013e+03,1.269134e+04
1.105977e+03,1.267960e+04
1.106942e+03,1.266797e+04
1.107906e+03,1.265762e+04
1.108870e+03,1.264821e+04
1.109834e+03,1.263882e+04
1.110799e+03,1.262938e+04
1.111763e+03,1.262101e+04
1.112727e+03,1.261493e+04
1.113691e+03,1.261279e+04
1.114656e+03,1.261395e+04
1.115620e+03,1.261799e+04
1.116584e+03,1.262312e+04
1.117548e+03,1.262586e+04
1.118512e+03,1.262314e+04
1.119477e+03,1.261465e+04
1.120441e+03,1.260149e+04
1.121405e+03,1.258696e+04
1.122369e+03,1.257191e+04
1.123334e+03,1.255537e+04
1.124298e+03,1.253762e+04
1.125262e+03,1.252245e+04
1.126226e+03,1.251300e+04
1.127191e+03,1.251054e+04
1.128155e+03,1.251135e+04
1.129119e+03,1.251258e+04
1.130083e+03,1.251493e+04
1.131047e+03,1.251886e+04
1.132012e+03,1.252052e+04
1.132976e+03,1.251656e+04
1.133940e+03,1.250538e+04
1.134904e+03,1.249040e+04
1.135869e+03,1.247542e+04
1.136833e+03,1.246081e+04
1.137797e+03,1.244569e+04
1.138761e+03,1.243278e+04
1.139726e+03,1.242496e+04
1.140690e+03,1.242165e+04
1.141654e+03,1.241935e+04
1.142618e+03,1.241501e+04
1.143583e+03,1.240975e+04
1.144547e+03,1.240605e+04
1.145511e+03,1.240400e+04
1.146475e+03,1.240131e+04
1.147439e+03,1.239617e+04
1.148404e+03,1.239220e+04
1.149368e+03,1.239221e+04
1.150332e+03,1.239522e+04
1.151296e+03,1.239692e+04
1.152261e+03,1.239153e+04
1.153225e+03,1.237575e+04
1.154189e+03,1.235424e+04
1.155153e+03,1.233257e+04
1.156118e+03,1.231467e+04
1.157082e+03,1.230447e+04
1.158046e+03,1.230259e+04
1.159010e+03,1.230535e+04
1.159974e+03,1.231113e+04
1.160939e+03,1.231853e+04
1.161903e+03,1.232450e+04
1.162867e+03,1.232622e+04
1.163831e+03,1.232244e+04
1.164796e+03,1.231307e+04
1.165760e+03,1.230042e+04
1.166724e+03,1.228697e+04
1.167688e+03,1.227430e+04
1.168653e+03,1.226258e+04
1.169617e+03,1.225057e+04
1.170581e+03,1.223851e+04
1.171545e+03,1.222835e+04
1.172510e+03,1.222180e+04
1.173474e+03,1.221939e+04
1.174438e+03,1.221942e+04
1.175402e+03,1.221976e+04
1.176366e+03,1.221955e+04
1.177331e+03,1.221896e+04
1.178295e+03,1.221964e+04
1.179259e+03,1.222240e+04
1.180223e+03,1.222434e+04
1.181188e+03,1.222203e+04
1.182152e+03,1.221424e+04
1.183116e+03,1.220226e+04
1.184080e+03,1.218908e+04
1.185045e+03,1.217689e+04
1.186009e+03,1.216541e+04
1.186973e+03,1.215668e+04
1.187937e+03,1.215299e+04
1.188901e+03,1.215480e+04
1.189866e+03,1.215900e+04
1.190830e+03,1.216130e+04
1.191794e+03,1.215878e+04
1.192758e+03,1.215399e+04
1.193723e+03,1.215114e+04
1.194687e+03,1.215199e+04
1.195651e+03,1.215549e+04
1.196615e+03,1.216027e+04
1.197580e+03,1.216367e+04
1.198544e+03,1.215996e+04
1.199508e+03,1.214604e+04
1.200472e+03,1.212476e+04
1.201437e+03,1.210229e+04
1.202401e+03,1.208463e+04
1.203365e+03,1.207488e+04
1.204329e+03,1.207045e+04
1.205293e+03,1.206965e+04
1.206258e+03,1.207408e+04
1.207222e+03,1.208390e+04
1.208186e+03,1.209622e+04
1.209150e+03,1.210635e+04
1.210115e+03,1.211086e+04
1.211079e+03,1.211098e+04
1.212043e+03,1.210827e+04
1.213007e+03,1.210106e+04
1.213972e+03,1.208985e+04
1.214936e+03,1.207852e+04
1.215900e+03,1.207097e+04
1.216864e+03,1.206756e+04
1.217828e+03,1.206533e+04
1.218793e+03,1.206245e+04
1.219757e+03,1.206084e+04
1.220721e+03,1.206292e+04
1.221685e+03,1.206958e+04
1.222650e+03,1.207873e+04
1.223614e+03,1.208614e+04
1.224578e+03,1.208925e+04
1.225542e+03,1.208930e+04
1.226507e+03,1.208992e+04
1.227471e+03,1.209407e+04
1.228435e+03,1.209763e+04
1.229399e+03,1.209398e+04
1.230364e+03,1.208161e+04
1.231328e+03,1.206591e+04
1.232292e+03,1.205400e+04
1.233256e+03,1.204761e+04
1.234220e+03,1.204151e+04
1.235185e+03,1.203624e+04
1.236149e+03,1.203647e+04
1.237113e+03,1.204526e+04
1.238077e+03,1.206109e+04
1.239042e+03,1.207756e+04
1.240006e+03,1.208922e+04
1.240970e+03,1.209601e+04
1.241934e+03,1.209733e+04
1.242899e+03,1.209364e+04
1.243863e+03,1.208701e+04
1.244827e+03,1.207964e+04
1.245791e+03,1.207265e+04
1.246755e+03,1.206604e+04
1.247720e+03,1.205952e+04
1.248684e+03,1.205383e+04
1.249648e+03,1.205246e+04
1.250612e+03,1.205655e+04
1.251577e+03,1.206325e+04
1.252541e+03,1.206874e+04
1.253505e+03,1.207197e+04
1.254469e+03,1.207512e+04
1.255434e+03,1.208109e+04
1.256398e+03,1.208948e+04
1.257362e+03,1.209666e+04
1.258326e+03,1.210036e+04
1.259291e+03,1.210071e+04
1.260255e+03,1.209609e+04
1.261219e+03,1.208576e+04
1.262183e+03,1.207357e+04
1.263147e+03,1.206519e+04
1.264112e+03,1.206358e+04
1.265076e+03,1.206637e+04
1.266040e+03,1.206795e+04
1.267004e+03,1.206713e+04
1.267969e+03,1.206765e+04
1.268933e+03,1.207416e+04
1.269897e+03,1.208969e+04
1.270861e+03,1.211068e+04
1.271826e+03,1.212700e+04
1.272790e+03,1.213245e+04
1.273754e+03,1.212725e+04
1.274718e+03,1.211905e+04
1.275682e+03,1.211404e+04
1.276647e+03,1.211183e+04
1.277611e+03,1.210875e+04
1.278575e+03,1.210366e+04
1.279539e+03,1.209133e+04
1.280504e+03,1.207663e+04
1.281468e+03,1.206837e+04
1.282432e+03,1.206861e+04
1.283396e+03,1.207517e+04
1.284361e+03,1.208362e+04
1.285325e+03,1.209115e+04
1.286289e+03,1.209773e+04
1.287253e+03,1.210274e+04
1.288218e+03,1.210378e+04
1.289182e+03,1.210126e+04
1.290146e+03,1.209572e+04
1.291110e+03,1.208849e+04
1.292074e+03,1.208090e+04
1.293039e+03,1.207178e+04
1.294003e+03,1.205751e+04
1.294967e+03,1.204059e+04
1.295931e+03,1.202003e+04
1.296896e+03,1.200557e+04
1.297860e+03,1.200685e+04
1.298824e+03,1.202731e+04
1.299788e+03,1.204321e+04
1.300753e+03,1.205177e+04
1.301717e+03,1.205427e+04
1.302681e+03,1.204767e+04
1.303645e+03,1.203772e+04
1.304609e+03,1.204480e+04
1.305574e+03,1.206888e+04
1.306538e+03,1.207448e+04
1.307502e+03,1.206052e+04
1.308466e+03,1.204289e+04
1.309431e+03,1.203434e+04
1.310395e+03,1.203156e+04
1.311359e+03,1.201816e+04
1.312323e+03,1.199261e+04
1.313288e+03,1.197018e+04
1.314252e+03,1.196414e+04
1.315216e+03,1.196940e+04
1.316180e+03,1.197999e+04
1.317145e+03,1.199431e+04
1.318109e+03,1.200980e+04
1.319073e+03,1.202093e+04
1.320037e+03,1.201900e+04
1.321001e+03,1.199303e+04
1.321966e+03,1.196360e+04
1.322930e+03,1.194478e+04
1.323894e+03,1.193390e+04
1.324858e+03,1.191740e+04
1.325823e+03,1.188280e+04
1.326787e+03,1.187276e+04
1.327751e+03,1.189609e+04
1.328715e+03,1.191450e+04
1.329680e+03,1.190156e+04
1.330644e+03,1.186723e+04
1.331608e+03,1.185399e+04
1.332572e+03,1.185917e+04
1.333536e+03,1.186414e+04
1.334501e+03,1.186218e+04
1.335465e+03,1.185337e+04
1.336429e+03,1.184172e+04
1.337393e+03,1.182965e+04
1.338358e+03,1.182085e+04
1.339322e+03,1.181296e+04
1.340286e+03,1.179610e+04
1.341250e+03,1.175086e+04
1.342215e+03,1.171237e+04
1.343179e+03,1.170958e+04
1.344143e+03,1.172511e+04
1.345107e+03,1.173191e+04
1.346072e+03,1.171993e+04
1.347036e+03,1.171647e+04
1.348000e+03,1.172527e+04
1.348964e+03,1.172847e+04
1.349928e+03,1.172267e+04
1.350893e+03,1.171258e+04
1.351857e+03,1.169755e+04
1.352821e+03,1.167561e+04
1.353785e+03,1.166618e+04
1.354750e+03,1.167029e+04
1.355714e+03,1.167251e+04
1.356678e+03,1.166492e+04
1.357642e+03,1.165490e+04
1.358607e+03,1.164439e+04
1.359571e+03,1.163315e+04
1.360535e+03,1.162448e+04
1.361499e+03,1.162344e+04
1.362464e+03,1.162081e+04
1.363428e+03,1.161458e+04
1.364392e+03,1.160733e+04
1.365356e+03,1.159254e+04
1.366320e+03,1.156646e+04
1.367285e+03,1.154499e+04
1.368249e+03,1.153645e+04
1.369213e+03,1.152503e+04
1.370177e+03,1.150648e+04
1.371142e+03,1.148750e+04
1.372106e+03,1.147858e+04
1.373070e+03,1.147770e+04
1.374034e+03,1.146988e+04
1.374999e+03,1.145797e+04
1.375963e+03,1.144468e+04
1.376927e+03,1.142873e+04
1.377891e+03,1.141483e+04
1.378855e+03,1.140513e+04
1.379820e+03,1.139905e+04
1.380784e+03,1.139955e+04
1.381748e+03,1.140992e+04
1.382712e+03,1.141750e+04
1.383677e+03,1.140753e+04
1.384641e+03,1.139503e+04
1.385605e+03,1.138613e+04
1.386569e+03,1.137526e+04
1.387534e+03,1.135387e+04
1.388498e+03,1.131927e+04
1.389462e+03,1.129708e+04
1.390426e+03,1.128620e+04
1.391391e+03,1.127759e+04
1.392355e+03,1.126851e+04
1.393319e+03,1.126307e+04
1.394283e+03,1.126567e+04
1.395247e+03,1.127284e+04
1.396212e+03,1.128033e+04
1.397176e+03,1.128744e+04
1.398140e+03,1.129385e+04
1.399104e+03,1.130664e+04
1.400069e+03,1.130660e+04
1.401033e+03,1.126881e+04
1.401997e+03,1.121067e+04
1.402961e+03,1.118148e+04
1.403926e+03,1.119957e+04
1.404890e+03,1.120464e+04
1.405854e+03,1.119206e+04
1.406818e+03,1.117758e+04
1.407782e+03,1.117335e+04
1.408747e+03,1.117908e+04
1.409711e+03,1.118467e+04
1.410675e+03,1.118342e+04
1.411639e+03,1.117069e+04
1.412604e+03,1.114557e+04
1.413568e+03,1.112306e+04
1.414532e+03,1.112249e+04
1.415496e+03,1.113106e+04
1.416461e+03,1.113468e+04
1.417425e+03,1.113014e+04
1.418389e+03,1.112143e+04
1.419353e+03,1.111357e+04
1.420318e+03,1.109475e+04
1.421282e+03,1.106105e+04
1.422246e+03,1.103155e+04
1.423210e+03,1.102099e+04
1.424174e+03,1.102834e+04
1.425139e+03,1.103929e+04
1.426103e+03,1.104959e+04
1.427067e+03,1.104752e+04
1.428031e+03,1.102820e+04
1.428996e+03,1.100816e+04
1.429960e+03,1.100262e+04
1.430924e+03,1.100073e+04
1.431888e+03,1.099214e+04
1.432853e+03,1.097785e+04
1.433817e+03,1.096391e+04
1.434781e+03,1.095121e+04
1.435745e+03,1.094561e+04
1.436709e+03,1.094629e+04
1.437674e+03,1.094551e+04
1.438638e+03,1.093951e+04
1.439602e+03,1.093245e+04
1.440566e+03,1.093576e+04
1.441531e+03,1.094720e+04
1.442495e+03,1.095526e+04
1.443459e+03,1.095278e+04
1.444423e+03,1.095090e+04
1.445388e+03,1.096391e+04
1.446352e+03,1.097713e+04
1.447316e+03,1.098087e+04
1.448280e+03,1.097808e+04
1.449245e+03,1.096820e+04
1.450209e+03,1.093658e+04
1.451173e+03,1.091919e+04
1.452137e+03,1.091934e+04
1.453101e+03,1.092181e+04
1.454066e+03,1.091574e+04
1.455030e+03,1.090318e+04
1.455994e+03,1.089687e+04
1.456958e+03,1.089585e+04
1.457923e+03,1.089598e+04
1.458887e+03,1.089387e+04
1.459851e+03,1.088570e+04
1.460815e+03,1.086330e+04
1.461780e+03,1.083410e+04
1.462744e+03,1.081315e+04
1.463708e+03,1.080095e+04
1.464672e+03,1.077851e+04
1.465636e+03,1.073811e+04
1.466601e+03,1.071110e+04
1.467565e+03,1.070226e+04
1.468529e+03,1.070419e+04
1.469493e+03,1.071356e+04
1.470458e+03,1.072218e+04
1.471422e+03,1.069832e+04
1.472386e+03,1.065506e+04
1.473350e+03,1.063539e+04
1.474315e+03,1.065758e+04
1.475279e+03,1.068273e+04
1.476243e+03,1.068655e+04
1.477207e+03,1.068067e+04
1.478172e+03,1.067896e+04
1.479136e+03,1.068008e+04
1.480100e+03,1.067051e+04
1.481064e+03,1.064823e+04
1.482028e+03,1.062681e+04
1.482993e+03,1.060850e+04
1.483957e+03,1.059810e+04
1.484921e+03,1.060020e+04
1.485885e+03,1.060907e+04
1.486850e+03,1.061647e+04
1.487814e+03,1.061789e+04
1.488778e+03,1.060904e+04
1.489742e+03,1.058726e+04
1.490707e+03,1.056583e+04
1.491671e+03,1.055314e+04
1.492635e+03,1.054987e+04
1.493599e+03,1.055614e+04
1.494563e+03,1.056310e+04
1.495528e+03,1.055238e+04
1.496492e+03,1.052291e+04
1.497456e+03,1.049061e+04
1.498420e+03,1.046122e+04
1.499385e+03,1.044510e+04
1.500349e+03,1.046085e+04
1.501313e+03,1.048321e+04
1.502277e+03,1.048511e+04
1.503242e+03,1.047769e+04
1.504206e+03,1.047876e+04
1.505170e+03,1.049323e+04
1.506134e+03,1.050009e+04
1.507099e+03,1.049950e+04
1.508063e+03,1.049296e+04
1.509027e+03,1.047919e+04
1.509991e+03,1.046381e+04
1.510955e+03,1.046009e+04
1.511920e+03,1.046158e+04
1.512884e+03,1.045503e+04
1.513848e+03,1.044398e+04
1.514812e+03,1.043488e+04
1.515777e+03,1.041838e+04
1.516741e+03,1.040457e+04
1.517705e+03,1.039936e+04
1.518669e+03,1.039451e+04
1.519634e+03,1.038553e+04
1.520598e+03,1.037102e+04
1.521562e+03,1.035891e+04
1.522526e+03,1.034634e+04
1.523490e+03,1.033304e+04
1.524455e+03,1.032031e+04
1.525419e+03,1.030662e+04
1.526383e+03,1.029385e+04
1.527347e+03,1.027831e+04
1.528312e+03,1.025881e+04
1.529276e+03,1.024046e+04
1.530240e+03,1.022778e+04
1.531204e+03,1.021768e+04
1.532169e+03,1.021048e+04
1.533133e+03,1.020704e+04
1.534097e+03,1.020346e+04
1.535061e+03,1.019537e+04
1.536026e+03,1.018384e+04
1.536990e+03,1.017154e+04
1.537954e+03,1.016230e+04
1.538918e+03,1.016441e+04
1.539882e+03,1.018106e+04
1.540847e+03,1.019011e+04
1.541811e+03,1.017388e+04
1.542775e+03,1.015849e+04
1.543739e+03,1.015660e+04
1.544704e+03,1.016125e+04
1.545668e+03,1.015809e+04
1.546632e+03,1.015011e+04
1.547596e+03,1.014494e+04
1.548561e+03,1.014311e+04
1.549525e+03,1.014613e+04
1.550489e+03,1.015873e+04
1.551453e+03,1.016372e+04
1.552417e+03,1.014169e+04
1.553382e+03,1.011799e+04
1.554346e+03,1.011747e+04
1.555310e+03,1.013877e+04
1.556274e+03,1.015270e+04
1.557239e+03,1.015858e+04
1.558203e+03,1.016997e+04
1.559167e+03,1.019044e+04
1.560131e+03,1.021354e+04
1.561096e+03,1.022627e+04
1.562060e+03,1.024857e+04
1.563024e+03,1.030341e+04
1.563988e+03,1.037809e+04
1.564953e+03,1.044167e+04
1.565917e+03,1.049051e+04
1.566881e+03,1.053578e+04
1.567845e+03,1.057607e+04
1.568809e+03,1.060544e+04
1.569774e+03,1.062702e+04
1.570738e+03,1.062713e+04
1.571702e+03,1.056825e+04
1.572666e+03,1.048659e+04
1.573631e+03,1.043220e+04
1.574595e+03,1.041380e+04
1.575559e+03,1.038573e+04
1.576523e+03,1.033365e+04
1.577488e+03,1.030214e+04
1.578452e+03,1.029682e+04
1.579416e+03,1.029841e+04
1.580380e+03,1.029836e+04
1.581344e+03,1.028912e+04
1.582309e+03,1.024812e+04
1.583273e+03,1.018886e+04
1.584237e+03,1.014110e+04
1.585201e+03,1.012326e+04
1.586166e+03,1.009071e+04
1.587130e+03,1.002437e+04
1.588094e+03,9.963649e+03
1.589058e+03,9.928710e+03
1.590023e+03,9.911581e+03
1.590987e+03,9.896650e+03
1.591951e+03,9.886156e+03
1.592915e+03,9.875675e+03
1.593880e+03,9.860957e+03
1.594844e+03,9.848634e+03
1.595808e+03,9.846204e+03
1.596772e+03,9.843247e+03
1.597736e+03,9.839856e+03
1.598701e+03,9.839377e+03
1.599665e+03,9.845076e+03
1.600629e+03,9.853513e+03
1.601593e+03,9.850857e+03
1.602558e+03,9.838584e+03
1.603522e+03,9.820681e+03
1.604486e+03,9.797083e+03
1.605450e+03,9.771062e+03
1.606415e+03,9.734131e+03
1.607379e+03,9.717455e+03
1.608343e+03,9.741157e+03
1.609307e+03,9.776149e+03
1.610271e+03,9.767167e+03
1.611236e+03,9.723410e+03
1.612200e+03,9.689996e+03
1.613164e+03,9.672432e+03
1.614128e+03,9.666372e+03
1.615093e+03,9.671526e+03
1.616057e+03,9.680482e+03
1.617021e+03,9.692290e+03
1.617985e+03,9.699797e+03
1.618950e+03,9.701449e+03
1.619914e+03,9.698229e+03
1.620878e+03,9.692395e+03
1.621842e+03,9.684812e+03
1.622807e+03,9.671318e+03
1.623771e+03,9.652831e+03
1.624735e+03,9.643654e+03
1.625699e+03,9.652170e+03
1.626663e+03,9.662475e+03
1.627628e+03,9.668376e+03
1.628592e+03,9.666418e+03
1.629556e+03,9.658191e+03
1.630520e+03,9.649250e+03
1.631485e+03,9.648255e+03
1.632449e+03,9.650127e+03
1.633413e+03,9.635669e+03
1.634377e+03,9.589074e+03
1.635342e+03,9.550533e+03
1.636306e+03,9.546393e+03
1.637270e+03,9.542462e+03
1.638234e+03,9.520406e+03
1.639198e+03,9.491876e+03
1.640163e+03,9.481616e+03
1.641127e+03,9.486248e+03
1.642091e+03,9.488297e+03
1.643055e+03,9.482462e+03
1.644020e+03,9.471559e+03
1.644984e+03,9.447322e+03
1.645948e+03,9.426291e+03
1.646912e+03,9.416015e+03
1.647877e+03,9.408397e+03
1.648841e+03,9.395501e+03
1.649805e+03,9.382362e+03
1.650769e+03,9.388877e+03
1.651734e+03,9.404139e+03
1.652698e+03,9.401061e+03
1.653662e+03,9.366437e+03
1.654626e+03,9.338734e+03
1.655590e+03,9.332063e+03
1.656555e+03,9.327580e+03
1.657519e+03,9.325308e+03
1.658483e+03,9.325163e+03
1.659447e+03,9.315936e+03
1.660412e+03,9.302634e+03
1.661376e+03,9.310456e+03
1.662340e+03,9.333560e+03
1.663304e+03,9.342870e+03
1.664269e+03,9.307587e+03
1.665233e+03,9.285732e+03
1.666197e+03,9.277847e+03
1.667161e+03,9.274413e+03
1.668125e+03,9.274054e+03
1.669090e+03,9.274687e+03
1.670054e+03,9.273126e+03
1.671018e+03,9.271299e+03
1.671982e+03,9.274216e+03
1.672947e+03,9.282572e+03
1.673911e+03,9.291338e+03
1.674875e+03,9.296848e+03
1.675839e+03,9.294238e+03
1.676804e+03,9.287265e+03
1.677768e+03,9.279262e+03
1.678732e+03,9.266976e+03
1.679696e+03,9.252207e+03
1.680661e+03,9.232578e+03
1.681625e+03,9.210017e+03
1.682589e+03,9.195761e+03
1.683553e+03,9.193845e+03
1.684517e+03,9.186006e+03
1.685482e+03,9.171295e+03
1.686446e+03,9.162163e+03
1.687410e+03,9.163188e+03
1.688374e+03,9.165215e+03
1.689339e+03,9.164701e+03
1.690303e+03,9.157979e+03
1.691267e+03,9.141630e+03
1.692231e+03,9.119934e+03
1.693196e+03,9.090778e+03
1.694160e+03,9.055015e+03
1.695124e+03,9.040735e+03
1.696088e+03,9.048270e+03
1.697052e+03,9.064848e+03
1.698017e+03,9.088366e+03
1.698981e+03,9.098646e+03
1.699945e+03,9.079547e+03
1.700909e+03,9.056191e+03
1.701874e+03,9.049317e+03
1.702838e+03,9.055139e+03
1.703802e+03,9.056952e+03
1.704766e+03,9.050538e+03
1.705731e+03,9.034677e+03
1.706695e+03,9.012112e+03
1.707659e+03,8.995341e+03
1.708623e+03,8.989847e+03
1.709588e+03,8.992794e+03
1.710552e+03,9.001229e+03
1.711516e+03,9.002021e+03
1.712480e+03,8.980582e+03
1.713444e+03,8.952130e+03
1.714409e+03,8.937966e+03
1.715373e+03,8.931439e+03
1.716337e+03,8.916316e+03
1.717301e+03,8.894209e+03
1.718266e+03,8.897872e+03
1.719230e+03,8.924202e+03
1.720194e+03,8.931929e+03
1.721158e+03,8.906511e+03
1.722123e+03,8.878153e+03
1.723087e+03,8.865307e+03
1.724051e+03,8.860390e+03
1.725015e+03,8.863443e+03
1.725979e+03,8.871297e+03
1.726944e+03,8.878252e+03
1.727908e+03,8.882640e+03
1.728872e+03,8.873074e+03
1.729836e+03,8.851474e+03
1.730801e+03,8.837004e+03
1.731765e+03,8.846226e+03
1.732729e+03,8.844810e+03
1.733693e+03,8.825411e+03
1.734658e+03,8.809103e+03
1.735622e+03,8.806475e+03
1.736586e+03,8.805290e+03
1.737550e+03,8.781817e+03
1.738515e+03,8.754623e+03
1.739479e+03,8.748750e+03
1.740443e+03,8.762341e+03
1.741407e+03,8.772473e+03
1.742371e+03,8.779681e+03
1.743336e+03,8.778438e+03
1.744300e+03,8.767855e+03
1.745264e+03,8.751044e+03
1.746228e+03,8.727874e+03
1.747193e+03,8.711726e+03
1.748157e+03,8.718748e+03
1.749121e+03,8.734258e+03
1.750085e+03,8.740072e+03
1.751050e+03,8.731404e+03
1.752014e+03,8.714473e+03
1.752978e+03,8.695664e+03
1.753942e+03,8.685958e+03
1.754906e+03,8.685688e+03
1.755871e+03,8.683864e+03
1.756835e+03,8.672264e+03
1.757799e+03,8.660660e+03
1.758763e+03,8.660566e+03
1.759728e+03,8.660937e+03
1.760692e+03,8.643659e+03
1.761656e+03,8.625416e+03
1.762620e+03,8.618910e+03
1.763585e+03,8.618724e+03
1.764549e+03,8.617232e+03
1.765513e+03,8.610792e+03
1.766477e+03,8.601176e+03
1.767442e+03,8.591466e+03
1.768406e+03,8.587497e+03
1.769370e+03,8.592771e+03
1.770334e+03,8.596229e+03
1.771298e+03,8.578491e+03
1.772263e+03,8.571253e+03
1.773227e+03,8.591985e+03
1.774191e+03,8.613447e+03
1.775155e+03,8.586882e+03
1.776120e+03,8.542372e+03
1.777084e+03,8.528762e+03
1.778048e+03,8.538147e+03
1.779012e+03,8.541378e+03
1.779977e+03,8.536182e+03
1.780941e+03,8.535927e+03
1.781905e+03,8.536729e+03
1.782869e+03,8.537095e+03
1.783833e+03,8.539447e+03
1.784798e+03,8.535438e+03
1.785762e+03,8.509548e+03
1.786726e+03,8.486610e+03
1.787690e+03,8.481920e+03
1.788655e+03,8.485962e+03
1.789619e+03,8.476865e+03
1.790583e+03,8.460974e+03
1.791547e+03,8.447653e+03
1.792512e+03,8.438437e+03
1.793476e+03,8.433140e+03
1.794440e+03,8.426846e+03
1.795404e+03,8.427592e+03
1.796369e+03,8.433237e+03
1.797333e+03,8.438196e+03
1.798297e+03,8.444752e+03
1.799261e+03,8.443039e+03
1.800225e+03,8.414890e+03
1.801190e+03,8.380862e+03
1.802154e+03,8.355521e+03
1.803118e+03,8.338512e+03
1.804082e+03,8.339376e+03
1.805047e+03,8.351900e+03
1.806011e+03,8.356781e+03
1.806975e+03,8.351357e+03
1.807939e+03,8.339113e+03
1.808904e+03,8.311792e+03
1.809868e+03,8.303243e+03
1.810832e+03,8.320463e+03
1.811796e+03,8.337130e+03
1.812760e+03,8.329816e+03
1.813725e+03,8.316706e+03
1.814689e+03,8.305700e+03
1.815653e+03,8.299137e+03
1.816617e+03,8.300611e+03
1.817582e+03,8.306766e+03
1.818546e+03,8.305921e+03
1.819510e+03,8.298796e+03
1.820474e+03,8.286704e+03
1.821439e+03,8.271684e+03
1.822403e+03,8.266631e+03
1.823367e+03,8.274988e+03
1.824331e+03,8.284230e+03
1.825296e+03,8.290444e+03
1.826260e+03,8.284252e+03
1.827224e+03,8.252855e+03
1.828188e+03,8.228117e+03
1.829152e+03,8.226694e+03
1.830117e+03,8.230021e+03
1.831081e+03,8.224247e+03
1.832045e+03,8.209658e+03
1.833009e+03,8.193950e+03
1.833974e+03,8.183904e+03
1.834938e+03,8.180307e+03
1.835902e+03,8.180550e+03
1.836866e+03,8.173392e+03
1.837831e+03,8.157397e+03
1.838795e+03,8.145264e+03
1.839759e+03,8.143267e+03
1.840723e+03,8.147350e+03
1.841688e+03,8.150292e+03
1.842652e+03,8.158261e+03
1.843616e+03,8.173267e+03
1.844580e+03,8.181900e+03
1.845544e+03,8.171867e+03
1.846509e+03,8.153124e+03
1.847473e+03,8.141931e+03
1.848437e+03,8.133001e+03
1.849401e+03,8.113206e+03
1.850366e+03,8.083462e+03
1.851330e+03,8.076258e+03
1.852294e+03,8.090250e+03
1.853258e+03,8.088415e+03
1.854223e+03,8.058885e+03
1.855187e+03,8.037041e+03
1.856151e+03,8.038292e+03
1.857115e+03,8.043862e+03
1.858079e+03,8.051455e+03
1.859044e+03,8.052190e+03
1.860008e+03,8.031023e+03
1.860972e+03,8.011148e+03
1.861936e+03,8.020040e+03
1.862901e+03,8.041239e+03
1.863865e+03,8.045090e+03
1.864829e+03,8.029587e+03
1.865793e+03,8.023068e+03
1.866758e+03,8.024758e+03
1.867722e+03,8.026335e+03
1.868686e+03,8.025584e+03
1.869650e+03,8.005894e+03
1.870615e+03,7.957452e+03
1.871579e+03,7.929251e+03
1.872543e+03,7.939403e+03
1.873507e+03,7.961969e+03
1.874471e+03,7.976010e+03
1.875436e+03,7.977766e+03
1.876400e+03,7.969142e+03
1.877364e+03,7.954470e+03
1.878328e+03,7.935554e+03
1.879293e+03,7.914258e+03
1.880257e+03,7.887579e+03
1.881221e+03,7.860198e+03
1.882185e+03,7.848380e+03
1.883150e+03,7.854359e+03
1.884114e+03,7.864579e+03
1.885078e+03,7.875036e+03
1.886042e+03,7.870145e+03
1.887006e+03,7.842180e+03
1.887971e+03,7.822667e+03
1.888935e+03,7.828351e+03
1.889899e+03,7.839894e+03
1.890863e+03,7.850514e+03
1.891828e+03,7.852264e+03
1.892792e+03,7.841001e+03
1.893756e+03,7.821451e+03
1.894720e+03,7.797151e+03
1.895685e+03,7.779457e+03
1.896649e+03,7.774554e+03
1.897613e+03,7.775516e+03
1.898577e+03,7.770002e+03
1.899542e+03,7.761570e+03
1.900506e+03,7.754630e+03
1.901470e+03,7.748203e+03
1.902434e+03,7.752284e+03
1.903398e+03,7.766423e+03
1.904363e+03,7.769184e+03
1.905327e+03,7.754773e+03
1.906291e+03,7.746311e+03
1.907255e+03,7.758714e+03
1.908220e+03,7.763364e+03
1.909184e+03,7.755611e+03
1.910148e+03,7.737604e+03
1.911112e+03,7.709286e+03
1.912077e+03,7.681542e+03
1.913041e+03,7.661296e+03
1.914005e+03,7.647839e+03
1.914969e+03,7.642111e+03
1.915933e+03,7.640881e+03
1.916898e+03,7.628557e+03
1.917862e+03,7.613745e+03
1.918826e+03,7.612406e+03
1.919790e+03,7.629679e+03
1.920755e+03,7.642716e+03
1.921719e+03,7.647072e+03
1.922683e+03,7.639364e+03
1.923647e+03,7.621391e+03
1.924612e+03,7.605322e+03
1.925576e+03,7.596593e+03
1.926540e+03,7.590752e+03
1.927504e+03,7.583087e+03
1.928469e+03,7.573455e+03
1.929433e+03,7.557279e+03
1.930397e+03,7.542181e+03
1.931361e+03,7.535532e+03
1.932325e+03,7.532270e+03
1.933290e+03,7.533086e+03
1.934254e+03,7.540586e+03
1.935218e+03,7.547888e+03
1.936182e+03,7.549817e+03
1.937147e+03,7.548169e+03
1.938111e+03,7.545736e+03
1.939075e+03,7.543822e+03
1.940039e+03,7.544541e+03
1.941004e+03,7.535952e+03
1.941968e+03,7.512188e+03
1.942932e+03,7.489556e+03
1.943896e+03,7.475679e+03
1.944860e+03,7.464661e+03
1.945825e+03,7.459697e+03
1.946789e+03,7.450731e+03
1.947753e+03,7.412268e+03
1.948717e+03,7.387409e+03
1.949682e+03,7.396810e+03
1.950646e+03,7.416165e+03
1.951610e+03,7.437960e+03
1.952574e+03,7.452088e+03
1.953539e+03,7.433213e+03
1.954503e+03,7.406723e+03
1.955467e+03,7.403442e+03
1.956431e+03,7.415308e+03
1.957396e+03,7.416897e+03
1.958360e+03,7.409358e+03
1.959324e+03,7.399392e+03
1.960288e+03,7.390724e+03
1.961252e+03,7.380725e+03
1.962217e+03,7.364709e+03
1.963181e+03,7.353834e+03
1.964145e+03,7.346872e+03
1.965109e+03,7.338300e+03
1.966074e+03,7.320866e+03
1.967038e+03,7.321502e+03
1.968002e+03,7.336716e+03
1.968966e+03,7.351268e+03
1.969931e+03,7.360872e+03
1.970895e+03,7.362424e+03
1.971859e+03,7.359350e+03
1.972823e+03,7.355624e+03
1.973787e+03,7.350281e+03
1.974752e+03,7.339125e+03
1.975716e+03,7.312835e+03
1.976680e+03,7.283405e+03
1.977644e+03,7.270483e+03
1.978609e+03,7.270742e+03
1.979573e+03,7.275462e+03
1.980537e+03,7.279198e+03
1.981501e+03,7.266975e+03
1.982466e+03,7.244887e+03
1.983430e+03,7.226903e+03
1.984394e+03,7.212242e+03
1.985358e+03,7.213479e+03
1.986323e+03,7.225998e+03
1.987287e+03,7.226105e+03
1.988251e+03,7.202663e+03
1.989215e+03,7.186328e+03
1.990179e+03,7.184995e+03
1.991144e+03,7.176896e+03
1.992108e+03,7.158458e+03
1.993072e+03,7.144862e+03
1.994036e+03,7.146180e+03
1.995001e+03,7.148797e+03
1.995965e+03,7.148378e+03
1.996929e+03,7.151292e+03
1.997893e+03,7.164635e+03
1.998858e+03,7.173431e+03
1.999822e+03,7.161656e+03
2.000786e+03,7.141475e+03
2.001750e+03,7.128605e+03
2.002714e+03,7.123581e+03
2.003679e+03,7.116670e+03
2.004643e+03,7.105293e+03
2.005607e+03,7.086940e+03
2.006571e+03,7.067335e+03
2.007536e+03,7.065187e+03
2.008500e+03,7.074365e+03
2.009464e+03,7.071314e+03
2.010428e+03,7.056494e+03
2.011393e+03,7.048612e+03
2.012357e+03,7.048760e+03
2.013321e+03,7.047464e+03
2.014285e+03,7.039770e+03
2.015250e+03,7.033564e+03
2.016214e+03,7.040830e+03
2.017178e+03,7.031118e+03
2.018142e+03,7.002327e+03
2.019106e+03,6.990805e+03
2.020071e+03,7.027515e+03
2.021035e+03,7.050882e+03
2.021999e+03,7.024255e+03
2.022963e+03,6.986227e+03
2.023928e+03,6.948558e+03
2.024892e+03,6.922416e+03
2.025856e+03,6.927597e+03
2.026820e+03,6.939263e+03
2.027785e+03,6.941210e+03
2.028749e+03,6.937003e+03
2.029713e+03,6.932350e+03
2.030677e+03,6.930391e+03
2.031641e+03,6.934979e+03
2.032606e+03,6.941682e+03
2.033570e+03,6.947236e+03
2.034534e+03,6.947179e+03
2.035498e+03,6.921506e+03
2.036463e+03,6.881881e+03
2.037427e+03,6.852034e+03
2.038391e+03,6.837350e+03
2.039355e+03,6.828554e+03
2.040320e+03,6.825729e+03
2.041284e+03,6.825748e+03
2.042248e+03,6.825844e+03
2.043212e+03,6.815643e+03
2.044177e+03,6.795407e+03
2.045141e+03,6.797049e+03
2.046105e+03,6.823072e+03
2.047069e+03,6.838602e+03
2.048033e+03,6.812578e+03
2.048998e+03,6.792791e+03
2.049962e+03,6.785537e+03
2.050926e+03,6.781601e+03
2.051890e+03,6.774953e+03
2.052854e+03,6.769481e+03
2.053819e+03,6.763251e+03
2.054783e+03,6.754914e+03
2.055747e+03,6.748965e+03
2.056711e+03,6.745685e+03
2.057676e+03,6.745133e+03
2.058640e+03,6.744565e+03
2.059604e+03,6.736091e+03
2.060568e+03,6.724980e+03
2.061533e+03,6.725650e+03
2.062497e+03,6.729734e+03
2.063461e+03,6.727828e+03
2.064425e+03,6.723976e+03
2.065390e+03,6.725781e+03
2.066354e+03,6.727547e+03
2.067318e+03,6.723362e+03
2.068282e+03,6.712733e+03
2.069247e+03,6.690611e+03
2.070211e+03,6.658513e+03
2.071175e+03,6.634226e+03
2.072139e+03,6.620088e+03
2.073104e+03,6.624814e+03
2.074068e+03,6.647641e+03
2.075032e+03,6.650907e+03
2.075996e+03,6.636945e+03
2.076960e+03,6.627941e+03
2.077925e+03,6.627195e+03
2.078889e+03,6.622523e+03
2.079853e+03,6.612982e+03
2.080817e+03,6.614028e+03
2.081782e+03,6.625068e+03
2.082746e+03,6.611634e+03
2.083710e+03,6.546760e+03
2.084674e+03,6.511604e+03
2.085639e+03,6.514199e+03
2.086603e+03,6.533250e+03
2.087567e+03,6.554283e+03
2.088531e+03,6.573570e+03
2.089496e+03,6.591026e+03
2.090460e+03,6.584698e+03
2.091424e+03,6.549044e+03
2.092388e+03,6.517080e+03
2.093353e+03,6.504327e+03
2.094317e+03,6.498221e+03
2.095281e+03,6.488074e+03
2.096245e+03,6.482596e+03
2.097209e+03,6.503152e+03
2.098174e+03,6.516317e+03
2.099138e+03,6.511326e+03
2.100102e+03,6.495556e+03
2.101066e+03,6.466678e+03
2.102031e+03,6.440157e+03
2.102995e+03,6.434971e+03
2.103959e+03,6.434804e+03
2.104923e+03,6.424219e+03
2.105887e+03,6.417901e+03
2.106852e+03,6.433041e+03
2.107816e+03,6.451374e+03
2.108780e+03,6.461854e+03
2.109744e+03,6.462163e+03
2.110708e+03,6.447468e+03
2.111673e+03,6.428567e+03
2.112637e+03,6.413984e+03
2.113601e+03,6.397385e+03
2.114565e+03,6.367396e+03
2.115530e+03,6.333266e+03
2.116494e+03,6.312062e+03
2.117458e+03,6.314139e+03
2.118422e+03,6.336952e+03
2.119387e+03,6.370062e+03
2.120351e+03,6.387459e+03
2.121315e+03,6.387049e+03
2.122279e+03,6.378814e+03
2.123244e+03,6.363615e+03
2.124208e+03,6.347216e+03
2.125172e+03,6.330390e+03
2.126136e+03,6.303137e+03
2.127101e+03,6.261700e+03
2.128065e+03,6.253667e+03
2.129029e+03,6.273100e+03
2.129993e+03,6.288061e+03
2.130958e+03,6.286016e+03
2.131922e+03,6.267122e+03
2.132886e+03,6.232876e+03
2.133850e+03,6.221107e+03
2.134814e+03,6.240061e+03
2.135779e+03,6.253985e+03
2.136743e+03,6.243989e+03
2.137707e+03,6.236179e+03
2.138671e+03,6.233624e+03
2.139636e+03,6.225230e+03
2.140600e+03,6.195915e+03
2.141564e+03,6.183980e+03
2.142528e+03,6.193904e+03
2.143493e+03,6.197353e+03
2.144457e+03,6.176556e+03
2.145421e+03,6.160917e+03
2.146385e+03,6.161964e+03
2.147350e+03,6.157464e+03
2.148314e+03,6.143303e+03
2.149278e+03,6.140869e+03
2.150242e+03,6.162668e+03
2.151207e+03,6.185532e+03
2.152171e+03,6.205964e+03
2.153135e+03,6.209131e+03
2.154099e+03,6.184459e+03
2.155063e+03,6.153517e+03
2.156028e+03,6.120227e+03
2.156992e+03,6.101958e+03
2.157956e+03,6.111314e+03
2.158920e+03,6.121341e+03
2.159885e+03,6.121568e+03
2.160849e+03,6.115161e+03
2.161813e+03,6.101683e+03
2.162777e+03,6.085192e+03
2.163741e+03,6.073572e+03
2.164706e+03,6.054859e+03
2.165670e+03,6.027201e+03
2.166634e+03,6.009099e+03
2.167598e+03,6.017339e+03
2.168563e+03,6.037064e+03
2.169527e+03,6.060662e+03
2.170491e+03,6.069803e+03
2.171455e+03,6.044057e+03
2.172420e+03,6.012687e+03
2.173384e+03,5.991176e+03
2.174348e+03,5.982026e+03
2.175312e+03,5.991542e+03
2.176277e+03,6.003564e+03
2.177241e+03,6.009448e+03
2.178205e+03,6.003151e+03
2.179169e+03,5.980031e+03
2.180134e+03,5.956202e+03
2.181098e+03,5.948835e+03
2.182062e+03,5.946497e+03
2.183026e+03,5.935777e+03
2.183990e+03,5.922802e+03
2.184955e+03,5.916327e+03
2.185919e+03,5.915197e+03
2.186883e+03,5.916164e+03
2.187847e+03,5.917185e+03
2.188812e+03,5.925291e+03
2.189776e+03,5.930207e+03
2.190740e+03,5.909780e+03
2.191704e+03,5.883775e+03
2.192668e+03,5.873913e+03
2.193633e+03,5.872928e+03
2.194597e+03,5.870907e+03
2.195561e+03,5.871042e+03
2.196525e+03,5.874134e+03
2.197490e+03,5.876460e+03
2.198454e+03,5.876494e+03
2.199418e+03,5.866477e+03
2.200382e+03,5.838665e+03
2.201347e+03,5.809749e+03
2.202311e+03,5.795183e+03
2.203275e+03,5.797811e+03
2.204239e+03,5.830040e+03
2.205204e+03,5.856550e+03
2.206168e+03,5.825411e+03
2.207132e+03,5.781228e+03
2.208096e+03,5.782086e+03
2.209061e+03,5.790364e+03
2.210025e+03,5.766895e+03
2.210989e+03,5.731114e+03
2.211953e+03,5.709240e+03
2.212917e+03,5.709672e+03
2.213882e+03,5.723553e+03
2.214846e+03,5.744290e+03
2.215810e+03,5.782046e+03
2.216774e+03,5.805334e+03
2.217739e+03,5.797453e+03
2.218703e+03,5.772884e+03
2.219667e+03,5.743915e+03
2.220631e+03,5.720092e+03
2.221595e+03,5.709975e+03
2.222560e+03,5.703840e+03
2.223524e+03,5.687956e+03
2.224488e+03,5.671318e+03
2.225452e+03,5.671585e+03
2.226417e+03,5.675130e+03
2.227381e+03,5.660992e+03
2.228345e+03,5.648701e+03
2.229309e+03,5.663578e+03
2.230274e+03,5.682796e+03
2.231238e+03,5.691839e+03
2.232202e+03,5.689511e+03
2.233166e+03,5.675008e+03
2.234131e+03,5.657594e+03
2.235095e+03,5.640700e+03
2.236059e+03,5.627114e+03
2.237023e+03,5.619245e+03
2.237988e+03,5.616469e+03
2.238952e+03,5.620247e+03
2.239916e+03,5.615235e+03
2.240880e+03,5.572260e+03
2.241844e+03,5.535616e+03
2.242809e+03,5.540303e+03
2.243773e+03,5.556988e+03
2.244737e+03,5.553476e+03
2.245701e+03,5.546311e+03
2.246666e+03,5.550034e+03
2.247630e+03,5.552822e+03
2.248594e+03,5.552614e+03
2.249558e+03,5.554330e+03
2.250522e+03,5.562376e+03
2.251487e+03,5.566878e+03
2.252451e+03,5.557264e+03
2.253415e+03,5.534196e+03
2.254379e+03,5.497756e+03
2.255344e+03,5.467726e+03
2.256308e+03,5.453018e+03
2.257272e+03,5.447095e+03
2.258236e+03,5.449943e+03
2.259201e+03,5.448795e+03
2.260165e+03,5.435294e+03
2.261129e+03,5.423339e+03
2.262093e+03,5.430161e+03
2.263058e+03,5.428885e+03
2.264022e+03,5.414180e+03
2.264986e+03,5.408474e+03
2.265950e+03,5.433310e+03
2.266915e+03,5.444517e+03
2.267879e+03,5.423177e+03
2.268843e+03,5.398264e+03
2.269807e+03,5.390841e+03
2.270771e+03,5.378905e+03
2.271736e+03,5.350940e+03
2.272700e+03,5.339290e+03
2.273664e+03,5.348244e+03
2.274628e+03,5.362635e+03
2.275593e+03,5.380421e+03
2.276557e+03,5.379772e+03
2.277521e+03,5.361161e+03
2.278485e+03,5.349104e+03
2.279449e+03,5.361666e+03
2.280414e+03,5.361070e+03
2.281378e+03,5.344765e+03
2.282342e+03,5.330159e+03
2.283306e+03,5.321683e+03
2.284271e+03,5.312240e+03
2.285235e+03,5.300955e+03
2.286199e+03,5.293685e+03
2.287163e+03,5.303392e+03
2.288128e+03,5.302877e+03
2.289092e+03,5.288093e+03
2.290056e+03,5.266888e+03
2.291020e+03,5.242608e+03
2.291985e+03,5.242389e+03
2.292949e+03,5.266250e+03
2.293913e+03,5.275992e+03
2.294877e+03,5.266596e+03
2.295842e+03,5.264405e+03
2.296806e+03,5.266744e+03
2.297770e+03,5.270471e+03
2.298734e+03,5.272425e+03
2.299698e+03,5.265318e+03
2.300663e+03,5.251888e+03
2.301627e+03,5.235880e+03
2.302591e+03,5.219044e+03
2.303555e+03,5.212604e+03
2.304520e+03,5.212500e+03
2.305484e+03,5.188175e+03
2.306448e+03,5.158638e+03
2.307412e+03,5.154882e+03
2.308376e+03,5.165245e+03
2.309341e+03,5.167650e+03
2.310305e+03,5.164741e+03
2.311269e+03,5.164511e+03
2.312233e+03,5.165359e+03
2.313198e+03,5.153703e+03
2.314162e+03,5.138792e+03
2.315126e+03,5.135351e+03
2.316090e+03,5.132167e+03
2.317055e+03,5.109575e+03
2.318019e+03,5.096183e+03
2.318983e+03,5.130583e+03
2.319947e+03,5.156174e+03
2.320912e+03,5.126614e+03
2.321876e+03,5.090140e+03
2.322840e+03,5.081604e+03
2.323804e+03,5.078449e+03
2.324769e+03,5.074005e+03
2.325733e+03,5.070404e+03
2.326697e+03,5.064915e+03
2.327661e+03,5.059424e+03
2.328625e+03,5.049345e+03
2.329590e+03,5.042763e+03
2.330554e+03,5.057750e+03
2.331518e+03,5.059319e+03
2.332482e+03,5.040790e+03
2.333447e+03,5.029470e+03
2.334411e+03,5.045842e+03
2.335375e+03,5.046888e+03
2.336339e+03,5.030834e+03
2.337303e+03,5.015533e+03
2.338268e+03,5.005584e+03
2.339232e+03,4.992067e+03
2.340196e+03,4.977384e+03
2.341160e+03,4.966358e+03
2.342125e+03,4.958917e+03
2.343089e+03,4.979283e+03
2.344053e+03,5.011654e+03
2.345017e+03,5.019648e+03
2.345982e+03,5.002984e+03
2.346946e+03,4.994590e+03
2.347910e+03,4.992001e+03
2.348874e+03,4.973637e+03
2.349839e+03,4.940761e+03
2.350803e+03,4.909455e+03
2.351767e+03,4.887403e+03
2.352731e+03,4.893890e+03
2.353696e+03,4.915413e+03
2.354660e+03,4.927511e+03
2.355624e+03,4.930337e+03
2.356588e+03,4.929688e+03
2.357552e+03,4.923978e+03
2.358517e+03,4.906673e+03
2.359481e+03,4.889729e+03
2.360445e+03,4.887123e+03
2.361409e+03,4.885531e+03
2.362374e+03,4.879388e+03
2.363338e+03,4.869808e+03
2.364302e+03,4.866244e+03
2.365266e+03,4.862847e+03
2.366230e+03,4.853397e+03
2.367195e+03,4.843958e+03
2.368159e+03,4.834894e+03
2.369123e+03,4.828007e+03
2.370087e+03,4.828056e+03
2.371052e+03,4.830937e+03
2.372016e+03,4.839179e+03
2.372980e+03,4.835310e+03
2.373944e+03,4.818181e+03
2.374909e+03,4.809311e+03
2.375873e+03,4.820478e+03
2.376837e+03,4.816086e+03
2.377801e+03,4.800902e+03
2.378766e+03,4.793617e+03
2.379730e+03,4.795646e+03
2.380694e+03,4.776750e+03
2.381658e+03,4.749592e+03
2.382623e+03,4.735868e+03
2.383587e+03,4.735781e+03
2.384551e+03,4.762451e+03
2.385515e+03,4.790845e+03
2.386479e+03,4.777969e+03
2.387444e+03,4.747597e+03
2.388408e+03,4.726426e+03
2.389372e+03,4.717034e+03
2.390336e+03,4.722878e+03
2.391301e+03,4.731416e+03
2.392265e+03,4.730883e+03
2.393229e+03,4.725118e+03
2.394193e+03,4.717019e+03
2.395157e+03,4.708380e+03
2.396122e+03,4.699467e+03
2.397086e+03,4.697891e+03
2.398050e+03,4.711560e+03
2.399014e+03,4.706647e+03
2.399979e+03,4.660351e+03
2.400943e+03,4.640692e+03
2.401907e+03,4.657141e+03
2.402871e+03,4.662444e+03
2.403836e+03,4.648066e+03
2.404800e+03,4.641661e+03
2.405764e+03,4.643905e+03
2.406728e+03,4.646308e+03
2.407693e+03,4.645180e+03
2.408657e+03,4.643505e+03
2.409621e+03,4.642994e+03
2.410585e+03,4.638405e+03
2.411550e+03,4.629072e+03
2.412514e+03,4.609446e+03
2.413478e+03,4.587073e+03
2.414442e+03,4.585845e+03
2.415406e+03,4.594034e+03
2.416371e+03,4.598639e+03
2.417335e+03,4.600021e+03
2.418299e+03,4.593990e+03
2.419263e+03,4.589643e+03
2.420228e+03,4.593119e+03
2.421192e+03,4.592291e+03
2.422156e+03,4.571366e+03
2.423120e+03,4.556262e+03
2.424084e+03,4.549402e+03
2.425049e+03,4.541021e+03
2.426013e+03,4.534231e+03
2.426977e+03,4.513134e+03
2.427941e+03,4.481039e+03
2.428906e+03,4.476100e+03
2.429870e+03,4.509694e+03
2.430834e+03,4.528084e+03
2.431798e+03,4.532286e+03
2.432763e+03,4.524935e+03
2.433727e+03,4.508167e+03
2.434691e+03,4.512469e+03
2.435655e+03,4.525766e+03
2.436620e+03,4.524459e+03
2.437584e+03,4.512272e+03
2.438548e+03,4.497257e+03
2.439512e+03,4.483193e+03
2.440477e+03,4.470616e+03
2.441441e+03,4.458985e+03
2.442405e+03,4.452997e+03
2.443369e+03,4.456183e+03
2.444333e+03,4.474351e+03
2.445298e+03,4.485073e+03
2.446262e+03,4.456367e+03
2.447226e+03,4.434712e+03
2.448190e+03,4.430774e+03
2.449155e+03,4.428073e+03
2.450119e+03,4.417603e+03
2.451083e+03,4.416766e+03
2.452047e+03,4.422870e+03
2.453011e+03,4.421921e+03
2.453976e+03,4.412404e+03
2.454940e+03,4.395079e+03
2.455904e+03,4.377644e+03
2.456868e+03,4.374320e+03
2.457833e+03,4.378857e+03
2.458797e+03,4.384166e+03
2.459761e+03,4.387043e+03
2.460725e+03,4.377303e+03
2.461690e+03,4.363288e+03
2.462654e+03,4.360219e+03
2.463618e+03,4.353632e+03
2.464582e+03,4.335079e+03
2.465547e+03,4.321939e+03
2.466511e+03,4.325190e+03
2.467475e+03,4.333332e+03
2.468439e+03,4.343842e+03
2.469404e+03,4.343616e+03
2.470368e+03,4.323485e+03
2.471332e+03,4.307225e+03
2.472296e+03,4.292813e+03
2.473260e+03,4.280696e+03
2.474225e+03,4.271998e+03
2.475189e+03,4.259382e+03
2.476153e+03,4.249531e+03
2.477117e+03,4.255494e+03
2.478082e+03,4.271000e+03
2.479046e+03,4.287336e+03
2.480010e+03,4.296618e+03
2.480974e+03,4.287004e+03
2.481938e+03,4.273264e+03
2.482903e+03,4.279973e+03
2.483867e+03,4.279031e+03
2.484831e+03,4.251833e+03
2.485795e+03,4.226553e+03
2.486760e+03,4.236201e+03
2.487724e+03,4.240354e+03
2.488688e+03,4.233576e+03
2.489652e+03,4.226377e+03
2.490617e+03,4.220196e+03
2.491581e+03,4.209530e+03
2.492545e+03,4.198127e+03
2.493509e+03,4.197557e+03
2.494474e+03,4.205484e+03
2.495438e+03,4.207552e+03
2.496402e+03,4.205676e+03
2.497366e+03,4.207008e+03
2.498331e+03,4.206483e+03
2.499295e+03,4.187314e+03
2.500259e+03,4.166056e+03
2.501223e+03,4.162775e+03
2.502188e+03,4.165132e+03
2.503152e+03,4.159292e+03
2.504116e+03,4.156025e+03
2.505080e+03,4.159651e+03
2.506044e+03,4.157229e+03
2.507009e+03,4.124097e+03
2.507973e+03,4.118827e+03
2.508937e+03,4.141818e+03
2.509901e+03,4.143874e+03
2.510865e+03,4.109823e+03
2.511830e+03,4.097785e+03
2.512794e+03,4.100237e+03
2.513758e+03,4.110340e+03
2.514722e+03,4.123675e+03
2.515687e+03,4.123374e+03
2.516651e+03,4.113928e+03
2.517615e+03,4.100052e+03
2.518579e+03,4.084402e+03
2.519544e+03,4.066652e+03
2.520508e+03,4.054597e+03
2.521472e+03,4.051751e+03
2.522436e+03,4.054106e+03
2.523401e+03,4.064848e+03
2.524365e+03,4.068369e+03
2.525329e+03,4.060935e+03
2.526293e+03,4.059144e+03
2.527258e+03,4.071253e+03
2.528222e+03,4.064170e+03
2.529186e+03,4.046010e+03
2.530150e+03,4.046798e+03
2.531115e+03,4.059013e+03
2.532079e+03,4.044229e+03
2.533043e+03,4.017488e+03
2.534007e+03,3.989812e+03
2.534971e+03,3.971278e+03
2.535936e+03,3.994365e+03
2.536900e+03,4.012941e+03
2.537864e+03,4.009218e+03
2.538828e+03,4.007880e+03
2.539792e+03,4.017450e+03
2.540757e+03,4.017840e+03
2.541721e+03,4.006807e+03
2.542685e+03,4.000587e+03
2.543649e+03,4.002421e+03
2.544614e+03,4.010213e+03
2.545578e+03,4.014215e+03
2.546542e+03,3.996641e+03
2.547506e+03,3.968380e+03
2.548471e+03,3.945464e+03
2.549435e+03,3.934470e+03
2.550399e+03,3.948829e+03
2.551363e+03,3.959848e+03
2.552328e+03,3.939664e+03
2.553292e+03,3.930078e+03
2.554256e+03,3.949572e+03
2.555220e+03,3.958239e+03
2.556185e+03,3.948056e+03
2.557149e+03,3.936689e+03
2.558113e+03,3.926798e+03
2.559077e+03,3.915576e+03
2.560042e+03,3.904548e+03
2.561006e+03,3.916944e+03
2.561970e+03,3.941720e+03
2.562934e+03,3.941294e+03
2.563898e+03,3.929033e+03
2.564863e+03,3.915364e+03
2.565827e+03,3.901001e+03
2.566791e+03,3.895781e+03
2.567755e+03,3.889415e+03
2.568719e+03,3.873540e+03
2.569684e+03,3.863316e+03
2.570648e+03,3.871292e+03
2.571612e+03,3.862050e+03
2.572576e+03,3.843924e+03
2.573541e+03,3.850822e+03
2.574505e+03,3.874967e+03
2.575469e+03,3.877706e+03
2.576433e+03,3.867875e+03
2.577398e+03,3.863845e+03
2.578362e+03,3.860706e+03
2.579326e+03,3.849796e+03
2.580290e+03,3.839733e+03
2.581255e+03,3.831997e+03
2.582219e+03,3.824737e+03
2.583183e+03,3.821617e+03
2.584147e+03,3.810814e+03
2.585112e+03,3.797756e+03
2.586076e+03,3.789740e+03
2.587040e+03,3.787195e+03
2.588004e+03,3.799057e+03
2.588969e+03,3.812510e+03
2.589933e+03,3.804473e+03
2.590897e+03,3.789396e+03
2.591861e+03,3.805298e+03
2.592825e+03,3.812792e+03
2.593790e+03,3.779818e+03
2.594754e+03,3.751211e+03
2.595718e+03,3.761804e+03
2.596682e+03,3.770749e+03
2.597646e+03,3.768414e+03
2.598611e+03,3.765242e+03
2.599575e+03,3.766067e+03
2.600539e+03,3.765243e+03
2.601503e+03,3.760590e+03
2.602468e+03,3.752261e+03
2.603432e+03,3.741883e+03
2.604396e+03,3.738879e+03
2.605360e+03,3.738901e+03
2.606325e+03,3.733675e+03
2.607289e+03,3.728683e+03
2.608253e+03,3.727942e+03
2.609217e+03,3.724444e+03
2.610182e+03,3.705046e+03
2.611146e+03,3.705496e+03
2.612110e+03,3.723680e+03
2.613074e+03,3.719918e+03
2.614039e+03,3.697942e+03
2.615003e+03,3.710599e+03
2.615967e+03,3.726215e+03
2.616931e+03,3.700041e+03
2.617896e+03,3.666805e+03
2.618860e+03,3.673799e+03
2.619824e+03,3.681794e+03
2.620788e+03,3.673874e+03
2.621752e+03,3.666912e+03
2.622717e+03,3.676677e+03
2.623681e+03,3.673488e+03
2.624645e+03,3.657282e+03
2.625609e+03,3.651215e+03
2.626573e+03,3.654630e+03
2.627538e+03,3.652162e+03
2.628502e+03,3.644630e+03
2.629466e+03,3.624289e+03
2.630430e+03,3.608562e+03
2.631395e+03,3.634755e+03
2.632359e+03,3.646448e+03
2.633323e+03,3.617183e+03
2.634287e+03,3.604924e+03
2.635252e+03,3.623533e+03
2.636216e+03,3.632910e+03
2.637180e+03,3.622530e+03
2.638144e+03,3.603012e+03
2.639109e+03,3.580607e+03
2.640073e+03,3.581827e+03
2.641037e+03,3.596202e+03
2.642001e+03,3.598819e+03
2.642966e+03,3.607418e+03
2.643930e+03,3.635753e+03
2.644894e+03,3.647123e+03
2.645858e+03,3.595662e+03
2.646823e+03,3.571613e+03
2.647787e+03,3.574993e+03
2.648751e+03,3.583707e+03
2.649715e+03,3.591358e+03
2.650679e+03,3.588608e+03
2.651644e+03,3.580481e+03
2.652608e+03,3.572708e+03
2.653572e+03,3.568993e+03
2.654536e+03,3.586408e+03
2.655500e+03,3.591222e+03
2.656465e+03,3.567787e+03
2.657429e+03,3.557397e+03
2.658393e+03,3.572775e+03
2.659357e+03,3.559675e+03
2.660322e+03,3.522288e+03
2.661286e+03,3.513248e+03
2.662250e+03,3.522738e+03
2.663214e+03,3.520102e+03
2.664179e+03,3.513666e+03
2.665143e+03,3.521463e+03
2.666107e+03,3.521156e+03
2.667071e+03,3.499075e+03
2.668036e+03,3.488312e+03
2.669000e+03,3.511922e+03
2.669964e+03,3.515052e+03
2.670928e+03,3.499020e+03
2.671893e+03,3.489449e+03
2.672857e+03,3.489740e+03
2.673821e+03,3.495309e+03
2.674785e+03,3.497411e+03
2.675750e+03,3.489591e+03
2.676714e+03,3.479791e+03
2.677678e+03,3.472265e+03
2.678642e+03,3.468333e+03
2.679606e+03,3.469417e+03
2.680571e+03,3.467061e+03
2.681535e+03,3.459112e+03
2.682499e+03,3.451777e+03
2.683463e+03,3.445667e+03
2.684427e+03,3.451445e+03
2.685392e+03,3.459437e+03
2.686356e+03,3.444651e+03
2.687320e+03,3.425940e+03
2.688284e+03,3.412116e+03
2.689249e+03,3.413377e+03
2.690213e+03,3.428583e+03
2.691177e+03,3.429142e+03
2.692141e+03,3.407620e+03
2.693106e+03,3.394886e+03
2.694070e+03,3.390778e+03
2.695034e+03,3.395189e+03
2.695998e+03,3.401006e+03
2.696963e+03,3.394680e+03
2.697927e+03,3.391784e+03
2.698891e+03,3.396529e+03
2.699855e+03,3.402269e+03
2.700820e+03,3.410242e+03
2.701784e+03,3.406472e+03
2.702748e+03,3.390023e+03
2.703712e+03,3.382703e+03
2.704677e+03,3.381680e+03
2.705641e+03,3.380593e+03
2.706605e+03,3.381591e+03
2.707569e+03,3.379338e+03
2.708533e+03,3.377861e+03
2.709498e+03,3.377819e+03
2.710462e+03,3.374769e+03
2.711426e+03,3.370140e+03
2.712390e+03,3.363399e+03
2.713354e+03,3.355724e+03
2.714319e+03,3.358924e+03
2.715283e+03,3.362967e+03
2.716247e+03,3.333252e+03
2.717211e+03,3.310352e+03
2.718176e+03,3.323843e+03
2.719140e+03,3.341007e+03
2.720104e+03,3.336705e+03
2.721068e+03,3.343191e+03
2.722033e+03,3.362230e+03
2.722997e+03,3.357118e+03
2.723961e+03,3.332947e+03
2.724925e+03,3.322567e+03
2.725890e+03,3.319714e+03
2.726854e+03,3.310664e+03
2.727818e+03,3.303616e+03
2.728782e+03,3.297714e+03
2.729747e+03,3.299471e+03
2.730711e+03,3.322745e+03
2.731675e+03,3.320407e+03
2.732639e+03,3.299928e+03
2.733604e+03,3.295491e+03
2.734568e+03,3.300136e+03
2.735532e+03,3.290505e+03
2.736496e+03,3.278295e+03
2.737460e+03,3.275888e+03
2.738425e+03,3.269269e+03
2.739389e+03,3.244097e+03
2.740353e+03,3.238491e+03
2.741317e+03,3.258586e+03
2.742281e+03,3.263162e+03
2.743246e+03,3.259142e+03
2.744210e+03,3.276491e+03
2.745174e+03,3.289822e+03
2.746138e+03,3.262963e+03
2.747103e+03,3.242823e+03
2.748067e+03,3.249970e+03
2.749031e+03,3.258569e+03
2.749995e+03,3.253717e+03
2.750960e+03,3.252641e+03
2.751924e+03,3.252097e+03
2.752888e+03,3.238300e+03
2.753852e+03,3.218158e+03
2.754817e+03,3.208775e+03
2.755781e+03,3.204425e+03
2.756745e+03,3.201343e+03
2.757709e+03,3.197704e+03
2.758674e+03,3.189558e+03
2.759638e+03,3.188977e+03
2.760602e+03,3.197675e+03
2.761566e+03,3.195188e+03
2.762531e+03,3.190093e+03
2.763495e+03,3.190455e+03
2.764459e+03,3.192368e+03
2.765423e+03,3.197949e+03
2.766387e+03,3.199025e+03
2.767352e+03,3.196158e+03
2.768316e+03,3.193509e+03
2.769280e+03,3.191281e+03
2.770244e+03,3.168406e+03
2.771208e+03,3.143502e+03
2.772173e+03,3.151419e+03
2.773137e+03,3.164069e+03
2.774101e+03,3.152527e+03
2.775065e+03,3.148829e+03
2.776030e+03,3.168012e+03
2.776994e+03,3.161429e+03
2.777958e+03,3.132242e+03
2.778922e+03,3.146378e+03
2.779887e+03,3.183391e+03
2.780851e+03,3.169056e+03
2.781815e+03,3.138499e+03
2.782779e+03,3.120747e+03
2.783744e+03,3.112950e+03
2.784708e+03,3.110033e+03
2.785672e+03,3.122162e+03
2.786636e+03,3.144197e+03
2.787601e+03,3.139724e+03
2.788565e+03,3.119263e+03
2.789529e+03,3.099363e+03
2.790493e+03,3.088887e+03
2.791458e+03,3.099014e+03
2.792422e+03,3.110096e+03
2.793386e+03,3.120402e+03
2.794350e+03,3.111332e+03
2.795314e+03,3.077053e+03
2.796279e+03,3.086669e+03
2.797243e+03,3.110469e+03
2.798207e+03,3.107586e+03
2.799171e+03,3.093161e+03
2.800135e+03,3.072987e+03
2.801100e+03,3.063395e+03
2.802064e+03,3.071590e+03
2.803028e+03,3.088203e+03
2.803992e+03,3.105490e+03
2.804957e+03,3.097191e+03
2.805921e+03,3.076654e+03
2.806885e+03,3.062748e+03
2.807849e+03,3.052034e+03
2.808814e+03,3.041384e+03
2.809778e+03,3.038915e+03
2.810742e+03,3.054368e+03
2.811706e+03,3.051911e+03
2.812671e+03,3.035697e+03
2.813635e+03,3.035406e+03
2.814599e+03,3.041721e+03
2.815563e+03,3.038077e+03
2.816528e+03,3.034526e+03
2.817492e+03,3.037172e+03
2.818456e+03,3.027289e+03
2.819420e+03,3.003974e+03
2.820385e+03,3.003551e+03
2.821349e+03,3.022670e+03
2.822313e+03,3.025395e+03
2.823277e+03,3.021426e+03
2.824241e+03,3.016158e+03
2.825206e+03,3.018600e+03
2.826170e+03,3.043742e+03
2.827134e+03,3.033404e+03
2.828098e+03,2.986324e+03
2.829063e+03,2.969801e+03
2.830027e+03,2.973309e+03
2.830991e+03,2.979586e+03
2.831955e+03,2.989393e+03
2.832919e+03,2.997955e+03
2.833884e+03,3.005048e+03
2.834848e+03,3.009530e+03
2.835812e+03,3.011634e+03
2.836776e+03,3.011649e+03
2.837741e+03,2.993040e+03
2.838705e+03,2.978703e+03
2.839669e+03,2.996848e+03
2.840633e+03,3.009056e+03
2.841598e+03,2.994796e+03
2.842562e+03,2.978421e+03
2.843526e+03,2.968353e+03
2.844490e+03,2.962043e+03
2.845455e+03,2.956838e+03
2.846419e+03,2.953689e+03
2.847383e+03,2.950635e+03
2.848347e+03,2.942856e+03
2.849312e+03,2.939202e+03
2.850276e+03,2.940310e+03
2.851240e+03,2.933903e+03
2.852204e+03,2.920702e+03
2.853168e+03,2.926192e+03
2.854133e+03,2.937875e+03
2.855097e+03,2.943092e+03
2.856061e+03,2.945316e+03
2.857025e+03,2.942188e+03
2.857990e+03,2.944663e+03
2.858954e+03,2.957689e+03
2.859918e+03,2.940702e+03
2.860882e+03,2.918520e+03
2.861846e+03,2.934802e+03
2.862811e+03,2.948329e+03
2.863775e+03,2.911005e+03
2.864739e+03,2.898536e+03
2.865703e+03,2.931795e+03
2.866668e+03,2.917339e+03
2.867632e+03,2.877735e+03
2.868596e+03,2.894162e+03
2.869560e+03,2.922281e+03
2.870525e+03,2.907081e+03
2.871489e+03,2.902070e+03
2.872453e+03,2.918956e+03
2.873417e+03,2.914818e+03
2.874382e+03,2.888371e+03
2.875346e+03,2.864887e+03
2.876310e+03,2.854837e+03
2.877274e+03,2.874743e+03
2.878239e+03,2.885009e+03
2.879203e+03,2.868955e+03
2.880167e+03,2.867433e+03
2.881131e+03,2.897400e+03
2.882095e+03,2.898754e+03
2.883060e+03,2.887034e+03
2.884024e+03,2.885046e+03
2.884988e+03,2.889795e+03
2.885952e+03,2.903538e+03
2.886917e+03,2.892567e+03
2.887881e+03,2.849949e+03
2.888845e+03,2.845293e+03
2.889809e+03,2.863250e+03
2.890773e+03,2.860492e+03
2.891738e+03,2.850228e+03
2.892702e+03,2.855189e+03
2.893666e+03,2.858632e+03
2.894630e+03,2.857281e+03
2.895595e+03,2.847159e+03
2.896559e+03,2.834465e+03
2.897523e+03,2.856538e+03
2.898487e+03,2.885533e+03
2.899452e+03,2.893723e+03
2.900416e+03,2.888652e+03
2.901380e+03,2.873756e+03
2.902344e+03,2.872933e+03
2.903309e+03,2.885763e+03
2.904273e+03,2.874973e+03
2.905237e+03,2.853981e+03
2.906201e+03,2.836709e+03
2.907166e+03,2.822066e+03
2.908130e+03,2.808642e+03
2.909094e+03,2.810079e+03
2.910058e+03,2.825103e+03
2.911022e+03,2.811301e+03
2.911987e+03,2.795739e+03
2.912951e+03,2.806536e+03
2.913915e+03,2.819723e+03
2.914879e+03,2.816501e+03
2.915844e+03,2.819547e+03
2.916808e+03,2.828894e+03
2.917772e+03,2.821816e+03
2.918736e+03,2.809282e+03
2.919700e+03,2.805301e+03
2.920665e+03,2.806184e+03
2.921629e+03,2.821471e+03
2.922593e+03,2.803569e+03
2.923557e+03,2.765090e+03
2.924522e+03,2.769080e+03
2.925486e+03,2.796012e+03
2.926450e+03,2.804929e+03
2.927414e+03,2.803100e+03
2.928379e+03,2.788668e+03
2.929343e+03,2.783732e+03
2.930307e+03,2.786016e+03
2.931271e+03,2.778746e+03
2.932236e+03,2.767044e+03
2.933200e+03,2.746996e+03
2.934164e+03,2.745824e+03
2.935128e+03,2.773030e+03
2.936093e+03,2.779756e+03
2.937057e+03,2.764767e+03
2.938021e+03,2.733312e+03
2.938985e+03,2.705656e+03
2.939949e+03,2.710093e+03
2.940914e+03,2.724562e+03
2.941878e+03,2.741055e+03
2.942842e+03,2.739679e+03
2.943806e+03,2.716855e+03
2.944771e+03,2.732165e+03
2.945735e+03,2.755892e+03
2.946699e+03,2.740790e+03
2.947663e+03,2.729807e+03
2.948627e+03,2.733483e+03
2.949592e+03,2.737337e+03
2.950556e+03,2.739257e+03
2.951520e+03,2.718987e+03
2.952484e+03,2.700538e+03
2.953449e+03,2.710376e+03
2.954413e+03,2.729512e+03
2.955377e+03,2.752333e+03
2.956341e+03,2.751514e+03
2.957306e+03,2.728089e+03
2.958270e+03,2.719512e+03
2.959234e+03,2.707380e+03
2.960198e+03,2.680344e+03
2.961163e+03,2.676963e+03
2.962127e+03,2.711506e+03
2.963091e+03,2.732576e+03
2.964055e+03,2.729046e+03
2.965020e+03,2.693319e+03
2.965984e+03,2.667821e+03
2.966948e+03,2.679675e+03
2.967912e+03,2.693964e+03
2.968876e+03,2.700856e+03
2.969841e+03,2.663890e+03
2.970805e+03,2.621407e+03
2.971769e+03,2.657793e+03
2.972733e+03,2.691043e+03
2.973698e+03,2.657290e+03
2.974662e+03,2.640173e+03
2.975626e+03,2.662443e+03
2.976590e+03,2.670667e+03
2.977554e+03,2.669020e+03
2.978519e+03,2.660628e+03
2.979483e+03,2.651942e+03
2.980447e+03,2.649902e+03
2.981411e+03,2.649580e+03
2.982376e+03,2.651877e+03
2.983340e+03,2.655646e+03
2.984304e+03,2.659071e+03
2.985268e+03,2.662503e+03
2.986233e+03,2.659415e+03
2.987197e+03,2.644358e+03
2.988161e+03,2.642784e+03
2.989125e+03,2.652418e+03
2.990090e+03,2.660090e+03
2.991054e+03,2.654018e+03
2.992018e+03,2.621128e+03
2.992982e+03,2.614836e+03
2.993947e+03,2.668188e+03
2.994911e+03,2.670450e+03
2.995875e+03,2.643031e+03
2.996839e+03,2.618742e+03
2.997803e+03,2.597508e+03
2.998768e+03,2.580514e+03
2.999732e+03,2.583392e+03
3.000696e+03,2.610723e+03
3.001660e+03,2.625910e+03
3.002625e+03,2.629299e+03
3.003589e+03,2.625922e+03
3.004553e+03,2.619993e+03
3.005517e+03,2.615895e+03
3.006481e+03,2.611573e+03
3.007446e+03,2.605710e+03
3.008410e+03,2.606351e+03
3.009374e+03,2.611927e+03
3.010338e+03,2.625211e+03
3.011303e+03,2.619747e+03
3.012267e+03,2.582029e+03
3.013231e+03,2.589415e+03
3.014195e+03,2.612039e+03
3.015160e+03,2.591262e+03
3.016124e+03,2.575738e+03
3.017088e+03,2.580893e+03
3.018052e+03,2.598191e+03
3.019017e+03,2.618011e+03
3.019981e+03,2.598849e+03
3.020945e+03,2.581824e+03
3.021909e+03,2.608038e+03
3.022874e+03,2.608582e+03
3.023838e+03,2.574053e+03
3.024802e+03,2.556355e+03
3.025766e+03,2.559411e+03
3.026730e+03,2.594438e+03
3.027695e+03,2.609193e+03
3.028659e+03,2.582598e+03
3.029623e+03,2.569048e+03
3.030587e+03,2.571618e+03
3.031552e+03,2.559412e+03
3.032516e+03,2.545113e+03
3.033480e+03,2.552484e+03
3.034444e+03,2.563490e+03
3.035408e+03,2.574216e+03
3.036373e+03,2.571203e+03
3.037337e+03,2.560540e+03
3.038301e+03,2.571443e+03
3.039265e+03,2.577121e+03
3.040230e+03,2.550191e+03
3.041194e+03,2.544965e+03
3.042158e+03,2.554371e+03
3.043122e+03,2.541423e+03
3.044087e+03,2.525681e+03
3.045051e+03,2.531164e+03
3.046015e+03,2.548648e+03
3.046979e+03,2.579438e+03
3.047944e+03,2.535113e+03
3.048908e+03,2.479928e+03
3.049872e+03,2.513582e+03
3.050836e+03,2.552881e+03
3.051801e+03,2.539807e+03
3.052765e+03,2.527884e+03
3.053729e+03,2.524532e+03
3.054693e+03,2.550056e+03
3.055657e+03,2.575574e+03
3.056622e+03,2.578547e+03
3.057586e+03,2.572516e+03
3.058550e+03,2.564452e+03
3.059514e+03,2.543481e+03
3.060479e+03,2.523291e+03
3.061443e+03,2.521637e+03
3.062407e+03,2.520966e+03
3.063371e+03,2.515659e+03
3.064335e+03,2.519373e+03
3.065300e+03,2.529040e+03
3.066264e+03,2.511701e+03
3.067228e+03,2.498528e+03
3.068192e+03,2.508331e+03
3.069157e+03,2.520595e+03
3.070121e+03,2.531222e+03
3.071085e+03,2.542824e+03
3.072049e+03,2.547411e+03
3.073014e+03,2.529429e+03
3.073978e+03,2.500468e+03
3.074942e+03,2.464732e+03
3.075906e+03,2.485789e+03
3.076871e+03,2.525402e+03
3.077835e+03,2.519316e+03
3.078799e+03,2.513180e+03
3.079763e+03,2.540392e+03
3.080728e+03,2.527498e+03
3.081692e+03,2.494614e+03
3.082656e+03,2.529817e+03
3.083620e+03,2.554542e+03
3.084584e+03,2.526695e+03
3.085549e+03,2.520877e+03
3.086513e+03,2.552763e+03
3.087477e+03,2.530212e+03
3.088441e+03,2.495833e+03
3.089406e+03,2.503779e+03
3.090370e+03,2.507845e+03
3.091334e+03,2.500501e+03
3.092298e+03,2.488364e+03
3.093262e+03,2.479763e+03
3.094227e+03,2.499420e+03
3.095191e+03,2.510385e+03
3.096155e+03,2.498972e+03
3.097119e+03,2.473554e+03
3.098084e+03,2.451373e+03
3.099048e+03,2.458149e+03
3.100012e+03,2.475684e+03
3.100976e+03,2.495379e+03
3.101941e+03,2.497145e+03
3.102905e+03,2.483315e+03
3.103869e+03,2.479492e+03
3.104833e+03,2.471508e+03
3.105798e+03,2.452028e+03
3.106762e+03,2.443904e+03
3.107726e+03,2.454547e+03
3.108690e+03,2.500931e+03
3.109655e+03,2.536867e+03
3.110619e+03,2.489960e+03
3.111583e+03,2.465790e+03
3.112547e+03,2.478664e+03
3.113511e+03,2.486548e+03
3.114476e+03,2.489255e+03
3.115440e+03,2.495238e+03
3.116404e+03,2.502909e+03
3.117368e+03,2.517695e+03
3.118333e+03,2.529475e+03
3.119297e+03,2.526802e+03
3.120261e+03,2.489781e+03
3.121225e+03,2.462581e+03
3.122189e+03,2.468116e+03
3.123154e+03,2.466170e+03
3.124118e+03,2.458863e+03
3.125082e+03,2.499454e+03
3.126046e+03,2.510797e+03
3.127011e+03,2.455364e+03
3.127975e+03,2.439931e+03
3.128939e+03,2.466952e+03
3.129903e+03,2.516907e+03
3.130868e+03,2.547217e+03
3.131832e+03,2.496884e+03
3.132796e+03,2.460647e+03
3.133760e+03,2.446720e+03
3.134725e+03,2.438721e+03
3.135689e+03,2.444726e+03
3.136653e+03,2.474881e+03
3.137617e+03,2.486566e+03
3.138582e+03,2.468513e+03
3.139546e+03,2.488395e+03
3.140510e+03,2.509245e+03
3.141474e+03,2.496332e+03
3.142438e+03,2.480409e+03
3.143403e+03,2.470263e+03
3.144367e+03,2.478334e+03
3.145331e+03,2.485018e+03
3.146295e+03,2.434633e+03
3.147260e+03,2.428567e+03
3.148224e+03,2.487801e+03
3.149188e+03,2.499496e+03
3.150152e+03,2.483051e+03
3.151116e+03,2.470011e+03
3.152081e+03,2.452878e+03
3.153045e+03,2.422380e+03
3.154009e+03,2.432181e+03
3.154973e+03,2.460099e+03
3.155938e+03,2.439888e+03
3.156902e+03,2.440848e+03
3.157866e+03,2.473093e+03
3.158830e+03,2.465671e+03
3.159795e+03,2.435674e+03
3.160759e+03,2.411616e+03
3.161723e+03,2.407247e+03
3.162687e+03,2.456460e+03
3.163652e+03,2.449134e+03
3.164616e+03,2.430209e+03
3.165580e+03,2.489683e+03
3.166544e+03,2.522381e+03
3.167509e+03,2.490573e+03
3.168473e+03,2.465240e+03
3.169437e+03,2.450849e+03
3.170401e+03,2.418465e+03
3.171365e+03,2.410472e+03
3.172330e+03,2.448782e+03
3.173294e+03,2.463873e+03
3.174258e+03,2.453331e+03
3.175222e+03,2.415056e+03
3.176187e+03,2.410175e+03
3.177151e+03,2.492179e+03
3.178115e+03,2.496553e+03
3.179079e+03,2.452908e+03
3.180043e+03,2.490463e+03
3.181008e+03,2.530558e+03
3.181972e+03,2.544942e+03
3.182936e+03,2.512400e+03
3.183900e+03,2.459079e+03
3.184865e+03,2.459080e+03
3.185829e+03,2.476306e+03
3.186793e+03,2.519839e+03
3.187757e+03,2.511786e+03
3.188722e+03,2.474312e+03
3.189686e+03,2.458165e+03
3.190650e+03,2.464957e+03
3.191614e+03,2.488173e+03
3.192579e+03,2.506511e+03
3.193543e+03,2.512771e+03
3.194507e+03,2.478712e+03
3.195471e+03,2.462124e+03
3.196436e+03,2.486097e+03
3.197400e+03,2.495464e+03
3.198364e+03,2.499681e+03
3.199328e+03,2.528072e+03
3.200292e+03,2.533102e+03
3.201257e+03,0.000000e+00
3.202221e+03,0.000000e+00
3.203185e+03,0.000000e+00
3.204149e+03,0.000000e+00
3.205114e+03,0.000000e+00
3.206078e+03,0.000000e+00
3.207042e+03,0.000000e+00
3.208006e+03,0.000000e+00
3.208970e+03,0.000000e+00
3.209935e+03,0.000000e+00
3.210899e+03,0.000000e+00
3.211863e+03,0.000000e+00
3.212827e+03,0.000000e+00
3.213792e+03,0.000000e+00
3.214756e+03,0.000000e+00
3.215720e+03,0.000000e+00
3.216684e+03,0.000000e+00
3.217649e+03,0.000000e+00
3.218613e+03,0.000000e+00
3.219577e+03,0.000000e+00
3.220541e+03,0.000000e+00
3.221506e+03,0.000000e+00
3.222470e+03,0.000000e+00
3.223434e+03,0.000000e+00
3.224398e+03,0.000000e+00
3.225363e+03,0.000000e+00
3.226327e+03,0.000000e+00
3.227291e+03,0.000000e+00
3.228255e+03,0.000000e+00
3.229219e+03,0.000000e+00
3.230184e+03,0.000000e+00
3.231148e+03,0.000000e+00
3.232112e+03,0.000000e+00
3.233076e+03,0.000000e+00
3.234041e+03,0.000000e+00
3.235005e+03,0.000000e+00
3.235969e+03,0.000000e+00
3.236933e+03,0.000000e+00
3.237897e+03,0.000000e+00
3.238862e+03,0.000000e+00
3.239826e+03,0.000000e+00
3.240790e+03,0.000000e+00
3.241754e+03,0.000000e+00
3.242719e+03,0.000000e+00
3.243683e+03,0.000000e+00
3.244647e+03,0.000000e+00
3.245611e+03,0.000000e+00
3.246576e+03,0.000000e+00
3.247540e+03,0.000000e+00
3.248504e+03,0.000000e+00
3.249468e+03,0.000000e+00
3.250433e+03,0.000000e+00
3.251397e+03,0.000000e+00
3.252361e+03,0.000000e+00
3.253325e+03,0.000000e+00
3.254290e+03,0.000000e+00
3.255254e+03,0.000000e+00
3.256218e+03,0.000000e+00
3.257182e+03,0.000000e+00
3.258146e+03,0.000000e+00
3.259111e+03,0.000000e+00
3.260075e+03,0.000000e+00
3.261039e+03,0.000000e+00
3.262003e+03,0.000000e+00
3.262968e+03,0.000000e+00
3.263932e+03,0.000000e+00
3.264896e+03,0.000000e+00
3.265860e+03,0.000000e+00
3.266824e+03,0.000000e+00
3.267789e+03,0.000000e+00
3.268753e+03,0.000000e+00
3.269717e+03,0.000000e+00
3.270681e+03,0.000000e+00
3.271646e+03,0.000000e+00
3.272610e+03,0.000000e+00
3.273574e+03,0.000000e+00
3.274538e+03,0.000000e+00
3.275503e+03,0.000000e+00
3.276467e+03,0.000000e+00
3.277431e+03,0.000000e+00
3.278395e+03,0.000000e+00
3.279360e+03,0.000000e+00
3.280324e+03,0.000000e+00
3.281288e+03,0.000000e+00
3.282252e+03,0.000000e+00
3.283217e+03,0.000000e+00
3.284181e+03,0.000000e+00
3.285145e+03,0.000000e+00
3.286109e+03,0.000000e+00
3.287073e+03,0.000000e+00
3.288038e+03,0.000000e+00
3.289002e+03,0.000000e+00
3.289966e+03,0.000000e+00
3.290930e+03,0.000000e+00
3.291895e+03,0.000000e+00
3.292859e+03,0.000000e+00
3.293823e+03,0.000000e+00
3.294787e+03,0.000000e+00
3.295751e+03,0.000000e+00
3.296716e+03,0.000000e+00
3.297680e+03,0.000000e+00
3.298644e+03,0.000000e+00
3.299608e+03,0.000000e+00
3.300573e+03,0.000000e+00
3.301537e+03,0.000000e+00
3.302501e+03,0.000000e+00
3.303465e+03,0.000000e+00
3.304430e+03,0.000000e+00
3.305394e+03,0.000000e+00
3.306358e+03,0.000000e+00
3.307322e+03,0.000000e+00
3.308287e+03,0.000000e+00
3.309251e+03,0.000000e+00
3.310215e+03,0.000000e+00
3.311179e+03,0.000000e+00
3.312144e+03,0.000000e+00
3.313108e+03,0.000000e+00
3.314072e+03,0.000000e+00
3.315036e+03,0.000000e+00
3.316000e+03,0.000000e+00
3.316965e+03,0.000000e+00
3.317929e+03,0.000000e+00
3.318893e+03,0.000000e+00
3.319857e+03,0.000000e+00
3.320822e+03,0.000000e+00
3.321786e+03,0.000000e+00
3.322750e+03,0.000000e+00
3.323714e+03,0.000000e+00
3.324678e+03,0.000000e+00
3.325643e+03,0.000000e+00
3.326607e+03,0.000000e+00
3.327571e+03,0.000000e+00
3.328535e+03,0.000000e+00
3.329500e+03,0.000000e+00
3.330464e+03,0.000000e+00
3.331428e+03,0.000000e+00
3.332392e+03,0.000000e+00
3.333357e+03,0.000000e+00
3.334321e+03,0.000000e+00
3.335285e+03,0.000000e+00
3.336249e+03,0.000000e+00
3.337214e+03,0.000000e+00
3.338178e+03,0.000000e+00
3.339142e+03,0.000000e+00
3.340106e+03,0.000000e+00
3.341071e+03,0.000000e+00
3.342035e+03,0.000000e+00
3.342999e+03,0.000000e+00
3.343963e+03,0.000000e+00
3.344927e+03,0.000000e+00
3.345892e+03,0.000000e+00
3.346856e+03,0.000000e+00
3.347820e+03,0.000000e+00
3.348784e+03,0.000000e+00
3.349749e+03,0.000000e+00
3.350713e+03,0.000000e+00
3.351677e+03,0.000000e+00
3.352641e+03,0.000000e+00
3.353605e+03,0.000000e+00
3.354570e+03,0.000000e+00
3.355534e+03,0.000000e+00
3.356498e+03,0.000000e+00
3.357462e+03,0.000000e+00
3.358427e+03,0.000000e+00
3.359391e+03,0.000000e+00
3.360355e+03,0.000000e+00
3.361319e+03,0.000000e+00
3.362284e+03,0.000000e+00
3.363248e+03,0.000000e+00
3.364212e+03,0.000000e+00
3.365176e+03,0.000000e+00
3.366141e+03,0.000000e+00
3.367105e+03,0.000000e+00
3.368069e+03,0.000000e+00
3.369033e+03,0.000000e+00
3.369998e+03,0.000000e+00
3.370962e+03,0.000000e+00
3.371926e+03,0.000000e+00
3.372890e+03,0.000000e+00
3.373854e+03,0.000000e+00
3.374819e+03,0.000000e+00
3.375783e+03,0.000000e+00
3.376747e+03,0.000000e+00
3.377711e+03,0.000000e+00
3.378676e+03,0.000000e+00
3.379640e+03,0.000000e+00
3.380604e+03,0.000000e+00
3.381568e+03,0.000000e+00
3.382532e+03,0.000000e+00
3.383497e+03,0.000000e+00
3.384461e+03,0.000000e+00
3.385425e+03,0.000000e+00
3.386389e+03,0.000000e+00
3.387354e+03,0.000000e+00
3.388318e+03,0.000000e+00
3.389282e+03,0.000000e+00
3.390246e+03,0.000000e+00
3.391211e+03,0.000000e+00
3.392175e+03,0.000000e+00
3.393139e+03,0.000000e+00
3.394103e+03,0.000000e+00
3.395068e+03,0.000000e+00
3.396032e+03,0.000000e+00
3.396996e+03,0.000000e+00
3.397960e+03,0.000000e+00
3.398925e+03,0.000000e+00
3.399889e+03,0.000000e+00
3.400853e+03,0.000000e+00
3.401817e+03,0.000000e+00
3.402781e+03,0.000000e+00
3.403746e+03,0.000000e+00
3.404710e+03,0.000000e+00
3.405674e+03,0.000000e+00
3.406638e+03,0.000000e+00
3.407603e+03,0.000000e+00
3.408567e+03,0.000000e+00
3.409531e+03,0.000000e+00
3.410495e+03,0.000000e+00
3.411459e+03,0.000000e+00
3.412424e+03,0.000000e+00
3.413388e+03,0.000000e+00
3.414352e+03,0.000000e+00
3.415316e+03,0.000000e+00
3.416281e+03,0.000000e+00
3.417245e+03,0.000000e+00
3.418209e+03,0.000000e+00
3.419173e+03,0.000000e+00
3.420138e+03,0.000000e+00
3.421102e+03,0.000000e+00
3.422066e+03,0.000000e+00
3.423030e+03,0.000000e+00
3.423995e+03,0.000000e+00
3.424959e+03,0.000000e+00
3.425923e+03,0.000000e+00
3.426887e+03,0.000000e+00
3.427852e+03,0.000000e+00
3.428816e+03,0.000000e+00
3.429780e+03,0.000000e+00
3.430744e+03,0.000000e+00
3.431708e+03,0.000000e+00
3.432673e+03,0.000000e+00
3.433637e+03,0.000000e+00
3.434601e+03,0.000000e+00
3.435565e+03,0.000000e+00
3.436530e+03,0.000000e+00
3.437494e+03,0.000000e+00
3.438458e+03,0.000000e+00
3.439422e+03,0.000000e+00
3.440386e+03,0.000000e+00
3.441351e+03,0.000000e+00
3.442315e+03,0.000000e+00
3.443279e+03,0.000000e+00
3.444243e+03,0.000000e+00
3.445208e+03,0.000000e+00
3.446172e+03,0.000000e+00
3.447136e+03,0.000000e+00
3.448100e+03,0.000000e+00
3.449065e+03,0.000000e+00
3.450029e+03,0.000000e+00
3.450993e+03,0.000000e+00
3.451957e+03,0.000000e+00
3.452922e+03,0.000000e+00
3.453886e+03,0.000000e+00
3.454850e+03,0.000000e+00
3.455814e+03,0.000000e+00
3.456779e+03,0.000000e+00
3.457743e+03,0.000000e+00
3.458707e+03,0.000000e+00
3.459671e+03,0.000000e+00
3.460635e+03,0.000000e+00
3.461600e+03,0.000000e+00
3.462564e+03,0.000000e+00
3.463528e+03,0.000000e+00
3.464492e+03,0.000000e+00
3.465457e+03,0.000000e+00
3.466421e+03,0.000000e+00
3.467385e+03,0.000000e+00
3.468349e+03,0.000000e+00
3.469313e+03,0.000000e+00
3.470278e+03,0.000000e+00
3.471242e+03,0.000000e+00
3.472206e+03,0.000000e+00
3.473170e+03,0.000000e+00
3.474135e+03,0.000000e+00
3.475099e+03,0.000000e+00
3.476063e+03,0.000000e+00
3.477027e+03,0.000000e+00
3.477992e+03,0.000000e+00
3.478956e+03,0.000000e+00
3.479920e+03,0.000000e+00
3.480884e+03,0.000000e+00
3.481849e+03,0.000000e+00
3.482813e+03,0.000000e+00
3.483777e+03,0.000000e+00
3.484741e+03,0.000000e+00
3.485706e+03,0.000000e+00
3.486670e+03,0.000000e+00
3.487634e+03,0.000000e+00
3.488598e+03,0.000000e+00
3.489563e+03,0.000000e+00
3.490527e+03,0.000000e+00
3.491491e+03,0.000000e+00
3.492455e+03,0.000000e+00
3.493419e+03,0.000000e+00
3.494384e+03,0.000000e+00
3.495348e+03,0.000000e+00
3.496312e+03,0.000000e+00
3.497276e+03,0.000000e+00
3.498240e+03,0.000000e+00
3.499205e+03,0.000000e+00
3.500169e+03,0.000000e+00
