9.931763e+01,0.000000e+00
1.002819e+02,0.000000e+00
1.012461e+02,0.000000e+00
1.022103e+02,0.000000e+00
1.031746e+02,0.000000e+00
1.041388e+02,0.000000e+00
1.051030e+02,0.000000e+00
1.060673e+02,0.000000e+00
1.070315e+02,0.000000e+00
1.079957e+02,0.000000e+00
1.089600e+02,0.000000e+00
1.099242e+02,0.000000e+00
1.108884e+02,0.000000e+00
1.118527e+02,0.000000e+00
1.128169e+02,0.000000e+00
1.137811e+02,0.000000e+00
1.147454e+02,0.000000e+00
1.157096e+02,0.000000e+00
1.166738e+02,0.000000e+00
1.176381e+02,0.000000e+00
1.186023e+02,0.000000e+00
1.195665e+02,0.000000e+00
1.205308e+02,0.000000e+00
1.214950e+02,0.000000e+00
1.224592e+02,0.000000e+00
1.234235e+02,0.000000e+00
1.243877e+02,0.000000e+00
1.253519e+02,0.000000e+00
1.263162e+02,0.000000e+00
1.272804e+02,0.000000e+00
1.282446e+02,0.000000e+00
1.292089e+02,0.000000e+00
1.301731e+02,0.000000e+00
1.311373e+02,0.000000e+00
1.321016e+02,0.000000e+00
1.330658e+02,0.000000e+00
1.340300e+02,0.000000e+00
1.349943e+02,0.000000e+00
1.359585e+02,0.000000e+00
1.369227e+02,0.000000e+00
1.378870e+02,0.000000e+00
1.388512e+02,0.000000e+00
1.398154e+02,0.000000e+00
1.407797e+02,0.000000e+00
1.417439e+02,0.000000e+00
1.427081e+02,0.000000e+00
1.436724e+02,0.000000e+00
1.446366e+02,0.000000e+00
1.456008e+02,0.000000e+00
1.465651e+02,0.000000e+00
1.475293e+02,0.000000e+00
1.484935e+02,0.000000e+00
1.494578e+02,0.000000e+00
1.504220e+02,0.000000e+00
1.513862e+02,0.000000e+00
1.523505e+02,0.000000e+00
1.533147e+02,0.000000e+00
1.542789e+02,0.000000e+00
1.552432e+02,0.000000e+00
1.562074e+02,0.000000e+00
1.571716e+02,0.000000e+00
1.581359e+02,0.000000e+00
1.591001e+02,0.000000e+00
1.600643e+02,0.000000e+00
1.610286e+02,0.000000e+00
1.619928e+02,0.000000e+00
1.629570e+02,0.000000e+00
1.639213e+02,0.000000e+00
1.648855e+02,0.000000e+00
1.658497e+02,0.000000e+00
1.668140e+02,0.000000e+00
1.677782e+02,0.000000e+00
1.687424e+02,0.000000e+00
1.697067e+02,0.000000e+00
1.706709e+02,0.000000e+00
1.716351e+02,0.000000e+00
1.725994e+02,0.000000e+00
1.735636e+02,0.000000e+00
1.745278e+02,0.000000e+00
1.754921e+02,0.000000e+00
1.764563e+02,0.000000e+00
1.774205e+02,0.000000e+00
1.783848e+02,0.000000e+00
1.793490e+02,0.000000e+00
1.803132e+02,0.000000e+00
1.812775e+02,0.000000e+00
1.822417e+02,0.000000e+00
1.832059e+02,0.000000e+00
1.841702e+02,0.000000e+00
1.851344e+02,0.000000e+00
1.860986e+02,0.000000e+00
1.870629e+02,0.000000e+00
1.880271e+02,0.000000e+00
1.889913e+02,0.000000e+00
1.899556e+02,0.000000e+00
1.909198e+02,0.000000e+00
1.918840e+02,0.000000e+00
1.928483e+02,0.000000e+00
1.938125e+02,0.000000e+00
1.947767e+02,0.000000e+00
1.957410e+02,0.000000e+00
1.967052e+02,0.000000e+00
1.976694e+02,0.000000e+00
1.986337e+02,0.000000e+00
1.995979e+02,2.900920e+03
2.005621e+02,2.906695e+03
2.015264e+02,2.909829e+03
2.024906e+02,2.904144e+03
2.034548e+02,2.901019e+03
2.044191e+02,2.903940e+03
2.053833e+02,2.911550e+03
2.063475e+02,2.919674e+03
2.073118e+02,2.924090e+03
2.082760e+02,2.923380e+03
2.092402e+02,2.923223e+03
2.102045e+02,2.927012e+03
2.111687e+02,2.931930e+03
2.121329e+02,2.935527e+03
2.130972e+02,2.936128e+03
2.140614e+02,2.933897e+03
2.150256e+02,2.929910e+03
2.159899e+02,2.921531e+03
2.169541e+02,2.916264e+03
2.179183e+02,2.919282e+03
2.188826e+02,2.928372e+03
2.198468e+02,2.936528e+03
2.208110e+02,2.936741e+03
2.217753e+02,2.928964e+03
2.227395e+02,2.924280e+03
2.237037e+02,2.929414e+03
2.246680e+02,2.937694e+03
2.256322e+02,2.942412e+03
2.265964e+02,2.942911e+03
2.275607e+02,2.941170e+03
2.285249e+02,2.937497e+03
2.294892e+02,2.930987e+03
2.304534e+02,2.927429e+03
2.314176e+02,2.932720e+03
2.323819e+02,2.944077e+03
2.333461e+02,2.951362e+03
2.343103e+02,2.948184e+03
2.352746e+02,2.940017e+03
2.362388e+02,2.936633e+03
2.372030e+02,2.940542e+03
2.381673e+02,2.947235e+03
2.391315e+02,2.950257e+03
2.400957e+02,2.949577e+03
2.410600e+02,2.948582e+03
2.420242e+02,2.949063e+03
2.429884e+02,2.951471e+03
2.439527e+02,2.955452e+03
2.449169e+02,2.960249e+03
2.458811e+02,2.965508e+03
2.468454e+02,2.968095e+03
2.478096e+02,2.964765e+03
2.487738e+02,2.961126e+03
2.497381e+02,2.961366e+03
2.507023e+02,2.966266e+03
2.516665e+02,2.973526e+03
2.526308e+02,2.979222e+03
2.535950e+02,2.979611e+03
2.545592e+02,2.980341e+03
2.555235e+02,2.985177e+03
2.564877e+02,2.990461e+03
2.574519e+02,2.991521e+03
2.584161e+02,2.985335e+03
2.593804e+02,2.973308e+03
2.603446e+02,2.965815e+03
2.613088e+02,2.963274e+03
2.622731e+02,2.963776e+03
2.632373e+02,2.967964e+03
2.642015e+02,2.974627e+03
2.651658e+02,2.981333e+03
2.661300e+02,2.987265e+03
2.670942e+02,2.993728e+03
2.680585e+02,2.997717e+03
2.690227e+02,2.995310e+03
2.699869e+02,2.991540e+03
2.709512e+02,2.990028e+03
2.719154e+02,2.993946e+03
2.728796e+02,2.999859e+03
2.738439e+02,3.002154e+03
2.748081e+02,3.000285e+03
2.757723e+02,3.000168e+03
2.767366e+02,3.004797e+03
2.777008e+02,3.011563e+03
2.786650e+02,3.015575e+03
2.796293e+02,3.014235e+03
2.805935e+02,3.010636e+03
2.815577e+02,3.009610e+03
2.825220e+02,3.012309e+03
2.834862e+02,3.016163e+03
2.844504e+02,3.017122e+03
2.854147e+02,3.015079e+03
2.863789e+02,3.012438e+03
2.873431e+02,3.010328e+03
2.883074e+02,3.009140e+03
2.892716e+02,3.008525e+03
2.902358e+02,3.007587e+03
2.912001e+02,3.005932e+03
2.921643e+02,3.005362e+03
2.931285e+02,3.007622e+03
2.940928e+02,3.010508e+03
2.950570e+02,3.012890e+03
2.960212e+02,3.014104e+03
2.969855e+02,3.014040e+03
2.979497e+02,3.013182e+03
2.989139e+02,3.012167e+03
2.998782e+02,3.010506e+03
3.008424e+02,3.008362e+03
3.018066e+02,3.007343e+03
3.027709e+02,3.008002e+03
3.037351e+02,3.010417e+03
3.046993e+02,3.012976e+03
3.056636e+02,3.012988e+03
3.066278e+02,3.009616e+03
3.075920e+02,3.007160e+03
3.085563e+02,3.007877e+03
3.095205e+02,3.011462e+03
3.104847e+02,3.016017e+03
3.114490e+02,3.020204e+03
3.124132e+02,3.023663e+03
3.133774e+02,3.026180e+03
3.143417e+02,3.027091e+03
3.153059e+02,3.027262e+03
3.162701e+02,3.029941e+03
3.172344e+02,3.038750e+03
3.181986e+02,3.043677e+03
3.191628e+02,3.038145e+03
3.201271e+02,3.026952e+03
3.210913e+02,3.018913e+03
3.220555e+02,3.017899e+03
3.230198e+02,3.022811e+03
3.239840e+02,3.027862e+03
3.249482e+02,3.037178e+03
3.259125e+02,3.042331e+03
3.268767e+02,3.036975e+03
3.278409e+02,3.024398e+03
3.288052e+02,3.013472e+03
3.297694e+02,3.013091e+03
3.307336e+02,3.025891e+03
3.316979e+02,3.034500e+03
3.326621e+02,3.035350e+03
3.336263e+02,3.033603e+03
3.345906e+02,3.032095e+03
3.355548e+02,3.032364e+03
3.365190e+02,3.033185e+03
3.374833e+02,3.031517e+03
3.384475e+02,3.026507e+03
3.394117e+02,3.024474e+03
3.403760e+02,3.029085e+03
3.413402e+02,3.036943e+03
3.423044e+02,3.042233e+03
3.432687e+02,3.040853e+03
3.442329e+02,3.038226e+03
3.451971e+02,3.039886e+03
3.461614e+02,3.045172e+03
3.471256e+02,3.048092e+03
3.480898e+02,3.043979e+03
3.490541e+02,3.030056e+03
3.500183e+02,3.022114e+03
3.509825e+02,3.026073e+03
3.519468e+02,3.034078e+03
3.529110e+02,3.038576e+03
3.538752e+02,3.037099e+03
3.548395e+02,3.033209e+03
3.558037e+02,3.034516e+03
3.567680e+02,3.046198e+03
3.577322e+02,3.054845e+03
3.586964e+02,3.059005e+03
3.596607e+02,3.061006e+03
3.606249e+02,3.062503e+03
3.615891e+02,3.063098e+03
3.625534e+02,3.061834e+03
3.635176e+02,3.058922e+03
3.644818e+02,3.055603e+03
3.654461e+02,3.050926e+03
3.664103e+02,3.043339e+03
3.673745e+02,3.035054e+03
3.683388e+02,3.031898e+03
3.693030e+02,3.037089e+03
3.702672e+02,3.046101e+03
3.712315e+02,3.053469e+03
3.721957e+02,3.058042e+03
3.731599e+02,3.059450e+03
3.741242e+02,3.058048e+03
3.750884e+02,3.052359e+03
3.760526e+02,3.049091e+03
3.770169e+02,3.048527e+03
3.779811e+02,3.049914e+03
3.789453e+02,3.052780e+03
3.799096e+02,3.057047e+03
3.808738e+02,3.061507e+03
3.818380e+02,3.062282e+03
3.828023e+02,3.057913e+03
3.837665e+02,3.054455e+03
3.847307e+02,3.053769e+03
3.856950e+02,3.054859e+03
3.866592e+02,3.055281e+03
3.876234e+02,3.052462e+03
3.885877e+02,3.047589e+03
3.895519e+02,3.044456e+03
3.905161e+02,3.043378e+03
3.914804e+02,3.042920e+03
3.924446e+02,3.042050e+03
3.934088e+02,3.041407e+03
3.943731e+02,3.040977e+03
3.953373e+02,3.039988e+03
3.963015e+02,3.039128e+03
3.972658e+02,3.039572e+03
3.982300e+02,3.042157e+03
3.991942e+02,3.047214e+03
4.001585e+02,3.053218e+03
4.011227e+02,3.062006e+03
4.020869e+02,3.067195e+03
4.030512e+02,3.064456e+03
4.040154e+02,3.056892e+03
4.049796e+02,3.049945e+03
4.059439e+02,3.045983e+03
4.069081e+02,3.045023e+03
4.078723e+02,3.048441e+03
4.088366e+02,3.058423e+03
4.098008e+02,3.066630e+03
4.107650e+02,3.068777e+03
4.117293e+02,3.065751e+03
4.126935e+02,3.061914e+03
4.136577e+02,3.057318e+03
4.146220e+02,3.053064e+03
4.155862e+02,3.051599e+03
4.165504e+02,3.053832e+03
4.175147e+02,3.057216e+03
4.184789e+02,3.057534e+03
4.194431e+02,3.049681e+03
4.204074e+02,3.044597e+03
4.213716e+02,3.043789e+03
4.223358e+02,3.045213e+03
4.233001e+02,3.046926e+03
4.242643e+02,3.048392e+03
4.252285e+02,3.049864e+03
4.261928e+02,3.051664e+03
4.271570e+02,3.054461e+03
4.281212e+02,3.056780e+03
4.290855e+02,3.057154e+03
4.300497e+02,3.055922e+03
4.310139e+02,3.054280e+03
4.319782e+02,3.052154e+03
4.329424e+02,3.050765e+03
4.339066e+02,3.051419e+03
4.348709e+02,3.053860e+03
4.358351e+02,3.056452e+03
4.367993e+02,3.058010e+03
4.377636e+02,3.059095e+03
4.387278e+02,3.057811e+03
4.396920e+02,3.052273e+03
4.406563e+02,3.046486e+03
4.416205e+02,3.042690e+03
4.425847e+02,3.041323e+03
4.435490e+02,3.041715e+03
4.445132e+02,3.044125e+03
4.454774e+02,3.049792e+03
4.464417e+02,3.053692e+03
4.474059e+02,3.051976e+03
4.483701e+02,3.047789e+03
4.493344e+02,3.045770e+03
4.502986e+02,3.050281e+03
4.512628e+02,3.054792e+03
4.522271e+02,3.054223e+03
4.531913e+02,3.049326e+03
4.541555e+02,3.043157e+03
4.551198e+02,3.036705e+03
4.560840e+02,3.030122e+03
4.570482e+02,3.027246e+03
4.580125e+02,3.034304e+03
4.589767e+02,3.041622e+03
4.599409e+02,3.044650e+03
4.609052e+02,3.042888e+03
4.618694e+02,3.038934e+03
4.628336e+02,3.034589e+03
4.637979e+02,3.030182e+03
4.647621e+02,3.026813e+03
4.657263e+02,3.025324e+03
4.666906e+02,3.026098e+03
4.676548e+02,3.028291e+03
4.686190e+02,3.031499e+03
4.695833e+02,3.035187e+03
4.705475e+02,3.039376e+03
4.715117e+02,3.043482e+03
4.724760e+02,3.047331e+03
4.734402e+02,3.051177e+03
4.744044e+02,3.054357e+03
4.753687e+02,3.054504e+03
4.763329e+02,3.047047e+03
4.772971e+02,3.043922e+03
4.782614e+02,3.048846e+03
4.792256e+02,3.058325e+03
4.801898e+02,3.067824e+03
4.811541e+02,3.075407e+03
4.821183e+02,3.081417e+03
4.830826e+02,3.085949e+03
4.840468e+02,3.088643e+03
4.850110e+02,3.091582e+03
4.859753e+02,3.097923e+03
4.869395e+02,3.107831e+03
4.879037e+02,3.109163e+03
4.888680e+02,3.095344e+03
4.898322e+02,3.079489e+03
4.907964e+02,3.067911e+03
4.917607e+02,3.061293e+03
4.927249e+02,3.057751e+03
4.936891e+02,3.056519e+03
4.946534e+02,3.057751e+03
4.956176e+02,3.056541e+03
4.965818e+02,3.050036e+03
4.975461e+02,3.043895e+03
4.985103e+02,3.043370e+03
4.994745e+02,3.049906e+03
5.004388e+02,3.053180e+03
5.014030e+02,3.046110e+03
5.023672e+02,3.034387e+03
5.033315e+02,3.027417e+03
5.042957e+02,3.028166e+03
5.052599e+02,3.033062e+03
5.062242e+02,3.035286e+03
5.071884e+02,3.034252e+03
5.081526e+02,3.032542e+03
5.091169e+02,3.030751e+03
5.100811e+02,3.029269e+03
5.110453e+02,3.028043e+03
5.120095e+02,3.028151e+03
5.129738e+02,3.028046e+03
5.139380e+02,3.023567e+03
5.149022e+02,3.014957e+03
5.158665e+02,3.010993e+03
5.168307e+02,3.017517e+03
5.177949e+02,3.032532e+03
5.187592e+02,3.036705e+03
5.197234e+02,3.024988e+03
5.206876e+02,3.013314e+03
5.216519e+02,3.008067e+03
5.226161e+02,3.008665e+03
5.235803e+02,3.011130e+03
5.245446e+02,3.012385e+03
5.255088e+02,3.012665e+03
5.264730e+02,3.014251e+03
5.274373e+02,3.018156e+03
5.284015e+02,3.021570e+03
5.293657e+02,3.020760e+03
5.303300e+02,3.015386e+03
5.312942e+02,3.010784e+03
5.322584e+02,3.009631e+03
5.332227e+02,3.010884e+03
5.341869e+02,3.013267e+03
5.351511e+02,3.015883e+03
5.361154e+02,3.017617e+03
5.370796e+02,3.017167e+03
5.380438e+02,3.014177e+03
5.390081e+02,3.012306e+03
5.399723e+02,3.013522e+03
5.409365e+02,3.015733e+03
5.419008e+02,3.015934e+03
5.428650e+02,3.011557e+03
5.438292e+02,3.007397e+03
5.447935e+02,3.007663e+03
5.457577e+02,3.010134e+03
5.467219e+02,3.009746e+03
5.476862e+02,3.004137e+03
5.486504e+02,2.995403e+03
5.496146e+02,2.990340e+03
5.505789e+02,2.992505e+03
5.515431e+02,2.992519e+03
5.525073e+02,2.987392e+03
5.534716e+02,2.981235e+03
5.544358e+02,2.978487e+03
5.554000e+02,2.981016e+03
5.563643e+02,2.985578e+03
5.573285e+02,2.989524e+03
5.582927e+02,2.992532e+03
5.592570e+02,2.994832e+03
5.602212e+02,2.997199e+03
5.611854e+02,2.999361e+03
5.621497e+02,2.999289e+03
5.631139e+02,2.991950e+03
5.640781e+02,2.985545e+03
5.650424e+02,2.985556e+03
5.660066e+02,2.990270e+03
5.669708e+02,2.992602e+03
5.679351e+02,2.986341e+03
5.688993e+02,2.976330e+03
5.698635e+02,2.970913e+03
5.708278e+02,2.971072e+03
5.717920e+02,2.974677e+03
5.727562e+02,2.979545e+03
5.737205e+02,2.985773e+03
5.746847e+02,2.990277e+03
5.756489e+02,2.993054e+03
5.766132e+02,2.993595e+03
5.775774e+02,2.990831e+03
5.785416e+02,2.985028e+03
5.795059e+02,2.979887e+03
5.804701e+02,2.979765e+03
5.814343e+02,2.982785e+03
5.823986e+02,2.982679e+03
5.833628e+02,2.978062e+03
5.843270e+02,2.971697e+03
5.852913e+02,2.966979e+03
5.862555e+02,2.964317e+03
5.872197e+02,2.962893e+03
5.881840e+02,2.962397e+03
5.891482e+02,2.962655e+03
5.901124e+02,2.963986e+03
5.910767e+02,2.966681e+03
5.920409e+02,2.969239e+03
5.930051e+02,2.969132e+03
5.939694e+02,2.966753e+03
5.949336e+02,2.965990e+03
5.958978e+02,2.968662e+03
5.968621e+02,2.972896e+03
5.978263e+02,2.974589e+03
5.987905e+02,2.972977e+03
5.997548e+02,2.970452e+03
6.007190e+02,2.966063e+03
6.016832e+02,2.961842e+03
6.026475e+02,2.959408e+03
6.036117e+02,2.958552e+03
6.045759e+02,2.959406e+03
6.055402e+02,2.963505e+03
6.065044e+02,2.969930e+03
6.074686e+02,2.974212e+03
6.084329e+02,2.975052e+03
6.093971e+02,2.972988e+03
6.103613e+02,2.969200e+03
6.113256e+02,2.959001e+03
6.122899e+02,2.952519e+03
6.132541e+02,2.955173e+03
6.142183e+02,2.962157e+03
6.151826e+02,2.965464e+03
6.161468e+02,2.958835e+03
6.171110e+02,2.949766e+03
6.180753e+02,2.947255e+03
6.190395e+02,2.950470e+03
6.200037e+02,2.954190e+03
6.209680e+02,2.955351e+03
6.219322e+02,2.954448e+03
6.228964e+02,2.953234e+03
6.238607e+02,2.950626e+03
6.248249e+02,2.948368e+03
6.257891e+02,2.945973e+03
6.267534e+02,2.943000e+03
6.277176e+02,2.940186e+03
6.286818e+02,2.939602e+03
6.296461e+02,2.939948e+03
6.306103e+02,2.939695e+03
6.315745e+02,2.938906e+03
6.325388e+02,2.937482e+03
6.335030e+02,2.934347e+03
6.344672e+02,2.928901e+03
6.354315e+02,2.926146e+03
6.363957e+02,2.926474e+03
6.373599e+02,2.927739e+03
6.383242e+02,2.930619e+03
6.392884e+02,2.935105e+03
6.402526e+02,2.937612e+03
6.412169e+02,2.935840e+03
6.421811e+02,2.932126e+03
6.431453e+02,2.928102e+03
6.441096e+02,2.924049e+03
6.450738e+02,2.920417e+03
6.460380e+02,2.917738e+03
6.470023e+02,2.916611e+03
6.479665e+02,2.918693e+03
6.489307e+02,2.925565e+03
6.498950e+02,2.931791e+03
6.508592e+02,2.931757e+03
6.518234e+02,2.924543e+03
6.527877e+02,2.918591e+03
6.537519e+02,2.917346e+03
6.547161e+02,2.916688e+03
6.556804e+02,2.912791e+03
6.566446e+02,2.905850e+03
6.576088e+02,2.899728e+03
6.585731e+02,2.898733e+03
6.595373e+02,2.901938e+03
6.605015e+02,2.903586e+03
6.614658e+02,2.902627e+03
6.624300e+02,2.901788e+03
6.633942e+02,2.904232e+03
6.643585e+02,2.912836e+03
6.653227e+02,2.916669e+03
6.662869e+02,2.910913e+03
6.672512e+02,2.903319e+03
6.682154e+02,2.898664e+03
6.691796e+02,2.897288e+03
6.701439e+02,2.896706e+03
6.711081e+02,2.895630e+03
6.720723e+02,2.894197e+03
6.730366e+02,2.892845e+03
6.740008e+02,2.891964e+03
6.749650e+02,2.891538e+03
6.759293e+02,2.891806e+03
6.768935e+02,2.893910e+03
6.778577e+02,2.894606e+03
6.788220e+02,2.894250e+03
6.797862e+02,2.893777e+03
6.807504e+02,2.892541e+03
6.817147e+02,2.889586e+03
6.826789e+02,2.886243e+03
6.836431e+02,2.880529e+03
6.846074e+02,2.874731e+03
6.855716e+02,2.873723e+03
6.865358e+02,2.878539e+03
6.875001e+02,2.883269e+03
6.884643e+02,2.877983e+03
6.894285e+02,2.862964e+03
6.903928e+02,2.858154e+03
6.913570e+02,2.869567e+03
6.923212e+02,2.884888e+03
6.932855e+02,2.891061e+03
6.942497e+02,2.883492e+03
6.952139e+02,2.878249e+03
6.961782e+02,2.874144e+03
6.971424e+02,2.872622e+03
6.981066e+02,2.875741e+03
6.990709e+02,2.882764e+03
7.000351e+02,2.887024e+03
7.009993e+02,2.883733e+03
7.019636e+02,2.876191e+03
7.029278e+02,2.869250e+03
7.038920e+02,2.863436e+03
7.048563e+02,2.858937e+03
7.058205e+02,2.857365e+03
7.067847e+02,2.861341e+03
7.077490e+02,2.863334e+03
7.087132e+02,2.864595e+03
7.096774e+02,2.865052e+03
7.106417e+02,2.861309e+03
7.116059e+02,2.851017e+03
7.125701e+02,2.844005e+03
7.135344e+02,2.845771e+03
7.144986e+02,2.851277e+03
7.154628e+02,2.856401e+03
7.164271e+02,2.859857e+03
7.173913e+02,2.860691e+03
7.183555e+02,2.856882e+03
7.193198e+02,2.849231e+03
7.202840e+02,2.841675e+03
7.212482e+02,2.834475e+03
7.222125e+02,2.830339e+03
7.231767e+02,2.832786e+03
7.241409e+02,2.846450e+03
7.251052e+02,2.851348e+03
7.260694e+02,2.838501e+03
7.270336e+02,2.823751e+03
7.279979e+02,2.816327e+03
7.289621e+02,2.817102e+03
7.299263e+02,2.819321e+03
7.308906e+02,2.819215e+03
7.318548e+02,2.819063e+03
7.328190e+02,2.823387e+03
7.337833e+02,2.832010e+03
7.347475e+02,2.838809e+03
7.357117e+02,2.836663e+03
7.366760e+02,2.827085e+03
7.376402e+02,2.821406e+03
7.386044e+02,2.820996e+03
7.395687e+02,2.822470e+03
7.405329e+02,2.822731e+03
7.414971e+02,2.821492e+03
7.424614e+02,2.819391e+03
7.434256e+02,2.815047e+03
7.443898e+02,2.813984e+03
7.453541e+02,2.820574e+03
7.463183e+02,2.832225e+03
7.472825e+02,2.837829e+03
7.482468e+02,2.826911e+03
7.492110e+02,2.811074e+03
7.501752e+02,2.804262e+03
7.511395e+02,2.807327e+03
7.521037e+02,2.812548e+03
7.530679e+02,2.811891e+03
7.540322e+02,2.805804e+03
7.549964e+02,2.804081e+03
7.559606e+02,2.809133e+03
7.569249e+02,2.812231e+03
7.578891e+02,2.805901e+03
7.588533e+02,2.789419e+03
7.598176e+02,2.784112e+03
7.607818e+02,2.801090e+03
7.617460e+02,2.813183e+03
7.627103e+02,2.809022e+03
7.636745e+02,2.793794e+03
7.646387e+02,2.781706e+03
7.656030e+02,2.779593e+03
7.665672e+02,2.781531e+03
7.675314e+02,2.782145e+03
7.684957e+02,2.780064e+03
7.694599e+02,2.776248e+03
7.704241e+02,2.772477e+03
7.713884e+02,2.770085e+03
7.723526e+02,2.771021e+03
7.733168e+02,2.776356e+03
7.742811e+02,2.781433e+03
7.752453e+02,2.782240e+03
7.762095e+02,2.778821e+03
7.771738e+02,2.776941e+03
7.781380e+02,2.778183e+03
7.791022e+02,2.776760e+03
7.800665e+02,2.770316e+03
7.810307e+02,2.762093e+03
7.819949e+02,2.757038e+03
7.829592e+02,2.762946e+03
7.839234e+02,2.767348e+03
7.848876e+02,2.759569e+03
7.858519e+02,2.746163e+03
7.868161e+02,2.738626e+03
7.877803e+02,2.742561e+03
7.887446e+02,2.751711e+03
7.897088e+02,2.759484e+03
7.906730e+02,2.766661e+03
7.916373e+02,2.771844e+03
7.926015e+02,2.773095e+03
7.935657e+02,2.769916e+03
7.945300e+02,2.764320e+03
7.954942e+02,2.756035e+03
7.964584e+02,2.749144e+03
7.974227e+02,2.747166e+03
7.983869e+02,2.749327e+03
7.993511e+02,2.751398e+03
8.003154e+02,2.751060e+03
8.012796e+02,2.749800e+03
8.022438e+02,2.749308e+03
8.032081e+02,2.749381e+03
8.041723e+02,2.749850e+03
8.051365e+02,2.750297e+03
8.061008e+02,2.749419e+03
8.070650e+02,2.743485e+03
8.080292e+02,2.735397e+03
8.089935e+02,2.732302e+03
8.099577e+02,2.735879e+03
8.109219e+02,2.741174e+03
8.118862e+02,2.742698e+03
8.128504e+02,2.740515e+03
8.138146e+02,2.736690e+03
8.147789e+02,2.729914e+03
8.157431e+02,2.723856e+03
8.167073e+02,2.722463e+03
8.176716e+02,2.728165e+03
8.186358e+02,2.733121e+03
8.196000e+02,2.737940e+03
8.205643e+02,2.740999e+03
8.215285e+02,2.739958e+03
8.224927e+02,2.735010e+03
8.234570e+02,2.729156e+03
8.244212e+02,2.719620e+03
8.253854e+02,2.712653e+03
8.263497e+02,2.713973e+03
8.273139e+02,2.720232e+03
8.282781e+02,2.723783e+03
8.292424e+02,2.719267e+03
8.302066e+02,2.712469e+03
8.311708e+02,2.711855e+03
8.321351e+02,2.716056e+03
8.330993e+02,2.717702e+03
8.340635e+02,2.711693e+03
8.350278e+02,2.701047e+03
8.359920e+02,2.696485e+03
8.369562e+02,2.699497e+03
8.379205e+02,2.701123e+03
8.388847e+02,2.697967e+03
8.398489e+02,2.691998e+03
8.408132e+02,2.687685e+03
8.417774e+02,2.683960e+03
8.427416e+02,2.682572e+03
8.437059e+02,2.684466e+03
8.446701e+02,2.688355e+03
8.456343e+02,2.693713e+03
8.465986e+02,2.703219e+03
8.475628e+02,2.707979e+03
8.485270e+02,2.702658e+03
8.494913e+02,2.692312e+03
8.504555e+02,2.680800e+03
8.514197e+02,2.669223e+03
8.523840e+02,2.662158e+03
8.533482e+02,2.666781e+03
8.543124e+02,2.676775e+03
8.552767e+02,2.679924e+03
8.562409e+02,2.674495e+03
8.572051e+02,2.667288e+03
8.581694e+02,2.666903e+03
8.591336e+02,2.672876e+03
8.600978e+02,2.674599e+03
8.610621e+02,2.671403e+03
8.620263e+02,2.667804e+03
8.629905e+02,2.666323e+03
8.639548e+02,2.666107e+03
8.649190e+02,2.665435e+03
8.658832e+02,2.666964e+03
8.668475e+02,2.667061e+03
8.678117e+02,2.661397e+03
8.687759e+02,2.651510e+03
8.697402e+02,2.647715e+03
8.707044e+02,2.655925e+03
8.716686e+02,2.661780e+03
8.726329e+02,2.661073e+03
8.735971e+02,2.656437e+03
8.745613e+02,2.651859e+03
8.755256e+02,2.649260e+03
8.764898e+02,2.648269e+03
8.774540e+02,2.648054e+03
8.784183e+02,2.648348e+03
8.793825e+02,2.649124e+03
8.803467e+02,2.650360e+03
8.813110e+02,2.651772e+03
8.822752e+02,2.653874e+03
8.832394e+02,2.656800e+03
8.842037e+02,2.659254e+03
8.851679e+02,2.660286e+03
8.861321e+02,2.659276e+03
8.870964e+02,2.655727e+03
8.880606e+02,2.649373e+03
8.890248e+02,2.641278e+03
8.899891e+02,2.631278e+03
8.909533e+02,2.623770e+03
8.919175e+02,2.623251e+03
8.928818e+02,2.632369e+03
8.938460e+02,2.635878e+03
8.948102e+02,2.627145e+03
8.957745e+02,2.618633e+03
8.967387e+02,2.618923e+03
8.977029e+02,2.626941e+03
8.986672e+02,2.631739e+03
8.996314e+02,2.633743e+03
9.005956e+02,2.634054e+03
9.015599e+02,2.631343e+03
9.025241e+02,2.626423e+03
9.034883e+02,2.622198e+03
9.044526e+02,2.620883e+03
9.054168e+02,2.618181e+03
9.063810e+02,2.611889e+03
9.073453e+02,2.605197e+03
9.083095e+02,2.601624e+03
9.092737e+02,2.602348e+03
9.102380e+02,2.603954e+03
9.112022e+02,2.603140e+03
9.121664e+02,2.600406e+03
9.131307e+02,2.597484e+03
9.140949e+02,2.595714e+03
9.150591e+02,2.595717e+03
9.160234e+02,2.597502e+03
9.169876e+02,2.599223e+03
9.179518e+02,2.595627e+03
9.189161e+02,2.585181e+03
9.198803e+02,2.574761e+03
9.208445e+02,2.574370e+03
9.218088e+02,2.587176e+03
9.227730e+02,2.589290e+03
9.237372e+02,2.574681e+03
9.247015e+02,2.560334e+03
9.256657e+02,2.558260e+03
9.266299e+02,2.568875e+03
9.275942e+02,2.575154e+03
9.285584e+02,2.572474e+03
9.295226e+02,2.569800e+03
9.304869e+02,2.572802e+03
9.314511e+02,2.579263e+03
9.324153e+02,2.580634e+03
9.333796e+02,2.569585e+03
9.343438e+02,2.560871e+03
9.353080e+02,2.561120e+03
9.362723e+02,2.563995e+03
9.372365e+02,2.561077e+03
9.382007e+02,2.546446e+03
9.391650e+02,2.535999e+03
9.401292e+02,2.541648e+03
9.410934e+02,2.552772e+03
9.420577e+02,2.555553e+03
9.430219e+02,2.545838e+03
9.439861e+02,2.535390e+03
9.449504e+02,2.535146e+03
9.459146e+02,2.540714e+03
9.468788e+02,2.544387e+03
9.478431e+02,2.543871e+03
9.488073e+02,2.541083e+03
9.497715e+02,2.539070e+03
9.507358e+02,2.537570e+03
9.517000e+02,2.535079e+03
9.526642e+02,2.532432e+03
9.536285e+02,2.530452e+03
9.545927e+02,2.528916e+03
9.555569e+02,2.528101e+03
9.565212e+02,2.530653e+03
9.574854e+02,2.537643e+03
9.584496e+02,2.541030e+03
9.594139e+02,2.535572e+03
9.603781e+02,2.524691e+03
9.613423e+02,2.519219e+03
9.623066e+02,2.520524e+03
9.632708e+02,2.521659e+03
9.642350e+02,2.522527e+03
9.651993e+02,2.522429e+03
9.661635e+02,2.518915e+03
9.671277e+02,2.507887e+03
9.680920e+02,2.501271e+03
9.690562e+02,2.500987e+03
9.700204e+02,2.502853e+03
9.709847e+02,2.505502e+03
9.719489e+02,2.510685e+03
9.729131e+02,2.511649e+03
9.738774e+02,2.504864e+03
9.748416e+02,2.498740e+03
9.758058e+02,2.495731e+03
9.767701e+02,2.494827e+03
9.777343e+02,2.494285e+03
9.786985e+02,2.494276e+03
9.796628e+02,2.493504e+03
9.806270e+02,2.492171e+03
9.815912e+02,2.489971e+03
9.825555e+02,2.486497e+03
9.835197e+02,2.481028e+03
9.844839e+02,2.477332e+03
9.854482e+02,2.478301e+03
9.864124e+02,2.481650e+03
9.873766e+02,2.484370e+03
9.883409e+02,2.485996e+03
9.893051e+02,2.486792e+03
9.902693e+02,2.485558e+03
9.912336e+02,2.484583e+03
9.921978e+02,2.486065e+03
9.931620e+02,2.489211e+03
9.941263e+02,2.491325e+03
9.950905e+02,2.490106e+03
9.960547e+02,2.487669e+03
9.970190e+02,2.487074e+03
9.979832e+02,2.487455e+03
9.989474e+02,2.486071e+03
9.999117e+02,2.481746e+03
1.000876e+03,2.476354e+03
1.001840e+03,2.471011e+03
1.002804e+03,2.467017e+03
1.003769e+03,2.467712e+03
1.004733e+03,2.474323e+03
1.005697e+03,2.481620e+03
1.006661e+03,2.481531e+03
1.007626e+03,2.475790e+03
1.008590e+03,2.471625e+03
1.009554e+03,2.469852e+03
1.010518e+03,2.467621e+03
1.011482e+03,2.461305e+03
1.012447e+03,2.451723e+03
1.013411e+03,2.446722e+03
1.014375e+03,2.448097e+03
1.015339e+03,2.450057e+03
1.016304e+03,2.446771e+03
1.017268e+03,2.439792e+03
1.018232e+03,2.441560e+03
1.019196e+03,2.453359e+03
1.020161e+03,2.460951e+03
1.021125e+03,2.458453e+03
1.022089e+03,2.449985e+03
1.023053e+03,2.443679e+03
1.024018e+03,2.438251e+03
1.024982e+03,2.437577e+03
1.025946e+03,2.444008e+03
1.026910e+03,2.450835e+03
1.027875e+03,2.450200e+03
1.028839e+03,2.440806e+03
1.029803e+03,2.433688e+03
1.030767e+03,2.429013e+03
1.031731e+03,2.426978e+03
1.032696e+03,2.428329e+03
1.033660e+03,2.433159e+03
1.034624e+03,2.432526e+03
1.035588e+03,2.422661e+03
1.036552e+03,2.415792e+03
1.037517e+03,2.417401e+03
1.038481e+03,2.424419e+03
1.039445e+03,2.427792e+03
1.040409e+03,2.425365e+03
1.041374e+03,2.423067e+03
1.042338e+03,2.422832e+03
1.043302e+03,2.423686e+03
1.044266e+03,2.423856e+03
1.045231e+03,2.424176e+03
1.046195e+03,2.421585e+03
1.047159e+03,2.413462e+03
1.048123e+03,2.405638e+03
1.049088e+03,2.402618e+03
1.050052e+03,2.406034e+03
1.051016e+03,2.407456e+03
1.051980e+03,2.402790e+03
1.052945e+03,2.399786e+03
1.053909e+03,2.402089e+03
1.054873e+03,2.406819e+03
1.055837e+03,2.407363e+03
1.056802e+03,2.399682e+03
1.057766e+03,2.394072e+03
1.058730e+03,2.395981e+03
1.059694e+03,2.400000e+03
1.060658e+03,2.398629e+03
1.061623e+03,2.387232e+03
1.062587e+03,2.379327e+03
1.063551e+03,2.377877e+03
1.064515e+03,2.379526e+03
1.065479e+03,2.382297e+03
1.066444e+03,2.386638e+03
1.067408e+03,2.389889e+03
1.068372e+03,2.391467e+03
1.069336e+03,2.392030e+03
1.070301e+03,2.389021e+03
1.071265e+03,2.383667e+03
1.072229e+03,2.381667e+03
1.073193e+03,2.390860e+03
1.074158e+03,2.395167e+03
1.075122e+03,2.385902e+03
1.076086e+03,2.371661e+03
1.077050e+03,2.363371e+03
1.078015e+03,2.366128e+03
1.078979e+03,2.370490e+03
1.079943e+03,2.374722e+03
1.080907e+03,2.378997e+03
1.081872e+03,2.383273e+03
1.082836e+03,2.386876e+03
1.083800e+03,2.388040e+03
1.084764e+03,2.385358e+03
1.085729e+03,2.382491e+03
1.086693e+03,2.379122e+03
1.087657e+03,2.376377e+03
1.088621e+03,2.377458e+03
1.089585e+03,2.387174e+03
1.090550e+03,2.394505e+03
1.091514e+03,2.399500e+03
1.092478e+03,2.401195e+03
1.093442e+03,2.397004e+03
1.094406e+03,2.383531e+03
1.095371e+03,2.374309e+03
1.096335e+03,2.375632e+03
1.097299e+03,2.378045e+03
1.098263e+03,2.375195e+03
1.099228e+03,2.366768e+03
1.100192e+03,2.359018e+03
1.101156e+03,2.351630e+03
1.102120e+03,2.346212e+03
1.103085e+03,2.344392e+03
1.104049e+03,2.345067e+03
1.105013e+03,2.345969e+03
1.105977e+03,2.346282e+03
1.106942e+03,2.347851e+03
1.107906e+03,2.353205e+03
1.108870e+03,2.358789e+03
1.109834e+03,2.361100e+03
1.110799e+03,2.359212e+03
1.111763e+03,2.357036e+03
1.112727e+03,2.353454e+03
1.113691e+03,2.351849e+03
1.114656e+03,2.354000e+03
1.115620e+03,2.359517e+03
1.116584e+03,2.365446e+03
1.117548e+03,2.373229e+03
1.118512e+03,2.377477e+03
1.119477e+03,2.374674e+03
1.120441e+03,2.368641e+03
1.121405e+03,2.365497e+03
1.122369e+03,2.368798e+03
1.123334e+03,2.369880e+03
1.124298e+03,2.368811e+03
1.125262e+03,2.366262e+03
1.126226e+03,2.361969e+03
1.127191e+03,2.355540e+03
1.128155e+03,2.352645e+03
1.129119e+03,2.354765e+03
1.130083e+03,2.357278e+03
1.131047e+03,2.358665e+03
1.132012e+03,2.358495e+03
1.132976e+03,2.357071e+03
1.133940e+03,2.354049e+03
1.134904e+03,2.350151e+03
1.135869e+03,2.345708e+03
1.136833e+03,2.341605e+03
1.137797e+03,2.338546e+03
1.138761e+03,2.337022e+03
1.139726e+03,2.338237e+03
1.140690e+03,2.344245e+03
1.141654e+03,2.347547e+03
1.142618e+03,2.342371e+03
1.143583e+03,2.330338e+03
1.144547e+03,2.323163e+03
1.145511e+03,2.321712e+03
1.146475e+03,2.321440e+03
1.147439e+03,2.320693e+03
1.148404e+03,2.321054e+03
1.149368e+03,2.325092e+03
1.150332e+03,2.332962e+03
1.151296e+03,2.340730e+03
1.152261e+03,2.347683e+03
1.153225e+03,2.349679e+03
1.154189e+03,2.343155e+03
1.155153e+03,2.330379e+03
1.156118e+03,2.324681e+03
1.157082e+03,2.327125e+03
1.158046e+03,2.324408e+03
1.159010e+03,2.307519e+03
1.159974e+03,2.285586e+03
1.160939e+03,2.279922e+03
1.161903e+03,2.287439e+03
1.162867e+03,2.290520e+03
1.163831e+03,2.285317e+03
1.164796e+03,2.277546e+03
1.165760e+03,2.272649e+03
1.166724e+03,2.271038e+03
1.167688e+03,2.275287e+03
1.168653e+03,2.284176e+03
1.169617e+03,2.289185e+03
1.170581e+03,2.283236e+03
1.171545e+03,2.273464e+03
1.172510e+03,2.269294e+03
1.173474e+03,2.269614e+03
1.174438e+03,2.271331e+03
1.175402e+03,2.273154e+03
1.176366e+03,2.276077e+03
1.177331e+03,2.284031e+03
1.178295e+03,2.292351e+03
1.179259e+03,2.293600e+03
1.180223e+03,2.287777e+03
1.181188e+03,2.281857e+03
1.182152e+03,2.282546e+03
1.183116e+03,2.282153e+03
1.184080e+03,2.273976e+03
1.185045e+03,2.262118e+03
1.186009e+03,2.252973e+03
1.186973e+03,2.248891e+03
1.187937e+03,2.248539e+03
1.188901e+03,2.254720e+03
1.189866e+03,2.261392e+03
1.190830e+03,2.262649e+03
1.191794e+03,2.257349e+03
1.192758e+03,2.252070e+03
1.193723e+03,2.249022e+03
1.194687e+03,2.247093e+03
1.195651e+03,2.244864e+03
1.196615e+03,2.242944e+03
1.197580e+03,2.243064e+03
1.198544e+03,2.247503e+03
1.199508e+03,2.247140e+03
1.200472e+03,2.240355e+03
1.201437e+03,2.231915e+03
1.202401e+03,2.225656e+03
1.203365e+03,2.222038e+03
1.204329e+03,2.221962e+03
1.205293e+03,2.226959e+03
1.206258e+03,2.230683e+03
1.207222e+03,2.229344e+03
1.208186e+03,2.224935e+03
1.209150e+03,2.224385e+03
1.210115e+03,2.227409e+03
1.211079e+03,2.231146e+03
1.212043e+03,2.235949e+03
1.213007e+03,2.238380e+03
1.213972e+03,2.233208e+03
1.214936e+03,2.222760e+03
1.215900e+03,2.218185e+03
1.216864e+03,2.219513e+03
1.217828e+03,2.222159e+03
1.218793e+03,2.224729e+03
1.219757e+03,2.225320e+03
1.220721e+03,2.217813e+03
1.221685e+03,2.205956e+03
1.222650e+03,2.198910e+03
1.223614e+03,2.198440e+03
1.224578e+03,2.200021e+03
1.225542e+03,2.201786e+03
1.226507e+03,2.203627e+03
1.227471e+03,2.205679e+03
1.228435e+03,2.206843e+03
1.229399e+03,2.204882e+03
1.230364e+03,2.197288e+03
1.231328e+03,2.189050e+03
1.232292e+03,2.182703e+03
1.233256e+03,2.178986e+03
1.234220e+03,2.178153e+03
1.235185e+03,2.182329e+03
1.236149e+03,2.184351e+03
1.237113e+03,2.179322e+03
1.238077e+03,2.175398e+03
1.239042e+03,2.177214e+03
1.240006e+03,2.182944e+03
1.240970e+03,2.184710e+03
1.241934e+03,2.179119e+03
1.242899e+03,2.175554e+03
1.243863e+03,2.177538e+03
1.244827e+03,2.181612e+03
1.245791e+03,2.183155e+03
1.246755e+03,2.182241e+03
1.247720e+03,2.177596e+03
1.248684e+03,2.168458e+03
1.249648e+03,2.160586e+03
1.250612e+03,2.157504e+03
1.251577e+03,2.157783e+03
1.252541e+03,2.158503e+03
1.253505e+03,2.159225e+03
1.254469e+03,2.157737e+03
1.255434e+03,2.153479e+03
1.256398e+03,2.150149e+03
1.257362e+03,2.152374e+03
1.258326e+03,2.157204e+03
1.259291e+03,2.160542e+03
1.260255e+03,2.161687e+03
1.261219e+03,2.160717e+03
1.262183e+03,2.157262e+03
1.263147e+03,2.154617e+03
1.264112e+03,2.154934e+03
1.265076e+03,2.157338e+03
1.266040e+03,2.160450e+03
1.267004e+03,2.164506e+03
1.267969e+03,2.167669e+03
1.268933e+03,2.169370e+03
1.269897e+03,2.171889e+03
1.270861e+03,2.174675e+03
1.271826e+03,2.176370e+03
1.272790e+03,2.179326e+03
1.273754e+03,2.187201e+03
1.274718e+03,2.191274e+03
1.275682e+03,2.189564e+03
1.276647e+03,2.185881e+03
1.277611e+03,2.184452e+03
1.278575e+03,2.185425e+03
1.279539e+03,2.185292e+03
1.280504e+03,2.185285e+03
1.281468e+03,2.183620e+03
1.282432e+03,2.177327e+03
1.283396e+03,2.169716e+03
1.284361e+03,2.170909e+03
1.285325e+03,2.177945e+03
1.286289e+03,2.180490e+03
1.287253e+03,2.175774e+03
1.288218e+03,2.167252e+03
1.289182e+03,2.155011e+03
1.290146e+03,2.143613e+03
1.291110e+03,2.140558e+03
1.292074e+03,2.144163e+03
1.293039e+03,2.146266e+03
1.294003e+03,2.143569e+03
1.294967e+03,2.137243e+03
1.295931e+03,2.123431e+03
1.296896e+03,2.110022e+03
1.297860e+03,2.106062e+03
1.298824e+03,2.115184e+03
1.299788e+03,2.120417e+03
1.300753e+03,2.118667e+03
1.301717e+03,2.115787e+03
1.302681e+03,2.113995e+03
1.303645e+03,2.112794e+03
1.304609e+03,2.110796e+03
1.305574e+03,2.107115e+03
1.306538e+03,2.102580e+03
1.307502e+03,2.098058e+03
1.308466e+03,2.094913e+03
1.309431e+03,2.094283e+03
1.310395e+03,2.095527e+03
1.311359e+03,2.095464e+03
1.312323e+03,2.093917e+03
1.313288e+03,2.094635e+03
1.314252e+03,2.101940e+03
1.315216e+03,2.108691e+03
1.316180e+03,2.103929e+03
1.317145e+03,2.095935e+03
1.318109e+03,2.094652e+03
1.319073e+03,2.100382e+03
1.320037e+03,2.105589e+03
1.321001e+03,2.110165e+03
1.321966e+03,2.110918e+03
1.322930e+03,2.104191e+03
1.323894e+03,2.094866e+03
1.324858e+03,2.090542e+03
1.325823e+03,2.094092e+03
1.326787e+03,2.095679e+03
1.327751e+03,2.093881e+03
1.328715e+03,2.091251e+03
1.329680e+03,2.089191e+03
1.330644e+03,2.088298e+03
1.331608e+03,2.091357e+03
1.332572e+03,2.097898e+03
1.333536e+03,2.104580e+03
1.334501e+03,2.110305e+03
1.335465e+03,2.114279e+03
1.336429e+03,2.117961e+03
1.337393e+03,2.119601e+03
1.338358e+03,2.114178e+03
1.339322e+03,2.103292e+03
1.340286e+03,2.094208e+03
1.341250e+03,2.091095e+03
1.342215e+03,2.089626e+03
1.343179e+03,2.089966e+03
1.344143e+03,2.091836e+03
1.345107e+03,2.093868e+03
1.346072e+03,2.095544e+03
1.347036e+03,2.095414e+03
1.348000e+03,2.091982e+03
1.348964e+03,2.088310e+03
1.349928e+03,2.086322e+03
1.350893e+03,2.085612e+03
1.351857e+03,2.083374e+03
1.352821e+03,2.079267e+03
1.353785e+03,2.077034e+03
1.354750e+03,2.076895e+03
1.355714e+03,2.075904e+03
1.356678e+03,2.071558e+03
1.357642e+03,2.066747e+03
1.358607e+03,2.064631e+03
1.359571e+03,2.064179e+03
1.360535e+03,2.063741e+03
1.361499e+03,2.063268e+03
1.362464e+03,2.062635e+03
1.363428e+03,2.060962e+03
1.364392e+03,2.060515e+03
1.365356e+03,2.063500e+03
1.366320e+03,2.068164e+03
1.367285e+03,2.066888e+03
1.368249e+03,2.058035e+03
1.369213e+03,2.048986e+03
1.370177e+03,2.040279e+03
1.371142e+03,2.033549e+03
1.372106e+03,2.032190e+03
1.373070e+03,2.035152e+03
1.374034e+03,2.033881e+03
1.374999e+03,2.029262e+03
1.375963e+03,2.025915e+03
1.376927e+03,2.026541e+03
1.377891e+03,2.027973e+03
1.378855e+03,2.025595e+03
1.379820e+03,2.022172e+03
1.380784e+03,2.022131e+03
1.381748e+03,2.026596e+03
1.382712e+03,2.029870e+03
1.383677e+03,2.028601e+03
1.384641e+03,2.025553e+03
1.385605e+03,2.020580e+03
1.386569e+03,2.014797e+03
1.387534e+03,2.010121e+03
1.388498e+03,2.006743e+03
1.389462e+03,2.004964e+03
1.390426e+03,2.004468e+03
1.391391e+03,2.003571e+03
1.392355e+03,2.001266e+03
1.393319e+03,1.999368e+03
1.394283e+03,2.002418e+03
1.395247e+03,2.007473e+03
1.396212e+03,2.007529e+03
1.397176e+03,2.000794e+03
1.398140e+03,1.994227e+03
1.399104e+03,1.991065e+03
1.400069e+03,1.989395e+03
1.401033e+03,1.987736e+03
1.401997e+03,1.986860e+03
1.402961e+03,1.989288e+03
1.403926e+03,1.998540e+03
1.404890e+03,2.002275e+03
1.405854e+03,1.998694e+03
1.406818e+03,1.993841e+03
1.407782e+03,1.992053e+03
1.408747e+03,1.993085e+03
1.409711e+03,1.995217e+03
1.410675e+03,1.996689e+03
1.411639e+03,1.993657e+03
1.412604e+03,1.984756e+03
1.413568e+03,1.976743e+03
1.414532e+03,1.976540e+03
1.415496e+03,1.979769e+03
1.416461e+03,1.982674e+03
1.417425e+03,1.984356e+03
1.418389e+03,1.984866e+03
1.419353e+03,1.984451e+03
1.420318e+03,1.982576e+03
1.421282e+03,1.979414e+03
1.422246e+03,1.976321e+03
1.423210e+03,1.974813e+03
1.424174e+03,1.974382e+03
1.425139e+03,1.967268e+03
1.426103e+03,1.954267e+03
1.427067e+03,1.947236e+03
1.428031e+03,1.950935e+03
1.428996e+03,1.958132e+03
1.429960e+03,1.964161e+03
1.430924e+03,1.967584e+03
1.431888e+03,1.966838e+03
1.432853e+03,1.962258e+03
1.433817e+03,1.955466e+03
1.434781e+03,1.942237e+03
1.435745e+03,1.934766e+03
1.436709e+03,1.936240e+03
1.437674e+03,1.939271e+03
1.438638e+03,1.937897e+03
1.439602e+03,1.933212e+03
1.440566e+03,1.930493e+03
1.441531e+03,1.929450e+03
1.442495e+03,1.929576e+03
1.443459e+03,1.930589e+03
1.444423e+03,1.931541e+03
1.445388e+03,1.931443e+03
1.446352e+03,1.930165e+03
1.447316e+03,1.928498e+03
1.448280e+03,1.926982e+03
1.449245e+03,1.924199e+03
1.450209e+03,1.915068e+03
1.451173e+03,1.912146e+03
1.452137e+03,1.919016e+03
1.453101e+03,1.926516e+03
1.454066e+03,1.926271e+03
1.455030e+03,1.919498e+03
1.455994e+03,1.914908e+03
1.456958e+03,1.912323e+03
1.457923e+03,1.911089e+03
1.458887e+03,1.910780e+03
1.459851e+03,1.909941e+03
1.460815e+03,1.905106e+03
1.461780e+03,1.900358e+03
1.462744e+03,1.902286e+03
1.463708e+03,1.910064e+03
1.464672e+03,1.913180e+03
1.465636e+03,1.909651e+03
1.466601e+03,1.905643e+03
1.467565e+03,1.901437e+03
1.468529e+03,1.897752e+03
1.469493e+03,1.894506e+03
1.470458e+03,1.891525e+03
1.471422e+03,1.890627e+03
1.472386e+03,1.891589e+03
1.473350e+03,1.891966e+03
1.474315e+03,1.889954e+03
1.475279e+03,1.889112e+03
1.476243e+03,1.892825e+03
1.477207e+03,1.896928e+03
1.478172e+03,1.900549e+03
1.479136e+03,1.902837e+03
1.480100e+03,1.899266e+03
1.481064e+03,1.887392e+03
1.482028e+03,1.880862e+03
1.482993e+03,1.882351e+03
1.483957e+03,1.885356e+03
1.484921e+03,1.882434e+03
1.485885e+03,1.877195e+03
1.486850e+03,1.875582e+03
1.487814e+03,1.876744e+03
1.488778e+03,1.880876e+03
1.489742e+03,1.890255e+03
1.490707e+03,1.895102e+03
1.491671e+03,1.890939e+03
1.492635e+03,1.884948e+03
1.493599e+03,1.878589e+03
1.494563e+03,1.872167e+03
1.495528e+03,1.867408e+03
1.496492e+03,1.864061e+03
1.497456e+03,1.864537e+03
1.498420e+03,1.869563e+03
1.499385e+03,1.873938e+03
1.500349e+03,1.872402e+03
1.501313e+03,1.869796e+03
1.502277e+03,1.870291e+03
1.503242e+03,1.871961e+03
1.504206e+03,1.872250e+03
1.505170e+03,1.870556e+03
1.506134e+03,1.865990e+03
1.507099e+03,1.857087e+03
1.508063e+03,1.850050e+03
1.509027e+03,1.847671e+03
1.509991e+03,1.847272e+03
1.510955e+03,1.843820e+03
1.511920e+03,1.839021e+03
1.512884e+03,1.837688e+03
1.513848e+03,1.840416e+03
1.514812e+03,1.843603e+03
1.515777e+03,1.844402e+03
1.516741e+03,1.844041e+03
1.517705e+03,1.841307e+03
1.518669e+03,1.838661e+03
1.519634e+03,1.839039e+03
1.520598e+03,1.841876e+03
1.521562e+03,1.841319e+03
1.522526e+03,1.837214e+03
1.523490e+03,1.836169e+03
1.524455e+03,1.841386e+03
1.525419e+03,1.845418e+03
1.526383e+03,1.839534e+03
1.527347e+03,1.831147e+03
1.528312e+03,1.827604e+03
1.529276e+03,1.828798e+03
1.530240e+03,1.829488e+03
1.531204e+03,1.828814e+03
1.532169e+03,1.826634e+03
1.533133e+03,1.822344e+03
1.534097e+03,1.819481e+03
1.535061e+03,1.821713e+03
1.536026e+03,1.825701e+03
1.536990e+03,1.825517e+03
1.537954e+03,1.823141e+03
1.538918e+03,1.821916e+03
1.539882e+03,1.822473e+03
1.540847e+03,1.823749e+03
1.541811e+03,1.826336e+03
1.542775e+03,1.827197e+03
1.543739e+03,1.825909e+03
1.544704e+03,1.823557e+03
1.545668e+03,1.820502e+03
1.546632e+03,1.817718e+03
1.547596e+03,1.820671e+03
1.548561e+03,1.828204e+03
1.549525e+03,1.832255e+03
1.550489e+03,1.824459e+03
1.551453e+03,1.816621e+03
1.552417e+03,1.814322e+03
1.553382e+03,1.814117e+03
1.554346e+03,1.813473e+03
1.555310e+03,1.812932e+03
1.556274e+03,1.814741e+03
1.557239e+03,1.818660e+03
1.558203e+03,1.821514e+03
1.559167e+03,1.822534e+03
1.560131e+03,1.823066e+03
1.561096e+03,1.826381e+03
1.562060e+03,1.828195e+03
1.563024e+03,1.821475e+03
1.563988e+03,1.811179e+03
1.564953e+03,1.809118e+03
1.565917e+03,1.819354e+03
1.566881e+03,1.824057e+03
1.567845e+03,1.821774e+03
1.568809e+03,1.820516e+03
1.569774e+03,1.826010e+03
1.570738e+03,1.832609e+03
1.571702e+03,1.831894e+03
1.572666e+03,1.827812e+03
1.573631e+03,1.826743e+03
1.574595e+03,1.829764e+03
1.575559e+03,1.826455e+03
1.576523e+03,1.811289e+03
1.577488e+03,1.802836e+03
1.578452e+03,1.804445e+03
1.579416e+03,1.809204e+03
1.580380e+03,1.811282e+03
1.581344e+03,1.811347e+03
1.582309e+03,1.809230e+03
1.583273e+03,1.806728e+03
1.584237e+03,1.807978e+03
1.585201e+03,1.817795e+03
1.586166e+03,1.821434e+03
1.587130e+03,1.814086e+03
1.588094e+03,1.805706e+03
1.589058e+03,1.800917e+03
1.590023e+03,1.798374e+03
1.590987e+03,1.795567e+03
1.591951e+03,1.792704e+03
1.592915e+03,1.787859e+03
1.593880e+03,1.780535e+03
1.594844e+03,1.774734e+03
1.595808e+03,1.774790e+03
1.596772e+03,1.773215e+03
1.597736e+03,1.767424e+03
1.598701e+03,1.762767e+03
1.599665e+03,1.764910e+03
1.600629e+03,1.771355e+03
1.601593e+03,1.771346e+03
1.602558e+03,1.766608e+03
1.603522e+03,1.762374e+03
1.604486e+03,1.760084e+03
1.605450e+03,1.758000e+03
1.606415e+03,1.754329e+03
1.607379e+03,1.753877e+03
1.608343e+03,1.759943e+03
1.609307e+03,1.767516e+03
1.610271e+03,1.765905e+03
1.611236e+03,1.757796e+03
1.612200e+03,1.759348e+03
1.613164e+03,1.769420e+03
1.614128e+03,1.773689e+03
1.615093e+03,1.756715e+03
1.616057e+03,1.743077e+03
1.617021e+03,1.743705e+03
1.617985e+03,1.746336e+03
1.618950e+03,1.744668e+03
1.619914e+03,1.739479e+03
1.620878e+03,1.731877e+03
1.621842e+03,1.723348e+03
1.622807e+03,1.719384e+03
1.623771e+03,1.721447e+03
1.624735e+03,1.724322e+03
1.625699e+03,1.724773e+03
1.626663e+03,1.724582e+03
1.627628e+03,1.723485e+03
1.628592e+03,1.721918e+03
1.629556e+03,1.722042e+03
1.630520e+03,1.724254e+03
1.631485e+03,1.726185e+03
1.632449e+03,1.727395e+03
1.633413e+03,1.726895e+03
1.634377e+03,1.724293e+03
1.635342e+03,1.720556e+03
1.636306e+03,1.714255e+03
1.637270e+03,1.709426e+03
1.638234e+03,1.708392e+03
1.639198e+03,1.709417e+03
1.640163e+03,1.706876e+03
1.641127e+03,1.702532e+03
1.642091e+03,1.700867e+03
1.643055e+03,1.701654e+03
1.644020e+03,1.703050e+03
1.644984e+03,1.705263e+03
1.645948e+03,1.705207e+03
1.646912e+03,1.701592e+03
1.647877e+03,1.698094e+03
1.648841e+03,1.698819e+03
1.649805e+03,1.701862e+03
1.650769e+03,1.699945e+03
1.651734e+03,1.694732e+03
1.652698e+03,1.690269e+03
1.653662e+03,1.686635e+03
1.654626e+03,1.686673e+03
1.655590e+03,1.695644e+03
1.656555e+03,1.700420e+03
1.657519e+03,1.697322e+03
1.658483e+03,1.691398e+03
1.659447e+03,1.688143e+03
1.660412e+03,1.685828e+03
1.661376e+03,1.682359e+03
1.662340e+03,1.678680e+03
1.663304e+03,1.676614e+03
1.664269e+03,1.677608e+03
1.665233e+03,1.676436e+03
1.666197e+03,1.671795e+03
1.667161e+03,1.667403e+03
1.668125e+03,1.665597e+03
1.669090e+03,1.665666e+03
1.670054e+03,1.668652e+03
1.671018e+03,1.671687e+03
1.671982e+03,1.669860e+03
1.672947e+03,1.663445e+03
1.673911e+03,1.662790e+03
1.674875e+03,1.669678e+03
1.675839e+03,1.672061e+03
1.676804e+03,1.668934e+03
1.677768e+03,1.663534e+03
1.678732e+03,1.653893e+03
1.679696e+03,1.646389e+03
1.680661e+03,1.649304e+03
1.681625e+03,1.656276e+03
1.682589e+03,1.659551e+03
1.683553e+03,1.659493e+03
1.684517e+03,1.657698e+03
1.685482e+03,1.654036e+03
1.686446e+03,1.652101e+03
1.687410e+03,1.653275e+03
1.688374e+03,1.654487e+03
1.689339e+03,1.652770e+03
1.690303e+03,1.650857e+03
1.691267e+03,1.650853e+03
1.692231e+03,1.651578e+03
1.693196e+03,1.649128e+03
1.694160e+03,1.644111e+03
1.695124e+03,1.646801e+03
1.696088e+03,1.655898e+03
1.697052e+03,1.660853e+03
1.698017e+03,1.651974e+03
1.698981e+03,1.644547e+03
1.699945e+03,1.643419e+03
1.700909e+03,1.641261e+03
1.701874e+03,1.634515e+03
1.702838e+03,1.627612e+03
1.703802e+03,1.629685e+03
1.704766e+03,1.635820e+03
1.705731e+03,1.638926e+03
1.706695e+03,1.638376e+03
1.707659e+03,1.634951e+03
1.708623e+03,1.627102e+03
1.709588e+03,1.623297e+03
1.710552e+03,1.624296e+03
1.711516e+03,1.625626e+03
1.712480e+03,1.623598e+03
1.713444e+03,1.620341e+03
1.714409e+03,1.618744e+03
1.715373e+03,1.618253e+03
1.716337e+03,1.617539e+03
1.717301e+03,1.616986e+03
1.718266e+03,1.615910e+03
1.719230e+03,1.613946e+03
1.720194e+03,1.612206e+03
1.721158e+03,1.610772e+03
1.722123e+03,1.609424e+03
1.723087e+03,1.606461e+03
1.724051e+03,1.605701e+03
1.725015e+03,1.611010e+03
1.725979e+03,1.618035e+03
1.726944e+03,1.620220e+03
1.727908e+03,1.618118e+03
1.728872e+03,1.612073e+03
1.729836e+03,1.603346e+03
1.730801e+03,1.598049e+03
1.731765e+03,1.600693e+03
1.732729e+03,1.602926e+03
1.733693e+03,1.604470e+03
1.734658e+03,1.603760e+03
1.735622e+03,1.598800e+03
1.736586e+03,1.593941e+03
1.737550e+03,1.598705e+03
1.738515e+03,1.605181e+03
1.739479e+03,1.602462e+03
1.740443e+03,1.591786e+03
1.741407e+03,1.585886e+03
1.742371e+03,1.585293e+03
1.743336e+03,1.585605e+03
1.744300e+03,1.586338e+03
1.745264e+03,1.587229e+03
1.746228e+03,1.589047e+03
1.747193e+03,1.591591e+03
1.748157e+03,1.597624e+03
1.749121e+03,1.602768e+03
1.750085e+03,1.602007e+03
1.751050e+03,1.595556e+03
1.752014e+03,1.587310e+03
1.752978e+03,1.578957e+03
1.753942e+03,1.573457e+03
1.754906e+03,1.571047e+03
1.755871e+03,1.571435e+03
1.756835e+03,1.575823e+03
1.757799e+03,1.576268e+03
1.758763e+03,1.572633e+03
1.759728e+03,1.568585e+03
1.760692e+03,1.568125e+03
1.761656e+03,1.567714e+03
1.762620e+03,1.560687e+03
1.763585e+03,1.552329e+03
1.764549e+03,1.551010e+03
1.765513e+03,1.555953e+03
1.766477e+03,1.557849e+03
1.767442e+03,1.557655e+03
1.768406e+03,1.559046e+03
1.769370e+03,1.563661e+03
1.770334e+03,1.567004e+03
1.771298e+03,1.564457e+03
1.772263e+03,1.562320e+03
1.773227e+03,1.563462e+03
1.774191e+03,1.564346e+03
1.775155e+03,1.558043e+03
1.776120e+03,1.549308e+03
1.777084e+03,1.546302e+03
1.778048e+03,1.547330e+03
1.779012e+03,1.546481e+03
1.779977e+03,1.543100e+03
1.780941e+03,1.540247e+03
1.781905e+03,1.537313e+03
1.782869e+03,1.538272e+03
1.783833e+03,1.547384e+03
1.784798e+03,1.553545e+03
1.785762e+03,1.547869e+03
1.786726e+03,1.538622e+03
1.787690e+03,1.527928e+03
1.788655e+03,1.520033e+03
1.789619e+03,1.526445e+03
1.790583e+03,1.539503e+03
1.791547e+03,1.542550e+03
1.792512e+03,1.536577e+03
1.793476e+03,1.532225e+03
1.794440e+03,1.530400e+03
1.795404e+03,1.530367e+03
1.796369e+03,1.531760e+03
1.797333e+03,1.529858e+03
1.798297e+03,1.517784e+03
1.799261e+03,1.509781e+03
1.800225e+03,1.522601e+03
1.801190e+03,1.534426e+03
1.802154e+03,1.529876e+03
1.803118e+03,1.516246e+03
1.804082e+03,1.513645e+03
1.805047e+03,1.518363e+03
1.806011e+03,1.521909e+03
1.806975e+03,1.523000e+03
1.807939e+03,1.520935e+03
1.808904e+03,1.513256e+03
1.809868e+03,1.510472e+03
1.810832e+03,1.514340e+03
1.811796e+03,1.518470e+03
1.812760e+03,1.517859e+03
1.813725e+03,1.515626e+03
1.814689e+03,1.512578e+03
1.815653e+03,1.510257e+03
1.816617e+03,1.510629e+03
1.817582e+03,1.512087e+03
1.818546e+03,1.508349e+03
1.819510e+03,1.501473e+03
1.820474e+03,1.496264e+03
1.821439e+03,1.493808e+03
1.822403e+03,1.491552e+03
1.823367e+03,1.488847e+03
1.824331e+03,1.489418e+03
1.825296e+03,1.493564e+03
1.826260e+03,1.496690e+03
1.827224e+03,1.496380e+03
1.828188e+03,1.495117e+03
1.829152e+03,1.491030e+03
1.830117e+03,1.488353e+03
1.831081e+03,1.492987e+03
1.832045e+03,1.499902e+03
1.833009e+03,1.493571e+03
1.833974e+03,1.481475e+03
1.834938e+03,1.475992e+03
1.835902e+03,1.479617e+03
1.836866e+03,1.479624e+03
1.837831e+03,1.475598e+03
1.838795e+03,1.471682e+03
1.839759e+03,1.469276e+03
1.840723e+03,1.470128e+03
1.841688e+03,1.478858e+03
1.842652e+03,1.484854e+03
1.843616e+03,1.483055e+03
1.844580e+03,1.478531e+03
1.845544e+03,1.477772e+03
1.846509e+03,1.478404e+03
1.847473e+03,1.474129e+03
1.848437e+03,1.468330e+03
1.849401e+03,1.468277e+03
1.850366e+03,1.474260e+03
1.851330e+03,1.477903e+03
1.852294e+03,1.479490e+03
1.853258e+03,1.476496e+03
1.854223e+03,1.467654e+03
1.855187e+03,1.460565e+03
1.856151e+03,1.459156e+03
1.857115e+03,1.457826e+03
1.858079e+03,1.455473e+03
1.859044e+03,1.452024e+03
1.860008e+03,1.446109e+03
1.860972e+03,1.441635e+03
1.861936e+03,1.444302e+03
1.862901e+03,1.449552e+03
1.863865e+03,1.449536e+03
1.864829e+03,1.444330e+03
1.865793e+03,1.443146e+03
1.866758e+03,1.444892e+03
1.867722e+03,1.444671e+03
1.868686e+03,1.440325e+03
1.869650e+03,1.436708e+03
1.870615e+03,1.432907e+03
1.871579e+03,1.435525e+03
1.872543e+03,1.448162e+03
1.873507e+03,1.457984e+03
1.874471e+03,1.447601e+03
1.875436e+03,1.436808e+03
1.876400e+03,1.436519e+03
1.877364e+03,1.439403e+03
1.878328e+03,1.437877e+03
1.879293e+03,1.432864e+03
1.880257e+03,1.422209e+03
1.881221e+03,1.410255e+03
1.882185e+03,1.408328e+03
1.883150e+03,1.417247e+03
1.884114e+03,1.420164e+03
1.885078e+03,1.417549e+03
1.886042e+03,1.415452e+03
1.887006e+03,1.415620e+03
1.887971e+03,1.415200e+03
1.888935e+03,1.412760e+03
1.889899e+03,1.413921e+03
1.890863e+03,1.420086e+03
1.891828e+03,1.424524e+03
1.892792e+03,1.417810e+03
1.893756e+03,1.410900e+03
1.894720e+03,1.416401e+03
1.895685e+03,1.425295e+03
1.896649e+03,1.426388e+03
1.897613e+03,1.421447e+03
1.898577e+03,1.418705e+03
1.899542e+03,1.416556e+03
1.900506e+03,1.409375e+03
1.901470e+03,1.395108e+03
1.902434e+03,1.392429e+03
1.903398e+03,1.400828e+03
1.904363e+03,1.407732e+03
1.905327e+03,1.410282e+03
1.906291e+03,1.409681e+03
1.907255e+03,1.401519e+03
1.908220e+03,1.396727e+03
1.909184e+03,1.398149e+03
1.910148e+03,1.399788e+03
1.911112e+03,1.394629e+03
1.912077e+03,1.389526e+03
1.913041e+03,1.391953e+03
1.914005e+03,1.396015e+03
1.914969e+03,1.394672e+03
1.915933e+03,1.390129e+03
1.916898e+03,1.392077e+03
1.917862e+03,1.396564e+03
1.918826e+03,1.393326e+03
1.919790e+03,1.380826e+03
1.920755e+03,1.375907e+03
1.921719e+03,1.377500e+03
1.922683e+03,1.380117e+03
1.923647e+03,1.383210e+03
1.924612e+03,1.382939e+03
1.925576e+03,1.375194e+03
1.926540e+03,1.366449e+03
1.927504e+03,1.355677e+03
1.928469e+03,1.349369e+03
1.929433e+03,1.358113e+03
1.930397e+03,1.367444e+03
1.931361e+03,1.365372e+03
1.932325e+03,1.360477e+03
1.933290e+03,1.360678e+03
1.934254e+03,1.363698e+03
1.935218e+03,1.358592e+03
1.936182e+03,1.350765e+03
1.937147e+03,1.353860e+03
1.938111e+03,1.366709e+03
1.939075e+03,1.368361e+03
1.940039e+03,1.361179e+03
1.941004e+03,1.355441e+03
1.941968e+03,1.351900e+03
1.942932e+03,1.350610e+03
1.943896e+03,1.353180e+03
1.944860e+03,1.355595e+03
1.945825e+03,1.358245e+03
1.946789e+03,1.357595e+03
1.947753e+03,1.343547e+03
1.948717e+03,1.335575e+03
1.949682e+03,1.346570e+03
1.950646e+03,1.355372e+03
1.951610e+03,1.347572e+03
1.952574e+03,1.333983e+03
1.953539e+03,1.328821e+03
1.954503e+03,1.327814e+03
1.955467e+03,1.327615e+03
1.956431e+03,1.327760e+03
1.957396e+03,1.325965e+03
1.958360e+03,1.323202e+03
1.959324e+03,1.322761e+03
1.960288e+03,1.325272e+03
1.961252e+03,1.329156e+03
1.962217e+03,1.333909e+03
1.963181e+03,1.333698e+03
1.964145e+03,1.328541e+03
1.965109e+03,1.323148e+03
1.966074e+03,1.318361e+03
1.967038e+03,1.318439e+03
1.968002e+03,1.323010e+03
1.968966e+03,1.326784e+03
1.969931e+03,1.327678e+03
1.970895e+03,1.326482e+03
1.971859e+03,1.325218e+03
1.972823e+03,1.322526e+03
1.973787e+03,1.316373e+03
1.974752e+03,1.309893e+03
1.975716e+03,1.308098e+03
1.976680e+03,1.308656e+03
1.977644e+03,1.312401e+03
1.978609e+03,1.316325e+03
1.979573e+03,1.312813e+03
1.980537e+03,1.304490e+03
1.981501e+03,1.302793e+03
1.982466e+03,1.305325e+03
1.983430e+03,1.302529e+03
1.984394e+03,1.292170e+03
1.985358e+03,1.293583e+03
1.986323e+03,1.304188e+03
1.987287e+03,1.308505e+03
1.988251e+03,1.300192e+03
1.989215e+03,1.295163e+03
1.990179e+03,1.296142e+03
1.991144e+03,1.298648e+03
1.992108e+03,1.302588e+03
1.993072e+03,1.302974e+03
1.994036e+03,1.288398e+03
1.995001e+03,1.281152e+03
1.995965e+03,1.289013e+03
1.996929e+03,1.298683e+03
1.997893e+03,1.295599e+03
1.998858e+03,1.288683e+03
1.999822e+03,1.284629e+03
2.000786e+03,1.282202e+03
2.001750e+03,1.281988e+03
2.002714e+03,1.283329e+03
2.003679e+03,1.281968e+03
2.004643e+03,1.279191e+03
2.005607e+03,1.278577e+03
2.006571e+03,1.279482e+03
2.007536e+03,1.275648e+03
2.008500e+03,1.269601e+03
2.009464e+03,1.270257e+03
2.010428e+03,1.277973e+03
2.011393e+03,1.280565e+03
2.012357e+03,1.277094e+03
2.013321e+03,1.271836e+03
2.014285e+03,1.264524e+03
2.015250e+03,1.257201e+03
2.016214e+03,1.249105e+03
2.017178e+03,1.245024e+03
2.018142e+03,1.245576e+03
2.019106e+03,1.248895e+03
2.020071e+03,1.255521e+03
2.021035e+03,1.260294e+03
2.021999e+03,1.259482e+03
2.022963e+03,1.258213e+03
2.023928e+03,1.259289e+03
2.024892e+03,1.259627e+03
2.025856e+03,1.253423e+03
2.026820e+03,1.247676e+03
2.027785e+03,1.247246e+03
2.028749e+03,1.248035e+03
2.029713e+03,1.243922e+03
2.030677e+03,1.238847e+03
2.031641e+03,1.237025e+03
2.032606e+03,1.238350e+03
2.033570e+03,1.243187e+03
2.034534e+03,1.249894e+03
2.035498e+03,1.253483e+03
2.036463e+03,1.253724e+03
2.037427e+03,1.248254e+03
2.038391e+03,1.238285e+03
2.039355e+03,1.229720e+03
2.040320e+03,1.223634e+03
2.041284e+03,1.225285e+03
2.042248e+03,1.235801e+03
2.043212e+03,1.241290e+03
2.044177e+03,1.241090e+03
2.045141e+03,1.240162e+03
2.046105e+03,1.238969e+03
2.047069e+03,1.236450e+03
2.048033e+03,1.227807e+03
2.048998e+03,1.226117e+03
2.049962e+03,1.233528e+03
2.050926e+03,1.238445e+03
2.051890e+03,1.231835e+03
2.052854e+03,1.222275e+03
2.053819e+03,1.209358e+03
2.054783e+03,1.200928e+03
2.055747e+03,1.203180e+03
2.056711e+03,1.209682e+03
2.057676e+03,1.217059e+03
2.058640e+03,1.222590e+03
2.059604e+03,1.224095e+03
2.060568e+03,1.222183e+03
2.061533e+03,1.217083e+03
2.062497e+03,1.211140e+03
2.063461e+03,1.205420e+03
2.064425e+03,1.201520e+03
2.065390e+03,1.203308e+03
2.066354e+03,1.207454e+03
2.067318e+03,1.209686e+03
2.068282e+03,1.209007e+03
2.069247e+03,1.202500e+03
2.070211e+03,1.191700e+03
2.071175e+03,1.189583e+03
2.072139e+03,1.193080e+03
2.073104e+03,1.195115e+03
2.074068e+03,1.194873e+03
2.075032e+03,1.190269e+03
2.075996e+03,1.182348e+03
2.076960e+03,1.177785e+03
2.077925e+03,1.177814e+03
2.078889e+03,1.179786e+03
2.079853e+03,1.183546e+03
2.080817e+03,1.184933e+03
2.081782e+03,1.183434e+03
2.082746e+03,1.180374e+03
2.083710e+03,1.175150e+03
2.084674e+03,1.174919e+03
2.085639e+03,1.180697e+03
2.086603e+03,1.184664e+03
2.087567e+03,1.178778e+03
2.088531e+03,1.172843e+03
2.089496e+03,1.167455e+03
2.090460e+03,1.163507e+03
2.091424e+03,1.163709e+03
2.092388e+03,1.165611e+03
2.093353e+03,1.166956e+03
2.094317e+03,1.170194e+03
2.095281e+03,1.175910e+03
2.096245e+03,1.178725e+03
2.097209e+03,1.168627e+03
2.098174e+03,1.161312e+03
2.099138e+03,1.165584e+03
2.100102e+03,1.170843e+03
2.101066e+03,1.161678e+03
2.102031e+03,1.152118e+03
2.102995e+03,1.158999e+03
2.103959e+03,1.167600e+03
2.104923e+03,1.165270e+03
2.105887e+03,1.158703e+03
2.106852e+03,1.154070e+03
2.107816e+03,1.152344e+03
2.108780e+03,1.156779e+03
2.109744e+03,1.162905e+03
2.110708e+03,1.159175e+03
2.111673e+03,1.151875e+03
2.112637e+03,1.149634e+03
2.113601e+03,1.149299e+03
2.114565e+03,1.142171e+03
2.115530e+03,1.133080e+03
2.116494e+03,1.135779e+03
2.117458e+03,1.146898e+03
2.118422e+03,1.142797e+03
2.119387e+03,1.127701e+03
2.120351e+03,1.137180e+03
2.121315e+03,1.162480e+03
2.122279e+03,1.172832e+03
2.123244e+03,1.166173e+03
2.124208e+03,1.161191e+03
2.125172e+03,1.157446e+03
2.126136e+03,1.151506e+03
2.127101e+03,1.142399e+03
2.128065e+03,1.134129e+03
2.129029e+03,1.127017e+03
2.129993e+03,1.127545e+03
2.130958e+03,1.135886e+03
2.131922e+03,1.138590e+03
2.132886e+03,1.134755e+03
2.133850e+03,1.129788e+03
2.134814e+03,1.125590e+03
2.135779e+03,1.124134e+03
2.136743e+03,1.126928e+03
2.137707e+03,1.126085e+03
2.138671e+03,1.121815e+03
2.139636e+03,1.117694e+03
2.140600e+03,1.114307e+03
2.141564e+03,1.114767e+03
2.142528e+03,1.119742e+03
2.143493e+03,1.121297e+03
2.144457e+03,1.114587e+03
2.145421e+03,1.108281e+03
2.146385e+03,1.104874e+03
2.147350e+03,1.101950e+03
2.148314e+03,1.099008e+03
2.149278e+03,1.101195e+03
2.150242e+03,1.117493e+03
2.151207e+03,1.126387e+03
2.152171e+03,1.123925e+03
2.153135e+03,1.115068e+03
2.154099e+03,1.098421e+03
2.155063e+03,1.088152e+03
2.156028e+03,1.087808e+03
2.156992e+03,1.091727e+03
2.157956e+03,1.097862e+03
2.158920e+03,1.100508e+03
2.159885e+03,1.094891e+03
2.160849e+03,1.091408e+03
2.161813e+03,1.096877e+03
2.162777e+03,1.100976e+03
2.163741e+03,1.092139e+03
2.164706e+03,1.083778e+03
2.165670e+03,1.081884e+03
2.166634e+03,1.083537e+03
2.167598e+03,1.085452e+03
2.168563e+03,1.088706e+03
2.169527e+03,1.094068e+03
2.170491e+03,1.095993e+03
2.171455e+03,1.087257e+03
2.172420e+03,1.077110e+03
2.173384e+03,1.069532e+03
2.174348e+03,1.067601e+03
2.175312e+03,1.079681e+03
2.176277e+03,1.090746e+03
2.177241e+03,1.082670e+03
2.178205e+03,1.070669e+03
2.179169e+03,1.064120e+03
2.180134e+03,1.061189e+03
2.181098e+03,1.058343e+03
2.182062e+03,1.058096e+03
2.183026e+03,1.061712e+03
2.183990e+03,1.066063e+03
2.184955e+03,1.067288e+03
2.185919e+03,1.066555e+03
2.186883e+03,1.064526e+03
2.187847e+03,1.060526e+03
2.188812e+03,1.050203e+03
2.189776e+03,1.042067e+03
2.190740e+03,1.050029e+03
2.191704e+03,1.059581e+03
2.192668e+03,1.056331e+03
2.193633e+03,1.048679e+03
2.194597e+03,1.048485e+03
2.195561e+03,1.050388e+03
2.196525e+03,1.048770e+03
2.197490e+03,1.045701e+03
2.198454e+03,1.043733e+03
2.199418e+03,1.043918e+03
2.200382e+03,1.047515e+03
2.201347e+03,1.053467e+03
2.202311e+03,1.062483e+03
2.203275e+03,1.067957e+03
2.204239e+03,1.059092e+03
2.205204e+03,1.045926e+03
2.206168e+03,1.044285e+03
2.207132e+03,1.047247e+03
2.208096e+03,1.045392e+03
2.209061e+03,1.041556e+03
2.210025e+03,1.039559e+03
2.210989e+03,1.038836e+03
2.211953e+03,1.040794e+03
2.212917e+03,1.043016e+03
2.213882e+03,1.038553e+03
2.214846e+03,1.032223e+03
2.215810e+03,1.037673e+03
2.216774e+03,1.043292e+03
2.217739e+03,1.039701e+03
2.218703e+03,1.032618e+03
2.219667e+03,1.031148e+03
2.220631e+03,1.031854e+03
2.221595e+03,1.031453e+03
2.222560e+03,1.029599e+03
2.223524e+03,1.025638e+03
2.224488e+03,1.020622e+03
2.225452e+03,1.014767e+03
2.226417e+03,1.010623e+03
2.227381e+03,1.011032e+03
2.228345e+03,1.014431e+03
2.229309e+03,1.020168e+03
2.230274e+03,1.023825e+03
2.231238e+03,1.021130e+03
2.232202e+03,1.015806e+03
2.233166e+03,1.014653e+03
2.234131e+03,1.014314e+03
2.235095e+03,1.011954e+03
2.236059e+03,1.008116e+03
2.237023e+03,1.001337e+03
2.237988e+03,9.954960e+02
2.238952e+03,9.922689e+02
2.239916e+03,9.919250e+02
2.240880e+03,1.000613e+03
2.241844e+03,1.007176e+03
2.242809e+03,1.002568e+03
2.243773e+03,9.941295e+02
2.244737e+03,9.840948e+02
2.245701e+03,9.782546e+02
2.246666e+03,9.846609e+02
2.247630e+03,9.921138e+02
2.248594e+03,9.946550e+02
2.249558e+03,9.954335e+02
2.250522e+03,9.947028e+02
2.251487e+03,9.965187e+02
2.252451e+03,1.004070e+03
2.253415e+03,1.007547e+03
2.254379e+03,9.925053e+02
2.255344e+03,9.798539e+02
2.256308e+03,9.782109e+02
2.257272e+03,9.809647e+02
2.258236e+03,9.842751e+02
2.259201e+03,9.860642e+02
2.260165e+03,9.852034e+02
2.261129e+03,9.830134e+02
2.262093e+03,9.807510e+02
2.263058e+03,9.760665e+02
2.264022e+03,9.684313e+02
2.264986e+03,9.637704e+02
2.265950e+03,9.672228e+02
2.266915e+03,9.703011e+02
2.267879e+03,9.699402e+02
2.268843e+03,9.673950e+02
2.269807e+03,9.635621e+02
2.270771e+03,9.616053e+02
2.271736e+03,9.634733e+02
2.272700e+03,9.658722e+02
2.273664e+03,9.671930e+02
2.274628e+03,9.657025e+02
2.275593e+03,9.579822e+02
2.276557e+03,9.560479e+02
2.277521e+03,9.626401e+02
2.278485e+03,9.666953e+02
2.279449e+03,9.607585e+02
2.280414e+03,9.565183e+02
2.281378e+03,9.545365e+02
2.282342e+03,9.535967e+02
2.283306e+03,9.515366e+02
2.284271e+03,9.535292e+02
2.285235e+03,9.588253e+02
2.286199e+03,9.606771e+02
2.287163e+03,9.569872e+02
2.288128e+03,9.548210e+02
2.289092e+03,9.532653e+02
2.290056e+03,9.499171e+02
2.291020e+03,9.445147e+02
2.291985e+03,9.458477e+02
2.292949e+03,9.533443e+02
2.293913e+03,9.539355e+02
2.294877e+03,9.465071e+02
2.295842e+03,9.422225e+02
2.296806e+03,9.407428e+02
2.297770e+03,9.403599e+02
2.298734e+03,9.404048e+02
2.299698e+03,9.394665e+02
2.300663e+03,9.378840e+02
2.301627e+03,9.364256e+02
2.302591e+03,9.341754e+02
2.303555e+03,9.284249e+02
2.304520e+03,9.215452e+02
2.305484e+03,9.275655e+02
2.306448e+03,9.374667e+02
2.307412e+03,9.333420e+02
2.308376e+03,9.215698e+02
2.309341e+03,9.202038e+02
2.310305e+03,9.229191e+02
2.311269e+03,9.211455e+02
2.312233e+03,9.191259e+02
2.313198e+03,9.253066e+02
2.314162e+03,9.320264e+02
2.315126e+03,9.299861e+02
2.316090e+03,9.256673e+02
2.317055e+03,9.267489e+02
2.318019e+03,9.290208e+02
2.318983e+03,9.273775e+02
2.319947e+03,9.258513e+02
2.320912e+03,9.318000e+02
2.321876e+03,9.337093e+02
2.322840e+03,9.155864e+02
2.323804e+03,9.028868e+02
2.324769e+03,9.096214e+02
2.325733e+03,9.197748e+02
2.326697e+03,9.228477e+02
2.327661e+03,9.238740e+02
2.328625e+03,9.235609e+02
2.329590e+03,9.193199e+02
2.330554e+03,9.073592e+02
2.331518e+03,8.998074e+02
2.332482e+03,8.984619e+02
2.333447e+03,8.986578e+02
2.334411e+03,8.984814e+02
2.335375e+03,8.987664e+02
2.336339e+03,8.994866e+02
2.337303e+03,8.988876e+02
2.338268e+03,8.942975e+02
2.339232e+03,8.933311e+02
2.340196e+03,8.958055e+02
2.341160e+03,8.986361e+02
2.342125e+03,9.009695e+02
2.343089e+03,9.050392e+02
2.344053e+03,9.088815e+02
2.345017e+03,9.097202e+02
2.345982e+03,9.075898e+02
2.346946e+03,9.037029e+02
2.347910e+03,8.993030e+02
2.348874e+03,8.957631e+02
2.349839e+03,8.918303e+02
2.350803e+03,8.849716e+02
2.351767e+03,8.778101e+02
2.352731e+03,8.748792e+02
2.353696e+03,8.757241e+02
2.354660e+03,8.793800e+02
2.355624e+03,8.836175e+02
2.356588e+03,8.871549e+02
2.357552e+03,8.886676e+02
2.358517e+03,8.862128e+02
2.359481e+03,8.821252e+02
2.360445e+03,8.765173e+02
2.361409e+03,8.734011e+02
2.362374e+03,8.757996e+02
2.363338e+03,8.790824e+02
2.364302e+03,8.823506e+02
2.365266e+03,8.822736e+02
2.366230e+03,8.761682e+02
2.367195e+03,8.716620e+02
2.368159e+03,8.765121e+02
2.369123e+03,8.758657e+02
2.370087e+03,8.682443e+02
2.371052e+03,8.632689e+02
2.372016e+03,8.663792e+02
2.372980e+03,8.705524e+02
2.373944e+03,8.748656e+02
2.374909e+03,8.769454e+02
2.375873e+03,8.761664e+02
2.376837e+03,8.735057e+02
2.377801e+03,8.693060e+02
2.378766e+03,8.635895e+02
2.379730e+03,8.567156e+02
2.380694e+03,8.531744e+02
2.381658e+03,8.526515e+02
2.382623e+03,8.530899e+02
2.383587e+03,8.540468e+02
2.384551e+03,8.565995e+02
2.385515e+03,8.585865e+02
2.386479e+03,8.559769e+02
2.387444e+03,8.525159e+02
2.388408e+03,8.544330e+02
2.389372e+03,8.581638e+02
2.390336e+03,8.596483e+02
2.391301e+03,8.600457e+02
2.392265e+03,8.608490e+02
2.393229e+03,8.592602e+02
2.394193e+03,8.524306e+02
2.395157e+03,8.476778e+02
2.396122e+03,8.510638e+02
2.397086e+03,8.554307e+02
2.398050e+03,8.594265e+02
2.399014e+03,8.595930e+02
2.399979e+03,8.535090e+02
2.400943e+03,8.467498e+02
2.401907e+03,8.399064e+02
2.402871e+03,8.370338e+02
2.403836e+03,8.394570e+02
2.404800e+03,8.410505e+02
2.405764e+03,8.411309e+02
2.406728e+03,8.445607e+02
2.407693e+03,8.490616e+02
2.408657e+03,8.411623e+02
2.409621e+03,8.251404e+02
2.410585e+03,8.205489e+02
2.411550e+03,8.241964e+02
2.412514e+03,8.237322e+02
2.413478e+03,8.219393e+02
2.414442e+03,8.282463e+02
2.415406e+03,8.369156e+02
2.416371e+03,8.428506e+02
2.417335e+03,8.445559e+02
2.418299e+03,8.354238e+02
2.419263e+03,8.262309e+02
2.420228e+03,8.217171e+02
2.421192e+03,8.223082e+02
2.422156e+03,8.354451e+02
2.423120e+03,8.422904e+02
2.424084e+03,8.372429e+02
2.425049e+03,8.293596e+02
2.426013e+03,8.226813e+02
2.426977e+03,8.208658e+02
2.427941e+03,8.245799e+02
2.428906e+03,8.238447e+02
2.429870e+03,8.141879e+02
2.430834e+03,8.111054e+02
2.431798e+03,8.143799e+02
2.432763e+03,8.213184e+02
2.433727e+03,8.299857e+02
2.434691e+03,8.274439e+02
2.435655e+03,8.182513e+02
2.436620e+03,8.113113e+02
2.437584e+03,8.071172e+02
2.438548e+03,8.069940e+02
2.439512e+03,8.092039e+02
2.440477e+03,8.117026e+02
2.441441e+03,8.133979e+02
2.442405e+03,8.158789e+02
2.443369e+03,8.138233e+02
2.444333e+03,8.045681e+02
2.445298e+03,7.965432e+02
2.446262e+03,7.982042e+02
2.447226e+03,7.998176e+02
2.448190e+03,7.999695e+02
2.449155e+03,8.011117e+02
2.450119e+03,8.068712e+02
2.451083e+03,8.097853e+02
2.452047e+03,8.096173e+02
2.453011e+03,8.072356e+02
2.453976e+03,8.031747e+02
2.454940e+03,7.958526e+02
2.455904e+03,7.877998e+02
2.456868e+03,7.849171e+02
2.457833e+03,7.860986e+02
2.458797e+03,7.930370e+02
2.459761e+03,7.992019e+02
2.460725e+03,7.933027e+02
2.461690e+03,7.830806e+02
2.462654e+03,7.771350e+02
2.463618e+03,7.763455e+02
2.464582e+03,7.819828e+02
2.465547e+03,7.884306e+02
2.466511e+03,7.896072e+02
2.467475e+03,7.889461e+02
2.468439e+03,7.872578e+02
2.469404e+03,7.861274e+02
2.470368e+03,7.896892e+02
2.471332e+03,7.874628e+02
2.472296e+03,7.797402e+02
2.473260e+03,7.783165e+02
2.474225e+03,7.868983e+02
2.475189e+03,7.882574e+02
2.476153e+03,7.850858e+02
2.477117e+03,7.835400e+02
2.478082e+03,7.828943e+02
2.479046e+03,7.793515e+02
2.480010e+03,7.750790e+02
2.480974e+03,7.732006e+02
2.481938e+03,7.732727e+02
2.482903e+03,7.772032e+02
2.483867e+03,7.788281e+02
2.484831e+03,7.742698e+02
2.485795e+03,7.695003e+02
2.486760e+03,7.713538e+02
2.487724e+03,7.709250e+02
2.488688e+03,7.669698e+02
2.489652e+03,7.646067e+02
2.490617e+03,7.671477e+02
2.491581e+03,7.665388e+02
2.492545e+03,7.638181e+02
2.493509e+03,7.635045e+02
2.494474e+03,7.654598e+02
2.495438e+03,7.651213e+02
2.496402e+03,7.635115e+02
2.497366e+03,7.635843e+02
2.498331e+03,7.637899e+02
2.499295e+03,7.590480e+02
2.500259e+03,7.550468e+02
2.501223e+03,7.590624e+02
2.502188e+03,7.618654e+02
2.503152e+03,7.485870e+02
2.504116e+03,7.400524e+02
2.505080e+03,7.424756e+02
2.506044e+03,7.471808e+02
2.507009e+03,7.501848e+02
2.507973e+03,7.491710e+02
2.508937e+03,7.451575e+02
2.509901e+03,7.466423e+02
2.510865e+03,7.560316e+02
2.511830e+03,7.565645e+02
2.512794e+03,7.508635e+02
2.513758e+03,7.476703e+02
2.514722e+03,7.473630e+02
2.515687e+03,7.511527e+02
2.516651e+03,7.522949e+02
2.517615e+03,7.422575e+02
2.518579e+03,7.316495e+02
2.519544e+03,7.352848e+02
2.520508e+03,7.417012e+02
2.521472e+03,7.472467e+02
2.522436e+03,7.489652e+02
2.523401e+03,7.394044e+02
2.524365e+03,7.390661e+02
2.525329e+03,7.479139e+02
2.526293e+03,7.504965e+02
2.527258e+03,7.435516e+02
2.528222e+03,7.395482e+02
2.529186e+03,7.373993e+02
2.530150e+03,7.328562e+02
2.531115e+03,7.275941e+02
2.532079e+03,7.264523e+02
2.533043e+03,7.280190e+02
2.534007e+03,7.307737e+02
2.534971e+03,7.318260e+02
2.535936e+03,7.266403e+02
2.536900e+03,7.223071e+02
2.537864e+03,7.211534e+02
2.538828e+03,7.216699e+02
2.539792e+03,7.217971e+02
2.540757e+03,7.249349e+02
2.541721e+03,7.311312e+02
2.542685e+03,7.332997e+02
2.543649e+03,7.315846e+02
2.544614e+03,7.286121e+02
2.545578e+03,7.253703e+02
2.546542e+03,7.257836e+02
2.547506e+03,7.284241e+02
2.548471e+03,7.289307e+02
2.549435e+03,7.296645e+02
2.550399e+03,7.353390e+02
2.551363e+03,7.363644e+02
2.552328e+03,7.196505e+02
2.553292e+03,7.125914e+02
2.554256e+03,7.282805e+02
2.555220e+03,7.342589e+02
2.556185e+03,7.244897e+02
2.557149e+03,7.194646e+02
2.558113e+03,7.225781e+02
2.559077e+03,7.254275e+02
2.560042e+03,7.262747e+02
2.561006e+03,7.191065e+02
2.561970e+03,7.105887e+02
2.562934e+03,7.136099e+02
2.563898e+03,7.195474e+02
2.564863e+03,7.173103e+02
2.565827e+03,7.139399e+02
2.566791e+03,7.160417e+02
2.567755e+03,7.199081e+02
2.568719e+03,7.237750e+02
2.569684e+03,7.238784e+02
2.570648e+03,7.172994e+02
2.571612e+03,7.123355e+02
2.572576e+03,7.099534e+02
2.573541e+03,7.102831e+02
2.574505e+03,7.120250e+02
2.575469e+03,7.147421e+02
2.576433e+03,7.155600e+02
2.577398e+03,7.101747e+02
2.578362e+03,7.029453e+02
2.579326e+03,6.972685e+02
2.580290e+03,6.964129e+02
2.581255e+03,7.011586e+02
2.582219e+03,7.062001e+02
2.583183e+03,7.089033e+02
2.584147e+03,7.101134e+02
2.585112e+03,7.105541e+02
2.586076e+03,7.043465e+02
2.587040e+03,6.908712e+02
2.588004e+03,6.896721e+02
2.588969e+03,6.956216e+02
2.589933e+03,6.985871e+02
2.590897e+03,6.996638e+02
2.591861e+03,7.028393e+02
2.592825e+03,7.030389e+02
2.593790e+03,6.955299e+02
2.594754e+03,6.894302e+02
2.595718e+03,6.927775e+02
2.596682e+03,6.918391e+02
2.597646e+03,6.831946e+02
2.598611e+03,6.820994e+02
2.599575e+03,6.896314e+02
2.600539e+03,6.944396e+02
2.601503e+03,6.951171e+02
2.602468e+03,6.934852e+02
2.603432e+03,6.902682e+02
2.604396e+03,6.880009e+02
2.605360e+03,6.854226e+02
2.606325e+03,6.787363e+02
2.607289e+03,6.741012e+02
2.608253e+03,6.742539e+02
2.609217e+03,6.766062e+02
2.610182e+03,6.800419e+02
2.611146e+03,6.824050e+02
2.612110e+03,6.836541e+02
2.613074e+03,6.817039e+02
2.614039e+03,6.777311e+02
2.615003e+03,6.786375e+02
2.615967e+03,6.805519e+02
2.616931e+03,6.786842e+02
2.617896e+03,6.764777e+02
2.618860e+03,6.782100e+02
2.619824e+03,6.816089e+02
2.620788e+03,6.858262e+02
2.621752e+03,6.866193e+02
2.622717e+03,6.804948e+02
2.623681e+03,6.750450e+02
2.624645e+03,6.709103e+02
2.625609e+03,6.732554e+02
2.626573e+03,6.798748e+02
2.627538e+03,6.726908e+02
2.628502e+03,6.615695e+02
2.629466e+03,6.608239e+02
2.630430e+03,6.643358e+02
2.631395e+03,6.640356e+02
2.632359e+03,6.658764e+02
2.633323e+03,6.737657e+02
2.634287e+03,6.760917e+02
2.635252e+03,6.709962e+02
2.636216e+03,6.672988e+02
2.637180e+03,6.663132e+02
2.638144e+03,6.674828e+02
2.639109e+03,6.690069e+02
2.640073e+03,6.667321e+02
2.641037e+03,6.632223e+02
2.642001e+03,6.600579e+02
2.642966e+03,6.564841e+02
2.643930e+03,6.516689e+02
2.644894e+03,6.485350e+02
2.645858e+03,6.484314e+02
2.646823e+03,6.559216e+02
2.647787e+03,6.687062e+02
2.648751e+03,6.664501e+02
2.649715e+03,6.489802e+02
2.650679e+03,6.443419e+02
2.651644e+03,6.480098e+02
2.652608e+03,6.526038e+02
2.653572e+03,6.568310e+02
2.654536e+03,6.599188e+02
2.655500e+03,6.616677e+02
2.656465e+03,6.624465e+02
2.657429e+03,6.576172e+02
2.658393e+03,6.447081e+02
2.659357e+03,6.408386e+02
2.660322e+03,6.475505e+02
2.661286e+03,6.497654e+02
2.662250e+03,6.484462e+02
2.663214e+03,6.471869e+02
2.664179e+03,6.464736e+02
2.665143e+03,6.460728e+02
2.666107e+03,6.489580e+02
2.667071e+03,6.574899e+02
2.668036e+03,6.625115e+02
2.669000e+03,6.560455e+02
2.669964e+03,6.509529e+02
2.670928e+03,6.476659e+02
2.671893e+03,6.457925e+02
2.672857e+03,6.453405e+02
2.673821e+03,6.452751e+02
2.674785e+03,6.464185e+02
2.675750e+03,6.513626e+02
2.676714e+03,6.540135e+02
2.677678e+03,6.411010e+02
2.678642e+03,6.366676e+02
2.679606e+03,6.467017e+02
2.680571e+03,6.474099e+02
2.681535e+03,6.353556e+02
2.682499e+03,6.362068e+02
2.683463e+03,6.460969e+02
2.684427e+03,6.456706e+02
2.685392e+03,6.387999e+02
2.686356e+03,6.252949e+02
2.687320e+03,6.180604e+02
2.688284e+03,6.355538e+02
2.689249e+03,6.415287e+02
2.690213e+03,6.287861e+02
2.691177e+03,6.190751e+02
2.692141e+03,6.201711e+02
2.693106e+03,6.244651e+02
2.694070e+03,6.291151e+02
2.695034e+03,6.243432e+02
2.695998e+03,6.181964e+02
2.696963e+03,6.286707e+02
2.697927e+03,6.383946e+02
2.698891e+03,6.384318e+02
2.699855e+03,6.330860e+02
2.700820e+03,6.227861e+02
2.701784e+03,6.233924e+02
2.702748e+03,6.340462e+02
2.703712e+03,6.381024e+02
2.704677e+03,6.361729e+02
2.705641e+03,6.331539e+02
2.706605e+03,6.289785e+02
2.707569e+03,6.184052e+02
2.708533e+03,6.125945e+02
2.709498e+03,6.162728e+02
2.710462e+03,6.220223e+02
2.711426e+03,6.291982e+02
2.712390e+03,6.305392e+02
2.713354e+03,6.268561e+02
2.714319e+03,6.195471e+02
2.715283e+03,6.124565e+02
2.716247e+03,6.158489e+02
2.717211e+03,6.226979e+02
2.718176e+03,6.284215e+02
2.719140e+03,6.306567e+02
2.720104e+03,6.264685e+02
2.721068e+03,6.215130e+02
2.722033e+03,6.167763e+02
2.722997e+03,6.158474e+02
2.723961e+03,6.166082e+02
2.724925e+03,6.078080e+02
2.725890e+03,5.996768e+02
2.726854e+03,6.109451e+02
2.727818e+03,6.211518e+02
2.728782e+03,6.179957e+02
2.729747e+03,6.131132e+02
2.730711e+03,6.109229e+02
2.731675e+03,6.136976e+02
2.732639e+03,6.205724e+02
2.733604e+03,6.283939e+02
2.734568e+03,6.345616e+02
2.735532e+03,6.321528e+02
2.736496e+03,6.243866e+02
2.737460e+03,6.130389e+02
2.738425e+03,6.076662e+02
2.739389e+03,6.157413e+02
2.740353e+03,6.206779e+02
2.741317e+03,6.201420e+02
2.742281e+03,6.159238e+02
2.743246e+03,6.108441e+02
2.744210e+03,6.128205e+02
2.745174e+03,6.166052e+02
2.746138e+03,6.197480e+02
2.747103e+03,6.158887e+02
2.748067e+03,6.029756e+02
2.749031e+03,5.965387e+02
2.749995e+03,6.087133e+02
2.750960e+03,6.088622e+02
2.751924e+03,6.010616e+02
2.752888e+03,5.987485e+02
2.753852e+03,5.992791e+02
2.754817e+03,5.938359e+02
2.755781e+03,5.918715e+02
2.756745e+03,5.999646e+02
2.757709e+03,6.051326e+02
2.758674e+03,6.028391e+02
2.759638e+03,5.981218e+02
2.760602e+03,5.934499e+02
2.761566e+03,6.029788e+02
2.762531e+03,6.150673e+02
2.763495e+03,6.047667e+02
2.764459e+03,5.913141e+02
2.765423e+03,5.951502e+02
2.766387e+03,6.018168e+02
2.767352e+03,6.081406e+02
2.768316e+03,6.085743e+02
2.769280e+03,6.023400e+02
2.770244e+03,5.929223e+02
2.771208e+03,5.861488e+02
2.772173e+03,5.928810e+02
2.773137e+03,6.015659e+02
2.774101e+03,6.000114e+02
2.775065e+03,5.970106e+02
2.776030e+03,5.942851e+02
2.776994e+03,5.989713e+02
2.777958e+03,6.076035e+02
2.778922e+03,5.969534e+02
2.779887e+03,5.772617e+02
2.780851e+03,5.804658e+02
2.781815e+03,5.901033e+02
2.782779e+03,5.946475e+02
2.783744e+03,5.970760e+02
2.784708e+03,5.993479e+02
2.785672e+03,5.929296e+02
2.786636e+03,5.794615e+02
2.787601e+03,5.766607e+02
2.788565e+03,5.821840e+02
2.789529e+03,5.900223e+02
2.790493e+03,5.975836e+02
2.791458e+03,6.061403e+02
2.792422e+03,6.027371e+02
2.793386e+03,5.868843e+02
2.794350e+03,5.771575e+02
2.795314e+03,5.778218e+02
2.796279e+03,5.831714e+02
2.797243e+03,5.891378e+02
2.798207e+03,5.918701e+02
2.799171e+03,5.898203e+02
2.800135e+03,5.746308e+02
2.801100e+03,5.643484e+02
2.802064e+03,5.637957e+02
2.803028e+03,5.719443e+02
2.803992e+03,5.846594e+02
2.804957e+03,5.866863e+02
2.805921e+03,5.835077e+02
2.806885e+03,5.880745e+02
2.807849e+03,5.867650e+02
2.808814e+03,5.726956e+02
2.809778e+03,5.658858e+02
2.810742e+03,5.799584e+02
2.811706e+03,5.776658e+02
2.812671e+03,5.653807e+02
2.813635e+03,5.720922e+02
2.814599e+03,5.857572e+02
2.815563e+03,5.819954e+02
2.816528e+03,5.751199e+02
2.817492e+03,5.693479e+02
2.818456e+03,5.700097e+02
2.819420e+03,5.754958e+02
2.820385e+03,5.744249e+02
2.821349e+03,5.692857e+02
2.822313e+03,5.724420e+02
2.823277e+03,5.768264e+02
2.824241e+03,5.762713e+02
2.825206e+03,5.743572e+02
2.826170e+03,5.730430e+02
2.827134e+03,5.766663e+02
2.828098e+03,5.835644e+02
2.829063e+03,5.814658e+02
2.830027e+03,5.744135e+02
2.830991e+03,5.716557e+02
2.831955e+03,5.706362e+02
2.832919e+03,5.678098e+02
2.833884e+03,5.665801e+02
2.834848e+03,5.670214e+02
2.835812e+03,5.663195e+02
2.836776e+03,5.649974e+02
2.837741e+03,5.729007e+02
2.838705e+03,5.779319e+02
2.839669e+03,5.641851e+02
2.840633e+03,5.558044e+02
2.841598e+03,5.670463e+02
2.842562e+03,5.685999e+02
2.843526e+03,5.540684e+02
2.844490e+03,5.622006e+02
2.845455e+03,5.778819e+02
2.846419e+03,5.736622e+02
2.847383e+03,5.634733e+02
2.848347e+03,5.598051e+02
2.849312e+03,5.598717e+02
2.850276e+03,5.629745e+02
2.851240e+03,5.678322e+02
2.852204e+03,5.723390e+02
2.853168e+03,5.698839e+02
2.854133e+03,5.632747e+02
2.855097e+03,5.497800e+02
2.856061e+03,5.502419e+02
2.857025e+03,5.684535e+02
2.857990e+03,5.834434e+02
2.858954e+03,5.893329e+02
2.859918e+03,5.789813e+02
2.860882e+03,5.653353e+02
2.861846e+03,5.706313e+02
2.862811e+03,5.775585e+02
2.863775e+03,5.695266e+02
2.864739e+03,5.576478e+02
2.865703e+03,5.441386e+02
2.866668e+03,5.436069e+02
2.867632e+03,5.522297e+02
2.868596e+03,5.610865e+02
2.869560e+03,5.679725e+02
2.870525e+03,5.710425e+02
2.871489e+03,5.723790e+02
2.872453e+03,5.723438e+02
2.873417e+03,5.709138e+02
2.874382e+03,5.687366e+02
2.875346e+03,5.746738e+02
2.876310e+03,5.812934e+02
2.877274e+03,5.729264e+02
2.878239e+03,5.679916e+02
2.879203e+03,5.729382e+02
2.880167e+03,5.741573e+02
2.881131e+03,5.681170e+02
2.882095e+03,5.617751e+02
2.883060e+03,5.581766e+02
2.884024e+03,5.608615e+02
2.884988e+03,5.664440e+02
2.885952e+03,5.722236e+02
2.886917e+03,5.795776e+02
2.887881e+03,5.891202e+02
2.888845e+03,5.845414e+02
2.889809e+03,5.733441e+02
2.890773e+03,5.726113e+02
2.891738e+03,5.745521e+02
2.892702e+03,5.712776e+02
2.893666e+03,5.702258e+02
2.894630e+03,5.726852e+02
2.895595e+03,5.775889e+02
2.896559e+03,5.820445e+02
2.897523e+03,5.718480e+02
2.898487e+03,5.606149e+02
2.899452e+03,5.637219e+02
2.900416e+03,5.694279e+02
2.901380e+03,5.740749e+02
2.902344e+03,5.794726e+02
2.903309e+03,5.848173e+02
2.904273e+03,5.786466e+02
2.905237e+03,5.679052e+02
2.906201e+03,5.589898e+02
2.907166e+03,5.557191e+02
2.908130e+03,5.594072e+02
2.909094e+03,5.611338e+02
2.910058e+03,5.591163e+02
2.911022e+03,5.548737e+02
2.911987e+03,5.509150e+02
2.912951e+03,5.491071e+02
2.913915e+03,5.494610e+02
2.914879e+03,5.526531e+02
2.915844e+03,5.559601e+02
2.916808e+03,5.581830e+02
2.917772e+03,5.538196e+02
2.918736e+03,5.462125e+02
2.919700e+03,5.382441e+02
2.920665e+03,5.346630e+02
2.921629e+03,5.443229e+02
2.922593e+03,5.453023e+02
2.923557e+03,5.396877e+02
2.924522e+03,5.422637e+02
2.925486e+03,5.484064e+02
2.926450e+03,5.454266e+02
2.927414e+03,5.420826e+02
2.928379e+03,5.425326e+02
2.929343e+03,5.405245e+02
2.930307e+03,5.360588e+02
2.931271e+03,5.337169e+02
2.932236e+03,5.331502e+02
2.933200e+03,5.322131e+02
2.934164e+03,5.333522e+02
2.935128e+03,5.369753e+02
2.936093e+03,5.424454e+02
2.937057e+03,5.481793e+02
2.938021e+03,5.383641e+02
2.938985e+03,5.251795e+02
2.939949e+03,5.272657e+02
2.940914e+03,5.373893e+02
2.941878e+03,5.521744e+02
2.942842e+03,5.530887e+02
2.943806e+03,5.379874e+02
2.944771e+03,5.233095e+02
2.945735e+03,5.170669e+02
2.946699e+03,5.339886e+02
2.947663e+03,5.470662e+02
2.948627e+03,5.469672e+02
2.949592e+03,5.427355e+02
2.950556e+03,5.373309e+02
2.951520e+03,5.336923e+02
2.952484e+03,5.305807e+02
2.953449e+03,5.267474e+02
2.954413e+03,5.237974e+02
2.955377e+03,5.224396e+02
2.956341e+03,5.398995e+02
2.957306e+03,5.702897e+02
2.958270e+03,5.744676e+02
2.959234e+03,5.587514e+02
2.960198e+03,5.301430e+02
2.961163e+03,5.156718e+02
2.962127e+03,5.281461e+02
2.963091e+03,5.339717e+02
2.964055e+03,5.313110e+02
2.965020e+03,5.249820e+02
2.965984e+03,5.244988e+02
2.966948e+03,5.375173e+02
2.967912e+03,5.372216e+02
2.968876e+03,5.054975e+02
2.969841e+03,5.040913e+02
2.970805e+03,5.211555e+02
2.971769e+03,5.349179e+02
2.972733e+03,5.353839e+02
2.973698e+03,5.130211e+02
2.974662e+03,5.058440e+02
2.975626e+03,5.245510e+02
2.976590e+03,5.172152e+02
2.977554e+03,5.061068e+02
2.978519e+03,5.233868e+02
2.979483e+03,5.329711e+02
2.980447e+03,5.066714e+02
2.981411e+03,4.993557e+02
2.982376e+03,5.151180e+02
2.983340e+03,5.148196e+02
2.984304e+03,5.081271e+02
2.985268e+03,5.049104e+02
2.986233e+03,5.052755e+02
2.987197e+03,5.116632e+02
2.988161e+03,5.064594e+02
2.989125e+03,4.960840e+02
2.990090e+03,5.039203e+02
2.991054e+03,5.130231e+02
2.992018e+03,5.092305e+02
2.992982e+03,5.058057e+02
2.993947e+03,5.083087e+02
2.994911e+03,5.144439e+02
2.995875e+03,5.203334e+02
2.996839e+03,5.186057e+02
2.997803e+03,5.147530e+02
2.998768e+03,5.129805e+02
2.999732e+03,5.114442e+02
3.000696e+03,5.099751e+02
3.001660e+03,5.024968e+02
3.002625e+03,4.965236e+02
3.003589e+03,4.995633e+02
3.004553e+03,5.065441e+02
3.005517e+03,5.164534e+02
3.006481e+03,5.025330e+02
3.007446e+03,4.751271e+02
3.008410e+03,4.830157e+02
3.009374e+03,4.999930e+02
3.010338e+03,5.091349e+02
3.011303e+03,5.179533e+02
3.012267e+03,5.281189e+02
3.013231e+03,5.247178e+02
3.014195e+03,5.130878e+02
3.015160e+03,5.011192e+02
3.016124e+03,4.955102e+02
3.017088e+03,4.971989e+02
3.018052e+03,4.968267e+02
3.019017e+03,4.941357e+02
3.019981e+03,5.120465e+02
3.020945e+03,5.252710e+02
3.021909e+03,5.101989e+02
3.022874e+03,4.989384e+02
3.023838e+03,4.980675e+02
3.024802e+03,4.969151e+02
3.025766e+03,4.954081e+02
3.026730e+03,4.960854e+02
3.027695e+03,4.981466e+02
3.028659e+03,5.014834e+02
3.029623e+03,5.029274e+02
3.030587e+03,5.018480e+02
3.031552e+03,4.918802e+02
3.032516e+03,4.819909e+02
3.033480e+03,4.849693e+02
3.034444e+03,4.899990e+02
3.035408e+03,4.945510e+02
3.036373e+03,4.952711e+02
3.037337e+03,4.932679e+02
3.038301e+03,4.940191e+02
3.039265e+03,4.907150e+02
3.040230e+03,4.713864e+02
3.041194e+03,4.741908e+02
3.042158e+03,4.932777e+02
3.043122e+03,5.031623e+02
3.044087e+03,5.048605e+02
3.045051e+03,4.972044e+02
3.046015e+03,4.907771e+02
3.046979e+03,4.890148e+02
3.047944e+03,4.818808e+02
3.048908e+03,4.747097e+02
3.049872e+03,4.745339e+02
3.050836e+03,4.794328e+02
3.051801e+03,4.888500e+02
3.052765e+03,4.981570e+02
3.053729e+03,5.048490e+02
3.054693e+03,5.066706e+02
3.055657e+03,5.027617e+02
3.056622e+03,4.922010e+02
3.057586e+03,4.887640e+02
3.058550e+03,4.964327e+02
3.059514e+03,4.780442e+02
3.060479e+03,4.536703e+02
3.061443e+03,4.545785e+02
3.062407e+03,4.700031e+02
3.063371e+03,4.929478e+02
3.064335e+03,4.921632e+02
3.065300e+03,4.757225e+02
3.066264e+03,4.908544e+02
3.067228e+03,5.037301e+02
3.068192e+03,4.895098e+02
3.069157e+03,4.865902e+02
3.070121e+03,4.950459e+02
3.071085e+03,4.939385e+02
3.072049e+03,4.904151e+02
3.073014e+03,4.987037e+02
3.073978e+03,5.042278e+02
3.074942e+03,5.035338e+02
3.075906e+03,4.997396e+02
3.076871e+03,4.975129e+02
3.077835e+03,5.046546e+02
3.078799e+03,5.060988e+02
3.079763e+03,4.894217e+02
3.080728e+03,4.802280e+02
3.081692e+03,4.802975e+02
3.082656e+03,4.868510e+02
3.083620e+03,4.890386e+02
3.084584e+03,4.812892e+02
3.085549e+03,4.839144e+02
3.086513e+03,5.003564e+02
3.087477e+03,4.977495e+02
3.088441e+03,4.926090e+02
3.089406e+03,5.070355e+02
3.090370e+03,5.126506e+02
3.091334e+03,5.063193e+02
3.092298e+03,4.994288e+02
3.093262e+03,4.936702e+02
3.094227e+03,4.906300e+02
3.095191e+03,4.847448e+02
3.096155e+03,4.736167e+02
3.097119e+03,4.950320e+02
3.098084e+03,5.232997e+02
3.099048e+03,5.005713e+02
3.100012e+03,4.789963e+02
3.100976e+03,5.041546e+02
3.101941e+03,5.050545e+02
3.102905e+03,4.801563e+02
3.103869e+03,4.652274e+02
3.104833e+03,4.606281e+02
3.105798e+03,4.645522e+02
3.106762e+03,4.760942e+02
3.107726e+03,4.932460e+02
3.108690e+03,4.970611e+02
3.109655e+03,4.933552e+02
3.110619e+03,4.847794e+02
3.111583e+03,4.863195e+02
3.112547e+03,4.980890e+02
3.113511e+03,5.079409e+02
3.114476e+03,5.120137e+02
3.115440e+03,4.951415e+02
3.116404e+03,4.904666e+02
3.117368e+03,5.163325e+02
3.118333e+03,5.051700e+02
3.119297e+03,4.822818e+02
3.120261e+03,4.943595e+02
3.121225e+03,5.036219e+02
3.122189e+03,4.881147e+02
3.123154e+03,4.803817e+02
3.124118e+03,4.831363e+02
3.125082e+03,4.979038e+02
3.126046e+03,5.047834e+02
3.127011e+03,4.945537e+02
3.127975e+03,4.851364e+02
3.128939e+03,4.807532e+02
3.129903e+03,4.956045e+02
3.130868e+03,5.058750e+02
3.131832e+03,4.768106e+02
3.132796e+03,4.789912e+02
3.133760e+03,5.050941e+02
3.134725e+03,4.868345e+02
3.135689e+03,4.667666e+02
3.136653e+03,4.874975e+02
3.137617e+03,5.052433e+02
3.138582e+03,5.076102e+02
3.139546e+03,5.123564e+02
3.140510e+03,5.112469e+02
3.141474e+03,4.951226e+02
3.142438e+03,4.843168e+02
3.143403e+03,4.817854e+02
3.144367e+03,4.816435e+02
3.145331e+03,4.817382e+02
3.146295e+03,4.767553e+02
3.147260e+03,4.806385e+02
3.148224e+03,4.963494e+02
3.149188e+03,5.118332e+02
3.150152e+03,5.135029e+02
3.151116e+03,4.839633e+02
3.152081e+03,4.626368e+02
3.153045e+03,4.655882e+02
3.154009e+03,4.703410e+02
3.154973e+03,4.755511e+02
3.155938e+03,4.795717e+02
3.156902e+03,4.871961e+02
3.157866e+03,4.981082e+02
3.158830e+03,5.043482e+02
3.159795e+03,5.098471e+02
3.160759e+03,5.275347e+02
3.161723e+03,5.352216e+02
3.162687e+03,5.169086e+02
3.163652e+03,4.813014e+02
3.164616e+03,4.537578e+02
3.165580e+03,4.810295e+02
3.166544e+03,5.083925e+02
3.167509e+03,5.127567e+02
3.168473e+03,5.078008e+02
3.169437e+03,4.976099e+02
3.170401e+03,4.786013e+02
3.171365e+03,4.699540e+02
3.172330e+03,4.810747e+02
3.173294e+03,4.919379e+02
3.174258e+03,4.969997e+02
3.175222e+03,4.882788e+02
3.176187e+03,4.824754e+02
3.177151e+03,4.925187e+02
3.178115e+03,4.873212e+02
3.179079e+03,4.731826e+02
3.180043e+03,4.724120e+02
3.181008e+03,4.848917e+02
3.181972e+03,5.080365e+02
3.182936e+03,5.031108e+02
3.183900e+03,4.817043e+02
3.184865e+03,4.830788e+02
3.185829e+03,4.963736e+02
3.186793e+03,5.360322e+02
3.187757e+03,5.227671e+02
3.188722e+03,4.828546e+02
3.189686e+03,4.761542e+02
3.190650e+03,4.862629e+02
3.191614e+03,5.019642e+02
3.192579e+03,4.991646e+02
3.193543e+03,4.850560e+02
3.194507e+03,4.838060e+02
3.195471e+03,4.900615e+02
3.196436e+03,5.022481e+02
3.197400e+03,5.119026e+02
3.198364e+03,5.157789e+02
3.199328e+03,5.107901e+02
3.200292e+03,5.068343e+02
3.201257e+03,0.000000e+00
3.202221e+03,0.000000e+00
3.203185e+03,0.000000e+00
3.204149e+03,0.000000e+00
3.205114e+03,0.000000e+00
3.206078e+03,0.000000e+00
3.207042e+03,0.000000e+00
3.208006e+03,0.000000e+00
3.208970e+03,0.000000e+00
3.209935e+03,0.000000e+00
3.210899e+03,0.000000e+00
3.211863e+03,0.000000e+00
3.212827e+03,0.000000e+00
3.213792e+03,0.000000e+00
3.214756e+03,0.000000e+00
3.215720e+03,0.000000e+00
3.216684e+03,0.000000e+00
3.217649e+03,0.000000e+00
3.218613e+03,0.000000e+00
3.219577e+03,0.000000e+00
3.220541e+03,0.000000e+00
3.221506e+03,0.000000e+00
3.222470e+03,0.000000e+00
3.223434e+03,0.000000e+00
3.224398e+03,0.000000e+00
3.225363e+03,0.000000e+00
3.226327e+03,0.000000e+00
3.227291e+03,0.000000e+00
3.228255e+03,0.000000e+00
3.229219e+03,0.000000e+00
3.230184e+03,0.000000e+00
3.231148e+03,0.000000e+00
3.232112e+03,0.000000e+00
3.233076e+03,0.000000e+00
3.234041e+03,0.000000e+00
3.235005e+03,0.000000e+00
3.235969e+03,0.000000e+00
3.236933e+03,0.000000e+00
3.237897e+03,0.000000e+00
3.238862e+03,0.000000e+00
3.239826e+03,0.000000e+00
3.240790e+03,0.000000e+00
3.241754e+03,0.000000e+00
3.242719e+03,0.000000e+00
3.243683e+03,0.000000e+00
3.244647e+03,0.000000e+00
3.245611e+03,0.000000e+00
3.246576e+03,0.000000e+00
3.247540e+03,0.000000e+00
3.248504e+03,0.000000e+00
3.249468e+03,0.000000e+00
3.250433e+03,0.000000e+00
3.251397e+03,0.000000e+00
3.252361e+03,0.000000e+00
3.253325e+03,0.000000e+00
3.254290e+03,0.000000e+00
3.255254e+03,0.000000e+00
3.256218e+03,0.000000e+00
3.257182e+03,0.000000e+00
3.258146e+03,0.000000e+00
3.259111e+03,0.000000e+00
3.260075e+03,0.000000e+00
3.261039e+03,0.000000e+00
3.262003e+03,0.000000e+00
3.262968e+03,0.000000e+00
3.263932e+03,0.000000e+00
3.264896e+03,0.000000e+00
3.265860e+03,0.000000e+00
3.266824e+03,0.000000e+00
3.267789e+03,0.000000e+00
3.268753e+03,0.000000e+00
3.269717e+03,0.000000e+00
3.270681e+03,0.000000e+00
3.271646e+03,0.000000e+00
3.272610e+03,0.000000e+00
3.273574e+03,0.000000e+00
3.274538e+03,0.000000e+00
3.275503e+03,0.000000e+00
3.276467e+03,0.000000e+00
3.277431e+03,0.000000e+00
3.278395e+03,0.000000e+00
3.279360e+03,0.000000e+00
3.280324e+03,0.000000e+00
3.281288e+03,0.000000e+00
3.282252e+03,0.000000e+00
3.283217e+03,0.000000e+00
3.284181e+03,0.000000e+00
3.285145e+03,0.000000e+00
3.286109e+03,0.000000e+00
3.287073e+03,0.000000e+00
3.288038e+03,0.000000e+00
3.289002e+03,0.000000e+00
3.289966e+03,0.000000e+00
3.290930e+03,0.000000e+00
3.291895e+03,0.000000e+00
3.292859e+03,0.000000e+00
3.293823e+03,0.000000e+00
3.294787e+03,0.000000e+00
3.295751e+03,0.000000e+00
3.296716e+03,0.000000e+00
3.297680e+03,0.000000e+00
3.298644e+03,0.000000e+00
3.299608e+03,0.000000e+00
3.300573e+03,0.000000e+00
3.301537e+03,0.000000e+00
3.302501e+03,0.000000e+00
3.303465e+03,0.000000e+00
3.304430e+03,0.000000e+00
3.305394e+03,0.000000e+00
3.306358e+03,0.000000e+00
3.307322e+03,0.000000e+00
3.308287e+03,0.000000e+00
3.309251e+03,0.000000e+00
3.310215e+03,0.000000e+00
3.311179e+03,0.000000e+00
3.312144e+03,0.000000e+00
3.313108e+03,0.000000e+00
3.314072e+03,0.000000e+00
3.315036e+03,0.000000e+00
3.316000e+03,0.000000e+00
3.316965e+03,0.000000e+00
3.317929e+03,0.000000e+00
3.318893e+03,0.000000e+00
3.319857e+03,0.000000e+00
3.320822e+03,0.000000e+00
3.321786e+03,0.000000e+00
3.322750e+03,0.000000e+00
3.323714e+03,0.000000e+00
3.324678e+03,0.000000e+00
3.325643e+03,0.000000e+00
3.326607e+03,0.000000e+00
3.327571e+03,0.000000e+00
3.328535e+03,0.000000e+00
3.329500e+03,0.000000e+00
3.330464e+03,0.000000e+00
3.331428e+03,0.000000e+00
3.332392e+03,0.000000e+00
3.333357e+03,0.000000e+00
3.334321e+03,0.000000e+00
3.335285e+03,0.000000e+00
3.336249e+03,0.000000e+00
3.337214e+03,0.000000e+00
3.338178e+03,0.000000e+00
3.339142e+03,0.000000e+00
3.340106e+03,0.000000e+00
3.341071e+03,0.000000e+00
3.342035e+03,0.000000e+00
3.342999e+03,0.000000e+00
3.343963e+03,0.000000e+00
3.344927e+03,0.000000e+00
3.345892e+03,0.000000e+00
3.346856e+03,0.000000e+00
3.347820e+03,0.000000e+00
3.348784e+03,0.000000e+00
3.349749e+03,0.000000e+00
3.350713e+03,0.000000e+00
3.351677e+03,0.000000e+00
3.352641e+03,0.000000e+00
3.353605e+03,0.000000e+00
3.354570e+03,0.000000e+00
3.355534e+03,0.000000e+00
3.356498e+03,0.000000e+00
3.357462e+03,0.000000e+00
3.358427e+03,0.000000e+00
3.359391e+03,0.000000e+00
3.360355e+03,0.000000e+00
3.361319e+03,0.000000e+00
3.362284e+03,0.000000e+00
3.363248e+03,0.000000e+00
3.364212e+03,0.000000e+00
3.365176e+03,0.000000e+00
3.366141e+03,0.000000e+00
3.367105e+03,0.000000e+00
3.368069e+03,0.000000e+00
3.369033e+03,0.000000e+00
3.369998e+03,0.000000e+00
3.370962e+03,0.000000e+00
3.371926e+03,0.000000e+00
3.372890e+03,0.000000e+00
3.373854e+03,0.000000e+00
3.374819e+03,0.000000e+00
3.375783e+03,0.000000e+00
3.376747e+03,0.000000e+00
3.377711e+03,0.000000e+00
3.378676e+03,0.000000e+00
3.379640e+03,0.000000e+00
3.380604e+03,0.000000e+00
3.381568e+03,0.000000e+00
3.382532e+03,0.000000e+00
3.383497e+03,0.000000e+00
3.384461e+03,0.000000e+00
3.385425e+03,0.000000e+00
3.386389e+03,0.000000e+00
3.387354e+03,0.000000e+00
3.388318e+03,0.000000e+00
3.389282e+03,0.000000e+00
3.390246e+03,0.000000e+00
3.391211e+03,0.000000e+00
3.392175e+03,0.000000e+00
3.393139e+03,0.000000e+00
3.394103e+03,0.000000e+00
3.395068e+03,0.000000e+00
3.396032e+03,0.000000e+00
3.396996e+03,0.000000e+00
3.397960e+03,0.000000e+00
3.398925e+03,0.000000e+00
3.399889e+03,0.000000e+00
3.400853e+03,0.000000e+00
3.401817e+03,0.000000e+00
3.402781e+03,0.000000e+00
3.403746e+03,0.000000e+00
3.404710e+03,0.000000e+00
3.405674e+03,0.000000e+00
3.406638e+03,0.000000e+00
3.407603e+03,0.000000e+00
3.408567e+03,0.000000e+00
3.409531e+03,0.000000e+00
3.410495e+03,0.000000e+00
3.411459e+03,0.000000e+00
3.412424e+03,0.000000e+00
3.413388e+03,0.000000e+00
3.414352e+03,0.000000e+00
3.415316e+03,0.000000e+00
3.416281e+03,0.000000e+00
3.417245e+03,0.000000e+00
3.418209e+03,0.000000e+00
3.419173e+03,0.000000e+00
3.420138e+03,0.000000e+00
3.421102e+03,0.000000e+00
3.422066e+03,0.000000e+00
3.423030e+03,0.000000e+00
3.423995e+03,0.000000e+00
3.424959e+03,0.000000e+00
3.425923e+03,0.000000e+00
3.426887e+03,0.000000e+00
3.427852e+03,0.000000e+00
3.428816e+03,0.000000e+00
3.429780e+03,0.000000e+00
3.430744e+03,0.000000e+00
3.431708e+03,0.000000e+00
3.432673e+03,0.000000e+00
3.433637e+03,0.000000e+00
3.434601e+03,0.000000e+00
3.435565e+03,0.000000e+00
3.436530e+03,0.000000e+00
3.437494e+03,0.000000e+00
3.438458e+03,0.000000e+00
3.439422e+03,0.000000e+00
3.440386e+03,0.000000e+00
3.441351e+03,0.000000e+00
3.442315e+03,0.000000e+00
3.443279e+03,0.000000e+00
3.444243e+03,0.000000e+00
3.445208e+03,0.000000e+00
3.446172e+03,0.000000e+00
3.447136e+03,0.000000e+00
3.448100e+03,0.000000e+00
3.449065e+03,0.000000e+00
3.450029e+03,0.000000e+00
3.450993e+03,0.000000e+00
3.451957e+03,0.000000e+00
3.452922e+03,0.000000e+00
3.453886e+03,0.000000e+00
3.454850e+03,0.000000e+00
3.455814e+03,0.000000e+00
3.456779e+03,0.000000e+00
3.457743e+03,0.000000e+00
3.458707e+03,0.000000e+00
3.459671e+03,0.000000e+00
3.460635e+03,0.000000e+00
3.461600e+03,0.000000e+00
3.462564e+03,0.000000e+00
3.463528e+03,0.000000e+00
3.464492e+03,0.000000e+00
3.465457e+03,0.000000e+00
3.466421e+03,0.000000e+00
3.467385e+03,0.000000e+00
3.468349e+03,0.000000e+00
3.469313e+03,0.000000e+00
3.470278e+03,0.000000e+00
3.471242e+03,0.000000e+00
3.472206e+03,0.000000e+00
3.473170e+03,0.000000e+00
3.474135e+03,0.000000e+00
3.475099e+03,0.000000e+00
3.476063e+03,0.000000e+00
3.477027e+03,0.000000e+00
3.477992e+03,0.000000e+00
3.478956e+03,0.000000e+00
3.479920e+03,0.000000e+00
3.480884e+03,0.000000e+00
3.481849e+03,0.000000e+00
3.482813e+03,0.000000e+00
3.483777e+03,0.000000e+00
3.484741e+03,0.000000e+00
3.485706e+03,0.000000e+00
3.486670e+03,0.000000e+00
3.487634e+03,0.000000e+00
3.488598e+03,0.000000e+00
3.489563e+03,0.000000e+00
3.490527e+03,0.000000e+00
3.491491e+03,0.000000e+00
3.492455e+03,0.000000e+00
3.493419e+03,0.000000e+00
3.494384e+03,0.000000e+00
3.495348e+03,0.000000e+00
3.496312e+03,0.000000e+00
3.497276e+03,0.000000e+00
3.498240e+03,0.000000e+00
3.499205e+03,0.000000e+00
3.500169e+03,0.000000e+00
