9.931763e+01,0.000000e+00
1.002819e+02,0.000000e+00
1.012461e+02,0.000000e+00
1.022103e+02,0.000000e+00
1.031746e+02,0.000000e+00
1.041388e+02,0.000000e+00
1.051030e+02,0.000000e+00
1.060673e+02,0.000000e+00
1.070315e+02,0.000000e+00
1.079957e+02,0.000000e+00
1.089600e+02,0.000000e+00
1.099242e+02,0.000000e+00
1.108884e+02,0.000000e+00
1.118527e+02,0.000000e+00
1.128169e+02,0.000000e+00
1.137811e+02,0.000000e+00
1.147454e+02,0.000000e+00
1.157096e+02,0.000000e+00
1.166738e+02,0.000000e+00
1.176381e+02,0.000000e+00
1.186023e+02,0.000000e+00
1.195665e+02,0.000000e+00
1.205308e+02,0.000000e+00
1.214950e+02,0.000000e+00
1.224592e+02,0.000000e+00
1.234235e+02,0.000000e+00
1.243877e+02,0.000000e+00
1.253519e+02,0.000000e+00
1.263162e+02,0.000000e+00
1.272804e+02,0.000000e+00
1.282446e+02,0.000000e+00
1.292089e+02,0.000000e+00
1.301731e+02,0.000000e+00
1.311373e+02,0.000000e+00
1.321016e+02,0.000000e+00
1.330658e+02,0.000000e+00
1.340300e+02,0.000000e+00
1.349943e+02,0.000000e+00
1.359585e+02,0.000000e+00
1.369227e+02,0.000000e+00
1.378870e+02,0.000000e+00
1.388512e+02,0.000000e+00
1.398154e+02,0.000000e+00
1.407797e+02,0.000000e+00
1.417439e+02,0.000000e+00
1.427081e+02,0.000000e+00
1.436724e+02,0.000000e+00
1.446366e+02,0.000000e+00
1.456008e+02,0.000000e+00
1.465651e+02,0.000000e+00
1.475293e+02,0.000000e+00
1.484935e+02,0.000000e+00
1.494578e+02,0.000000e+00
1.504220e+02,0.000000e+00
1.513862e+02,0.000000e+00
1.523505e+02,0.000000e+00
1.533147e+02,0.000000e+00
1.542789e+02,0.000000e+00
1.552432e+02,0.000000e+00
1.562074e+02,0.000000e+00
1.571716e+02,0.000000e+00
1.581359e+02,0.000000e+00
1.591001e+02,0.000000e+00
1.600643e+02,0.000000e+00
1.610286e+02,0.000000e+00
1.619928e+02,0.000000e+00
1.629570e+02,0.000000e+00
1.639213e+02,0.000000e+00
1.648855e+02,0.000000e+00
1.658497e+02,0.000000e+00
1.668140e+02,0.000000e+00
1.677782e+02,0.000000e+00
1.687424e+02,0.000000e+00
1.697067e+02,0.000000e+00
1.706709e+02,0.000000e+00
1.716351e+02,0.000000e+00
1.725994e+02,0.000000e+00
1.735636e+02,0.000000e+00
1.745278e+02,0.000000e+00
1.754921e+02,0.000000e+00
1.764563e+02,0.000000e+00
1.774205e+02,0.000000e+00
1.783848e+02,0.000000e+00
1.793490e+02,0.000000e+00
1.803132e+02,0.000000e+00
1.812775e+02,0.000000e+00
1.822417e+02,0.000000e+00
1.832059e+02,0.000000e+00
1.841702e+02,0.000000e+00
1.851344e+02,0.000000e+00
1.860986e+02,0.000000e+00
1.870629e+02,0.000000e+00
1.880271e+02,0.000000e+00
1.889913e+02,0.000000e+00
1.899556e+02,0.000000e+00
1.909198e+02,0.000000e+00
1.918840e+02,0.000000e+00
1.928483e+02,0.000000e+00
1.938125e+02,0.000000e+00
1.947767e+02,0.000000e+00
1.957410e+02,0.000000e+00
1.967052e+02,0.000000e+00
1.976694e+02,0.000000e+00
1.986337e+02,0.000000e+00
1.995979e+02,3.014448e+03
2.005621e+02,3.012407e+03
2.015264e+02,3.013863e+03
2.024906e+02,3.022621e+03
2.034548e+02,3.031823e+03
2.044191e+02,3.040659e+03
2.053833e+02,3.047886e+03
2.063475e+02,3.051879e+03
2.073118e+02,3.049902e+03
2.082760e+02,3.038854e+03
2.092402e+02,3.031541e+03
2.102045e+02,3.033669e+03
2.111687e+02,3.039195e+03
2.121329e+02,3.043098e+03
2.130972e+02,3.042109e+03
2.140614e+02,3.038107e+03
2.150256e+02,3.037455e+03
2.159899e+02,3.042510e+03
2.169541e+02,3.048547e+03
2.179183e+02,3.055269e+03
2.188826e+02,3.061786e+03
2.198468e+02,3.066155e+03
2.208110e+02,3.065329e+03
2.217753e+02,3.059125e+03
2.227395e+02,3.054090e+03
2.237037e+02,3.053534e+03
2.246680e+02,3.055531e+03
2.256322e+02,3.057843e+03
2.265964e+02,3.061966e+03
2.275607e+02,3.066256e+03
2.285249e+02,3.067819e+03
2.294892e+02,3.065991e+03
2.304534e+02,3.065132e+03
2.314176e+02,3.068103e+03
2.323819e+02,3.073363e+03
2.333461e+02,3.076406e+03
2.343103e+02,3.073789e+03
2.352746e+02,3.069038e+03
2.362388e+02,3.068472e+03
2.372030e+02,3.073894e+03
2.381673e+02,3.080954e+03
2.391315e+02,3.083579e+03
2.400957e+02,3.081587e+03
2.410600e+02,3.078979e+03
2.420242e+02,3.077412e+03
2.429884e+02,3.077579e+03
2.439527e+02,3.079700e+03
2.449169e+02,3.082957e+03
2.458811e+02,3.086866e+03
2.468454e+02,3.091774e+03
2.478096e+02,3.099936e+03
2.487738e+02,3.107689e+03
2.497381e+02,3.111753e+03
2.507023e+02,3.111677e+03
2.516665e+02,3.110170e+03
2.526308e+02,3.111336e+03
2.535950e+02,3.117338e+03
2.545592e+02,3.120782e+03
2.555235e+02,3.121222e+03
2.564877e+02,3.119995e+03
2.574519e+02,3.118887e+03
2.584161e+02,3.119296e+03
2.593804e+02,3.121547e+03
2.603446e+02,3.124215e+03
2.613088e+02,3.125495e+03
2.622731e+02,3.127013e+03
2.632373e+02,3.129069e+03
2.642015e+02,3.131032e+03
2.651658e+02,3.132644e+03
2.661300e+02,3.135162e+03
2.670942e+02,3.140118e+03
2.680585e+02,3.143288e+03
2.690227e+02,3.142428e+03
2.699869e+02,3.139960e+03
2.709512e+02,3.137219e+03
2.719154e+02,3.135577e+03
2.728796e+02,3.134709e+03
2.738439e+02,3.133197e+03
2.748081e+02,3.130848e+03
2.757723e+02,3.132144e+03
2.767366e+02,3.139757e+03
2.777008e+02,3.150715e+03
2.786650e+02,3.159428e+03
2.796293e+02,3.166348e+03
2.805935e+02,3.170958e+03
2.815577e+02,3.170163e+03
2.825220e+02,3.161423e+03
2.834862e+02,3.149552e+03
2.844504e+02,3.144352e+03
2.854147e+02,3.151484e+03
2.863789e+02,3.157043e+03
2.873431e+02,3.155614e+03
2.883074e+02,3.150666e+03
2.892716e+02,3.149082e+03
2.902358e+02,3.155092e+03
2.912001e+02,3.168351e+03
2.921643e+02,3.173339e+03
2.931285e+02,3.162850e+03
2.940928e+02,3.152959e+03
2.950570e+02,3.150760e+03
2.960212e+02,3.155665e+03
2.969855e+02,3.162589e+03
2.979497e+02,3.166625e+03
2.989139e+02,3.167724e+03
2.998782e+02,3.167715e+03
3.008424e+02,3.167607e+03
3.018066e+02,3.167958e+03
3.027709e+02,3.168022e+03
3.037351e+02,3.166919e+03
3.046993e+02,3.164999e+03
3.056636e+02,3.163592e+03
3.066278e+02,3.163289e+03
3.075920e+02,3.163738e+03
3.085563e+02,3.165011e+03
3.095205e+02,3.167516e+03
3.104847e+02,3.170772e+03
3.114490e+02,3.173291e+03
3.124132e+02,3.175262e+03
3.133774e+02,3.178351e+03
3.143417e+02,3.183198e+03
3.153059e+02,3.187160e+03
3.162701e+02,3.187610e+03
3.172344e+02,3.184198e+03
3.181986e+02,3.181797e+03
3.191628e+02,3.182744e+03
3.201271e+02,3.185934e+03
3.210913e+02,3.188844e+03
3.220555e+02,3.189920e+03
3.230198e+02,3.189446e+03
3.239840e+02,3.190931e+03
3.249482e+02,3.196724e+03
3.259125e+02,3.201628e+03
3.268767e+02,3.203995e+03
3.278409e+02,3.204219e+03
3.288052e+02,3.203476e+03
3.297694e+02,3.202237e+03
3.307336e+02,3.199996e+03
3.316979e+02,3.199643e+03
3.326621e+02,3.205394e+03
3.336263e+02,3.209472e+03
3.345906e+02,3.207208e+03
3.355548e+02,3.198281e+03
3.365190e+02,3.189131e+03
3.374833e+02,3.186886e+03
3.384475e+02,3.192051e+03
3.394117e+02,3.197005e+03
3.403760e+02,3.196808e+03
3.413402e+02,3.194116e+03
3.423044e+02,3.194137e+03
3.432687e+02,3.200037e+03
3.442329e+02,3.207236e+03
3.451971e+02,3.210622e+03
3.461614e+02,3.209244e+03
3.471256e+02,3.206135e+03
3.480898e+02,3.205361e+03
3.490541e+02,3.209654e+03
3.500183e+02,3.210448e+03
3.509825e+02,3.202117e+03
3.519468e+02,3.194928e+03
3.529110e+02,3.198885e+03
3.538752e+02,3.215667e+03
3.548395e+02,3.236121e+03
3.558037e+02,3.244517e+03
3.567680e+02,3.231887e+03
3.577322e+02,3.221593e+03
3.586964e+02,3.217737e+03
3.596607e+02,3.218296e+03
3.606249e+02,3.220245e+03
3.615891e+02,3.221333e+03
3.625534e+02,3.220724e+03
3.635176e+02,3.218800e+03
3.644818e+02,3.216425e+03
3.654461e+02,3.214066e+03
3.664103e+02,3.212665e+03
3.673745e+02,3.213639e+03
3.683388e+02,3.217542e+03
3.693030e+02,3.224451e+03
3.702672e+02,3.232195e+03
3.712315e+02,3.238146e+03
3.721957e+02,3.241372e+03
3.731599e+02,3.242845e+03
3.741242e+02,3.245229e+03
3.750884e+02,3.254239e+03
3.760526e+02,3.260311e+03
3.770169e+02,3.260931e+03
3.779811e+02,3.257999e+03
3.789453e+02,3.252984e+03
3.799096e+02,3.245856e+03
3.808738e+02,3.237738e+03
3.818380e+02,3.234417e+03
3.828023e+02,3.243284e+03
3.837665e+02,3.250055e+03
3.847307e+02,3.248345e+03
3.856950e+02,3.240820e+03
3.866592e+02,3.233816e+03
3.876234e+02,3.230593e+03
3.885877e+02,3.230292e+03
3.895519e+02,3.230861e+03
3.905161e+02,3.232175e+03
3.914804e+02,3.233215e+03
3.924446e+02,3.232778e+03
3.934088e+02,3.230686e+03
3.943731e+02,3.230946e+03
3.953373e+02,3.237591e+03
3.963015e+02,3.246274e+03
3.972658e+02,3.250422e+03
3.982300e+02,3.247808e+03
3.991942e+02,3.241804e+03
4.001585e+02,3.239087e+03
4.011227e+02,3.239716e+03
4.020869e+02,3.241448e+03
4.030512e+02,3.243692e+03
4.040154e+02,3.245563e+03
4.049796e+02,3.246846e+03
4.059439e+02,3.247104e+03
4.069081e+02,3.246585e+03
4.078723e+02,3.246796e+03
4.088366e+02,3.247960e+03
4.098008e+02,3.246950e+03
4.107650e+02,3.241966e+03
4.117293e+02,3.233777e+03
4.126935e+02,3.228418e+03
4.136577e+02,3.229179e+03
4.146220e+02,3.233547e+03
4.155862e+02,3.238680e+03
4.165504e+02,3.244292e+03
4.175147e+02,3.249310e+03
4.184789e+02,3.251802e+03
4.194431e+02,3.248887e+03
4.204074e+02,3.246468e+03
4.213716e+02,3.245006e+03
4.223358e+02,3.243842e+03
4.233001e+02,3.242135e+03
4.242643e+02,3.239547e+03
4.252285e+02,3.237156e+03
4.261928e+02,3.237322e+03
4.271570e+02,3.241403e+03
4.281212e+02,3.245793e+03
4.290855e+02,3.248699e+03
4.300497e+02,3.250121e+03
4.310139e+02,3.250490e+03
4.319782e+02,3.249442e+03
4.329424e+02,3.248438e+03
4.339066e+02,3.248803e+03
4.348709e+02,3.250254e+03
4.358351e+02,3.251696e+03
4.367993e+02,3.252364e+03
4.377636e+02,3.252534e+03
4.387278e+02,3.251567e+03
4.396920e+02,3.248163e+03
4.406563e+02,3.245326e+03
4.416205e+02,3.245305e+03
4.425847e+02,3.248428e+03
4.435490e+02,3.252282e+03
4.445132e+02,3.253262e+03
4.454774e+02,3.250765e+03
4.464417e+02,3.250933e+03
4.474059e+02,3.258540e+03
4.483701e+02,3.267232e+03
4.493344e+02,3.269540e+03
4.502986e+02,3.259093e+03
4.512628e+02,3.248323e+03
4.522271e+02,3.247375e+03
4.531913e+02,3.254320e+03
4.541555e+02,3.260159e+03
4.551198e+02,3.258871e+03
4.560840e+02,3.250580e+03
4.570482e+02,3.245522e+03
4.580125e+02,3.249593e+03
4.589767e+02,3.253982e+03
4.599409e+02,3.253023e+03
4.609052e+02,3.247052e+03
4.618694e+02,3.241474e+03
4.628336e+02,3.242767e+03
4.637979e+02,3.250157e+03
4.647621e+02,3.253447e+03
4.657263e+02,3.250392e+03
4.666906e+02,3.247248e+03
4.676548e+02,3.249680e+03
4.686190e+02,3.259224e+03
4.695833e+02,3.266359e+03
4.705475e+02,3.266634e+03
4.715117e+02,3.262601e+03
4.724760e+02,3.257576e+03
4.734402e+02,3.252685e+03
4.744044e+02,3.248955e+03
4.753687e+02,3.248539e+03
4.763329e+02,3.253324e+03
4.772971e+02,3.258899e+03
4.782614e+02,3.263830e+03
4.792256e+02,3.269528e+03
4.801898e+02,3.277647e+03
4.811541e+02,3.290178e+03
4.821183e+02,3.303618e+03
4.830826e+02,3.313480e+03
4.840468e+02,3.319426e+03
4.850110e+02,3.322239e+03
4.859753e+02,3.322518e+03
4.869395e+02,3.319862e+03
4.879037e+02,3.316166e+03
4.888680e+02,3.312969e+03
4.898322e+02,3.308265e+03
4.907964e+02,3.299706e+03
4.917607e+02,3.288229e+03
4.927249e+02,3.277623e+03
4.936891e+02,3.271406e+03
4.946534e+02,3.269674e+03
4.956176e+02,3.269087e+03
4.965818e+02,3.270146e+03
4.975461e+02,3.272157e+03
4.985103e+02,3.274759e+03
4.994745e+02,3.278116e+03
5.004388e+02,3.278156e+03
5.014030e+02,3.271875e+03
5.023672e+02,3.262466e+03
5.033315e+02,3.254310e+03
5.042957e+02,3.248461e+03
5.052599e+02,3.244517e+03
5.062242e+02,3.242887e+03
5.071884e+02,3.247522e+03
5.081526e+02,3.249779e+03
5.091169e+02,3.248599e+03
5.100811e+02,3.245652e+03
5.110453e+02,3.241867e+03
5.120095e+02,3.236699e+03
5.129738e+02,3.232707e+03
5.139380e+02,3.233970e+03
5.149022e+02,3.240510e+03
5.158665e+02,3.247106e+03
5.168307e+02,3.250237e+03
5.177949e+02,3.248312e+03
5.187592e+02,3.243277e+03
5.197234e+02,3.236122e+03
5.206876e+02,3.230269e+03
5.216519e+02,3.227142e+03
5.226161e+02,3.226705e+03
5.235803e+02,3.227854e+03
5.245446e+02,3.228969e+03
5.255088e+02,3.230432e+03
5.264730e+02,3.236956e+03
5.274373e+02,3.253078e+03
5.284015e+02,3.266470e+03
5.293657e+02,3.262698e+03
5.303300e+02,3.240022e+03
5.312942e+02,3.221031e+03
5.322584e+02,3.212737e+03
5.332227e+02,3.210657e+03
5.341869e+02,3.209571e+03
5.351511e+02,3.207893e+03
5.361154e+02,3.207665e+03
5.370796e+02,3.213241e+03
5.380438e+02,3.227043e+03
5.390081e+02,3.238946e+03
5.399723e+02,3.250587e+03
5.409365e+02,3.258428e+03
5.419008e+02,3.257073e+03
5.428650e+02,3.238935e+03
5.438292e+02,3.222819e+03
5.447935e+02,3.221933e+03
5.457577e+02,3.230450e+03
5.467219e+02,3.235977e+03
5.476862e+02,3.233226e+03
5.486504e+02,3.225252e+03
5.496146e+02,3.221712e+03
5.505789e+02,3.226386e+03
5.515431e+02,3.229344e+03
5.525073e+02,3.229668e+03
5.534716e+02,3.228997e+03
5.544358e+02,3.227952e+03
5.554000e+02,3.223388e+03
5.563643e+02,3.218856e+03
5.573285e+02,3.218454e+03
5.582927e+02,3.221427e+03
5.592570e+02,3.225026e+03
5.602212e+02,3.228239e+03
5.611854e+02,3.230790e+03
5.621497e+02,3.232513e+03
5.631139e+02,3.232888e+03
5.640781e+02,3.231188e+03
5.650424e+02,3.228817e+03
5.660066e+02,3.225532e+03
5.669708e+02,3.219676e+03
5.679351e+02,3.207299e+03
5.688993e+02,3.193172e+03
5.698635e+02,3.185573e+03
5.708278e+02,3.185511e+03
5.717920e+02,3.190804e+03
5.727562e+02,3.199914e+03
5.737205e+02,3.215187e+03
5.746847e+02,3.223184e+03
5.756489e+02,3.217656e+03
5.766132e+02,3.209830e+03
5.775774e+02,3.206524e+03
5.785416e+02,3.208605e+03
5.795059e+02,3.211008e+03
5.804701e+02,3.209078e+03
5.814343e+02,3.204232e+03
5.823986e+02,3.201300e+03
5.833628e+02,3.201641e+03
5.843270e+02,3.203426e+03
5.852913e+02,3.203805e+03
5.862555e+02,3.199616e+03
5.872197e+02,3.198963e+03
5.881840e+02,3.205204e+03
5.891482e+02,3.212280e+03
5.901124e+02,3.214738e+03
5.910767e+02,3.210469e+03
5.920409e+02,3.205191e+03
5.930051e+02,3.205375e+03
5.939694e+02,3.209619e+03
5.949336e+02,3.211100e+03
5.958978e+02,3.207260e+03
5.968621e+02,3.200397e+03
5.978263e+02,3.196022e+03
5.987905e+02,3.194660e+03
5.997548e+02,3.196456e+03
6.007190e+02,3.206544e+03
6.016832e+02,3.218644e+03
6.026475e+02,3.224504e+03
6.036117e+02,3.218406e+03
6.045759e+02,3.207461e+03
6.055402e+02,3.197996e+03
6.065044e+02,3.189880e+03
6.074686e+02,3.186584e+03
6.084329e+02,3.191828e+03
6.093971e+02,3.203362e+03
6.103613e+02,3.208499e+03
6.113256e+02,3.199882e+03
6.122899e+02,3.192873e+03
6.132541e+02,3.191402e+03
6.142183e+02,3.193035e+03
6.151826e+02,3.193668e+03
6.161468e+02,3.190511e+03
6.171110e+02,3.187438e+03
6.180753e+02,3.190341e+03
6.190395e+02,3.198114e+03
6.200037e+02,3.202645e+03
6.209680e+02,3.197945e+03
6.219322e+02,3.185112e+03
6.228964e+02,3.177950e+03
6.238607e+02,3.180533e+03
6.248249e+02,3.184221e+03
6.257891e+02,3.186897e+03
6.267534e+02,3.187368e+03
6.277176e+02,3.184758e+03
6.286818e+02,3.176383e+03
6.296461e+02,3.167809e+03
6.306103e+02,3.165939e+03
6.315745e+02,3.170488e+03
6.325388e+02,3.175765e+03
6.335030e+02,3.176836e+03
6.344672e+02,3.173062e+03
6.354315e+02,3.169247e+03
6.363957e+02,3.162501e+03
6.373599e+02,3.157599e+03
6.383242e+02,3.159072e+03
6.392884e+02,3.166485e+03
6.402526e+02,3.172044e+03
6.412169e+02,3.172595e+03
6.421811e+02,3.170473e+03
6.431453e+02,3.166169e+03
6.441096e+02,3.160446e+03
6.450738e+02,3.156736e+03
6.460380e+02,3.160539e+03
6.470023e+02,3.172820e+03
6.479665e+02,3.179998e+03
6.489307e+02,3.179661e+03
6.498950e+02,3.175725e+03
6.508592e+02,3.169425e+03
6.518234e+02,3.159868e+03
6.527877e+02,3.152778e+03
6.537519e+02,3.151785e+03
6.547161e+02,3.152118e+03
6.556804e+02,3.149363e+03
6.566446e+02,3.143723e+03
6.576088e+02,3.139619e+03
6.585731e+02,3.144110e+03
6.595373e+02,3.154845e+03
6.605015e+02,3.156307e+03
6.614658e+02,3.144500e+03
6.624300e+02,3.130579e+03
6.633942e+02,3.125331e+03
6.643585e+02,3.131786e+03
6.653227e+02,3.139275e+03
6.662869e+02,3.151323e+03
6.672512e+02,3.160827e+03
6.682154e+02,3.161593e+03
6.691796e+02,3.152711e+03
6.701439e+02,3.143725e+03
6.711081e+02,3.143089e+03
6.720723e+02,3.147094e+03
6.730366e+02,3.148184e+03
6.740008e+02,3.145404e+03
6.749650e+02,3.141233e+03
6.759293e+02,3.138566e+03
6.768935e+02,3.138424e+03
6.778577e+02,3.138222e+03
6.788220e+02,3.139962e+03
6.797862e+02,3.141830e+03
6.807504e+02,3.140124e+03
6.817147e+02,3.132459e+03
6.826789e+02,3.128547e+03
6.836431e+02,3.137072e+03
6.846074e+02,3.147460e+03
6.855716e+02,3.147369e+03
6.865358e+02,3.135460e+03
6.875001e+02,3.121465e+03
6.884643e+02,3.117042e+03
6.894285e+02,3.122219e+03
6.903928e+02,3.125698e+03
6.913570e+02,3.125435e+03
6.923212e+02,3.123536e+03
6.932855e+02,3.122753e+03
6.942497e+02,3.125317e+03
6.952139e+02,3.127226e+03
6.961782e+02,3.126996e+03
6.971424e+02,3.126297e+03
6.981066e+02,3.125997e+03
6.990709e+02,3.125102e+03
7.000351e+02,3.121958e+03
7.009993e+02,3.114979e+03
7.019636e+02,3.107267e+03
7.029278e+02,3.104514e+03
7.038920e+02,3.107642e+03
7.048563e+02,3.112041e+03
7.058205e+02,3.113073e+03
7.067847e+02,3.111570e+03
7.077490e+02,3.108040e+03
7.087132e+02,3.101162e+03
7.096774e+02,3.096161e+03
7.106417e+02,3.094918e+03
7.116059e+02,3.097760e+03
7.125701e+02,3.099832e+03
7.135344e+02,3.098562e+03
7.144986e+02,3.097871e+03
7.154628e+02,3.102747e+03
7.164271e+02,3.113035e+03
7.173913e+02,3.120813e+03
7.183555e+02,3.115243e+03
7.193198e+02,3.099360e+03
7.202840e+02,3.089760e+03
7.212482e+02,3.089669e+03
7.222125e+02,3.093457e+03
7.231767e+02,3.094880e+03
7.241409e+02,3.092082e+03
7.251052e+02,3.089562e+03
7.260694e+02,3.087339e+03
7.270336e+02,3.085057e+03
7.279979e+02,3.082757e+03
7.289621e+02,3.080302e+03
7.299263e+02,3.079504e+03
7.308906e+02,3.082574e+03
7.318548e+02,3.086315e+03
7.328190e+02,3.087763e+03
7.337833e+02,3.086630e+03
7.347475e+02,3.084058e+03
7.357117e+02,3.081476e+03
7.366760e+02,3.079409e+03
7.376402e+02,3.077923e+03
7.386044e+02,3.077479e+03
7.395687e+02,3.076710e+03
7.405329e+02,3.073430e+03
7.414971e+02,3.066110e+03
7.424614e+02,3.061926e+03
7.434256e+02,3.065349e+03
7.443898e+02,3.070820e+03
7.453541e+02,3.074820e+03
7.463183e+02,3.075655e+03
7.472825e+02,3.074260e+03
7.482468e+02,3.071890e+03
7.492110e+02,3.067538e+03
7.501752e+02,3.059471e+03
7.511395e+02,3.049660e+03
7.521037e+02,3.042973e+03
7.530679e+02,3.043852e+03
7.540322e+02,3.050166e+03
7.549964e+02,3.050956e+03
7.559606e+02,3.045125e+03
7.569249e+02,3.040104e+03
7.578891e+02,3.041180e+03
7.588533e+02,3.049130e+03
7.598176e+02,3.054886e+03
7.607818e+02,3.056304e+03
7.617460e+02,3.052798e+03
7.627103e+02,3.041496e+03
7.636745e+02,3.026763e+03
7.646387e+02,3.018274e+03
7.656030e+02,3.023987e+03
7.665672e+02,3.033954e+03
7.675314e+02,3.038696e+03
7.684957e+02,3.037627e+03
7.694599e+02,3.035259e+03
7.704241e+02,3.036951e+03
7.713884e+02,3.041347e+03
7.723526e+02,3.041326e+03
7.733168e+02,3.037192e+03
7.742811e+02,3.032159e+03
7.752453e+02,3.024625e+03
7.762095e+02,3.015056e+03
7.771738e+02,3.012111e+03
7.781380e+02,3.021773e+03
7.791022e+02,3.028280e+03
7.800665e+02,3.029259e+03
7.810307e+02,3.026323e+03
7.819949e+02,3.021765e+03
7.829592e+02,3.014019e+03
7.839234e+02,3.008921e+03
7.848876e+02,3.011424e+03
7.858519e+02,3.017068e+03
7.868161e+02,3.018735e+03
7.877803e+02,3.012844e+03
7.887446e+02,3.003570e+03
7.897088e+02,2.996172e+03
7.906730e+02,2.991878e+03
7.916373e+02,2.992456e+03
7.926015e+02,2.997433e+03
7.935657e+02,3.003555e+03
7.945300e+02,3.008824e+03
7.954942e+02,3.016397e+03
7.964584e+02,3.017899e+03
7.974227e+02,3.010200e+03
7.983869e+02,3.001833e+03
7.993511e+02,2.999752e+03
8.003154e+02,3.006092e+03
8.012796e+02,3.009007e+03
8.022438e+02,3.006824e+03
8.032081e+02,3.002695e+03
8.041723e+02,2.998001e+03
8.051365e+02,2.992454e+03
8.061008e+02,2.989093e+03
8.070650e+02,2.993196e+03
8.080292e+02,2.999044e+03
8.089935e+02,2.997201e+03
8.099577e+02,2.987205e+03
8.109219e+02,2.975844e+03
8.118862e+02,2.969633e+03
8.128504e+02,2.968435e+03
8.138146e+02,2.968620e+03
8.147789e+02,2.969987e+03
8.157431e+02,2.971055e+03
8.167073e+02,2.971169e+03
8.176716e+02,2.971501e+03
8.186358e+02,2.973444e+03
8.196000e+02,2.981280e+03
8.205643e+02,2.986240e+03
8.215285e+02,2.979375e+03
8.224927e+02,2.962784e+03
8.234570e+02,2.954211e+03
8.244212e+02,2.968673e+03
8.253854e+02,2.983441e+03
8.263497e+02,2.980874e+03
8.273139e+02,2.964990e+03
8.282781e+02,2.951362e+03
8.292424e+02,2.953069e+03
8.302066e+02,2.962142e+03
8.311708e+02,2.967134e+03
8.321351e+02,2.968365e+03
8.330993e+02,2.966786e+03
8.340635e+02,2.961331e+03
8.350278e+02,2.954120e+03
8.359920e+02,2.953853e+03
8.369562e+02,2.962527e+03
8.379205e+02,2.967983e+03
8.388847e+02,2.965320e+03
8.398489e+02,2.957663e+03
8.408132e+02,2.952421e+03
8.417774e+02,2.949878e+03
8.427416e+02,2.948390e+03
8.437059e+02,2.949917e+03
8.446701e+02,2.951430e+03
8.456343e+02,2.949469e+03
8.465986e+02,2.940164e+03
8.475628e+02,2.933459e+03
8.485270e+02,2.935126e+03
8.494913e+02,2.939624e+03
8.504555e+02,2.942048e+03
8.514197e+02,2.941571e+03
8.523840e+02,2.939384e+03
8.533482e+02,2.934175e+03
8.543124e+02,2.927529e+03
8.552767e+02,2.923318e+03
8.562409e+02,2.921799e+03
8.572051e+02,2.920444e+03
8.581694e+02,2.916182e+03
8.591336e+02,2.909976e+03
8.600978e+02,2.910001e+03
8.610621e+02,2.918586e+03
8.620263e+02,2.926639e+03
8.629905e+02,2.925809e+03
8.639548e+02,2.914341e+03
8.649190e+02,2.907264e+03
8.658832e+02,2.909023e+03
8.668475e+02,2.912077e+03
8.678117e+02,2.913069e+03
8.687759e+02,2.912088e+03
8.697402e+02,2.911484e+03
8.707044e+02,2.908386e+03
8.716686e+02,2.905753e+03
8.726329e+02,2.909317e+03
8.735971e+02,2.915525e+03
8.745613e+02,2.916626e+03
8.755256e+02,2.906382e+03
8.764898e+02,2.895991e+03
8.774540e+02,2.891692e+03
8.784183e+02,2.891515e+03
8.793825e+02,2.892567e+03
8.803467e+02,2.893707e+03
8.813110e+02,2.895624e+03
8.822752e+02,2.900846e+03
8.832394e+02,2.908714e+03
8.842037e+02,2.914975e+03
8.851679e+02,2.917896e+03
8.861321e+02,2.917441e+03
8.870964e+02,2.913442e+03
8.880606e+02,2.905497e+03
8.890248e+02,2.897742e+03
8.899891e+02,2.891385e+03
8.909533e+02,2.887103e+03
8.919175e+02,2.885143e+03
8.928818e+02,2.886087e+03
8.938460e+02,2.886489e+03
8.948102e+02,2.886614e+03
8.957745e+02,2.884430e+03
8.967387e+02,2.877371e+03
8.977029e+02,2.865143e+03
8.986672e+02,2.856835e+03
8.996314e+02,2.857246e+03
9.005956e+02,2.860698e+03
9.015599e+02,2.866792e+03
9.025241e+02,2.873189e+03
9.034883e+02,2.875548e+03
9.044526e+02,2.868557e+03
9.054168e+02,2.859184e+03
9.063810e+02,2.851900e+03
9.073453e+02,2.848520e+03
9.083095e+02,2.850183e+03
9.092737e+02,2.857949e+03
9.102380e+02,2.865727e+03
9.112022e+02,2.865942e+03
9.121664e+02,2.861063e+03
9.131307e+02,2.858519e+03
9.140949e+02,2.861583e+03
9.150591e+02,2.866671e+03
9.160234e+02,2.865852e+03
9.169876e+02,2.858532e+03
9.179518e+02,2.852841e+03
9.189161e+02,2.850230e+03
9.198803e+02,2.848371e+03
9.208445e+02,2.845962e+03
9.218088e+02,2.844025e+03
9.227730e+02,2.840639e+03
9.237372e+02,2.833502e+03
9.247015e+02,2.827887e+03
9.256657e+02,2.828390e+03
9.266299e+02,2.835192e+03
9.275942e+02,2.837318e+03
9.285584e+02,2.829375e+03
9.295226e+02,2.821931e+03
9.304869e+02,2.819699e+03
9.314511e+02,2.821725e+03
9.324153e+02,2.823543e+03
9.333796e+02,2.824809e+03
9.343438e+02,2.825652e+03
9.353080e+02,2.826729e+03
9.362723e+02,2.825780e+03
9.372365e+02,2.820519e+03
9.382007e+02,2.808596e+03
9.391650e+02,2.799524e+03
9.401292e+02,2.799599e+03
9.410934e+02,2.803469e+03
9.420577e+02,2.803965e+03
9.430219e+02,2.798829e+03
9.439861e+02,2.793498e+03
9.449504e+02,2.793060e+03
9.459146e+02,2.796779e+03
9.468788e+02,2.802992e+03
9.478431e+02,2.809429e+03
9.488073e+02,2.812430e+03
9.497715e+02,2.809813e+03
9.507358e+02,2.803454e+03
9.517000e+02,2.795867e+03
9.526642e+02,2.788213e+03
9.536285e+02,2.782177e+03
9.545927e+02,2.778127e+03
9.555569e+02,2.776048e+03
9.565212e+02,2.777218e+03
9.574854e+02,2.782719e+03
9.584496e+02,2.787652e+03
9.594139e+02,2.789028e+03
9.603781e+02,2.786765e+03
9.613423e+02,2.781737e+03
9.623066e+02,2.772844e+03
9.632708e+02,2.767673e+03
9.642350e+02,2.770070e+03
9.651993e+02,2.775047e+03
9.661635e+02,2.774047e+03
9.671277e+02,2.761032e+03
9.680920e+02,2.754663e+03
9.690562e+02,2.760540e+03
9.700204e+02,2.766841e+03
9.709847e+02,2.764806e+03
9.719489e+02,2.752914e+03
9.729131e+02,2.745219e+03
9.738774e+02,2.744290e+03
9.748416e+02,2.746216e+03
9.758058e+02,2.748819e+03
9.767701e+02,2.751337e+03
9.777343e+02,2.754300e+03
9.786985e+02,2.760816e+03
9.796628e+02,2.763760e+03
9.806270e+02,2.758622e+03
9.815912e+02,2.749156e+03
9.825555e+02,2.741854e+03
9.835197e+02,2.741187e+03
9.844839e+02,2.741505e+03
9.854482e+02,2.741197e+03
9.864124e+02,2.740782e+03
9.873766e+02,2.739695e+03
9.883409e+02,2.737794e+03
9.893051e+02,2.737382e+03
9.902693e+02,2.741447e+03
9.912336e+02,2.747047e+03
9.921978e+02,2.749610e+03
9.931620e+02,2.748208e+03
9.941263e+02,2.746229e+03
9.950905e+02,2.748906e+03
9.960547e+02,2.751263e+03
9.970190e+02,2.744852e+03
9.979832e+02,2.731448e+03
9.989474e+02,2.719375e+03
9.999117e+02,2.714072e+03
1.000876e+03,2.714164e+03
1.001840e+03,2.719875e+03
1.002804e+03,2.729734e+03
1.003769e+03,2.736223e+03
1.004733e+03,2.735503e+03
1.005697e+03,2.731233e+03
1.006661e+03,2.729329e+03
1.007626e+03,2.729281e+03
1.008590e+03,2.727379e+03
1.009554e+03,2.722244e+03
1.010518e+03,2.716140e+03
1.011482e+03,2.713078e+03
1.012447e+03,2.712370e+03
1.013411e+03,2.708351e+03
1.014375e+03,2.701876e+03
1.015339e+03,2.696383e+03
1.016304e+03,2.693597e+03
1.017268e+03,2.692761e+03
1.018232e+03,2.690536e+03
1.019196e+03,2.686167e+03
1.020161e+03,2.683686e+03
1.021125e+03,2.685898e+03
1.022089e+03,2.691250e+03
1.023053e+03,2.693543e+03
1.024018e+03,2.691286e+03
1.024982e+03,2.687999e+03
1.025946e+03,2.683251e+03
1.026910e+03,2.677688e+03
1.027875e+03,2.673822e+03
1.028839e+03,2.673538e+03
1.029803e+03,2.673427e+03
1.030767e+03,2.673225e+03
1.031731e+03,2.673911e+03
1.032696e+03,2.676001e+03
1.033660e+03,2.679347e+03
1.034624e+03,2.680961e+03
1.035588e+03,2.681034e+03
1.036552e+03,2.680931e+03
1.037517e+03,2.680296e+03
1.038481e+03,2.678620e+03
1.039445e+03,2.676786e+03
1.040409e+03,2.673881e+03
1.041374e+03,2.672691e+03
1.042338e+03,2.676397e+03
1.043302e+03,2.681584e+03
1.044266e+03,2.683026e+03
1.045231e+03,2.677891e+03
1.046195e+03,2.673382e+03
1.047159e+03,2.670132e+03
1.048123e+03,2.668040e+03
1.049088e+03,2.667290e+03
1.050052e+03,2.668941e+03
1.051016e+03,2.670481e+03
1.051980e+03,2.672967e+03
1.052945e+03,2.673617e+03
1.053909e+03,2.668349e+03
1.054873e+03,2.658070e+03
1.055837e+03,2.650859e+03
1.056802e+03,2.650674e+03
1.057766e+03,2.651111e+03
1.058730e+03,2.654164e+03
1.059694e+03,2.656418e+03
1.060658e+03,2.652635e+03
1.061623e+03,2.636984e+03
1.062587e+03,2.626968e+03
1.063551e+03,2.628000e+03
1.064515e+03,2.632887e+03
1.065479e+03,2.637141e+03
1.066444e+03,2.641028e+03
1.067408e+03,2.642900e+03
1.068372e+03,2.639774e+03
1.069336e+03,2.637283e+03
1.070301e+03,2.636749e+03
1.071265e+03,2.637310e+03
1.072229e+03,2.638205e+03
1.073193e+03,2.640400e+03
1.074158e+03,2.641485e+03
1.075122e+03,2.642255e+03
1.076086e+03,2.641042e+03
1.077050e+03,2.635571e+03
1.078015e+03,2.623022e+03
1.078979e+03,2.616376e+03
1.079943e+03,2.621020e+03
1.080907e+03,2.629413e+03
1.081872e+03,2.636710e+03
1.082836e+03,2.641700e+03
1.083800e+03,2.643365e+03
1.084764e+03,2.637414e+03
1.085729e+03,2.633651e+03
1.086693e+03,2.638904e+03
1.087657e+03,2.649136e+03
1.088621e+03,2.654374e+03
1.089585e+03,2.649633e+03
1.090550e+03,2.642094e+03
1.091514e+03,2.632943e+03
1.092478e+03,2.624374e+03
1.093442e+03,2.618099e+03
1.094406e+03,2.614732e+03
1.095371e+03,2.613323e+03
1.096335e+03,2.614429e+03
1.097299e+03,2.615775e+03
1.098263e+03,2.615382e+03
1.099228e+03,2.613081e+03
1.100192e+03,2.612569e+03
1.101156e+03,2.619093e+03
1.102120e+03,2.622066e+03
1.103085e+03,2.614888e+03
1.104049e+03,2.602142e+03
1.105013e+03,2.593141e+03
1.105977e+03,2.589906e+03
1.106942e+03,2.590070e+03
1.107906e+03,2.597651e+03
1.108870e+03,2.605978e+03
1.109834e+03,2.607775e+03
1.110799e+03,2.599748e+03
1.111763e+03,2.596760e+03
1.112727e+03,2.605257e+03
1.113691e+03,2.615333e+03
1.114656e+03,2.621425e+03
1.115620e+03,2.624051e+03
1.116584e+03,2.628084e+03
1.117548e+03,2.636036e+03
1.118512e+03,2.640593e+03
1.119477e+03,2.637029e+03
1.120441e+03,2.630417e+03
1.121405e+03,2.628867e+03
1.122369e+03,2.639697e+03
1.123334e+03,2.644737e+03
1.124298e+03,2.640454e+03
1.125262e+03,2.634372e+03
1.126226e+03,2.631946e+03
1.127191e+03,2.633927e+03
1.128155e+03,2.634492e+03
1.129119e+03,2.630505e+03
1.130083e+03,2.628212e+03
1.131047e+03,2.631384e+03
1.132012e+03,2.637041e+03
1.132976e+03,2.636978e+03
1.133940e+03,2.626993e+03
1.134904e+03,2.619720e+03
1.135869e+03,2.619924e+03
1.136833e+03,2.621874e+03
1.137797e+03,2.618291e+03
1.138761e+03,2.607186e+03
1.139726e+03,2.601801e+03
1.140690e+03,2.603867e+03
1.141654e+03,2.606961e+03
1.142618e+03,2.606958e+03
1.143583e+03,2.604585e+03
1.144547e+03,2.604556e+03
1.145511e+03,2.607659e+03
1.146475e+03,2.609479e+03
1.147439e+03,2.607922e+03
1.148404e+03,2.605824e+03
1.149368e+03,2.608433e+03
1.150332e+03,2.616313e+03
1.151296e+03,2.619231e+03
1.152261e+03,2.614343e+03
1.153225e+03,2.605918e+03
1.154189e+03,2.600010e+03
1.155153e+03,2.596938e+03
1.156118e+03,2.589202e+03
1.157082e+03,2.577508e+03
1.158046e+03,2.567153e+03
1.159010e+03,2.559464e+03
1.159974e+03,2.553934e+03
1.160939e+03,2.549876e+03
1.161903e+03,2.546719e+03
1.162867e+03,2.544235e+03
1.163831e+03,2.542240e+03
1.164796e+03,2.540725e+03
1.165760e+03,2.541578e+03
1.166724e+03,2.543657e+03
1.167688e+03,2.541613e+03
1.168653e+03,2.536117e+03
1.169617e+03,2.532779e+03
1.170581e+03,2.536945e+03
1.171545e+03,2.543645e+03
1.172510e+03,2.545223e+03
1.173474e+03,2.543607e+03
1.174438e+03,2.542200e+03
1.175402e+03,2.541553e+03
1.176366e+03,2.542041e+03
1.177331e+03,2.546828e+03
1.178295e+03,2.551900e+03
1.179259e+03,2.550694e+03
1.180223e+03,2.543126e+03
1.181188e+03,2.535416e+03
1.182152e+03,2.530594e+03
1.183116e+03,2.527632e+03
1.184080e+03,2.527441e+03
1.185045e+03,2.529176e+03
1.186009e+03,2.530865e+03
1.186973e+03,2.533287e+03
1.187937e+03,2.534400e+03
1.188901e+03,2.531293e+03
1.189866e+03,2.527363e+03
1.190830e+03,2.525281e+03
1.191794e+03,2.524860e+03
1.192758e+03,2.523198e+03
1.193723e+03,2.520413e+03
1.194687e+03,2.517577e+03
1.195651e+03,2.514108e+03
1.196615e+03,2.510332e+03
1.197580e+03,2.507163e+03
1.198544e+03,2.502461e+03
1.199508e+03,2.498096e+03
1.200472e+03,2.495704e+03
1.201437e+03,2.494653e+03
1.202401e+03,2.494818e+03
1.203365e+03,2.496973e+03
1.204329e+03,2.499792e+03
1.205293e+03,2.503897e+03
1.206258e+03,2.505771e+03
1.207222e+03,2.501982e+03
1.208186e+03,2.495640e+03
1.209150e+03,2.499365e+03
1.210115e+03,2.514238e+03
1.211079e+03,2.518959e+03
1.212043e+03,2.508469e+03
1.213007e+03,2.493857e+03
1.213972e+03,2.488969e+03
1.214936e+03,2.492776e+03
1.215900e+03,2.495941e+03
1.216864e+03,2.498150e+03
1.217828e+03,2.497109e+03
1.218793e+03,2.490957e+03
1.219757e+03,2.481794e+03
1.220721e+03,2.469994e+03
1.221685e+03,2.458401e+03
1.222650e+03,2.454812e+03
1.223614e+03,2.460791e+03
1.224578e+03,2.467107e+03
1.225542e+03,2.465802e+03
1.226507e+03,2.462149e+03
1.227471e+03,2.462148e+03
1.228435e+03,2.464682e+03
1.229399e+03,2.465428e+03
1.230364e+03,2.464094e+03
1.231328e+03,2.459780e+03
1.232292e+03,2.449365e+03
1.233256e+03,2.438747e+03
1.234220e+03,2.434807e+03
1.235185e+03,2.442015e+03
1.236149e+03,2.447522e+03
1.237113e+03,2.446374e+03
1.238077e+03,2.445505e+03
1.239042e+03,2.447825e+03
1.240006e+03,2.451905e+03
1.240970e+03,2.454288e+03
1.241934e+03,2.454241e+03
1.242899e+03,2.453729e+03
1.243863e+03,2.454628e+03
1.244827e+03,2.454880e+03
1.245791e+03,2.450918e+03
1.246755e+03,2.441824e+03
1.247720e+03,2.433206e+03
1.248684e+03,2.424783e+03
1.249648e+03,2.420445e+03
1.250612e+03,2.423426e+03
1.251577e+03,2.430938e+03
1.252541e+03,2.435618e+03
1.253505e+03,2.437217e+03
1.254469e+03,2.435040e+03
1.255434e+03,2.428936e+03
1.256398e+03,2.423083e+03
1.257362e+03,2.421628e+03
1.258326e+03,2.422759e+03
1.259291e+03,2.424995e+03
1.260255e+03,2.427385e+03
1.261219e+03,2.427755e+03
1.262183e+03,2.424752e+03
1.263147e+03,2.422066e+03
1.264112e+03,2.421048e+03
1.265076e+03,2.422176e+03
1.266040e+03,2.426733e+03
1.267004e+03,2.437291e+03
1.267969e+03,2.443485e+03
1.268933e+03,2.437766e+03
1.269897e+03,2.432719e+03
1.270861e+03,2.433321e+03
1.271826e+03,2.438168e+03
1.272790e+03,2.447889e+03
1.273754e+03,2.471870e+03
1.274718e+03,2.485335e+03
1.275682e+03,2.480787e+03
1.276647e+03,2.469756e+03
1.277611e+03,2.466156e+03
1.278575e+03,2.470843e+03
1.279539e+03,2.473965e+03
1.280504e+03,2.476929e+03
1.281468e+03,2.477362e+03
1.282432e+03,2.472072e+03
1.283396e+03,2.464044e+03
1.284361e+03,2.461513e+03
1.285325e+03,2.462438e+03
1.286289e+03,2.460728e+03
1.287253e+03,2.454715e+03
1.288218e+03,2.445627e+03
1.289182e+03,2.432009e+03
1.290146e+03,2.418507e+03
1.291110e+03,2.412020e+03
1.292074e+03,2.411506e+03
1.293039e+03,2.410776e+03
1.294003e+03,2.407984e+03
1.294967e+03,2.402285e+03
1.295931e+03,2.388703e+03
1.296896e+03,2.376112e+03
1.297860e+03,2.374993e+03
1.298824e+03,2.390010e+03
1.299788e+03,2.399071e+03
1.300753e+03,2.398172e+03
1.301717e+03,2.394941e+03
1.302681e+03,2.391665e+03
1.303645e+03,2.388567e+03
1.304609e+03,2.386296e+03
1.305574e+03,2.383946e+03
1.306538e+03,2.382450e+03
1.307502e+03,2.383393e+03
1.308466e+03,2.384383e+03
1.309431e+03,2.381603e+03
1.310395e+03,2.376435e+03
1.311359e+03,2.373113e+03
1.312323e+03,2.370534e+03
1.313288e+03,2.367928e+03
1.314252e+03,2.366227e+03
1.315216e+03,2.365574e+03
1.316180e+03,2.365310e+03
1.317145e+03,2.365566e+03
1.318109e+03,2.365754e+03
1.319073e+03,2.364969e+03
1.320037e+03,2.363911e+03
1.321001e+03,2.364272e+03
1.321966e+03,2.363143e+03
1.322930e+03,2.358644e+03
1.323894e+03,2.353599e+03
1.324858e+03,2.351623e+03
1.325823e+03,2.353444e+03
1.326787e+03,2.356313e+03
1.327751e+03,2.359267e+03
1.328715e+03,2.363671e+03
1.329680e+03,2.371843e+03
1.330644e+03,2.382237e+03
1.331608e+03,2.386525e+03
1.332572e+03,2.385041e+03
1.333536e+03,2.385284e+03
1.334501e+03,2.389278e+03
1.335465e+03,2.392077e+03
1.336429e+03,2.388583e+03
1.337393e+03,2.381964e+03
1.338358e+03,2.375025e+03
1.339322e+03,2.368682e+03
1.340286e+03,2.365012e+03
1.341250e+03,2.367062e+03
1.342215e+03,2.369425e+03
1.343179e+03,2.371430e+03
1.344143e+03,2.373887e+03
1.345107e+03,2.376274e+03
1.346072e+03,2.377919e+03
1.347036e+03,2.378293e+03
1.348000e+03,2.377013e+03
1.348964e+03,2.373627e+03
1.349928e+03,2.368313e+03
1.350893e+03,2.362266e+03
1.351857e+03,2.356156e+03
1.352821e+03,2.349526e+03
1.353785e+03,2.344359e+03
1.354750e+03,2.340613e+03
1.355714e+03,2.337160e+03
1.356678e+03,2.333583e+03
1.357642e+03,2.331526e+03
1.358607e+03,2.333261e+03
1.359571e+03,2.336810e+03
1.360535e+03,2.338357e+03
1.361499e+03,2.336559e+03
1.362464e+03,2.334527e+03
1.363428e+03,2.333449e+03
1.364392e+03,2.333628e+03
1.365356e+03,2.334246e+03
1.366320e+03,2.334258e+03
1.367285e+03,2.334315e+03
1.368249e+03,2.336559e+03
1.369213e+03,2.336113e+03
1.370177e+03,2.331513e+03
1.371142e+03,2.325262e+03
1.372106e+03,2.320387e+03
1.373070e+03,2.316664e+03
1.374034e+03,2.312493e+03
1.374999e+03,2.308386e+03
1.375963e+03,2.303892e+03
1.376927e+03,2.297384e+03
1.377891e+03,2.292934e+03
1.378855e+03,2.297037e+03
1.379820e+03,2.303983e+03
1.380784e+03,2.306827e+03
1.381748e+03,2.305183e+03
1.382712e+03,2.302642e+03
1.383677e+03,2.296493e+03
1.384641e+03,2.291772e+03
1.385605e+03,2.291777e+03
1.386569e+03,2.292771e+03
1.387534e+03,2.288839e+03
1.388498e+03,2.278769e+03
1.389462e+03,2.271721e+03
1.390426e+03,2.267392e+03
1.391391e+03,2.265968e+03
1.392355e+03,2.269485e+03
1.393319e+03,2.275244e+03
1.394283e+03,2.277048e+03
1.395247e+03,2.275682e+03
1.396212e+03,2.272738e+03
1.397176e+03,2.268481e+03
1.398140e+03,2.266863e+03
1.399104e+03,2.271947e+03
1.400069e+03,2.277757e+03
1.401033e+03,2.281560e+03
1.401997e+03,2.283190e+03
1.402961e+03,2.282646e+03
1.403926e+03,2.278443e+03
1.404890e+03,2.275251e+03
1.405854e+03,2.274038e+03
1.406818e+03,2.273384e+03
1.407782e+03,2.272294e+03
1.408747e+03,2.271552e+03
1.409711e+03,2.271843e+03
1.410675e+03,2.271809e+03
1.411639e+03,2.271204e+03
1.412604e+03,2.270425e+03
1.413568e+03,2.268316e+03
1.414532e+03,2.263594e+03
1.415496e+03,2.258788e+03
1.416461e+03,2.254410e+03
1.417425e+03,2.250352e+03
1.418389e+03,2.248164e+03
1.419353e+03,2.250938e+03
1.420318e+03,2.251510e+03
1.421282e+03,2.249528e+03
1.422246e+03,2.247040e+03
1.423210e+03,2.245010e+03
1.424174e+03,2.243881e+03
1.425139e+03,2.245368e+03
1.426103e+03,2.248378e+03
1.427067e+03,2.248886e+03
1.428031e+03,2.245625e+03
1.428996e+03,2.240461e+03
1.429960e+03,2.231566e+03
1.430924e+03,2.223494e+03
1.431888e+03,2.223142e+03
1.432853e+03,2.228907e+03
1.433817e+03,2.230886e+03
1.434781e+03,2.223466e+03
1.435745e+03,2.217861e+03
1.436709e+03,2.214360e+03
1.437674e+03,2.212299e+03
1.438638e+03,2.212691e+03
1.439602e+03,2.215698e+03
1.440566e+03,2.215566e+03
1.441531e+03,2.212476e+03
1.442495e+03,2.211340e+03
1.443459e+03,2.214296e+03
1.444423e+03,2.216077e+03
1.445388e+03,2.208728e+03
1.446352e+03,2.198712e+03
1.447316e+03,2.194099e+03
1.448280e+03,2.195250e+03
1.449245e+03,2.195412e+03
1.450209e+03,2.191424e+03
1.451173e+03,2.188782e+03
1.452137e+03,2.186967e+03
1.453101e+03,2.185629e+03
1.454066e+03,2.185449e+03
1.455030e+03,2.186362e+03
1.455994e+03,2.186955e+03
1.456958e+03,2.187270e+03
1.457923e+03,2.188110e+03
1.458887e+03,2.189499e+03
1.459851e+03,2.189710e+03
1.460815e+03,2.186045e+03
1.461780e+03,2.180842e+03
1.462744e+03,2.178123e+03
1.463708e+03,2.177842e+03
1.464672e+03,2.174715e+03
1.465636e+03,2.165713e+03
1.466601e+03,2.161761e+03
1.467565e+03,2.165479e+03
1.468529e+03,2.171227e+03
1.469493e+03,2.173606e+03
1.470458e+03,2.172518e+03
1.471422e+03,2.168388e+03
1.472386e+03,2.162805e+03
1.473350e+03,2.160177e+03
1.474315e+03,2.161893e+03
1.475279e+03,2.165361e+03
1.476243e+03,2.171923e+03
1.477207e+03,2.176308e+03
1.478172e+03,2.174606e+03
1.479136e+03,2.168135e+03
1.480100e+03,2.161784e+03
1.481064e+03,2.154935e+03
1.482028e+03,2.152097e+03
1.482993e+03,2.154560e+03
1.483957e+03,2.158948e+03
1.484921e+03,2.162344e+03
1.485885e+03,2.164723e+03
1.486850e+03,2.165103e+03
1.487814e+03,2.163887e+03
1.488778e+03,2.163857e+03
1.489742e+03,2.167424e+03
1.490707e+03,2.167233e+03
1.491671e+03,2.157797e+03
1.492635e+03,2.150126e+03
1.493599e+03,2.148754e+03
1.494563e+03,2.150911e+03
1.495528e+03,2.150565e+03
1.496492e+03,2.147485e+03
1.497456e+03,2.145487e+03
1.498420e+03,2.145663e+03
1.499385e+03,2.145798e+03
1.500349e+03,2.143048e+03
1.501313e+03,2.140699e+03
1.502277e+03,2.141802e+03
1.503242e+03,2.144458e+03
1.504206e+03,2.146214e+03
1.505170e+03,2.146530e+03
1.506134e+03,2.144457e+03
1.507099e+03,2.139593e+03
1.508063e+03,2.133617e+03
1.509027e+03,2.126254e+03
1.509991e+03,2.120245e+03
1.510955e+03,2.122746e+03
1.511920e+03,2.129602e+03
1.512884e+03,2.131582e+03
1.513848e+03,2.129088e+03
1.514812e+03,2.125956e+03
1.515777e+03,2.120688e+03
1.516741e+03,2.116148e+03
1.517705e+03,2.112978e+03
1.518669e+03,2.110930e+03
1.519634e+03,2.110321e+03
1.520598e+03,2.110826e+03
1.521562e+03,2.114609e+03
1.522526e+03,2.120623e+03
1.523490e+03,2.121085e+03
1.524455e+03,2.113019e+03
1.525419e+03,2.102874e+03
1.526383e+03,2.093364e+03
1.527347e+03,2.087562e+03
1.528312e+03,2.093251e+03
1.529276e+03,2.107030e+03
1.530240e+03,2.110682e+03
1.531204e+03,2.096794e+03
1.532169e+03,2.089898e+03
1.533133e+03,2.093030e+03
1.534097e+03,2.097786e+03
1.535061e+03,2.097184e+03
1.536026e+03,2.094112e+03
1.536990e+03,2.095695e+03
1.537954e+03,2.099410e+03
1.538918e+03,2.100048e+03
1.539882e+03,2.095957e+03
1.540847e+03,2.091002e+03
1.541811e+03,2.082142e+03
1.542775e+03,2.077084e+03
1.543739e+03,2.080231e+03
1.544704e+03,2.087211e+03
1.545668e+03,2.090634e+03
1.546632e+03,2.091260e+03
1.547596e+03,2.090912e+03
1.548561e+03,2.089981e+03
1.549525e+03,2.090111e+03
1.550489e+03,2.092031e+03
1.551453e+03,2.093994e+03
1.552417e+03,2.096505e+03
1.553382e+03,2.097314e+03
1.554346e+03,2.094655e+03
1.555310e+03,2.089474e+03
1.556274e+03,2.086704e+03
1.557239e+03,2.086116e+03
1.558203e+03,2.085564e+03
1.559167e+03,2.084542e+03
1.560131e+03,2.084125e+03
1.561096e+03,2.084849e+03
1.562060e+03,2.087496e+03
1.563024e+03,2.094896e+03
1.563988e+03,2.103972e+03
1.564953e+03,2.107043e+03
1.565917e+03,2.100022e+03
1.566881e+03,2.101138e+03
1.567845e+03,2.111501e+03
1.568809e+03,2.118826e+03
1.569774e+03,2.115321e+03
1.570738e+03,2.108508e+03
1.571702e+03,2.109344e+03
1.572666e+03,2.112470e+03
1.573631e+03,2.110872e+03
1.574595e+03,2.104395e+03
1.575559e+03,2.098014e+03
1.576523e+03,2.089945e+03
1.577488e+03,2.088996e+03
1.578452e+03,2.097270e+03
1.579416e+03,2.106496e+03
1.580380e+03,2.107040e+03
1.581344e+03,2.103792e+03
1.582309e+03,2.109271e+03
1.583273e+03,2.118653e+03
1.584237e+03,2.118895e+03
1.585201e+03,2.101581e+03
1.586166e+03,2.087323e+03
1.587130e+03,2.076411e+03
1.588094e+03,2.071879e+03
1.589058e+03,2.078113e+03
1.590023e+03,2.087880e+03
1.590987e+03,2.084706e+03
1.591951e+03,2.074133e+03
1.592915e+03,2.067373e+03
1.593880e+03,2.064367e+03
1.594844e+03,2.060978e+03
1.595808e+03,2.055492e+03
1.596772e+03,2.050198e+03
1.597736e+03,2.046880e+03
1.598701e+03,2.043311e+03
1.599665e+03,2.036219e+03
1.600629e+03,2.027082e+03
1.601593e+03,2.021247e+03
1.602558e+03,2.018792e+03
1.603522e+03,2.021268e+03
1.604486e+03,2.030372e+03
1.605450e+03,2.035626e+03
1.606415e+03,2.030155e+03
1.607379e+03,2.024511e+03
1.608343e+03,2.022668e+03
1.609307e+03,2.022044e+03
1.610271e+03,2.016553e+03
1.611236e+03,2.008120e+03
1.612200e+03,2.009616e+03
1.613164e+03,2.019872e+03
1.614128e+03,2.025424e+03
1.615093e+03,2.011868e+03
1.616057e+03,2.001883e+03
1.617021e+03,2.007196e+03
1.617985e+03,2.012621e+03
1.618950e+03,2.008782e+03
1.619914e+03,1.998769e+03
1.620878e+03,1.994083e+03
1.621842e+03,1.994052e+03
1.622807e+03,1.996134e+03
1.623771e+03,2.000184e+03
1.624735e+03,2.001883e+03
1.625699e+03,1.995227e+03
1.626663e+03,1.988622e+03
1.627628e+03,1.984293e+03
1.628592e+03,1.980914e+03
1.629556e+03,1.979023e+03
1.630520e+03,1.979020e+03
1.631485e+03,1.977011e+03
1.632449e+03,1.973230e+03
1.633413e+03,1.969473e+03
1.634377e+03,1.965881e+03
1.635342e+03,1.964588e+03
1.636306e+03,1.969761e+03
1.637270e+03,1.973729e+03
1.638234e+03,1.972257e+03
1.639198e+03,1.968186e+03
1.640163e+03,1.968082e+03
1.641127e+03,1.970650e+03
1.642091e+03,1.969383e+03
1.643055e+03,1.963420e+03
1.644020e+03,1.957933e+03
1.644984e+03,1.953745e+03
1.645948e+03,1.951718e+03
1.646912e+03,1.953785e+03
1.647877e+03,1.955969e+03
1.648841e+03,1.955361e+03
1.649805e+03,1.952420e+03
1.650769e+03,1.944887e+03
1.651734e+03,1.936100e+03
1.652698e+03,1.936820e+03
1.653662e+03,1.951148e+03
1.654626e+03,1.958891e+03
1.655590e+03,1.949319e+03
1.656555e+03,1.942942e+03
1.657519e+03,1.947108e+03
1.658483e+03,1.955115e+03
1.659447e+03,1.956394e+03
1.660412e+03,1.952884e+03
1.661376e+03,1.949505e+03
1.662340e+03,1.946939e+03
1.663304e+03,1.944594e+03
1.664269e+03,1.939938e+03
1.665233e+03,1.938048e+03
1.666197e+03,1.939944e+03
1.667161e+03,1.938836e+03
1.668125e+03,1.929965e+03
1.669090e+03,1.919720e+03
1.670054e+03,1.918690e+03
1.671018e+03,1.922181e+03
1.671982e+03,1.925124e+03
1.672947e+03,1.926867e+03
1.673911e+03,1.927037e+03
1.674875e+03,1.923919e+03
1.675839e+03,1.921973e+03
1.676804e+03,1.922881e+03
1.677768e+03,1.925074e+03
1.678732e+03,1.927435e+03
1.679696e+03,1.928392e+03
1.680661e+03,1.924520e+03
1.681625e+03,1.918582e+03
1.682589e+03,1.916702e+03
1.683553e+03,1.919950e+03
1.684517e+03,1.919570e+03
1.685482e+03,1.915379e+03
1.686446e+03,1.910192e+03
1.687410e+03,1.904531e+03
1.688374e+03,1.900289e+03
1.689339e+03,1.899469e+03
1.690303e+03,1.899765e+03
1.691267e+03,1.901512e+03
1.692231e+03,1.902394e+03
1.693196e+03,1.895685e+03
1.694160e+03,1.882624e+03
1.695124e+03,1.876101e+03
1.696088e+03,1.876657e+03
1.697052e+03,1.882128e+03
1.698017e+03,1.896428e+03
1.698981e+03,1.903308e+03
1.699945e+03,1.892584e+03
1.700909e+03,1.882006e+03
1.701874e+03,1.883121e+03
1.702838e+03,1.890950e+03
1.703802e+03,1.892014e+03
1.704766e+03,1.888921e+03
1.705731e+03,1.889321e+03
1.706695e+03,1.894114e+03
1.707659e+03,1.896070e+03
1.708623e+03,1.894802e+03
1.709588e+03,1.890566e+03
1.710552e+03,1.881743e+03
1.711516e+03,1.872589e+03
1.712480e+03,1.865492e+03
1.713444e+03,1.861995e+03
1.714409e+03,1.869180e+03
1.715373e+03,1.879442e+03
1.716337e+03,1.879548e+03
1.717301e+03,1.869693e+03
1.718266e+03,1.864151e+03
1.719230e+03,1.862429e+03
1.720194e+03,1.862662e+03
1.721158e+03,1.864381e+03
1.722123e+03,1.864903e+03
1.723087e+03,1.859269e+03
1.724051e+03,1.855943e+03
1.725015e+03,1.862809e+03
1.725979e+03,1.871153e+03
1.726944e+03,1.865090e+03
1.727908e+03,1.849107e+03
1.728872e+03,1.841145e+03
1.729836e+03,1.840286e+03
1.730801e+03,1.843488e+03
1.731765e+03,1.854874e+03
1.732729e+03,1.858558e+03
1.733693e+03,1.850384e+03
1.734658e+03,1.843146e+03
1.735622e+03,1.842945e+03
1.736586e+03,1.844822e+03
1.737550e+03,1.841683e+03
1.738515e+03,1.836528e+03
1.739479e+03,1.832221e+03
1.740443e+03,1.829456e+03
1.741407e+03,1.830561e+03
1.742371e+03,1.836721e+03
1.743336e+03,1.833556e+03
1.744300e+03,1.820189e+03
1.745264e+03,1.809867e+03
1.746228e+03,1.818237e+03
1.747193e+03,1.825286e+03
1.748157e+03,1.817877e+03
1.749121e+03,1.810027e+03
1.750085e+03,1.808835e+03
1.751050e+03,1.811905e+03
1.752014e+03,1.820322e+03
1.752978e+03,1.830523e+03
1.753942e+03,1.830733e+03
1.754906e+03,1.818509e+03
1.755871e+03,1.810372e+03
1.756835e+03,1.809981e+03
1.757799e+03,1.808055e+03
1.758763e+03,1.804266e+03
1.759728e+03,1.803917e+03
1.760692e+03,1.818389e+03
1.761656e+03,1.831797e+03
1.762620e+03,1.822626e+03
1.763585e+03,1.804240e+03
1.764549e+03,1.797020e+03
1.765513e+03,1.800255e+03
1.766477e+03,1.805793e+03
1.767442e+03,1.812922e+03
1.768406e+03,1.813498e+03
1.769370e+03,1.804040e+03
1.770334e+03,1.795865e+03
1.771298e+03,1.794589e+03
1.772263e+03,1.792828e+03
1.773227e+03,1.789228e+03
1.774191e+03,1.784505e+03
1.775155e+03,1.776911e+03
1.776120e+03,1.770001e+03
1.777084e+03,1.771982e+03
1.778048e+03,1.779340e+03
1.779012e+03,1.781207e+03
1.779977e+03,1.775393e+03
1.780941e+03,1.774531e+03
1.781905e+03,1.777697e+03
1.782869e+03,1.779283e+03
1.783833e+03,1.776539e+03
1.784798e+03,1.773499e+03
1.785762e+03,1.771917e+03
1.786726e+03,1.771208e+03
1.787690e+03,1.771354e+03
1.788655e+03,1.772492e+03
1.789619e+03,1.775969e+03
1.790583e+03,1.779348e+03
1.791547e+03,1.775667e+03
1.792512e+03,1.766395e+03
1.793476e+03,1.760157e+03
1.794440e+03,1.757295e+03
1.795404e+03,1.757415e+03
1.796369e+03,1.760046e+03
1.797333e+03,1.762473e+03
1.798297e+03,1.763635e+03
1.799261e+03,1.763907e+03
1.800225e+03,1.763967e+03
1.801190e+03,1.761066e+03
1.802154e+03,1.753163e+03
1.803118e+03,1.742722e+03
1.804082e+03,1.736200e+03
1.805047e+03,1.733947e+03
1.806011e+03,1.737568e+03
1.806975e+03,1.746121e+03
1.807939e+03,1.749475e+03
1.808904e+03,1.744675e+03
1.809868e+03,1.738958e+03
1.810832e+03,1.733396e+03
1.811796e+03,1.729895e+03
1.812760e+03,1.732164e+03
1.813725e+03,1.733514e+03
1.814689e+03,1.725506e+03
1.815653e+03,1.719570e+03
1.816617e+03,1.726581e+03
1.817582e+03,1.740662e+03
1.818546e+03,1.742689e+03
1.819510e+03,1.736267e+03
1.820474e+03,1.727624e+03
1.821439e+03,1.718378e+03
1.822403e+03,1.718332e+03
1.823367e+03,1.731701e+03
1.824331e+03,1.733986e+03
1.825296e+03,1.720374e+03
1.826260e+03,1.707658e+03
1.827224e+03,1.714163e+03
1.828188e+03,1.722153e+03
1.829152e+03,1.718986e+03
1.830117e+03,1.714096e+03
1.831081e+03,1.716531e+03
1.832045e+03,1.721771e+03
1.833009e+03,1.716237e+03
1.833974e+03,1.706863e+03
1.834938e+03,1.705110e+03
1.835902e+03,1.713400e+03
1.836866e+03,1.715730e+03
1.837831e+03,1.711589e+03
1.838795e+03,1.706760e+03
1.839759e+03,1.703197e+03
1.840723e+03,1.699535e+03
1.841688e+03,1.689348e+03
1.842652e+03,1.685524e+03
1.843616e+03,1.693436e+03
1.844580e+03,1.703519e+03
1.845544e+03,1.708169e+03
1.846509e+03,1.708466e+03
1.847473e+03,1.703795e+03
1.848437e+03,1.696646e+03
1.849401e+03,1.692097e+03
1.850366e+03,1.690596e+03
1.851330e+03,1.683799e+03
1.852294e+03,1.673478e+03
1.853258e+03,1.671935e+03
1.854223e+03,1.683139e+03
1.855187e+03,1.692586e+03
1.856151e+03,1.692069e+03
1.857115e+03,1.690328e+03
1.858079e+03,1.689056e+03
1.859044e+03,1.685694e+03
1.860008e+03,1.676339e+03
1.860972e+03,1.666218e+03
1.861936e+03,1.658658e+03
1.862901e+03,1.654993e+03
1.863865e+03,1.656709e+03
1.864829e+03,1.661699e+03
1.865793e+03,1.661213e+03
1.866758e+03,1.657258e+03
1.867722e+03,1.653904e+03
1.868686e+03,1.651609e+03
1.869650e+03,1.651645e+03
1.870615e+03,1.653985e+03
1.871579e+03,1.655413e+03
1.872543e+03,1.655941e+03
1.873507e+03,1.656469e+03
1.874471e+03,1.654649e+03
1.875436e+03,1.653346e+03
1.876400e+03,1.654949e+03
1.877364e+03,1.658011e+03
1.878328e+03,1.663660e+03
1.879293e+03,1.667606e+03
1.880257e+03,1.656848e+03
1.881221e+03,1.638888e+03
1.882185e+03,1.630941e+03
1.883150e+03,1.634209e+03
1.884114e+03,1.638756e+03
1.885078e+03,1.643639e+03
1.886042e+03,1.644603e+03
1.887006e+03,1.639531e+03
1.887971e+03,1.637571e+03
1.888935e+03,1.645877e+03
1.889899e+03,1.649369e+03
1.890863e+03,1.643118e+03
1.891828e+03,1.633633e+03
1.892792e+03,1.627985e+03
1.893756e+03,1.622877e+03
1.894720e+03,1.615417e+03
1.895685e+03,1.610158e+03
1.896649e+03,1.612203e+03
1.897613e+03,1.617928e+03
1.898577e+03,1.616467e+03
1.899542e+03,1.611178e+03
1.900506e+03,1.608880e+03
1.901470e+03,1.610536e+03
1.902434e+03,1.613783e+03
1.903398e+03,1.618503e+03
1.904363e+03,1.620068e+03
1.905327e+03,1.617319e+03
1.906291e+03,1.613832e+03
1.907255e+03,1.608493e+03
1.908220e+03,1.605021e+03
1.909184e+03,1.603953e+03
1.910148e+03,1.605829e+03
1.911112e+03,1.619026e+03
1.912077e+03,1.628614e+03
1.913041e+03,1.615943e+03
1.914005e+03,1.597055e+03
1.914969e+03,1.587367e+03
1.915933e+03,1.585703e+03
1.916898e+03,1.590931e+03
1.917862e+03,1.599783e+03
1.918826e+03,1.605473e+03
1.919790e+03,1.607217e+03
1.920755e+03,1.602290e+03
1.921719e+03,1.590223e+03
1.922683e+03,1.581497e+03
1.923647e+03,1.578888e+03
1.924612e+03,1.578256e+03
1.925576e+03,1.579924e+03
1.926540e+03,1.578776e+03
1.927504e+03,1.572167e+03
1.928469e+03,1.567548e+03
1.929433e+03,1.574033e+03
1.930397e+03,1.581587e+03
1.931361e+03,1.583515e+03
1.932325e+03,1.582411e+03
1.933290e+03,1.580297e+03
1.934254e+03,1.578752e+03
1.935218e+03,1.579010e+03
1.936182e+03,1.579105e+03
1.937147e+03,1.578453e+03
1.938111e+03,1.577251e+03
1.939075e+03,1.571786e+03
1.940039e+03,1.564060e+03
1.941004e+03,1.563920e+03
1.941968e+03,1.571206e+03
1.942932e+03,1.573065e+03
1.943896e+03,1.564164e+03
1.944860e+03,1.557771e+03
1.945825e+03,1.555925e+03
1.946789e+03,1.554733e+03
1.947753e+03,1.549474e+03
1.948717e+03,1.545633e+03
1.949682e+03,1.546305e+03
1.950646e+03,1.546759e+03
1.951610e+03,1.544145e+03
1.952574e+03,1.540079e+03
1.953539e+03,1.533689e+03
1.954503e+03,1.530102e+03
1.955467e+03,1.538661e+03
1.956431e+03,1.552102e+03
1.957396e+03,1.547095e+03
1.958360e+03,1.531327e+03
1.959324e+03,1.524262e+03
1.960288e+03,1.527371e+03
1.961252e+03,1.532335e+03
1.962217e+03,1.538021e+03
1.963181e+03,1.538763e+03
1.964145e+03,1.534688e+03
1.965109e+03,1.531586e+03
1.966074e+03,1.533564e+03
1.967038e+03,1.535981e+03
1.968002e+03,1.536990e+03
1.968966e+03,1.536926e+03
1.969931e+03,1.536256e+03
1.970895e+03,1.534250e+03
1.971859e+03,1.530579e+03
1.972823e+03,1.528761e+03
1.973787e+03,1.530376e+03
1.974752e+03,1.531586e+03
1.975716e+03,1.526280e+03
1.976680e+03,1.518639e+03
1.977644e+03,1.513831e+03
1.978609e+03,1.511896e+03
1.979573e+03,1.511926e+03
1.980537e+03,1.512797e+03
1.981501e+03,1.513120e+03
1.982466e+03,1.512191e+03
1.983430e+03,1.505762e+03
1.984394e+03,1.492031e+03
1.985358e+03,1.492696e+03
1.986323e+03,1.504646e+03
1.987287e+03,1.509085e+03
1.988251e+03,1.498193e+03
1.989215e+03,1.492452e+03
1.990179e+03,1.495539e+03
1.991144e+03,1.499398e+03
1.992108e+03,1.503038e+03
1.993072e+03,1.503675e+03
1.994036e+03,1.494975e+03
1.995001e+03,1.487600e+03
1.995965e+03,1.484042e+03
1.996929e+03,1.484159e+03
1.997893e+03,1.490517e+03
1.998858e+03,1.495569e+03
1.999822e+03,1.491739e+03
2.000786e+03,1.483796e+03
2.001750e+03,1.475599e+03
2.002714e+03,1.469387e+03
2.003679e+03,1.469485e+03
2.004643e+03,1.471608e+03
2.005607e+03,1.469477e+03
2.006571e+03,1.464645e+03
2.007536e+03,1.462697e+03
2.008500e+03,1.462751e+03
2.009464e+03,1.460932e+03
2.010428e+03,1.457596e+03
2.011393e+03,1.457314e+03
2.012357e+03,1.460356e+03
2.013321e+03,1.463850e+03
2.014285e+03,1.466406e+03
2.015250e+03,1.467168e+03
2.016214e+03,1.465350e+03
2.017178e+03,1.461685e+03
2.018142e+03,1.456231e+03
2.019106e+03,1.453485e+03
2.020071e+03,1.456356e+03
2.021035e+03,1.460273e+03
2.021999e+03,1.464181e+03
2.022963e+03,1.465971e+03
2.023928e+03,1.465791e+03
2.024892e+03,1.462402e+03
2.025856e+03,1.450180e+03
2.026820e+03,1.438764e+03
2.027785e+03,1.433686e+03
2.028749e+03,1.432484e+03
2.029713e+03,1.433256e+03
2.030677e+03,1.435857e+03
2.031641e+03,1.441315e+03
2.032606e+03,1.446818e+03
2.033570e+03,1.447572e+03
2.034534e+03,1.444531e+03
2.035498e+03,1.445230e+03
2.036463e+03,1.446111e+03
2.037427e+03,1.434759e+03
2.038391e+03,1.412552e+03
2.039355e+03,1.408652e+03
2.040320e+03,1.418862e+03
2.041284e+03,1.424505e+03
2.042248e+03,1.420998e+03
2.043212e+03,1.418545e+03
2.044177e+03,1.418752e+03
2.045141e+03,1.413456e+03
2.046105e+03,1.401404e+03
2.047069e+03,1.394239e+03
2.048033e+03,1.398451e+03
2.048998e+03,1.406913e+03
2.049962e+03,1.420193e+03
2.050926e+03,1.429612e+03
2.051890e+03,1.428457e+03
2.052854e+03,1.422552e+03
2.053819e+03,1.410400e+03
2.054783e+03,1.401923e+03
2.055747e+03,1.405570e+03
2.056711e+03,1.410731e+03
2.057676e+03,1.404384e+03
2.058640e+03,1.399478e+03
2.059604e+03,1.402636e+03
2.060568e+03,1.407645e+03
2.061533e+03,1.405920e+03
2.062497e+03,1.402368e+03
2.063461e+03,1.402287e+03
2.064425e+03,1.403055e+03
2.065390e+03,1.400474e+03
2.066354e+03,1.396057e+03
2.067318e+03,1.393413e+03
2.068282e+03,1.391775e+03
2.069247e+03,1.388348e+03
2.070211e+03,1.383168e+03
2.071175e+03,1.378377e+03
2.072139e+03,1.374667e+03
2.073104e+03,1.373923e+03
2.074068e+03,1.376152e+03
2.075032e+03,1.375307e+03
2.075996e+03,1.372329e+03
2.076960e+03,1.375377e+03
2.077925e+03,1.385601e+03
2.078889e+03,1.388160e+03
2.079853e+03,1.382195e+03
2.080817e+03,1.374468e+03
2.081782e+03,1.366043e+03
2.082746e+03,1.361021e+03
2.083710e+03,1.365468e+03
2.084674e+03,1.361700e+03
2.085639e+03,1.349584e+03
2.086603e+03,1.343113e+03
2.087567e+03,1.351259e+03
2.088531e+03,1.359114e+03
2.089496e+03,1.364331e+03
2.090460e+03,1.365251e+03
2.091424e+03,1.362110e+03
2.092388e+03,1.360395e+03
2.093353e+03,1.365360e+03
2.094317e+03,1.366484e+03
2.095281e+03,1.357771e+03
2.096245e+03,1.349518e+03
2.097209e+03,1.356789e+03
2.098174e+03,1.361534e+03
2.099138e+03,1.355827e+03
2.100102e+03,1.347347e+03
2.101066e+03,1.342266e+03
2.102031e+03,1.340222e+03
2.102995e+03,1.345203e+03
2.103959e+03,1.348367e+03
2.104923e+03,1.337913e+03
2.105887e+03,1.326616e+03
2.106852e+03,1.336883e+03
2.107816e+03,1.353068e+03
2.108780e+03,1.361382e+03
2.109744e+03,1.360673e+03
2.110708e+03,1.341783e+03
2.111673e+03,1.318658e+03
2.112637e+03,1.312509e+03
2.113601e+03,1.316350e+03
2.114565e+03,1.317282e+03
2.115530e+03,1.315648e+03
2.116494e+03,1.309504e+03
2.117458e+03,1.303495e+03
2.118422e+03,1.307609e+03
2.119387e+03,1.318430e+03
2.120351e+03,1.322760e+03
2.121315e+03,1.321365e+03
2.122279e+03,1.321770e+03
2.123244e+03,1.324468e+03
2.124208e+03,1.322707e+03
2.125172e+03,1.318479e+03
2.126136e+03,1.317787e+03
2.127101e+03,1.322754e+03
2.128065e+03,1.319631e+03
2.129029e+03,1.309250e+03
2.129993e+03,1.299072e+03
2.130958e+03,1.289369e+03
2.131922e+03,1.289388e+03
2.132886e+03,1.300737e+03
2.133850e+03,1.303885e+03
2.134814e+03,1.298430e+03
2.135779e+03,1.294856e+03
2.136743e+03,1.295598e+03
2.137707e+03,1.299425e+03
2.138671e+03,1.306355e+03
2.139636e+03,1.308482e+03
2.140600e+03,1.298157e+03
2.141564e+03,1.290585e+03
2.142528e+03,1.287110e+03
2.143493e+03,1.284143e+03
2.144457e+03,1.278881e+03
2.145421e+03,1.277251e+03
2.146385e+03,1.282396e+03
2.147350e+03,1.284433e+03
2.148314e+03,1.280944e+03
2.149278e+03,1.279171e+03
2.150242e+03,1.283547e+03
2.151207e+03,1.286921e+03
2.152171e+03,1.287834e+03
2.153135e+03,1.287109e+03
2.154099e+03,1.288725e+03
2.155063e+03,1.286251e+03
2.156028e+03,1.278005e+03
2.156992e+03,1.270703e+03
2.157956e+03,1.268073e+03
2.158920e+03,1.265511e+03
2.159885e+03,1.260087e+03
2.160849e+03,1.256591e+03
2.161813e+03,1.258152e+03
2.162777e+03,1.260024e+03
2.163741e+03,1.259615e+03
2.164706e+03,1.256610e+03
2.165670e+03,1.251967e+03
2.166634e+03,1.246675e+03
2.167598e+03,1.235528e+03
2.168563e+03,1.231202e+03
2.169527e+03,1.238516e+03
2.170491e+03,1.249550e+03
2.171455e+03,1.263455e+03
2.172420e+03,1.270935e+03
2.173384e+03,1.263404e+03
2.174348e+03,1.252742e+03
2.175312e+03,1.245242e+03
2.176277e+03,1.241486e+03
2.177241e+03,1.247325e+03
2.178205e+03,1.251207e+03
2.179169e+03,1.245052e+03
2.180134e+03,1.237155e+03
2.181098e+03,1.237887e+03
2.182062e+03,1.241246e+03
2.183026e+03,1.242737e+03
2.183990e+03,1.241603e+03
2.184955e+03,1.230592e+03
2.185919e+03,1.224900e+03
2.186883e+03,1.241359e+03
2.187847e+03,1.259042e+03
2.188812e+03,1.247912e+03
2.189776e+03,1.229314e+03
2.190740e+03,1.224717e+03
2.191704e+03,1.226261e+03
2.192668e+03,1.230769e+03
2.193633e+03,1.234710e+03
2.194597e+03,1.230881e+03
2.195561e+03,1.225568e+03
2.196525e+03,1.223660e+03
2.197490e+03,1.223725e+03
2.198454e+03,1.226562e+03
2.199418e+03,1.226155e+03
2.200382e+03,1.216170e+03
2.201347e+03,1.204367e+03
2.202311e+03,1.202447e+03
2.203275e+03,1.205501e+03
2.204239e+03,1.209588e+03
2.205204e+03,1.211418e+03
2.206168e+03,1.207573e+03
2.207132e+03,1.201699e+03
2.208096e+03,1.194382e+03
2.209061e+03,1.189498e+03
2.210025e+03,1.195765e+03
2.210989e+03,1.204943e+03
2.211953e+03,1.203352e+03
2.212917e+03,1.200281e+03
2.213882e+03,1.201613e+03
2.214846e+03,1.204556e+03
2.215810e+03,1.207533e+03
2.216774e+03,1.207373e+03
2.217739e+03,1.203490e+03
2.218703e+03,1.198286e+03
2.219667e+03,1.195421e+03
2.220631e+03,1.192750e+03
2.221595e+03,1.186555e+03
2.222560e+03,1.180320e+03
2.223524e+03,1.179120e+03
2.224488e+03,1.181159e+03
2.225452e+03,1.188344e+03
2.226417e+03,1.194677e+03
2.227381e+03,1.192112e+03
2.228345e+03,1.187001e+03
2.229309e+03,1.185260e+03
2.230274e+03,1.185774e+03
2.231238e+03,1.189730e+03
2.232202e+03,1.192851e+03
2.233166e+03,1.188763e+03
2.234131e+03,1.182736e+03
2.235095e+03,1.178505e+03
2.236059e+03,1.174633e+03
2.237023e+03,1.166310e+03
2.237988e+03,1.160137e+03
2.238952e+03,1.160652e+03
2.239916e+03,1.163214e+03
2.240880e+03,1.164343e+03
2.241844e+03,1.164091e+03
2.242809e+03,1.161935e+03
2.243773e+03,1.159415e+03
2.244737e+03,1.157422e+03
2.245701e+03,1.154885e+03
2.246666e+03,1.149493e+03
2.247630e+03,1.145193e+03
2.248594e+03,1.146318e+03
2.249558e+03,1.150548e+03
2.250522e+03,1.158201e+03
2.251487e+03,1.162640e+03
2.252451e+03,1.158097e+03
2.253415e+03,1.150881e+03
2.254379e+03,1.147943e+03
2.255344e+03,1.148485e+03
2.256308e+03,1.153451e+03
2.257272e+03,1.157013e+03
2.258236e+03,1.153180e+03
2.259201e+03,1.145176e+03
2.260165e+03,1.132412e+03
2.261129e+03,1.123227e+03
2.262093e+03,1.127159e+03
2.263058e+03,1.133268e+03
2.264022e+03,1.139840e+03
2.264986e+03,1.144093e+03
2.265950e+03,1.142553e+03
2.266915e+03,1.138237e+03
2.267879e+03,1.130713e+03
2.268843e+03,1.123573e+03
2.269807e+03,1.119364e+03
2.270771e+03,1.118624e+03
2.271736e+03,1.122253e+03
2.272700e+03,1.128716e+03
2.273664e+03,1.137596e+03
2.274628e+03,1.138716e+03
2.275593e+03,1.121785e+03
2.276557e+03,1.114801e+03
2.277521e+03,1.122972e+03
2.278485e+03,1.132453e+03
2.279449e+03,1.139064e+03
2.280414e+03,1.137836e+03
2.281378e+03,1.128627e+03
2.282342e+03,1.120962e+03
2.283306e+03,1.119791e+03
2.284271e+03,1.117339e+03
2.285235e+03,1.113476e+03
2.286199e+03,1.110066e+03
2.287163e+03,1.109442e+03
2.288128e+03,1.109869e+03
2.289092e+03,1.110295e+03
2.290056e+03,1.111020e+03
2.291020e+03,1.112465e+03
2.291985e+03,1.113285e+03
2.292949e+03,1.114042e+03
2.293913e+03,1.111080e+03
2.294877e+03,1.104406e+03
2.295842e+03,1.102858e+03
2.296806e+03,1.105222e+03
2.297770e+03,1.105585e+03
2.298734e+03,1.103351e+03
2.299698e+03,1.097295e+03
2.300663e+03,1.089455e+03
2.301627e+03,1.096408e+03
2.302591e+03,1.109272e+03
2.303555e+03,1.105928e+03
2.304520e+03,1.091105e+03
2.305484e+03,1.087037e+03
2.306448e+03,1.088992e+03
2.307412e+03,1.088112e+03
2.308376e+03,1.085267e+03
2.309341e+03,1.086218e+03
2.310305e+03,1.086809e+03
2.311269e+03,1.080319e+03
2.312233e+03,1.073033e+03
2.313198e+03,1.074194e+03
2.314162e+03,1.078962e+03
2.315126e+03,1.084261e+03
2.316090e+03,1.087625e+03
2.317055e+03,1.085933e+03
2.318019e+03,1.082612e+03
2.318983e+03,1.079232e+03
2.319947e+03,1.076367e+03
2.320912e+03,1.076601e+03
2.321876e+03,1.076283e+03
2.322840e+03,1.069843e+03
2.323804e+03,1.066275e+03
2.324769e+03,1.071938e+03
2.325733e+03,1.076704e+03
2.326697e+03,1.070038e+03
2.327661e+03,1.066282e+03
2.328625e+03,1.068821e+03
2.329590e+03,1.072652e+03
2.330554e+03,1.078905e+03
2.331518e+03,1.078640e+03
2.332482e+03,1.070037e+03
2.333447e+03,1.062176e+03
2.334411e+03,1.059070e+03
2.335375e+03,1.058969e+03
2.336339e+03,1.061460e+03
2.337303e+03,1.060766e+03
2.338268e+03,1.052671e+03
2.339232e+03,1.042967e+03
2.340196e+03,1.033435e+03
2.341160e+03,1.035387e+03
2.342125e+03,1.053397e+03
2.343089e+03,1.058480e+03
2.344053e+03,1.052760e+03
2.345017e+03,1.050195e+03
2.345982e+03,1.052554e+03
2.346946e+03,1.051858e+03
2.347910e+03,1.050670e+03
2.348874e+03,1.056576e+03
2.349839e+03,1.063449e+03
2.350803e+03,1.051326e+03
2.351767e+03,1.032084e+03
2.352731e+03,1.030844e+03
2.353696e+03,1.038365e+03
2.354660e+03,1.036998e+03
2.355624e+03,1.032695e+03
2.356588e+03,1.038317e+03
2.357552e+03,1.044438e+03
2.358517e+03,1.041156e+03
2.359481e+03,1.035606e+03
2.360445e+03,1.035571e+03
2.361409e+03,1.036664e+03
2.362374e+03,1.037799e+03
2.363338e+03,1.036341e+03
2.364302e+03,1.026741e+03
2.365266e+03,1.024068e+03
2.366230e+03,1.033058e+03
2.367195e+03,1.041166e+03
2.368159e+03,1.038308e+03
2.369123e+03,1.034816e+03
2.370087e+03,1.032953e+03
2.371052e+03,1.031534e+03
2.372016e+03,1.030551e+03
2.372980e+03,1.028148e+03
2.373944e+03,1.024126e+03
2.374909e+03,1.022463e+03
2.375873e+03,1.025964e+03
2.376837e+03,1.022868e+03
2.377801e+03,1.015748e+03
2.378766e+03,1.017700e+03
2.379730e+03,1.029139e+03
2.380694e+03,1.022975e+03
2.381658e+03,1.007674e+03
2.382623e+03,1.004511e+03
2.383587e+03,1.009933e+03
2.384551e+03,1.011375e+03
2.385515e+03,1.008924e+03
2.386479e+03,1.000439e+03
2.387444e+03,9.927031e+02
2.388408e+03,9.990272e+02
2.389372e+03,1.008353e+03
2.390336e+03,1.007509e+03
2.391301e+03,1.004921e+03
2.392265e+03,1.011598e+03
2.393229e+03,1.013816e+03
2.394193e+03,1.001313e+03
2.395157e+03,9.899415e+02
2.396122e+03,9.903197e+02
2.397086e+03,9.934714e+02
2.398050e+03,9.973481e+02
2.399014e+03,9.985970e+02
2.399979e+03,9.950710e+02
2.400943e+03,9.910495e+02
2.401907e+03,9.867931e+02
2.402871e+03,9.869473e+02
2.403836e+03,9.930113e+02
2.404800e+03,9.963332e+02
2.405764e+03,9.961788e+02
2.406728e+03,9.976406e+02
2.407693e+03,9.995306e+02
2.408657e+03,9.948844e+02
2.409621e+03,9.864349e+02
2.410585e+03,9.870706e+02
2.411550e+03,9.919501e+02
2.412514e+03,9.857007e+02
2.413478e+03,9.747165e+02
2.414442e+03,9.788539e+02
2.415406e+03,9.865667e+02
2.416371e+03,9.839168e+02
2.417335e+03,9.784014e+02
2.418299e+03,9.809415e+02
2.419263e+03,9.850976e+02
2.420228e+03,9.883290e+02
2.421192e+03,9.876447e+02
2.422156e+03,9.758025e+02
2.423120e+03,9.684284e+02
2.424084e+03,9.688392e+02
2.425049e+03,9.678262e+02
2.426013e+03,9.603664e+02
2.426977e+03,9.543614e+02
2.427941e+03,9.514459e+02
2.428906e+03,9.561862e+02
2.429870e+03,9.711449e+02
2.430834e+03,9.730814e+02
2.431798e+03,9.645569e+02
2.432763e+03,9.608181e+02
2.433727e+03,9.622250e+02
2.434691e+03,9.586353e+02
2.435655e+03,9.537584e+02
2.436620e+03,9.572480e+02
2.437584e+03,9.638636e+02
2.438548e+03,9.570240e+02
2.439512e+03,9.485909e+02
2.440477e+03,9.502540e+02
2.441441e+03,9.557015e+02
2.442405e+03,9.627354e+02
2.443369e+03,9.617433e+02
2.444333e+03,9.477411e+02
2.445298e+03,9.357100e+02
2.446262e+03,9.410516e+02
2.447226e+03,9.461251e+02
2.448190e+03,9.482126e+02
2.449155e+03,9.496799e+02
2.450119e+03,9.521390e+02
2.451083e+03,9.547636e+02
2.452047e+03,9.571219e+02
2.453011e+03,9.580957e+02
2.453976e+03,9.578422e+02
2.454940e+03,9.554114e+02
2.455904e+03,9.518448e+02
2.456868e+03,9.467892e+02
2.457833e+03,9.410516e+02
2.458797e+03,9.391651e+02
2.459761e+03,9.401814e+02
2.460725e+03,9.423291e+02
2.461690e+03,9.448799e+02
2.462654e+03,9.503943e+02
2.463618e+03,9.504332e+02
2.464582e+03,9.392824e+02
2.465547e+03,9.292012e+02
2.466511e+03,9.303617e+02
2.467475e+03,9.347574e+02
2.468439e+03,9.405049e+02
2.469404e+03,9.425323e+02
2.470368e+03,9.360273e+02
2.471332e+03,9.326699e+02
2.472296e+03,9.317950e+02
2.473260e+03,9.287823e+02
2.474225e+03,9.224354e+02
2.475189e+03,9.185819e+02
2.476153e+03,9.176533e+02
2.477117e+03,9.198763e+02
2.478082e+03,9.234304e+02
2.479046e+03,9.235533e+02
2.480010e+03,9.235822e+02
2.480974e+03,9.312386e+02
2.481938e+03,9.372398e+02
2.482903e+03,9.240911e+02
2.483867e+03,9.110198e+02
2.484831e+03,9.076019e+02
2.485795e+03,9.092955e+02
2.486760e+03,9.187204e+02
2.487724e+03,9.218784e+02
2.488688e+03,9.169736e+02
2.489652e+03,9.121356e+02
2.490617e+03,9.104108e+02
2.491581e+03,9.094453e+02
2.492545e+03,9.092704e+02
2.493509e+03,9.065385e+02
2.494474e+03,9.008002e+02
2.495438e+03,9.018113e+02
2.496402e+03,9.058157e+02
2.497366e+03,9.035389e+02
2.498331e+03,8.989414e+02
2.499295e+03,9.018182e+02
2.500259e+03,9.041249e+02
2.501223e+03,8.989413e+02
2.502188e+03,8.943074e+02
2.503152e+03,9.026656e+02
2.504116e+03,9.054474e+02
2.505080e+03,8.968261e+02
2.506044e+03,8.900051e+02
2.507009e+03,8.950637e+02
2.507973e+03,8.986163e+02
2.508937e+03,9.003864e+02
2.509901e+03,8.986679e+02
2.510865e+03,8.923820e+02
2.511830e+03,8.921197e+02
2.512794e+03,8.951864e+02
2.513758e+03,8.969007e+02
2.514722e+03,8.969374e+02
2.515687e+03,8.893770e+02
2.516651e+03,8.832967e+02
2.517615e+03,8.891043e+02
2.518579e+03,8.972637e+02
2.519544e+03,8.963444e+02
2.520508e+03,8.920148e+02
2.521472e+03,8.864180e+02
2.522436e+03,8.828567e+02
2.523401e+03,8.852979e+02
2.524365e+03,8.876639e+02
2.525329e+03,8.888209e+02
2.526293e+03,8.895476e+02
2.527258e+03,8.911430e+02
2.528222e+03,8.853789e+02
2.529186e+03,8.754360e+02
2.530150e+03,8.717015e+02
2.531115e+03,8.728220e+02
2.532079e+03,8.716564e+02
2.533043e+03,8.706854e+02
2.534007e+03,8.727014e+02
2.534971e+03,8.737830e+02
2.535936e+03,8.684343e+02
2.536900e+03,8.644456e+02
2.537864e+03,8.645444e+02
2.538828e+03,8.655859e+02
2.539792e+03,8.642611e+02
2.540757e+03,8.655285e+02
2.541721e+03,8.697245e+02
2.542685e+03,8.730245e+02
2.543649e+03,8.752300e+02
2.544614e+03,8.694706e+02
2.545578e+03,8.598524e+02
2.546542e+03,8.621014e+02
2.547506e+03,8.702595e+02
2.548471e+03,8.664052e+02
2.549435e+03,8.621961e+02
2.550399e+03,8.696641e+02
2.551363e+03,8.784942e+02
2.552328e+03,8.814454e+02
2.553292e+03,8.813344e+02
2.554256e+03,8.784539e+02
2.555220e+03,8.746146e+02
2.556185e+03,8.701373e+02
2.557149e+03,8.657610e+02
2.558113e+03,8.618950e+02
2.559077e+03,8.616922e+02
2.560042e+03,8.641144e+02
2.561006e+03,8.694187e+02
2.561970e+03,8.756043e+02
2.562934e+03,8.757875e+02
2.563898e+03,8.730505e+02
2.564863e+03,8.704031e+02
2.565827e+03,8.661593e+02
2.566791e+03,8.573605e+02
2.567755e+03,8.544213e+02
2.568719e+03,8.587199e+02
2.569684e+03,8.594489e+02
2.570648e+03,8.499982e+02
2.571612e+03,8.486523e+02
2.572576e+03,8.545049e+02
2.573541e+03,8.533832e+02
2.574505e+03,8.453344e+02
2.575469e+03,8.463176e+02
2.576433e+03,8.505372e+02
2.577398e+03,8.503810e+02
2.578362e+03,8.480922e+02
2.579326e+03,8.457424e+02
2.580290e+03,8.445373e+02
2.581255e+03,8.446208e+02
2.582219e+03,8.437188e+02
2.583183e+03,8.391809e+02
2.584147e+03,8.372131e+02
2.585112e+03,8.389374e+02
2.586076e+03,8.389911e+02
2.587040e+03,8.364286e+02
2.588004e+03,8.370819e+02
2.588969e+03,8.376447e+02
2.589933e+03,8.310086e+02
2.590897e+03,8.233530e+02
2.591861e+03,8.306763e+02
2.592825e+03,8.386229e+02
2.593790e+03,8.378157e+02
2.594754e+03,8.327610e+02
2.595718e+03,8.235847e+02
2.596682e+03,8.228154e+02
2.597646e+03,8.332713e+02
2.598611e+03,8.345544e+02
2.599575e+03,8.264010e+02
2.600539e+03,8.191749e+02
2.601503e+03,8.153760e+02
2.602468e+03,8.214455e+02
2.603432e+03,8.301547e+02
2.604396e+03,8.246332e+02
2.605360e+03,8.185400e+02
2.606325e+03,8.279951e+02
2.607289e+03,8.320084e+02
2.608253e+03,8.208262e+02
2.609217e+03,8.112325e+02
2.610182e+03,8.099772e+02
2.611146e+03,8.104153e+02
2.612110e+03,8.116199e+02
2.613074e+03,8.079301e+02
2.614039e+03,8.013787e+02
2.615003e+03,8.080712e+02
2.615967e+03,8.185280e+02
2.616931e+03,8.203010e+02
2.617896e+03,8.180930e+02
2.618860e+03,8.162606e+02
2.619824e+03,8.146354e+02
2.620788e+03,8.130910e+02
2.621752e+03,8.090491e+02
2.622717e+03,8.003266e+02
2.623681e+03,7.912060e+02
2.624645e+03,7.832899e+02
2.625609e+03,7.909946e+02
2.626573e+03,8.107200e+02
2.627538e+03,8.211402e+02
2.628502e+03,8.211008e+02
2.629466e+03,8.070807e+02
2.630430e+03,7.919529e+02
2.631395e+03,7.956305e+02
2.632359e+03,7.997963e+02
2.633323e+03,7.979041e+02
2.634287e+03,7.983073e+02
2.635252e+03,8.031765e+02
2.636216e+03,8.057855e+02
2.637180e+03,8.040871e+02
2.638144e+03,8.001823e+02
2.639109e+03,7.947916e+02
2.640073e+03,7.895639e+02
2.641037e+03,7.875958e+02
2.642001e+03,7.966042e+02
2.642966e+03,7.999475e+02
2.643930e+03,7.867825e+02
2.644894e+03,7.772722e+02
2.645858e+03,7.910229e+02
2.646823e+03,7.969296e+02
2.647787e+03,7.934351e+02
2.648751e+03,7.882053e+02
2.649715e+03,7.831157e+02
2.650679e+03,7.874769e+02
2.651644e+03,7.947551e+02
2.652608e+03,7.948173e+02
2.653572e+03,7.909347e+02
2.654536e+03,7.835947e+02
2.655500e+03,7.845202e+02
2.656465e+03,8.003962e+02
2.657429e+03,8.058987e+02
2.658393e+03,7.917684e+02
2.659357e+03,7.826229e+02
2.660322e+03,7.815344e+02
2.661286e+03,7.758614e+02
2.662250e+03,7.686049e+02
2.663214e+03,7.726212e+02
2.664179e+03,7.790764e+02
2.665143e+03,7.768723e+02
2.666107e+03,7.738736e+02
2.667071e+03,7.746765e+02
2.668036e+03,7.740153e+02
2.669000e+03,7.659354e+02
2.669964e+03,7.627114e+02
2.670928e+03,7.642302e+02
2.671893e+03,7.708566e+02
2.672857e+03,7.792053e+02
2.673821e+03,7.686155e+02
2.674785e+03,7.548804e+02
2.675750e+03,7.556940e+02
2.676714e+03,7.634636e+02
2.677678e+03,7.754904e+02
2.678642e+03,7.787338e+02
2.679606e+03,7.699941e+02
2.680571e+03,7.645958e+02
2.681535e+03,7.650009e+02
2.682499e+03,7.675867e+02
2.683463e+03,7.705783e+02
2.684427e+03,7.717374e+02
2.685392e+03,7.710266e+02
2.686356e+03,7.652496e+02
2.687320e+03,7.601324e+02
2.688284e+03,7.606512e+02
2.689249e+03,7.616980e+02
2.690213e+03,7.615892e+02
2.691177e+03,7.627471e+02
2.692141e+03,7.670665e+02
2.693106e+03,7.685371e+02
2.694070e+03,7.666999e+02
2.695034e+03,7.575449e+02
2.695998e+03,7.479277e+02
2.696963e+03,7.520030e+02
2.697927e+03,7.576898e+02
2.698891e+03,7.584959e+02
2.699855e+03,7.550889e+02
2.700820e+03,7.469264e+02
2.701784e+03,7.465313e+02
2.702748e+03,7.521668e+02
2.703712e+03,7.414572e+02
2.704677e+03,7.238898e+02
2.705641e+03,7.410001e+02
2.706605e+03,7.651924e+02
2.707569e+03,7.622322e+02
2.708533e+03,7.526338e+02
2.709498e+03,7.454449e+02
2.710462e+03,7.423256e+02
2.711426e+03,7.471713e+02
2.712390e+03,7.481288e+02
2.713354e+03,7.459280e+02
2.714319e+03,7.451099e+02
2.715283e+03,7.449939e+02
2.716247e+03,7.427912e+02
2.717211e+03,7.416684e+02
2.718176e+03,7.440284e+02
2.719140e+03,7.462953e+02
2.720104e+03,7.446346e+02
2.721068e+03,7.482686e+02
2.722033e+03,7.576205e+02
2.722997e+03,7.603822e+02
2.723961e+03,7.571973e+02
2.724925e+03,7.546141e+02
2.725890e+03,7.512891e+02
2.726854e+03,7.396146e+02
2.727818e+03,7.361550e+02
2.728782e+03,7.509320e+02
2.729747e+03,7.564815e+02
2.730711e+03,7.294957e+02
2.731675e+03,7.256760e+02
2.732639e+03,7.400596e+02
2.733604e+03,7.435364e+02
2.734568e+03,7.382902e+02
2.735532e+03,7.322800e+02
2.736496e+03,7.277391e+02
2.737460e+03,7.267416e+02
2.738425e+03,7.266332e+02
2.739389e+03,7.252910e+02
2.740353e+03,7.256739e+02
2.741317e+03,7.284728e+02
2.742281e+03,7.297267e+02
2.743246e+03,7.301974e+02
2.744210e+03,7.316176e+02
2.745174e+03,7.324078e+02
2.746138e+03,7.346420e+02
2.747103e+03,7.300204e+02
2.748067e+03,7.154661e+02
2.749031e+03,7.099634e+02
2.749995e+03,7.290925e+02
2.750960e+03,7.330563e+02
2.751924e+03,7.256819e+02
2.752888e+03,7.178164e+02
2.753852e+03,7.124742e+02
2.754817e+03,7.175569e+02
2.755781e+03,7.250167e+02
2.756745e+03,7.317907e+02
2.757709e+03,7.291932e+02
2.758674e+03,7.143067e+02
2.759638e+03,7.089303e+02
2.760602e+03,7.164299e+02
2.761566e+03,7.193602e+02
2.762531e+03,7.191915e+02
2.763495e+03,7.170469e+02
2.764459e+03,7.121865e+02
2.765423e+03,6.988826e+02
2.766387e+03,6.954266e+02
2.767352e+03,7.053610e+02
2.768316e+03,7.084543e+02
2.769280e+03,7.006051e+02
2.770244e+03,7.015875e+02
2.771208e+03,7.077641e+02
2.772173e+03,7.095278e+02
2.773137e+03,7.089835e+02
2.774101e+03,7.104334e+02
2.775065e+03,7.087097e+02
2.776030e+03,6.996844e+02
2.776994e+03,6.942501e+02
2.777958e+03,6.926466e+02
2.778922e+03,6.952014e+02
2.779887e+03,7.011500e+02
2.780851e+03,7.114244e+02
2.781815e+03,7.195202e+02
2.782779e+03,7.230275e+02
2.783744e+03,7.203983e+02
2.784708e+03,7.076414e+02
2.785672e+03,6.954775e+02
2.786636e+03,6.864724e+02
2.787601e+03,6.887072e+02
2.788565e+03,6.990723e+02
2.789529e+03,7.148082e+02
2.790493e+03,7.249018e+02
2.791458e+03,7.132308e+02
2.792422e+03,7.034915e+02
2.793386e+03,7.018865e+02
2.794350e+03,6.978246e+02
2.795314e+03,6.883895e+02
2.796279e+03,6.898258e+02
2.797243e+03,6.964991e+02
2.798207e+03,7.018287e+02
2.799171e+03,7.031381e+02
2.800135e+03,6.928602e+02
2.801100e+03,6.823047e+02
2.802064e+03,6.741408e+02
2.803028e+03,6.768930e+02
2.803992e+03,6.880775e+02
2.804957e+03,6.998545e+02
2.805921e+03,7.094970e+02
2.806885e+03,7.161787e+02
2.807849e+03,7.098993e+02
2.808814e+03,6.865970e+02
2.809778e+03,6.706395e+02
2.810742e+03,6.755793e+02
2.811706e+03,6.834392e+02
2.812671e+03,6.903215e+02
2.813635e+03,6.855759e+02
2.814599e+03,6.788369e+02
2.815563e+03,6.958100e+02
2.816528e+03,7.080586e+02
2.817492e+03,6.998044e+02
2.818456e+03,6.932715e+02
2.819420e+03,6.905397e+02
2.820385e+03,6.818704e+02
2.821349e+03,6.711760e+02
2.822313e+03,6.758357e+02
2.823277e+03,6.845964e+02
2.824241e+03,6.877858e+02
2.825206e+03,6.875775e+02
2.826170e+03,6.846954e+02
2.827134e+03,6.878027e+02
2.828098e+03,6.949884e+02
2.829063e+03,6.882997e+02
2.830027e+03,6.760550e+02
2.830991e+03,6.788400e+02
2.831955e+03,6.846647e+02
2.832919e+03,6.812853e+02
2.833884e+03,6.821921e+02
2.834848e+03,6.886489e+02
2.835812e+03,6.962451e+02
2.836776e+03,7.026925e+02
2.837741e+03,6.911020e+02
2.838705e+03,6.738594e+02
2.839669e+03,6.628672e+02
2.840633e+03,6.600475e+02
2.841598e+03,6.669177e+02
2.842562e+03,6.721218e+02
2.843526e+03,6.731373e+02
2.844490e+03,6.655854e+02
2.845455e+03,6.567729e+02
2.846419e+03,6.618683e+02
2.847383e+03,6.713044e+02
2.848347e+03,6.769297e+02
2.849312e+03,6.791884e+02
2.850276e+03,6.780663e+02
2.851240e+03,6.746927e+02
2.852204e+03,6.696683e+02
2.853168e+03,6.654310e+02
2.854133e+03,6.640792e+02
2.855097e+03,6.721152e+02
2.856061e+03,6.767383e+02
2.857025e+03,6.733550e+02
2.857990e+03,6.703293e+02
2.858954e+03,6.703499e+02
2.859918e+03,6.770844e+02
2.860882e+03,6.856498e+02
2.861846e+03,6.890732e+02
2.862811e+03,6.870839e+02
2.863775e+03,6.779738e+02
2.864739e+03,6.667950e+02
2.865703e+03,6.546271e+02
2.866668e+03,6.555697e+02
2.867632e+03,6.637936e+02
2.868596e+03,6.610318e+02
2.869560e+03,6.574907e+02
2.870525e+03,6.732608e+02
2.871489e+03,6.777711e+02
2.872453e+03,6.634942e+02
2.873417e+03,6.667048e+02
2.874382e+03,6.851664e+02
2.875346e+03,6.717620e+02
2.876310e+03,6.529561e+02
2.877274e+03,6.752553e+02
2.878239e+03,6.908272e+02
2.879203e+03,6.814210e+02
2.880167e+03,6.751531e+02
2.881131e+03,6.815438e+02
2.882095e+03,6.746686e+02
2.883060e+03,6.639210e+02
2.884024e+03,6.632496e+02
2.884988e+03,6.683046e+02
2.885952e+03,6.775442e+02
2.886917e+03,6.788052e+02
2.887881e+03,6.693141e+02
2.888845e+03,6.734572e+02
2.889809e+03,6.844750e+02
2.890773e+03,6.850890e+02
2.891738e+03,6.796793e+02
2.892702e+03,6.694646e+02
2.893666e+03,6.670821e+02
2.894630e+03,6.740977e+02
2.895595e+03,6.737781e+02
2.896559e+03,6.678889e+02
2.897523e+03,6.731058e+02
2.898487e+03,6.806720e+02
2.899452e+03,6.803260e+02
2.900416e+03,6.809410e+02
2.901380e+03,6.841357e+02
2.902344e+03,6.780038e+02
2.903309e+03,6.631005e+02
2.904273e+03,6.636364e+02
2.905237e+03,6.669835e+02
2.906201e+03,6.565470e+02
2.907166e+03,6.555565e+02
2.908130e+03,6.741417e+02
2.909094e+03,6.816516e+02
2.910058e+03,6.728009e+02
2.911022e+03,6.617349e+02
2.911987e+03,6.525158e+02
2.912951e+03,6.480277e+02
2.913915e+03,6.486346e+02
2.914879e+03,6.562144e+02
2.915844e+03,6.648808e+02
2.916808e+03,6.718138e+02
2.917772e+03,6.621545e+02
2.918736e+03,6.496083e+02
2.919700e+03,6.568055e+02
2.920665e+03,6.641028e+02
2.921629e+03,6.563749e+02
2.922593e+03,6.510944e+02
2.923557e+03,6.494075e+02
2.924522e+03,6.511335e+02
2.925486e+03,6.520557e+02
2.926450e+03,6.372628e+02
2.927414e+03,6.286205e+02
2.928379e+03,6.386296e+02
2.929343e+03,6.469454e+02
2.930307e+03,6.505128e+02
2.931271e+03,6.466014e+02
2.932236e+03,6.406430e+02
2.933200e+03,6.399387e+02
2.934164e+03,6.410822e+02
2.935128e+03,6.419271e+02
2.936093e+03,6.458306e+02
2.937057e+03,6.514283e+02
2.938021e+03,6.400410e+02
2.938985e+03,6.239558e+02
2.939949e+03,6.205478e+02
2.940914e+03,6.262532e+02
2.941878e+03,6.386888e+02
2.942842e+03,6.460076e+02
2.943806e+03,6.455635e+02
2.944771e+03,6.440834e+02
2.945735e+03,6.452763e+02
2.946699e+03,6.593467e+02
2.947663e+03,6.611033e+02
2.948627e+03,6.431863e+02
2.949592e+03,6.289424e+02
2.950556e+03,6.241530e+02
2.951520e+03,6.315643e+02
2.952484e+03,6.403098e+02
2.953449e+03,6.385185e+02
2.954413e+03,6.410817e+02
2.955377e+03,6.549305e+02
2.956341e+03,6.692130e+02
2.957306e+03,6.772784e+02
2.958270e+03,6.534587e+02
2.959234e+03,6.275877e+02
2.960198e+03,6.259776e+02
2.961163e+03,6.248232e+02
2.962127e+03,6.100591e+02
2.963091e+03,6.147194e+02
2.964055e+03,6.302917e+02
2.965020e+03,6.222593e+02
2.965984e+03,6.112299e+02
2.966948e+03,6.116326e+02
2.967912e+03,6.141077e+02
2.968876e+03,6.161739e+02
2.969841e+03,6.082128e+02
2.970805e+03,5.994071e+02
2.971769e+03,6.105715e+02
2.972733e+03,6.188746e+02
2.973698e+03,6.061467e+02
2.974662e+03,6.002014e+02
2.975626e+03,6.089577e+02
2.976590e+03,6.202838e+02
2.977554e+03,6.262850e+02
2.978519e+03,6.150475e+02
2.979483e+03,6.066005e+02
2.980447e+03,6.174894e+02
2.981411e+03,6.142346e+02
2.982376e+03,5.965378e+02
2.983340e+03,5.985834e+02
2.984304e+03,6.065818e+02
2.985268e+03,6.056765e+02
2.986233e+03,6.097744e+02
2.987197e+03,6.321326e+02
2.988161e+03,6.221599e+02
2.989125e+03,5.933734e+02
2.990090e+03,5.971769e+02
2.991054e+03,6.093464e+02
2.992018e+03,6.104318e+02
2.992982e+03,6.043848e+02
2.993947e+03,5.908743e+02
2.994911e+03,5.932297e+02
2.995875e+03,6.059108e+02
2.996839e+03,6.190691e+02
2.997803e+03,6.238489e+02
2.998768e+03,6.154210e+02
2.999732e+03,6.041012e+02
3.000696e+03,5.935760e+02
3.001660e+03,5.917990e+02
3.002625e+03,5.945675e+02
3.003589e+03,5.972083e+02
3.004553e+03,6.038186e+02
3.005517e+03,6.179031e+02
3.006481e+03,6.103754e+02
3.007446e+03,5.879993e+02
3.008410e+03,5.880673e+02
3.009374e+03,5.972139e+02
3.010338e+03,6.071599e+02
3.011303e+03,6.086573e+02
3.012267e+03,5.977067e+02
3.013231e+03,5.977852e+02
3.014195e+03,6.027961e+02
3.015160e+03,6.013278e+02
3.016124e+03,5.998770e+02
3.017088e+03,6.006157e+02
3.018052e+03,5.949316e+02
3.019017e+03,5.831842e+02
3.019981e+03,5.829088e+02
3.020945e+03,5.907883e+02
3.021909e+03,6.067986e+02
3.022874e+03,6.059297e+02
3.023838e+03,5.876028e+02
3.024802e+03,5.898918e+02
3.025766e+03,6.023854e+02
3.026730e+03,5.889562e+02
3.027695e+03,5.744925e+02
3.028659e+03,5.702363e+02
3.029623e+03,5.670514e+02
3.030587e+03,5.634335e+02
3.031552e+03,5.591921e+02
3.032516e+03,5.598563e+02
3.033480e+03,5.795971e+02
3.034444e+03,5.942646e+02
3.035408e+03,5.996149e+02
3.036373e+03,5.975597e+02
3.037337e+03,5.911818e+02
3.038301e+03,5.854796e+02
3.039265e+03,5.808669e+02
3.040230e+03,5.771690e+02
3.041194e+03,5.721554e+02
3.042158e+03,5.690523e+02
3.043122e+03,5.812413e+02
3.044087e+03,5.957032e+02
3.045051e+03,5.930545e+02
3.046015e+03,5.882844e+02
3.046979e+03,5.853065e+02
3.047944e+03,5.817595e+02
3.048908e+03,5.774986e+02
3.049872e+03,5.705155e+02
3.050836e+03,5.686302e+02
3.051801e+03,5.781627e+02
3.052765e+03,5.855719e+02
3.053729e+03,5.871459e+02
3.054693e+03,5.774172e+02
3.055657e+03,5.708193e+02
3.056622e+03,5.756049e+02
3.057586e+03,5.903595e+02
3.058550e+03,6.138884e+02
3.059514e+03,6.044711e+02
3.060479e+03,5.836248e+02
3.061443e+03,5.901718e+02
3.062407e+03,5.923300e+02
3.063371e+03,5.817864e+02
3.064335e+03,5.707386e+02
3.065300e+03,5.643020e+02
3.066264e+03,5.825763e+02
3.067228e+03,5.971822e+02
3.068192e+03,5.864337e+02
3.069157e+03,5.888181e+02
3.070121e+03,6.020396e+02
3.071085e+03,5.958109e+02
3.072049e+03,5.811693e+02
3.073014e+03,5.685616e+02
3.073978e+03,5.718293e+02
3.074942e+03,5.926003e+02
3.075906e+03,5.803217e+02
3.076871e+03,5.580693e+02
3.077835e+03,5.627625e+02
3.078799e+03,5.785380e+02
3.079763e+03,6.008661e+02
3.080728e+03,5.962288e+02
3.081692e+03,5.728303e+02
3.082656e+03,5.643781e+02
3.083620e+03,5.698336e+02
3.084584e+03,5.867012e+02
3.085549e+03,5.997722e+02
3.086513e+03,6.055275e+02
3.087477e+03,5.904552e+02
3.088441e+03,5.753061e+02
3.089406e+03,5.854144e+02
3.090370e+03,5.977454e+02
3.091334e+03,6.057365e+02
3.092298e+03,5.926993e+02
3.093262e+03,5.726315e+02
3.094227e+03,5.762474e+02
3.095191e+03,5.738282e+02
3.096155e+03,5.543572e+02
3.097119e+03,5.586737e+02
3.098084e+03,5.798305e+02
3.099048e+03,6.026475e+02
3.100012e+03,6.105391e+02
3.100976e+03,5.856093e+02
3.101941e+03,5.703103e+02
3.102905e+03,5.650065e+02
3.103869e+03,5.377335e+02
3.104833e+03,5.250221e+02
3.105798e+03,5.487776e+02
3.106762e+03,5.544919e+02
3.107726e+03,5.343205e+02
3.108690e+03,5.559124e+02
3.109655e+03,5.837626e+02
3.110619e+03,5.681736e+02
3.111583e+03,5.585717e+02
3.112547e+03,5.632541e+02
3.113511e+03,5.732916e+02
3.114476e+03,5.848881e+02
3.115440e+03,5.984171e+02
3.116404e+03,5.992587e+02
3.117368e+03,5.777717e+02
3.118333e+03,5.854695e+02
3.119297e+03,6.014502e+02
3.120261e+03,5.879301e+02
3.121225e+03,5.745295e+02
3.122189e+03,5.779587e+02
3.123154e+03,5.722520e+02
3.124118e+03,5.606623e+02
3.125082e+03,5.716697e+02
3.126046e+03,5.838138e+02
3.127011e+03,5.864604e+02
3.127975e+03,5.680759e+02
3.128939e+03,5.406255e+02
3.129903e+03,5.628848e+02
3.130868e+03,5.924443e+02
3.131832e+03,5.922006e+02
3.132796e+03,5.904808e+02
3.133760e+03,5.896332e+02
3.134725e+03,5.845230e+02
3.135689e+03,5.839775e+02
3.136653e+03,5.967021e+02
3.137617e+03,6.072854e+02
3.138582e+03,6.112834e+02
3.139546e+03,5.905286e+02
3.140510e+03,5.710245e+02
3.141474e+03,5.872540e+02
3.142438e+03,5.808720e+02
3.143403e+03,5.485745e+02
3.144367e+03,5.470371e+02
3.145331e+03,5.598284e+02
3.146295e+03,5.558531e+02
3.147260e+03,5.612209e+02
3.148224e+03,5.814860e+02
3.149188e+03,5.999988e+02
3.150152e+03,5.995155e+02
3.151116e+03,5.563992e+02
3.152081e+03,5.355665e+02
3.153045e+03,5.639091e+02
3.154009e+03,5.891284e+02
3.154973e+03,6.021743e+02
3.155938e+03,5.859578e+02
3.156902e+03,5.695519e+02
3.157866e+03,5.618698e+02
3.158830e+03,5.732392e+02
3.159795e+03,5.952468e+02
3.160759e+03,6.108953e+02
3.161723e+03,6.149352e+02
3.162687e+03,5.971347e+02
3.163652e+03,5.834773e+02
3.164616e+03,5.768156e+02
3.165580e+03,5.788226e+02
3.166544e+03,5.841217e+02
3.167509e+03,5.901092e+02
3.168473e+03,5.862734e+02
3.169437e+03,5.755292e+02
3.170401e+03,5.653073e+02
3.171365e+03,5.600696e+02
3.172330e+03,5.624830e+02
3.173294e+03,5.818947e+02
3.174258e+03,6.027485e+02
3.175222e+03,5.932952e+02
3.176187e+03,5.816945e+02
3.177151e+03,5.877308e+02
3.178115e+03,5.792839e+02
3.179079e+03,5.650164e+02
3.180043e+03,5.788681e+02
3.181008e+03,5.956395e+02
3.181972e+03,6.052533e+02
3.182936e+03,5.828778e+02
3.183900e+03,5.477082e+02
3.184865e+03,5.648130e+02
3.185829e+03,5.827460e+02
3.186793e+03,5.683778e+02
3.187757e+03,5.678206e+02
3.188722e+03,5.744032e+02
3.189686e+03,5.693553e+02
3.190650e+03,5.743719e+02
3.191614e+03,5.951631e+02
3.192579e+03,5.886100e+02
3.193543e+03,5.621484e+02
3.194507e+03,5.342903e+02
3.195471e+03,5.370718e+02
3.196436e+03,5.881273e+02
3.197400e+03,6.006491e+02
3.198364e+03,5.899319e+02
3.199328e+03,5.892955e+02
3.200292e+03,6.031788e+02
3.201257e+03,0.000000e+00
3.202221e+03,0.000000e+00
3.203185e+03,0.000000e+00
3.204149e+03,0.000000e+00
3.205114e+03,0.000000e+00
3.206078e+03,0.000000e+00
3.207042e+03,0.000000e+00
3.208006e+03,0.000000e+00
3.208970e+03,0.000000e+00
3.209935e+03,0.000000e+00
3.210899e+03,0.000000e+00
3.211863e+03,0.000000e+00
3.212827e+03,0.000000e+00
3.213792e+03,0.000000e+00
3.214756e+03,0.000000e+00
3.215720e+03,0.000000e+00
3.216684e+03,0.000000e+00
3.217649e+03,0.000000e+00
3.218613e+03,0.000000e+00
3.219577e+03,0.000000e+00
3.220541e+03,0.000000e+00
3.221506e+03,0.000000e+00
3.222470e+03,0.000000e+00
3.223434e+03,0.000000e+00
3.224398e+03,0.000000e+00
3.225363e+03,0.000000e+00
3.226327e+03,0.000000e+00
3.227291e+03,0.000000e+00
3.228255e+03,0.000000e+00
3.229219e+03,0.000000e+00
3.230184e+03,0.000000e+00
3.231148e+03,0.000000e+00
3.232112e+03,0.000000e+00
3.233076e+03,0.000000e+00
3.234041e+03,0.000000e+00
3.235005e+03,0.000000e+00
3.235969e+03,0.000000e+00
3.236933e+03,0.000000e+00
3.237897e+03,0.000000e+00
3.238862e+03,0.000000e+00
3.239826e+03,0.000000e+00
3.240790e+03,0.000000e+00
3.241754e+03,0.000000e+00
3.242719e+03,0.000000e+00
3.243683e+03,0.000000e+00
3.244647e+03,0.000000e+00
3.245611e+03,0.000000e+00
3.246576e+03,0.000000e+00
3.247540e+03,0.000000e+00
3.248504e+03,0.000000e+00
3.249468e+03,0.000000e+00
3.250433e+03,0.000000e+00
3.251397e+03,0.000000e+00
3.252361e+03,0.000000e+00
3.253325e+03,0.000000e+00
3.254290e+03,0.000000e+00
3.255254e+03,0.000000e+00
3.256218e+03,0.000000e+00
3.257182e+03,0.000000e+00
3.258146e+03,0.000000e+00
3.259111e+03,0.000000e+00
3.260075e+03,0.000000e+00
3.261039e+03,0.000000e+00
3.262003e+03,0.000000e+00
3.262968e+03,0.000000e+00
3.263932e+03,0.000000e+00
3.264896e+03,0.000000e+00
3.265860e+03,0.000000e+00
3.266824e+03,0.000000e+00
3.267789e+03,0.000000e+00
3.268753e+03,0.000000e+00
3.269717e+03,0.000000e+00
3.270681e+03,0.000000e+00
3.271646e+03,0.000000e+00
3.272610e+03,0.000000e+00
3.273574e+03,0.000000e+00
3.274538e+03,0.000000e+00
3.275503e+03,0.000000e+00
3.276467e+03,0.000000e+00
3.277431e+03,0.000000e+00
3.278395e+03,0.000000e+00
3.279360e+03,0.000000e+00
3.280324e+03,0.000000e+00
3.281288e+03,0.000000e+00
3.282252e+03,0.000000e+00
3.283217e+03,0.000000e+00
3.284181e+03,0.000000e+00
3.285145e+03,0.000000e+00
3.286109e+03,0.000000e+00
3.287073e+03,0.000000e+00
3.288038e+03,0.000000e+00
3.289002e+03,0.000000e+00
3.289966e+03,0.000000e+00
3.290930e+03,0.000000e+00
3.291895e+03,0.000000e+00
3.292859e+03,0.000000e+00
3.293823e+03,0.000000e+00
3.294787e+03,0.000000e+00
3.295751e+03,0.000000e+00
3.296716e+03,0.000000e+00
3.297680e+03,0.000000e+00
3.298644e+03,0.000000e+00
3.299608e+03,0.000000e+00
3.300573e+03,0.000000e+00
3.301537e+03,0.000000e+00
3.302501e+03,0.000000e+00
3.303465e+03,0.000000e+00
3.304430e+03,0.000000e+00
3.305394e+03,0.000000e+00
3.306358e+03,0.000000e+00
3.307322e+03,0.000000e+00
3.308287e+03,0.000000e+00
3.309251e+03,0.000000e+00
3.310215e+03,0.000000e+00
3.311179e+03,0.000000e+00
3.312144e+03,0.000000e+00
3.313108e+03,0.000000e+00
3.314072e+03,0.000000e+00
3.315036e+03,0.000000e+00
3.316000e+03,0.000000e+00
3.316965e+03,0.000000e+00
3.317929e+03,0.000000e+00
3.318893e+03,0.000000e+00
3.319857e+03,0.000000e+00
3.320822e+03,0.000000e+00
3.321786e+03,0.000000e+00
3.322750e+03,0.000000e+00
3.323714e+03,0.000000e+00
3.324678e+03,0.000000e+00
3.325643e+03,0.000000e+00
3.326607e+03,0.000000e+00
3.327571e+03,0.000000e+00
3.328535e+03,0.000000e+00
3.329500e+03,0.000000e+00
3.330464e+03,0.000000e+00
3.331428e+03,0.000000e+00
3.332392e+03,0.000000e+00
3.333357e+03,0.000000e+00
3.334321e+03,0.000000e+00
3.335285e+03,0.000000e+00
3.336249e+03,0.000000e+00
3.337214e+03,0.000000e+00
3.338178e+03,0.000000e+00
3.339142e+03,0.000000e+00
3.340106e+03,0.000000e+00
3.341071e+03,0.000000e+00
3.342035e+03,0.000000e+00
3.342999e+03,0.000000e+00
3.343963e+03,0.000000e+00
3.344927e+03,0.000000e+00
3.345892e+03,0.000000e+00
3.346856e+03,0.000000e+00
3.347820e+03,0.000000e+00
3.348784e+03,0.000000e+00
3.349749e+03,0.000000e+00
3.350713e+03,0.000000e+00
3.351677e+03,0.000000e+00
3.352641e+03,0.000000e+00
3.353605e+03,0.000000e+00
3.354570e+03,0.000000e+00
3.355534e+03,0.000000e+00
3.356498e+03,0.000000e+00
3.357462e+03,0.000000e+00
3.358427e+03,0.000000e+00
3.359391e+03,0.000000e+00
3.360355e+03,0.000000e+00
3.361319e+03,0.000000e+00
3.362284e+03,0.000000e+00
3.363248e+03,0.000000e+00
3.364212e+03,0.000000e+00
3.365176e+03,0.000000e+00
3.366141e+03,0.000000e+00
3.367105e+03,0.000000e+00
3.368069e+03,0.000000e+00
3.369033e+03,0.000000e+00
3.369998e+03,0.000000e+00
3.370962e+03,0.000000e+00
3.371926e+03,0.000000e+00
3.372890e+03,0.000000e+00
3.373854e+03,0.000000e+00
3.374819e+03,0.000000e+00
3.375783e+03,0.000000e+00
3.376747e+03,0.000000e+00
3.377711e+03,0.000000e+00
3.378676e+03,0.000000e+00
3.379640e+03,0.000000e+00
3.380604e+03,0.000000e+00
3.381568e+03,0.000000e+00
3.382532e+03,0.000000e+00
3.383497e+03,0.000000e+00
3.384461e+03,0.000000e+00
3.385425e+03,0.000000e+00
3.386389e+03,0.000000e+00
3.387354e+03,0.000000e+00
3.388318e+03,0.000000e+00
3.389282e+03,0.000000e+00
3.390246e+03,0.000000e+00
3.391211e+03,0.000000e+00
3.392175e+03,0.000000e+00
3.393139e+03,0.000000e+00
3.394103e+03,0.000000e+00
3.395068e+03,0.000000e+00
3.396032e+03,0.000000e+00
3.396996e+03,0.000000e+00
3.397960e+03,0.000000e+00
3.398925e+03,0.000000e+00
3.399889e+03,0.000000e+00
3.400853e+03,0.000000e+00
3.401817e+03,0.000000e+00
3.402781e+03,0.000000e+00
3.403746e+03,0.000000e+00
3.404710e+03,0.000000e+00
3.405674e+03,0.000000e+00
3.406638e+03,0.000000e+00
3.407603e+03,0.000000e+00
3.408567e+03,0.000000e+00
3.409531e+03,0.000000e+00
3.410495e+03,0.000000e+00
3.411459e+03,0.000000e+00
3.412424e+03,0.000000e+00
3.413388e+03,0.000000e+00
3.414352e+03,0.000000e+00
3.415316e+03,0.000000e+00
3.416281e+03,0.000000e+00
3.417245e+03,0.000000e+00
3.418209e+03,0.000000e+00
3.419173e+03,0.000000e+00
3.420138e+03,0.000000e+00
3.421102e+03,0.000000e+00
3.422066e+03,0.000000e+00
3.423030e+03,0.000000e+00
3.423995e+03,0.000000e+00
3.424959e+03,0.000000e+00
3.425923e+03,0.000000e+00
3.426887e+03,0.000000e+00
3.427852e+03,0.000000e+00
3.428816e+03,0.000000e+00
3.429780e+03,0.000000e+00
3.430744e+03,0.000000e+00
3.431708e+03,0.000000e+00
3.432673e+03,0.000000e+00
3.433637e+03,0.000000e+00
3.434601e+03,0.000000e+00
3.435565e+03,0.000000e+00
3.436530e+03,0.000000e+00
3.437494e+03,0.000000e+00
3.438458e+03,0.000000e+00
3.439422e+03,0.000000e+00
3.440386e+03,0.000000e+00
3.441351e+03,0.000000e+00
3.442315e+03,0.000000e+00
3.443279e+03,0.000000e+00
3.444243e+03,0.000000e+00
3.445208e+03,0.000000e+00
3.446172e+03,0.000000e+00
3.447136e+03,0.000000e+00
3.448100e+03,0.000000e+00
3.449065e+03,0.000000e+00
3.450029e+03,0.000000e+00
3.450993e+03,0.000000e+00
3.451957e+03,0.000000e+00
3.452922e+03,0.000000e+00
3.453886e+03,0.000000e+00
3.454850e+03,0.000000e+00
3.455814e+03,0.000000e+00
3.456779e+03,0.000000e+00
3.457743e+03,0.000000e+00
3.458707e+03,0.000000e+00
3.459671e+03,0.000000e+00
3.460635e+03,0.000000e+00
3.461600e+03,0.000000e+00
3.462564e+03,0.000000e+00
3.463528e+03,0.000000e+00
3.464492e+03,0.000000e+00
3.465457e+03,0.000000e+00
3.466421e+03,0.000000e+00
3.467385e+03,0.000000e+00
3.468349e+03,0.000000e+00
3.469313e+03,0.000000e+00
3.470278e+03,0.000000e+00
3.471242e+03,0.000000e+00
3.472206e+03,0.000000e+00
3.473170e+03,0.000000e+00
3.474135e+03,0.000000e+00
3.475099e+03,0.000000e+00
3.476063e+03,0.000000e+00
3.477027e+03,0.000000e+00
3.477992e+03,0.000000e+00
3.478956e+03,0.000000e+00
3.479920e+03,0.000000e+00
3.480884e+03,0.000000e+00
3.481849e+03,0.000000e+00
3.482813e+03,0.000000e+00
3.483777e+03,0.000000e+00
3.484741e+03,0.000000e+00
3.485706e+03,0.000000e+00
3.486670e+03,0.000000e+00
3.487634e+03,0.000000e+00
3.488598e+03,0.000000e+00
3.489563e+03,0.000000e+00
3.490527e+03,0.000000e+00
3.491491e+03,0.000000e+00
3.492455e+03,0.000000e+00
3.493419e+03,0.000000e+00
3.494384e+03,0.000000e+00
3.495348e+03,0.000000e+00
3.496312e+03,0.000000e+00
3.497276e+03,0.000000e+00
3.498240e+03,0.000000e+00
3.499205e+03,0.000000e+00
3.500169e+03,0.000000e+00
