9.931763e+01,0.000000e+00
1.002819e+02,0.000000e+00
1.012461e+02,0.000000e+00
1.022103e+02,0.000000e+00
1.031746e+02,0.000000e+00
1.041388e+02,0.000000e+00
1.051030e+02,0.000000e+00
1.060673e+02,0.000000e+00
1.070315e+02,0.000000e+00
1.079957e+02,0.000000e+00
1.089600e+02,0.000000e+00
1.099242e+02,0.000000e+00
1.108884e+02,0.000000e+00
1.118527e+02,0.000000e+00
1.128169e+02,0.000000e+00
1.137811e+02,0.000000e+00
1.147454e+02,0.000000e+00
1.157096e+02,0.000000e+00
1.166738e+02,0.000000e+00
1.176381e+02,0.000000e+00
1.186023e+02,0.000000e+00
1.195665e+02,0.000000e+00
1.205308e+02,0.000000e+00
1.214950e+02,0.000000e+00
1.224592e+02,0.000000e+00
1.234235e+02,0.000000e+00
1.243877e+02,0.000000e+00
1.253519e+02,0.000000e+00
1.263162e+02,0.000000e+00
1.272804e+02,0.000000e+00
1.282446e+02,0.000000e+00
1.292089e+02,0.000000e+00
1.301731e+02,0.000000e+00
1.311373e+02,0.000000e+00
1.321016e+02,0.000000e+00
1.330658e+02,0.000000e+00
1.340300e+02,0.000000e+00
1.349943e+02,0.000000e+00
1.359585e+02,0.000000e+00
1.369227e+02,0.000000e+00
1.378870e+02,0.000000e+00
1.388512e+02,0.000000e+00
1.398154e+02,0.000000e+00
1.407797e+02,0.000000e+00
1.417439e+02,0.000000e+00
1.427081e+02,0.000000e+00
1.436724e+02,0.000000e+00
1.446366e+02,0.000000e+00
1.456008e+02,0.000000e+00
1.465651e+02,0.000000e+00
1.475293e+02,0.000000e+00
1.484935e+02,0.000000e+00
1.494578e+02,0.000000e+00
1.504220e+02,0.000000e+00
1.513862e+02,0.000000e+00
1.523505e+02,0.000000e+00
1.533147e+02,0.000000e+00
1.542789e+02,0.000000e+00
1.552432e+02,0.000000e+00
1.562074e+02,0.000000e+00
1.571716e+02,0.000000e+00
1.581359e+02,0.000000e+00
1.591001e+02,0.000000e+00
1.600643e+02,0.000000e+00
1.610286e+02,0.000000e+00
1.619928e+02,0.000000e+00
1.629570e+02,0.000000e+00
1.639213e+02,0.000000e+00
1.648855e+02,0.000000e+00
1.658497e+02,0.000000e+00
1.668140e+02,0.000000e+00
1.677782e+02,0.000000e+00
1.687424e+02,0.000000e+00
1.697067e+02,0.000000e+00
1.706709e+02,0.000000e+00
1.716351e+02,0.000000e+00
1.725994e+02,0.000000e+00
1.735636e+02,0.000000e+00
1.745278e+02,0.000000e+00
1.754921e+02,0.000000e+00
1.764563e+02,0.000000e+00
1.774205e+02,0.000000e+00
1.783848e+02,0.000000e+00
1.793490e+02,0.000000e+00
1.803132e+02,0.000000e+00
1.812775e+02,0.000000e+00
1.822417e+02,0.000000e+00
1.832059e+02,0.000000e+00
1.841702e+02,0.000000e+00
1.851344e+02,0.000000e+00
1.860986e+02,0.000000e+00
1.870629e+02,0.000000e+00
1.880271e+02,0.000000e+00
1.889913e+02,0.000000e+00
1.899556e+02,0.000000e+00
1.909198e+02,0.000000e+00
1.918840e+02,0.000000e+00
1.928483e+02,0.000000e+00
1.938125e+02,0.000000e+00
1.947767e+02,0.000000e+00
1.957410e+02,0.000000e+00
1.967052e+02,0.000000e+00
1.976694e+02,0.000000e+00
1.986337e+02,0.000000e+00
1.995979e+02,7.522272e+03
2.005621e+02,7.536377e+03
2.015264e+02,7.551914e+03
2.024906e+02,7.572601e+03
2.034548e+02,7.591192e+03
2.044191e+02,7.602428e+03
2.053833e+02,7.606380e+03
2.063475e+02,7.608033e+03
2.073118e+02,7.614315e+03
2.082760e+02,7.628633e+03
2.092402e+02,7.636876e+03
2.102045e+02,7.635636e+03
2.111687e+02,7.634669e+03
2.121329e+02,7.640591e+03
2.130972e+02,7.655704e+03
2.140614e+02,7.674870e+03
2.150256e+02,7.688266e+03
2.159899e+02,7.693857e+03
2.169541e+02,7.697914e+03
2.179183e+02,7.701350e+03
2.188826e+02,7.704815e+03
2.198468e+02,7.713319e+03
2.208110e+02,7.734861e+03
2.217753e+02,7.767825e+03
2.227395e+02,7.789781e+03
2.237037e+02,7.794024e+03
2.246680e+02,7.791797e+03
2.256322e+02,7.791888e+03
2.265964e+02,7.798915e+03
2.275607e+02,7.810116e+03
2.285249e+02,7.822305e+03
2.294892e+02,7.835802e+03
2.304534e+02,7.849735e+03
2.314176e+02,7.857542e+03
2.323819e+02,7.859563e+03
2.333461e+02,7.864819e+03
2.343103e+02,7.880893e+03
2.352746e+02,7.903410e+03
2.362388e+02,7.922427e+03
2.372030e+02,7.933561e+03
2.381673e+02,7.936742e+03
2.391315e+02,7.937154e+03
2.400957e+02,7.935880e+03
2.410600e+02,7.937907e+03
2.420242e+02,7.947734e+03
2.429884e+02,7.966007e+03
2.439527e+02,7.989690e+03
2.449169e+02,8.015131e+03
2.458811e+02,8.041169e+03
2.468454e+02,8.063695e+03
2.478096e+02,8.086373e+03
2.487738e+02,8.103896e+03
2.497381e+02,8.109132e+03
2.507023e+02,8.101441e+03
2.516665e+02,8.090012e+03
2.526308e+02,8.088894e+03
2.535950e+02,8.105243e+03
2.545592e+02,8.116997e+03
2.555235e+02,8.123513e+03
2.564877e+02,8.127486e+03
2.574519e+02,8.132461e+03
2.584161e+02,8.141227e+03
2.593804e+02,8.154949e+03
2.603446e+02,8.172996e+03
2.613088e+02,8.198838e+03
2.622731e+02,8.221516e+03
2.632373e+02,8.235115e+03
2.642015e+02,8.239135e+03
2.651658e+02,8.240329e+03
2.661300e+02,8.248579e+03
2.670942e+02,8.268224e+03
2.680585e+02,8.286249e+03
2.690227e+02,8.296589e+03
2.699869e+02,8.305916e+03
2.709512e+02,8.319068e+03
2.719154e+02,8.342513e+03
2.728796e+02,8.369614e+03
2.738439e+02,8.389616e+03
2.748081e+02,8.402367e+03
2.757723e+02,8.418487e+03
2.767366e+02,8.441473e+03
2.777008e+02,8.465491e+03
2.786650e+02,8.481176e+03
2.796293e+02,8.483817e+03
2.805935e+02,8.480194e+03
2.815577e+02,8.480518e+03
2.825220e+02,8.487184e+03
2.834862e+02,8.493945e+03
2.844504e+02,8.490447e+03
2.854147e+02,8.472632e+03
2.863789e+02,8.456598e+03
2.873431e+02,8.449981e+03
2.883074e+02,8.451489e+03
2.892716e+02,8.455121e+03
2.902358e+02,8.455628e+03
2.912001e+02,8.451896e+03
2.921643e+02,8.451250e+03
2.931285e+02,8.456499e+03
2.940928e+02,8.465260e+03
2.950570e+02,8.476553e+03
2.960212e+02,8.488333e+03
2.969855e+02,8.498292e+03
2.979497e+02,8.505982e+03
2.989139e+02,8.514032e+03
2.998782e+02,8.517965e+03
3.008424e+02,8.519291e+03
3.018066e+02,8.521190e+03
3.027709e+02,8.521910e+03
3.037351e+02,8.518319e+03
3.046993e+02,8.514476e+03
3.056636e+02,8.522530e+03
3.066278e+02,8.551283e+03
3.075920e+02,8.575475e+03
3.085563e+02,8.578248e+03
3.095205e+02,8.569458e+03
3.104847e+02,8.567704e+03
3.114490e+02,8.583146e+03
3.124132e+02,8.607095e+03
3.133774e+02,8.623623e+03
3.143417e+02,8.628659e+03
3.153059e+02,8.627194e+03
3.162701e+02,8.629598e+03
3.172344e+02,8.641276e+03
3.181986e+02,8.650367e+03
3.191628e+02,8.651017e+03
3.201271e+02,8.647338e+03
3.210913e+02,8.645841e+03
3.220555e+02,8.648434e+03
3.230198e+02,8.654614e+03
3.239840e+02,8.665582e+03
3.249482e+02,8.687740e+03
3.259125e+02,8.706973e+03
3.268767e+02,8.718223e+03
3.278409e+02,8.722988e+03
3.288052e+02,8.725654e+03
3.297694e+02,8.729602e+03
3.307336e+02,8.734937e+03
3.316979e+02,8.739813e+03
3.326621e+02,8.744689e+03
3.336263e+02,8.746843e+03
3.345906e+02,8.745339e+03
3.355548e+02,8.742404e+03
3.365190e+02,8.741638e+03
3.374833e+02,8.744947e+03
3.384475e+02,8.751693e+03
3.394117e+02,8.761530e+03
3.403760e+02,8.772918e+03
3.413402e+02,8.784882e+03
3.423044e+02,8.796724e+03
3.432687e+02,8.806746e+03
3.442329e+02,8.816762e+03
3.451971e+02,8.826460e+03
3.461614e+02,8.833599e+03
3.471256e+02,8.838475e+03
3.480898e+02,8.845356e+03
3.490541e+02,8.859064e+03
3.500183e+02,8.867991e+03
3.509825e+02,8.871498e+03
3.519468e+02,8.874890e+03
3.529110e+02,8.880535e+03
3.538752e+02,8.887313e+03
3.548395e+02,8.892979e+03
3.558037e+02,8.895854e+03
3.567680e+02,8.892743e+03
3.577322e+02,8.892905e+03
3.586964e+02,8.902329e+03
3.596607e+02,8.917438e+03
3.606249e+02,8.931542e+03
3.615891e+02,8.937252e+03
3.625534e+02,8.935210e+03
3.635176e+02,8.934177e+03
3.644818e+02,8.938774e+03
3.654461e+02,8.943127e+03
3.664103e+02,8.947612e+03
3.673745e+02,8.956006e+03
3.683388e+02,8.965494e+03
3.693030e+02,8.966456e+03
3.702672e+02,8.963900e+03
3.712315e+02,8.968531e+03
3.721957e+02,8.982444e+03
3.731599e+02,8.999155e+03
3.741242e+02,9.011973e+03
3.750884e+02,9.027404e+03
3.760526e+02,9.040312e+03
3.770169e+02,9.048881e+03
3.779811e+02,9.052941e+03
3.789453e+02,9.050350e+03
3.799096e+02,9.038144e+03
3.808738e+02,9.020048e+03
3.818380e+02,9.013702e+03
3.828023e+02,9.034233e+03
3.837665e+02,9.055124e+03
3.847307e+02,9.065950e+03
3.856950e+02,9.069591e+03
3.866592e+02,9.072872e+03
3.876234e+02,9.077925e+03
3.885877e+02,9.084662e+03
3.895519e+02,9.095020e+03
3.905161e+02,9.111140e+03
3.914804e+02,9.123984e+03
3.924446e+02,9.121741e+03
3.934088e+02,9.102047e+03
3.943731e+02,9.088970e+03
3.953373e+02,9.094188e+03
3.963015e+02,9.107799e+03
3.972658e+02,9.115544e+03
3.982300e+02,9.113119e+03
3.991942e+02,9.107061e+03
4.001585e+02,9.107975e+03
4.011227e+02,9.114425e+03
4.020869e+02,9.123387e+03
4.030512e+02,9.134081e+03
4.040154e+02,9.143351e+03
4.049796e+02,9.149350e+03
4.059439e+02,9.148637e+03
4.069081e+02,9.143760e+03
4.078723e+02,9.145855e+03
4.088366e+02,9.156616e+03
4.098008e+02,9.164525e+03
4.107650e+02,9.165770e+03
4.117293e+02,9.162024e+03
4.126935e+02,9.160058e+03
4.136577e+02,9.161431e+03
4.146220e+02,9.165848e+03
4.155862e+02,9.174544e+03
4.165504e+02,9.188571e+03
4.175147e+02,9.204188e+03
4.184789e+02,9.214875e+03
4.194431e+02,9.215386e+03
4.204074e+02,9.216113e+03
4.213716e+02,9.216141e+03
4.223358e+02,9.216552e+03
4.233001e+02,9.219572e+03
4.242643e+02,9.227859e+03
4.252285e+02,9.238126e+03
4.261928e+02,9.240755e+03
4.271570e+02,9.233569e+03
4.281212e+02,9.225688e+03
4.290855e+02,9.215485e+03
4.300497e+02,9.205000e+03
4.310139e+02,9.201401e+03
4.319782e+02,9.213595e+03
4.329424e+02,9.232955e+03
4.339066e+02,9.248233e+03
4.348709e+02,9.257388e+03
4.358351e+02,9.264013e+03
4.367993e+02,9.272684e+03
4.377636e+02,9.287856e+03
4.387278e+02,9.294136e+03
4.396920e+02,9.286538e+03
4.406563e+02,9.276157e+03
4.416205e+02,9.268822e+03
4.425847e+02,9.265628e+03
4.435490e+02,9.265545e+03
4.445132e+02,9.269478e+03
4.454774e+02,9.280038e+03
4.464417e+02,9.288915e+03
4.474059e+02,9.289938e+03
4.483701e+02,9.286651e+03
4.493344e+02,9.285337e+03
4.502986e+02,9.289837e+03
4.512628e+02,9.297347e+03
4.522271e+02,9.309271e+03
4.531913e+02,9.323681e+03
4.541555e+02,9.330975e+03
4.551198e+02,9.322935e+03
4.560840e+02,9.299941e+03
4.570482e+02,9.285997e+03
4.580125e+02,9.294075e+03
4.589767e+02,9.306421e+03
4.599409e+02,9.313685e+03
4.609052e+02,9.313881e+03
4.618694e+02,9.311532e+03
4.628336e+02,9.311209e+03
4.637979e+02,9.313401e+03
4.647621e+02,9.317638e+03
4.657263e+02,9.329046e+03
4.666906e+02,9.342522e+03
4.676548e+02,9.347785e+03
4.686190e+02,9.340294e+03
4.695833e+02,9.334808e+03
4.705475e+02,9.335933e+03
4.715117e+02,9.340522e+03
4.724760e+02,9.346229e+03
4.734402e+02,9.353235e+03
4.744044e+02,9.359673e+03
4.753687e+02,9.359425e+03
4.763329e+02,9.344889e+03
4.772971e+02,9.335929e+03
4.782614e+02,9.337121e+03
4.792256e+02,9.345236e+03
4.801898e+02,9.355837e+03
4.811541e+02,9.368710e+03
4.821183e+02,9.379549e+03
4.830826e+02,9.380163e+03
4.840468e+02,9.369083e+03
4.850110e+02,9.358302e+03
4.859753e+02,9.356779e+03
4.869395e+02,9.364738e+03
4.879037e+02,9.370889e+03
4.888680e+02,9.377233e+03
4.898322e+02,9.382286e+03
4.907964e+02,9.384880e+03
4.917607e+02,9.385934e+03
4.927249e+02,9.387659e+03
4.936891e+02,9.392126e+03
4.946534e+02,9.399249e+03
4.956176e+02,9.405215e+03
4.965818e+02,9.410020e+03
4.975461e+02,9.414347e+03
4.985103e+02,9.417798e+03
4.994745e+02,9.418551e+03
5.004388e+02,9.416512e+03
5.014030e+02,9.412361e+03
5.023672e+02,9.408482e+03
5.033315e+02,9.407356e+03
5.042957e+02,9.409286e+03
5.052599e+02,9.412222e+03
5.062242e+02,9.414795e+03
5.071884e+02,9.423051e+03
5.081526e+02,9.425304e+03
5.091169e+02,9.418010e+03
5.100811e+02,9.407936e+03
5.110453e+02,9.400751e+03
5.120095e+02,9.400106e+03
5.129738e+02,9.403998e+03
5.139380e+02,9.409058e+03
5.149022e+02,9.415643e+03
5.158665e+02,9.426563e+03
5.168307e+02,9.442547e+03
5.177949e+02,9.458513e+03
5.187592e+02,9.459735e+03
5.197234e+02,9.446330e+03
5.206876e+02,9.434487e+03
5.216519e+02,9.430198e+03
5.226161e+02,9.433568e+03
5.235803e+02,9.441170e+03
5.245446e+02,9.451963e+03
5.255088e+02,9.465033e+03
5.264730e+02,9.474549e+03
5.274373e+02,9.479366e+03
5.284015e+02,9.482021e+03
5.293657e+02,9.482592e+03
5.303300e+02,9.481537e+03
5.312942e+02,9.478496e+03
5.322584e+02,9.474620e+03
5.332227e+02,9.474668e+03
5.341869e+02,9.481311e+03
5.351511e+02,9.493262e+03
5.361154e+02,9.506428e+03
5.370796e+02,9.517046e+03
5.380438e+02,9.525531e+03
5.390081e+02,9.535701e+03
5.399723e+02,9.552639e+03
5.409365e+02,9.570469e+03
5.419008e+02,9.579928e+03
5.428650e+02,9.571058e+03
5.438292e+02,9.564344e+03
5.447935e+02,9.577796e+03
5.457577e+02,9.601690e+03
5.467219e+02,9.614573e+03
5.476862e+02,9.606849e+03
5.486504e+02,9.585631e+03
5.496146e+02,9.573259e+03
5.505789e+02,9.576108e+03
5.515431e+02,9.577136e+03
5.525073e+02,9.572899e+03
5.534716e+02,9.570907e+03
5.544358e+02,9.577174e+03
5.554000e+02,9.595298e+03
5.563643e+02,9.615715e+03
5.573285e+02,9.630323e+03
5.582927e+02,9.638183e+03
5.592570e+02,9.640596e+03
5.602212e+02,9.640027e+03
5.611854e+02,9.635635e+03
5.621497e+02,9.623814e+03
5.631139e+02,9.593182e+03
5.640781e+02,9.560681e+03
5.650424e+02,9.533516e+03
5.660066e+02,9.512214e+03
5.669708e+02,9.494240e+03
5.679351e+02,9.481376e+03
5.688993e+02,9.472073e+03
5.698635e+02,9.460952e+03
5.708278e+02,9.448022e+03
5.717920e+02,9.442007e+03
5.727562e+02,9.450573e+03
5.737205e+02,9.479723e+03
5.746847e+02,9.494458e+03
5.756489e+02,9.481231e+03
5.766132e+02,9.463545e+03
5.775774e+02,9.455535e+03
5.785416e+02,9.459217e+03
5.795059e+02,9.465296e+03
5.804701e+02,9.469386e+03
5.814343e+02,9.470444e+03
5.823986e+02,9.463493e+03
5.833628e+02,9.446315e+03
5.843270e+02,9.427665e+03
5.852913e+02,9.418524e+03
5.862555e+02,9.425018e+03
5.872197e+02,9.432504e+03
5.881840e+02,9.437438e+03
5.891482e+02,9.443438e+03
5.901124e+02,9.455052e+03
5.910767e+02,9.474330e+03
5.920409e+02,9.494327e+03
5.930051e+02,9.506308e+03
5.939694e+02,9.510932e+03
5.949336e+02,9.517674e+03
5.958978e+02,9.532476e+03
5.968621e+02,9.547299e+03
5.978263e+02,9.544204e+03
5.987905e+02,9.496688e+03
5.997548e+02,9.465343e+03
6.007190e+02,9.465032e+03
6.016832e+02,9.481554e+03
6.026475e+02,9.496175e+03
6.036117e+02,9.497794e+03
6.045759e+02,9.496381e+03
6.055402e+02,9.504080e+03
6.065044e+02,9.518828e+03
6.074686e+02,9.535179e+03
6.084329e+02,9.555354e+03
6.093971e+02,9.576807e+03
6.103613e+02,9.582268e+03
6.113256e+02,9.557035e+03
6.122899e+02,9.531828e+03
6.132541e+02,9.511974e+03
6.142183e+02,9.495324e+03
6.151826e+02,9.478408e+03
6.161468e+02,9.459395e+03
6.171110e+02,9.443593e+03
6.180753e+02,9.436877e+03
6.190395e+02,9.437642e+03
6.200037e+02,9.438660e+03
6.209680e+02,9.434864e+03
6.219322e+02,9.427941e+03
6.228964e+02,9.426174e+03
6.238607e+02,9.434135e+03
6.248249e+02,9.440920e+03
6.257891e+02,9.439350e+03
6.267534e+02,9.429546e+03
6.277176e+02,9.419006e+03
6.286818e+02,9.415774e+03
6.296461e+02,9.415736e+03
6.306103e+02,9.411967e+03
6.315745e+02,9.405440e+03
6.325388e+02,9.402452e+03
6.335030e+02,9.407360e+03
6.344672e+02,9.419137e+03
6.354315e+02,9.425087e+03
6.363957e+02,9.419728e+03
6.373599e+02,9.409785e+03
6.383242e+02,9.401149e+03
6.392884e+02,9.394667e+03
6.402526e+02,9.387119e+03
6.412169e+02,9.374566e+03
6.421811e+02,9.361640e+03
6.431453e+02,9.352833e+03
6.441096e+02,9.348146e+03
6.450738e+02,9.345419e+03
6.460380e+02,9.345031e+03
6.470023e+02,9.349078e+03
6.479665e+02,9.352114e+03
6.489307e+02,9.349841e+03
6.498950e+02,9.347270e+03
6.508592e+02,9.347873e+03
6.518234e+02,9.350777e+03
6.527877e+02,9.351536e+03
6.537519e+02,9.350321e+03
6.547161e+02,9.347610e+03
6.556804e+02,9.344097e+03
6.566446e+02,9.340228e+03
6.576088e+02,9.335269e+03
6.585731e+02,9.327740e+03
6.595373e+02,9.318013e+03
6.605015e+02,9.307446e+03
6.614658e+02,9.294888e+03
6.624300e+02,9.285559e+03
6.633942e+02,9.284774e+03
6.643585e+02,9.294927e+03
6.653227e+02,9.306663e+03
6.662869e+02,9.321730e+03
6.672512e+02,9.334271e+03
6.682154e+02,9.340220e+03
6.691796e+02,9.337981e+03
6.701439e+02,9.332603e+03
6.711081e+02,9.328793e+03
6.720723e+02,9.324728e+03
6.730366e+02,9.317176e+03
6.740008e+02,9.306609e+03
6.749650e+02,9.294146e+03
6.759293e+02,9.279988e+03
6.768935e+02,9.262643e+03
6.778577e+02,9.252391e+03
6.788220e+02,9.261591e+03
6.797862e+02,9.273739e+03
6.807504e+02,9.269973e+03
6.817147e+02,9.241672e+03
6.826789e+02,9.225919e+03
6.836431e+02,9.250416e+03
6.846074e+02,9.283970e+03
6.855716e+02,9.294062e+03
6.865358e+02,9.276519e+03
6.875001e+02,9.248356e+03
6.884643e+02,9.225175e+03
6.894285e+02,9.207373e+03
6.903928e+02,9.197966e+03
6.913570e+02,9.199991e+03
6.923212e+02,9.203501e+03
6.932855e+02,9.198032e+03
6.942497e+02,9.177098e+03
6.952139e+02,9.168733e+03
6.961782e+02,9.179975e+03
6.971424e+02,9.197176e+03
6.981066e+02,9.211221e+03
6.990709e+02,9.216803e+03
7.000351e+02,9.210786e+03
7.009993e+02,9.188849e+03
7.019636e+02,9.160863e+03
7.029278e+02,9.143243e+03
7.038920e+02,9.138274e+03
7.048563e+02,9.138657e+03
7.058205e+02,9.139097e+03
7.067847e+02,9.144743e+03
7.077490e+02,9.145329e+03
7.087132e+02,9.139171e+03
7.096774e+02,9.137255e+03
7.106417e+02,9.141313e+03
7.116059e+02,9.151168e+03
7.125701e+02,9.158611e+03
7.135344e+02,9.165896e+03
7.144986e+02,9.170660e+03
7.154628e+02,9.167802e+03
7.164271e+02,9.155879e+03
7.173913e+02,9.139730e+03
7.183555e+02,9.121937e+03
7.193198e+02,9.103146e+03
7.202840e+02,9.088792e+03
7.212482e+02,9.080955e+03
7.222125e+02,9.078753e+03
7.231767e+02,9.081048e+03
7.241409e+02,9.090031e+03
7.251052e+02,9.089818e+03
7.260694e+02,9.069657e+03
7.270336e+02,9.047922e+03
7.279979e+02,9.037998e+03
7.289621e+02,9.041075e+03
7.299263e+02,9.042372e+03
7.308906e+02,9.027491e+03
7.318548e+02,9.010327e+03
7.328190e+02,9.010978e+03
7.337833e+02,9.029990e+03
7.347475e+02,9.048693e+03
7.357117e+02,9.049624e+03
7.366760e+02,9.035834e+03
7.376402e+02,9.022465e+03
7.386044e+02,9.010244e+03
7.395687e+02,8.999432e+03
7.405329e+02,8.988067e+03
7.414971e+02,8.974329e+03
7.424614e+02,8.965253e+03
7.434256e+02,8.967871e+03
7.443898e+02,8.977681e+03
7.453541e+02,8.992840e+03
7.463183e+02,9.007229e+03
7.472825e+02,9.010246e+03
7.482468e+02,8.990894e+03
7.492110e+02,8.962905e+03
7.501752e+02,8.942369e+03
7.511395e+02,8.933543e+03
7.521037e+02,8.933075e+03
7.530679e+02,8.935656e+03
7.540322e+02,8.939045e+03
7.549964e+02,8.944585e+03
7.559606e+02,8.955409e+03
7.569249e+02,8.964862e+03
7.578891e+02,8.968450e+03
7.588533e+02,8.966806e+03
7.598176e+02,8.967740e+03
7.607818e+02,8.964268e+03
7.617460e+02,8.955669e+03
7.627103e+02,8.945084e+03
7.636745e+02,8.935907e+03
7.646387e+02,8.927626e+03
7.656030e+02,8.915697e+03
7.665672e+02,8.907109e+03
7.675314e+02,8.904792e+03
7.684957e+02,8.902911e+03
7.694599e+02,8.897803e+03
7.704241e+02,8.892905e+03
7.713884e+02,8.890438e+03
7.723526e+02,8.887609e+03
7.733168e+02,8.886052e+03
7.742811e+02,8.889338e+03
7.752453e+02,8.895277e+03
7.762095e+02,8.900278e+03
7.771738e+02,8.901121e+03
7.781380e+02,8.887557e+03
7.791022e+02,8.875715e+03
7.800665e+02,8.876049e+03
7.810307e+02,8.882856e+03
7.819949e+02,8.885690e+03
7.829592e+02,8.884769e+03
7.839234e+02,8.882665e+03
7.848876e+02,8.876457e+03
7.858519e+02,8.867733e+03
7.868161e+02,8.861437e+03
7.877803e+02,8.861004e+03
7.887446e+02,8.859267e+03
7.897088e+02,8.843541e+03
7.906730e+02,8.819729e+03
7.916373e+02,8.811068e+03
7.926015e+02,8.823255e+03
7.935657e+02,8.838229e+03
7.945300e+02,8.828784e+03
7.954942e+02,8.787157e+03
7.964584e+02,8.750763e+03
7.974227e+02,8.732790e+03
7.983869e+02,8.731059e+03
7.993511e+02,8.732167e+03
8.003154e+02,8.728697e+03
8.012796e+02,8.725475e+03
8.022438e+02,8.731655e+03
8.032081e+02,8.740557e+03
8.041723e+02,8.745818e+03
8.051365e+02,8.744655e+03
8.061008e+02,8.738580e+03
8.070650e+02,8.720181e+03
8.080292e+02,8.696930e+03
8.089935e+02,8.688229e+03
8.099577e+02,8.698963e+03
8.109219e+02,8.715535e+03
8.118862e+02,8.725056e+03
8.128504e+02,8.727327e+03
8.138146e+02,8.715376e+03
8.147789e+02,8.682768e+03
8.157431e+02,8.648015e+03
8.167073e+02,8.628504e+03
8.176716e+02,8.631815e+03
8.186358e+02,8.634185e+03
8.196000e+02,8.630494e+03
8.205643e+02,8.629458e+03
8.215285e+02,8.631709e+03
8.224927e+02,8.636377e+03
8.234570e+02,8.640472e+03
8.244212e+02,8.647971e+03
8.253854e+02,8.651229e+03
8.263497e+02,8.639628e+03
8.273139e+02,8.615574e+03
8.282781e+02,8.592447e+03
8.292424e+02,8.582190e+03
8.302066e+02,8.581987e+03
8.311708e+02,8.587976e+03
8.321351e+02,8.598521e+03
8.330993e+02,8.604590e+03
8.340635e+02,8.598641e+03
8.350278e+02,8.584830e+03
8.359920e+02,8.579787e+03
8.369562e+02,8.586143e+03
8.379205e+02,8.588646e+03
8.388847e+02,8.580705e+03
8.398489e+02,8.567146e+03
8.408132e+02,8.559120e+03
8.417774e+02,8.565873e+03
8.427416e+02,8.561901e+03
8.437059e+02,8.533959e+03
8.446701e+02,8.500123e+03
8.456343e+02,8.480394e+03
8.465986e+02,8.481745e+03
8.475628e+02,8.486380e+03
8.485270e+02,8.494202e+03
8.494913e+02,8.499074e+03
8.504555e+02,8.492989e+03
8.514197e+02,8.474731e+03
8.523840e+02,8.459779e+03
8.533482e+02,8.462592e+03
8.543124e+02,8.474288e+03
8.552767e+02,8.481059e+03
8.562409e+02,8.480107e+03
8.572051e+02,8.472402e+03
8.581694e+02,8.458360e+03
8.591336e+02,8.439952e+03
8.600978e+02,8.426787e+03
8.610621e+02,8.420792e+03
8.620263e+02,8.420269e+03
8.629905e+02,8.422447e+03
8.639548e+02,8.424520e+03
8.649190e+02,8.423334e+03
8.658832e+02,8.424335e+03
8.668475e+02,8.422955e+03
8.678117e+02,8.413543e+03
8.687759e+02,8.397443e+03
8.697402e+02,8.387889e+03
8.707044e+02,8.383710e+03
8.716686e+02,8.379207e+03
8.726329e+02,8.380855e+03
8.735971e+02,8.385834e+03
8.745613e+02,8.385830e+03
8.755256e+02,8.379155e+03
8.764898e+02,8.370485e+03
8.774540e+02,8.355588e+03
8.784183e+02,8.338968e+03
8.793825e+02,8.331216e+03
8.803467e+02,8.337678e+03
8.813110e+02,8.346797e+03
8.822752e+02,8.345137e+03
8.832394e+02,8.336709e+03
8.842037e+02,8.328817e+03
8.851679e+02,8.320807e+03
8.861321e+02,8.312848e+03
8.870964e+02,8.308599e+03
8.880606e+02,8.307931e+03
8.890248e+02,8.300204e+03
8.899891e+02,8.286289e+03
8.909533e+02,8.271526e+03
8.919175e+02,8.257749e+03
8.928818e+02,8.242747e+03
8.938460e+02,8.238334e+03
8.948102e+02,8.252619e+03
8.957745e+02,8.264534e+03
8.967387e+02,8.260850e+03
8.977029e+02,8.240649e+03
8.986672e+02,8.224801e+03
8.996314e+02,8.225063e+03
9.005956e+02,8.228763e+03
9.015599e+02,8.230519e+03
9.025241e+02,8.228881e+03
9.034883e+02,8.224193e+03
9.044526e+02,8.215554e+03
9.054168e+02,8.200803e+03
9.063810e+02,8.180665e+03
9.073453e+02,8.162385e+03
9.083095e+02,8.151657e+03
9.092737e+02,8.149165e+03
9.102380e+02,8.148316e+03
9.112022e+02,8.143821e+03
9.121664e+02,8.135771e+03
9.131307e+02,8.125397e+03
9.140949e+02,8.115529e+03
9.150591e+02,8.111267e+03
9.160234e+02,8.116222e+03
9.169876e+02,8.124665e+03
9.179518e+02,8.123619e+03
9.189161e+02,8.110860e+03
9.198803e+02,8.093143e+03
9.208445e+02,8.080157e+03
9.218088e+02,8.075328e+03
9.227730e+02,8.069627e+03
9.237372e+02,8.060779e+03
9.247015e+02,8.049842e+03
9.256657e+02,8.035426e+03
9.266299e+02,8.016347e+03
9.275942e+02,8.011255e+03
9.285584e+02,8.032423e+03
9.295226e+02,8.049339e+03
9.304869e+02,8.050625e+03
9.314511e+02,8.041285e+03
9.324153e+02,8.033357e+03
9.333796e+02,8.027813e+03
9.343438e+02,8.023071e+03
9.353080e+02,8.020481e+03
9.362723e+02,8.013831e+03
9.372365e+02,7.997326e+03
9.382007e+02,7.967419e+03
9.391650e+02,7.942880e+03
9.401292e+02,7.933930e+03
9.410934e+02,7.932844e+03
9.420577e+02,7.928327e+03
9.430219e+02,7.916506e+03
9.439861e+02,7.905938e+03
9.449504e+02,7.908846e+03
9.459146e+02,7.920908e+03
9.468788e+02,7.931173e+03
9.478431e+02,7.933863e+03
9.488073e+02,7.929778e+03
9.497715e+02,7.924577e+03
9.507358e+02,7.917985e+03
9.517000e+02,7.907317e+03
9.526642e+02,7.894901e+03
9.536285e+02,7.879637e+03
9.545927e+02,7.856454e+03
9.555569e+02,7.830257e+03
9.565212e+02,7.820326e+03
9.574854e+02,7.829739e+03
9.584496e+02,7.841412e+03
9.594139e+02,7.845417e+03
9.603781e+02,7.842594e+03
9.613423e+02,7.841260e+03
9.623066e+02,7.843051e+03
9.632708e+02,7.840764e+03
9.642350e+02,7.834719e+03
9.651993e+02,7.826254e+03
9.661635e+02,7.812935e+03
9.671277e+02,7.784532e+03
9.680920e+02,7.770138e+03
9.690562e+02,7.781305e+03
9.700204e+02,7.793226e+03
9.709847e+02,7.788752e+03
9.719489e+02,7.766213e+03
9.729131e+02,7.748919e+03
9.738774e+02,7.739285e+03
9.748416e+02,7.736128e+03
9.758058e+02,7.737448e+03
9.767701e+02,7.740513e+03
9.777343e+02,7.743391e+03
9.786985e+02,7.753073e+03
9.796628e+02,7.752613e+03
9.806270e+02,7.728786e+03
9.815912e+02,7.693800e+03
9.825555e+02,7.668810e+03
9.835197e+02,7.671971e+03
9.844839e+02,7.675036e+03
9.854482e+02,7.665747e+03
9.864124e+02,7.651864e+03
9.873766e+02,7.638490e+03
9.883409e+02,7.626822e+03
9.893051e+02,7.621888e+03
9.902693e+02,7.632041e+03
9.912336e+02,7.648097e+03
9.921978e+02,7.658248e+03
9.931620e+02,7.659013e+03
9.941263e+02,7.653862e+03
9.950905e+02,7.643839e+03
9.960547e+02,7.631920e+03
9.970190e+02,7.623515e+03
9.979832e+02,7.615928e+03
9.989474e+02,7.600992e+03
9.999117e+02,7.571873e+03
1.000876e+03,7.541444e+03
1.001840e+03,7.529373e+03
1.002804e+03,7.533568e+03
1.003769e+03,7.542195e+03
1.004733e+03,7.549573e+03
1.005697e+03,7.553511e+03
1.006661e+03,7.550482e+03
1.007626e+03,7.542644e+03
1.008590e+03,7.537173e+03
1.009554e+03,7.533700e+03
1.010518e+03,7.529542e+03
1.011482e+03,7.524262e+03
1.012447e+03,7.517624e+03
1.013411e+03,7.509225e+03
1.014375e+03,7.502657e+03
1.015339e+03,7.496755e+03
1.016304e+03,7.487278e+03
1.017268e+03,7.474978e+03
1.018232e+03,7.469999e+03
1.019196e+03,7.472572e+03
1.020161e+03,7.472235e+03
1.021125e+03,7.465580e+03
1.022089e+03,7.457292e+03
1.023053e+03,7.454243e+03
1.024018e+03,7.454586e+03
1.024982e+03,7.455549e+03
1.025946e+03,7.456131e+03
1.026910e+03,7.452538e+03
1.027875e+03,7.443806e+03
1.028839e+03,7.432445e+03
1.029803e+03,7.421821e+03
1.030767e+03,7.411507e+03
1.031731e+03,7.403687e+03
1.032696e+03,7.399297e+03
1.033660e+03,7.397904e+03
1.034624e+03,7.392037e+03
1.035588e+03,7.379892e+03
1.036552e+03,7.371993e+03
1.037517e+03,7.372982e+03
1.038481e+03,7.377682e+03
1.039445e+03,7.373821e+03
1.040409e+03,7.352041e+03
1.041374e+03,7.338253e+03
1.042338e+03,7.345390e+03
1.043302e+03,7.360538e+03
1.044266e+03,7.364961e+03
1.045231e+03,7.353015e+03
1.046195e+03,7.338429e+03
1.047159e+03,7.317347e+03
1.048123e+03,7.299839e+03
1.049088e+03,7.294159e+03
1.050052e+03,7.304524e+03
1.051016e+03,7.312078e+03
1.051980e+03,7.312034e+03
1.052945e+03,7.312393e+03
1.053909e+03,7.315827e+03
1.054873e+03,7.316935e+03
1.055837e+03,7.308420e+03
1.056802e+03,7.282920e+03
1.057766e+03,7.261615e+03
1.058730e+03,7.250034e+03
1.059694e+03,7.245756e+03
1.060658e+03,7.245099e+03
1.061623e+03,7.255186e+03
1.062587e+03,7.258584e+03
1.063551e+03,7.247921e+03
1.064515e+03,7.234940e+03
1.065479e+03,7.225873e+03
1.066444e+03,7.222766e+03
1.067408e+03,7.222228e+03
1.068372e+03,7.225239e+03
1.069336e+03,7.229041e+03
1.070301e+03,7.226967e+03
1.071265e+03,7.220188e+03
1.072229e+03,7.218605e+03
1.073193e+03,7.233537e+03
1.074158e+03,7.241974e+03
1.075122e+03,7.236617e+03
1.076086e+03,7.222442e+03
1.077050e+03,7.205877e+03
1.078015e+03,7.188183e+03
1.078979e+03,7.179167e+03
1.079943e+03,7.184423e+03
1.080907e+03,7.193800e+03
1.081872e+03,7.198076e+03
1.082836e+03,7.194542e+03
1.083800e+03,7.190905e+03
1.084764e+03,7.193083e+03
1.085729e+03,7.194950e+03
1.086693e+03,7.193072e+03
1.087657e+03,7.187143e+03
1.088621e+03,7.178658e+03
1.089585e+03,7.165460e+03
1.090550e+03,7.149357e+03
1.091514e+03,7.135616e+03
1.092478e+03,7.122413e+03
1.093442e+03,7.104796e+03
1.094406e+03,7.078312e+03
1.095371e+03,7.061186e+03
1.096335e+03,7.061625e+03
1.097299e+03,7.065844e+03
1.098263e+03,7.066088e+03
1.099228e+03,7.061138e+03
1.100192e+03,7.054084e+03
1.101156e+03,7.040498e+03
1.102120e+03,7.028977e+03
1.103085e+03,7.026511e+03
1.104049e+03,7.028599e+03
1.105013e+03,7.025950e+03
1.105977e+03,7.013408e+03
1.106942e+03,7.002283e+03
1.107906e+03,6.994638e+03
1.108870e+03,6.989721e+03
1.109834e+03,6.987545e+03
1.110799e+03,6.989908e+03
1.111763e+03,6.988133e+03
1.112727e+03,6.977076e+03
1.113691e+03,6.967811e+03
1.114656e+03,6.965560e+03
1.115620e+03,6.969400e+03
1.116584e+03,6.972309e+03
1.117548e+03,6.971577e+03
1.118512e+03,6.966743e+03
1.119477e+03,6.956122e+03
1.120441e+03,6.942619e+03
1.121405e+03,6.931627e+03
1.122369e+03,6.928888e+03
1.123334e+03,6.920556e+03
1.124298e+03,6.902814e+03
1.125262e+03,6.885178e+03
1.126226e+03,6.874488e+03
1.127191e+03,6.871802e+03
1.128155e+03,6.871268e+03
1.129119e+03,6.871479e+03
1.130083e+03,6.872423e+03
1.131047e+03,6.874013e+03
1.132012e+03,6.874388e+03
1.132976e+03,6.872731e+03
1.133940e+03,6.869783e+03
1.134904e+03,6.862222e+03
1.135869e+03,6.848970e+03
1.136833e+03,6.835765e+03
1.137797e+03,6.829259e+03
1.138761e+03,6.834317e+03
1.139726e+03,6.836356e+03
1.140690e+03,6.834468e+03
1.141654e+03,6.828173e+03
1.142618e+03,6.814781e+03
1.143583e+03,6.796326e+03
1.144547e+03,6.785747e+03
1.145511e+03,6.784552e+03
1.146475e+03,6.785155e+03
1.147439e+03,6.786250e+03
1.148404e+03,6.786715e+03
1.149368e+03,6.781124e+03
1.150332e+03,6.767782e+03
1.151296e+03,6.757680e+03
1.152261e+03,6.749390e+03
1.153225e+03,6.737352e+03
1.154189e+03,6.720091e+03
1.155153e+03,6.701409e+03
1.156118e+03,6.692076e+03
1.157082e+03,6.694508e+03
1.158046e+03,6.697844e+03
1.159010e+03,6.693927e+03
1.159974e+03,6.687271e+03
1.160939e+03,6.689570e+03
1.161903e+03,6.697642e+03
1.162867e+03,6.699264e+03
1.163831e+03,6.691418e+03
1.164796e+03,6.679116e+03
1.165760e+03,6.668096e+03
1.166724e+03,6.659591e+03
1.167688e+03,6.655850e+03
1.168653e+03,6.656075e+03
1.169617e+03,6.653958e+03
1.170581e+03,6.646448e+03
1.171545e+03,6.635562e+03
1.172510e+03,6.619877e+03
1.173474e+03,6.603561e+03
1.174438e+03,6.595413e+03
1.175402e+03,6.597861e+03
1.176366e+03,6.602221e+03
1.177331e+03,6.601706e+03
1.178295e+03,6.599680e+03
1.179259e+03,6.599252e+03
1.180223e+03,6.599195e+03
1.181188e+03,6.597405e+03
1.182152e+03,6.593630e+03
1.183116e+03,6.587563e+03
1.184080e+03,6.580497e+03
1.185045e+03,6.573317e+03
1.186009e+03,6.565222e+03
1.186973e+03,6.556218e+03
1.187937e+03,6.550629e+03
1.188901e+03,6.552314e+03
1.189866e+03,6.554764e+03
1.190830e+03,6.549931e+03
1.191794e+03,6.535597e+03
1.192758e+03,6.524740e+03
1.193723e+03,6.525585e+03
1.194687e+03,6.529594e+03
1.195651e+03,6.534191e+03
1.196615e+03,6.537787e+03
1.197580e+03,6.536960e+03
1.198544e+03,6.522608e+03
1.199508e+03,6.508716e+03
1.200472e+03,6.502633e+03
1.201437e+03,6.497169e+03
1.202401e+03,6.486213e+03
1.203365e+03,6.470127e+03
1.204329e+03,6.459463e+03
1.205293e+03,6.454567e+03
1.206258e+03,6.451610e+03
1.207222e+03,6.447497e+03
1.208186e+03,6.443335e+03
1.209150e+03,6.445336e+03
1.210115e+03,6.452335e+03
1.211079e+03,6.458481e+03
1.212043e+03,6.464152e+03
1.213007e+03,6.465208e+03
1.213972e+03,6.456509e+03
1.214936e+03,6.441716e+03
1.215900e+03,6.433179e+03
1.216864e+03,6.431069e+03
1.217828e+03,6.429451e+03
1.218793e+03,6.424188e+03
1.219757e+03,6.418997e+03
1.220721e+03,6.420464e+03
1.221685e+03,6.427447e+03
1.222650e+03,6.436014e+03
1.223614e+03,6.443436e+03
1.224578e+03,6.443109e+03
1.225542e+03,6.424498e+03
1.226507e+03,6.402536e+03
1.227471e+03,6.395059e+03
1.228435e+03,6.398439e+03
1.229399e+03,6.398254e+03
1.230364e+03,6.391458e+03
1.231328e+03,6.378351e+03
1.232292e+03,6.355656e+03
1.233256e+03,6.333131e+03
1.234220e+03,6.320919e+03
1.235185e+03,6.326899e+03
1.236149e+03,6.328889e+03
1.237113e+03,6.314527e+03
1.238077e+03,6.303574e+03
1.239042e+03,6.306225e+03
1.240006e+03,6.317883e+03
1.240970e+03,6.322083e+03
1.241934e+03,6.315240e+03
1.242899e+03,6.306556e+03
1.243863e+03,6.298530e+03
1.244827e+03,6.291978e+03
1.245791e+03,6.287754e+03
1.246755e+03,6.286847e+03
1.247720e+03,6.282710e+03
1.248684e+03,6.275908e+03
1.249648e+03,6.266062e+03
1.250612e+03,6.249736e+03
1.251577e+03,6.230410e+03
1.252541e+03,6.224237e+03
1.253505e+03,6.229078e+03
1.254469e+03,6.234488e+03
1.255434e+03,6.239003e+03
1.256398e+03,6.241331e+03
1.257362e+03,6.236257e+03
1.258326e+03,6.225869e+03
1.259291e+03,6.215854e+03
1.260255e+03,6.205728e+03
1.261219e+03,6.193933e+03
1.262183e+03,6.182228e+03
1.263147e+03,6.172977e+03
1.264112e+03,6.166794e+03
1.265076e+03,6.163311e+03
1.266040e+03,6.161827e+03
1.267004e+03,6.164220e+03
1.267969e+03,6.162635e+03
1.268933e+03,6.152902e+03
1.269897e+03,6.145305e+03
1.270861e+03,6.141261e+03
1.271826e+03,6.136532e+03
1.272790e+03,6.133250e+03
1.273754e+03,6.137813e+03
1.274718e+03,6.136839e+03
1.275682e+03,6.129514e+03
1.276647e+03,6.119343e+03
1.277611e+03,6.108381e+03
1.278575e+03,6.095644e+03
1.279539e+03,6.081850e+03
1.280504e+03,6.069265e+03
1.281468e+03,6.064726e+03
1.282432e+03,6.072869e+03
1.283396e+03,6.087258e+03
1.284361e+03,6.090573e+03
1.285325e+03,6.084386e+03
1.286289e+03,6.081891e+03
1.287253e+03,6.086260e+03
1.288218e+03,6.088830e+03
1.289182e+03,6.080755e+03
1.290146e+03,6.068715e+03
1.291110e+03,6.061892e+03
1.292074e+03,6.059840e+03
1.293039e+03,6.056103e+03
1.294003e+03,6.048178e+03
1.294967e+03,6.035048e+03
1.295931e+03,6.008714e+03
1.296896e+03,5.984858e+03
1.297860e+03,5.982295e+03
1.298824e+03,6.010166e+03
1.299788e+03,6.022766e+03
1.300753e+03,6.007439e+03
1.301717e+03,5.990266e+03
1.302681e+03,5.979524e+03
1.303645e+03,5.975213e+03
1.304609e+03,5.979013e+03
1.305574e+03,5.990299e+03
1.306538e+03,5.997733e+03
1.307502e+03,6.002855e+03
1.308466e+03,6.004899e+03
1.309431e+03,6.000172e+03
1.310395e+03,5.990341e+03
1.311359e+03,5.979142e+03
1.312323e+03,5.964714e+03
1.313288e+03,5.949057e+03
1.314252e+03,5.935492e+03
1.315216e+03,5.926259e+03
1.316180e+03,5.920828e+03
1.317145e+03,5.919911e+03
1.318109e+03,5.923810e+03
1.319073e+03,5.930081e+03
1.320037e+03,5.934467e+03
1.321001e+03,5.938874e+03
1.321966e+03,5.937961e+03
1.322930e+03,5.929377e+03
1.323894e+03,5.917772e+03
1.324858e+03,5.908008e+03
1.325823e+03,5.899447e+03
1.326787e+03,5.893369e+03
1.327751e+03,5.887998e+03
1.328715e+03,5.884526e+03
1.329680e+03,5.885659e+03
1.330644e+03,5.890102e+03
1.331608e+03,5.889999e+03
1.332572e+03,5.885279e+03
1.333536e+03,5.882626e+03
1.334501e+03,5.883281e+03
1.335465e+03,5.882294e+03
1.336429e+03,5.877670e+03
1.337393e+03,5.870278e+03
1.338358e+03,5.858032e+03
1.339322e+03,5.842458e+03
1.340286e+03,5.829377e+03
1.341250e+03,5.822534e+03
1.342215e+03,5.817326e+03
1.343179e+03,5.814915e+03
1.344143e+03,5.817011e+03
1.345107e+03,5.822437e+03
1.346072e+03,5.830274e+03
1.347036e+03,5.835617e+03
1.348000e+03,5.839375e+03
1.348964e+03,5.834445e+03
1.349928e+03,5.816577e+03
1.350893e+03,5.794621e+03
1.351857e+03,5.785203e+03
1.352821e+03,5.786722e+03
1.353785e+03,5.792174e+03
1.354750e+03,5.799972e+03
1.355714e+03,5.804597e+03
1.356678e+03,5.803031e+03
1.357642e+03,5.799716e+03
1.358607e+03,5.798376e+03
1.359571e+03,5.796831e+03
1.360535e+03,5.791219e+03
1.361499e+03,5.779524e+03
1.362464e+03,5.770118e+03
1.363428e+03,5.766149e+03
1.364392e+03,5.768367e+03
1.365356e+03,5.779789e+03
1.366320e+03,5.795223e+03
1.367285e+03,5.792554e+03
1.368249e+03,5.764868e+03
1.369213e+03,5.741747e+03
1.370177e+03,5.729235e+03
1.371142e+03,5.721492e+03
1.372106e+03,5.712088e+03
1.373070e+03,5.701497e+03
1.374034e+03,5.693913e+03
1.374999e+03,5.690314e+03
1.375963e+03,5.686702e+03
1.376927e+03,5.679690e+03
1.377891e+03,5.673475e+03
1.378855e+03,5.672467e+03
1.379820e+03,5.673437e+03
1.380784e+03,5.672555e+03
1.381748e+03,5.670888e+03
1.382712e+03,5.671945e+03
1.383677e+03,5.678170e+03
1.384641e+03,5.679508e+03
1.385605e+03,5.670292e+03
1.386569e+03,5.655023e+03
1.387534e+03,5.640038e+03
1.388498e+03,5.624219e+03
1.389462e+03,5.621356e+03
1.390426e+03,5.632537e+03
1.391391e+03,5.638530e+03
1.392355e+03,5.625781e+03
1.393319e+03,5.606452e+03
1.394283e+03,5.603502e+03
1.395247e+03,5.610347e+03
1.396212e+03,5.613330e+03
1.397176e+03,5.609248e+03
1.398140e+03,5.604641e+03
1.399104e+03,5.602303e+03
1.400069e+03,5.599286e+03
1.401033e+03,5.593038e+03
1.401997e+03,5.585197e+03
1.402961e+03,5.580456e+03
1.403926e+03,5.579877e+03
1.404890e+03,5.579749e+03
1.405854e+03,5.582442e+03
1.406818e+03,5.582250e+03
1.407782e+03,5.573548e+03
1.408747e+03,5.560907e+03
1.409711e+03,5.553961e+03
1.410675e+03,5.549923e+03
1.411639e+03,5.551966e+03
1.412604e+03,5.563078e+03
1.413568e+03,5.569936e+03
1.414532e+03,5.560005e+03
1.415496e+03,5.545688e+03
1.416461e+03,5.532971e+03
1.417425e+03,5.521628e+03
1.418389e+03,5.514098e+03
1.419353e+03,5.514738e+03
1.420318e+03,5.514292e+03
1.421282e+03,5.515129e+03
1.422246e+03,5.514703e+03
1.423210e+03,5.508442e+03
1.424174e+03,5.498820e+03
1.425139e+03,5.498579e+03
1.426103e+03,5.505240e+03
1.427067e+03,5.511688e+03
1.428031e+03,5.516775e+03
1.428996e+03,5.517037e+03
1.429960e+03,5.503496e+03
1.430924e+03,5.485349e+03
1.431888e+03,5.470582e+03
1.432853e+03,5.460554e+03
1.433817e+03,5.455635e+03
1.434781e+03,5.463565e+03
1.435745e+03,5.468276e+03
1.436709e+03,5.464553e+03
1.437674e+03,5.456706e+03
1.438638e+03,5.450359e+03
1.439602e+03,5.446891e+03
1.440566e+03,5.443823e+03
1.441531e+03,5.440680e+03
1.442495e+03,5.438640e+03
1.443459e+03,5.437028e+03
1.444423e+03,5.437375e+03
1.445388e+03,5.441496e+03
1.446352e+03,5.446276e+03
1.447316e+03,5.452167e+03
1.448280e+03,5.459972e+03
1.449245e+03,5.463524e+03
1.450209e+03,5.457279e+03
1.451173e+03,5.452334e+03
1.452137e+03,5.446647e+03
1.453101e+03,5.440735e+03
1.454066e+03,5.437415e+03
1.455030e+03,5.436524e+03
1.455994e+03,5.434605e+03
1.456958e+03,5.431731e+03
1.457923e+03,5.429239e+03
1.458887e+03,5.426277e+03
1.459851e+03,5.422394e+03
1.460815e+03,5.416368e+03
1.461780e+03,5.408440e+03
1.462744e+03,5.403189e+03
1.463708e+03,5.400762e+03
1.464672e+03,5.392999e+03
1.465636e+03,5.377658e+03
1.466601e+03,5.365638e+03
1.467565e+03,5.358101e+03
1.468529e+03,5.353926e+03
1.469493e+03,5.350427e+03
1.470458e+03,5.347027e+03
1.471422e+03,5.349320e+03
1.472386e+03,5.356024e+03
1.473350e+03,5.358396e+03
1.474315e+03,5.351521e+03
1.475279e+03,5.341501e+03
1.476243e+03,5.324319e+03
1.477207e+03,5.310690e+03
1.478172e+03,5.317072e+03
1.479136e+03,5.337238e+03
1.480100e+03,5.339259e+03
1.481064e+03,5.317370e+03
1.482028e+03,5.302629e+03
1.482993e+03,5.300061e+03
1.483957e+03,5.303081e+03
1.484921e+03,5.306073e+03
1.485885e+03,5.308459e+03
1.486850e+03,5.308773e+03
1.487814e+03,5.305907e+03
1.488778e+03,5.300221e+03
1.489742e+03,5.291422e+03
1.490707e+03,5.284092e+03
1.491671e+03,5.286542e+03
1.492635e+03,5.289081e+03
1.493599e+03,5.285120e+03
1.494563e+03,5.275296e+03
1.495528e+03,5.263819e+03
1.496492e+03,5.249977e+03
1.497456e+03,5.237405e+03
1.498420e+03,5.228312e+03
1.499385e+03,5.223802e+03
1.500349e+03,5.225989e+03
1.501313e+03,5.232073e+03
1.502277e+03,5.241514e+03
1.503242e+03,5.250692e+03
1.504206e+03,5.253994e+03
1.505170e+03,5.247133e+03
1.506134e+03,5.243619e+03
1.507099e+03,5.245761e+03
1.508063e+03,5.246337e+03
1.509027e+03,5.242193e+03
1.509991e+03,5.236001e+03
1.510955e+03,5.234602e+03
1.511920e+03,5.234218e+03
1.512884e+03,5.224595e+03
1.513848e+03,5.208802e+03
1.514812e+03,5.199189e+03
1.515777e+03,5.200503e+03
1.516741e+03,5.202851e+03
1.517705e+03,5.205161e+03
1.518669e+03,5.204140e+03
1.519634e+03,5.196576e+03
1.520598e+03,5.182311e+03
1.521562e+03,5.177653e+03
1.522526e+03,5.180495e+03
1.523490e+03,5.178875e+03
1.524455e+03,5.168816e+03
1.525419e+03,5.157639e+03
1.526383e+03,5.155038e+03
1.527347e+03,5.152731e+03
1.528312e+03,5.144337e+03
1.529276e+03,5.133007e+03
1.530240e+03,5.124729e+03
1.531204e+03,5.116854e+03
1.532169e+03,5.115118e+03
1.533133e+03,5.121539e+03
1.534097e+03,5.127318e+03
1.535061e+03,5.125510e+03
1.536026e+03,5.117600e+03
1.536990e+03,5.103878e+03
1.537954e+03,5.089531e+03
1.538918e+03,5.084832e+03
1.539882e+03,5.092926e+03
1.540847e+03,5.099693e+03
1.541811e+03,5.103800e+03
1.542775e+03,5.098300e+03
1.543739e+03,5.079214e+03
1.544704e+03,5.056912e+03
1.545668e+03,5.048456e+03
1.546632e+03,5.051694e+03
1.547596e+03,5.054320e+03
1.548561e+03,5.055765e+03
1.549525e+03,5.058790e+03
1.550489e+03,5.066680e+03
1.551453e+03,5.070408e+03
1.552417e+03,5.059321e+03
1.553382e+03,5.047704e+03
1.554346e+03,5.050376e+03
1.555310e+03,5.065733e+03
1.556274e+03,5.069820e+03
1.557239e+03,5.062536e+03
1.558203e+03,5.062032e+03
1.559167e+03,5.073137e+03
1.560131e+03,5.084897e+03
1.561096e+03,5.082968e+03
1.562060e+03,5.083282e+03
1.563024e+03,5.100372e+03
1.563988e+03,5.129110e+03
1.564953e+03,5.155798e+03
1.565917e+03,5.177678e+03
1.566881e+03,5.205705e+03
1.567845e+03,5.240497e+03
1.568809e+03,5.268026e+03
1.569774e+03,5.282170e+03
1.570738e+03,5.284259e+03
1.571702e+03,5.274953e+03
1.572666e+03,5.254830e+03
1.573631e+03,5.219832e+03
1.574595e+03,5.172071e+03
1.575559e+03,5.138857e+03
1.576523e+03,5.125904e+03
1.577488e+03,5.120054e+03
1.578452e+03,5.117716e+03
1.579416e+03,5.114919e+03
1.580380e+03,5.108465e+03
1.581344e+03,5.100439e+03
1.582309e+03,5.098103e+03
1.583273e+03,5.097842e+03
1.584237e+03,5.088598e+03
1.585201e+03,5.062378e+03
1.586166e+03,5.040790e+03
1.587130e+03,5.028138e+03
1.588094e+03,5.012655e+03
1.589058e+03,4.989466e+03
1.590023e+03,4.964140e+03
1.590987e+03,4.945919e+03
1.591951e+03,4.934481e+03
1.592915e+03,4.923775e+03
1.593880e+03,4.911658e+03
1.594844e+03,4.904576e+03
1.595808e+03,4.911181e+03
1.596772e+03,4.916889e+03
1.597736e+03,4.922162e+03
1.598701e+03,4.923967e+03
1.599665e+03,4.915596e+03
1.600629e+03,4.901357e+03
1.601593e+03,4.901720e+03
1.602558e+03,4.911843e+03
1.603522e+03,4.917155e+03
1.604486e+03,4.913014e+03
1.605450e+03,4.904333e+03
1.606415e+03,4.893298e+03
1.607379e+03,4.881214e+03
1.608343e+03,4.865513e+03
1.609307e+03,4.850500e+03
1.610271e+03,4.844972e+03
1.611236e+03,4.847024e+03
1.612200e+03,4.854417e+03
1.613164e+03,4.866028e+03
1.614128e+03,4.871101e+03
1.615093e+03,4.854844e+03
1.616057e+03,4.841491e+03
1.617021e+03,4.837932e+03
1.617985e+03,4.838533e+03
1.618950e+03,4.843271e+03
1.619914e+03,4.850318e+03
1.620878e+03,4.852337e+03
1.621842e+03,4.850075e+03
1.622807e+03,4.842136e+03
1.623771e+03,4.829110e+03
1.624735e+03,4.820440e+03
1.625699e+03,4.818312e+03
1.626663e+03,4.821542e+03
1.627628e+03,4.832352e+03
1.628592e+03,4.840921e+03
1.629556e+03,4.836343e+03
1.630520e+03,4.823726e+03
1.631485e+03,4.823403e+03
1.632449e+03,4.830423e+03
1.633413e+03,4.823604e+03
1.634377e+03,4.786931e+03
1.635342e+03,4.757523e+03
1.636306e+03,4.758405e+03
1.637270e+03,4.760478e+03
1.638234e+03,4.749383e+03
1.639198e+03,4.732509e+03
1.640163e+03,4.725350e+03
1.641127e+03,4.726334e+03
1.642091e+03,4.727141e+03
1.643055e+03,4.725164e+03
1.644020e+03,4.721640e+03
1.644984e+03,4.714292e+03
1.645948e+03,4.706586e+03
1.646912e+03,4.700261e+03
1.647877e+03,4.695135e+03
1.648841e+03,4.691935e+03
1.649805e+03,4.690268e+03
1.650769e+03,4.688289e+03
1.651734e+03,4.684940e+03
1.652698e+03,4.677438e+03
1.653662e+03,4.662089e+03
1.654626e+03,4.653736e+03
1.655590e+03,4.664192e+03
1.656555e+03,4.667990e+03
1.657519e+03,4.658215e+03
1.658483e+03,4.646082e+03
1.659447e+03,4.644921e+03
1.660412e+03,4.648113e+03
1.661376e+03,4.647395e+03
1.662340e+03,4.644549e+03
1.663304e+03,4.642713e+03
1.664269e+03,4.640275e+03
1.665233e+03,4.637428e+03
1.666197e+03,4.631766e+03
1.667161e+03,4.629724e+03
1.668125e+03,4.638874e+03
1.669090e+03,4.648659e+03
1.670054e+03,4.637549e+03
1.671018e+03,4.620459e+03
1.671982e+03,4.621086e+03
1.672947e+03,4.640496e+03
1.673911e+03,4.650116e+03
1.674875e+03,4.644875e+03
1.675839e+03,4.634780e+03
1.676804e+03,4.623291e+03
1.677768e+03,4.612428e+03
1.678732e+03,4.598137e+03
1.679696e+03,4.586662e+03
1.680661e+03,4.587529e+03
1.681625e+03,4.591043e+03
1.682589e+03,4.586688e+03
1.683553e+03,4.575821e+03
1.684517e+03,4.562764e+03
1.685482e+03,4.547266e+03
1.686446e+03,4.543002e+03
1.687410e+03,4.556054e+03
1.688374e+03,4.568550e+03
1.689339e+03,4.565651e+03
1.690303e+03,4.558601e+03
1.691267e+03,4.551174e+03
1.692231e+03,4.546893e+03
1.693196e+03,4.552657e+03
1.694160e+03,4.564839e+03
1.695124e+03,4.566668e+03
1.696088e+03,4.559533e+03
1.697052e+03,4.551085e+03
1.698017e+03,4.538140e+03
1.698981e+03,4.529724e+03
1.699945e+03,4.531891e+03
1.700909e+03,4.528238e+03
1.701874e+03,4.511042e+03
1.702838e+03,4.491351e+03
1.703802e+03,4.488307e+03
1.704766e+03,4.493932e+03
1.705731e+03,4.501079e+03
1.706695e+03,4.508632e+03
1.707659e+03,4.504103e+03
1.708623e+03,4.477396e+03
1.709588e+03,4.467798e+03
1.710552e+03,4.480731e+03
1.711516e+03,4.493232e+03
1.712480e+03,4.485450e+03
1.713444e+03,4.468467e+03
1.714409e+03,4.450674e+03
1.715373e+03,4.436865e+03
1.716337e+03,4.434298e+03
1.717301e+03,4.444081e+03
1.718266e+03,4.450306e+03
1.719230e+03,4.451875e+03
1.720194e+03,4.447943e+03
1.721158e+03,4.437144e+03
1.722123e+03,4.425177e+03
1.723087e+03,4.411937e+03
1.724051e+03,4.404430e+03
1.725015e+03,4.410610e+03
1.725979e+03,4.421187e+03
1.726944e+03,4.419686e+03
1.727908e+03,4.409520e+03
1.728872e+03,4.405702e+03
1.729836e+03,4.405359e+03
1.730801e+03,4.401521e+03
1.731765e+03,4.387947e+03
1.732729e+03,4.383068e+03
1.733693e+03,4.392649e+03
1.734658e+03,4.399021e+03
1.735622e+03,4.392599e+03
1.736586e+03,4.381743e+03
1.737550e+03,4.376401e+03
1.738515e+03,4.375854e+03
1.739479e+03,4.383384e+03
1.740443e+03,4.395690e+03
1.741407e+03,4.396749e+03
1.742371e+03,4.385456e+03
1.743336e+03,4.373081e+03
1.744300e+03,4.360358e+03
1.745264e+03,4.347119e+03
1.746228e+03,4.331397e+03
1.747193e+03,4.322426e+03
1.748157e+03,4.336171e+03
1.749121e+03,4.350412e+03
1.750085e+03,4.341817e+03
1.751050e+03,4.317212e+03
1.752014e+03,4.314104e+03
1.752978e+03,4.325744e+03
1.753942e+03,4.333876e+03
1.754906e+03,4.334427e+03
1.755871e+03,4.329922e+03
1.756835e+03,4.316234e+03
1.757799e+03,4.302469e+03
1.758763e+03,4.294571e+03
1.759728e+03,4.289640e+03
1.760692e+03,4.282033e+03
1.761656e+03,4.276974e+03
1.762620e+03,4.283528e+03
1.763585e+03,4.290490e+03
1.764549e+03,4.279440e+03
1.765513e+03,4.249296e+03
1.766477e+03,4.236417e+03
1.767442e+03,4.239659e+03
1.768406e+03,4.246161e+03
1.769370e+03,4.253254e+03
1.770334e+03,4.257866e+03
1.771298e+03,4.254156e+03
1.772263e+03,4.248956e+03
1.773227e+03,4.245579e+03
1.774191e+03,4.241888e+03
1.775155e+03,4.233351e+03
1.776120e+03,4.222154e+03
1.777084e+03,4.210427e+03
1.778048e+03,4.200454e+03
1.779012e+03,4.197658e+03
1.779977e+03,4.205687e+03
1.780941e+03,4.207783e+03
1.781905e+03,4.202273e+03
1.782869e+03,4.199171e+03
1.783833e+03,4.205982e+03
1.784798e+03,4.208078e+03
1.785762e+03,4.189833e+03
1.786726e+03,4.171097e+03
1.787690e+03,4.162214e+03
1.788655e+03,4.159453e+03
1.789619e+03,4.153739e+03
1.790583e+03,4.147950e+03
1.791547e+03,4.147174e+03
1.792512e+03,4.151418e+03
1.793476e+03,4.157868e+03
1.794440e+03,4.166808e+03
1.795404e+03,4.167179e+03
1.796369e+03,4.156745e+03
1.797333e+03,4.147353e+03
1.798297e+03,4.147760e+03
1.799261e+03,4.149725e+03
1.800225e+03,4.147603e+03
1.801190e+03,4.141369e+03
1.802154e+03,4.131343e+03
1.803118e+03,4.119846e+03
1.804082e+03,4.117240e+03
1.805047e+03,4.120366e+03
1.806011e+03,4.116973e+03
1.806975e+03,4.106701e+03
1.807939e+03,4.106255e+03
1.808904e+03,4.121813e+03
1.809868e+03,4.124275e+03
1.810832e+03,4.111323e+03
1.811796e+03,4.099579e+03
1.812760e+03,4.103002e+03
1.813725e+03,4.108080e+03
1.814689e+03,4.109566e+03
1.815653e+03,4.105400e+03
1.816617e+03,4.090511e+03
1.817582e+03,4.071892e+03
1.818546e+03,4.077564e+03
1.819510e+03,4.094221e+03
1.820474e+03,4.090298e+03
1.821439e+03,4.061742e+03
1.822403e+03,4.047226e+03
1.823367e+03,4.053113e+03
1.824331e+03,4.055390e+03
1.825296e+03,4.049033e+03
1.826260e+03,4.041461e+03
1.827224e+03,4.042177e+03
1.828188e+03,4.046081e+03
1.829152e+03,4.050380e+03
1.830117e+03,4.051206e+03
1.831081e+03,4.043672e+03
1.832045e+03,4.030227e+03
1.833009e+03,4.020752e+03
1.833974e+03,4.017926e+03
1.834938e+03,4.022510e+03
1.835902e+03,4.034038e+03
1.836866e+03,4.034009e+03
1.837831e+03,4.021366e+03
1.838795e+03,4.006476e+03
1.839759e+03,3.993010e+03
1.840723e+03,3.984478e+03
1.841688e+03,3.981465e+03
1.842652e+03,3.983454e+03
1.843616e+03,3.989615e+03
1.844580e+03,3.995022e+03
1.845544e+03,3.998458e+03
1.846509e+03,3.999000e+03
1.847473e+03,3.991599e+03
1.848437e+03,3.979946e+03
1.849401e+03,3.971251e+03
1.850366e+03,3.966424e+03
1.851330e+03,3.957476e+03
1.852294e+03,3.946410e+03
1.853258e+03,3.939968e+03
1.854223e+03,3.939810e+03
1.855187e+03,3.942805e+03
1.856151e+03,3.952621e+03
1.857115e+03,3.951594e+03
1.858079e+03,3.932591e+03
1.859044e+03,3.912649e+03
1.860008e+03,3.913565e+03
1.860972e+03,3.922531e+03
1.861936e+03,3.930306e+03
1.862901e+03,3.934562e+03
1.863865e+03,3.929601e+03
1.864829e+03,3.914679e+03
1.865793e+03,3.903511e+03
1.866758e+03,3.897678e+03
1.867722e+03,3.899757e+03
1.868686e+03,3.912142e+03
1.869650e+03,3.914236e+03
1.870615e+03,3.901231e+03
1.871579e+03,3.892001e+03
1.872543e+03,3.893980e+03
1.873507e+03,3.896814e+03
1.874471e+03,3.883055e+03
1.875436e+03,3.870732e+03
1.876400e+03,3.871363e+03
1.877364e+03,3.877059e+03
1.878328e+03,3.880896e+03
1.879293e+03,3.881537e+03
1.880257e+03,3.872929e+03
1.881221e+03,3.858631e+03
1.882185e+03,3.849093e+03
1.883150e+03,3.845959e+03
1.884114e+03,3.837685e+03
1.885078e+03,3.824585e+03
1.886042e+03,3.817060e+03
1.887006e+03,3.818612e+03
1.887971e+03,3.819834e+03
1.888935e+03,3.819580e+03
1.889899e+03,3.821175e+03
1.890863e+03,3.823753e+03
1.891828e+03,3.823452e+03
1.892792e+03,3.818450e+03
1.893756e+03,3.810656e+03
1.894720e+03,3.802508e+03
1.895685e+03,3.797833e+03
1.896649e+03,3.797770e+03
1.897613e+03,3.799417e+03
1.898577e+03,3.800019e+03
1.899542e+03,3.798865e+03
1.900506e+03,3.792134e+03
1.901470e+03,3.777986e+03
1.902434e+03,3.766819e+03
1.903398e+03,3.758948e+03
1.904363e+03,3.756680e+03
1.905327e+03,3.761401e+03
1.906291e+03,3.767764e+03
1.907255e+03,3.775148e+03
1.908220e+03,3.774684e+03
1.909184e+03,3.763301e+03
1.910148e+03,3.750150e+03
1.911112e+03,3.748971e+03
1.912077e+03,3.748773e+03
1.913041e+03,3.737141e+03
1.914005e+03,3.723228e+03
1.914969e+03,3.716857e+03
1.915933e+03,3.715737e+03
1.916898e+03,3.712521e+03
1.917862e+03,3.708071e+03
1.918826e+03,3.700512e+03
1.919790e+03,3.690467e+03
1.920755e+03,3.695574e+03
1.921719e+03,3.712631e+03
1.922683e+03,3.714554e+03
1.923647e+03,3.696775e+03
1.924612e+03,3.681810e+03
1.925576e+03,3.682760e+03
1.926540e+03,3.681907e+03
1.927504e+03,3.673553e+03
1.928469e+03,3.668067e+03
1.929433e+03,3.681003e+03
1.930397e+03,3.691809e+03
1.931361e+03,3.680257e+03
1.932325e+03,3.665238e+03
1.933290e+03,3.664432e+03
1.934254e+03,3.673261e+03
1.935218e+03,3.674201e+03
1.936182e+03,3.668403e+03
1.937147e+03,3.662804e+03
1.938111e+03,3.658919e+03
1.939075e+03,3.653155e+03
1.940039e+03,3.647306e+03
1.941004e+03,3.640292e+03
1.941968e+03,3.630023e+03
1.942932e+03,3.624862e+03
1.943896e+03,3.632588e+03
1.944860e+03,3.633930e+03
1.945825e+03,3.628648e+03
1.946789e+03,3.618625e+03
1.947753e+03,3.594651e+03
1.948717e+03,3.577543e+03
1.949682e+03,3.574823e+03
1.950646e+03,3.581833e+03
1.951610e+03,3.600414e+03
1.952574e+03,3.620782e+03
1.953539e+03,3.630053e+03
1.954503e+03,3.631298e+03
1.955467e+03,3.628516e+03
1.956431e+03,3.622646e+03
1.957396e+03,3.610419e+03
1.958360e+03,3.594149e+03
1.959324e+03,3.582405e+03
1.960288e+03,3.576457e+03
1.961252e+03,3.567285e+03
1.962217e+03,3.551202e+03
1.963181e+03,3.550102e+03
1.964145e+03,3.562606e+03
1.965109e+03,3.572011e+03
1.966074e+03,3.570242e+03
1.967038e+03,3.569395e+03
1.968002e+03,3.567395e+03
1.968966e+03,3.560942e+03
1.969931e+03,3.547880e+03
1.970895e+03,3.533193e+03
1.971859e+03,3.522472e+03
1.972823e+03,3.516946e+03
1.973787e+03,3.516102e+03
1.974752e+03,3.516406e+03
1.975716e+03,3.516312e+03
1.976680e+03,3.512921e+03
1.977644e+03,3.502184e+03
1.978609e+03,3.491379e+03
1.979573e+03,3.490510e+03
1.980537e+03,3.495396e+03
1.981501e+03,3.496182e+03
1.982466e+03,3.493299e+03
1.983430e+03,3.486265e+03
1.984394e+03,3.473926e+03
1.985358e+03,3.466448e+03
1.986323e+03,3.463169e+03
1.987287e+03,3.464048e+03
1.988251e+03,3.470073e+03
1.989215e+03,3.470699e+03
1.990179e+03,3.464396e+03
1.991144e+03,3.462519e+03
1.992108e+03,3.470020e+03
1.993072e+03,3.472020e+03
1.994036e+03,3.446756e+03
1.995001e+03,3.427448e+03
1.995965e+03,3.423644e+03
1.996929e+03,3.426320e+03
1.997893e+03,3.426051e+03
1.998858e+03,3.424581e+03
1.999822e+03,3.426811e+03
2.000786e+03,3.425142e+03
2.001750e+03,3.413210e+03
2.002714e+03,3.399128e+03
2.003679e+03,3.396959e+03
2.004643e+03,3.399093e+03
2.005607e+03,3.395444e+03
2.006571e+03,3.388367e+03
2.007536e+03,3.385183e+03
2.008500e+03,3.385077e+03
2.009464e+03,3.384329e+03
2.010428e+03,3.383390e+03
2.011393e+03,3.382872e+03
2.012357e+03,3.382701e+03
2.013321e+03,3.380078e+03
2.014285e+03,3.373222e+03
2.015250e+03,3.369827e+03
2.016214e+03,3.383532e+03
2.017178e+03,3.379837e+03
2.018142e+03,3.356344e+03
2.019106e+03,3.338479e+03
2.020071e+03,3.341147e+03
2.021035e+03,3.346023e+03
2.021999e+03,3.346498e+03
2.022963e+03,3.340491e+03
2.023928e+03,3.325464e+03
2.024892e+03,3.314188e+03
2.025856e+03,3.329370e+03
2.026820e+03,3.342454e+03
2.027785e+03,3.333237e+03
2.028749e+03,3.315360e+03
2.029713e+03,3.307741e+03
2.030677e+03,3.306554e+03
2.031641e+03,3.307888e+03
2.032606e+03,3.309201e+03
2.033570e+03,3.306423e+03
2.034534e+03,3.300355e+03
2.035498e+03,3.300002e+03
2.036463e+03,3.301067e+03
2.037427e+03,3.288564e+03
2.038391e+03,3.264775e+03
2.039355e+03,3.259505e+03
2.040320e+03,3.269019e+03
2.041284e+03,3.276204e+03
2.042248e+03,3.276304e+03
2.043212e+03,3.270721e+03
2.044177e+03,3.260507e+03
2.045141e+03,3.252763e+03
2.046105e+03,3.247861e+03
2.047069e+03,3.245153e+03
2.048033e+03,3.243898e+03
2.048998e+03,3.242417e+03
2.049962e+03,3.241899e+03
2.050926e+03,3.239042e+03
2.051890e+03,3.229195e+03
2.052854e+03,3.219506e+03
2.053819e+03,3.208667e+03
2.054783e+03,3.202697e+03
2.055747e+03,3.210081e+03
2.056711e+03,3.219273e+03
2.057676e+03,3.215597e+03
2.058640e+03,3.213931e+03
2.059604e+03,3.221687e+03
2.060568e+03,3.228368e+03
2.061533e+03,3.215777e+03
2.062497e+03,3.200579e+03
2.063461e+03,3.204072e+03
2.064425e+03,3.211164e+03
2.065390e+03,3.196132e+03
2.066354e+03,3.171753e+03
2.067318e+03,3.164260e+03
2.068282e+03,3.167586e+03
2.069247e+03,3.162915e+03
2.070211e+03,3.152274e+03
2.071175e+03,3.161538e+03
2.072139e+03,3.180500e+03
2.073104e+03,3.180723e+03
2.074068e+03,3.160971e+03
2.075032e+03,3.153291e+03
2.075996e+03,3.154525e+03
2.076960e+03,3.158739e+03
2.077925e+03,3.164094e+03
2.078889e+03,3.156968e+03
2.079853e+03,3.136331e+03
2.080817e+03,3.128623e+03
2.081782e+03,3.135585e+03
2.082746e+03,3.133833e+03
2.083710e+03,3.110222e+03
2.084674e+03,3.097488e+03
2.085639e+03,3.099134e+03
2.086603e+03,3.107327e+03
2.087567e+03,3.116774e+03
2.088531e+03,3.122751e+03
2.089496e+03,3.124042e+03
2.090460e+03,3.116813e+03
2.091424e+03,3.101897e+03
2.092388e+03,3.090399e+03
2.093353e+03,3.087594e+03
2.094317e+03,3.088050e+03
2.095281e+03,3.086785e+03
2.096245e+03,3.088151e+03
2.097209e+03,3.109412e+03
2.098174e+03,3.115466e+03
2.099138e+03,3.088141e+03
2.100102e+03,3.058860e+03
2.101066e+03,3.069971e+03
2.102031e+03,3.084981e+03
2.102995e+03,3.063691e+03
2.103959e+03,3.037492e+03
2.104923e+03,3.031944e+03
2.105887e+03,3.039703e+03
2.106852e+03,3.047320e+03
2.107816e+03,3.052754e+03
2.108780e+03,3.058603e+03
2.109744e+03,3.061522e+03
2.110708e+03,3.051175e+03
2.111673e+03,3.038566e+03
2.112637e+03,3.040226e+03
2.113601e+03,3.046301e+03
2.114565e+03,3.034476e+03
2.115530e+03,3.013455e+03
2.116494e+03,2.999206e+03
2.117458e+03,2.997908e+03
2.118422e+03,3.009721e+03
2.119387e+03,3.028817e+03
2.120351e+03,3.037801e+03
2.121315e+03,3.036085e+03
2.122279e+03,3.030718e+03
2.123244e+03,3.022472e+03
2.124208e+03,3.008352e+03
2.125172e+03,2.990566e+03
2.126136e+03,2.970775e+03
2.127101e+03,2.948896e+03
2.128065e+03,2.940826e+03
2.129029e+03,2.945286e+03
2.129993e+03,2.963255e+03
2.130958e+03,2.991892e+03
2.131922e+03,2.994539e+03
2.132886e+03,2.968375e+03
2.133850e+03,2.951992e+03
2.134814e+03,2.952079e+03
2.135779e+03,2.954691e+03
2.136743e+03,2.953005e+03
2.137707e+03,2.954751e+03
2.138671e+03,2.960835e+03
2.139636e+03,2.959946e+03
2.140600e+03,2.940218e+03
2.141564e+03,2.926252e+03
2.142528e+03,2.920263e+03
2.143493e+03,2.917992e+03
2.144457e+03,2.917896e+03
2.145421e+03,2.913087e+03
2.146385e+03,2.900854e+03
2.147350e+03,2.892878e+03
2.148314e+03,2.894050e+03
2.149278e+03,2.900439e+03
2.150242e+03,2.911368e+03
2.151207e+03,2.913438e+03
2.152171e+03,2.902291e+03
2.153135e+03,2.893188e+03
2.154099e+03,2.910629e+03
2.155063e+03,2.918929e+03
2.156028e+03,2.909984e+03
2.156992e+03,2.898421e+03
2.157956e+03,2.887913e+03
2.158920e+03,2.880072e+03
2.159885e+03,2.875488e+03
2.160849e+03,2.874384e+03
2.161813e+03,2.878574e+03
2.162777e+03,2.881440e+03
2.163741e+03,2.879874e+03
2.164706e+03,2.871236e+03
2.165670e+03,2.854473e+03
2.166634e+03,2.843907e+03
2.167598e+03,2.860399e+03
2.168563e+03,2.874832e+03
2.169527e+03,2.871991e+03
2.170491e+03,2.860023e+03
2.171455e+03,2.846361e+03
2.172420e+03,2.836051e+03
2.173384e+03,2.834117e+03
2.174348e+03,2.834591e+03
2.175312e+03,2.831777e+03
2.176277e+03,2.827275e+03
2.177241e+03,2.824383e+03
2.178205e+03,2.819546e+03
2.179169e+03,2.810136e+03
2.180134e+03,2.803902e+03
2.181098e+03,2.814087e+03
2.182062e+03,2.824058e+03
2.183026e+03,2.819904e+03
2.183990e+03,2.809443e+03
2.184955e+03,2.799708e+03
2.185919e+03,2.796391e+03
2.186883e+03,2.807317e+03
2.187847e+03,2.816570e+03
2.188812e+03,2.799537e+03
2.189776e+03,2.778357e+03
2.190740e+03,2.779171e+03
2.191704e+03,2.784150e+03
2.192668e+03,2.776731e+03
2.193633e+03,2.766721e+03
2.194597e+03,2.769923e+03
2.195561e+03,2.775736e+03
2.196525e+03,2.772438e+03
2.197490e+03,2.765230e+03
2.198454e+03,2.764830e+03
2.199418e+03,2.763986e+03
2.200382e+03,2.755215e+03
2.201347e+03,2.747304e+03
2.202311e+03,2.754351e+03
2.203275e+03,2.766484e+03
2.204239e+03,2.774230e+03
2.205204e+03,2.774093e+03
2.206168e+03,2.762218e+03
2.207132e+03,2.746839e+03
2.208096e+03,2.733780e+03
2.209061e+03,2.722475e+03
2.210025e+03,2.716458e+03
2.210989e+03,2.712153e+03
2.211953e+03,2.702967e+03
2.212917e+03,2.698832e+03
2.213882e+03,2.700366e+03
2.214846e+03,2.706688e+03
2.215810e+03,2.728806e+03
2.216774e+03,2.746177e+03
2.217739e+03,2.746237e+03
2.218703e+03,2.735401e+03
2.219667e+03,2.716047e+03
2.220631e+03,2.698595e+03
2.221595e+03,2.694055e+03
2.222560e+03,2.692483e+03
2.223524e+03,2.678548e+03
2.224488e+03,2.662183e+03
2.225452e+03,2.656173e+03
2.226417e+03,2.655834e+03
2.227381e+03,2.655442e+03
2.228345e+03,2.659318e+03
2.229309e+03,2.677526e+03
2.230274e+03,2.691968e+03
2.231238e+03,2.686061e+03
2.232202e+03,2.670793e+03
2.233166e+03,2.662560e+03
2.234131e+03,2.659101e+03
2.235095e+03,2.657968e+03
2.236059e+03,2.656859e+03
2.237023e+03,2.650092e+03
2.237988e+03,2.642426e+03
2.238952e+03,2.636002e+03
2.239916e+03,2.630297e+03
2.240880e+03,2.629089e+03
2.241844e+03,2.628479e+03
2.242809e+03,2.625567e+03
2.243773e+03,2.621067e+03
2.244737e+03,2.612367e+03
2.245701e+03,2.602819e+03
2.246666e+03,2.592522e+03
2.247630e+03,2.586700e+03
2.248594e+03,2.597000e+03
2.249558e+03,2.608593e+03
2.250522e+03,2.598530e+03
2.251487e+03,2.594204e+03
2.252451e+03,2.610466e+03
2.253415e+03,2.622467e+03
2.254379e+03,2.601666e+03
2.255344e+03,2.581247e+03
2.256308e+03,2.575544e+03
2.257272e+03,2.572998e+03
2.258236e+03,2.559952e+03
2.259201e+03,2.550370e+03
2.260165e+03,2.546987e+03
2.261129e+03,2.549107e+03
2.262093e+03,2.565785e+03
2.263058e+03,2.569047e+03
2.264022e+03,2.551959e+03
2.264986e+03,2.536172e+03
2.265950e+03,2.533242e+03
2.266915e+03,2.535638e+03
2.267879e+03,2.540719e+03
2.268843e+03,2.539933e+03
2.269807e+03,2.532098e+03
2.270771e+03,2.521178e+03
2.271736e+03,2.506486e+03
2.272700e+03,2.503110e+03
2.273664e+03,2.514297e+03
2.274628e+03,2.521702e+03
2.275593e+03,2.514519e+03
2.276557e+03,2.509000e+03
2.277521e+03,2.509576e+03
2.278485e+03,2.508798e+03
2.279449e+03,2.499489e+03
2.280414e+03,2.498611e+03
2.281378e+03,2.506372e+03
2.282342e+03,2.509475e+03
2.283306e+03,2.495021e+03
2.284271e+03,2.482433e+03
2.285235e+03,2.471399e+03
2.286199e+03,2.464615e+03
2.287163e+03,2.467265e+03
2.288128e+03,2.478555e+03
2.289092e+03,2.494192e+03
2.290056e+03,2.495482e+03
2.291020e+03,2.477776e+03
2.291985e+03,2.458450e+03
2.292949e+03,2.441110e+03
2.293913e+03,2.432704e+03
2.294877e+03,2.433435e+03
2.295842e+03,2.442112e+03
2.296806e+03,2.455253e+03
2.297770e+03,2.461628e+03
2.298734e+03,2.460574e+03
2.299698e+03,2.453868e+03
2.300663e+03,2.444102e+03
2.301627e+03,2.442473e+03
2.302591e+03,2.444922e+03
2.303555e+03,2.444405e+03
2.304520e+03,2.440818e+03
2.305484e+03,2.427454e+03
2.306448e+03,2.414355e+03
2.307412e+03,2.419782e+03
2.308376e+03,2.434061e+03
2.309341e+03,2.438089e+03
2.310305e+03,2.433028e+03
2.311269e+03,2.417151e+03
2.312233e+03,2.402265e+03
2.313198e+03,2.410264e+03
2.314162e+03,2.420342e+03
2.315126e+03,2.407108e+03
2.316090e+03,2.388470e+03
2.317055e+03,2.386044e+03
2.318019e+03,2.387161e+03
2.318983e+03,2.373709e+03
2.319947e+03,2.365979e+03
2.320912e+03,2.390009e+03
2.321876e+03,2.413653e+03
2.322840e+03,2.407993e+03
2.323804e+03,2.397309e+03
2.324769e+03,2.391354e+03
2.325733e+03,2.388890e+03
2.326697e+03,2.388242e+03
2.327661e+03,2.389191e+03
2.328625e+03,2.390642e+03
2.329590e+03,2.386833e+03
2.330554e+03,2.373644e+03
2.331518e+03,2.364612e+03
2.332482e+03,2.361619e+03
2.333447e+03,2.357456e+03
2.334411e+03,2.345117e+03
2.335375e+03,2.341656e+03
2.336339e+03,2.347583e+03
2.337303e+03,2.351285e+03
2.338268e+03,2.346422e+03
2.339232e+03,2.339234e+03
2.340196e+03,2.330957e+03
2.341160e+03,2.324175e+03
2.342125e+03,2.318920e+03
2.343089e+03,2.325739e+03
2.344053e+03,2.337941e+03
2.345017e+03,2.342179e+03
2.345982e+03,2.337907e+03
2.346946e+03,2.331120e+03
2.347910e+03,2.324516e+03
2.348874e+03,2.319070e+03
2.349839e+03,2.313663e+03
2.350803e+03,2.310023e+03
2.351767e+03,2.309682e+03
2.352731e+03,2.318145e+03
2.353696e+03,2.328537e+03
2.354660e+03,2.327618e+03
2.355624e+03,2.318386e+03
2.356588e+03,2.302960e+03
2.357552e+03,2.290341e+03
2.358517e+03,2.289850e+03
2.359481e+03,2.293544e+03
2.360445e+03,2.290094e+03
2.361409e+03,2.288056e+03
2.362374e+03,2.295220e+03
2.363338e+03,2.296638e+03
2.364302e+03,2.271058e+03
2.365266e+03,2.258948e+03
2.366230e+03,2.272081e+03
2.367195e+03,2.284956e+03
2.368159e+03,2.277065e+03
2.369123e+03,2.270181e+03
2.370087e+03,2.269313e+03
2.371052e+03,2.268042e+03
2.372016e+03,2.262905e+03
2.372980e+03,2.259224e+03
2.373944e+03,2.256614e+03
2.374909e+03,2.257932e+03
2.375873e+03,2.267165e+03
2.376837e+03,2.266519e+03
2.377801e+03,2.257773e+03
2.378766e+03,2.243774e+03
2.379730e+03,2.226374e+03
2.380694e+03,2.226626e+03
2.381658e+03,2.238807e+03
2.382623e+03,2.244513e+03
2.383587e+03,2.243720e+03
2.384551e+03,2.241069e+03
2.385515e+03,2.235556e+03
2.386479e+03,2.226570e+03
2.387444e+03,2.217586e+03
2.388408e+03,2.215834e+03
2.389372e+03,2.214922e+03
2.390336e+03,2.202604e+03
2.391301e+03,2.193868e+03
2.392265e+03,2.212125e+03
2.393229e+03,2.224653e+03
2.394193e+03,2.209145e+03
2.395157e+03,2.193267e+03
2.396122e+03,2.195370e+03
2.397086e+03,2.199795e+03
2.398050e+03,2.202673e+03
2.399014e+03,2.202677e+03
2.399979e+03,2.197348e+03
2.400943e+03,2.196935e+03
2.401907e+03,2.202623e+03
2.402871e+03,2.199638e+03
2.403836e+03,2.185422e+03
2.404800e+03,2.183060e+03
2.405764e+03,2.192222e+03
2.406728e+03,2.189851e+03
2.407693e+03,2.174974e+03
2.408657e+03,2.166765e+03
2.409621e+03,2.165868e+03
2.410585e+03,2.167254e+03
2.411550e+03,2.169044e+03
2.412514e+03,2.166326e+03
2.413478e+03,2.160796e+03
2.414442e+03,2.157573e+03
2.415406e+03,2.155008e+03
2.416371e+03,2.149845e+03
2.417335e+03,2.145697e+03
2.418299e+03,2.150685e+03
2.419263e+03,2.153754e+03
2.420228e+03,2.149133e+03
2.421192e+03,2.138596e+03
2.422156e+03,2.114833e+03
2.423120e+03,2.105272e+03
2.424084e+03,2.115837e+03
2.425049e+03,2.127402e+03
2.426013e+03,2.135192e+03
2.426977e+03,2.131913e+03
2.427941e+03,2.119181e+03
2.428906e+03,2.115992e+03
2.429870e+03,2.127490e+03
2.430834e+03,2.134175e+03
2.431798e+03,2.136150e+03
2.432763e+03,2.132587e+03
2.433727e+03,2.123949e+03
2.434691e+03,2.116309e+03
2.435655e+03,2.110686e+03
2.436620e+03,2.111056e+03
2.437584e+03,2.113568e+03
2.438548e+03,2.105821e+03
2.439512e+03,2.099484e+03
2.440477e+03,2.107438e+03
2.441441e+03,2.115012e+03
2.442405e+03,2.100502e+03
2.443369e+03,2.086899e+03
2.444333e+03,2.086271e+03
2.445298e+03,2.088235e+03
2.446262e+03,2.082236e+03
2.447226e+03,2.079365e+03
2.448190e+03,2.082839e+03
2.449155e+03,2.082597e+03
2.450119e+03,2.071625e+03
2.451083e+03,2.058752e+03
2.452047e+03,2.044967e+03
2.453011e+03,2.045984e+03
2.453976e+03,2.067521e+03
2.454940e+03,2.067619e+03
2.455904e+03,2.054736e+03
2.456868e+03,2.046178e+03
2.457833e+03,2.043573e+03
2.458797e+03,2.061168e+03
2.459761e+03,2.081213e+03
2.460725e+03,2.075173e+03
2.461690e+03,2.057797e+03
2.462654e+03,2.046430e+03
2.463618e+03,2.039848e+03
2.464582e+03,2.038713e+03
2.465547e+03,2.038666e+03
2.466511e+03,2.031581e+03
2.467475e+03,2.024225e+03
2.468439e+03,2.017805e+03
2.469404e+03,2.014855e+03
2.470368e+03,2.023254e+03
2.471332e+03,2.028800e+03
2.472296e+03,2.029739e+03
2.473260e+03,2.025699e+03
2.474225e+03,2.016499e+03
2.475189e+03,2.009633e+03
2.476153e+03,2.006769e+03
2.477117e+03,2.008882e+03
2.478082e+03,2.014336e+03
2.479046e+03,2.028052e+03
2.480010e+03,2.037067e+03
2.480974e+03,2.021210e+03
2.481938e+03,1.998361e+03
2.482903e+03,1.987501e+03
2.483867e+03,1.986090e+03
2.484831e+03,1.992697e+03
2.485795e+03,1.997140e+03
2.486760e+03,1.989987e+03
2.487724e+03,1.984128e+03
2.488688e+03,1.982326e+03
2.489652e+03,1.986867e+03
2.490617e+03,2.005182e+03
2.491581e+03,2.002611e+03
2.492545e+03,1.984178e+03
2.493509e+03,1.976129e+03
2.494474e+03,1.979755e+03
2.495438e+03,1.969785e+03
2.496402e+03,1.954713e+03
2.497366e+03,1.955212e+03
2.498331e+03,1.964591e+03
2.499295e+03,1.975015e+03
2.500259e+03,1.979605e+03
2.501223e+03,1.974428e+03
2.502188e+03,1.967009e+03
2.503152e+03,1.965032e+03
2.504116e+03,1.961426e+03
2.505080e+03,1.954226e+03
2.506044e+03,1.946292e+03
2.507009e+03,1.932315e+03
2.507973e+03,1.934886e+03
2.508937e+03,1.953443e+03
2.509901e+03,1.960486e+03
2.510865e+03,1.948003e+03
2.511830e+03,1.939550e+03
2.512794e+03,1.933406e+03
2.513758e+03,1.930287e+03
2.514722e+03,1.929745e+03
2.515687e+03,1.928016e+03
2.516651e+03,1.924926e+03
2.517615e+03,1.919833e+03
2.518579e+03,1.915023e+03
2.519544e+03,1.915013e+03
2.520508e+03,1.913392e+03
2.521472e+03,1.908103e+03
2.522436e+03,1.903679e+03
2.523401e+03,1.903570e+03
2.524365e+03,1.906123e+03
2.525329e+03,1.909443e+03
2.526293e+03,1.910282e+03
2.527258e+03,1.909522e+03
2.528222e+03,1.906126e+03
2.529186e+03,1.901479e+03
2.530150e+03,1.901109e+03
2.531115e+03,1.903383e+03
2.532079e+03,1.895727e+03
2.533043e+03,1.888139e+03
2.534007e+03,1.890699e+03
2.534971e+03,1.895050e+03
2.535936e+03,1.894366e+03
2.536900e+03,1.892663e+03
2.537864e+03,1.891667e+03
2.538828e+03,1.885939e+03
2.539792e+03,1.866339e+03
2.540757e+03,1.856743e+03
2.541721e+03,1.859451e+03
2.542685e+03,1.861864e+03
2.543649e+03,1.863266e+03
2.544614e+03,1.868367e+03
2.545578e+03,1.875802e+03
2.546542e+03,1.886675e+03
2.547506e+03,1.897260e+03
2.548471e+03,1.896360e+03
2.549435e+03,1.887979e+03
2.550399e+03,1.874038e+03
2.551363e+03,1.860209e+03
2.552328e+03,1.851863e+03
2.553292e+03,1.847979e+03
2.554256e+03,1.849575e+03
2.555220e+03,1.850917e+03
2.556185e+03,1.850586e+03
2.557149e+03,1.842354e+03
2.558113e+03,1.826245e+03
2.559077e+03,1.825266e+03
2.560042e+03,1.834726e+03
2.561006e+03,1.843076e+03
2.561970e+03,1.849898e+03
2.562934e+03,1.849287e+03
2.563898e+03,1.845418e+03
2.564863e+03,1.841654e+03
2.565827e+03,1.836785e+03
2.566791e+03,1.833883e+03
2.567755e+03,1.830113e+03
2.568719e+03,1.822316e+03
2.569684e+03,1.814337e+03
2.570648e+03,1.806752e+03
2.571612e+03,1.814506e+03
2.572576e+03,1.834309e+03
2.573541e+03,1.832082e+03
2.574505e+03,1.809592e+03
2.575469e+03,1.811702e+03
2.576433e+03,1.821888e+03
2.577398e+03,1.816532e+03
2.578362e+03,1.805921e+03
2.579326e+03,1.800431e+03
2.580290e+03,1.803681e+03
2.581255e+03,1.816791e+03
2.582219e+03,1.823798e+03
2.583183e+03,1.808792e+03
2.584147e+03,1.796259e+03
2.585112e+03,1.789781e+03
2.586076e+03,1.784664e+03
2.587040e+03,1.779647e+03
2.588004e+03,1.778164e+03
2.588969e+03,1.780161e+03
2.589933e+03,1.790120e+03
2.590897e+03,1.801723e+03
2.591861e+03,1.800252e+03
2.592825e+03,1.795199e+03
2.593790e+03,1.791479e+03
2.594754e+03,1.788365e+03
2.595718e+03,1.787640e+03
2.596682e+03,1.778435e+03
2.597646e+03,1.756868e+03
2.598611e+03,1.746356e+03
2.599575e+03,1.749622e+03
2.600539e+03,1.754735e+03
2.601503e+03,1.759698e+03
2.602468e+03,1.765963e+03
2.603432e+03,1.769706e+03
2.604396e+03,1.761581e+03
2.605360e+03,1.753115e+03
2.606325e+03,1.754907e+03
2.607289e+03,1.754352e+03
2.608253e+03,1.745148e+03
2.609217e+03,1.742780e+03
2.610182e+03,1.756657e+03
2.611146e+03,1.755330e+03
2.612110e+03,1.741006e+03
2.613074e+03,1.737302e+03
2.614039e+03,1.745485e+03
2.615003e+03,1.749432e+03
2.615967e+03,1.745237e+03
2.616931e+03,1.727772e+03
2.617896e+03,1.710975e+03
2.618860e+03,1.712680e+03
2.619824e+03,1.720862e+03
2.620788e+03,1.730142e+03
2.621752e+03,1.737337e+03
2.622717e+03,1.743888e+03
2.623681e+03,1.737318e+03
2.624645e+03,1.719418e+03
2.625609e+03,1.714962e+03
2.626573e+03,1.722683e+03
2.627538e+03,1.726379e+03
2.628502e+03,1.723926e+03
2.629466e+03,1.708967e+03
2.630430e+03,1.692677e+03
2.631395e+03,1.689046e+03
2.632359e+03,1.691609e+03
2.633323e+03,1.700494e+03
2.634287e+03,1.708976e+03
2.635252e+03,1.716204e+03
2.636216e+03,1.722436e+03
2.637180e+03,1.725838e+03
2.638144e+03,1.724637e+03
2.639109e+03,1.718147e+03
2.640073e+03,1.704692e+03
2.641037e+03,1.690468e+03
2.642001e+03,1.675654e+03
2.642966e+03,1.667931e+03
2.643930e+03,1.671504e+03
2.644894e+03,1.676743e+03
2.645858e+03,1.678372e+03
2.646823e+03,1.678488e+03
2.647787e+03,1.676689e+03
2.648751e+03,1.681069e+03
2.649715e+03,1.690567e+03
2.650679e+03,1.684764e+03
2.651644e+03,1.674057e+03
2.652608e+03,1.675637e+03
2.653572e+03,1.679846e+03
2.654536e+03,1.671544e+03
2.655500e+03,1.663737e+03
2.656465e+03,1.661502e+03
2.657429e+03,1.658962e+03
2.658393e+03,1.653147e+03
2.659357e+03,1.641477e+03
2.660322e+03,1.628474e+03
2.661286e+03,1.630887e+03
2.662250e+03,1.643484e+03
2.663214e+03,1.653435e+03
2.664179e+03,1.660955e+03
2.665143e+03,1.670140e+03
2.666107e+03,1.673680e+03
2.667071e+03,1.668655e+03
2.668036e+03,1.657961e+03
2.669000e+03,1.633629e+03
2.669964e+03,1.627101e+03
2.670928e+03,1.636291e+03
2.671893e+03,1.650118e+03
2.672857e+03,1.662414e+03
2.673821e+03,1.641326e+03
2.674785e+03,1.611524e+03
2.675750e+03,1.599510e+03
2.676714e+03,1.602391e+03
2.677678e+03,1.630839e+03
2.678642e+03,1.644022e+03
2.679606e+03,1.632908e+03
2.680571e+03,1.621156e+03
2.681535e+03,1.613560e+03
2.682499e+03,1.616838e+03
2.683463e+03,1.626066e+03
2.684427e+03,1.626188e+03
2.685392e+03,1.621443e+03
2.686356e+03,1.615806e+03
2.687320e+03,1.609917e+03
2.688284e+03,1.600998e+03
2.689249e+03,1.604409e+03
2.690213e+03,1.621465e+03
2.691177e+03,1.625354e+03
2.692141e+03,1.607281e+03
2.693106e+03,1.604098e+03
2.694070e+03,1.609951e+03
2.695034e+03,1.610203e+03
2.695998e+03,1.606103e+03
2.696963e+03,1.596104e+03
2.697927e+03,1.593283e+03
2.698891e+03,1.603323e+03
2.699855e+03,1.607119e+03
2.700820e+03,1.593079e+03
2.701784e+03,1.600188e+03
2.702748e+03,1.624684e+03
2.703712e+03,1.616567e+03
2.704677e+03,1.586055e+03
2.705641e+03,1.567209e+03
2.706605e+03,1.561856e+03
2.707569e+03,1.575898e+03
2.708533e+03,1.585604e+03
2.709498e+03,1.578638e+03
2.710462e+03,1.573825e+03
2.711426e+03,1.583793e+03
2.712390e+03,1.583491e+03
2.713354e+03,1.575105e+03
2.714319e+03,1.569853e+03
2.715283e+03,1.567563e+03
2.716247e+03,1.567600e+03
2.717211e+03,1.570277e+03
2.718176e+03,1.576912e+03
2.719140e+03,1.578667e+03
2.720104e+03,1.565615e+03
2.721068e+03,1.559474e+03
2.722033e+03,1.562630e+03
2.722997e+03,1.564659e+03
2.723961e+03,1.564033e+03
2.724925e+03,1.561999e+03
2.725890e+03,1.558163e+03
2.726854e+03,1.546975e+03
2.727818e+03,1.541022e+03
2.728782e+03,1.545818e+03
2.729747e+03,1.548628e+03
2.730711e+03,1.541780e+03
2.731675e+03,1.537986e+03
2.732639e+03,1.537684e+03
2.733604e+03,1.541372e+03
2.734568e+03,1.544417e+03
2.735532e+03,1.529494e+03
2.736496e+03,1.515961e+03
2.737460e+03,1.518838e+03
2.738425e+03,1.528780e+03
2.739389e+03,1.543733e+03
2.740353e+03,1.536150e+03
2.741317e+03,1.505755e+03
2.742281e+03,1.511875e+03
2.743246e+03,1.541528e+03
2.744210e+03,1.538472e+03
2.745174e+03,1.522581e+03
2.746138e+03,1.525133e+03
2.747103e+03,1.526619e+03
2.748067e+03,1.519405e+03
2.749031e+03,1.517301e+03
2.749995e+03,1.530048e+03
2.750960e+03,1.534175e+03
2.751924e+03,1.530450e+03
2.752888e+03,1.518614e+03
2.753852e+03,1.505504e+03
2.754817e+03,1.507658e+03
2.755781e+03,1.515667e+03
2.756745e+03,1.526196e+03
2.757709e+03,1.526767e+03
2.758674e+03,1.512747e+03
2.759638e+03,1.500163e+03
2.760602e+03,1.492556e+03
2.761566e+03,1.485499e+03
2.762531e+03,1.482759e+03
2.763495e+03,1.490367e+03
2.764459e+03,1.497846e+03
2.765423e+03,1.498402e+03
2.766387e+03,1.488064e+03
2.767352e+03,1.467956e+03
2.768316e+03,1.466006e+03
2.769280e+03,1.486286e+03
2.770244e+03,1.471525e+03
2.771208e+03,1.445332e+03
2.772173e+03,1.458069e+03
2.773137e+03,1.478436e+03
2.774101e+03,1.472131e+03
2.775065e+03,1.468522e+03
2.776030e+03,1.479386e+03
2.776994e+03,1.483755e+03
2.777958e+03,1.479716e+03
2.778922e+03,1.474643e+03
2.779887e+03,1.469144e+03
2.780851e+03,1.453714e+03
2.781815e+03,1.447953e+03
2.782779e+03,1.466634e+03
2.783744e+03,1.485250e+03
2.784708e+03,1.489107e+03
2.785672e+03,1.475964e+03
2.786636e+03,1.449367e+03
2.787601e+03,1.438825e+03
2.788565e+03,1.441201e+03
2.789529e+03,1.445443e+03
2.790493e+03,1.451414e+03
2.791458e+03,1.462592e+03
2.792422e+03,1.463786e+03
2.793386e+03,1.454487e+03
2.794350e+03,1.449973e+03
2.795314e+03,1.452925e+03
2.796279e+03,1.446475e+03
2.797243e+03,1.437663e+03
2.798207e+03,1.441471e+03
2.799171e+03,1.448543e+03
2.800135e+03,1.445021e+03
2.801100e+03,1.441690e+03
2.802064e+03,1.441922e+03
2.803028e+03,1.443756e+03
2.803992e+03,1.445584e+03
2.804957e+03,1.444651e+03
2.805921e+03,1.441473e+03
2.806885e+03,1.434576e+03
2.807849e+03,1.425544e+03
2.808814e+03,1.414719e+03
2.809778e+03,1.410628e+03
2.810742e+03,1.419761e+03
2.811706e+03,1.428830e+03
2.812671e+03,1.435905e+03
2.813635e+03,1.442907e+03
2.814599e+03,1.446911e+03
2.815563e+03,1.442668e+03
2.816528e+03,1.432074e+03
2.817492e+03,1.409641e+03
2.818456e+03,1.405233e+03
2.819420e+03,1.417508e+03
2.820385e+03,1.422516e+03
2.821349e+03,1.421496e+03
2.822313e+03,1.423743e+03
2.823277e+03,1.429377e+03
2.824241e+03,1.439098e+03
2.825206e+03,1.437498e+03
2.826170e+03,1.412104e+03
2.827134e+03,1.401672e+03
2.828098e+03,1.407874e+03
2.829063e+03,1.413747e+03
2.830027e+03,1.414644e+03
2.830991e+03,1.399211e+03
2.831955e+03,1.386106e+03
2.832919e+03,1.386201e+03
2.833884e+03,1.394458e+03
2.834848e+03,1.407804e+03
2.835812e+03,1.413595e+03
2.836776e+03,1.412068e+03
2.837741e+03,1.412029e+03
2.838705e+03,1.408823e+03
2.839669e+03,1.395850e+03
2.840633e+03,1.384869e+03
2.841598e+03,1.382449e+03
2.842562e+03,1.381009e+03
2.843526e+03,1.381016e+03
2.844490e+03,1.397096e+03
2.845455e+03,1.412002e+03
2.846419e+03,1.392876e+03
2.847383e+03,1.369041e+03
2.848347e+03,1.373004e+03
2.849312e+03,1.379635e+03
2.850276e+03,1.384165e+03
2.851240e+03,1.390713e+03
2.852204e+03,1.397487e+03
2.853168e+03,1.399966e+03
2.854133e+03,1.399437e+03
2.855097e+03,1.399367e+03
2.856061e+03,1.395494e+03
2.857025e+03,1.384965e+03
2.857990e+03,1.383078e+03
2.858954e+03,1.395468e+03
2.859918e+03,1.381272e+03
2.860882e+03,1.358906e+03
2.861846e+03,1.358218e+03
2.862811e+03,1.364335e+03
2.863775e+03,1.363767e+03
2.864739e+03,1.362626e+03
2.865703e+03,1.362462e+03
2.866668e+03,1.376924e+03
2.867632e+03,1.397860e+03
2.868596e+03,1.402846e+03
2.869560e+03,1.398689e+03
2.870525e+03,1.391407e+03
2.871489e+03,1.384778e+03
2.872453e+03,1.379027e+03
2.873417e+03,1.374004e+03
2.874382e+03,1.368703e+03
2.875346e+03,1.360674e+03
2.876310e+03,1.356795e+03
2.877274e+03,1.371161e+03
2.878239e+03,1.373898e+03
2.879203e+03,1.353589e+03
2.880167e+03,1.345701e+03
2.881131e+03,1.363385e+03
2.882095e+03,1.362545e+03
2.883060e+03,1.356721e+03
2.884024e+03,1.367678e+03
2.884988e+03,1.380979e+03
2.885952e+03,1.384807e+03
2.886917e+03,1.378360e+03
2.887881e+03,1.361669e+03
2.888845e+03,1.354303e+03
2.889809e+03,1.354080e+03
2.890773e+03,1.353952e+03
2.891738e+03,1.351559e+03
2.892702e+03,1.346054e+03
2.893666e+03,1.342404e+03
2.894630e+03,1.341442e+03
2.895595e+03,1.339471e+03
2.896559e+03,1.338184e+03
2.897523e+03,1.357413e+03
2.898487e+03,1.374461e+03
2.899452e+03,1.358746e+03
2.900416e+03,1.342938e+03
2.901380e+03,1.334815e+03
2.902344e+03,1.340296e+03
2.903309e+03,1.355617e+03
2.904273e+03,1.337883e+03
2.905237e+03,1.320277e+03
2.906201e+03,1.340911e+03
2.907166e+03,1.359560e+03
2.908130e+03,1.358700e+03
2.909094e+03,1.350849e+03
2.910058e+03,1.338300e+03
2.911022e+03,1.323309e+03
2.911987e+03,1.312922e+03
2.912951e+03,1.313044e+03
2.913915e+03,1.316886e+03
2.914879e+03,1.320107e+03
2.915844e+03,1.325170e+03
2.916808e+03,1.331437e+03
2.917772e+03,1.332550e+03
2.918736e+03,1.327324e+03
2.919700e+03,1.308172e+03
2.920665e+03,1.296338e+03
2.921629e+03,1.320140e+03
2.922593e+03,1.315809e+03
2.923557e+03,1.290382e+03
2.924522e+03,1.289619e+03
2.925486e+03,1.303766e+03
2.926450e+03,1.312265e+03
2.927414e+03,1.314023e+03
2.928379e+03,1.304499e+03
2.929343e+03,1.309705e+03
2.930307e+03,1.324789e+03
2.931271e+03,1.307692e+03
2.932236e+03,1.281438e+03
2.933200e+03,1.291633e+03
2.934164e+03,1.302202e+03
2.935128e+03,1.297306e+03
2.936093e+03,1.287116e+03
2.937057e+03,1.276713e+03
2.938021e+03,1.273692e+03
2.938985e+03,1.276850e+03
2.939949e+03,1.284075e+03
2.940914e+03,1.289578e+03
2.941878e+03,1.292061e+03
2.942842e+03,1.298685e+03
2.943806e+03,1.307465e+03
2.944771e+03,1.298324e+03
2.945735e+03,1.283944e+03
2.946699e+03,1.282142e+03
2.947663e+03,1.280921e+03
2.948627e+03,1.274248e+03
2.949592e+03,1.268711e+03
2.950556e+03,1.267255e+03
2.951520e+03,1.276244e+03
2.952484e+03,1.282363e+03
2.953449e+03,1.270966e+03
2.954413e+03,1.270730e+03
2.955377e+03,1.294905e+03
2.956341e+03,1.313979e+03
2.957306e+03,1.319763e+03
2.958270e+03,1.296474e+03
2.959234e+03,1.268044e+03
2.960198e+03,1.255482e+03
2.961163e+03,1.261763e+03
2.962127e+03,1.287626e+03
2.963091e+03,1.299638e+03
2.964055e+03,1.291923e+03
2.965020e+03,1.261465e+03
2.965984e+03,1.239487e+03
2.966948e+03,1.247294e+03
2.967912e+03,1.254450e+03
2.968876e+03,1.247833e+03
2.969841e+03,1.245540e+03
2.970805e+03,1.243759e+03
2.971769e+03,1.235339e+03
2.972733e+03,1.228894e+03
2.973698e+03,1.230688e+03
2.974662e+03,1.236097e+03
2.975626e+03,1.244408e+03
2.976590e+03,1.250881e+03
2.977554e+03,1.252505e+03
2.978519e+03,1.243575e+03
2.979483e+03,1.236023e+03
2.980447e+03,1.240464e+03
2.981411e+03,1.236310e+03
2.982376e+03,1.225463e+03
2.983340e+03,1.233568e+03
2.984304e+03,1.254558e+03
2.985268e+03,1.285718e+03
2.986233e+03,1.296651e+03
2.987197e+03,1.263858e+03
2.988161e+03,1.247780e+03
2.989125e+03,1.247688e+03
2.990090e+03,1.243729e+03
2.991054e+03,1.245022e+03
2.992018e+03,1.260599e+03
2.992982e+03,1.264315e+03
2.993947e+03,1.245316e+03
2.994911e+03,1.230369e+03
2.995875e+03,1.223850e+03
2.996839e+03,1.228224e+03
2.997803e+03,1.236260e+03
2.998768e+03,1.245348e+03
2.999732e+03,1.248911e+03
3.000696e+03,1.246090e+03
3.001660e+03,1.227625e+03
3.002625e+03,1.215205e+03
3.003589e+03,1.232764e+03
3.004553e+03,1.241420e+03
3.005517e+03,1.223165e+03
3.006481e+03,1.215940e+03
3.007446e+03,1.217244e+03
3.008410e+03,1.205245e+03
3.009374e+03,1.202414e+03
3.010338e+03,1.224224e+03
3.011303e+03,1.226495e+03
3.012267e+03,1.192600e+03
3.013231e+03,1.204884e+03
3.014195e+03,1.231712e+03
3.015160e+03,1.213131e+03
3.016124e+03,1.190188e+03
3.017088e+03,1.178021e+03
3.018052e+03,1.179957e+03
3.019017e+03,1.193074e+03
3.019981e+03,1.211069e+03
3.020945e+03,1.224829e+03
3.021909e+03,1.227727e+03
3.022874e+03,1.221155e+03
3.023838e+03,1.207844e+03
3.024802e+03,1.196776e+03
3.025766e+03,1.188712e+03
3.026730e+03,1.176280e+03
3.027695e+03,1.181265e+03
3.028659e+03,1.213725e+03
3.029623e+03,1.219774e+03
3.030587e+03,1.201422e+03
3.031552e+03,1.195678e+03
3.032516e+03,1.194732e+03
3.033480e+03,1.190735e+03
3.034444e+03,1.190454e+03
3.035408e+03,1.195168e+03
3.036373e+03,1.201928e+03
3.037337e+03,1.205836e+03
3.038301e+03,1.188158e+03
3.039265e+03,1.176903e+03
3.040230e+03,1.192237e+03
3.041194e+03,1.201015e+03
3.042158e+03,1.204061e+03
3.043122e+03,1.216415e+03
3.044087e+03,1.226091e+03
3.045051e+03,1.211000e+03
3.046015e+03,1.191717e+03
3.046979e+03,1.174082e+03
3.047944e+03,1.169672e+03
3.048908e+03,1.175724e+03
3.049872e+03,1.186572e+03
3.050836e+03,1.195555e+03
3.051801e+03,1.198491e+03
3.052765e+03,1.191104e+03
3.053729e+03,1.177183e+03
3.054693e+03,1.189225e+03
3.055657e+03,1.201699e+03
3.056622e+03,1.195556e+03
3.057586e+03,1.183888e+03
3.058550e+03,1.172417e+03
3.059514e+03,1.170397e+03
3.060479e+03,1.175542e+03
3.061443e+03,1.179093e+03
3.062407e+03,1.192123e+03
3.063371e+03,1.214879e+03
3.064335e+03,1.202601e+03
3.065300e+03,1.167804e+03
3.066264e+03,1.174653e+03
3.067228e+03,1.192203e+03
3.068192e+03,1.204294e+03
3.069157e+03,1.190224e+03
3.070121e+03,1.160600e+03
3.071085e+03,1.165142e+03
3.072049e+03,1.180820e+03
3.073014e+03,1.175906e+03
3.073978e+03,1.163445e+03
3.074942e+03,1.147074e+03
3.075906e+03,1.165063e+03
3.076871e+03,1.190608e+03
3.077835e+03,1.181063e+03
3.078799e+03,1.159629e+03
3.079763e+03,1.134308e+03
3.080728e+03,1.140217e+03
3.081692e+03,1.169022e+03
3.082656e+03,1.178512e+03
3.083620e+03,1.176264e+03
3.084584e+03,1.168613e+03
3.085549e+03,1.173938e+03
3.086513e+03,1.195276e+03
3.087477e+03,1.195968e+03
3.088441e+03,1.191702e+03
3.089406e+03,1.208026e+03
3.090370e+03,1.198154e+03
3.091334e+03,1.163741e+03
3.092298e+03,1.178311e+03
3.093262e+03,1.210100e+03
3.094227e+03,1.180411e+03
3.095191e+03,1.155079e+03
3.096155e+03,1.156944e+03
3.097119e+03,1.150407e+03
3.098084e+03,1.141083e+03
3.099048e+03,1.140134e+03
3.100012e+03,1.155990e+03
3.100976e+03,1.206238e+03
3.101941e+03,1.212893e+03
3.102905e+03,1.177077e+03
3.103869e+03,1.156468e+03
3.104833e+03,1.152508e+03
3.105798e+03,1.164828e+03
3.106762e+03,1.159292e+03
3.107726e+03,1.134319e+03
3.108690e+03,1.158324e+03
3.109655e+03,1.193477e+03
3.110619e+03,1.192333e+03
3.111583e+03,1.189340e+03
3.112547e+03,1.191562e+03
3.113511e+03,1.193626e+03
3.114476e+03,1.192189e+03
3.115440e+03,1.174761e+03
3.116404e+03,1.165475e+03
3.117368e+03,1.178334e+03
3.118333e+03,1.184062e+03
3.119297e+03,1.182056e+03
3.120261e+03,1.173870e+03
3.121225e+03,1.161559e+03
3.122189e+03,1.144843e+03
3.123154e+03,1.150436e+03
3.124118e+03,1.172563e+03
3.125082e+03,1.191653e+03
3.126046e+03,1.192835e+03
3.127011e+03,1.169770e+03
3.127975e+03,1.163887e+03
3.128939e+03,1.173172e+03
3.129903e+03,1.163780e+03
3.130868e+03,1.159069e+03
3.131832e+03,1.189121e+03
3.132796e+03,1.207741e+03
3.133760e+03,1.209906e+03
3.134725e+03,1.195408e+03
3.135689e+03,1.183887e+03
3.136653e+03,1.193267e+03
3.137617e+03,1.198937e+03
3.138582e+03,1.194459e+03
3.139546e+03,1.205844e+03
3.140510e+03,1.212922e+03
3.141474e+03,1.193990e+03
3.142438e+03,1.186897e+03
3.143403e+03,1.195149e+03
3.144367e+03,1.187187e+03
3.145331e+03,1.174527e+03
3.146295e+03,1.180871e+03
3.147260e+03,1.185170e+03
3.148224e+03,1.181076e+03
3.149188e+03,1.207397e+03
3.150152e+03,1.221529e+03
3.151116e+03,1.164294e+03
3.152081e+03,1.125296e+03
3.153045e+03,1.141294e+03
3.154009e+03,1.151842e+03
3.154973e+03,1.158460e+03
3.155938e+03,1.169039e+03
3.156902e+03,1.183793e+03
3.157866e+03,1.199218e+03
3.158830e+03,1.201618e+03
3.159795e+03,1.197055e+03
3.160759e+03,1.191871e+03
3.161723e+03,1.183823e+03
3.162687e+03,1.168501e+03
3.163652e+03,1.172774e+03
3.164616e+03,1.189037e+03
3.165580e+03,1.201469e+03
3.166544e+03,1.194756e+03
3.167509e+03,1.167331e+03
3.168473e+03,1.151697e+03
3.169437e+03,1.149315e+03
3.170401e+03,1.159245e+03
3.171365e+03,1.163218e+03
3.172330e+03,1.153719e+03
3.173294e+03,1.142933e+03
3.174258e+03,1.139032e+03
3.175222e+03,1.156373e+03
3.176187e+03,1.168348e+03
3.177151e+03,1.158738e+03
3.178115e+03,1.170899e+03
3.179079e+03,1.195282e+03
3.180043e+03,1.190256e+03
3.181008e+03,1.183443e+03
3.181972e+03,1.187529e+03
3.182936e+03,1.182622e+03
3.183900e+03,1.175992e+03
3.184865e+03,1.213880e+03
3.185829e+03,1.234805e+03
3.186793e+03,1.181716e+03
3.187757e+03,1.176529e+03
3.188722e+03,1.197443e+03
3.189686e+03,1.189199e+03
3.190650e+03,1.187166e+03
3.191614e+03,1.203172e+03
3.192579e+03,1.189827e+03
3.193543e+03,1.158868e+03
3.194507e+03,1.155535e+03
3.195471e+03,1.165173e+03
3.196436e+03,1.182361e+03
3.197400e+03,1.201377e+03
3.198364e+03,1.217803e+03
3.199328e+03,1.230591e+03
3.200292e+03,1.223182e+03
3.201257e+03,0.000000e+00
3.202221e+03,0.000000e+00
3.203185e+03,0.000000e+00
3.204149e+03,0.000000e+00
3.205114e+03,0.000000e+00
3.206078e+03,0.000000e+00
3.207042e+03,0.000000e+00
3.208006e+03,0.000000e+00
3.208970e+03,0.000000e+00
3.209935e+03,0.000000e+00
3.210899e+03,0.000000e+00
3.211863e+03,0.000000e+00
3.212827e+03,0.000000e+00
3.213792e+03,0.000000e+00
3.214756e+03,0.000000e+00
3.215720e+03,0.000000e+00
3.216684e+03,0.000000e+00
3.217649e+03,0.000000e+00
3.218613e+03,0.000000e+00
3.219577e+03,0.000000e+00
3.220541e+03,0.000000e+00
3.221506e+03,0.000000e+00
3.222470e+03,0.000000e+00
3.223434e+03,0.000000e+00
3.224398e+03,0.000000e+00
3.225363e+03,0.000000e+00
3.226327e+03,0.000000e+00
3.227291e+03,0.000000e+00
3.228255e+03,0.000000e+00
3.229219e+03,0.000000e+00
3.230184e+03,0.000000e+00
3.231148e+03,0.000000e+00
3.232112e+03,0.000000e+00
3.233076e+03,0.000000e+00
3.234041e+03,0.000000e+00
3.235005e+03,0.000000e+00
3.235969e+03,0.000000e+00
3.236933e+03,0.000000e+00
3.237897e+03,0.000000e+00
3.238862e+03,0.000000e+00
3.239826e+03,0.000000e+00
3.240790e+03,0.000000e+00
3.241754e+03,0.000000e+00
3.242719e+03,0.000000e+00
3.243683e+03,0.000000e+00
3.244647e+03,0.000000e+00
3.245611e+03,0.000000e+00
3.246576e+03,0.000000e+00
3.247540e+03,0.000000e+00
3.248504e+03,0.000000e+00
3.249468e+03,0.000000e+00
3.250433e+03,0.000000e+00
3.251397e+03,0.000000e+00
3.252361e+03,0.000000e+00
3.253325e+03,0.000000e+00
3.254290e+03,0.000000e+00
3.255254e+03,0.000000e+00
3.256218e+03,0.000000e+00
3.257182e+03,0.000000e+00
3.258146e+03,0.000000e+00
3.259111e+03,0.000000e+00
3.260075e+03,0.000000e+00
3.261039e+03,0.000000e+00
3.262003e+03,0.000000e+00
3.262968e+03,0.000000e+00
3.263932e+03,0.000000e+00
3.264896e+03,0.000000e+00
3.265860e+03,0.000000e+00
3.266824e+03,0.000000e+00
3.267789e+03,0.000000e+00
3.268753e+03,0.000000e+00
3.269717e+03,0.000000e+00
3.270681e+03,0.000000e+00
3.271646e+03,0.000000e+00
3.272610e+03,0.000000e+00
3.273574e+03,0.000000e+00
3.274538e+03,0.000000e+00
3.275503e+03,0.000000e+00
3.276467e+03,0.000000e+00
3.277431e+03,0.000000e+00
3.278395e+03,0.000000e+00
3.279360e+03,0.000000e+00
3.280324e+03,0.000000e+00
3.281288e+03,0.000000e+00
3.282252e+03,0.000000e+00
3.283217e+03,0.000000e+00
3.284181e+03,0.000000e+00
3.285145e+03,0.000000e+00
3.286109e+03,0.000000e+00
3.287073e+03,0.000000e+00
3.288038e+03,0.000000e+00
3.289002e+03,0.000000e+00
3.289966e+03,0.000000e+00
3.290930e+03,0.000000e+00
3.291895e+03,0.000000e+00
3.292859e+03,0.000000e+00
3.293823e+03,0.000000e+00
3.294787e+03,0.000000e+00
3.295751e+03,0.000000e+00
3.296716e+03,0.000000e+00
3.297680e+03,0.000000e+00
3.298644e+03,0.000000e+00
3.299608e+03,0.000000e+00
3.300573e+03,0.000000e+00
3.301537e+03,0.000000e+00
3.302501e+03,0.000000e+00
3.303465e+03,0.000000e+00
3.304430e+03,0.000000e+00
3.305394e+03,0.000000e+00
3.306358e+03,0.000000e+00
3.307322e+03,0.000000e+00
3.308287e+03,0.000000e+00
3.309251e+03,0.000000e+00
3.310215e+03,0.000000e+00
3.311179e+03,0.000000e+00
3.312144e+03,0.000000e+00
3.313108e+03,0.000000e+00
3.314072e+03,0.000000e+00
3.315036e+03,0.000000e+00
3.316000e+03,0.000000e+00
3.316965e+03,0.000000e+00
3.317929e+03,0.000000e+00
3.318893e+03,0.000000e+00
3.319857e+03,0.000000e+00
3.320822e+03,0.000000e+00
3.321786e+03,0.000000e+00
3.322750e+03,0.000000e+00
3.323714e+03,0.000000e+00
3.324678e+03,0.000000e+00
3.325643e+03,0.000000e+00
3.326607e+03,0.000000e+00
3.327571e+03,0.000000e+00
3.328535e+03,0.000000e+00
3.329500e+03,0.000000e+00
3.330464e+03,0.000000e+00
3.331428e+03,0.000000e+00
3.332392e+03,0.000000e+00
3.333357e+03,0.000000e+00
3.334321e+03,0.000000e+00
3.335285e+03,0.000000e+00
3.336249e+03,0.000000e+00
3.337214e+03,0.000000e+00
3.338178e+03,0.000000e+00
3.339142e+03,0.000000e+00
3.340106e+03,0.000000e+00
3.341071e+03,0.000000e+00
3.342035e+03,0.000000e+00
3.342999e+03,0.000000e+00
3.343963e+03,0.000000e+00
3.344927e+03,0.000000e+00
3.345892e+03,0.000000e+00
3.346856e+03,0.000000e+00
3.347820e+03,0.000000e+00
3.348784e+03,0.000000e+00
3.349749e+03,0.000000e+00
3.350713e+03,0.000000e+00
3.351677e+03,0.000000e+00
3.352641e+03,0.000000e+00
3.353605e+03,0.000000e+00
3.354570e+03,0.000000e+00
3.355534e+03,0.000000e+00
3.356498e+03,0.000000e+00
3.357462e+03,0.000000e+00
3.358427e+03,0.000000e+00
3.359391e+03,0.000000e+00
3.360355e+03,0.000000e+00
3.361319e+03,0.000000e+00
3.362284e+03,0.000000e+00
3.363248e+03,0.000000e+00
3.364212e+03,0.000000e+00
3.365176e+03,0.000000e+00
3.366141e+03,0.000000e+00
3.367105e+03,0.000000e+00
3.368069e+03,0.000000e+00
3.369033e+03,0.000000e+00
3.369998e+03,0.000000e+00
3.370962e+03,0.000000e+00
3.371926e+03,0.000000e+00
3.372890e+03,0.000000e+00
3.373854e+03,0.000000e+00
3.374819e+03,0.000000e+00
3.375783e+03,0.000000e+00
3.376747e+03,0.000000e+00
3.377711e+03,0.000000e+00
3.378676e+03,0.000000e+00
3.379640e+03,0.000000e+00
3.380604e+03,0.000000e+00
3.381568e+03,0.000000e+00
3.382532e+03,0.000000e+00
3.383497e+03,0.000000e+00
3.384461e+03,0.000000e+00
3.385425e+03,0.000000e+00
3.386389e+03,0.000000e+00
3.387354e+03,0.000000e+00
3.388318e+03,0.000000e+00
3.389282e+03,0.000000e+00
3.390246e+03,0.000000e+00
3.391211e+03,0.000000e+00
3.392175e+03,0.000000e+00
3.393139e+03,0.000000e+00
3.394103e+03,0.000000e+00
3.395068e+03,0.000000e+00
3.396032e+03,0.000000e+00
3.396996e+03,0.000000e+00
3.397960e+03,0.000000e+00
3.398925e+03,0.000000e+00
3.399889e+03,0.000000e+00
3.400853e+03,0.000000e+00
3.401817e+03,0.000000e+00
3.402781e+03,0.000000e+00
3.403746e+03,0.000000e+00
3.404710e+03,0.000000e+00
3.405674e+03,0.000000e+00
3.406638e+03,0.000000e+00
3.407603e+03,0.000000e+00
3.408567e+03,0.000000e+00
3.409531e+03,0.000000e+00
3.410495e+03,0.000000e+00
3.411459e+03,0.000000e+00
3.412424e+03,0.000000e+00
3.413388e+03,0.000000e+00
3.414352e+03,0.000000e+00
3.415316e+03,0.000000e+00
3.416281e+03,0.000000e+00
3.417245e+03,0.000000e+00
3.418209e+03,0.000000e+00
3.419173e+03,0.000000e+00
3.420138e+03,0.000000e+00
3.421102e+03,0.000000e+00
3.422066e+03,0.000000e+00
3.423030e+03,0.000000e+00
3.423995e+03,0.000000e+00
3.424959e+03,0.000000e+00
3.425923e+03,0.000000e+00
3.426887e+03,0.000000e+00
3.427852e+03,0.000000e+00
3.428816e+03,0.000000e+00
3.429780e+03,0.000000e+00
3.430744e+03,0.000000e+00
3.431708e+03,0.000000e+00
3.432673e+03,0.000000e+00
3.433637e+03,0.000000e+00
3.434601e+03,0.000000e+00
3.435565e+03,0.000000e+00
3.436530e+03,0.000000e+00
3.437494e+03,0.000000e+00
3.438458e+03,0.000000e+00
3.439422e+03,0.000000e+00
3.440386e+03,0.000000e+00
3.441351e+03,0.000000e+00
3.442315e+03,0.000000e+00
3.443279e+03,0.000000e+00
3.444243e+03,0.000000e+00
3.445208e+03,0.000000e+00
3.446172e+03,0.000000e+00
3.447136e+03,0.000000e+00
3.448100e+03,0.000000e+00
3.449065e+03,0.000000e+00
3.450029e+03,0.000000e+00
3.450993e+03,0.000000e+00
3.451957e+03,0.000000e+00
3.452922e+03,0.000000e+00
3.453886e+03,0.000000e+00
3.454850e+03,0.000000e+00
3.455814e+03,0.000000e+00
3.456779e+03,0.000000e+00
3.457743e+03,0.000000e+00
3.458707e+03,0.000000e+00
3.459671e+03,0.000000e+00
3.460635e+03,0.000000e+00
3.461600e+03,0.000000e+00
3.462564e+03,0.000000e+00
3.463528e+03,0.000000e+00
3.464492e+03,0.000000e+00
3.465457e+03,0.000000e+00
3.466421e+03,0.000000e+00
3.467385e+03,0.000000e+00
3.468349e+03,0.000000e+00
3.469313e+03,0.000000e+00
3.470278e+03,0.000000e+00
3.471242e+03,0.000000e+00
3.472206e+03,0.000000e+00
3.473170e+03,0.000000e+00
3.474135e+03,0.000000e+00
3.475099e+03,0.000000e+00
3.476063e+03,0.000000e+00
3.477027e+03,0.000000e+00
3.477992e+03,0.000000e+00
3.478956e+03,0.000000e+00
3.479920e+03,0.000000e+00
3.480884e+03,0.000000e+00
3.481849e+03,0.000000e+00
3.482813e+03,0.000000e+00
3.483777e+03,0.000000e+00
3.484741e+03,0.000000e+00
3.485706e+03,0.000000e+00
3.486670e+03,0.000000e+00
3.487634e+03,0.000000e+00
3.488598e+03,0.000000e+00
3.489563e+03,0.000000e+00
3.490527e+03,0.000000e+00
3.491491e+03,0.000000e+00
3.492455e+03,0.000000e+00
3.493419e+03,0.000000e+00
3.494384e+03,0.000000e+00
3.495348e+03,0.000000e+00
3.496312e+03,0.000000e+00
3.497276e+03,0.000000e+00
3.498240e+03,0.000000e+00
3.499205e+03,0.000000e+00
3.500169e+03,0.000000e+00
