9.931763e+01,0.000000e+00
1.002819e+02,0.000000e+00
1.012461e+02,0.000000e+00
1.022103e+02,0.000000e+00
1.031746e+02,0.000000e+00
1.041388e+02,0.000000e+00
1.051030e+02,0.000000e+00
1.060673e+02,0.000000e+00
1.070315e+02,0.000000e+00
1.079957e+02,0.000000e+00
1.089600e+02,0.000000e+00
1.099242e+02,0.000000e+00
1.108884e+02,0.000000e+00
1.118527e+02,0.000000e+00
1.128169e+02,0.000000e+00
1.137811e+02,0.000000e+00
1.147454e+02,0.000000e+00
1.157096e+02,0.000000e+00
1.166738e+02,0.000000e+00
1.176381e+02,0.000000e+00
1.186023e+02,0.000000e+00
1.195665e+02,0.000000e+00
1.205308e+02,0.000000e+00
1.214950e+02,0.000000e+00
1.224592e+02,0.000000e+00
1.234235e+02,0.000000e+00
1.243877e+02,0.000000e+00
1.253519e+02,0.000000e+00
1.263162e+02,0.000000e+00
1.272804e+02,0.000000e+00
1.282446e+02,0.000000e+00
1.292089e+02,0.000000e+00
1.301731e+02,0.000000e+00
1.311373e+02,0.000000e+00
1.321016e+02,0.000000e+00
1.330658e+02,0.000000e+00
1.340300e+02,0.000000e+00
1.349943e+02,0.000000e+00
1.359585e+02,0.000000e+00
1.369227e+02,0.000000e+00
1.378870e+02,0.000000e+00
1.388512e+02,0.000000e+00
1.398154e+02,0.000000e+00
1.407797e+02,0.000000e+00
1.417439e+02,0.000000e+00
1.427081e+02,0.000000e+00
1.436724e+02,0.000000e+00
1.446366e+02,0.000000e+00
1.456008e+02,0.000000e+00
1.465651e+02,0.000000e+00
1.475293e+02,0.000000e+00
1.484935e+02,0.000000e+00
1.494578e+02,0.000000e+00
1.504220e+02,0.000000e+00
1.513862e+02,0.000000e+00
1.523505e+02,0.000000e+00
1.533147e+02,0.000000e+00
1.542789e+02,0.000000e+00
1.552432e+02,0.000000e+00
1.562074e+02,0.000000e+00
1.571716e+02,0.000000e+00
1.581359e+02,0.000000e+00
1.591001e+02,0.000000e+00
1.600643e+02,0.000000e+00
1.610286e+02,0.000000e+00
1.619928e+02,0.000000e+00
1.629570e+02,0.000000e+00
1.639213e+02,0.000000e+00
1.648855e+02,0.000000e+00
1.658497e+02,0.000000e+00
1.668140e+02,0.000000e+00
1.677782e+02,0.000000e+00
1.687424e+02,0.000000e+00
1.697067e+02,0.000000e+00
1.706709e+02,0.000000e+00
1.716351e+02,0.000000e+00
1.725994e+02,0.000000e+00
1.735636e+02,0.000000e+00
1.745278e+02,0.000000e+00
1.754921e+02,0.000000e+00
1.764563e+02,0.000000e+00
1.774205e+02,0.000000e+00
1.783848e+02,0.000000e+00
1.793490e+02,0.000000e+00
1.803132e+02,0.000000e+00
1.812775e+02,0.000000e+00
1.822417e+02,0.000000e+00
1.832059e+02,0.000000e+00
1.841702e+02,0.000000e+00
1.851344e+02,0.000000e+00
1.860986e+02,0.000000e+00
1.870629e+02,0.000000e+00
1.880271e+02,0.000000e+00
1.889913e+02,0.000000e+00
1.899556e+02,0.000000e+00
1.909198e+02,0.000000e+00
1.918840e+02,0.000000e+00
1.928483e+02,0.000000e+00
1.938125e+02,0.000000e+00
1.947767e+02,0.000000e+00
1.957410e+02,0.000000e+00
1.967052e+02,0.000000e+00
1.976694e+02,0.000000e+00
1.986337e+02,0.000000e+00
1.995979e+02,4.220517e+03
2.005621e+02,4.220556e+03
2.015264e+02,4.222792e+03
2.024906e+02,4.229250e+03
2.034548e+02,4.236233e+03
2.044191e+02,4.241756e+03
2.053833e+02,4.245378e+03
2.063475e+02,4.248276e+03
2.073118e+02,4.252215e+03
2.082760e+02,4.257807e+03
2.092402e+02,4.262555e+03
2.102045e+02,4.267197e+03
2.111687e+02,4.273348e+03
2.121329e+02,4.282227e+03
2.130972e+02,4.294345e+03
2.140614e+02,4.306690e+03
2.150256e+02,4.312808e+03
2.159899e+02,4.308340e+03
2.169541e+02,4.304761e+03
2.179183e+02,4.307962e+03
2.188826e+02,4.316261e+03
2.198468e+02,4.324997e+03
2.208110e+02,4.330402e+03
2.217753e+02,4.332029e+03
2.227395e+02,4.333016e+03
2.237037e+02,4.336581e+03
2.246680e+02,4.340977e+03
2.256322e+02,4.343337e+03
2.265964e+02,4.342959e+03
2.275607e+02,4.343811e+03
2.285249e+02,4.351124e+03
2.294892e+02,4.366252e+03
2.304534e+02,4.381688e+03
2.314176e+02,4.388522e+03
2.323819e+02,4.388013e+03
2.333461e+02,4.389019e+03
2.343103e+02,4.395665e+03
2.352746e+02,4.406456e+03
2.362388e+02,4.418583e+03
2.372030e+02,4.431765e+03
2.381673e+02,4.441679e+03
2.391315e+02,4.442980e+03
2.400957e+02,4.431357e+03
2.410600e+02,4.421685e+03
2.420242e+02,4.420230e+03
2.429884e+02,4.427238e+03
2.439527e+02,4.440869e+03
2.449169e+02,4.459809e+03
2.458811e+02,4.484160e+03
2.468454e+02,4.503805e+03
2.478096e+02,4.519893e+03
2.487738e+02,4.531217e+03
2.497381e+02,4.535099e+03
2.507023e+02,4.531412e+03
2.516665e+02,4.524570e+03
2.526308e+02,4.521162e+03
2.535950e+02,4.520564e+03
2.545592e+02,4.520749e+03
2.555235e+02,4.524080e+03
2.564877e+02,4.528833e+03
2.574519e+02,4.532938e+03
2.584161e+02,4.535335e+03
2.593804e+02,4.537229e+03
2.603446e+02,4.544233e+03
2.613088e+02,4.562648e+03
2.622731e+02,4.578376e+03
2.632373e+02,4.586099e+03
2.642015e+02,4.585397e+03
2.651658e+02,4.580805e+03
2.661300e+02,4.575597e+03
2.670942e+02,4.569666e+03
2.680585e+02,4.572520e+03
2.690227e+02,4.596913e+03
2.699869e+02,4.625507e+03
2.709512e+02,4.645330e+03
2.719154e+02,4.651870e+03
2.728796e+02,4.652521e+03
2.738439e+02,4.656675e+03
2.748081e+02,4.665788e+03
2.757723e+02,4.678841e+03
2.767366e+02,4.695146e+03
2.777008e+02,4.711245e+03
2.786650e+02,4.719870e+03
2.796293e+02,4.714744e+03
2.805935e+02,4.703333e+03
2.815577e+02,4.697795e+03
2.825220e+02,4.701067e+03
2.834862e+02,4.707812e+03
2.844504e+02,4.709574e+03
2.854147e+02,4.707456e+03
2.863789e+02,4.702432e+03
2.873431e+02,4.692788e+03
2.883074e+02,4.681787e+03
2.892716e+02,4.675246e+03
2.902358e+02,4.676368e+03
2.912001e+02,4.684601e+03
2.921643e+02,4.686876e+03
2.931285e+02,4.676413e+03
2.940928e+02,4.668638e+03
2.950570e+02,4.670789e+03
2.960212e+02,4.681733e+03
2.969855e+02,4.695193e+03
2.979497e+02,4.705470e+03
2.989139e+02,4.713309e+03
2.998782e+02,4.718564e+03
3.008424e+02,4.723510e+03
3.018066e+02,4.727858e+03
3.027709e+02,4.729235e+03
3.037351e+02,4.725507e+03
3.046993e+02,4.718835e+03
3.056636e+02,4.714489e+03
3.066278e+02,4.714360e+03
3.075920e+02,4.714511e+03
3.085563e+02,4.711597e+03
3.095205e+02,4.708338e+03
3.104847e+02,4.709167e+03
3.114490e+02,4.715877e+03
3.124132e+02,4.726020e+03
3.133774e+02,4.736496e+03
3.143417e+02,4.747291e+03
3.153059e+02,4.755905e+03
3.162701e+02,4.760667e+03
3.172344e+02,4.762570e+03
3.181986e+02,4.763592e+03
3.191628e+02,4.763840e+03
3.201271e+02,4.763977e+03
3.210913e+02,4.764835e+03
3.220555e+02,4.766469e+03
3.230198e+02,4.768472e+03
3.239840e+02,4.770399e+03
3.249482e+02,4.772596e+03
3.259125e+02,4.773812e+03
3.268767e+02,4.771927e+03
3.278409e+02,4.768536e+03
3.288052e+02,4.767557e+03
3.297694e+02,4.773870e+03
3.307336e+02,4.789835e+03
3.316979e+02,4.799494e+03
3.326621e+02,4.795008e+03
3.336263e+02,4.788312e+03
3.345906e+02,4.786642e+03
3.355548e+02,4.793178e+03
3.365190e+02,4.802220e+03
3.374833e+02,4.805094e+03
3.384475e+02,4.800305e+03
3.394117e+02,4.799174e+03
3.403760e+02,4.806057e+03
3.413402e+02,4.817705e+03
3.423044e+02,4.828718e+03
3.432687e+02,4.838085e+03
3.442329e+02,4.846231e+03
3.451971e+02,4.852786e+03
3.461614e+02,4.856493e+03
3.471256e+02,4.856754e+03
3.480898e+02,4.855085e+03
3.490541e+02,4.853211e+03
3.500183e+02,4.848060e+03
3.509825e+02,4.834667e+03
3.519468e+02,4.823034e+03
3.529110e+02,4.820688e+03
3.538752e+02,4.828603e+03
3.548395e+02,4.842101e+03
3.558037e+02,4.854971e+03
3.567680e+02,4.868969e+03
3.577322e+02,4.879417e+03
3.586964e+02,4.887323e+03
3.596607e+02,4.893533e+03
3.606249e+02,4.897086e+03
3.615891e+02,4.893906e+03
3.625534e+02,4.886030e+03
3.635176e+02,4.882783e+03
3.644818e+02,4.888333e+03
3.654461e+02,4.894213e+03
3.664103e+02,4.897001e+03
3.673745e+02,4.899373e+03
3.683388e+02,4.902992e+03
3.693030e+02,4.904413e+03
3.702672e+02,4.904980e+03
3.712315e+02,4.908625e+03
3.721957e+02,4.916149e+03
3.731599e+02,4.924083e+03
3.741242e+02,4.928827e+03
3.750884e+02,4.932725e+03
3.760526e+02,4.935721e+03
3.770169e+02,4.933367e+03
3.779811e+02,4.930091e+03
3.789453e+02,4.932395e+03
3.799096e+02,4.944058e+03
3.808738e+02,4.960651e+03
3.818380e+02,4.966193e+03
3.828023e+02,4.953195e+03
3.837665e+02,4.943321e+03
3.847307e+02,4.942867e+03
3.856950e+02,4.949434e+03
3.866592e+02,4.957039e+03
3.876234e+02,4.963123e+03
3.885877e+02,4.967374e+03
3.895519e+02,4.968110e+03
3.905161e+02,4.962565e+03
3.914804e+02,4.956763e+03
3.924446e+02,4.960156e+03
3.934088e+02,4.977382e+03
3.943731e+02,4.989000e+03
3.953373e+02,4.985326e+03
3.963015e+02,4.973638e+03
3.972658e+02,4.963545e+03
3.982300e+02,4.958809e+03
3.991942e+02,4.960508e+03
4.001585e+02,4.967707e+03
4.011227e+02,4.984899e+03
4.020869e+02,4.999009e+03
4.030512e+02,5.005574e+03
4.040154e+02,5.006389e+03
4.049796e+02,5.005853e+03
4.059439e+02,5.006292e+03
4.069081e+02,5.007148e+03
4.078723e+02,5.006428e+03
4.088366e+02,5.001648e+03
4.098008e+02,4.995893e+03
4.107650e+02,4.993983e+03
4.117293e+02,4.996134e+03
4.126935e+02,4.999369e+03
4.136577e+02,5.003394e+03
4.146220e+02,5.007553e+03
4.155862e+02,5.010875e+03
4.165504e+02,5.013250e+03
4.175147e+02,5.015508e+03
4.184789e+02,5.018658e+03
4.194431e+02,5.024430e+03
4.204074e+02,5.028540e+03
4.213716e+02,5.028972e+03
4.223358e+02,5.028288e+03
4.233001e+02,5.029711e+03
4.242643e+02,5.035584e+03
4.252285e+02,5.043692e+03
4.261928e+02,5.048120e+03
4.271570e+02,5.048325e+03
4.281212e+02,5.047150e+03
4.290855e+02,5.041938e+03
4.300497e+02,5.034874e+03
4.310139e+02,5.032232e+03
4.319782e+02,5.041304e+03
4.329424e+02,5.054494e+03
4.339066e+02,5.061905e+03
4.348709e+02,5.062101e+03
4.358351e+02,5.059558e+03
4.367993e+02,5.058817e+03
4.377636e+02,5.061530e+03
4.387278e+02,5.062633e+03
4.396920e+02,5.061469e+03
4.406563e+02,5.060486e+03
4.416205e+02,5.060564e+03
4.425847e+02,5.061688e+03
4.435490e+02,5.063879e+03
4.445132e+02,5.068400e+03
4.454774e+02,5.076741e+03
4.464417e+02,5.084011e+03
4.474059e+02,5.087516e+03
4.483701e+02,5.088127e+03
4.493344e+02,5.087999e+03
4.502986e+02,5.089467e+03
4.512628e+02,5.090313e+03
4.522271e+02,5.087254e+03
4.531913e+02,5.081345e+03
4.541555e+02,5.077529e+03
4.551198e+02,5.079137e+03
4.560840e+02,5.086438e+03
4.570482e+02,5.088885e+03
4.580125e+02,5.085451e+03
4.589767e+02,5.082741e+03
4.599409e+02,5.079396e+03
4.609052e+02,5.075305e+03
4.618694e+02,5.073701e+03
4.628336e+02,5.081508e+03
4.637979e+02,5.097438e+03
4.647621e+02,5.104877e+03
4.657263e+02,5.099753e+03
4.666906e+02,5.092987e+03
4.676548e+02,5.093604e+03
4.686190e+02,5.102290e+03
4.695833e+02,5.111416e+03
4.705475e+02,5.119586e+03
4.715117e+02,5.125817e+03
4.724760e+02,5.128979e+03
4.734402e+02,5.128956e+03
4.744044e+02,5.126864e+03
4.753687e+02,5.124741e+03
4.763329e+02,5.123452e+03
4.772971e+02,5.120965e+03
4.782614e+02,5.114190e+03
4.792256e+02,5.107338e+03
4.801898e+02,5.105420e+03
4.811541e+02,5.112022e+03
4.821183e+02,5.122045e+03
4.830826e+02,5.128500e+03
4.840468e+02,5.130788e+03
4.850110e+02,5.131633e+03
4.859753e+02,5.132831e+03
4.869395e+02,5.134100e+03
4.879037e+02,5.137554e+03
4.888680e+02,5.149704e+03
4.898322e+02,5.159766e+03
4.907964e+02,5.160811e+03
4.917607e+02,5.153814e+03
4.927249e+02,5.145041e+03
4.936891e+02,5.139330e+03
4.946534e+02,5.136555e+03
4.956176e+02,5.136520e+03
4.965818e+02,5.141298e+03
4.975461e+02,5.147500e+03
4.985103e+02,5.151448e+03
4.994745e+02,5.151515e+03
5.004388e+02,5.150849e+03
5.014030e+02,5.152856e+03
5.023672e+02,5.156423e+03
5.033315e+02,5.158350e+03
5.042957e+02,5.157146e+03
5.052599e+02,5.154094e+03
5.062242e+02,5.153617e+03
5.071884e+02,5.160050e+03
5.081526e+02,5.164645e+03
5.091169e+02,5.167847e+03
5.100811e+02,5.169778e+03
5.110453e+02,5.168931e+03
5.120095e+02,5.162653e+03
5.129738e+02,5.157092e+03
5.139380e+02,5.160872e+03
5.149022e+02,5.174034e+03
5.158665e+02,5.189041e+03
5.168307e+02,5.201474e+03
5.177949e+02,5.208625e+03
5.187592e+02,5.207382e+03
5.197234e+02,5.198951e+03
5.206876e+02,5.190106e+03
5.216519e+02,5.181497e+03
5.226161e+02,5.174663e+03
5.235803e+02,5.172044e+03
5.245446e+02,5.178357e+03
5.255088e+02,5.191710e+03
5.264730e+02,5.198360e+03
5.274373e+02,5.195364e+03
5.284015e+02,5.190132e+03
5.293657e+02,5.187548e+03
5.303300e+02,5.187670e+03
5.312942e+02,5.189458e+03
5.322584e+02,5.194995e+03
5.332227e+02,5.204562e+03
5.341869e+02,5.218640e+03
5.351511e+02,5.236085e+03
5.361154e+02,5.252092e+03
5.370796e+02,5.259296e+03
5.380438e+02,5.254552e+03
5.390081e+02,5.257397e+03
5.399723e+02,5.280903e+03
5.409365e+02,5.307778e+03
5.419008e+02,5.319318e+03
5.428650e+02,5.304292e+03
5.438292e+02,5.288256e+03
5.447935e+02,5.286522e+03
5.457577e+02,5.293882e+03
5.467219e+02,5.299330e+03
5.476862e+02,5.298255e+03
5.486504e+02,5.293193e+03
5.496146e+02,5.292297e+03
5.505789e+02,5.298041e+03
5.515431e+02,5.303695e+03
5.525073e+02,5.310852e+03
5.534716e+02,5.319845e+03
5.544358e+02,5.328305e+03
5.554000e+02,5.330899e+03
5.563643e+02,5.332428e+03
5.573285e+02,5.340817e+03
5.582927e+02,5.353930e+03
5.592570e+02,5.360546e+03
5.602212e+02,5.353297e+03
5.611854e+02,5.331896e+03
5.621497e+02,5.314426e+03
5.631139e+02,5.303935e+03
5.640781e+02,5.292111e+03
5.650424e+02,5.277791e+03
5.660066e+02,5.261951e+03
5.669708e+02,5.246796e+03
5.679351e+02,5.234839e+03
5.688993e+02,5.225110e+03
5.698635e+02,5.214136e+03
5.708278e+02,5.201785e+03
5.717920e+02,5.194019e+03
5.727562e+02,5.195912e+03
5.737205e+02,5.210467e+03
5.746847e+02,5.220009e+03
5.756489e+02,5.222032e+03
5.766132e+02,5.220341e+03
5.775774e+02,5.216029e+03
5.785416e+02,5.209823e+03
5.795059e+02,5.205285e+03
5.804701e+02,5.208517e+03
5.814343e+02,5.216036e+03
5.823986e+02,5.214491e+03
5.833628e+02,5.199369e+03
5.843270e+02,5.182770e+03
5.852913e+02,5.180955e+03
5.862555e+02,5.208743e+03
5.872197e+02,5.229419e+03
5.881840e+02,5.240331e+03
5.891482e+02,5.245027e+03
5.901124e+02,5.245104e+03
5.910767e+02,5.240163e+03
5.920409e+02,5.235987e+03
5.930051e+02,5.239686e+03
5.939694e+02,5.249302e+03
5.949336e+02,5.256103e+03
5.958978e+02,5.257568e+03
5.968621e+02,5.254898e+03
5.978263e+02,5.251255e+03
5.987905e+02,5.245279e+03
5.997548e+02,5.241610e+03
6.007190e+02,5.241920e+03
6.016832e+02,5.245309e+03
6.026475e+02,5.249163e+03
6.036117e+02,5.249680e+03
6.045759e+02,5.252110e+03
6.055402e+02,5.265216e+03
6.065044e+02,5.286987e+03
6.074686e+02,5.306632e+03
6.084329e+02,5.321685e+03
6.093971e+02,5.331860e+03
6.103613e+02,5.333154e+03
6.113256e+02,5.316959e+03
6.122899e+02,5.301273e+03
6.132541e+02,5.291604e+03
6.142183e+02,5.284016e+03
6.151826e+02,5.271913e+03
6.161468e+02,5.247630e+03
6.171110e+02,5.222660e+03
6.180753e+02,5.210205e+03
6.190395e+02,5.209065e+03
6.200037e+02,5.212932e+03
6.209680e+02,5.218964e+03
6.219322e+02,5.227612e+03
6.228964e+02,5.233299e+03
6.238607e+02,5.233508e+03
6.248249e+02,5.232323e+03
6.257891e+02,5.228725e+03
6.267534e+02,5.222273e+03
6.277176e+02,5.215260e+03
6.286818e+02,5.210021e+03
6.296461e+02,5.206770e+03
6.306103e+02,5.205036e+03
6.315745e+02,5.205120e+03
6.325388e+02,5.207649e+03
6.335030e+02,5.213047e+03
6.344672e+02,5.220735e+03
6.354315e+02,5.223770e+03
6.363957e+02,5.216222e+03
6.373599e+02,5.208127e+03
6.383242e+02,5.207413e+03
6.392884e+02,5.213638e+03
6.402526e+02,5.216559e+03
6.412169e+02,5.209660e+03
6.421811e+02,5.199755e+03
6.431453e+02,5.192947e+03
6.441096e+02,5.189521e+03
6.450738e+02,5.187263e+03
6.460380e+02,5.184755e+03
6.470023e+02,5.183060e+03
6.479665e+02,5.184445e+03
6.489307e+02,5.189231e+03
6.498950e+02,5.193727e+03
6.508592e+02,5.193194e+03
6.518234e+02,5.186217e+03
6.527877e+02,5.182367e+03
6.537519e+02,5.189977e+03
6.547161e+02,5.197195e+03
6.556804e+02,5.192309e+03
6.566446e+02,5.175931e+03
6.576088e+02,5.160873e+03
6.585731e+02,5.161701e+03
6.595373e+02,5.175260e+03
6.605015e+02,5.182029e+03
6.614658e+02,5.178639e+03
6.624300e+02,5.173125e+03
6.633942e+02,5.173679e+03
6.643585e+02,5.184048e+03
6.653227e+02,5.190047e+03
6.662869e+02,5.185817e+03
6.672512e+02,5.180219e+03
6.682154e+02,5.179561e+03
6.691796e+02,5.183969e+03
6.701439e+02,5.187807e+03
6.711081e+02,5.187822e+03
6.720723e+02,5.184593e+03
6.730366e+02,5.178394e+03
6.740008e+02,5.169616e+03
6.749650e+02,5.162147e+03
6.759293e+02,5.161864e+03
6.768935e+02,5.174292e+03
6.778577e+02,5.179779e+03
6.788220e+02,5.173416e+03
6.797862e+02,5.166595e+03
6.807504e+02,5.165812e+03
6.817147e+02,5.171482e+03
6.826789e+02,5.173877e+03
6.836431e+02,5.163599e+03
6.846074e+02,5.148977e+03
6.855716e+02,5.141421e+03
6.865358e+02,5.143751e+03
6.875001e+02,5.149302e+03
6.884643e+02,5.149802e+03
6.894285e+02,5.145513e+03
6.903928e+02,5.143115e+03
6.913570e+02,5.143985e+03
6.923212e+02,5.144408e+03
6.932855e+02,5.140639e+03
6.942497e+02,5.130471e+03
6.952139e+02,5.125193e+03
6.961782e+02,5.128852e+03
6.971424e+02,5.133568e+03
6.981066e+02,5.131648e+03
6.990709e+02,5.119780e+03
7.000351e+02,5.105697e+03
7.009993e+02,5.096127e+03
7.019636e+02,5.092418e+03
7.029278e+02,5.096954e+03
7.038920e+02,5.110221e+03
7.048563e+02,5.122530e+03
7.058205e+02,5.122134e+03
7.067847e+02,5.106524e+03
7.077490e+02,5.093943e+03
7.087132e+02,5.086575e+03
7.096774e+02,5.085634e+03
7.106417e+02,5.088577e+03
7.116059e+02,5.095636e+03
7.125701e+02,5.100375e+03
7.135344e+02,5.101172e+03
7.144986e+02,5.100764e+03
7.154628e+02,5.100682e+03
7.164271e+02,5.100615e+03
7.173913e+02,5.099394e+03
7.183555e+02,5.095618e+03
7.193198e+02,5.089497e+03
7.202840e+02,5.083362e+03
7.212482e+02,5.078401e+03
7.222125e+02,5.073519e+03
7.231767e+02,5.065933e+03
7.241409e+02,5.050444e+03
7.251052e+02,5.042662e+03
7.260694e+02,5.048263e+03
7.270336e+02,5.056508e+03
7.279979e+02,5.064428e+03
7.289621e+02,5.071671e+03
7.299263e+02,5.074198e+03
7.308906e+02,5.064381e+03
7.318548e+02,5.051222e+03
7.328190e+02,5.047340e+03
7.337833e+02,5.053156e+03
7.347475e+02,5.057486e+03
7.357117e+02,5.046346e+03
7.366760e+02,5.022828e+03
7.376402e+02,5.013384e+03
7.386044e+02,5.023299e+03
7.395687e+02,5.036384e+03
7.405329e+02,5.037581e+03
7.414971e+02,5.022252e+03
7.424614e+02,5.013314e+03
7.434256e+02,5.018204e+03
7.443898e+02,5.027481e+03
7.453541e+02,5.034780e+03
7.463183e+02,5.037523e+03
7.472825e+02,5.038843e+03
7.482468e+02,5.043773e+03
7.492110e+02,5.046721e+03
7.501752e+02,5.041744e+03
7.511395e+02,5.031521e+03
7.521037e+02,5.022905e+03
7.530679e+02,5.020972e+03
7.540322e+02,5.023116e+03
7.549964e+02,5.017392e+03
7.559606e+02,5.001280e+03
7.569249e+02,4.990462e+03
7.578891e+02,4.997512e+03
7.588533e+02,5.024450e+03
7.598176e+02,5.041180e+03
7.607818e+02,5.035509e+03
7.617460e+02,5.024021e+03
7.627103e+02,5.011888e+03
7.636745e+02,5.002052e+03
7.646387e+02,4.996280e+03
7.656030e+02,4.997156e+03
7.665672e+02,5.000484e+03
7.675314e+02,5.000162e+03
7.684957e+02,4.994509e+03
7.694599e+02,4.987214e+03
7.704241e+02,4.983797e+03
7.713884e+02,4.984370e+03
7.723526e+02,4.984085e+03
7.733168e+02,4.983743e+03
7.742811e+02,4.986548e+03
7.752453e+02,4.991898e+03
7.762095e+02,4.997608e+03
7.771738e+02,5.000955e+03
7.781380e+02,4.996538e+03
7.791022e+02,4.992576e+03
7.800665e+02,4.994388e+03
7.810307e+02,4.999300e+03
7.819949e+02,5.002313e+03
7.829592e+02,5.004833e+03
7.839234e+02,5.005968e+03
7.848876e+02,5.002883e+03
7.858519e+02,4.996897e+03
7.868161e+02,4.990610e+03
7.877803e+02,4.984779e+03
7.887446e+02,4.979946e+03
7.897088e+02,4.979725e+03
7.906730e+02,4.984904e+03
7.916373e+02,4.988869e+03
7.926015e+02,4.987234e+03
7.935657e+02,4.978398e+03
7.945300e+02,4.964331e+03
7.954942e+02,4.943554e+03
7.964584e+02,4.927061e+03
7.974227e+02,4.922931e+03
7.983869e+02,4.927446e+03
7.993511e+02,4.930188e+03
8.003154e+02,4.926132e+03
8.012796e+02,4.920466e+03
8.022438e+02,4.917075e+03
8.032081e+02,4.914641e+03
8.041723e+02,4.910213e+03
8.051365e+02,4.902161e+03
8.061008e+02,4.896724e+03
8.070650e+02,4.901108e+03
8.080292e+02,4.908683e+03
8.089935e+02,4.910287e+03
8.099577e+02,4.905864e+03
8.109219e+02,4.899546e+03
8.118862e+02,4.894570e+03
8.128504e+02,4.890873e+03
8.138146e+02,4.887499e+03
8.147789e+02,4.883859e+03
8.157431e+02,4.879120e+03
8.167073e+02,4.873432e+03
8.176716e+02,4.868872e+03
8.186358e+02,4.866782e+03
8.196000e+02,4.866078e+03
8.205643e+02,4.868273e+03
8.215285e+02,4.872992e+03
8.224927e+02,4.879522e+03
8.234570e+02,4.884971e+03
8.244212e+02,4.889615e+03
8.253854e+02,4.892469e+03
8.263497e+02,4.891455e+03
8.273139e+02,4.885966e+03
8.282781e+02,4.877975e+03
8.292424e+02,4.869184e+03
8.302066e+02,4.862394e+03
8.311708e+02,4.861524e+03
8.321351e+02,4.865237e+03
8.330993e+02,4.866185e+03
8.340635e+02,4.858577e+03
8.350278e+02,4.846039e+03
8.359920e+02,4.841865e+03
8.369562e+02,4.847841e+03
8.379205e+02,4.853991e+03
8.388847e+02,4.858120e+03
8.398489e+02,4.859959e+03
8.408132e+02,4.857722e+03
8.417774e+02,4.843987e+03
8.427416e+02,4.835159e+03
8.437059e+02,4.836180e+03
8.446701e+02,4.841209e+03
8.456343e+02,4.844846e+03
8.465986e+02,4.846889e+03
8.475628e+02,4.845219e+03
8.485270e+02,4.837136e+03
8.494913e+02,4.825893e+03
8.504555e+02,4.813719e+03
8.514197e+02,4.801561e+03
8.523840e+02,4.795102e+03
8.533482e+02,4.802958e+03
8.543124e+02,4.817171e+03
8.552767e+02,4.824131e+03
8.562409e+02,4.821505e+03
8.572051e+02,4.812813e+03
8.581694e+02,4.800106e+03
8.591336e+02,4.784778e+03
8.600978e+02,4.776713e+03
8.610621e+02,4.778253e+03
8.620263e+02,4.782137e+03
8.629905e+02,4.781179e+03
8.639548e+02,4.773146e+03
8.649190e+02,4.769886e+03
8.658832e+02,4.780446e+03
8.668475e+02,4.788318e+03
8.678117e+02,4.781947e+03
8.687759e+02,4.764352e+03
8.697402e+02,4.754953e+03
8.707044e+02,4.757578e+03
8.716686e+02,4.760532e+03
8.726329e+02,4.764845e+03
8.735971e+02,4.769464e+03
8.745613e+02,4.770917e+03
8.755256e+02,4.768883e+03
8.764898e+02,4.765315e+03
8.774540e+02,4.759051e+03
8.784183e+02,4.750742e+03
8.793825e+02,4.740914e+03
8.803467e+02,4.728530e+03
8.813110e+02,4.719787e+03
8.822752e+02,4.727521e+03
8.832394e+02,4.747627e+03
8.842037e+02,4.762981e+03
8.851679e+02,4.768477e+03
8.861321e+02,4.764302e+03
8.870964e+02,4.747144e+03
8.880606e+02,4.715487e+03
8.890248e+02,4.696905e+03
8.899891e+02,4.698525e+03
8.909533e+02,4.708617e+03
8.919175e+02,4.715696e+03
8.928818e+02,4.719144e+03
8.938460e+02,4.722095e+03
8.948102e+02,4.724260e+03
8.957745e+02,4.723816e+03
8.967387e+02,4.719251e+03
8.977029e+02,4.709771e+03
8.986672e+02,4.701286e+03
8.996314e+02,4.698292e+03
9.005956e+02,4.697476e+03
9.015599e+02,4.698114e+03
9.025241e+02,4.698360e+03
9.034883e+02,4.695595e+03
9.044526e+02,4.684757e+03
9.054168e+02,4.672216e+03
9.063810e+02,4.666484e+03
9.073453e+02,4.666360e+03
9.083095e+02,4.664772e+03
9.092737e+02,4.655700e+03
9.102380e+02,4.645380e+03
9.112022e+02,4.643147e+03
9.121664e+02,4.645397e+03
9.131307e+02,4.643560e+03
9.140949e+02,4.636522e+03
9.150591e+02,4.630399e+03
9.160234e+02,4.630881e+03
9.169876e+02,4.634729e+03
9.179518e+02,4.635031e+03
9.189161e+02,4.630750e+03
9.198803e+02,4.624553e+03
9.208445e+02,4.621129e+03
9.218088e+02,4.622681e+03
9.227730e+02,4.621548e+03
9.237372e+02,4.615612e+03
9.247015e+02,4.608001e+03
9.256657e+02,4.599454e+03
9.266299e+02,4.589322e+03
9.275942e+02,4.587530e+03
9.285584e+02,4.603006e+03
9.295226e+02,4.614077e+03
9.304869e+02,4.611284e+03
9.314511e+02,4.599118e+03
9.324153e+02,4.589717e+03
9.333796e+02,4.584370e+03
9.343438e+02,4.581082e+03
9.353080e+02,4.579792e+03
9.362723e+02,4.577777e+03
9.372365e+02,4.573172e+03
9.382007e+02,4.566520e+03
9.391650e+02,4.562194e+03
9.401292e+02,4.563341e+03
9.410934e+02,4.566596e+03
9.420577e+02,4.567609e+03
9.430219e+02,4.564921e+03
9.439861e+02,4.558494e+03
9.449504e+02,4.544403e+03
9.459146e+02,4.532028e+03
9.468788e+02,4.535132e+03
9.478431e+02,4.551043e+03
9.488073e+02,4.562417e+03
9.497715e+02,4.552240e+03
9.507358e+02,4.530954e+03
9.517000e+02,4.522300e+03
9.526642e+02,4.527113e+03
9.536285e+02,4.532568e+03
9.545927e+02,4.529240e+03
9.555569e+02,4.519724e+03
9.565212e+02,4.513233e+03
9.574854e+02,4.511407e+03
9.584496e+02,4.509205e+03
9.594139e+02,4.501663e+03
9.603781e+02,4.491545e+03
9.613423e+02,4.491229e+03
9.623066e+02,4.504601e+03
9.632708e+02,4.510025e+03
9.642350e+02,4.502278e+03
9.651993e+02,4.489061e+03
9.661635e+02,4.478693e+03
9.671277e+02,4.468108e+03
9.680920e+02,4.464345e+03
9.690562e+02,4.472808e+03
9.700204e+02,4.481680e+03
9.709847e+02,4.483490e+03
9.719489e+02,4.478346e+03
9.729131e+02,4.473009e+03
9.738774e+02,4.468194e+03
9.748416e+02,4.464699e+03
9.758058e+02,4.460430e+03
9.767701e+02,4.454727e+03
9.777343e+02,4.451158e+03
9.786985e+02,4.452616e+03
9.796628e+02,4.452540e+03
9.806270e+02,4.450158e+03
9.815912e+02,4.444991e+03
9.825555e+02,4.436524e+03
9.835197e+02,4.423556e+03
9.844839e+02,4.412719e+03
9.854482e+02,4.408833e+03
9.864124e+02,4.408273e+03
9.873766e+02,4.405310e+03
9.883409e+02,4.398473e+03
9.893051e+02,4.393172e+03
9.902693e+02,4.392167e+03
9.912336e+02,4.395104e+03
9.921978e+02,4.401732e+03
9.931620e+02,4.410009e+03
9.941263e+02,4.415438e+03
9.950905e+02,4.414943e+03
9.960547e+02,4.410907e+03
9.970190e+02,4.406701e+03
9.979832e+02,4.401183e+03
9.989474e+02,4.390717e+03
9.999117e+02,4.370769e+03
1.000876e+03,4.351111e+03
1.001840e+03,4.348609e+03
1.002804e+03,4.359906e+03
1.003769e+03,4.370735e+03
1.004733e+03,4.374888e+03
1.005697e+03,4.374140e+03
1.006661e+03,4.369867e+03
1.007626e+03,4.363577e+03
1.008590e+03,4.361384e+03
1.009554e+03,4.363586e+03
1.010518e+03,4.365150e+03
1.011482e+03,4.360226e+03
1.012447e+03,4.349937e+03
1.013411e+03,4.345972e+03
1.014375e+03,4.351502e+03
1.015339e+03,4.355630e+03
1.016304e+03,4.348325e+03
1.017268e+03,4.331599e+03
1.018232e+03,4.319228e+03
1.019196e+03,4.310790e+03
1.020161e+03,4.305987e+03
1.021125e+03,4.306826e+03
1.022089e+03,4.311346e+03
1.023053e+03,4.310525e+03
1.024018e+03,4.301421e+03
1.024982e+03,4.293164e+03
1.025946e+03,4.286232e+03
1.026910e+03,4.279863e+03
1.027875e+03,4.275977e+03
1.028839e+03,4.277816e+03
1.029803e+03,4.279022e+03
1.030767e+03,4.279758e+03
1.031731e+03,4.279883e+03
1.032696e+03,4.278504e+03
1.033660e+03,4.275197e+03
1.034624e+03,4.269779e+03
1.035588e+03,4.259765e+03
1.036552e+03,4.255329e+03
1.037517e+03,4.262052e+03
1.038481e+03,4.275192e+03
1.039445e+03,4.281502e+03
1.040409e+03,4.279734e+03
1.041374e+03,4.273300e+03
1.042338e+03,4.259775e+03
1.043302e+03,4.245544e+03
1.044266e+03,4.238069e+03
1.045231e+03,4.241985e+03
1.046195e+03,4.243092e+03
1.047159e+03,4.241648e+03
1.048123e+03,4.238928e+03
1.049088e+03,4.235515e+03
1.050052e+03,4.232664e+03
1.051016e+03,4.230218e+03
1.051980e+03,4.227027e+03
1.052945e+03,4.224415e+03
1.053909e+03,4.220082e+03
1.054873e+03,4.213341e+03
1.055837e+03,4.208970e+03
1.056802e+03,4.214096e+03
1.057766e+03,4.216150e+03
1.058730e+03,4.211911e+03
1.059694e+03,4.204741e+03
1.060658e+03,4.197411e+03
1.061623e+03,4.186340e+03
1.062587e+03,4.184613e+03
1.063551e+03,4.205762e+03
1.064515e+03,4.227844e+03
1.065479e+03,4.232177e+03
1.066444e+03,4.216982e+03
1.067408e+03,4.209435e+03
1.068372e+03,4.220709e+03
1.069336e+03,4.233135e+03
1.070301e+03,4.236653e+03
1.071265e+03,4.232375e+03
1.072229e+03,4.228505e+03
1.073193e+03,4.229969e+03
1.074158e+03,4.227593e+03
1.075122e+03,4.214568e+03
1.076086e+03,4.198640e+03
1.077050e+03,4.190361e+03
1.078015e+03,4.197272e+03
1.078979e+03,4.204577e+03
1.079943e+03,4.208030e+03
1.080907e+03,4.210464e+03
1.081872e+03,4.213393e+03
1.082836e+03,4.215787e+03
1.083800e+03,4.213996e+03
1.084764e+03,4.203963e+03
1.085729e+03,4.195179e+03
1.086693e+03,4.192508e+03
1.087657e+03,4.193461e+03
1.088621e+03,4.192360e+03
1.089585e+03,4.187588e+03
1.090550e+03,4.179230e+03
1.091514e+03,4.167190e+03
1.092478e+03,4.155012e+03
1.093442e+03,4.145869e+03
1.094406e+03,4.141702e+03
1.095371e+03,4.137291e+03
1.096335e+03,4.129917e+03
1.097299e+03,4.121732e+03
1.098263e+03,4.112201e+03
1.099228e+03,4.101412e+03
1.100192e+03,4.097012e+03
1.101156e+03,4.107862e+03
1.102120e+03,4.116445e+03
1.103085e+03,4.114340e+03
1.104049e+03,4.106162e+03
1.105013e+03,4.101440e+03
1.105977e+03,4.109073e+03
1.106942e+03,4.111183e+03
1.107906e+03,4.098369e+03
1.108870e+03,4.083503e+03
1.109834e+03,4.080277e+03
1.110799e+03,4.095283e+03
1.111763e+03,4.099378e+03
1.112727e+03,4.075956e+03
1.113691e+03,4.054971e+03
1.114656e+03,4.053869e+03
1.115620e+03,4.069720e+03
1.116584e+03,4.078952e+03
1.117548e+03,4.074275e+03
1.118512e+03,4.066344e+03
1.119477e+03,4.056440e+03
1.120441e+03,4.045490e+03
1.121405e+03,4.035354e+03
1.122369e+03,4.023219e+03
1.123334e+03,4.016669e+03
1.124298e+03,4.022004e+03
1.125262e+03,4.028812e+03
1.126226e+03,4.029615e+03
1.127191e+03,4.023853e+03
1.128155e+03,4.020233e+03
1.129119e+03,4.018565e+03
1.130083e+03,4.017224e+03
1.131047e+03,4.014080e+03
1.132012e+03,4.009861e+03
1.132976e+03,4.010777e+03
1.133940e+03,4.023641e+03
1.134904e+03,4.026804e+03
1.135869e+03,4.012886e+03
1.136833e+03,3.995238e+03
1.137797e+03,3.989577e+03
1.138761e+03,4.002052e+03
1.139726e+03,4.008169e+03
1.140690e+03,4.006289e+03
1.141654e+03,3.999266e+03
1.142618e+03,3.986137e+03
1.143583e+03,3.968879e+03
1.144547e+03,3.961971e+03
1.145511e+03,3.967927e+03
1.146475e+03,3.974650e+03
1.147439e+03,3.979526e+03
1.148404e+03,3.981977e+03
1.149368e+03,3.977778e+03
1.150332e+03,3.965194e+03
1.151296e+03,3.960022e+03
1.152261e+03,3.963434e+03
1.153225e+03,3.965223e+03
1.154189e+03,3.959308e+03
1.155153e+03,3.947904e+03
1.156118e+03,3.933836e+03
1.157082e+03,3.918125e+03
1.158046e+03,3.911552e+03
1.159010e+03,3.919576e+03
1.159974e+03,3.934031e+03
1.160939e+03,3.936816e+03
1.161903e+03,3.929100e+03
1.162867e+03,3.924285e+03
1.163831e+03,3.924952e+03
1.164796e+03,3.927239e+03
1.165760e+03,3.930336e+03
1.166724e+03,3.932941e+03
1.167688e+03,3.928265e+03
1.168653e+03,3.917244e+03
1.169617e+03,3.907083e+03
1.170581e+03,3.903089e+03
1.171545e+03,3.902559e+03
1.172510e+03,3.902532e+03
1.173474e+03,3.902712e+03
1.174438e+03,3.900633e+03
1.175402e+03,3.894574e+03
1.176366e+03,3.889292e+03
1.177331e+03,3.890790e+03
1.178295e+03,3.895369e+03
1.179259e+03,3.898769e+03
1.180223e+03,3.899449e+03
1.181188e+03,3.896449e+03
1.182152e+03,3.885812e+03
1.183116e+03,3.875022e+03
1.184080e+03,3.871466e+03
1.185045e+03,3.872551e+03
1.186009e+03,3.872589e+03
1.186973e+03,3.871263e+03
1.187937e+03,3.868432e+03
1.188901e+03,3.861556e+03
1.189866e+03,3.853865e+03
1.190830e+03,3.845035e+03
1.191794e+03,3.834302e+03
1.192758e+03,3.832676e+03
1.193723e+03,3.857560e+03
1.194687e+03,3.878678e+03
1.195651e+03,3.880349e+03
1.196615e+03,3.868903e+03
1.197580e+03,3.861064e+03
1.198544e+03,3.859888e+03
1.199508e+03,3.852422e+03
1.200472e+03,3.835296e+03
1.201437e+03,3.818210e+03
1.202401e+03,3.810617e+03
1.203365e+03,3.815169e+03
1.204329e+03,3.815785e+03
1.205293e+03,3.810828e+03
1.206258e+03,3.804071e+03
1.207222e+03,3.794919e+03
1.208186e+03,3.785719e+03
1.209150e+03,3.786606e+03
1.210115e+03,3.797863e+03
1.211079e+03,3.804480e+03
1.212043e+03,3.803815e+03
1.213007e+03,3.799433e+03
1.213972e+03,3.795628e+03
1.214936e+03,3.793517e+03
1.215900e+03,3.794987e+03
1.216864e+03,3.799823e+03
1.217828e+03,3.802122e+03
1.218793e+03,3.797696e+03
1.219757e+03,3.790224e+03
1.220721e+03,3.783601e+03
1.221685e+03,3.779364e+03
1.222650e+03,3.781249e+03
1.223614e+03,3.789315e+03
1.224578e+03,3.796164e+03
1.225542e+03,3.797323e+03
1.226507e+03,3.795126e+03
1.227471e+03,3.790102e+03
1.228435e+03,3.782282e+03
1.229399e+03,3.774336e+03
1.230364e+03,3.770385e+03
1.231328e+03,3.765601e+03
1.232292e+03,3.758113e+03
1.233256e+03,3.750770e+03
1.234220e+03,3.745230e+03
1.235185e+03,3.743286e+03
1.236149e+03,3.741432e+03
1.237113e+03,3.738704e+03
1.238077e+03,3.737026e+03
1.239042e+03,3.733528e+03
1.240006e+03,3.727617e+03
1.240970e+03,3.728218e+03
1.241934e+03,3.744100e+03
1.242899e+03,3.749971e+03
1.243863e+03,3.737382e+03
1.244827e+03,3.718529e+03
1.245791e+03,3.710549e+03
1.246755e+03,3.716622e+03
1.247720e+03,3.713656e+03
1.248684e+03,3.699779e+03
1.249648e+03,3.686353e+03
1.250612e+03,3.680303e+03
1.251577e+03,3.679061e+03
1.252541e+03,3.675763e+03
1.253505e+03,3.670437e+03
1.254469e+03,3.666600e+03
1.255434e+03,3.666033e+03
1.256398e+03,3.667363e+03
1.257362e+03,3.668033e+03
1.258326e+03,3.667806e+03
1.259291e+03,3.668238e+03
1.260255e+03,3.668434e+03
1.261219e+03,3.665649e+03
1.262183e+03,3.659866e+03
1.263147e+03,3.653086e+03
1.264112e+03,3.643848e+03
1.265076e+03,3.634920e+03
1.266040e+03,3.629984e+03
1.267004e+03,3.630938e+03
1.267969e+03,3.633186e+03
1.268933e+03,3.639924e+03
1.269897e+03,3.646554e+03
1.270861e+03,3.645630e+03
1.271826e+03,3.635686e+03
1.272790e+03,3.630239e+03
1.273754e+03,3.635228e+03
1.274718e+03,3.637040e+03
1.275682e+03,3.634076e+03
1.276647e+03,3.629230e+03
1.277611e+03,3.625313e+03
1.278575e+03,3.622375e+03
1.279539e+03,3.614613e+03
1.280504e+03,3.602801e+03
1.281468e+03,3.595095e+03
1.282432e+03,3.596151e+03
1.283396e+03,3.602424e+03
1.284361e+03,3.605774e+03
1.285325e+03,3.605849e+03
1.286289e+03,3.604266e+03
1.287253e+03,3.601153e+03
1.288218e+03,3.597369e+03
1.289182e+03,3.594525e+03
1.290146e+03,3.592133e+03
1.291110e+03,3.589923e+03
1.292074e+03,3.588215e+03
1.293039e+03,3.586646e+03
1.294003e+03,3.586570e+03
1.294967e+03,3.583378e+03
1.295931e+03,3.573050e+03
1.296896e+03,3.561898e+03
1.297860e+03,3.556509e+03
1.298824e+03,3.558862e+03
1.299788e+03,3.558309e+03
1.300753e+03,3.550310e+03
1.301717e+03,3.544281e+03
1.302681e+03,3.544556e+03
1.303645e+03,3.549232e+03
1.304609e+03,3.553291e+03
1.305574e+03,3.555449e+03
1.306538e+03,3.555775e+03
1.307502e+03,3.555888e+03
1.308466e+03,3.556055e+03
1.309431e+03,3.555152e+03
1.310395e+03,3.553640e+03
1.311359e+03,3.552914e+03
1.312323e+03,3.551255e+03
1.313288e+03,3.547132e+03
1.314252e+03,3.541290e+03
1.315216e+03,3.535900e+03
1.316180e+03,3.529839e+03
1.317145e+03,3.525702e+03
1.318109e+03,3.527061e+03
1.319073e+03,3.532651e+03
1.320037e+03,3.535056e+03
1.321001e+03,3.530553e+03
1.321966e+03,3.523860e+03
1.322930e+03,3.515858e+03
1.323894e+03,3.509587e+03
1.324858e+03,3.508431e+03
1.325823e+03,3.516707e+03
1.326787e+03,3.519234e+03
1.327751e+03,3.512668e+03
1.328715e+03,3.504600e+03
1.329680e+03,3.500263e+03
1.330644e+03,3.499219e+03
1.331608e+03,3.499538e+03
1.332572e+03,3.500675e+03
1.333536e+03,3.498954e+03
1.334501e+03,3.492297e+03
1.335465e+03,3.486419e+03
1.336429e+03,3.494524e+03
1.337393e+03,3.506139e+03
1.338358e+03,3.502873e+03
1.339322e+03,3.486762e+03
1.340286e+03,3.471317e+03
1.341250e+03,3.462270e+03
1.342215e+03,3.456039e+03
1.343179e+03,3.454835e+03
1.344143e+03,3.456840e+03
1.345107e+03,3.457769e+03
1.346072e+03,3.455532e+03
1.347036e+03,3.454454e+03
1.348000e+03,3.454094e+03
1.348964e+03,3.453815e+03
1.349928e+03,3.455041e+03
1.350893e+03,3.457070e+03
1.351857e+03,3.454588e+03
1.352821e+03,3.447151e+03
1.353785e+03,3.443968e+03
1.354750e+03,3.445774e+03
1.355714e+03,3.447393e+03
1.356678e+03,3.446621e+03
1.357642e+03,3.444743e+03
1.358607e+03,3.440200e+03
1.359571e+03,3.434111e+03
1.360535e+03,3.429983e+03
1.361499e+03,3.430061e+03
1.362464e+03,3.431265e+03
1.363428e+03,3.433095e+03
1.364392e+03,3.435973e+03
1.365356e+03,3.439379e+03
1.366320e+03,3.441359e+03
1.367285e+03,3.439459e+03
1.368249e+03,3.434948e+03
1.369213e+03,3.426211e+03
1.370177e+03,3.410234e+03
1.371142e+03,3.395932e+03
1.372106e+03,3.397743e+03
1.373070e+03,3.412331e+03
1.374034e+03,3.413327e+03
1.374999e+03,3.402482e+03
1.375963e+03,3.390897e+03
1.376927e+03,3.382595e+03
1.377891e+03,3.378326e+03
1.378855e+03,3.380954e+03
1.379820e+03,3.386072e+03
1.380784e+03,3.389182e+03
1.381748e+03,3.390470e+03
1.382712e+03,3.389130e+03
1.383677e+03,3.378698e+03
1.384641e+03,3.369380e+03
1.385605e+03,3.364593e+03
1.386569e+03,3.362325e+03
1.387534e+03,3.360845e+03
1.388498e+03,3.361444e+03
1.389462e+03,3.356507e+03
1.390426e+03,3.343983e+03
1.391391e+03,3.332612e+03
1.392355e+03,3.329026e+03
1.393319e+03,3.331160e+03
1.394283e+03,3.335173e+03
1.395247e+03,3.339774e+03
1.396212e+03,3.343394e+03
1.397176e+03,3.345792e+03
1.398140e+03,3.345541e+03
1.399104e+03,3.336854e+03
1.400069e+03,3.328616e+03
1.401033e+03,3.327075e+03
1.401997e+03,3.330684e+03
1.402961e+03,3.334937e+03
1.403926e+03,3.343407e+03
1.404890e+03,3.341972e+03
1.405854e+03,3.326515e+03
1.406818e+03,3.312252e+03
1.407782e+03,3.312139e+03
1.408747e+03,3.322056e+03
1.409711e+03,3.323015e+03
1.410675e+03,3.315306e+03
1.411639e+03,3.308339e+03
1.412604e+03,3.305409e+03
1.413568e+03,3.304168e+03
1.414532e+03,3.306068e+03
1.415496e+03,3.308035e+03
1.416461e+03,3.303433e+03
1.417425e+03,3.293968e+03
1.418389e+03,3.290158e+03
1.419353e+03,3.303975e+03
1.420318e+03,3.307927e+03
1.421282e+03,3.297875e+03
1.422246e+03,3.284197e+03
1.423210e+03,3.273668e+03
1.424174e+03,3.266837e+03
1.425139e+03,3.265223e+03
1.426103e+03,3.267401e+03
1.427067e+03,3.269409e+03
1.428031e+03,3.270545e+03
1.428996e+03,3.269452e+03
1.429960e+03,3.260130e+03
1.430924e+03,3.250064e+03
1.431888e+03,3.248507e+03
1.432853e+03,3.254356e+03
1.433817e+03,3.258390e+03
1.434781e+03,3.257372e+03
1.435745e+03,3.257753e+03
1.436709e+03,3.260431e+03
1.437674e+03,3.261260e+03
1.438638e+03,3.256545e+03
1.439602e+03,3.248239e+03
1.440566e+03,3.247652e+03
1.441531e+03,3.253714e+03
1.442495e+03,3.259363e+03
1.443459e+03,3.261610e+03
1.444423e+03,3.261974e+03
1.445388e+03,3.259041e+03
1.446352e+03,3.256002e+03
1.447316e+03,3.260157e+03
1.448280e+03,3.270749e+03
1.449245e+03,3.274583e+03
1.450209e+03,3.258644e+03
1.451173e+03,3.250941e+03
1.452137e+03,3.256254e+03
1.453101e+03,3.263649e+03
1.454066e+03,3.263542e+03
1.455030e+03,3.257374e+03
1.455994e+03,3.256352e+03
1.456958e+03,3.259477e+03
1.457923e+03,3.260210e+03
1.458887e+03,3.254751e+03
1.459851e+03,3.247746e+03
1.460815e+03,3.243749e+03
1.461780e+03,3.238853e+03
1.462744e+03,3.229624e+03
1.463708e+03,3.217734e+03
1.464672e+03,3.210951e+03
1.465636e+03,3.214096e+03
1.466601e+03,3.216923e+03
1.467565e+03,3.219022e+03
1.468529e+03,3.218405e+03
1.469493e+03,3.209688e+03
1.470458e+03,3.195564e+03
1.471422e+03,3.191298e+03
1.472386e+03,3.195303e+03
1.473350e+03,3.200147e+03
1.474315e+03,3.203298e+03
1.475279e+03,3.202868e+03
1.476243e+03,3.192091e+03
1.477207e+03,3.181216e+03
1.478172e+03,3.180647e+03
1.479136e+03,3.188383e+03
1.480100e+03,3.192577e+03
1.481064e+03,3.192677e+03
1.482028e+03,3.192952e+03
1.482993e+03,3.194508e+03
1.483957e+03,3.196021e+03
1.484921e+03,3.196255e+03
1.485885e+03,3.194450e+03
1.486850e+03,3.186309e+03
1.487814e+03,3.174470e+03
1.488778e+03,3.166905e+03
1.489742e+03,3.167334e+03
1.490707e+03,3.168581e+03
1.491671e+03,3.173806e+03
1.492635e+03,3.176512e+03
1.493599e+03,3.170647e+03
1.494563e+03,3.159667e+03
1.495528e+03,3.155659e+03
1.496492e+03,3.157804e+03
1.497456e+03,3.156914e+03
1.498420e+03,3.152984e+03
1.499385e+03,3.148230e+03
1.500349e+03,3.142324e+03
1.501313e+03,3.138365e+03
1.502277e+03,3.140551e+03
1.503242e+03,3.144823e+03
1.504206e+03,3.144445e+03
1.505170e+03,3.134671e+03
1.506134e+03,3.133499e+03
1.507099e+03,3.145191e+03
1.508063e+03,3.154827e+03
1.509027e+03,3.156670e+03
1.509991e+03,3.153744e+03
1.510955e+03,3.150189e+03
1.511920e+03,3.146272e+03
1.512884e+03,3.144044e+03
1.513848e+03,3.144267e+03
1.514812e+03,3.143438e+03
1.515777e+03,3.135708e+03
1.516741e+03,3.127208e+03
1.517705e+03,3.118241e+03
1.518669e+03,3.110367e+03
1.519634e+03,3.105621e+03
1.520598e+03,3.103452e+03
1.521562e+03,3.104110e+03
1.522526e+03,3.106533e+03
1.523490e+03,3.107865e+03
1.524455e+03,3.107877e+03
1.525419e+03,3.104571e+03
1.526383e+03,3.093100e+03
1.527347e+03,3.080451e+03
1.528312e+03,3.074337e+03
1.529276e+03,3.074863e+03
1.530240e+03,3.075723e+03
1.531204e+03,3.075727e+03
1.532169e+03,3.074236e+03
1.533133e+03,3.070610e+03
1.534097e+03,3.068602e+03
1.535061e+03,3.072837e+03
1.536026e+03,3.078031e+03
1.536990e+03,3.073946e+03
1.537954e+03,3.064940e+03
1.538918e+03,3.058625e+03
1.539882e+03,3.056591e+03
1.540847e+03,3.055718e+03
1.541811e+03,3.054171e+03
1.542775e+03,3.053364e+03
1.543739e+03,3.055734e+03
1.544704e+03,3.059113e+03
1.545668e+03,3.057481e+03
1.546632e+03,3.053206e+03
1.547596e+03,3.058624e+03
1.548561e+03,3.072016e+03
1.549525e+03,3.079760e+03
1.550489e+03,3.067828e+03
1.551453e+03,3.055926e+03
1.552417e+03,3.053621e+03
1.553382e+03,3.054669e+03
1.554346e+03,3.054432e+03
1.555310e+03,3.053869e+03
1.556274e+03,3.056615e+03
1.557239e+03,3.062342e+03
1.558203e+03,3.069963e+03
1.559167e+03,3.079569e+03
1.560131e+03,3.086287e+03
1.561096e+03,3.080794e+03
1.562060e+03,3.076042e+03
1.563024e+03,3.082417e+03
1.563988e+03,3.097657e+03
1.564953e+03,3.115457e+03
1.565917e+03,3.136699e+03
1.566881e+03,3.156346e+03
1.567845e+03,3.174103e+03
1.568809e+03,3.185942e+03
1.569774e+03,3.189846e+03
1.570738e+03,3.187619e+03
1.571702e+03,3.178949e+03
1.572666e+03,3.166945e+03
1.573631e+03,3.155835e+03
1.574595e+03,3.147094e+03
1.575559e+03,3.137578e+03
1.576523e+03,3.125344e+03
1.577488e+03,3.118081e+03
1.578452e+03,3.116638e+03
1.579416e+03,3.115173e+03
1.580380e+03,3.108011e+03
1.581344e+03,3.097616e+03
1.582309e+03,3.089290e+03
1.583273e+03,3.082085e+03
1.584237e+03,3.072181e+03
1.585201e+03,3.056769e+03
1.586166e+03,3.043560e+03
1.587130e+03,3.032301e+03
1.588094e+03,3.023402e+03
1.589058e+03,3.018874e+03
1.590023e+03,3.016053e+03
1.590987e+03,3.006777e+03
1.591951e+03,2.995613e+03
1.592915e+03,2.991958e+03
1.593880e+03,2.994494e+03
1.594844e+03,2.995329e+03
1.595808e+03,2.993023e+03
1.596772e+03,2.986473e+03
1.597736e+03,2.974092e+03
1.598701e+03,2.962325e+03
1.599665e+03,2.955502e+03
1.600629e+03,2.953552e+03
1.601593e+03,2.958926e+03
1.602558e+03,2.968828e+03
1.603522e+03,2.974698e+03
1.604486e+03,2.973645e+03
1.605450e+03,2.969661e+03
1.606415e+03,2.963640e+03
1.607379e+03,2.958178e+03
1.608343e+03,2.953480e+03
1.609307e+03,2.949442e+03
1.610271e+03,2.946267e+03
1.611236e+03,2.943631e+03
1.612200e+03,2.942656e+03
1.613164e+03,2.943615e+03
1.614128e+03,2.943538e+03
1.615093e+03,2.936811e+03
1.616057e+03,2.933031e+03
1.617021e+03,2.938152e+03
1.617985e+03,2.942550e+03
1.618950e+03,2.941376e+03
1.619914e+03,2.935683e+03
1.620878e+03,2.926165e+03
1.621842e+03,2.915578e+03
1.622807e+03,2.914519e+03
1.623771e+03,2.925740e+03
1.624735e+03,2.937993e+03
1.625699e+03,2.947192e+03
1.626663e+03,2.951140e+03
1.627628e+03,2.947538e+03
1.628592e+03,2.938647e+03
1.629556e+03,2.928152e+03
1.630520e+03,2.918053e+03
1.631485e+03,2.911846e+03
1.632449e+03,2.908840e+03
1.633413e+03,2.907579e+03
1.634377e+03,2.909438e+03
1.635342e+03,2.908818e+03
1.636306e+03,2.902909e+03
1.637270e+03,2.894830e+03
1.638234e+03,2.884853e+03
1.639198e+03,2.874738e+03
1.640163e+03,2.866031e+03
1.641127e+03,2.860200e+03
1.642091e+03,2.862000e+03
1.643055e+03,2.869726e+03
1.644020e+03,2.873538e+03
1.644984e+03,2.862208e+03
1.645948e+03,2.854552e+03
1.646912e+03,2.858059e+03
1.647877e+03,2.861667e+03
1.648841e+03,2.854246e+03
1.649805e+03,2.841178e+03
1.650769e+03,2.840119e+03
1.651734e+03,2.846631e+03
1.652698e+03,2.850771e+03
1.653662e+03,2.849006e+03
1.654626e+03,2.845702e+03
1.655590e+03,2.840723e+03
1.656555e+03,2.837023e+03
1.657519e+03,2.837057e+03
1.658483e+03,2.838962e+03
1.659447e+03,2.838120e+03
1.660412e+03,2.834718e+03
1.661376e+03,2.830938e+03
1.662340e+03,2.828113e+03
1.663304e+03,2.827406e+03
1.664269e+03,2.829463e+03
1.665233e+03,2.829974e+03
1.666197e+03,2.828150e+03
1.667161e+03,2.823852e+03
1.668125e+03,2.816294e+03
1.669090e+03,2.809687e+03
1.670054e+03,2.812931e+03
1.671018e+03,2.819989e+03
1.671982e+03,2.824074e+03
1.672947e+03,2.824387e+03
1.673911e+03,2.821874e+03
1.674875e+03,2.813924e+03
1.675839e+03,2.807500e+03
1.676804e+03,2.804917e+03
1.677768e+03,2.806460e+03
1.678732e+03,2.814016e+03
1.679696e+03,2.821562e+03
1.680661e+03,2.823832e+03
1.681625e+03,2.821008e+03
1.682589e+03,2.815179e+03
1.683553e+03,2.807489e+03
1.684517e+03,2.802385e+03
1.685482e+03,2.799317e+03
1.686446e+03,2.793112e+03
1.687410e+03,2.781185e+03
1.688374e+03,2.772254e+03
1.689339e+03,2.776366e+03
1.690303e+03,2.781447e+03
1.691267e+03,2.779362e+03
1.692231e+03,2.774557e+03
1.693196e+03,2.774261e+03
1.694160e+03,2.776626e+03
1.695124e+03,2.772669e+03
1.696088e+03,2.764199e+03
1.697052e+03,2.760437e+03
1.698017e+03,2.767751e+03
1.698981e+03,2.772080e+03
1.699945e+03,2.767389e+03
1.700909e+03,2.760535e+03
1.701874e+03,2.757266e+03
1.702838e+03,2.756915e+03
1.703802e+03,2.753233e+03
1.704766e+03,2.747820e+03
1.705731e+03,2.748836e+03
1.706695e+03,2.756831e+03
1.707659e+03,2.757075e+03
1.708623e+03,2.744010e+03
1.709588e+03,2.735052e+03
1.710552e+03,2.731039e+03
1.711516e+03,2.729482e+03
1.712480e+03,2.732208e+03
1.713444e+03,2.733680e+03
1.714409e+03,2.725038e+03
1.715373e+03,2.714203e+03
1.716337e+03,2.712837e+03
1.717301e+03,2.721937e+03
1.718266e+03,2.730313e+03
1.719230e+03,2.737184e+03
1.720194e+03,2.737235e+03
1.721158e+03,2.727904e+03
1.722123e+03,2.718055e+03
1.723087e+03,2.715115e+03
1.724051e+03,2.712128e+03
1.725015e+03,2.703243e+03
1.725979e+03,2.696005e+03
1.726944e+03,2.704836e+03
1.727908e+03,2.723413e+03
1.728872e+03,2.721644e+03
1.729836e+03,2.703747e+03
1.730801e+03,2.691392e+03
1.731765e+03,2.695384e+03
1.732729e+03,2.701145e+03
1.733693e+03,2.709667e+03
1.734658e+03,2.712184e+03
1.735622e+03,2.702342e+03
1.736586e+03,2.689729e+03
1.737550e+03,2.691710e+03
1.738515e+03,2.696973e+03
1.739479e+03,2.689233e+03
1.740443e+03,2.671014e+03
1.741407e+03,2.664000e+03
1.742371e+03,2.669653e+03
1.743336e+03,2.674856e+03
1.744300e+03,2.678258e+03
1.745264e+03,2.679008e+03
1.746228e+03,2.676613e+03
1.747193e+03,2.674359e+03
1.748157e+03,2.674851e+03
1.749121e+03,2.677758e+03
1.750085e+03,2.680795e+03
1.751050e+03,2.681083e+03
1.752014e+03,2.675765e+03
1.752978e+03,2.667680e+03
1.753942e+03,2.661958e+03
1.754906e+03,2.659012e+03
1.755871e+03,2.656876e+03
1.756835e+03,2.653879e+03
1.757799e+03,2.649845e+03
1.758763e+03,2.647110e+03
1.759728e+03,2.647277e+03
1.760692e+03,2.654704e+03
1.761656e+03,2.661869e+03
1.762620e+03,2.658149e+03
1.763585e+03,2.649274e+03
1.764549e+03,2.643498e+03
1.765513e+03,2.639921e+03
1.766477e+03,2.644614e+03
1.767442e+03,2.655841e+03
1.768406e+03,2.657833e+03
1.769370e+03,2.644669e+03
1.770334e+03,2.631532e+03
1.771298e+03,2.622166e+03
1.772263e+03,2.615765e+03
1.773227e+03,2.613651e+03
1.774191e+03,2.613300e+03
1.775155e+03,2.610078e+03
1.776120e+03,2.606266e+03
1.777084e+03,2.606515e+03
1.778048e+03,2.609769e+03
1.779012e+03,2.612300e+03
1.779977e+03,2.614538e+03
1.780941e+03,2.616312e+03
1.781905e+03,2.616430e+03
1.782869e+03,2.614196e+03
1.783833e+03,2.609190e+03
1.784798e+03,2.603270e+03
1.785762e+03,2.595760e+03
1.786726e+03,2.589411e+03
1.787690e+03,2.586883e+03
1.788655e+03,2.585378e+03
1.789619e+03,2.576281e+03
1.790583e+03,2.564603e+03
1.791547e+03,2.560271e+03
1.792512e+03,2.563000e+03
1.793476e+03,2.566792e+03
1.794440e+03,2.569789e+03
1.795404e+03,2.572618e+03
1.796369e+03,2.574416e+03
1.797333e+03,2.577153e+03
1.798297e+03,2.584588e+03
1.799261e+03,2.589641e+03
1.800225e+03,2.584517e+03
1.801190e+03,2.576021e+03
1.802154e+03,2.569464e+03
1.803118e+03,2.563844e+03
1.804082e+03,2.557253e+03
1.805047e+03,2.551602e+03
1.806011e+03,2.550175e+03
1.806975e+03,2.552680e+03
1.807939e+03,2.553907e+03
1.808904e+03,2.552250e+03
1.809868e+03,2.549235e+03
1.810832e+03,2.545653e+03
1.811796e+03,2.543519e+03
1.812760e+03,2.543599e+03
1.813725e+03,2.545472e+03
1.814689e+03,2.551458e+03
1.815653e+03,2.556935e+03
1.816617e+03,2.558638e+03
1.817582e+03,2.557125e+03
1.818546e+03,2.552879e+03
1.819510e+03,2.546473e+03
1.820474e+03,2.539759e+03
1.821439e+03,2.533494e+03
1.822403e+03,2.526572e+03
1.823367e+03,2.518862e+03
1.824331e+03,2.510622e+03
1.825296e+03,2.500905e+03
1.826260e+03,2.495713e+03
1.827224e+03,2.509280e+03
1.828188e+03,2.521586e+03
1.829152e+03,2.518818e+03
1.830117e+03,2.509295e+03
1.831081e+03,2.495652e+03
1.832045e+03,2.481948e+03
1.833009e+03,2.486162e+03
1.833974e+03,2.502059e+03
1.834938e+03,2.515346e+03
1.835902e+03,2.522204e+03
1.836866e+03,2.516752e+03
1.837831e+03,2.497472e+03
1.838795e+03,2.485667e+03
1.839759e+03,2.487112e+03
1.840723e+03,2.491619e+03
1.841688e+03,2.491281e+03
1.842652e+03,2.491731e+03
1.843616e+03,2.495190e+03
1.844580e+03,2.496140e+03
1.845544e+03,2.488355e+03
1.846509e+03,2.477053e+03
1.847473e+03,2.469664e+03
1.848437e+03,2.465654e+03
1.849401e+03,2.465300e+03
1.850366e+03,2.468626e+03
1.851330e+03,2.467302e+03
1.852294e+03,2.462653e+03
1.853258e+03,2.459112e+03
1.854223e+03,2.457528e+03
1.855187e+03,2.458966e+03
1.856151e+03,2.466332e+03
1.857115e+03,2.471016e+03
1.858079e+03,2.471561e+03
1.859044e+03,2.466209e+03
1.860008e+03,2.448488e+03
1.860972e+03,2.430648e+03
1.861936e+03,2.424160e+03
1.862901e+03,2.426114e+03
1.863865e+03,2.431323e+03
1.864829e+03,2.437466e+03
1.865793e+03,2.438727e+03
1.866758e+03,2.436722e+03
1.867722e+03,2.433479e+03
1.868686e+03,2.428385e+03
1.869650e+03,2.425205e+03
1.870615e+03,2.423280e+03
1.871579e+03,2.423755e+03
1.872543e+03,2.428571e+03
1.873507e+03,2.433582e+03
1.874471e+03,2.431961e+03
1.875436e+03,2.428471e+03
1.876400e+03,2.427351e+03
1.877364e+03,2.425727e+03
1.878328e+03,2.418302e+03
1.879293e+03,2.408819e+03
1.880257e+03,2.404639e+03
1.881221e+03,2.402902e+03
1.882185e+03,2.397865e+03
1.883150e+03,2.389535e+03
1.884114e+03,2.392837e+03
1.885078e+03,2.405104e+03
1.886042e+03,2.412019e+03
1.887006e+03,2.408913e+03
1.887971e+03,2.404615e+03
1.888935e+03,2.402432e+03
1.889899e+03,2.401992e+03
1.890863e+03,2.402356e+03
1.891828e+03,2.400615e+03
1.892792e+03,2.394531e+03
1.893756e+03,2.386856e+03
1.894720e+03,2.380471e+03
1.895685e+03,2.377004e+03
1.896649e+03,2.377365e+03
1.897613e+03,2.378628e+03
1.898577e+03,2.372268e+03
1.899542e+03,2.362534e+03
1.900506e+03,2.358566e+03
1.901470e+03,2.361933e+03
1.902434e+03,2.362957e+03
1.903398e+03,2.361832e+03
1.904363e+03,2.359992e+03
1.905327e+03,2.358094e+03
1.906291e+03,2.355449e+03
1.907255e+03,2.345878e+03
1.908220e+03,2.343800e+03
1.909184e+03,2.354453e+03
1.910148e+03,2.362219e+03
1.911112e+03,2.345529e+03
1.912077e+03,2.327806e+03
1.913041e+03,2.333403e+03
1.914005e+03,2.344890e+03
1.914969e+03,2.342944e+03
1.915933e+03,2.331989e+03
1.916898e+03,2.326452e+03
1.917862e+03,2.325205e+03
1.918826e+03,2.325096e+03
1.919790e+03,2.326315e+03
1.920755e+03,2.329694e+03
1.921719e+03,2.333633e+03
1.922683e+03,2.330768e+03
1.923647e+03,2.320260e+03
1.924612e+03,2.312230e+03
1.925576e+03,2.314489e+03
1.926540e+03,2.313416e+03
1.927504e+03,2.304734e+03
1.928469e+03,2.297427e+03
1.929433e+03,2.301883e+03
1.930397e+03,2.307192e+03
1.931361e+03,2.305473e+03
1.932325e+03,2.301021e+03
1.933290e+03,2.298903e+03
1.934254e+03,2.298051e+03
1.935218e+03,2.288703e+03
1.936182e+03,2.275244e+03
1.937147e+03,2.267846e+03
1.938111e+03,2.267836e+03
1.939075e+03,2.275764e+03
1.940039e+03,2.290305e+03
1.941004e+03,2.294021e+03
1.941968e+03,2.283531e+03
1.942932e+03,2.274365e+03
1.943896e+03,2.271762e+03
1.944860e+03,2.270282e+03
1.945825e+03,2.270423e+03
1.946789e+03,2.272380e+03
1.947753e+03,2.278979e+03
1.948717e+03,2.281000e+03
1.949682e+03,2.271927e+03
1.950646e+03,2.261842e+03
1.951610e+03,2.255854e+03
1.952574e+03,2.253811e+03
1.953539e+03,2.257809e+03
1.954503e+03,2.263546e+03
1.955467e+03,2.268269e+03
1.956431e+03,2.271272e+03
1.957396e+03,2.267877e+03
1.958360e+03,2.260036e+03
1.959324e+03,2.253649e+03
1.960288e+03,2.250060e+03
1.961252e+03,2.247101e+03
1.962217e+03,2.243367e+03
1.963181e+03,2.238644e+03
1.964145e+03,2.233062e+03
1.965109e+03,2.230676e+03
1.966074e+03,2.237415e+03
1.967038e+03,2.241894e+03
1.968002e+03,2.240110e+03
1.968966e+03,2.240306e+03
1.969931e+03,2.248202e+03
1.970895e+03,2.254442e+03
1.971859e+03,2.255428e+03
1.972823e+03,2.252253e+03
1.973787e+03,2.243121e+03
1.974752e+03,2.232277e+03
1.975716e+03,2.227665e+03
1.976680e+03,2.224156e+03
1.977644e+03,2.215911e+03
1.978609e+03,2.208083e+03
1.979573e+03,2.208865e+03
1.980537e+03,2.214618e+03
1.981501e+03,2.214858e+03
1.982466e+03,2.211231e+03
1.983430e+03,2.207906e+03
1.984394e+03,2.204690e+03
1.985358e+03,2.205589e+03
1.986323e+03,2.209425e+03
1.987287e+03,2.210940e+03
1.988251e+03,2.208217e+03
1.989215e+03,2.202997e+03
1.990179e+03,2.196140e+03
1.991144e+03,2.187450e+03
1.992108e+03,2.177164e+03
1.993072e+03,2.170758e+03
1.994036e+03,2.171984e+03
1.995001e+03,2.176645e+03
1.995965e+03,2.183643e+03
1.996929e+03,2.192914e+03
1.997893e+03,2.208640e+03
1.998858e+03,2.218982e+03
1.999822e+03,2.208436e+03
2.000786e+03,2.191667e+03
2.001750e+03,2.181842e+03
2.002714e+03,2.178553e+03
2.003679e+03,2.180777e+03
2.004643e+03,2.182896e+03
2.005607e+03,2.175153e+03
2.006571e+03,2.161521e+03
2.007536e+03,2.156153e+03
2.008500e+03,2.157007e+03
2.009464e+03,2.156825e+03
2.010428e+03,2.155573e+03
2.011393e+03,2.157156e+03
2.012357e+03,2.161887e+03
2.013321e+03,2.164576e+03
2.014285e+03,2.163531e+03
2.015250e+03,2.161612e+03
2.016214e+03,2.161362e+03
2.017178e+03,2.157967e+03
2.018142e+03,2.151607e+03
2.019106e+03,2.144507e+03
2.020071e+03,2.136106e+03
2.021035e+03,2.130417e+03
2.021999e+03,2.131952e+03
2.022963e+03,2.130038e+03
2.023928e+03,2.120058e+03
2.024892e+03,2.110599e+03
2.025856e+03,2.113854e+03
2.026820e+03,2.117520e+03
2.027785e+03,2.112397e+03
2.028749e+03,2.104937e+03
2.029713e+03,2.105858e+03
2.030677e+03,2.110698e+03
2.031641e+03,2.114430e+03
2.032606e+03,2.115650e+03
2.033570e+03,2.112037e+03
2.034534e+03,2.104776e+03
2.035498e+03,2.099993e+03
2.036463e+03,2.097790e+03
2.037427e+03,2.098457e+03
2.038391e+03,2.102739e+03
2.039355e+03,2.104801e+03
2.040320e+03,2.104910e+03
2.041284e+03,2.102042e+03
2.042248e+03,2.095107e+03
2.043212e+03,2.088787e+03
2.044177e+03,2.083846e+03
2.045141e+03,2.084595e+03
2.046105e+03,2.091061e+03
2.047069e+03,2.096365e+03
2.048033e+03,2.094912e+03
2.048998e+03,2.094198e+03
2.049962e+03,2.095765e+03
2.050926e+03,2.094829e+03
2.051890e+03,2.085411e+03
2.052854e+03,2.076824e+03
2.053819e+03,2.070409e+03
2.054783e+03,2.065862e+03
2.055747e+03,2.066519e+03
2.056711e+03,2.066122e+03
2.057676e+03,2.051076e+03
2.058640e+03,2.043040e+03
2.059604e+03,2.054645e+03
2.060568e+03,2.069919e+03
2.061533e+03,2.064389e+03
2.062497e+03,2.053466e+03
2.063461e+03,2.053458e+03
2.064425e+03,2.057121e+03
2.065390e+03,2.055017e+03
2.066354e+03,2.048181e+03
2.067318e+03,2.034565e+03
2.068282e+03,2.021727e+03
2.069247e+03,2.024221e+03
2.070211e+03,2.037805e+03
2.071175e+03,2.036844e+03
2.072139e+03,2.027593e+03
2.073104e+03,2.025248e+03
2.074068e+03,2.031081e+03
2.075032e+03,2.029689e+03
2.075996e+03,2.022714e+03
2.076960e+03,2.021505e+03
2.077925e+03,2.027981e+03
2.078889e+03,2.033573e+03
2.079853e+03,2.037865e+03
2.080817e+03,2.037703e+03
2.081782e+03,2.032602e+03
2.082746e+03,2.023015e+03
2.083710e+03,2.007726e+03
2.084674e+03,1.995506e+03
2.085639e+03,1.987958e+03
2.086603e+03,1.985102e+03
2.087567e+03,1.984264e+03
2.088531e+03,1.986886e+03
2.089496e+03,1.992921e+03
2.090460e+03,1.995687e+03
2.091424e+03,1.994851e+03
2.092388e+03,1.994697e+03
2.093353e+03,1.998173e+03
2.094317e+03,1.998971e+03
2.095281e+03,1.992291e+03
2.096245e+03,1.984693e+03
2.097209e+03,1.984311e+03
2.098174e+03,1.983839e+03
2.099138e+03,1.980780e+03
2.100102e+03,1.977120e+03
2.101066e+03,1.974233e+03
2.102031e+03,1.972038e+03
2.102995e+03,1.971385e+03
2.103959e+03,1.970549e+03
2.104923e+03,1.967033e+03
2.105887e+03,1.965035e+03
2.106852e+03,1.970767e+03
2.107816e+03,1.975756e+03
2.108780e+03,1.972803e+03
2.109744e+03,1.964608e+03
2.110708e+03,1.956940e+03
2.111673e+03,1.952263e+03
2.112637e+03,1.954781e+03
2.113601e+03,1.958718e+03
2.114565e+03,1.951311e+03
2.115530e+03,1.938476e+03
2.116494e+03,1.933092e+03
2.117458e+03,1.936584e+03
2.118422e+03,1.939166e+03
2.119387e+03,1.939880e+03
2.120351e+03,1.943357e+03
2.121315e+03,1.948358e+03
2.122279e+03,1.957016e+03
2.123244e+03,1.969314e+03
2.124208e+03,1.959782e+03
2.125172e+03,1.935813e+03
2.126136e+03,1.920388e+03
2.127101e+03,1.919734e+03
2.128065e+03,1.917246e+03
2.129029e+03,1.913022e+03
2.129993e+03,1.911862e+03
2.130958e+03,1.912826e+03
2.131922e+03,1.912462e+03
2.132886e+03,1.911282e+03
2.133850e+03,1.905291e+03
2.134814e+03,1.896531e+03
2.135779e+03,1.895290e+03
2.136743e+03,1.908221e+03
2.137707e+03,1.911592e+03
2.138671e+03,1.905436e+03
2.139636e+03,1.899715e+03
2.140600e+03,1.900365e+03
2.141564e+03,1.898135e+03
2.142528e+03,1.892483e+03
2.143493e+03,1.890285e+03
2.144457e+03,1.894088e+03
2.145421e+03,1.898215e+03
2.146385e+03,1.903157e+03
2.147350e+03,1.900913e+03
2.148314e+03,1.889015e+03
2.149278e+03,1.881886e+03
2.150242e+03,1.893121e+03
2.151207e+03,1.896420e+03
2.152171e+03,1.886311e+03
2.153135e+03,1.874217e+03
2.154099e+03,1.871905e+03
2.155063e+03,1.869351e+03
2.156028e+03,1.863772e+03
2.156992e+03,1.862386e+03
2.157956e+03,1.872322e+03
2.158920e+03,1.878765e+03
2.159885e+03,1.873571e+03
2.160849e+03,1.867199e+03
2.161813e+03,1.864274e+03
2.162777e+03,1.862133e+03
2.163741e+03,1.862202e+03
2.164706e+03,1.857058e+03
2.165670e+03,1.844305e+03
2.166634e+03,1.832712e+03
2.167598e+03,1.827349e+03
2.168563e+03,1.830376e+03
2.169527e+03,1.843453e+03
2.170491e+03,1.852475e+03
2.171455e+03,1.838827e+03
2.172420e+03,1.824912e+03
2.173384e+03,1.826157e+03
2.174348e+03,1.832654e+03
2.175312e+03,1.839514e+03
2.176277e+03,1.842341e+03
2.177241e+03,1.834231e+03
2.178205e+03,1.823792e+03
2.179169e+03,1.817220e+03
2.180134e+03,1.813251e+03
2.181098e+03,1.806895e+03
2.182062e+03,1.804050e+03
2.183026e+03,1.808030e+03
2.183990e+03,1.813249e+03
2.184955e+03,1.811322e+03
2.185919e+03,1.807549e+03
2.186883e+03,1.805184e+03
2.187847e+03,1.803021e+03
2.188812e+03,1.798136e+03
2.189776e+03,1.796213e+03
2.190740e+03,1.810514e+03
2.191704e+03,1.821584e+03
2.192668e+03,1.805015e+03
2.193633e+03,1.781927e+03
2.194597e+03,1.785476e+03
2.195561e+03,1.795817e+03
2.196525e+03,1.793639e+03
2.197490e+03,1.785702e+03
2.198454e+03,1.783363e+03
2.199418e+03,1.782842e+03
2.200382e+03,1.781916e+03
2.201347e+03,1.780145e+03
2.202311e+03,1.769882e+03
2.203275e+03,1.761911e+03
2.204239e+03,1.770270e+03
2.205204e+03,1.780549e+03
2.206168e+03,1.774547e+03
2.207132e+03,1.762782e+03
2.208096e+03,1.755396e+03
2.209061e+03,1.749645e+03
2.210025e+03,1.743211e+03
2.210989e+03,1.738249e+03
2.211953e+03,1.740709e+03
2.212917e+03,1.747638e+03
2.213882e+03,1.750002e+03
2.214846e+03,1.750654e+03
2.215810e+03,1.763868e+03
2.216774e+03,1.771216e+03
2.217739e+03,1.758024e+03
2.218703e+03,1.736713e+03
2.219667e+03,1.725170e+03
2.220631e+03,1.720072e+03
2.221595e+03,1.718500e+03
2.222560e+03,1.717901e+03
2.223524e+03,1.715891e+03
2.224488e+03,1.713030e+03
2.225452e+03,1.709508e+03
2.226417e+03,1.707708e+03
2.227381e+03,1.708979e+03
2.228345e+03,1.714379e+03
2.229309e+03,1.727432e+03
2.230274e+03,1.739312e+03
2.231238e+03,1.743246e+03
2.232202e+03,1.741627e+03
2.233166e+03,1.736875e+03
2.234131e+03,1.733553e+03
2.235095e+03,1.735587e+03
2.236059e+03,1.737320e+03
2.237023e+03,1.728076e+03
2.237988e+03,1.715371e+03
2.238952e+03,1.703000e+03
2.239916e+03,1.692882e+03
2.240880e+03,1.690648e+03
2.241844e+03,1.691762e+03
2.242809e+03,1.693007e+03
2.243773e+03,1.694692e+03
2.244737e+03,1.696023e+03
2.245701e+03,1.697448e+03
2.246666e+03,1.702013e+03
2.247630e+03,1.701436e+03
2.248594e+03,1.686786e+03
2.249558e+03,1.673964e+03
2.250522e+03,1.680771e+03
2.251487e+03,1.690513e+03
2.252451e+03,1.694502e+03
2.253415e+03,1.693220e+03
2.254379e+03,1.687270e+03
2.255344e+03,1.681826e+03
2.256308e+03,1.680050e+03
2.257272e+03,1.676801e+03
2.258236e+03,1.661340e+03
2.259201e+03,1.652599e+03
2.260165e+03,1.656605e+03
2.261129e+03,1.662844e+03
2.262093e+03,1.663676e+03
2.263058e+03,1.661020e+03
2.264022e+03,1.657166e+03
2.264986e+03,1.652412e+03
2.265950e+03,1.641915e+03
2.266915e+03,1.637276e+03
2.267879e+03,1.641880e+03
2.268843e+03,1.644051e+03
2.269807e+03,1.640591e+03
2.270771e+03,1.635513e+03
2.271736e+03,1.629280e+03
2.272700e+03,1.629400e+03
2.273664e+03,1.637279e+03
2.274628e+03,1.642209e+03
2.275593e+03,1.637553e+03
2.276557e+03,1.633999e+03
2.277521e+03,1.634440e+03
2.278485e+03,1.634479e+03
2.279449e+03,1.632590e+03
2.280414e+03,1.624718e+03
2.281378e+03,1.611008e+03
2.282342e+03,1.607539e+03
2.283306e+03,1.633461e+03
2.284271e+03,1.641616e+03
2.285235e+03,1.632624e+03
2.286199e+03,1.619216e+03
2.287163e+03,1.605440e+03
2.288128e+03,1.602138e+03
2.289092e+03,1.606778e+03
2.290056e+03,1.609507e+03
2.291020e+03,1.608396e+03
2.291985e+03,1.603166e+03
2.292949e+03,1.595868e+03
2.293913e+03,1.590186e+03
2.294877e+03,1.587224e+03
2.295842e+03,1.596366e+03
2.296806e+03,1.613902e+03
2.297770e+03,1.616300e+03
2.298734e+03,1.606520e+03
2.299698e+03,1.605407e+03
2.300663e+03,1.611770e+03
2.301627e+03,1.600945e+03
2.302591e+03,1.581142e+03
2.303555e+03,1.574534e+03
2.304520e+03,1.578799e+03
2.305484e+03,1.582219e+03
2.306448e+03,1.583843e+03
2.307412e+03,1.579648e+03
2.308376e+03,1.572470e+03
2.309341e+03,1.570999e+03
2.310305e+03,1.572031e+03
2.311269e+03,1.571042e+03
2.312233e+03,1.572552e+03
2.313198e+03,1.590504e+03
2.314162e+03,1.604962e+03
2.315126e+03,1.589513e+03
2.316090e+03,1.565807e+03
2.317055e+03,1.556009e+03
2.318019e+03,1.551484e+03
2.318983e+03,1.541107e+03
2.319947e+03,1.535743e+03
2.320912e+03,1.551553e+03
2.321876e+03,1.566477e+03
2.322840e+03,1.558190e+03
2.323804e+03,1.551316e+03
2.324769e+03,1.558624e+03
2.325733e+03,1.567675e+03
2.326697e+03,1.568122e+03
2.327661e+03,1.569930e+03
2.328625e+03,1.575764e+03
2.329590e+03,1.574517e+03
2.330554e+03,1.555920e+03
2.331518e+03,1.543225e+03
2.332482e+03,1.539807e+03
2.333447e+03,1.538192e+03
2.334411e+03,1.535784e+03
2.335375e+03,1.530104e+03
2.336339e+03,1.521451e+03
2.337303e+03,1.518135e+03
2.338268e+03,1.526127e+03
2.339232e+03,1.526612e+03
2.340196e+03,1.521227e+03
2.341160e+03,1.518435e+03
2.342125e+03,1.520498e+03
2.343089e+03,1.520898e+03
2.344053e+03,1.518709e+03
2.345017e+03,1.519155e+03
2.345982e+03,1.522968e+03
2.346946e+03,1.524967e+03
2.347910e+03,1.526591e+03
2.348874e+03,1.529106e+03
2.349839e+03,1.529425e+03
2.350803e+03,1.520804e+03
2.351767e+03,1.508944e+03
2.352731e+03,1.502510e+03
2.353696e+03,1.502812e+03
2.354660e+03,1.514463e+03
2.355624e+03,1.526254e+03
2.356588e+03,1.518925e+03
2.357552e+03,1.506905e+03
2.358517e+03,1.501155e+03
2.359481e+03,1.500357e+03
2.360445e+03,1.508049e+03
2.361409e+03,1.510221e+03
2.362374e+03,1.496619e+03
2.363338e+03,1.483807e+03
2.364302e+03,1.495464e+03
2.365266e+03,1.502286e+03
2.366230e+03,1.493521e+03
2.367195e+03,1.486433e+03
2.368159e+03,1.496417e+03
2.369123e+03,1.498680e+03
2.370087e+03,1.490984e+03
2.371052e+03,1.483299e+03
2.372016e+03,1.480335e+03
2.372980e+03,1.477423e+03
2.373944e+03,1.473992e+03
2.374909e+03,1.473432e+03
2.375873e+03,1.478203e+03
2.376837e+03,1.480477e+03
2.377801e+03,1.480598e+03
2.378766e+03,1.477709e+03
2.379730e+03,1.472170e+03
2.380694e+03,1.470725e+03
2.381658e+03,1.471743e+03
2.382623e+03,1.465809e+03
2.383587e+03,1.456376e+03
2.384551e+03,1.458860e+03
2.385515e+03,1.464934e+03
2.386479e+03,1.460355e+03
2.387444e+03,1.453012e+03
2.388408e+03,1.456959e+03
2.389372e+03,1.463094e+03
2.390336e+03,1.460798e+03
2.391301e+03,1.455180e+03
2.392265e+03,1.448708e+03
2.393229e+03,1.442592e+03
2.394193e+03,1.436793e+03
2.395157e+03,1.435510e+03
2.396122e+03,1.446470e+03
2.397086e+03,1.452293e+03
2.398050e+03,1.447627e+03
2.399014e+03,1.441378e+03
2.399979e+03,1.435557e+03
2.400943e+03,1.433010e+03
2.401907e+03,1.433530e+03
2.402871e+03,1.432353e+03
2.403836e+03,1.428967e+03
2.404800e+03,1.429144e+03
2.405764e+03,1.432574e+03
2.406728e+03,1.436037e+03
2.407693e+03,1.437557e+03
2.408657e+03,1.433797e+03
2.409621e+03,1.427030e+03
2.410585e+03,1.422436e+03
2.411550e+03,1.421526e+03
2.412514e+03,1.427423e+03
2.413478e+03,1.435204e+03
2.414442e+03,1.430706e+03
2.415406e+03,1.421984e+03
2.416371e+03,1.417533e+03
2.417335e+03,1.415507e+03
2.418299e+03,1.412615e+03
2.419263e+03,1.411813e+03
2.420228e+03,1.415202e+03
2.421192e+03,1.418057e+03
2.422156e+03,1.415774e+03
2.423120e+03,1.413581e+03
2.424084e+03,1.411408e+03
2.425049e+03,1.408500e+03
2.426013e+03,1.407038e+03
2.426977e+03,1.401630e+03
2.427941e+03,1.393108e+03
2.428906e+03,1.388885e+03
2.429870e+03,1.390616e+03
2.430834e+03,1.389626e+03
2.431798e+03,1.386884e+03
2.432763e+03,1.386963e+03
2.433727e+03,1.389302e+03
2.434691e+03,1.390406e+03
2.435655e+03,1.391135e+03
2.436620e+03,1.394748e+03
2.437584e+03,1.398552e+03
2.438548e+03,1.393552e+03
2.439512e+03,1.387422e+03
2.440477e+03,1.388545e+03
2.441441e+03,1.388809e+03
2.442405e+03,1.373191e+03
2.443369e+03,1.363910e+03
2.444333e+03,1.372987e+03
2.445298e+03,1.382004e+03
2.446262e+03,1.371178e+03
2.447226e+03,1.362621e+03
2.448190e+03,1.360938e+03
2.449155e+03,1.362229e+03
2.450119e+03,1.367113e+03
2.451083e+03,1.371381e+03
2.452047e+03,1.374583e+03
2.453011e+03,1.377375e+03
2.453976e+03,1.380687e+03
2.454940e+03,1.376872e+03
2.455904e+03,1.368450e+03
2.456868e+03,1.356685e+03
2.457833e+03,1.344340e+03
2.458797e+03,1.345502e+03
2.459761e+03,1.351203e+03
2.460725e+03,1.346869e+03
2.461690e+03,1.339142e+03
2.462654e+03,1.337490e+03
2.463618e+03,1.338509e+03
2.464582e+03,1.341042e+03
2.465547e+03,1.343573e+03
2.466511e+03,1.341218e+03
2.467475e+03,1.340622e+03
2.468439e+03,1.343514e+03
2.469404e+03,1.342893e+03
2.470368e+03,1.333361e+03
2.471332e+03,1.326311e+03
2.472296e+03,1.321401e+03
2.473260e+03,1.321524e+03
2.474225e+03,1.328194e+03
2.475189e+03,1.324352e+03
2.476153e+03,1.315434e+03
2.477117e+03,1.314898e+03
2.478082e+03,1.321371e+03
2.479046e+03,1.336741e+03
2.480010e+03,1.348303e+03
2.480974e+03,1.335952e+03
2.481938e+03,1.317063e+03
2.482903e+03,1.312611e+03
2.483867e+03,1.313313e+03
2.484831e+03,1.313864e+03
2.485795e+03,1.312611e+03
2.486760e+03,1.305580e+03
2.487724e+03,1.305561e+03
2.488688e+03,1.315006e+03
2.489652e+03,1.320990e+03
2.490617e+03,1.312587e+03
2.491581e+03,1.309791e+03
2.492545e+03,1.312225e+03
2.493509e+03,1.312803e+03
2.494474e+03,1.309811e+03
2.495438e+03,1.309253e+03
2.496402e+03,1.309424e+03
2.497366e+03,1.306465e+03
2.498331e+03,1.301789e+03
2.499295e+03,1.298132e+03
2.500259e+03,1.293593e+03
2.501223e+03,1.287596e+03
2.502188e+03,1.282803e+03
2.503152e+03,1.283005e+03
2.504116e+03,1.282803e+03
2.505080e+03,1.280585e+03
2.506044e+03,1.278435e+03
2.507009e+03,1.276203e+03
2.507973e+03,1.275313e+03
2.508937e+03,1.276394e+03
2.509901e+03,1.279058e+03
2.510865e+03,1.282992e+03
2.511830e+03,1.284560e+03
2.512794e+03,1.282826e+03
2.513758e+03,1.275605e+03
2.514722e+03,1.268082e+03
2.515687e+03,1.278179e+03
2.516651e+03,1.286668e+03
2.517615e+03,1.271052e+03
2.518579e+03,1.251650e+03
2.519544e+03,1.258144e+03
2.520508e+03,1.262251e+03
2.521472e+03,1.253049e+03
2.522436e+03,1.245949e+03
2.523401e+03,1.256445e+03
2.524365e+03,1.260113e+03
2.525329e+03,1.254820e+03
2.526293e+03,1.252003e+03
2.527258e+03,1.255809e+03
2.528222e+03,1.252149e+03
2.529186e+03,1.244207e+03
2.530150e+03,1.242268e+03
2.531115e+03,1.245739e+03
2.532079e+03,1.250495e+03
2.533043e+03,1.256151e+03
2.534007e+03,1.263035e+03
2.534971e+03,1.265832e+03
2.535936e+03,1.256131e+03
2.536900e+03,1.246858e+03
2.537864e+03,1.242668e+03
2.538828e+03,1.237264e+03
2.539792e+03,1.222796e+03
2.540757e+03,1.220403e+03
2.541721e+03,1.231710e+03
2.542685e+03,1.234490e+03
2.543649e+03,1.228126e+03
2.544614e+03,1.227401e+03
2.545578e+03,1.230282e+03
2.546542e+03,1.230668e+03
2.547506e+03,1.230121e+03
2.548471e+03,1.231444e+03
2.549435e+03,1.233851e+03
2.550399e+03,1.238122e+03
2.551363e+03,1.240096e+03
2.552328e+03,1.235068e+03
2.553292e+03,1.233337e+03
2.554256e+03,1.240108e+03
2.555220e+03,1.240752e+03
2.556185e+03,1.232525e+03
2.557149e+03,1.229125e+03
2.558113e+03,1.232413e+03
2.559077e+03,1.232021e+03
2.560042e+03,1.227462e+03
2.561006e+03,1.219615e+03
2.561970e+03,1.212520e+03
2.562934e+03,1.208654e+03
2.563898e+03,1.208331e+03
2.564863e+03,1.213310e+03
2.565827e+03,1.217074e+03
2.566791e+03,1.216187e+03
2.567755e+03,1.215461e+03
2.568719e+03,1.214518e+03
2.569684e+03,1.214607e+03
2.570648e+03,1.218966e+03
2.571612e+03,1.210870e+03
2.572576e+03,1.194309e+03
2.573541e+03,1.185043e+03
2.574505e+03,1.183920e+03
2.575469e+03,1.197300e+03
2.576433e+03,1.210832e+03
2.577398e+03,1.200826e+03
2.578362e+03,1.185773e+03
2.579326e+03,1.193856e+03
2.580290e+03,1.200038e+03
2.581255e+03,1.192574e+03
2.582219e+03,1.183704e+03
2.583183e+03,1.181899e+03
2.584147e+03,1.183886e+03
2.585112e+03,1.190095e+03
2.586076e+03,1.185233e+03
2.587040e+03,1.167246e+03
2.588004e+03,1.167264e+03
2.588969e+03,1.177886e+03
2.589933e+03,1.185506e+03
2.590897e+03,1.189725e+03
2.591861e+03,1.188302e+03
2.592825e+03,1.186180e+03
2.593790e+03,1.186001e+03
2.594754e+03,1.185732e+03
2.595718e+03,1.183762e+03
2.596682e+03,1.183921e+03
2.597646e+03,1.186686e+03
2.598611e+03,1.180082e+03
2.599575e+03,1.165539e+03
2.600539e+03,1.152288e+03
2.601503e+03,1.144100e+03
2.602468e+03,1.151640e+03
2.603432e+03,1.165250e+03
2.604396e+03,1.167700e+03
2.605360e+03,1.165208e+03
2.606325e+03,1.158300e+03
2.607289e+03,1.154359e+03
2.608253e+03,1.157607e+03
2.609217e+03,1.157890e+03
2.610182e+03,1.145612e+03
2.611146e+03,1.145899e+03
2.612110e+03,1.157569e+03
2.613074e+03,1.159763e+03
2.614039e+03,1.152676e+03
2.615003e+03,1.152628e+03
2.615967e+03,1.154779e+03
2.616931e+03,1.154485e+03
2.617896e+03,1.153661e+03
2.618860e+03,1.156068e+03
2.619824e+03,1.153839e+03
2.620788e+03,1.142903e+03
2.621752e+03,1.138849e+03
2.622717e+03,1.157499e+03
2.623681e+03,1.160210e+03
2.624645e+03,1.147750e+03
2.625609e+03,1.146652e+03
2.626573e+03,1.155957e+03
2.627538e+03,1.153858e+03
2.628502e+03,1.146043e+03
2.629466e+03,1.141156e+03
2.630430e+03,1.135699e+03
2.631395e+03,1.120884e+03
2.632359e+03,1.110636e+03
2.633323e+03,1.111360e+03
2.634287e+03,1.113268e+03
2.635252e+03,1.114130e+03
2.636216e+03,1.117755e+03
2.637180e+03,1.123942e+03
2.638144e+03,1.131304e+03
2.639109e+03,1.135323e+03
2.640073e+03,1.117532e+03
2.641037e+03,1.098031e+03
2.642001e+03,1.106066e+03
2.642966e+03,1.117579e+03
2.643930e+03,1.118333e+03
2.644894e+03,1.117368e+03
2.645858e+03,1.124561e+03
2.646823e+03,1.117057e+03
2.647787e+03,1.095981e+03
2.648751e+03,1.092364e+03
2.649715e+03,1.107613e+03
2.650679e+03,1.118871e+03
2.651644e+03,1.121445e+03
2.652608e+03,1.106331e+03
2.653572e+03,1.088533e+03
2.654536e+03,1.092516e+03
2.655500e+03,1.098866e+03
2.656465e+03,1.100372e+03
2.657429e+03,1.103745e+03
2.658393e+03,1.110895e+03
2.659357e+03,1.109024e+03
2.660322e+03,1.099856e+03
2.661286e+03,1.099274e+03
2.662250e+03,1.104125e+03
2.663214e+03,1.103914e+03
2.664179e+03,1.102804e+03
2.665143e+03,1.112057e+03
2.666107e+03,1.112778e+03
2.667071e+03,1.094313e+03
2.668036e+03,1.077930e+03
2.669000e+03,1.072021e+03
2.669964e+03,1.076855e+03
2.670928e+03,1.089827e+03
2.671893e+03,1.102193e+03
2.672857e+03,1.111244e+03
2.673821e+03,1.102901e+03
2.674785e+03,1.087975e+03
2.675750e+03,1.078096e+03
2.676714e+03,1.075562e+03
2.677678e+03,1.092285e+03
2.678642e+03,1.095500e+03
2.679606e+03,1.077530e+03
2.680571e+03,1.067387e+03
2.681535e+03,1.069499e+03
2.682499e+03,1.066917e+03
2.683463e+03,1.062358e+03
2.684427e+03,1.074695e+03
2.685392e+03,1.091147e+03
2.686356e+03,1.082691e+03
2.687320e+03,1.073521e+03
2.688284e+03,1.084131e+03
2.689249e+03,1.089601e+03
2.690213e+03,1.084340e+03
2.691177e+03,1.077723e+03
2.692141e+03,1.073576e+03
2.693106e+03,1.071247e+03
2.694070e+03,1.069807e+03
2.695034e+03,1.065654e+03
2.695998e+03,1.061022e+03
2.696963e+03,1.060300e+03
2.697927e+03,1.061406e+03
2.698891e+03,1.062221e+03
2.699855e+03,1.061757e+03
2.700820e+03,1.058971e+03
2.701784e+03,1.067390e+03
2.702748e+03,1.084117e+03
2.703712e+03,1.081492e+03
2.704677e+03,1.066985e+03
2.705641e+03,1.074367e+03
2.706605e+03,1.082146e+03
2.707569e+03,1.052485e+03
2.708533e+03,1.031875e+03
2.709498e+03,1.042135e+03
2.710462e+03,1.050643e+03
2.711426e+03,1.041988e+03
2.712390e+03,1.047514e+03
2.713354e+03,1.062571e+03
2.714319e+03,1.063791e+03
2.715283e+03,1.056836e+03
2.716247e+03,1.057658e+03
2.717211e+03,1.059052e+03
2.718176e+03,1.055916e+03
2.719140e+03,1.051911e+03
2.720104e+03,1.048661e+03
2.721068e+03,1.047156e+03
2.722033e+03,1.047471e+03
2.722997e+03,1.046815e+03
2.723961e+03,1.044755e+03
2.724925e+03,1.042757e+03
2.725890e+03,1.039994e+03
2.726854e+03,1.033445e+03
2.727818e+03,1.026533e+03
2.728782e+03,1.018515e+03
2.729747e+03,1.018989e+03
2.730711e+03,1.041568e+03
2.731675e+03,1.044703e+03
2.732639e+03,1.033418e+03
2.733604e+03,1.034073e+03
2.734568e+03,1.041609e+03
2.735532e+03,1.041514e+03
2.736496e+03,1.031883e+03
2.737460e+03,1.009427e+03
2.738425e+03,9.996930e+02
2.739389e+03,1.023056e+03
2.740353e+03,1.030569e+03
2.741317e+03,1.017385e+03
2.742281e+03,1.025979e+03
2.743246e+03,1.048406e+03
2.744210e+03,1.049098e+03
2.745174e+03,1.037953e+03
2.746138e+03,1.024832e+03
2.747103e+03,1.019639e+03
2.748067e+03,1.026539e+03
2.749031e+03,1.029192e+03
2.749995e+03,1.014966e+03
2.750960e+03,1.011184e+03
2.751924e+03,1.015223e+03
2.752888e+03,1.017922e+03
2.753852e+03,1.019113e+03
2.754817e+03,1.021819e+03
2.755781e+03,1.021617e+03
2.756745e+03,1.014134e+03
2.757709e+03,1.011155e+03
2.758674e+03,1.014992e+03
2.759638e+03,1.022958e+03
2.760602e+03,1.033022e+03
2.761566e+03,1.029335e+03
2.762531e+03,1.018313e+03
2.763495e+03,1.007104e+03
2.764459e+03,9.979529e+02
2.765423e+03,9.963953e+02
2.766387e+03,9.924681e+02
2.767352e+03,9.847847e+02
2.768316e+03,9.828221e+02
2.769280e+03,9.879923e+02
2.770244e+03,1.003772e+03
2.771208e+03,1.018782e+03
2.772173e+03,1.009568e+03
2.773137e+03,9.914885e+02
2.774101e+03,9.807245e+02
2.775065e+03,9.766041e+02
2.776030e+03,9.801780e+02
2.776994e+03,9.862923e+02
2.777958e+03,9.922269e+02
2.778922e+03,9.898625e+02
2.779887e+03,9.842731e+02
2.780851e+03,9.940159e+02
2.781815e+03,9.984610e+02
2.782779e+03,9.840692e+02
2.783744e+03,9.722632e+02
2.784708e+03,9.769005e+02
2.785672e+03,9.781024e+02
2.786636e+03,9.742913e+02
2.787601e+03,9.702919e+02
2.788565e+03,9.671492e+02
2.789529e+03,9.624780e+02
2.790493e+03,9.622826e+02
2.791458e+03,9.785715e+02
2.792422e+03,9.838416e+02
2.793386e+03,9.742468e+02
2.794350e+03,9.708671e+02
2.795314e+03,9.781757e+02
2.796279e+03,9.777941e+02
2.797243e+03,9.761974e+02
2.798207e+03,9.884772e+02
2.799171e+03,9.987906e+02
2.800135e+03,9.782407e+02
2.801100e+03,9.662042e+02
2.802064e+03,9.729605e+02
2.803028e+03,9.819521e+02
2.803992e+03,9.888158e+02
2.804957e+03,9.825549e+02
2.805921e+03,9.721834e+02
2.806885e+03,9.778553e+02
2.807849e+03,9.763326e+02
2.808814e+03,9.556901e+02
2.809778e+03,9.447975e+02
2.810742e+03,9.613025e+02
2.811706e+03,9.716067e+02
2.812671e+03,9.747664e+02
2.813635e+03,9.767070e+02
2.814599e+03,9.759931e+02
2.815563e+03,9.632595e+02
2.816528e+03,9.589490e+02
2.817492e+03,9.790717e+02
2.818456e+03,9.839609e+02
2.819420e+03,9.702481e+02
2.820385e+03,9.555840e+02
2.821349e+03,9.450394e+02
2.822313e+03,9.454854e+02
2.823277e+03,9.488104e+02
2.824241e+03,9.471382e+02
2.825206e+03,9.461730e+02
2.826170e+03,9.504861e+02
2.827134e+03,9.561504e+02
2.828098e+03,9.608369e+02
2.829063e+03,9.581360e+02
2.830027e+03,9.516693e+02
2.830991e+03,9.504119e+02
2.831955e+03,9.510564e+02
2.832919e+03,9.449078e+02
2.833884e+03,9.521616e+02
2.834848e+03,9.727449e+02
2.835812e+03,9.734436e+02
2.836776e+03,9.555927e+02
2.837741e+03,9.537164e+02
2.838705e+03,9.578499e+02
2.839669e+03,9.560413e+02
2.840633e+03,9.550302e+02
2.841598e+03,9.592272e+02
2.842562e+03,9.581984e+02
2.843526e+03,9.496699e+02
2.844490e+03,9.384239e+02
2.845455e+03,9.284197e+02
2.846419e+03,9.292811e+02
2.847383e+03,9.333026e+02
2.848347e+03,9.320643e+02
2.849312e+03,9.321747e+02
2.850276e+03,9.346331e+02
2.851240e+03,9.383492e+02
2.852204e+03,9.420499e+02
2.853168e+03,9.470670e+02
2.854133e+03,9.500692e+02
2.855097e+03,9.425912e+02
2.856061e+03,9.446735e+02
2.857025e+03,9.604736e+02
2.857990e+03,9.640504e+02
2.858954e+03,9.477994e+02
2.859918e+03,9.316771e+02
2.860882e+03,9.225555e+02
2.861846e+03,9.305223e+02
2.862811e+03,9.425908e+02
2.863775e+03,9.481009e+02
2.864739e+03,9.487386e+02
2.865703e+03,9.440458e+02
2.866668e+03,9.384944e+02
2.867632e+03,9.343287e+02
2.868596e+03,9.400162e+02
2.869560e+03,9.458800e+02
2.870525e+03,9.404939e+02
2.871489e+03,9.331163e+02
2.872453e+03,9.256830e+02
2.873417e+03,9.293525e+02
2.874382e+03,9.412011e+02
2.875346e+03,9.427407e+02
2.876310e+03,9.420147e+02
2.877274e+03,9.553219e+02
2.878239e+03,9.565440e+02
2.879203e+03,9.363260e+02
2.880167e+03,9.228712e+02
2.881131e+03,9.260216e+02
2.882095e+03,9.351948e+02
2.883060e+03,9.460244e+02
2.884024e+03,9.510316e+02
2.884988e+03,9.532332e+02
2.885952e+03,9.563488e+02
2.886917e+03,9.489327e+02
2.887881e+03,9.286374e+02
2.888845e+03,9.324442e+02
2.889809e+03,9.477250e+02
2.890773e+03,9.411575e+02
2.891738e+03,9.285495e+02
2.892702e+03,9.289260e+02
2.893666e+03,9.312141e+02
2.894630e+03,9.332711e+02
2.895595e+03,9.355299e+02
2.896559e+03,9.383088e+02
2.897523e+03,9.471740e+02
2.898487e+03,9.549721e+02
2.899452e+03,9.502473e+02
2.900416e+03,9.502055e+02
2.901380e+03,9.577753e+02
2.902344e+03,9.620611e+02
2.903309e+03,9.608260e+02
2.904273e+03,9.525509e+02
2.905237e+03,9.385972e+02
2.906201e+03,9.178805e+02
2.907166e+03,9.071431e+02
2.908130e+03,9.131342e+02
2.909094e+03,9.161215e+02
2.910058e+03,9.127682e+02
2.911022e+03,9.066161e+02
2.911987e+03,9.086222e+02
2.912951e+03,9.322530e+02
2.913915e+03,9.475425e+02
2.914879e+03,9.280242e+02
2.915844e+03,9.164726e+02
2.916808e+03,9.158198e+02
2.917772e+03,9.107649e+02
2.918736e+03,9.047955e+02
2.919700e+03,9.030221e+02
2.920665e+03,9.038574e+02
2.921629e+03,9.083777e+02
2.922593e+03,9.133929e+02
2.923557e+03,9.175110e+02
2.924522e+03,9.103083e+02
2.925486e+03,9.007000e+02
2.926450e+03,9.152614e+02
2.927414e+03,9.242025e+02
2.928379e+03,9.109795e+02
2.929343e+03,9.023407e+02
2.930307e+03,8.999835e+02
2.931271e+03,9.001146e+02
2.932236e+03,8.991292e+02
2.933200e+03,8.809550e+02
2.934164e+03,8.789107e+02
2.935128e+03,9.069432e+02
2.936093e+03,9.136575e+02
2.937057e+03,8.972863e+02
2.938021e+03,8.734536e+02
2.938985e+03,8.578889e+02
2.939949e+03,8.840341e+02
2.940914e+03,8.990215e+02
2.941878e+03,8.859551e+02
2.942842e+03,8.836249e+02
2.943806e+03,8.965362e+02
2.944771e+03,8.934795e+02
2.945735e+03,8.841743e+02
2.946699e+03,8.787039e+02
2.947663e+03,8.852883e+02
2.948627e+03,9.035389e+02
2.949592e+03,9.052653e+02
2.950556e+03,8.888958e+02
2.951520e+03,8.876817e+02
2.952484e+03,8.927697e+02
2.953449e+03,8.929026e+02
2.954413e+03,9.041934e+02
2.955377e+03,9.341603e+02
2.956341e+03,9.516186e+02
2.957306e+03,9.503842e+02
2.958270e+03,9.296865e+02
2.959234e+03,9.006137e+02
2.960198e+03,8.740834e+02
2.961163e+03,8.572097e+02
2.962127e+03,8.508244e+02
2.963091e+03,8.573190e+02
2.964055e+03,8.718315e+02
2.965020e+03,8.833248e+02
2.965984e+03,8.891750e+02
2.966948e+03,8.866849e+02
2.967912e+03,8.797882e+02
2.968876e+03,8.694355e+02
2.969841e+03,8.509873e+02
2.970805e+03,8.369518e+02
2.971769e+03,8.535855e+02
2.972733e+03,8.705342e+02
2.973698e+03,8.648732e+02
2.974662e+03,8.601505e+02
2.975626e+03,8.625633e+02
2.976590e+03,8.691486e+02
2.977554e+03,8.746742e+02
2.978519e+03,8.711513e+02
2.979483e+03,8.662072e+02
2.980447e+03,8.657297e+02
2.981411e+03,8.659218e+02
2.982376e+03,8.675179e+02
2.983340e+03,8.802867e+02
2.984304e+03,8.814300e+02
2.985268e+03,8.460446e+02
2.986233e+03,8.227366e+02
2.987197e+03,8.435286e+02
2.988161e+03,8.531185e+02
2.989125e+03,8.522935e+02
2.990090e+03,8.532017e+02
2.991054e+03,8.536298e+02
2.992018e+03,8.523438e+02
2.992982e+03,8.431104e+02
2.993947e+03,8.213795e+02
2.994911e+03,8.264697e+02
2.995875e+03,8.457468e+02
2.996839e+03,8.566026e+02
2.997803e+03,8.556416e+02
2.998768e+03,8.404426e+02
2.999732e+03,8.438974e+02
3.000696e+03,8.697662e+02
3.001660e+03,8.645603e+02
3.002625e+03,8.431595e+02
3.003589e+03,8.217688e+02
3.004553e+03,8.114003e+02
3.005517e+03,8.182239e+02
3.006481e+03,8.178988e+02
3.007446e+03,8.132744e+02
3.008410e+03,8.280211e+02
3.009374e+03,8.455818e+02
3.010338e+03,8.572363e+02
3.011303e+03,8.574150e+02
3.012267e+03,8.429752e+02
3.013231e+03,8.315668e+02
3.014195e+03,8.283259e+02
3.015160e+03,8.488492e+02
3.016124e+03,8.557659e+02
3.017088e+03,8.377348e+02
3.018052e+03,8.241351e+02
3.019017e+03,8.195597e+02
3.019981e+03,8.198069e+02
3.020945e+03,8.272525e+02
3.021909e+03,8.474651e+02
3.022874e+03,8.475153e+02
3.023838e+03,8.260193e+02
3.024802e+03,8.300012e+02
3.025766e+03,8.487392e+02
3.026730e+03,8.452108e+02
3.027695e+03,8.413322e+02
3.028659e+03,8.476536e+02
3.029623e+03,8.403167e+02
3.030587e+03,8.224944e+02
3.031552e+03,8.264109e+02
3.032516e+03,8.333602e+02
3.033480e+03,8.195521e+02
3.034444e+03,8.088839e+02
3.035408e+03,8.069493e+02
3.036373e+03,8.177452e+02
3.037337e+03,8.345605e+02
3.038301e+03,8.482808e+02
3.039265e+03,8.512707e+02
3.040230e+03,8.265165e+02
3.041194e+03,8.266611e+02
3.042158e+03,8.427875e+02
3.043122e+03,8.310959e+02
3.044087e+03,8.151476e+02
3.045051e+03,8.328529e+02
3.046015e+03,8.399062e+02
3.046979e+03,8.232030e+02
3.047944e+03,8.169063e+02
3.048908e+03,8.160313e+02
3.049872e+03,8.099144e+02
3.050836e+03,8.049222e+02
3.051801e+03,8.049086e+02
3.052765e+03,8.090289e+02
3.053729e+03,8.166735e+02
3.054693e+03,8.338942e+02
3.055657e+03,8.401476e+02
3.056622e+03,8.202874e+02
3.057586e+03,8.149944e+02
3.058550e+03,8.366335e+02
3.059514e+03,8.466332e+02
3.060479e+03,8.425159e+02
3.061443e+03,8.118504e+02
3.062407e+03,7.941365e+02
3.063371e+03,7.977183e+02
3.064335e+03,7.963582e+02
3.065300e+03,7.906818e+02
3.066264e+03,7.985818e+02
3.067228e+03,8.137604e+02
3.068192e+03,8.361215e+02
3.069157e+03,8.321367e+02
3.070121e+03,8.099332e+02
3.071085e+03,8.182884e+02
3.072049e+03,8.327205e+02
3.073014e+03,8.081251e+02
3.073978e+03,7.954736e+02
3.074942e+03,8.051879e+02
3.075906e+03,8.110887e+02
3.076871e+03,8.150950e+02
3.077835e+03,8.236194e+02
3.078799e+03,8.249093e+02
3.079763e+03,8.078365e+02
3.080728e+03,8.016480e+02
3.081692e+03,8.049365e+02
3.082656e+03,7.984613e+02
3.083620e+03,7.973908e+02
3.084584e+03,8.100193e+02
3.085549e+03,8.165508e+02
3.086513e+03,8.135922e+02
3.087477e+03,8.160792e+02
3.088441e+03,8.167623e+02
3.089406e+03,8.055690e+02
3.090370e+03,8.068890e+02
3.091334e+03,8.225027e+02
3.092298e+03,8.428515e+02
3.093262e+03,8.574171e+02
3.094227e+03,8.418721e+02
3.095191e+03,8.141621e+02
3.096155e+03,7.781473e+02
3.097119e+03,7.901615e+02
3.098084e+03,8.271083e+02
3.099048e+03,8.393244e+02
3.100012e+03,8.405245e+02
3.100976e+03,8.407863e+02
3.101941e+03,8.320030e+02
3.102905e+03,8.166428e+02
3.103869e+03,8.135159e+02
3.104833e+03,8.069141e+02
3.105798e+03,7.874649e+02
3.106762e+03,7.760789e+02
3.107726e+03,7.784263e+02
3.108690e+03,8.082532e+02
3.109655e+03,8.339266e+02
3.110619e+03,8.068495e+02
3.111583e+03,7.967795e+02
3.112547e+03,8.093707e+02
3.113511e+03,7.867642e+02
3.114476e+03,7.563581e+02
3.115440e+03,7.955259e+02
3.116404e+03,8.311875e+02
3.117368e+03,8.391998e+02
3.118333e+03,8.298561e+02
3.119297e+03,8.181898e+02
3.120261e+03,8.295032e+02
3.121225e+03,8.368265e+02
3.122189e+03,8.247024e+02
3.123154e+03,8.112125e+02
3.124118e+03,7.975657e+02
3.125082e+03,7.803634e+02
3.126046e+03,7.698220e+02
3.127011e+03,7.693191e+02
3.127975e+03,7.722082e+02
3.128939e+03,7.772468e+02
3.129903e+03,7.964586e+02
3.130868e+03,8.094044e+02
3.131832e+03,7.873359e+02
3.132796e+03,7.779055e+02
3.133760e+03,7.811703e+02
3.134725e+03,7.687427e+02
3.135689e+03,7.667396e+02
3.136653e+03,8.024018e+02
3.137617e+03,8.193021e+02
3.138582e+03,8.014424e+02
3.139546e+03,8.253309e+02
3.140510e+03,8.548254e+02
3.141474e+03,8.565074e+02
3.142438e+03,8.291569e+02
3.143403e+03,7.856842e+02
3.144367e+03,8.031422e+02
3.145331e+03,8.361646e+02
3.146295e+03,7.963113e+02
3.147260e+03,7.641010e+02
3.148224e+03,7.599792e+02
3.149188e+03,7.902478e+02
3.150152e+03,8.180117e+02
3.151116e+03,7.959695e+02
3.152081e+03,7.777253e+02
3.153045e+03,7.852580e+02
3.154009e+03,7.935923e+02
3.154973e+03,7.974150e+02
3.155938e+03,7.813039e+02
3.156902e+03,7.765795e+02
3.157866e+03,7.890512e+02
3.158830e+03,7.997930e+02
3.159795e+03,8.115441e+02
3.160759e+03,8.424671e+02
3.161723e+03,8.526511e+02
3.162687e+03,8.033012e+02
3.163652e+03,7.738743e+02
3.164616e+03,7.703796e+02
3.165580e+03,8.008086e+02
3.166544e+03,8.170989e+02
3.167509e+03,8.024721e+02
3.168473e+03,7.977841e+02
3.169437e+03,8.029490e+02
3.170401e+03,8.017029e+02
3.171365e+03,7.976549e+02
3.172330e+03,7.927516e+02
3.173294e+03,8.082225e+02
3.174258e+03,8.317141e+02
3.175222e+03,8.385839e+02
3.176187e+03,8.303465e+02
3.177151e+03,8.067381e+02
3.178115e+03,7.972845e+02
3.179079e+03,8.019415e+02
3.180043e+03,8.158433e+02
3.181008e+03,8.185319e+02
3.181972e+03,8.058458e+02
3.182936e+03,8.119492e+02
3.183900e+03,8.259717e+02
3.184865e+03,7.994564e+02
3.185829e+03,7.782412e+02
3.186793e+03,8.008991e+02
3.187757e+03,8.112115e+02
3.188722e+03,8.113319e+02
3.189686e+03,8.080364e+02
3.190650e+03,8.110389e+02
3.191614e+03,8.219658e+02
3.192579e+03,8.132990e+02
3.193543e+03,7.942126e+02
3.194507e+03,7.979421e+02
3.195471e+03,8.128149e+02
3.196436e+03,8.349550e+02
3.197400e+03,8.396672e+02
3.198364e+03,8.285853e+02
3.199328e+03,8.054686e+02
3.200292e+03,8.007188e+02
3.201257e+03,0.000000e+00
3.202221e+03,0.000000e+00
3.203185e+03,0.000000e+00
3.204149e+03,0.000000e+00
3.205114e+03,0.000000e+00
3.206078e+03,0.000000e+00
3.207042e+03,0.000000e+00
3.208006e+03,0.000000e+00
3.208970e+03,0.000000e+00
3.209935e+03,0.000000e+00
3.210899e+03,0.000000e+00
3.211863e+03,0.000000e+00
3.212827e+03,0.000000e+00
3.213792e+03,0.000000e+00
3.214756e+03,0.000000e+00
3.215720e+03,0.000000e+00
3.216684e+03,0.000000e+00
3.217649e+03,0.000000e+00
3.218613e+03,0.000000e+00
3.219577e+03,0.000000e+00
3.220541e+03,0.000000e+00
3.221506e+03,0.000000e+00
3.222470e+03,0.000000e+00
3.223434e+03,0.000000e+00
3.224398e+03,0.000000e+00
3.225363e+03,0.000000e+00
3.226327e+03,0.000000e+00
3.227291e+03,0.000000e+00
3.228255e+03,0.000000e+00
3.229219e+03,0.000000e+00
3.230184e+03,0.000000e+00
3.231148e+03,0.000000e+00
3.232112e+03,0.000000e+00
3.233076e+03,0.000000e+00
3.234041e+03,0.000000e+00
3.235005e+03,0.000000e+00
3.235969e+03,0.000000e+00
3.236933e+03,0.000000e+00
3.237897e+03,0.000000e+00
3.238862e+03,0.000000e+00
3.239826e+03,0.000000e+00
3.240790e+03,0.000000e+00
3.241754e+03,0.000000e+00
3.242719e+03,0.000000e+00
3.243683e+03,0.000000e+00
3.244647e+03,0.000000e+00
3.245611e+03,0.000000e+00
3.246576e+03,0.000000e+00
3.247540e+03,0.000000e+00
3.248504e+03,0.000000e+00
3.249468e+03,0.000000e+00
3.250433e+03,0.000000e+00
3.251397e+03,0.000000e+00
3.252361e+03,0.000000e+00
3.253325e+03,0.000000e+00
3.254290e+03,0.000000e+00
3.255254e+03,0.000000e+00
3.256218e+03,0.000000e+00
3.257182e+03,0.000000e+00
3.258146e+03,0.000000e+00
3.259111e+03,0.000000e+00
3.260075e+03,0.000000e+00
3.261039e+03,0.000000e+00
3.262003e+03,0.000000e+00
3.262968e+03,0.000000e+00
3.263932e+03,0.000000e+00
3.264896e+03,0.000000e+00
3.265860e+03,0.000000e+00
3.266824e+03,0.000000e+00
3.267789e+03,0.000000e+00
3.268753e+03,0.000000e+00
3.269717e+03,0.000000e+00
3.270681e+03,0.000000e+00
3.271646e+03,0.000000e+00
3.272610e+03,0.000000e+00
3.273574e+03,0.000000e+00
3.274538e+03,0.000000e+00
3.275503e+03,0.000000e+00
3.276467e+03,0.000000e+00
3.277431e+03,0.000000e+00
3.278395e+03,0.000000e+00
3.279360e+03,0.000000e+00
3.280324e+03,0.000000e+00
3.281288e+03,0.000000e+00
3.282252e+03,0.000000e+00
3.283217e+03,0.000000e+00
3.284181e+03,0.000000e+00
3.285145e+03,0.000000e+00
3.286109e+03,0.000000e+00
3.287073e+03,0.000000e+00
3.288038e+03,0.000000e+00
3.289002e+03,0.000000e+00
3.289966e+03,0.000000e+00
3.290930e+03,0.000000e+00
3.291895e+03,0.000000e+00
3.292859e+03,0.000000e+00
3.293823e+03,0.000000e+00
3.294787e+03,0.000000e+00
3.295751e+03,0.000000e+00
3.296716e+03,0.000000e+00
3.297680e+03,0.000000e+00
3.298644e+03,0.000000e+00
3.299608e+03,0.000000e+00
3.300573e+03,0.000000e+00
3.301537e+03,0.000000e+00
3.302501e+03,0.000000e+00
3.303465e+03,0.000000e+00
3.304430e+03,0.000000e+00
3.305394e+03,0.000000e+00
3.306358e+03,0.000000e+00
3.307322e+03,0.000000e+00
3.308287e+03,0.000000e+00
3.309251e+03,0.000000e+00
3.310215e+03,0.000000e+00
3.311179e+03,0.000000e+00
3.312144e+03,0.000000e+00
3.313108e+03,0.000000e+00
3.314072e+03,0.000000e+00
3.315036e+03,0.000000e+00
3.316000e+03,0.000000e+00
3.316965e+03,0.000000e+00
3.317929e+03,0.000000e+00
3.318893e+03,0.000000e+00
3.319857e+03,0.000000e+00
3.320822e+03,0.000000e+00
3.321786e+03,0.000000e+00
3.322750e+03,0.000000e+00
3.323714e+03,0.000000e+00
3.324678e+03,0.000000e+00
3.325643e+03,0.000000e+00
3.326607e+03,0.000000e+00
3.327571e+03,0.000000e+00
3.328535e+03,0.000000e+00
3.329500e+03,0.000000e+00
3.330464e+03,0.000000e+00
3.331428e+03,0.000000e+00
3.332392e+03,0.000000e+00
3.333357e+03,0.000000e+00
3.334321e+03,0.000000e+00
3.335285e+03,0.000000e+00
3.336249e+03,0.000000e+00
3.337214e+03,0.000000e+00
3.338178e+03,0.000000e+00
3.339142e+03,0.000000e+00
3.340106e+03,0.000000e+00
3.341071e+03,0.000000e+00
3.342035e+03,0.000000e+00
3.342999e+03,0.000000e+00
3.343963e+03,0.000000e+00
3.344927e+03,0.000000e+00
3.345892e+03,0.000000e+00
3.346856e+03,0.000000e+00
3.347820e+03,0.000000e+00
3.348784e+03,0.000000e+00
3.349749e+03,0.000000e+00
3.350713e+03,0.000000e+00
3.351677e+03,0.000000e+00
3.352641e+03,0.000000e+00
3.353605e+03,0.000000e+00
3.354570e+03,0.000000e+00
3.355534e+03,0.000000e+00
3.356498e+03,0.000000e+00
3.357462e+03,0.000000e+00
3.358427e+03,0.000000e+00
3.359391e+03,0.000000e+00
3.360355e+03,0.000000e+00
3.361319e+03,0.000000e+00
3.362284e+03,0.000000e+00
3.363248e+03,0.000000e+00
3.364212e+03,0.000000e+00
3.365176e+03,0.000000e+00
3.366141e+03,0.000000e+00
3.367105e+03,0.000000e+00
3.368069e+03,0.000000e+00
3.369033e+03,0.000000e+00
3.369998e+03,0.000000e+00
3.370962e+03,0.000000e+00
3.371926e+03,0.000000e+00
3.372890e+03,0.000000e+00
3.373854e+03,0.000000e+00
3.374819e+03,0.000000e+00
3.375783e+03,0.000000e+00
3.376747e+03,0.000000e+00
3.377711e+03,0.000000e+00
3.378676e+03,0.000000e+00
3.379640e+03,0.000000e+00
3.380604e+03,0.000000e+00
3.381568e+03,0.000000e+00
3.382532e+03,0.000000e+00
3.383497e+03,0.000000e+00
3.384461e+03,0.000000e+00
3.385425e+03,0.000000e+00
3.386389e+03,0.000000e+00
3.387354e+03,0.000000e+00
3.388318e+03,0.000000e+00
3.389282e+03,0.000000e+00
3.390246e+03,0.000000e+00
3.391211e+03,0.000000e+00
3.392175e+03,0.000000e+00
3.393139e+03,0.000000e+00
3.394103e+03,0.000000e+00
3.395068e+03,0.000000e+00
3.396032e+03,0.000000e+00
3.396996e+03,0.000000e+00
3.397960e+03,0.000000e+00
3.398925e+03,0.000000e+00
3.399889e+03,0.000000e+00
3.400853e+03,0.000000e+00
3.401817e+03,0.000000e+00
3.402781e+03,0.000000e+00
3.403746e+03,0.000000e+00
3.404710e+03,0.000000e+00
3.405674e+03,0.000000e+00
3.406638e+03,0.000000e+00
3.407603e+03,0.000000e+00
3.408567e+03,0.000000e+00
3.409531e+03,0.000000e+00
3.410495e+03,0.000000e+00
3.411459e+03,0.000000e+00
3.412424e+03,0.000000e+00
3.413388e+03,0.000000e+00
3.414352e+03,0.000000e+00
3.415316e+03,0.000000e+00
3.416281e+03,0.000000e+00
3.417245e+03,0.000000e+00
3.418209e+03,0.000000e+00
3.419173e+03,0.000000e+00
3.420138e+03,0.000000e+00
3.421102e+03,0.000000e+00
3.422066e+03,0.000000e+00
3.423030e+03,0.000000e+00
3.423995e+03,0.000000e+00
3.424959e+03,0.000000e+00
3.425923e+03,0.000000e+00
3.426887e+03,0.000000e+00
3.427852e+03,0.000000e+00
3.428816e+03,0.000000e+00
3.429780e+03,0.000000e+00
3.430744e+03,0.000000e+00
3.431708e+03,0.000000e+00
3.432673e+03,0.000000e+00
3.433637e+03,0.000000e+00
3.434601e+03,0.000000e+00
3.435565e+03,0.000000e+00
3.436530e+03,0.000000e+00
3.437494e+03,0.000000e+00
3.438458e+03,0.000000e+00
3.439422e+03,0.000000e+00
3.440386e+03,0.000000e+00
3.441351e+03,0.000000e+00
3.442315e+03,0.000000e+00
3.443279e+03,0.000000e+00
3.444243e+03,0.000000e+00
3.445208e+03,0.000000e+00
3.446172e+03,0.000000e+00
3.447136e+03,0.000000e+00
3.448100e+03,0.000000e+00
3.449065e+03,0.000000e+00
3.450029e+03,0.000000e+00
3.450993e+03,0.000000e+00
3.451957e+03,0.000000e+00
3.452922e+03,0.000000e+00
3.453886e+03,0.000000e+00
3.454850e+03,0.000000e+00
3.455814e+03,0.000000e+00
3.456779e+03,0.000000e+00
3.457743e+03,0.000000e+00
3.458707e+03,0.000000e+00
3.459671e+03,0.000000e+00
3.460635e+03,0.000000e+00
3.461600e+03,0.000000e+00
3.462564e+03,0.000000e+00
3.463528e+03,0.000000e+00
3.464492e+03,0.000000e+00
3.465457e+03,0.000000e+00
3.466421e+03,0.000000e+00
3.467385e+03,0.000000e+00
3.468349e+03,0.000000e+00
3.469313e+03,0.000000e+00
3.470278e+03,0.000000e+00
3.471242e+03,0.000000e+00
3.472206e+03,0.000000e+00
3.473170e+03,0.000000e+00
3.474135e+03,0.000000e+00
3.475099e+03,0.000000e+00
3.476063e+03,0.000000e+00
3.477027e+03,0.000000e+00
3.477992e+03,0.000000e+00
3.478956e+03,0.000000e+00
3.479920e+03,0.000000e+00
3.480884e+03,0.000000e+00
3.481849e+03,0.000000e+00
3.482813e+03,0.000000e+00
3.483777e+03,0.000000e+00
3.484741e+03,0.000000e+00
3.485706e+03,0.000000e+00
3.486670e+03,0.000000e+00
3.487634e+03,0.000000e+00
3.488598e+03,0.000000e+00
3.489563e+03,0.000000e+00
3.490527e+03,0.000000e+00
3.491491e+03,0.000000e+00
3.492455e+03,0.000000e+00
3.493419e+03,0.000000e+00
3.494384e+03,0.000000e+00
3.495348e+03,0.000000e+00
3.496312e+03,0.000000e+00
3.497276e+03,0.000000e+00
3.498240e+03,0.000000e+00
3.499205e+03,0.000000e+00
3.500169e+03,0.000000e+00
