9.931763e+01,0.000000e+00
1.002819e+02,0.000000e+00
1.012461e+02,0.000000e+00
1.022103e+02,0.000000e+00
1.031746e+02,0.000000e+00
1.041388e+02,0.000000e+00
1.051030e+02,0.000000e+00
1.060673e+02,0.000000e+00
1.070315e+02,0.000000e+00
1.079957e+02,0.000000e+00
1.089600e+02,0.000000e+00
1.099242e+02,0.000000e+00
1.108884e+02,0.000000e+00
1.118527e+02,0.000000e+00
1.128169e+02,0.000000e+00
1.137811e+02,0.000000e+00
1.147454e+02,0.000000e+00
1.157096e+02,0.000000e+00
1.166738e+02,0.000000e+00
1.176381e+02,0.000000e+00
1.186023e+02,0.000000e+00
1.195665e+02,0.000000e+00
1.205308e+02,0.000000e+00
1.214950e+02,0.000000e+00
1.224592e+02,0.000000e+00
1.234235e+02,0.000000e+00
1.243877e+02,0.000000e+00
1.253519e+02,0.000000e+00
1.263162e+02,0.000000e+00
1.272804e+02,0.000000e+00
1.282446e+02,0.000000e+00
1.292089e+02,0.000000e+00
1.301731e+02,0.000000e+00
1.311373e+02,0.000000e+00
1.321016e+02,0.000000e+00
1.330658e+02,0.000000e+00
1.340300e+02,0.000000e+00
1.349943e+02,0.000000e+00
1.359585e+02,0.000000e+00
1.369227e+02,0.000000e+00
1.378870e+02,0.000000e+00
1.388512e+02,0.000000e+00
1.398154e+02,0.000000e+00
1.407797e+02,0.000000e+00
1.417439e+02,0.000000e+00
1.427081e+02,0.000000e+00
1.436724e+02,0.000000e+00
1.446366e+02,0.000000e+00
1.456008e+02,0.000000e+00
1.465651e+02,0.000000e+00
1.475293e+02,0.000000e+00
1.484935e+02,0.000000e+00
1.494578e+02,0.000000e+00
1.504220e+02,0.000000e+00
1.513862e+02,0.000000e+00
1.523505e+02,0.000000e+00
1.533147e+02,0.000000e+00
1.542789e+02,0.000000e+00
1.552432e+02,0.000000e+00
1.562074e+02,0.000000e+00
1.571716e+02,0.000000e+00
1.581359e+02,0.000000e+00
1.591001e+02,0.000000e+00
1.600643e+02,0.000000e+00
1.610286e+02,0.000000e+00
1.619928e+02,0.000000e+00
1.629570e+02,0.000000e+00
1.639213e+02,0.000000e+00
1.648855e+02,0.000000e+00
1.658497e+02,0.000000e+00
1.668140e+02,0.000000e+00
1.677782e+02,0.000000e+00
1.687424e+02,0.000000e+00
1.697067e+02,0.000000e+00
1.706709e+02,0.000000e+00
1.716351e+02,0.000000e+00
1.725994e+02,0.000000e+00
1.735636e+02,0.000000e+00
1.745278e+02,0.000000e+00
1.754921e+02,0.000000e+00
1.764563e+02,0.000000e+00
1.774205e+02,0.000000e+00
1.783848e+02,0.000000e+00
1.793490e+02,0.000000e+00
1.803132e+02,0.000000e+00
1.812775e+02,0.000000e+00
1.822417e+02,0.000000e+00
1.832059e+02,0.000000e+00
1.841702e+02,0.000000e+00
1.851344e+02,0.000000e+00
1.860986e+02,0.000000e+00
1.870629e+02,0.000000e+00
1.880271e+02,0.000000e+00
1.889913e+02,0.000000e+00
1.899556e+02,0.000000e+00
1.909198e+02,0.000000e+00
1.918840e+02,0.000000e+00
1.928483e+02,0.000000e+00
1.938125e+02,0.000000e+00
1.947767e+02,0.000000e+00
1.957410e+02,0.000000e+00
1.967052e+02,0.000000e+00
1.976694e+02,0.000000e+00
1.986337e+02,0.000000e+00
1.995979e+02,6.525864e+03
2.005621e+02,6.525896e+03
2.015264e+02,6.530312e+03
2.024906e+02,6.542923e+03
2.034548e+02,6.556881e+03
2.044191e+02,6.570712e+03
2.053833e+02,6.582625e+03
2.063475e+02,6.591032e+03
2.073118e+02,6.593610e+03
2.082760e+02,6.587337e+03
2.092402e+02,6.584681e+03
2.102045e+02,6.593482e+03
2.111687e+02,6.606846e+03
2.121329e+02,6.618565e+03
2.130972e+02,6.624021e+03
2.140614e+02,6.625086e+03
2.150256e+02,6.630104e+03
2.159899e+02,6.643697e+03
2.169541e+02,6.656193e+03
2.179183e+02,6.662573e+03
2.188826e+02,6.664126e+03
2.198468e+02,6.668106e+03
2.208110e+02,6.682754e+03
2.217753e+02,6.706718e+03
2.227395e+02,6.721768e+03
2.237037e+02,6.721911e+03
2.246680e+02,6.717511e+03
2.256322e+02,6.716980e+03
2.265964e+02,6.725724e+03
2.275607e+02,6.738420e+03
2.285249e+02,6.747545e+03
2.294892e+02,6.752007e+03
2.304534e+02,6.759271e+03
2.314176e+02,6.773610e+03
2.323819e+02,6.792095e+03
2.333461e+02,6.807700e+03
2.343103e+02,6.818038e+03
2.352746e+02,6.825821e+03
2.362388e+02,6.834417e+03
2.372030e+02,6.843202e+03
2.381673e+02,6.849392e+03
2.391315e+02,6.852381e+03
2.400957e+02,6.853234e+03
2.410600e+02,6.856164e+03
2.420242e+02,6.864437e+03
2.429884e+02,6.878988e+03
2.439527e+02,6.898636e+03
2.449169e+02,6.921422e+03
2.458811e+02,6.946655e+03
2.468454e+02,6.967000e+03
2.478096e+02,6.981716e+03
2.487738e+02,6.992729e+03
2.497381e+02,7.000472e+03
2.507023e+02,7.005271e+03
2.516665e+02,7.008550e+03
2.526308e+02,7.011986e+03
2.535950e+02,7.012288e+03
2.545592e+02,7.010617e+03
2.555235e+02,7.005970e+03
2.564877e+02,7.001607e+03
2.574519e+02,7.002287e+03
2.584161e+02,7.012217e+03
2.593804e+02,7.031498e+03
2.603446e+02,7.049983e+03
2.613088e+02,7.065716e+03
2.622731e+02,7.078042e+03
2.632373e+02,7.083743e+03
2.642015e+02,7.082671e+03
2.651658e+02,7.080519e+03
2.661300e+02,7.084815e+03
2.670942e+02,7.098542e+03
2.680585e+02,7.115522e+03
2.690227e+02,7.139041e+03
2.699869e+02,7.163233e+03
2.709512e+02,7.183120e+03
2.719154e+02,7.198573e+03
2.728796e+02,7.212549e+03
2.738439e+02,7.229424e+03
2.748081e+02,7.252104e+03
2.757723e+02,7.276142e+03
2.767366e+02,7.291248e+03
2.777008e+02,7.296758e+03
2.786650e+02,7.301393e+03
2.796293e+02,7.315982e+03
2.805935e+02,7.333319e+03
2.815577e+02,7.336823e+03
2.825220e+02,7.319507e+03
2.834862e+02,7.291547e+03
2.844504e+02,7.272765e+03
2.854147e+02,7.270860e+03
2.863789e+02,7.268117e+03
2.873431e+02,7.259439e+03
2.883074e+02,7.248647e+03
2.892716e+02,7.241065e+03
2.902358e+02,7.238108e+03
2.912001e+02,7.238854e+03
2.921643e+02,7.242675e+03
2.931285e+02,7.257390e+03
2.940928e+02,7.271035e+03
2.950570e+02,7.274634e+03
2.960212e+02,7.268041e+03
2.969855e+02,7.259476e+03
2.979497e+02,7.261224e+03
2.989139e+02,7.282044e+03
2.998782e+02,7.295870e+03
3.008424e+02,7.300578e+03
3.018066e+02,7.303833e+03
3.027709e+02,7.308959e+03
3.037351e+02,7.316461e+03
3.046993e+02,7.323541e+03
3.056636e+02,7.326914e+03
3.066278e+02,7.327538e+03
3.075920e+02,7.325636e+03
3.085563e+02,7.318325e+03
3.095205e+02,7.309710e+03
3.104847e+02,7.306146e+03
3.114490e+02,7.308654e+03
3.124132e+02,7.315200e+03
3.133774e+02,7.324862e+03
3.143417e+02,7.338691e+03
3.153059e+02,7.350663e+03
3.162701e+02,7.355354e+03
3.172344e+02,7.353653e+03
3.181986e+02,7.351159e+03
3.191628e+02,7.348174e+03
3.201271e+02,7.346122e+03
3.210913e+02,7.346850e+03
3.220555e+02,7.350493e+03
3.230198e+02,7.356683e+03
3.239840e+02,7.366834e+03
3.249482e+02,7.385401e+03
3.259125e+02,7.402315e+03
3.268767e+02,7.415299e+03
3.278409e+02,7.424470e+03
3.288052e+02,7.430442e+03
3.297694e+02,7.432787e+03
3.307336e+02,7.430448e+03
3.316979e+02,7.429218e+03
3.326621e+02,7.430822e+03
3.336263e+02,7.430763e+03
3.345906e+02,7.426294e+03
3.355548e+02,7.418717e+03
3.365190e+02,7.414835e+03
3.374833e+02,7.422328e+03
3.384475e+02,7.441813e+03
3.394117e+02,7.461408e+03
3.403760e+02,7.475984e+03
3.413402e+02,7.485618e+03
3.423044e+02,7.491526e+03
3.432687e+02,7.487082e+03
3.442329e+02,7.482295e+03
3.451971e+02,7.486792e+03
3.461614e+02,7.498877e+03
3.471256e+02,7.508424e+03
3.480898e+02,7.509260e+03
3.490541e+02,7.499677e+03
3.500183e+02,7.495433e+03
3.509825e+02,7.502246e+03
3.519468e+02,7.514706e+03
3.529110e+02,7.527885e+03
3.538752e+02,7.538914e+03
3.548395e+02,7.546497e+03
3.558037e+02,7.549791e+03
3.567680e+02,7.543019e+03
3.577322e+02,7.542334e+03
3.586964e+02,7.559643e+03
3.596607e+02,7.583371e+03
3.606249e+02,7.597327e+03
3.615891e+02,7.585663e+03
3.625534e+02,7.558537e+03
3.635176e+02,7.547583e+03
3.644818e+02,7.562430e+03
3.654461e+02,7.579818e+03
3.664103e+02,7.588218e+03
3.673745e+02,7.592561e+03
3.683388e+02,7.599319e+03
3.693030e+02,7.605549e+03
3.702672e+02,7.611419e+03
3.712315e+02,7.620208e+03
3.721957e+02,7.632585e+03
3.731599e+02,7.643736e+03
3.741242e+02,7.648838e+03
3.750884e+02,7.647897e+03
3.760526e+02,7.649184e+03
3.770169e+02,7.650890e+03
3.779811e+02,7.653870e+03
3.789453e+02,7.660113e+03
3.799096e+02,7.670860e+03
3.808738e+02,7.682782e+03
3.818380e+02,7.684748e+03
3.828023e+02,7.670478e+03
3.837665e+02,7.661530e+03
3.847307e+02,7.664417e+03
3.856950e+02,7.675947e+03
3.866592e+02,7.688236e+03
3.876234e+02,7.696307e+03
3.885877e+02,7.701143e+03
3.895519e+02,7.706267e+03
3.905161e+02,7.711464e+03
3.914804e+02,7.715174e+03
3.924446e+02,7.716554e+03
3.934088e+02,7.717306e+03
3.943731e+02,7.717662e+03
3.953373e+02,7.716735e+03
3.963015e+02,7.715015e+03
3.972658e+02,7.713144e+03
3.982300e+02,7.712182e+03
3.991942e+02,7.714623e+03
4.001585e+02,7.721064e+03
4.011227e+02,7.730556e+03
4.020869e+02,7.739668e+03
4.030512e+02,7.744204e+03
4.040154e+02,7.745456e+03
4.049796e+02,7.748156e+03
4.059439e+02,7.756503e+03
4.069081e+02,7.767901e+03
4.078723e+02,7.772359e+03
4.088366e+02,7.764118e+03
4.098008e+02,7.753121e+03
4.107650e+02,7.750759e+03
4.117293e+02,7.757085e+03
4.126935e+02,7.763421e+03
4.136577e+02,7.765594e+03
4.146220e+02,7.766104e+03
4.155862e+02,7.769838e+03
4.165504e+02,7.778498e+03
4.175147e+02,7.788307e+03
4.184789e+02,7.792750e+03
4.194431e+02,7.781409e+03
4.204074e+02,7.776642e+03
4.213716e+02,7.784665e+03
4.223358e+02,7.796989e+03
4.233001e+02,7.804296e+03
4.242643e+02,7.802327e+03
4.252285e+02,7.795936e+03
4.261928e+02,7.795588e+03
4.271570e+02,7.803937e+03
4.281212e+02,7.814347e+03
4.290855e+02,7.824564e+03
4.300497e+02,7.833207e+03
4.310139e+02,7.838260e+03
4.319782e+02,7.838357e+03
4.329424e+02,7.836851e+03
4.339066e+02,7.835663e+03
4.348709e+02,7.833978e+03
4.358351e+02,7.832507e+03
4.367993e+02,7.832604e+03
4.377636e+02,7.836091e+03
4.387278e+02,7.837742e+03
4.396920e+02,7.835773e+03
4.406563e+02,7.835155e+03
4.416205e+02,7.839648e+03
4.425847e+02,7.849620e+03
4.435490e+02,7.860244e+03
4.445132e+02,7.864595e+03
4.454774e+02,7.861818e+03
4.464417e+02,7.862873e+03
4.474059e+02,7.871078e+03
4.483701e+02,7.881751e+03
4.493344e+02,7.890674e+03
4.502986e+02,7.899843e+03
4.512628e+02,7.907781e+03
4.522271e+02,7.913882e+03
4.531913e+02,7.917826e+03
4.541555e+02,7.917727e+03
4.551198e+02,7.911087e+03
4.560840e+02,7.898275e+03
4.570482e+02,7.888134e+03
4.580125e+02,7.884255e+03
4.589767e+02,7.886175e+03
4.599409e+02,7.892292e+03
4.609052e+02,7.899858e+03
4.618694e+02,7.906893e+03
4.628336e+02,7.914580e+03
4.637979e+02,7.922898e+03
4.647621e+02,7.926388e+03
4.657263e+02,7.924780e+03
4.666906e+02,7.923560e+03
4.676548e+02,7.924507e+03
4.686190e+02,7.926091e+03
4.695833e+02,7.929208e+03
4.705475e+02,7.936932e+03
4.715117e+02,7.944569e+03
4.724760e+02,7.944820e+03
4.734402e+02,7.935285e+03
4.744044e+02,7.921486e+03
4.753687e+02,7.915739e+03
4.763329e+02,7.925156e+03
4.772971e+02,7.932276e+03
4.782614e+02,7.931378e+03
4.792256e+02,7.928389e+03
4.801898e+02,7.930397e+03
4.811541e+02,7.943043e+03
4.821183e+02,7.957910e+03
4.830826e+02,7.961805e+03
4.840468e+02,7.953419e+03
4.850110e+02,7.943928e+03
4.859753e+02,7.941612e+03
4.869395e+02,7.946615e+03
4.879037e+02,7.948153e+03
4.888680e+02,7.942694e+03
4.898322e+02,7.938520e+03
4.907964e+02,7.942727e+03
4.917607e+02,7.954508e+03
4.927249e+02,7.966169e+03
4.936891e+02,7.967544e+03
4.946534e+02,7.957292e+03
4.956176e+02,7.955914e+03
4.965818e+02,7.971800e+03
4.975461e+02,7.990564e+03
4.985103e+02,7.998374e+03
4.994745e+02,7.990776e+03
5.004388e+02,7.982400e+03
5.014030e+02,7.983401e+03
5.023672e+02,7.989764e+03
5.033315e+02,7.992783e+03
5.042957e+02,7.989010e+03
5.052599e+02,7.980994e+03
5.062242e+02,7.976679e+03
5.071884e+02,7.981672e+03
5.081526e+02,7.985288e+03
5.091169e+02,7.986864e+03
5.100811e+02,7.988506e+03
5.110453e+02,7.990656e+03
5.120095e+02,7.993366e+03
5.129738e+02,7.998912e+03
5.139380e+02,8.013417e+03
5.149022e+02,8.036897e+03
5.158665e+02,8.053976e+03
5.168307e+02,8.051427e+03
5.177949e+02,8.025993e+03
5.187592e+02,8.006827e+03
5.197234e+02,8.009906e+03
5.206876e+02,8.015466e+03
5.216519e+02,8.012727e+03
5.226161e+02,8.005208e+03
5.235803e+02,8.003190e+03
5.245446e+02,8.018862e+03
5.255088e+02,8.048792e+03
5.264730e+02,8.069045e+03
5.274373e+02,8.076803e+03
5.284015e+02,8.078697e+03
5.293657e+02,8.076752e+03
5.303300e+02,8.070492e+03
5.312942e+02,8.066782e+03
5.322584e+02,8.072722e+03
5.332227e+02,8.084346e+03
5.341869e+02,8.094451e+03
5.351511e+02,8.100448e+03
5.361154e+02,8.106945e+03
5.370796e+02,8.124081e+03
5.380438e+02,8.157646e+03
5.390081e+02,8.183048e+03
5.399723e+02,8.191064e+03
5.409365e+02,8.194573e+03
5.419008e+02,8.203882e+03
5.428650e+02,8.221138e+03
5.438292e+02,8.235895e+03
5.447935e+02,8.241429e+03
5.457577e+02,8.240912e+03
5.467219e+02,8.240681e+03
5.476862e+02,8.243331e+03
5.486504e+02,8.248286e+03
5.496146e+02,8.254986e+03
5.505789e+02,8.266370e+03
5.515431e+02,8.273876e+03
5.525073e+02,8.277878e+03
5.534716e+02,8.282190e+03
5.544358e+02,8.288006e+03
5.554000e+02,8.295306e+03
5.563643e+02,8.299504e+03
5.573285e+02,8.294527e+03
5.582927e+02,8.280493e+03
5.592570e+02,8.265027e+03
5.602212e+02,8.254962e+03
5.611854e+02,8.249501e+03
5.621497e+02,8.234923e+03
5.631139e+02,8.193833e+03
5.640781e+02,8.155647e+03
5.650424e+02,8.135470e+03
5.660066e+02,8.129810e+03
5.669708e+02,8.122483e+03
5.679351e+02,8.102197e+03
5.688993e+02,8.076672e+03
5.698635e+02,8.058203e+03
5.708278e+02,8.048383e+03
5.717920e+02,8.047008e+03
5.727562e+02,8.053514e+03
5.737205e+02,8.070597e+03
5.746847e+02,8.079144e+03
5.756489e+02,8.069622e+03
5.766132e+02,8.057986e+03
5.775774e+02,8.054953e+03
5.785416e+02,8.061839e+03
5.795059e+02,8.069184e+03
5.804701e+02,8.067734e+03
5.814343e+02,8.060616e+03
5.823986e+02,8.059526e+03
5.833628e+02,8.068693e+03
5.843270e+02,8.079939e+03
5.852913e+02,8.081055e+03
5.862555e+02,8.057042e+03
5.872197e+02,8.045814e+03
5.881840e+02,8.052473e+03
5.891482e+02,8.066741e+03
5.901124e+02,8.081264e+03
5.910767e+02,8.094057e+03
5.920409e+02,8.106505e+03
5.930051e+02,8.122097e+03
5.939694e+02,8.138573e+03
5.949336e+02,8.145245e+03
5.958978e+02,8.137024e+03
5.968621e+02,8.120306e+03
5.978263e+02,8.110483e+03
5.987905e+02,8.120608e+03
5.997548e+02,8.124767e+03
6.007190e+02,8.110496e+03
6.016832e+02,8.094550e+03
6.026475e+02,8.095892e+03
6.036117e+02,8.125025e+03
6.045759e+02,8.163920e+03
6.055402e+02,8.192635e+03
6.065044e+02,8.210854e+03
6.074686e+02,8.226476e+03
6.084329e+02,8.246866e+03
6.093971e+02,8.268757e+03
6.103613e+02,8.271954e+03
6.113256e+02,8.242716e+03
6.122899e+02,8.209284e+03
6.132541e+02,8.172872e+03
6.142183e+02,8.135654e+03
6.151826e+02,8.101266e+03
6.161468e+02,8.070982e+03
6.171110e+02,8.048006e+03
6.180753e+02,8.037021e+03
6.190395e+02,8.036297e+03
6.200037e+02,8.036124e+03
6.209680e+02,8.029765e+03
6.219322e+02,8.018889e+03
6.228964e+02,8.015403e+03
6.238607e+02,8.023947e+03
6.248249e+02,8.033964e+03
6.257891e+02,8.042185e+03
6.267534e+02,8.046038e+03
6.277176e+02,8.044153e+03
6.286818e+02,8.035946e+03
6.296461e+02,8.026171e+03
6.306103e+02,8.018086e+03
6.315745e+02,8.012470e+03
6.325388e+02,8.010705e+03
6.335030e+02,8.013565e+03
6.344672e+02,8.020108e+03
6.354315e+02,8.021268e+03
6.363957e+02,8.009903e+03
6.373599e+02,7.997217e+03
6.383242e+02,7.990766e+03
6.392884e+02,7.991019e+03
6.402526e+02,7.992831e+03
6.412169e+02,7.997383e+03
6.421811e+02,8.000512e+03
6.431453e+02,7.996381e+03
6.441096e+02,7.985603e+03
6.450738e+02,7.975284e+03
6.460380e+02,7.975028e+03
6.470023e+02,7.986905e+03
6.479665e+02,7.993499e+03
6.489307e+02,7.989128e+03
6.498950e+02,7.982851e+03
6.508592e+02,7.982545e+03
6.518234e+02,7.988377e+03
6.527877e+02,7.986764e+03
6.537519e+02,7.970936e+03
6.547161e+02,7.951525e+03
6.556804e+02,7.934920e+03
6.566446e+02,7.922856e+03
6.576088e+02,7.915761e+03
6.585731e+02,7.916130e+03
6.595373e+02,7.922487e+03
6.605015e+02,7.926177e+03
6.614658e+02,7.926167e+03
6.624300e+02,7.924526e+03
6.633942e+02,7.922401e+03
6.643585e+02,7.916182e+03
6.653227e+02,7.918154e+03
6.662869e+02,7.932469e+03
6.672512e+02,7.949177e+03
6.682154e+02,7.965461e+03
6.691796e+02,7.979353e+03
6.701439e+02,7.983638e+03
6.711081e+02,7.965528e+03
6.720723e+02,7.935713e+03
6.730366e+02,7.919023e+03
6.740008e+02,7.920994e+03
6.749650e+02,7.927355e+03
6.759293e+02,7.919706e+03
6.768935e+02,7.890995e+03
6.778577e+02,7.872429e+03
6.788220e+02,7.868680e+03
6.797862e+02,7.876648e+03
6.807504e+02,7.895504e+03
6.817147e+02,7.926780e+03
6.826789e+02,7.946473e+03
6.836431e+02,7.933069e+03
6.846074e+02,7.906476e+03
6.855716e+02,7.892522e+03
6.865358e+02,7.896956e+03
6.875001e+02,7.904734e+03
6.884643e+02,7.894991e+03
6.894285e+02,7.868274e+03
6.903928e+02,7.851489e+03
6.913570e+02,7.849672e+03
6.923212e+02,7.852947e+03
6.932855e+02,7.851693e+03
6.942497e+02,7.845369e+03
6.952139e+02,7.842469e+03
6.961782e+02,7.845082e+03
6.971424e+02,7.847905e+03
6.981066e+02,7.844584e+03
6.990709e+02,7.831077e+03
7.000351e+02,7.814052e+03
7.009993e+02,7.801197e+03
7.019636e+02,7.794201e+03
7.029278e+02,7.793606e+03
7.038920e+02,7.799170e+03
7.048563e+02,7.804094e+03
7.058205e+02,7.800686e+03
7.067847e+02,7.787637e+03
7.077490e+02,7.782239e+03
7.087132e+02,7.796314e+03
7.096774e+02,7.815594e+03
7.106417e+02,7.821142e+03
7.116059e+02,7.807556e+03
7.125701e+02,7.796001e+03
7.135344e+02,7.794744e+03
7.144986e+02,7.799217e+03
7.154628e+02,7.805483e+03
7.164271e+02,7.811536e+03
7.173913e+02,7.814092e+03
7.183555e+02,7.807839e+03
7.193198e+02,7.794458e+03
7.202840e+02,7.784508e+03
7.212482e+02,7.780891e+03
7.222125e+02,7.780116e+03
7.231767e+02,7.777381e+03
7.241409e+02,7.769799e+03
7.251052e+02,7.761890e+03
7.260694e+02,7.751869e+03
7.270336e+02,7.742127e+03
7.279979e+02,7.735580e+03
7.289621e+02,7.732253e+03
7.299263e+02,7.730774e+03
7.308906e+02,7.732003e+03
7.318548e+02,7.732527e+03
7.328190e+02,7.728745e+03
7.337833e+02,7.720749e+03
7.347475e+02,7.712364e+03
7.357117e+02,7.709544e+03
7.366760e+02,7.712989e+03
7.376402e+02,7.715528e+03
7.386044e+02,7.717124e+03
7.395687e+02,7.718208e+03
7.405329e+02,7.717667e+03
7.414971e+02,7.714944e+03
7.424614e+02,7.710628e+03
7.434256e+02,7.707737e+03
7.443898e+02,7.708605e+03
7.453541e+02,7.710143e+03
7.463183e+02,7.708928e+03
7.472825e+02,7.708478e+03
7.482468e+02,7.716062e+03
7.492110e+02,7.723157e+03
7.501752e+02,7.722987e+03
7.511395e+02,7.718532e+03
7.521037e+02,7.713902e+03
7.530679e+02,7.708758e+03
7.540322e+02,7.701479e+03
7.549964e+02,7.694696e+03
7.559606e+02,7.689760e+03
7.569249e+02,7.687116e+03
7.578891e+02,7.688042e+03
7.588533e+02,7.693710e+03
7.598176e+02,7.697424e+03
7.607818e+02,7.688953e+03
7.617460e+02,7.676304e+03
7.627103e+02,7.663934e+03
7.636745e+02,7.655264e+03
7.646387e+02,7.650857e+03
7.656030e+02,7.650052e+03
7.665672e+02,7.653612e+03
7.675314e+02,7.662646e+03
7.684957e+02,7.670283e+03
7.694599e+02,7.667142e+03
7.704241e+02,7.648136e+03
7.713884e+02,7.623629e+03
7.723526e+02,7.617646e+03
7.733168e+02,7.633534e+03
7.742811e+02,7.655423e+03
7.752453e+02,7.673836e+03
7.762095e+02,7.686061e+03
7.771738e+02,7.691652e+03
7.781380e+02,7.682287e+03
7.791022e+02,7.670437e+03
7.800665e+02,7.660373e+03
7.810307e+02,7.652854e+03
7.819949e+02,7.648097e+03
7.829592e+02,7.653142e+03
7.839234e+02,7.658985e+03
7.848876e+02,7.660270e+03
7.858519e+02,7.656997e+03
7.868161e+02,7.649448e+03
7.877803e+02,7.636614e+03
7.887446e+02,7.622807e+03
7.897088e+02,7.618180e+03
7.906730e+02,7.623734e+03
7.916373e+02,7.627398e+03
7.926015e+02,7.621396e+03
7.935657e+02,7.605250e+03
7.945300e+02,7.587131e+03
7.954942e+02,7.569524e+03
7.964584e+02,7.552010e+03
7.974227e+02,7.540644e+03
7.983869e+02,7.537392e+03
7.993511e+02,7.535530e+03
8.003154e+02,7.529177e+03
8.012796e+02,7.521048e+03
8.022438e+02,7.514797e+03
8.032081e+02,7.511171e+03
8.041723e+02,7.510821e+03
8.051365e+02,7.512871e+03
8.061008e+02,7.513133e+03
8.070650e+02,7.504438e+03
8.080292e+02,7.490384e+03
8.089935e+02,7.481677e+03
8.099577e+02,7.481795e+03
8.109219e+02,7.484519e+03
8.118862e+02,7.482580e+03
8.128504e+02,7.475996e+03
8.138146e+02,7.466014e+03
8.147789e+02,7.450236e+03
8.157431e+02,7.433474e+03
8.167073e+02,7.421157e+03
8.176716e+02,7.417636e+03
8.186358e+02,7.417022e+03
8.196000e+02,7.417727e+03
8.205643e+02,7.421894e+03
8.215285e+02,7.429329e+03
8.224927e+02,7.438736e+03
8.234570e+02,7.444199e+03
8.244212e+02,7.443212e+03
8.253854e+02,7.439308e+03
8.263497e+02,7.432452e+03
8.273139e+02,7.421251e+03
8.282781e+02,7.406758e+03
8.292424e+02,7.387743e+03
8.302066e+02,7.373304e+03
8.311708e+02,7.378688e+03
8.321351e+02,7.399913e+03
8.330993e+02,7.415920e+03
8.340635e+02,7.412951e+03
8.350278e+02,7.397830e+03
8.359920e+02,7.395069e+03
8.369562e+02,7.407935e+03
8.379205e+02,7.417415e+03
8.388847e+02,7.417280e+03
8.398489e+02,7.410227e+03
8.408132e+02,7.401744e+03
8.417774e+02,7.389114e+03
8.427416e+02,7.376376e+03
8.437059e+02,7.361687e+03
8.446701e+02,7.348444e+03
8.456343e+02,7.341335e+03
8.465986e+02,7.343974e+03
8.475628e+02,7.344833e+03
8.485270e+02,7.338197e+03
8.494913e+02,7.328646e+03
8.504555e+02,7.321861e+03
8.514197e+02,7.320076e+03
8.523840e+02,7.320705e+03
8.533482e+02,7.321055e+03
8.543124e+02,7.320057e+03
8.552767e+02,7.317068e+03
8.562409e+02,7.311463e+03
8.572051e+02,7.303393e+03
8.581694e+02,7.294831e+03
8.591336e+02,7.286654e+03
8.600978e+02,7.275217e+03
8.610621e+02,7.259608e+03
8.620263e+02,7.250938e+03
8.629905e+02,7.257733e+03
8.639548e+02,7.278742e+03
8.649190e+02,7.286959e+03
8.658832e+02,7.279636e+03
8.668475e+02,7.270205e+03
8.678117e+02,7.262583e+03
8.687759e+02,7.256124e+03
8.697402e+02,7.252865e+03
8.707044e+02,7.250418e+03
8.716686e+02,7.246056e+03
8.726329e+02,7.245829e+03
8.735971e+02,7.247433e+03
8.745613e+02,7.243702e+03
8.755256e+02,7.229901e+03
8.764898e+02,7.217050e+03
8.774540e+02,7.209875e+03
8.784183e+02,7.206401e+03
8.793825e+02,7.204661e+03
8.803467e+02,7.204037e+03
8.813110e+02,7.203400e+03
8.822752e+02,7.202513e+03
8.832394e+02,7.202814e+03
8.842037e+02,7.203954e+03
8.851679e+02,7.203923e+03
8.861321e+02,7.202536e+03
8.870964e+02,7.202587e+03
8.880606e+02,7.203953e+03
8.890248e+02,7.196952e+03
8.899891e+02,7.181430e+03
8.909533e+02,7.165137e+03
8.919175e+02,7.153601e+03
8.928818e+02,7.147538e+03
8.938460e+02,7.141867e+03
8.948102e+02,7.130613e+03
8.957745e+02,7.122610e+03
8.967387e+02,7.127555e+03
8.977029e+02,7.143040e+03
8.986672e+02,7.148627e+03
8.996314e+02,7.140552e+03
9.005956e+02,7.132417e+03
9.015599e+02,7.129346e+03
9.025241e+02,7.128500e+03
9.034883e+02,7.124451e+03
9.044526e+02,7.111844e+03
9.054168e+02,7.095145e+03
9.063810e+02,7.081040e+03
9.073453e+02,7.072171e+03
9.083095e+02,7.066494e+03
9.092737e+02,7.060429e+03
9.102380e+02,7.054494e+03
9.112022e+02,7.053705e+03
9.121664e+02,7.053905e+03
9.131307e+02,7.043865e+03
9.140949e+02,7.022006e+03
9.150591e+02,7.002554e+03
9.160234e+02,7.001841e+03
9.169876e+02,7.014019e+03
9.179518e+02,7.021922e+03
9.189161e+02,7.023901e+03
9.198803e+02,7.018974e+03
9.208445e+02,7.006672e+03
9.218088e+02,6.987942e+03
9.227730e+02,6.973831e+03
9.237372e+02,6.962419e+03
9.247015e+02,6.954822e+03
9.256657e+02,6.952797e+03
9.266299e+02,6.956050e+03
9.275942e+02,6.959139e+03
9.285584e+02,6.960108e+03
9.295226e+02,6.960121e+03
9.304869e+02,6.963242e+03
9.314511e+02,6.967997e+03
9.324153e+02,6.965937e+03
9.333796e+02,6.942469e+03
9.343438e+02,6.927622e+03
9.353080e+02,6.938649e+03
9.362723e+02,6.956772e+03
9.372365e+02,6.957788e+03
9.382007e+02,6.929587e+03
9.391650e+02,6.903782e+03
9.401292e+02,6.892634e+03
9.410934e+02,6.891581e+03
9.420577e+02,6.896712e+03
9.430219e+02,6.907035e+03
9.439861e+02,6.912024e+03
9.449504e+02,6.900464e+03
9.459146e+02,6.885943e+03
9.468788e+02,6.885290e+03
9.478431e+02,6.895338e+03
9.488073e+02,6.900206e+03
9.497715e+02,6.886481e+03
9.507358e+02,6.863142e+03
9.517000e+02,6.849862e+03
9.526642e+02,6.848209e+03
9.536285e+02,6.846588e+03
9.545927e+02,6.835158e+03
9.555569e+02,6.817571e+03
9.565212e+02,6.807312e+03
9.574854e+02,6.806891e+03
9.584496e+02,6.807352e+03
9.594139e+02,6.801178e+03
9.603781e+02,6.791404e+03
9.613423e+02,6.793014e+03
9.623066e+02,6.810519e+03
9.632708e+02,6.819906e+03
9.642350e+02,6.817746e+03
9.651993e+02,6.807965e+03
9.661635e+02,6.792036e+03
9.671277e+02,6.760834e+03
9.680920e+02,6.739887e+03
9.690562e+02,6.733885e+03
9.700204e+02,6.732432e+03
9.709847e+02,6.731247e+03
9.719489e+02,6.733351e+03
9.729131e+02,6.731024e+03
9.738774e+02,6.717670e+03
9.748416e+02,6.709859e+03
9.758058e+02,6.715231e+03
9.767701e+02,6.729120e+03
9.777343e+02,6.736974e+03
9.786985e+02,6.735202e+03
9.796628e+02,6.727057e+03
9.806270e+02,6.709158e+03
9.815912e+02,6.687702e+03
9.825555e+02,6.673526e+03
9.835197e+02,6.680731e+03
9.844839e+02,6.685621e+03
9.854482e+02,6.675988e+03
9.864124e+02,6.661279e+03
9.873766e+02,6.649253e+03
9.883409e+02,6.642044e+03
9.893051e+02,6.640658e+03
9.902693e+02,6.652394e+03
9.912336e+02,6.666943e+03
9.921978e+02,6.669409e+03
9.931620e+02,6.657403e+03
9.941263e+02,6.642043e+03
9.950905e+02,6.629889e+03
9.960547e+02,6.620981e+03
9.970190e+02,6.617917e+03
9.979832e+02,6.617736e+03
9.989474e+02,6.611755e+03
9.999117e+02,6.593502e+03
1.000876e+03,6.573798e+03
1.001840e+03,6.570757e+03
1.002804e+03,6.581308e+03
1.003769e+03,6.589486e+03
1.004733e+03,6.587221e+03
1.005697e+03,6.580466e+03
1.006661e+03,6.579854e+03
1.007626e+03,6.584223e+03
1.008590e+03,6.586148e+03
1.009554e+03,6.582809e+03
1.010518e+03,6.574810e+03
1.011482e+03,6.563124e+03
1.012447e+03,6.548340e+03
1.013411e+03,6.536445e+03
1.014375e+03,6.530881e+03
1.015339e+03,6.529582e+03
1.016304e+03,6.530143e+03
1.017268e+03,6.531115e+03
1.018232e+03,6.526827e+03
1.019196e+03,6.515646e+03
1.020161e+03,6.504686e+03
1.021125e+03,6.497755e+03
1.022089e+03,6.495919e+03
1.023053e+03,6.498084e+03
1.024018e+03,6.503151e+03
1.024982e+03,6.505292e+03
1.025946e+03,6.502084e+03
1.026910e+03,6.493115e+03
1.027875e+03,6.480881e+03
1.028839e+03,6.467072e+03
1.029803e+03,6.457747e+03
1.030767e+03,6.455753e+03
1.031731e+03,6.453752e+03
1.032696e+03,6.443547e+03
1.033660e+03,6.423753e+03
1.034624e+03,6.414806e+03
1.035588e+03,6.425044e+03
1.036552e+03,6.436220e+03
1.037517e+03,6.439612e+03
1.038481e+03,6.435410e+03
1.039445e+03,6.431542e+03
1.040409e+03,6.431574e+03
1.041374e+03,6.426336e+03
1.042338e+03,6.411357e+03
1.043302e+03,6.395034e+03
1.044266e+03,6.386714e+03
1.045231e+03,6.388734e+03
1.046195e+03,6.392919e+03
1.047159e+03,6.411046e+03
1.048123e+03,6.423989e+03
1.049088e+03,6.414397e+03
1.050052e+03,6.379593e+03
1.051016e+03,6.360646e+03
1.051980e+03,6.368466e+03
1.052945e+03,6.379326e+03
1.053909e+03,6.383908e+03
1.054873e+03,6.380021e+03
1.055837e+03,6.371224e+03
1.056802e+03,6.352323e+03
1.057766e+03,6.339716e+03
1.058730e+03,6.344144e+03
1.059694e+03,6.354593e+03
1.060658e+03,6.355906e+03
1.061623e+03,6.341994e+03
1.062587e+03,6.331427e+03
1.063551e+03,6.325744e+03
1.064515e+03,6.325155e+03
1.065479e+03,6.331485e+03
1.066444e+03,6.346849e+03
1.067408e+03,6.355057e+03
1.068372e+03,6.343929e+03
1.069336e+03,6.334867e+03
1.070301e+03,6.336173e+03
1.071265e+03,6.343623e+03
1.072229e+03,6.348307e+03
1.073193e+03,6.347232e+03
1.074158e+03,6.344735e+03
1.075122e+03,6.342708e+03
1.076086e+03,6.339817e+03
1.077050e+03,6.335564e+03
1.078015e+03,6.332902e+03
1.078979e+03,6.332112e+03
1.079943e+03,6.333641e+03
1.080907e+03,6.334667e+03
1.081872e+03,6.330526e+03
1.082836e+03,6.319202e+03
1.083800e+03,6.308300e+03
1.084764e+03,6.301847e+03
1.085729e+03,6.297019e+03
1.086693e+03,6.292570e+03
1.087657e+03,6.287341e+03
1.088621e+03,6.280279e+03
1.089585e+03,6.273083e+03
1.090550e+03,6.258718e+03
1.091514e+03,6.231904e+03
1.092478e+03,6.203922e+03
1.093442e+03,6.185982e+03
1.094406e+03,6.182726e+03
1.095371e+03,6.181935e+03
1.096335e+03,6.181318e+03
1.097299e+03,6.179853e+03
1.098263e+03,6.177405e+03
1.099228e+03,6.173186e+03
1.100192e+03,6.166270e+03
1.101156e+03,6.151008e+03
1.102120e+03,6.137802e+03
1.103085e+03,6.134298e+03
1.104049e+03,6.135705e+03
1.105013e+03,6.132142e+03
1.105977e+03,6.116491e+03
1.106942e+03,6.104300e+03
1.107906e+03,6.100853e+03
1.108870e+03,6.100731e+03
1.109834e+03,6.099275e+03
1.110799e+03,6.096515e+03
1.111763e+03,6.091324e+03
1.112727e+03,6.077727e+03
1.113691e+03,6.069072e+03
1.114656e+03,6.075172e+03
1.115620e+03,6.093261e+03
1.116584e+03,6.102835e+03
1.117548e+03,6.091071e+03
1.118512e+03,6.079336e+03
1.119477e+03,6.076569e+03
1.120441e+03,6.075859e+03
1.121405e+03,6.067404e+03
1.122369e+03,6.041470e+03
1.123334e+03,6.023084e+03
1.124298e+03,6.017826e+03
1.125262e+03,6.017351e+03
1.126226e+03,6.017288e+03
1.127191e+03,6.018552e+03
1.128155e+03,6.016030e+03
1.129119e+03,6.000873e+03
1.130083e+03,5.991310e+03
1.131047e+03,5.996967e+03
1.132012e+03,6.011175e+03
1.132976e+03,6.016478e+03
1.133940e+03,6.009798e+03
1.134904e+03,5.999509e+03
1.135869e+03,5.987377e+03
1.136833e+03,5.975095e+03
1.137797e+03,5.963822e+03
1.138761e+03,5.954717e+03
1.139726e+03,5.950132e+03
1.140690e+03,5.950932e+03
1.141654e+03,5.951829e+03
1.142618e+03,5.948634e+03
1.143583e+03,5.942609e+03
1.144547e+03,5.941872e+03
1.145511e+03,5.949011e+03
1.146475e+03,5.949688e+03
1.147439e+03,5.936754e+03
1.148404e+03,5.920296e+03
1.149368e+03,5.918839e+03
1.150332e+03,5.934063e+03
1.151296e+03,5.938799e+03
1.152261e+03,5.926706e+03
1.153225e+03,5.904890e+03
1.154189e+03,5.880695e+03
1.155153e+03,5.857786e+03
1.156118e+03,5.849239e+03
1.157082e+03,5.857284e+03
1.158046e+03,5.868220e+03
1.159010e+03,5.874428e+03
1.159974e+03,5.876158e+03
1.160939e+03,5.872192e+03
1.161903e+03,5.862500e+03
1.162867e+03,5.855419e+03
1.163831e+03,5.852416e+03
1.164796e+03,5.850045e+03
1.165760e+03,5.848792e+03
1.166724e+03,5.847073e+03
1.167688e+03,5.835469e+03
1.168653e+03,5.815485e+03
1.169617e+03,5.798303e+03
1.170581e+03,5.792447e+03
1.171545e+03,5.793012e+03
1.172510e+03,5.793997e+03
1.173474e+03,5.795580e+03
1.174438e+03,5.796649e+03
1.175402e+03,5.796022e+03
1.176366e+03,5.794071e+03
1.177331e+03,5.790467e+03
1.178295e+03,5.787418e+03
1.179259e+03,5.786642e+03
1.180223e+03,5.787076e+03
1.181188e+03,5.787619e+03
1.182152e+03,5.792475e+03
1.183116e+03,5.793264e+03
1.184080e+03,5.780932e+03
1.185045e+03,5.763555e+03
1.186009e+03,5.754153e+03
1.186973e+03,5.762898e+03
1.187937e+03,5.770524e+03
1.188901e+03,5.764542e+03
1.189866e+03,5.756221e+03
1.190830e+03,5.756166e+03
1.191794e+03,5.764467e+03
1.192758e+03,5.764304e+03
1.193723e+03,5.747500e+03
1.194687e+03,5.731520e+03
1.195651e+03,5.719826e+03
1.196615e+03,5.712775e+03
1.197580e+03,5.711267e+03
1.198544e+03,5.718758e+03
1.199508e+03,5.718148e+03
1.200472e+03,5.711110e+03
1.201437e+03,5.698549e+03
1.202401e+03,5.679848e+03
1.203365e+03,5.654359e+03
1.204329e+03,5.640214e+03
1.205293e+03,5.639958e+03
1.206258e+03,5.642616e+03
1.207222e+03,5.642842e+03
1.208186e+03,5.641386e+03
1.209150e+03,5.643009e+03
1.210115e+03,5.646672e+03
1.211079e+03,5.646133e+03
1.212043e+03,5.640368e+03
1.213007e+03,5.632493e+03
1.213972e+03,5.628761e+03
1.214936e+03,5.629402e+03
1.215900e+03,5.626001e+03
1.216864e+03,5.618767e+03
1.217828e+03,5.610301e+03
1.218793e+03,5.600522e+03
1.219757e+03,5.593227e+03
1.220721e+03,5.597483e+03
1.221685e+03,5.609586e+03
1.222650e+03,5.616589e+03
1.223614e+03,5.613088e+03
1.224578e+03,5.607898e+03
1.225542e+03,5.615914e+03
1.226507e+03,5.625523e+03
1.227471e+03,5.619064e+03
1.228435e+03,5.597894e+03
1.229399e+03,5.577406e+03
1.230364e+03,5.567433e+03
1.231328e+03,5.560586e+03
1.232292e+03,5.558253e+03
1.233256e+03,5.558426e+03
1.234220e+03,5.554881e+03
1.235185e+03,5.545959e+03
1.236149e+03,5.539587e+03
1.237113e+03,5.540662e+03
1.238077e+03,5.543189e+03
1.239042e+03,5.540010e+03
1.240006e+03,5.529430e+03
1.240970e+03,5.518159e+03
1.241934e+03,5.503575e+03
1.242899e+03,5.492814e+03
1.243863e+03,5.490483e+03
1.244827e+03,5.491904e+03
1.245791e+03,5.490579e+03
1.246755e+03,5.486745e+03
1.247720e+03,5.478292e+03
1.248684e+03,5.465042e+03
1.249648e+03,5.451104e+03
1.250612e+03,5.437319e+03
1.251577e+03,5.424241e+03
1.252541e+03,5.416176e+03
1.253505e+03,5.412461e+03
1.254469e+03,5.414563e+03
1.255434e+03,5.424884e+03
1.256398e+03,5.433851e+03
1.257362e+03,5.423979e+03
1.258326e+03,5.404396e+03
1.259291e+03,5.394280e+03
1.260255e+03,5.392942e+03
1.261219e+03,5.390787e+03
1.262183e+03,5.386434e+03
1.263147e+03,5.380894e+03
1.264112e+03,5.372642e+03
1.265076e+03,5.363362e+03
1.266040e+03,5.354442e+03
1.267004e+03,5.346301e+03
1.267969e+03,5.339703e+03
1.268933e+03,5.336646e+03
1.269897e+03,5.338228e+03
1.270861e+03,5.342846e+03
1.271826e+03,5.345999e+03
1.272790e+03,5.344467e+03
1.273754e+03,5.335305e+03
1.274718e+03,5.330969e+03
1.275682e+03,5.340236e+03
1.276647e+03,5.352305e+03
1.277611e+03,5.350701e+03
1.278575e+03,5.332489e+03
1.279539e+03,5.317333e+03
1.280504e+03,5.308280e+03
1.281468e+03,5.303539e+03
1.282432e+03,5.301379e+03
1.283396e+03,5.300396e+03
1.284361e+03,5.295878e+03
1.285325e+03,5.288078e+03
1.286289e+03,5.283314e+03
1.287253e+03,5.282968e+03
1.288218e+03,5.282958e+03
1.289182e+03,5.282678e+03
1.290146e+03,5.280188e+03
1.291110e+03,5.270520e+03
1.292074e+03,5.256892e+03
1.293039e+03,5.248341e+03
1.294003e+03,5.255636e+03
1.294967e+03,5.258923e+03
1.295931e+03,5.247571e+03
1.296896e+03,5.232291e+03
1.297860e+03,5.223342e+03
1.298824e+03,5.222078e+03
1.299788e+03,5.221861e+03
1.300753e+03,5.220570e+03
1.301717e+03,5.221422e+03
1.302681e+03,5.226593e+03
1.303645e+03,5.234641e+03
1.304609e+03,5.242429e+03
1.305574e+03,5.248539e+03
1.306538e+03,5.248636e+03
1.307502e+03,5.243963e+03
1.308466e+03,5.238923e+03
1.309431e+03,5.236798e+03
1.310395e+03,5.236398e+03
1.311359e+03,5.233143e+03
1.312323e+03,5.225081e+03
1.313288e+03,5.211927e+03
1.314252e+03,5.193806e+03
1.315216e+03,5.180497e+03
1.316180e+03,5.182543e+03
1.317145e+03,5.191990e+03
1.318109e+03,5.198448e+03
1.319073e+03,5.198542e+03
1.320037e+03,5.195595e+03
1.321001e+03,5.189366e+03
1.321966e+03,5.182692e+03
1.322930e+03,5.181482e+03
1.323894e+03,5.182282e+03
1.324858e+03,5.175391e+03
1.325823e+03,5.152503e+03
1.326787e+03,5.141373e+03
1.327751e+03,5.145393e+03
1.328715e+03,5.149798e+03
1.329680e+03,5.145217e+03
1.330644e+03,5.134495e+03
1.331608e+03,5.128446e+03
1.332572e+03,5.126502e+03
1.333536e+03,5.129414e+03
1.334501e+03,5.137495e+03
1.335465e+03,5.141177e+03
1.336429e+03,5.127509e+03
1.337393e+03,5.107771e+03
1.338358e+03,5.098354e+03
1.339322e+03,5.098109e+03
1.340286e+03,5.097050e+03
1.341250e+03,5.091562e+03
1.342215e+03,5.082467e+03
1.343179e+03,5.066058e+03
1.344143e+03,5.053655e+03
1.345107e+03,5.057358e+03
1.346072e+03,5.082973e+03
1.347036e+03,5.091801e+03
1.348000e+03,5.072237e+03
1.348964e+03,5.054917e+03
1.349928e+03,5.054490e+03
1.350893e+03,5.064143e+03
1.351857e+03,5.063304e+03
1.352821e+03,5.051437e+03
1.353785e+03,5.044626e+03
1.354750e+03,5.044267e+03
1.355714e+03,5.044348e+03
1.356678e+03,5.044939e+03
1.357642e+03,5.044164e+03
1.358607e+03,5.032312e+03
1.359571e+03,5.014203e+03
1.360535e+03,5.002190e+03
1.361499e+03,5.002689e+03
1.362464e+03,5.006010e+03
1.363428e+03,5.011594e+03
1.364392e+03,5.016881e+03
1.365356e+03,5.016985e+03
1.366320e+03,5.010024e+03
1.367285e+03,5.001989e+03
1.368249e+03,4.993852e+03
1.369213e+03,4.988518e+03
1.370177e+03,4.988386e+03
1.371142e+03,4.987251e+03
1.372106e+03,4.976465e+03
1.373070e+03,4.957669e+03
1.374034e+03,4.943263e+03
1.374999e+03,4.934193e+03
1.375963e+03,4.926088e+03
1.376927e+03,4.914644e+03
1.377891e+03,4.906754e+03
1.378855e+03,4.912903e+03
1.379820e+03,4.923954e+03
1.380784e+03,4.929748e+03
1.381748e+03,4.930045e+03
1.382712e+03,4.926375e+03
1.383677e+03,4.908805e+03
1.384641e+03,4.894529e+03
1.385605e+03,4.890693e+03
1.386569e+03,4.891703e+03
1.387534e+03,4.890076e+03
1.388498e+03,4.885904e+03
1.389462e+03,4.881311e+03
1.390426e+03,4.874910e+03
1.391391e+03,4.868480e+03
1.392355e+03,4.864442e+03
1.393319e+03,4.863138e+03
1.394283e+03,4.862883e+03
1.395247e+03,4.863646e+03
1.396212e+03,4.868424e+03
1.397176e+03,4.878318e+03
1.398140e+03,4.884058e+03
1.399104e+03,4.875186e+03
1.400069e+03,4.863104e+03
1.401033e+03,4.853787e+03
1.401997e+03,4.847475e+03
1.402961e+03,4.844198e+03
1.403926e+03,4.847766e+03
1.404890e+03,4.843800e+03
1.405854e+03,4.829967e+03
1.406818e+03,4.815581e+03
1.407782e+03,4.806179e+03
1.408747e+03,4.803609e+03
1.409711e+03,4.815043e+03
1.410675e+03,4.833571e+03
1.411639e+03,4.838255e+03
1.412604e+03,4.822347e+03
1.413568e+03,4.805066e+03
1.414532e+03,4.806308e+03
1.415496e+03,4.812718e+03
1.416461e+03,4.809843e+03
1.417425e+03,4.798339e+03
1.418389e+03,4.789058e+03
1.419353e+03,4.786736e+03
1.420318e+03,4.783057e+03
1.421282e+03,4.778893e+03
1.422246e+03,4.775273e+03
1.423210e+03,4.772129e+03
1.424174e+03,4.770174e+03
1.425139e+03,4.770037e+03
1.426103e+03,4.770177e+03
1.427067e+03,4.768548e+03
1.428031e+03,4.764639e+03
1.428996e+03,4.760792e+03
1.429960e+03,4.759119e+03
1.430924e+03,4.756890e+03
1.431888e+03,4.750534e+03
1.432853e+03,4.741248e+03
1.433817e+03,4.734216e+03
1.434781e+03,4.738010e+03
1.435745e+03,4.734838e+03
1.436709e+03,4.713744e+03
1.437674e+03,4.693536e+03
1.438638e+03,4.695698e+03
1.439602e+03,4.718392e+03
1.440566e+03,4.728206e+03
1.441531e+03,4.725477e+03
1.442495e+03,4.716788e+03
1.443459e+03,4.701360e+03
1.444423e+03,4.692095e+03
1.445388e+03,4.708383e+03
1.446352e+03,4.731075e+03
1.447316e+03,4.744128e+03
1.448280e+03,4.747929e+03
1.449245e+03,4.744800e+03
1.450209e+03,4.722272e+03
1.451173e+03,4.712185e+03
1.452137e+03,4.720607e+03
1.453101e+03,4.732329e+03
1.454066e+03,4.736087e+03
1.455030e+03,4.732391e+03
1.455994e+03,4.719454e+03
1.456958e+03,4.699577e+03
1.457923e+03,4.690396e+03
1.458887e+03,4.699440e+03
1.459851e+03,4.710454e+03
1.460815e+03,4.712421e+03
1.461780e+03,4.705925e+03
1.462744e+03,4.691104e+03
1.463708e+03,4.670706e+03
1.464672e+03,4.654404e+03
1.465636e+03,4.646062e+03
1.466601e+03,4.640103e+03
1.467565e+03,4.636467e+03
1.468529e+03,4.633265e+03
1.469493e+03,4.626744e+03
1.470458e+03,4.617161e+03
1.471422e+03,4.610506e+03
1.472386e+03,4.607079e+03
1.473350e+03,4.604117e+03
1.474315e+03,4.598584e+03
1.475279e+03,4.597122e+03
1.476243e+03,4.610583e+03
1.477207e+03,4.622290e+03
1.478172e+03,4.619946e+03
1.479136e+03,4.606810e+03
1.480100e+03,4.597046e+03
1.481064e+03,4.592022e+03
1.482028e+03,4.586661e+03
1.482993e+03,4.580569e+03
1.483957e+03,4.577175e+03
1.484921e+03,4.580354e+03
1.485885e+03,4.586204e+03
1.486850e+03,4.586607e+03
1.487814e+03,4.582333e+03
1.488778e+03,4.577976e+03
1.489742e+03,4.575770e+03
1.490707e+03,4.572525e+03
1.491671e+03,4.569858e+03
1.492635e+03,4.568211e+03
1.493599e+03,4.566271e+03
1.494563e+03,4.562612e+03
1.495528e+03,4.555911e+03
1.496492e+03,4.545568e+03
1.497456e+03,4.535452e+03
1.498420e+03,4.527541e+03
1.499385e+03,4.522394e+03
1.500349e+03,4.520993e+03
1.501313e+03,4.522137e+03
1.502277e+03,4.524182e+03
1.503242e+03,4.526885e+03
1.504206e+03,4.530469e+03
1.505170e+03,4.534985e+03
1.506134e+03,4.537012e+03
1.507099e+03,4.537737e+03
1.508063e+03,4.532947e+03
1.509027e+03,4.518756e+03
1.509991e+03,4.503589e+03
1.510955e+03,4.507157e+03
1.511920e+03,4.519543e+03
1.512884e+03,4.515381e+03
1.513848e+03,4.497276e+03
1.514812e+03,4.486227e+03
1.515777e+03,4.495217e+03
1.516741e+03,4.502742e+03
1.517705e+03,4.499466e+03
1.518669e+03,4.492650e+03
1.519634e+03,4.489647e+03
1.520598e+03,4.489301e+03
1.521562e+03,4.483126e+03
1.522526e+03,4.470289e+03
1.523490e+03,4.456859e+03
1.524455e+03,4.445063e+03
1.525419e+03,4.435690e+03
1.526383e+03,4.434024e+03
1.527347e+03,4.432034e+03
1.528312e+03,4.422265e+03
1.529276e+03,4.408556e+03
1.530240e+03,4.400737e+03
1.531204e+03,4.397550e+03
1.532169e+03,4.401007e+03
1.533133e+03,4.413350e+03
1.534097e+03,4.422959e+03
1.535061e+03,4.417842e+03
1.536026e+03,4.406057e+03
1.536990e+03,4.405667e+03
1.537954e+03,4.411339e+03
1.538918e+03,4.411442e+03
1.539882e+03,4.401847e+03
1.540847e+03,4.395632e+03
1.541811e+03,4.400353e+03
1.542775e+03,4.400208e+03
1.543739e+03,4.389922e+03
1.544704e+03,4.377841e+03
1.545668e+03,4.378860e+03
1.546632e+03,4.390146e+03
1.547596e+03,4.396549e+03
1.548561e+03,4.397540e+03
1.549525e+03,4.397030e+03
1.550489e+03,4.393913e+03
1.551453e+03,4.391277e+03
1.552417e+03,4.390817e+03
1.553382e+03,4.390991e+03
1.554346e+03,4.391686e+03
1.555310e+03,4.393638e+03
1.556274e+03,4.395396e+03
1.557239e+03,4.396667e+03
1.558203e+03,4.402953e+03
1.559167e+03,4.415931e+03
1.560131e+03,4.429514e+03
1.561096e+03,4.434774e+03
1.562060e+03,4.442791e+03
1.563024e+03,4.463829e+03
1.563988e+03,4.494046e+03
1.564953e+03,4.523868e+03
1.565917e+03,4.554187e+03
1.566881e+03,4.578632e+03
1.567845e+03,4.595854e+03
1.568809e+03,4.608474e+03
1.569774e+03,4.619854e+03
1.570738e+03,4.625165e+03
1.571702e+03,4.617417e+03
1.572666e+03,4.599341e+03
1.573631e+03,4.571056e+03
1.574595e+03,4.534692e+03
1.575559e+03,4.507859e+03
1.576523e+03,4.493848e+03
1.577488e+03,4.485861e+03
1.578452e+03,4.481262e+03
1.579416e+03,4.477357e+03
1.580380e+03,4.475154e+03
1.581344e+03,4.471634e+03
1.582309e+03,4.459736e+03
1.583273e+03,4.442629e+03
1.584237e+03,4.427155e+03
1.585201e+03,4.419505e+03
1.586166e+03,4.401350e+03
1.587130e+03,4.360680e+03
1.588094e+03,4.327067e+03
1.589058e+03,4.316942e+03
1.590023e+03,4.318313e+03
1.590987e+03,4.302686e+03
1.591951e+03,4.280629e+03
1.592915e+03,4.276597e+03
1.593880e+03,4.288735e+03
1.594844e+03,4.296008e+03
1.595808e+03,4.286665e+03
1.596772e+03,4.276902e+03
1.597736e+03,4.271684e+03
1.598701e+03,4.267815e+03
1.599665e+03,4.261452e+03
1.600629e+03,4.253308e+03
1.601593e+03,4.245345e+03
1.602558e+03,4.238306e+03
1.603522e+03,4.235053e+03
1.604486e+03,4.236787e+03
1.605450e+03,4.238137e+03
1.606415e+03,4.240326e+03
1.607379e+03,4.240639e+03
1.608343e+03,4.237450e+03
1.609307e+03,4.230812e+03
1.610271e+03,4.217590e+03
1.611236e+03,4.200827e+03
1.612200e+03,4.200957e+03
1.613164e+03,4.216751e+03
1.614128e+03,4.228566e+03
1.615093e+03,4.221614e+03
1.616057e+03,4.213342e+03
1.617021e+03,4.206725e+03
1.617985e+03,4.200936e+03
1.618950e+03,4.196542e+03
1.619914e+03,4.194091e+03
1.620878e+03,4.196596e+03
1.621842e+03,4.202854e+03
1.622807e+03,4.205986e+03
1.623771e+03,4.205348e+03
1.624735e+03,4.203894e+03
1.625699e+03,4.200096e+03
1.626663e+03,4.195783e+03
1.627628e+03,4.189151e+03
1.628592e+03,4.182107e+03
1.629556e+03,4.182810e+03
1.630520e+03,4.190588e+03
1.631485e+03,4.187267e+03
1.632449e+03,4.174479e+03
1.633413e+03,4.161674e+03
1.634377e+03,4.152839e+03
1.635342e+03,4.145120e+03
1.636306e+03,4.140244e+03
1.637270e+03,4.133091e+03
1.638234e+03,4.118939e+03
1.639198e+03,4.103584e+03
1.640163e+03,4.101158e+03
1.641127e+03,4.108146e+03
1.642091e+03,4.109326e+03
1.643055e+03,4.102234e+03
1.644020e+03,4.094422e+03
1.644984e+03,4.089486e+03
1.645948e+03,4.081106e+03
1.646912e+03,4.066414e+03
1.647877e+03,4.053628e+03
1.648841e+03,4.051560e+03
1.649805e+03,4.056586e+03
1.650769e+03,4.053895e+03
1.651734e+03,4.047471e+03
1.652698e+03,4.049835e+03
1.653662e+03,4.064546e+03
1.654626e+03,4.074391e+03
1.655590e+03,4.076166e+03
1.656555e+03,4.069934e+03
1.657519e+03,4.054429e+03
1.658483e+03,4.039692e+03
1.659447e+03,4.040829e+03
1.660412e+03,4.047344e+03
1.661376e+03,4.039260e+03
1.662340e+03,4.022536e+03
1.663304e+03,4.015107e+03
1.664269e+03,4.030808e+03
1.665233e+03,4.035370e+03
1.666197e+03,4.023341e+03
1.667161e+03,4.013214e+03
1.668125e+03,4.016805e+03
1.669090e+03,4.026854e+03
1.670054e+03,4.039283e+03
1.671018e+03,4.047183e+03
1.671982e+03,4.036623e+03
1.672947e+03,4.008866e+03
1.673911e+03,3.999188e+03
1.674875e+03,4.012190e+03
1.675839e+03,4.018701e+03
1.676804e+03,4.016265e+03
1.677768e+03,4.013092e+03
1.678732e+03,4.013967e+03
1.679696e+03,4.015836e+03
1.680661e+03,4.017554e+03
1.681625e+03,4.015728e+03
1.682589e+03,4.007661e+03
1.683553e+03,3.994641e+03
1.684517e+03,3.988822e+03
1.685482e+03,3.989299e+03
1.686446e+03,3.985711e+03
1.687410e+03,3.974240e+03
1.688374e+03,3.961827e+03
1.689339e+03,3.951361e+03
1.690303e+03,3.943698e+03
1.691267e+03,3.940374e+03
1.692231e+03,3.939828e+03
1.693196e+03,3.938094e+03
1.694160e+03,3.934321e+03
1.695124e+03,3.930155e+03
1.696088e+03,3.927004e+03
1.697052e+03,3.928306e+03
1.698017e+03,3.936996e+03
1.698981e+03,3.941683e+03
1.699945e+03,3.936919e+03
1.700909e+03,3.928027e+03
1.701874e+03,3.919881e+03
1.702838e+03,3.914795e+03
1.703802e+03,3.912804e+03
1.704766e+03,3.911882e+03
1.705731e+03,3.914125e+03
1.706695e+03,3.919829e+03
1.707659e+03,3.919220e+03
1.708623e+03,3.909384e+03
1.709588e+03,3.901555e+03
1.710552e+03,3.895001e+03
1.711516e+03,3.889151e+03
1.712480e+03,3.885501e+03
1.713444e+03,3.882048e+03
1.714409e+03,3.876689e+03
1.715373e+03,3.872465e+03
1.716337e+03,3.874542e+03
1.717301e+03,3.884142e+03
1.718266e+03,3.880510e+03
1.719230e+03,3.863177e+03
1.720194e+03,3.852079e+03
1.721158e+03,3.852636e+03
1.722123e+03,3.855515e+03
1.723087e+03,3.857563e+03
1.724051e+03,3.855963e+03
1.725015e+03,3.847943e+03
1.725979e+03,3.839007e+03
1.726944e+03,3.835490e+03
1.727908e+03,3.836217e+03
1.728872e+03,3.836531e+03
1.729836e+03,3.835263e+03
1.730801e+03,3.833853e+03
1.731765e+03,3.834224e+03
1.732729e+03,3.833292e+03
1.733693e+03,3.830644e+03
1.734658e+03,3.827446e+03
1.735622e+03,3.823335e+03
1.736586e+03,3.819768e+03
1.737550e+03,3.823335e+03
1.738515e+03,3.825947e+03
1.739479e+03,3.813344e+03
1.740443e+03,3.789546e+03
1.741407e+03,3.782738e+03
1.742371e+03,3.795629e+03
1.743336e+03,3.800205e+03
1.744300e+03,3.794234e+03
1.745264e+03,3.789932e+03
1.746228e+03,3.807043e+03
1.747193e+03,3.817461e+03
1.748157e+03,3.800388e+03
1.749121e+03,3.781164e+03
1.750085e+03,3.772931e+03
1.751050e+03,3.769519e+03
1.752014e+03,3.758358e+03
1.752978e+03,3.746453e+03
1.753942e+03,3.752354e+03
1.754906e+03,3.778680e+03
1.755871e+03,3.794468e+03
1.756835e+03,3.789808e+03
1.757799e+03,3.779152e+03
1.758763e+03,3.768194e+03
1.759728e+03,3.757188e+03
1.760692e+03,3.741215e+03
1.761656e+03,3.728595e+03
1.762620e+03,3.726958e+03
1.763585e+03,3.732213e+03
1.764549e+03,3.738571e+03
1.765513e+03,3.744299e+03
1.766477e+03,3.748831e+03
1.767442e+03,3.752545e+03
1.768406e+03,3.750411e+03
1.769370e+03,3.739701e+03
1.770334e+03,3.733164e+03
1.771298e+03,3.742789e+03
1.772263e+03,3.743873e+03
1.773227e+03,3.728984e+03
1.774191e+03,3.708073e+03
1.775155e+03,3.689695e+03
1.776120e+03,3.675886e+03
1.777084e+03,3.672907e+03
1.778048e+03,3.677858e+03
1.779012e+03,3.682043e+03
1.779977e+03,3.685513e+03
1.780941e+03,3.689448e+03
1.781905e+03,3.692173e+03
1.782869e+03,3.693052e+03
1.783833e+03,3.692914e+03
1.784798e+03,3.689038e+03
1.785762e+03,3.671992e+03
1.786726e+03,3.660042e+03
1.787690e+03,3.665770e+03
1.788655e+03,3.677270e+03
1.789619e+03,3.666744e+03
1.790583e+03,3.645768e+03
1.791547e+03,3.636267e+03
1.792512e+03,3.638603e+03
1.793476e+03,3.644731e+03
1.794440e+03,3.654371e+03
1.795404e+03,3.657634e+03
1.796369e+03,3.652721e+03
1.797333e+03,3.644968e+03
1.798297e+03,3.635798e+03
1.799261e+03,3.629378e+03
1.800225e+03,3.628085e+03
1.801190e+03,3.629027e+03
1.802154e+03,3.633258e+03
1.803118e+03,3.637167e+03
1.804082e+03,3.631210e+03
1.805047e+03,3.620654e+03
1.806011e+03,3.615896e+03
1.806975e+03,3.616988e+03
1.807939e+03,3.612149e+03
1.808904e+03,3.593331e+03
1.809868e+03,3.591632e+03
1.810832e+03,3.612470e+03
1.811796e+03,3.627746e+03
1.812760e+03,3.607627e+03
1.813725e+03,3.584316e+03
1.814689e+03,3.576878e+03
1.815653e+03,3.577981e+03
1.816617e+03,3.584872e+03
1.817582e+03,3.593723e+03
1.818546e+03,3.590323e+03
1.819510e+03,3.578602e+03
1.820474e+03,3.566692e+03
1.821439e+03,3.556770e+03
1.822403e+03,3.552988e+03
1.823367e+03,3.558565e+03
1.824331e+03,3.552710e+03
1.825296e+03,3.530352e+03
1.826260e+03,3.514690e+03
1.827224e+03,3.539263e+03
1.828188e+03,3.563387e+03
1.829152e+03,3.557805e+03
1.830117e+03,3.544757e+03
1.831081e+03,3.541666e+03
1.832045e+03,3.543990e+03
1.833009e+03,3.543561e+03
1.833974e+03,3.543380e+03
1.834938e+03,3.543551e+03
1.835902e+03,3.542574e+03
1.836866e+03,3.539379e+03
1.837831e+03,3.533808e+03
1.838795e+03,3.522676e+03
1.839759e+03,3.506512e+03
1.840723e+03,3.494120e+03
1.841688e+03,3.489770e+03
1.842652e+03,3.490223e+03
1.843616e+03,3.492853e+03
1.844580e+03,3.496460e+03
1.845544e+03,3.503497e+03
1.846509e+03,3.511614e+03
1.847473e+03,3.516630e+03
1.848437e+03,3.518203e+03
1.849401e+03,3.515030e+03
1.850366e+03,3.507961e+03
1.851330e+03,3.497029e+03
1.852294e+03,3.484611e+03
1.853258e+03,3.484829e+03
1.854223e+03,3.502864e+03
1.855187e+03,3.513154e+03
1.856151e+03,3.497343e+03
1.857115e+03,3.478256e+03
1.858079e+03,3.457302e+03
1.859044e+03,3.443354e+03
1.860008e+03,3.459250e+03
1.860972e+03,3.476982e+03
1.861936e+03,3.459706e+03
1.862901e+03,3.431255e+03
1.863865e+03,3.425008e+03
1.864829e+03,3.435906e+03
1.865793e+03,3.443011e+03
1.866758e+03,3.447550e+03
1.867722e+03,3.449766e+03
1.868686e+03,3.448537e+03
1.869650e+03,3.446254e+03
1.870615e+03,3.442122e+03
1.871579e+03,3.435794e+03
1.872543e+03,3.428722e+03
1.873507e+03,3.423022e+03
1.874471e+03,3.416260e+03
1.875436e+03,3.409030e+03
1.876400e+03,3.402487e+03
1.877364e+03,3.398650e+03
1.878328e+03,3.401135e+03
1.879293e+03,3.406579e+03
1.880257e+03,3.407845e+03
1.881221e+03,3.405711e+03
1.882185e+03,3.404504e+03
1.883150e+03,3.405461e+03
1.884114e+03,3.403390e+03
1.885078e+03,3.397890e+03
1.886042e+03,3.393405e+03
1.887006e+03,3.391615e+03
1.887971e+03,3.385603e+03
1.888935e+03,3.370481e+03
1.889899e+03,3.363649e+03
1.890863e+03,3.368296e+03
1.891828e+03,3.374247e+03
1.892792e+03,3.378312e+03
1.893756e+03,3.375383e+03
1.894720e+03,3.355774e+03
1.895685e+03,3.337262e+03
1.896649e+03,3.338258e+03
1.897613e+03,3.350378e+03
1.898577e+03,3.350569e+03
1.899542e+03,3.343181e+03
1.900506e+03,3.334860e+03
1.901470e+03,3.325335e+03
1.902434e+03,3.331653e+03
1.903398e+03,3.352754e+03
1.904363e+03,3.360263e+03
1.905327e+03,3.346439e+03
1.906291e+03,3.331695e+03
1.907255e+03,3.321278e+03
1.908220e+03,3.315376e+03
1.909184e+03,3.315394e+03
1.910148e+03,3.314792e+03
1.911112e+03,3.307524e+03
1.912077e+03,3.299492e+03
1.913041e+03,3.294969e+03
1.914005e+03,3.292582e+03
1.914969e+03,3.290438e+03
1.915933e+03,3.289042e+03
1.916898e+03,3.291414e+03
1.917862e+03,3.295844e+03
1.918826e+03,3.297232e+03
1.919790e+03,3.295547e+03
1.920755e+03,3.293005e+03
1.921719e+03,3.287809e+03
1.922683e+03,3.281201e+03
1.923647e+03,3.274531e+03
1.924612e+03,3.272213e+03
1.925576e+03,3.285314e+03
1.926540e+03,3.284888e+03
1.927504e+03,3.262098e+03
1.928469e+03,3.239779e+03
1.929433e+03,3.240478e+03
1.930397e+03,3.245487e+03
1.931361e+03,3.243208e+03
1.932325e+03,3.236946e+03
1.933290e+03,3.228799e+03
1.934254e+03,3.223370e+03
1.935218e+03,3.228540e+03
1.936182e+03,3.236424e+03
1.937147e+03,3.237477e+03
1.938111e+03,3.233309e+03
1.939075e+03,3.235716e+03
1.940039e+03,3.244241e+03
1.941004e+03,3.244169e+03
1.941968e+03,3.231874e+03
1.942932e+03,3.222004e+03
1.943896e+03,3.221085e+03
1.944860e+03,3.220023e+03
1.945825e+03,3.219613e+03
1.946789e+03,3.215444e+03
1.947753e+03,3.194790e+03
1.948717e+03,3.180159e+03
1.949682e+03,3.180712e+03
1.950646e+03,3.188772e+03
1.951610e+03,3.204348e+03
1.952574e+03,3.218308e+03
1.953539e+03,3.213269e+03
1.954503e+03,3.202326e+03
1.955467e+03,3.201720e+03
1.956431e+03,3.206554e+03
1.957396e+03,3.200113e+03
1.958360e+03,3.185674e+03
1.959324e+03,3.171962e+03
1.960288e+03,3.161602e+03
1.961252e+03,3.154935e+03
1.962217e+03,3.150222e+03
1.963181e+03,3.146253e+03
1.964145e+03,3.142336e+03
1.965109e+03,3.137733e+03
1.966074e+03,3.127659e+03
1.967038e+03,3.131969e+03
1.968002e+03,3.151754e+03
1.968966e+03,3.164927e+03
1.969931e+03,3.160867e+03
1.970895e+03,3.149577e+03
1.971859e+03,3.133718e+03
1.972823e+03,3.127355e+03
1.973787e+03,3.138082e+03
1.974752e+03,3.150996e+03
1.975716e+03,3.144671e+03
1.976680e+03,3.129807e+03
1.977644e+03,3.116860e+03
1.978609e+03,3.109294e+03
1.979573e+03,3.111404e+03
1.980537e+03,3.118909e+03
1.981501e+03,3.120218e+03
1.982466e+03,3.116976e+03
1.983430e+03,3.113099e+03
1.984394e+03,3.108380e+03
1.985358e+03,3.105196e+03
1.986323e+03,3.102763e+03
1.987287e+03,3.098709e+03
1.988251e+03,3.091387e+03
1.989215e+03,3.085609e+03
1.990179e+03,3.082857e+03
1.991144e+03,3.080702e+03
1.992108e+03,3.079623e+03
1.993072e+03,3.080321e+03
1.994036e+03,3.082999e+03
1.995001e+03,3.085385e+03
1.995965e+03,3.087678e+03
1.996929e+03,3.087587e+03
1.997893e+03,3.076949e+03
1.998858e+03,3.065294e+03
1.999822e+03,3.062784e+03
2.000786e+03,3.062557e+03
2.001750e+03,3.062108e+03
2.002714e+03,3.062167e+03
2.003679e+03,3.058120e+03
2.004643e+03,3.051056e+03
2.005607e+03,3.044997e+03
2.006571e+03,3.040264e+03
2.007536e+03,3.034080e+03
2.008500e+03,3.026490e+03
2.009464e+03,3.012300e+03
2.010428e+03,2.994385e+03
2.011393e+03,2.998310e+03
2.012357e+03,3.026953e+03
2.013321e+03,3.038759e+03
2.014285e+03,3.029771e+03
2.015250e+03,3.019175e+03
2.016214e+03,3.015922e+03
2.017178e+03,3.012533e+03
2.018142e+03,3.009544e+03
2.019106e+03,3.005504e+03
2.020071e+03,2.998250e+03
2.021035e+03,2.991544e+03
2.021999e+03,2.985643e+03
2.022963e+03,2.982740e+03
2.023928e+03,2.986201e+03
2.024892e+03,2.989935e+03
2.025856e+03,2.985249e+03
2.026820e+03,2.979454e+03
2.027785e+03,2.976872e+03
2.028749e+03,2.974941e+03
2.029713e+03,2.973196e+03
2.030677e+03,2.969870e+03
2.031641e+03,2.956267e+03
2.032606e+03,2.941770e+03
2.033570e+03,2.944964e+03
2.034534e+03,2.959429e+03
2.035498e+03,2.958131e+03
2.036463e+03,2.947778e+03
2.037427e+03,2.942961e+03
2.038391e+03,2.946229e+03
2.039355e+03,2.951239e+03
2.040320e+03,2.956708e+03
2.041284e+03,2.953883e+03
2.042248e+03,2.939486e+03
2.043212e+03,2.926181e+03
2.044177e+03,2.915614e+03
2.045141e+03,2.911959e+03
2.046105e+03,2.915003e+03
2.047069e+03,2.916232e+03
2.048033e+03,2.905361e+03
2.048998e+03,2.902031e+03
2.049962e+03,2.909395e+03
2.050926e+03,2.916127e+03
2.051890e+03,2.914742e+03
2.052854e+03,2.910331e+03
2.053819e+03,2.902481e+03
2.054783e+03,2.892698e+03
2.055747e+03,2.882376e+03
2.056711e+03,2.876318e+03
2.057676e+03,2.883212e+03
2.058640e+03,2.889637e+03
2.059604e+03,2.885864e+03
2.060568e+03,2.876841e+03
2.061533e+03,2.865487e+03
2.062497e+03,2.860791e+03
2.063461e+03,2.881397e+03
2.064425e+03,2.905184e+03
2.065390e+03,2.896148e+03
2.066354e+03,2.871282e+03
2.067318e+03,2.863481e+03
2.068282e+03,2.866581e+03
2.069247e+03,2.862526e+03
2.070211e+03,2.852213e+03
2.071175e+03,2.848055e+03
2.072139e+03,2.848218e+03
2.073104e+03,2.848152e+03
2.074068e+03,2.847367e+03
2.075032e+03,2.840347e+03
2.075996e+03,2.828930e+03
2.076960e+03,2.827940e+03
2.077925e+03,2.839758e+03
2.078889e+03,2.845755e+03
2.079853e+03,2.844786e+03
2.080817e+03,2.842785e+03
2.081782e+03,2.840101e+03
2.082746e+03,2.832431e+03
2.083710e+03,2.816827e+03
2.084674e+03,2.806686e+03
2.085639e+03,2.804276e+03
2.086603e+03,2.802072e+03
2.087567e+03,2.782192e+03
2.088531e+03,2.782567e+03
2.089496e+03,2.811413e+03
2.090460e+03,2.827083e+03
2.091424e+03,2.811890e+03
2.092388e+03,2.795201e+03
2.093353e+03,2.792395e+03
2.094317e+03,2.792299e+03
2.095281e+03,2.789258e+03
2.096245e+03,2.785022e+03
2.097209e+03,2.780126e+03
2.098174e+03,2.778652e+03
2.099138e+03,2.786422e+03
2.100102e+03,2.789959e+03
2.101066e+03,2.765932e+03
2.102031e+03,2.739635e+03
2.102995e+03,2.735979e+03
2.103959e+03,2.740234e+03
2.104923e+03,2.743563e+03
2.105887e+03,2.746872e+03
2.106852e+03,2.742762e+03
2.107816e+03,2.738682e+03
2.108780e+03,2.746466e+03
2.109744e+03,2.759730e+03
2.110708e+03,2.770520e+03
2.111673e+03,2.775154e+03
2.112637e+03,2.757872e+03
2.113601e+03,2.728057e+03
2.114565e+03,2.708023e+03
2.115530e+03,2.696594e+03
2.116494e+03,2.692487e+03
2.117458e+03,2.697819e+03
2.118422e+03,2.706360e+03
2.119387e+03,2.715331e+03
2.120351e+03,2.725084e+03
2.121315e+03,2.731965e+03
2.122279e+03,2.729102e+03
2.123244e+03,2.716196e+03
2.124208e+03,2.707802e+03
2.125172e+03,2.702694e+03
2.126136e+03,2.691112e+03
2.127101e+03,2.669974e+03
2.128065e+03,2.664945e+03
2.129029e+03,2.672973e+03
2.129993e+03,2.674099e+03
2.130958e+03,2.661930e+03
2.131922e+03,2.658388e+03
2.132886e+03,2.666867e+03
2.133850e+03,2.670840e+03
2.134814e+03,2.670964e+03
2.135779e+03,2.668026e+03
2.136743e+03,2.656898e+03
2.137707e+03,2.654731e+03
2.138671e+03,2.662711e+03
2.139636e+03,2.668084e+03
2.140600e+03,2.665498e+03
2.141564e+03,2.653895e+03
2.142528e+03,2.633003e+03
2.143493e+03,2.623665e+03
2.144457e+03,2.637102e+03
2.145421e+03,2.643496e+03
2.146385e+03,2.633641e+03
2.147350e+03,2.627661e+03
2.148314e+03,2.632870e+03
2.149278e+03,2.639946e+03
2.150242e+03,2.638008e+03
2.151207e+03,2.638573e+03
2.152171e+03,2.643443e+03
2.153135e+03,2.643746e+03
2.154099e+03,2.635793e+03
2.155063e+03,2.623014e+03
2.156028e+03,2.605702e+03
2.156992e+03,2.593631e+03
2.157956e+03,2.592260e+03
2.158920e+03,2.593127e+03
2.159885e+03,2.592957e+03
2.160849e+03,2.592570e+03
2.161813e+03,2.592011e+03
2.162777e+03,2.591680e+03
2.163741e+03,2.595804e+03
2.164706e+03,2.595551e+03
2.165670e+03,2.589774e+03
2.166634e+03,2.582729e+03
2.167598e+03,2.570716e+03
2.168563e+03,2.566317e+03
2.169527e+03,2.573587e+03
2.170491e+03,2.582818e+03
2.171455e+03,2.590932e+03
2.172420e+03,2.594240e+03
2.173384e+03,2.589759e+03
2.174348e+03,2.582101e+03
2.175312e+03,2.570976e+03
2.176277e+03,2.560103e+03
2.177241e+03,2.557071e+03
2.178205e+03,2.552088e+03
2.179169e+03,2.537284e+03
2.180134e+03,2.525626e+03
2.181098e+03,2.539425e+03
2.182062e+03,2.554285e+03
2.183026e+03,2.550878e+03
2.183990e+03,2.539978e+03
2.184955e+03,2.537696e+03
2.185919e+03,2.536036e+03
2.186883e+03,2.525301e+03
2.187847e+03,2.513982e+03
2.188812e+03,2.517098e+03
2.189776e+03,2.524339e+03
2.190740e+03,2.521684e+03
2.191704e+03,2.516930e+03
2.192668e+03,2.523740e+03
2.193633e+03,2.529753e+03
2.194597e+03,2.507975e+03
2.195561e+03,2.485293e+03
2.196525e+03,2.485996e+03
2.197490e+03,2.497386e+03
2.198454e+03,2.502482e+03
2.199418e+03,2.500057e+03
2.200382e+03,2.488198e+03
2.201347e+03,2.476000e+03
2.202311e+03,2.477320e+03
2.203275e+03,2.483593e+03
2.204239e+03,2.484437e+03
2.205204e+03,2.481805e+03
2.206168e+03,2.487323e+03
2.207132e+03,2.490461e+03
2.208096e+03,2.466740e+03
2.209061e+03,2.438229e+03
2.210025e+03,2.431504e+03
2.210989e+03,2.436757e+03
2.211953e+03,2.446746e+03
2.212917e+03,2.456163e+03
2.213882e+03,2.450779e+03
2.214846e+03,2.438178e+03
2.215810e+03,2.434813e+03
2.216774e+03,2.435161e+03
2.217739e+03,2.439670e+03
2.218703e+03,2.445188e+03
2.219667e+03,2.445165e+03
2.220631e+03,2.441747e+03
2.221595e+03,2.435224e+03
2.222560e+03,2.426864e+03
2.223524e+03,2.417418e+03
2.224488e+03,2.408740e+03
2.225452e+03,2.403220e+03
2.226417e+03,2.402132e+03
2.227381e+03,2.409875e+03
2.228345e+03,2.420185e+03
2.229309e+03,2.420527e+03
2.230274e+03,2.418348e+03
2.231238e+03,2.423486e+03
2.232202e+03,2.427487e+03
2.233166e+03,2.419115e+03
2.234131e+03,2.405328e+03
2.235095e+03,2.388666e+03
2.236059e+03,2.374967e+03
2.237023e+03,2.376222e+03
2.237988e+03,2.379068e+03
2.238952e+03,2.372003e+03
2.239916e+03,2.362995e+03
2.240880e+03,2.369771e+03
2.241844e+03,2.374699e+03
2.242809e+03,2.361039e+03
2.243773e+03,2.347173e+03
2.244737e+03,2.353236e+03
2.245701e+03,2.362342e+03
2.246666e+03,2.361421e+03
2.247630e+03,2.354781e+03
2.248594e+03,2.342775e+03
2.249558e+03,2.336451e+03
2.250522e+03,2.352985e+03
2.251487e+03,2.367483e+03
2.252451e+03,2.365031e+03
2.253415e+03,2.353692e+03
2.254379e+03,2.341725e+03
2.255344e+03,2.331125e+03
2.256308e+03,2.322795e+03
2.257272e+03,2.317694e+03
2.258236e+03,2.319054e+03
2.259201e+03,2.320222e+03
2.260165e+03,2.317356e+03
2.261129e+03,2.314939e+03
2.262093e+03,2.319852e+03
2.263058e+03,2.318821e+03
2.264022e+03,2.308480e+03
2.264986e+03,2.304045e+03
2.265950e+03,2.321439e+03
2.266915e+03,2.329987e+03
2.267879e+03,2.317636e+03
2.268843e+03,2.303246e+03
2.269807e+03,2.297338e+03
2.270771e+03,2.294989e+03
2.271736e+03,2.296235e+03
2.272700e+03,2.295669e+03
2.273664e+03,2.288636e+03
2.274628e+03,2.284139e+03
2.275593e+03,2.287605e+03
2.276557e+03,2.287548e+03
2.277521e+03,2.284097e+03
2.278485e+03,2.278973e+03
2.279449e+03,2.270999e+03
2.280414e+03,2.264692e+03
2.281378e+03,2.260128e+03
2.282342e+03,2.259780e+03
2.283306e+03,2.267554e+03
2.284271e+03,2.268995e+03
2.285235e+03,2.263904e+03
2.286199e+03,2.256354e+03
2.287163e+03,2.249643e+03
2.288128e+03,2.249530e+03
2.289092e+03,2.253067e+03
2.290056e+03,2.251449e+03
2.291020e+03,2.242981e+03
2.291985e+03,2.233576e+03
2.292949e+03,2.225918e+03
2.293913e+03,2.226567e+03
2.294877e+03,2.234458e+03
2.295842e+03,2.239873e+03
2.296806e+03,2.241121e+03
2.297770e+03,2.238700e+03
2.298734e+03,2.233165e+03
2.299698e+03,2.227948e+03
2.300663e+03,2.223729e+03
2.301627e+03,2.216813e+03
2.302591e+03,2.209010e+03
2.303555e+03,2.207275e+03
2.304520e+03,2.210225e+03
2.305484e+03,2.209798e+03
2.306448e+03,2.208160e+03
2.307412e+03,2.208640e+03
2.308376e+03,2.208005e+03
2.309341e+03,2.195277e+03
2.310305e+03,2.181073e+03
2.311269e+03,2.184524e+03
2.312233e+03,2.194108e+03
2.313198e+03,2.186328e+03
2.314162e+03,2.173113e+03
2.315126e+03,2.167798e+03
2.316090e+03,2.166237e+03
2.317055e+03,2.165544e+03
2.318019e+03,2.166931e+03
2.318983e+03,2.171161e+03
2.319947e+03,2.174919e+03
2.320912e+03,2.179050e+03
2.321876e+03,2.181171e+03
2.322840e+03,2.177121e+03
2.323804e+03,2.172168e+03
2.324769e+03,2.169554e+03
2.325733e+03,2.166821e+03
2.326697e+03,2.158891e+03
2.327661e+03,2.153594e+03
2.328625e+03,2.151461e+03
2.329590e+03,2.150866e+03
2.330554e+03,2.157729e+03
2.331518e+03,2.154347e+03
2.332482e+03,2.137123e+03
2.333447e+03,2.125385e+03
2.334411e+03,2.134168e+03
2.335375e+03,2.130422e+03
2.336339e+03,2.113115e+03
2.337303e+03,2.102303e+03
2.338268e+03,2.106693e+03
2.339232e+03,2.112562e+03
2.340196e+03,2.119511e+03
2.341160e+03,2.119475e+03
2.342125e+03,2.108614e+03
2.343089e+03,2.119630e+03
2.344053e+03,2.141619e+03
2.345017e+03,2.140476e+03
2.345982e+03,2.116121e+03
2.346946e+03,2.104826e+03
2.347910e+03,2.104005e+03
2.348874e+03,2.103835e+03
2.349839e+03,2.100791e+03
2.350803e+03,2.090509e+03
2.351767e+03,2.079895e+03
2.352731e+03,2.086297e+03
2.353696e+03,2.098261e+03
2.354660e+03,2.091344e+03
2.355624e+03,2.078162e+03
2.356588e+03,2.082634e+03
2.357552e+03,2.092507e+03
2.358517e+03,2.098703e+03
2.359481e+03,2.100582e+03
2.360445e+03,2.091646e+03
2.361409e+03,2.083455e+03
2.362374e+03,2.083437e+03
2.363338e+03,2.082832e+03
2.364302e+03,2.074323e+03
2.365266e+03,2.070836e+03
2.366230e+03,2.075503e+03
2.367195e+03,2.076961e+03
2.368159e+03,2.062586e+03
2.369123e+03,2.050611e+03
2.370087e+03,2.045281e+03
2.371052e+03,2.045758e+03
2.372016e+03,2.055716e+03
2.372980e+03,2.059548e+03
2.373944e+03,2.056104e+03
2.374909e+03,2.051608e+03
2.375873e+03,2.048076e+03
2.376837e+03,2.046958e+03
2.377801e+03,2.046816e+03
2.378766e+03,2.035772e+03
2.379730e+03,2.014050e+03
2.380694e+03,2.014422e+03
2.381658e+03,2.027935e+03
2.382623e+03,2.024136e+03
2.383587e+03,2.009357e+03
2.384551e+03,2.012409e+03
2.385515e+03,2.021511e+03
2.386479e+03,2.018760e+03
2.387444e+03,2.010640e+03
2.388408e+03,2.005427e+03
2.389372e+03,2.002782e+03
2.390336e+03,2.001209e+03
2.391301e+03,2.000307e+03
2.392265e+03,1.999680e+03
2.393229e+03,1.998158e+03
2.394193e+03,1.994691e+03
2.395157e+03,1.993638e+03
2.396122e+03,2.003341e+03
2.397086e+03,2.003498e+03
2.398050e+03,1.986425e+03
2.399014e+03,1.975581e+03
2.399979e+03,1.981056e+03
2.400943e+03,1.985014e+03
2.401907e+03,1.983601e+03
2.402871e+03,1.979185e+03
2.403836e+03,1.972895e+03
2.404800e+03,1.972890e+03
2.405764e+03,1.978517e+03
2.406728e+03,1.984115e+03
2.407693e+03,1.986248e+03
2.408657e+03,1.976770e+03
2.409621e+03,1.960626e+03
2.410585e+03,1.956055e+03
2.411550e+03,1.960091e+03
2.412514e+03,1.963349e+03
2.413478e+03,1.963521e+03
2.414442e+03,1.950450e+03
2.415406e+03,1.936523e+03
2.416371e+03,1.934621e+03
2.417335e+03,1.939540e+03
2.418299e+03,1.947635e+03
2.419263e+03,1.952843e+03
2.420228e+03,1.951423e+03
2.421192e+03,1.946727e+03
2.422156e+03,1.939011e+03
2.423120e+03,1.937238e+03
2.424084e+03,1.943003e+03
2.425049e+03,1.942054e+03
2.426013e+03,1.924282e+03
2.426977e+03,1.915769e+03
2.427941e+03,1.919914e+03
2.428906e+03,1.919705e+03
2.429870e+03,1.908048e+03
2.430834e+03,1.902357e+03
2.431798e+03,1.902799e+03
2.432763e+03,1.906372e+03
2.433727e+03,1.910948e+03
2.434691e+03,1.905144e+03
2.435655e+03,1.894807e+03
2.436620e+03,1.892967e+03
2.437584e+03,1.896464e+03
2.438548e+03,1.898682e+03
2.439512e+03,1.899413e+03
2.440477e+03,1.897661e+03
2.441441e+03,1.893400e+03
2.442405e+03,1.886501e+03
2.443369e+03,1.883683e+03
2.444333e+03,1.889416e+03
2.445298e+03,1.894782e+03
2.446262e+03,1.890366e+03
2.447226e+03,1.884637e+03
2.448190e+03,1.880125e+03
2.449155e+03,1.876570e+03
2.450119e+03,1.875094e+03
2.451083e+03,1.876087e+03
2.452047e+03,1.878178e+03
2.453011e+03,1.872667e+03
2.453976e+03,1.857630e+03
2.454940e+03,1.857799e+03
2.455904e+03,1.868529e+03
2.456868e+03,1.870798e+03
2.457833e+03,1.864918e+03
2.458797e+03,1.859175e+03
2.459761e+03,1.852941e+03
2.460725e+03,1.840419e+03
2.461690e+03,1.831255e+03
2.462654e+03,1.848498e+03
2.463618e+03,1.864234e+03
2.464582e+03,1.862038e+03
2.465547e+03,1.855380e+03
2.466511e+03,1.849843e+03
2.467475e+03,1.848296e+03
2.468439e+03,1.851427e+03
2.469404e+03,1.850696e+03
2.470368e+03,1.840554e+03
2.471332e+03,1.831997e+03
2.472296e+03,1.824590e+03
2.473260e+03,1.823421e+03
2.474225e+03,1.830683e+03
2.475189e+03,1.834017e+03
2.476153e+03,1.834091e+03
2.477117e+03,1.822587e+03
2.478082e+03,1.807186e+03
2.479046e+03,1.822705e+03
2.480010e+03,1.842905e+03
2.480974e+03,1.829145e+03
2.481938e+03,1.806074e+03
2.482903e+03,1.806700e+03
2.483867e+03,1.810107e+03
2.484831e+03,1.803441e+03
2.485795e+03,1.797071e+03
2.486760e+03,1.803994e+03
2.487724e+03,1.807316e+03
2.488688e+03,1.804943e+03
2.489652e+03,1.800081e+03
2.490617e+03,1.788745e+03
2.491581e+03,1.788786e+03
2.492545e+03,1.798026e+03
2.493509e+03,1.795388e+03
2.494474e+03,1.778240e+03
2.495438e+03,1.770594e+03
2.496402e+03,1.770917e+03
2.497366e+03,1.779555e+03
2.498331e+03,1.790686e+03
2.499295e+03,1.798404e+03
2.500259e+03,1.796204e+03
2.501223e+03,1.778885e+03
2.502188e+03,1.761340e+03
2.503152e+03,1.758857e+03
2.504116e+03,1.760913e+03
2.505080e+03,1.764284e+03
2.506044e+03,1.766293e+03
2.507009e+03,1.764832e+03
2.507973e+03,1.756978e+03
2.508937e+03,1.744445e+03
2.509901e+03,1.736325e+03
2.510865e+03,1.734215e+03
2.511830e+03,1.739704e+03
2.512794e+03,1.747746e+03
2.513758e+03,1.746276e+03
2.514722e+03,1.740659e+03
2.515687e+03,1.744611e+03
2.516651e+03,1.749724e+03
2.517615e+03,1.746948e+03
2.518579e+03,1.741121e+03
2.519544e+03,1.735581e+03
2.520508e+03,1.735014e+03
2.521472e+03,1.742112e+03
2.522436e+03,1.746984e+03
2.523401e+03,1.739396e+03
2.524365e+03,1.737179e+03
2.525329e+03,1.739551e+03
2.526293e+03,1.737255e+03
2.527258e+03,1.729473e+03
2.528222e+03,1.719829e+03
2.529186e+03,1.710989e+03
2.530150e+03,1.713094e+03
2.531115e+03,1.721372e+03
2.532079e+03,1.713282e+03
2.533043e+03,1.703219e+03
2.534007e+03,1.706254e+03
2.534971e+03,1.712354e+03
2.535936e+03,1.715066e+03
2.536900e+03,1.710175e+03
2.537864e+03,1.694131e+03
2.538828e+03,1.684931e+03
2.539792e+03,1.690626e+03
2.540757e+03,1.699181e+03
2.541721e+03,1.708320e+03
2.542685e+03,1.701238e+03
2.543649e+03,1.680302e+03
2.544614e+03,1.674775e+03
2.545578e+03,1.680432e+03
2.546542e+03,1.683627e+03
2.547506e+03,1.684470e+03
2.548471e+03,1.679088e+03
2.549435e+03,1.675418e+03
2.550399e+03,1.682194e+03
2.551363e+03,1.690856e+03
2.552328e+03,1.698089e+03
2.553292e+03,1.697160e+03
2.554256e+03,1.682260e+03
2.555220e+03,1.677431e+03
2.556185e+03,1.686352e+03
2.557149e+03,1.688198e+03
2.558113e+03,1.679254e+03
2.559077e+03,1.672771e+03
2.560042e+03,1.667751e+03
2.561006e+03,1.660707e+03
2.561970e+03,1.657684e+03
2.562934e+03,1.666632e+03
2.563898e+03,1.680935e+03
2.564863e+03,1.698185e+03
2.565827e+03,1.702572e+03
2.566791e+03,1.670398e+03
2.567755e+03,1.649987e+03
2.568719e+03,1.650753e+03
2.569684e+03,1.653067e+03
2.570648e+03,1.649606e+03
2.571612e+03,1.646597e+03
2.572576e+03,1.646460e+03
2.573541e+03,1.653193e+03
2.574505e+03,1.663557e+03
2.575469e+03,1.672621e+03
2.576433e+03,1.674610e+03
2.577398e+03,1.659243e+03
2.578362e+03,1.641490e+03
2.579326e+03,1.643339e+03
2.580290e+03,1.647664e+03
2.581255e+03,1.646896e+03
2.582219e+03,1.638055e+03
2.583183e+03,1.607355e+03
2.584147e+03,1.599031e+03
2.585112e+03,1.615280e+03
2.586076e+03,1.624656e+03
2.587040e+03,1.621668e+03
2.588004e+03,1.628274e+03
2.588969e+03,1.636399e+03
2.589933e+03,1.631047e+03
2.590897e+03,1.619244e+03
2.591861e+03,1.613060e+03
2.592825e+03,1.610600e+03
2.593790e+03,1.609599e+03
2.594754e+03,1.611082e+03
2.595718e+03,1.618514e+03
2.596682e+03,1.619144e+03
2.597646e+03,1.609163e+03
2.598611e+03,1.599851e+03
2.599575e+03,1.594510e+03
2.600539e+03,1.598787e+03
2.601503e+03,1.607480e+03
2.602468e+03,1.599274e+03
2.603432e+03,1.583500e+03
2.604396e+03,1.579061e+03
2.605360e+03,1.582840e+03
2.606325e+03,1.599474e+03
2.607289e+03,1.605719e+03
2.608253e+03,1.590426e+03
2.609217e+03,1.580313e+03
2.610182e+03,1.589444e+03
2.611146e+03,1.583136e+03
2.612110e+03,1.563738e+03
2.613074e+03,1.558629e+03
2.614039e+03,1.568546e+03
2.615003e+03,1.569627e+03
2.615967e+03,1.563996e+03
2.616931e+03,1.556186e+03
2.617896e+03,1.552860e+03
2.618860e+03,1.569636e+03
2.619824e+03,1.579482e+03
2.620788e+03,1.571823e+03
2.621752e+03,1.560771e+03
2.622717e+03,1.552179e+03
2.623681e+03,1.554971e+03
2.624645e+03,1.566527e+03
2.625609e+03,1.566757e+03
2.626573e+03,1.556703e+03
2.627538e+03,1.549087e+03
2.628502e+03,1.546305e+03
2.629466e+03,1.550580e+03
2.630430e+03,1.554559e+03
2.631395e+03,1.542986e+03
2.632359e+03,1.536693e+03
2.633323e+03,1.546117e+03
2.634287e+03,1.549062e+03
2.635252e+03,1.541311e+03
2.636216e+03,1.543548e+03
2.637180e+03,1.557289e+03
2.638144e+03,1.559334e+03
2.639109e+03,1.551607e+03
2.640073e+03,1.538117e+03
2.641037e+03,1.527376e+03
2.642001e+03,1.528523e+03
2.642966e+03,1.533044e+03
2.643930e+03,1.536398e+03
2.644894e+03,1.536249e+03
2.645858e+03,1.528076e+03
2.646823e+03,1.522387e+03
2.647787e+03,1.518678e+03
2.648751e+03,1.517311e+03
2.649715e+03,1.517489e+03
2.650679e+03,1.516811e+03
2.651644e+03,1.517479e+03
2.652608e+03,1.524030e+03
2.653572e+03,1.529443e+03
2.654536e+03,1.520721e+03
2.655500e+03,1.512777e+03
2.656465e+03,1.511062e+03
2.657429e+03,1.512398e+03
2.658393e+03,1.514940e+03
2.659357e+03,1.510160e+03
2.660322e+03,1.500065e+03
2.661286e+03,1.493173e+03
2.662250e+03,1.489700e+03
2.663214e+03,1.490477e+03
2.664179e+03,1.494300e+03
2.665143e+03,1.505806e+03
2.666107e+03,1.510987e+03
2.667071e+03,1.502636e+03
2.668036e+03,1.492257e+03
2.669000e+03,1.479488e+03
2.669964e+03,1.481964e+03
2.670928e+03,1.496432e+03
2.671893e+03,1.503849e+03
2.672857e+03,1.504302e+03
2.673821e+03,1.504130e+03
2.674785e+03,1.498189e+03
2.675750e+03,1.481033e+03
2.676714e+03,1.465231e+03
2.677678e+03,1.466221e+03
2.678642e+03,1.467374e+03
2.679606e+03,1.465271e+03
2.680571e+03,1.472829e+03
2.681535e+03,1.490375e+03
2.682499e+03,1.481303e+03
2.683463e+03,1.455147e+03
2.684427e+03,1.462813e+03
2.685392e+03,1.483943e+03
2.686356e+03,1.479514e+03
2.687320e+03,1.471142e+03
2.688284e+03,1.473650e+03
2.689249e+03,1.477301e+03
2.690213e+03,1.479177e+03
2.691177e+03,1.470530e+03
2.692141e+03,1.448227e+03
2.693106e+03,1.445689e+03
2.694070e+03,1.455062e+03
2.695034e+03,1.455693e+03
2.695998e+03,1.452884e+03
2.696963e+03,1.459392e+03
2.697927e+03,1.464748e+03
2.698891e+03,1.462234e+03
2.699855e+03,1.457982e+03
2.700820e+03,1.456247e+03
2.701784e+03,1.452682e+03
2.702748e+03,1.446671e+03
2.703712e+03,1.442302e+03
2.704677e+03,1.440657e+03
2.705641e+03,1.454095e+03
2.706605e+03,1.465604e+03
2.707569e+03,1.447057e+03
2.708533e+03,1.426359e+03
2.709498e+03,1.415042e+03
2.710462e+03,1.413298e+03
2.711426e+03,1.429115e+03
2.712390e+03,1.429235e+03
2.713354e+03,1.417602e+03
2.714319e+03,1.412973e+03
2.715283e+03,1.414703e+03
2.716247e+03,1.425583e+03
2.717211e+03,1.432606e+03
2.718176e+03,1.426729e+03
2.719140e+03,1.419425e+03
2.720104e+03,1.417109e+03
2.721068e+03,1.419756e+03
2.722033e+03,1.426615e+03
2.722997e+03,1.424803e+03
2.723961e+03,1.415570e+03
2.724925e+03,1.406633e+03
2.725890e+03,1.400438e+03
2.726854e+03,1.399269e+03
2.727818e+03,1.400752e+03
2.728782e+03,1.401537e+03
2.729747e+03,1.403424e+03
2.730711e+03,1.410610e+03
2.731675e+03,1.406100e+03
2.732639e+03,1.394546e+03
2.733604e+03,1.400293e+03
2.734568e+03,1.413855e+03
2.735532e+03,1.402713e+03
2.736496e+03,1.393094e+03
2.737460e+03,1.407318e+03
2.738425e+03,1.418623e+03
2.739389e+03,1.409033e+03
2.740353e+03,1.398574e+03
2.741317e+03,1.391048e+03
2.742281e+03,1.383120e+03
2.743246e+03,1.378178e+03
2.744210e+03,1.392429e+03
2.745174e+03,1.407079e+03
2.746138e+03,1.397972e+03
2.747103e+03,1.387186e+03
2.748067e+03,1.384706e+03
2.749031e+03,1.385192e+03
2.749995e+03,1.386707e+03
2.750960e+03,1.385485e+03
2.751924e+03,1.382599e+03
2.752888e+03,1.380705e+03
2.753852e+03,1.379326e+03
2.754817e+03,1.380718e+03
2.755781e+03,1.377447e+03
2.756745e+03,1.362130e+03
2.757709e+03,1.355700e+03
2.758674e+03,1.362763e+03
2.759638e+03,1.371357e+03
2.760602e+03,1.378493e+03
2.761566e+03,1.374699e+03
2.762531e+03,1.367120e+03
2.763495e+03,1.364930e+03
2.764459e+03,1.365129e+03
2.765423e+03,1.368689e+03
2.766387e+03,1.368519e+03
2.767352e+03,1.364238e+03
2.768316e+03,1.362977e+03
2.769280e+03,1.365771e+03
2.770244e+03,1.365123e+03
2.771208e+03,1.364123e+03
2.772173e+03,1.368546e+03
2.773137e+03,1.371097e+03
2.774101e+03,1.363998e+03
2.775065e+03,1.360237e+03
2.776030e+03,1.366201e+03
2.776994e+03,1.360101e+03
2.777958e+03,1.342657e+03
2.778922e+03,1.333452e+03
2.779887e+03,1.332476e+03
2.780851e+03,1.338907e+03
2.781815e+03,1.339628e+03
2.782779e+03,1.326336e+03
2.783744e+03,1.319179e+03
2.784708e+03,1.332552e+03
2.785672e+03,1.337489e+03
2.786636e+03,1.332910e+03
2.787601e+03,1.335426e+03
2.788565e+03,1.342087e+03
2.789529e+03,1.337473e+03
2.790493e+03,1.333206e+03
2.791458e+03,1.344800e+03
2.792422e+03,1.342038e+03
2.793386e+03,1.321295e+03
2.794350e+03,1.319398e+03
2.795314e+03,1.344157e+03
2.796279e+03,1.350896e+03
2.797243e+03,1.342857e+03
2.798207e+03,1.327600e+03
2.799171e+03,1.315068e+03
2.800135e+03,1.318180e+03
2.801100e+03,1.321485e+03
2.802064e+03,1.322691e+03
2.803028e+03,1.327340e+03
2.803992e+03,1.333678e+03
2.804957e+03,1.333028e+03
2.805921e+03,1.327975e+03
2.806885e+03,1.320754e+03
2.807849e+03,1.313050e+03
2.808814e+03,1.305271e+03
2.809778e+03,1.301873e+03
2.810742e+03,1.306433e+03
2.811706e+03,1.316154e+03
2.812671e+03,1.323931e+03
2.813635e+03,1.306630e+03
2.814599e+03,1.285540e+03
2.815563e+03,1.314917e+03
2.816528e+03,1.339487e+03
2.817492e+03,1.330965e+03
2.818456e+03,1.321768e+03
2.819420e+03,1.316004e+03
2.820385e+03,1.311910e+03
2.821349e+03,1.309804e+03
2.822313e+03,1.306940e+03
2.823277e+03,1.305232e+03
2.824241e+03,1.305199e+03
2.825206e+03,1.305307e+03
2.826170e+03,1.306980e+03
2.827134e+03,1.300571e+03
2.828098e+03,1.286499e+03
2.829063e+03,1.284796e+03
2.830027e+03,1.289804e+03
2.830991e+03,1.290902e+03
2.831955e+03,1.293711e+03
2.832919e+03,1.304092e+03
2.833884e+03,1.302788e+03
2.834848e+03,1.288744e+03
2.835812e+03,1.291627e+03
2.836776e+03,1.311049e+03
2.837741e+03,1.323243e+03
2.838705e+03,1.318547e+03
2.839669e+03,1.281982e+03
2.840633e+03,1.253732e+03
2.841598e+03,1.255185e+03
2.842562e+03,1.270476e+03
2.843526e+03,1.297529e+03
2.844490e+03,1.287760e+03
2.845455e+03,1.264627e+03
2.846419e+03,1.275203e+03
2.847383e+03,1.293791e+03
2.848347e+03,1.293056e+03
2.849312e+03,1.289221e+03
2.850276e+03,1.284808e+03
2.851240e+03,1.272084e+03
2.852204e+03,1.254807e+03
2.853168e+03,1.267201e+03
2.854133e+03,1.283966e+03
2.855097e+03,1.264933e+03
2.856061e+03,1.255947e+03
2.857025e+03,1.268789e+03
2.857990e+03,1.284060e+03
2.858954e+03,1.296904e+03
2.859918e+03,1.292844e+03
2.860882e+03,1.279441e+03
2.861846e+03,1.269256e+03
2.862811e+03,1.260602e+03
2.863775e+03,1.249641e+03
2.864739e+03,1.248375e+03
2.865703e+03,1.261102e+03
2.866668e+03,1.269125e+03
2.867632e+03,1.272740e+03
2.868596e+03,1.275540e+03
2.869560e+03,1.277029e+03
2.870525e+03,1.279218e+03
2.871489e+03,1.276330e+03
2.872453e+03,1.266512e+03
2.873417e+03,1.265764e+03
2.874382e+03,1.272399e+03
2.875346e+03,1.268041e+03
2.876310e+03,1.262956e+03
2.877274e+03,1.274669e+03
2.878239e+03,1.279317e+03
2.879203e+03,1.267436e+03
2.880167e+03,1.262912e+03
2.881131e+03,1.275029e+03
2.882095e+03,1.273153e+03
2.883060e+03,1.265256e+03
2.884024e+03,1.262391e+03
2.884988e+03,1.265319e+03
2.885952e+03,1.278100e+03
2.886917e+03,1.279375e+03
2.887881e+03,1.264057e+03
2.888845e+03,1.248088e+03
2.889809e+03,1.239892e+03
2.890773e+03,1.262103e+03
2.891738e+03,1.282579e+03
2.892702e+03,1.259139e+03
2.893666e+03,1.246074e+03
2.894630e+03,1.252748e+03
2.895595e+03,1.259000e+03
2.896559e+03,1.261000e+03
2.897523e+03,1.253503e+03
2.898487e+03,1.244546e+03
2.899452e+03,1.238051e+03
2.900416e+03,1.245850e+03
2.901380e+03,1.267371e+03
2.902344e+03,1.271241e+03
2.903309e+03,1.255605e+03
2.904273e+03,1.252201e+03
2.905237e+03,1.252725e+03
2.906201e+03,1.248555e+03
2.907166e+03,1.239890e+03
2.908130e+03,1.226725e+03
2.909094e+03,1.223893e+03
2.910058e+03,1.231773e+03
2.911022e+03,1.222996e+03
2.911987e+03,1.210569e+03
2.912951e+03,1.206053e+03
2.913915e+03,1.212784e+03
2.914879e+03,1.238533e+03
2.915844e+03,1.253884e+03
2.916808e+03,1.255892e+03
2.917772e+03,1.248923e+03
2.918736e+03,1.237974e+03
2.919700e+03,1.227083e+03
2.920665e+03,1.219902e+03
2.921629e+03,1.223752e+03
2.922593e+03,1.221381e+03
2.923557e+03,1.213865e+03
2.924522e+03,1.206641e+03
2.925486e+03,1.201148e+03
2.926450e+03,1.202849e+03
2.927414e+03,1.199964e+03
2.928379e+03,1.181590e+03
2.929343e+03,1.195028e+03
2.930307e+03,1.231670e+03
2.931271e+03,1.224306e+03
2.932236e+03,1.198324e+03
2.933200e+03,1.198913e+03
2.934164e+03,1.202965e+03
2.935128e+03,1.199564e+03
2.936093e+03,1.202057e+03
2.937057e+03,1.210086e+03
2.938021e+03,1.198394e+03
2.938985e+03,1.181687e+03
2.939949e+03,1.185115e+03
2.940914e+03,1.187888e+03
2.941878e+03,1.183238e+03
2.942842e+03,1.177005e+03
2.943806e+03,1.169360e+03
2.944771e+03,1.167429e+03
2.945735e+03,1.170929e+03
2.946699e+03,1.183146e+03
2.947663e+03,1.186210e+03
2.948627e+03,1.173940e+03
2.949592e+03,1.168525e+03
2.950556e+03,1.175516e+03
2.951520e+03,1.193748e+03
2.952484e+03,1.214469e+03
2.953449e+03,1.232001e+03
2.954413e+03,1.236388e+03
2.955377e+03,1.225461e+03
2.956341e+03,1.221806e+03
2.957306e+03,1.225714e+03
2.958270e+03,1.227177e+03
2.959234e+03,1.215362e+03
2.960198e+03,1.184003e+03
2.961163e+03,1.166203e+03
2.962127e+03,1.175979e+03
2.963091e+03,1.175229e+03
2.964055e+03,1.167450e+03
2.965020e+03,1.185267e+03
2.965984e+03,1.197049e+03
2.966948e+03,1.176800e+03
2.967912e+03,1.158983e+03
2.968876e+03,1.158526e+03
2.969841e+03,1.162370e+03
2.970805e+03,1.164170e+03
2.971769e+03,1.151545e+03
2.972733e+03,1.141600e+03
2.973698e+03,1.147128e+03
2.974662e+03,1.154937e+03
2.975626e+03,1.162119e+03
2.976590e+03,1.171651e+03
2.977554e+03,1.176502e+03
2.978519e+03,1.166257e+03
2.979483e+03,1.153061e+03
2.980447e+03,1.144512e+03
2.981411e+03,1.152437e+03
2.982376e+03,1.172978e+03
2.983340e+03,1.156369e+03
2.984304e+03,1.135783e+03
2.985268e+03,1.145407e+03
2.986233e+03,1.160536e+03
2.987197e+03,1.172461e+03
2.988161e+03,1.157179e+03
2.989125e+03,1.129871e+03
2.990090e+03,1.144401e+03
2.991054e+03,1.159242e+03
2.992018e+03,1.139115e+03
2.992982e+03,1.124896e+03
2.993947e+03,1.134885e+03
2.994911e+03,1.138655e+03
2.995875e+03,1.144768e+03
2.996839e+03,1.168618e+03
2.997803e+03,1.179927e+03
2.998768e+03,1.159802e+03
2.999732e+03,1.142619e+03
3.000696e+03,1.138156e+03
3.001660e+03,1.157866e+03
3.002625e+03,1.171616e+03
3.003589e+03,1.150185e+03
3.004553e+03,1.132410e+03
3.005517e+03,1.137985e+03
3.006481e+03,1.147598e+03
3.007446e+03,1.152733e+03
3.008410e+03,1.132936e+03
3.009374e+03,1.117794e+03
3.010338e+03,1.125943e+03
3.011303e+03,1.139669e+03
3.012267e+03,1.150950e+03
3.013231e+03,1.135605e+03
3.014195e+03,1.113139e+03
3.015160e+03,1.121426e+03
3.016124e+03,1.131012e+03
3.017088e+03,1.130436e+03
3.018052e+03,1.123930e+03
3.019017e+03,1.113648e+03
3.019981e+03,1.115883e+03
3.020945e+03,1.122883e+03
3.021909e+03,1.126799e+03
3.022874e+03,1.137031e+03
3.023838e+03,1.152599e+03
3.024802e+03,1.148029e+03
3.025766e+03,1.132337e+03
3.026730e+03,1.129986e+03
3.027695e+03,1.126093e+03
3.028659e+03,1.114129e+03
3.029623e+03,1.116145e+03
3.030587e+03,1.130094e+03
3.031552e+03,1.137755e+03
3.032516e+03,1.139347e+03
3.033480e+03,1.135919e+03
3.034444e+03,1.132875e+03
3.035408e+03,1.130971e+03
3.036373e+03,1.116451e+03
3.037337e+03,1.099049e+03
3.038301e+03,1.121240e+03
3.039265e+03,1.141416e+03
3.040230e+03,1.127686e+03
3.041194e+03,1.137782e+03
3.042158e+03,1.159083e+03
3.043122e+03,1.132985e+03
3.044087e+03,1.096833e+03
3.045051e+03,1.102931e+03
3.046015e+03,1.109095e+03
3.046979e+03,1.105627e+03
3.047944e+03,1.118210e+03
3.048908e+03,1.134810e+03
3.049872e+03,1.135428e+03
3.050836e+03,1.130015e+03
3.051801e+03,1.123882e+03
3.052765e+03,1.118832e+03
3.053729e+03,1.114262e+03
3.054693e+03,1.117502e+03
3.055657e+03,1.110024e+03
3.056622e+03,1.076103e+03
3.057586e+03,1.076238e+03
3.058550e+03,1.127373e+03
3.059514e+03,1.122207e+03
3.060479e+03,1.094401e+03
3.061443e+03,1.102609e+03
3.062407e+03,1.114681e+03
3.063371e+03,1.119839e+03
3.064335e+03,1.104753e+03
3.065300e+03,1.080107e+03
3.066264e+03,1.091928e+03
3.067228e+03,1.107901e+03
3.068192e+03,1.106127e+03
3.069157e+03,1.106341e+03
3.070121e+03,1.111066e+03
3.071085e+03,1.121646e+03
3.072049e+03,1.130257e+03
3.073014e+03,1.126253e+03
3.073978e+03,1.112457e+03
3.074942e+03,1.089444e+03
3.075906e+03,1.081901e+03
3.076871e+03,1.087616e+03
3.077835e+03,1.103072e+03
3.078799e+03,1.111857e+03
3.079763e+03,1.102581e+03
3.080728e+03,1.081985e+03
3.081692e+03,1.060652e+03
3.082656e+03,1.067256e+03
3.083620e+03,1.079096e+03
3.084584e+03,1.082820e+03
3.085549e+03,1.090901e+03
3.086513e+03,1.106162e+03
3.087477e+03,1.107828e+03
3.088441e+03,1.102564e+03
3.089406e+03,1.098025e+03
3.090370e+03,1.099764e+03
3.091334e+03,1.106657e+03
3.092298e+03,1.099897e+03
3.093262e+03,1.090503e+03
3.094227e+03,1.110236e+03
3.095191e+03,1.121751e+03
3.096155e+03,1.111216e+03
3.097119e+03,1.100842e+03
3.098084e+03,1.094036e+03
3.099048e+03,1.089853e+03
3.100012e+03,1.094005e+03
3.100976e+03,1.115922e+03
3.101941e+03,1.125211e+03
3.102905e+03,1.116371e+03
3.103869e+03,1.081104e+03
3.104833e+03,1.056773e+03
3.105798e+03,1.066287e+03
3.106762e+03,1.066848e+03
3.107726e+03,1.052419e+03
3.108690e+03,1.083207e+03
3.109655e+03,1.116973e+03
3.110619e+03,1.094416e+03
3.111583e+03,1.078106e+03
3.112547e+03,1.078554e+03
3.113511e+03,1.078532e+03
3.114476e+03,1.081648e+03
3.115440e+03,1.110451e+03
3.116404e+03,1.127642e+03
3.117368e+03,1.118505e+03
3.118333e+03,1.103344e+03
3.119297e+03,1.092679e+03
3.120261e+03,1.102762e+03
3.121225e+03,1.112510e+03
3.122189e+03,1.109860e+03
3.123154e+03,1.097682e+03
3.124118e+03,1.082240e+03
3.125082e+03,1.087486e+03
3.126046e+03,1.105892e+03
3.127011e+03,1.132362e+03
3.127975e+03,1.119793e+03
3.128939e+03,1.081690e+03
3.129903e+03,1.096251e+03
3.130868e+03,1.120024e+03
3.131832e+03,1.113014e+03
3.132796e+03,1.113129e+03
3.133760e+03,1.118188e+03
3.134725e+03,1.099164e+03
3.135689e+03,1.081370e+03
3.136653e+03,1.089283e+03
3.137617e+03,1.096202e+03
3.138582e+03,1.095213e+03
3.139546e+03,1.117514e+03
3.140510e+03,1.131762e+03
3.141474e+03,1.103045e+03
3.142438e+03,1.085770e+03
3.143403e+03,1.089107e+03
3.144367e+03,1.105588e+03
3.145331e+03,1.121311e+03
3.146295e+03,1.112314e+03
3.147260e+03,1.101057e+03
3.148224e+03,1.090782e+03
3.149188e+03,1.083924e+03
3.150152e+03,1.082373e+03
3.151116e+03,1.088265e+03
3.152081e+03,1.088047e+03
3.153045e+03,1.073417e+03
3.154009e+03,1.078469e+03
3.154973e+03,1.095835e+03
3.155938e+03,1.108490e+03
3.156902e+03,1.106500e+03
3.157866e+03,1.089332e+03
3.158830e+03,1.098640e+03
3.159795e+03,1.118236e+03
3.160759e+03,1.081910e+03
3.161723e+03,1.057537e+03
3.162687e+03,1.097460e+03
3.163652e+03,1.111909e+03
3.164616e+03,1.113763e+03
3.165580e+03,1.132033e+03
3.166544e+03,1.131543e+03
3.167509e+03,1.102021e+03
3.168473e+03,1.093605e+03
3.169437e+03,1.102753e+03
3.170401e+03,1.101848e+03
3.171365e+03,1.100728e+03
3.172330e+03,1.104484e+03
3.173294e+03,1.105583e+03
3.174258e+03,1.107135e+03
3.175222e+03,1.118484e+03
3.176187e+03,1.119430e+03
3.177151e+03,1.098831e+03
3.178115e+03,1.063660e+03
3.179079e+03,1.029281e+03
3.180043e+03,1.030690e+03
3.181008e+03,1.056820e+03
3.181972e+03,1.099320e+03
3.182936e+03,1.119554e+03
3.183900e+03,1.117734e+03
3.184865e+03,1.090777e+03
3.185829e+03,1.072483e+03
3.186793e+03,1.097584e+03
3.187757e+03,1.106835e+03
3.188722e+03,1.102981e+03
3.189686e+03,1.090678e+03
3.190650e+03,1.101304e+03
3.191614e+03,1.140718e+03
3.192579e+03,1.128058e+03
3.193543e+03,1.078883e+03
3.194507e+03,1.045208e+03
3.195471e+03,1.038484e+03
3.196436e+03,1.066402e+03
3.197400e+03,1.085165e+03
3.198364e+03,1.093564e+03
3.199328e+03,1.096131e+03
3.200292e+03,1.105075e+03
3.201257e+03,0.000000e+00
3.202221e+03,0.000000e+00
3.203185e+03,0.000000e+00
3.204149e+03,0.000000e+00
3.205114e+03,0.000000e+00
3.206078e+03,0.000000e+00
3.207042e+03,0.000000e+00
3.208006e+03,0.000000e+00
3.208970e+03,0.000000e+00
3.209935e+03,0.000000e+00
3.210899e+03,0.000000e+00
3.211863e+03,0.000000e+00
3.212827e+03,0.000000e+00
3.213792e+03,0.000000e+00
3.214756e+03,0.000000e+00
3.215720e+03,0.000000e+00
3.216684e+03,0.000000e+00
3.217649e+03,0.000000e+00
3.218613e+03,0.000000e+00
3.219577e+03,0.000000e+00
3.220541e+03,0.000000e+00
3.221506e+03,0.000000e+00
3.222470e+03,0.000000e+00
3.223434e+03,0.000000e+00
3.224398e+03,0.000000e+00
3.225363e+03,0.000000e+00
3.226327e+03,0.000000e+00
3.227291e+03,0.000000e+00
3.228255e+03,0.000000e+00
3.229219e+03,0.000000e+00
3.230184e+03,0.000000e+00
3.231148e+03,0.000000e+00
3.232112e+03,0.000000e+00
3.233076e+03,0.000000e+00
3.234041e+03,0.000000e+00
3.235005e+03,0.000000e+00
3.235969e+03,0.000000e+00
3.236933e+03,0.000000e+00
3.237897e+03,0.000000e+00
3.238862e+03,0.000000e+00
3.239826e+03,0.000000e+00
3.240790e+03,0.000000e+00
3.241754e+03,0.000000e+00
3.242719e+03,0.000000e+00
3.243683e+03,0.000000e+00
3.244647e+03,0.000000e+00
3.245611e+03,0.000000e+00
3.246576e+03,0.000000e+00
3.247540e+03,0.000000e+00
3.248504e+03,0.000000e+00
3.249468e+03,0.000000e+00
3.250433e+03,0.000000e+00
3.251397e+03,0.000000e+00
3.252361e+03,0.000000e+00
3.253325e+03,0.000000e+00
3.254290e+03,0.000000e+00
3.255254e+03,0.000000e+00
3.256218e+03,0.000000e+00
3.257182e+03,0.000000e+00
3.258146e+03,0.000000e+00
3.259111e+03,0.000000e+00
3.260075e+03,0.000000e+00
3.261039e+03,0.000000e+00
3.262003e+03,0.000000e+00
3.262968e+03,0.000000e+00
3.263932e+03,0.000000e+00
3.264896e+03,0.000000e+00
3.265860e+03,0.000000e+00
3.266824e+03,0.000000e+00
3.267789e+03,0.000000e+00
3.268753e+03,0.000000e+00
3.269717e+03,0.000000e+00
3.270681e+03,0.000000e+00
3.271646e+03,0.000000e+00
3.272610e+03,0.000000e+00
3.273574e+03,0.000000e+00
3.274538e+03,0.000000e+00
3.275503e+03,0.000000e+00
3.276467e+03,0.000000e+00
3.277431e+03,0.000000e+00
3.278395e+03,0.000000e+00
3.279360e+03,0.000000e+00
3.280324e+03,0.000000e+00
3.281288e+03,0.000000e+00
3.282252e+03,0.000000e+00
3.283217e+03,0.000000e+00
3.284181e+03,0.000000e+00
3.285145e+03,0.000000e+00
3.286109e+03,0.000000e+00
3.287073e+03,0.000000e+00
3.288038e+03,0.000000e+00
3.289002e+03,0.000000e+00
3.289966e+03,0.000000e+00
3.290930e+03,0.000000e+00
3.291895e+03,0.000000e+00
3.292859e+03,0.000000e+00
3.293823e+03,0.000000e+00
3.294787e+03,0.000000e+00
3.295751e+03,0.000000e+00
3.296716e+03,0.000000e+00
3.297680e+03,0.000000e+00
3.298644e+03,0.000000e+00
3.299608e+03,0.000000e+00
3.300573e+03,0.000000e+00
3.301537e+03,0.000000e+00
3.302501e+03,0.000000e+00
3.303465e+03,0.000000e+00
3.304430e+03,0.000000e+00
3.305394e+03,0.000000e+00
3.306358e+03,0.000000e+00
3.307322e+03,0.000000e+00
3.308287e+03,0.000000e+00
3.309251e+03,0.000000e+00
3.310215e+03,0.000000e+00
3.311179e+03,0.000000e+00
3.312144e+03,0.000000e+00
3.313108e+03,0.000000e+00
3.314072e+03,0.000000e+00
3.315036e+03,0.000000e+00
3.316000e+03,0.000000e+00
3.316965e+03,0.000000e+00
3.317929e+03,0.000000e+00
3.318893e+03,0.000000e+00
3.319857e+03,0.000000e+00
3.320822e+03,0.000000e+00
3.321786e+03,0.000000e+00
3.322750e+03,0.000000e+00
3.323714e+03,0.000000e+00
3.324678e+03,0.000000e+00
3.325643e+03,0.000000e+00
3.326607e+03,0.000000e+00
3.327571e+03,0.000000e+00
3.328535e+03,0.000000e+00
3.329500e+03,0.000000e+00
3.330464e+03,0.000000e+00
3.331428e+03,0.000000e+00
3.332392e+03,0.000000e+00
3.333357e+03,0.000000e+00
3.334321e+03,0.000000e+00
3.335285e+03,0.000000e+00
3.336249e+03,0.000000e+00
3.337214e+03,0.000000e+00
3.338178e+03,0.000000e+00
3.339142e+03,0.000000e+00
3.340106e+03,0.000000e+00
3.341071e+03,0.000000e+00
3.342035e+03,0.000000e+00
3.342999e+03,0.000000e+00
3.343963e+03,0.000000e+00
3.344927e+03,0.000000e+00
3.345892e+03,0.000000e+00
3.346856e+03,0.000000e+00
3.347820e+03,0.000000e+00
3.348784e+03,0.000000e+00
3.349749e+03,0.000000e+00
3.350713e+03,0.000000e+00
3.351677e+03,0.000000e+00
3.352641e+03,0.000000e+00
3.353605e+03,0.000000e+00
3.354570e+03,0.000000e+00
3.355534e+03,0.000000e+00
3.356498e+03,0.000000e+00
3.357462e+03,0.000000e+00
3.358427e+03,0.000000e+00
3.359391e+03,0.000000e+00
3.360355e+03,0.000000e+00
3.361319e+03,0.000000e+00
3.362284e+03,0.000000e+00
3.363248e+03,0.000000e+00
3.364212e+03,0.000000e+00
3.365176e+03,0.000000e+00
3.366141e+03,0.000000e+00
3.367105e+03,0.000000e+00
3.368069e+03,0.000000e+00
3.369033e+03,0.000000e+00
3.369998e+03,0.000000e+00
3.370962e+03,0.000000e+00
3.371926e+03,0.000000e+00
3.372890e+03,0.000000e+00
3.373854e+03,0.000000e+00
3.374819e+03,0.000000e+00
3.375783e+03,0.000000e+00
3.376747e+03,0.000000e+00
3.377711e+03,0.000000e+00
3.378676e+03,0.000000e+00
3.379640e+03,0.000000e+00
3.380604e+03,0.000000e+00
3.381568e+03,0.000000e+00
3.382532e+03,0.000000e+00
3.383497e+03,0.000000e+00
3.384461e+03,0.000000e+00
3.385425e+03,0.000000e+00
3.386389e+03,0.000000e+00
3.387354e+03,0.000000e+00
3.388318e+03,0.000000e+00
3.389282e+03,0.000000e+00
3.390246e+03,0.000000e+00
3.391211e+03,0.000000e+00
3.392175e+03,0.000000e+00
3.393139e+03,0.000000e+00
3.394103e+03,0.000000e+00
3.395068e+03,0.000000e+00
3.396032e+03,0.000000e+00
3.396996e+03,0.000000e+00
3.397960e+03,0.000000e+00
3.398925e+03,0.000000e+00
3.399889e+03,0.000000e+00
3.400853e+03,0.000000e+00
3.401817e+03,0.000000e+00
3.402781e+03,0.000000e+00
3.403746e+03,0.000000e+00
3.404710e+03,0.000000e+00
3.405674e+03,0.000000e+00
3.406638e+03,0.000000e+00
3.407603e+03,0.000000e+00
3.408567e+03,0.000000e+00
3.409531e+03,0.000000e+00
3.410495e+03,0.000000e+00
3.411459e+03,0.000000e+00
3.412424e+03,0.000000e+00
3.413388e+03,0.000000e+00
3.414352e+03,0.000000e+00
3.415316e+03,0.000000e+00
3.416281e+03,0.000000e+00
3.417245e+03,0.000000e+00
3.418209e+03,0.000000e+00
3.419173e+03,0.000000e+00
3.420138e+03,0.000000e+00
3.421102e+03,0.000000e+00
3.422066e+03,0.000000e+00
3.423030e+03,0.000000e+00
3.423995e+03,0.000000e+00
3.424959e+03,0.000000e+00
3.425923e+03,0.000000e+00
3.426887e+03,0.000000e+00
3.427852e+03,0.000000e+00
3.428816e+03,0.000000e+00
3.429780e+03,0.000000e+00
3.430744e+03,0.000000e+00
3.431708e+03,0.000000e+00
3.432673e+03,0.000000e+00
3.433637e+03,0.000000e+00
3.434601e+03,0.000000e+00
3.435565e+03,0.000000e+00
3.436530e+03,0.000000e+00
3.437494e+03,0.000000e+00
3.438458e+03,0.000000e+00
3.439422e+03,0.000000e+00
3.440386e+03,0.000000e+00
3.441351e+03,0.000000e+00
3.442315e+03,0.000000e+00
3.443279e+03,0.000000e+00
3.444243e+03,0.000000e+00
3.445208e+03,0.000000e+00
3.446172e+03,0.000000e+00
3.447136e+03,0.000000e+00
3.448100e+03,0.000000e+00
3.449065e+03,0.000000e+00
3.450029e+03,0.000000e+00
3.450993e+03,0.000000e+00
3.451957e+03,0.000000e+00
3.452922e+03,0.000000e+00
3.453886e+03,0.000000e+00
3.454850e+03,0.000000e+00
3.455814e+03,0.000000e+00
3.456779e+03,0.000000e+00
3.457743e+03,0.000000e+00
3.458707e+03,0.000000e+00
3.459671e+03,0.000000e+00
3.460635e+03,0.000000e+00
3.461600e+03,0.000000e+00
3.462564e+03,0.000000e+00
3.463528e+03,0.000000e+00
3.464492e+03,0.000000e+00
3.465457e+03,0.000000e+00
3.466421e+03,0.000000e+00
3.467385e+03,0.000000e+00
3.468349e+03,0.000000e+00
3.469313e+03,0.000000e+00
3.470278e+03,0.000000e+00
3.471242e+03,0.000000e+00
3.472206e+03,0.000000e+00
3.473170e+03,0.000000e+00
3.474135e+03,0.000000e+00
3.475099e+03,0.000000e+00
3.476063e+03,0.000000e+00
3.477027e+03,0.000000e+00
3.477992e+03,0.000000e+00
3.478956e+03,0.000000e+00
3.479920e+03,0.000000e+00
3.480884e+03,0.000000e+00
3.481849e+03,0.000000e+00
3.482813e+03,0.000000e+00
3.483777e+03,0.000000e+00
3.484741e+03,0.000000e+00
3.485706e+03,0.000000e+00
3.486670e+03,0.000000e+00
3.487634e+03,0.000000e+00
3.488598e+03,0.000000e+00
3.489563e+03,0.000000e+00
3.490527e+03,0.000000e+00
3.491491e+03,0.000000e+00
3.492455e+03,0.000000e+00
3.493419e+03,0.000000e+00
3.494384e+03,0.000000e+00
3.495348e+03,0.000000e+00
3.496312e+03,0.000000e+00
3.497276e+03,0.000000e+00
3.498240e+03,0.000000e+00
3.499205e+03,0.000000e+00
3.500169e+03,0.000000e+00
