9.931763e+01,0.000000e+00
1.002819e+02,0.000000e+00
1.012461e+02,0.000000e+00
1.022103e+02,0.000000e+00
1.031746e+02,0.000000e+00
1.041388e+02,0.000000e+00
1.051030e+02,0.000000e+00
1.060673e+02,0.000000e+00
1.070315e+02,0.000000e+00
1.079957e+02,0.000000e+00
1.089600e+02,0.000000e+00
1.099242e+02,0.000000e+00
1.108884e+02,0.000000e+00
1.118527e+02,0.000000e+00
1.128169e+02,0.000000e+00
1.137811e+02,0.000000e+00
1.147454e+02,0.000000e+00
1.157096e+02,0.000000e+00
1.166738e+02,0.000000e+00
1.176381e+02,0.000000e+00
1.186023e+02,0.000000e+00
1.195665e+02,0.000000e+00
1.205308e+02,0.000000e+00
1.214950e+02,0.000000e+00
1.224592e+02,0.000000e+00
1.234235e+02,0.000000e+00
1.243877e+02,0.000000e+00
1.253519e+02,0.000000e+00
1.263162e+02,0.000000e+00
1.272804e+02,0.000000e+00
1.282446e+02,0.000000e+00
1.292089e+02,0.000000e+00
1.301731e+02,0.000000e+00
1.311373e+02,0.000000e+00
1.321016e+02,0.000000e+00
1.330658e+02,0.000000e+00
1.340300e+02,0.000000e+00
1.349943e+02,0.000000e+00
1.359585e+02,0.000000e+00
1.369227e+02,0.000000e+00
1.378870e+02,0.000000e+00
1.388512e+02,0.000000e+00
1.398154e+02,0.000000e+00
1.407797e+02,0.000000e+00
1.417439e+02,0.000000e+00
1.427081e+02,0.000000e+00
1.436724e+02,0.000000e+00
1.446366e+02,0.000000e+00
1.456008e+02,0.000000e+00
1.465651e+02,0.000000e+00
1.475293e+02,0.000000e+00
1.484935e+02,0.000000e+00
1.494578e+02,0.000000e+00
1.504220e+02,0.000000e+00
1.513862e+02,0.000000e+00
1.523505e+02,0.000000e+00
1.533147e+02,0.000000e+00
1.542789e+02,0.000000e+00
1.552432e+02,0.000000e+00
1.562074e+02,0.000000e+00
1.571716e+02,0.000000e+00
1.581359e+02,0.000000e+00
1.591001e+02,0.000000e+00
1.600643e+02,0.000000e+00
1.610286e+02,0.000000e+00
1.619928e+02,0.000000e+00
1.629570e+02,0.000000e+00
1.639213e+02,0.000000e+00
1.648855e+02,0.000000e+00
1.658497e+02,0.000000e+00
1.668140e+02,0.000000e+00
1.677782e+02,0.000000e+00
1.687424e+02,0.000000e+00
1.697067e+02,0.000000e+00
1.706709e+02,0.000000e+00
1.716351e+02,0.000000e+00
1.725994e+02,0.000000e+00
1.735636e+02,0.000000e+00
1.745278e+02,0.000000e+00
1.754921e+02,0.000000e+00
1.764563e+02,0.000000e+00
1.774205e+02,0.000000e+00
1.783848e+02,0.000000e+00
1.793490e+02,0.000000e+00
1.803132e+02,0.000000e+00
1.812775e+02,0.000000e+00
1.822417e+02,0.000000e+00
1.832059e+02,0.000000e+00
1.841702e+02,0.000000e+00
1.851344e+02,0.000000e+00
1.860986e+02,0.000000e+00
1.870629e+02,0.000000e+00
1.880271e+02,0.000000e+00
1.889913e+02,0.000000e+00
1.899556e+02,0.000000e+00
1.909198e+02,0.000000e+00
1.918840e+02,0.000000e+00
1.928483e+02,0.000000e+00
1.938125e+02,0.000000e+00
1.947767e+02,0.000000e+00
1.957410e+02,0.000000e+00
1.967052e+02,0.000000e+00
1.976694e+02,0.000000e+00
1.986337e+02,0.000000e+00
1.995979e+02,7.028456e+03
2.005621e+02,7.028762e+03
2.015264e+02,7.032432e+03
2.024906e+02,7.040000e+03
2.034548e+02,7.050767e+03
2.044191e+02,7.065111e+03
2.053833e+02,7.080844e+03
2.063475e+02,7.094598e+03
2.073118e+02,7.103482e+03
2.082760e+02,7.106458e+03
2.092402e+02,7.107470e+03
2.102045e+02,7.108850e+03
2.111687e+02,7.112212e+03
2.121329e+02,7.117963e+03
2.130972e+02,7.125161e+03
2.140614e+02,7.131813e+03
2.150256e+02,7.135764e+03
2.159899e+02,7.135874e+03
2.169541e+02,7.136581e+03
2.179183e+02,7.140589e+03
2.188826e+02,7.146846e+03
2.198468e+02,7.154094e+03
2.208110e+02,7.162391e+03
2.217753e+02,7.170706e+03
2.227395e+02,7.173835e+03
2.237037e+02,7.170928e+03
2.246680e+02,7.166994e+03
2.256322e+02,7.165075e+03
2.265964e+02,7.168354e+03
2.275607e+02,7.175575e+03
2.285249e+02,7.184347e+03
2.294892e+02,7.194464e+03
2.304534e+02,7.208206e+03
2.314176e+02,7.227380e+03
2.323819e+02,7.248977e+03
2.333461e+02,7.264320e+03
2.343103e+02,7.266920e+03
2.352746e+02,7.263697e+03
2.362388e+02,7.266635e+03
2.372030e+02,7.278722e+03
2.381673e+02,7.291477e+03
2.391315e+02,7.293667e+03
2.400957e+02,7.280790e+03
2.410600e+02,7.270967e+03
2.420242e+02,7.276144e+03
2.429884e+02,7.294479e+03
2.439527e+02,7.314122e+03
2.449169e+02,7.324729e+03
2.458811e+02,7.323412e+03
2.468454e+02,7.325087e+03
2.478096e+02,7.332458e+03
2.487738e+02,7.341025e+03
2.497381e+02,7.347524e+03
2.507023e+02,7.351446e+03
2.516665e+02,7.354434e+03
2.526308e+02,7.358552e+03
2.535950e+02,7.362806e+03
2.545592e+02,7.362862e+03
2.555235e+02,7.355963e+03
2.564877e+02,7.347577e+03
2.574519e+02,7.344998e+03
2.584161e+02,7.353826e+03
2.593804e+02,7.374126e+03
2.603446e+02,7.394896e+03
2.613088e+02,7.413656e+03
2.622731e+02,7.430788e+03
2.632373e+02,7.446528e+03
2.642015e+02,7.459090e+03
2.651658e+02,7.467074e+03
2.661300e+02,7.469111e+03
2.670942e+02,7.465601e+03
2.680585e+02,7.468111e+03
2.690227e+02,7.487018e+03
2.699869e+02,7.508339e+03
2.709512e+02,7.520987e+03
2.719154e+02,7.521528e+03
2.728796e+02,7.517777e+03
2.738439e+02,7.519909e+03
2.748081e+02,7.530519e+03
2.757723e+02,7.546739e+03
2.767366e+02,7.564018e+03
2.777008e+02,7.578424e+03
2.786650e+02,7.585900e+03
2.796293e+02,7.584750e+03
2.805935e+02,7.579179e+03
2.815577e+02,7.573694e+03
2.825220e+02,7.567779e+03
2.834862e+02,7.561703e+03
2.844504e+02,7.557998e+03
2.854147e+02,7.561330e+03
2.863789e+02,7.563265e+03
2.873431e+02,7.563146e+03
2.883074e+02,7.562544e+03
2.892716e+02,7.561631e+03
2.902358e+02,7.558500e+03
2.912001e+02,7.552153e+03
2.921643e+02,7.549152e+03
2.931285e+02,7.552081e+03
2.940928e+02,7.558552e+03
2.950570e+02,7.568112e+03
2.960212e+02,7.578683e+03
2.969855e+02,7.587179e+03
2.979497e+02,7.590780e+03
2.989139e+02,7.587557e+03
2.998782e+02,7.588777e+03
3.008424e+02,7.604308e+03
3.018066e+02,7.623603e+03
3.027709e+02,7.635989e+03
3.037351e+02,7.635636e+03
3.046993e+02,7.627139e+03
3.056636e+02,7.620006e+03
3.066278e+02,7.615307e+03
3.075920e+02,7.613436e+03
3.085563e+02,7.617461e+03
3.095205e+02,7.626162e+03
3.104847e+02,7.632897e+03
3.114490e+02,7.625447e+03
3.124132e+02,7.611956e+03
3.133774e+02,7.613894e+03
3.143417e+02,7.638247e+03
3.153059e+02,7.666873e+03
3.162701e+02,7.678708e+03
3.172344e+02,7.672708e+03
3.181986e+02,7.664388e+03
3.191628e+02,7.655274e+03
3.201271e+02,7.647627e+03
3.210913e+02,7.645243e+03
3.220555e+02,7.649516e+03
3.230198e+02,7.659308e+03
3.239840e+02,7.670951e+03
3.249482e+02,7.691423e+03
3.259125e+02,7.705964e+03
3.268767e+02,7.706029e+03
3.278409e+02,7.695557e+03
3.288052e+02,7.685292e+03
3.297694e+02,7.685538e+03
3.307336e+02,7.698937e+03
3.316979e+02,7.707422e+03
3.326621e+02,7.706339e+03
3.336263e+02,7.701642e+03
3.345906e+02,7.696246e+03
3.355548e+02,7.692923e+03
3.365190e+02,7.693684e+03
3.374833e+02,7.700654e+03
3.384475e+02,7.713971e+03
3.394117e+02,7.726079e+03
3.403760e+02,7.730799e+03
3.413402e+02,7.730665e+03
3.423044e+02,7.731308e+03
3.432687e+02,7.732402e+03
3.442329e+02,7.734552e+03
3.451971e+02,7.736835e+03
3.461614e+02,7.737251e+03
3.471256e+02,7.735708e+03
3.480898e+02,7.735361e+03
3.490541e+02,7.739742e+03
3.500183e+02,7.742231e+03
3.509825e+02,7.744772e+03
3.519468e+02,7.748075e+03
3.529110e+02,7.750114e+03
3.538752e+02,7.748974e+03
3.548395e+02,7.746089e+03
3.558037e+02,7.746401e+03
3.567680e+02,7.752022e+03
3.577322e+02,7.758220e+03
3.586964e+02,7.767708e+03
3.596607e+02,7.779712e+03
3.606249e+02,7.791294e+03
3.615891e+02,7.798609e+03
3.625534e+02,7.799618e+03
3.635176e+02,7.794761e+03
3.644818e+02,7.785112e+03
3.654461e+02,7.775075e+03
3.664103e+02,7.769377e+03
3.673745e+02,7.770996e+03
3.683388e+02,7.778617e+03
3.693030e+02,7.790501e+03
3.702672e+02,7.803068e+03
3.712315e+02,7.812676e+03
3.721957e+02,7.817768e+03
3.731599e+02,7.819352e+03
3.741242e+02,7.821777e+03
3.750884e+02,7.837083e+03
3.760526e+02,7.846168e+03
3.770169e+02,7.839307e+03
3.779811e+02,7.825924e+03
3.789453e+02,7.817449e+03
3.799096e+02,7.819172e+03
3.808738e+02,7.827709e+03
3.818380e+02,7.833048e+03
3.828023e+02,7.839937e+03
3.837665e+02,7.843914e+03
3.847307e+02,7.839305e+03
3.856950e+02,7.829469e+03
3.866592e+02,7.822121e+03
3.876234e+02,7.820978e+03
3.885877e+02,7.824926e+03
3.895519e+02,7.832383e+03
3.905161e+02,7.844482e+03
3.914804e+02,7.855078e+03
3.924446e+02,7.857123e+03
3.934088e+02,7.850430e+03
3.943731e+02,7.846034e+03
3.953373e+02,7.850245e+03
3.963015e+02,7.857043e+03
3.972658e+02,7.856474e+03
3.982300e+02,7.845172e+03
3.991942e+02,7.830915e+03
4.001585e+02,7.829010e+03
4.011227e+02,7.847463e+03
4.020869e+02,7.864097e+03
4.030512e+02,7.873481e+03
4.040154e+02,7.876424e+03
4.049796e+02,7.876852e+03
4.059439e+02,7.876005e+03
4.069081e+02,7.874181e+03
4.078723e+02,7.873189e+03
4.088366e+02,7.871318e+03
4.098008e+02,7.867362e+03
4.107650e+02,7.863860e+03
4.117293e+02,7.861696e+03
4.126935e+02,7.862727e+03
4.136577e+02,7.870319e+03
4.146220e+02,7.880502e+03
4.155862e+02,7.888255e+03
4.165504e+02,7.892883e+03
4.175147e+02,7.894526e+03
4.184789e+02,7.892822e+03
4.194431e+02,7.879025e+03
4.204074e+02,7.871985e+03
4.213716e+02,7.876587e+03
4.223358e+02,7.886118e+03
4.233001e+02,7.894740e+03
4.242643e+02,7.901353e+03
4.252285e+02,7.904589e+03
4.261928e+02,7.897186e+03
4.271570e+02,7.871713e+03
4.281212e+02,7.854370e+03
4.290855e+02,7.862702e+03
4.300497e+02,7.885834e+03
4.310139e+02,7.901234e+03
4.319782e+02,7.897554e+03
4.329424e+02,7.886916e+03
4.339066e+02,7.881334e+03
4.348709e+02,7.880814e+03
4.358351e+02,7.882113e+03
4.367993e+02,7.882940e+03
4.377636e+02,7.884387e+03
4.387278e+02,7.883596e+03
4.396920e+02,7.878010e+03
4.406563e+02,7.873902e+03
4.416205e+02,7.876289e+03
4.425847e+02,7.885808e+03
4.435490e+02,7.896198e+03
4.445132e+02,7.897876e+03
4.454774e+02,7.889026e+03
4.464417e+02,7.886453e+03
4.474059e+02,7.899104e+03
4.483701e+02,7.915759e+03
4.493344e+02,7.923839e+03
4.502986e+02,7.917382e+03
4.512628e+02,7.909009e+03
4.522271e+02,7.907106e+03
4.531913e+02,7.910704e+03
4.541555e+02,7.915772e+03
4.551198e+02,7.920471e+03
4.560840e+02,7.925188e+03
4.570482e+02,7.921636e+03
4.580125e+02,7.901791e+03
4.589767e+02,7.888308e+03
4.599409e+02,7.890470e+03
4.609052e+02,7.903215e+03
4.618694e+02,7.913297e+03
4.628336e+02,7.908229e+03
4.637979e+02,7.890529e+03
4.647621e+02,7.880237e+03
4.657263e+02,7.883549e+03
4.666906e+02,7.894241e+03
4.676548e+02,7.903237e+03
4.686190e+02,7.909436e+03
4.695833e+02,7.912976e+03
4.705475e+02,7.911008e+03
4.715117e+02,7.905981e+03
4.724760e+02,7.902812e+03
4.734402e+02,7.903869e+03
4.744044e+02,7.906966e+03
4.753687e+02,7.905978e+03
4.763329e+02,7.897828e+03
4.772971e+02,7.890588e+03
4.782614e+02,7.885900e+03
4.792256e+02,7.883217e+03
4.801898e+02,7.881023e+03
4.811541e+02,7.876296e+03
4.821183e+02,7.871659e+03
4.830826e+02,7.871934e+03
4.840468e+02,7.876752e+03
4.850110e+02,7.881000e+03
4.859753e+02,7.882381e+03
4.869395e+02,7.880183e+03
4.879037e+02,7.880009e+03
4.888680e+02,7.885561e+03
4.898322e+02,7.891685e+03
4.907964e+02,7.896819e+03
4.917607e+02,7.900893e+03
4.927249e+02,7.903442e+03
4.936891e+02,7.902422e+03
4.946534e+02,7.897194e+03
4.956176e+02,7.895047e+03
4.965818e+02,7.898689e+03
4.975461e+02,7.904094e+03
4.985103e+02,7.907096e+03
4.994745e+02,7.905920e+03
5.004388e+02,7.901717e+03
5.014030e+02,7.894282e+03
5.023672e+02,7.886948e+03
5.033315e+02,7.884477e+03
5.042957e+02,7.888147e+03
5.052599e+02,7.894453e+03
5.062242e+02,7.898260e+03
5.071884e+02,7.902590e+03
5.081526e+02,7.902771e+03
5.091169e+02,7.895478e+03
5.100811e+02,7.887294e+03
5.110453e+02,7.884450e+03
5.120095e+02,7.892933e+03
5.129738e+02,7.905698e+03
5.139380e+02,7.913240e+03
5.149022e+02,7.915904e+03
5.158665e+02,7.918659e+03
5.168307e+02,7.922381e+03
5.177949e+02,7.922976e+03
5.187592e+02,7.914609e+03
5.197234e+02,7.899490e+03
5.206876e+02,7.886581e+03
5.216519e+02,7.878625e+03
5.226161e+02,7.876262e+03
5.235803e+02,7.878701e+03
5.245446e+02,7.888666e+03
5.255088e+02,7.904172e+03
5.264730e+02,7.910376e+03
5.274373e+02,7.902496e+03
5.284015e+02,7.892789e+03
5.293657e+02,7.891569e+03
5.303300e+02,7.900257e+03
5.312942e+02,7.905484e+03
5.322584e+02,7.907458e+03
5.332227e+02,7.909031e+03
5.341869e+02,7.909784e+03
5.351511e+02,7.908436e+03
5.361154e+02,7.906281e+03
5.370796e+02,7.906031e+03
5.380438e+02,7.908367e+03
5.390081e+02,7.914799e+03
5.399723e+02,7.929421e+03
5.409365e+02,7.947591e+03
5.419008e+02,7.963961e+03
5.428650e+02,7.979020e+03
5.438292e+02,7.984500e+03
5.447935e+02,7.967237e+03
5.457577e+02,7.937820e+03
5.467219e+02,7.919552e+03
5.476862e+02,7.923127e+03
5.486504e+02,7.940963e+03
5.496146e+02,7.950962e+03
5.505789e+02,7.947483e+03
5.515431e+02,7.943807e+03
5.525073e+02,7.946824e+03
5.534716e+02,7.955736e+03
5.544358e+02,7.965169e+03
5.554000e+02,7.968981e+03
5.563643e+02,7.970569e+03
5.573285e+02,7.975628e+03
5.582927e+02,7.982206e+03
5.592570e+02,7.982055e+03
5.602212e+02,7.969299e+03
5.611854e+02,7.943487e+03
5.621497e+02,7.927285e+03
5.631139e+02,7.933159e+03
5.640781e+02,7.933328e+03
5.650424e+02,7.919969e+03
5.660066e+02,7.896266e+03
5.669708e+02,7.872414e+03
5.679351e+02,7.854259e+03
5.688993e+02,7.841179e+03
5.698635e+02,7.831005e+03
5.708278e+02,7.824190e+03
5.717920e+02,7.823467e+03
5.727562e+02,7.830398e+03
5.737205e+02,7.846585e+03
5.746847e+02,7.858179e+03
5.756489e+02,7.861814e+03
5.766132e+02,7.862090e+03
5.775774e+02,7.862390e+03
5.785416e+02,7.863404e+03
5.795059e+02,7.863209e+03
5.804701e+02,7.861249e+03
5.814343e+02,7.856976e+03
5.823986e+02,7.847086e+03
5.833628e+02,7.829722e+03
5.843270e+02,7.812688e+03
5.852913e+02,7.806007e+03
5.862555e+02,7.818611e+03
5.872197e+02,7.828600e+03
5.881840e+02,7.833830e+03
5.891482e+02,7.836266e+03
5.901124e+02,7.837690e+03
5.910767e+02,7.838553e+03
5.920409e+02,7.838818e+03
5.930051e+02,7.836014e+03
5.939694e+02,7.830608e+03
5.949336e+02,7.829671e+03
5.958978e+02,7.837053e+03
5.968621e+02,7.848205e+03
5.978263e+02,7.853213e+03
5.987905e+02,7.847996e+03
5.997548e+02,7.843562e+03
6.007190e+02,7.842592e+03
6.016832e+02,7.843759e+03
6.026475e+02,7.842903e+03
6.036117e+02,7.833439e+03
6.045759e+02,7.825366e+03
6.055402e+02,7.833914e+03
6.065044e+02,7.856074e+03
6.074686e+02,7.875439e+03
6.084329e+02,7.887580e+03
6.093971e+02,7.892936e+03
6.103613e+02,7.889854e+03
6.113256e+02,7.872794e+03
6.122899e+02,7.853558e+03
6.132541e+02,7.831137e+03
6.142183e+02,7.807979e+03
6.151826e+02,7.788550e+03
6.161468e+02,7.778729e+03
6.171110e+02,7.774448e+03
6.180753e+02,7.767896e+03
6.190395e+02,7.758989e+03
6.200037e+02,7.753973e+03
6.209680e+02,7.757308e+03
6.219322e+02,7.769472e+03
6.228964e+02,7.778128e+03
6.238607e+02,7.779061e+03
6.248249e+02,7.779435e+03
6.257891e+02,7.778758e+03
6.267534e+02,7.775700e+03
6.277176e+02,7.771626e+03
6.286818e+02,7.771242e+03
6.296461e+02,7.772069e+03
6.306103e+02,7.770369e+03
6.315745e+02,7.766586e+03
6.325388e+02,7.762563e+03
6.335030e+02,7.758529e+03
6.344672e+02,7.753325e+03
6.354315e+02,7.745562e+03
6.363957e+02,7.728755e+03
6.373599e+02,7.713063e+03
6.383242e+02,7.705938e+03
6.392884e+02,7.707586e+03
6.402526e+02,7.710822e+03
6.412169e+02,7.715500e+03
6.421811e+02,7.718958e+03
6.431453e+02,7.717370e+03
6.441096e+02,7.711131e+03
6.450738e+02,7.705097e+03
6.460380e+02,7.706565e+03
6.470023e+02,7.717483e+03
6.479665e+02,7.723563e+03
6.489307e+02,7.721048e+03
6.498950e+02,7.714510e+03
6.508592e+02,7.704730e+03
6.518234e+02,7.689970e+03
6.527877e+02,7.678878e+03
6.537519e+02,7.673556e+03
6.547161e+02,7.672939e+03
6.556804e+02,7.681285e+03
6.566446e+02,7.697095e+03
6.576088e+02,7.707275e+03
6.585731e+02,7.692692e+03
6.595373e+02,7.658855e+03
6.605015e+02,7.639993e+03
6.614658e+02,7.641908e+03
6.624300e+02,7.652072e+03
6.633942e+02,7.658623e+03
6.643585e+02,7.658971e+03
6.653227e+02,7.661013e+03
6.662869e+02,7.662743e+03
6.672512e+02,7.665316e+03
6.682154e+02,7.672303e+03
6.691796e+02,7.682769e+03
6.701439e+02,7.687022e+03
6.711081e+02,7.674318e+03
6.720723e+02,7.651505e+03
6.730366e+02,7.632481e+03
6.740008e+02,7.620354e+03
6.749650e+02,7.613310e+03
6.759293e+02,7.610729e+03
6.768935e+02,7.617768e+03
6.778577e+02,7.617219e+03
6.788220e+02,7.602100e+03
6.797862e+02,7.588948e+03
6.807504e+02,7.586515e+03
6.817147e+02,7.594838e+03
6.826789e+02,7.603382e+03
6.836431e+02,7.606031e+03
6.846074e+02,7.604969e+03
6.855716e+02,7.606265e+03
6.865358e+02,7.612003e+03
6.875001e+02,7.616225e+03
6.884643e+02,7.609658e+03
6.894285e+02,7.592725e+03
6.903928e+02,7.578267e+03
6.913570e+02,7.565677e+03
6.923212e+02,7.556948e+03
6.932855e+02,7.556290e+03
6.942497e+02,7.574586e+03
6.952139e+02,7.585485e+03
6.961782e+02,7.579089e+03
6.971424e+02,7.569776e+03
6.981066e+02,7.568314e+03
6.990709e+02,7.573911e+03
7.000351e+02,7.573167e+03
7.009993e+02,7.554116e+03
7.019636e+02,7.527350e+03
7.029278e+02,7.513364e+03
7.038920e+02,7.515599e+03
7.048563e+02,7.521294e+03
7.058205e+02,7.515898e+03
7.067847e+02,7.497937e+03
7.077490e+02,7.484463e+03
7.087132e+02,7.479094e+03
7.096774e+02,7.482592e+03
7.106417e+02,7.491444e+03
7.116059e+02,7.507171e+03
7.125701e+02,7.513877e+03
7.135344e+02,7.499161e+03
7.144986e+02,7.481165e+03
7.154628e+02,7.477126e+03
7.164271e+02,7.488338e+03
7.173913e+02,7.500440e+03
7.183555e+02,7.496830e+03
7.193198e+02,7.480889e+03
7.202840e+02,7.473395e+03
7.212482e+02,7.480177e+03
7.222125e+02,7.487974e+03
7.231767e+02,7.479877e+03
7.241409e+02,7.442403e+03
7.251052e+02,7.420638e+03
7.260694e+02,7.428234e+03
7.270336e+02,7.439873e+03
7.279979e+02,7.443561e+03
7.289621e+02,7.437781e+03
7.299263e+02,7.431512e+03
7.308906e+02,7.425962e+03
7.318548e+02,7.421800e+03
7.328190e+02,7.423040e+03
7.337833e+02,7.429244e+03
7.347475e+02,7.432907e+03
7.357117e+02,7.426666e+03
7.366760e+02,7.412765e+03
7.376402e+02,7.401365e+03
7.386044e+02,7.393339e+03
7.395687e+02,7.387617e+03
7.405329e+02,7.381860e+03
7.414971e+02,7.375114e+03
7.424614e+02,7.370280e+03
7.434256e+02,7.374555e+03
7.443898e+02,7.381774e+03
7.453541e+02,7.385226e+03
7.463183e+02,7.381521e+03
7.472825e+02,7.376046e+03
7.482468e+02,7.371936e+03
7.492110e+02,7.368127e+03
7.501752e+02,7.366862e+03
7.511395e+02,7.370462e+03
7.521037e+02,7.376304e+03
7.530679e+02,7.380608e+03
7.540322e+02,7.381211e+03
7.549964e+02,7.374324e+03
7.559606e+02,7.358987e+03
7.569249e+02,7.345600e+03
7.578891e+02,7.341725e+03
7.588533e+02,7.348799e+03
7.598176e+02,7.353510e+03
7.607818e+02,7.344663e+03
7.617460e+02,7.332758e+03
7.627103e+02,7.324079e+03
7.636745e+02,7.320852e+03
7.646387e+02,7.320234e+03
7.656030e+02,7.320542e+03
7.665672e+02,7.322856e+03
7.675314e+02,7.326917e+03
7.684957e+02,7.327400e+03
7.694599e+02,7.319495e+03
7.704241e+02,7.302367e+03
7.713884e+02,7.282619e+03
7.723526e+02,7.271457e+03
7.733168e+02,7.270597e+03
7.742811e+02,7.280036e+03
7.752453e+02,7.299531e+03
7.762095e+02,7.323354e+03
7.771738e+02,7.333038e+03
7.781380e+02,7.311302e+03
7.791022e+02,7.291023e+03
7.800665e+02,7.284463e+03
7.810307e+02,7.286005e+03
7.819949e+02,7.285474e+03
7.829592e+02,7.282780e+03
7.839234e+02,7.280116e+03
7.848876e+02,7.274668e+03
7.858519e+02,7.268275e+03
7.868161e+02,7.266589e+03
7.877803e+02,7.274033e+03
7.887446e+02,7.280447e+03
7.897088e+02,7.269129e+03
7.906730e+02,7.245479e+03
7.916373e+02,7.231245e+03
7.926015e+02,7.230480e+03
7.935657e+02,7.233041e+03
7.945300e+02,7.227448e+03
7.954942e+02,7.213852e+03
7.964584e+02,7.199536e+03
7.974227e+02,7.190319e+03
7.983869e+02,7.189119e+03
7.993511e+02,7.191214e+03
8.003154e+02,7.194742e+03
8.012796e+02,7.191508e+03
8.022438e+02,7.175745e+03
8.032081e+02,7.161134e+03
8.041723e+02,7.161341e+03
8.051365e+02,7.178858e+03
8.061008e+02,7.195313e+03
8.070650e+02,7.194846e+03
8.080292e+02,7.182354e+03
8.089935e+02,7.168658e+03
8.099577e+02,7.157487e+03
8.109219e+02,7.148157e+03
8.118862e+02,7.138188e+03
8.128504e+02,7.127648e+03
8.138146e+02,7.120553e+03
8.147789e+02,7.117083e+03
8.157431e+02,7.112729e+03
8.167073e+02,7.105025e+03
8.176716e+02,7.096571e+03
8.186358e+02,7.092217e+03
8.196000e+02,7.093679e+03
8.205643e+02,7.096701e+03
8.215285e+02,7.095019e+03
8.224927e+02,7.089249e+03
8.234570e+02,7.087853e+03
8.244212e+02,7.100986e+03
8.253854e+02,7.112642e+03
8.263497e+02,7.108311e+03
8.273139e+02,7.090629e+03
8.282781e+02,7.073665e+03
8.292424e+02,7.072257e+03
8.302066e+02,7.078064e+03
8.311708e+02,7.074485e+03
8.321351e+02,7.063697e+03
8.330993e+02,7.057552e+03
8.340635e+02,7.061841e+03
8.350278e+02,7.071736e+03
8.359920e+02,7.074826e+03
8.369562e+02,7.070519e+03
8.379205e+02,7.063574e+03
8.388847e+02,7.054227e+03
8.398489e+02,7.044290e+03
8.408132e+02,7.037165e+03
8.417774e+02,7.033792e+03
8.427416e+02,7.029517e+03
8.437059e+02,7.021781e+03
8.446701e+02,7.014212e+03
8.456343e+02,7.011809e+03
8.465986e+02,7.018597e+03
8.475628e+02,7.021989e+03
8.485270e+02,7.015422e+03
8.494913e+02,7.004430e+03
8.504555e+02,6.994961e+03
8.514197e+02,6.989217e+03
8.523840e+02,6.987010e+03
8.533482e+02,6.989472e+03
8.543124e+02,6.992716e+03
8.552767e+02,6.990006e+03
8.562409e+02,6.980039e+03
8.572051e+02,6.967265e+03
8.581694e+02,6.956787e+03
8.591336e+02,6.949618e+03
8.600978e+02,6.948083e+03
8.610621e+02,6.955155e+03
8.620263e+02,6.960985e+03
8.629905e+02,6.955214e+03
8.639548e+02,6.934430e+03
8.649190e+02,6.918463e+03
8.658832e+02,6.914989e+03
8.668475e+02,6.912812e+03
8.678117e+02,6.903769e+03
8.687759e+02,6.889576e+03
8.697402e+02,6.884650e+03
8.707044e+02,6.895736e+03
8.716686e+02,6.902480e+03
8.726329e+02,6.900800e+03
8.735971e+02,6.894632e+03
8.745613e+02,6.888808e+03
8.755256e+02,6.889504e+03
8.764898e+02,6.890393e+03
8.774540e+02,6.881977e+03
8.784183e+02,6.869138e+03
8.793825e+02,6.861792e+03
8.803467e+02,6.864104e+03
8.813110e+02,6.870104e+03
8.822752e+02,6.875786e+03
8.832394e+02,6.881519e+03
8.842037e+02,6.882819e+03
8.851679e+02,6.876526e+03
8.861321e+02,6.865700e+03
8.870964e+02,6.856290e+03
8.880606e+02,6.848044e+03
8.890248e+02,6.835221e+03
8.899891e+02,6.817896e+03
8.909533e+02,6.803586e+03
8.919175e+02,6.798729e+03
8.928818e+02,6.806242e+03
8.938460e+02,6.809074e+03
8.948102e+02,6.801860e+03
8.957745e+02,6.792287e+03
8.967387e+02,6.785291e+03
8.977029e+02,6.779254e+03
8.986672e+02,6.772271e+03
8.996314e+02,6.768219e+03
9.005956e+02,6.766619e+03
9.015599e+02,6.765788e+03
9.025241e+02,6.765079e+03
9.034883e+02,6.765399e+03
9.044526e+02,6.768353e+03
9.054168e+02,6.767853e+03
9.063810e+02,6.766707e+03
9.073453e+02,6.765926e+03
9.083095e+02,6.760209e+03
9.092737e+02,6.742745e+03
9.102380e+02,6.721763e+03
9.112022e+02,6.707698e+03
9.121664e+02,6.697811e+03
9.131307e+02,6.685461e+03
9.140949e+02,6.670569e+03
9.150591e+02,6.661953e+03
9.160234e+02,6.670423e+03
9.169876e+02,6.690077e+03
9.179518e+02,6.701073e+03
9.189161e+02,6.700849e+03
9.198803e+02,6.692322e+03
9.208445e+02,6.679073e+03
9.218088e+02,6.662299e+03
9.227730e+02,6.650080e+03
9.237372e+02,6.641550e+03
9.247015e+02,6.634648e+03
9.256657e+02,6.627984e+03
9.266299e+02,6.620950e+03
9.275942e+02,6.617995e+03
9.285584e+02,6.619854e+03
9.295226e+02,6.621994e+03
9.304869e+02,6.626475e+03
9.314511e+02,6.632154e+03
9.324153e+02,6.631854e+03
9.333796e+02,6.620349e+03
9.343438e+02,6.607715e+03
9.353080e+02,6.590158e+03
9.362723e+02,6.571997e+03
9.372365e+02,6.562935e+03
9.382007e+02,6.577064e+03
9.391650e+02,6.590230e+03
9.401292e+02,6.587415e+03
9.410934e+02,6.578490e+03
9.420577e+02,6.573930e+03
9.430219e+02,6.576030e+03
9.439861e+02,6.576680e+03
9.449504e+02,6.570305e+03
9.459146e+02,6.563982e+03
9.468788e+02,6.563367e+03
9.478431e+02,6.565270e+03
9.488073e+02,6.564813e+03
9.497715e+02,6.563646e+03
9.507358e+02,6.560783e+03
9.517000e+02,6.551120e+03
9.526642e+02,6.537009e+03
9.536285e+02,6.522466e+03
9.545927e+02,6.507795e+03
9.555569e+02,6.493982e+03
9.565212e+02,6.485741e+03
9.574854e+02,6.485391e+03
9.584496e+02,6.488039e+03
9.594139e+02,6.489433e+03
9.603781e+02,6.487983e+03
9.613423e+02,6.484765e+03
9.623066e+02,6.480540e+03
9.632708e+02,6.471860e+03
9.642350e+02,6.456869e+03
9.651993e+02,6.442620e+03
9.661635e+02,6.437143e+03
9.671277e+02,6.443068e+03
9.680920e+02,6.445852e+03
9.690562e+02,6.444675e+03
9.700204e+02,6.439982e+03
9.709847e+02,6.432920e+03
9.719489e+02,6.423919e+03
9.729131e+02,6.420896e+03
9.738774e+02,6.435892e+03
9.748416e+02,6.447990e+03
9.758058e+02,6.442824e+03
9.767701e+02,6.422042e+03
9.777343e+02,6.405357e+03
9.786985e+02,6.396551e+03
9.796628e+02,6.389542e+03
9.806270e+02,6.387803e+03
9.815912e+02,6.385995e+03
9.825555e+02,6.375571e+03
9.835197e+02,6.348542e+03
9.844839e+02,6.326279e+03
9.854482e+02,6.319135e+03
9.864124e+02,6.321742e+03
9.873766e+02,6.328604e+03
9.883409e+02,6.340111e+03
9.893051e+02,6.346983e+03
9.902693e+02,6.336217e+03
9.912336e+02,6.322690e+03
9.921978e+02,6.322194e+03
9.931620e+02,6.333366e+03
9.941263e+02,6.343298e+03
9.950905e+02,6.345057e+03
9.960547e+02,6.340895e+03
9.970190e+02,6.331036e+03
9.979832e+02,6.316381e+03
9.989474e+02,6.301887e+03
9.999117e+02,6.292775e+03
1.000876e+03,6.287727e+03
1.001840e+03,6.285270e+03
1.002804e+03,6.285749e+03
1.003769e+03,6.284596e+03
1.004733e+03,6.277886e+03
1.005697e+03,6.269521e+03
1.006661e+03,6.266289e+03
1.007626e+03,6.267968e+03
1.008590e+03,6.272439e+03
1.009554e+03,6.278102e+03
1.010518e+03,6.280771e+03
1.011482e+03,6.277558e+03
1.012447e+03,6.268641e+03
1.013411e+03,6.255498e+03
1.014375e+03,6.240864e+03
1.015339e+03,6.228660e+03
1.016304e+03,6.218835e+03
1.017268e+03,6.211413e+03
1.018232e+03,6.212401e+03
1.019196e+03,6.222603e+03
1.020161e+03,6.227726e+03
1.021125e+03,6.222182e+03
1.022089e+03,6.211864e+03
1.023053e+03,6.208240e+03
1.024018e+03,6.210874e+03
1.024982e+03,6.210487e+03
1.025946e+03,6.203884e+03
1.026910e+03,6.191664e+03
1.027875e+03,6.177073e+03
1.028839e+03,6.160846e+03
1.029803e+03,6.153249e+03
1.030767e+03,6.158771e+03
1.031731e+03,6.165682e+03
1.032696e+03,6.163834e+03
1.033660e+03,6.152100e+03
1.034624e+03,6.144425e+03
1.035588e+03,6.145343e+03
1.036552e+03,6.146876e+03
1.037517e+03,6.144552e+03
1.038481e+03,6.137507e+03
1.039445e+03,6.128968e+03
1.040409e+03,6.117414e+03
1.041374e+03,6.107445e+03
1.042338e+03,6.101333e+03
1.043302e+03,6.098930e+03
1.044266e+03,6.098493e+03
1.045231e+03,6.099060e+03
1.046195e+03,6.101737e+03
1.047159e+03,6.115671e+03
1.048123e+03,6.126462e+03
1.049088e+03,6.122136e+03
1.050052e+03,6.101931e+03
1.051016e+03,6.088908e+03
1.051980e+03,6.085664e+03
1.052945e+03,6.085459e+03
1.053909e+03,6.083533e+03
1.054873e+03,6.078077e+03
1.055837e+03,6.073151e+03
1.056802e+03,6.079747e+03
1.057766e+03,6.077988e+03
1.058730e+03,6.056611e+03
1.059694e+03,6.029690e+03
1.060658e+03,6.013842e+03
1.061623e+03,6.018701e+03
1.062587e+03,6.022274e+03
1.063551e+03,6.021625e+03
1.064515e+03,6.019931e+03
1.065479e+03,6.017297e+03
1.066444e+03,6.014745e+03
1.067408e+03,6.016020e+03
1.068372e+03,6.022497e+03
1.069336e+03,6.031953e+03
1.070301e+03,6.042931e+03
1.071265e+03,6.052649e+03
1.072229e+03,6.057959e+03
1.073193e+03,6.060667e+03
1.074158e+03,6.055886e+03
1.075122e+03,6.036506e+03
1.076086e+03,6.011945e+03
1.077050e+03,5.994940e+03
1.078015e+03,5.994144e+03
1.078979e+03,5.994720e+03
1.079943e+03,5.988854e+03
1.080907e+03,5.985087e+03
1.081872e+03,5.990448e+03
1.082836e+03,6.003808e+03
1.083800e+03,6.009176e+03
1.084764e+03,5.998921e+03
1.085729e+03,5.987534e+03
1.086693e+03,5.980521e+03
1.087657e+03,5.976158e+03
1.088621e+03,5.970842e+03
1.089585e+03,5.962415e+03
1.090550e+03,5.951867e+03
1.091514e+03,5.942206e+03
1.092478e+03,5.933885e+03
1.093442e+03,5.925912e+03
1.094406e+03,5.918083e+03
1.095371e+03,5.912729e+03
1.096335e+03,5.910794e+03
1.097299e+03,5.908718e+03
1.098263e+03,5.903365e+03
1.099228e+03,5.894287e+03
1.100192e+03,5.887669e+03
1.101156e+03,5.885748e+03
1.102120e+03,5.884146e+03
1.103085e+03,5.882606e+03
1.104049e+03,5.880713e+03
1.105013e+03,5.877652e+03
1.105977e+03,5.873102e+03
1.106942e+03,5.868700e+03
1.107906e+03,5.865427e+03
1.108870e+03,5.862603e+03
1.109834e+03,5.859407e+03
1.110799e+03,5.855875e+03
1.111763e+03,5.852049e+03
1.112727e+03,5.849334e+03
1.113691e+03,5.846798e+03
1.114656e+03,5.840544e+03
1.115620e+03,5.831909e+03
1.116584e+03,5.831113e+03
1.117548e+03,5.848241e+03
1.118512e+03,5.857107e+03
1.119477e+03,5.845906e+03
1.120441e+03,5.825639e+03
1.121405e+03,5.813858e+03
1.122369e+03,5.821384e+03
1.123334e+03,5.821709e+03
1.124298e+03,5.813318e+03
1.125262e+03,5.801016e+03
1.126226e+03,5.786736e+03
1.127191e+03,5.769980e+03
1.128155e+03,5.759830e+03
1.129119e+03,5.758123e+03
1.130083e+03,5.757689e+03
1.131047e+03,5.755402e+03
1.132012e+03,5.750870e+03
1.132976e+03,5.747198e+03
1.133940e+03,5.745187e+03
1.134904e+03,5.741999e+03
1.135869e+03,5.739893e+03
1.136833e+03,5.737042e+03
1.137797e+03,5.730404e+03
1.138761e+03,5.719739e+03
1.139726e+03,5.713555e+03
1.140690e+03,5.712073e+03
1.141654e+03,5.712246e+03
1.142618e+03,5.712063e+03
1.143583e+03,5.711939e+03
1.144547e+03,5.712669e+03
1.145511e+03,5.715080e+03
1.146475e+03,5.713894e+03
1.147439e+03,5.705988e+03
1.148404e+03,5.696470e+03
1.149368e+03,5.693379e+03
1.150332e+03,5.696942e+03
1.151296e+03,5.697235e+03
1.152261e+03,5.690455e+03
1.153225e+03,5.677989e+03
1.154189e+03,5.664326e+03
1.155153e+03,5.651936e+03
1.156118e+03,5.642611e+03
1.157082e+03,5.638258e+03
1.158046e+03,5.635173e+03
1.159010e+03,5.629126e+03
1.159974e+03,5.622386e+03
1.160939e+03,5.620269e+03
1.161903e+03,5.621124e+03
1.162867e+03,5.622965e+03
1.163831e+03,5.625284e+03
1.164796e+03,5.623993e+03
1.165760e+03,5.613600e+03
1.166724e+03,5.598808e+03
1.167688e+03,5.590679e+03
1.168653e+03,5.588911e+03
1.169617e+03,5.587197e+03
1.170581e+03,5.582748e+03
1.171545e+03,5.576678e+03
1.172510e+03,5.567016e+03
1.173474e+03,5.557357e+03
1.174438e+03,5.555813e+03
1.175402e+03,5.564875e+03
1.176366e+03,5.574532e+03
1.177331e+03,5.577284e+03
1.178295e+03,5.576002e+03
1.179259e+03,5.572542e+03
1.180223e+03,5.566317e+03
1.181188e+03,5.558170e+03
1.182152e+03,5.548741e+03
1.183116e+03,5.538057e+03
1.184080e+03,5.526511e+03
1.185045e+03,5.515882e+03
1.186009e+03,5.507522e+03
1.186973e+03,5.503557e+03
1.187937e+03,5.502199e+03
1.188901e+03,5.503701e+03
1.189866e+03,5.505307e+03
1.190830e+03,5.502701e+03
1.191794e+03,5.494303e+03
1.192758e+03,5.488442e+03
1.193723e+03,5.491620e+03
1.194687e+03,5.496881e+03
1.195651e+03,5.501813e+03
1.196615e+03,5.505416e+03
1.197580e+03,5.505690e+03
1.198544e+03,5.497835e+03
1.199508e+03,5.486001e+03
1.200472e+03,5.470140e+03
1.201437e+03,5.456286e+03
1.202401e+03,5.451576e+03
1.203365e+03,5.459486e+03
1.204329e+03,5.458896e+03
1.205293e+03,5.443587e+03
1.206258e+03,5.433902e+03
1.207222e+03,5.440704e+03
1.208186e+03,5.456108e+03
1.209150e+03,5.455438e+03
1.210115e+03,5.434862e+03
1.211079e+03,5.421196e+03
1.212043e+03,5.420745e+03
1.213007e+03,5.424248e+03
1.213972e+03,5.422067e+03
1.214936e+03,5.417039e+03
1.215900e+03,5.420269e+03
1.216864e+03,5.431324e+03
1.217828e+03,5.436703e+03
1.218793e+03,5.427173e+03
1.219757e+03,5.410045e+03
1.220721e+03,5.392478e+03
1.221685e+03,5.378030e+03
1.222650e+03,5.376245e+03
1.223614e+03,5.388447e+03
1.224578e+03,5.399618e+03
1.225542e+03,5.398016e+03
1.226507e+03,5.391177e+03
1.227471e+03,5.386049e+03
1.228435e+03,5.381513e+03
1.229399e+03,5.375015e+03
1.230364e+03,5.369239e+03
1.231328e+03,5.359794e+03
1.232292e+03,5.342729e+03
1.233256e+03,5.325372e+03
1.234220e+03,5.314604e+03
1.235185e+03,5.315193e+03
1.236149e+03,5.315461e+03
1.237113e+03,5.310794e+03
1.238077e+03,5.308486e+03
1.239042e+03,5.309798e+03
1.240006e+03,5.312265e+03
1.240970e+03,5.314585e+03
1.241934e+03,5.319125e+03
1.242899e+03,5.318599e+03
1.243863e+03,5.311130e+03
1.244827e+03,5.301290e+03
1.245791e+03,5.294284e+03
1.246755e+03,5.290339e+03
1.247720e+03,5.288986e+03
1.248684e+03,5.291962e+03
1.249648e+03,5.292159e+03
1.250612e+03,5.282909e+03
1.251577e+03,5.267271e+03
1.252541e+03,5.258384e+03
1.253505e+03,5.254870e+03
1.254469e+03,5.249898e+03
1.255434e+03,5.242153e+03
1.256398e+03,5.236516e+03
1.257362e+03,5.238215e+03
1.258326e+03,5.243248e+03
1.259291e+03,5.248327e+03
1.260255e+03,5.251330e+03
1.261219e+03,5.247306e+03
1.262183e+03,5.231298e+03
1.263147e+03,5.215128e+03
1.264112e+03,5.207007e+03
1.265076e+03,5.203671e+03
1.266040e+03,5.199655e+03
1.267004e+03,5.193948e+03
1.267969e+03,5.187727e+03
1.268933e+03,5.180393e+03
1.269897e+03,5.177976e+03
1.270861e+03,5.182079e+03
1.271826e+03,5.188201e+03
1.272790e+03,5.190781e+03
1.273754e+03,5.192217e+03
1.274718e+03,5.189062e+03
1.275682e+03,5.180712e+03
1.276647e+03,5.172174e+03
1.277611e+03,5.170021e+03
1.278575e+03,5.175837e+03
1.279539e+03,5.166801e+03
1.280504e+03,5.142853e+03
1.281468e+03,5.123921e+03
1.282432e+03,5.120690e+03
1.283396e+03,5.128245e+03
1.284361e+03,5.137081e+03
1.285325e+03,5.145189e+03
1.286289e+03,5.148712e+03
1.287253e+03,5.146284e+03
1.288218e+03,5.140727e+03
1.289182e+03,5.136583e+03
1.290146e+03,5.131287e+03
1.291110e+03,5.119204e+03
1.292074e+03,5.103488e+03
1.293039e+03,5.093227e+03
1.294003e+03,5.098935e+03
1.294967e+03,5.101408e+03
1.295931e+03,5.088519e+03
1.296896e+03,5.073552e+03
1.297860e+03,5.071146e+03
1.298824e+03,5.086406e+03
1.299788e+03,5.094415e+03
1.300753e+03,5.088116e+03
1.301717e+03,5.081786e+03
1.302681e+03,5.081809e+03
1.303645e+03,5.085542e+03
1.304609e+03,5.084915e+03
1.305574e+03,5.076937e+03
1.306538e+03,5.071703e+03
1.307502e+03,5.073638e+03
1.308466e+03,5.077169e+03
1.309431e+03,5.074803e+03
1.310395e+03,5.068364e+03
1.311359e+03,5.063235e+03
1.312323e+03,5.057148e+03
1.313288e+03,5.048592e+03
1.314252e+03,5.038814e+03
1.315216e+03,5.031182e+03
1.316180e+03,5.026083e+03
1.317145e+03,5.024416e+03
1.318109e+03,5.027073e+03
1.319073e+03,5.031977e+03
1.320037e+03,5.034057e+03
1.321001e+03,5.034836e+03
1.321966e+03,5.029288e+03
1.322930e+03,5.011911e+03
1.323894e+03,4.991145e+03
1.324858e+03,4.979094e+03
1.325823e+03,4.979554e+03
1.326787e+03,4.979266e+03
1.327751e+03,4.975788e+03
1.328715e+03,4.972706e+03
1.329680e+03,4.973327e+03
1.330644e+03,4.977154e+03
1.331608e+03,4.982039e+03
1.332572e+03,4.987190e+03
1.333536e+03,4.987505e+03
1.334501e+03,4.980278e+03
1.335465e+03,4.971445e+03
1.336429e+03,4.973444e+03
1.337393e+03,4.978349e+03
1.338358e+03,4.970983e+03
1.339322e+03,4.953432e+03
1.340286e+03,4.938174e+03
1.341250e+03,4.935347e+03
1.342215e+03,4.930926e+03
1.343179e+03,4.915876e+03
1.344143e+03,4.902662e+03
1.345107e+03,4.903500e+03
1.346072e+03,4.922333e+03
1.347036e+03,4.932981e+03
1.348000e+03,4.931652e+03
1.348964e+03,4.925664e+03
1.349928e+03,4.917311e+03
1.350893e+03,4.910401e+03
1.351857e+03,4.911919e+03
1.352821e+03,4.920356e+03
1.353785e+03,4.924964e+03
1.354750e+03,4.923765e+03
1.355714e+03,4.917286e+03
1.356678e+03,4.905878e+03
1.357642e+03,4.894061e+03
1.358607e+03,4.884357e+03
1.359571e+03,4.876702e+03
1.360535e+03,4.872709e+03
1.361499e+03,4.875034e+03
1.362464e+03,4.877845e+03
1.363428e+03,4.877896e+03
1.364392e+03,4.879675e+03
1.365356e+03,4.886544e+03
1.366320e+03,4.894982e+03
1.367285e+03,4.892960e+03
1.368249e+03,4.877860e+03
1.369213e+03,4.863555e+03
1.370177e+03,4.852228e+03
1.371142e+03,4.843247e+03
1.372106e+03,4.837154e+03
1.373070e+03,4.833330e+03
1.374034e+03,4.826247e+03
1.374999e+03,4.817490e+03
1.375963e+03,4.811454e+03
1.376927e+03,4.810500e+03
1.377891e+03,4.811554e+03
1.378855e+03,4.811136e+03
1.379820e+03,4.809647e+03
1.380784e+03,4.808804e+03
1.381748e+03,4.810109e+03
1.382712e+03,4.809325e+03
1.383677e+03,4.797933e+03
1.384641e+03,4.787703e+03
1.385605e+03,4.781336e+03
1.386569e+03,4.778369e+03
1.387534e+03,4.780971e+03
1.388498e+03,4.792838e+03
1.389462e+03,4.789911e+03
1.390426e+03,4.767974e+03
1.391391e+03,4.747638e+03
1.392355e+03,4.744438e+03
1.393319e+03,4.751309e+03
1.394283e+03,4.752928e+03
1.395247e+03,4.751062e+03
1.396212e+03,4.752016e+03
1.397176e+03,4.757533e+03
1.398140e+03,4.761111e+03
1.399104e+03,4.755063e+03
1.400069e+03,4.747513e+03
1.401033e+03,4.745307e+03
1.401997e+03,4.745872e+03
1.402961e+03,4.741592e+03
1.403926e+03,4.730327e+03
1.404890e+03,4.717035e+03
1.405854e+03,4.700797e+03
1.406818e+03,4.688737e+03
1.407782e+03,4.687507e+03
1.408747e+03,4.695189e+03
1.409711e+03,4.700407e+03
1.410675e+03,4.701386e+03
1.411639e+03,4.702430e+03
1.412604e+03,4.705841e+03
1.413568e+03,4.707177e+03
1.414532e+03,4.703743e+03
1.415496e+03,4.698704e+03
1.416461e+03,4.691144e+03
1.417425e+03,4.681127e+03
1.418389e+03,4.673360e+03
1.419353e+03,4.672542e+03
1.420318e+03,4.668688e+03
1.421282e+03,4.662314e+03
1.422246e+03,4.654916e+03
1.423210e+03,4.645427e+03
1.424174e+03,4.635762e+03
1.425139e+03,4.636319e+03
1.426103e+03,4.644633e+03
1.427067e+03,4.651031e+03
1.428031e+03,4.652843e+03
1.428996e+03,4.651408e+03
1.429960e+03,4.645343e+03
1.430924e+03,4.636805e+03
1.431888e+03,4.625433e+03
1.432853e+03,4.613597e+03
1.433817e+03,4.609606e+03
1.434781e+03,4.626846e+03
1.435745e+03,4.637823e+03
1.436709e+03,4.636046e+03
1.437674e+03,4.627500e+03
1.438638e+03,4.617521e+03
1.439602e+03,4.608076e+03
1.440566e+03,4.607522e+03
1.441531e+03,4.614303e+03
1.442495e+03,4.617197e+03
1.443459e+03,4.610495e+03
1.444423e+03,4.602726e+03
1.445388e+03,4.602850e+03
1.446352e+03,4.604352e+03
1.447316e+03,4.602338e+03
1.448280e+03,4.598362e+03
1.449245e+03,4.593982e+03
1.450209e+03,4.586550e+03
1.451173e+03,4.583015e+03
1.452137e+03,4.582543e+03
1.453101e+03,4.582946e+03
1.454066e+03,4.585337e+03
1.455030e+03,4.588918e+03
1.455994e+03,4.583220e+03
1.456958e+03,4.569928e+03
1.457923e+03,4.561125e+03
1.458887e+03,4.560364e+03
1.459851e+03,4.563435e+03
1.460815e+03,4.573371e+03
1.461780e+03,4.578929e+03
1.462744e+03,4.568856e+03
1.463708e+03,4.546341e+03
1.464672e+03,4.530454e+03
1.465636e+03,4.528331e+03
1.466601e+03,4.525525e+03
1.467565e+03,4.519633e+03
1.468529e+03,4.513993e+03
1.469493e+03,4.509729e+03
1.470458e+03,4.506431e+03
1.471422e+03,4.509313e+03
1.472386e+03,4.517067e+03
1.473350e+03,4.520822e+03
1.474315e+03,4.514817e+03
1.475279e+03,4.510339e+03
1.476243e+03,4.519504e+03
1.477207e+03,4.526952e+03
1.478172e+03,4.522139e+03
1.479136e+03,4.507460e+03
1.480100e+03,4.492703e+03
1.481064e+03,4.477333e+03
1.482028e+03,4.465721e+03
1.482993e+03,4.458771e+03
1.483957e+03,4.457820e+03
1.484921e+03,4.468803e+03
1.485885e+03,4.482347e+03
1.486850e+03,4.475456e+03
1.487814e+03,4.456280e+03
1.488778e+03,4.446832e+03
1.489742e+03,4.458203e+03
1.490707e+03,4.464268e+03
1.491671e+03,4.454008e+03
1.492635e+03,4.444802e+03
1.493599e+03,4.443809e+03
1.494563e+03,4.445869e+03
1.495528e+03,4.438071e+03
1.496492e+03,4.420298e+03
1.497456e+03,4.411249e+03
1.498420e+03,4.414350e+03
1.499385e+03,4.420850e+03
1.500349e+03,4.426409e+03
1.501313e+03,4.430357e+03
1.502277e+03,4.429759e+03
1.503242e+03,4.426753e+03
1.504206e+03,4.424750e+03
1.505170e+03,4.424084e+03
1.506134e+03,4.421737e+03
1.507099e+03,4.417887e+03
1.508063e+03,4.412913e+03
1.509027e+03,4.406412e+03
1.509991e+03,4.400078e+03
1.510955e+03,4.398806e+03
1.511920e+03,4.399532e+03
1.512884e+03,4.395011e+03
1.513848e+03,4.387194e+03
1.514812e+03,4.382284e+03
1.515777e+03,4.381303e+03
1.516741e+03,4.379722e+03
1.517705e+03,4.373049e+03
1.518669e+03,4.367147e+03
1.519634e+03,4.370104e+03
1.520598e+03,4.380181e+03
1.521562e+03,4.374927e+03
1.522526e+03,4.354342e+03
1.523490e+03,4.338447e+03
1.524455e+03,4.334755e+03
1.525419e+03,4.335735e+03
1.526383e+03,4.339625e+03
1.527347e+03,4.341359e+03
1.528312e+03,4.337250e+03
1.529276e+03,4.329751e+03
1.530240e+03,4.322437e+03
1.531204e+03,4.311479e+03
1.532169e+03,4.307854e+03
1.533133e+03,4.313876e+03
1.534097e+03,4.320902e+03
1.535061e+03,4.322817e+03
1.536026e+03,4.319896e+03
1.536990e+03,4.313110e+03
1.537954e+03,4.303876e+03
1.538918e+03,4.292427e+03
1.539882e+03,4.277051e+03
1.540847e+03,4.270442e+03
1.541811e+03,4.283873e+03
1.542775e+03,4.293683e+03
1.543739e+03,4.294886e+03
1.544704e+03,4.290935e+03
1.545668e+03,4.284971e+03
1.546632e+03,4.278375e+03
1.547596e+03,4.276328e+03
1.548561e+03,4.278142e+03
1.549525e+03,4.278599e+03
1.550489e+03,4.267880e+03
1.551453e+03,4.262188e+03
1.552417e+03,4.275781e+03
1.553382e+03,4.291559e+03
1.554346e+03,4.296542e+03
1.555310e+03,4.292616e+03
1.556274e+03,4.289113e+03
1.557239e+03,4.285622e+03
1.558203e+03,4.279891e+03
1.559167e+03,4.271055e+03
1.560131e+03,4.266621e+03
1.561096e+03,4.276143e+03
1.562060e+03,4.291220e+03
1.563024e+03,4.307844e+03
1.563988e+03,4.323555e+03
1.564953e+03,4.332834e+03
1.565917e+03,4.331822e+03
1.566881e+03,4.337401e+03
1.567845e+03,4.349872e+03
1.568809e+03,4.360389e+03
1.569774e+03,4.365942e+03
1.570738e+03,4.365150e+03
1.571702e+03,4.352354e+03
1.572666e+03,4.333837e+03
1.573631e+03,4.317146e+03
1.574595e+03,4.304684e+03
1.575559e+03,4.296067e+03
1.576523e+03,4.294244e+03
1.577488e+03,4.288945e+03
1.578452e+03,4.274374e+03
1.579416e+03,4.260015e+03
1.580380e+03,4.260647e+03
1.581344e+03,4.268072e+03
1.582309e+03,4.269053e+03
1.583273e+03,4.263975e+03
1.584237e+03,4.252373e+03
1.585201e+03,4.229959e+03
1.586166e+03,4.212719e+03
1.587130e+03,4.201531e+03
1.588094e+03,4.194346e+03
1.589058e+03,4.192821e+03
1.590023e+03,4.193768e+03
1.590987e+03,4.190300e+03
1.591951e+03,4.184179e+03
1.592915e+03,4.172506e+03
1.593880e+03,4.155038e+03
1.594844e+03,4.145491e+03
1.595808e+03,4.160753e+03
1.596772e+03,4.170255e+03
1.597736e+03,4.167848e+03
1.598701e+03,4.161650e+03
1.599665e+03,4.158471e+03
1.600629e+03,4.156372e+03
1.601593e+03,4.145620e+03
1.602558e+03,4.129068e+03
1.603522e+03,4.115398e+03
1.604486e+03,4.106965e+03
1.605450e+03,4.100759e+03
1.606415e+03,4.098860e+03
1.607379e+03,4.098235e+03
1.608343e+03,4.097234e+03
1.609307e+03,4.095562e+03
1.610271e+03,4.093208e+03
1.611236e+03,4.089784e+03
1.612200e+03,4.085523e+03
1.613164e+03,4.081894e+03
1.614128e+03,4.080620e+03
1.615093e+03,4.084629e+03
1.616057e+03,4.086189e+03
1.617021e+03,4.077299e+03
1.617985e+03,4.068588e+03
1.618950e+03,4.068108e+03
1.619914e+03,4.074067e+03
1.620878e+03,4.081637e+03
1.621842e+03,4.089277e+03
1.622807e+03,4.086812e+03
1.623771e+03,4.072873e+03
1.624735e+03,4.061934e+03
1.625699e+03,4.060458e+03
1.626663e+03,4.061595e+03
1.627628e+03,4.062522e+03
1.628592e+03,4.061868e+03
1.629556e+03,4.061882e+03
1.630520e+03,4.063686e+03
1.631485e+03,4.060833e+03
1.632449e+03,4.053909e+03
1.633413e+03,4.047440e+03
1.634377e+03,4.044448e+03
1.635342e+03,4.040222e+03
1.636306e+03,4.031911e+03
1.637270e+03,4.023912e+03
1.638234e+03,4.018703e+03
1.639198e+03,4.014428e+03
1.640163e+03,4.001636e+03
1.641127e+03,3.985359e+03
1.642091e+03,3.979203e+03
1.643055e+03,3.982849e+03
1.644020e+03,3.990422e+03
1.644984e+03,4.006246e+03
1.645948e+03,4.012701e+03
1.646912e+03,4.005569e+03
1.647877e+03,3.992913e+03
1.648841e+03,3.979854e+03
1.649805e+03,3.968099e+03
1.650769e+03,3.963006e+03
1.651734e+03,3.962235e+03
1.652698e+03,3.961800e+03
1.653662e+03,3.959833e+03
1.654626e+03,3.954492e+03
1.655590e+03,3.942123e+03
1.656555e+03,3.932067e+03
1.657519e+03,3.927767e+03
1.658483e+03,3.930504e+03
1.659447e+03,3.944564e+03
1.660412e+03,3.960823e+03
1.661376e+03,3.964001e+03
1.662340e+03,3.957627e+03
1.663304e+03,3.951706e+03
1.664269e+03,3.946781e+03
1.665233e+03,3.941853e+03
1.666197e+03,3.935557e+03
1.667161e+03,3.929877e+03
1.668125e+03,3.927631e+03
1.669090e+03,3.925934e+03
1.670054e+03,3.919179e+03
1.671018e+03,3.911255e+03
1.671982e+03,3.908412e+03
1.672947e+03,3.911349e+03
1.673911e+03,3.915393e+03
1.674875e+03,3.919536e+03
1.675839e+03,3.917579e+03
1.676804e+03,3.910122e+03
1.677768e+03,3.903851e+03
1.678732e+03,3.905789e+03
1.679696e+03,3.906644e+03
1.680661e+03,3.893047e+03
1.681625e+03,3.873858e+03
1.682589e+03,3.865683e+03
1.683553e+03,3.870650e+03
1.684517e+03,3.874824e+03
1.685482e+03,3.877589e+03
1.686446e+03,3.877215e+03
1.687410e+03,3.872590e+03
1.688374e+03,3.868402e+03
1.689339e+03,3.871727e+03
1.690303e+03,3.871998e+03
1.691267e+03,3.858359e+03
1.692231e+03,3.841558e+03
1.693196e+03,3.840106e+03
1.694160e+03,3.850270e+03
1.695124e+03,3.854092e+03
1.696088e+03,3.851931e+03
1.697052e+03,3.847334e+03
1.698017e+03,3.834129e+03
1.698981e+03,3.827109e+03
1.699945e+03,3.832359e+03
1.700909e+03,3.837481e+03
1.701874e+03,3.840236e+03
1.702838e+03,3.841342e+03
1.703802e+03,3.833465e+03
1.704766e+03,3.821062e+03
1.705731e+03,3.818263e+03
1.706695e+03,3.826707e+03
1.707659e+03,3.832185e+03
1.708623e+03,3.834937e+03
1.709588e+03,3.831704e+03
1.710552e+03,3.818793e+03
1.711516e+03,3.804915e+03
1.712480e+03,3.798896e+03
1.713444e+03,3.796291e+03
1.714409e+03,3.795379e+03
1.715373e+03,3.795289e+03
1.716337e+03,3.793813e+03
1.717301e+03,3.792020e+03
1.718266e+03,3.784202e+03
1.719230e+03,3.769775e+03
1.720194e+03,3.763269e+03
1.721158e+03,3.769274e+03
1.722123e+03,3.772838e+03
1.723087e+03,3.756654e+03
1.724051e+03,3.743489e+03
1.725015e+03,3.749383e+03
1.725979e+03,3.761274e+03
1.726944e+03,3.756044e+03
1.727908e+03,3.739356e+03
1.728872e+03,3.737077e+03
1.729836e+03,3.744597e+03
1.730801e+03,3.747164e+03
1.731765e+03,3.737859e+03
1.732729e+03,3.728172e+03
1.733693e+03,3.716918e+03
1.734658e+03,3.713422e+03
1.735622e+03,3.724598e+03
1.736586e+03,3.737286e+03
1.737550e+03,3.730522e+03
1.738515e+03,3.715799e+03
1.739479e+03,3.705365e+03
1.740443e+03,3.700516e+03
1.741407e+03,3.700865e+03
1.742371e+03,3.707762e+03
1.743336e+03,3.706216e+03
1.744300e+03,3.695027e+03
1.745264e+03,3.683376e+03
1.746228e+03,3.678704e+03
1.747193e+03,3.677613e+03
1.748157e+03,3.684386e+03
1.749121e+03,3.691130e+03
1.750085e+03,3.686936e+03
1.751050e+03,3.673471e+03
1.752014e+03,3.665554e+03
1.752978e+03,3.663891e+03
1.753942e+03,3.671036e+03
1.754906e+03,3.686750e+03
1.755871e+03,3.690833e+03
1.756835e+03,3.671238e+03
1.757799e+03,3.656369e+03
1.758763e+03,3.655115e+03
1.759728e+03,3.659037e+03
1.760692e+03,3.661438e+03
1.761656e+03,3.662334e+03
1.762620e+03,3.658031e+03
1.763585e+03,3.651905e+03
1.764549e+03,3.649047e+03
1.765513e+03,3.647994e+03
1.766477e+03,3.650236e+03
1.767442e+03,3.655376e+03
1.768406e+03,3.653941e+03
1.769370e+03,3.641898e+03
1.770334e+03,3.633091e+03
1.771298e+03,3.634499e+03
1.772263e+03,3.635353e+03
1.773227e+03,3.633891e+03
1.774191e+03,3.631431e+03
1.775155e+03,3.630262e+03
1.776120e+03,3.627496e+03
1.777084e+03,3.618106e+03
1.778048e+03,3.604672e+03
1.779012e+03,3.593174e+03
1.779977e+03,3.583788e+03
1.780941e+03,3.582686e+03
1.781905e+03,3.588106e+03
1.782869e+03,3.593376e+03
1.783833e+03,3.596589e+03
1.784798e+03,3.597613e+03
1.785762e+03,3.596543e+03
1.786726e+03,3.591350e+03
1.787690e+03,3.579677e+03
1.788655e+03,3.567574e+03
1.789619e+03,3.569934e+03
1.790583e+03,3.577378e+03
1.791547e+03,3.564933e+03
1.792512e+03,3.537266e+03
1.793476e+03,3.524934e+03
1.794440e+03,3.534583e+03
1.795404e+03,3.543271e+03
1.796369e+03,3.548945e+03
1.797333e+03,3.551050e+03
1.798297e+03,3.547771e+03
1.799261e+03,3.545067e+03
1.800225e+03,3.547056e+03
1.801190e+03,3.548874e+03
1.802154e+03,3.550906e+03
1.803118e+03,3.548996e+03
1.804082e+03,3.525962e+03
1.805047e+03,3.495658e+03
1.806011e+03,3.491722e+03
1.806975e+03,3.514484e+03
1.807939e+03,3.525185e+03
1.808904e+03,3.513336e+03
1.809868e+03,3.506351e+03
1.810832e+03,3.508145e+03
1.811796e+03,3.511563e+03
1.812760e+03,3.511475e+03
1.813725e+03,3.509605e+03
1.814689e+03,3.506597e+03
1.815653e+03,3.503141e+03
1.816617e+03,3.499845e+03
1.817582e+03,3.496650e+03
1.818546e+03,3.493100e+03
1.819510e+03,3.488453e+03
1.820474e+03,3.481182e+03
1.821439e+03,3.471773e+03
1.822403e+03,3.465409e+03
1.823367e+03,3.462939e+03
1.824331e+03,3.462202e+03
1.825296e+03,3.461928e+03
1.826260e+03,3.460390e+03
1.827224e+03,3.458857e+03
1.828188e+03,3.458532e+03
1.829152e+03,3.455780e+03
1.830117e+03,3.455024e+03
1.831081e+03,3.462783e+03
1.832045e+03,3.472880e+03
1.833009e+03,3.470526e+03
1.833974e+03,3.462263e+03
1.834938e+03,3.454773e+03
1.835902e+03,3.447812e+03
1.836866e+03,3.436365e+03
1.837831e+03,3.419268e+03
1.838795e+03,3.412689e+03
1.839759e+03,3.422040e+03
1.840723e+03,3.431006e+03
1.841688e+03,3.419765e+03
1.842652e+03,3.415352e+03
1.843616e+03,3.429758e+03
1.844580e+03,3.443094e+03
1.845544e+03,3.430320e+03
1.846509e+03,3.409124e+03
1.847473e+03,3.414707e+03
1.848437e+03,3.432958e+03
1.849401e+03,3.436759e+03
1.850366e+03,3.425613e+03
1.851330e+03,3.416718e+03
1.852294e+03,3.410638e+03
1.853258e+03,3.401524e+03
1.854223e+03,3.386907e+03
1.855187e+03,3.378669e+03
1.856151e+03,3.385702e+03
1.857115e+03,3.391591e+03
1.858079e+03,3.393426e+03
1.859044e+03,3.389844e+03
1.860008e+03,3.376187e+03
1.860972e+03,3.362612e+03
1.861936e+03,3.360083e+03
1.862901e+03,3.363298e+03
1.863865e+03,3.362664e+03
1.864829e+03,3.356538e+03
1.865793e+03,3.347630e+03
1.866758e+03,3.339061e+03
1.867722e+03,3.337836e+03
1.868686e+03,3.346891e+03
1.869650e+03,3.351668e+03
1.870615e+03,3.350021e+03
1.871579e+03,3.343240e+03
1.872543e+03,3.332430e+03
1.873507e+03,3.326335e+03
1.874471e+03,3.334496e+03
1.875436e+03,3.338661e+03
1.876400e+03,3.329394e+03
1.877364e+03,3.318703e+03
1.878328e+03,3.322231e+03
1.879293e+03,3.332175e+03
1.880257e+03,3.333426e+03
1.881221e+03,3.327837e+03
1.882185e+03,3.321254e+03
1.883150e+03,3.315018e+03
1.884114e+03,3.312242e+03
1.885078e+03,3.310810e+03
1.886042e+03,3.300060e+03
1.887006e+03,3.274414e+03
1.887971e+03,3.259237e+03
1.888935e+03,3.268640e+03
1.889899e+03,3.279532e+03
1.890863e+03,3.285780e+03
1.891828e+03,3.286565e+03
1.892792e+03,3.279114e+03
1.893756e+03,3.271288e+03
1.894720e+03,3.273941e+03
1.895685e+03,3.280997e+03
1.896649e+03,3.283208e+03
1.897613e+03,3.280406e+03
1.898577e+03,3.274815e+03
1.899542e+03,3.268616e+03
1.900506e+03,3.266560e+03
1.901470e+03,3.269495e+03
1.902434e+03,3.264444e+03
1.903398e+03,3.252118e+03
1.904363e+03,3.244801e+03
1.905327e+03,3.246541e+03
1.906291e+03,3.246448e+03
1.907255e+03,3.229867e+03
1.908220e+03,3.224014e+03
1.909184e+03,3.237129e+03
1.910148e+03,3.248177e+03
1.911112e+03,3.229834e+03
1.912077e+03,3.210146e+03
1.913041e+03,3.218675e+03
1.914005e+03,3.233664e+03
1.914969e+03,3.230927e+03
1.915933e+03,3.216110e+03
1.916898e+03,3.206462e+03
1.917862e+03,3.202161e+03
1.918826e+03,3.204333e+03
1.919790e+03,3.214276e+03
1.920755e+03,3.213233e+03
1.921719e+03,3.199865e+03
1.922683e+03,3.184283e+03
1.923647e+03,3.169572e+03
1.924612e+03,3.162140e+03
1.925576e+03,3.170107e+03
1.926540e+03,3.177606e+03
1.927504e+03,3.180731e+03
1.928469e+03,3.181469e+03
1.929433e+03,3.181395e+03
1.930397e+03,3.178949e+03
1.931361e+03,3.173282e+03
1.932325e+03,3.164406e+03
1.933290e+03,3.152042e+03
1.934254e+03,3.140837e+03
1.935218e+03,3.136989e+03
1.936182e+03,3.135594e+03
1.937147e+03,3.132559e+03
1.938111e+03,3.129183e+03
1.939075e+03,3.131530e+03
1.940039e+03,3.139740e+03
1.941004e+03,3.146266e+03
1.941968e+03,3.147663e+03
1.942932e+03,3.139398e+03
1.943896e+03,3.114118e+03
1.944860e+03,3.103458e+03
1.945825e+03,3.112464e+03
1.946789e+03,3.122604e+03
1.947753e+03,3.116138e+03
1.948717e+03,3.111509e+03
1.949682e+03,3.117311e+03
1.950646e+03,3.123834e+03
1.951610e+03,3.126653e+03
1.952574e+03,3.125291e+03
1.953539e+03,3.115442e+03
1.954503e+03,3.103683e+03
1.955467e+03,3.097562e+03
1.956431e+03,3.096426e+03
1.957396e+03,3.098864e+03
1.958360e+03,3.101651e+03
1.959324e+03,3.097455e+03
1.960288e+03,3.088448e+03
1.961252e+03,3.083654e+03
1.962217e+03,3.082174e+03
1.963181e+03,3.079086e+03
1.964145e+03,3.073838e+03
1.965109e+03,3.068622e+03
1.966074e+03,3.065458e+03
1.967038e+03,3.063694e+03
1.968002e+03,3.059602e+03
1.968966e+03,3.058759e+03
1.969931e+03,3.067244e+03
1.970895e+03,3.070583e+03
1.971859e+03,3.054744e+03
1.972823e+03,3.041315e+03
1.973787e+03,3.038108e+03
1.974752e+03,3.040116e+03
1.975716e+03,3.045786e+03
1.976680e+03,3.049021e+03
1.977644e+03,3.042521e+03
1.978609e+03,3.033294e+03
1.979573e+03,3.029659e+03
1.980537e+03,3.029850e+03
1.981501e+03,3.032525e+03
1.982466e+03,3.036355e+03
1.983430e+03,3.035842e+03
1.984394e+03,3.029506e+03
1.985358e+03,3.026952e+03
1.986323e+03,3.026897e+03
1.987287e+03,3.024203e+03
1.988251e+03,3.016842e+03
1.989215e+03,3.006358e+03
1.990179e+03,2.993006e+03
1.991144e+03,2.981550e+03
1.992108e+03,2.973801e+03
1.993072e+03,2.972690e+03
1.994036e+03,2.985771e+03
1.995001e+03,2.994670e+03
1.995965e+03,2.993763e+03
1.996929e+03,2.990980e+03
1.997893e+03,2.992651e+03
1.998858e+03,2.993306e+03
1.999822e+03,2.987685e+03
2.000786e+03,2.979186e+03
2.001750e+03,2.973077e+03
2.002714e+03,2.969685e+03
2.003679e+03,2.965138e+03
2.004643e+03,2.958358e+03
2.005607e+03,2.947765e+03
2.006571e+03,2.936346e+03
2.007536e+03,2.933345e+03
2.008500e+03,2.937111e+03
2.009464e+03,2.943950e+03
2.010428e+03,2.952715e+03
2.011393e+03,2.949383e+03
2.012357e+03,2.931655e+03
2.013321e+03,2.933290e+03
2.014285e+03,2.952321e+03
2.015250e+03,2.960447e+03
2.016214e+03,2.933683e+03
2.017178e+03,2.913670e+03
2.018142e+03,2.903050e+03
2.019106e+03,2.899036e+03
2.020071e+03,2.902903e+03
2.021035e+03,2.904809e+03
2.021999e+03,2.897704e+03
2.022963e+03,2.890863e+03
2.023928e+03,2.889198e+03
2.024892e+03,2.888931e+03
2.025856e+03,2.884103e+03
2.026820e+03,2.880363e+03
2.027785e+03,2.880892e+03
2.028749e+03,2.883228e+03
2.029713e+03,2.886333e+03
2.030677e+03,2.889684e+03
2.031641e+03,2.891768e+03
2.032606e+03,2.892277e+03
2.033570e+03,2.891152e+03
2.034534e+03,2.888103e+03
2.035498e+03,2.885269e+03
2.036463e+03,2.881525e+03
2.037427e+03,2.870805e+03
2.038391e+03,2.855181e+03
2.039355e+03,2.852322e+03
2.040320e+03,2.859283e+03
2.041284e+03,2.861562e+03
2.042248e+03,2.854943e+03
2.043212e+03,2.847115e+03
2.044177e+03,2.839544e+03
2.045141e+03,2.834493e+03
2.046105e+03,2.831602e+03
2.047069e+03,2.827592e+03
2.048033e+03,2.814135e+03
2.048998e+03,2.811219e+03
2.049962e+03,2.822312e+03
2.050926e+03,2.831682e+03
2.051890e+03,2.827812e+03
2.052854e+03,2.820676e+03
2.053819e+03,2.810123e+03
2.054783e+03,2.801318e+03
2.055747e+03,2.798797e+03
2.056711e+03,2.801923e+03
2.057676e+03,2.815436e+03
2.058640e+03,2.826302e+03
2.059604e+03,2.824882e+03
2.060568e+03,2.817155e+03
2.061533e+03,2.812622e+03
2.062497e+03,2.809258e+03
2.063461e+03,2.804898e+03
2.064425e+03,2.800163e+03
2.065390e+03,2.796749e+03
2.066354e+03,2.792691e+03
2.067318e+03,2.784815e+03
2.068282e+03,2.775132e+03
2.069247e+03,2.766107e+03
2.070211e+03,2.757093e+03
2.071175e+03,2.747531e+03
2.072139e+03,2.739224e+03
2.073104e+03,2.736712e+03
2.074068e+03,2.740165e+03
2.075032e+03,2.740601e+03
2.075996e+03,2.737833e+03
2.076960e+03,2.735775e+03
2.077925e+03,2.734872e+03
2.078889e+03,2.733806e+03
2.079853e+03,2.732338e+03
2.080817e+03,2.737318e+03
2.081782e+03,2.748640e+03
2.082746e+03,2.753679e+03
2.083710e+03,2.748134e+03
2.084674e+03,2.739150e+03
2.085639e+03,2.728703e+03
2.086603e+03,2.726689e+03
2.087567e+03,2.740577e+03
2.088531e+03,2.749928e+03
2.089496e+03,2.751626e+03
2.090460e+03,2.742523e+03
2.091424e+03,2.722456e+03
2.092388e+03,2.705290e+03
2.093353e+03,2.696422e+03
2.094317e+03,2.694446e+03
2.095281e+03,2.697050e+03
2.096245e+03,2.702428e+03
2.097209e+03,2.716767e+03
2.098174e+03,2.722312e+03
2.099138e+03,2.711810e+03
2.100102e+03,2.696510e+03
2.101066e+03,2.684073e+03
2.102031e+03,2.676643e+03
2.102995e+03,2.682320e+03
2.103959e+03,2.687650e+03
2.104923e+03,2.677406e+03
2.105887e+03,2.666311e+03
2.106852e+03,2.680863e+03
2.107816e+03,2.696786e+03
2.108780e+03,2.689439e+03
2.109744e+03,2.668503e+03
2.110708e+03,2.657642e+03
2.111673e+03,2.653897e+03
2.112637e+03,2.651635e+03
2.113601e+03,2.647440e+03
2.114565e+03,2.634813e+03
2.115530e+03,2.619847e+03
2.116494e+03,2.615328e+03
2.117458e+03,2.624513e+03
2.118422e+03,2.642279e+03
2.119387e+03,2.662976e+03
2.120351e+03,2.666084e+03
2.121315e+03,2.653676e+03
2.122279e+03,2.639257e+03
2.123244e+03,2.623852e+03
2.124208e+03,2.617220e+03
2.125172e+03,2.618070e+03
2.126136e+03,2.619745e+03
2.127101e+03,2.621504e+03
2.128065e+03,2.610907e+03
2.129029e+03,2.590510e+03
2.129993e+03,2.588333e+03
2.130958e+03,2.607294e+03
2.131922e+03,2.614299e+03
2.132886e+03,2.606716e+03
2.133850e+03,2.602546e+03
2.134814e+03,2.605989e+03
2.135779e+03,2.608405e+03
2.136743e+03,2.604428e+03
2.137707e+03,2.600584e+03
2.138671e+03,2.598067e+03
2.139636e+03,2.594988e+03
2.140600e+03,2.591476e+03
2.141564e+03,2.582608e+03
2.142528e+03,2.568110e+03
2.143493e+03,2.559948e+03
2.144457e+03,2.562945e+03
2.145421e+03,2.566676e+03
2.146385e+03,2.570332e+03
2.147350e+03,2.568537e+03
2.148314e+03,2.560556e+03
2.149278e+03,2.554439e+03
2.150242e+03,2.549958e+03
2.151207e+03,2.550991e+03
2.152171e+03,2.558274e+03
2.153135e+03,2.563730e+03
2.154099e+03,2.568611e+03
2.155063e+03,2.563377e+03
2.156028e+03,2.544485e+03
2.156992e+03,2.531376e+03
2.157956e+03,2.536263e+03
2.158920e+03,2.546737e+03
2.159885e+03,2.561802e+03
2.160849e+03,2.568916e+03
2.161813e+03,2.560263e+03
2.162777e+03,2.545285e+03
2.163741e+03,2.528130e+03
2.164706e+03,2.514450e+03
2.165670e+03,2.509702e+03
2.166634e+03,2.508147e+03
2.167598e+03,2.498038e+03
2.168563e+03,2.493064e+03
2.169527e+03,2.498347e+03
2.170491e+03,2.503497e+03
2.171455e+03,2.499839e+03
2.172420e+03,2.495420e+03
2.173384e+03,2.497243e+03
2.174348e+03,2.498386e+03
2.175312e+03,2.489873e+03
2.176277e+03,2.479229e+03
2.177241e+03,2.476987e+03
2.178205e+03,2.473354e+03
2.179169e+03,2.462261e+03
2.180134e+03,2.451226e+03
2.181098e+03,2.448996e+03
2.182062e+03,2.448945e+03
2.183026e+03,2.443149e+03
2.183990e+03,2.438164e+03
2.184955e+03,2.449774e+03
2.185919e+03,2.460555e+03
2.186883e+03,2.452964e+03
2.187847e+03,2.440063e+03
2.188812e+03,2.437680e+03
2.189776e+03,2.442291e+03
2.190740e+03,2.456371e+03
2.191704e+03,2.465800e+03
2.192668e+03,2.454273e+03
2.193633e+03,2.435681e+03
2.194597e+03,2.426827e+03
2.195561e+03,2.425068e+03
2.196525e+03,2.427135e+03
2.197490e+03,2.431310e+03
2.198454e+03,2.439790e+03
2.199418e+03,2.442890e+03
2.200382e+03,2.431861e+03
2.201347e+03,2.415926e+03
2.202311e+03,2.400694e+03
2.203275e+03,2.395223e+03
2.204239e+03,2.415491e+03
2.205204e+03,2.437386e+03
2.206168e+03,2.427208e+03
2.207132e+03,2.407634e+03
2.208096e+03,2.407560e+03
2.209061e+03,2.409916e+03
2.210025e+03,2.395231e+03
2.210989e+03,2.374927e+03
2.211953e+03,2.365138e+03
2.212917e+03,2.367730e+03
2.213882e+03,2.380603e+03
2.214846e+03,2.393153e+03
2.215810e+03,2.384842e+03
2.216774e+03,2.370128e+03
2.217739e+03,2.368228e+03
2.218703e+03,2.372670e+03
2.219667e+03,2.374745e+03
2.220631e+03,2.370841e+03
2.221595e+03,2.351136e+03
2.222560e+03,2.330996e+03
2.223524e+03,2.336845e+03
2.224488e+03,2.350876e+03
2.225452e+03,2.356150e+03
2.226417e+03,2.356197e+03
2.227381e+03,2.349927e+03
2.228345e+03,2.344335e+03
2.229309e+03,2.349821e+03
2.230274e+03,2.354180e+03
2.231238e+03,2.346447e+03
2.232202e+03,2.333771e+03
2.233166e+03,2.326978e+03
2.234131e+03,2.326018e+03
2.235095e+03,2.331239e+03
2.236059e+03,2.336027e+03
2.237023e+03,2.326636e+03
2.237988e+03,2.314794e+03
2.238952e+03,2.307667e+03
2.239916e+03,2.303025e+03
2.240880e+03,2.300480e+03
2.241844e+03,2.301413e+03
2.242809e+03,2.308540e+03
2.243773e+03,2.314666e+03
2.244737e+03,2.309989e+03
2.245701e+03,2.301123e+03
2.246666e+03,2.290948e+03
2.247630e+03,2.282444e+03
2.248594e+03,2.280659e+03
2.249558e+03,2.283417e+03
2.250522e+03,2.291261e+03
2.251487e+03,2.295576e+03
2.252451e+03,2.287477e+03
2.253415e+03,2.277083e+03
2.254379e+03,2.284019e+03
2.255344e+03,2.284899e+03
2.256308e+03,2.269582e+03
2.257272e+03,2.252536e+03
2.258236e+03,2.246873e+03
2.259201e+03,2.245350e+03
2.260165e+03,2.243752e+03
2.261129e+03,2.245010e+03
2.262093e+03,2.256527e+03
2.263058e+03,2.262221e+03
2.264022e+03,2.259722e+03
2.264986e+03,2.254466e+03
2.265950e+03,2.246093e+03
2.266915e+03,2.237824e+03
2.267879e+03,2.228296e+03
2.268843e+03,2.221257e+03
2.269807e+03,2.223362e+03
2.270771e+03,2.221540e+03
2.271736e+03,2.208365e+03
2.272700e+03,2.205957e+03
2.273664e+03,2.219927e+03
2.274628e+03,2.228094e+03
2.275593e+03,2.217375e+03
2.276557e+03,2.207445e+03
2.277521e+03,2.202870e+03
2.278485e+03,2.200213e+03
2.279449e+03,2.196082e+03
2.280414e+03,2.200101e+03
2.281378e+03,2.211980e+03
2.282342e+03,2.216692e+03
2.283306e+03,2.198302e+03
2.284271e+03,2.183984e+03
2.285235e+03,2.173523e+03
2.286199e+03,2.170453e+03
2.287163e+03,2.182115e+03
2.288128e+03,2.192231e+03
2.289092e+03,2.197997e+03
2.290056e+03,2.192522e+03
2.291020e+03,2.174208e+03
2.291985e+03,2.165846e+03
2.292949e+03,2.168857e+03
2.293913e+03,2.178132e+03
2.294877e+03,2.190556e+03
2.295842e+03,2.195925e+03
2.296806e+03,2.192899e+03
2.297770e+03,2.178085e+03
2.298734e+03,2.157501e+03
2.299698e+03,2.158006e+03
2.300663e+03,2.175727e+03
2.301627e+03,2.166412e+03
2.302591e+03,2.141917e+03
2.303555e+03,2.133903e+03
2.304520e+03,2.140300e+03
2.305484e+03,2.152925e+03
2.306448e+03,2.163064e+03
2.307412e+03,2.149653e+03
2.308376e+03,2.125009e+03
2.309341e+03,2.126205e+03
2.310305e+03,2.134994e+03
2.311269e+03,2.127142e+03
2.312233e+03,2.113072e+03
2.313198e+03,2.103067e+03
2.314162e+03,2.099152e+03
2.315126e+03,2.108557e+03
2.316090e+03,2.119714e+03
2.317055e+03,2.121511e+03
2.318019e+03,2.119995e+03
2.318983e+03,2.118434e+03
2.319947e+03,2.116013e+03
2.320912e+03,2.114282e+03
2.321876e+03,2.112299e+03
2.322840e+03,2.108552e+03
2.323804e+03,2.102845e+03
2.324769e+03,2.094102e+03
2.325733e+03,2.088896e+03
2.326697e+03,2.092418e+03
2.327661e+03,2.096700e+03
2.328625e+03,2.099059e+03
2.329590e+03,2.093023e+03
2.330554e+03,2.068041e+03
2.331518e+03,2.059221e+03
2.332482e+03,2.072264e+03
2.333447e+03,2.084509e+03
2.334411e+03,2.086868e+03
2.335375e+03,2.076424e+03
2.336339e+03,2.054347e+03
2.337303e+03,2.046069e+03
2.338268e+03,2.071436e+03
2.339232e+03,2.068901e+03
2.340196e+03,2.044429e+03
2.341160e+03,2.035853e+03
2.342125e+03,2.054245e+03
2.343089e+03,2.070094e+03
2.344053e+03,2.079974e+03
2.345017e+03,2.080873e+03
2.345982e+03,2.073723e+03
2.346946e+03,2.064179e+03
2.347910e+03,2.053948e+03
2.348874e+03,2.038729e+03
2.349839e+03,2.022586e+03
2.350803e+03,2.027288e+03
2.351767e+03,2.040977e+03
2.352731e+03,2.036269e+03
2.353696e+03,2.024369e+03
2.354660e+03,2.020565e+03
2.355624e+03,2.020695e+03
2.356588e+03,2.021346e+03
2.357552e+03,2.024371e+03
2.358517e+03,2.033914e+03
2.359481e+03,2.042563e+03
2.360445e+03,2.037347e+03
2.361409e+03,2.030940e+03
2.362374e+03,2.031333e+03
2.363338e+03,2.029372e+03
2.364302e+03,2.017232e+03
2.365266e+03,2.006385e+03
2.366230e+03,1.997659e+03
2.367195e+03,1.992919e+03
2.368159e+03,1.994132e+03
2.369123e+03,1.996637e+03
2.370087e+03,2.001796e+03
2.371052e+03,2.005185e+03
2.372016e+03,2.005234e+03
2.372980e+03,2.002093e+03
2.373944e+03,1.995181e+03
2.374909e+03,1.986699e+03
2.375873e+03,1.976895e+03
2.376837e+03,1.968709e+03
2.377801e+03,1.963330e+03
2.378766e+03,1.966485e+03
2.379730e+03,1.977773e+03
2.380694e+03,1.980841e+03
2.381658e+03,1.978682e+03
2.382623e+03,1.972124e+03
2.383587e+03,1.964549e+03
2.384551e+03,1.971123e+03
2.385515e+03,1.979613e+03
2.386479e+03,1.967445e+03
2.387444e+03,1.948784e+03
2.388408e+03,1.942717e+03
2.389372e+03,1.944881e+03
2.390336e+03,1.952010e+03
2.391301e+03,1.958956e+03
2.392265e+03,1.963036e+03
2.393229e+03,1.959584e+03
2.394193e+03,1.943183e+03
2.395157e+03,1.930330e+03
2.396122e+03,1.937306e+03
2.397086e+03,1.936600e+03
2.398050e+03,1.917751e+03
2.399014e+03,1.907565e+03
2.399979e+03,1.918774e+03
2.400943e+03,1.923171e+03
2.401907e+03,1.914961e+03
2.402871e+03,1.912604e+03
2.403836e+03,1.920852e+03
2.404800e+03,1.925993e+03
2.405764e+03,1.926375e+03
2.406728e+03,1.923792e+03
2.407693e+03,1.917264e+03
2.408657e+03,1.907019e+03
2.409621e+03,1.895964e+03
2.410585e+03,1.892464e+03
2.411550e+03,1.894660e+03
2.412514e+03,1.894991e+03
2.413478e+03,1.894557e+03
2.414442e+03,1.899574e+03
2.415406e+03,1.903412e+03
2.416371e+03,1.898433e+03
2.417335e+03,1.889179e+03
2.418299e+03,1.877015e+03
2.419263e+03,1.870745e+03
2.420228e+03,1.876427e+03
2.421192e+03,1.882627e+03
2.422156e+03,1.876472e+03
2.423120e+03,1.875295e+03
2.424084e+03,1.882194e+03
2.425049e+03,1.886361e+03
2.426013e+03,1.886223e+03
2.426977e+03,1.873264e+03
2.427941e+03,1.849002e+03
2.428906e+03,1.839316e+03
2.429870e+03,1.851703e+03
2.430834e+03,1.860575e+03
2.431798e+03,1.865350e+03
2.432763e+03,1.861796e+03
2.433727e+03,1.851195e+03
2.434691e+03,1.855941e+03
2.435655e+03,1.867693e+03
2.436620e+03,1.869717e+03
2.437584e+03,1.864702e+03
2.438548e+03,1.859365e+03
2.439512e+03,1.854059e+03
2.440477e+03,1.847957e+03
2.441441e+03,1.841169e+03
2.442405e+03,1.835960e+03
2.443369e+03,1.832931e+03
2.444333e+03,1.833021e+03
2.445298e+03,1.834353e+03
2.446262e+03,1.837754e+03
2.447226e+03,1.833970e+03
2.448190e+03,1.822313e+03
2.449155e+03,1.813007e+03
2.450119e+03,1.812370e+03
2.451083e+03,1.820161e+03
2.452047e+03,1.833918e+03
2.453011e+03,1.835542e+03
2.453976e+03,1.820875e+03
2.454940e+03,1.814234e+03
2.455904e+03,1.814087e+03
2.456868e+03,1.810364e+03
2.457833e+03,1.803705e+03
2.458797e+03,1.805519e+03
2.459761e+03,1.808708e+03
2.460725e+03,1.799290e+03
2.461690e+03,1.787886e+03
2.462654e+03,1.795094e+03
2.463618e+03,1.800626e+03
2.464582e+03,1.792009e+03
2.465547e+03,1.782960e+03
2.466511e+03,1.783335e+03
2.467475e+03,1.784990e+03
2.468439e+03,1.786072e+03
2.469404e+03,1.782936e+03
2.470368e+03,1.767857e+03
2.471332e+03,1.772102e+03
2.472296e+03,1.792137e+03
2.473260e+03,1.794225e+03
2.474225e+03,1.768524e+03
2.475189e+03,1.761757e+03
2.476153e+03,1.768863e+03
2.477117e+03,1.770505e+03
2.478082e+03,1.766923e+03
2.479046e+03,1.765978e+03
2.480010e+03,1.765607e+03
2.480974e+03,1.763081e+03
2.481938e+03,1.761810e+03
2.482903e+03,1.773434e+03
2.483867e+03,1.775605e+03
2.484831e+03,1.753930e+03
2.485795e+03,1.734222e+03
2.486760e+03,1.744414e+03
2.487724e+03,1.749782e+03
2.488688e+03,1.744864e+03
2.489652e+03,1.742889e+03
2.490617e+03,1.753105e+03
2.491581e+03,1.750108e+03
2.492545e+03,1.737987e+03
2.493509e+03,1.738972e+03
2.494474e+03,1.753388e+03
2.495438e+03,1.755844e+03
2.496402e+03,1.750000e+03
2.497366e+03,1.742159e+03
2.498331e+03,1.734821e+03
2.499295e+03,1.733315e+03
2.500259e+03,1.731392e+03
2.501223e+03,1.724659e+03
2.502188e+03,1.719779e+03
2.503152e+03,1.727152e+03
2.504116e+03,1.731511e+03
2.505080e+03,1.728461e+03
2.506044e+03,1.723602e+03
2.507009e+03,1.716530e+03
2.507973e+03,1.713431e+03
2.508937e+03,1.715332e+03
2.509901e+03,1.722979e+03
2.510865e+03,1.736903e+03
2.511830e+03,1.732877e+03
2.512794e+03,1.716922e+03
2.513758e+03,1.711841e+03
2.514722e+03,1.713799e+03
2.515687e+03,1.702468e+03
2.516651e+03,1.690612e+03
2.517615e+03,1.692763e+03
2.518579e+03,1.697498e+03
2.519544e+03,1.687984e+03
2.520508e+03,1.680636e+03
2.521472e+03,1.682131e+03
2.522436e+03,1.685053e+03
2.523401e+03,1.683990e+03
2.524365e+03,1.686625e+03
2.525329e+03,1.691587e+03
2.526293e+03,1.689566e+03
2.527258e+03,1.679188e+03
2.528222e+03,1.678263e+03
2.529186e+03,1.682640e+03
2.530150e+03,1.679140e+03
2.531115e+03,1.670417e+03
2.532079e+03,1.657537e+03
2.533043e+03,1.651870e+03
2.534007e+03,1.665477e+03
2.534971e+03,1.681106e+03
2.535936e+03,1.679315e+03
2.536900e+03,1.672721e+03
2.537864e+03,1.664752e+03
2.538828e+03,1.659239e+03
2.539792e+03,1.654914e+03
2.540757e+03,1.657669e+03
2.541721e+03,1.667307e+03
2.542685e+03,1.664631e+03
2.543649e+03,1.650507e+03
2.544614e+03,1.642571e+03
2.545578e+03,1.640274e+03
2.546542e+03,1.643142e+03
2.547506e+03,1.647606e+03
2.548471e+03,1.641999e+03
2.549435e+03,1.633898e+03
2.550399e+03,1.629242e+03
2.551363e+03,1.628248e+03
2.552328e+03,1.632995e+03
2.553292e+03,1.641418e+03
2.554256e+03,1.655652e+03
2.555220e+03,1.657823e+03
2.556185e+03,1.645190e+03
2.557149e+03,1.638948e+03
2.558113e+03,1.642372e+03
2.559077e+03,1.643237e+03
2.560042e+03,1.640818e+03
2.561006e+03,1.637134e+03
2.561970e+03,1.635983e+03
2.562934e+03,1.642623e+03
2.563898e+03,1.646977e+03
2.564863e+03,1.632521e+03
2.565827e+03,1.616901e+03
2.566791e+03,1.620096e+03
2.567755e+03,1.619418e+03
2.568719e+03,1.606542e+03
2.569684e+03,1.597969e+03
2.570648e+03,1.603255e+03
2.571612e+03,1.607514e+03
2.572576e+03,1.611885e+03
2.573541e+03,1.618144e+03
2.574505e+03,1.622997e+03
2.575469e+03,1.616486e+03
2.576433e+03,1.604281e+03
2.577398e+03,1.594725e+03
2.578362e+03,1.591311e+03
2.579326e+03,1.610121e+03
2.580290e+03,1.617053e+03
2.581255e+03,1.596535e+03
2.582219e+03,1.574349e+03
2.583183e+03,1.564896e+03
2.584147e+03,1.574504e+03
2.585112e+03,1.602421e+03
2.586076e+03,1.603506e+03
2.587040e+03,1.571441e+03
2.588004e+03,1.582107e+03
2.588969e+03,1.610784e+03
2.589933e+03,1.605234e+03
2.590897e+03,1.581883e+03
2.591861e+03,1.570893e+03
2.592825e+03,1.567675e+03
2.593790e+03,1.569692e+03
2.594754e+03,1.570163e+03
2.595718e+03,1.563434e+03
2.596682e+03,1.559060e+03
2.597646e+03,1.558306e+03
2.598611e+03,1.552655e+03
2.599575e+03,1.543670e+03
2.600539e+03,1.543871e+03
2.601503e+03,1.551814e+03
2.602468e+03,1.558103e+03
2.603432e+03,1.561193e+03
2.604396e+03,1.558947e+03
2.605360e+03,1.554225e+03
2.606325e+03,1.544986e+03
2.607289e+03,1.536873e+03
2.608253e+03,1.531424e+03
2.609217e+03,1.536338e+03
2.610182e+03,1.560083e+03
2.611146e+03,1.564590e+03
2.612110e+03,1.551624e+03
2.613074e+03,1.542285e+03
2.614039e+03,1.539528e+03
2.615003e+03,1.535778e+03
2.615967e+03,1.531017e+03
2.616931e+03,1.529770e+03
2.617896e+03,1.528451e+03
2.618860e+03,1.519092e+03
2.619824e+03,1.511281e+03
2.620788e+03,1.507829e+03
2.621752e+03,1.506834e+03
2.622717e+03,1.508516e+03
2.623681e+03,1.513946e+03
2.624645e+03,1.522152e+03
2.625609e+03,1.530200e+03
2.626573e+03,1.537063e+03
2.627538e+03,1.537144e+03
2.628502e+03,1.531832e+03
2.629466e+03,1.520952e+03
2.630430e+03,1.509580e+03
2.631395e+03,1.504278e+03
2.632359e+03,1.500831e+03
2.633323e+03,1.498225e+03
2.634287e+03,1.498444e+03
2.635252e+03,1.502255e+03
2.636216e+03,1.503885e+03
2.637180e+03,1.501672e+03
2.638144e+03,1.505315e+03
2.639109e+03,1.510256e+03
2.640073e+03,1.501870e+03
2.641037e+03,1.493363e+03
2.642001e+03,1.504137e+03
2.642966e+03,1.514295e+03
2.643930e+03,1.512696e+03
2.644894e+03,1.506195e+03
2.645858e+03,1.495276e+03
2.646823e+03,1.488951e+03
2.647787e+03,1.486309e+03
2.648751e+03,1.485484e+03
2.649715e+03,1.485377e+03
2.650679e+03,1.486257e+03
2.651644e+03,1.485385e+03
2.652608e+03,1.477049e+03
2.653572e+03,1.468507e+03
2.654536e+03,1.474281e+03
2.655500e+03,1.479608e+03
2.656465e+03,1.479758e+03
2.657429e+03,1.471703e+03
2.658393e+03,1.452911e+03
2.659357e+03,1.443195e+03
2.660322e+03,1.446609e+03
2.661286e+03,1.452201e+03
2.662250e+03,1.459720e+03
2.663214e+03,1.474778e+03
2.664179e+03,1.488115e+03
2.665143e+03,1.491152e+03
2.666107e+03,1.483288e+03
2.667071e+03,1.463310e+03
2.668036e+03,1.448632e+03
2.669000e+03,1.449835e+03
2.669964e+03,1.446661e+03
2.670928e+03,1.439703e+03
2.671893e+03,1.442825e+03
2.672857e+03,1.453943e+03
2.673821e+03,1.453454e+03
2.674785e+03,1.449105e+03
2.675750e+03,1.451060e+03
2.676714e+03,1.455319e+03
2.677678e+03,1.456867e+03
2.678642e+03,1.458701e+03
2.679606e+03,1.462125e+03
2.680571e+03,1.457034e+03
2.681535e+03,1.442467e+03
2.682499e+03,1.432159e+03
2.683463e+03,1.428934e+03
2.684427e+03,1.440258e+03
2.685392e+03,1.456727e+03
2.686356e+03,1.461603e+03
2.687320e+03,1.459311e+03
2.688284e+03,1.448938e+03
2.689249e+03,1.439948e+03
2.690213e+03,1.433713e+03
2.691177e+03,1.426422e+03
2.692141e+03,1.418186e+03
2.693106e+03,1.418306e+03
2.694070e+03,1.423909e+03
2.695034e+03,1.429266e+03
2.695998e+03,1.430147e+03
2.696963e+03,1.411591e+03
2.697927e+03,1.400140e+03
2.698891e+03,1.408109e+03
2.699855e+03,1.414092e+03
2.700820e+03,1.407850e+03
2.701784e+03,1.403004e+03
2.702748e+03,1.401206e+03
2.703712e+03,1.409647e+03
2.704677e+03,1.423197e+03
2.705641e+03,1.429911e+03
2.706605e+03,1.431085e+03
2.707569e+03,1.422662e+03
2.708533e+03,1.412831e+03
2.709498e+03,1.405166e+03
2.710462e+03,1.394702e+03
2.711426e+03,1.377192e+03
2.712390e+03,1.381338e+03
2.713354e+03,1.399361e+03
2.714319e+03,1.392836e+03
2.715283e+03,1.374469e+03
2.716247e+03,1.378930e+03
2.717211e+03,1.391612e+03
2.718176e+03,1.402615e+03
2.719140e+03,1.408029e+03
2.720104e+03,1.403709e+03
2.721068e+03,1.393491e+03
2.722033e+03,1.379300e+03
2.722997e+03,1.379840e+03
2.723961e+03,1.390480e+03
2.724925e+03,1.396105e+03
2.725890e+03,1.395036e+03
2.726854e+03,1.379512e+03
2.727818e+03,1.366632e+03
2.728782e+03,1.363165e+03
2.729747e+03,1.367505e+03
2.730711e+03,1.386515e+03
2.731675e+03,1.389624e+03
2.732639e+03,1.381203e+03
2.733604e+03,1.383185e+03
2.734568e+03,1.390293e+03
2.735532e+03,1.382546e+03
2.736496e+03,1.374438e+03
2.737460e+03,1.378758e+03
2.738425e+03,1.381336e+03
2.739389e+03,1.371833e+03
2.740353e+03,1.364688e+03
2.741317e+03,1.362758e+03
2.742281e+03,1.360483e+03
2.743246e+03,1.359064e+03
2.744210e+03,1.363546e+03
2.745174e+03,1.366319e+03
2.746138e+03,1.357542e+03
2.747103e+03,1.351359e+03
2.748067e+03,1.354122e+03
2.749031e+03,1.357396e+03
2.749995e+03,1.356910e+03
2.750960e+03,1.351714e+03
2.751924e+03,1.345080e+03
2.752888e+03,1.348664e+03
2.753852e+03,1.355056e+03
2.754817e+03,1.345314e+03
2.755781e+03,1.335802e+03
2.756745e+03,1.335707e+03
2.757709e+03,1.336346e+03
2.758674e+03,1.333463e+03
2.759638e+03,1.329805e+03
2.760602e+03,1.326773e+03
2.761566e+03,1.327062e+03
2.762531e+03,1.331189e+03
2.763495e+03,1.339203e+03
2.764459e+03,1.345025e+03
2.765423e+03,1.341385e+03
2.766387e+03,1.339777e+03
2.767352e+03,1.343381e+03
2.768316e+03,1.337942e+03
2.769280e+03,1.320937e+03
2.770244e+03,1.322461e+03
2.771208e+03,1.334332e+03
2.772173e+03,1.335064e+03
2.773137e+03,1.332633e+03
2.774101e+03,1.341391e+03
2.775065e+03,1.341580e+03
2.776030e+03,1.320157e+03
2.776994e+03,1.311541e+03
2.777958e+03,1.315069e+03
2.778922e+03,1.318628e+03
2.779887e+03,1.321069e+03
2.780851e+03,1.322401e+03
2.781815e+03,1.321346e+03
2.782779e+03,1.319354e+03
2.783744e+03,1.314409e+03
2.784708e+03,1.302098e+03
2.785672e+03,1.293266e+03
2.786636e+03,1.288454e+03
2.787601e+03,1.282636e+03
2.788565e+03,1.279314e+03
2.789529e+03,1.291630e+03
2.790493e+03,1.304969e+03
2.791458e+03,1.304471e+03
2.792422e+03,1.301410e+03
2.793386e+03,1.300291e+03
2.794350e+03,1.302962e+03
2.795314e+03,1.308893e+03
2.796279e+03,1.310624e+03
2.797243e+03,1.307122e+03
2.798207e+03,1.298685e+03
2.799171e+03,1.292386e+03
2.800135e+03,1.300091e+03
2.801100e+03,1.299852e+03
2.802064e+03,1.286703e+03
2.803028e+03,1.283113e+03
2.803992e+03,1.287359e+03
2.804957e+03,1.279703e+03
2.805921e+03,1.270363e+03
2.806885e+03,1.284420e+03
2.807849e+03,1.293497e+03
2.808814e+03,1.283556e+03
2.809778e+03,1.276052e+03
2.810742e+03,1.284037e+03
2.811706e+03,1.279166e+03
2.812671e+03,1.266656e+03
2.813635e+03,1.272415e+03
2.814599e+03,1.285362e+03
2.815563e+03,1.285754e+03
2.816528e+03,1.281407e+03
2.817492e+03,1.272438e+03
2.818456e+03,1.270682e+03
2.819420e+03,1.274902e+03
2.820385e+03,1.275855e+03
2.821349e+03,1.274017e+03
2.822313e+03,1.268869e+03
2.823277e+03,1.264747e+03
2.824241e+03,1.264673e+03
2.825206e+03,1.261641e+03
2.826170e+03,1.250523e+03
2.827134e+03,1.249881e+03
2.828098e+03,1.259387e+03
2.829063e+03,1.264772e+03
2.830027e+03,1.266375e+03
2.830991e+03,1.265967e+03
2.831955e+03,1.268367e+03
2.832919e+03,1.278141e+03
2.833884e+03,1.281862e+03
2.834848e+03,1.277560e+03
2.835812e+03,1.268789e+03
2.836776e+03,1.257636e+03
2.837741e+03,1.246128e+03
2.838705e+03,1.237101e+03
2.839669e+03,1.231043e+03
2.840633e+03,1.234728e+03
2.841598e+03,1.253334e+03
2.842562e+03,1.259385e+03
2.843526e+03,1.246845e+03
2.844490e+03,1.249421e+03
2.845455e+03,1.258291e+03
2.846419e+03,1.259571e+03
2.847383e+03,1.257862e+03
2.848347e+03,1.258738e+03
2.849312e+03,1.254106e+03
2.850276e+03,1.242600e+03
2.851240e+03,1.235026e+03
2.852204e+03,1.231381e+03
2.853168e+03,1.233961e+03
2.854133e+03,1.240128e+03
2.855097e+03,1.250747e+03
2.856061e+03,1.257320e+03
2.857025e+03,1.256044e+03
2.857990e+03,1.255901e+03
2.858954e+03,1.260179e+03
2.859918e+03,1.255019e+03
2.860882e+03,1.247454e+03
2.861846e+03,1.249879e+03
2.862811e+03,1.251241e+03
2.863775e+03,1.238967e+03
2.864739e+03,1.230015e+03
2.865703e+03,1.228919e+03
2.866668e+03,1.231492e+03
2.867632e+03,1.234348e+03
2.868596e+03,1.227090e+03
2.869560e+03,1.219707e+03
2.870525e+03,1.229907e+03
2.871489e+03,1.238197e+03
2.872453e+03,1.239142e+03
2.873417e+03,1.237495e+03
2.874382e+03,1.234506e+03
2.875346e+03,1.238134e+03
2.876310e+03,1.241509e+03
2.877274e+03,1.227725e+03
2.878239e+03,1.216694e+03
2.879203e+03,1.214730e+03
2.880167e+03,1.216313e+03
2.881131e+03,1.221543e+03
2.882095e+03,1.230062e+03
2.883060e+03,1.236378e+03
2.884024e+03,1.229683e+03
2.884988e+03,1.223445e+03
2.885952e+03,1.230085e+03
2.886917e+03,1.239165e+03
2.887881e+03,1.249383e+03
2.888845e+03,1.242791e+03
2.889809e+03,1.228873e+03
2.890773e+03,1.227644e+03
2.891738e+03,1.231217e+03
2.892702e+03,1.235831e+03
2.893666e+03,1.242627e+03
2.894630e+03,1.250846e+03
2.895595e+03,1.237543e+03
2.896559e+03,1.211774e+03
2.897523e+03,1.220249e+03
2.898487e+03,1.240097e+03
2.899452e+03,1.253738e+03
2.900416e+03,1.251298e+03
2.901380e+03,1.232938e+03
2.902344e+03,1.215473e+03
2.903309e+03,1.202861e+03
2.904273e+03,1.205244e+03
2.905237e+03,1.209192e+03
2.906201e+03,1.195406e+03
2.907166e+03,1.198271e+03
2.908130e+03,1.232569e+03
2.909094e+03,1.251049e+03
2.910058e+03,1.244699e+03
2.911022e+03,1.229308e+03
2.911987e+03,1.212672e+03
2.912951e+03,1.200712e+03
2.913915e+03,1.197502e+03
2.914879e+03,1.209078e+03
2.915844e+03,1.219104e+03
2.916808e+03,1.224460e+03
2.917772e+03,1.216940e+03
2.918736e+03,1.203277e+03
2.919700e+03,1.189543e+03
2.920665e+03,1.183229e+03
2.921629e+03,1.199672e+03
2.922593e+03,1.199506e+03
2.923557e+03,1.186219e+03
2.924522e+03,1.181597e+03
2.925486e+03,1.184891e+03
2.926450e+03,1.198762e+03
2.927414e+03,1.206178e+03
2.928379e+03,1.194649e+03
2.929343e+03,1.203786e+03
2.930307e+03,1.227688e+03
2.931271e+03,1.212574e+03
2.932236e+03,1.181351e+03
2.933200e+03,1.172323e+03
2.934164e+03,1.168292e+03
2.935128e+03,1.160479e+03
2.936093e+03,1.162699e+03
2.937057e+03,1.174618e+03
2.938021e+03,1.183716e+03
2.938985e+03,1.189626e+03
2.939949e+03,1.189645e+03
2.940914e+03,1.188139e+03
2.941878e+03,1.187535e+03
2.942842e+03,1.181836e+03
2.943806e+03,1.169330e+03
2.944771e+03,1.163305e+03
2.945735e+03,1.165434e+03
2.946699e+03,1.184516e+03
2.947663e+03,1.188546e+03
2.948627e+03,1.167553e+03
2.949592e+03,1.153966e+03
2.950556e+03,1.155236e+03
2.951520e+03,1.166208e+03
2.952484e+03,1.179467e+03
2.953449e+03,1.189944e+03
2.954413e+03,1.189973e+03
2.955377e+03,1.177665e+03
2.956341e+03,1.190482e+03
2.957306e+03,1.223286e+03
2.958270e+03,1.226424e+03
2.959234e+03,1.205267e+03
2.960198e+03,1.167698e+03
2.961163e+03,1.147484e+03
2.962127e+03,1.159161e+03
2.963091e+03,1.163303e+03
2.964055e+03,1.158468e+03
2.965020e+03,1.161238e+03
2.965984e+03,1.156828e+03
2.966948e+03,1.130143e+03
2.967912e+03,1.122432e+03
2.968876e+03,1.159474e+03
2.969841e+03,1.166370e+03
2.970805e+03,1.154835e+03
2.971769e+03,1.153964e+03
2.972733e+03,1.150146e+03
2.973698e+03,1.131217e+03
2.974662e+03,1.125498e+03
2.975626e+03,1.141643e+03
2.976590e+03,1.150483e+03
2.977554e+03,1.154115e+03
2.978519e+03,1.155535e+03
2.979483e+03,1.151990e+03
2.980447e+03,1.142134e+03
2.981411e+03,1.127960e+03
2.982376e+03,1.114271e+03
2.983340e+03,1.124821e+03
2.984304e+03,1.139697e+03
2.985268e+03,1.140061e+03
2.986233e+03,1.131814e+03
2.987197e+03,1.115297e+03
2.988161e+03,1.109075e+03
2.989125e+03,1.112532e+03
2.990090e+03,1.120822e+03
2.991054e+03,1.120202e+03
2.992018e+03,1.098816e+03
2.992982e+03,1.080037e+03
2.993947e+03,1.073354e+03
2.994911e+03,1.088734e+03
2.995875e+03,1.113002e+03
2.996839e+03,1.123289e+03
2.997803e+03,1.120314e+03
2.998768e+03,1.105512e+03
2.999732e+03,1.094375e+03
3.000696e+03,1.092153e+03
3.001660e+03,1.098747e+03
3.002625e+03,1.109247e+03
3.003589e+03,1.120646e+03
3.004553e+03,1.123888e+03
3.005517e+03,1.115314e+03
3.006481e+03,1.118447e+03
3.007446e+03,1.125156e+03
3.008410e+03,1.095717e+03
3.009374e+03,1.079582e+03
3.010338e+03,1.107406e+03
3.011303e+03,1.128275e+03
3.012267e+03,1.123558e+03
3.013231e+03,1.104699e+03
3.014195e+03,1.088351e+03
3.015160e+03,1.110686e+03
3.016124e+03,1.120593e+03
3.017088e+03,1.101172e+03
3.018052e+03,1.102379e+03
3.019017e+03,1.126083e+03
3.019981e+03,1.124629e+03
3.020945e+03,1.113798e+03
3.021909e+03,1.105898e+03
3.022874e+03,1.104881e+03
3.023838e+03,1.109795e+03
3.024802e+03,1.129133e+03
3.025766e+03,1.149381e+03
3.026730e+03,1.131453e+03
3.027695e+03,1.107735e+03
3.028659e+03,1.093353e+03
3.029623e+03,1.076641e+03
3.030587e+03,1.059299e+03
3.031552e+03,1.065439e+03
3.032516e+03,1.078396e+03
3.033480e+03,1.083937e+03
3.034444e+03,1.085142e+03
3.035408e+03,1.084413e+03
3.036373e+03,1.090532e+03
3.037337e+03,1.100392e+03
3.038301e+03,1.114268e+03
3.039265e+03,1.113797e+03
3.040230e+03,1.070749e+03
3.041194e+03,1.059669e+03
3.042158e+03,1.075222e+03
3.043122e+03,1.084598e+03
3.044087e+03,1.087969e+03
3.045051e+03,1.084424e+03
3.046015e+03,1.082532e+03
3.046979e+03,1.085410e+03
3.047944e+03,1.055539e+03
3.048908e+03,1.029415e+03
3.049872e+03,1.064030e+03
3.050836e+03,1.101121e+03
3.051801e+03,1.101626e+03
3.052765e+03,1.093406e+03
3.053729e+03,1.081452e+03
3.054693e+03,1.081215e+03
3.055657e+03,1.088314e+03
3.056622e+03,1.098117e+03
3.057586e+03,1.098196e+03
3.058550e+03,1.086275e+03
3.059514e+03,1.081074e+03
3.060479e+03,1.083969e+03
3.061443e+03,1.099121e+03
3.062407e+03,1.102263e+03
3.063371e+03,1.089160e+03
3.064335e+03,1.090776e+03
3.065300e+03,1.103457e+03
3.066264e+03,1.087869e+03
3.067228e+03,1.075987e+03
3.068192e+03,1.091098e+03
3.069157e+03,1.085405e+03
3.070121e+03,1.064153e+03
3.071085e+03,1.076149e+03
3.072049e+03,1.098265e+03
3.073014e+03,1.097547e+03
3.073978e+03,1.092509e+03
3.074942e+03,1.085884e+03
3.075906e+03,1.077668e+03
3.076871e+03,1.071031e+03
3.077835e+03,1.070556e+03
3.078799e+03,1.068454e+03
3.079763e+03,1.057118e+03
3.080728e+03,1.063881e+03
3.081692e+03,1.081354e+03
3.082656e+03,1.070100e+03
3.083620e+03,1.061229e+03
3.084584e+03,1.071863e+03
3.085549e+03,1.097709e+03
3.086513e+03,1.133866e+03
3.087477e+03,1.087386e+03
3.088441e+03,1.039378e+03
3.089406e+03,1.094633e+03
3.090370e+03,1.112930e+03
3.091334e+03,1.078823e+03
3.092298e+03,1.071509e+03
3.093262e+03,1.082322e+03
3.094227e+03,1.090309e+03
3.095191e+03,1.087593e+03
3.096155e+03,1.069768e+03
3.097119e+03,1.056396e+03
3.098084e+03,1.054417e+03
3.099048e+03,1.073333e+03
3.100012e+03,1.097394e+03
3.100976e+03,1.120745e+03
3.101941e+03,1.107581e+03
3.102905e+03,1.067058e+03
3.103869e+03,1.068681e+03
3.104833e+03,1.081304e+03
3.105798e+03,1.084782e+03
3.106762e+03,1.071828e+03
3.107726e+03,1.046892e+03
3.108690e+03,1.060190e+03
3.109655e+03,1.084834e+03
3.110619e+03,1.093358e+03
3.111583e+03,1.083908e+03
3.112547e+03,1.063255e+03
3.113511e+03,1.062373e+03
3.114476e+03,1.073012e+03
3.115440e+03,1.080256e+03
3.116404e+03,1.081669e+03
3.117368e+03,1.076366e+03
3.118333e+03,1.071806e+03
3.119297e+03,1.069355e+03
3.120261e+03,1.070938e+03
3.121225e+03,1.071362e+03
3.122189e+03,1.067079e+03
3.123154e+03,1.067608e+03
3.124118e+03,1.070527e+03
3.125082e+03,1.067848e+03
3.126046e+03,1.064362e+03
3.127011e+03,1.061416e+03
3.127975e+03,1.070315e+03
3.128939e+03,1.085980e+03
3.129903e+03,1.086854e+03
3.130868e+03,1.079150e+03
3.131832e+03,1.058647e+03
3.132796e+03,1.048739e+03
3.133760e+03,1.051190e+03
3.134725e+03,1.065442e+03
3.135689e+03,1.071038e+03
3.136653e+03,1.046708e+03
3.137617e+03,1.046369e+03
3.138582e+03,1.086621e+03
3.139546e+03,1.104416e+03
3.140510e+03,1.105389e+03
3.141474e+03,1.100041e+03
3.142438e+03,1.083168e+03
3.143403e+03,1.059671e+03
3.144367e+03,1.066899e+03
3.145331e+03,1.088159e+03
3.146295e+03,1.107467e+03
3.147260e+03,1.101258e+03
3.148224e+03,1.061812e+03
3.149188e+03,1.075062e+03
3.150152e+03,1.093227e+03
3.151116e+03,1.047647e+03
3.152081e+03,1.015833e+03
3.153045e+03,1.029698e+03
3.154009e+03,1.048887e+03
3.154973e+03,1.066737e+03
3.155938e+03,1.077103e+03
3.156902e+03,1.071466e+03
3.157866e+03,1.049739e+03
3.158830e+03,1.044303e+03
3.159795e+03,1.051537e+03
3.160759e+03,1.047959e+03
3.161723e+03,1.053060e+03
3.162687e+03,1.094583e+03
3.163652e+03,1.083977e+03
3.164616e+03,1.051703e+03
3.165580e+03,1.055681e+03
3.166544e+03,1.068451e+03
3.167509e+03,1.077140e+03
3.168473e+03,1.090562e+03
3.169437e+03,1.103516e+03
3.170401e+03,1.091428e+03
3.171365e+03,1.078695e+03
3.172330e+03,1.076735e+03
3.173294e+03,1.073104e+03
3.174258e+03,1.067612e+03
3.175222e+03,1.060448e+03
3.176187e+03,1.059778e+03
3.177151e+03,1.075000e+03
3.178115e+03,1.078978e+03
3.179079e+03,1.071800e+03
3.180043e+03,1.052221e+03
3.181008e+03,1.051478e+03
3.181972e+03,1.078902e+03
3.182936e+03,1.083506e+03
3.183900e+03,1.069591e+03
3.184865e+03,1.064562e+03
3.185829e+03,1.059809e+03
3.186793e+03,1.049746e+03
3.187757e+03,1.056898e+03
3.188722e+03,1.071976e+03
3.189686e+03,1.069658e+03
3.190650e+03,1.083883e+03
3.191614e+03,1.123105e+03
3.192579e+03,1.103614e+03
3.193543e+03,1.052063e+03
3.194507e+03,1.071618e+03
3.195471e+03,1.102926e+03
3.196436e+03,1.122431e+03
3.197400e+03,1.105328e+03
3.198364e+03,1.083031e+03
3.199328e+03,1.110843e+03
3.200292e+03,1.123819e+03
3.201257e+03,0.000000e+00
3.202221e+03,0.000000e+00
3.203185e+03,0.000000e+00
3.204149e+03,0.000000e+00
3.205114e+03,0.000000e+00
3.206078e+03,0.000000e+00
3.207042e+03,0.000000e+00
3.208006e+03,0.000000e+00
3.208970e+03,0.000000e+00
3.209935e+03,0.000000e+00
3.210899e+03,0.000000e+00
3.211863e+03,0.000000e+00
3.212827e+03,0.000000e+00
3.213792e+03,0.000000e+00
3.214756e+03,0.000000e+00
3.215720e+03,0.000000e+00
3.216684e+03,0.000000e+00
3.217649e+03,0.000000e+00
3.218613e+03,0.000000e+00
3.219577e+03,0.000000e+00
3.220541e+03,0.000000e+00
3.221506e+03,0.000000e+00
3.222470e+03,0.000000e+00
3.223434e+03,0.000000e+00
3.224398e+03,0.000000e+00
3.225363e+03,0.000000e+00
3.226327e+03,0.000000e+00
3.227291e+03,0.000000e+00
3.228255e+03,0.000000e+00
3.229219e+03,0.000000e+00
3.230184e+03,0.000000e+00
3.231148e+03,0.000000e+00
3.232112e+03,0.000000e+00
3.233076e+03,0.000000e+00
3.234041e+03,0.000000e+00
3.235005e+03,0.000000e+00
3.235969e+03,0.000000e+00
3.236933e+03,0.000000e+00
3.237897e+03,0.000000e+00
3.238862e+03,0.000000e+00
3.239826e+03,0.000000e+00
3.240790e+03,0.000000e+00
3.241754e+03,0.000000e+00
3.242719e+03,0.000000e+00
3.243683e+03,0.000000e+00
3.244647e+03,0.000000e+00
3.245611e+03,0.000000e+00
3.246576e+03,0.000000e+00
3.247540e+03,0.000000e+00
3.248504e+03,0.000000e+00
3.249468e+03,0.000000e+00
3.250433e+03,0.000000e+00
3.251397e+03,0.000000e+00
3.252361e+03,0.000000e+00
3.253325e+03,0.000000e+00
3.254290e+03,0.000000e+00
3.255254e+03,0.000000e+00
3.256218e+03,0.000000e+00
3.257182e+03,0.000000e+00
3.258146e+03,0.000000e+00
3.259111e+03,0.000000e+00
3.260075e+03,0.000000e+00
3.261039e+03,0.000000e+00
3.262003e+03,0.000000e+00
3.262968e+03,0.000000e+00
3.263932e+03,0.000000e+00
3.264896e+03,0.000000e+00
3.265860e+03,0.000000e+00
3.266824e+03,0.000000e+00
3.267789e+03,0.000000e+00
3.268753e+03,0.000000e+00
3.269717e+03,0.000000e+00
3.270681e+03,0.000000e+00
3.271646e+03,0.000000e+00
3.272610e+03,0.000000e+00
3.273574e+03,0.000000e+00
3.274538e+03,0.000000e+00
3.275503e+03,0.000000e+00
3.276467e+03,0.000000e+00
3.277431e+03,0.000000e+00
3.278395e+03,0.000000e+00
3.279360e+03,0.000000e+00
3.280324e+03,0.000000e+00
3.281288e+03,0.000000e+00
3.282252e+03,0.000000e+00
3.283217e+03,0.000000e+00
3.284181e+03,0.000000e+00
3.285145e+03,0.000000e+00
3.286109e+03,0.000000e+00
3.287073e+03,0.000000e+00
3.288038e+03,0.000000e+00
3.289002e+03,0.000000e+00
3.289966e+03,0.000000e+00
3.290930e+03,0.000000e+00
3.291895e+03,0.000000e+00
3.292859e+03,0.000000e+00
3.293823e+03,0.000000e+00
3.294787e+03,0.000000e+00
3.295751e+03,0.000000e+00
3.296716e+03,0.000000e+00
3.297680e+03,0.000000e+00
3.298644e+03,0.000000e+00
3.299608e+03,0.000000e+00
3.300573e+03,0.000000e+00
3.301537e+03,0.000000e+00
3.302501e+03,0.000000e+00
3.303465e+03,0.000000e+00
3.304430e+03,0.000000e+00
3.305394e+03,0.000000e+00
3.306358e+03,0.000000e+00
3.307322e+03,0.000000e+00
3.308287e+03,0.000000e+00
3.309251e+03,0.000000e+00
3.310215e+03,0.000000e+00
3.311179e+03,0.000000e+00
3.312144e+03,0.000000e+00
3.313108e+03,0.000000e+00
3.314072e+03,0.000000e+00
3.315036e+03,0.000000e+00
3.316000e+03,0.000000e+00
3.316965e+03,0.000000e+00
3.317929e+03,0.000000e+00
3.318893e+03,0.000000e+00
3.319857e+03,0.000000e+00
3.320822e+03,0.000000e+00
3.321786e+03,0.000000e+00
3.322750e+03,0.000000e+00
3.323714e+03,0.000000e+00
3.324678e+03,0.000000e+00
3.325643e+03,0.000000e+00
3.326607e+03,0.000000e+00
3.327571e+03,0.000000e+00
3.328535e+03,0.000000e+00
3.329500e+03,0.000000e+00
3.330464e+03,0.000000e+00
3.331428e+03,0.000000e+00
3.332392e+03,0.000000e+00
3.333357e+03,0.000000e+00
3.334321e+03,0.000000e+00
3.335285e+03,0.000000e+00
3.336249e+03,0.000000e+00
3.337214e+03,0.000000e+00
3.338178e+03,0.000000e+00
3.339142e+03,0.000000e+00
3.340106e+03,0.000000e+00
3.341071e+03,0.000000e+00
3.342035e+03,0.000000e+00
3.342999e+03,0.000000e+00
3.343963e+03,0.000000e+00
3.344927e+03,0.000000e+00
3.345892e+03,0.000000e+00
3.346856e+03,0.000000e+00
3.347820e+03,0.000000e+00
3.348784e+03,0.000000e+00
3.349749e+03,0.000000e+00
3.350713e+03,0.000000e+00
3.351677e+03,0.000000e+00
3.352641e+03,0.000000e+00
3.353605e+03,0.000000e+00
3.354570e+03,0.000000e+00
3.355534e+03,0.000000e+00
3.356498e+03,0.000000e+00
3.357462e+03,0.000000e+00
3.358427e+03,0.000000e+00
3.359391e+03,0.000000e+00
3.360355e+03,0.000000e+00
3.361319e+03,0.000000e+00
3.362284e+03,0.000000e+00
3.363248e+03,0.000000e+00
3.364212e+03,0.000000e+00
3.365176e+03,0.000000e+00
3.366141e+03,0.000000e+00
3.367105e+03,0.000000e+00
3.368069e+03,0.000000e+00
3.369033e+03,0.000000e+00
3.369998e+03,0.000000e+00
3.370962e+03,0.000000e+00
3.371926e+03,0.000000e+00
3.372890e+03,0.000000e+00
3.373854e+03,0.000000e+00
3.374819e+03,0.000000e+00
3.375783e+03,0.000000e+00
3.376747e+03,0.000000e+00
3.377711e+03,0.000000e+00
3.378676e+03,0.000000e+00
3.379640e+03,0.000000e+00
3.380604e+03,0.000000e+00
3.381568e+03,0.000000e+00
3.382532e+03,0.000000e+00
3.383497e+03,0.000000e+00
3.384461e+03,0.000000e+00
3.385425e+03,0.000000e+00
3.386389e+03,0.000000e+00
3.387354e+03,0.000000e+00
3.388318e+03,0.000000e+00
3.389282e+03,0.000000e+00
3.390246e+03,0.000000e+00
3.391211e+03,0.000000e+00
3.392175e+03,0.000000e+00
3.393139e+03,0.000000e+00
3.394103e+03,0.000000e+00
3.395068e+03,0.000000e+00
3.396032e+03,0.000000e+00
3.396996e+03,0.000000e+00
3.397960e+03,0.000000e+00
3.398925e+03,0.000000e+00
3.399889e+03,0.000000e+00
3.400853e+03,0.000000e+00
3.401817e+03,0.000000e+00
3.402781e+03,0.000000e+00
3.403746e+03,0.000000e+00
3.404710e+03,0.000000e+00
3.405674e+03,0.000000e+00
3.406638e+03,0.000000e+00
3.407603e+03,0.000000e+00
3.408567e+03,0.000000e+00
3.409531e+03,0.000000e+00
3.410495e+03,0.000000e+00
3.411459e+03,0.000000e+00
3.412424e+03,0.000000e+00
3.413388e+03,0.000000e+00
3.414352e+03,0.000000e+00
3.415316e+03,0.000000e+00
3.416281e+03,0.000000e+00
3.417245e+03,0.000000e+00
3.418209e+03,0.000000e+00
3.419173e+03,0.000000e+00
3.420138e+03,0.000000e+00
3.421102e+03,0.000000e+00
3.422066e+03,0.000000e+00
3.423030e+03,0.000000e+00
3.423995e+03,0.000000e+00
3.424959e+03,0.000000e+00
3.425923e+03,0.000000e+00
3.426887e+03,0.000000e+00
3.427852e+03,0.000000e+00
3.428816e+03,0.000000e+00
3.429780e+03,0.000000e+00
3.430744e+03,0.000000e+00
3.431708e+03,0.000000e+00
3.432673e+03,0.000000e+00
3.433637e+03,0.000000e+00
3.434601e+03,0.000000e+00
3.435565e+03,0.000000e+00
3.436530e+03,0.000000e+00
3.437494e+03,0.000000e+00
3.438458e+03,0.000000e+00
3.439422e+03,0.000000e+00
3.440386e+03,0.000000e+00
3.441351e+03,0.000000e+00
3.442315e+03,0.000000e+00
3.443279e+03,0.000000e+00
3.444243e+03,0.000000e+00
3.445208e+03,0.000000e+00
3.446172e+03,0.000000e+00
3.447136e+03,0.000000e+00
3.448100e+03,0.000000e+00
3.449065e+03,0.000000e+00
3.450029e+03,0.000000e+00
3.450993e+03,0.000000e+00
3.451957e+03,0.000000e+00
3.452922e+03,0.000000e+00
3.453886e+03,0.000000e+00
3.454850e+03,0.000000e+00
3.455814e+03,0.000000e+00
3.456779e+03,0.000000e+00
3.457743e+03,0.000000e+00
3.458707e+03,0.000000e+00
3.459671e+03,0.000000e+00
3.460635e+03,0.000000e+00
3.461600e+03,0.000000e+00
3.462564e+03,0.000000e+00
3.463528e+03,0.000000e+00
3.464492e+03,0.000000e+00
3.465457e+03,0.000000e+00
3.466421e+03,0.000000e+00
3.467385e+03,0.000000e+00
3.468349e+03,0.000000e+00
3.469313e+03,0.000000e+00
3.470278e+03,0.000000e+00
3.471242e+03,0.000000e+00
3.472206e+03,0.000000e+00
3.473170e+03,0.000000e+00
3.474135e+03,0.000000e+00
3.475099e+03,0.000000e+00
3.476063e+03,0.000000e+00
3.477027e+03,0.000000e+00
3.477992e+03,0.000000e+00
3.478956e+03,0.000000e+00
3.479920e+03,0.000000e+00
3.480884e+03,0.000000e+00
3.481849e+03,0.000000e+00
3.482813e+03,0.000000e+00
3.483777e+03,0.000000e+00
3.484741e+03,0.000000e+00
3.485706e+03,0.000000e+00
3.486670e+03,0.000000e+00
3.487634e+03,0.000000e+00
3.488598e+03,0.000000e+00
3.489563e+03,0.000000e+00
3.490527e+03,0.000000e+00
3.491491e+03,0.000000e+00
3.492455e+03,0.000000e+00
3.493419e+03,0.000000e+00
3.494384e+03,0.000000e+00
3.495348e+03,0.000000e+00
3.496312e+03,0.000000e+00
3.497276e+03,0.000000e+00
3.498240e+03,0.000000e+00
3.499205e+03,0.000000e+00
3.500169e+03,0.000000e+00
