9.931763e+01,0.000000e+00
1.002819e+02,0.000000e+00
1.012461e+02,0.000000e+00
1.022103e+02,0.000000e+00
1.031746e+02,0.000000e+00
1.041388e+02,0.000000e+00
1.051030e+02,0.000000e+00
1.060673e+02,0.000000e+00
1.070315e+02,0.000000e+00
1.079957e+02,0.000000e+00
1.089600e+02,0.000000e+00
1.099242e+02,0.000000e+00
1.108884e+02,0.000000e+00
1.118527e+02,0.000000e+00
1.128169e+02,0.000000e+00
1.137811e+02,0.000000e+00
1.147454e+02,0.000000e+00
1.157096e+02,0.000000e+00
1.166738e+02,0.000000e+00
1.176381e+02,0.000000e+00
1.186023e+02,0.000000e+00
1.195665e+02,0.000000e+00
1.205308e+02,0.000000e+00
1.214950e+02,0.000000e+00
1.224592e+02,0.000000e+00
1.234235e+02,0.000000e+00
1.243877e+02,0.000000e+00
1.253519e+02,0.000000e+00
1.263162e+02,0.000000e+00
1.272804e+02,0.000000e+00
1.282446e+02,0.000000e+00
1.292089e+02,0.000000e+00
1.301731e+02,0.000000e+00
1.311373e+02,0.000000e+00
1.321016e+02,0.000000e+00
1.330658e+02,0.000000e+00
1.340300e+02,0.000000e+00
1.349943e+02,0.000000e+00
1.359585e+02,0.000000e+00
1.369227e+02,0.000000e+00
1.378870e+02,0.000000e+00
1.388512e+02,0.000000e+00
1.398154e+02,0.000000e+00
1.407797e+02,0.000000e+00
1.417439e+02,0.000000e+00
1.427081e+02,0.000000e+00
1.436724e+02,0.000000e+00
1.446366e+02,0.000000e+00
1.456008e+02,0.000000e+00
1.465651e+02,0.000000e+00
1.475293e+02,0.000000e+00
1.484935e+02,0.000000e+00
1.494578e+02,0.000000e+00
1.504220e+02,0.000000e+00
1.513862e+02,0.000000e+00
1.523505e+02,0.000000e+00
1.533147e+02,0.000000e+00
1.542789e+02,0.000000e+00
1.552432e+02,0.000000e+00
1.562074e+02,0.000000e+00
1.571716e+02,0.000000e+00
1.581359e+02,0.000000e+00
1.591001e+02,0.000000e+00
1.600643e+02,0.000000e+00
1.610286e+02,0.000000e+00
1.619928e+02,0.000000e+00
1.629570e+02,0.000000e+00
1.639213e+02,0.000000e+00
1.648855e+02,0.000000e+00
1.658497e+02,0.000000e+00
1.668140e+02,0.000000e+00
1.677782e+02,0.000000e+00
1.687424e+02,0.000000e+00
1.697067e+02,0.000000e+00
1.706709e+02,0.000000e+00
1.716351e+02,0.000000e+00
1.725994e+02,0.000000e+00
1.735636e+02,0.000000e+00
1.745278e+02,0.000000e+00
1.754921e+02,0.000000e+00
1.764563e+02,0.000000e+00
1.774205e+02,0.000000e+00
1.783848e+02,0.000000e+00
1.793490e+02,0.000000e+00
1.803132e+02,0.000000e+00
1.812775e+02,0.000000e+00
1.822417e+02,0.000000e+00
1.832059e+02,0.000000e+00
1.841702e+02,0.000000e+00
1.851344e+02,0.000000e+00
1.860986e+02,0.000000e+00
1.870629e+02,0.000000e+00
1.880271e+02,0.000000e+00
1.889913e+02,0.000000e+00
1.899556e+02,0.000000e+00
1.909198e+02,0.000000e+00
1.918840e+02,0.000000e+00
1.928483e+02,0.000000e+00
1.938125e+02,0.000000e+00
1.947767e+02,0.000000e+00
1.957410e+02,0.000000e+00
1.967052e+02,0.000000e+00
1.976694e+02,0.000000e+00
1.986337e+02,0.000000e+00
1.995979e+02,4.087709e+03
2.005621e+02,4.097545e+03
2.015264e+02,4.104264e+03
2.024906e+02,4.100876e+03
2.034548e+02,4.100195e+03
2.044191e+02,4.105535e+03
2.053833e+02,4.115499e+03
2.063475e+02,4.126231e+03
2.073118e+02,4.135021e+03
2.082760e+02,4.142675e+03
2.092402e+02,4.145443e+03
2.102045e+02,4.142078e+03
2.111687e+02,4.137386e+03
2.121329e+02,4.133460e+03
2.130972e+02,4.129501e+03
2.140614e+02,4.126484e+03
2.150256e+02,4.129869e+03
2.159899e+02,4.146509e+03
2.169541e+02,4.160617e+03
2.179183e+02,4.164853e+03
2.188826e+02,4.161000e+03
2.198468e+02,4.157282e+03
2.208110e+02,4.160601e+03
2.217753e+02,4.170163e+03
2.227395e+02,4.175955e+03
2.237037e+02,4.175519e+03
2.246680e+02,4.173681e+03
2.256322e+02,4.174262e+03
2.265964e+02,4.180733e+03
2.275607e+02,4.189231e+03
2.285249e+02,4.194299e+03
2.294892e+02,4.195088e+03
2.304534e+02,4.197247e+03
2.314176e+02,4.204089e+03
2.323819e+02,4.213715e+03
2.333461e+02,4.221314e+03
2.343103e+02,4.224909e+03
2.352746e+02,4.226628e+03
2.362388e+02,4.229515e+03
2.372030e+02,4.233624e+03
2.381673e+02,4.236543e+03
2.391315e+02,4.236584e+03
2.400957e+02,4.233876e+03
2.410600e+02,4.232364e+03
2.420242e+02,4.234635e+03
2.429884e+02,4.241154e+03
2.439527e+02,4.250778e+03
2.449169e+02,4.262030e+03
2.458811e+02,4.274436e+03
2.468454e+02,4.283851e+03
2.478096e+02,4.289648e+03
2.487738e+02,4.293284e+03
2.497381e+02,4.295287e+03
2.507023e+02,4.295891e+03
2.516665e+02,4.295733e+03
2.526308e+02,4.295382e+03
2.535950e+02,4.290216e+03
2.545592e+02,4.286987e+03
2.555235e+02,4.289169e+03
2.564877e+02,4.293776e+03
2.574519e+02,4.297297e+03
2.584161e+02,4.297903e+03
2.593804e+02,4.296775e+03
2.603446e+02,4.299687e+03
2.613088e+02,4.307671e+03
2.622731e+02,4.316772e+03
2.632373e+02,4.326058e+03
2.642015e+02,4.334479e+03
2.651658e+02,4.341804e+03
2.661300e+02,4.350044e+03
2.670942e+02,4.361467e+03
2.680585e+02,4.369284e+03
2.690227e+02,4.367814e+03
2.699869e+02,4.364040e+03
2.709512e+02,4.362520e+03
2.719154e+02,4.366401e+03
2.728796e+02,4.373700e+03
2.738439e+02,4.382019e+03
2.748081e+02,4.392825e+03
2.757723e+02,4.404713e+03
2.767366e+02,4.413516e+03
2.777008e+02,4.417972e+03
2.786650e+02,4.419512e+03
2.796293e+02,4.418471e+03
2.805935e+02,4.416700e+03
2.815577e+02,4.416326e+03
2.825220e+02,4.417541e+03
2.834862e+02,4.418807e+03
2.844504e+02,4.418196e+03
2.854147e+02,4.416132e+03
2.863789e+02,4.414042e+03
2.873431e+02,4.413594e+03
2.883074e+02,4.414979e+03
2.892716e+02,4.417134e+03
2.902358e+02,4.418817e+03
2.912001e+02,4.419463e+03
2.921643e+02,4.417476e+03
2.931285e+02,4.409967e+03
2.940928e+02,4.404483e+03
2.950570e+02,4.403882e+03
2.960212e+02,4.407422e+03
2.969855e+02,4.412767e+03
2.979497e+02,4.419032e+03
2.989139e+02,4.429303e+03
2.998782e+02,4.435216e+03
3.008424e+02,4.436899e+03
3.018066e+02,4.437100e+03
3.027709e+02,4.435831e+03
3.037351e+02,4.432029e+03
3.046993e+02,4.426768e+03
3.056636e+02,4.422929e+03
3.066278e+02,4.421359e+03
3.075920e+02,4.421548e+03
3.085563e+02,4.424525e+03
3.095205e+02,4.430018e+03
3.104847e+02,4.435296e+03
3.114490e+02,4.435331e+03
3.124132e+02,4.432948e+03
3.133774e+02,4.436606e+03
3.143417e+02,4.449494e+03
3.153059e+02,4.462599e+03
3.162701e+02,4.464498e+03
3.172344e+02,4.451821e+03
3.181986e+02,4.442823e+03
3.191628e+02,4.446440e+03
3.201271e+02,4.457771e+03
3.210913e+02,4.466569e+03
3.220555e+02,4.467167e+03
3.230198e+02,4.461212e+03
3.239840e+02,4.462141e+03
3.249482e+02,4.478966e+03
3.259125e+02,4.492777e+03
3.268767e+02,4.496494e+03
3.278409e+02,4.492029e+03
3.288052e+02,4.485491e+03
3.297694e+02,4.481842e+03
3.307336e+02,4.481485e+03
3.316979e+02,4.481290e+03
3.326621e+02,4.481841e+03
3.336263e+02,4.481176e+03
3.345906e+02,4.478122e+03
3.355548e+02,4.473592e+03
3.365190e+02,4.471070e+03
3.374833e+02,4.474542e+03
3.384475e+02,4.484351e+03
3.394117e+02,4.493537e+03
3.403760e+02,4.498034e+03
3.413402e+02,4.499111e+03
3.423044e+02,4.499696e+03
3.432687e+02,4.496885e+03
3.442329e+02,4.495307e+03
3.451971e+02,4.500547e+03
3.461614e+02,4.511554e+03
3.471256e+02,4.519445e+03
3.480898e+02,4.517573e+03
3.490541e+02,4.502443e+03
3.500183e+02,4.494364e+03
3.509825e+02,4.500392e+03
3.519468e+02,4.511592e+03
3.529110e+02,4.519964e+03
3.538752e+02,4.522540e+03
3.548395e+02,4.521383e+03
3.558037e+02,4.521208e+03
3.567680e+02,4.521623e+03
3.577322e+02,4.524294e+03
3.586964e+02,4.534360e+03
3.596607e+02,4.546904e+03
3.606249e+02,4.554748e+03
3.615891e+02,4.550823e+03
3.625534e+02,4.538687e+03
3.635176e+02,4.530469e+03
3.644818e+02,4.529442e+03
3.654461e+02,4.529705e+03
3.664103e+02,4.527606e+03
3.673745e+02,4.526027e+03
3.683388e+02,4.531304e+03
3.693030e+02,4.548786e+03
3.702672e+02,4.570401e+03
3.712315e+02,4.585228e+03
3.721957e+02,4.590517e+03
3.731599e+02,4.588791e+03
3.741242e+02,4.585319e+03
3.750884e+02,4.581692e+03
3.760526e+02,4.579263e+03
3.770169e+02,4.577695e+03
3.779811e+02,4.576370e+03
3.789453e+02,4.574427e+03
3.799096e+02,4.571130e+03
3.808738e+02,4.566372e+03
3.818380e+02,4.560648e+03
3.828023e+02,4.552014e+03
3.837665e+02,4.549656e+03
3.847307e+02,4.559105e+03
3.856950e+02,4.576012e+03
3.866592e+02,4.590036e+03
3.876234e+02,4.594053e+03
3.885877e+02,4.590316e+03
3.895519e+02,4.585083e+03
3.905161e+02,4.577317e+03
3.914804e+02,4.569231e+03
3.924446e+02,4.564029e+03
3.934088e+02,4.562861e+03
3.943731e+02,4.563282e+03
3.953373e+02,4.564883e+03
3.963015e+02,4.567272e+03
3.972658e+02,4.570317e+03
3.982300e+02,4.574645e+03
3.991942e+02,4.580854e+03
4.001585e+02,4.586808e+03
4.011227e+02,4.590133e+03
4.020869e+02,4.592399e+03
4.030512e+02,4.591796e+03
4.040154e+02,4.588695e+03
4.049796e+02,4.584970e+03
4.059439e+02,4.580669e+03
4.069081e+02,4.576513e+03
4.078723e+02,4.575721e+03
4.088366e+02,4.577833e+03
4.098008e+02,4.580803e+03
4.107650e+02,4.588521e+03
4.117293e+02,4.600953e+03
4.126935e+02,4.607486e+03
4.136577e+02,4.597548e+03
4.146220e+02,4.581272e+03
4.155862e+02,4.574766e+03
4.165504e+02,4.582226e+03
4.175147e+02,4.596300e+03
4.184789e+02,4.605134e+03
4.194431e+02,4.603583e+03
4.204074e+02,4.602170e+03
4.213716e+02,4.602107e+03
4.223358e+02,4.601726e+03
4.233001e+02,4.598757e+03
4.242643e+02,4.591936e+03
4.252285e+02,4.584072e+03
4.261928e+02,4.581917e+03
4.271570e+02,4.588916e+03
4.281212e+02,4.594999e+03
4.290855e+02,4.592495e+03
4.300497e+02,4.584799e+03
4.310139e+02,4.580423e+03
4.319782e+02,4.585582e+03
4.329424e+02,4.594776e+03
4.339066e+02,4.601413e+03
4.348709e+02,4.604400e+03
4.358351e+02,4.604696e+03
4.367993e+02,4.603010e+03
4.377636e+02,4.597822e+03
4.387278e+02,4.595667e+03
4.396920e+02,4.600383e+03
4.406563e+02,4.606658e+03
4.416205e+02,4.609189e+03
4.425847e+02,4.606537e+03
4.435490e+02,4.603556e+03
4.445132e+02,4.608777e+03
4.454774e+02,4.625167e+03
4.464417e+02,4.638972e+03
4.474059e+02,4.646124e+03
4.483701e+02,4.647471e+03
4.493344e+02,4.644845e+03
4.502986e+02,4.635396e+03
4.512628e+02,4.626747e+03
4.522271e+02,4.625436e+03
4.531913e+02,4.630034e+03
4.541555e+02,4.633992e+03
4.551198e+02,4.633088e+03
4.560840e+02,4.627531e+03
4.570482e+02,4.621572e+03
4.580125e+02,4.616439e+03
4.589767e+02,4.613697e+03
4.599409e+02,4.612114e+03
4.609052e+02,4.610660e+03
4.618694e+02,4.609802e+03
4.628336e+02,4.611992e+03
4.637979e+02,4.616949e+03
4.647621e+02,4.618991e+03
4.657263e+02,4.618526e+03
4.666906e+02,4.617172e+03
4.676548e+02,4.613659e+03
4.686190e+02,4.605566e+03
4.695833e+02,4.600428e+03
4.705475e+02,4.601773e+03
4.715117e+02,4.606558e+03
4.724760e+02,4.611669e+03
4.734402e+02,4.616593e+03
4.744044e+02,4.620416e+03
4.753687e+02,4.619904e+03
4.763329e+02,4.609311e+03
4.772971e+02,4.603617e+03
4.782614e+02,4.608058e+03
4.792256e+02,4.617653e+03
4.801898e+02,4.625877e+03
4.811541e+02,4.629501e+03
4.821183e+02,4.629733e+03
4.830826e+02,4.627660e+03
4.840468e+02,4.622766e+03
4.850110e+02,4.617246e+03
4.859753e+02,4.612811e+03
4.869395e+02,4.609262e+03
4.879037e+02,4.606972e+03
4.888680e+02,4.608587e+03
4.898322e+02,4.610217e+03
4.907964e+02,4.609677e+03
4.917607e+02,4.607359e+03
4.927249e+02,4.605065e+03
4.936891e+02,4.604735e+03
4.946534e+02,4.606434e+03
4.956176e+02,4.606157e+03
4.965818e+02,4.601940e+03
4.975461e+02,4.597884e+03
4.985103e+02,4.596915e+03
4.994745e+02,4.598789e+03
5.004388e+02,4.600186e+03
5.014030e+02,4.600511e+03
5.023672e+02,4.600862e+03
5.033315e+02,4.602723e+03
5.042957e+02,4.606468e+03
5.052599e+02,4.610086e+03
5.062242e+02,4.610499e+03
5.071884e+02,4.607835e+03
5.081526e+02,4.603434e+03
5.091169e+02,4.597033e+03
5.100811e+02,4.590577e+03
5.110453e+02,4.585102e+03
5.120095e+02,4.580613e+03
5.129738e+02,4.578907e+03
5.139380e+02,4.582615e+03
5.149022e+02,4.591835e+03
5.158665e+02,4.603729e+03
5.168307e+02,4.617197e+03
5.177949e+02,4.629621e+03
5.187592e+02,4.630396e+03
5.197234e+02,4.616204e+03
5.206876e+02,4.602162e+03
5.216519e+02,4.593500e+03
5.226161e+02,4.590391e+03
5.235803e+02,4.590711e+03
5.245446e+02,4.594126e+03
5.255088e+02,4.599964e+03
5.264730e+02,4.603693e+03
5.274373e+02,4.604515e+03
5.284015e+02,4.604287e+03
5.293657e+02,4.603335e+03
5.303300e+02,4.601667e+03
5.312942e+02,4.600432e+03
5.322584e+02,4.604181e+03
5.332227e+02,4.609400e+03
5.341869e+02,4.609971e+03
5.351511e+02,4.604175e+03
5.361154e+02,4.597399e+03
5.370796e+02,4.598273e+03
5.380438e+02,4.609439e+03
5.390081e+02,4.620531e+03
5.399723e+02,4.633577e+03
5.409365e+02,4.644790e+03
5.419008e+02,4.648779e+03
5.428650e+02,4.640012e+03
5.438292e+02,4.630257e+03
5.447935e+02,4.624595e+03
5.457577e+02,4.622773e+03
5.467219e+02,4.625625e+03
5.476862e+02,4.634522e+03
5.486504e+02,4.645835e+03
5.496146e+02,4.648331e+03
5.505789e+02,4.633605e+03
5.515431e+02,4.622570e+03
5.525073e+02,4.623964e+03
5.534716e+02,4.633539e+03
5.544358e+02,4.642661e+03
5.554000e+02,4.645604e+03
5.563643e+02,4.645851e+03
5.573285e+02,4.647147e+03
5.582927e+02,4.648698e+03
5.592570e+02,4.648446e+03
5.602212e+02,4.645511e+03
5.611854e+02,4.639542e+03
5.621497e+02,4.634299e+03
5.631139e+02,4.630164e+03
5.640781e+02,4.624084e+03
5.650424e+02,4.616902e+03
5.660066e+02,4.608810e+03
5.669708e+02,4.599308e+03
5.679351e+02,4.587057e+03
5.688993e+02,4.574421e+03
5.698635e+02,4.564534e+03
5.708278e+02,4.557918e+03
5.717920e+02,4.556585e+03
5.727562e+02,4.562877e+03
5.737205e+02,4.581138e+03
5.746847e+02,4.587818e+03
5.756489e+02,4.569889e+03
5.766132e+02,4.550781e+03
5.775774e+02,4.545190e+03
5.785416e+02,4.554727e+03
5.795059e+02,4.566622e+03
5.804701e+02,4.572839e+03
5.814343e+02,4.573716e+03
5.823986e+02,4.569062e+03
5.833628e+02,4.557792e+03
5.843270e+02,4.545532e+03
5.852913e+02,4.539462e+03
5.862555e+02,4.543570e+03
5.872197e+02,4.548312e+03
5.881840e+02,4.554896e+03
5.891482e+02,4.560518e+03
5.901124e+02,4.561979e+03
5.910767e+02,4.557620e+03
5.920409e+02,4.553932e+03
5.930051e+02,4.559412e+03
5.939694e+02,4.571726e+03
5.949336e+02,4.579667e+03
5.958978e+02,4.579908e+03
5.968621e+02,4.574077e+03
5.978263e+02,4.566224e+03
5.987905e+02,4.550256e+03
5.997548e+02,4.541119e+03
6.007190e+02,4.543541e+03
6.016832e+02,4.553029e+03
6.026475e+02,4.563971e+03
6.036117e+02,4.574402e+03
6.045759e+02,4.582697e+03
6.055402e+02,4.584937e+03
6.065044e+02,4.581394e+03
6.074686e+02,4.580328e+03
6.084329e+02,4.587264e+03
6.093971e+02,4.600396e+03
6.103613e+02,4.608575e+03
6.113256e+02,4.614133e+03
6.122899e+02,4.612120e+03
6.132541e+02,4.597153e+03
6.142183e+02,4.574399e+03
6.151826e+02,4.552785e+03
6.161468e+02,4.536644e+03
6.171110e+02,4.525320e+03
6.180753e+02,4.517387e+03
6.190395e+02,4.512357e+03
6.200037e+02,4.509603e+03
6.209680e+02,4.508834e+03
6.219322e+02,4.510597e+03
6.228964e+02,4.513445e+03
6.238607e+02,4.518823e+03
6.248249e+02,4.522938e+03
6.257891e+02,4.522631e+03
6.267534e+02,4.518007e+03
6.277176e+02,4.512751e+03
6.286818e+02,4.510245e+03
6.296461e+02,4.509297e+03
6.306103e+02,4.509256e+03
6.315745e+02,4.509912e+03
6.325388e+02,4.508193e+03
6.335030e+02,4.499224e+03
6.344672e+02,4.481748e+03
6.354315e+02,4.474654e+03
6.363957e+02,4.485897e+03
6.373599e+02,4.496409e+03
6.383242e+02,4.496771e+03
6.392884e+02,4.488688e+03
6.402526e+02,4.482567e+03
6.412169e+02,4.484030e+03
6.421811e+02,4.487051e+03
6.431453e+02,4.485382e+03
6.441096e+02,4.479054e+03
6.450738e+02,4.472509e+03
6.460380e+02,4.471261e+03
6.470023e+02,4.476445e+03
6.479665e+02,4.479966e+03
6.489307e+02,4.480321e+03
6.498950e+02,4.478547e+03
6.508592e+02,4.473125e+03
6.518234e+02,4.462597e+03
6.527877e+02,4.456912e+03
6.537519e+02,4.463747e+03
6.547161e+02,4.472317e+03
6.556804e+02,4.474347e+03
6.566446e+02,4.469490e+03
6.576088e+02,4.462843e+03
6.585731e+02,4.458979e+03
6.595373e+02,4.457328e+03
6.605015e+02,4.454049e+03
6.614658e+02,4.448011e+03
6.624300e+02,4.442771e+03
6.633942e+02,4.442099e+03
6.643585e+02,4.448300e+03
6.653227e+02,4.452565e+03
6.662869e+02,4.453033e+03
6.672512e+02,4.451728e+03
6.682154e+02,4.449362e+03
6.691796e+02,4.445619e+03
6.701439e+02,4.442276e+03
6.711081e+02,4.442233e+03
6.720723e+02,4.443499e+03
6.730366e+02,4.441495e+03
6.740008e+02,4.435792e+03
6.749650e+02,4.430102e+03
6.759293e+02,4.429587e+03
6.768935e+02,4.438162e+03
6.778577e+02,4.442327e+03
6.788220e+02,4.441165e+03
6.797862e+02,4.438589e+03
6.807504e+02,4.434843e+03
6.817147e+02,4.428293e+03
6.826789e+02,4.422467e+03
6.836431e+02,4.417921e+03
6.846074e+02,4.413377e+03
6.855716e+02,4.408664e+03
6.865358e+02,4.404532e+03
6.875001e+02,4.401373e+03
6.884643e+02,4.400266e+03
6.894285e+02,4.401342e+03
6.903928e+02,4.398930e+03
6.913570e+02,4.389929e+03
6.923212e+02,4.379932e+03
6.932855e+02,4.375904e+03
6.942497e+02,4.383938e+03
6.952139e+02,4.389619e+03
6.961782e+02,4.387834e+03
6.971424e+02,4.385898e+03
6.981066e+02,4.390256e+03
6.990709e+02,4.400425e+03
7.000351e+02,4.405482e+03
7.009993e+02,4.395358e+03
7.019636e+02,4.377682e+03
7.029278e+02,4.367011e+03
7.038920e+02,4.365717e+03
7.048563e+02,4.367555e+03
7.058205e+02,4.365846e+03
7.067847e+02,4.360731e+03
7.077490e+02,4.357953e+03
7.087132e+02,4.362939e+03
7.096774e+02,4.369719e+03
7.106417e+02,4.368975e+03
7.116059e+02,4.357375e+03
7.125701e+02,4.348462e+03
7.135344e+02,4.351187e+03
7.144986e+02,4.356595e+03
7.154628e+02,4.354118e+03
7.164271e+02,4.342073e+03
7.173913e+02,4.329305e+03
7.183555e+02,4.325475e+03
7.193198e+02,4.328684e+03
7.202840e+02,4.330416e+03
7.212482e+02,4.330238e+03
7.222125e+02,4.329395e+03
7.231767e+02,4.328424e+03
7.241409e+02,4.326083e+03
7.251052e+02,4.323526e+03
7.260694e+02,4.321107e+03
7.270336e+02,4.317749e+03
7.279979e+02,4.313374e+03
7.289621e+02,4.307786e+03
7.299263e+02,4.302868e+03
7.308906e+02,4.298902e+03
7.318548e+02,4.295446e+03
7.328190e+02,4.292667e+03
7.337833e+02,4.290589e+03
7.347475e+02,4.288884e+03
7.357117e+02,4.288234e+03
7.366760e+02,4.289280e+03
7.376402e+02,4.291428e+03
7.386044e+02,4.295981e+03
7.395687e+02,4.298423e+03
7.405329e+02,4.293012e+03
7.414971e+02,4.276042e+03
7.424614e+02,4.265791e+03
7.434256e+02,4.270435e+03
7.443898e+02,4.278358e+03
7.453541e+02,4.281998e+03
7.463183e+02,4.279331e+03
7.472825e+02,4.275729e+03
7.482468e+02,4.277458e+03
7.492110e+02,4.277957e+03
7.501752e+02,4.268654e+03
7.511395e+02,4.252580e+03
7.521037e+02,4.240893e+03
7.530679e+02,4.244677e+03
7.540322e+02,4.259758e+03
7.549964e+02,4.261186e+03
7.559606e+02,4.246135e+03
7.569249e+02,4.230388e+03
7.578891e+02,4.223045e+03
7.588533e+02,4.224720e+03
7.598176e+02,4.232178e+03
7.607818e+02,4.251125e+03
7.617460e+02,4.263059e+03
7.627103e+02,4.260675e+03
7.636745e+02,4.248736e+03
7.646387e+02,4.237794e+03
7.656030e+02,4.231392e+03
7.665672e+02,4.227643e+03
7.675314e+02,4.223458e+03
7.684957e+02,4.216716e+03
7.694599e+02,4.207873e+03
7.704241e+02,4.198537e+03
7.713884e+02,4.191705e+03
7.723526e+02,4.194017e+03
7.733168e+02,4.207647e+03
7.742811e+02,4.220021e+03
7.752453e+02,4.222267e+03
7.762095e+02,4.215166e+03
7.771738e+02,4.211440e+03
7.781380e+02,4.212835e+03
7.791022e+02,4.212166e+03
7.800665e+02,4.209205e+03
7.810307e+02,4.205016e+03
7.819949e+02,4.200828e+03
7.829592e+02,4.199592e+03
7.839234e+02,4.198521e+03
7.848876e+02,4.193161e+03
7.858519e+02,4.186247e+03
7.868161e+02,4.183986e+03
7.877803e+02,4.190510e+03
7.887446e+02,4.197786e+03
7.897088e+02,4.193597e+03
7.906730e+02,4.181042e+03
7.916373e+02,4.172007e+03
7.926015e+02,4.168059e+03
7.935657e+02,4.165475e+03
7.945300e+02,4.162249e+03
7.954942e+02,4.160329e+03
7.964584e+02,4.157409e+03
7.974227e+02,4.157955e+03
7.983869e+02,4.160882e+03
7.993511e+02,4.159835e+03
8.003154e+02,4.148884e+03
8.012796e+02,4.137308e+03
8.022438e+02,4.126203e+03
8.032081e+02,4.118714e+03
8.041723e+02,4.119064e+03
8.051365e+02,4.127907e+03
8.061008e+02,4.134792e+03
8.070650e+02,4.127037e+03
8.080292e+02,4.112129e+03
8.089935e+02,4.106612e+03
8.099577e+02,4.113818e+03
8.109219e+02,4.122843e+03
8.118862e+02,4.120096e+03
8.128504e+02,4.106014e+03
8.138146e+02,4.095053e+03
8.147789e+02,4.087186e+03
8.157431e+02,4.081916e+03
8.167073e+02,4.080106e+03
8.176716e+02,4.084380e+03
8.186358e+02,4.089844e+03
8.196000e+02,4.098888e+03
8.205643e+02,4.106289e+03
8.215285e+02,4.108411e+03
8.224927e+02,4.105137e+03
8.234570e+02,4.098323e+03
8.244212e+02,4.082579e+03
8.253854e+02,4.068809e+03
8.263497e+02,4.064310e+03
8.273139e+02,4.065924e+03
8.282781e+02,4.066896e+03
8.292424e+02,4.064733e+03
8.302066e+02,4.062299e+03
8.311708e+02,4.062821e+03
8.321351e+02,4.065608e+03
8.330993e+02,4.066996e+03
8.340635e+02,4.063958e+03
8.350278e+02,4.057800e+03
8.359920e+02,4.053426e+03
8.369562e+02,4.050954e+03
8.379205e+02,4.050725e+03
8.388847e+02,4.054044e+03
8.398489e+02,4.059117e+03
8.408132e+02,4.060651e+03
8.417774e+02,4.056099e+03
8.427416e+02,4.050188e+03
8.437059e+02,4.041574e+03
8.446701e+02,4.032953e+03
8.456343e+02,4.027917e+03
8.465986e+02,4.029490e+03
8.475628e+02,4.028495e+03
8.485270e+02,4.016891e+03
8.494913e+02,4.003695e+03
8.504555e+02,3.999938e+03
8.514197e+02,4.008883e+03
8.523840e+02,4.020224e+03
8.533482e+02,4.027281e+03
8.543124e+02,4.029078e+03
8.552767e+02,4.022073e+03
8.562409e+02,4.005965e+03
8.572051e+02,3.989304e+03
8.581694e+02,3.982373e+03
8.591336e+02,3.984925e+03
8.600978e+02,3.987476e+03
8.610621e+02,3.990249e+03
8.620263e+02,3.994552e+03
8.629905e+02,4.001567e+03
8.639548e+02,4.010461e+03
8.649190e+02,4.008902e+03
8.658832e+02,3.990570e+03
8.668475e+02,3.974102e+03
8.678117e+02,3.968290e+03
8.687759e+02,3.971016e+03
8.697402e+02,3.974429e+03
8.707044e+02,3.979602e+03
8.716686e+02,3.979515e+03
8.726329e+02,3.970323e+03
8.735971e+02,3.957436e+03
8.745613e+02,3.949106e+03
8.755256e+02,3.952917e+03
8.764898e+02,3.959389e+03
8.774540e+02,3.962530e+03
8.784183e+02,3.962339e+03
8.793825e+02,3.958581e+03
8.803467e+02,3.950405e+03
8.813110e+02,3.941665e+03
8.822752e+02,3.937706e+03
8.832394e+02,3.938517e+03
8.842037e+02,3.941806e+03
8.851679e+02,3.946227e+03
8.861321e+02,3.949435e+03
8.870964e+02,3.948478e+03
8.880606e+02,3.942813e+03
8.890248e+02,3.938310e+03
8.899891e+02,3.937839e+03
8.909533e+02,3.938079e+03
8.919175e+02,3.934552e+03
8.928818e+02,3.925660e+03
8.938460e+02,3.919857e+03
8.948102e+02,3.917118e+03
8.957745e+02,3.915517e+03
8.967387e+02,3.915833e+03
8.977029e+02,3.917032e+03
8.986672e+02,3.914211e+03
8.996314e+02,3.905828e+03
9.005956e+02,3.898836e+03
9.015599e+02,3.895998e+03
9.025241e+02,3.895649e+03
9.034883e+02,3.894575e+03
9.044526e+02,3.890531e+03
9.054168e+02,3.884514e+03
9.063810e+02,3.880734e+03
9.073453e+02,3.879195e+03
9.083095e+02,3.875460e+03
9.092737e+02,3.864326e+03
9.102380e+02,3.853348e+03
9.112022e+02,3.853894e+03
9.121664e+02,3.861400e+03
9.131307e+02,3.865759e+03
9.140949e+02,3.865430e+03
9.150591e+02,3.863000e+03
9.160234e+02,3.856817e+03
9.169876e+02,3.845856e+03
9.179518e+02,3.839562e+03
9.189161e+02,3.839999e+03
9.198803e+02,3.842077e+03
9.208445e+02,3.842563e+03
9.218088e+02,3.843146e+03
9.227730e+02,3.837836e+03
9.237372e+02,3.821751e+03
9.247015e+02,3.807293e+03
9.256657e+02,3.802690e+03
9.266299e+02,3.807939e+03
9.275942e+02,3.815863e+03
9.285584e+02,3.832483e+03
9.295226e+02,3.842769e+03
9.304869e+02,3.838516e+03
9.314511e+02,3.824483e+03
9.324153e+02,3.814071e+03
9.333796e+02,3.809590e+03
9.343438e+02,3.807035e+03
9.353080e+02,3.805771e+03
9.362723e+02,3.803723e+03
9.372365e+02,3.799754e+03
9.382007e+02,3.795303e+03
9.391650e+02,3.791503e+03
9.401292e+02,3.788542e+03
9.410934e+02,3.786040e+03
9.420577e+02,3.782556e+03
9.430219e+02,3.777319e+03
9.439861e+02,3.771736e+03
9.449504e+02,3.767285e+03
9.459146e+02,3.766060e+03
9.468788e+02,3.770147e+03
9.478431e+02,3.776931e+03
9.488073e+02,3.779671e+03
9.497715e+02,3.773178e+03
9.507358e+02,3.761292e+03
9.517000e+02,3.751505e+03
9.526642e+02,3.744973e+03
9.536285e+02,3.738958e+03
9.545927e+02,3.730097e+03
9.555569e+02,3.720288e+03
9.565212e+02,3.717288e+03
9.574854e+02,3.722559e+03
9.584496e+02,3.728400e+03
9.594139e+02,3.730344e+03
9.603781e+02,3.728500e+03
9.613423e+02,3.725536e+03
9.623066e+02,3.721365e+03
9.632708e+02,3.717724e+03
9.642350e+02,3.716531e+03
9.651993e+02,3.715959e+03
9.661635e+02,3.711761e+03
9.671277e+02,3.699978e+03
9.680920e+02,3.690958e+03
9.690562e+02,3.685764e+03
9.700204e+02,3.681770e+03
9.709847e+02,3.678664e+03
9.719489e+02,3.678070e+03
9.729131e+02,3.675938e+03
9.738774e+02,3.670611e+03
9.748416e+02,3.667253e+03
9.758058e+02,3.666016e+03
9.767701e+02,3.666119e+03
9.777343e+02,3.668966e+03
9.786985e+02,3.680848e+03
9.796628e+02,3.687891e+03
9.806270e+02,3.683347e+03
9.815912e+02,3.671753e+03
9.825555e+02,3.661075e+03
9.835197e+02,3.656242e+03
9.844839e+02,3.651954e+03
9.854482e+02,3.645660e+03
9.864124e+02,3.639571e+03
9.873766e+02,3.635188e+03
9.883409e+02,3.633255e+03
9.893051e+02,3.632781e+03
9.902693e+02,3.633927e+03
9.912336e+02,3.636079e+03
9.921978e+02,3.637496e+03
9.931620e+02,3.636934e+03
9.941263e+02,3.634705e+03
9.950905e+02,3.631340e+03
9.960547e+02,3.627115e+03
9.970190e+02,3.622428e+03
9.979832e+02,3.616680e+03
9.989474e+02,3.608825e+03
9.999117e+02,3.598339e+03
1.000876e+03,3.588240e+03
1.001840e+03,3.582107e+03
1.002804e+03,3.580480e+03
1.003769e+03,3.583358e+03
1.004733e+03,3.590483e+03
1.005697e+03,3.597086e+03
1.006661e+03,3.595161e+03
1.007626e+03,3.587052e+03
1.008590e+03,3.582683e+03
1.009554e+03,3.583174e+03
1.010518e+03,3.583662e+03
1.011482e+03,3.578905e+03
1.012447e+03,3.569692e+03
1.013411e+03,3.563150e+03
1.014375e+03,3.561352e+03
1.015339e+03,3.562257e+03
1.016304e+03,3.564060e+03
1.017268e+03,3.565913e+03
1.018232e+03,3.564336e+03
1.019196e+03,3.558397e+03
1.020161e+03,3.552512e+03
1.021125e+03,3.549307e+03
1.022089e+03,3.548526e+03
1.023053e+03,3.546580e+03
1.024018e+03,3.541648e+03
1.024982e+03,3.538102e+03
1.025946e+03,3.536767e+03
1.026910e+03,3.534552e+03
1.027875e+03,3.529043e+03
1.028839e+03,3.520482e+03
1.029803e+03,3.515020e+03
1.030767e+03,3.513147e+03
1.031731e+03,3.514188e+03
1.032696e+03,3.518296e+03
1.033660e+03,3.525504e+03
1.034624e+03,3.525630e+03
1.035588e+03,3.514653e+03
1.036552e+03,3.506294e+03
1.037517e+03,3.506537e+03
1.038481e+03,3.511722e+03
1.039445e+03,3.511496e+03
1.040409e+03,3.501021e+03
1.041374e+03,3.493560e+03
1.042338e+03,3.493974e+03
1.043302e+03,3.498356e+03
1.044266e+03,3.500989e+03
1.045231e+03,3.503702e+03
1.046195e+03,3.500244e+03
1.047159e+03,3.482741e+03
1.048123e+03,3.467170e+03
1.049088e+03,3.466423e+03
1.050052e+03,3.484380e+03
1.051016e+03,3.495156e+03
1.051980e+03,3.493560e+03
1.052945e+03,3.489324e+03
1.053909e+03,3.482940e+03
1.054873e+03,3.473871e+03
1.055837e+03,3.466029e+03
1.056802e+03,3.460033e+03
1.057766e+03,3.457227e+03
1.058730e+03,3.462246e+03
1.059694e+03,3.469458e+03
1.060658e+03,3.471085e+03
1.061623e+03,3.463790e+03
1.062587e+03,3.457823e+03
1.063551e+03,3.454747e+03
1.064515e+03,3.453410e+03
1.065479e+03,3.452714e+03
1.066444e+03,3.453322e+03
1.067408e+03,3.453891e+03
1.068372e+03,3.453315e+03
1.069336e+03,3.453485e+03
1.070301e+03,3.454375e+03
1.071265e+03,3.454683e+03
1.072229e+03,3.453279e+03
1.073193e+03,3.447398e+03
1.074158e+03,3.442722e+03
1.075122e+03,3.442122e+03
1.076086e+03,3.443045e+03
1.077050e+03,3.443202e+03
1.078015e+03,3.444411e+03
1.078979e+03,3.445398e+03
1.079943e+03,3.443754e+03
1.080907e+03,3.442343e+03
1.081872e+03,3.442297e+03
1.082836e+03,3.442809e+03
1.083800e+03,3.442888e+03
1.084764e+03,3.444417e+03
1.085729e+03,3.445180e+03
1.086693e+03,3.445128e+03
1.087657e+03,3.442741e+03
1.088621e+03,3.435279e+03
1.089585e+03,3.413932e+03
1.090550e+03,3.395984e+03
1.091514e+03,3.390535e+03
1.092478e+03,3.390848e+03
1.093442e+03,3.388355e+03
1.094406e+03,3.379813e+03
1.095371e+03,3.375833e+03
1.096335e+03,3.384855e+03
1.097299e+03,3.392449e+03
1.098263e+03,3.386417e+03
1.099228e+03,3.366959e+03
1.100192e+03,3.354316e+03
1.101156e+03,3.356912e+03
1.102120e+03,3.361095e+03
1.103085e+03,3.363358e+03
1.104049e+03,3.363734e+03
1.105013e+03,3.362617e+03
1.105977e+03,3.359351e+03
1.106942e+03,3.356141e+03
1.107906e+03,3.352898e+03
1.108870e+03,3.350497e+03
1.109834e+03,3.349874e+03
1.110799e+03,3.351779e+03
1.111763e+03,3.352931e+03
1.112727e+03,3.354782e+03
1.113691e+03,3.355131e+03
1.114656e+03,3.349638e+03
1.115620e+03,3.339815e+03
1.116584e+03,3.336985e+03
1.117548e+03,3.349043e+03
1.118512e+03,3.356791e+03
1.119477e+03,3.353614e+03
1.120441e+03,3.344743e+03
1.121405e+03,3.338605e+03
1.122369e+03,3.340143e+03
1.123334e+03,3.337297e+03
1.124298e+03,3.327580e+03
1.125262e+03,3.316779e+03
1.126226e+03,3.308479e+03
1.127191e+03,3.302843e+03
1.128155e+03,3.300500e+03
1.129119e+03,3.301628e+03
1.130083e+03,3.304313e+03
1.131047e+03,3.309133e+03
1.132012e+03,3.313902e+03
1.132976e+03,3.313704e+03
1.133940e+03,3.306208e+03
1.134904e+03,3.298056e+03
1.135869e+03,3.291206e+03
1.136833e+03,3.284949e+03
1.137797e+03,3.277731e+03
1.138761e+03,3.268929e+03
1.139726e+03,3.266442e+03
1.140690e+03,3.273181e+03
1.141654e+03,3.278681e+03
1.142618e+03,3.275610e+03
1.143583e+03,3.265644e+03
1.144547e+03,3.260639e+03
1.145511e+03,3.261751e+03
1.146475e+03,3.263317e+03
1.147439e+03,3.264253e+03
1.148404e+03,3.263961e+03
1.149368e+03,3.258717e+03
1.150332e+03,3.247067e+03
1.151296e+03,3.242446e+03
1.152261e+03,3.245982e+03
1.153225e+03,3.248634e+03
1.154189e+03,3.244927e+03
1.155153e+03,3.236658e+03
1.156118e+03,3.226344e+03
1.157082e+03,3.214860e+03
1.158046e+03,3.209416e+03
1.159010e+03,3.213534e+03
1.159974e+03,3.221463e+03
1.160939e+03,3.218723e+03
1.161903e+03,3.207087e+03
1.162867e+03,3.204674e+03
1.163831e+03,3.215442e+03
1.164796e+03,3.227153e+03
1.165760e+03,3.227694e+03
1.166724e+03,3.220214e+03
1.167688e+03,3.209609e+03
1.168653e+03,3.197108e+03
1.169617e+03,3.187821e+03
1.170581e+03,3.186754e+03
1.171545e+03,3.189390e+03
1.172510e+03,3.188896e+03
1.173474e+03,3.186896e+03
1.174438e+03,3.186500e+03
1.175402e+03,3.188362e+03
1.176366e+03,3.190100e+03
1.177331e+03,3.190477e+03
1.178295e+03,3.189734e+03
1.179259e+03,3.186554e+03
1.180223e+03,3.180890e+03
1.181188e+03,3.176177e+03
1.182152e+03,3.176687e+03
1.183116e+03,3.176968e+03
1.184080e+03,3.173856e+03
1.185045e+03,3.168907e+03
1.186009e+03,3.163742e+03
1.186973e+03,3.158633e+03
1.187937e+03,3.156229e+03
1.188901e+03,3.160309e+03
1.189866e+03,3.164688e+03
1.190830e+03,3.162230e+03
1.191794e+03,3.151486e+03
1.192758e+03,3.144234e+03
1.193723e+03,3.149484e+03
1.194687e+03,3.154022e+03
1.195651e+03,3.150115e+03
1.196615e+03,3.141112e+03
1.197580e+03,3.135931e+03
1.198544e+03,3.138744e+03
1.199508e+03,3.134369e+03
1.200472e+03,3.117839e+03
1.201437e+03,3.101149e+03
1.202401e+03,3.095467e+03
1.203365e+03,3.103263e+03
1.204329e+03,3.108461e+03
1.205293e+03,3.109267e+03
1.206258e+03,3.111096e+03
1.207222e+03,3.116921e+03
1.208186e+03,3.124005e+03
1.209150e+03,3.123887e+03
1.210115e+03,3.114738e+03
1.211079e+03,3.107696e+03
1.212043e+03,3.105475e+03
1.213007e+03,3.104156e+03
1.213972e+03,3.100388e+03
1.214936e+03,3.095218e+03
1.215900e+03,3.088737e+03
1.216864e+03,3.081352e+03
1.217828e+03,3.077456e+03
1.218793e+03,3.081222e+03
1.219757e+03,3.087655e+03
1.220721e+03,3.085804e+03
1.221685e+03,3.079988e+03
1.222650e+03,3.082420e+03
1.223614e+03,3.095818e+03
1.224578e+03,3.105633e+03
1.225542e+03,3.095954e+03
1.226507e+03,3.080109e+03
1.227471e+03,3.074163e+03
1.228435e+03,3.075867e+03
1.229399e+03,3.073774e+03
1.230364e+03,3.056638e+03
1.231328e+03,3.042104e+03
1.232292e+03,3.045401e+03
1.233256e+03,3.056500e+03
1.234220e+03,3.060435e+03
1.235185e+03,3.052977e+03
1.236149e+03,3.045451e+03
1.237113e+03,3.037767e+03
1.238077e+03,3.033666e+03
1.239042e+03,3.035110e+03
1.240006e+03,3.039932e+03
1.240970e+03,3.041074e+03
1.241934e+03,3.034862e+03
1.242899e+03,3.031641e+03
1.243863e+03,3.036796e+03
1.244827e+03,3.043691e+03
1.245791e+03,3.042256e+03
1.246755e+03,3.030682e+03
1.247720e+03,3.021306e+03
1.248684e+03,3.014781e+03
1.249648e+03,3.010343e+03
1.250612e+03,3.007475e+03
1.251577e+03,3.005305e+03
1.252541e+03,3.001491e+03
1.253505e+03,2.996251e+03
1.254469e+03,2.994997e+03
1.255434e+03,3.000418e+03
1.256398e+03,3.005911e+03
1.257362e+03,3.000862e+03
1.258326e+03,2.989970e+03
1.259291e+03,2.982244e+03
1.260255e+03,2.977881e+03
1.261219e+03,2.974950e+03
1.262183e+03,2.976263e+03
1.263147e+03,2.978056e+03
1.264112e+03,2.976244e+03
1.265076e+03,2.972861e+03
1.266040e+03,2.970162e+03
1.267004e+03,2.968581e+03
1.267969e+03,2.968928e+03
1.268933e+03,2.975367e+03
1.269897e+03,2.982885e+03
1.270861e+03,2.986427e+03
1.271826e+03,2.983899e+03
1.272790e+03,2.979146e+03
1.273754e+03,2.972183e+03
1.274718e+03,2.965101e+03
1.275682e+03,2.959281e+03
1.276647e+03,2.954976e+03
1.277611e+03,2.952015e+03
1.278575e+03,2.950427e+03
1.279539e+03,2.945887e+03
1.280504e+03,2.939268e+03
1.281468e+03,2.935222e+03
1.282432e+03,2.936068e+03
1.283396e+03,2.940013e+03
1.284361e+03,2.943072e+03
1.285325e+03,2.944719e+03
1.286289e+03,2.945723e+03
1.287253e+03,2.946139e+03
1.288218e+03,2.944776e+03
1.289182e+03,2.940330e+03
1.290146e+03,2.934563e+03
1.291110e+03,2.930708e+03
1.292074e+03,2.928161e+03
1.293039e+03,2.922972e+03
1.294003e+03,2.909005e+03
1.294967e+03,2.896042e+03
1.295931e+03,2.887411e+03
1.296896e+03,2.884022e+03
1.297860e+03,2.887615e+03
1.298824e+03,2.900560e+03
1.299788e+03,2.908289e+03
1.300753e+03,2.905669e+03
1.301717e+03,2.903604e+03
1.302681e+03,2.907361e+03
1.303645e+03,2.914286e+03
1.304609e+03,2.917357e+03
1.305574e+03,2.915536e+03
1.306538e+03,2.907312e+03
1.307502e+03,2.892665e+03
1.308466e+03,2.879336e+03
1.309431e+03,2.874796e+03
1.310395e+03,2.876869e+03
1.311359e+03,2.878739e+03
1.312323e+03,2.879025e+03
1.313288e+03,2.876290e+03
1.314252e+03,2.869988e+03
1.315216e+03,2.866033e+03
1.316180e+03,2.871705e+03
1.317145e+03,2.880872e+03
1.318109e+03,2.884819e+03
1.319073e+03,2.881565e+03
1.320037e+03,2.877985e+03
1.321001e+03,2.877464e+03
1.321966e+03,2.876598e+03
1.322930e+03,2.875577e+03
1.323894e+03,2.874569e+03
1.324858e+03,2.872060e+03
1.325823e+03,2.865119e+03
1.326787e+03,2.863747e+03
1.327751e+03,2.869960e+03
1.328715e+03,2.874895e+03
1.329680e+03,2.872489e+03
1.330644e+03,2.865005e+03
1.331608e+03,2.861660e+03
1.332572e+03,2.861983e+03
1.333536e+03,2.864177e+03
1.334501e+03,2.867662e+03
1.335465e+03,2.869043e+03
1.336429e+03,2.863837e+03
1.337393e+03,2.856634e+03
1.338358e+03,2.854991e+03
1.339322e+03,2.857611e+03
1.340286e+03,2.857252e+03
1.341250e+03,2.845914e+03
1.342215e+03,2.836023e+03
1.343179e+03,2.836801e+03
1.344143e+03,2.842415e+03
1.345107e+03,2.844656e+03
1.346072e+03,2.840924e+03
1.347036e+03,2.837865e+03
1.348000e+03,2.835802e+03
1.348964e+03,2.831811e+03
1.349928e+03,2.824620e+03
1.350893e+03,2.817210e+03
1.351857e+03,2.814167e+03
1.352821e+03,2.814860e+03
1.353785e+03,2.820630e+03
1.354750e+03,2.831325e+03
1.355714e+03,2.838879e+03
1.356678e+03,2.836564e+03
1.357642e+03,2.829464e+03
1.358607e+03,2.821152e+03
1.359571e+03,2.812723e+03
1.360535e+03,2.807340e+03
1.361499e+03,2.806989e+03
1.362464e+03,2.808858e+03
1.363428e+03,2.815314e+03
1.364392e+03,2.821394e+03
1.365356e+03,2.821156e+03
1.366320e+03,2.813935e+03
1.367285e+03,2.808114e+03
1.368249e+03,2.805356e+03
1.369213e+03,2.803330e+03
1.370177e+03,2.802059e+03
1.371142e+03,2.800489e+03
1.372106e+03,2.797118e+03
1.373070e+03,2.792301e+03
1.374034e+03,2.788691e+03
1.374999e+03,2.786915e+03
1.375963e+03,2.786440e+03
1.376927e+03,2.787587e+03
1.377891e+03,2.787897e+03
1.378855e+03,2.783585e+03
1.379820e+03,2.776787e+03
1.380784e+03,2.769233e+03
1.381748e+03,2.762116e+03
1.382712e+03,2.760044e+03
1.383677e+03,2.769399e+03
1.384641e+03,2.775066e+03
1.385605e+03,2.768728e+03
1.386569e+03,2.757539e+03
1.387534e+03,2.753581e+03
1.388498e+03,2.759231e+03
1.389462e+03,2.760053e+03
1.390426e+03,2.754260e+03
1.391391e+03,2.747836e+03
1.392355e+03,2.745262e+03
1.393319e+03,2.745609e+03
1.394283e+03,2.746897e+03
1.395247e+03,2.748150e+03
1.396212e+03,2.747417e+03
1.397176e+03,2.744186e+03
1.398140e+03,2.741978e+03
1.399104e+03,2.744167e+03
1.400069e+03,2.745595e+03
1.401033e+03,2.742823e+03
1.401997e+03,2.736953e+03
1.402961e+03,2.731286e+03
1.403926e+03,2.724906e+03
1.404890e+03,2.720928e+03
1.405854e+03,2.720983e+03
1.406818e+03,2.721325e+03
1.407782e+03,2.719017e+03
1.408747e+03,2.715677e+03
1.409711e+03,2.714708e+03
1.410675e+03,2.714193e+03
1.411639e+03,2.711474e+03
1.412604e+03,2.705781e+03
1.413568e+03,2.702260e+03
1.414532e+03,2.710777e+03
1.415496e+03,2.720324e+03
1.416461e+03,2.718151e+03
1.417425e+03,2.706281e+03
1.418389e+03,2.697543e+03
1.419353e+03,2.696040e+03
1.420318e+03,2.695563e+03
1.421282e+03,2.697259e+03
1.422246e+03,2.699909e+03
1.423210e+03,2.702972e+03
1.424174e+03,2.706142e+03
1.425139e+03,2.702801e+03
1.426103e+03,2.693289e+03
1.427067e+03,2.687262e+03
1.428031e+03,2.688685e+03
1.428996e+03,2.691733e+03
1.429960e+03,2.690991e+03
1.430924e+03,2.687748e+03
1.431888e+03,2.682371e+03
1.432853e+03,2.675829e+03
1.433817e+03,2.671129e+03
1.434781e+03,2.672421e+03
1.435745e+03,2.671696e+03
1.436709e+03,2.664919e+03
1.437674e+03,2.657812e+03
1.438638e+03,2.657316e+03
1.439602e+03,2.663243e+03
1.440566e+03,2.664993e+03
1.441531e+03,2.662764e+03
1.442495e+03,2.661472e+03
1.443459e+03,2.662424e+03
1.444423e+03,2.664888e+03
1.445388e+03,2.671366e+03
1.446352e+03,2.675712e+03
1.447316e+03,2.669356e+03
1.448280e+03,2.655427e+03
1.449245e+03,2.648123e+03
1.450209e+03,2.656583e+03
1.451173e+03,2.662867e+03
1.452137e+03,2.662531e+03
1.453101e+03,2.660248e+03
1.454066e+03,2.662883e+03
1.455030e+03,2.668969e+03
1.455994e+03,2.663177e+03
1.456958e+03,2.647543e+03
1.457923e+03,2.636327e+03
1.458887e+03,2.634514e+03
1.459851e+03,2.636539e+03
1.460815e+03,2.640666e+03
1.461780e+03,2.643198e+03
1.462744e+03,2.642487e+03
1.463708e+03,2.638908e+03
1.464672e+03,2.632341e+03
1.465636e+03,2.621777e+03
1.466601e+03,2.612874e+03
1.467565e+03,2.605665e+03
1.468529e+03,2.601473e+03
1.469493e+03,2.600781e+03
1.470458e+03,2.603003e+03
1.471422e+03,2.611587e+03
1.472386e+03,2.624253e+03
1.473350e+03,2.629766e+03
1.474315e+03,2.621680e+03
1.475279e+03,2.613103e+03
1.476243e+03,2.612663e+03
1.477207e+03,2.613617e+03
1.478172e+03,2.612500e+03
1.479136e+03,2.609638e+03
1.480100e+03,2.606158e+03
1.481064e+03,2.602195e+03
1.482028e+03,2.598588e+03
1.482993e+03,2.596103e+03
1.483957e+03,2.592608e+03
1.484921e+03,2.582093e+03
1.485885e+03,2.570538e+03
1.486850e+03,2.571010e+03
1.487814e+03,2.578448e+03
1.488778e+03,2.583701e+03
1.489742e+03,2.584695e+03
1.490707e+03,2.582350e+03
1.491671e+03,2.573870e+03
1.492635e+03,2.568785e+03
1.493599e+03,2.572014e+03
1.494563e+03,2.578926e+03
1.495528e+03,2.578308e+03
1.496492e+03,2.570027e+03
1.497456e+03,2.562171e+03
1.498420e+03,2.556571e+03
1.499385e+03,2.553390e+03
1.500349e+03,2.553267e+03
1.501313e+03,2.555207e+03
1.502277e+03,2.559488e+03
1.503242e+03,2.563918e+03
1.504206e+03,2.565245e+03
1.505170e+03,2.561479e+03
1.506134e+03,2.557957e+03
1.507099e+03,2.554737e+03
1.508063e+03,2.552648e+03
1.509027e+03,2.552598e+03
1.509991e+03,2.552388e+03
1.510955e+03,2.546772e+03
1.511920e+03,2.538624e+03
1.512884e+03,2.536711e+03
1.513848e+03,2.541378e+03
1.514812e+03,2.543823e+03
1.515777e+03,2.532882e+03
1.516741e+03,2.523951e+03
1.517705e+03,2.523867e+03
1.518669e+03,2.526292e+03
1.519634e+03,2.527101e+03
1.520598e+03,2.525938e+03
1.521562e+03,2.524347e+03
1.522526e+03,2.521660e+03
1.523490e+03,2.518191e+03
1.524455e+03,2.514208e+03
1.525419e+03,2.510558e+03
1.526383e+03,2.509769e+03
1.527347e+03,2.508597e+03
1.528312e+03,2.504036e+03
1.529276e+03,2.498104e+03
1.530240e+03,2.495750e+03
1.531204e+03,2.498184e+03
1.532169e+03,2.497861e+03
1.533133e+03,2.493590e+03
1.534097e+03,2.489630e+03
1.535061e+03,2.489169e+03
1.536026e+03,2.490493e+03
1.536990e+03,2.492478e+03
1.537954e+03,2.494391e+03
1.538918e+03,2.494162e+03
1.539882e+03,2.490797e+03
1.540847e+03,2.487632e+03
1.541811e+03,2.484150e+03
1.542775e+03,2.481482e+03
1.543739e+03,2.481528e+03
1.544704e+03,2.482720e+03
1.545668e+03,2.481446e+03
1.546632e+03,2.478722e+03
1.547596e+03,2.478649e+03
1.548561e+03,2.480808e+03
1.549525e+03,2.481637e+03
1.550489e+03,2.475215e+03
1.551453e+03,2.471008e+03
1.552417e+03,2.476669e+03
1.553382e+03,2.483438e+03
1.554346e+03,2.484611e+03
1.555310e+03,2.481292e+03
1.556274e+03,2.478891e+03
1.557239e+03,2.477184e+03
1.558203e+03,2.475695e+03
1.559167e+03,2.474248e+03
1.560131e+03,2.474851e+03
1.561096e+03,2.483011e+03
1.562060e+03,2.491097e+03
1.563024e+03,2.490317e+03
1.563988e+03,2.484937e+03
1.564953e+03,2.485386e+03
1.565917e+03,2.494706e+03
1.566881e+03,2.499853e+03
1.567845e+03,2.499642e+03
1.568809e+03,2.498626e+03
1.569774e+03,2.499941e+03
1.570738e+03,2.501276e+03
1.571702e+03,2.500612e+03
1.572666e+03,2.497112e+03
1.573631e+03,2.487831e+03
1.574595e+03,2.473565e+03
1.575559e+03,2.466131e+03
1.576523e+03,2.468735e+03
1.577488e+03,2.473666e+03
1.578452e+03,2.479575e+03
1.579416e+03,2.481917e+03
1.580380e+03,2.473680e+03
1.581344e+03,2.460830e+03
1.582309e+03,2.456405e+03
1.583273e+03,2.457063e+03
1.584237e+03,2.453057e+03
1.585201e+03,2.438192e+03
1.586166e+03,2.428167e+03
1.587130e+03,2.425549e+03
1.588094e+03,2.424602e+03
1.589058e+03,2.424602e+03
1.590023e+03,2.423770e+03
1.590987e+03,2.415665e+03
1.591951e+03,2.404587e+03
1.592915e+03,2.397947e+03
1.593880e+03,2.395591e+03
1.594844e+03,2.397062e+03
1.595808e+03,2.407641e+03
1.596772e+03,2.415314e+03
1.597736e+03,2.419377e+03
1.598701e+03,2.419281e+03
1.599665e+03,2.411998e+03
1.600629e+03,2.400188e+03
1.601593e+03,2.394656e+03
1.602558e+03,2.394305e+03
1.603522e+03,2.397223e+03
1.604486e+03,2.404153e+03
1.605450e+03,2.405041e+03
1.606415e+03,2.388573e+03
1.607379e+03,2.376017e+03
1.608343e+03,2.376189e+03
1.609307e+03,2.382534e+03
1.610271e+03,2.384324e+03
1.611236e+03,2.382009e+03
1.612200e+03,2.377528e+03
1.613164e+03,2.372649e+03
1.614128e+03,2.372114e+03
1.615093e+03,2.384614e+03
1.616057e+03,2.391894e+03
1.617021e+03,2.381584e+03
1.617985e+03,2.369391e+03
1.618950e+03,2.365793e+03
1.619914e+03,2.368410e+03
1.620878e+03,2.367242e+03
1.621842e+03,2.363715e+03
1.622807e+03,2.362400e+03
1.623771e+03,2.364681e+03
1.624735e+03,2.367418e+03
1.625699e+03,2.368165e+03
1.626663e+03,2.367919e+03
1.627628e+03,2.366112e+03
1.628592e+03,2.362942e+03
1.629556e+03,2.360636e+03
1.630520e+03,2.359976e+03
1.631485e+03,2.358884e+03
1.632449e+03,2.356927e+03
1.633413e+03,2.353204e+03
1.634377e+03,2.346552e+03
1.635342e+03,2.341065e+03
1.636306e+03,2.340213e+03
1.637270e+03,2.338949e+03
1.638234e+03,2.334286e+03
1.639198e+03,2.328505e+03
1.640163e+03,2.325378e+03
1.641127e+03,2.325304e+03
1.642091e+03,2.329740e+03
1.643055e+03,2.336985e+03
1.644020e+03,2.339153e+03
1.644984e+03,2.326993e+03
1.645948e+03,2.315524e+03
1.646912e+03,2.307507e+03
1.647877e+03,2.303238e+03
1.648841e+03,2.304243e+03
1.649805e+03,2.309013e+03
1.650769e+03,2.312781e+03
1.651734e+03,2.315284e+03
1.652698e+03,2.316033e+03
1.653662e+03,2.313722e+03
1.654626e+03,2.313025e+03
1.655590e+03,2.320336e+03
1.656555e+03,2.319386e+03
1.657519e+03,2.303466e+03
1.658483e+03,2.286383e+03
1.659447e+03,2.289876e+03
1.660412e+03,2.302133e+03
1.661376e+03,2.301274e+03
1.662340e+03,2.290871e+03
1.663304e+03,2.283746e+03
1.664269e+03,2.285864e+03
1.665233e+03,2.284619e+03
1.666197e+03,2.278004e+03
1.667161e+03,2.271846e+03
1.668125e+03,2.269646e+03
1.669090e+03,2.270521e+03
1.670054e+03,2.276499e+03
1.671018e+03,2.282850e+03
1.671982e+03,2.282050e+03
1.672947e+03,2.274249e+03
1.673911e+03,2.272913e+03
1.674875e+03,2.280524e+03
1.675839e+03,2.278701e+03
1.676804e+03,2.264984e+03
1.677768e+03,2.253961e+03
1.678732e+03,2.261812e+03
1.679696e+03,2.272557e+03
1.680661e+03,2.271888e+03
1.681625e+03,2.263220e+03
1.682589e+03,2.252290e+03
1.683553e+03,2.240011e+03
1.684517e+03,2.235837e+03
1.685482e+03,2.239184e+03
1.686446e+03,2.241880e+03
1.687410e+03,2.241375e+03
1.688374e+03,2.239706e+03
1.689339e+03,2.237938e+03
1.690303e+03,2.235621e+03
1.691267e+03,2.231339e+03
1.692231e+03,2.227495e+03
1.693196e+03,2.227946e+03
1.694160e+03,2.231344e+03
1.695124e+03,2.232940e+03
1.696088e+03,2.233123e+03
1.697052e+03,2.233349e+03
1.698017e+03,2.232551e+03
1.698981e+03,2.231564e+03
1.699945e+03,2.230379e+03
1.700909e+03,2.227310e+03
1.701874e+03,2.222731e+03
1.702838e+03,2.218778e+03
1.703802e+03,2.218009e+03
1.704766e+03,2.217774e+03
1.705731e+03,2.214528e+03
1.706695e+03,2.208677e+03
1.707659e+03,2.206076e+03
1.708623e+03,2.210249e+03
1.709588e+03,2.213593e+03
1.710552e+03,2.214230e+03
1.711516e+03,2.211550e+03
1.712480e+03,2.203409e+03
1.713444e+03,2.194063e+03
1.714409e+03,2.190415e+03
1.715373e+03,2.188949e+03
1.716337e+03,2.182590e+03
1.717301e+03,2.171683e+03
1.718266e+03,2.165832e+03
1.719230e+03,2.164532e+03
1.720194e+03,2.168809e+03
1.721158e+03,2.179516e+03
1.722123e+03,2.187342e+03
1.723087e+03,2.186285e+03
1.724051e+03,2.179226e+03
1.725015e+03,2.163972e+03
1.725979e+03,2.148980e+03
1.726944e+03,2.147309e+03
1.727908e+03,2.155298e+03
1.728872e+03,2.157412e+03
1.729836e+03,2.154067e+03
1.730801e+03,2.151659e+03
1.731765e+03,2.154720e+03
1.732729e+03,2.154329e+03
1.733693e+03,2.147702e+03
1.734658e+03,2.143816e+03
1.735622e+03,2.147475e+03
1.736586e+03,2.153063e+03
1.737550e+03,2.152931e+03
1.738515e+03,2.149822e+03
1.739479e+03,2.146046e+03
1.740443e+03,2.142435e+03
1.741407e+03,2.142486e+03
1.742371e+03,2.147258e+03
1.743336e+03,2.144757e+03
1.744300e+03,2.134116e+03
1.745264e+03,2.123888e+03
1.746228e+03,2.121793e+03
1.747193e+03,2.121391e+03
1.748157e+03,2.119896e+03
1.749121e+03,2.120674e+03
1.750085e+03,2.125083e+03
1.751050e+03,2.129105e+03
1.752014e+03,2.123231e+03
1.752978e+03,2.112500e+03
1.753942e+03,2.108799e+03
1.754906e+03,2.113854e+03
1.755871e+03,2.116399e+03
1.756835e+03,2.111440e+03
1.757799e+03,2.108301e+03
1.758763e+03,2.111224e+03
1.759728e+03,2.114490e+03
1.760692e+03,2.112260e+03
1.761656e+03,2.107252e+03
1.762620e+03,2.097818e+03
1.763585e+03,2.088542e+03
1.764549e+03,2.086282e+03
1.765513e+03,2.090061e+03
1.766477e+03,2.095025e+03
1.767442e+03,2.100725e+03
1.768406e+03,2.099804e+03
1.769370e+03,2.088706e+03
1.770334e+03,2.081068e+03
1.771298e+03,2.084198e+03
1.772263e+03,2.088822e+03
1.773227e+03,2.094728e+03
1.774191e+03,2.097598e+03
1.775155e+03,2.087278e+03
1.776120e+03,2.072361e+03
1.777084e+03,2.066728e+03
1.778048e+03,2.068095e+03
1.779012e+03,2.068107e+03
1.779977e+03,2.065856e+03
1.780941e+03,2.065814e+03
1.781905e+03,2.067055e+03
1.782869e+03,2.069863e+03
1.783833e+03,2.076379e+03
1.784798e+03,2.079132e+03
1.785762e+03,2.071297e+03
1.786726e+03,2.059480e+03
1.787690e+03,2.044041e+03
1.788655e+03,2.032229e+03
1.789619e+03,2.043514e+03
1.790583e+03,2.065298e+03
1.791547e+03,2.070034e+03
1.792512e+03,2.059521e+03
1.793476e+03,2.052356e+03
1.794440e+03,2.051135e+03
1.795404e+03,2.049403e+03
1.796369e+03,2.046150e+03
1.797333e+03,2.043997e+03
1.798297e+03,2.045712e+03
1.799261e+03,2.047604e+03
1.800225e+03,2.044696e+03
1.801190e+03,2.042433e+03
1.802154e+03,2.046789e+03
1.803118e+03,2.052995e+03
1.804082e+03,2.045712e+03
1.805047e+03,2.033071e+03
1.806011e+03,2.035627e+03
1.806975e+03,2.053260e+03
1.807939e+03,2.058588e+03
1.808904e+03,2.044097e+03
1.809868e+03,2.030474e+03
1.810832e+03,2.020160e+03
1.811796e+03,2.013997e+03
1.812760e+03,2.013744e+03
1.813725e+03,2.015734e+03
1.814689e+03,2.018553e+03
1.815653e+03,2.022291e+03
1.816617e+03,2.028364e+03
1.817582e+03,2.034470e+03
1.818546e+03,2.032509e+03
1.819510e+03,2.024303e+03
1.820474e+03,2.012726e+03
1.821439e+03,1.998812e+03
1.822403e+03,1.989759e+03
1.823367e+03,1.985718e+03
1.824331e+03,1.989506e+03
1.825296e+03,2.001407e+03
1.826260e+03,2.010532e+03
1.827224e+03,2.009249e+03
1.828188e+03,2.004982e+03
1.829152e+03,1.997241e+03
1.830117e+03,1.990673e+03
1.831081e+03,1.989837e+03
1.832045e+03,1.992229e+03
1.833009e+03,1.994494e+03
1.833974e+03,1.996779e+03
1.834938e+03,1.995619e+03
1.835902e+03,1.988999e+03
1.836866e+03,1.982965e+03
1.837831e+03,1.977433e+03
1.838795e+03,1.970495e+03
1.839759e+03,1.962402e+03
1.840723e+03,1.958732e+03
1.841688e+03,1.965096e+03
1.842652e+03,1.972957e+03
1.843616e+03,1.979429e+03
1.844580e+03,1.982987e+03
1.845544e+03,1.983597e+03
1.846509e+03,1.981106e+03
1.847473e+03,1.973283e+03
1.848437e+03,1.962215e+03
1.849401e+03,1.950196e+03
1.850366e+03,1.937726e+03
1.851330e+03,1.935991e+03
1.852294e+03,1.944251e+03
1.853258e+03,1.950694e+03
1.854223e+03,1.952088e+03
1.855187e+03,1.953198e+03
1.856151e+03,1.957722e+03
1.857115e+03,1.956412e+03
1.858079e+03,1.945391e+03
1.859044e+03,1.934342e+03
1.860008e+03,1.936664e+03
1.860972e+03,1.942818e+03
1.861936e+03,1.942608e+03
1.862901e+03,1.940204e+03
1.863865e+03,1.941994e+03
1.864829e+03,1.945528e+03
1.865793e+03,1.939002e+03
1.866758e+03,1.926722e+03
1.867722e+03,1.920312e+03
1.868686e+03,1.923936e+03
1.869650e+03,1.922514e+03
1.870615e+03,1.913016e+03
1.871579e+03,1.906416e+03
1.872543e+03,1.906467e+03
1.873507e+03,1.910936e+03
1.874471e+03,1.919287e+03
1.875436e+03,1.925724e+03
1.876400e+03,1.929009e+03
1.877364e+03,1.929671e+03
1.878328e+03,1.928641e+03
1.879293e+03,1.924792e+03
1.880257e+03,1.911543e+03
1.881221e+03,1.894520e+03
1.882185e+03,1.887645e+03
1.883150e+03,1.891983e+03
1.884114e+03,1.893073e+03
1.885078e+03,1.891131e+03
1.886042e+03,1.891424e+03
1.887006e+03,1.895529e+03
1.887971e+03,1.900883e+03
1.888935e+03,1.911943e+03
1.889899e+03,1.913431e+03
1.890863e+03,1.898788e+03
1.891828e+03,1.883299e+03
1.892792e+03,1.887783e+03
1.893756e+03,1.893780e+03
1.894720e+03,1.885315e+03
1.895685e+03,1.874939e+03
1.896649e+03,1.874710e+03
1.897613e+03,1.880822e+03
1.898577e+03,1.884860e+03
1.899542e+03,1.886739e+03
1.900506e+03,1.885390e+03
1.901470e+03,1.880157e+03
1.902434e+03,1.872892e+03
1.903398e+03,1.863996e+03
1.904363e+03,1.860513e+03
1.905327e+03,1.864957e+03
1.906291e+03,1.868563e+03
1.907255e+03,1.862377e+03
1.908220e+03,1.861147e+03
1.909184e+03,1.869259e+03
1.910148e+03,1.875669e+03
1.911112e+03,1.868407e+03
1.912077e+03,1.857463e+03
1.913041e+03,1.848642e+03
1.914005e+03,1.842975e+03
1.914969e+03,1.842367e+03
1.915933e+03,1.844958e+03
1.916898e+03,1.843907e+03
1.917862e+03,1.841033e+03
1.918826e+03,1.839202e+03
1.919790e+03,1.839412e+03
1.920755e+03,1.838465e+03
1.921719e+03,1.835611e+03
1.922683e+03,1.840150e+03
1.923647e+03,1.854933e+03
1.924612e+03,1.861373e+03
1.925576e+03,1.841476e+03
1.926540e+03,1.828453e+03
1.927504e+03,1.826664e+03
1.928469e+03,1.826378e+03
1.929433e+03,1.816340e+03
1.930397e+03,1.807170e+03
1.931361e+03,1.810440e+03
1.932325e+03,1.814575e+03
1.933290e+03,1.810408e+03
1.934254e+03,1.803045e+03
1.935218e+03,1.800911e+03
1.936182e+03,1.801222e+03
1.937147e+03,1.802349e+03
1.938111e+03,1.804584e+03
1.939075e+03,1.808217e+03
1.940039e+03,1.813386e+03
1.941004e+03,1.814483e+03
1.941968e+03,1.809811e+03
1.942932e+03,1.806096e+03
1.943896e+03,1.807218e+03
1.944860e+03,1.804629e+03
1.945825e+03,1.798028e+03
1.946789e+03,1.794288e+03
1.947753e+03,1.803814e+03
1.948717e+03,1.807123e+03
1.949682e+03,1.791818e+03
1.950646e+03,1.776387e+03
1.951610e+03,1.771853e+03
1.952574e+03,1.773265e+03
1.953539e+03,1.775866e+03
1.954503e+03,1.778217e+03
1.955467e+03,1.779464e+03
1.956431e+03,1.779952e+03
1.957396e+03,1.780426e+03
1.958360e+03,1.779077e+03
1.959324e+03,1.769675e+03
1.960288e+03,1.755159e+03
1.961252e+03,1.751286e+03
1.962217e+03,1.758840e+03
1.963181e+03,1.758653e+03
1.964145e+03,1.750735e+03
1.965109e+03,1.747024e+03
1.966074e+03,1.760188e+03
1.967038e+03,1.764917e+03
1.968002e+03,1.755637e+03
1.968966e+03,1.749625e+03
1.969931e+03,1.757684e+03
1.970895e+03,1.763746e+03
1.971859e+03,1.755422e+03
1.972823e+03,1.745193e+03
1.973787e+03,1.736445e+03
1.974752e+03,1.730635e+03
1.975716e+03,1.732863e+03
1.976680e+03,1.737384e+03
1.977644e+03,1.739654e+03
1.978609e+03,1.740986e+03
1.979573e+03,1.741676e+03
1.980537e+03,1.741761e+03
1.981501e+03,1.745456e+03
1.982466e+03,1.749948e+03
1.983430e+03,1.743899e+03
1.984394e+03,1.724506e+03
1.985358e+03,1.720772e+03
1.986323e+03,1.729505e+03
1.987287e+03,1.731752e+03
1.988251e+03,1.719769e+03
1.989215e+03,1.713508e+03
1.990179e+03,1.717325e+03
1.991144e+03,1.717498e+03
1.992108e+03,1.711008e+03
1.993072e+03,1.705132e+03
1.994036e+03,1.705637e+03
1.995001e+03,1.704941e+03
1.995965e+03,1.700455e+03
1.996929e+03,1.696564e+03
1.997893e+03,1.696398e+03
1.998858e+03,1.697684e+03
1.999822e+03,1.702206e+03
2.000786e+03,1.703102e+03
2.001750e+03,1.692966e+03
2.002714e+03,1.679803e+03
2.003679e+03,1.680840e+03
2.004643e+03,1.687858e+03
2.005607e+03,1.688034e+03
2.006571e+03,1.684073e+03
2.007536e+03,1.689274e+03
2.008500e+03,1.700063e+03
2.009464e+03,1.704450e+03
2.010428e+03,1.701690e+03
2.011393e+03,1.697974e+03
2.012357e+03,1.693712e+03
2.013321e+03,1.689135e+03
2.014285e+03,1.683160e+03
2.015250e+03,1.676468e+03
2.016214e+03,1.666734e+03
2.017178e+03,1.662703e+03
2.018142e+03,1.665688e+03
2.019106e+03,1.667870e+03
2.020071e+03,1.663994e+03
2.021035e+03,1.660714e+03
2.021999e+03,1.662493e+03
2.022963e+03,1.661952e+03
2.023928e+03,1.656353e+03
2.024892e+03,1.650026e+03
2.025856e+03,1.645294e+03
2.026820e+03,1.644950e+03
2.027785e+03,1.652793e+03
2.028749e+03,1.660315e+03
2.029713e+03,1.653542e+03
2.030677e+03,1.642123e+03
2.031641e+03,1.638301e+03
2.032606e+03,1.639059e+03
2.033570e+03,1.638920e+03
2.034534e+03,1.637579e+03
2.035498e+03,1.633652e+03
2.036463e+03,1.629215e+03
2.037427e+03,1.629869e+03
2.038391e+03,1.636312e+03
2.039355e+03,1.633745e+03
2.040320e+03,1.625576e+03
2.041284e+03,1.627912e+03
2.042248e+03,1.644121e+03
2.043212e+03,1.642716e+03
2.044177e+03,1.620951e+03
2.045141e+03,1.610863e+03
2.046105e+03,1.616580e+03
2.047069e+03,1.620365e+03
2.048033e+03,1.609134e+03
2.048998e+03,1.602696e+03
2.049962e+03,1.603454e+03
2.050926e+03,1.604789e+03
2.051890e+03,1.601678e+03
2.052854e+03,1.599371e+03
2.053819e+03,1.600251e+03
2.054783e+03,1.596159e+03
2.055747e+03,1.579521e+03
2.056711e+03,1.568183e+03
2.057676e+03,1.587704e+03
2.058640e+03,1.607349e+03
2.059604e+03,1.609293e+03
2.060568e+03,1.602213e+03
2.061533e+03,1.597988e+03
2.062497e+03,1.594323e+03
2.063461e+03,1.588182e+03
2.064425e+03,1.581589e+03
2.065390e+03,1.576084e+03
2.066354e+03,1.572841e+03
2.067318e+03,1.578016e+03
2.068282e+03,1.586234e+03
2.069247e+03,1.584166e+03
2.070211e+03,1.574256e+03
2.071175e+03,1.579508e+03
2.072139e+03,1.592168e+03
2.073104e+03,1.591496e+03
2.074068e+03,1.576347e+03
2.075032e+03,1.564922e+03
2.075996e+03,1.556945e+03
2.076960e+03,1.554814e+03
2.077925e+03,1.558920e+03
2.078889e+03,1.563698e+03
2.079853e+03,1.568926e+03
2.080817e+03,1.567498e+03
2.081782e+03,1.559074e+03
2.082746e+03,1.554042e+03
2.083710e+03,1.560350e+03
2.084674e+03,1.561113e+03
2.085639e+03,1.556315e+03
2.086603e+03,1.552952e+03
2.087567e+03,1.551693e+03
2.088531e+03,1.553229e+03
2.089496e+03,1.557350e+03
2.090460e+03,1.559556e+03
2.091424e+03,1.560212e+03
2.092388e+03,1.561132e+03
2.093353e+03,1.564211e+03
2.094317e+03,1.563685e+03
2.095281e+03,1.555443e+03
2.096245e+03,1.545123e+03
2.097209e+03,1.535788e+03
2.098174e+03,1.530938e+03
2.099138e+03,1.532496e+03
2.100102e+03,1.537652e+03
2.101066e+03,1.548282e+03
2.102031e+03,1.555331e+03
2.102995e+03,1.546258e+03
2.103959e+03,1.533830e+03
2.104923e+03,1.527835e+03
2.105887e+03,1.526341e+03
2.106852e+03,1.523013e+03
2.107816e+03,1.520660e+03
2.108780e+03,1.525533e+03
2.109744e+03,1.531835e+03
2.110708e+03,1.523422e+03
2.111673e+03,1.510385e+03
2.112637e+03,1.506941e+03
2.113601e+03,1.508343e+03
2.114565e+03,1.503639e+03
2.115530e+03,1.496900e+03
2.116494e+03,1.498357e+03
2.117458e+03,1.507537e+03
2.118422e+03,1.512391e+03
2.119387e+03,1.512438e+03
2.120351e+03,1.512033e+03
2.121315e+03,1.510969e+03
2.122279e+03,1.511938e+03
2.123244e+03,1.514863e+03
2.124208e+03,1.514438e+03
2.125172e+03,1.510954e+03
2.126136e+03,1.501416e+03
2.127101e+03,1.484186e+03
2.128065e+03,1.480870e+03
2.129029e+03,1.488925e+03
2.129993e+03,1.491020e+03
2.130958e+03,1.482321e+03
2.131922e+03,1.475065e+03
2.132886e+03,1.470940e+03
2.133850e+03,1.469464e+03
2.134814e+03,1.471748e+03
2.135779e+03,1.474195e+03
2.136743e+03,1.474244e+03
2.137707e+03,1.475801e+03
2.138671e+03,1.479323e+03
2.139636e+03,1.479211e+03
2.140600e+03,1.469560e+03
2.141564e+03,1.462445e+03
2.142528e+03,1.458900e+03
2.143493e+03,1.458099e+03
2.144457e+03,1.460061e+03
2.145421e+03,1.459753e+03
2.146385e+03,1.456154e+03
2.147350e+03,1.450480e+03
2.148314e+03,1.442831e+03
2.149278e+03,1.442158e+03
2.150242e+03,1.461359e+03
2.151207e+03,1.471270e+03
2.152171e+03,1.466091e+03
2.153135e+03,1.457283e+03
2.154099e+03,1.456055e+03
2.155063e+03,1.452636e+03
2.156028e+03,1.444919e+03
2.156992e+03,1.437052e+03
2.157956e+03,1.425873e+03
2.158920e+03,1.422139e+03
2.159885e+03,1.434804e+03
2.160849e+03,1.445195e+03
2.161813e+03,1.443795e+03
2.162777e+03,1.438448e+03
2.163741e+03,1.435236e+03
2.164706e+03,1.431262e+03
2.165670e+03,1.426501e+03
2.166634e+03,1.423256e+03
2.167598e+03,1.423418e+03
2.168563e+03,1.423681e+03
2.169527e+03,1.420543e+03
2.170491e+03,1.418190e+03
2.171455e+03,1.427027e+03
2.172420e+03,1.434163e+03
2.173384e+03,1.429764e+03
2.174348e+03,1.423608e+03
2.175312e+03,1.424974e+03
2.176277e+03,1.424963e+03
2.177241e+03,1.410836e+03
2.178205e+03,1.396714e+03
2.179169e+03,1.391521e+03
2.180134e+03,1.393675e+03
2.181098e+03,1.407500e+03
2.182062e+03,1.416992e+03
2.183026e+03,1.409101e+03
2.183990e+03,1.395310e+03
2.184955e+03,1.391126e+03
2.185919e+03,1.391587e+03
2.186883e+03,1.392177e+03
2.187847e+03,1.393440e+03
2.188812e+03,1.402344e+03
2.189776e+03,1.408087e+03
2.190740e+03,1.390960e+03
2.191704e+03,1.370246e+03
2.192668e+03,1.364920e+03
2.193633e+03,1.367268e+03
2.194597e+03,1.367412e+03
2.195561e+03,1.368139e+03
2.196525e+03,1.371776e+03
2.197490e+03,1.375920e+03
2.198454e+03,1.377469e+03
2.199418e+03,1.375854e+03
2.200382e+03,1.370403e+03
2.201347e+03,1.364865e+03
2.202311e+03,1.364611e+03
2.203275e+03,1.366000e+03
2.204239e+03,1.363753e+03
2.205204e+03,1.360196e+03
2.206168e+03,1.360815e+03
2.207132e+03,1.364155e+03
2.208096e+03,1.371436e+03
2.209061e+03,1.374333e+03
2.210025e+03,1.358016e+03
2.210989e+03,1.338858e+03
2.211953e+03,1.349964e+03
2.212917e+03,1.368213e+03
2.213882e+03,1.364172e+03
2.214846e+03,1.350572e+03
2.215810e+03,1.355513e+03
2.216774e+03,1.362153e+03
2.217739e+03,1.357014e+03
2.218703e+03,1.346569e+03
2.219667e+03,1.338736e+03
2.220631e+03,1.334496e+03
2.221595e+03,1.335394e+03
2.222560e+03,1.337378e+03
2.223524e+03,1.334595e+03
2.224488e+03,1.330682e+03
2.225452e+03,1.330793e+03
2.226417e+03,1.332561e+03
2.227381e+03,1.334043e+03
2.228345e+03,1.335350e+03
2.229309e+03,1.334677e+03
2.230274e+03,1.332961e+03
2.231238e+03,1.331836e+03
2.232202e+03,1.330207e+03
2.233166e+03,1.328917e+03
2.234131e+03,1.325510e+03
2.235095e+03,1.316613e+03
2.236059e+03,1.307252e+03
2.237023e+03,1.304184e+03
2.237988e+03,1.304709e+03
2.238952e+03,1.306356e+03
2.239916e+03,1.308424e+03
2.240880e+03,1.316134e+03
2.241844e+03,1.318281e+03
2.242809e+03,1.302193e+03
2.243773e+03,1.286619e+03
2.244737e+03,1.292208e+03
2.245701e+03,1.302864e+03
2.246666e+03,1.307214e+03
2.247630e+03,1.307162e+03
2.248594e+03,1.303988e+03
2.249558e+03,1.300200e+03
2.250522e+03,1.297670e+03
2.251487e+03,1.293859e+03
2.252451e+03,1.284698e+03
2.253415e+03,1.275954e+03
2.254379e+03,1.277177e+03
2.255344e+03,1.280655e+03
2.256308e+03,1.284604e+03
2.257272e+03,1.285414e+03
2.258236e+03,1.273925e+03
2.259201e+03,1.267390e+03
2.260165e+03,1.271336e+03
2.261129e+03,1.277383e+03
2.262093e+03,1.281063e+03
2.263058e+03,1.278949e+03
2.264022e+03,1.270727e+03
2.264986e+03,1.263836e+03
2.265950e+03,1.260843e+03
2.266915e+03,1.263275e+03
2.267879e+03,1.272681e+03
2.268843e+03,1.274447e+03
2.269807e+03,1.260270e+03
2.270771e+03,1.251304e+03
2.271736e+03,1.257300e+03
2.272700e+03,1.263813e+03
2.273664e+03,1.265898e+03
2.274628e+03,1.265725e+03
2.275593e+03,1.263690e+03
2.276557e+03,1.259521e+03
2.277521e+03,1.254063e+03
2.278485e+03,1.251316e+03
2.279449e+03,1.255372e+03
2.280414e+03,1.255420e+03
2.281378e+03,1.250830e+03
2.282342e+03,1.247970e+03
2.283306e+03,1.251357e+03
2.284271e+03,1.250618e+03
2.285235e+03,1.245689e+03
2.286199e+03,1.239212e+03
2.287163e+03,1.232632e+03
2.288128e+03,1.232590e+03
2.289092e+03,1.237282e+03
2.290056e+03,1.240689e+03
2.291020e+03,1.241637e+03
2.291985e+03,1.236210e+03
2.292949e+03,1.226851e+03
2.293913e+03,1.227139e+03
2.294877e+03,1.236497e+03
2.295842e+03,1.236527e+03
2.296806e+03,1.227797e+03
2.297770e+03,1.228440e+03
2.298734e+03,1.235164e+03
2.299698e+03,1.230051e+03
2.300663e+03,1.215542e+03
2.301627e+03,1.211843e+03
2.302591e+03,1.214830e+03
2.303555e+03,1.215351e+03
2.304520e+03,1.213404e+03
2.305484e+03,1.209422e+03
2.306448e+03,1.204457e+03
2.307412e+03,1.197988e+03
2.308376e+03,1.192315e+03
2.309341e+03,1.198831e+03
2.310305e+03,1.207136e+03
2.311269e+03,1.201157e+03
2.312233e+03,1.192095e+03
2.313198e+03,1.201607e+03
2.314162e+03,1.212056e+03
2.315126e+03,1.201201e+03
2.316090e+03,1.185260e+03
2.317055e+03,1.181301e+03
2.318019e+03,1.182393e+03
2.318983e+03,1.180927e+03
2.319947e+03,1.182137e+03
2.320912e+03,1.194656e+03
2.321876e+03,1.206871e+03
2.322840e+03,1.209584e+03
2.323804e+03,1.207009e+03
2.324769e+03,1.198614e+03
2.325733e+03,1.193203e+03
2.326697e+03,1.199069e+03
2.327661e+03,1.203027e+03
2.328625e+03,1.200624e+03
2.329590e+03,1.193862e+03
2.330554e+03,1.181306e+03
2.331518e+03,1.175626e+03
2.332482e+03,1.178870e+03
2.333447e+03,1.182043e+03
2.334411e+03,1.181230e+03
2.335375e+03,1.176884e+03
2.336339e+03,1.169401e+03
2.337303e+03,1.165492e+03
2.338268e+03,1.169588e+03
2.339232e+03,1.167120e+03
2.340196e+03,1.160134e+03
2.341160e+03,1.161474e+03
2.342125e+03,1.175579e+03
2.343089e+03,1.180993e+03
2.344053e+03,1.177656e+03
2.345017e+03,1.169868e+03
2.345982e+03,1.159994e+03
2.346946e+03,1.156957e+03
2.347910e+03,1.159482e+03
2.348874e+03,1.163777e+03
2.349839e+03,1.166004e+03
2.350803e+03,1.157078e+03
2.351767e+03,1.144500e+03
2.352731e+03,1.144355e+03
2.353696e+03,1.150056e+03
2.354660e+03,1.149807e+03
2.355624e+03,1.145626e+03
2.356588e+03,1.138531e+03
2.357552e+03,1.134832e+03
2.358517e+03,1.143285e+03
2.359481e+03,1.152948e+03
2.360445e+03,1.148385e+03
2.361409e+03,1.141226e+03
2.362374e+03,1.136737e+03
2.363338e+03,1.134106e+03
2.364302e+03,1.137322e+03
2.365266e+03,1.137937e+03
2.366230e+03,1.131567e+03
2.367195e+03,1.127948e+03
2.368159e+03,1.136973e+03
2.369123e+03,1.140557e+03
2.370087e+03,1.137117e+03
2.371052e+03,1.133932e+03
2.372016e+03,1.134599e+03
2.372980e+03,1.136578e+03
2.373944e+03,1.138808e+03
2.374909e+03,1.134803e+03
2.375873e+03,1.119270e+03
2.376837e+03,1.119350e+03
2.377801e+03,1.130432e+03
2.378766e+03,1.128428e+03
2.379730e+03,1.111430e+03
2.380694e+03,1.106750e+03
2.381658e+03,1.109783e+03
2.382623e+03,1.103150e+03
2.383587e+03,1.092526e+03
2.384551e+03,1.105244e+03
2.385515e+03,1.125557e+03
2.386479e+03,1.127497e+03
2.387444e+03,1.119854e+03
2.388408e+03,1.112157e+03
2.389372e+03,1.106139e+03
2.390336e+03,1.103062e+03
2.391301e+03,1.101497e+03
2.392265e+03,1.099602e+03
2.393229e+03,1.099089e+03
2.394193e+03,1.101453e+03
2.395157e+03,1.104981e+03
2.396122e+03,1.111324e+03
2.397086e+03,1.113161e+03
2.398050e+03,1.108655e+03
2.399014e+03,1.101483e+03
2.399979e+03,1.091383e+03
2.400943e+03,1.085189e+03
2.401907e+03,1.083422e+03
2.402871e+03,1.081371e+03
2.403836e+03,1.078492e+03
2.404800e+03,1.080113e+03
2.405764e+03,1.085920e+03
2.406728e+03,1.095565e+03
2.407693e+03,1.105655e+03
2.408657e+03,1.102672e+03
2.409621e+03,1.089827e+03
2.410585e+03,1.075991e+03
2.411550e+03,1.065906e+03
2.412514e+03,1.069068e+03
2.413478e+03,1.078877e+03
2.414442e+03,1.078625e+03
2.415406e+03,1.074068e+03
2.416371e+03,1.071124e+03
2.417335e+03,1.069578e+03
2.418299e+03,1.068661e+03
2.419263e+03,1.069643e+03
2.420228e+03,1.073656e+03
2.421192e+03,1.077089e+03
2.422156e+03,1.077801e+03
2.423120e+03,1.074848e+03
2.424084e+03,1.066297e+03
2.425049e+03,1.059995e+03
2.426013e+03,1.063803e+03
2.426977e+03,1.063051e+03
2.427941e+03,1.057446e+03
2.428906e+03,1.054551e+03
2.429870e+03,1.055927e+03
2.430834e+03,1.058066e+03
2.431798e+03,1.060375e+03
2.432763e+03,1.057540e+03
2.433727e+03,1.049988e+03
2.434691e+03,1.049940e+03
2.435655e+03,1.053966e+03
2.436620e+03,1.055466e+03
2.437584e+03,1.054825e+03
2.438548e+03,1.054555e+03
2.439512e+03,1.052421e+03
2.440477e+03,1.045039e+03
2.441441e+03,1.036421e+03
2.442405e+03,1.032582e+03
2.443369e+03,1.032798e+03
2.444333e+03,1.037521e+03
2.445298e+03,1.041114e+03
2.446262e+03,1.035020e+03
2.447226e+03,1.033885e+03
2.448190e+03,1.040998e+03
2.449155e+03,1.044352e+03
2.450119e+03,1.033841e+03
2.451083e+03,1.026982e+03
2.452047e+03,1.023662e+03
2.453011e+03,1.024371e+03
2.453976e+03,1.029997e+03
2.454940e+03,1.029206e+03
2.455904e+03,1.024622e+03
2.456868e+03,1.021391e+03
2.457833e+03,1.018693e+03
2.458797e+03,1.013816e+03
2.459761e+03,1.009041e+03
2.460725e+03,1.006088e+03
2.461690e+03,1.005531e+03
2.462654e+03,1.012513e+03
2.463618e+03,1.016276e+03
2.464582e+03,1.009814e+03
2.465547e+03,1.004104e+03
2.466511e+03,1.009970e+03
2.467475e+03,1.013188e+03
2.468439e+03,1.010271e+03
2.469404e+03,1.007779e+03
2.470368e+03,1.011301e+03
2.471332e+03,1.015710e+03
2.472296e+03,1.019893e+03
2.473260e+03,1.021745e+03
2.474225e+03,1.020823e+03
2.475189e+03,1.013745e+03
2.476153e+03,1.003552e+03
2.477117e+03,9.968979e+02
2.478082e+03,9.931949e+02
2.479046e+03,9.913235e+02
2.480010e+03,9.900914e+02
2.480974e+03,9.884719e+02
2.481938e+03,9.868271e+02
2.482903e+03,9.837757e+02
2.483867e+03,9.845090e+02
2.484831e+03,9.923222e+02
2.485795e+03,9.980036e+02
2.486760e+03,9.905258e+02
2.487724e+03,9.896454e+02
2.488688e+03,9.990538e+02
2.489652e+03,1.003445e+03
2.490617e+03,9.907405e+02
2.491581e+03,9.791199e+02
2.492545e+03,9.705457e+02
2.493509e+03,9.766271e+02
2.494474e+03,9.959578e+02
2.495438e+03,9.991168e+02
2.496402e+03,9.923779e+02
2.497366e+03,9.886155e+02
2.498331e+03,9.873178e+02
2.499295e+03,9.880036e+02
2.500259e+03,9.868696e+02
2.501223e+03,9.813586e+02
2.502188e+03,9.757416e+02
2.503152e+03,9.739460e+02
2.504116e+03,9.743032e+02
2.505080e+03,9.764768e+02
2.506044e+03,9.768870e+02
2.507009e+03,9.696832e+02
2.507973e+03,9.669553e+02
2.508937e+03,9.691963e+02
2.509901e+03,9.705331e+02
2.510865e+03,9.692006e+02
2.511830e+03,9.666929e+02
2.512794e+03,9.635066e+02
2.513758e+03,9.652355e+02
2.514722e+03,9.688608e+02
2.515687e+03,9.597407e+02
2.516651e+03,9.499648e+02
2.517615e+03,9.524375e+02
2.518579e+03,9.594406e+02
2.519544e+03,9.669290e+02
2.520508e+03,9.639899e+02
2.521472e+03,9.459860e+02
2.522436e+03,9.321982e+02
2.523401e+03,9.423707e+02
2.524365e+03,9.451949e+02
2.525329e+03,9.384673e+02
2.526293e+03,9.355424e+02
2.527258e+03,9.404915e+02
2.528222e+03,9.428308e+02
2.529186e+03,9.439669e+02
2.530150e+03,9.505661e+02
2.531115e+03,9.590328e+02
2.532079e+03,9.512659e+02
2.533043e+03,9.399111e+02
2.534007e+03,9.383026e+02
2.534971e+03,9.401126e+02
2.535936e+03,9.399296e+02
2.536900e+03,9.396710e+02
2.537864e+03,9.397922e+02
2.538828e+03,9.409188e+02
2.539792e+03,9.422020e+02
2.540757e+03,9.429648e+02
2.541721e+03,9.430116e+02
2.542685e+03,9.424729e+02
2.543649e+03,9.418710e+02
2.544614e+03,9.401055e+02
2.545578e+03,9.367086e+02
2.546542e+03,9.329327e+02
2.547506e+03,9.290682e+02
2.548471e+03,9.232449e+02
2.549435e+03,9.193514e+02
2.550399e+03,9.223352e+02
2.551363e+03,9.255023e+02
2.552328e+03,9.228860e+02
2.553292e+03,9.223823e+02
2.554256e+03,9.277660e+02
2.555220e+03,9.287125e+02
2.556185e+03,9.231492e+02
2.557149e+03,9.264355e+02
2.558113e+03,9.398127e+02
2.559077e+03,9.378519e+02
2.560042e+03,9.246693e+02
2.561006e+03,9.185934e+02
2.561970e+03,9.198806e+02
2.562934e+03,9.253377e+02
2.563898e+03,9.306263e+02
2.564863e+03,9.293655e+02
2.565827e+03,9.264122e+02
2.566791e+03,9.316964e+02
2.567755e+03,9.251472e+02
2.568719e+03,8.999612e+02
2.569684e+03,8.892686e+02
2.570648e+03,9.159432e+02
2.571612e+03,9.222272e+02
2.572576e+03,9.115417e+02
2.573541e+03,9.080184e+02
2.574505e+03,9.110897e+02
2.575469e+03,9.026845e+02
2.576433e+03,8.922469e+02
2.577398e+03,8.977134e+02
2.578362e+03,9.059075e+02
2.579326e+03,8.941000e+02
2.580290e+03,8.882533e+02
2.581255e+03,8.996175e+02
2.582219e+03,9.090941e+02
2.583183e+03,8.991790e+02
2.584147e+03,8.963038e+02
2.585112e+03,9.021537e+02
2.586076e+03,9.031431e+02
2.587040e+03,8.970883e+02
2.588004e+03,8.908954e+02
2.588969e+03,8.857141e+02
2.589933e+03,8.855000e+02
2.590897e+03,8.882873e+02
2.591861e+03,8.904166e+02
2.592825e+03,8.929326e+02
2.593790e+03,8.958467e+02
2.594754e+03,9.000928e+02
2.595718e+03,9.095972e+02
2.596682e+03,9.079705e+02
2.597646e+03,8.906491e+02
2.598611e+03,8.775412e+02
2.599575e+03,8.717272e+02
2.600539e+03,8.703076e+02
2.601503e+03,8.719705e+02
2.602468e+03,8.724510e+02
2.603432e+03,8.726732e+02
2.604396e+03,8.787073e+02
2.605360e+03,8.825162e+02
2.606325e+03,8.699046e+02
2.607289e+03,8.621074e+02
2.608253e+03,8.689090e+02
2.609217e+03,8.779698e+02
2.610182e+03,8.841127e+02
2.611146e+03,8.860203e+02
2.612110e+03,8.840760e+02
2.613074e+03,8.752690e+02
2.614039e+03,8.623253e+02
2.615003e+03,8.594462e+02
2.615967e+03,8.630884e+02
2.616931e+03,8.723790e+02
2.617896e+03,8.797082e+02
2.618860e+03,8.689277e+02
2.619824e+03,8.635247e+02
2.620788e+03,8.722174e+02
2.621752e+03,8.803891e+02
2.622717e+03,8.818747e+02
2.623681e+03,8.744083e+02
2.624645e+03,8.598776e+02
2.625609e+03,8.571429e+02
2.626573e+03,8.646921e+02
2.627538e+03,8.646495e+02
2.628502e+03,8.630461e+02
2.629466e+03,8.697180e+02
2.630430e+03,8.762072e+02
2.631395e+03,8.691274e+02
2.632359e+03,8.595620e+02
2.633323e+03,8.501423e+02
2.634287e+03,8.449484e+02
2.635252e+03,8.446707e+02
2.636216e+03,8.471519e+02
2.637180e+03,8.512016e+02
2.638144e+03,8.532540e+02
2.639109e+03,8.525242e+02
2.640073e+03,8.442943e+02
2.641037e+03,8.380016e+02
2.642001e+03,8.504463e+02
2.642966e+03,8.600078e+02
2.643930e+03,8.539114e+02
2.644894e+03,8.461211e+02
2.645858e+03,8.447209e+02
2.646823e+03,8.465115e+02
2.647787e+03,8.501813e+02
2.648751e+03,8.527874e+02
2.649715e+03,8.536690e+02
2.650679e+03,8.540930e+02
2.651644e+03,8.526010e+02
2.652608e+03,8.461175e+02
2.653572e+03,8.392893e+02
2.654536e+03,8.415400e+02
2.655500e+03,8.423889e+02
2.656465e+03,8.379343e+02
2.657429e+03,8.311135e+02
2.658393e+03,8.220361e+02
2.659357e+03,8.177567e+02
2.660322e+03,8.202802e+02
2.661286e+03,8.258518e+02
2.662250e+03,8.328979e+02
2.663214e+03,8.403200e+02
2.664179e+03,8.439498e+02
2.665143e+03,8.366995e+02
2.666107e+03,8.276780e+02
2.667071e+03,8.214013e+02
2.668036e+03,8.181631e+02
2.669000e+03,8.190804e+02
2.669964e+03,8.166007e+02
2.670928e+03,8.114035e+02
2.671893e+03,8.118021e+02
2.672857e+03,8.165613e+02
2.673821e+03,8.128380e+02
2.674785e+03,8.078908e+02
2.675750e+03,8.103420e+02
2.676714e+03,8.160267e+02
2.677678e+03,8.199521e+02
2.678642e+03,8.272537e+02
2.679606e+03,8.398665e+02
2.680571e+03,8.407621e+02
2.681535e+03,8.282146e+02
2.682499e+03,8.182696e+02
2.683463e+03,8.116790e+02
2.684427e+03,8.066355e+02
2.685392e+03,8.034929e+02
2.686356e+03,8.020968e+02
2.687320e+03,8.029114e+02
2.688284e+03,8.105086e+02
2.689249e+03,8.127403e+02
2.690213e+03,8.072369e+02
2.691177e+03,7.988779e+02
2.692141e+03,7.893190e+02
2.693106e+03,7.925557e+02
2.694070e+03,8.031353e+02
2.695034e+03,8.085587e+02
2.695998e+03,8.082934e+02
2.696963e+03,7.949587e+02
2.697927e+03,7.887864e+02
2.698891e+03,7.998148e+02
2.699855e+03,8.064636e+02
2.700820e+03,7.968024e+02
2.701784e+03,7.951854e+02
2.702748e+03,8.022429e+02
2.703712e+03,8.076027e+02
2.704677e+03,8.093564e+02
2.705641e+03,7.998890e+02
2.706605e+03,7.915967e+02
2.707569e+03,8.022533e+02
2.708533e+03,8.077502e+02
2.709498e+03,7.957678e+02
2.710462e+03,7.874666e+02
2.711426e+03,7.956532e+02
2.712390e+03,7.966836e+02
2.713354e+03,7.918122e+02
2.714319e+03,7.879636e+02
2.715283e+03,7.857296e+02
2.716247e+03,7.868574e+02
2.717211e+03,7.887128e+02
2.718176e+03,7.900502e+02
2.719140e+03,7.879482e+02
2.720104e+03,7.762053e+02
2.721068e+03,7.783934e+02
2.722033e+03,7.958688e+02
2.722997e+03,7.991918e+02
2.723961e+03,7.913051e+02
2.724925e+03,7.952667e+02
2.725890e+03,8.010554e+02
2.726854e+03,7.889572e+02
2.727818e+03,7.789628e+02
2.728782e+03,7.816185e+02
2.729747e+03,7.834123e+02
2.730711e+03,7.750449e+02
2.731675e+03,7.772452e+02
2.732639e+03,7.878298e+02
2.733604e+03,7.955585e+02
2.734568e+03,7.981002e+02
2.735532e+03,7.860811e+02
2.736496e+03,7.725666e+02
2.737460e+03,7.674184e+02
2.738425e+03,7.668926e+02
2.739389e+03,7.690558e+02
2.740353e+03,7.728111e+02
2.741317e+03,7.776541e+02
2.742281e+03,7.729039e+02
2.743246e+03,7.633015e+02
2.744210e+03,7.652244e+02
2.745174e+03,7.697665e+02
2.746138e+03,7.671345e+02
2.747103e+03,7.633337e+02
2.748067e+03,7.618995e+02
2.749031e+03,7.561222e+02
2.749995e+03,7.358292e+02
2.750960e+03,7.392036e+02
2.751924e+03,7.584927e+02
2.752888e+03,7.693668e+02
2.753852e+03,7.714313e+02
2.754817e+03,7.605627e+02
2.755781e+03,7.518688e+02
2.756745e+03,7.541672e+02
2.757709e+03,7.578937e+02
2.758674e+03,7.589666e+02
2.759638e+03,7.616478e+02
2.760602e+03,7.655792e+02
2.761566e+03,7.582988e+02
2.762531e+03,7.481510e+02
2.763495e+03,7.480355e+02
2.764459e+03,7.526480e+02
2.765423e+03,7.616219e+02
2.766387e+03,7.668386e+02
2.767352e+03,7.673049e+02
2.768316e+03,7.631243e+02
2.769280e+03,7.546928e+02
2.770244e+03,7.447656e+02
2.771208e+03,7.386357e+02
2.772173e+03,7.467849e+02
2.773137e+03,7.547277e+02
2.774101e+03,7.454220e+02
2.775065e+03,7.371613e+02
2.776030e+03,7.367452e+02
2.776994e+03,7.339554e+02
2.777958e+03,7.288860e+02
2.778922e+03,7.353553e+02
2.779887e+03,7.473303e+02
2.780851e+03,7.436708e+02
2.781815e+03,7.374326e+02
2.782779e+03,7.391473e+02
2.783744e+03,7.413964e+02
2.784708e+03,7.393391e+02
2.785672e+03,7.322172e+02
2.786636e+03,7.219194e+02
2.787601e+03,7.235287e+02
2.788565e+03,7.318073e+02
2.789529e+03,7.292842e+02
2.790493e+03,7.254572e+02
2.791458e+03,7.288015e+02
2.792422e+03,7.313173e+02
2.793386e+03,7.319214e+02
2.794350e+03,7.335118e+02
2.795314e+03,7.362570e+02
2.796279e+03,7.330095e+02
2.797243e+03,7.305024e+02
2.798207e+03,7.425705e+02
2.799171e+03,7.554608e+02
2.800135e+03,7.494695e+02
2.801100e+03,7.411227e+02
2.802064e+03,7.340031e+02
2.803028e+03,7.355889e+02
2.803992e+03,7.424243e+02
2.804957e+03,7.341759e+02
2.805921e+03,7.223275e+02
2.806885e+03,7.341239e+02
2.807849e+03,7.415001e+02
2.808814e+03,7.306066e+02
2.809778e+03,7.208820e+02
2.810742e+03,7.222578e+02
2.811706e+03,7.249352e+02
2.812671e+03,7.265005e+02
2.813635e+03,7.218890e+02
2.814599e+03,7.156281e+02
2.815563e+03,7.168646e+02
2.816528e+03,7.220561e+02
2.817492e+03,7.336350e+02
2.818456e+03,7.310870e+02
2.819420e+03,7.145529e+02
2.820385e+03,7.053583e+02
2.821349e+03,7.053428e+02
2.822313e+03,7.100327e+02
2.823277e+03,7.185063e+02
2.824241e+03,7.303454e+02
2.825206e+03,7.350579e+02
2.826170e+03,7.251808e+02
2.827134e+03,7.162626e+02
2.828098e+03,7.110373e+02
2.829063e+03,7.199232e+02
2.830027e+03,7.313624e+02
2.830991e+03,7.162292e+02
2.831955e+03,7.022679e+02
2.832919e+03,7.120862e+02
2.833884e+03,7.245471e+02
2.834848e+03,7.349172e+02
2.835812e+03,7.347504e+02
2.836776e+03,7.261449e+02
2.837741e+03,7.263502e+02
2.838705e+03,7.264333e+02
2.839669e+03,7.153747e+02
2.840633e+03,7.049149e+02
2.841598e+03,7.013421e+02
2.842562e+03,7.012156e+02
2.843526e+03,7.048636e+02
2.844490e+03,7.075908e+02
2.845455e+03,7.072189e+02
2.846419e+03,6.992231e+02
2.847383e+03,6.926211e+02
2.848347e+03,6.995579e+02
2.849312e+03,7.063145e+02
2.850276e+03,7.103163e+02
2.851240e+03,7.150457e+02
2.852204e+03,7.189236e+02
2.853168e+03,7.107729e+02
2.854133e+03,7.011196e+02
2.855097e+03,7.074971e+02
2.856061e+03,7.107075e+02
2.857025e+03,7.039697e+02
2.857990e+03,6.964855e+02
2.858954e+03,6.911808e+02
2.859918e+03,6.898508e+02
2.860882e+03,6.944993e+02
2.861846e+03,7.085993e+02
2.862811e+03,7.217653e+02
2.863775e+03,7.252794e+02
2.864739e+03,7.192744e+02
2.865703e+03,7.024313e+02
2.866668e+03,7.000732e+02
2.867632e+03,7.059855e+02
2.868596e+03,6.986214e+02
2.869560e+03,6.900416e+02
2.870525e+03,6.999290e+02
2.871489e+03,7.077947e+02
2.872453e+03,7.082155e+02
2.873417e+03,7.071532e+02
2.874382e+03,7.057585e+02
2.875346e+03,7.051320e+02
2.876310e+03,7.066086e+02
2.877274e+03,7.134025e+02
2.878239e+03,7.142408e+02
2.879203e+03,7.046597e+02
2.880167e+03,7.049094e+02
2.881131e+03,7.225971e+02
2.882095e+03,7.324053e+02
2.883060e+03,7.328604e+02
2.884024e+03,7.213943e+02
2.884988e+03,7.093704e+02
2.885952e+03,7.069481e+02
2.886917e+03,7.049182e+02
2.887881e+03,7.023464e+02
2.888845e+03,7.106539e+02
2.889809e+03,7.218664e+02
2.890773e+03,7.134022e+02
2.891738e+03,7.030065e+02
2.892702e+03,7.187391e+02
2.893666e+03,7.223959e+02
2.894630e+03,7.078951e+02
2.895595e+03,6.992525e+02
2.896559e+03,6.973996e+02
2.897523e+03,6.964149e+02
2.898487e+03,6.976498e+02
2.899452e+03,7.083118e+02
2.900416e+03,7.058100e+02
2.901380e+03,6.870872e+02
2.902344e+03,6.910625e+02
2.903309e+03,7.185875e+02
2.904273e+03,7.196877e+02
2.905237e+03,7.098284e+02
2.906201e+03,7.060325e+02
2.907166e+03,7.041923e+02
2.908130e+03,7.023369e+02
2.909094e+03,6.989410e+02
2.910058e+03,6.940295e+02
2.911022e+03,6.907701e+02
2.911987e+03,6.901930e+02
2.912951e+03,6.923762e+02
2.913915e+03,6.961829e+02
2.914879e+03,7.016168e+02
2.915844e+03,7.051308e+02
2.916808e+03,7.059101e+02
2.917772e+03,7.007799e+02
2.918736e+03,6.944072e+02
2.919700e+03,6.944014e+02
2.920665e+03,6.924404e+02
2.921629e+03,6.803468e+02
2.922593e+03,6.708446e+02
2.923557e+03,6.649130e+02
2.924522e+03,6.600445e+02
2.925486e+03,6.581876e+02
2.926450e+03,6.682775e+02
2.927414e+03,6.794838e+02
2.928379e+03,6.880827e+02
2.929343e+03,6.899449e+02
2.930307e+03,6.856024e+02
2.931271e+03,6.763665e+02
2.932236e+03,6.662106e+02
2.933200e+03,6.583777e+02
2.934164e+03,6.541645e+02
2.935128e+03,6.528806e+02
2.936093e+03,6.631996e+02
2.937057e+03,6.814369e+02
2.938021e+03,6.778317e+02
2.938985e+03,6.646716e+02
2.939949e+03,6.569408e+02
2.940914e+03,6.610901e+02
2.941878e+03,6.779135e+02
2.942842e+03,6.885653e+02
2.943806e+03,6.886231e+02
2.944771e+03,6.820923e+02
2.945735e+03,6.728958e+02
2.946699e+03,6.624258e+02
2.947663e+03,6.618520e+02
2.948627e+03,6.723727e+02
2.949592e+03,6.764858e+02
2.950556e+03,6.724408e+02
2.951520e+03,6.744696e+02
2.952484e+03,6.763167e+02
2.953449e+03,6.703876e+02
2.954413e+03,6.727870e+02
2.955377e+03,6.906970e+02
2.956341e+03,7.091298e+02
2.957306e+03,7.197247e+02
2.958270e+03,6.920829e+02
2.959234e+03,6.593517e+02
2.960198e+03,6.497736e+02
2.961163e+03,6.508896e+02
2.962127e+03,6.566335e+02
2.963091e+03,6.486804e+02
2.964055e+03,6.336409e+02
2.965020e+03,6.438607e+02
2.965984e+03,6.540448e+02
2.966948e+03,6.437834e+02
2.967912e+03,6.357017e+02
2.968876e+03,6.414891e+02
2.969841e+03,6.280115e+02
2.970805e+03,6.138817e+02
2.971769e+03,6.410589e+02
2.972733e+03,6.605012e+02
2.973698e+03,6.330974e+02
2.974662e+03,6.211547e+02
2.975626e+03,6.418651e+02
2.976590e+03,6.502821e+02
2.977554e+03,6.506494e+02
2.978519e+03,6.479856e+02
2.979483e+03,6.487427e+02
2.980447e+03,6.605775e+02
2.981411e+03,6.526678e+02
2.982376e+03,6.270844e+02
2.983340e+03,6.325389e+02
2.984304e+03,6.482186e+02
2.985268e+03,6.533319e+02
2.986233e+03,6.542158e+02
2.987197e+03,6.547263e+02
2.988161e+03,6.472702e+02
2.989125e+03,6.360324e+02
2.990090e+03,6.336784e+02
2.991054e+03,6.354343e+02
2.992018e+03,6.377778e+02
2.992982e+03,6.351633e+02
2.993947e+03,6.243065e+02
2.994911e+03,6.336036e+02
2.995875e+03,6.470125e+02
2.996839e+03,6.350134e+02
2.997803e+03,6.210065e+02
2.998768e+03,6.206959e+02
2.999732e+03,6.266851e+02
3.000696e+03,6.368204e+02
3.001660e+03,6.309969e+02
3.002625e+03,6.216580e+02
3.003589e+03,6.211537e+02
3.004553e+03,6.298331e+02
3.005517e+03,6.493008e+02
3.006481e+03,6.514096e+02
3.007446e+03,6.367173e+02
3.008410e+03,6.180779e+02
3.009374e+03,6.114030e+02
3.010338e+03,6.261559e+02
3.011303e+03,6.330707e+02
3.012267e+03,6.215319e+02
3.013231e+03,6.116263e+02
3.014195e+03,6.060350e+02
3.015160e+03,6.090284e+02
3.016124e+03,6.139255e+02
3.017088e+03,6.176570e+02
3.018052e+03,6.186264e+02
3.019017e+03,6.169824e+02
3.019981e+03,6.236409e+02
3.020945e+03,6.247142e+02
3.021909e+03,6.034724e+02
3.022874e+03,6.064326e+02
3.023838e+03,6.362239e+02
3.024802e+03,6.351591e+02
3.025766e+03,6.142969e+02
3.026730e+03,6.099524e+02
3.027695e+03,6.048493e+02
3.028659e+03,5.910665e+02
3.029623e+03,5.920271e+02
3.030587e+03,6.059738e+02
3.031552e+03,6.155168e+02
3.032516e+03,6.225492e+02
3.033480e+03,6.330485e+02
3.034444e+03,6.388010e+02
3.035408e+03,6.385302e+02
3.036373e+03,6.281993e+02
3.037337e+03,6.141287e+02
3.038301e+03,6.143923e+02
3.039265e+03,6.209865e+02
3.040230e+03,6.341050e+02
3.041194e+03,6.356947e+02
3.042158e+03,6.305991e+02
3.043122e+03,6.424221e+02
3.044087e+03,6.530937e+02
3.045051e+03,6.312092e+02
3.046015e+03,6.118350e+02
3.046979e+03,6.053468e+02
3.047944e+03,5.952158e+02
3.048908e+03,5.914370e+02
3.049872e+03,6.113942e+02
3.050836e+03,6.236254e+02
3.051801e+03,6.041502e+02
3.052765e+03,5.935720e+02
3.053729e+03,5.951107e+02
3.054693e+03,5.986534e+02
3.055657e+03,6.051417e+02
3.056622e+03,6.145543e+02
3.057586e+03,6.183713e+02
3.058550e+03,6.148444e+02
3.059514e+03,6.199701e+02
3.060479e+03,6.283019e+02
3.061443e+03,6.312678e+02
3.062407e+03,6.251819e+02
3.063371e+03,6.110325e+02
3.064335e+03,5.968468e+02
3.065300e+03,5.877911e+02
3.066264e+03,6.084615e+02
3.067228e+03,6.282206e+02
3.068192e+03,6.263187e+02
3.069157e+03,6.213606e+02
3.070121e+03,6.174371e+02
3.071085e+03,6.199902e+02
3.072049e+03,6.212579e+02
3.073014e+03,6.053745e+02
3.073978e+03,5.932549e+02
3.074942e+03,5.901797e+02
3.075906e+03,6.092907e+02
3.076871e+03,6.224813e+02
3.077835e+03,5.808265e+02
3.078799e+03,5.557750e+02
3.079763e+03,6.004268e+02
3.080728e+03,6.263927e+02
3.081692e+03,6.276696e+02
3.082656e+03,6.056385e+02
3.083620e+03,5.950892e+02
3.084584e+03,6.141486e+02
3.085549e+03,6.294022e+02
3.086513e+03,6.330536e+02
3.087477e+03,6.231452e+02
3.088441e+03,6.134717e+02
3.089406e+03,6.245728e+02
3.090370e+03,6.216017e+02
3.091334e+03,6.030488e+02
3.092298e+03,6.034872e+02
3.093262e+03,6.126926e+02
3.094227e+03,6.050090e+02
3.095191e+03,5.991932e+02
3.096155e+03,6.018425e+02
3.097119e+03,6.165737e+02
3.098084e+03,6.310511e+02
3.099048e+03,6.188600e+02
3.100012e+03,6.064929e+02
3.100976e+03,6.162689e+02
3.101941e+03,6.166902e+02
3.102905e+03,6.074669e+02
3.103869e+03,6.084548e+02
3.104833e+03,6.044048e+02
3.105798e+03,5.861099e+02
3.106762e+03,5.806439e+02
3.107726e+03,5.934191e+02
3.108690e+03,6.206286e+02
3.109655e+03,6.389436e+02
3.110619e+03,6.050688e+02
3.111583e+03,6.028052e+02
3.112547e+03,6.356551e+02
3.113511e+03,6.289216e+02
3.114476e+03,6.010071e+02
3.115440e+03,5.927844e+02
3.116404e+03,5.981628e+02
3.117368e+03,6.218604e+02
3.118333e+03,6.357783e+02
3.119297e+03,6.333126e+02
3.120261e+03,6.032362e+02
3.121225e+03,5.849681e+02
3.122189e+03,5.996516e+02
3.123154e+03,6.136487e+02
3.124118e+03,6.195540e+02
3.125082e+03,6.073370e+02
3.126046e+03,5.975839e+02
3.127011e+03,5.999788e+02
3.127975e+03,5.888713e+02
3.128939e+03,5.711072e+02
3.129903e+03,6.062133e+02
3.130868e+03,6.408378e+02
3.131832e+03,6.180566e+02
3.132796e+03,6.067691e+02
3.133760e+03,6.087312e+02
3.134725e+03,5.962824e+02
3.135689e+03,5.870369e+02
3.136653e+03,5.993899e+02
3.137617e+03,6.023636e+02
3.138582e+03,5.873858e+02
3.139546e+03,6.032980e+02
3.140510e+03,6.261370e+02
3.141474e+03,6.334988e+02
3.142438e+03,6.285209e+02
3.143403e+03,6.150303e+02
3.144367e+03,5.889207e+02
3.145331e+03,5.663797e+02
3.146295e+03,5.812520e+02
3.147260e+03,5.987404e+02
3.148224e+03,6.096716e+02
3.149188e+03,6.288214e+02
3.150152e+03,6.345145e+02
3.151116e+03,5.954424e+02
3.152081e+03,5.781423e+02
3.153045e+03,6.104537e+02
3.154009e+03,6.110201e+02
3.154973e+03,5.960250e+02
3.155938e+03,6.091504e+02
3.156902e+03,6.202883e+02
3.157866e+03,6.198678e+02
3.158830e+03,6.201653e+02
3.159795e+03,6.202236e+02
3.160759e+03,6.024408e+02
3.161723e+03,5.949836e+02
3.162687e+03,6.284852e+02
3.163652e+03,6.195486e+02
3.164616e+03,5.963223e+02
3.165580e+03,6.142430e+02
3.166544e+03,6.337183e+02
3.167509e+03,6.378981e+02
3.168473e+03,6.514525e+02
3.169437e+03,6.626945e+02
3.170401e+03,5.995713e+02
3.171365e+03,5.722649e+02
3.172330e+03,6.317511e+02
3.173294e+03,6.266367e+02
3.174258e+03,5.883574e+02
3.175222e+03,6.057454e+02
3.176187e+03,6.248903e+02
3.177151e+03,6.116908e+02
3.178115e+03,6.026429e+02
3.179079e+03,5.986779e+02
3.180043e+03,5.860045e+02
3.181008e+03,5.903365e+02
3.181972e+03,6.186720e+02
3.182936e+03,6.299035e+02
3.183900e+03,6.263105e+02
3.184865e+03,6.247597e+02
3.185829e+03,6.246732e+02
3.186793e+03,6.296583e+02
3.187757e+03,6.284619e+02
3.188722e+03,6.270944e+02
3.189686e+03,6.450028e+02
3.190650e+03,6.422438e+02
3.191614e+03,6.074324e+02
3.192579e+03,6.075661e+02
3.193543e+03,6.300530e+02
3.194507e+03,6.137867e+02
3.195471e+03,6.040170e+02
3.196436e+03,6.194506e+02
3.197400e+03,6.363826e+02
3.198364e+03,6.513864e+02
3.199328e+03,6.653487e+02
3.200292e+03,6.676695e+02
3.201257e+03,0.000000e+00
3.202221e+03,0.000000e+00
3.203185e+03,0.000000e+00
3.204149e+03,0.000000e+00
3.205114e+03,0.000000e+00
3.206078e+03,0.000000e+00
3.207042e+03,0.000000e+00
3.208006e+03,0.000000e+00
3.208970e+03,0.000000e+00
3.209935e+03,0.000000e+00
3.210899e+03,0.000000e+00
3.211863e+03,0.000000e+00
3.212827e+03,0.000000e+00
3.213792e+03,0.000000e+00
3.214756e+03,0.000000e+00
3.215720e+03,0.000000e+00
3.216684e+03,0.000000e+00
3.217649e+03,0.000000e+00
3.218613e+03,0.000000e+00
3.219577e+03,0.000000e+00
3.220541e+03,0.000000e+00
3.221506e+03,0.000000e+00
3.222470e+03,0.000000e+00
3.223434e+03,0.000000e+00
3.224398e+03,0.000000e+00
3.225363e+03,0.000000e+00
3.226327e+03,0.000000e+00
3.227291e+03,0.000000e+00
3.228255e+03,0.000000e+00
3.229219e+03,0.000000e+00
3.230184e+03,0.000000e+00
3.231148e+03,0.000000e+00
3.232112e+03,0.000000e+00
3.233076e+03,0.000000e+00
3.234041e+03,0.000000e+00
3.235005e+03,0.000000e+00
3.235969e+03,0.000000e+00
3.236933e+03,0.000000e+00
3.237897e+03,0.000000e+00
3.238862e+03,0.000000e+00
3.239826e+03,0.000000e+00
3.240790e+03,0.000000e+00
3.241754e+03,0.000000e+00
3.242719e+03,0.000000e+00
3.243683e+03,0.000000e+00
3.244647e+03,0.000000e+00
3.245611e+03,0.000000e+00
3.246576e+03,0.000000e+00
3.247540e+03,0.000000e+00
3.248504e+03,0.000000e+00
3.249468e+03,0.000000e+00
3.250433e+03,0.000000e+00
3.251397e+03,0.000000e+00
3.252361e+03,0.000000e+00
3.253325e+03,0.000000e+00
3.254290e+03,0.000000e+00
3.255254e+03,0.000000e+00
3.256218e+03,0.000000e+00
3.257182e+03,0.000000e+00
3.258146e+03,0.000000e+00
3.259111e+03,0.000000e+00
3.260075e+03,0.000000e+00
3.261039e+03,0.000000e+00
3.262003e+03,0.000000e+00
3.262968e+03,0.000000e+00
3.263932e+03,0.000000e+00
3.264896e+03,0.000000e+00
3.265860e+03,0.000000e+00
3.266824e+03,0.000000e+00
3.267789e+03,0.000000e+00
3.268753e+03,0.000000e+00
3.269717e+03,0.000000e+00
3.270681e+03,0.000000e+00
3.271646e+03,0.000000e+00
3.272610e+03,0.000000e+00
3.273574e+03,0.000000e+00
3.274538e+03,0.000000e+00
3.275503e+03,0.000000e+00
3.276467e+03,0.000000e+00
3.277431e+03,0.000000e+00
3.278395e+03,0.000000e+00
3.279360e+03,0.000000e+00
3.280324e+03,0.000000e+00
3.281288e+03,0.000000e+00
3.282252e+03,0.000000e+00
3.283217e+03,0.000000e+00
3.284181e+03,0.000000e+00
3.285145e+03,0.000000e+00
3.286109e+03,0.000000e+00
3.287073e+03,0.000000e+00
3.288038e+03,0.000000e+00
3.289002e+03,0.000000e+00
3.289966e+03,0.000000e+00
3.290930e+03,0.000000e+00
3.291895e+03,0.000000e+00
3.292859e+03,0.000000e+00
3.293823e+03,0.000000e+00
3.294787e+03,0.000000e+00
3.295751e+03,0.000000e+00
3.296716e+03,0.000000e+00
3.297680e+03,0.000000e+00
3.298644e+03,0.000000e+00
3.299608e+03,0.000000e+00
3.300573e+03,0.000000e+00
3.301537e+03,0.000000e+00
3.302501e+03,0.000000e+00
3.303465e+03,0.000000e+00
3.304430e+03,0.000000e+00
3.305394e+03,0.000000e+00
3.306358e+03,0.000000e+00
3.307322e+03,0.000000e+00
3.308287e+03,0.000000e+00
3.309251e+03,0.000000e+00
3.310215e+03,0.000000e+00
3.311179e+03,0.000000e+00
3.312144e+03,0.000000e+00
3.313108e+03,0.000000e+00
3.314072e+03,0.000000e+00
3.315036e+03,0.000000e+00
3.316000e+03,0.000000e+00
3.316965e+03,0.000000e+00
3.317929e+03,0.000000e+00
3.318893e+03,0.000000e+00
3.319857e+03,0.000000e+00
3.320822e+03,0.000000e+00
3.321786e+03,0.000000e+00
3.322750e+03,0.000000e+00
3.323714e+03,0.000000e+00
3.324678e+03,0.000000e+00
3.325643e+03,0.000000e+00
3.326607e+03,0.000000e+00
3.327571e+03,0.000000e+00
3.328535e+03,0.000000e+00
3.329500e+03,0.000000e+00
3.330464e+03,0.000000e+00
3.331428e+03,0.000000e+00
3.332392e+03,0.000000e+00
3.333357e+03,0.000000e+00
3.334321e+03,0.000000e+00
3.335285e+03,0.000000e+00
3.336249e+03,0.000000e+00
3.337214e+03,0.000000e+00
3.338178e+03,0.000000e+00
3.339142e+03,0.000000e+00
3.340106e+03,0.000000e+00
3.341071e+03,0.000000e+00
3.342035e+03,0.000000e+00
3.342999e+03,0.000000e+00
3.343963e+03,0.000000e+00
3.344927e+03,0.000000e+00
3.345892e+03,0.000000e+00
3.346856e+03,0.000000e+00
3.347820e+03,0.000000e+00
3.348784e+03,0.000000e+00
3.349749e+03,0.000000e+00
3.350713e+03,0.000000e+00
3.351677e+03,0.000000e+00
3.352641e+03,0.000000e+00
3.353605e+03,0.000000e+00
3.354570e+03,0.000000e+00
3.355534e+03,0.000000e+00
3.356498e+03,0.000000e+00
3.357462e+03,0.000000e+00
3.358427e+03,0.000000e+00
3.359391e+03,0.000000e+00
3.360355e+03,0.000000e+00
3.361319e+03,0.000000e+00
3.362284e+03,0.000000e+00
3.363248e+03,0.000000e+00
3.364212e+03,0.000000e+00
3.365176e+03,0.000000e+00
3.366141e+03,0.000000e+00
3.367105e+03,0.000000e+00
3.368069e+03,0.000000e+00
3.369033e+03,0.000000e+00
3.369998e+03,0.000000e+00
3.370962e+03,0.000000e+00
3.371926e+03,0.000000e+00
3.372890e+03,0.000000e+00
3.373854e+03,0.000000e+00
3.374819e+03,0.000000e+00
3.375783e+03,0.000000e+00
3.376747e+03,0.000000e+00
3.377711e+03,0.000000e+00
3.378676e+03,0.000000e+00
3.379640e+03,0.000000e+00
3.380604e+03,0.000000e+00
3.381568e+03,0.000000e+00
3.382532e+03,0.000000e+00
3.383497e+03,0.000000e+00
3.384461e+03,0.000000e+00
3.385425e+03,0.000000e+00
3.386389e+03,0.000000e+00
3.387354e+03,0.000000e+00
3.388318e+03,0.000000e+00
3.389282e+03,0.000000e+00
3.390246e+03,0.000000e+00
3.391211e+03,0.000000e+00
3.392175e+03,0.000000e+00
3.393139e+03,0.000000e+00
3.394103e+03,0.000000e+00
3.395068e+03,0.000000e+00
3.396032e+03,0.000000e+00
3.396996e+03,0.000000e+00
3.397960e+03,0.000000e+00
3.398925e+03,0.000000e+00
3.399889e+03,0.000000e+00
3.400853e+03,0.000000e+00
3.401817e+03,0.000000e+00
3.402781e+03,0.000000e+00
3.403746e+03,0.000000e+00
3.404710e+03,0.000000e+00
3.405674e+03,0.000000e+00
3.406638e+03,0.000000e+00
3.407603e+03,0.000000e+00
3.408567e+03,0.000000e+00
3.409531e+03,0.000000e+00
3.410495e+03,0.000000e+00
3.411459e+03,0.000000e+00
3.412424e+03,0.000000e+00
3.413388e+03,0.000000e+00
3.414352e+03,0.000000e+00
3.415316e+03,0.000000e+00
3.416281e+03,0.000000e+00
3.417245e+03,0.000000e+00
3.418209e+03,0.000000e+00
3.419173e+03,0.000000e+00
3.420138e+03,0.000000e+00
3.421102e+03,0.000000e+00
3.422066e+03,0.000000e+00
3.423030e+03,0.000000e+00
3.423995e+03,0.000000e+00
3.424959e+03,0.000000e+00
3.425923e+03,0.000000e+00
3.426887e+03,0.000000e+00
3.427852e+03,0.000000e+00
3.428816e+03,0.000000e+00
3.429780e+03,0.000000e+00
3.430744e+03,0.000000e+00
3.431708e+03,0.000000e+00
3.432673e+03,0.000000e+00
3.433637e+03,0.000000e+00
3.434601e+03,0.000000e+00
3.435565e+03,0.000000e+00
3.436530e+03,0.000000e+00
3.437494e+03,0.000000e+00
3.438458e+03,0.000000e+00
3.439422e+03,0.000000e+00
3.440386e+03,0.000000e+00
3.441351e+03,0.000000e+00
3.442315e+03,0.000000e+00
3.443279e+03,0.000000e+00
3.444243e+03,0.000000e+00
3.445208e+03,0.000000e+00
3.446172e+03,0.000000e+00
3.447136e+03,0.000000e+00
3.448100e+03,0.000000e+00
3.449065e+03,0.000000e+00
3.450029e+03,0.000000e+00
3.450993e+03,0.000000e+00
3.451957e+03,0.000000e+00
3.452922e+03,0.000000e+00
3.453886e+03,0.000000e+00
3.454850e+03,0.000000e+00
3.455814e+03,0.000000e+00
3.456779e+03,0.000000e+00
3.457743e+03,0.000000e+00
3.458707e+03,0.000000e+00
3.459671e+03,0.000000e+00
3.460635e+03,0.000000e+00
3.461600e+03,0.000000e+00
3.462564e+03,0.000000e+00
3.463528e+03,0.000000e+00
3.464492e+03,0.000000e+00
3.465457e+03,0.000000e+00
3.466421e+03,0.000000e+00
3.467385e+03,0.000000e+00
3.468349e+03,0.000000e+00
3.469313e+03,0.000000e+00
3.470278e+03,0.000000e+00
3.471242e+03,0.000000e+00
3.472206e+03,0.000000e+00
3.473170e+03,0.000000e+00
3.474135e+03,0.000000e+00
3.475099e+03,0.000000e+00
3.476063e+03,0.000000e+00
3.477027e+03,0.000000e+00
3.477992e+03,0.000000e+00
3.478956e+03,0.000000e+00
3.479920e+03,0.000000e+00
3.480884e+03,0.000000e+00
3.481849e+03,0.000000e+00
3.482813e+03,0.000000e+00
3.483777e+03,0.000000e+00
3.484741e+03,0.000000e+00
3.485706e+03,0.000000e+00
3.486670e+03,0.000000e+00
3.487634e+03,0.000000e+00
3.488598e+03,0.000000e+00
3.489563e+03,0.000000e+00
3.490527e+03,0.000000e+00
3.491491e+03,0.000000e+00
3.492455e+03,0.000000e+00
3.493419e+03,0.000000e+00
3.494384e+03,0.000000e+00
3.495348e+03,0.000000e+00
3.496312e+03,0.000000e+00
3.497276e+03,0.000000e+00
3.498240e+03,0.000000e+00
3.499205e+03,0.000000e+00
3.500169e+03,0.000000e+00
