9.931763e+01,0.000000e+00
1.002819e+02,0.000000e+00
1.012461e+02,0.000000e+00
1.022103e+02,0.000000e+00
1.031746e+02,0.000000e+00
1.041388e+02,0.000000e+00
1.051030e+02,0.000000e+00
1.060673e+02,0.000000e+00
1.070315e+02,0.000000e+00
1.079957e+02,0.000000e+00
1.089600e+02,0.000000e+00
1.099242e+02,0.000000e+00
1.108884e+02,0.000000e+00
1.118527e+02,0.000000e+00
1.128169e+02,0.000000e+00
1.137811e+02,0.000000e+00
1.147454e+02,0.000000e+00
1.157096e+02,0.000000e+00
1.166738e+02,0.000000e+00
1.176381e+02,0.000000e+00
1.186023e+02,0.000000e+00
1.195665e+02,0.000000e+00
1.205308e+02,0.000000e+00
1.214950e+02,0.000000e+00
1.224592e+02,0.000000e+00
1.234235e+02,0.000000e+00
1.243877e+02,0.000000e+00
1.253519e+02,0.000000e+00
1.263162e+02,0.000000e+00
1.272804e+02,0.000000e+00
1.282446e+02,0.000000e+00
1.292089e+02,0.000000e+00
1.301731e+02,0.000000e+00
1.311373e+02,0.000000e+00
1.321016e+02,0.000000e+00
1.330658e+02,0.000000e+00
1.340300e+02,0.000000e+00
1.349943e+02,0.000000e+00
1.359585e+02,0.000000e+00
1.369227e+02,0.000000e+00
1.378870e+02,0.000000e+00
1.388512e+02,0.000000e+00
1.398154e+02,0.000000e+00
1.407797e+02,0.000000e+00
1.417439e+02,0.000000e+00
1.427081e+02,0.000000e+00
1.436724e+02,0.000000e+00
1.446366e+02,0.000000e+00
1.456008e+02,0.000000e+00
1.465651e+02,0.000000e+00
1.475293e+02,0.000000e+00
1.484935e+02,0.000000e+00
1.494578e+02,0.000000e+00
1.504220e+02,0.000000e+00
1.513862e+02,0.000000e+00
1.523505e+02,0.000000e+00
1.533147e+02,0.000000e+00
1.542789e+02,0.000000e+00
1.552432e+02,0.000000e+00
1.562074e+02,0.000000e+00
1.571716e+02,0.000000e+00
1.581359e+02,0.000000e+00
1.591001e+02,0.000000e+00
1.600643e+02,0.000000e+00
1.610286e+02,0.000000e+00
1.619928e+02,0.000000e+00
1.629570e+02,0.000000e+00
1.639213e+02,0.000000e+00
1.648855e+02,0.000000e+00
1.658497e+02,0.000000e+00
1.668140e+02,0.000000e+00
1.677782e+02,0.000000e+00
1.687424e+02,0.000000e+00
1.697067e+02,0.000000e+00
1.706709e+02,0.000000e+00
1.716351e+02,0.000000e+00
1.725994e+02,0.000000e+00
1.735636e+02,0.000000e+00
1.745278e+02,0.000000e+00
1.754921e+02,0.000000e+00
1.764563e+02,0.000000e+00
1.774205e+02,0.000000e+00
1.783848e+02,0.000000e+00
1.793490e+02,0.000000e+00
1.803132e+02,0.000000e+00
1.812775e+02,0.000000e+00
1.822417e+02,0.000000e+00
1.832059e+02,0.000000e+00
1.841702e+02,0.000000e+00
1.851344e+02,0.000000e+00
1.860986e+02,0.000000e+00
1.870629e+02,0.000000e+00
1.880271e+02,0.000000e+00
1.889913e+02,0.000000e+00
1.899556e+02,0.000000e+00
1.909198e+02,0.000000e+00
1.918840e+02,0.000000e+00
1.928483e+02,0.000000e+00
1.938125e+02,0.000000e+00
1.947767e+02,0.000000e+00
1.957410e+02,0.000000e+00
1.967052e+02,0.000000e+00
1.976694e+02,0.000000e+00
1.986337e+02,0.000000e+00
1.995979e+02,6.815073e+03
2.005621e+02,6.824127e+03
2.015264e+02,6.831515e+03
2.024906e+02,6.832921e+03
2.034548e+02,6.836128e+03
2.044191e+02,6.841065e+03
2.053833e+02,6.846953e+03
2.063475e+02,6.853891e+03
2.073118e+02,6.864585e+03
2.082760e+02,6.883036e+03
2.092402e+02,6.892389e+03
2.102045e+02,6.888173e+03
2.111687e+02,6.881377e+03
2.121329e+02,6.878653e+03
2.130972e+02,6.881405e+03
2.140614e+02,6.887195e+03
2.150256e+02,6.892500e+03
2.159899e+02,6.895528e+03
2.169541e+02,6.902830e+03
2.179183e+02,6.920412e+03
2.188826e+02,6.945142e+03
2.198468e+02,6.968347e+03
2.208110e+02,6.983180e+03
2.217753e+02,6.988904e+03
2.227395e+02,6.990622e+03
2.237037e+02,6.990909e+03
2.246680e+02,6.990930e+03
2.256322e+02,6.990050e+03
2.265964e+02,6.989490e+03
2.275607e+02,6.991353e+03
2.285249e+02,6.997719e+03
2.294892e+02,7.009213e+03
2.304534e+02,7.023047e+03
2.314176e+02,7.033963e+03
2.323819e+02,7.041439e+03
2.333461e+02,7.049147e+03
2.343103e+02,7.061487e+03
2.352746e+02,7.076167e+03
2.362388e+02,7.086780e+03
2.372030e+02,7.089338e+03
2.381673e+02,7.085029e+03
2.391315e+02,7.080775e+03
2.400957e+02,7.077078e+03
2.410600e+02,7.078786e+03
2.420242e+02,7.092271e+03
2.429884e+02,7.116681e+03
2.439527e+02,7.144380e+03
2.449169e+02,7.169056e+03
2.458811e+02,7.189105e+03
2.468454e+02,7.203523e+03
2.478096e+02,7.207921e+03
2.487738e+02,7.210200e+03
2.497381e+02,7.216881e+03
2.507023e+02,7.229097e+03
2.516665e+02,7.242211e+03
2.526308e+02,7.247954e+03
2.535950e+02,7.229118e+03
2.545592e+02,7.217598e+03
2.555235e+02,7.221046e+03
2.564877e+02,7.232546e+03
2.574519e+02,7.244591e+03
2.584161e+02,7.254052e+03
2.593804e+02,7.262244e+03
2.603446e+02,7.271419e+03
2.613088e+02,7.273017e+03
2.622731e+02,7.279291e+03
2.632373e+02,7.295973e+03
2.642015e+02,7.320356e+03
2.651658e+02,7.344784e+03
2.661300e+02,7.365227e+03
2.670942e+02,7.384373e+03
2.680585e+02,7.398395e+03
2.690227e+02,7.399021e+03
2.699869e+02,7.397157e+03
2.709512e+02,7.400273e+03
2.719154e+02,7.414405e+03
2.728796e+02,7.434489e+03
2.738439e+02,7.454221e+03
2.748081e+02,7.475983e+03
2.757723e+02,7.497938e+03
2.767366e+02,7.511706e+03
2.777008e+02,7.516080e+03
2.786650e+02,7.517320e+03
2.796293e+02,7.519032e+03
2.805935e+02,7.521808e+03
2.815577e+02,7.525388e+03
2.825220e+02,7.529792e+03
2.834862e+02,7.531545e+03
2.844504e+02,7.524927e+03
2.854147e+02,7.506452e+03
2.863789e+02,7.489905e+03
2.873431e+02,7.481675e+03
2.883074e+02,7.480864e+03
2.892716e+02,7.482901e+03
2.902358e+02,7.483850e+03
2.912001e+02,7.482740e+03
2.921643e+02,7.482169e+03
2.931285e+02,7.483985e+03
2.940928e+02,7.487694e+03
2.950570e+02,7.491497e+03
2.960212e+02,7.494349e+03
2.969855e+02,7.497205e+03
2.979497e+02,7.503988e+03
2.989139e+02,7.520885e+03
2.998782e+02,7.530562e+03
3.008424e+02,7.532057e+03
3.018066e+02,7.531696e+03
3.027709e+02,7.531009e+03
3.037351e+02,7.529036e+03
3.046993e+02,7.526177e+03
3.056636e+02,7.525222e+03
3.066278e+02,7.528369e+03
3.075920e+02,7.532065e+03
3.085563e+02,7.533693e+03
3.095205e+02,7.535985e+03
3.104847e+02,7.541982e+03
3.114490e+02,7.553432e+03
3.124132e+02,7.566339e+03
3.133774e+02,7.574167e+03
3.143417e+02,7.574657e+03
3.153059e+02,7.570179e+03
3.162701e+02,7.566753e+03
3.172344e+02,7.567463e+03
3.181986e+02,7.568037e+03
3.191628e+02,7.564862e+03
3.201271e+02,7.561304e+03
3.210913e+02,7.563607e+03
3.220555e+02,7.574712e+03
3.230198e+02,7.592635e+03
3.239840e+02,7.607877e+03
3.249482e+02,7.620474e+03
3.259125e+02,7.629712e+03
3.268767e+02,7.632971e+03
3.278409e+02,7.632423e+03
3.288052e+02,7.633183e+03
3.297694e+02,7.640777e+03
3.307336e+02,7.657257e+03
3.316979e+02,7.668291e+03
3.326621e+02,7.671105e+03
3.336263e+02,7.668414e+03
3.345906e+02,7.660245e+03
3.355548e+02,7.648525e+03
3.365190e+02,7.640219e+03
3.374833e+02,7.643362e+03
3.384475e+02,7.658668e+03
3.394117e+02,7.672752e+03
3.403760e+02,7.675067e+03
3.413402e+02,7.671814e+03
3.423044e+02,7.675178e+03
3.432687e+02,7.692426e+03
3.442329e+02,7.713062e+03
3.451971e+02,7.726452e+03
3.461614e+02,7.730320e+03
3.471256e+02,7.727756e+03
3.480898e+02,7.723433e+03
3.490541e+02,7.718597e+03
3.500183e+02,7.717468e+03
3.509825e+02,7.726675e+03
3.519468e+02,7.739554e+03
3.529110e+02,7.748526e+03
3.538752e+02,7.750186e+03
3.548395e+02,7.747367e+03
3.558037e+02,7.747256e+03
3.567680e+02,7.751206e+03
3.577322e+02,7.756540e+03
3.586964e+02,7.767635e+03
3.596607e+02,7.781640e+03
3.606249e+02,7.793017e+03
3.615891e+02,7.795468e+03
3.625534e+02,7.789483e+03
3.635176e+02,7.781151e+03
3.644818e+02,7.771535e+03
3.654461e+02,7.765195e+03
3.664103e+02,7.770985e+03
3.673745e+02,7.789970e+03
3.683388e+02,7.808575e+03
3.693030e+02,7.815499e+03
3.702672e+02,7.815719e+03
3.712315e+02,7.819221e+03
3.721957e+02,7.827804e+03
3.731599e+02,7.836438e+03
3.741242e+02,7.840054e+03
3.750884e+02,7.837930e+03
3.760526e+02,7.840285e+03
3.770169e+02,7.851111e+03
3.779811e+02,7.863983e+03
3.789453e+02,7.869845e+03
3.799096e+02,7.862825e+03
3.808738e+02,7.846832e+03
3.818380e+02,7.839260e+03
3.828023e+02,7.849790e+03
3.837665e+02,7.863662e+03
3.847307e+02,7.876987e+03
3.856950e+02,7.888994e+03
3.866592e+02,7.897893e+03
3.876234e+02,7.899797e+03
3.885877e+02,7.896966e+03
3.895519e+02,7.896803e+03
3.905161e+02,7.899769e+03
3.914804e+02,7.902828e+03
3.924446e+02,7.903675e+03
3.934088e+02,7.903819e+03
3.943731e+02,7.904392e+03
3.953373e+02,7.904263e+03
3.963015e+02,7.904396e+03
3.972658e+02,7.907084e+03
3.982300e+02,7.914409e+03
3.991942e+02,7.926466e+03
4.001585e+02,7.936927e+03
4.011227e+02,7.939921e+03
4.020869e+02,7.941903e+03
4.030512e+02,7.939653e+03
4.040154e+02,7.934267e+03
4.049796e+02,7.929722e+03
4.059439e+02,7.927367e+03
4.069081e+02,7.927415e+03
4.078723e+02,7.932448e+03
4.088366e+02,7.943866e+03
4.098008e+02,7.951803e+03
4.107650e+02,7.952641e+03
4.117293e+02,7.947958e+03
4.126935e+02,7.945025e+03
4.136577e+02,7.948001e+03
4.146220e+02,7.953484e+03
4.155862e+02,7.956021e+03
4.165504e+02,7.954378e+03
4.175147e+02,7.952242e+03
4.184789e+02,7.954959e+03
4.194431e+02,7.966980e+03
4.204074e+02,7.978182e+03
4.213716e+02,7.991390e+03
4.223358e+02,8.002443e+03
4.233001e+02,8.006103e+03
4.242643e+02,7.999605e+03
4.252285e+02,7.988073e+03
4.261928e+02,7.982370e+03
4.271570e+02,7.984890e+03
4.281212e+02,7.989928e+03
4.290855e+02,7.994909e+03
4.300497e+02,7.998943e+03
4.310139e+02,8.001404e+03
4.319782e+02,8.004286e+03
4.329424e+02,8.006470e+03
4.339066e+02,8.003226e+03
4.348709e+02,7.993140e+03
4.358351e+02,7.983512e+03
4.367993e+02,7.982146e+03
4.377636e+02,7.993794e+03
4.387278e+02,8.003359e+03
4.396920e+02,8.014244e+03
4.406563e+02,8.023085e+03
4.416205e+02,8.024549e+03
4.425847e+02,8.017125e+03
4.435490e+02,8.007952e+03
4.445132e+02,8.009555e+03
4.454774e+02,8.026323e+03
4.464417e+02,8.038472e+03
4.474059e+02,8.032794e+03
4.483701e+02,8.020504e+03
4.493344e+02,8.017541e+03
4.502986e+02,8.038311e+03
4.512628e+02,8.060557e+03
4.522271e+02,8.066887e+03
4.531913e+02,8.059969e+03
4.541555e+02,8.051986e+03
4.551198e+02,8.049985e+03
4.560840e+02,8.054395e+03
4.570482e+02,8.053110e+03
4.580125e+02,8.041899e+03
4.589767e+02,8.036052e+03
4.599409e+02,8.040059e+03
4.609052e+02,8.050398e+03
4.618694e+02,8.060260e+03
4.628336e+02,8.065054e+03
4.637979e+02,8.065827e+03
4.647621e+02,8.068459e+03
4.657263e+02,8.077811e+03
4.666906e+02,8.089147e+03
4.676548e+02,8.093600e+03
4.686190e+02,8.087884e+03
4.695833e+02,8.082114e+03
4.705475e+02,8.078042e+03
4.715117e+02,8.075004e+03
4.724760e+02,8.073515e+03
4.734402e+02,8.074469e+03
4.744044e+02,8.076629e+03
4.753687e+02,8.075937e+03
4.763329e+02,8.069068e+03
4.772971e+02,8.064929e+03
4.782614e+02,8.064764e+03
4.792256e+02,8.068422e+03
4.801898e+02,8.075310e+03
4.811541e+02,8.086482e+03
4.821183e+02,8.097702e+03
4.830826e+02,8.101686e+03
4.840468e+02,8.097261e+03
4.850110e+02,8.093299e+03
4.859753e+02,8.097596e+03
4.869395e+02,8.110419e+03
4.879037e+02,8.116010e+03
4.888680e+02,8.108216e+03
4.898322e+02,8.100364e+03
4.907964e+02,8.101575e+03
4.917607e+02,8.111448e+03
4.927249e+02,8.122388e+03
4.936891e+02,8.126657e+03
4.946534e+02,8.123594e+03
4.956176e+02,8.119993e+03
4.965818e+02,8.114129e+03
4.975461e+02,8.110646e+03
4.985103e+02,8.112942e+03
4.994745e+02,8.121147e+03
5.004388e+02,8.126585e+03
5.014030e+02,8.128609e+03
5.023672e+02,8.127702e+03
5.033315e+02,8.121398e+03
5.042957e+02,8.107722e+03
5.052599e+02,8.091117e+03
5.062242e+02,8.084167e+03
5.071884e+02,8.098044e+03
5.081526e+02,8.108214e+03
5.091169e+02,8.110351e+03
5.100811e+02,8.110292e+03
5.110453e+02,8.113144e+03
5.120095e+02,8.123372e+03
5.129738e+02,8.136601e+03
5.139380e+02,8.147524e+03
5.149022e+02,8.156417e+03
5.158665e+02,8.163055e+03
5.168307e+02,8.163333e+03
5.177949e+02,8.153586e+03
5.187592e+02,8.146624e+03
5.197234e+02,8.159831e+03
5.206876e+02,8.171498e+03
5.216519e+02,8.170493e+03
5.226161e+02,8.160072e+03
5.235803e+02,8.149938e+03
5.245446e+02,8.146721e+03
5.255088e+02,8.149771e+03
5.264730e+02,8.155730e+03
5.274373e+02,8.166044e+03
5.284015e+02,8.176444e+03
5.293657e+02,8.180315e+03
5.303300e+02,8.176898e+03
5.312942e+02,8.176472e+03
5.322584e+02,8.188365e+03
5.332227e+02,8.205885e+03
5.341869e+02,8.220841e+03
5.351511e+02,8.230083e+03
5.361154e+02,8.234776e+03
5.370796e+02,8.236142e+03
5.380438e+02,8.232772e+03
5.390081e+02,8.237096e+03
5.399723e+02,8.258590e+03
5.409365e+02,8.285545e+03
5.419008e+02,8.304870e+03
5.428650e+02,8.310943e+03
5.438292e+02,8.311756e+03
5.447935e+02,8.310452e+03
5.457577e+02,8.307432e+03
5.467219e+02,8.302911e+03
5.476862e+02,8.296691e+03
5.486504e+02,8.290305e+03
5.496146e+02,8.289054e+03
5.505789e+02,8.294033e+03
5.515431e+02,8.301938e+03
5.525073e+02,8.320718e+03
5.534716e+02,8.345280e+03
5.544358e+02,8.363635e+03
5.554000e+02,8.361036e+03
5.563643e+02,8.352541e+03
5.573285e+02,8.356754e+03
5.582927e+02,8.370408e+03
5.592570e+02,8.376396e+03
5.602212e+02,8.363714e+03
5.611854e+02,8.331899e+03
5.621497e+02,8.306768e+03
5.631139e+02,8.292435e+03
5.640781e+02,8.277227e+03
5.650424e+02,8.263462e+03
5.660066e+02,8.249819e+03
5.669708e+02,8.230433e+03
5.679351e+02,8.193382e+03
5.688993e+02,8.152347e+03
5.698635e+02,8.134380e+03
5.708278e+02,8.143295e+03
5.717920e+02,8.160443e+03
5.727562e+02,8.166786e+03
5.737205e+02,8.154844e+03
5.746847e+02,8.150444e+03
5.756489e+02,8.158312e+03
5.766132e+02,8.166986e+03
5.775774e+02,8.170766e+03
5.785416e+02,8.169334e+03
5.795059e+02,8.167320e+03
5.804701e+02,8.168212e+03
5.814343e+02,8.171355e+03
5.823986e+02,8.175571e+03
5.833628e+02,8.181816e+03
5.843270e+02,8.187756e+03
5.852913e+02,8.189328e+03
5.862555e+02,8.179787e+03
5.872197e+02,8.176236e+03
5.881840e+02,8.180594e+03
5.891482e+02,8.187917e+03
5.901124e+02,8.194579e+03
5.910767e+02,8.199441e+03
5.920409e+02,8.204467e+03
5.930051e+02,8.210854e+03
5.939694e+02,8.217882e+03
5.949336e+02,8.225608e+03
5.958978e+02,8.235201e+03
5.968621e+02,8.244421e+03
5.978263e+02,8.248759e+03
5.987905e+02,8.247105e+03
5.997548e+02,8.244062e+03
6.007190e+02,8.237335e+03
6.016832e+02,8.231973e+03
6.026475e+02,8.231562e+03
6.036117e+02,8.234423e+03
6.045759e+02,8.243226e+03
6.055402e+02,8.265926e+03
6.065044e+02,8.299456e+03
6.074686e+02,8.327327e+03
6.084329e+02,8.345193e+03
6.093971e+02,8.353497e+03
6.103613e+02,8.350395e+03
6.113256e+02,8.332442e+03
6.122899e+02,8.306728e+03
6.132541e+02,8.265238e+03
6.142183e+02,8.217620e+03
6.151826e+02,8.180428e+03
6.161468e+02,8.168069e+03
6.171110e+02,8.168765e+03
6.180753e+02,8.168214e+03
6.190395e+02,8.165722e+03
6.200037e+02,8.161252e+03
6.209680e+02,8.153513e+03
6.219322e+02,8.144036e+03
6.228964e+02,8.141608e+03
6.238607e+02,8.154490e+03
6.248249e+02,8.164372e+03
6.257891e+02,8.160239e+03
6.267534e+02,8.144537e+03
6.277176e+02,8.130933e+03
6.286818e+02,8.129189e+03
6.296461e+02,8.134492e+03
6.306103e+02,8.144830e+03
6.315745e+02,8.159057e+03
6.325388e+02,8.166897e+03
6.335030e+02,8.155631e+03
6.344672e+02,8.122818e+03
6.354315e+02,8.108146e+03
6.363957e+02,8.124826e+03
6.373599e+02,8.140936e+03
6.383242e+02,8.141307e+03
6.392884e+02,8.128667e+03
6.402526e+02,8.118615e+03
6.412169e+02,8.119317e+03
6.421811e+02,8.122061e+03
6.431453e+02,8.118048e+03
6.441096e+02,8.107209e+03
6.450738e+02,8.095400e+03
6.460380e+02,8.090008e+03
6.470023e+02,8.092985e+03
6.479665e+02,8.093667e+03
6.489307e+02,8.086102e+03
6.498950e+02,8.079989e+03
6.508592e+02,8.085433e+03
6.518234e+02,8.103217e+03
6.527877e+02,8.110959e+03
6.537519e+02,8.099032e+03
6.547161e+02,8.081583e+03
6.556804e+02,8.068246e+03
6.566446e+02,8.060742e+03
6.576088e+02,8.056333e+03
6.585731e+02,8.053447e+03
6.595373e+02,8.051640e+03
6.605015e+02,8.047600e+03
6.614658e+02,8.039830e+03
6.624300e+02,8.033591e+03
6.633942e+02,8.034214e+03
6.643585e+02,8.043936e+03
6.653227e+02,8.053932e+03
6.662869e+02,8.065653e+03
6.672512e+02,8.074201e+03
6.682154e+02,8.075035e+03
6.691796e+02,8.066852e+03
6.701439e+02,8.057978e+03
6.711081e+02,8.056883e+03
6.720723e+02,8.059367e+03
6.730366e+02,8.056524e+03
6.740008e+02,8.047588e+03
6.749650e+02,8.037497e+03
6.759293e+02,8.032673e+03
6.768935e+02,8.037354e+03
6.778577e+02,8.038328e+03
6.788220e+02,8.034552e+03
6.797862e+02,8.032316e+03
6.807504e+02,8.032778e+03
6.817147e+02,8.034186e+03
6.826789e+02,8.035077e+03
6.836431e+02,8.033491e+03
6.846074e+02,8.028602e+03
6.855716e+02,8.021799e+03
6.865358e+02,8.014744e+03
6.875001e+02,8.007341e+03
6.884643e+02,7.997486e+03
6.894285e+02,7.985560e+03
6.903928e+02,7.978625e+03
6.913570e+02,7.978206e+03
6.923212e+02,7.979512e+03
6.932855e+02,7.978761e+03
6.942497e+02,7.979391e+03
6.952139e+02,7.977728e+03
6.961782e+02,7.968166e+03
6.971424e+02,7.958053e+03
6.981066e+02,7.950792e+03
6.990709e+02,7.944172e+03
7.000351e+02,7.936563e+03
7.009993e+02,7.930175e+03
7.019636e+02,7.927602e+03
7.029278e+02,7.931710e+03
7.038920e+02,7.942745e+03
7.048563e+02,7.952054e+03
7.058205e+02,7.950101e+03
7.067847e+02,7.936188e+03
7.077490e+02,7.924509e+03
7.087132e+02,7.918069e+03
7.096774e+02,7.918965e+03
7.106417e+02,7.923409e+03
7.116059e+02,7.931453e+03
7.125701e+02,7.934745e+03
7.135344e+02,7.928046e+03
7.144986e+02,7.920341e+03
7.154628e+02,7.918713e+03
7.164271e+02,7.923316e+03
7.173913e+02,7.929083e+03
7.183555e+02,7.933787e+03
7.193198e+02,7.936037e+03
7.202840e+02,7.927836e+03
7.212482e+02,7.906824e+03
7.222125e+02,7.886413e+03
7.231767e+02,7.880302e+03
7.241409e+02,7.893703e+03
7.251052e+02,7.900308e+03
7.260694e+02,7.896314e+03
7.270336e+02,7.887768e+03
7.279979e+02,7.877247e+03
7.289621e+02,7.864577e+03
7.299263e+02,7.857120e+03
7.308906e+02,7.863157e+03
7.318548e+02,7.871667e+03
7.328190e+02,7.871450e+03
7.337833e+02,7.861612e+03
7.347475e+02,7.848026e+03
7.357117e+02,7.837432e+03
7.366760e+02,7.830887e+03
7.376402e+02,7.823927e+03
7.386044e+02,7.814840e+03
7.395687e+02,7.811003e+03
7.405329e+02,7.819360e+03
7.414971e+02,7.845603e+03
7.424614e+02,7.857332e+03
7.434256e+02,7.848046e+03
7.443898e+02,7.839279e+03
7.453541e+02,7.838431e+03
7.463183e+02,7.841415e+03
7.472825e+02,7.840573e+03
7.482468e+02,7.831786e+03
7.492110e+02,7.819097e+03
7.501752e+02,7.809487e+03
7.511395e+02,7.805913e+03
7.521037e+02,7.805368e+03
7.530679e+02,7.800509e+03
7.540322e+02,7.791041e+03
7.549964e+02,7.792074e+03
7.559606e+02,7.808853e+03
7.569249e+02,7.824443e+03
7.578891e+02,7.827697e+03
7.588533e+02,7.818736e+03
7.598176e+02,7.813374e+03
7.607818e+02,7.804375e+03
7.617460e+02,7.793345e+03
7.627103e+02,7.783599e+03
7.636745e+02,7.778134e+03
7.646387e+02,7.776508e+03
7.656030e+02,7.779681e+03
7.665672e+02,7.785117e+03
7.675314e+02,7.788366e+03
7.684957e+02,7.785025e+03
7.694599e+02,7.774161e+03
7.704241e+02,7.757276e+03
7.713884e+02,7.740927e+03
7.723526e+02,7.738290e+03
7.733168e+02,7.752461e+03
7.742811e+02,7.770093e+03
7.752453e+02,7.781951e+03
7.762095e+02,7.785974e+03
7.771738e+02,7.785386e+03
7.781380e+02,7.768467e+03
7.791022e+02,7.755624e+03
7.800665e+02,7.759203e+03
7.810307e+02,7.771348e+03
7.819949e+02,7.778239e+03
7.829592e+02,7.778370e+03
7.839234e+02,7.776091e+03
7.848876e+02,7.768487e+03
7.858519e+02,7.758259e+03
7.868161e+02,7.751391e+03
7.877803e+02,7.751031e+03
7.887446e+02,7.752755e+03
7.897088e+02,7.754012e+03
7.906730e+02,7.756921e+03
7.916373e+02,7.757104e+03
7.926015e+02,7.749029e+03
7.935657e+02,7.731131e+03
7.945300e+02,7.708772e+03
7.954942e+02,7.681534e+03
7.964584e+02,7.659788e+03
7.974227e+02,7.654927e+03
7.983869e+02,7.662075e+03
7.993511e+02,7.665850e+03
8.003154e+02,7.656238e+03
8.012796e+02,7.647617e+03
8.022438e+02,7.650269e+03
8.032081e+02,7.656422e+03
8.041723e+02,7.657430e+03
8.051365e+02,7.649933e+03
8.061008e+02,7.642412e+03
8.070650e+02,7.641475e+03
8.080292e+02,7.641835e+03
8.089935e+02,7.638661e+03
8.099577e+02,7.633163e+03
8.109219e+02,7.626029e+03
8.118862e+02,7.614289e+03
8.128504e+02,7.598273e+03
8.138146e+02,7.591205e+03
8.147789e+02,7.595244e+03
8.157431e+02,7.599211e+03
8.167073e+02,7.595369e+03
8.176716e+02,7.585764e+03
8.186358e+02,7.580437e+03
8.196000e+02,7.582688e+03
8.205643e+02,7.585083e+03
8.215285e+02,7.580222e+03
8.224927e+02,7.568619e+03
8.234570e+02,7.558520e+03
8.244212e+02,7.552372e+03
8.253854e+02,7.548532e+03
8.263497e+02,7.543707e+03
8.273139e+02,7.536969e+03
8.282781e+02,7.531518e+03
8.292424e+02,7.535085e+03
8.302066e+02,7.543776e+03
8.311708e+02,7.548961e+03
8.321351e+02,7.551288e+03
8.330993e+02,7.554883e+03
8.340635e+02,7.561765e+03
8.350278e+02,7.567636e+03
8.359920e+02,7.557562e+03
8.369562e+02,7.526511e+03
8.379205e+02,7.508938e+03
8.388847e+02,7.522028e+03
8.398489e+02,7.552283e+03
8.408132e+02,7.563665e+03
8.417774e+02,7.539283e+03
8.427416e+02,7.517345e+03
8.437059e+02,7.498885e+03
8.446701e+02,7.486276e+03
8.456343e+02,7.483712e+03
8.465986e+02,7.497727e+03
8.475628e+02,7.507817e+03
8.485270e+02,7.504436e+03
8.494913e+02,7.494974e+03
8.504555e+02,7.488015e+03
8.514197e+02,7.486516e+03
8.523840e+02,7.486533e+03
8.533482e+02,7.482807e+03
8.543124e+02,7.476365e+03
8.552767e+02,7.470526e+03
8.562409e+02,7.465209e+03
8.572051e+02,7.459075e+03
8.581694e+02,7.451731e+03
8.591336e+02,7.444495e+03
8.600978e+02,7.442432e+03
8.610621e+02,7.448751e+03
8.620263e+02,7.452907e+03
8.629905e+02,7.442846e+03
8.639548e+02,7.414494e+03
8.649190e+02,7.398114e+03
8.658832e+02,7.407531e+03
8.668475e+02,7.417661e+03
8.678117e+02,7.413712e+03
8.687759e+02,7.398540e+03
8.697402e+02,7.392460e+03
8.707044e+02,7.402724e+03
8.716686e+02,7.407789e+03
8.726329e+02,7.403827e+03
8.735971e+02,7.394519e+03
8.745613e+02,7.383995e+03
8.755256e+02,7.376234e+03
8.764898e+02,7.369541e+03
8.774540e+02,7.357322e+03
8.784183e+02,7.343550e+03
8.793825e+02,7.337134e+03
8.803467e+02,7.342245e+03
8.813110e+02,7.350955e+03
8.822752e+02,7.354890e+03
8.832394e+02,7.356587e+03
8.842037e+02,7.360445e+03
8.851679e+02,7.365886e+03
8.861321e+02,7.368251e+03
8.870964e+02,7.360459e+03
8.880606e+02,7.341189e+03
8.890248e+02,7.328763e+03
8.899891e+02,7.329987e+03
8.909533e+02,7.335450e+03
8.919175e+02,7.334472e+03
8.928818e+02,7.325069e+03
8.938460e+02,7.317450e+03
8.948102e+02,7.309082e+03
8.957745e+02,7.301528e+03
8.967387e+02,7.298028e+03
8.977029e+02,7.296703e+03
8.986672e+02,7.291067e+03
8.996314e+02,7.282129e+03
9.005956e+02,7.275316e+03
9.015599e+02,7.272021e+03
9.025241e+02,7.270351e+03
9.034883e+02,7.267875e+03
9.044526e+02,7.264867e+03
9.054168e+02,7.256087e+03
9.063810e+02,7.241359e+03
9.073453e+02,7.226231e+03
9.083095e+02,7.213167e+03
9.092737e+02,7.199210e+03
9.102380e+02,7.187778e+03
9.112022e+02,7.186255e+03
9.121664e+02,7.190687e+03
9.131307e+02,7.192801e+03
9.140949e+02,7.192581e+03
9.150591e+02,7.194659e+03
9.160234e+02,7.201591e+03
9.169876e+02,7.208667e+03
9.179518e+02,7.207696e+03
9.189161e+02,7.197271e+03
9.198803e+02,7.182245e+03
9.208445e+02,7.168986e+03
9.218088e+02,7.159552e+03
9.227730e+02,7.155849e+03
9.237372e+02,7.158443e+03
9.247015e+02,7.160519e+03
9.256657e+02,7.157485e+03
9.266299e+02,7.148548e+03
9.275942e+02,7.142307e+03
9.285584e+02,7.138444e+03
9.295226e+02,7.134522e+03
9.304869e+02,7.131438e+03
9.314511e+02,7.129684e+03
9.324153e+02,7.127218e+03
9.333796e+02,7.122963e+03
9.343438e+02,7.118537e+03
9.353080e+02,7.110420e+03
9.362723e+02,7.100142e+03
9.372365e+02,7.093694e+03
9.382007e+02,7.102293e+03
9.391650e+02,7.108635e+03
9.401292e+02,7.099682e+03
9.410934e+02,7.085479e+03
9.420577e+02,7.076263e+03
9.430219e+02,7.074157e+03
9.439861e+02,7.072479e+03
9.449504e+02,7.069766e+03
9.459146e+02,7.068710e+03
9.468788e+02,7.067995e+03
9.478431e+02,7.063630e+03
9.488073e+02,7.054828e+03
9.497715e+02,7.043843e+03
9.507358e+02,7.032665e+03
9.517000e+02,7.024530e+03
9.526642e+02,7.021279e+03
9.536285e+02,7.018832e+03
9.545927e+02,7.013066e+03
9.555569e+02,7.004821e+03
9.565212e+02,6.996790e+03
9.574854e+02,6.991271e+03
9.584496e+02,6.991115e+03
9.594139e+02,6.995133e+03
9.603781e+02,6.999830e+03
9.613423e+02,7.001611e+03
9.623066e+02,7.000593e+03
9.632708e+02,6.998300e+03
9.642350e+02,6.997352e+03
9.651993e+02,6.996089e+03
9.661635e+02,6.988728e+03
9.671277e+02,6.967079e+03
9.680920e+02,6.953590e+03
9.690562e+02,6.955102e+03
9.700204e+02,6.956626e+03
9.709847e+02,6.948350e+03
9.719489e+02,6.929764e+03
9.729131e+02,6.915501e+03
9.738774e+02,6.908229e+03
9.748416e+02,6.905892e+03
9.758058e+02,6.905443e+03
9.767701e+02,6.905044e+03
9.777343e+02,6.906110e+03
9.786985e+02,6.914694e+03
9.796628e+02,6.916609e+03
9.806270e+02,6.904468e+03
9.815912e+02,6.883966e+03
9.825555e+02,6.864981e+03
9.835197e+02,6.851778e+03
9.844839e+02,6.844298e+03
9.854482e+02,6.847742e+03
9.864124e+02,6.855541e+03
9.873766e+02,6.858268e+03
9.883409e+02,6.853857e+03
9.893051e+02,6.847968e+03
9.902693e+02,6.839596e+03
9.912336e+02,6.834728e+03
9.921978e+02,6.840381e+03
9.931620e+02,6.853831e+03
9.941263e+02,6.863609e+03
9.950905e+02,6.861484e+03
9.960547e+02,6.853073e+03
9.970190e+02,6.844358e+03
9.979832e+02,6.834664e+03
9.989474e+02,6.822635e+03
9.999117e+02,6.808816e+03
1.000876e+03,6.796204e+03
1.001840e+03,6.789167e+03
1.002804e+03,6.787828e+03
1.003769e+03,6.786378e+03
1.004733e+03,6.780215e+03
1.005697e+03,6.774070e+03
1.006661e+03,6.778989e+03
1.007626e+03,6.792389e+03
1.008590e+03,6.799934e+03
1.009554e+03,6.797397e+03
1.010518e+03,6.788674e+03
1.011482e+03,6.779469e+03
1.012447e+03,6.769509e+03
1.013411e+03,6.757354e+03
1.014375e+03,6.746054e+03
1.015339e+03,6.736979e+03
1.016304e+03,6.728810e+03
1.017268e+03,6.721078e+03
1.018232e+03,6.714521e+03
1.019196e+03,6.708005e+03
1.020161e+03,6.704773e+03
1.021125e+03,6.708640e+03
1.022089e+03,6.717781e+03
1.023053e+03,6.722126e+03
1.024018e+03,6.718344e+03
1.024982e+03,6.713430e+03
1.025946e+03,6.707327e+03
1.026910e+03,6.698109e+03
1.027875e+03,6.686908e+03
1.028839e+03,6.676388e+03
1.029803e+03,6.667589e+03
1.030767e+03,6.659900e+03
1.031731e+03,6.656003e+03
1.032696e+03,6.658277e+03
1.033660e+03,6.666662e+03
1.034624e+03,6.665268e+03
1.035588e+03,6.648298e+03
1.036552e+03,6.636578e+03
1.037517e+03,6.637978e+03
1.038481e+03,6.647578e+03
1.039445e+03,6.654298e+03
1.040409e+03,6.660600e+03
1.041374e+03,6.660250e+03
1.042338e+03,6.650193e+03
1.043302e+03,6.637217e+03
1.044266e+03,6.628770e+03
1.045231e+03,6.629982e+03
1.046195e+03,6.624534e+03
1.047159e+03,6.608166e+03
1.048123e+03,6.591452e+03
1.049088e+03,6.580546e+03
1.050052e+03,6.577595e+03
1.051016e+03,6.580509e+03
1.051980e+03,6.595109e+03
1.052945e+03,6.607974e+03
1.053909e+03,6.609479e+03
1.054873e+03,6.599956e+03
1.055837e+03,6.592450e+03
1.056802e+03,6.594483e+03
1.057766e+03,6.594881e+03
1.058730e+03,6.594391e+03
1.059694e+03,6.591471e+03
1.060658e+03,6.582462e+03
1.061623e+03,6.562805e+03
1.062587e+03,6.548669e+03
1.063551e+03,6.545731e+03
1.064515e+03,6.546590e+03
1.065479e+03,6.544061e+03
1.066444e+03,6.538528e+03
1.067408e+03,6.538589e+03
1.068372e+03,6.550204e+03
1.069336e+03,6.562821e+03
1.070301e+03,6.568923e+03
1.071265e+03,6.568292e+03
1.072229e+03,6.566601e+03
1.073193e+03,6.562604e+03
1.074158e+03,6.560037e+03
1.075122e+03,6.563362e+03
1.076086e+03,6.567318e+03
1.077050e+03,6.566675e+03
1.078015e+03,6.562667e+03
1.078979e+03,6.560089e+03
1.079943e+03,6.557600e+03
1.080907e+03,6.556495e+03
1.081872e+03,6.556901e+03
1.082836e+03,6.557042e+03
1.083800e+03,6.552869e+03
1.084764e+03,6.541941e+03
1.085729e+03,6.531620e+03
1.086693e+03,6.525006e+03
1.087657e+03,6.520125e+03
1.088621e+03,6.513343e+03
1.089585e+03,6.501941e+03
1.090550e+03,6.487905e+03
1.091514e+03,6.474743e+03
1.092478e+03,6.462829e+03
1.093442e+03,6.450958e+03
1.094406e+03,6.438932e+03
1.095371e+03,6.429114e+03
1.096335e+03,6.419308e+03
1.097299e+03,6.411502e+03
1.098263e+03,6.407729e+03
1.099228e+03,6.407153e+03
1.100192e+03,6.406318e+03
1.101156e+03,6.405228e+03
1.102120e+03,6.401910e+03
1.103085e+03,6.393311e+03
1.104049e+03,6.383142e+03
1.105013e+03,6.378657e+03
1.105977e+03,6.389801e+03
1.106942e+03,6.396228e+03
1.107906e+03,6.392676e+03
1.108870e+03,6.385131e+03
1.109834e+03,6.378841e+03
1.110799e+03,6.375206e+03
1.111763e+03,6.369286e+03
1.112727e+03,6.360971e+03
1.113691e+03,6.351818e+03
1.114656e+03,6.336664e+03
1.115620e+03,6.318023e+03
1.116584e+03,6.314382e+03
1.117548e+03,6.342762e+03
1.118512e+03,6.362023e+03
1.119477e+03,6.359287e+03
1.120441e+03,6.343925e+03
1.121405e+03,6.331007e+03
1.122369e+03,6.325057e+03
1.123334e+03,6.315463e+03
1.124298e+03,6.298844e+03
1.125262e+03,6.283702e+03
1.126226e+03,6.276854e+03
1.127191e+03,6.279794e+03
1.128155e+03,6.282034e+03
1.129119e+03,6.283109e+03
1.130083e+03,6.280841e+03
1.131047e+03,6.271563e+03
1.132012e+03,6.256896e+03
1.132976e+03,6.247097e+03
1.133940e+03,6.245106e+03
1.134904e+03,6.241292e+03
1.135869e+03,6.234629e+03
1.136833e+03,6.229071e+03
1.137797e+03,6.229719e+03
1.138761e+03,6.242106e+03
1.139726e+03,6.246729e+03
1.140690e+03,6.238940e+03
1.141654e+03,6.230371e+03
1.142618e+03,6.227742e+03
1.143583e+03,6.230394e+03
1.144547e+03,6.229846e+03
1.145511e+03,6.225547e+03
1.146475e+03,6.218640e+03
1.147439e+03,6.207575e+03
1.148404e+03,6.197344e+03
1.149368e+03,6.196539e+03
1.150332e+03,6.205892e+03
1.151296e+03,6.208326e+03
1.152261e+03,6.198204e+03
1.153225e+03,6.182619e+03
1.154189e+03,6.172309e+03
1.155153e+03,6.168875e+03
1.156118e+03,6.165314e+03
1.157082e+03,6.163712e+03
1.158046e+03,6.159542e+03
1.159010e+03,6.146955e+03
1.159974e+03,6.131679e+03
1.160939e+03,6.126524e+03
1.161903e+03,6.129085e+03
1.162867e+03,6.133490e+03
1.163831e+03,6.138483e+03
1.164796e+03,6.139140e+03
1.165760e+03,6.129219e+03
1.166724e+03,6.113680e+03
1.167688e+03,6.102873e+03
1.168653e+03,6.097117e+03
1.169617e+03,6.094100e+03
1.170581e+03,6.095087e+03
1.171545e+03,6.096701e+03
1.172510e+03,6.091557e+03
1.173474e+03,6.083335e+03
1.174438e+03,6.078966e+03
1.175402e+03,6.079858e+03
1.176366e+03,6.082738e+03
1.177331e+03,6.087612e+03
1.178295e+03,6.092536e+03
1.179259e+03,6.092947e+03
1.180223e+03,6.088116e+03
1.181188e+03,6.082966e+03
1.182152e+03,6.084345e+03
1.183116e+03,6.083200e+03
1.184080e+03,6.072826e+03
1.185045e+03,6.057976e+03
1.186009e+03,6.044942e+03
1.186973e+03,6.036621e+03
1.187937e+03,6.032678e+03
1.188901e+03,6.032104e+03
1.189866e+03,6.034814e+03
1.190830e+03,6.043329e+03
1.191794e+03,6.056716e+03
1.192758e+03,6.057608e+03
1.193723e+03,6.027219e+03
1.194687e+03,6.005162e+03
1.195651e+03,6.013842e+03
1.196615e+03,6.040135e+03
1.197580e+03,6.050727e+03
1.198544e+03,6.030231e+03
1.199508e+03,6.008170e+03
1.200472e+03,5.989296e+03
1.201437e+03,5.972377e+03
1.202401e+03,5.956495e+03
1.203365e+03,5.942551e+03
1.204329e+03,5.935006e+03
1.205293e+03,5.934495e+03
1.206258e+03,5.936844e+03
1.207222e+03,5.940411e+03
1.208186e+03,5.943649e+03
1.209150e+03,5.943189e+03
1.210115e+03,5.936906e+03
1.211079e+03,5.929846e+03
1.212043e+03,5.923173e+03
1.213007e+03,5.917770e+03
1.213972e+03,5.917868e+03
1.214936e+03,5.923708e+03
1.215900e+03,5.926995e+03
1.216864e+03,5.927803e+03
1.217828e+03,5.926967e+03
1.218793e+03,5.924384e+03
1.219757e+03,5.921744e+03
1.220721e+03,5.921891e+03
1.221685e+03,5.924601e+03
1.222650e+03,5.926601e+03
1.223614e+03,5.925079e+03
1.224578e+03,5.922239e+03
1.225542e+03,5.924401e+03
1.226507e+03,5.927459e+03
1.227471e+03,5.925333e+03
1.228435e+03,5.916757e+03
1.229399e+03,5.903999e+03
1.230364e+03,5.887493e+03
1.231328e+03,5.871062e+03
1.232292e+03,5.859728e+03
1.233256e+03,5.852708e+03
1.234220e+03,5.845298e+03
1.235185e+03,5.836890e+03
1.236149e+03,5.832086e+03
1.237113e+03,5.832564e+03
1.238077e+03,5.837754e+03
1.239042e+03,5.846136e+03
1.240006e+03,5.854279e+03
1.240970e+03,5.855856e+03
1.241934e+03,5.849258e+03
1.242899e+03,5.837996e+03
1.243863e+03,5.821737e+03
1.244827e+03,5.805303e+03
1.245791e+03,5.794825e+03
1.246755e+03,5.791484e+03
1.247720e+03,5.787070e+03
1.248684e+03,5.781769e+03
1.249648e+03,5.777547e+03
1.250612e+03,5.775056e+03
1.251577e+03,5.773019e+03
1.252541e+03,5.769381e+03
1.253505e+03,5.763900e+03
1.254469e+03,5.760057e+03
1.255434e+03,5.760144e+03
1.256398e+03,5.761577e+03
1.257362e+03,5.758814e+03
1.258326e+03,5.753062e+03
1.259291e+03,5.748904e+03
1.260255e+03,5.745459e+03
1.261219e+03,5.739683e+03
1.262183e+03,5.733199e+03
1.263147e+03,5.726884e+03
1.264112e+03,5.720055e+03
1.265076e+03,5.713058e+03
1.266040e+03,5.704886e+03
1.267004e+03,5.694454e+03
1.267969e+03,5.687536e+03
1.268933e+03,5.691323e+03
1.269897e+03,5.699240e+03
1.270861e+03,5.703230e+03
1.271826e+03,5.699433e+03
1.272790e+03,5.695013e+03
1.273754e+03,5.692554e+03
1.274718e+03,5.689303e+03
1.275682e+03,5.688479e+03
1.276647e+03,5.687405e+03
1.277611e+03,5.680711e+03
1.278575e+03,5.667144e+03
1.279539e+03,5.649666e+03
1.280504e+03,5.629942e+03
1.281468e+03,5.617626e+03
1.282432e+03,5.617521e+03
1.283396e+03,5.626156e+03
1.284361e+03,5.638039e+03
1.285325e+03,5.650310e+03
1.286289e+03,5.656266e+03
1.287253e+03,5.653823e+03
1.288218e+03,5.645802e+03
1.289182e+03,5.631715e+03
1.290146e+03,5.617479e+03
1.291110e+03,5.612986e+03
1.292074e+03,5.616363e+03
1.293039e+03,5.616826e+03
1.294003e+03,5.604158e+03
1.294967e+03,5.591641e+03
1.295931e+03,5.588980e+03
1.296896e+03,5.590194e+03
1.297860e+03,5.587207e+03
1.298824e+03,5.576448e+03
1.299788e+03,5.568333e+03
1.300753e+03,5.560620e+03
1.301717e+03,5.558080e+03
1.302681e+03,5.565440e+03
1.303645e+03,5.578212e+03
1.304609e+03,5.582822e+03
1.305574e+03,5.575517e+03
1.306538e+03,5.570950e+03
1.307502e+03,5.574485e+03
1.308466e+03,5.579525e+03
1.309431e+03,5.576839e+03
1.310395e+03,5.569109e+03
1.311359e+03,5.565007e+03
1.312323e+03,5.561581e+03
1.313288e+03,5.554956e+03
1.314252e+03,5.545323e+03
1.315216e+03,5.537790e+03
1.316180e+03,5.534146e+03
1.317145e+03,5.534791e+03
1.318109e+03,5.540206e+03
1.319073e+03,5.547967e+03
1.320037e+03,5.552018e+03
1.321001e+03,5.551797e+03
1.321966e+03,5.546251e+03
1.322930e+03,5.533384e+03
1.323894e+03,5.518924e+03
1.324858e+03,5.509909e+03
1.325823e+03,5.509501e+03
1.326787e+03,5.505961e+03
1.327751e+03,5.495208e+03
1.328715e+03,5.485893e+03
1.329680e+03,5.485205e+03
1.330644e+03,5.491344e+03
1.331608e+03,5.495368e+03
1.332572e+03,5.496927e+03
1.333536e+03,5.498424e+03
1.334501e+03,5.499904e+03
1.335465e+03,5.498206e+03
1.336429e+03,5.490946e+03
1.337393e+03,5.481668e+03
1.338358e+03,5.475405e+03
1.339322e+03,5.471167e+03
1.340286e+03,5.463584e+03
1.341250e+03,5.443896e+03
1.342215e+03,5.427311e+03
1.343179e+03,5.426483e+03
1.344143e+03,5.434041e+03
1.345107e+03,5.438750e+03
1.346072e+03,5.437103e+03
1.347036e+03,5.435132e+03
1.348000e+03,5.431932e+03
1.348964e+03,5.426370e+03
1.349928e+03,5.418010e+03
1.350893e+03,5.411279e+03
1.351857e+03,5.415755e+03
1.352821e+03,5.429485e+03
1.353785e+03,5.430821e+03
1.354750e+03,5.416286e+03
1.355714e+03,5.398242e+03
1.356678e+03,5.387993e+03
1.357642e+03,5.385114e+03
1.358607e+03,5.387837e+03
1.359571e+03,5.393604e+03
1.360535e+03,5.399042e+03
1.361499e+03,5.405482e+03
1.362464e+03,5.407530e+03
1.363428e+03,5.398431e+03
1.364392e+03,5.389569e+03
1.365356e+03,5.387717e+03
1.366320e+03,5.389686e+03
1.367285e+03,5.385803e+03
1.368249e+03,5.376163e+03
1.369213e+03,5.365912e+03
1.370177e+03,5.355120e+03
1.371142e+03,5.345970e+03
1.372106e+03,5.343835e+03
1.373070e+03,5.346833e+03
1.374034e+03,5.338047e+03
1.374999e+03,5.320216e+03
1.375963e+03,5.307789e+03
1.376927e+03,5.308779e+03
1.377891e+03,5.315000e+03
1.378855e+03,5.322460e+03
1.379820e+03,5.326009e+03
1.380784e+03,5.316036e+03
1.381748e+03,5.293078e+03
1.382712e+03,5.278393e+03
1.383677e+03,5.281658e+03
1.384641e+03,5.284891e+03
1.385605e+03,5.281200e+03
1.386569e+03,5.273734e+03
1.387534e+03,5.267266e+03
1.388498e+03,5.261225e+03
1.389462e+03,5.265704e+03
1.390426e+03,5.281810e+03
1.391391e+03,5.289675e+03
1.392355e+03,5.274351e+03
1.393319e+03,5.250151e+03
1.394283e+03,5.242491e+03
1.395247e+03,5.246281e+03
1.396212e+03,5.252416e+03
1.397176e+03,5.258998e+03
1.398140e+03,5.264689e+03
1.399104e+03,5.271028e+03
1.400069e+03,5.271609e+03
1.401033e+03,5.257554e+03
1.401997e+03,5.235390e+03
1.402961e+03,5.223635e+03
1.403926e+03,5.229644e+03
1.404890e+03,5.228731e+03
1.405854e+03,5.218217e+03
1.406818e+03,5.207866e+03
1.407782e+03,5.205705e+03
1.408747e+03,5.210369e+03
1.409711e+03,5.212139e+03
1.410675e+03,5.208690e+03
1.411639e+03,5.202125e+03
1.412604e+03,5.193674e+03
1.413568e+03,5.185011e+03
1.414532e+03,5.177219e+03
1.415496e+03,5.173259e+03
1.416461e+03,5.175619e+03
1.417425e+03,5.180946e+03
1.418389e+03,5.182377e+03
1.419353e+03,5.177514e+03
1.420318e+03,5.170979e+03
1.421282e+03,5.164817e+03
1.422246e+03,5.158831e+03
1.423210e+03,5.151422e+03
1.424174e+03,5.143893e+03
1.425139e+03,5.139746e+03
1.426103e+03,5.137631e+03
1.427067e+03,5.139059e+03
1.428031e+03,5.145800e+03
1.428996e+03,5.151835e+03
1.429960e+03,5.148829e+03
1.430924e+03,5.141908e+03
1.431888e+03,5.136816e+03
1.432853e+03,5.133567e+03
1.433817e+03,5.128496e+03
1.434781e+03,5.121007e+03
1.435745e+03,5.113404e+03
1.436709e+03,5.101583e+03
1.437674e+03,5.090994e+03
1.438638e+03,5.089221e+03
1.439602e+03,5.096789e+03
1.440566e+03,5.105005e+03
1.441531e+03,5.112957e+03
1.442495e+03,5.116313e+03
1.443459e+03,5.111788e+03
1.444423e+03,5.106158e+03
1.445388e+03,5.105747e+03
1.446352e+03,5.106246e+03
1.447316e+03,5.104133e+03
1.448280e+03,5.101856e+03
1.449245e+03,5.103421e+03
1.450209e+03,5.116603e+03
1.451173e+03,5.122921e+03
1.452137e+03,5.114875e+03
1.453101e+03,5.101585e+03
1.454066e+03,5.092721e+03
1.455030e+03,5.088176e+03
1.455994e+03,5.085570e+03
1.456958e+03,5.084611e+03
1.457923e+03,5.084234e+03
1.458887e+03,5.082889e+03
1.459851e+03,5.080162e+03
1.460815e+03,5.074013e+03
1.461780e+03,5.066281e+03
1.462744e+03,5.063670e+03
1.463708e+03,5.065714e+03
1.464672e+03,5.059870e+03
1.465636e+03,5.040933e+03
1.466601e+03,5.028541e+03
1.467565e+03,5.026893e+03
1.468529e+03,5.027291e+03
1.469493e+03,5.018202e+03
1.470458e+03,5.002266e+03
1.471422e+03,4.995792e+03
1.472386e+03,4.997982e+03
1.473350e+03,5.002555e+03
1.474315e+03,5.006291e+03
1.475279e+03,5.010856e+03
1.476243e+03,5.022181e+03
1.477207e+03,5.028806e+03
1.478172e+03,5.020576e+03
1.479136e+03,5.002007e+03
1.480100e+03,4.991568e+03
1.481064e+03,4.991827e+03
1.482028e+03,4.993250e+03
1.482993e+03,4.996003e+03
1.483957e+03,4.996936e+03
1.484921e+03,4.988475e+03
1.485885e+03,4.976981e+03
1.486850e+03,4.975490e+03
1.487814e+03,4.978899e+03
1.488778e+03,4.979527e+03
1.489742e+03,4.976260e+03
1.490707e+03,4.968303e+03
1.491671e+03,4.950613e+03
1.492635e+03,4.939650e+03
1.493599e+03,4.943122e+03
1.494563e+03,4.953835e+03
1.495528e+03,4.955507e+03
1.496492e+03,4.947670e+03
1.497456e+03,4.940774e+03
1.498420e+03,4.937577e+03
1.499385e+03,4.934290e+03
1.500349e+03,4.926772e+03
1.501313e+03,4.919240e+03
1.502277e+03,4.909726e+03
1.503242e+03,4.903583e+03
1.504206e+03,4.910997e+03
1.505170e+03,4.939581e+03
1.506134e+03,4.954545e+03
1.507099e+03,4.953300e+03
1.508063e+03,4.945892e+03
1.509027e+03,4.934192e+03
1.509991e+03,4.922602e+03
1.510955e+03,4.923205e+03
1.511920e+03,4.928625e+03
1.512884e+03,4.920072e+03
1.513848e+03,4.900211e+03
1.514812e+03,4.885362e+03
1.515777e+03,4.881208e+03
1.516741e+03,4.878913e+03
1.517705e+03,4.876258e+03
1.518669e+03,4.872827e+03
1.519634e+03,4.869224e+03
1.520598e+03,4.864726e+03
1.521562e+03,4.861783e+03
1.522526e+03,4.859005e+03
1.523490e+03,4.855469e+03
1.524455e+03,4.851382e+03
1.525419e+03,4.847275e+03
1.526383e+03,4.848897e+03
1.527347e+03,4.847034e+03
1.528312e+03,4.829458e+03
1.529276e+03,4.803722e+03
1.530240e+03,4.794893e+03
1.531204e+03,4.810094e+03
1.532169e+03,4.818576e+03
1.533133e+03,4.817424e+03
1.534097e+03,4.812619e+03
1.535061e+03,4.806614e+03
1.536026e+03,4.800542e+03
1.536990e+03,4.799127e+03
1.537954e+03,4.800854e+03
1.538918e+03,4.802776e+03
1.539882e+03,4.804171e+03
1.540847e+03,4.802397e+03
1.541811e+03,4.791015e+03
1.542775e+03,4.780815e+03
1.543739e+03,4.776432e+03
1.544704e+03,4.777039e+03
1.545668e+03,4.782866e+03
1.546632e+03,4.792229e+03
1.547596e+03,4.792565e+03
1.548561e+03,4.785005e+03
1.549525e+03,4.781453e+03
1.550489e+03,4.794398e+03
1.551453e+03,4.800833e+03
1.552417e+03,4.781408e+03
1.553382e+03,4.758057e+03
1.554346e+03,4.749928e+03
1.555310e+03,4.756357e+03
1.556274e+03,4.765034e+03
1.557239e+03,4.775417e+03
1.558203e+03,4.784250e+03
1.559167e+03,4.790924e+03
1.560131e+03,4.794506e+03
1.561096e+03,4.788620e+03
1.562060e+03,4.785654e+03
1.563024e+03,4.797247e+03
1.563988e+03,4.818953e+03
1.564953e+03,4.838965e+03
1.565917e+03,4.854671e+03
1.566881e+03,4.877036e+03
1.567845e+03,4.907002e+03
1.568809e+03,4.927649e+03
1.569774e+03,4.928744e+03
1.570738e+03,4.919924e+03
1.571702e+03,4.914249e+03
1.572666e+03,4.906186e+03
1.573631e+03,4.885999e+03
1.574595e+03,4.854581e+03
1.575559e+03,4.831699e+03
1.576523e+03,4.819742e+03
1.577488e+03,4.816666e+03
1.578452e+03,4.821975e+03
1.579416e+03,4.825780e+03
1.580380e+03,4.816671e+03
1.581344e+03,4.801420e+03
1.582309e+03,4.795788e+03
1.583273e+03,4.795212e+03
1.584237e+03,4.786063e+03
1.585201e+03,4.759714e+03
1.586166e+03,4.737992e+03
1.587130e+03,4.724564e+03
1.588094e+03,4.709758e+03
1.589058e+03,4.689545e+03
1.590023e+03,4.669036e+03
1.590987e+03,4.657295e+03
1.591951e+03,4.653279e+03
1.592915e+03,4.650078e+03
1.593880e+03,4.645263e+03
1.594844e+03,4.643460e+03
1.595808e+03,4.653328e+03
1.596772e+03,4.658443e+03
1.597736e+03,4.656709e+03
1.598701e+03,4.651354e+03
1.599665e+03,4.641752e+03
1.600629e+03,4.630570e+03
1.601593e+03,4.632054e+03
1.602558e+03,4.641578e+03
1.603522e+03,4.644662e+03
1.604486e+03,4.636125e+03
1.605450e+03,4.625123e+03
1.606415e+03,4.614081e+03
1.607379e+03,4.606774e+03
1.608343e+03,4.603615e+03
1.609307e+03,4.603843e+03
1.610271e+03,4.610992e+03
1.611236e+03,4.620669e+03
1.612200e+03,4.610894e+03
1.613164e+03,4.585821e+03
1.614128e+03,4.568391e+03
1.615093e+03,4.573530e+03
1.616057e+03,4.581694e+03
1.617021e+03,4.588039e+03
1.617985e+03,4.590911e+03
1.618950e+03,4.589646e+03
1.619914e+03,4.585869e+03
1.620878e+03,4.587333e+03
1.621842e+03,4.591961e+03
1.622807e+03,4.586585e+03
1.623771e+03,4.569313e+03
1.624735e+03,4.559221e+03
1.625699e+03,4.571679e+03
1.626663e+03,4.582697e+03
1.627628e+03,4.582748e+03
1.628592e+03,4.575003e+03
1.629556e+03,4.565640e+03
1.630520e+03,4.557152e+03
1.631485e+03,4.551069e+03
1.632449e+03,4.546597e+03
1.633413e+03,4.542217e+03
1.634377e+03,4.537717e+03
1.635342e+03,4.533805e+03
1.636306e+03,4.535303e+03
1.637270e+03,4.532016e+03
1.638234e+03,4.516067e+03
1.639198e+03,4.495857e+03
1.640163e+03,4.490908e+03
1.641127e+03,4.497586e+03
1.642091e+03,4.500298e+03
1.643055e+03,4.496247e+03
1.644020e+03,4.491870e+03
1.644984e+03,4.488703e+03
1.645948e+03,4.485229e+03
1.646912e+03,4.484557e+03
1.647877e+03,4.480501e+03
1.648841e+03,4.465427e+03
1.649805e+03,4.445004e+03
1.650769e+03,4.435269e+03
1.651734e+03,4.434016e+03
1.652698e+03,4.439153e+03
1.653662e+03,4.450462e+03
1.654626e+03,4.454350e+03
1.655590e+03,4.441792e+03
1.656555e+03,4.431741e+03
1.657519e+03,4.431428e+03
1.658483e+03,4.437097e+03
1.659447e+03,4.444706e+03
1.660412e+03,4.448350e+03
1.661376e+03,4.435641e+03
1.662340e+03,4.413476e+03
1.663304e+03,4.400565e+03
1.664269e+03,4.407270e+03
1.665233e+03,4.410693e+03
1.666197e+03,4.409268e+03
1.667161e+03,4.403296e+03
1.668125e+03,4.390774e+03
1.669090e+03,4.381294e+03
1.670054e+03,4.397595e+03
1.671018e+03,4.421750e+03
1.671982e+03,4.429986e+03
1.672947e+03,4.420623e+03
1.673911e+03,4.412240e+03
1.674875e+03,4.402807e+03
1.675839e+03,4.396484e+03
1.676804e+03,4.396466e+03
1.677768e+03,4.397779e+03
1.678732e+03,4.393159e+03
1.679696e+03,4.386636e+03
1.680661e+03,4.380291e+03
1.681625e+03,4.373555e+03
1.682589e+03,4.369210e+03
1.683553e+03,4.368994e+03
1.684517e+03,4.370549e+03
1.685482e+03,4.372998e+03
1.686446e+03,4.368271e+03
1.687410e+03,4.352530e+03
1.688374e+03,4.337834e+03
1.689339e+03,4.334528e+03
1.690303e+03,4.333206e+03
1.691267e+03,4.327010e+03
1.692231e+03,4.320557e+03
1.693196e+03,4.321745e+03
1.694160e+03,4.327694e+03
1.695124e+03,4.326006e+03
1.696088e+03,4.318358e+03
1.697052e+03,4.312789e+03
1.698017e+03,4.308195e+03
1.698981e+03,4.308485e+03
1.699945e+03,4.316595e+03
1.700909e+03,4.322853e+03
1.701874e+03,4.326560e+03
1.702838e+03,4.328575e+03
1.703802e+03,4.325704e+03
1.704766e+03,4.315897e+03
1.705731e+03,4.295945e+03
1.706695e+03,4.267896e+03
1.707659e+03,4.251219e+03
1.708623e+03,4.254383e+03
1.709588e+03,4.258991e+03
1.710552e+03,4.260528e+03
1.711516e+03,4.261420e+03
1.712480e+03,4.267206e+03
1.713444e+03,4.272050e+03
1.714409e+03,4.269637e+03
1.715373e+03,4.264549e+03
1.716337e+03,4.262890e+03
1.717301e+03,4.266160e+03
1.718266e+03,4.261915e+03
1.719230e+03,4.249375e+03
1.720194e+03,4.239406e+03
1.721158e+03,4.234668e+03
1.722123e+03,4.230045e+03
1.723087e+03,4.220934e+03
1.724051e+03,4.212292e+03
1.725015e+03,4.206166e+03
1.725979e+03,4.204197e+03
1.726944e+03,4.209254e+03
1.727908e+03,4.218791e+03
1.728872e+03,4.220928e+03
1.729836e+03,4.216191e+03
1.730801e+03,4.213534e+03
1.731765e+03,4.221417e+03
1.732729e+03,4.220452e+03
1.733693e+03,4.204394e+03
1.734658e+03,4.194083e+03
1.735622e+03,4.201441e+03
1.736586e+03,4.210957e+03
1.737550e+03,4.194981e+03
1.738515e+03,4.172072e+03
1.739479e+03,4.166841e+03
1.740443e+03,4.177331e+03
1.741407e+03,4.180188e+03
1.742371e+03,4.174810e+03
1.743336e+03,4.166735e+03
1.744300e+03,4.156255e+03
1.745264e+03,4.144568e+03
1.746228e+03,4.129191e+03
1.747193e+03,4.121681e+03
1.748157e+03,4.138667e+03
1.749121e+03,4.158735e+03
1.750085e+03,4.162890e+03
1.751050e+03,4.151921e+03
1.752014e+03,4.134816e+03
1.752978e+03,4.118172e+03
1.753942e+03,4.119565e+03
1.754906e+03,4.141358e+03
1.755871e+03,4.151040e+03
1.756835e+03,4.134734e+03
1.757799e+03,4.120729e+03
1.758763e+03,4.118484e+03
1.759728e+03,4.118581e+03
1.760692e+03,4.108618e+03
1.761656e+03,4.098259e+03
1.762620e+03,4.096216e+03
1.763585e+03,4.097681e+03
1.764549e+03,4.093755e+03
1.765513e+03,4.083082e+03
1.766477e+03,4.091023e+03
1.767442e+03,4.113958e+03
1.768406e+03,4.120435e+03
1.769370e+03,4.097714e+03
1.770334e+03,4.082884e+03
1.771298e+03,4.105234e+03
1.772263e+03,4.114662e+03
1.773227e+03,4.094835e+03
1.774191e+03,4.067096e+03
1.775155e+03,4.059601e+03
1.776120e+03,4.061616e+03
1.777084e+03,4.058766e+03
1.778048e+03,4.052680e+03
1.779012e+03,4.048735e+03
1.779977e+03,4.047902e+03
1.780941e+03,4.052343e+03
1.781905e+03,4.060112e+03
1.782869e+03,4.065539e+03
1.783833e+03,4.067265e+03
1.784798e+03,4.064539e+03
1.785762e+03,4.053497e+03
1.786726e+03,4.040234e+03
1.787690e+03,4.026636e+03
1.788655e+03,4.016325e+03
1.789619e+03,4.017566e+03
1.790583e+03,4.024900e+03
1.791547e+03,4.025436e+03
1.792512e+03,4.020350e+03
1.793476e+03,4.019124e+03
1.794440e+03,4.022845e+03
1.795404e+03,4.023855e+03
1.796369e+03,4.020397e+03
1.797333e+03,4.016522e+03
1.798297e+03,4.015736e+03
1.799261e+03,4.014874e+03
1.800225e+03,4.012348e+03
1.801190e+03,4.004527e+03
1.802154e+03,3.988006e+03
1.803118e+03,3.968614e+03
1.804082e+03,3.966771e+03
1.805047e+03,3.976223e+03
1.806011e+03,3.980755e+03
1.806975e+03,3.978327e+03
1.807939e+03,3.972447e+03
1.808904e+03,3.959658e+03
1.809868e+03,3.955607e+03
1.810832e+03,3.963757e+03
1.811796e+03,3.968260e+03
1.812760e+03,3.948438e+03
1.813725e+03,3.930184e+03
1.814689e+03,3.933572e+03
1.815653e+03,3.943325e+03
1.816617e+03,3.948899e+03
1.817582e+03,3.951074e+03
1.818546e+03,3.951932e+03
1.819510e+03,3.950327e+03
1.820474e+03,3.944513e+03
1.821439e+03,3.934856e+03
1.822403e+03,3.922037e+03
1.823367e+03,3.903829e+03
1.824331e+03,3.897198e+03
1.825296e+03,3.904033e+03
1.826260e+03,3.911324e+03
1.827224e+03,3.913608e+03
1.828188e+03,3.914449e+03
1.829152e+03,3.911614e+03
1.830117e+03,3.907641e+03
1.831081e+03,3.905350e+03
1.832045e+03,3.902057e+03
1.833009e+03,3.893610e+03
1.833974e+03,3.884498e+03
1.834938e+03,3.875503e+03
1.835902e+03,3.864798e+03
1.836866e+03,3.865058e+03
1.837831e+03,3.877226e+03
1.838795e+03,3.881292e+03
1.839759e+03,3.874504e+03
1.840723e+03,3.867627e+03
1.841688e+03,3.863666e+03
1.842652e+03,3.864387e+03
1.843616e+03,3.871220e+03
1.844580e+03,3.874865e+03
1.845544e+03,3.865477e+03
1.846509e+03,3.850433e+03
1.847473e+03,3.838669e+03
1.848437e+03,3.831514e+03
1.849401e+03,3.835069e+03
1.850366e+03,3.849438e+03
1.851330e+03,3.846485e+03
1.852294e+03,3.829406e+03
1.853258e+03,3.814957e+03
1.854223e+03,3.807049e+03
1.855187e+03,3.803711e+03
1.856151e+03,3.803036e+03
1.857115e+03,3.806574e+03
1.858079e+03,3.815904e+03
1.859044e+03,3.822355e+03
1.860008e+03,3.814073e+03
1.860972e+03,3.804426e+03
1.861936e+03,3.804986e+03
1.862901e+03,3.813869e+03
1.863865e+03,3.828913e+03
1.864829e+03,3.845021e+03
1.865793e+03,3.836305e+03
1.866758e+03,3.812183e+03
1.867722e+03,3.797460e+03
1.868686e+03,3.799657e+03
1.869650e+03,3.798305e+03
1.870615e+03,3.789289e+03
1.871579e+03,3.785699e+03
1.872543e+03,3.793828e+03
1.873507e+03,3.800951e+03
1.874471e+03,3.785740e+03
1.875436e+03,3.772376e+03
1.876400e+03,3.777075e+03
1.877364e+03,3.785523e+03
1.878328e+03,3.779132e+03
1.879293e+03,3.765728e+03
1.880257e+03,3.761442e+03
1.881221e+03,3.759856e+03
1.882185e+03,3.746231e+03
1.883150e+03,3.720326e+03
1.884114e+03,3.720614e+03
1.885078e+03,3.741653e+03
1.886042e+03,3.751662e+03
1.887006e+03,3.740050e+03
1.887971e+03,3.729277e+03
1.888935e+03,3.728116e+03
1.889899e+03,3.730355e+03
1.890863e+03,3.733531e+03
1.891828e+03,3.732692e+03
1.892792e+03,3.724952e+03
1.893756e+03,3.712723e+03
1.894720e+03,3.694050e+03
1.895685e+03,3.681478e+03
1.896649e+03,3.691391e+03
1.897613e+03,3.711726e+03
1.898577e+03,3.700672e+03
1.899542e+03,3.673853e+03
1.900506e+03,3.667012e+03
1.901470e+03,3.687420e+03
1.902434e+03,3.690349e+03
1.903398e+03,3.676976e+03
1.904363e+03,3.670277e+03
1.905327e+03,3.677382e+03
1.906291e+03,3.679944e+03
1.907255e+03,3.657831e+03
1.908220e+03,3.644634e+03
1.909184e+03,3.648816e+03
1.910148e+03,3.653204e+03
1.911112e+03,3.637140e+03
1.912077e+03,3.621072e+03
1.913041e+03,3.628621e+03
1.914005e+03,3.639588e+03
1.914969e+03,3.628505e+03
1.915933e+03,3.605015e+03
1.916898e+03,3.605467e+03
1.917862e+03,3.620503e+03
1.918826e+03,3.629505e+03
1.919790e+03,3.629958e+03
1.920755e+03,3.631399e+03
1.921719e+03,3.631792e+03
1.922683e+03,3.632593e+03
1.923647e+03,3.635458e+03
1.924612e+03,3.636026e+03
1.925576e+03,3.632019e+03
1.926540e+03,3.624271e+03
1.927504e+03,3.609456e+03
1.928469e+03,3.596312e+03
1.929433e+03,3.594698e+03
1.930397e+03,3.594138e+03
1.931361e+03,3.585803e+03
1.932325e+03,3.576715e+03
1.933290e+03,3.574084e+03
1.934254e+03,3.578063e+03
1.935218e+03,3.585639e+03
1.936182e+03,3.590698e+03
1.937147e+03,3.586624e+03
1.938111e+03,3.575541e+03
1.939075e+03,3.567063e+03
1.940039e+03,3.562334e+03
1.941004e+03,3.557090e+03
1.941968e+03,3.548637e+03
1.942932e+03,3.542446e+03
1.943896e+03,3.543191e+03
1.944860e+03,3.541485e+03
1.945825e+03,3.538030e+03
1.946789e+03,3.532755e+03
1.947753e+03,3.516228e+03
1.948717e+03,3.508089e+03
1.949682e+03,3.518837e+03
1.950646e+03,3.534189e+03
1.951610e+03,3.549035e+03
1.952574e+03,3.559078e+03
1.953539e+03,3.556640e+03
1.954503e+03,3.546227e+03
1.955467e+03,3.531560e+03
1.956431e+03,3.516157e+03
1.957396e+03,3.505905e+03
1.958360e+03,3.499235e+03
1.959324e+03,3.495859e+03
1.960288e+03,3.496281e+03
1.961252e+03,3.494578e+03
1.962217e+03,3.488134e+03
1.963181e+03,3.484491e+03
1.964145e+03,3.483183e+03
1.965109e+03,3.481420e+03
1.966074e+03,3.477504e+03
1.967038e+03,3.478621e+03
1.968002e+03,3.482582e+03
1.968966e+03,3.483550e+03
1.969931e+03,3.477892e+03
1.970895e+03,3.472585e+03
1.971859e+03,3.483525e+03
1.972823e+03,3.488419e+03
1.973787e+03,3.473145e+03
1.974752e+03,3.452617e+03
1.975716e+03,3.449874e+03
1.976680e+03,3.454019e+03
1.977644e+03,3.458314e+03
1.978609e+03,3.462504e+03
1.979573e+03,3.464317e+03
1.980537e+03,3.462409e+03
1.981501e+03,3.452448e+03
1.982466e+03,3.438548e+03
1.983430e+03,3.431810e+03
1.984394e+03,3.433052e+03
1.985358e+03,3.432749e+03
1.986323e+03,3.430313e+03
1.987287e+03,3.424056e+03
1.988251e+03,3.411349e+03
1.989215e+03,3.405761e+03
1.990179e+03,3.411012e+03
1.991144e+03,3.414341e+03
1.992108e+03,3.413784e+03
1.993072e+03,3.413683e+03
1.994036e+03,3.418306e+03
1.995001e+03,3.417735e+03
1.995965e+03,3.407743e+03
1.996929e+03,3.399142e+03
1.997893e+03,3.404264e+03
1.998858e+03,3.408872e+03
1.999822e+03,3.396419e+03
2.000786e+03,3.381564e+03
2.001750e+03,3.382337e+03
2.002714e+03,3.391094e+03
2.003679e+03,3.380806e+03
2.004643e+03,3.362394e+03
2.005607e+03,3.356577e+03
2.006571e+03,3.361246e+03
2.007536e+03,3.362611e+03
2.008500e+03,3.361757e+03
2.009464e+03,3.360152e+03
2.010428e+03,3.359171e+03
2.011393e+03,3.360643e+03
2.012357e+03,3.364558e+03
2.013321e+03,3.368727e+03
2.014285e+03,3.370359e+03
2.015250e+03,3.367427e+03
2.016214e+03,3.356281e+03
2.017178e+03,3.344734e+03
2.018142e+03,3.333621e+03
2.019106e+03,3.327486e+03
2.020071e+03,3.331464e+03
2.021035e+03,3.332011e+03
2.021999e+03,3.319206e+03
2.022963e+03,3.306481e+03
2.023928e+03,3.299867e+03
2.024892e+03,3.296967e+03
2.025856e+03,3.295616e+03
2.026820e+03,3.295841e+03
2.027785e+03,3.299196e+03
2.028749e+03,3.299457e+03
2.029713e+03,3.283540e+03
2.030677e+03,3.265491e+03
2.031641e+03,3.265083e+03
2.032606e+03,3.274521e+03
2.033570e+03,3.280936e+03
2.034534e+03,3.283437e+03
2.035498e+03,3.279545e+03
2.036463e+03,3.271720e+03
2.037427e+03,3.264534e+03
2.038391e+03,3.260114e+03
2.039355e+03,3.250813e+03
2.040320e+03,3.238766e+03
2.041284e+03,3.230129e+03
2.042248e+03,3.225308e+03
2.043212e+03,3.225984e+03
2.044177e+03,3.233306e+03
2.045141e+03,3.242923e+03
2.046105e+03,3.253337e+03
2.047069e+03,3.260747e+03
2.048033e+03,3.262123e+03
2.048998e+03,3.256877e+03
2.049962e+03,3.245686e+03
2.050926e+03,3.233504e+03
2.051890e+03,3.218707e+03
2.052854e+03,3.212090e+03
2.053819e+03,3.218708e+03
2.054783e+03,3.221052e+03
2.055747e+03,3.210741e+03
2.056711e+03,3.199302e+03
2.057676e+03,3.198136e+03
2.058640e+03,3.197492e+03
2.059604e+03,3.188303e+03
2.060568e+03,3.177769e+03
2.061533e+03,3.182875e+03
2.062497e+03,3.190044e+03
2.063461e+03,3.183439e+03
2.064425e+03,3.171594e+03
2.065390e+03,3.164355e+03
2.066354e+03,3.161155e+03
2.067318e+03,3.164215e+03
2.068282e+03,3.171370e+03
2.069247e+03,3.176796e+03
2.070211e+03,3.179433e+03
2.071175e+03,3.179399e+03
2.072139e+03,3.176239e+03
2.073104e+03,3.165852e+03
2.074068e+03,3.148873e+03
2.075032e+03,3.135810e+03
2.075996e+03,3.126938e+03
2.076960e+03,3.133307e+03
2.077925e+03,3.156185e+03
2.078889e+03,3.161022e+03
2.079853e+03,3.145715e+03
2.080817e+03,3.130319e+03
2.081782e+03,3.117392e+03
2.082746e+03,3.108524e+03
2.083710e+03,3.107765e+03
2.084674e+03,3.109286e+03
2.085639e+03,3.114491e+03
2.086603e+03,3.117980e+03
2.087567e+03,3.107070e+03
2.088531e+03,3.101507e+03
2.089496e+03,3.103035e+03
2.090460e+03,3.105294e+03
2.091424e+03,3.113622e+03
2.092388e+03,3.115804e+03
2.093353e+03,3.090162e+03
2.094317e+03,3.077839e+03
2.095281e+03,3.090935e+03
2.096245e+03,3.106632e+03
2.097209e+03,3.103011e+03
2.098174e+03,3.094298e+03
2.099138e+03,3.088835e+03
2.100102e+03,3.083030e+03
2.101066e+03,3.071077e+03
2.102031e+03,3.058186e+03
2.102995e+03,3.046691e+03
2.103959e+03,3.039876e+03
2.104923e+03,3.043073e+03
2.105887e+03,3.052835e+03
2.106852e+03,3.061211e+03
2.107816e+03,3.064337e+03
2.108780e+03,3.061982e+03
2.109744e+03,3.054781e+03
2.110708e+03,3.042657e+03
2.111673e+03,3.032579e+03
2.112637e+03,3.035775e+03
2.113601e+03,3.042424e+03
2.114565e+03,3.029839e+03
2.115530e+03,3.008331e+03
2.116494e+03,3.000755e+03
2.117458e+03,3.008747e+03
2.118422e+03,3.014052e+03
2.119387e+03,3.015451e+03
2.120351e+03,3.025477e+03
2.121315e+03,3.037788e+03
2.122279e+03,3.035464e+03
2.123244e+03,3.017480e+03
2.124208e+03,3.006997e+03
2.125172e+03,3.002405e+03
2.126136e+03,2.992672e+03
2.127101e+03,2.974720e+03
2.128065e+03,2.970352e+03
2.129029e+03,2.976936e+03
2.129993e+03,2.978780e+03
2.130958e+03,2.970003e+03
2.131922e+03,2.967203e+03
2.132886e+03,2.973245e+03
2.133850e+03,2.976567e+03
2.134814e+03,2.978644e+03
2.135779e+03,2.979259e+03
2.136743e+03,2.975552e+03
2.137707e+03,2.972314e+03
2.138671e+03,2.970560e+03
2.139636e+03,2.963794e+03
2.140600e+03,2.943957e+03
2.141564e+03,2.927813e+03
2.142528e+03,2.916560e+03
2.143493e+03,2.916809e+03
2.144457e+03,2.935105e+03
2.145421e+03,2.940658e+03
2.146385e+03,2.922778e+03
2.147350e+03,2.910765e+03
2.148314e+03,2.914426e+03
2.149278e+03,2.923040e+03
2.150242e+03,2.930556e+03
2.151207e+03,2.930906e+03
2.152171e+03,2.921560e+03
2.153135e+03,2.910012e+03
2.154099e+03,2.905763e+03
2.155063e+03,2.903214e+03
2.156028e+03,2.902213e+03
2.156992e+03,2.900804e+03
2.157956e+03,2.889807e+03
2.158920e+03,2.883056e+03
2.159885e+03,2.889333e+03
2.160849e+03,2.894953e+03
2.161813e+03,2.893808e+03
2.162777e+03,2.888169e+03
2.163741e+03,2.877913e+03
2.164706e+03,2.867693e+03
2.165670e+03,2.861201e+03
2.166634e+03,2.861212e+03
2.167598e+03,2.874175e+03
2.168563e+03,2.883913e+03
2.169527e+03,2.880475e+03
2.170491e+03,2.871555e+03
2.171455e+03,2.866269e+03
2.172420e+03,2.865346e+03
2.173384e+03,2.873296e+03
2.174348e+03,2.879076e+03
2.175312e+03,2.869199e+03
2.176277e+03,2.855087e+03
2.177241e+03,2.851220e+03
2.178205e+03,2.845395e+03
2.179169e+03,2.828924e+03
2.180134e+03,2.814015e+03
2.181098e+03,2.815887e+03
2.182062e+03,2.824979e+03
2.183026e+03,2.834282e+03
2.183990e+03,2.838629e+03
2.184955e+03,2.825190e+03
2.185919e+03,2.810292e+03
2.186883e+03,2.806680e+03
2.187847e+03,2.805985e+03
2.188812e+03,2.799573e+03
2.189776e+03,2.792056e+03
2.190740e+03,2.784823e+03
2.191704e+03,2.780070e+03
2.192668e+03,2.783525e+03
2.193633e+03,2.790742e+03
2.194597e+03,2.799619e+03
2.195561e+03,2.802840e+03
2.196525e+03,2.790524e+03
2.197490e+03,2.771749e+03
2.198454e+03,2.758255e+03
2.199418e+03,2.753288e+03
2.200382e+03,2.762281e+03
2.201347e+03,2.776478e+03
2.202311e+03,2.775473e+03
2.203275e+03,2.771273e+03
2.204239e+03,2.776529e+03
2.205204e+03,2.780882e+03
2.206168e+03,2.772869e+03
2.207132e+03,2.760757e+03
2.208096e+03,2.751665e+03
2.209061e+03,2.742265e+03
2.210025e+03,2.730624e+03
2.210989e+03,2.718827e+03
2.211953e+03,2.706679e+03
2.212917e+03,2.706622e+03
2.213882e+03,2.726717e+03
2.214846e+03,2.751268e+03
2.215810e+03,2.757160e+03
2.216774e+03,2.747855e+03
2.217739e+03,2.730876e+03
2.218703e+03,2.714607e+03
2.219667e+03,2.715198e+03
2.220631e+03,2.720134e+03
2.221595e+03,2.715956e+03
2.222560e+03,2.706971e+03
2.223524e+03,2.698502e+03
2.224488e+03,2.690688e+03
2.225452e+03,2.684837e+03
2.226417e+03,2.681286e+03
2.227381e+03,2.679862e+03
2.228345e+03,2.681415e+03
2.229309e+03,2.685438e+03
2.230274e+03,2.689083e+03
2.231238e+03,2.692690e+03
2.232202e+03,2.692640e+03
2.233166e+03,2.683700e+03
2.234131e+03,2.673270e+03
2.235095e+03,2.665892e+03
2.236059e+03,2.659950e+03
2.237023e+03,2.647166e+03
2.237988e+03,2.641567e+03
2.238952e+03,2.655059e+03
2.239916e+03,2.668822e+03
2.240880e+03,2.656098e+03
2.241844e+03,2.641262e+03
2.242809e+03,2.642736e+03
2.243773e+03,2.648174e+03
2.244737e+03,2.645387e+03
2.245701e+03,2.637247e+03
2.246666e+03,2.620920e+03
2.247630e+03,2.608068e+03
2.248594e+03,2.612534e+03
2.249558e+03,2.622484e+03
2.250522e+03,2.626334e+03
2.251487e+03,2.627595e+03
2.252451e+03,2.623218e+03
2.253415e+03,2.618386e+03
2.254379e+03,2.629068e+03
2.255344e+03,2.632849e+03
2.256308e+03,2.619959e+03
2.257272e+03,2.605394e+03
2.258236e+03,2.603922e+03
2.259201e+03,2.605417e+03
2.260165e+03,2.605572e+03
2.261129e+03,2.602886e+03
2.262093e+03,2.592587e+03
2.263058e+03,2.583316e+03
2.264022e+03,2.579409e+03
2.264986e+03,2.579509e+03
2.265950e+03,2.583463e+03
2.266915e+03,2.583752e+03
2.267879e+03,2.575802e+03
2.268843e+03,2.566327e+03
2.269807e+03,2.561561e+03
2.270771e+03,2.557319e+03
2.271736e+03,2.551589e+03
2.272700e+03,2.552140e+03
2.273664e+03,2.559145e+03
2.274628e+03,2.565505e+03
2.275593e+03,2.569534e+03
2.276557e+03,2.563594e+03
2.277521e+03,2.548228e+03
2.278485e+03,2.537178e+03
2.279449e+03,2.540131e+03
2.280414e+03,2.538101e+03
2.281378e+03,2.529808e+03
2.282342e+03,2.523276e+03
2.283306e+03,2.519400e+03
2.284271e+03,2.520714e+03
2.285235e+03,2.526016e+03
2.286199e+03,2.528058e+03
2.287163e+03,2.527935e+03
2.288128e+03,2.521979e+03
2.289092e+03,2.509155e+03
2.290056e+03,2.501195e+03
2.291020e+03,2.501956e+03
2.291985e+03,2.503022e+03
2.292949e+03,2.505968e+03
2.293913e+03,2.512418e+03
2.294877e+03,2.520000e+03
2.295842e+03,2.516633e+03
2.296806e+03,2.502952e+03
2.297770e+03,2.500127e+03
2.298734e+03,2.504552e+03
2.299698e+03,2.496710e+03
2.300663e+03,2.479500e+03
2.301627e+03,2.475320e+03
2.302591e+03,2.477684e+03
2.303555e+03,2.471212e+03
2.304520e+03,2.459244e+03
2.305484e+03,2.456486e+03
2.306448e+03,2.461563e+03
2.307412e+03,2.474516e+03
2.308376e+03,2.486693e+03
2.309341e+03,2.472715e+03
2.310305e+03,2.451059e+03
2.311269e+03,2.450187e+03
2.312233e+03,2.458856e+03
2.313198e+03,2.455902e+03
2.314162e+03,2.448063e+03
2.315126e+03,2.442899e+03
2.316090e+03,2.439030e+03
2.317055e+03,2.435712e+03
2.318019e+03,2.434527e+03
2.318983e+03,2.436583e+03
2.319947e+03,2.437891e+03
2.320912e+03,2.439188e+03
2.321876e+03,2.437815e+03
2.322840e+03,2.427658e+03
2.323804e+03,2.418869e+03
2.324769e+03,2.417138e+03
2.325733e+03,2.418340e+03
2.326697e+03,2.417507e+03
2.327661e+03,2.420278e+03
2.328625e+03,2.427688e+03
2.329590e+03,2.429074e+03
2.330554e+03,2.419347e+03
2.331518e+03,2.405169e+03
2.332482e+03,2.386612e+03
2.333447e+03,2.375786e+03
2.334411e+03,2.382213e+03
2.335375e+03,2.386966e+03
2.336339e+03,2.388962e+03
2.337303e+03,2.390216e+03
2.338268e+03,2.390856e+03
2.339232e+03,2.386485e+03
2.340196e+03,2.378708e+03
2.341160e+03,2.373112e+03
2.342125e+03,2.370749e+03
2.343089e+03,2.376499e+03
2.344053e+03,2.384248e+03
2.345017e+03,2.381275e+03
2.345982e+03,2.368789e+03
2.346946e+03,2.367329e+03
2.347910e+03,2.372688e+03
2.348874e+03,2.364805e+03
2.349839e+03,2.347661e+03
2.350803e+03,2.344219e+03
2.351767e+03,2.349136e+03
2.352731e+03,2.352319e+03
2.353696e+03,2.353823e+03
2.354660e+03,2.349535e+03
2.355624e+03,2.343281e+03
2.356588e+03,2.345870e+03
2.357552e+03,2.350144e+03
2.358517e+03,2.349950e+03
2.359481e+03,2.346873e+03
2.360445e+03,2.337726e+03
2.361409e+03,2.331313e+03
2.362374e+03,2.334981e+03
2.363338e+03,2.335924e+03
2.364302e+03,2.321234e+03
2.365266e+03,2.311677e+03
2.366230e+03,2.311671e+03
2.367195e+03,2.312445e+03
2.368159e+03,2.304083e+03
2.369123e+03,2.303453e+03
2.370087e+03,2.315445e+03
2.371052e+03,2.321655e+03
2.372016e+03,2.310257e+03
2.372980e+03,2.304328e+03
2.373944e+03,2.303622e+03
2.374909e+03,2.299973e+03
2.375873e+03,2.289123e+03
2.376837e+03,2.290544e+03
2.377801e+03,2.300284e+03
2.378766e+03,2.295254e+03
2.379730e+03,2.274072e+03
2.380694e+03,2.269321e+03
2.381658e+03,2.274876e+03
2.382623e+03,2.267151e+03
2.383587e+03,2.251923e+03
2.384551e+03,2.256400e+03
2.385515e+03,2.267441e+03
2.386479e+03,2.263972e+03
2.387444e+03,2.255520e+03
2.388408e+03,2.257288e+03
2.389372e+03,2.262307e+03
2.390336e+03,2.262177e+03
2.391301e+03,2.259385e+03
2.392265e+03,2.254022e+03
2.393229e+03,2.248037e+03
2.394193e+03,2.242318e+03
2.395157e+03,2.239815e+03
2.396122e+03,2.246941e+03
2.397086e+03,2.248632e+03
2.398050e+03,2.239776e+03
2.399014e+03,2.234742e+03
2.399979e+03,2.240087e+03
2.400943e+03,2.240276e+03
2.401907e+03,2.231773e+03
2.402871e+03,2.227976e+03
2.403836e+03,2.232625e+03
2.404800e+03,2.231094e+03
2.405764e+03,2.222314e+03
2.406728e+03,2.213019e+03
2.407693e+03,2.205683e+03
2.408657e+03,2.220180e+03
2.409621e+03,2.248284e+03
2.410585e+03,2.235153e+03
2.411550e+03,2.200230e+03
2.412514e+03,2.198527e+03
2.413478e+03,2.214276e+03
2.414442e+03,2.203394e+03
2.415406e+03,2.187231e+03
2.416371e+03,2.189472e+03
2.417335e+03,2.199794e+03
2.418299e+03,2.205735e+03
2.419263e+03,2.208694e+03
2.420228e+03,2.208919e+03
2.421192e+03,2.207257e+03
2.422156e+03,2.204983e+03
2.423120e+03,2.202200e+03
2.424084e+03,2.196960e+03
2.425049e+03,2.189667e+03
2.426013e+03,2.183034e+03
2.426977e+03,2.174188e+03
2.427941e+03,2.164924e+03
2.428906e+03,2.166177e+03
2.429870e+03,2.181294e+03
2.430834e+03,2.186703e+03
2.431798e+03,2.184370e+03
2.432763e+03,2.185344e+03
2.433727e+03,2.189124e+03
2.434691e+03,2.184802e+03
2.435655e+03,2.174655e+03
2.436620e+03,2.162313e+03
2.437584e+03,2.151018e+03
2.438548e+03,2.152158e+03
2.439512e+03,2.155844e+03
2.440477e+03,2.151042e+03
2.441441e+03,2.140861e+03
2.442405e+03,2.127067e+03
2.443369e+03,2.121535e+03
2.444333e+03,2.131690e+03
2.445298e+03,2.140718e+03
2.446262e+03,2.127404e+03
2.447226e+03,2.121991e+03
2.448190e+03,2.131138e+03
2.449155e+03,2.136606e+03
2.450119e+03,2.123513e+03
2.451083e+03,2.121116e+03
2.452047e+03,2.127567e+03
2.453011e+03,2.128991e+03
2.453976e+03,2.123010e+03
2.454940e+03,2.108325e+03
2.455904e+03,2.091922e+03
2.456868e+03,2.093132e+03
2.457833e+03,2.104946e+03
2.458797e+03,2.109673e+03
2.459761e+03,2.110073e+03
2.460725e+03,2.107200e+03
2.461690e+03,2.103487e+03
2.462654e+03,2.102762e+03
2.463618e+03,2.102422e+03
2.464582e+03,2.102091e+03
2.465547e+03,2.102375e+03
2.466511e+03,2.098127e+03
2.467475e+03,2.099164e+03
2.468439e+03,2.108153e+03
2.469404e+03,2.108913e+03
2.470368e+03,2.086537e+03
2.471332e+03,2.073509e+03
2.472296e+03,2.068909e+03
2.473260e+03,2.068053e+03
2.474225e+03,2.070508e+03
2.475189e+03,2.069642e+03
2.476153e+03,2.067518e+03
2.477117e+03,2.063779e+03
2.478082e+03,2.059729e+03
2.479046e+03,2.065196e+03
2.480010e+03,2.070681e+03
2.480974e+03,2.062731e+03
2.481938e+03,2.051093e+03
2.482903e+03,2.045240e+03
2.483867e+03,2.046982e+03
2.484831e+03,2.057948e+03
2.485795e+03,2.064408e+03
2.486760e+03,2.050965e+03
2.487724e+03,2.042952e+03
2.488688e+03,2.045332e+03
2.489652e+03,2.048235e+03
2.490617e+03,2.043030e+03
2.491581e+03,2.047140e+03
2.492545e+03,2.058719e+03
2.493509e+03,2.057188e+03
2.494474e+03,2.040314e+03
2.495438e+03,2.041313e+03
2.496402e+03,2.051141e+03
2.497366e+03,2.051021e+03
2.498331e+03,2.043347e+03
2.499295e+03,2.028129e+03
2.500259e+03,2.014453e+03
2.501223e+03,2.013508e+03
2.502188e+03,2.015140e+03
2.503152e+03,2.006298e+03
2.504116e+03,2.000038e+03
2.505080e+03,1.999996e+03
2.506044e+03,2.004690e+03
2.507009e+03,2.017885e+03
2.507973e+03,2.021644e+03
2.508937e+03,2.016862e+03
2.509901e+03,2.009032e+03
2.510865e+03,1.998419e+03
2.511830e+03,1.996539e+03
2.512794e+03,1.998088e+03
2.513758e+03,1.989412e+03
2.514722e+03,1.978581e+03
2.515687e+03,1.990654e+03
2.516651e+03,2.007583e+03
2.517615e+03,2.010317e+03
2.518579e+03,2.006687e+03
2.519544e+03,2.008653e+03
2.520508e+03,2.001815e+03
2.521472e+03,1.980438e+03
2.522436e+03,1.963713e+03
2.523401e+03,1.968623e+03
2.524365e+03,1.977311e+03
2.525329e+03,1.986333e+03
2.526293e+03,1.983352e+03
2.527258e+03,1.966769e+03
2.528222e+03,1.951527e+03
2.529186e+03,1.940802e+03
2.530150e+03,1.946419e+03
2.531115e+03,1.961441e+03
2.532079e+03,1.958211e+03
2.533043e+03,1.950541e+03
2.534007e+03,1.954353e+03
2.534971e+03,1.957132e+03
2.535936e+03,1.939518e+03
2.536900e+03,1.929397e+03
2.537864e+03,1.937429e+03
2.538828e+03,1.945982e+03
2.539792e+03,1.943189e+03
2.540757e+03,1.938294e+03
2.541721e+03,1.932327e+03
2.542685e+03,1.928726e+03
2.543649e+03,1.928507e+03
2.544614e+03,1.934583e+03
2.545578e+03,1.939964e+03
2.546542e+03,1.927111e+03
2.547506e+03,1.907043e+03
2.548471e+03,1.902644e+03
2.549435e+03,1.910221e+03
2.550399e+03,1.933362e+03
2.551363e+03,1.949876e+03
2.552328e+03,1.937684e+03
2.553292e+03,1.927051e+03
2.554256e+03,1.928694e+03
2.555220e+03,1.929221e+03
2.556185e+03,1.925518e+03
2.557149e+03,1.917341e+03
2.558113e+03,1.905725e+03
2.559077e+03,1.910726e+03
2.560042e+03,1.924784e+03
2.561006e+03,1.921817e+03
2.561970e+03,1.911877e+03
2.562934e+03,1.911959e+03
2.563898e+03,1.915367e+03
2.564863e+03,1.913953e+03
2.565827e+03,1.909344e+03
2.566791e+03,1.907417e+03
2.567755e+03,1.900192e+03
2.568719e+03,1.882505e+03
2.569684e+03,1.875662e+03
2.570648e+03,1.896265e+03
2.571612e+03,1.898632e+03
2.572576e+03,1.887300e+03
2.573541e+03,1.883933e+03
2.574505e+03,1.887516e+03
2.575469e+03,1.892271e+03
2.576433e+03,1.891371e+03
2.577398e+03,1.872606e+03
2.578362e+03,1.852952e+03
2.579326e+03,1.857074e+03
2.580290e+03,1.867285e+03
2.581255e+03,1.874860e+03
2.582219e+03,1.878072e+03
2.583183e+03,1.876509e+03
2.584147e+03,1.866462e+03
2.585112e+03,1.851478e+03
2.586076e+03,1.845410e+03
2.587040e+03,1.849828e+03
2.588004e+03,1.852287e+03
2.588969e+03,1.851542e+03
2.589933e+03,1.848944e+03
2.590897e+03,1.844925e+03
2.591861e+03,1.835633e+03
2.592825e+03,1.831064e+03
2.593790e+03,1.837455e+03
2.594754e+03,1.845565e+03
2.595718e+03,1.851564e+03
2.596682e+03,1.848463e+03
2.597646e+03,1.833040e+03
2.598611e+03,1.829188e+03
2.599575e+03,1.838910e+03
2.600539e+03,1.834120e+03
2.601503e+03,1.817506e+03
2.602468e+03,1.817266e+03
2.603432e+03,1.823065e+03
2.604396e+03,1.814811e+03
2.605360e+03,1.804905e+03
2.606325e+03,1.801361e+03
2.607289e+03,1.801909e+03
2.608253e+03,1.806179e+03
2.609217e+03,1.810346e+03
2.610182e+03,1.809642e+03
2.611146e+03,1.811187e+03
2.612110e+03,1.814698e+03
2.613074e+03,1.808159e+03
2.614039e+03,1.794336e+03
2.615003e+03,1.794252e+03
2.615967e+03,1.799508e+03
2.616931e+03,1.801709e+03
2.617896e+03,1.803412e+03
2.618860e+03,1.811367e+03
2.619824e+03,1.810223e+03
2.620788e+03,1.792978e+03
2.621752e+03,1.781835e+03
2.622717e+03,1.796157e+03
2.623681e+03,1.798162e+03
2.624645e+03,1.786943e+03
2.625609e+03,1.773969e+03
2.626573e+03,1.762891e+03
2.627538e+03,1.775974e+03
2.628502e+03,1.795442e+03
2.629466e+03,1.789840e+03
2.630430e+03,1.777651e+03
2.631395e+03,1.786926e+03
2.632359e+03,1.789383e+03
2.633323e+03,1.771732e+03
2.634287e+03,1.763025e+03
2.635252e+03,1.770007e+03
2.636216e+03,1.777480e+03
2.637180e+03,1.780259e+03
2.638144e+03,1.769777e+03
2.639109e+03,1.751907e+03
2.640073e+03,1.745932e+03
2.641037e+03,1.748042e+03
2.642001e+03,1.752481e+03
2.642966e+03,1.751277e+03
2.643930e+03,1.738176e+03
2.644894e+03,1.731468e+03
2.645858e+03,1.751257e+03
2.646823e+03,1.764555e+03
2.647787e+03,1.768151e+03
2.648751e+03,1.759878e+03
2.649715e+03,1.742452e+03
2.650679e+03,1.754493e+03
2.651644e+03,1.774152e+03
2.652608e+03,1.766240e+03
2.653572e+03,1.747538e+03
2.654536e+03,1.740760e+03
2.655500e+03,1.738185e+03
2.656465e+03,1.737552e+03
2.657429e+03,1.735667e+03
2.658393e+03,1.730125e+03
2.659357e+03,1.724998e+03
2.660322e+03,1.723261e+03
2.661286e+03,1.723529e+03
2.662250e+03,1.725212e+03
2.663214e+03,1.727432e+03
2.664179e+03,1.730550e+03
2.665143e+03,1.739607e+03
2.666107e+03,1.743658e+03
2.667071e+03,1.737016e+03
2.668036e+03,1.729623e+03
2.669000e+03,1.722257e+03
2.669964e+03,1.723272e+03
2.670928e+03,1.730157e+03
2.671893e+03,1.729270e+03
2.672857e+03,1.721732e+03
2.673821e+03,1.709782e+03
2.674785e+03,1.698921e+03
2.675750e+03,1.697313e+03
2.676714e+03,1.697110e+03
2.677678e+03,1.684523e+03
2.678642e+03,1.678262e+03
2.679606e+03,1.682796e+03
2.680571e+03,1.692230e+03
2.681535e+03,1.703903e+03
2.682499e+03,1.713634e+03
2.683463e+03,1.717044e+03
2.684427e+03,1.705591e+03
2.685392e+03,1.690484e+03
2.686356e+03,1.693512e+03
2.687320e+03,1.695664e+03
2.688284e+03,1.679953e+03
2.689249e+03,1.673403e+03
2.690213e+03,1.680361e+03
2.691177e+03,1.681562e+03
2.692141e+03,1.671946e+03
2.693106e+03,1.668967e+03
2.694070e+03,1.671506e+03
2.695034e+03,1.678429e+03
2.695998e+03,1.683099e+03
2.696963e+03,1.666535e+03
2.697927e+03,1.658779e+03
2.698891e+03,1.674455e+03
2.699855e+03,1.682013e+03
2.700820e+03,1.664596e+03
2.701784e+03,1.655738e+03
2.702748e+03,1.656487e+03
2.703712e+03,1.653512e+03
2.704677e+03,1.648714e+03
2.705641e+03,1.657803e+03
2.706605e+03,1.668583e+03
2.707569e+03,1.659305e+03
2.708533e+03,1.652114e+03
2.709498e+03,1.657227e+03
2.710462e+03,1.658661e+03
2.711426e+03,1.648939e+03
2.712390e+03,1.648508e+03
2.713354e+03,1.654104e+03
2.714319e+03,1.649468e+03
2.715283e+03,1.639327e+03
2.716247e+03,1.635662e+03
2.717211e+03,1.637463e+03
2.718176e+03,1.644525e+03
2.719140e+03,1.648976e+03
2.720104e+03,1.645140e+03
2.721068e+03,1.633644e+03
2.722033e+03,1.615962e+03
2.722997e+03,1.610750e+03
2.723961e+03,1.614860e+03
2.724925e+03,1.617327e+03
2.725890e+03,1.618670e+03
2.726854e+03,1.616620e+03
2.727818e+03,1.619698e+03
2.728782e+03,1.631421e+03
2.729747e+03,1.638497e+03
2.730711e+03,1.630769e+03
2.731675e+03,1.631530e+03
2.732639e+03,1.639075e+03
2.733604e+03,1.640673e+03
2.734568e+03,1.636532e+03
2.735532e+03,1.625219e+03
2.736496e+03,1.614147e+03
2.737460e+03,1.608368e+03
2.738425e+03,1.612479e+03
2.739389e+03,1.633397e+03
2.740353e+03,1.636401e+03
2.741317e+03,1.618090e+03
2.742281e+03,1.609617e+03
2.743246e+03,1.609689e+03
2.744210e+03,1.602790e+03
2.745174e+03,1.595288e+03
2.746138e+03,1.606003e+03
2.747103e+03,1.609720e+03
2.748067e+03,1.597426e+03
2.749031e+03,1.588237e+03
2.749995e+03,1.592130e+03
2.750960e+03,1.594393e+03
2.751924e+03,1.594658e+03
2.752888e+03,1.590481e+03
2.753852e+03,1.584004e+03
2.754817e+03,1.580378e+03
2.755781e+03,1.577986e+03
2.756745e+03,1.574655e+03
2.757709e+03,1.576073e+03
2.758674e+03,1.582139e+03
2.759638e+03,1.585582e+03
2.760602e+03,1.585544e+03
2.761566e+03,1.587070e+03
2.762531e+03,1.587458e+03
2.763495e+03,1.575439e+03
2.764459e+03,1.563958e+03
2.765423e+03,1.571734e+03
2.766387e+03,1.576604e+03
2.767352e+03,1.574837e+03
2.768316e+03,1.571459e+03
2.769280e+03,1.567501e+03
2.770244e+03,1.563718e+03
2.771208e+03,1.560082e+03
2.772173e+03,1.553863e+03
2.773137e+03,1.546481e+03
2.774101e+03,1.540185e+03
2.775065e+03,1.542327e+03
2.776030e+03,1.558282e+03
2.776994e+03,1.568667e+03
2.777958e+03,1.570706e+03
2.778922e+03,1.564402e+03
2.779887e+03,1.554282e+03
2.780851e+03,1.548791e+03
2.781815e+03,1.543633e+03
2.782779e+03,1.537498e+03
2.783744e+03,1.530574e+03
2.784708e+03,1.518399e+03
2.785672e+03,1.519993e+03
2.786636e+03,1.534717e+03
2.787601e+03,1.547033e+03
2.788565e+03,1.554173e+03
2.789529e+03,1.538727e+03
2.790493e+03,1.526020e+03
2.791458e+03,1.547517e+03
2.792422e+03,1.553512e+03
2.793386e+03,1.536096e+03
2.794350e+03,1.524683e+03
2.795314e+03,1.525581e+03
2.796279e+03,1.526273e+03
2.797243e+03,1.528170e+03
2.798207e+03,1.538875e+03
2.799171e+03,1.547027e+03
2.800135e+03,1.530724e+03
2.801100e+03,1.518812e+03
2.802064e+03,1.519226e+03
2.803028e+03,1.514499e+03
2.803992e+03,1.505469e+03
2.804957e+03,1.513608e+03
2.805921e+03,1.527641e+03
2.806885e+03,1.519027e+03
2.807849e+03,1.514367e+03
2.808814e+03,1.527325e+03
2.809778e+03,1.534578e+03
2.810742e+03,1.524757e+03
2.811706e+03,1.509862e+03
2.812671e+03,1.494065e+03
2.813635e+03,1.495371e+03
2.814599e+03,1.503699e+03
2.815563e+03,1.500054e+03
2.816528e+03,1.498257e+03
2.817492e+03,1.506823e+03
2.818456e+03,1.506639e+03
2.819420e+03,1.496226e+03
2.820385e+03,1.497197e+03
2.821349e+03,1.506401e+03
2.822313e+03,1.492729e+03
2.823277e+03,1.480936e+03
2.824241e+03,1.490980e+03
2.825206e+03,1.495571e+03
2.826170e+03,1.475147e+03
2.827134e+03,1.477848e+03
2.828098e+03,1.503375e+03
2.829063e+03,1.512437e+03
2.830027e+03,1.508611e+03
2.830991e+03,1.498095e+03
2.831955e+03,1.493241e+03
2.832919e+03,1.507012e+03
2.833884e+03,1.512086e+03
2.834848e+03,1.504722e+03
2.835812e+03,1.496929e+03
2.836776e+03,1.491301e+03
2.837741e+03,1.487644e+03
2.838705e+03,1.485694e+03
2.839669e+03,1.485721e+03
2.840633e+03,1.481880e+03
2.841598e+03,1.470256e+03
2.842562e+03,1.468819e+03
2.843526e+03,1.483940e+03
2.844490e+03,1.485872e+03
2.845455e+03,1.479933e+03
2.846419e+03,1.478461e+03
2.847383e+03,1.478256e+03
2.848347e+03,1.474484e+03
2.849312e+03,1.471037e+03
2.850276e+03,1.468559e+03
2.851240e+03,1.474722e+03
2.852204e+03,1.485151e+03
2.853168e+03,1.482880e+03
2.854133e+03,1.476750e+03
2.855097e+03,1.478742e+03
2.856061e+03,1.486589e+03
2.857025e+03,1.497050e+03
2.857990e+03,1.491513e+03
2.858954e+03,1.464496e+03
2.859918e+03,1.454903e+03
2.860882e+03,1.454199e+03
2.861846e+03,1.446040e+03
2.862811e+03,1.438704e+03
2.863775e+03,1.439314e+03
2.864739e+03,1.447552e+03
2.865703e+03,1.464409e+03
2.866668e+03,1.475232e+03
2.867632e+03,1.478364e+03
2.868596e+03,1.468052e+03
2.869560e+03,1.453827e+03
2.870525e+03,1.442939e+03
2.871489e+03,1.448487e+03
2.872453e+03,1.472227e+03
2.873417e+03,1.475143e+03
2.874382e+03,1.457870e+03
2.875346e+03,1.457363e+03
2.876310e+03,1.462995e+03
2.877274e+03,1.451589e+03
2.878239e+03,1.441816e+03
2.879203e+03,1.439310e+03
2.880167e+03,1.445131e+03
2.881131e+03,1.462100e+03
2.882095e+03,1.465966e+03
2.883060e+03,1.462426e+03
2.884024e+03,1.461460e+03
2.884988e+03,1.457006e+03
2.885952e+03,1.440509e+03
2.886917e+03,1.429836e+03
2.887881e+03,1.431617e+03
2.888845e+03,1.441375e+03
2.889809e+03,1.454106e+03
2.890773e+03,1.458125e+03
2.891738e+03,1.455829e+03
2.892702e+03,1.450771e+03
2.893666e+03,1.442668e+03
2.894630e+03,1.432240e+03
2.895595e+03,1.436846e+03
2.896559e+03,1.450368e+03
2.897523e+03,1.444292e+03
2.898487e+03,1.433204e+03
2.899452e+03,1.432338e+03
2.900416e+03,1.432240e+03
2.901380e+03,1.429895e+03
2.902344e+03,1.432063e+03
2.903309e+03,1.438474e+03
2.904273e+03,1.440722e+03
2.905237e+03,1.436913e+03
2.906201e+03,1.424352e+03
2.907166e+03,1.412350e+03
2.908130e+03,1.404428e+03
2.909094e+03,1.409773e+03
2.910058e+03,1.427250e+03
2.911022e+03,1.427475e+03
2.911987e+03,1.418481e+03
2.912951e+03,1.406904e+03
2.913915e+03,1.402056e+03
2.914879e+03,1.413878e+03
2.915844e+03,1.418089e+03
2.916808e+03,1.413108e+03
2.917772e+03,1.402741e+03
2.918736e+03,1.394266e+03
2.919700e+03,1.399691e+03
2.920665e+03,1.402741e+03
2.921629e+03,1.384669e+03
2.922593e+03,1.385830e+03
2.923557e+03,1.404397e+03
2.924522e+03,1.419160e+03
2.925486e+03,1.427577e+03
2.926450e+03,1.424742e+03
2.927414e+03,1.416251e+03
2.928379e+03,1.401356e+03
2.929343e+03,1.396272e+03
2.930307e+03,1.398581e+03
2.931271e+03,1.388222e+03
2.932236e+03,1.377201e+03
2.933200e+03,1.397425e+03
2.934164e+03,1.402056e+03
2.935128e+03,1.368821e+03
2.936093e+03,1.366585e+03
2.937057e+03,1.396071e+03
2.938021e+03,1.401754e+03
2.938985e+03,1.391606e+03
2.939949e+03,1.368927e+03
2.940914e+03,1.364905e+03
2.941878e+03,1.388682e+03
2.942842e+03,1.389681e+03
2.943806e+03,1.360588e+03
2.944771e+03,1.370788e+03
2.945735e+03,1.392195e+03
2.946699e+03,1.384449e+03
2.947663e+03,1.368131e+03
2.948627e+03,1.349827e+03
2.949592e+03,1.358068e+03
2.950556e+03,1.394158e+03
2.951520e+03,1.405221e+03
2.952484e+03,1.400649e+03
2.953449e+03,1.392139e+03
2.954413e+03,1.391815e+03
2.955377e+03,1.406322e+03
2.956341e+03,1.399259e+03
2.957306e+03,1.374833e+03
2.958270e+03,1.395466e+03
2.959234e+03,1.408885e+03
2.960198e+03,1.374241e+03
2.961163e+03,1.353826e+03
2.962127e+03,1.375723e+03
2.963091e+03,1.380463e+03
2.964055e+03,1.367088e+03
2.965020e+03,1.357200e+03
2.965984e+03,1.351912e+03
2.966948e+03,1.349708e+03
2.967912e+03,1.347486e+03
2.968876e+03,1.345391e+03
2.969841e+03,1.330689e+03
2.970805e+03,1.311149e+03
2.971769e+03,1.300182e+03
2.972733e+03,1.303733e+03
2.973698e+03,1.328590e+03
2.974662e+03,1.339223e+03
2.975626e+03,1.325445e+03
2.976590e+03,1.323414e+03
2.977554e+03,1.329667e+03
2.978519e+03,1.337445e+03
2.979483e+03,1.344161e+03
2.980447e+03,1.349995e+03
2.981411e+03,1.352964e+03
2.982376e+03,1.351653e+03
2.983340e+03,1.337305e+03
2.984304e+03,1.323365e+03
2.985268e+03,1.323582e+03
2.986233e+03,1.328311e+03
2.987197e+03,1.334831e+03
2.988161e+03,1.335744e+03
2.989125e+03,1.334014e+03
2.990090e+03,1.339655e+03
2.991054e+03,1.343906e+03
2.992018e+03,1.340796e+03
2.992982e+03,1.323872e+03
2.993947e+03,1.286690e+03
2.994911e+03,1.297111e+03
2.995875e+03,1.328557e+03
2.996839e+03,1.334257e+03
2.997803e+03,1.321045e+03
2.998768e+03,1.293756e+03
2.999732e+03,1.283600e+03
3.000696e+03,1.297264e+03
3.001660e+03,1.305096e+03
3.002625e+03,1.304929e+03
3.003589e+03,1.294195e+03
3.004553e+03,1.301273e+03
3.005517e+03,1.342336e+03
3.006481e+03,1.357555e+03
3.007446e+03,1.345354e+03
3.008410e+03,1.333038e+03
3.009374e+03,1.320059e+03
3.010338e+03,1.307488e+03
3.011303e+03,1.296118e+03
3.012267e+03,1.283480e+03
3.013231e+03,1.291929e+03
3.014195e+03,1.306341e+03
3.015160e+03,1.298182e+03
3.016124e+03,1.291089e+03
3.017088e+03,1.292767e+03
3.018052e+03,1.307431e+03
3.019017e+03,1.328746e+03
3.019981e+03,1.315917e+03
3.020945e+03,1.290353e+03
3.021909e+03,1.265465e+03
3.022874e+03,1.273822e+03
3.023838e+03,1.310699e+03
3.024802e+03,1.290325e+03
3.025766e+03,1.242039e+03
3.026730e+03,1.251848e+03
3.027695e+03,1.273406e+03
3.028659e+03,1.286592e+03
3.029623e+03,1.287183e+03
3.030587e+03,1.278710e+03
3.031552e+03,1.262153e+03
3.032516e+03,1.253791e+03
3.033480e+03,1.290575e+03
3.034444e+03,1.307074e+03
3.035408e+03,1.294421e+03
3.036373e+03,1.280819e+03
3.037337e+03,1.270673e+03
3.038301e+03,1.268476e+03
3.039265e+03,1.275035e+03
3.040230e+03,1.297597e+03
3.041194e+03,1.304828e+03
3.042158e+03,1.299203e+03
3.043122e+03,1.297905e+03
3.044087e+03,1.295796e+03
3.045051e+03,1.275387e+03
3.046015e+03,1.274802e+03
3.046979e+03,1.309068e+03
3.047944e+03,1.308971e+03
3.048908e+03,1.294539e+03
3.049872e+03,1.298825e+03
3.050836e+03,1.300650e+03
3.051801e+03,1.283140e+03
3.052765e+03,1.274599e+03
3.053729e+03,1.274177e+03
3.054693e+03,1.265218e+03
3.055657e+03,1.258153e+03
3.056622e+03,1.257699e+03
3.057586e+03,1.266860e+03
3.058550e+03,1.286529e+03
3.059514e+03,1.289173e+03
3.060479e+03,1.280990e+03
3.061443e+03,1.265434e+03
3.062407e+03,1.258339e+03
3.063371e+03,1.262203e+03
3.064335e+03,1.269344e+03
3.065300e+03,1.276504e+03
3.066264e+03,1.269845e+03
3.067228e+03,1.263679e+03
3.068192e+03,1.266577e+03
3.069157e+03,1.267702e+03
3.070121e+03,1.266157e+03
3.071085e+03,1.264678e+03
3.072049e+03,1.264664e+03
3.073014e+03,1.274460e+03
3.073978e+03,1.270746e+03
3.074942e+03,1.249166e+03
3.075906e+03,1.257193e+03
3.076871e+03,1.271381e+03
3.077835e+03,1.247997e+03
3.078799e+03,1.239088e+03
3.079763e+03,1.287166e+03
3.080728e+03,1.292539e+03
3.081692e+03,1.263889e+03
3.082656e+03,1.255969e+03
3.083620e+03,1.258057e+03
3.084584e+03,1.262538e+03
3.085549e+03,1.278322e+03
3.086513e+03,1.305747e+03
3.087477e+03,1.292487e+03
3.088441e+03,1.273641e+03
3.089406e+03,1.299322e+03
3.090370e+03,1.288958e+03
3.091334e+03,1.241430e+03
3.092298e+03,1.256887e+03
3.093262e+03,1.300653e+03
3.094227e+03,1.302877e+03
3.095191e+03,1.279597e+03
3.096155e+03,1.231858e+03
3.097119e+03,1.217008e+03
3.098084e+03,1.229591e+03
3.099048e+03,1.251896e+03
3.100012e+03,1.273908e+03
3.100976e+03,1.291821e+03
3.101941e+03,1.291831e+03
3.102905e+03,1.271547e+03
3.103869e+03,1.224857e+03
3.104833e+03,1.201447e+03
3.105798e+03,1.230334e+03
3.106762e+03,1.243026e+03
3.107726e+03,1.228430e+03
3.108690e+03,1.256736e+03
3.109655e+03,1.288687e+03
3.110619e+03,1.270894e+03
3.111583e+03,1.253200e+03
3.112547e+03,1.245683e+03
3.113511e+03,1.241026e+03
3.114476e+03,1.240225e+03
3.115440e+03,1.251593e+03
3.116404e+03,1.267568e+03
3.117368e+03,1.291425e+03
3.118333e+03,1.274325e+03
3.119297e+03,1.243527e+03
3.120261e+03,1.245707e+03
3.121225e+03,1.256936e+03
3.122189e+03,1.263033e+03
3.123154e+03,1.250182e+03
3.124118e+03,1.228695e+03
3.125082e+03,1.251684e+03
3.126046e+03,1.275644e+03
3.127011e+03,1.278863e+03
3.127975e+03,1.250902e+03
3.128939e+03,1.209411e+03
3.129903e+03,1.235196e+03
3.130868e+03,1.267187e+03
3.131832e+03,1.241938e+03
3.132796e+03,1.240706e+03
3.133760e+03,1.259056e+03
3.134725e+03,1.230312e+03
3.135689e+03,1.215669e+03
3.136653e+03,1.278273e+03
3.137617e+03,1.300605e+03
3.138582e+03,1.249042e+03
3.139546e+03,1.289312e+03
3.140510e+03,1.327359e+03
3.141474e+03,1.254824e+03
3.142438e+03,1.213514e+03
3.143403e+03,1.224794e+03
3.144367e+03,1.240035e+03
3.145331e+03,1.250910e+03
3.146295e+03,1.247474e+03
3.147260e+03,1.248926e+03
3.148224e+03,1.257729e+03
3.149188e+03,1.266804e+03
3.150152e+03,1.270020e+03
3.151116e+03,1.261005e+03
3.152081e+03,1.239761e+03
3.153045e+03,1.203434e+03
3.154009e+03,1.211628e+03
3.154973e+03,1.238542e+03
3.155938e+03,1.214267e+03
3.156902e+03,1.203545e+03
3.157866e+03,1.220754e+03
3.158830e+03,1.235578e+03
3.159795e+03,1.245194e+03
3.160759e+03,1.236174e+03
3.161723e+03,1.239526e+03
3.162687e+03,1.295878e+03
3.163652e+03,1.278018e+03
3.164616e+03,1.229203e+03
3.165580e+03,1.232387e+03
3.166544e+03,1.250027e+03
3.167509e+03,1.263685e+03
3.168473e+03,1.264416e+03
3.169437e+03,1.256826e+03
3.170401e+03,1.256736e+03
3.171365e+03,1.247915e+03
3.172330e+03,1.223592e+03
3.173294e+03,1.230435e+03
3.174258e+03,1.253173e+03
3.175222e+03,1.257023e+03
3.176187e+03,1.244936e+03
3.177151e+03,1.218205e+03
3.178115e+03,1.212196e+03
3.179079e+03,1.224415e+03
3.180043e+03,1.240514e+03
3.181008e+03,1.244676e+03
3.181972e+03,1.235391e+03
3.182936e+03,1.248630e+03
3.183900e+03,1.272706e+03
3.184865e+03,1.262341e+03
3.185829e+03,1.252548e+03
3.186793e+03,1.283441e+03
3.187757e+03,1.249640e+03
3.188722e+03,1.191805e+03
3.189686e+03,1.204177e+03
3.190650e+03,1.224596e+03
3.191614e+03,1.225012e+03
3.192579e+03,1.218406e+03
3.193543e+03,1.210758e+03
3.194507e+03,1.208986e+03
3.195471e+03,1.220225e+03
3.196436e+03,1.247915e+03
3.197400e+03,1.283899e+03
3.198364e+03,1.311687e+03
3.199328e+03,1.310611e+03
3.200292e+03,1.299949e+03
3.201257e+03,0.000000e+00
3.202221e+03,0.000000e+00
3.203185e+03,0.000000e+00
3.204149e+03,0.000000e+00
3.205114e+03,0.000000e+00
3.206078e+03,0.000000e+00
3.207042e+03,0.000000e+00
3.208006e+03,0.000000e+00
3.208970e+03,0.000000e+00
3.209935e+03,0.000000e+00
3.210899e+03,0.000000e+00
3.211863e+03,0.000000e+00
3.212827e+03,0.000000e+00
3.213792e+03,0.000000e+00
3.214756e+03,0.000000e+00
3.215720e+03,0.000000e+00
3.216684e+03,0.000000e+00
3.217649e+03,0.000000e+00
3.218613e+03,0.000000e+00
3.219577e+03,0.000000e+00
3.220541e+03,0.000000e+00
3.221506e+03,0.000000e+00
3.222470e+03,0.000000e+00
3.223434e+03,0.000000e+00
3.224398e+03,0.000000e+00
3.225363e+03,0.000000e+00
3.226327e+03,0.000000e+00
3.227291e+03,0.000000e+00
3.228255e+03,0.000000e+00
3.229219e+03,0.000000e+00
3.230184e+03,0.000000e+00
3.231148e+03,0.000000e+00
3.232112e+03,0.000000e+00
3.233076e+03,0.000000e+00
3.234041e+03,0.000000e+00
3.235005e+03,0.000000e+00
3.235969e+03,0.000000e+00
3.236933e+03,0.000000e+00
3.237897e+03,0.000000e+00
3.238862e+03,0.000000e+00
3.239826e+03,0.000000e+00
3.240790e+03,0.000000e+00
3.241754e+03,0.000000e+00
3.242719e+03,0.000000e+00
3.243683e+03,0.000000e+00
3.244647e+03,0.000000e+00
3.245611e+03,0.000000e+00
3.246576e+03,0.000000e+00
3.247540e+03,0.000000e+00
3.248504e+03,0.000000e+00
3.249468e+03,0.000000e+00
3.250433e+03,0.000000e+00
3.251397e+03,0.000000e+00
3.252361e+03,0.000000e+00
3.253325e+03,0.000000e+00
3.254290e+03,0.000000e+00
3.255254e+03,0.000000e+00
3.256218e+03,0.000000e+00
3.257182e+03,0.000000e+00
3.258146e+03,0.000000e+00
3.259111e+03,0.000000e+00
3.260075e+03,0.000000e+00
3.261039e+03,0.000000e+00
3.262003e+03,0.000000e+00
3.262968e+03,0.000000e+00
3.263932e+03,0.000000e+00
3.264896e+03,0.000000e+00
3.265860e+03,0.000000e+00
3.266824e+03,0.000000e+00
3.267789e+03,0.000000e+00
3.268753e+03,0.000000e+00
3.269717e+03,0.000000e+00
3.270681e+03,0.000000e+00
3.271646e+03,0.000000e+00
3.272610e+03,0.000000e+00
3.273574e+03,0.000000e+00
3.274538e+03,0.000000e+00
3.275503e+03,0.000000e+00
3.276467e+03,0.000000e+00
3.277431e+03,0.000000e+00
3.278395e+03,0.000000e+00
3.279360e+03,0.000000e+00
3.280324e+03,0.000000e+00
3.281288e+03,0.000000e+00
3.282252e+03,0.000000e+00
3.283217e+03,0.000000e+00
3.284181e+03,0.000000e+00
3.285145e+03,0.000000e+00
3.286109e+03,0.000000e+00
3.287073e+03,0.000000e+00
3.288038e+03,0.000000e+00
3.289002e+03,0.000000e+00
3.289966e+03,0.000000e+00
3.290930e+03,0.000000e+00
3.291895e+03,0.000000e+00
3.292859e+03,0.000000e+00
3.293823e+03,0.000000e+00
3.294787e+03,0.000000e+00
3.295751e+03,0.000000e+00
3.296716e+03,0.000000e+00
3.297680e+03,0.000000e+00
3.298644e+03,0.000000e+00
3.299608e+03,0.000000e+00
3.300573e+03,0.000000e+00
3.301537e+03,0.000000e+00
3.302501e+03,0.000000e+00
3.303465e+03,0.000000e+00
3.304430e+03,0.000000e+00
3.305394e+03,0.000000e+00
3.306358e+03,0.000000e+00
3.307322e+03,0.000000e+00
3.308287e+03,0.000000e+00
3.309251e+03,0.000000e+00
3.310215e+03,0.000000e+00
3.311179e+03,0.000000e+00
3.312144e+03,0.000000e+00
3.313108e+03,0.000000e+00
3.314072e+03,0.000000e+00
3.315036e+03,0.000000e+00
3.316000e+03,0.000000e+00
3.316965e+03,0.000000e+00
3.317929e+03,0.000000e+00
3.318893e+03,0.000000e+00
3.319857e+03,0.000000e+00
3.320822e+03,0.000000e+00
3.321786e+03,0.000000e+00
3.322750e+03,0.000000e+00
3.323714e+03,0.000000e+00
3.324678e+03,0.000000e+00
3.325643e+03,0.000000e+00
3.326607e+03,0.000000e+00
3.327571e+03,0.000000e+00
3.328535e+03,0.000000e+00
3.329500e+03,0.000000e+00
3.330464e+03,0.000000e+00
3.331428e+03,0.000000e+00
3.332392e+03,0.000000e+00
3.333357e+03,0.000000e+00
3.334321e+03,0.000000e+00
3.335285e+03,0.000000e+00
3.336249e+03,0.000000e+00
3.337214e+03,0.000000e+00
3.338178e+03,0.000000e+00
3.339142e+03,0.000000e+00
3.340106e+03,0.000000e+00
3.341071e+03,0.000000e+00
3.342035e+03,0.000000e+00
3.342999e+03,0.000000e+00
3.343963e+03,0.000000e+00
3.344927e+03,0.000000e+00
3.345892e+03,0.000000e+00
3.346856e+03,0.000000e+00
3.347820e+03,0.000000e+00
3.348784e+03,0.000000e+00
3.349749e+03,0.000000e+00
3.350713e+03,0.000000e+00
3.351677e+03,0.000000e+00
3.352641e+03,0.000000e+00
3.353605e+03,0.000000e+00
3.354570e+03,0.000000e+00
3.355534e+03,0.000000e+00
3.356498e+03,0.000000e+00
3.357462e+03,0.000000e+00
3.358427e+03,0.000000e+00
3.359391e+03,0.000000e+00
3.360355e+03,0.000000e+00
3.361319e+03,0.000000e+00
3.362284e+03,0.000000e+00
3.363248e+03,0.000000e+00
3.364212e+03,0.000000e+00
3.365176e+03,0.000000e+00
3.366141e+03,0.000000e+00
3.367105e+03,0.000000e+00
3.368069e+03,0.000000e+00
3.369033e+03,0.000000e+00
3.369998e+03,0.000000e+00
3.370962e+03,0.000000e+00
3.371926e+03,0.000000e+00
3.372890e+03,0.000000e+00
3.373854e+03,0.000000e+00
3.374819e+03,0.000000e+00
3.375783e+03,0.000000e+00
3.376747e+03,0.000000e+00
3.377711e+03,0.000000e+00
3.378676e+03,0.000000e+00
3.379640e+03,0.000000e+00
3.380604e+03,0.000000e+00
3.381568e+03,0.000000e+00
3.382532e+03,0.000000e+00
3.383497e+03,0.000000e+00
3.384461e+03,0.000000e+00
3.385425e+03,0.000000e+00
3.386389e+03,0.000000e+00
3.387354e+03,0.000000e+00
3.388318e+03,0.000000e+00
3.389282e+03,0.000000e+00
3.390246e+03,0.000000e+00
3.391211e+03,0.000000e+00
3.392175e+03,0.000000e+00
3.393139e+03,0.000000e+00
3.394103e+03,0.000000e+00
3.395068e+03,0.000000e+00
3.396032e+03,0.000000e+00
3.396996e+03,0.000000e+00
3.397960e+03,0.000000e+00
3.398925e+03,0.000000e+00
3.399889e+03,0.000000e+00
3.400853e+03,0.000000e+00
3.401817e+03,0.000000e+00
3.402781e+03,0.000000e+00
3.403746e+03,0.000000e+00
3.404710e+03,0.000000e+00
3.405674e+03,0.000000e+00
3.406638e+03,0.000000e+00
3.407603e+03,0.000000e+00
3.408567e+03,0.000000e+00
3.409531e+03,0.000000e+00
3.410495e+03,0.000000e+00
3.411459e+03,0.000000e+00
3.412424e+03,0.000000e+00
3.413388e+03,0.000000e+00
3.414352e+03,0.000000e+00
3.415316e+03,0.000000e+00
3.416281e+03,0.000000e+00
3.417245e+03,0.000000e+00
3.418209e+03,0.000000e+00
3.419173e+03,0.000000e+00
3.420138e+03,0.000000e+00
3.421102e+03,0.000000e+00
3.422066e+03,0.000000e+00
3.423030e+03,0.000000e+00
3.423995e+03,0.000000e+00
3.424959e+03,0.000000e+00
3.425923e+03,0.000000e+00
3.426887e+03,0.000000e+00
3.427852e+03,0.000000e+00
3.428816e+03,0.000000e+00
3.429780e+03,0.000000e+00
3.430744e+03,0.000000e+00
3.431708e+03,0.000000e+00
3.432673e+03,0.000000e+00
3.433637e+03,0.000000e+00
3.434601e+03,0.000000e+00
3.435565e+03,0.000000e+00
3.436530e+03,0.000000e+00
3.437494e+03,0.000000e+00
3.438458e+03,0.000000e+00
3.439422e+03,0.000000e+00
3.440386e+03,0.000000e+00
3.441351e+03,0.000000e+00
3.442315e+03,0.000000e+00
3.443279e+03,0.000000e+00
3.444243e+03,0.000000e+00
3.445208e+03,0.000000e+00
3.446172e+03,0.000000e+00
3.447136e+03,0.000000e+00
3.448100e+03,0.000000e+00
3.449065e+03,0.000000e+00
3.450029e+03,0.000000e+00
3.450993e+03,0.000000e+00
3.451957e+03,0.000000e+00
3.452922e+03,0.000000e+00
3.453886e+03,0.000000e+00
3.454850e+03,0.000000e+00
3.455814e+03,0.000000e+00
3.456779e+03,0.000000e+00
3.457743e+03,0.000000e+00
3.458707e+03,0.000000e+00
3.459671e+03,0.000000e+00
3.460635e+03,0.000000e+00
3.461600e+03,0.000000e+00
3.462564e+03,0.000000e+00
3.463528e+03,0.000000e+00
3.464492e+03,0.000000e+00
3.465457e+03,0.000000e+00
3.466421e+03,0.000000e+00
3.467385e+03,0.000000e+00
3.468349e+03,0.000000e+00
3.469313e+03,0.000000e+00
3.470278e+03,0.000000e+00
3.471242e+03,0.000000e+00
3.472206e+03,0.000000e+00
3.473170e+03,0.000000e+00
3.474135e+03,0.000000e+00
3.475099e+03,0.000000e+00
3.476063e+03,0.000000e+00
3.477027e+03,0.000000e+00
3.477992e+03,0.000000e+00
3.478956e+03,0.000000e+00
3.479920e+03,0.000000e+00
3.480884e+03,0.000000e+00
3.481849e+03,0.000000e+00
3.482813e+03,0.000000e+00
3.483777e+03,0.000000e+00
3.484741e+03,0.000000e+00
3.485706e+03,0.000000e+00
3.486670e+03,0.000000e+00
3.487634e+03,0.000000e+00
3.488598e+03,0.000000e+00
3.489563e+03,0.000000e+00
3.490527e+03,0.000000e+00
3.491491e+03,0.000000e+00
3.492455e+03,0.000000e+00
3.493419e+03,0.000000e+00
3.494384e+03,0.000000e+00
3.495348e+03,0.000000e+00
3.496312e+03,0.000000e+00
3.497276e+03,0.000000e+00
3.498240e+03,0.000000e+00
3.499205e+03,0.000000e+00
3.500169e+03,0.000000e+00
