9.931763e+01,0.000000e+00
1.002819e+02,0.000000e+00
1.012461e+02,0.000000e+00
1.022103e+02,0.000000e+00
1.031746e+02,0.000000e+00
1.041388e+02,0.000000e+00
1.051030e+02,0.000000e+00
1.060673e+02,0.000000e+00
1.070315e+02,0.000000e+00
1.079957e+02,0.000000e+00
1.089600e+02,0.000000e+00
1.099242e+02,0.000000e+00
1.108884e+02,0.000000e+00
1.118527e+02,0.000000e+00
1.128169e+02,0.000000e+00
1.137811e+02,0.000000e+00
1.147454e+02,0.000000e+00
1.157096e+02,0.000000e+00
1.166738e+02,0.000000e+00
1.176381e+02,0.000000e+00
1.186023e+02,0.000000e+00
1.195665e+02,0.000000e+00
1.205308e+02,0.000000e+00
1.214950e+02,0.000000e+00
1.224592e+02,0.000000e+00
1.234235e+02,0.000000e+00
1.243877e+02,0.000000e+00
1.253519e+02,0.000000e+00
1.263162e+02,0.000000e+00
1.272804e+02,0.000000e+00
1.282446e+02,0.000000e+00
1.292089e+02,0.000000e+00
1.301731e+02,0.000000e+00
1.311373e+02,0.000000e+00
1.321016e+02,0.000000e+00
1.330658e+02,0.000000e+00
1.340300e+02,0.000000e+00
1.349943e+02,0.000000e+00
1.359585e+02,0.000000e+00
1.369227e+02,0.000000e+00
1.378870e+02,0.000000e+00
1.388512e+02,0.000000e+00
1.398154e+02,0.000000e+00
1.407797e+02,0.000000e+00
1.417439e+02,0.000000e+00
1.427081e+02,0.000000e+00
1.436724e+02,0.000000e+00
1.446366e+02,0.000000e+00
1.456008e+02,0.000000e+00
1.465651e+02,0.000000e+00
1.475293e+02,0.000000e+00
1.484935e+02,0.000000e+00
1.494578e+02,0.000000e+00
1.504220e+02,0.000000e+00
1.513862e+02,0.000000e+00
1.523505e+02,0.000000e+00
1.533147e+02,0.000000e+00
1.542789e+02,0.000000e+00
1.552432e+02,0.000000e+00
1.562074e+02,0.000000e+00
1.571716e+02,0.000000e+00
1.581359e+02,0.000000e+00
1.591001e+02,0.000000e+00
1.600643e+02,0.000000e+00
1.610286e+02,0.000000e+00
1.619928e+02,0.000000e+00
1.629570e+02,0.000000e+00
1.639213e+02,0.000000e+00
1.648855e+02,0.000000e+00
1.658497e+02,0.000000e+00
1.668140e+02,0.000000e+00
1.677782e+02,0.000000e+00
1.687424e+02,0.000000e+00
1.697067e+02,0.000000e+00
1.706709e+02,0.000000e+00
1.716351e+02,0.000000e+00
1.725994e+02,0.000000e+00
1.735636e+02,0.000000e+00
1.745278e+02,0.000000e+00
1.754921e+02,0.000000e+00
1.764563e+02,0.000000e+00
1.774205e+02,0.000000e+00
1.783848e+02,0.000000e+00
1.793490e+02,0.000000e+00
1.803132e+02,0.000000e+00
1.812775e+02,0.000000e+00
1.822417e+02,0.000000e+00
1.832059e+02,0.000000e+00
1.841702e+02,0.000000e+00
1.851344e+02,0.000000e+00
1.860986e+02,0.000000e+00
1.870629e+02,0.000000e+00
1.880271e+02,0.000000e+00
1.889913e+02,0.000000e+00
1.899556e+02,0.000000e+00
1.909198e+02,0.000000e+00
1.918840e+02,0.000000e+00
1.928483e+02,0.000000e+00
1.938125e+02,0.000000e+00
1.947767e+02,0.000000e+00
1.957410e+02,0.000000e+00
1.967052e+02,0.000000e+00
1.976694e+02,0.000000e+00
1.986337e+02,0.000000e+00
1.995979e+02,6.244905e+03
2.005621e+02,6.264174e+03
2.015264e+02,6.285766e+03
2.024906e+02,6.319963e+03
2.034548e+02,6.347010e+03
2.044191e+02,6.356529e+03
2.053833e+02,6.350253e+03
2.063475e+02,6.339391e+03
2.073118e+02,6.336629e+03
2.082760e+02,6.345881e+03
2.092402e+02,6.351359e+03
2.102045e+02,6.352480e+03
2.111687e+02,6.353685e+03
2.121329e+02,6.357102e+03
2.130972e+02,6.362249e+03
2.140614e+02,6.367922e+03
2.150256e+02,6.373924e+03
2.159899e+02,6.380797e+03
2.169541e+02,6.388898e+03
2.179183e+02,6.400427e+03
2.188826e+02,6.413805e+03
2.198468e+02,6.425789e+03
2.208110e+02,6.433038e+03
2.217753e+02,6.434861e+03
2.227395e+02,6.435019e+03
2.237037e+02,6.436526e+03
2.246680e+02,6.439505e+03
2.256322e+02,6.442622e+03
2.265964e+02,6.447619e+03
2.275607e+02,6.454907e+03
2.285249e+02,6.464885e+03
2.294892e+02,6.478118e+03
2.304534e+02,6.492097e+03
2.314176e+02,6.500705e+03
2.323819e+02,6.504162e+03
2.333461e+02,6.509126e+03
2.343103e+02,6.522298e+03
2.352746e+02,6.539400e+03
2.362388e+02,6.550000e+03
2.372030e+02,6.548433e+03
2.381673e+02,6.538817e+03
2.391315e+02,6.533430e+03
2.400957e+02,6.537472e+03
2.410600e+02,6.544404e+03
2.420242e+02,6.554222e+03
2.429884e+02,6.567813e+03
2.439527e+02,6.583783e+03
2.449169e+02,6.599414e+03
2.458811e+02,6.613433e+03
2.468454e+02,6.625708e+03
2.478096e+02,6.636811e+03
2.487738e+02,6.646193e+03
2.497381e+02,6.652495e+03
2.507023e+02,6.655715e+03
2.516665e+02,6.658174e+03
2.526308e+02,6.663078e+03
2.535950e+02,6.670805e+03
2.545592e+02,6.674758e+03
2.555235e+02,6.674732e+03
2.564877e+02,6.672818e+03
2.574519e+02,6.671587e+03
2.584161e+02,6.672927e+03
2.593804e+02,6.677990e+03
2.603446e+02,6.688516e+03
2.613088e+02,6.704877e+03
2.622731e+02,6.723202e+03
2.632373e+02,6.744302e+03
2.642015e+02,6.765735e+03
2.651658e+02,6.783181e+03
2.661300e+02,6.793861e+03
2.670942e+02,6.799030e+03
2.680585e+02,6.803232e+03
2.690227e+02,6.805275e+03
2.699869e+02,6.806953e+03
2.709512e+02,6.809188e+03
2.719154e+02,6.814831e+03
2.728796e+02,6.822561e+03
2.738439e+02,6.829951e+03
2.748081e+02,6.838214e+03
2.757723e+02,6.849908e+03
2.767366e+02,6.862151e+03
2.777008e+02,6.871931e+03
2.786650e+02,6.879097e+03
2.796293e+02,6.887150e+03
2.805935e+02,6.894980e+03
2.815577e+02,6.897634e+03
2.825220e+02,6.891968e+03
2.834862e+02,6.882142e+03
2.844504e+02,6.877490e+03
2.854147e+02,6.885646e+03
2.863789e+02,6.890163e+03
2.873431e+02,6.884752e+03
2.883074e+02,6.874440e+03
2.892716e+02,6.867571e+03
2.902358e+02,6.867810e+03
2.912001e+02,6.874307e+03
2.921643e+02,6.878768e+03
2.931285e+02,6.880493e+03
2.940928e+02,6.883919e+03
2.950570e+02,6.891333e+03
2.960212e+02,6.900998e+03
2.969855e+02,6.908842e+03
2.979497e+02,6.910806e+03
2.989139e+02,6.904566e+03
2.998782e+02,6.902278e+03
3.008424e+02,6.912725e+03
3.018066e+02,6.926659e+03
3.027709e+02,6.934463e+03
3.037351e+02,6.930687e+03
3.046993e+02,6.920140e+03
3.056636e+02,6.912913e+03
3.066278e+02,6.910779e+03
3.075920e+02,6.911450e+03
3.085563e+02,6.913907e+03
3.095205e+02,6.919556e+03
3.104847e+02,6.928873e+03
3.114490e+02,6.941547e+03
3.124132e+02,6.955269e+03
3.133774e+02,6.967906e+03
3.143417e+02,6.979566e+03
3.153059e+02,6.986785e+03
3.162701e+02,6.986342e+03
3.172344e+02,6.977006e+03
3.181986e+02,6.970909e+03
3.191628e+02,6.974789e+03
3.201271e+02,6.984891e+03
3.210913e+02,6.993166e+03
3.220555e+02,6.995049e+03
3.230198e+02,6.991407e+03
3.239840e+02,6.991439e+03
3.249482e+02,6.996419e+03
3.259125e+02,7.002583e+03
3.268767e+02,7.009781e+03
3.278409e+02,7.017761e+03
3.288052e+02,7.025781e+03
3.297694e+02,7.033368e+03
3.307336e+02,7.040695e+03
3.316979e+02,7.045615e+03
3.326621e+02,7.046509e+03
3.336263e+02,7.044449e+03
3.345906e+02,7.040148e+03
3.355548e+02,7.035717e+03
3.365190e+02,7.033549e+03
3.374833e+02,7.034383e+03
3.384475e+02,7.037560e+03
3.394117e+02,7.044439e+03
3.403760e+02,7.057046e+03
3.413402e+02,7.071135e+03
3.423044e+02,7.079932e+03
3.432687e+02,7.073358e+03
3.442329e+02,7.065841e+03
3.451971e+02,7.072302e+03
3.461614e+02,7.091269e+03
3.471256e+02,7.107023e+03
3.480898e+02,7.108201e+03
3.490541e+02,7.090258e+03
3.500183e+02,7.080317e+03
3.509825e+02,7.086056e+03
3.519468e+02,7.098775e+03
3.529110e+02,7.111177e+03
3.538752e+02,7.119838e+03
3.548395e+02,7.124024e+03
3.558037e+02,7.124091e+03
3.567680e+02,7.116833e+03
3.577322e+02,7.111140e+03
3.586964e+02,7.108242e+03
3.596607e+02,7.110192e+03
3.606249e+02,7.117760e+03
3.615891e+02,7.130830e+03
3.625534e+02,7.143974e+03
3.635176e+02,7.149727e+03
3.644818e+02,7.149326e+03
3.654461e+02,7.145885e+03
3.664103e+02,7.141650e+03
3.673745e+02,7.140278e+03
3.683388e+02,7.145411e+03
3.693030e+02,7.158761e+03
3.702672e+02,7.174231e+03
3.712315e+02,7.184297e+03
3.721957e+02,7.186626e+03
3.731599e+02,7.183209e+03
3.741242e+02,7.179470e+03
3.750884e+02,7.179602e+03
3.760526e+02,7.181891e+03
3.770169e+02,7.185432e+03
3.779811e+02,7.189562e+03
3.789453e+02,7.193343e+03
3.799096e+02,7.195817e+03
3.808738e+02,7.196697e+03
3.818380e+02,7.197601e+03
3.828023e+02,7.206571e+03
3.837665e+02,7.210896e+03
3.847307e+02,7.200181e+03
3.856950e+02,7.180632e+03
3.866592e+02,7.166724e+03
3.876234e+02,7.168542e+03
3.885877e+02,7.181737e+03
3.895519e+02,7.194738e+03
3.905161e+02,7.206729e+03
3.914804e+02,7.216045e+03
3.924446e+02,7.221795e+03
3.934088e+02,7.226253e+03
3.943731e+02,7.227473e+03
3.953373e+02,7.222549e+03
3.963015e+02,7.214010e+03
3.972658e+02,7.204954e+03
3.982300e+02,7.197110e+03
3.991942e+02,7.193208e+03
4.001585e+02,7.194984e+03
4.011227e+02,7.202943e+03
4.020869e+02,7.211077e+03
4.030512e+02,7.215679e+03
4.040154e+02,7.217433e+03
4.049796e+02,7.219875e+03
4.059439e+02,7.225430e+03
4.069081e+02,7.232901e+03
4.078723e+02,7.238483e+03
4.088366e+02,7.240140e+03
4.098008e+02,7.237919e+03
4.107650e+02,7.236356e+03
4.117293e+02,7.236128e+03
4.126935e+02,7.233095e+03
4.136577e+02,7.219839e+03
4.146220e+02,7.204288e+03
4.155862e+02,7.200406e+03
4.165504e+02,7.212338e+03
4.175147e+02,7.230742e+03
4.184789e+02,7.240381e+03
4.194431e+02,7.227777e+03
4.204074e+02,7.221805e+03
4.213716e+02,7.228431e+03
4.223358e+02,7.239589e+03
4.233001e+02,7.247084e+03
4.242643e+02,7.247781e+03
4.252285e+02,7.243970e+03
4.261928e+02,7.238854e+03
4.271570e+02,7.230817e+03
4.281212e+02,7.226970e+03
4.290855e+02,7.232378e+03
4.300497e+02,7.242705e+03
4.310139e+02,7.249702e+03
4.319782e+02,7.247329e+03
4.329424e+02,7.243888e+03
4.339066e+02,7.250544e+03
4.348709e+02,7.267389e+03
4.358351e+02,7.281985e+03
4.367993e+02,7.281704e+03
4.377636e+02,7.257571e+03
4.387278e+02,7.243015e+03
4.396920e+02,7.246289e+03
4.406563e+02,7.255070e+03
4.416205e+02,7.260186e+03
4.425847e+02,7.258917e+03
4.435490e+02,7.254629e+03
4.445132e+02,7.251653e+03
4.454774e+02,7.250546e+03
4.464417e+02,7.253872e+03
4.474059e+02,7.266077e+03
4.483701e+02,7.279216e+03
4.493344e+02,7.284584e+03
4.502986e+02,7.275242e+03
4.512628e+02,7.266093e+03
4.522271e+02,7.269516e+03
4.531913e+02,7.282993e+03
4.541555e+02,7.295099e+03
4.551198e+02,7.298616e+03
4.560840e+02,7.293855e+03
4.570482e+02,7.287341e+03
4.580125e+02,7.281156e+03
4.589767e+02,7.277573e+03
4.599409e+02,7.273925e+03
4.609052e+02,7.269013e+03
4.618694e+02,7.265045e+03
4.628336e+02,7.266853e+03
4.637979e+02,7.273994e+03
4.647621e+02,7.277479e+03
4.657263e+02,7.278100e+03
4.666906e+02,7.278122e+03
4.676548e+02,7.276114e+03
4.686190e+02,7.269858e+03
4.695833e+02,7.264443e+03
4.705475e+02,7.259771e+03
4.715117e+02,7.256261e+03
4.724760e+02,7.255896e+03
4.734402e+02,7.260020e+03
4.744044e+02,7.266997e+03
4.753687e+02,7.272586e+03
4.763329e+02,7.278743e+03
4.772971e+02,7.280464e+03
4.782614e+02,7.272223e+03
4.792256e+02,7.261517e+03
4.801898e+02,7.257518e+03
4.811541e+02,7.267606e+03
4.821183e+02,7.281483e+03
4.830826e+02,7.283657e+03
4.840468e+02,7.272894e+03
4.850110e+02,7.259818e+03
4.859753e+02,7.251522e+03
4.869395e+02,7.247958e+03
4.879037e+02,7.244322e+03
4.888680e+02,7.240778e+03
4.898322e+02,7.238556e+03
4.907964e+02,7.238546e+03
4.917607e+02,7.241192e+03
4.927249e+02,7.246330e+03
4.936891e+02,7.256505e+03
4.946534e+02,7.272362e+03
4.956176e+02,7.276832e+03
4.965818e+02,7.260186e+03
4.975461e+02,7.241009e+03
4.985103e+02,7.233966e+03
4.994745e+02,7.239881e+03
5.004388e+02,7.247419e+03
5.014030e+02,7.255979e+03
5.023672e+02,7.264763e+03
5.033315e+02,7.271146e+03
5.042957e+02,7.273851e+03
5.052599e+02,7.272790e+03
5.062242e+02,7.269727e+03
5.071884e+02,7.265935e+03
5.081526e+02,7.261077e+03
5.091169e+02,7.254296e+03
5.100811e+02,7.248800e+03
5.110453e+02,7.247067e+03
5.120095e+02,7.252952e+03
5.129738e+02,7.261585e+03
5.139380e+02,7.265288e+03
5.149022e+02,7.264423e+03
5.158665e+02,7.266068e+03
5.168307e+02,7.272511e+03
5.177949e+02,7.279989e+03
5.187592e+02,7.280810e+03
5.197234e+02,7.282986e+03
5.206876e+02,7.283021e+03
5.216519e+02,7.276854e+03
5.226161e+02,7.267042e+03
5.235803e+02,7.259521e+03
5.245446e+02,7.259946e+03
5.255088e+02,7.266992e+03
5.264730e+02,7.271401e+03
5.274373e+02,7.271512e+03
5.284015e+02,7.271351e+03
5.293657e+02,7.274248e+03
5.303300e+02,7.281448e+03
5.312942e+02,7.283785e+03
5.322584e+02,7.279131e+03
5.332227e+02,7.274160e+03
5.341869e+02,7.272690e+03
5.351511e+02,7.274307e+03
5.361154e+02,7.277718e+03
5.370796e+02,7.282269e+03
5.380438e+02,7.288337e+03
5.390081e+02,7.298731e+03
5.399723e+02,7.320271e+03
5.409365e+02,7.343901e+03
5.419008e+02,7.358978e+03
5.428650e+02,7.359417e+03
5.438292e+02,7.355657e+03
5.447935e+02,7.353218e+03
5.457577e+02,7.350999e+03
5.467219e+02,7.345879e+03
5.476862e+02,7.336104e+03
5.486504e+02,7.324411e+03
5.496146e+02,7.320421e+03
5.505789e+02,7.332304e+03
5.515431e+02,7.338367e+03
5.525073e+02,7.333072e+03
5.534716e+02,7.324638e+03
5.544358e+02,7.321187e+03
5.554000e+02,7.325185e+03
5.563643e+02,7.331140e+03
5.573285e+02,7.334457e+03
5.582927e+02,7.334424e+03
5.592570e+02,7.331649e+03
5.602212e+02,7.327188e+03
5.611854e+02,7.320462e+03
5.621497e+02,7.314300e+03
5.631139e+02,7.309638e+03
5.640781e+02,7.300933e+03
5.650424e+02,7.286491e+03
5.660066e+02,7.268729e+03
5.669708e+02,7.253800e+03
5.679351e+02,7.252252e+03
5.688993e+02,7.255417e+03
5.698635e+02,7.242694e+03
5.708278e+02,7.211935e+03
5.717920e+02,7.185271e+03
5.727562e+02,7.182810e+03
5.737205e+02,7.213858e+03
5.746847e+02,7.231352e+03
5.756489e+02,7.226327e+03
5.766132e+02,7.214667e+03
5.775774e+02,7.203835e+03
5.785416e+02,7.195529e+03
5.795059e+02,7.190564e+03
5.804701e+02,7.192456e+03
5.814343e+02,7.198560e+03
5.823986e+02,7.199757e+03
5.833628e+02,7.193911e+03
5.843270e+02,7.186406e+03
5.852913e+02,7.184054e+03
5.862555e+02,7.192644e+03
5.872197e+02,7.197779e+03
5.881840e+02,7.194386e+03
5.891482e+02,7.189147e+03
5.901124e+02,7.187724e+03
5.910767e+02,7.191862e+03
5.920409e+02,7.199096e+03
5.930051e+02,7.208506e+03
5.939694e+02,7.218675e+03
5.949336e+02,7.224735e+03
5.958978e+02,7.225500e+03
5.968621e+02,7.221385e+03
5.978263e+02,7.213868e+03
5.987905e+02,7.200474e+03
5.997548e+02,7.188709e+03
6.007190e+02,7.176202e+03
6.016832e+02,7.168084e+03
6.026475e+02,7.169796e+03
6.036117e+02,7.185359e+03
6.045759e+02,7.204139e+03
6.055402e+02,7.212931e+03
6.065044e+02,7.211774e+03
6.074686e+02,7.209773e+03
6.084329e+02,7.212910e+03
6.093971e+02,7.220103e+03
6.103613e+02,7.222503e+03
6.113256e+02,7.220687e+03
6.122899e+02,7.213743e+03
6.132541e+02,7.198522e+03
6.142183e+02,7.178144e+03
6.151826e+02,7.158214e+03
6.161468e+02,7.140344e+03
6.171110e+02,7.127791e+03
6.180753e+02,7.125691e+03
6.190395e+02,7.132335e+03
6.200037e+02,7.137330e+03
6.209680e+02,7.133232e+03
6.219322e+02,7.121733e+03
6.228964e+02,7.117800e+03
6.238607e+02,7.128442e+03
6.248249e+02,7.138254e+03
6.257891e+02,7.140885e+03
6.267534e+02,7.135813e+03
6.277176e+02,7.127200e+03
6.286818e+02,7.113744e+03
6.296461e+02,7.103226e+03
6.306103e+02,7.107903e+03
6.315745e+02,7.126428e+03
6.325388e+02,7.142437e+03
6.335030e+02,7.140924e+03
6.344672e+02,7.120057e+03
6.354315e+02,7.103633e+03
6.363957e+02,7.090777e+03
6.373599e+02,7.080162e+03
6.383242e+02,7.072635e+03
6.392884e+02,7.069044e+03
6.402526e+02,7.068898e+03
6.412169e+02,7.077160e+03
6.421811e+02,7.085139e+03
6.431453e+02,7.083496e+03
6.441096e+02,7.072398e+03
6.450738e+02,7.059033e+03
6.460380e+02,7.051587e+03
6.470023e+02,7.051780e+03
6.479665e+02,7.049712e+03
6.489307e+02,7.040202e+03
6.498950e+02,7.031696e+03
6.508592e+02,7.032040e+03
6.518234e+02,7.041357e+03
6.527877e+02,7.045750e+03
6.537519e+02,7.042368e+03
6.547161e+02,7.035043e+03
6.556804e+02,7.025495e+03
6.566446e+02,7.014805e+03
6.576088e+02,7.004859e+03
6.585731e+02,6.997097e+03
6.595373e+02,6.991359e+03
6.605015e+02,6.986800e+03
6.614658e+02,6.983371e+03
6.624300e+02,6.981425e+03
6.633942e+02,6.980875e+03
6.643585e+02,6.979640e+03
6.653227e+02,6.984627e+03
6.662869e+02,7.001415e+03
6.672512e+02,7.017955e+03
6.682154e+02,7.026877e+03
6.691796e+02,7.026296e+03
6.701439e+02,7.021403e+03
6.711081e+02,7.015742e+03
6.720723e+02,7.008786e+03
6.730366e+02,6.999461e+03
6.740008e+02,6.988287e+03
6.749650e+02,6.976891e+03
6.759293e+02,6.967307e+03
6.768935e+02,6.961433e+03
6.778577e+02,6.954844e+03
6.788220e+02,6.947333e+03
6.797862e+02,6.943273e+03
6.807504e+02,6.944024e+03
6.817147e+02,6.949017e+03
6.826789e+02,6.950678e+03
6.836431e+02,6.940423e+03
6.846074e+02,6.925451e+03
6.855716e+02,6.916463e+03
6.865358e+02,6.916455e+03
6.875001e+02,6.919109e+03
6.884643e+02,6.915685e+03
6.894285e+02,6.906540e+03
6.903928e+02,6.902135e+03
6.913570e+02,6.905603e+03
6.923212e+02,6.908929e+03
6.932855e+02,6.903643e+03
6.942497e+02,6.884459e+03
6.952139e+02,6.873502e+03
6.961782e+02,6.873521e+03
6.971424e+02,6.878491e+03
6.981066e+02,6.884375e+03
6.990709e+02,6.887780e+03
7.000351e+02,6.885342e+03
7.009993e+02,6.874532e+03
7.019636e+02,6.861306e+03
7.029278e+02,6.856365e+03
7.038920e+02,6.861420e+03
7.048563e+02,6.866576e+03
7.058205e+02,6.859962e+03
7.067847e+02,6.838948e+03
7.077490e+02,6.825096e+03
7.087132e+02,6.826257e+03
7.096774e+02,6.834860e+03
7.106417e+02,6.839211e+03
7.116059e+02,6.836907e+03
7.125701e+02,6.833912e+03
7.135344e+02,6.833304e+03
7.144986e+02,6.834319e+03
7.154628e+02,6.836533e+03
7.164271e+02,6.838646e+03
7.173913e+02,6.836148e+03
7.183555e+02,6.820656e+03
7.193198e+02,6.795292e+03
7.202840e+02,6.777720e+03
7.212482e+02,6.771609e+03
7.222125e+02,6.772418e+03
7.231767e+02,6.775258e+03
7.241409e+02,6.780807e+03
7.251052e+02,6.780876e+03
7.260694e+02,6.767943e+03
7.270336e+02,6.754811e+03
7.279979e+02,6.750572e+03
7.289621e+02,6.756007e+03
7.299263e+02,6.762313e+03
7.308906e+02,6.769250e+03
7.318548e+02,6.772034e+03
7.328190e+02,6.764531e+03
7.337833e+02,6.746938e+03
7.347475e+02,6.726539e+03
7.357117e+02,6.708835e+03
7.366760e+02,6.695532e+03
7.376402e+02,6.695776e+03
7.386044e+02,6.714954e+03
7.395687e+02,6.734674e+03
7.405329e+02,6.737577e+03
7.414971e+02,6.718214e+03
7.424614e+02,6.703095e+03
7.434256e+02,6.699402e+03
7.443898e+02,6.700084e+03
7.453541e+02,6.698338e+03
7.463183e+02,6.691095e+03
7.472825e+02,6.683867e+03
7.482468e+02,6.684750e+03
7.492110e+02,6.684738e+03
7.501752e+02,6.672433e+03
7.511395e+02,6.652254e+03
7.521037e+02,6.639151e+03
7.530679e+02,6.646699e+03
7.540322e+02,6.669667e+03
7.549964e+02,6.681299e+03
7.559606e+02,6.681271e+03
7.569249e+02,6.676155e+03
7.578891e+02,6.668560e+03
7.588533e+02,6.658803e+03
7.598176e+02,6.655148e+03
7.607818e+02,6.654850e+03
7.617460e+02,6.652321e+03
7.627103e+02,6.649114e+03
7.636745e+02,6.647241e+03
7.646387e+02,6.645095e+03
7.656030e+02,6.638819e+03
7.665672e+02,6.633920e+03
7.675314e+02,6.633426e+03
7.684957e+02,6.632476e+03
7.694599e+02,6.626453e+03
7.704241e+02,6.615664e+03
7.713884e+02,6.603999e+03
7.723526e+02,6.596504e+03
7.733168e+02,6.594985e+03
7.742811e+02,6.595782e+03
7.752453e+02,6.593153e+03
7.762095e+02,6.586217e+03
7.771738e+02,6.582937e+03
7.781380e+02,6.585695e+03
7.791022e+02,6.583935e+03
7.800665e+02,6.576373e+03
7.810307e+02,6.565972e+03
7.819949e+02,6.556759e+03
7.829592e+02,6.551163e+03
7.839234e+02,6.549821e+03
7.848876e+02,6.556048e+03
7.858519e+02,6.563944e+03
7.868161e+02,6.563535e+03
7.877803e+02,6.548652e+03
7.887446e+02,6.529806e+03
7.897088e+02,6.525075e+03
7.906730e+02,6.534757e+03
7.916373e+02,6.545395e+03
7.926015e+02,6.550419e+03
7.935657e+02,6.546201e+03
7.945300e+02,6.532135e+03
7.954942e+02,6.505328e+03
7.964584e+02,6.483578e+03
7.974227e+02,6.478193e+03
7.983869e+02,6.483641e+03
7.993511e+02,6.485721e+03
8.003154e+02,6.479203e+03
8.012796e+02,6.466990e+03
8.022438e+02,6.442658e+03
8.032081e+02,6.422169e+03
8.041723e+02,6.422738e+03
8.051365e+02,6.448035e+03
8.061008e+02,6.471738e+03
8.070650e+02,6.471268e+03
8.080292e+02,6.454831e+03
8.089935e+02,6.436842e+03
8.099577e+02,6.421677e+03
8.109219e+02,6.412197e+03
8.118862e+02,6.414172e+03
8.128504e+02,6.426912e+03
8.138146e+02,6.427994e+03
8.147789e+02,6.411904e+03
8.157431e+02,6.393119e+03
8.167073e+02,6.385349e+03
8.176716e+02,6.394569e+03
8.186358e+02,6.400605e+03
8.196000e+02,6.399485e+03
8.205643e+02,6.397919e+03
8.215285e+02,6.395708e+03
8.224927e+02,6.392561e+03
8.234570e+02,6.388838e+03
8.244212e+02,6.385585e+03
8.253854e+02,6.381427e+03
8.263497e+02,6.372997e+03
8.273139e+02,6.360040e+03
8.282781e+02,6.346579e+03
8.292424e+02,6.337490e+03
8.302066e+02,6.333054e+03
8.311708e+02,6.331543e+03
8.321351e+02,6.332793e+03
8.330993e+02,6.336892e+03
8.340635e+02,6.343928e+03
8.350278e+02,6.350532e+03
8.359920e+02,6.347181e+03
8.369562e+02,6.332125e+03
8.379205e+02,6.316807e+03
8.388847e+02,6.302208e+03
8.398489e+02,6.291588e+03
8.408132e+02,6.292667e+03
8.417774e+02,6.319595e+03
8.427416e+02,6.335854e+03
8.437059e+02,6.333729e+03
8.446701e+02,6.321943e+03
8.456343e+02,6.309509e+03
8.465986e+02,6.294978e+03
8.475628e+02,6.283544e+03
8.485270e+02,6.280003e+03
8.494913e+02,6.278578e+03
8.504555e+02,6.273683e+03
8.514197e+02,6.264635e+03
8.523840e+02,6.256396e+03
8.533482e+02,6.250189e+03
8.543124e+02,6.246250e+03
8.552767e+02,6.248614e+03
8.562409e+02,6.256909e+03
8.572051e+02,6.262406e+03
8.581694e+02,6.256382e+03
8.591336e+02,6.240646e+03
8.600978e+02,6.224964e+03
8.610621e+02,6.209537e+03
8.620263e+02,6.200397e+03
8.629905e+02,6.202827e+03
8.639548e+02,6.215858e+03
8.649190e+02,6.213328e+03
8.658832e+02,6.184249e+03
8.668475e+02,6.160302e+03
8.678117e+02,6.160109e+03
8.687759e+02,6.177894e+03
8.697402e+02,6.187649e+03
8.707044e+02,6.177364e+03
8.716686e+02,6.163423e+03
8.726329e+02,6.153088e+03
8.735971e+02,6.147521e+03
8.745613e+02,6.145911e+03
8.755256e+02,6.155215e+03
8.764898e+02,6.164022e+03
8.774540e+02,6.161387e+03
8.784183e+02,6.151193e+03
8.793825e+02,6.140515e+03
8.803467e+02,6.131576e+03
8.813110e+02,6.124209e+03
8.822752e+02,6.119218e+03
8.832394e+02,6.117651e+03
8.842037e+02,6.119162e+03
8.851679e+02,6.122241e+03
8.861321e+02,6.124580e+03
8.870964e+02,6.125165e+03
8.880606e+02,6.123678e+03
8.890248e+02,6.116518e+03
8.899891e+02,6.104255e+03
8.909533e+02,6.092177e+03
8.919175e+02,6.083983e+03
8.928818e+02,6.080550e+03
8.938460e+02,6.076239e+03
8.948102e+02,6.067838e+03
8.957745e+02,6.058942e+03
8.967387e+02,6.053526e+03
8.977029e+02,6.050003e+03
8.986672e+02,6.041915e+03
8.996314e+02,6.025881e+03
9.005956e+02,6.014727e+03
9.015599e+02,6.014941e+03
9.025241e+02,6.022476e+03
9.034883e+02,6.028538e+03
9.044526e+02,6.031938e+03
9.054168e+02,6.027995e+03
9.063810e+02,6.013494e+03
9.073453e+02,5.996452e+03
9.083095e+02,5.985952e+03
9.092737e+02,5.984978e+03
9.102380e+02,5.985869e+03
9.112022e+02,5.980446e+03
9.121664e+02,5.970644e+03
9.131307e+02,5.962455e+03
9.140949e+02,5.959540e+03
9.150591e+02,5.962661e+03
9.160234e+02,5.972106e+03
9.169876e+02,5.983147e+03
9.179518e+02,5.980886e+03
9.189161e+02,5.962217e+03
9.198803e+02,5.937693e+03
9.208445e+02,5.919084e+03
9.218088e+02,5.908350e+03
9.227730e+02,5.905316e+03
9.237372e+02,5.912634e+03
9.247015e+02,5.917807e+03
9.256657e+02,5.911620e+03
9.266299e+02,5.893023e+03
9.275942e+02,5.880474e+03
9.285584e+02,5.873139e+03
9.295226e+02,5.870361e+03
9.304869e+02,5.879571e+03
9.314511e+02,5.895594e+03
9.324153e+02,5.898468e+03
9.333796e+02,5.869489e+03
9.343438e+02,5.846532e+03
9.353080e+02,5.842962e+03
9.362723e+02,5.847728e+03
9.372365e+02,5.847503e+03
9.382007e+02,5.839682e+03
9.391650e+02,5.833505e+03
9.401292e+02,5.832932e+03
9.410934e+02,5.835460e+03
9.420577e+02,5.837111e+03
9.430219e+02,5.836322e+03
9.439861e+02,5.834287e+03
9.449504e+02,5.836377e+03
9.459146e+02,5.840632e+03
9.468788e+02,5.838392e+03
9.478431e+02,5.826291e+03
9.488073e+02,5.811494e+03
9.497715e+02,5.804347e+03
9.507358e+02,5.802349e+03
9.517000e+02,5.799070e+03
9.526642e+02,5.795954e+03
9.536285e+02,5.791892e+03
9.545927e+02,5.785030e+03
9.555569e+02,5.775537e+03
9.565212e+02,5.762513e+03
9.574854e+02,5.747642e+03
9.584496e+02,5.741134e+03
9.594139e+02,5.746021e+03
9.603781e+02,5.755799e+03
9.613423e+02,5.758381e+03
9.623066e+02,5.753123e+03
9.632708e+02,5.744717e+03
9.642350e+02,5.733579e+03
9.651993e+02,5.723701e+03
9.661635e+02,5.718858e+03
9.671277e+02,5.719619e+03
9.680920e+02,5.719123e+03
9.690562e+02,5.717216e+03
9.700204e+02,5.713229e+03
9.709847e+02,5.708464e+03
9.719489e+02,5.704734e+03
9.729131e+02,5.700161e+03
9.738774e+02,5.694909e+03
9.748416e+02,5.691505e+03
9.758058e+02,5.689214e+03
9.767701e+02,5.686265e+03
9.777343e+02,5.682297e+03
9.786985e+02,5.676674e+03
9.796628e+02,5.669235e+03
9.806270e+02,5.661141e+03
9.815912e+02,5.651704e+03
9.825555e+02,5.640042e+03
9.835197e+02,5.626031e+03
9.844839e+02,5.614568e+03
9.854482e+02,5.609147e+03
9.864124e+02,5.607595e+03
9.873766e+02,5.605986e+03
9.883409e+02,5.603769e+03
9.893051e+02,5.602593e+03
9.902693e+02,5.604545e+03
9.912336e+02,5.607916e+03
9.921978e+02,5.608775e+03
9.931620e+02,5.605308e+03
9.941263e+02,5.599760e+03
9.950905e+02,5.595515e+03
9.960547e+02,5.590319e+03
9.970190e+02,5.579150e+03
9.979832e+02,5.563092e+03
9.989474e+02,5.548593e+03
9.999117e+02,5.541734e+03
1.000876e+03,5.540178e+03
1.001840e+03,5.540156e+03
1.002804e+03,5.542787e+03
1.003769e+03,5.548550e+03
1.004733e+03,5.556912e+03
1.005697e+03,5.562247e+03
1.006661e+03,5.553907e+03
1.007626e+03,5.535844e+03
1.008590e+03,5.525026e+03
1.009554e+03,5.523525e+03
1.010518e+03,5.522776e+03
1.011482e+03,5.513882e+03
1.012447e+03,5.497963e+03
1.013411e+03,5.484564e+03
1.014375e+03,5.476636e+03
1.015339e+03,5.473964e+03
1.016304e+03,5.475906e+03
1.017268e+03,5.480735e+03
1.018232e+03,5.481179e+03
1.019196e+03,5.476067e+03
1.020161e+03,5.469723e+03
1.021125e+03,5.464955e+03
1.022089e+03,5.462287e+03
1.023053e+03,5.458095e+03
1.024018e+03,5.449089e+03
1.024982e+03,5.445367e+03
1.025946e+03,5.449950e+03
1.026910e+03,5.454576e+03
1.027875e+03,5.451396e+03
1.028839e+03,5.441182e+03
1.029803e+03,5.431200e+03
1.030767e+03,5.420567e+03
1.031731e+03,5.412523e+03
1.032696e+03,5.408469e+03
1.033660e+03,5.407979e+03
1.034624e+03,5.409082e+03
1.035588e+03,5.416536e+03
1.036552e+03,5.420951e+03
1.037517e+03,5.415332e+03
1.038481e+03,5.401392e+03
1.039445e+03,5.391515e+03
1.040409e+03,5.388072e+03
1.041374e+03,5.385388e+03
1.042338e+03,5.385879e+03
1.043302e+03,5.387063e+03
1.044266e+03,5.384204e+03
1.045231e+03,5.373937e+03
1.046195e+03,5.364229e+03
1.047159e+03,5.356396e+03
1.048123e+03,5.350156e+03
1.049088e+03,5.345386e+03
1.050052e+03,5.343867e+03
1.051016e+03,5.343625e+03
1.051980e+03,5.346381e+03
1.052945e+03,5.347351e+03
1.053909e+03,5.340339e+03
1.054873e+03,5.325701e+03
1.055837e+03,5.314163e+03
1.056802e+03,5.313708e+03
1.057766e+03,5.311050e+03
1.058730e+03,5.301451e+03
1.059694e+03,5.290572e+03
1.060658e+03,5.284815e+03
1.061623e+03,5.290521e+03
1.062587e+03,5.293153e+03
1.063551e+03,5.289119e+03
1.064515e+03,5.283601e+03
1.065479e+03,5.278510e+03
1.066444e+03,5.274986e+03
1.067408e+03,5.274060e+03
1.068372e+03,5.275007e+03
1.069336e+03,5.279326e+03
1.070301e+03,5.290082e+03
1.071265e+03,5.301960e+03
1.072229e+03,5.303258e+03
1.073193e+03,5.283575e+03
1.074158e+03,5.262993e+03
1.075122e+03,5.243449e+03
1.076086e+03,5.227639e+03
1.077050e+03,5.220633e+03
1.078015e+03,5.231368e+03
1.078979e+03,5.240093e+03
1.079943e+03,5.238505e+03
1.080907e+03,5.235204e+03
1.081872e+03,5.234616e+03
1.082836e+03,5.235771e+03
1.083800e+03,5.236329e+03
1.084764e+03,5.236494e+03
1.085729e+03,5.238037e+03
1.086693e+03,5.244039e+03
1.087657e+03,5.250813e+03
1.088621e+03,5.250417e+03
1.089585e+03,5.233081e+03
1.090550e+03,5.215976e+03
1.091514e+03,5.206154e+03
1.092478e+03,5.201468e+03
1.093442e+03,5.199546e+03
1.094406e+03,5.203369e+03
1.095371e+03,5.201558e+03
1.096335e+03,5.184583e+03
1.097299e+03,5.165297e+03
1.098263e+03,5.150818e+03
1.099228e+03,5.141070e+03
1.100192e+03,5.135147e+03
1.101156e+03,5.136391e+03
1.102120e+03,5.136665e+03
1.103085e+03,5.132507e+03
1.104049e+03,5.125931e+03
1.105013e+03,5.121046e+03
1.105977e+03,5.121993e+03
1.106942e+03,5.120963e+03
1.107906e+03,5.116154e+03
1.108870e+03,5.109798e+03
1.109834e+03,5.103595e+03
1.110799e+03,5.097810e+03
1.111763e+03,5.092038e+03
1.112727e+03,5.086889e+03
1.113691e+03,5.082686e+03
1.114656e+03,5.078354e+03
1.115620e+03,5.074074e+03
1.116584e+03,5.071676e+03
1.117548e+03,5.069008e+03
1.118512e+03,5.066708e+03
1.119477e+03,5.066237e+03
1.120441e+03,5.066311e+03
1.121405e+03,5.065742e+03
1.122369e+03,5.068506e+03
1.123334e+03,5.064914e+03
1.124298e+03,5.050343e+03
1.125262e+03,5.035191e+03
1.126226e+03,5.027252e+03
1.127191e+03,5.027801e+03
1.128155e+03,5.027396e+03
1.129119e+03,5.022802e+03
1.130083e+03,5.019199e+03
1.131047e+03,5.018187e+03
1.132012e+03,5.018194e+03
1.132976e+03,5.018292e+03
1.133940e+03,5.021596e+03
1.134904e+03,5.017681e+03
1.135869e+03,5.002740e+03
1.136833e+03,4.985607e+03
1.137797e+03,4.976238e+03
1.138761e+03,4.978624e+03
1.139726e+03,4.980092e+03
1.140690e+03,4.980240e+03
1.141654e+03,4.977867e+03
1.142618e+03,4.970260e+03
1.143583e+03,4.959151e+03
1.144547e+03,4.957444e+03
1.145511e+03,4.969016e+03
1.146475e+03,4.973931e+03
1.147439e+03,4.964511e+03
1.148404e+03,4.948707e+03
1.149368e+03,4.938631e+03
1.150332e+03,4.934080e+03
1.151296e+03,4.931648e+03
1.152261e+03,4.929266e+03
1.153225e+03,4.923772e+03
1.154189e+03,4.916404e+03
1.155153e+03,4.908862e+03
1.156118e+03,4.897129e+03
1.157082e+03,4.882626e+03
1.158046e+03,4.871546e+03
1.159010e+03,4.864669e+03
1.159974e+03,4.861692e+03
1.160939e+03,4.863856e+03
1.161903e+03,4.869266e+03
1.162867e+03,4.872190e+03
1.163831e+03,4.871167e+03
1.164796e+03,4.867443e+03
1.165760e+03,4.864057e+03
1.166724e+03,4.860812e+03
1.167688e+03,4.853981e+03
1.168653e+03,4.844249e+03
1.169617e+03,4.836333e+03
1.170581e+03,4.834982e+03
1.171545e+03,4.836322e+03
1.172510e+03,4.834338e+03
1.173474e+03,4.830565e+03
1.174438e+03,4.827143e+03
1.175402e+03,4.824030e+03
1.176366e+03,4.820826e+03
1.177331e+03,4.817967e+03
1.178295e+03,4.815471e+03
1.179259e+03,4.811602e+03
1.180223e+03,4.805891e+03
1.181188e+03,4.801469e+03
1.182152e+03,4.804611e+03
1.183116e+03,4.805913e+03
1.184080e+03,4.797941e+03
1.185045e+03,4.785604e+03
1.186009e+03,4.776373e+03
1.186973e+03,4.775615e+03
1.187937e+03,4.774903e+03
1.188901e+03,4.767614e+03
1.189866e+03,4.760036e+03
1.190830e+03,4.756772e+03
1.191794e+03,4.757429e+03
1.192758e+03,4.758333e+03
1.193723e+03,4.762754e+03
1.194687e+03,4.766852e+03
1.195651e+03,4.768831e+03
1.196615e+03,4.768196e+03
1.197580e+03,4.764033e+03
1.198544e+03,4.751362e+03
1.199508e+03,4.735982e+03
1.200472e+03,4.718623e+03
1.201437e+03,4.703040e+03
1.202401e+03,4.692938e+03
1.203365e+03,4.689866e+03
1.204329e+03,4.690023e+03
1.205293e+03,4.694134e+03
1.206258e+03,4.697840e+03
1.207222e+03,4.698233e+03
1.208186e+03,4.696276e+03
1.209150e+03,4.697101e+03
1.210115e+03,4.699958e+03
1.211079e+03,4.698268e+03
1.212043e+03,4.690885e+03
1.213007e+03,4.680844e+03
1.213972e+03,4.672687e+03
1.214936e+03,4.667381e+03
1.215900e+03,4.663125e+03
1.216864e+03,4.660036e+03
1.217828e+03,4.658000e+03
1.218793e+03,4.657001e+03
1.219757e+03,4.657278e+03
1.220721e+03,4.659389e+03
1.221685e+03,4.663317e+03
1.222650e+03,4.667039e+03
1.223614e+03,4.668527e+03
1.224578e+03,4.668640e+03
1.225542e+03,4.671444e+03
1.226507e+03,4.674319e+03
1.227471e+03,4.673681e+03
1.228435e+03,4.668131e+03
1.229399e+03,4.657629e+03
1.230364e+03,4.638055e+03
1.231328e+03,4.620571e+03
1.232292e+03,4.615607e+03
1.233256e+03,4.617666e+03
1.234220e+03,4.616711e+03
1.235185e+03,4.610319e+03
1.236149e+03,4.606475e+03
1.237113e+03,4.610390e+03
1.238077e+03,4.615258e+03
1.239042e+03,4.613201e+03
1.240006e+03,4.603344e+03
1.240970e+03,4.595956e+03
1.241934e+03,4.592278e+03
1.242899e+03,4.588708e+03
1.243863e+03,4.586699e+03
1.244827e+03,4.584529e+03
1.245791e+03,4.578591e+03
1.246755e+03,4.567739e+03
1.247720e+03,4.560276e+03
1.248684e+03,4.557479e+03
1.249648e+03,4.555407e+03
1.250612e+03,4.550470e+03
1.251577e+03,4.543622e+03
1.252541e+03,4.542202e+03
1.253505e+03,4.544459e+03
1.254469e+03,4.538251e+03
1.255434e+03,4.519710e+03
1.256398e+03,4.503439e+03
1.257362e+03,4.510134e+03
1.258326e+03,4.527011e+03
1.259291e+03,4.532351e+03
1.260255e+03,4.525117e+03
1.261219e+03,4.513951e+03
1.262183e+03,4.505837e+03
1.263147e+03,4.499279e+03
1.264112e+03,4.492147e+03
1.265076e+03,4.485214e+03
1.266040e+03,4.478357e+03
1.267004e+03,4.470756e+03
1.267969e+03,4.467383e+03
1.268933e+03,4.477153e+03
1.269897e+03,4.488878e+03
1.270861e+03,4.490829e+03
1.271826e+03,4.480925e+03
1.272790e+03,4.474945e+03
1.273754e+03,4.479273e+03
1.274718e+03,4.479547e+03
1.275682e+03,4.473398e+03
1.276647e+03,4.465945e+03
1.277611e+03,4.463164e+03
1.278575e+03,4.465800e+03
1.279539e+03,4.460974e+03
1.280504e+03,4.449761e+03
1.281468e+03,4.440661e+03
1.282432e+03,4.437688e+03
1.283396e+03,4.438574e+03
1.284361e+03,4.437404e+03
1.285325e+03,4.434068e+03
1.286289e+03,4.432865e+03
1.287253e+03,4.434747e+03
1.288218e+03,4.435285e+03
1.289182e+03,4.429898e+03
1.290146e+03,4.422532e+03
1.291110e+03,4.418562e+03
1.292074e+03,4.417899e+03
1.293039e+03,4.416929e+03
1.294003e+03,4.414859e+03
1.294967e+03,4.409384e+03
1.295931e+03,4.399066e+03
1.296896e+03,4.387677e+03
1.297860e+03,4.377663e+03
1.298824e+03,4.367811e+03
1.299788e+03,4.362318e+03
1.300753e+03,4.361466e+03
1.301717e+03,4.363688e+03
1.302681e+03,4.370483e+03
1.303645e+03,4.379167e+03
1.304609e+03,4.381166e+03
1.305574e+03,4.373314e+03
1.306538e+03,4.369696e+03
1.307502e+03,4.375573e+03
1.308466e+03,4.380922e+03
1.309431e+03,4.371526e+03
1.310395e+03,4.352823e+03
1.311359e+03,4.343634e+03
1.312323e+03,4.340513e+03
1.313288e+03,4.334640e+03
1.314252e+03,4.322760e+03
1.315216e+03,4.313816e+03
1.316180e+03,4.316908e+03
1.317145e+03,4.325782e+03
1.318109e+03,4.331748e+03
1.319073e+03,4.332128e+03
1.320037e+03,4.331622e+03
1.321001e+03,4.334470e+03
1.321966e+03,4.334568e+03
1.322930e+03,4.330054e+03
1.323894e+03,4.323620e+03
1.324858e+03,4.317542e+03
1.325823e+03,4.310191e+03
1.326787e+03,4.306893e+03
1.327751e+03,4.308369e+03
1.328715e+03,4.308554e+03
1.329680e+03,4.302872e+03
1.330644e+03,4.294083e+03
1.331608e+03,4.296246e+03
1.332572e+03,4.307646e+03
1.333536e+03,4.310233e+03
1.334501e+03,4.297496e+03
1.335465e+03,4.281530e+03
1.336429e+03,4.277571e+03
1.337393e+03,4.280901e+03
1.338358e+03,4.286824e+03
1.339322e+03,4.292925e+03
1.340286e+03,4.292447e+03
1.341250e+03,4.276586e+03
1.342215e+03,4.259772e+03
1.343179e+03,4.249067e+03
1.344143e+03,4.244439e+03
1.345107e+03,4.243591e+03
1.346072e+03,4.245608e+03
1.347036e+03,4.247679e+03
1.348000e+03,4.248666e+03
1.348964e+03,4.249377e+03
1.349928e+03,4.251751e+03
1.350893e+03,4.255580e+03
1.351857e+03,4.257090e+03
1.352821e+03,4.255455e+03
1.353785e+03,4.253634e+03
1.354750e+03,4.251448e+03
1.355714e+03,4.248564e+03
1.356678e+03,4.250109e+03
1.357642e+03,4.251196e+03
1.358607e+03,4.237181e+03
1.359571e+03,4.214840e+03
1.360535e+03,4.200759e+03
1.361499e+03,4.203058e+03
1.362464e+03,4.208979e+03
1.363428e+03,4.216131e+03
1.364392e+03,4.223407e+03
1.365356e+03,4.229260e+03
1.366320e+03,4.231121e+03
1.367285e+03,4.225041e+03
1.368249e+03,4.208715e+03
1.369213e+03,4.194258e+03
1.370177e+03,4.183502e+03
1.371142e+03,4.176141e+03
1.372106e+03,4.173483e+03
1.373070e+03,4.174603e+03
1.374034e+03,4.172302e+03
1.374999e+03,4.167775e+03
1.375963e+03,4.163368e+03
1.376927e+03,4.158878e+03
1.377891e+03,4.156984e+03
1.378855e+03,4.163895e+03
1.379820e+03,4.172161e+03
1.380784e+03,4.171061e+03
1.381748e+03,4.160403e+03
1.382712e+03,4.153625e+03
1.383677e+03,4.160185e+03
1.384641e+03,4.160090e+03
1.385605e+03,4.138884e+03
1.386569e+03,4.111656e+03
1.387534e+03,4.104104e+03
1.388498e+03,4.121835e+03
1.389462e+03,4.130158e+03
1.390426e+03,4.126003e+03
1.391391e+03,4.118497e+03
1.392355e+03,4.114401e+03
1.393319e+03,4.112369e+03
1.394283e+03,4.106660e+03
1.395247e+03,4.099160e+03
1.396212e+03,4.095917e+03
1.397176e+03,4.098535e+03
1.398140e+03,4.102501e+03
1.399104e+03,4.107530e+03
1.400069e+03,4.108918e+03
1.401033e+03,4.100958e+03
1.401997e+03,4.087573e+03
1.402961e+03,4.079994e+03
1.403926e+03,4.082740e+03
1.404890e+03,4.080161e+03
1.405854e+03,4.069764e+03
1.406818e+03,4.061207e+03
1.407782e+03,4.063083e+03
1.408747e+03,4.072759e+03
1.409711e+03,4.076510e+03
1.410675e+03,4.073337e+03
1.411639e+03,4.069010e+03
1.412604e+03,4.065938e+03
1.413568e+03,4.061824e+03
1.414532e+03,4.052606e+03
1.415496e+03,4.045816e+03
1.416461e+03,4.049322e+03
1.417425e+03,4.058843e+03
1.418389e+03,4.061870e+03
1.419353e+03,4.052571e+03
1.420318e+03,4.042138e+03
1.421282e+03,4.030914e+03
1.422246e+03,4.023313e+03
1.423210e+03,4.024730e+03
1.424174e+03,4.033130e+03
1.425139e+03,4.025513e+03
1.426103e+03,4.003888e+03
1.427067e+03,3.997361e+03
1.428031e+03,4.018839e+03
1.428996e+03,4.041332e+03
1.429960e+03,4.034634e+03
1.430924e+03,4.016944e+03
1.431888e+03,4.005919e+03
1.432853e+03,4.002118e+03
1.433817e+03,3.998844e+03
1.434781e+03,3.995845e+03
1.435745e+03,3.993426e+03
1.436709e+03,3.990072e+03
1.437674e+03,3.985612e+03
1.438638e+03,3.981085e+03
1.439602e+03,3.977791e+03
1.440566e+03,3.977804e+03
1.441531e+03,3.980328e+03
1.442495e+03,3.981521e+03
1.443459e+03,3.978976e+03
1.444423e+03,3.976197e+03
1.445388e+03,3.976590e+03
1.446352e+03,3.977232e+03
1.447316e+03,3.976781e+03
1.448280e+03,3.976498e+03
1.449245e+03,3.975817e+03
1.450209e+03,3.973499e+03
1.451173e+03,3.972182e+03
1.452137e+03,3.969951e+03
1.453101e+03,3.967198e+03
1.454066e+03,3.965264e+03
1.455030e+03,3.964584e+03
1.455994e+03,3.968883e+03
1.456958e+03,3.976941e+03
1.457923e+03,3.980990e+03
1.458887e+03,3.976780e+03
1.459851e+03,3.968192e+03
1.460815e+03,3.955062e+03
1.461780e+03,3.940876e+03
1.462744e+03,3.931790e+03
1.463708e+03,3.927988e+03
1.464672e+03,3.922385e+03
1.465636e+03,3.914112e+03
1.466601e+03,3.908504e+03
1.467565e+03,3.906622e+03
1.468529e+03,3.906188e+03
1.469493e+03,3.903841e+03
1.470458e+03,3.899409e+03
1.471422e+03,3.895592e+03
1.472386e+03,3.893504e+03
1.473350e+03,3.895706e+03
1.474315e+03,3.904284e+03
1.475279e+03,3.908192e+03
1.476243e+03,3.891585e+03
1.477207e+03,3.874375e+03
1.478172e+03,3.876219e+03
1.479136e+03,3.892713e+03
1.480100e+03,3.899926e+03
1.481064e+03,3.896220e+03
1.482028e+03,3.891210e+03
1.482993e+03,3.886542e+03
1.483957e+03,3.881690e+03
1.484921e+03,3.872581e+03
1.485885e+03,3.863490e+03
1.486850e+03,3.864702e+03
1.487814e+03,3.870815e+03
1.488778e+03,3.872114e+03
1.489742e+03,3.865140e+03
1.490707e+03,3.857524e+03
1.491671e+03,3.852937e+03
1.492635e+03,3.851546e+03
1.493599e+03,3.853681e+03
1.494563e+03,3.855632e+03
1.495528e+03,3.848341e+03
1.496492e+03,3.831650e+03
1.497456e+03,3.819655e+03
1.498420e+03,3.815177e+03
1.499385e+03,3.813858e+03
1.500349e+03,3.811513e+03
1.501313e+03,3.811846e+03
1.502277e+03,3.818912e+03
1.503242e+03,3.829244e+03
1.504206e+03,3.838966e+03
1.505170e+03,3.848628e+03
1.506134e+03,3.848423e+03
1.507099e+03,3.835256e+03
1.508063e+03,3.821331e+03
1.509027e+03,3.810459e+03
1.509991e+03,3.802993e+03
1.510955e+03,3.801301e+03
1.511920e+03,3.803142e+03
1.512884e+03,3.805063e+03
1.513848e+03,3.807728e+03
1.514812e+03,3.809315e+03
1.515777e+03,3.805031e+03
1.516741e+03,3.798797e+03
1.517705e+03,3.789861e+03
1.518669e+03,3.780565e+03
1.519634e+03,3.773439e+03
1.520598e+03,3.767885e+03
1.521562e+03,3.764175e+03
1.522526e+03,3.761438e+03
1.523490e+03,3.763508e+03
1.524455e+03,3.773492e+03
1.525419e+03,3.780247e+03
1.526383e+03,3.770862e+03
1.527347e+03,3.756274e+03
1.528312e+03,3.746390e+03
1.529276e+03,3.742569e+03
1.530240e+03,3.741355e+03
1.531204e+03,3.741961e+03
1.532169e+03,3.742362e+03
1.533133e+03,3.742752e+03
1.534097e+03,3.741517e+03
1.535061e+03,3.735630e+03
1.536026e+03,3.728031e+03
1.536990e+03,3.725725e+03
1.537954e+03,3.727304e+03
1.538918e+03,3.730875e+03
1.539882e+03,3.736591e+03
1.540847e+03,3.736475e+03
1.541811e+03,3.721144e+03
1.542775e+03,3.706616e+03
1.543739e+03,3.698321e+03
1.544704e+03,3.695235e+03
1.545668e+03,3.696281e+03
1.546632e+03,3.700793e+03
1.547596e+03,3.704210e+03
1.548561e+03,3.706093e+03
1.549525e+03,3.706506e+03
1.550489e+03,3.703065e+03
1.551453e+03,3.699014e+03
1.552417e+03,3.694091e+03
1.553382e+03,3.690549e+03
1.554346e+03,3.690845e+03
1.555310e+03,3.695519e+03
1.556274e+03,3.705495e+03
1.557239e+03,3.720134e+03
1.558203e+03,3.726268e+03
1.559167e+03,3.720258e+03
1.560131e+03,3.714170e+03
1.561096e+03,3.719600e+03
1.562060e+03,3.729457e+03
1.563024e+03,3.736661e+03
1.563988e+03,3.743837e+03
1.564953e+03,3.757883e+03
1.565917e+03,3.783072e+03
1.566881e+03,3.799828e+03
1.567845e+03,3.806279e+03
1.568809e+03,3.809993e+03
1.569774e+03,3.816798e+03
1.570738e+03,3.820877e+03
1.571702e+03,3.812014e+03
1.572666e+03,3.796545e+03
1.573631e+03,3.783345e+03
1.574595e+03,3.774543e+03
1.575559e+03,3.761499e+03
1.576523e+03,3.739229e+03
1.577488e+03,3.725691e+03
1.578452e+03,3.724021e+03
1.579416e+03,3.723459e+03
1.580380e+03,3.711040e+03
1.581344e+03,3.694243e+03
1.582309e+03,3.688582e+03
1.583273e+03,3.690936e+03
1.584237e+03,3.692642e+03
1.585201e+03,3.693529e+03
1.586166e+03,3.686935e+03
1.587130e+03,3.666491e+03
1.588094e+03,3.648031e+03
1.589058e+03,3.640678e+03
1.590023e+03,3.638147e+03
1.590987e+03,3.625443e+03
1.591951e+03,3.608085e+03
1.592915e+03,3.594526e+03
1.593880e+03,3.584573e+03
1.594844e+03,3.580219e+03
1.595808e+03,3.591830e+03
1.596772e+03,3.596368e+03
1.597736e+03,3.586373e+03
1.598701e+03,3.575962e+03
1.599665e+03,3.578721e+03
1.600629e+03,3.590047e+03
1.601593e+03,3.590466e+03
1.602558e+03,3.582789e+03
1.603522e+03,3.574948e+03
1.604486e+03,3.568446e+03
1.605450e+03,3.565276e+03
1.606415e+03,3.575309e+03
1.607379e+03,3.579992e+03
1.608343e+03,3.569448e+03
1.609307e+03,3.551799e+03
1.610271e+03,3.541028e+03
1.611236e+03,3.535966e+03
1.612200e+03,3.535105e+03
1.613164e+03,3.538224e+03
1.614128e+03,3.540214e+03
1.615093e+03,3.534418e+03
1.616057e+03,3.530907e+03
1.617021e+03,3.534959e+03
1.617985e+03,3.538122e+03
1.618950e+03,3.536041e+03
1.619914e+03,3.530218e+03
1.620878e+03,3.525446e+03
1.621842e+03,3.522080e+03
1.622807e+03,3.519911e+03
1.623771e+03,3.519555e+03
1.624735e+03,3.519958e+03
1.625699e+03,3.518010e+03
1.626663e+03,3.516930e+03
1.627628e+03,3.517084e+03
1.628592e+03,3.516848e+03
1.629556e+03,3.518506e+03
1.630520e+03,3.522347e+03
1.631485e+03,3.517777e+03
1.632449e+03,3.506281e+03
1.633413e+03,3.495821e+03
1.634377e+03,3.489619e+03
1.635342e+03,3.485782e+03
1.636306e+03,3.486641e+03
1.637270e+03,3.486728e+03
1.638234e+03,3.483280e+03
1.639198e+03,3.477739e+03
1.640163e+03,3.470012e+03
1.641127e+03,3.462505e+03
1.642091e+03,3.461829e+03
1.643055e+03,3.466613e+03
1.644020e+03,3.469101e+03
1.644984e+03,3.462416e+03
1.645948e+03,3.455579e+03
1.646912e+03,3.452271e+03
1.647877e+03,3.448556e+03
1.648841e+03,3.439422e+03
1.649805e+03,3.428833e+03
1.650769e+03,3.431269e+03
1.651734e+03,3.441203e+03
1.652698e+03,3.445683e+03
1.653662e+03,3.439710e+03
1.654626e+03,3.433034e+03
1.655590e+03,3.427357e+03
1.656555e+03,3.423309e+03
1.657519e+03,3.423221e+03
1.658483e+03,3.424820e+03
1.659447e+03,3.421152e+03
1.660412e+03,3.414470e+03
1.661376e+03,3.413821e+03
1.662340e+03,3.417990e+03
1.663304e+03,3.419028e+03
1.664269e+03,3.409033e+03
1.665233e+03,3.400808e+03
1.666197e+03,3.392761e+03
1.667161e+03,3.389577e+03
1.668125e+03,3.397411e+03
1.669090e+03,3.406702e+03
1.670054e+03,3.401199e+03
1.671018e+03,3.389129e+03
1.671982e+03,3.380775e+03
1.672947e+03,3.377836e+03
1.673911e+03,3.380706e+03
1.674875e+03,3.390246e+03
1.675839e+03,3.392339e+03
1.676804e+03,3.386187e+03
1.677768e+03,3.379699e+03
1.678732e+03,3.379421e+03
1.679696e+03,3.379032e+03
1.680661e+03,3.368927e+03
1.681625e+03,3.355685e+03
1.682589e+03,3.352269e+03
1.683553e+03,3.360478e+03
1.684517e+03,3.368534e+03
1.685482e+03,3.375671e+03
1.686446e+03,3.373037e+03
1.687410e+03,3.356457e+03
1.688374e+03,3.338908e+03
1.689339e+03,3.325963e+03
1.690303e+03,3.319574e+03
1.691267e+03,3.325298e+03
1.692231e+03,3.335249e+03
1.693196e+03,3.332992e+03
1.694160e+03,3.320141e+03
1.695124e+03,3.317709e+03
1.696088e+03,3.324952e+03
1.697052e+03,3.329742e+03
1.698017e+03,3.321861e+03
1.698981e+03,3.313938e+03
1.699945e+03,3.307779e+03
1.700909e+03,3.301523e+03
1.701874e+03,3.296735e+03
1.702838e+03,3.294950e+03
1.703802e+03,3.295512e+03
1.704766e+03,3.296642e+03
1.705731e+03,3.299996e+03
1.706695e+03,3.305798e+03
1.707659e+03,3.305759e+03
1.708623e+03,3.298039e+03
1.709588e+03,3.290071e+03
1.710552e+03,3.280972e+03
1.711516e+03,3.270448e+03
1.712480e+03,3.254676e+03
1.713444e+03,3.241980e+03
1.714409e+03,3.246792e+03
1.715373e+03,3.260238e+03
1.716337e+03,3.268970e+03
1.717301e+03,3.273391e+03
1.718266e+03,3.270883e+03
1.719230e+03,3.260904e+03
1.720194e+03,3.254282e+03
1.721158e+03,3.253959e+03
1.722123e+03,3.253206e+03
1.723087e+03,3.247004e+03
1.724051e+03,3.239379e+03
1.725015e+03,3.231973e+03
1.725979e+03,3.226278e+03
1.726944e+03,3.224039e+03
1.727908e+03,3.223995e+03
1.728872e+03,3.217844e+03
1.729836e+03,3.207737e+03
1.730801e+03,3.206677e+03
1.731765e+03,3.229601e+03
1.732729e+03,3.239114e+03
1.733693e+03,3.228021e+03
1.734658e+03,3.214922e+03
1.735622e+03,3.206962e+03
1.736586e+03,3.202823e+03
1.737550e+03,3.202840e+03
1.738515e+03,3.204320e+03
1.739479e+03,3.204673e+03
1.740443e+03,3.203452e+03
1.741407e+03,3.200817e+03
1.742371e+03,3.196600e+03
1.743336e+03,3.193947e+03
1.744300e+03,3.192804e+03
1.745264e+03,3.189337e+03
1.746228e+03,3.180323e+03
1.747193e+03,3.172808e+03
1.748157e+03,3.172541e+03
1.749121e+03,3.176154e+03
1.750085e+03,3.179778e+03
1.751050e+03,3.178990e+03
1.752014e+03,3.162998e+03
1.752978e+03,3.140828e+03
1.753942e+03,3.134914e+03
1.754906e+03,3.148674e+03
1.755871e+03,3.157732e+03
1.756835e+03,3.155570e+03
1.757799e+03,3.147821e+03
1.758763e+03,3.137834e+03
1.759728e+03,3.129095e+03
1.760692e+03,3.121283e+03
1.761656e+03,3.118409e+03
1.762620e+03,3.127163e+03
1.763585e+03,3.139871e+03
1.764549e+03,3.145228e+03
1.765513e+03,3.142015e+03
1.766477e+03,3.141483e+03
1.767442e+03,3.142978e+03
1.768406e+03,3.135177e+03
1.769370e+03,3.112351e+03
1.770334e+03,3.097517e+03
1.771298e+03,3.109101e+03
1.772263e+03,3.115442e+03
1.773227e+03,3.107015e+03
1.774191e+03,3.095188e+03
1.775155e+03,3.097749e+03
1.776120e+03,3.103913e+03
1.777084e+03,3.094665e+03
1.778048e+03,3.076635e+03
1.779012e+03,3.069227e+03
1.779977e+03,3.076533e+03
1.780941e+03,3.084900e+03
1.781905e+03,3.092844e+03
1.782869e+03,3.095359e+03
1.783833e+03,3.088804e+03
1.784798e+03,3.082332e+03
1.785762e+03,3.082872e+03
1.786726e+03,3.082515e+03
1.787690e+03,3.077344e+03
1.788655e+03,3.070683e+03
1.789619e+03,3.068113e+03
1.790583e+03,3.067787e+03
1.791547e+03,3.064079e+03
1.792512e+03,3.058199e+03
1.793476e+03,3.057097e+03
1.794440e+03,3.061506e+03
1.795404e+03,3.065966e+03
1.796369e+03,3.069301e+03
1.797333e+03,3.070952e+03
1.798297e+03,3.072692e+03
1.799261e+03,3.070090e+03
1.800225e+03,3.054332e+03
1.801190e+03,3.036527e+03
1.802154e+03,3.023851e+03
1.803118e+03,3.016476e+03
1.804082e+03,3.021354e+03
1.805047e+03,3.032450e+03
1.806011e+03,3.031150e+03
1.806975e+03,3.016929e+03
1.807939e+03,3.012066e+03
1.808904e+03,3.023183e+03
1.809868e+03,3.024167e+03
1.810832e+03,3.012913e+03
1.811796e+03,3.001190e+03
1.812760e+03,2.996456e+03
1.813725e+03,2.994464e+03
1.814689e+03,2.992001e+03
1.815653e+03,2.992856e+03
1.816617e+03,3.003504e+03
1.817582e+03,3.017000e+03
1.818546e+03,3.008300e+03
1.819510e+03,2.984645e+03
1.820474e+03,2.958882e+03
1.821439e+03,2.934227e+03
1.822403e+03,2.926298e+03
1.823367e+03,2.939693e+03
1.824331e+03,2.949886e+03
1.825296e+03,2.952198e+03
1.826260e+03,2.951570e+03
1.827224e+03,2.955050e+03
1.828188e+03,2.957980e+03
1.829152e+03,2.954935e+03
1.830117e+03,2.949306e+03
1.831081e+03,2.942389e+03
1.832045e+03,2.935090e+03
1.833009e+03,2.936090e+03
1.833974e+03,2.942308e+03
1.834938e+03,2.942158e+03
1.835902e+03,2.931272e+03
1.836866e+03,2.923971e+03
1.837831e+03,2.919991e+03
1.838795e+03,2.922067e+03
1.839759e+03,2.932527e+03
1.840723e+03,2.939438e+03
1.841688e+03,2.925359e+03
1.842652e+03,2.916150e+03
1.843616e+03,2.920805e+03
1.844580e+03,2.928358e+03
1.845544e+03,2.931988e+03
1.846509e+03,2.930714e+03
1.847473e+03,2.916279e+03
1.848437e+03,2.897211e+03
1.849401e+03,2.892044e+03
1.850366e+03,2.901511e+03
1.851330e+03,2.896929e+03
1.852294e+03,2.881220e+03
1.853258e+03,2.871359e+03
1.854223e+03,2.871387e+03
1.855187e+03,2.879179e+03
1.856151e+03,2.902918e+03
1.857115e+03,2.916527e+03
1.858079e+03,2.913260e+03
1.859044e+03,2.902174e+03
1.860008e+03,2.890340e+03
1.860972e+03,2.880592e+03
1.861936e+03,2.875339e+03
1.862901e+03,2.874108e+03
1.863865e+03,2.875372e+03
1.864829e+03,2.876567e+03
1.865793e+03,2.870032e+03
1.866758e+03,2.859972e+03
1.867722e+03,2.856993e+03
1.868686e+03,2.865011e+03
1.869650e+03,2.868531e+03
1.870615e+03,2.865172e+03
1.871579e+03,2.859200e+03
1.872543e+03,2.852842e+03
1.873507e+03,2.848244e+03
1.874471e+03,2.845347e+03
1.875436e+03,2.840442e+03
1.876400e+03,2.831282e+03
1.877364e+03,2.824148e+03
1.878328e+03,2.830856e+03
1.879293e+03,2.841254e+03
1.880257e+03,2.829025e+03
1.881221e+03,2.806372e+03
1.882185e+03,2.803955e+03
1.883150e+03,2.824223e+03
1.884114e+03,2.828623e+03
1.885078e+03,2.818384e+03
1.886042e+03,2.806632e+03
1.887006e+03,2.796228e+03
1.887971e+03,2.789802e+03
1.888935e+03,2.791113e+03
1.889899e+03,2.793476e+03
1.890863e+03,2.793603e+03
1.891828e+03,2.794403e+03
1.892792e+03,2.806717e+03
1.893756e+03,2.815237e+03
1.894720e+03,2.805917e+03
1.895685e+03,2.792343e+03
1.896649e+03,2.784067e+03
1.897613e+03,2.779908e+03
1.898577e+03,2.784496e+03
1.899542e+03,2.792153e+03
1.900506e+03,2.787466e+03
1.901470e+03,2.766105e+03
1.902434e+03,2.756268e+03
1.903398e+03,2.757469e+03
1.904363e+03,2.753268e+03
1.905327e+03,2.738760e+03
1.906291e+03,2.733078e+03
1.907255e+03,2.755126e+03
1.908220e+03,2.768465e+03
1.909184e+03,2.765591e+03
1.910148e+03,2.757009e+03
1.911112e+03,2.755495e+03
1.912077e+03,2.753120e+03
1.913041e+03,2.738468e+03
1.914005e+03,2.722741e+03
1.914969e+03,2.717255e+03
1.915933e+03,2.720160e+03
1.916898e+03,2.730437e+03
1.917862e+03,2.742047e+03
1.918826e+03,2.738832e+03
1.919790e+03,2.718402e+03
1.920755e+03,2.706508e+03
1.921719e+03,2.701527e+03
1.922683e+03,2.703906e+03
1.923647e+03,2.714945e+03
1.924612e+03,2.721116e+03
1.925576e+03,2.710930e+03
1.926540e+03,2.703485e+03
1.927504e+03,2.699606e+03
1.928469e+03,2.698603e+03
1.929433e+03,2.705791e+03
1.930397e+03,2.708023e+03
1.931361e+03,2.686179e+03
1.932325e+03,2.665294e+03
1.933290e+03,2.669924e+03
1.934254e+03,2.688988e+03
1.935218e+03,2.691442e+03
1.936182e+03,2.682126e+03
1.937147e+03,2.670239e+03
1.938111e+03,2.658762e+03
1.939075e+03,2.656325e+03
1.940039e+03,2.662318e+03
1.941004e+03,2.663374e+03
1.941968e+03,2.656276e+03
1.942932e+03,2.652733e+03
1.943896e+03,2.659984e+03
1.944860e+03,2.662079e+03
1.945825e+03,2.658607e+03
1.946789e+03,2.652545e+03
1.947753e+03,2.637218e+03
1.948717e+03,2.630307e+03
1.949682e+03,2.645204e+03
1.950646e+03,2.657313e+03
1.951610e+03,2.650309e+03
1.952574e+03,2.635738e+03
1.953539e+03,2.627050e+03
1.954503e+03,2.622799e+03
1.955467e+03,2.623569e+03
1.956431e+03,2.627326e+03
1.957396e+03,2.627364e+03
1.958360e+03,2.624556e+03
1.959324e+03,2.622340e+03
1.960288e+03,2.622192e+03
1.961252e+03,2.623756e+03
1.962217e+03,2.625828e+03
1.963181e+03,2.622829e+03
1.964145e+03,2.615114e+03
1.965109e+03,2.611690e+03
1.966074e+03,2.625146e+03
1.967038e+03,2.628719e+03
1.968002e+03,2.616186e+03
1.968966e+03,2.602861e+03
1.969931e+03,2.596354e+03
1.970895e+03,2.590630e+03
1.971859e+03,2.583719e+03
1.972823e+03,2.578438e+03
1.973787e+03,2.574013e+03
1.974752e+03,2.571939e+03
1.975716e+03,2.581931e+03
1.976680e+03,2.589945e+03
1.977644e+03,2.575793e+03
1.978609e+03,2.554970e+03
1.979573e+03,2.553748e+03
1.980537e+03,2.564138e+03
1.981501e+03,2.560226e+03
1.982466e+03,2.546449e+03
1.983430e+03,2.535521e+03
1.984394e+03,2.527686e+03
1.985358e+03,2.531355e+03
1.986323e+03,2.543828e+03
1.987287e+03,2.550206e+03
1.988251e+03,2.544585e+03
1.989215e+03,2.539480e+03
1.990179e+03,2.537521e+03
1.991144e+03,2.534958e+03
1.992108e+03,2.531803e+03
1.993072e+03,2.528615e+03
1.994036e+03,2.524414e+03
1.995001e+03,2.519096e+03
1.995965e+03,2.511175e+03
1.996929e+03,2.507929e+03
1.997893e+03,2.521002e+03
1.998858e+03,2.533533e+03
1.999822e+03,2.527785e+03
2.000786e+03,2.516545e+03
2.001750e+03,2.512255e+03
2.002714e+03,2.513970e+03
2.003679e+03,2.519294e+03
2.004643e+03,2.522299e+03
2.005607e+03,2.511744e+03
2.006571e+03,2.493074e+03
2.007536e+03,2.485987e+03
2.008500e+03,2.487052e+03
2.009464e+03,2.483500e+03
2.010428e+03,2.475465e+03
2.011393e+03,2.475041e+03
2.012357e+03,2.483267e+03
2.013321e+03,2.488897e+03
2.014285e+03,2.489133e+03
2.015250e+03,2.484094e+03
2.016214e+03,2.466295e+03
2.017178e+03,2.459268e+03
2.018142e+03,2.465776e+03
2.019106e+03,2.468962e+03
2.020071e+03,2.456304e+03
2.021035e+03,2.446904e+03
2.021999e+03,2.452998e+03
2.022963e+03,2.457255e+03
2.023928e+03,2.454648e+03
2.024892e+03,2.447450e+03
2.025856e+03,2.430399e+03
2.026820e+03,2.419110e+03
2.027785e+03,2.425534e+03
2.028749e+03,2.436247e+03
2.029713e+03,2.431097e+03
2.030677e+03,2.421791e+03
2.031641e+03,2.425243e+03
2.032606e+03,2.434111e+03
2.033570e+03,2.436006e+03
2.034534e+03,2.431302e+03
2.035498e+03,2.418559e+03
2.036463e+03,2.404232e+03
2.037427e+03,2.407705e+03
2.038391e+03,2.429511e+03
2.039355e+03,2.418900e+03
2.040320e+03,2.385344e+03
2.041284e+03,2.367943e+03
2.042248e+03,2.374912e+03
2.043212e+03,2.381061e+03
2.044177e+03,2.385310e+03
2.045141e+03,2.386154e+03
2.046105e+03,2.382982e+03
2.047069e+03,2.381473e+03
2.048033e+03,2.385889e+03
2.048998e+03,2.385717e+03
2.049962e+03,2.380687e+03
2.050926e+03,2.375343e+03
2.051890e+03,2.371539e+03
2.052854e+03,2.369946e+03
2.053819e+03,2.370935e+03
2.054783e+03,2.368761e+03
2.055747e+03,2.360755e+03
2.056711e+03,2.353724e+03
2.057676e+03,2.354900e+03
2.058640e+03,2.357495e+03
2.059604e+03,2.355555e+03
2.060568e+03,2.352321e+03
2.061533e+03,2.356427e+03
2.062497e+03,2.360948e+03
2.063461e+03,2.358378e+03
2.064425e+03,2.351797e+03
2.065390e+03,2.344924e+03
2.066354e+03,2.336781e+03
2.067318e+03,2.323472e+03
2.068282e+03,2.310510e+03
2.069247e+03,2.307057e+03
2.070211e+03,2.311027e+03
2.071175e+03,2.315141e+03
2.072139e+03,2.318492e+03
2.073104e+03,2.316771e+03
2.074068e+03,2.310306e+03
2.075032e+03,2.310117e+03
2.075996e+03,2.314122e+03
2.076960e+03,2.318289e+03
2.077925e+03,2.321390e+03
2.078889e+03,2.318117e+03
2.079853e+03,2.308051e+03
2.080817e+03,2.305867e+03
2.081782e+03,2.312365e+03
2.082746e+03,2.312552e+03
2.083710e+03,2.298388e+03
2.084674e+03,2.289473e+03
2.085639e+03,2.288163e+03
2.086603e+03,2.292853e+03
2.087567e+03,2.305920e+03
2.088531e+03,2.308665e+03
2.089496e+03,2.296875e+03
2.090460e+03,2.280216e+03
2.091424e+03,2.263315e+03
2.092388e+03,2.256647e+03
2.093353e+03,2.275918e+03
2.094317e+03,2.287153e+03
2.095281e+03,2.275249e+03
2.096245e+03,2.262440e+03
2.097209e+03,2.277853e+03
2.098174e+03,2.290955e+03
2.099138e+03,2.289782e+03
2.100102e+03,2.281009e+03
2.101066e+03,2.266267e+03
2.102031e+03,2.252734e+03
2.102995e+03,2.250551e+03
2.103959e+03,2.249089e+03
2.104923e+03,2.236315e+03
2.105887e+03,2.223961e+03
2.106852e+03,2.230898e+03
2.107816e+03,2.242459e+03
2.108780e+03,2.245468e+03
2.109744e+03,2.241385e+03
2.110708e+03,2.233732e+03
2.111673e+03,2.225240e+03
2.112637e+03,2.216146e+03
2.113601e+03,2.206343e+03
2.114565e+03,2.199047e+03
2.115530e+03,2.193514e+03
2.116494e+03,2.184778e+03
2.117458e+03,2.179842e+03
2.118422e+03,2.192304e+03
2.119387e+03,2.216618e+03
2.120351e+03,2.236002e+03
2.121315e+03,2.246645e+03
2.122279e+03,2.241118e+03
2.123244e+03,2.219699e+03
2.124208e+03,2.208329e+03
2.125172e+03,2.204044e+03
2.126136e+03,2.191707e+03
2.127101e+03,2.166773e+03
2.128065e+03,2.157443e+03
2.129029e+03,2.161736e+03
2.129993e+03,2.171932e+03
2.130958e+03,2.184280e+03
2.131922e+03,2.177831e+03
2.132886e+03,2.150430e+03
2.133850e+03,2.144683e+03
2.134814e+03,2.165577e+03
2.135779e+03,2.178739e+03
2.136743e+03,2.167640e+03
2.137707e+03,2.160120e+03
2.138671e+03,2.158069e+03
2.139636e+03,2.155581e+03
2.140600e+03,2.148360e+03
2.141564e+03,2.144080e+03
2.142528e+03,2.143896e+03
2.143493e+03,2.141002e+03
2.144457e+03,2.130339e+03
2.145421e+03,2.121223e+03
2.146385e+03,2.116889e+03
2.147350e+03,2.112336e+03
2.148314e+03,2.106688e+03
2.149278e+03,2.108128e+03
2.150242e+03,2.127477e+03
2.151207e+03,2.138652e+03
2.152171e+03,2.136443e+03
2.153135e+03,2.128995e+03
2.154099e+03,2.124220e+03
2.155063e+03,2.118265e+03
2.156028e+03,2.110465e+03
2.156992e+03,2.104338e+03
2.157956e+03,2.099601e+03
2.158920e+03,2.095765e+03
2.159885e+03,2.092759e+03
2.160849e+03,2.090393e+03
2.161813e+03,2.089055e+03
2.162777e+03,2.086670e+03
2.163741e+03,2.081882e+03
2.164706e+03,2.075472e+03
2.165670e+03,2.068765e+03
2.166634e+03,2.066255e+03
2.167598e+03,2.073759e+03
2.168563e+03,2.081853e+03
2.169527e+03,2.084655e+03
2.170491e+03,2.084169e+03
2.171455e+03,2.084476e+03
2.172420e+03,2.085364e+03
2.173384e+03,2.088487e+03
2.174348e+03,2.089633e+03
2.175312e+03,2.082455e+03
2.176277e+03,2.072743e+03
2.177241e+03,2.067658e+03
2.178205e+03,2.061613e+03
2.179169e+03,2.049888e+03
2.180134e+03,2.041735e+03
2.181098e+03,2.056493e+03
2.182062e+03,2.067761e+03
2.183026e+03,2.053291e+03
2.183990e+03,2.032937e+03
2.184955e+03,2.039193e+03
2.185919e+03,2.050981e+03
2.186883e+03,2.050210e+03
2.187847e+03,2.044065e+03
2.188812e+03,2.043113e+03
2.189776e+03,2.042820e+03
2.190740e+03,2.036680e+03
2.191704e+03,2.027445e+03
2.192668e+03,2.014442e+03
2.193633e+03,2.005144e+03
2.194597e+03,2.019355e+03
2.195561e+03,2.032398e+03
2.196525e+03,2.017501e+03
2.197490e+03,1.992898e+03
2.198454e+03,1.991737e+03
2.199418e+03,1.998022e+03
2.200382e+03,1.996828e+03
2.201347e+03,1.994555e+03
2.202311e+03,2.000990e+03
2.203275e+03,2.010202e+03
2.204239e+03,2.015325e+03
2.205204e+03,2.016357e+03
2.206168e+03,2.017151e+03
2.207132e+03,2.016326e+03
2.208096e+03,2.009323e+03
2.209061e+03,1.997941e+03
2.210025e+03,1.980926e+03
2.210989e+03,1.966581e+03
2.211953e+03,1.975462e+03
2.212917e+03,1.990997e+03
2.213882e+03,1.989159e+03
2.214846e+03,1.979058e+03
2.215810e+03,1.980991e+03
2.216774e+03,1.984777e+03
2.217739e+03,1.985424e+03
2.218703e+03,1.983495e+03
2.219667e+03,1.976237e+03
2.220631e+03,1.969052e+03
2.221595e+03,1.966980e+03
2.222560e+03,1.966014e+03
2.223524e+03,1.961757e+03
2.224488e+03,1.955010e+03
2.225452e+03,1.945810e+03
2.226417e+03,1.937286e+03
2.227381e+03,1.931337e+03
2.228345e+03,1.928713e+03
2.229309e+03,1.926959e+03
2.230274e+03,1.929553e+03
2.231238e+03,1.944777e+03
2.232202e+03,1.959616e+03
2.233166e+03,1.952058e+03
2.234131e+03,1.941054e+03
2.235095e+03,1.941176e+03
2.236059e+03,1.944659e+03
2.237023e+03,1.939594e+03
2.237988e+03,1.930928e+03
2.238952e+03,1.921051e+03
2.239916e+03,1.911341e+03
2.240880e+03,1.905102e+03
2.241844e+03,1.902270e+03
2.242809e+03,1.903088e+03
2.243773e+03,1.905354e+03
2.244737e+03,1.907198e+03
2.245701e+03,1.906827e+03
2.246666e+03,1.901195e+03
2.247630e+03,1.894448e+03
2.248594e+03,1.890557e+03
2.249558e+03,1.890227e+03
2.250522e+03,1.897024e+03
2.251487e+03,1.900762e+03
2.252451e+03,1.893083e+03
2.253415e+03,1.881517e+03
2.254379e+03,1.876396e+03
2.255344e+03,1.872379e+03
2.256308e+03,1.867448e+03
2.257272e+03,1.864106e+03
2.258236e+03,1.865030e+03
2.259201e+03,1.868469e+03
2.260165e+03,1.873221e+03
2.261129e+03,1.876752e+03
2.262093e+03,1.876553e+03
2.263058e+03,1.873880e+03
2.264022e+03,1.871052e+03
2.264986e+03,1.867379e+03
2.265950e+03,1.858536e+03
2.266915e+03,1.851987e+03
2.267879e+03,1.848544e+03
2.268843e+03,1.846168e+03
2.269807e+03,1.847831e+03
2.270771e+03,1.846187e+03
2.271736e+03,1.837361e+03
2.272700e+03,1.833182e+03
2.273664e+03,1.835505e+03
2.274628e+03,1.836557e+03
2.275593e+03,1.831533e+03
2.276557e+03,1.827429e+03
2.277521e+03,1.826728e+03
2.278485e+03,1.827023e+03
2.279449e+03,1.828321e+03
2.280414e+03,1.825344e+03
2.281378e+03,1.817780e+03
2.282342e+03,1.813284e+03
2.283306e+03,1.820402e+03
2.284271e+03,1.812102e+03
2.285235e+03,1.789915e+03
2.286199e+03,1.780002e+03
2.287163e+03,1.800012e+03
2.288128e+03,1.805017e+03
2.289092e+03,1.794493e+03
2.290056e+03,1.785295e+03
2.291020e+03,1.781885e+03
2.291985e+03,1.778738e+03
2.292949e+03,1.777431e+03
2.293913e+03,1.783703e+03
2.294877e+03,1.795929e+03
2.295842e+03,1.800136e+03
2.296806e+03,1.795897e+03
2.297770e+03,1.790044e+03
2.298734e+03,1.784595e+03
2.299698e+03,1.786762e+03
2.300663e+03,1.795279e+03
2.301627e+03,1.795888e+03
2.302591e+03,1.789739e+03
2.303555e+03,1.781416e+03
2.304520e+03,1.772282e+03
2.305484e+03,1.761673e+03
2.306448e+03,1.754912e+03
2.307412e+03,1.763794e+03
2.308376e+03,1.777986e+03
2.309341e+03,1.769343e+03
2.310305e+03,1.753166e+03
2.311269e+03,1.751188e+03
2.312233e+03,1.757836e+03
2.313198e+03,1.766707e+03
2.314162e+03,1.771221e+03
2.315126e+03,1.761364e+03
2.316090e+03,1.748562e+03
2.317055e+03,1.745251e+03
2.318019e+03,1.746356e+03
2.318983e+03,1.746514e+03
2.319947e+03,1.747545e+03
2.320912e+03,1.757215e+03
2.321876e+03,1.761770e+03
2.322840e+03,1.743066e+03
2.323804e+03,1.727296e+03
2.324769e+03,1.726969e+03
2.325733e+03,1.733967e+03
2.326697e+03,1.749069e+03
2.327661e+03,1.751666e+03
2.328625e+03,1.731792e+03
2.329590e+03,1.712662e+03
2.330554e+03,1.710495e+03
2.331518e+03,1.712497e+03
2.332482e+03,1.716959e+03
2.333447e+03,1.718584e+03
2.334411e+03,1.713185e+03
2.335375e+03,1.706405e+03
2.336339e+03,1.699087e+03
2.337303e+03,1.699770e+03
2.338268e+03,1.716844e+03
2.339232e+03,1.720841e+03
2.340196e+03,1.714048e+03
2.341160e+03,1.708552e+03
2.342125e+03,1.707139e+03
2.343089e+03,1.708943e+03
2.344053e+03,1.710953e+03
2.345017e+03,1.711560e+03
2.345982e+03,1.710539e+03
2.346946e+03,1.702775e+03
2.347910e+03,1.692316e+03
2.348874e+03,1.684324e+03
2.349839e+03,1.679195e+03
2.350803e+03,1.683346e+03
2.351767e+03,1.691448e+03
2.352731e+03,1.690905e+03
2.353696e+03,1.686619e+03
2.354660e+03,1.684215e+03
2.355624e+03,1.682078e+03
2.356588e+03,1.679545e+03
2.357552e+03,1.678057e+03
2.358517e+03,1.680094e+03
2.359481e+03,1.681636e+03
2.360445e+03,1.675396e+03
2.361409e+03,1.667505e+03
2.362374e+03,1.659697e+03
2.363338e+03,1.655840e+03
2.364302e+03,1.670906e+03
2.365266e+03,1.676644e+03
2.366230e+03,1.661809e+03
2.367195e+03,1.646787e+03
2.368159e+03,1.644175e+03
2.369123e+03,1.644996e+03
2.370087e+03,1.649864e+03
2.371052e+03,1.651613e+03
2.372016e+03,1.644472e+03
2.372980e+03,1.642732e+03
2.373944e+03,1.646161e+03
2.374909e+03,1.650320e+03
2.375873e+03,1.655777e+03
2.376837e+03,1.652857e+03
2.377801e+03,1.643609e+03
2.378766e+03,1.635393e+03
2.379730e+03,1.629291e+03
2.380694e+03,1.619757e+03
2.381658e+03,1.611711e+03
2.382623e+03,1.620504e+03
2.383587e+03,1.637283e+03
2.384551e+03,1.631411e+03
2.385515e+03,1.614766e+03
2.386479e+03,1.609374e+03
2.387444e+03,1.609106e+03
2.388408e+03,1.603364e+03
2.389372e+03,1.599151e+03
2.390336e+03,1.604087e+03
2.391301e+03,1.610589e+03
2.392265e+03,1.610633e+03
2.393229e+03,1.609760e+03
2.394193e+03,1.612818e+03
2.395157e+03,1.613007e+03
2.396122e+03,1.603039e+03
2.397086e+03,1.598113e+03
2.398050e+03,1.605394e+03
2.399014e+03,1.606298e+03
2.399979e+03,1.590683e+03
2.400943e+03,1.582286e+03
2.401907e+03,1.584436e+03
2.402871e+03,1.586491e+03
2.403836e+03,1.586788e+03
2.404800e+03,1.583000e+03
2.405764e+03,1.575540e+03
2.406728e+03,1.577709e+03
2.407693e+03,1.587854e+03
2.408657e+03,1.593297e+03
2.409621e+03,1.594370e+03
2.410585e+03,1.589725e+03
2.411550e+03,1.580433e+03
2.412514e+03,1.567032e+03
2.413478e+03,1.553549e+03
2.414442e+03,1.553158e+03
2.415406e+03,1.558171e+03
2.416371e+03,1.560995e+03
2.417335e+03,1.560300e+03
2.418299e+03,1.547203e+03
2.419263e+03,1.539929e+03
2.420228e+03,1.550538e+03
2.421192e+03,1.560731e+03
2.422156e+03,1.548435e+03
2.423120e+03,1.543477e+03
2.424084e+03,1.552517e+03
2.425049e+03,1.557510e+03
2.426013e+03,1.549029e+03
2.426977e+03,1.539119e+03
2.427941e+03,1.530371e+03
2.428906e+03,1.530383e+03
2.429870e+03,1.541376e+03
2.430834e+03,1.548709e+03
2.431798e+03,1.552177e+03
2.432763e+03,1.549398e+03
2.433727e+03,1.541007e+03
2.434691e+03,1.533842e+03
2.435655e+03,1.528888e+03
2.436620e+03,1.529723e+03
2.437584e+03,1.532868e+03
2.438548e+03,1.528566e+03
2.439512e+03,1.523798e+03
2.440477e+03,1.525347e+03
2.441441e+03,1.527704e+03
2.442405e+03,1.526469e+03
2.443369e+03,1.522168e+03
2.444333e+03,1.515008e+03
2.445298e+03,1.511108e+03
2.446262e+03,1.522270e+03
2.447226e+03,1.521545e+03
2.448190e+03,1.504805e+03
2.449155e+03,1.493321e+03
2.450119e+03,1.507152e+03
2.451083e+03,1.509520e+03
2.452047e+03,1.501291e+03
2.453011e+03,1.499743e+03
2.453976e+03,1.510233e+03
2.454940e+03,1.506455e+03
2.455904e+03,1.493786e+03
2.456868e+03,1.481229e+03
2.457833e+03,1.471799e+03
2.458797e+03,1.483762e+03
2.459761e+03,1.499442e+03
2.460725e+03,1.490111e+03
2.461690e+03,1.472201e+03
2.462654e+03,1.469149e+03
2.463618e+03,1.469531e+03
2.464582e+03,1.465615e+03
2.465547e+03,1.466007e+03
2.466511e+03,1.483698e+03
2.467475e+03,1.491561e+03
2.468439e+03,1.483206e+03
2.469404e+03,1.475684e+03
2.470368e+03,1.483940e+03
2.471332e+03,1.487631e+03
2.472296e+03,1.485238e+03
2.473260e+03,1.476242e+03
2.474225e+03,1.460058e+03
2.475189e+03,1.457156e+03
2.476153e+03,1.464142e+03
2.477117e+03,1.467629e+03
2.478082e+03,1.467322e+03
2.479046e+03,1.468389e+03
2.480010e+03,1.467974e+03
2.480974e+03,1.461322e+03
2.481938e+03,1.454772e+03
2.482903e+03,1.460853e+03
2.483867e+03,1.463487e+03
2.484831e+03,1.453372e+03
2.485795e+03,1.440561e+03
2.486760e+03,1.430636e+03
2.487724e+03,1.428508e+03
2.488688e+03,1.435113e+03
2.489652e+03,1.440394e+03
2.490617e+03,1.436595e+03
2.491581e+03,1.435148e+03
2.492545e+03,1.436392e+03
2.493509e+03,1.438094e+03
2.494474e+03,1.438656e+03
2.495438e+03,1.435340e+03
2.496402e+03,1.430160e+03
2.497366e+03,1.427401e+03
2.498331e+03,1.427067e+03
2.499295e+03,1.432549e+03
2.500259e+03,1.435452e+03
2.501223e+03,1.429562e+03
2.502188e+03,1.422648e+03
2.503152e+03,1.421903e+03
2.504116e+03,1.423862e+03
2.505080e+03,1.427611e+03
2.506044e+03,1.429785e+03
2.507009e+03,1.426628e+03
2.507973e+03,1.421460e+03
2.508937e+03,1.415384e+03
2.509901e+03,1.410477e+03
2.510865e+03,1.406976e+03
2.511830e+03,1.397399e+03
2.512794e+03,1.385447e+03
2.513758e+03,1.387498e+03
2.514722e+03,1.398621e+03
2.515687e+03,1.404662e+03
2.516651e+03,1.405755e+03
2.517615e+03,1.402003e+03
2.518579e+03,1.396460e+03
2.519544e+03,1.390492e+03
2.520508e+03,1.388965e+03
2.521472e+03,1.394490e+03
2.522436e+03,1.398080e+03
2.523401e+03,1.390260e+03
2.524365e+03,1.387329e+03
2.525329e+03,1.388892e+03
2.526293e+03,1.389591e+03
2.527258e+03,1.389398e+03
2.528222e+03,1.386506e+03
2.529186e+03,1.381921e+03
2.530150e+03,1.378990e+03
2.531115e+03,1.377938e+03
2.532079e+03,1.376820e+03
2.533043e+03,1.375447e+03
2.534007e+03,1.372856e+03
2.534971e+03,1.369357e+03
2.535936e+03,1.366872e+03
2.536900e+03,1.366484e+03
2.537864e+03,1.368879e+03
2.538828e+03,1.369934e+03
2.539792e+03,1.365032e+03
2.540757e+03,1.359326e+03
2.541721e+03,1.353390e+03
2.542685e+03,1.349505e+03
2.543649e+03,1.348247e+03
2.544614e+03,1.346362e+03
2.545578e+03,1.346282e+03
2.546542e+03,1.360357e+03
2.547506e+03,1.379373e+03
2.548471e+03,1.377710e+03
2.549435e+03,1.368294e+03
2.550399e+03,1.361920e+03
2.551363e+03,1.356721e+03
2.552328e+03,1.350178e+03
2.553292e+03,1.351801e+03
2.554256e+03,1.368891e+03
2.555220e+03,1.373126e+03
2.556185e+03,1.359720e+03
2.557149e+03,1.350678e+03
2.558113e+03,1.349376e+03
2.559077e+03,1.344087e+03
2.560042e+03,1.335641e+03
2.561006e+03,1.332715e+03
2.561970e+03,1.334409e+03
2.562934e+03,1.333083e+03
2.563898e+03,1.331078e+03
2.564863e+03,1.329398e+03
2.565827e+03,1.329654e+03
2.566791e+03,1.340114e+03
2.567755e+03,1.346175e+03
2.568719e+03,1.342897e+03
2.569684e+03,1.336417e+03
2.570648e+03,1.328415e+03
2.571612e+03,1.323457e+03
2.572576e+03,1.322314e+03
2.573541e+03,1.321269e+03
2.574505e+03,1.318690e+03
2.575469e+03,1.315711e+03
2.576433e+03,1.314305e+03
2.577398e+03,1.321105e+03
2.578362e+03,1.328139e+03
2.579326e+03,1.324530e+03
2.580290e+03,1.316472e+03
2.581255e+03,1.305492e+03
2.582219e+03,1.298906e+03
2.583183e+03,1.307107e+03
2.584147e+03,1.312559e+03
2.585112e+03,1.315997e+03
2.586076e+03,1.315033e+03
2.587040e+03,1.309547e+03
2.588004e+03,1.303728e+03
2.588969e+03,1.298896e+03
2.589933e+03,1.301050e+03
2.590897e+03,1.305693e+03
2.591861e+03,1.303678e+03
2.592825e+03,1.297797e+03
2.593790e+03,1.287664e+03
2.594754e+03,1.281420e+03
2.595718e+03,1.287105e+03
2.596682e+03,1.290335e+03
2.597646e+03,1.287625e+03
2.598611e+03,1.281872e+03
2.599575e+03,1.275412e+03
2.600539e+03,1.270241e+03
2.601503e+03,1.268079e+03
2.602468e+03,1.275726e+03
2.603432e+03,1.286585e+03
2.604396e+03,1.291055e+03
2.605360e+03,1.289461e+03
2.606325e+03,1.272200e+03
2.607289e+03,1.263069e+03
2.608253e+03,1.273921e+03
2.609217e+03,1.282600e+03
2.610182e+03,1.276211e+03
2.611146e+03,1.269256e+03
2.612110e+03,1.263635e+03
2.613074e+03,1.262330e+03
2.614039e+03,1.264526e+03
2.615003e+03,1.256730e+03
2.615967e+03,1.246726e+03
2.616931e+03,1.249885e+03
2.617896e+03,1.258830e+03
2.618860e+03,1.267879e+03
2.619824e+03,1.270518e+03
2.620788e+03,1.263948e+03
2.621752e+03,1.257259e+03
2.622717e+03,1.255061e+03
2.623681e+03,1.262447e+03
2.624645e+03,1.276157e+03
2.625609e+03,1.270852e+03
2.626573e+03,1.249804e+03
2.627538e+03,1.237656e+03
2.628502e+03,1.237900e+03
2.629466e+03,1.254992e+03
2.630430e+03,1.273162e+03
2.631395e+03,1.268266e+03
2.632359e+03,1.259926e+03
2.633323e+03,1.254281e+03
2.634287e+03,1.249021e+03
2.635252e+03,1.243918e+03
2.636216e+03,1.242901e+03
2.637180e+03,1.245896e+03
2.638144e+03,1.250922e+03
2.639109e+03,1.253743e+03
2.640073e+03,1.238699e+03
2.641037e+03,1.222326e+03
2.642001e+03,1.228210e+03
2.642966e+03,1.236343e+03
2.643930e+03,1.235631e+03
2.644894e+03,1.229703e+03
2.645858e+03,1.212519e+03
2.646823e+03,1.214034e+03
2.647787e+03,1.231601e+03
2.648751e+03,1.232994e+03
2.649715e+03,1.216013e+03
2.650679e+03,1.212784e+03
2.651644e+03,1.215760e+03
2.652608e+03,1.212300e+03
2.653572e+03,1.206706e+03
2.654536e+03,1.205824e+03
2.655500e+03,1.206799e+03
2.656465e+03,1.209102e+03
2.657429e+03,1.208549e+03
2.658393e+03,1.202674e+03
2.659357e+03,1.199920e+03
2.660322e+03,1.202461e+03
2.661286e+03,1.205109e+03
2.662250e+03,1.206418e+03
2.663214e+03,1.199304e+03
2.664179e+03,1.193143e+03
2.665143e+03,1.202456e+03
2.666107e+03,1.214637e+03
2.667071e+03,1.224279e+03
2.668036e+03,1.226733e+03
2.669000e+03,1.212846e+03
2.669964e+03,1.204345e+03
2.670928e+03,1.201245e+03
2.671893e+03,1.201564e+03
2.672857e+03,1.202728e+03
2.673821e+03,1.187545e+03
2.674785e+03,1.170261e+03
2.675750e+03,1.166772e+03
2.676714e+03,1.171260e+03
2.677678e+03,1.182351e+03
2.678642e+03,1.188801e+03
2.679606e+03,1.188446e+03
2.680571e+03,1.183276e+03
2.681535e+03,1.174301e+03
2.682499e+03,1.169213e+03
2.683463e+03,1.169273e+03
2.684427e+03,1.180527e+03
2.685392e+03,1.192657e+03
2.686356e+03,1.179283e+03
2.687320e+03,1.166473e+03
2.688284e+03,1.176588e+03
2.689249e+03,1.182730e+03
2.690213e+03,1.178635e+03
2.691177e+03,1.172264e+03
2.692141e+03,1.166918e+03
2.693106e+03,1.164180e+03
2.694070e+03,1.164904e+03
2.695034e+03,1.172963e+03
2.695998e+03,1.180902e+03
2.696963e+03,1.173998e+03
2.697927e+03,1.164420e+03
2.698891e+03,1.156510e+03
2.699855e+03,1.153284e+03
2.700820e+03,1.158079e+03
2.701784e+03,1.163159e+03
2.702748e+03,1.166160e+03
2.703712e+03,1.161335e+03
2.704677e+03,1.152540e+03
2.705641e+03,1.154402e+03
2.706605e+03,1.161338e+03
2.707569e+03,1.169017e+03
2.708533e+03,1.167498e+03
2.709498e+03,1.151174e+03
2.710462e+03,1.138081e+03
2.711426e+03,1.138811e+03
2.712390e+03,1.138666e+03
2.713354e+03,1.138608e+03
2.714319e+03,1.149070e+03
2.715283e+03,1.162412e+03
2.716247e+03,1.159037e+03
2.717211e+03,1.150751e+03
2.718176e+03,1.146691e+03
2.719140e+03,1.143156e+03
2.720104e+03,1.137970e+03
2.721068e+03,1.126984e+03
2.722033e+03,1.111804e+03
2.722997e+03,1.120029e+03
2.723961e+03,1.143134e+03
2.724925e+03,1.146463e+03
2.725890e+03,1.138116e+03
2.726854e+03,1.124363e+03
2.727818e+03,1.118022e+03
2.728782e+03,1.125701e+03
2.729747e+03,1.128749e+03
2.730711e+03,1.111551e+03
2.731675e+03,1.115729e+03
2.732639e+03,1.135513e+03
2.733604e+03,1.136441e+03
2.734568e+03,1.125351e+03
2.735532e+03,1.122482e+03
2.736496e+03,1.124357e+03
2.737460e+03,1.129921e+03
2.738425e+03,1.131235e+03
2.739389e+03,1.121414e+03
2.740353e+03,1.114516e+03
2.741317e+03,1.113222e+03
2.742281e+03,1.112453e+03
2.743246e+03,1.112001e+03
2.744210e+03,1.109918e+03
2.745174e+03,1.106254e+03
2.746138e+03,1.101145e+03
2.747103e+03,1.102481e+03
2.748067e+03,1.114135e+03
2.749031e+03,1.118579e+03
2.749995e+03,1.101187e+03
2.750960e+03,1.094033e+03
2.751924e+03,1.095865e+03
2.752888e+03,1.103678e+03
2.753852e+03,1.111180e+03
2.754817e+03,1.103463e+03
2.755781e+03,1.094332e+03
2.756745e+03,1.089816e+03
2.757709e+03,1.094283e+03
2.758674e+03,1.107328e+03
2.759638e+03,1.116412e+03
2.760602e+03,1.117810e+03
2.761566e+03,1.101337e+03
2.762531e+03,1.083586e+03
2.763495e+03,1.094942e+03
2.764459e+03,1.112100e+03
2.765423e+03,1.119135e+03
2.766387e+03,1.109000e+03
2.767352e+03,1.082517e+03
2.768316e+03,1.071870e+03
2.769280e+03,1.082593e+03
2.770244e+03,1.084502e+03
2.771208e+03,1.080468e+03
2.772173e+03,1.074735e+03
2.773137e+03,1.072619e+03
2.774101e+03,1.086482e+03
2.775065e+03,1.093928e+03
2.776030e+03,1.083129e+03
2.776994e+03,1.074498e+03
2.777958e+03,1.069468e+03
2.778922e+03,1.069457e+03
2.779887e+03,1.074398e+03
2.780851e+03,1.090975e+03
2.781815e+03,1.098852e+03
2.782779e+03,1.085462e+03
2.783744e+03,1.073628e+03
2.784708e+03,1.077825e+03
2.785672e+03,1.078093e+03
2.786636e+03,1.072697e+03
2.787601e+03,1.065602e+03
2.788565e+03,1.059050e+03
2.789529e+03,1.057353e+03
2.790493e+03,1.056024e+03
2.791458e+03,1.046897e+03
2.792422e+03,1.045198e+03
2.793386e+03,1.054469e+03
2.794350e+03,1.053346e+03
2.795314e+03,1.036273e+03
2.796279e+03,1.043260e+03
2.797243e+03,1.059512e+03
2.798207e+03,1.063783e+03
2.799171e+03,1.061803e+03
2.800135e+03,1.056197e+03
2.801100e+03,1.050686e+03
2.802064e+03,1.046716e+03
2.803028e+03,1.052748e+03
2.803992e+03,1.064681e+03
2.804957e+03,1.061839e+03
2.805921e+03,1.051535e+03
2.806885e+03,1.042309e+03
2.807849e+03,1.043666e+03
2.808814e+03,1.059733e+03
2.809778e+03,1.068158e+03
2.810742e+03,1.055547e+03
2.811706e+03,1.054156e+03
2.812671e+03,1.059343e+03
2.813635e+03,1.055490e+03
2.814599e+03,1.047142e+03
2.815563e+03,1.042340e+03
2.816528e+03,1.042706e+03
2.817492e+03,1.053108e+03
2.818456e+03,1.052047e+03
2.819420e+03,1.038338e+03
2.820385e+03,1.028391e+03
2.821349e+03,1.024923e+03
2.822313e+03,1.027886e+03
2.823277e+03,1.031839e+03
2.824241e+03,1.030509e+03
2.825206e+03,1.034577e+03
2.826170e+03,1.055439e+03
2.827134e+03,1.057529e+03
2.828098e+03,1.039052e+03
2.829063e+03,1.032188e+03
2.830027e+03,1.030629e+03
2.830991e+03,1.017062e+03
2.831955e+03,1.007778e+03
2.832919e+03,1.017705e+03
2.833884e+03,1.026232e+03
2.834848e+03,1.029734e+03
2.835812e+03,1.033858e+03
2.836776e+03,1.038963e+03
2.837741e+03,1.036522e+03
2.838705e+03,1.030841e+03
2.839669e+03,1.025574e+03
2.840633e+03,1.024207e+03
2.841598e+03,1.029185e+03
2.842562e+03,1.031742e+03
2.843526e+03,1.030197e+03
2.844490e+03,1.021023e+03
2.845455e+03,1.009806e+03
2.846419e+03,1.009109e+03
2.847383e+03,1.011415e+03
2.848347e+03,1.008376e+03
2.849312e+03,1.004900e+03
2.850276e+03,1.002076e+03
2.851240e+03,1.012182e+03
2.852204e+03,1.029941e+03
2.853168e+03,1.034063e+03
2.854133e+03,1.028396e+03
2.855097e+03,1.013597e+03
2.856061e+03,1.003954e+03
2.857025e+03,1.001645e+03
2.857990e+03,1.008273e+03
2.858954e+03,1.025229e+03
2.859918e+03,1.024994e+03
2.860882e+03,1.017286e+03
2.861846e+03,1.017520e+03
2.862811e+03,1.022351e+03
2.863775e+03,1.030335e+03
2.864739e+03,1.035483e+03
2.865703e+03,1.035708e+03
2.866668e+03,1.025255e+03
2.867632e+03,1.011288e+03
2.868596e+03,1.015342e+03
2.869560e+03,1.025932e+03
2.870525e+03,1.038033e+03
2.871489e+03,1.036252e+03
2.872453e+03,1.016903e+03
2.873417e+03,1.014039e+03
2.874382e+03,1.026203e+03
2.875346e+03,1.023312e+03
2.876310e+03,1.013834e+03
2.877274e+03,1.008578e+03
2.878239e+03,1.003026e+03
2.879203e+03,9.944128e+02
2.880167e+03,9.930510e+02
2.881131e+03,1.003749e+03
2.882095e+03,1.007547e+03
2.883060e+03,1.011328e+03
2.884024e+03,1.027582e+03
2.884988e+03,1.039391e+03
2.885952e+03,1.028615e+03
2.886917e+03,1.020465e+03
2.887881e+03,1.021814e+03
2.888845e+03,1.016013e+03
2.889809e+03,1.008747e+03
2.890773e+03,1.014669e+03
2.891738e+03,1.021565e+03
2.892702e+03,1.016382e+03
2.893666e+03,1.014242e+03
2.894630e+03,1.017440e+03
2.895595e+03,1.012002e+03
2.896559e+03,1.001223e+03
2.897523e+03,1.008924e+03
2.898487e+03,1.019043e+03
2.899452e+03,1.011567e+03
2.900416e+03,1.005816e+03
2.901380e+03,1.005797e+03
2.902344e+03,1.000485e+03
2.903309e+03,9.900056e+02
2.904273e+03,9.990547e+02
2.905237e+03,1.010031e+03
2.906201e+03,1.003629e+03
2.907166e+03,9.938774e+02
2.908130e+03,9.870618e+02
2.909094e+03,9.861767e+02
2.910058e+03,9.903253e+02
2.911022e+03,9.804936e+02
2.911987e+03,9.748172e+02
2.912951e+03,9.939964e+02
2.913915e+03,1.010203e+03
2.914879e+03,1.001154e+03
2.915844e+03,9.938582e+02
2.916808e+03,9.915790e+02
2.917772e+03,9.946198e+02
2.918736e+03,9.964802e+02
2.919700e+03,9.847242e+02
2.920665e+03,9.729532e+02
2.921629e+03,9.707291e+02
2.922593e+03,9.727890e+02
2.923557e+03,9.762543e+02
2.924522e+03,9.636794e+02
2.925486e+03,9.476864e+02
2.926450e+03,9.629880e+02
2.927414e+03,9.792831e+02
2.928379e+03,9.843597e+02
2.929343e+03,9.770696e+02
2.930307e+03,9.606999e+02
2.931271e+03,9.449713e+02
2.932236e+03,9.351137e+02
2.933200e+03,9.424781e+02
2.934164e+03,9.530856e+02
2.935128e+03,9.605068e+02
2.936093e+03,9.632117e+02
2.937057e+03,9.626788e+02
2.938021e+03,9.551544e+02
2.938985e+03,9.505283e+02
2.939949e+03,9.741550e+02
2.940914e+03,9.781086e+02
2.941878e+03,9.484393e+02
2.942842e+03,9.423750e+02
2.943806e+03,9.654980e+02
2.944771e+03,9.625058e+02
2.945735e+03,9.473442e+02
2.946699e+03,9.373571e+02
2.947663e+03,9.328557e+02
2.948627e+03,9.314626e+02
2.949592e+03,9.425027e+02
2.950556e+03,9.653036e+02
2.951520e+03,9.672961e+02
2.952484e+03,9.600682e+02
2.953449e+03,9.564034e+02
2.954413e+03,9.597718e+02
2.955377e+03,9.721058e+02
2.956341e+03,9.854800e+02
2.957306e+03,9.965803e+02
2.958270e+03,1.004888e+03
2.959234e+03,9.928009e+02
2.960198e+03,9.476212e+02
2.961163e+03,9.237656e+02
2.962127e+03,9.465447e+02
2.963091e+03,9.632178e+02
2.964055e+03,9.665597e+02
2.965020e+03,9.507323e+02
2.965984e+03,9.423474e+02
2.966948e+03,9.609162e+02
2.967912e+03,9.694731e+02
2.968876e+03,9.490709e+02
2.969841e+03,9.355043e+02
2.970805e+03,9.298531e+02
2.971769e+03,9.365107e+02
2.972733e+03,9.362409e+02
2.973698e+03,9.119350e+02
2.974662e+03,9.096201e+02
2.975626e+03,9.429344e+02
2.976590e+03,9.556683e+02
2.977554e+03,9.536491e+02
2.978519e+03,9.445003e+02
2.979483e+03,9.365219e+02
2.980447e+03,9.365228e+02
2.981411e+03,9.347134e+02
2.982376e+03,9.318895e+02
2.983340e+03,9.421025e+02
2.984304e+03,9.473753e+02
2.985268e+03,9.299044e+02
2.986233e+03,9.107150e+02
2.987197e+03,9.010904e+02
2.988161e+03,8.922076e+02
2.989125e+03,8.882214e+02
2.990090e+03,8.995504e+02
2.991054e+03,9.155280e+02
2.992018e+03,9.292693e+02
2.992982e+03,9.264796e+02
2.993947e+03,8.979500e+02
2.994911e+03,8.910706e+02
2.995875e+03,9.015121e+02
2.996839e+03,9.197260e+02
2.997803e+03,9.304176e+02
2.998768e+03,9.253028e+02
2.999732e+03,9.120208e+02
3.000696e+03,8.958518e+02
3.001660e+03,9.110912e+02
3.002625e+03,9.254652e+02
3.003589e+03,9.082233e+02
3.004553e+03,8.854067e+02
3.005517e+03,8.701194e+02
3.006481e+03,8.559262e+02
3.007446e+03,8.484811e+02
3.008410e+03,8.749349e+02
3.009374e+03,9.024388e+02
3.010338e+03,9.126928e+02
3.011303e+03,9.084072e+02
3.012267e+03,8.890724e+02
3.013231e+03,8.889959e+02
3.014195e+03,8.976389e+02
3.015160e+03,8.972464e+02
3.016124e+03,8.899556e+02
3.017088e+03,8.773248e+02
3.018052e+03,8.823981e+02
3.019017e+03,9.036133e+02
3.019981e+03,9.075460e+02
3.020945e+03,9.064216e+02
3.021909e+03,9.118275e+02
3.022874e+03,9.123950e+02
3.023838e+03,9.067013e+02
3.024802e+03,9.085477e+02
3.025766e+03,9.139180e+02
3.026730e+03,9.066599e+02
3.027695e+03,9.033284e+02
3.028659e+03,9.120372e+02
3.029623e+03,9.022916e+02
3.030587e+03,8.782313e+02
3.031552e+03,8.767551e+02
3.032516e+03,8.832646e+02
3.033480e+03,8.852508e+02
3.034444e+03,8.842312e+02
3.035408e+03,8.809880e+02
3.036373e+03,8.697772e+02
3.037337e+03,8.581738e+02
3.038301e+03,8.790303e+02
3.039265e+03,8.984851e+02
3.040230e+03,8.928085e+02
3.041194e+03,8.927757e+02
3.042158e+03,8.984930e+02
3.043122e+03,9.054319e+02
3.044087e+03,9.065919e+02
3.045051e+03,8.876351e+02
3.046015e+03,8.661214e+02
3.046979e+03,8.475215e+02
3.047944e+03,8.607761e+02
3.048908e+03,8.855775e+02
3.049872e+03,8.900090e+02
3.050836e+03,8.848125e+02
3.051801e+03,8.743651e+02
3.052765e+03,8.775436e+02
3.053729e+03,8.915992e+02
3.054693e+03,8.956387e+02
3.055657e+03,8.934771e+02
3.056622e+03,8.866918e+02
3.057586e+03,8.914935e+02
3.058550e+03,9.125062e+02
3.059514e+03,9.068523e+02
3.060479e+03,8.874879e+02
3.061443e+03,8.670621e+02
3.062407e+03,8.692375e+02
3.063371e+03,8.951220e+02
3.064335e+03,9.000149e+02
3.065300e+03,8.850922e+02
3.066264e+03,8.603077e+02
3.067228e+03,8.495750e+02
3.068192e+03,8.723474e+02
3.069157e+03,8.846714e+02
3.070121e+03,8.856314e+02
3.071085e+03,9.003100e+02
3.072049e+03,9.138107e+02
3.073014e+03,8.986815e+02
3.073978e+03,8.786369e+02
3.074942e+03,8.591730e+02
3.075906e+03,8.613282e+02
3.076871e+03,8.748901e+02
3.077835e+03,8.844766e+02
3.078799e+03,8.860205e+02
3.079763e+03,8.723467e+02
3.080728e+03,8.827961e+02
3.081692e+03,9.058445e+02
3.082656e+03,8.870858e+02
3.083620e+03,8.668425e+02
3.084584e+03,8.682567e+02
3.085549e+03,8.766015e+02
3.086513e+03,8.873948e+02
3.087477e+03,8.801650e+02
3.088441e+03,8.730509e+02
3.089406e+03,8.948841e+02
3.090370e+03,8.926353e+02
3.091334e+03,8.639238e+02
3.092298e+03,8.496615e+02
3.093262e+03,8.494054e+02
3.094227e+03,8.680255e+02
3.095191e+03,8.800615e+02
3.096155e+03,8.759501e+02
3.097119e+03,8.623467e+02
3.098084e+03,8.504717e+02
3.099048e+03,8.579277e+02
3.100012e+03,8.743148e+02
3.100976e+03,8.979567e+02
3.101941e+03,8.928436e+02
3.102905e+03,8.625532e+02
3.103869e+03,8.511403e+02
3.104833e+03,8.455939e+02
3.105798e+03,8.369281e+02
3.106762e+03,8.295961e+02
3.107726e+03,8.270642e+02
3.108690e+03,8.665613e+02
3.109655e+03,9.014570e+02
3.110619e+03,8.608899e+02
3.111583e+03,8.352531e+02
3.112547e+03,8.392650e+02
3.113511e+03,8.612296e+02
3.114476e+03,8.847060e+02
3.115440e+03,8.748292e+02
3.116404e+03,8.714257e+02
3.117368e+03,8.928248e+02
3.118333e+03,9.046047e+02
3.119297e+03,9.055651e+02
3.120261e+03,8.975507e+02
3.121225e+03,8.822292e+02
3.122189e+03,8.595790e+02
3.123154e+03,8.457661e+02
3.124118e+03,8.446560e+02
3.125082e+03,8.719376e+02
3.126046e+03,8.963245e+02
3.127011e+03,9.026083e+02
3.127975e+03,8.958282e+02
3.128939e+03,8.814044e+02
3.129903e+03,8.626191e+02
3.130868e+03,8.512229e+02
3.131832e+03,8.654607e+02
3.132796e+03,8.671586e+02
3.133760e+03,8.610898e+02
3.134725e+03,8.946360e+02
3.135689e+03,9.135811e+02
3.136653e+03,8.624717e+02
3.137617e+03,8.395806e+02
3.138582e+03,8.745179e+02
3.139546e+03,9.137762e+02
3.140510e+03,9.336067e+02
3.141474e+03,9.100126e+02
3.142438e+03,8.807892e+02
3.143403e+03,8.582169e+02
3.144367e+03,8.677560e+02
3.145331e+03,8.870683e+02
3.146295e+03,8.789512e+02
3.147260e+03,8.728492e+02
3.148224e+03,8.747842e+02
3.149188e+03,8.919392e+02
3.150152e+03,8.970635e+02
3.151116e+03,8.524523e+02
3.152081e+03,8.276455e+02
3.153045e+03,8.511638e+02
3.154009e+03,8.627846e+02
3.154973e+03,8.677614e+02
3.155938e+03,8.910338e+02
3.156902e+03,8.905072e+02
3.157866e+03,8.585606e+02
3.158830e+03,8.527147e+02
3.159795e+03,8.666078e+02
3.160759e+03,8.679962e+02
3.161723e+03,8.736555e+02
3.162687e+03,9.051080e+02
3.163652e+03,8.922208e+02
3.164616e+03,8.629012e+02
3.165580e+03,8.673898e+02
3.166544e+03,8.922574e+02
3.167509e+03,9.276852e+02
3.168473e+03,9.239846e+02
3.169437e+03,8.895671e+02
3.170401e+03,8.467100e+02
3.171365e+03,8.239886e+02
3.172330e+03,8.358141e+02
3.173294e+03,8.602123e+02
3.174258e+03,8.813602e+02
3.175222e+03,8.735460e+02
3.176187e+03,8.632567e+02
3.177151e+03,8.701129e+02
3.178115e+03,8.538581e+02
3.179079e+03,8.294307e+02
3.180043e+03,8.514666e+02
3.181008e+03,8.761370e+02
3.181972e+03,8.867722e+02
3.182936e+03,8.745016e+02
3.183900e+03,8.550001e+02
3.184865e+03,8.793107e+02
3.185829e+03,9.035639e+02
3.186793e+03,9.073156e+02
3.187757e+03,8.884597e+02
3.188722e+03,8.641309e+02
3.189686e+03,8.753715e+02
3.190650e+03,8.808567e+02
3.191614e+03,8.646359e+02
3.192579e+03,8.500604e+02
3.193543e+03,8.451726e+02
3.194507e+03,8.783575e+02
3.195471e+03,9.015424e+02
3.196436e+03,8.922578e+02
3.197400e+03,8.886561e+02
3.198364e+03,8.922510e+02
3.199328e+03,9.033724e+02
3.200292e+03,9.037752e+02
3.201257e+03,0.000000e+00
3.202221e+03,0.000000e+00
3.203185e+03,0.000000e+00
3.204149e+03,0.000000e+00
3.205114e+03,0.000000e+00
3.206078e+03,0.000000e+00
3.207042e+03,0.000000e+00
3.208006e+03,0.000000e+00
3.208970e+03,0.000000e+00
3.209935e+03,0.000000e+00
3.210899e+03,0.000000e+00
3.211863e+03,0.000000e+00
3.212827e+03,0.000000e+00
3.213792e+03,0.000000e+00
3.214756e+03,0.000000e+00
3.215720e+03,0.000000e+00
3.216684e+03,0.000000e+00
3.217649e+03,0.000000e+00
3.218613e+03,0.000000e+00
3.219577e+03,0.000000e+00
3.220541e+03,0.000000e+00
3.221506e+03,0.000000e+00
3.222470e+03,0.000000e+00
3.223434e+03,0.000000e+00
3.224398e+03,0.000000e+00
3.225363e+03,0.000000e+00
3.226327e+03,0.000000e+00
3.227291e+03,0.000000e+00
3.228255e+03,0.000000e+00
3.229219e+03,0.000000e+00
3.230184e+03,0.000000e+00
3.231148e+03,0.000000e+00
3.232112e+03,0.000000e+00
3.233076e+03,0.000000e+00
3.234041e+03,0.000000e+00
3.235005e+03,0.000000e+00
3.235969e+03,0.000000e+00
3.236933e+03,0.000000e+00
3.237897e+03,0.000000e+00
3.238862e+03,0.000000e+00
3.239826e+03,0.000000e+00
3.240790e+03,0.000000e+00
3.241754e+03,0.000000e+00
3.242719e+03,0.000000e+00
3.243683e+03,0.000000e+00
3.244647e+03,0.000000e+00
3.245611e+03,0.000000e+00
3.246576e+03,0.000000e+00
3.247540e+03,0.000000e+00
3.248504e+03,0.000000e+00
3.249468e+03,0.000000e+00
3.250433e+03,0.000000e+00
3.251397e+03,0.000000e+00
3.252361e+03,0.000000e+00
3.253325e+03,0.000000e+00
3.254290e+03,0.000000e+00
3.255254e+03,0.000000e+00
3.256218e+03,0.000000e+00
3.257182e+03,0.000000e+00
3.258146e+03,0.000000e+00
3.259111e+03,0.000000e+00
3.260075e+03,0.000000e+00
3.261039e+03,0.000000e+00
3.262003e+03,0.000000e+00
3.262968e+03,0.000000e+00
3.263932e+03,0.000000e+00
3.264896e+03,0.000000e+00
3.265860e+03,0.000000e+00
3.266824e+03,0.000000e+00
3.267789e+03,0.000000e+00
3.268753e+03,0.000000e+00
3.269717e+03,0.000000e+00
3.270681e+03,0.000000e+00
3.271646e+03,0.000000e+00
3.272610e+03,0.000000e+00
3.273574e+03,0.000000e+00
3.274538e+03,0.000000e+00
3.275503e+03,0.000000e+00
3.276467e+03,0.000000e+00
3.277431e+03,0.000000e+00
3.278395e+03,0.000000e+00
3.279360e+03,0.000000e+00
3.280324e+03,0.000000e+00
3.281288e+03,0.000000e+00
3.282252e+03,0.000000e+00
3.283217e+03,0.000000e+00
3.284181e+03,0.000000e+00
3.285145e+03,0.000000e+00
3.286109e+03,0.000000e+00
3.287073e+03,0.000000e+00
3.288038e+03,0.000000e+00
3.289002e+03,0.000000e+00
3.289966e+03,0.000000e+00
3.290930e+03,0.000000e+00
3.291895e+03,0.000000e+00
3.292859e+03,0.000000e+00
3.293823e+03,0.000000e+00
3.294787e+03,0.000000e+00
3.295751e+03,0.000000e+00
3.296716e+03,0.000000e+00
3.297680e+03,0.000000e+00
3.298644e+03,0.000000e+00
3.299608e+03,0.000000e+00
3.300573e+03,0.000000e+00
3.301537e+03,0.000000e+00
3.302501e+03,0.000000e+00
3.303465e+03,0.000000e+00
3.304430e+03,0.000000e+00
3.305394e+03,0.000000e+00
3.306358e+03,0.000000e+00
3.307322e+03,0.000000e+00
3.308287e+03,0.000000e+00
3.309251e+03,0.000000e+00
3.310215e+03,0.000000e+00
3.311179e+03,0.000000e+00
3.312144e+03,0.000000e+00
3.313108e+03,0.000000e+00
3.314072e+03,0.000000e+00
3.315036e+03,0.000000e+00
3.316000e+03,0.000000e+00
3.316965e+03,0.000000e+00
3.317929e+03,0.000000e+00
3.318893e+03,0.000000e+00
3.319857e+03,0.000000e+00
3.320822e+03,0.000000e+00
3.321786e+03,0.000000e+00
3.322750e+03,0.000000e+00
3.323714e+03,0.000000e+00
3.324678e+03,0.000000e+00
3.325643e+03,0.000000e+00
3.326607e+03,0.000000e+00
3.327571e+03,0.000000e+00
3.328535e+03,0.000000e+00
3.329500e+03,0.000000e+00
3.330464e+03,0.000000e+00
3.331428e+03,0.000000e+00
3.332392e+03,0.000000e+00
3.333357e+03,0.000000e+00
3.334321e+03,0.000000e+00
3.335285e+03,0.000000e+00
3.336249e+03,0.000000e+00
3.337214e+03,0.000000e+00
3.338178e+03,0.000000e+00
3.339142e+03,0.000000e+00
3.340106e+03,0.000000e+00
3.341071e+03,0.000000e+00
3.342035e+03,0.000000e+00
3.342999e+03,0.000000e+00
3.343963e+03,0.000000e+00
3.344927e+03,0.000000e+00
3.345892e+03,0.000000e+00
3.346856e+03,0.000000e+00
3.347820e+03,0.000000e+00
3.348784e+03,0.000000e+00
3.349749e+03,0.000000e+00
3.350713e+03,0.000000e+00
3.351677e+03,0.000000e+00
3.352641e+03,0.000000e+00
3.353605e+03,0.000000e+00
3.354570e+03,0.000000e+00
3.355534e+03,0.000000e+00
3.356498e+03,0.000000e+00
3.357462e+03,0.000000e+00
3.358427e+03,0.000000e+00
3.359391e+03,0.000000e+00
3.360355e+03,0.000000e+00
3.361319e+03,0.000000e+00
3.362284e+03,0.000000e+00
3.363248e+03,0.000000e+00
3.364212e+03,0.000000e+00
3.365176e+03,0.000000e+00
3.366141e+03,0.000000e+00
3.367105e+03,0.000000e+00
3.368069e+03,0.000000e+00
3.369033e+03,0.000000e+00
3.369998e+03,0.000000e+00
3.370962e+03,0.000000e+00
3.371926e+03,0.000000e+00
3.372890e+03,0.000000e+00
3.373854e+03,0.000000e+00
3.374819e+03,0.000000e+00
3.375783e+03,0.000000e+00
3.376747e+03,0.000000e+00
3.377711e+03,0.000000e+00
3.378676e+03,0.000000e+00
3.379640e+03,0.000000e+00
3.380604e+03,0.000000e+00
3.381568e+03,0.000000e+00
3.382532e+03,0.000000e+00
3.383497e+03,0.000000e+00
3.384461e+03,0.000000e+00
3.385425e+03,0.000000e+00
3.386389e+03,0.000000e+00
3.387354e+03,0.000000e+00
3.388318e+03,0.000000e+00
3.389282e+03,0.000000e+00
3.390246e+03,0.000000e+00
3.391211e+03,0.000000e+00
3.392175e+03,0.000000e+00
3.393139e+03,0.000000e+00
3.394103e+03,0.000000e+00
3.395068e+03,0.000000e+00
3.396032e+03,0.000000e+00
3.396996e+03,0.000000e+00
3.397960e+03,0.000000e+00
3.398925e+03,0.000000e+00
3.399889e+03,0.000000e+00
3.400853e+03,0.000000e+00
3.401817e+03,0.000000e+00
3.402781e+03,0.000000e+00
3.403746e+03,0.000000e+00
3.404710e+03,0.000000e+00
3.405674e+03,0.000000e+00
3.406638e+03,0.000000e+00
3.407603e+03,0.000000e+00
3.408567e+03,0.000000e+00
3.409531e+03,0.000000e+00
3.410495e+03,0.000000e+00
3.411459e+03,0.000000e+00
3.412424e+03,0.000000e+00
3.413388e+03,0.000000e+00
3.414352e+03,0.000000e+00
3.415316e+03,0.000000e+00
3.416281e+03,0.000000e+00
3.417245e+03,0.000000e+00
3.418209e+03,0.000000e+00
3.419173e+03,0.000000e+00
3.420138e+03,0.000000e+00
3.421102e+03,0.000000e+00
3.422066e+03,0.000000e+00
3.423030e+03,0.000000e+00
3.423995e+03,0.000000e+00
3.424959e+03,0.000000e+00
3.425923e+03,0.000000e+00
3.426887e+03,0.000000e+00
3.427852e+03,0.000000e+00
3.428816e+03,0.000000e+00
3.429780e+03,0.000000e+00
3.430744e+03,0.000000e+00
3.431708e+03,0.000000e+00
3.432673e+03,0.000000e+00
3.433637e+03,0.000000e+00
3.434601e+03,0.000000e+00
3.435565e+03,0.000000e+00
3.436530e+03,0.000000e+00
3.437494e+03,0.000000e+00
3.438458e+03,0.000000e+00
3.439422e+03,0.000000e+00
3.440386e+03,0.000000e+00
3.441351e+03,0.000000e+00
3.442315e+03,0.000000e+00
3.443279e+03,0.000000e+00
3.444243e+03,0.000000e+00
3.445208e+03,0.000000e+00
3.446172e+03,0.000000e+00
3.447136e+03,0.000000e+00
3.448100e+03,0.000000e+00
3.449065e+03,0.000000e+00
3.450029e+03,0.000000e+00
3.450993e+03,0.000000e+00
3.451957e+03,0.000000e+00
3.452922e+03,0.000000e+00
3.453886e+03,0.000000e+00
3.454850e+03,0.000000e+00
3.455814e+03,0.000000e+00
3.456779e+03,0.000000e+00
3.457743e+03,0.000000e+00
3.458707e+03,0.000000e+00
3.459671e+03,0.000000e+00
3.460635e+03,0.000000e+00
3.461600e+03,0.000000e+00
3.462564e+03,0.000000e+00
3.463528e+03,0.000000e+00
3.464492e+03,0.000000e+00
3.465457e+03,0.000000e+00
3.466421e+03,0.000000e+00
3.467385e+03,0.000000e+00
3.468349e+03,0.000000e+00
3.469313e+03,0.000000e+00
3.470278e+03,0.000000e+00
3.471242e+03,0.000000e+00
3.472206e+03,0.000000e+00
3.473170e+03,0.000000e+00
3.474135e+03,0.000000e+00
3.475099e+03,0.000000e+00
3.476063e+03,0.000000e+00
3.477027e+03,0.000000e+00
3.477992e+03,0.000000e+00
3.478956e+03,0.000000e+00
3.479920e+03,0.000000e+00
3.480884e+03,0.000000e+00
3.481849e+03,0.000000e+00
3.482813e+03,0.000000e+00
3.483777e+03,0.000000e+00
3.484741e+03,0.000000e+00
3.485706e+03,0.000000e+00
3.486670e+03,0.000000e+00
3.487634e+03,0.000000e+00
3.488598e+03,0.000000e+00
3.489563e+03,0.000000e+00
3.490527e+03,0.000000e+00
3.491491e+03,0.000000e+00
3.492455e+03,0.000000e+00
3.493419e+03,0.000000e+00
3.494384e+03,0.000000e+00
3.495348e+03,0.000000e+00
3.496312e+03,0.000000e+00
3.497276e+03,0.000000e+00
3.498240e+03,0.000000e+00
3.499205e+03,0.000000e+00
3.500169e+03,0.000000e+00
