9.931763e+01,0.000000e+00
1.002819e+02,0.000000e+00
1.012461e+02,0.000000e+00
1.022103e+02,0.000000e+00
1.031746e+02,0.000000e+00
1.041388e+02,0.000000e+00
1.051030e+02,0.000000e+00
1.060673e+02,0.000000e+00
1.070315e+02,0.000000e+00
1.079957e+02,0.000000e+00
1.089600e+02,0.000000e+00
1.099242e+02,0.000000e+00
1.108884e+02,0.000000e+00
1.118527e+02,0.000000e+00
1.128169e+02,0.000000e+00
1.137811e+02,0.000000e+00
1.147454e+02,0.000000e+00
1.157096e+02,0.000000e+00
1.166738e+02,0.000000e+00
1.176381e+02,0.000000e+00
1.186023e+02,0.000000e+00
1.195665e+02,0.000000e+00
1.205308e+02,0.000000e+00
1.214950e+02,0.000000e+00
1.224592e+02,0.000000e+00
1.234235e+02,0.000000e+00
1.243877e+02,0.000000e+00
1.253519e+02,0.000000e+00
1.263162e+02,0.000000e+00
1.272804e+02,0.000000e+00
1.282446e+02,0.000000e+00
1.292089e+02,0.000000e+00
1.301731e+02,0.000000e+00
1.311373e+02,0.000000e+00
1.321016e+02,0.000000e+00
1.330658e+02,0.000000e+00
1.340300e+02,0.000000e+00
1.349943e+02,0.000000e+00
1.359585e+02,0.000000e+00
1.369227e+02,0.000000e+00
1.378870e+02,0.000000e+00
1.388512e+02,0.000000e+00
1.398154e+02,0.000000e+00
1.407797e+02,0.000000e+00
1.417439e+02,0.000000e+00
1.427081e+02,0.000000e+00
1.436724e+02,0.000000e+00
1.446366e+02,0.000000e+00
1.456008e+02,0.000000e+00
1.465651e+02,0.000000e+00
1.475293e+02,0.000000e+00
1.484935e+02,0.000000e+00
1.494578e+02,0.000000e+00
1.504220e+02,0.000000e+00
1.513862e+02,0.000000e+00
1.523505e+02,0.000000e+00
1.533147e+02,0.000000e+00
1.542789e+02,0.000000e+00
1.552432e+02,0.000000e+00
1.562074e+02,0.000000e+00
1.571716e+02,0.000000e+00
1.581359e+02,0.000000e+00
1.591001e+02,0.000000e+00
1.600643e+02,0.000000e+00
1.610286e+02,0.000000e+00
1.619928e+02,0.000000e+00
1.629570e+02,0.000000e+00
1.639213e+02,0.000000e+00
1.648855e+02,0.000000e+00
1.658497e+02,0.000000e+00
1.668140e+02,0.000000e+00
1.677782e+02,0.000000e+00
1.687424e+02,0.000000e+00
1.697067e+02,0.000000e+00
1.706709e+02,0.000000e+00
1.716351e+02,0.000000e+00
1.725994e+02,0.000000e+00
1.735636e+02,0.000000e+00
1.745278e+02,0.000000e+00
1.754921e+02,0.000000e+00
1.764563e+02,0.000000e+00
1.774205e+02,0.000000e+00
1.783848e+02,0.000000e+00
1.793490e+02,0.000000e+00
1.803132e+02,0.000000e+00
1.812775e+02,0.000000e+00
1.822417e+02,0.000000e+00
1.832059e+02,0.000000e+00
1.841702e+02,0.000000e+00
1.851344e+02,0.000000e+00
1.860986e+02,0.000000e+00
1.870629e+02,0.000000e+00
1.880271e+02,0.000000e+00
1.889913e+02,0.000000e+00
1.899556e+02,0.000000e+00
1.909198e+02,0.000000e+00
1.918840e+02,0.000000e+00
1.928483e+02,0.000000e+00
1.938125e+02,0.000000e+00
1.947767e+02,0.000000e+00
1.957410e+02,0.000000e+00
1.967052e+02,0.000000e+00
1.976694e+02,0.000000e+00
1.986337e+02,0.000000e+00
1.995979e+02,3.767504e+03
2.005621e+02,3.784203e+03
2.015264e+02,3.796045e+03
2.024906e+02,3.796727e+03
2.034548e+02,3.797431e+03
2.044191e+02,3.799677e+03
2.053833e+02,3.802953e+03
2.063475e+02,3.806325e+03
2.073118e+02,3.809450e+03
2.082760e+02,3.812665e+03
2.092402e+02,3.814522e+03
2.102045e+02,3.816898e+03
2.111687e+02,3.819563e+03
2.121329e+02,3.821319e+03
2.130972e+02,3.820273e+03
2.140614e+02,3.817565e+03
2.150256e+02,3.818136e+03
2.159899e+02,3.824790e+03
2.169541e+02,3.831802e+03
2.179183e+02,3.837561e+03
2.188826e+02,3.841865e+03
2.198468e+02,3.845537e+03
2.208110e+02,3.849113e+03
2.217753e+02,3.852077e+03
2.227395e+02,3.852914e+03
2.237037e+02,3.851914e+03
2.246680e+02,3.850846e+03
2.256322e+02,3.850412e+03
2.265964e+02,3.851778e+03
2.275607e+02,3.855263e+03
2.285249e+02,3.861685e+03
2.294892e+02,3.871733e+03
2.304534e+02,3.881782e+03
2.314176e+02,3.885586e+03
2.323819e+02,3.884108e+03
2.333461e+02,3.885302e+03
2.343103e+02,3.896216e+03
2.352746e+02,3.911846e+03
2.362388e+02,3.921379e+03
2.372030e+02,3.920113e+03
2.381673e+02,3.911789e+03
2.391315e+02,3.906102e+03
2.400957e+02,3.905416e+03
2.410600e+02,3.907382e+03
2.420242e+02,3.913331e+03
2.429884e+02,3.923234e+03
2.439527e+02,3.934320e+03
2.449169e+02,3.943762e+03
2.458811e+02,3.950613e+03
2.468454e+02,3.955871e+03
2.478096e+02,3.959300e+03
2.487738e+02,3.961562e+03
2.497381e+02,3.961969e+03
2.507023e+02,3.960650e+03
2.516665e+02,3.959943e+03
2.526308e+02,3.963407e+03
2.535950e+02,3.976510e+03
2.545592e+02,3.983650e+03
2.555235e+02,3.980520e+03
2.564877e+02,3.973361e+03
2.574519e+02,3.970365e+03
2.584161e+02,3.977446e+03
2.593804e+02,3.993921e+03
2.603446e+02,4.006207e+03
2.613088e+02,4.006958e+03
2.622731e+02,4.007219e+03
2.632373e+02,4.009809e+03
2.642015e+02,4.013951e+03
2.651658e+02,4.017973e+03
2.661300e+02,4.021288e+03
2.670942e+02,4.024925e+03
2.680585e+02,4.029707e+03
2.690227e+02,4.037704e+03
2.699869e+02,4.045759e+03
2.709512e+02,4.050979e+03
2.719154e+02,4.052727e+03
2.728796e+02,4.053903e+03
2.738439e+02,4.058713e+03
2.748081e+02,4.068997e+03
2.757723e+02,4.081282e+03
2.767366e+02,4.090378e+03
2.777008e+02,4.095297e+03
2.786650e+02,4.098313e+03
2.796293e+02,4.101585e+03
2.805935e+02,4.104940e+03
2.815577e+02,4.106612e+03
2.825220e+02,4.105392e+03
2.834862e+02,4.102311e+03
2.844504e+02,4.100211e+03
2.854147e+02,4.102850e+03
2.863789e+02,4.102926e+03
2.873431e+02,4.097969e+03
2.883074e+02,4.090255e+03
2.892716e+02,4.082771e+03
2.902358e+02,4.075911e+03
2.912001e+02,4.069134e+03
2.921643e+02,4.066602e+03
2.931285e+02,4.072136e+03
2.940928e+02,4.079532e+03
2.950570e+02,4.085846e+03
2.960212e+02,4.090153e+03
2.969855e+02,4.093122e+03
2.979497e+02,4.097035e+03
2.989139e+02,4.105207e+03
2.998782e+02,4.108256e+03
3.008424e+02,4.104604e+03
3.018066e+02,4.099431e+03
3.027709e+02,4.094458e+03
3.037351e+02,4.089145e+03
3.046993e+02,4.084754e+03
3.056636e+02,4.085470e+03
3.066278e+02,4.094441e+03
3.075920e+02,4.103236e+03
3.085563e+02,4.107893e+03
3.095205e+02,4.110436e+03
3.104847e+02,4.113377e+03
3.114490e+02,4.116713e+03
3.124132e+02,4.119562e+03
3.133774e+02,4.120930e+03
3.143417e+02,4.119925e+03
3.153059e+02,4.117523e+03
3.162701e+02,4.116905e+03
3.172344e+02,4.120118e+03
3.181986e+02,4.123202e+03
3.191628e+02,4.125270e+03
3.201271e+02,4.126710e+03
3.210913e+02,4.127630e+03
3.220555e+02,4.127519e+03
3.230198e+02,4.126485e+03
3.239840e+02,4.127312e+03
3.249482e+02,4.131274e+03
3.259125e+02,4.135161e+03
3.268767e+02,4.137489e+03
3.278409e+02,4.138971e+03
3.288052e+02,4.141480e+03
3.297694e+02,4.147596e+03
3.307336e+02,4.158766e+03
3.316979e+02,4.164998e+03
3.326621e+02,4.161693e+03
3.336263e+02,4.155486e+03
3.345906e+02,4.149802e+03
3.355548e+02,4.146600e+03
3.365190e+02,4.145269e+03
3.374833e+02,4.143303e+03
3.384475e+02,4.139838e+03
3.394117e+02,4.140567e+03
3.403760e+02,4.150201e+03
3.413402e+02,4.163561e+03
3.423044e+02,4.171765e+03
3.432687e+02,4.167788e+03
3.442329e+02,4.161149e+03
3.451971e+02,4.159717e+03
3.461614e+02,4.162650e+03
3.471256e+02,4.166095e+03
3.480898e+02,4.168856e+03
3.490541e+02,4.172527e+03
3.500183e+02,4.174372e+03
3.509825e+02,4.173625e+03
3.519468e+02,4.173484e+03
3.529110e+02,4.175417e+03
3.538752e+02,4.179024e+03
3.548395e+02,4.183521e+03
3.558037e+02,4.189389e+03
3.567680e+02,4.200659e+03
3.577322e+02,4.206553e+03
3.586964e+02,4.203538e+03
3.596607e+02,4.197736e+03
3.606249e+02,4.194783e+03
3.615891e+02,4.196407e+03
3.625534e+02,4.199545e+03
3.635176e+02,4.200176e+03
3.644818e+02,4.199262e+03
3.654461e+02,4.197926e+03
3.664103e+02,4.198103e+03
3.673745e+02,4.201479e+03
3.683388e+02,4.207300e+03
3.693030e+02,4.214650e+03
3.702672e+02,4.221545e+03
3.712315e+02,4.225688e+03
3.721957e+02,4.226024e+03
3.731599e+02,4.223932e+03
3.741242e+02,4.222970e+03
3.750884e+02,4.226919e+03
3.760526e+02,4.231795e+03
3.770169e+02,4.238443e+03
3.779811e+02,4.244580e+03
3.789453e+02,4.246992e+03
3.799096e+02,4.243508e+03
3.808738e+02,4.235373e+03
3.818380e+02,4.228265e+03
3.828023e+02,4.222843e+03
3.837665e+02,4.221859e+03
3.847307e+02,4.228088e+03
3.856950e+02,4.238604e+03
3.866592e+02,4.246483e+03
3.876234e+02,4.245003e+03
3.885877e+02,4.237375e+03
3.895519e+02,4.233340e+03
3.905161e+02,4.233667e+03
3.914804e+02,4.236021e+03
3.924446e+02,4.239255e+03
3.934088e+02,4.245056e+03
3.943731e+02,4.249446e+03
3.953373e+02,4.251351e+03
3.963015e+02,4.250881e+03
3.972658e+02,4.247594e+03
3.982300e+02,4.241546e+03
3.991942e+02,4.235500e+03
4.001585e+02,4.233692e+03
4.011227e+02,4.237021e+03
4.020869e+02,4.240728e+03
4.030512e+02,4.243107e+03
4.040154e+02,4.243899e+03
4.049796e+02,4.244129e+03
4.059439e+02,4.243936e+03
4.069081e+02,4.243522e+03
4.078723e+02,4.244233e+03
4.088366e+02,4.245825e+03
4.098008e+02,4.245758e+03
4.107650e+02,4.242904e+03
4.117293e+02,4.238077e+03
4.126935e+02,4.237702e+03
4.136577e+02,4.248787e+03
4.146220e+02,4.264210e+03
4.155862e+02,4.273542e+03
4.165504e+02,4.274508e+03
4.175147e+02,4.270452e+03
4.184789e+02,4.266336e+03
4.194431e+02,4.260612e+03
4.204074e+02,4.256435e+03
4.213716e+02,4.255009e+03
4.223358e+02,4.254604e+03
4.233001e+02,4.253558e+03
4.242643e+02,4.251486e+03
4.252285e+02,4.248867e+03
4.261928e+02,4.245374e+03
4.271570e+02,4.239388e+03
4.281212e+02,4.237313e+03
4.290855e+02,4.243896e+03
4.300497e+02,4.255511e+03
4.310139e+02,4.265099e+03
4.319782e+02,4.272594e+03
4.329424e+02,4.277104e+03
4.339066e+02,4.274927e+03
4.348709e+02,4.265188e+03
4.358351e+02,4.254331e+03
4.367993e+02,4.248583e+03
4.377636e+02,4.249677e+03
4.387278e+02,4.253002e+03
4.396920e+02,4.262472e+03
4.406563e+02,4.272619e+03
4.416205e+02,4.279526e+03
4.425847e+02,4.281909e+03
4.435490e+02,4.280546e+03
4.445132e+02,4.275289e+03
4.454774e+02,4.265165e+03
4.464417e+02,4.259161e+03
4.474059e+02,4.259993e+03
4.483701e+02,4.264685e+03
4.493344e+02,4.270511e+03
4.502986e+02,4.281162e+03
4.512628e+02,4.290708e+03
4.522271e+02,4.295360e+03
4.531913e+02,4.295290e+03
4.541555e+02,4.290454e+03
4.551198e+02,4.278825e+03
4.560840e+02,4.260588e+03
4.570482e+02,4.252079e+03
4.580125e+02,4.267403e+03
4.589767e+02,4.282369e+03
4.599409e+02,4.284646e+03
4.609052e+02,4.275218e+03
4.618694e+02,4.264968e+03
4.628336e+02,4.264006e+03
4.637979e+02,4.271651e+03
4.647621e+02,4.279040e+03
4.657263e+02,4.288819e+03
4.666906e+02,4.297024e+03
4.676548e+02,4.296380e+03
4.686190e+02,4.282877e+03
4.695833e+02,4.272315e+03
4.705475e+02,4.271224e+03
4.715117e+02,4.275053e+03
4.724760e+02,4.278373e+03
4.734402e+02,4.279822e+03
4.744044e+02,4.279319e+03
4.753687e+02,4.275583e+03
4.763329e+02,4.263240e+03
4.772971e+02,4.256405e+03
4.782614e+02,4.260634e+03
4.792256e+02,4.270325e+03
4.801898e+02,4.278058e+03
4.811541e+02,4.279011e+03
4.821183e+02,4.276876e+03
4.830826e+02,4.276778e+03
4.840468e+02,4.278441e+03
4.850110e+02,4.280616e+03
4.859753e+02,4.283562e+03
4.869395e+02,4.287108e+03
4.879037e+02,4.289009e+03
4.888680e+02,4.287763e+03
4.898322e+02,4.287097e+03
4.907964e+02,4.290521e+03
4.917607e+02,4.297554e+03
4.927249e+02,4.304085e+03
4.936891e+02,4.305046e+03
4.946534e+02,4.299825e+03
4.956176e+02,4.297207e+03
4.965818e+02,4.299885e+03
4.975461e+02,4.303499e+03
4.985103e+02,4.303607e+03
4.994745e+02,4.298428e+03
5.004388e+02,4.292700e+03
5.014030e+02,4.289302e+03
5.023672e+02,4.287989e+03
5.033315e+02,4.288106e+03
5.042957e+02,4.289396e+03
5.052599e+02,4.290175e+03
5.062242e+02,4.287708e+03
5.071884e+02,4.279245e+03
5.081526e+02,4.273540e+03
5.091169e+02,4.274620e+03
5.100811e+02,4.278890e+03
5.110453e+02,4.281073e+03
5.120095e+02,4.277882e+03
5.129738e+02,4.274371e+03
5.139380e+02,4.277215e+03
5.149022e+02,4.286478e+03
5.158665e+02,4.297372e+03
5.168307e+02,4.306759e+03
5.177949e+02,4.312447e+03
5.187592e+02,4.312897e+03
5.197234e+02,4.313848e+03
5.206876e+02,4.311535e+03
5.216519e+02,4.299160e+03
5.226161e+02,4.281190e+03
5.235803e+02,4.269446e+03
5.245446e+02,4.278768e+03
5.255088e+02,4.304978e+03
5.264730e+02,4.317337e+03
5.274373e+02,4.309996e+03
5.284015e+02,4.297846e+03
5.293657e+02,4.292950e+03
5.303300e+02,4.296138e+03
5.312942e+02,4.298290e+03
5.322584e+02,4.297978e+03
5.332227e+02,4.298782e+03
5.341869e+02,4.303456e+03
5.351511e+02,4.311686e+03
5.361154e+02,4.320521e+03
5.370796e+02,4.326640e+03
5.380438e+02,4.329778e+03
5.390081e+02,4.334088e+03
5.399723e+02,4.344740e+03
5.409365e+02,4.354702e+03
5.419008e+02,4.355231e+03
5.428650e+02,4.338508e+03
5.438292e+02,4.322638e+03
5.447935e+02,4.316717e+03
5.457577e+02,4.318903e+03
5.467219e+02,4.326795e+03
5.476862e+02,4.340457e+03
5.486504e+02,4.356708e+03
5.496146e+02,4.366298e+03
5.505789e+02,4.365943e+03
5.515431e+02,4.363185e+03
5.525073e+02,4.359220e+03
5.534716e+02,4.357011e+03
5.544358e+02,4.358651e+03
5.554000e+02,4.366903e+03
5.563643e+02,4.375268e+03
5.573285e+02,4.376427e+03
5.582927e+02,4.370714e+03
5.592570e+02,4.364015e+03
5.602212e+02,4.360779e+03
5.611854e+02,4.360598e+03
5.621497e+02,4.357816e+03
5.631139e+02,4.348390e+03
5.640781e+02,4.337846e+03
5.650424e+02,4.329906e+03
5.660066e+02,4.324075e+03
5.669708e+02,4.317006e+03
5.679351e+02,4.305306e+03
5.688993e+02,4.292437e+03
5.698635e+02,4.285477e+03
5.708278e+02,4.285714e+03
5.717920e+02,4.286967e+03
5.727562e+02,4.281823e+03
5.737205e+02,4.265156e+03
5.746847e+02,4.256034e+03
5.756489e+02,4.259798e+03
5.766132e+02,4.264878e+03
5.775774e+02,4.264613e+03
5.785416e+02,4.258553e+03
5.795059e+02,4.253062e+03
5.804701e+02,4.254972e+03
5.814343e+02,4.261626e+03
5.823986e+02,4.264146e+03
5.833628e+02,4.260585e+03
5.843270e+02,4.254841e+03
5.852913e+02,4.251708e+03
5.862555e+02,4.251548e+03
5.872197e+02,4.253805e+03
5.881840e+02,4.260348e+03
5.891482e+02,4.267298e+03
5.901124e+02,4.271269e+03
5.910767e+02,4.270927e+03
5.920409e+02,4.269968e+03
5.930051e+02,4.271849e+03
5.939694e+02,4.275818e+03
5.949336e+02,4.279809e+03
5.958978e+02,4.283793e+03
5.968621e+02,4.286890e+03
5.978263e+02,4.287416e+03
5.987905e+02,4.285758e+03
5.997548e+02,4.282137e+03
6.007190e+02,4.272744e+03
6.016832e+02,4.263591e+03
6.026475e+02,4.260874e+03
6.036117e+02,4.266988e+03
6.045759e+02,4.277909e+03
6.055402e+02,4.290836e+03
6.065044e+02,4.304756e+03
6.074686e+02,4.315822e+03
6.084329e+02,4.323231e+03
6.093971e+02,4.327619e+03
6.103613e+02,4.330076e+03
6.113256e+02,4.337491e+03
6.122899e+02,4.335485e+03
6.132541e+02,4.314233e+03
6.142183e+02,4.282616e+03
6.151826e+02,4.255884e+03
6.161468e+02,4.242756e+03
6.171110e+02,4.238459e+03
6.180753e+02,4.238331e+03
6.190395e+02,4.241561e+03
6.200037e+02,4.244191e+03
6.209680e+02,4.243750e+03
6.219322e+02,4.240915e+03
6.228964e+02,4.237590e+03
6.238607e+02,4.229241e+03
6.248249e+02,4.224705e+03
6.257891e+02,4.229326e+03
6.267534e+02,4.238584e+03
6.277176e+02,4.241947e+03
6.286818e+02,4.229904e+03
6.296461e+02,4.215055e+03
6.306103e+02,4.213310e+03
6.315745e+02,4.223898e+03
6.325388e+02,4.233679e+03
6.335030e+02,4.230509e+03
6.344672e+02,4.213062e+03
6.354315e+02,4.203713e+03
6.363957e+02,4.207580e+03
6.373599e+02,4.211847e+03
6.383242e+02,4.211345e+03
6.392884e+02,4.206993e+03
6.402526e+02,4.202303e+03
6.412169e+02,4.197124e+03
6.421811e+02,4.192538e+03
6.431453e+02,4.190314e+03
6.441096e+02,4.190124e+03
6.450738e+02,4.189644e+03
6.460380e+02,4.186123e+03
6.470023e+02,4.180270e+03
6.479665e+02,4.180785e+03
6.489307e+02,4.189520e+03
6.498950e+02,4.199717e+03
6.508592e+02,4.205929e+03
6.518234e+02,4.207625e+03
6.527877e+02,4.207088e+03
6.537519e+02,4.203449e+03
6.547161e+02,4.199122e+03
6.556804e+02,4.196144e+03
6.566446e+02,4.194829e+03
6.576088e+02,4.193754e+03
6.585731e+02,4.192207e+03
6.595373e+02,4.189888e+03
6.605015e+02,4.184072e+03
6.614658e+02,4.173042e+03
6.624300e+02,4.162766e+03
6.633942e+02,4.159265e+03
6.643585e+02,4.165243e+03
6.653227e+02,4.170789e+03
6.662869e+02,4.173752e+03
6.672512e+02,4.176655e+03
6.682154e+02,4.182497e+03
6.691796e+02,4.190936e+03
6.701439e+02,4.196368e+03
6.711081e+02,4.192907e+03
6.720723e+02,4.184107e+03
6.730366e+02,4.177563e+03
6.740008e+02,4.175032e+03
6.749650e+02,4.174386e+03
6.759293e+02,4.173822e+03
6.768935e+02,4.175453e+03
6.778577e+02,4.172683e+03
6.788220e+02,4.163028e+03
6.797862e+02,4.153106e+03
6.807504e+02,4.144723e+03
6.817147e+02,4.136322e+03
6.826789e+02,4.131928e+03
6.836431e+02,4.134474e+03
6.846074e+02,4.139458e+03
6.855716e+02,4.144625e+03
6.865358e+02,4.149918e+03
6.875001e+02,4.152682e+03
6.884643e+02,4.148402e+03
6.894285e+02,4.137310e+03
6.903928e+02,4.126447e+03
6.913570e+02,4.115076e+03
6.923212e+02,4.105286e+03
6.932855e+02,4.099912e+03
6.942497e+02,4.101804e+03
6.952139e+02,4.106360e+03
6.961782e+02,4.117038e+03
6.971424e+02,4.127040e+03
6.981066e+02,4.130797e+03
6.990709e+02,4.125688e+03
7.000351e+02,4.114490e+03
7.009993e+02,4.095575e+03
7.019636e+02,4.075667e+03
7.029278e+02,4.069454e+03
7.038920e+02,4.079720e+03
7.048563e+02,4.093979e+03
7.058205e+02,4.096661e+03
7.067847e+02,4.083990e+03
7.077490e+02,4.078908e+03
7.087132e+02,4.091146e+03
7.096774e+02,4.107152e+03
7.106417e+02,4.112360e+03
7.116059e+02,4.103461e+03
7.125701e+02,4.094018e+03
7.135344e+02,4.086759e+03
7.144986e+02,4.082476e+03
7.154628e+02,4.082530e+03
7.164271e+02,4.086254e+03
7.173913e+02,4.088951e+03
7.183555e+02,4.083443e+03
7.193198e+02,4.071990e+03
7.202840e+02,4.068874e+03
7.212482e+02,4.078441e+03
7.222125e+02,4.089204e+03
7.231767e+02,4.087390e+03
7.241409e+02,4.064067e+03
7.251052e+02,4.049813e+03
7.260694e+02,4.051496e+03
7.270336e+02,4.056338e+03
7.279979e+02,4.058749e+03
7.289621e+02,4.058030e+03
7.299263e+02,4.056992e+03
7.308906e+02,4.056938e+03
7.318548e+02,4.056334e+03
7.328190e+02,4.053875e+03
7.337833e+02,4.049544e+03
7.347475e+02,4.044343e+03
7.357117e+02,4.039805e+03
7.366760e+02,4.036594e+03
7.376402e+02,4.034584e+03
7.386044e+02,4.034459e+03
7.395687e+02,4.034151e+03
7.405329e+02,4.030842e+03
7.414971e+02,4.023084e+03
7.424614e+02,4.017294e+03
7.434256e+02,4.016245e+03
7.443898e+02,4.018635e+03
7.453541e+02,4.023366e+03
7.463183e+02,4.027953e+03
7.472825e+02,4.029446e+03
7.482468e+02,4.023745e+03
7.492110e+02,4.016573e+03
7.501752e+02,4.016949e+03
7.511395e+02,4.025668e+03
7.521037e+02,4.035181e+03
7.530679e+02,4.036931e+03
7.540322e+02,4.031209e+03
7.549964e+02,4.028193e+03
7.559606e+02,4.029623e+03
7.569249e+02,4.031097e+03
7.578891e+02,4.029902e+03
7.588533e+02,4.026326e+03
7.598176e+02,4.023472e+03
7.607818e+02,4.015508e+03
7.617460e+02,4.007509e+03
7.627103e+02,4.003562e+03
7.636745e+02,4.004195e+03
7.646387e+02,4.005805e+03
7.656030e+02,4.007233e+03
7.665672e+02,4.008573e+03
7.675314e+02,4.008470e+03
7.684957e+02,4.004696e+03
7.694599e+02,3.996696e+03
7.704241e+02,3.984986e+03
7.713884e+02,3.973310e+03
7.723526e+02,3.969187e+03
7.733168e+02,3.974083e+03
7.742811e+02,3.982469e+03
7.752453e+02,3.990719e+03
7.762095e+02,3.997145e+03
7.771738e+02,3.999861e+03
7.781380e+02,3.992328e+03
7.791022e+02,3.986114e+03
7.800665e+02,3.987689e+03
7.810307e+02,3.993089e+03
7.819949e+02,3.995316e+03
7.829592e+02,3.992155e+03
7.839234e+02,3.988779e+03
7.848876e+02,3.987430e+03
7.858519e+02,3.986276e+03
7.868161e+02,3.982667e+03
7.877803e+02,3.975071e+03
7.887446e+02,3.965783e+03
7.897088e+02,3.958110e+03
7.906730e+02,3.953555e+03
7.916373e+02,3.953809e+03
7.926015e+02,3.958250e+03
7.935657e+02,3.961939e+03
7.945300e+02,3.959344e+03
7.954942e+02,3.949046e+03
7.964584e+02,3.940573e+03
7.974227e+02,3.940738e+03
7.983869e+02,3.946070e+03
7.993511e+02,3.947733e+03
8.003154e+02,3.941172e+03
8.012796e+02,3.932110e+03
8.022438e+02,3.919688e+03
8.032081e+02,3.909419e+03
8.041723e+02,3.906425e+03
8.051365e+02,3.911434e+03
8.061008e+02,3.918131e+03
8.070650e+02,3.923323e+03
8.080292e+02,3.925272e+03
8.089935e+02,3.921562e+03
8.099577e+02,3.913092e+03
8.109219e+02,3.904750e+03
8.118862e+02,3.901757e+03
8.128504e+02,3.903876e+03
8.138146e+02,3.904590e+03
8.147789e+02,3.903265e+03
8.157431e+02,3.899031e+03
8.167073e+02,3.891140e+03
8.176716e+02,3.880158e+03
8.186358e+02,3.874595e+03
8.196000e+02,3.878981e+03
8.205643e+02,3.884080e+03
8.215285e+02,3.883885e+03
8.224927e+02,3.878807e+03
8.234570e+02,3.874771e+03
8.244212e+02,3.876717e+03
8.253854e+02,3.877406e+03
8.263497e+02,3.868622e+03
8.273139e+02,3.852767e+03
8.282781e+02,3.839820e+03
8.292424e+02,3.839736e+03
8.302066e+02,3.846491e+03
8.311708e+02,3.849938e+03
8.321351e+02,3.850844e+03
8.330993e+02,3.853564e+03
8.340635e+02,3.860349e+03
8.350278e+02,3.868483e+03
8.359920e+02,3.870212e+03
8.369562e+02,3.864412e+03
8.379205e+02,3.858944e+03
8.388847e+02,3.856554e+03
8.398489e+02,3.856138e+03
8.408132e+02,3.854201e+03
8.417774e+02,3.849528e+03
8.427416e+02,3.843706e+03
8.437059e+02,3.836062e+03
8.446701e+02,3.827966e+03
8.456343e+02,3.820846e+03
8.465986e+02,3.813314e+03
8.475628e+02,3.808930e+03
8.485270e+02,3.811383e+03
8.494913e+02,3.816118e+03
8.504555e+02,3.818938e+03
8.514197e+02,3.819260e+03
8.523840e+02,3.819555e+03
8.533482e+02,3.823707e+03
8.543124e+02,3.827516e+03
8.552767e+02,3.820444e+03
8.562409e+02,3.801403e+03
8.572051e+02,3.783979e+03
8.581694e+02,3.787312e+03
8.591336e+02,3.809411e+03
8.600978e+02,3.818753e+03
8.610621e+02,3.813109e+03
8.620263e+02,3.803628e+03
8.629905e+02,3.797082e+03
8.639548e+02,3.792296e+03
8.649190e+02,3.785439e+03
8.658832e+02,3.775827e+03
8.668475e+02,3.768740e+03
8.678117e+02,3.767170e+03
8.687759e+02,3.769832e+03
8.697402e+02,3.772750e+03
8.707044e+02,3.775025e+03
8.716686e+02,3.774191e+03
8.726329e+02,3.770375e+03
8.735971e+02,3.765578e+03
8.745613e+02,3.761964e+03
8.755256e+02,3.764249e+03
8.764898e+02,3.765854e+03
8.774540e+02,3.757592e+03
8.784183e+02,3.745060e+03
8.793825e+02,3.739578e+03
8.803467e+02,3.746476e+03
8.813110e+02,3.756240e+03
8.822752e+02,3.757443e+03
8.832394e+02,3.752740e+03
8.842037e+02,3.748323e+03
8.851679e+02,3.744554e+03
8.861321e+02,3.741320e+03
8.870964e+02,3.739974e+03
8.880606e+02,3.740438e+03
8.890248e+02,3.738316e+03
8.899891e+02,3.734073e+03
8.909533e+02,3.730045e+03
8.919175e+02,3.727826e+03
8.928818e+02,3.728225e+03
8.938460e+02,3.725969e+03
8.948102e+02,3.713492e+03
8.957745e+02,3.704670e+03
8.967387e+02,3.713058e+03
8.977029e+02,3.736678e+03
8.986672e+02,3.746000e+03
8.996314e+02,3.728457e+03
9.005956e+02,3.710729e+03
9.015599e+02,3.703797e+03
9.025241e+02,3.704430e+03
9.034883e+02,3.704013e+03
9.044526e+02,3.697664e+03
9.054168e+02,3.689171e+03
9.063810e+02,3.684018e+03
9.073453e+02,3.682030e+03
9.083095e+02,3.678871e+03
9.092737e+02,3.670079e+03
9.102380e+02,3.661043e+03
9.112022e+02,3.660259e+03
9.121664e+02,3.664146e+03
9.131307e+02,3.663935e+03
9.140949e+02,3.658114e+03
9.150591e+02,3.652755e+03
9.160234e+02,3.654972e+03
9.169876e+02,3.661642e+03
9.179518e+02,3.661772e+03
9.189161e+02,3.653240e+03
9.198803e+02,3.642476e+03
9.208445e+02,3.638215e+03
9.218088e+02,3.642983e+03
9.227730e+02,3.642680e+03
9.237372e+02,3.633491e+03
9.247015e+02,3.624852e+03
9.256657e+02,3.624268e+03
9.266299e+02,3.631999e+03
9.275942e+02,3.633183e+03
9.285584e+02,3.620199e+03
9.295226e+02,3.608165e+03
9.304869e+02,3.603328e+03
9.314511e+02,3.604640e+03
9.324153e+02,3.606982e+03
9.333796e+02,3.610917e+03
9.343438e+02,3.614516e+03
9.353080e+02,3.617184e+03
9.362723e+02,3.617401e+03
9.372365e+02,3.614859e+03
9.382007e+02,3.612272e+03
9.391650e+02,3.607407e+03
9.401292e+02,3.594385e+03
9.410934e+02,3.580246e+03
9.420577e+02,3.572991e+03
9.430219e+02,3.574589e+03
9.439861e+02,3.577647e+03
9.449504e+02,3.577243e+03
9.459146e+02,3.577598e+03
9.468788e+02,3.584167e+03
9.478431e+02,3.594684e+03
9.488073e+02,3.600409e+03
9.497715e+02,3.593285e+03
9.507358e+02,3.578938e+03
9.517000e+02,3.569131e+03
9.526642e+02,3.564895e+03
9.536285e+02,3.561627e+03
9.545927e+02,3.555202e+03
9.555569e+02,3.547147e+03
9.565212e+02,3.544097e+03
9.574854e+02,3.547461e+03
9.584496e+02,3.548692e+03
9.594139e+02,3.541796e+03
9.603781e+02,3.530413e+03
9.613423e+02,3.527679e+03
9.623066e+02,3.536513e+03
9.632708e+02,3.540929e+03
9.642350e+02,3.537872e+03
9.651993e+02,3.531214e+03
9.661635e+02,3.524524e+03
9.671277e+02,3.515052e+03
9.680920e+02,3.509270e+03
9.690562e+02,3.509124e+03
9.700204e+02,3.510153e+03
9.709847e+02,3.511118e+03
9.719489e+02,3.514106e+03
9.729131e+02,3.511938e+03
9.738774e+02,3.497344e+03
9.748416e+02,3.486669e+03
9.758058e+02,3.487603e+03
9.767701e+02,3.496970e+03
9.777343e+02,3.502956e+03
9.786985e+02,3.501322e+03
9.796628e+02,3.497978e+03
9.806270e+02,3.494962e+03
9.815912e+02,3.492106e+03
9.825555e+02,3.489381e+03
9.835197e+02,3.491080e+03
9.844839e+02,3.489869e+03
9.854482e+02,3.479355e+03
9.864124e+02,3.466617e+03
9.873766e+02,3.458858e+03
9.883409e+02,3.458488e+03
9.893051e+02,3.460460e+03
9.902693e+02,3.463223e+03
9.912336e+02,3.466120e+03
9.921978e+02,3.466844e+03
9.931620e+02,3.464432e+03
9.941263e+02,3.461058e+03
9.950905e+02,3.458286e+03
9.960547e+02,3.456192e+03
9.970190e+02,3.455421e+03
9.979832e+02,3.455035e+03
9.989474e+02,3.452918e+03
9.999117e+02,3.448954e+03
1.000876e+03,3.444128e+03
1.001840e+03,3.438270e+03
1.002804e+03,3.432896e+03
1.003769e+03,3.431051e+03
1.004733e+03,3.433424e+03
1.005697e+03,3.435824e+03
1.006661e+03,3.430894e+03
1.007626e+03,3.420997e+03
1.008590e+03,3.416661e+03
1.009554e+03,3.419248e+03
1.010518e+03,3.421969e+03
1.011482e+03,3.416603e+03
1.012447e+03,3.404553e+03
1.013411e+03,3.398981e+03
1.014375e+03,3.402495e+03
1.015339e+03,3.406837e+03
1.016304e+03,3.405034e+03
1.017268e+03,3.397877e+03
1.018232e+03,3.391155e+03
1.019196e+03,3.384091e+03
1.020161e+03,3.380522e+03
1.021125e+03,3.384063e+03
1.022089e+03,3.391621e+03
1.023053e+03,3.391213e+03
1.024018e+03,3.379132e+03
1.024982e+03,3.371257e+03
1.025946e+03,3.370640e+03
1.026910e+03,3.372772e+03
1.027875e+03,3.374655e+03
1.028839e+03,3.379516e+03
1.029803e+03,3.378323e+03
1.030767e+03,3.367614e+03
1.031731e+03,3.357272e+03
1.032696e+03,3.354120e+03
1.033660e+03,3.358213e+03
1.034624e+03,3.359710e+03
1.035588e+03,3.357974e+03
1.036552e+03,3.357215e+03
1.037517e+03,3.358847e+03
1.038481e+03,3.361066e+03
1.039445e+03,3.360614e+03
1.040409e+03,3.356204e+03
1.041374e+03,3.351655e+03
1.042338e+03,3.350320e+03
1.043302e+03,3.348982e+03
1.044266e+03,3.342124e+03
1.045231e+03,3.322088e+03
1.046195e+03,3.309572e+03
1.047159e+03,3.311579e+03
1.048123e+03,3.316439e+03
1.049088e+03,3.316092e+03
1.050052e+03,3.310655e+03
1.051016e+03,3.307828e+03
1.051980e+03,3.306468e+03
1.052945e+03,3.308133e+03
1.053909e+03,3.314844e+03
1.054873e+03,3.322998e+03
1.055837e+03,3.325057e+03
1.056802e+03,3.315945e+03
1.057766e+03,3.308870e+03
1.058730e+03,3.308364e+03
1.059694e+03,3.311083e+03
1.060658e+03,3.312461e+03
1.061623e+03,3.313804e+03
1.062587e+03,3.312323e+03
1.063551e+03,3.305699e+03
1.064515e+03,3.298065e+03
1.065479e+03,3.291223e+03
1.066444e+03,3.285956e+03
1.067408e+03,3.282427e+03
1.068372e+03,3.277017e+03
1.069336e+03,3.276898e+03
1.070301e+03,3.288116e+03
1.071265e+03,3.305596e+03
1.072229e+03,3.316238e+03
1.073193e+03,3.312904e+03
1.074158e+03,3.308282e+03
1.075122e+03,3.307750e+03
1.076086e+03,3.306951e+03
1.077050e+03,3.300285e+03
1.078015e+03,3.283744e+03
1.078979e+03,3.274221e+03
1.079943e+03,3.278487e+03
1.080907e+03,3.287195e+03
1.081872e+03,3.294014e+03
1.082836e+03,3.297431e+03
1.083800e+03,3.297688e+03
1.084764e+03,3.292592e+03
1.085729e+03,3.288389e+03
1.086693e+03,3.288313e+03
1.087657e+03,3.290578e+03
1.088621e+03,3.291219e+03
1.089585e+03,3.289498e+03
1.090550e+03,3.284427e+03
1.091514e+03,3.276610e+03
1.092478e+03,3.267534e+03
1.093442e+03,3.257665e+03
1.094406e+03,3.246285e+03
1.095371e+03,3.237524e+03
1.096335e+03,3.230953e+03
1.097299e+03,3.226981e+03
1.098263e+03,3.227663e+03
1.099228e+03,3.232199e+03
1.100192e+03,3.233099e+03
1.101156e+03,3.222669e+03
1.102120e+03,3.214652e+03
1.103085e+03,3.219846e+03
1.104049e+03,3.230521e+03
1.105013e+03,3.230929e+03
1.105977e+03,3.204853e+03
1.106942e+03,3.187149e+03
1.107906e+03,3.188562e+03
1.108870e+03,3.197588e+03
1.109834e+03,3.205150e+03
1.110799e+03,3.211961e+03
1.111763e+03,3.211781e+03
1.112727e+03,3.195897e+03
1.113691e+03,3.181477e+03
1.114656e+03,3.177042e+03
1.115620e+03,3.181621e+03
1.116584e+03,3.186845e+03
1.117548e+03,3.191185e+03
1.118512e+03,3.194642e+03
1.119477e+03,3.200084e+03
1.120441e+03,3.203977e+03
1.121405e+03,3.201278e+03
1.122369e+03,3.184821e+03
1.123334e+03,3.173003e+03
1.124298e+03,3.171166e+03
1.125262e+03,3.170377e+03
1.126226e+03,3.163229e+03
1.127191e+03,3.148451e+03
1.128155e+03,3.141154e+03
1.129119e+03,3.144070e+03
1.130083e+03,3.149427e+03
1.131047e+03,3.156891e+03
1.132012e+03,3.163496e+03
1.132976e+03,3.161240e+03
1.133940e+03,3.144297e+03
1.134904e+03,3.129864e+03
1.135869e+03,3.121753e+03
1.136833e+03,3.117505e+03
1.137797e+03,3.114207e+03
1.138761e+03,3.112547e+03
1.139726e+03,3.113172e+03
1.140690e+03,3.115869e+03
1.141654e+03,3.120262e+03
1.142618e+03,3.127401e+03
1.143583e+03,3.136284e+03
1.144547e+03,3.136207e+03
1.145511e+03,3.124496e+03
1.146475e+03,3.113363e+03
1.147439e+03,3.105766e+03
1.148404e+03,3.101625e+03
1.149368e+03,3.100382e+03
1.150332e+03,3.102025e+03
1.151296e+03,3.102866e+03
1.152261e+03,3.101238e+03
1.153225e+03,3.096434e+03
1.154189e+03,3.089906e+03
1.155153e+03,3.082928e+03
1.156118e+03,3.074084e+03
1.157082e+03,3.064191e+03
1.158046e+03,3.060698e+03
1.159010e+03,3.067248e+03
1.159974e+03,3.078189e+03
1.160939e+03,3.081278e+03
1.161903e+03,3.077093e+03
1.162867e+03,3.073802e+03
1.163831e+03,3.072927e+03
1.164796e+03,3.072355e+03
1.165760e+03,3.071999e+03
1.166724e+03,3.071122e+03
1.167688e+03,3.065132e+03
1.168653e+03,3.054774e+03
1.169617e+03,3.045626e+03
1.170581e+03,3.042554e+03
1.171545e+03,3.041811e+03
1.172510e+03,3.036089e+03
1.173474e+03,3.028566e+03
1.174438e+03,3.026448e+03
1.175402e+03,3.031976e+03
1.176366e+03,3.038672e+03
1.177331e+03,3.041996e+03
1.178295e+03,3.043189e+03
1.179259e+03,3.042665e+03
1.180223e+03,3.040197e+03
1.181188e+03,3.037093e+03
1.182152e+03,3.035120e+03
1.183116e+03,3.032141e+03
1.184080e+03,3.026063e+03
1.185045e+03,3.019302e+03
1.186009e+03,3.015265e+03
1.186973e+03,3.016784e+03
1.187937e+03,3.019388e+03
1.188901e+03,3.023120e+03
1.189866e+03,3.025081e+03
1.190830e+03,3.020964e+03
1.191794e+03,3.009680e+03
1.192758e+03,3.000657e+03
1.193723e+03,2.999347e+03
1.194687e+03,2.999218e+03
1.195651e+03,2.996218e+03
1.196615e+03,2.991885e+03
1.197580e+03,2.990489e+03
1.198544e+03,2.996109e+03
1.199508e+03,2.993844e+03
1.200472e+03,2.978766e+03
1.201437e+03,2.962660e+03
1.202401e+03,2.956247e+03
1.203365e+03,2.961667e+03
1.204329e+03,2.966049e+03
1.205293e+03,2.969559e+03
1.206258e+03,2.970131e+03
1.207222e+03,2.964998e+03
1.208186e+03,2.956872e+03
1.209150e+03,2.956148e+03
1.210115e+03,2.963034e+03
1.211079e+03,2.965662e+03
1.212043e+03,2.961699e+03
1.213007e+03,2.955336e+03
1.213972e+03,2.952483e+03
1.214936e+03,2.953165e+03
1.215900e+03,2.952185e+03
1.216864e+03,2.949700e+03
1.217828e+03,2.948556e+03
1.218793e+03,2.951255e+03
1.219757e+03,2.955122e+03
1.220721e+03,2.955044e+03
1.221685e+03,2.952581e+03
1.222650e+03,2.950260e+03
1.223614e+03,2.947729e+03
1.224578e+03,2.945620e+03
1.225542e+03,2.945831e+03
1.226507e+03,2.947878e+03
1.227471e+03,2.953876e+03
1.228435e+03,2.960577e+03
1.229399e+03,2.958231e+03
1.230364e+03,2.933091e+03
1.231328e+03,2.909158e+03
1.232292e+03,2.902733e+03
1.233256e+03,2.905665e+03
1.234220e+03,2.905614e+03
1.235185e+03,2.899531e+03
1.236149e+03,2.895161e+03
1.237113e+03,2.894100e+03
1.238077e+03,2.895954e+03
1.239042e+03,2.899613e+03
1.240006e+03,2.903541e+03
1.240970e+03,2.905950e+03
1.241934e+03,2.906989e+03
1.242899e+03,2.905986e+03
1.243863e+03,2.903458e+03
1.244827e+03,2.899652e+03
1.245791e+03,2.894215e+03
1.246755e+03,2.886763e+03
1.247720e+03,2.879525e+03
1.248684e+03,2.872457e+03
1.249648e+03,2.868075e+03
1.250612e+03,2.868649e+03
1.251577e+03,2.871604e+03
1.252541e+03,2.868192e+03
1.253505e+03,2.859266e+03
1.254469e+03,2.855087e+03
1.255434e+03,2.859752e+03
1.256398e+03,2.865315e+03
1.257362e+03,2.858869e+03
1.258326e+03,2.846699e+03
1.259291e+03,2.843121e+03
1.260255e+03,2.846898e+03
1.261219e+03,2.847004e+03
1.262183e+03,2.831003e+03
1.263147e+03,2.817757e+03
1.264112e+03,2.826727e+03
1.265076e+03,2.845146e+03
1.266040e+03,2.853157e+03
1.267004e+03,2.843293e+03
1.267969e+03,2.833353e+03
1.268933e+03,2.828426e+03
1.269897e+03,2.827865e+03
1.270861e+03,2.831601e+03
1.271826e+03,2.836521e+03
1.272790e+03,2.835018e+03
1.273754e+03,2.822810e+03
1.274718e+03,2.813714e+03
1.275682e+03,2.812780e+03
1.276647e+03,2.815459e+03
1.277611e+03,2.815378e+03
1.278575e+03,2.811947e+03
1.279539e+03,2.806461e+03
1.280504e+03,2.799873e+03
1.281468e+03,2.795998e+03
1.282432e+03,2.796763e+03
1.283396e+03,2.800398e+03
1.284361e+03,2.802753e+03
1.285325e+03,2.803505e+03
1.286289e+03,2.804621e+03
1.287253e+03,2.806563e+03
1.288218e+03,2.805551e+03
1.289182e+03,2.794335e+03
1.290146e+03,2.781492e+03
1.291110e+03,2.779580e+03
1.292074e+03,2.786578e+03
1.293039e+03,2.791583e+03
1.294003e+03,2.789850e+03
1.294967e+03,2.783700e+03
1.295931e+03,2.770012e+03
1.296896e+03,2.756421e+03
1.297860e+03,2.751755e+03
1.298824e+03,2.759823e+03
1.299788e+03,2.761670e+03
1.300753e+03,2.748477e+03
1.301717e+03,2.740043e+03
1.302681e+03,2.746739e+03
1.303645e+03,2.762437e+03
1.304609e+03,2.768964e+03
1.305574e+03,2.763597e+03
1.306538e+03,2.760508e+03
1.307502e+03,2.763537e+03
1.308466e+03,2.767136e+03
1.309431e+03,2.764233e+03
1.310395e+03,2.756867e+03
1.311359e+03,2.751023e+03
1.312323e+03,2.745633e+03
1.313288e+03,2.740608e+03
1.314252e+03,2.737163e+03
1.315216e+03,2.736106e+03
1.316180e+03,2.738085e+03
1.317145e+03,2.741767e+03
1.318109e+03,2.744505e+03
1.319073e+03,2.745049e+03
1.320037e+03,2.745991e+03
1.321001e+03,2.751879e+03
1.321966e+03,2.754719e+03
1.322930e+03,2.749591e+03
1.323894e+03,2.741500e+03
1.324858e+03,2.738210e+03
1.325823e+03,2.743878e+03
1.326787e+03,2.743791e+03
1.327751e+03,2.734311e+03
1.328715e+03,2.724796e+03
1.329680e+03,2.722251e+03
1.330644e+03,2.724949e+03
1.331608e+03,2.724123e+03
1.332572e+03,2.719923e+03
1.333536e+03,2.717532e+03
1.334501e+03,2.718009e+03
1.335465e+03,2.719563e+03
1.336429e+03,2.724640e+03
1.337393e+03,2.729072e+03
1.338358e+03,2.723454e+03
1.339322e+03,2.709997e+03
1.340286e+03,2.699621e+03
1.341250e+03,2.701391e+03
1.342215e+03,2.702703e+03
1.343179e+03,2.698468e+03
1.344143e+03,2.693356e+03
1.345107e+03,2.690781e+03
1.346072e+03,2.690699e+03
1.347036e+03,2.690095e+03
1.348000e+03,2.687742e+03
1.348964e+03,2.685755e+03
1.349928e+03,2.686519e+03
1.350893e+03,2.688513e+03
1.351857e+03,2.684678e+03
1.352821e+03,2.674847e+03
1.353785e+03,2.671281e+03
1.354750e+03,2.675208e+03
1.355714e+03,2.679737e+03
1.356678e+03,2.681677e+03
1.357642e+03,2.681399e+03
1.358607e+03,2.675583e+03
1.359571e+03,2.666634e+03
1.360535e+03,2.660731e+03
1.361499e+03,2.661164e+03
1.362464e+03,2.662865e+03
1.363428e+03,2.666185e+03
1.364392e+03,2.668606e+03
1.365356e+03,2.665816e+03
1.366320e+03,2.657277e+03
1.367285e+03,2.650835e+03
1.368249e+03,2.648304e+03
1.369213e+03,2.646879e+03
1.370177e+03,2.646990e+03
1.371142e+03,2.646085e+03
1.372106e+03,2.640385e+03
1.373070e+03,2.630728e+03
1.374034e+03,2.622302e+03
1.374999e+03,2.616152e+03
1.375963e+03,2.615296e+03
1.376927e+03,2.623108e+03
1.377891e+03,2.632028e+03
1.378855e+03,2.634168e+03
1.379820e+03,2.631879e+03
1.380784e+03,2.627352e+03
1.381748e+03,2.621779e+03
1.382712e+03,2.618469e+03
1.383677e+03,2.618490e+03
1.384641e+03,2.618081e+03
1.385605e+03,2.614966e+03
1.386569e+03,2.610934e+03
1.387534e+03,2.609902e+03
1.388498e+03,2.613550e+03
1.389462e+03,2.611597e+03
1.390426e+03,2.602299e+03
1.391391e+03,2.592482e+03
1.392355e+03,2.586527e+03
1.393319e+03,2.584641e+03
1.394283e+03,2.588069e+03
1.395247e+03,2.594353e+03
1.396212e+03,2.598637e+03
1.397176e+03,2.599817e+03
1.398140e+03,2.599651e+03
1.399104e+03,2.597350e+03
1.400069e+03,2.594687e+03
1.401033e+03,2.594299e+03
1.401997e+03,2.594493e+03
1.402961e+03,2.590302e+03
1.403926e+03,2.577684e+03
1.404890e+03,2.569666e+03
1.405854e+03,2.568913e+03
1.406818e+03,2.569147e+03
1.407782e+03,2.565295e+03
1.408747e+03,2.559755e+03
1.409711e+03,2.559737e+03
1.410675e+03,2.562507e+03
1.411639e+03,2.561242e+03
1.412604e+03,2.553807e+03
1.413568e+03,2.547568e+03
1.414532e+03,2.552460e+03
1.415496e+03,2.559574e+03
1.416461e+03,2.558440e+03
1.417425e+03,2.550615e+03
1.418389e+03,2.546604e+03
1.419353e+03,2.553358e+03
1.420318e+03,2.556571e+03
1.421282e+03,2.555885e+03
1.422246e+03,2.552638e+03
1.423210e+03,2.546087e+03
1.424174e+03,2.537753e+03
1.425139e+03,2.536617e+03
1.426103e+03,2.541207e+03
1.427067e+03,2.545769e+03
1.428031e+03,2.549185e+03
1.428996e+03,2.548760e+03
1.429960e+03,2.537084e+03
1.430924e+03,2.522754e+03
1.431888e+03,2.514420e+03
1.432853e+03,2.512176e+03
1.433817e+03,2.511845e+03
1.434781e+03,2.516340e+03
1.435745e+03,2.518111e+03
1.436709e+03,2.513325e+03
1.437674e+03,2.507466e+03
1.438638e+03,2.506832e+03
1.439602e+03,2.511451e+03
1.440566e+03,2.514289e+03
1.441531e+03,2.515108e+03
1.442495e+03,2.513547e+03
1.443459e+03,2.508189e+03
1.444423e+03,2.504554e+03
1.445388e+03,2.510177e+03
1.446352e+03,2.518007e+03
1.447316e+03,2.522206e+03
1.448280e+03,2.523331e+03
1.449245e+03,2.522708e+03
1.450209e+03,2.518220e+03
1.451173e+03,2.515345e+03
1.452137e+03,2.513727e+03
1.453101e+03,2.512194e+03
1.454066e+03,2.510886e+03
1.455030e+03,2.509729e+03
1.455994e+03,2.506381e+03
1.456958e+03,2.501329e+03
1.457923e+03,2.498543e+03
1.458887e+03,2.499301e+03
1.459851e+03,2.500218e+03
1.460815e+03,2.499530e+03
1.461780e+03,2.496008e+03
1.462744e+03,2.489207e+03
1.463708e+03,2.480047e+03
1.464672e+03,2.470815e+03
1.465636e+03,2.460930e+03
1.466601e+03,2.454981e+03
1.467565e+03,2.453710e+03
1.468529e+03,2.455875e+03
1.469493e+03,2.461985e+03
1.470458e+03,2.469153e+03
1.471422e+03,2.466020e+03
1.472386e+03,2.455980e+03
1.473350e+03,2.449778e+03
1.474315e+03,2.451067e+03
1.475279e+03,2.455076e+03
1.476243e+03,2.461334e+03
1.477207e+03,2.466181e+03
1.478172e+03,2.467943e+03
1.479136e+03,2.467003e+03
1.480100e+03,2.464364e+03
1.481064e+03,2.460108e+03
1.482028e+03,2.454321e+03
1.482993e+03,2.446830e+03
1.483957e+03,2.441205e+03
1.484921e+03,2.442814e+03
1.485885e+03,2.446384e+03
1.486850e+03,2.438351e+03
1.487814e+03,2.424087e+03
1.488778e+03,2.417670e+03
1.489742e+03,2.426027e+03
1.490707e+03,2.433065e+03
1.491671e+03,2.435199e+03
1.492635e+03,2.435873e+03
1.493599e+03,2.435786e+03
1.494563e+03,2.433868e+03
1.495528e+03,2.426974e+03
1.496492e+03,2.415118e+03
1.497456e+03,2.412372e+03
1.498420e+03,2.420800e+03
1.499385e+03,2.427665e+03
1.500349e+03,2.418805e+03
1.501313e+03,2.408539e+03
1.502277e+03,2.410436e+03
1.503242e+03,2.418056e+03
1.504206e+03,2.421962e+03
1.505170e+03,2.419038e+03
1.506134e+03,2.416716e+03
1.507099e+03,2.415573e+03
1.508063e+03,2.414158e+03
1.509027e+03,2.411875e+03
1.509991e+03,2.409121e+03
1.510955e+03,2.408573e+03
1.511920e+03,2.407582e+03
1.512884e+03,2.396950e+03
1.513848e+03,2.379355e+03
1.514812e+03,2.369979e+03
1.515777e+03,2.380126e+03
1.516741e+03,2.391247e+03
1.517705e+03,2.401069e+03
1.518669e+03,2.405137e+03
1.519634e+03,2.397751e+03
1.520598e+03,2.379537e+03
1.521562e+03,2.371892e+03
1.522526e+03,2.373679e+03
1.523490e+03,2.376698e+03
1.524455e+03,2.378917e+03
1.525419e+03,2.379419e+03
1.526383e+03,2.377672e+03
1.527347e+03,2.373888e+03
1.528312e+03,2.368882e+03
1.529276e+03,2.363573e+03
1.530240e+03,2.357304e+03
1.531204e+03,2.346458e+03
1.532169e+03,2.342886e+03
1.533133e+03,2.348890e+03
1.534097e+03,2.356043e+03
1.535061e+03,2.358680e+03
1.536026e+03,2.356994e+03
1.536990e+03,2.350093e+03
1.537954e+03,2.340707e+03
1.538918e+03,2.333628e+03
1.539882e+03,2.329857e+03
1.540847e+03,2.326968e+03
1.541811e+03,2.321391e+03
1.542775e+03,2.319677e+03
1.543739e+03,2.326605e+03
1.544704e+03,2.336515e+03
1.545668e+03,2.338542e+03
1.546632e+03,2.334880e+03
1.547596e+03,2.335151e+03
1.548561e+03,2.339075e+03
1.549525e+03,2.341669e+03
1.550489e+03,2.338040e+03
1.551453e+03,2.333983e+03
1.552417e+03,2.331793e+03
1.553382e+03,2.330472e+03
1.554346e+03,2.329301e+03
1.555310e+03,2.329018e+03
1.556274e+03,2.334466e+03
1.557239e+03,2.345118e+03
1.558203e+03,2.346366e+03
1.559167e+03,2.334152e+03
1.560131e+03,2.321917e+03
1.561096e+03,2.319297e+03
1.562060e+03,2.324328e+03
1.563024e+03,2.340516e+03
1.563988e+03,2.361777e+03
1.564953e+03,2.373884e+03
1.565917e+03,2.371583e+03
1.566881e+03,2.377826e+03
1.567845e+03,2.394044e+03
1.568809e+03,2.404661e+03
1.569774e+03,2.399130e+03
1.570738e+03,2.388923e+03
1.571702e+03,2.391317e+03
1.572666e+03,2.397334e+03
1.573631e+03,2.395217e+03
1.574595e+03,2.384340e+03
1.575559e+03,2.373048e+03
1.576523e+03,2.360808e+03
1.577488e+03,2.352571e+03
1.578452e+03,2.348497e+03
1.579416e+03,2.345776e+03
1.580380e+03,2.342967e+03
1.581344e+03,2.339665e+03
1.582309e+03,2.335309e+03
1.583273e+03,2.330163e+03
1.584237e+03,2.324068e+03
1.585201e+03,2.316958e+03
1.586166e+03,2.308945e+03
1.587130e+03,2.297397e+03
1.588094e+03,2.288879e+03
1.589058e+03,2.288260e+03
1.590023e+03,2.290608e+03
1.590987e+03,2.282642e+03
1.591951e+03,2.270692e+03
1.592915e+03,2.269785e+03
1.593880e+03,2.278898e+03
1.594844e+03,2.284780e+03
1.595808e+03,2.280342e+03
1.596772e+03,2.274750e+03
1.597736e+03,2.270196e+03
1.598701e+03,2.266413e+03
1.599665e+03,2.261675e+03
1.600629e+03,2.257332e+03
1.601593e+03,2.262037e+03
1.602558e+03,2.271941e+03
1.603522e+03,2.274510e+03
1.604486e+03,2.264895e+03
1.605450e+03,2.254463e+03
1.606415e+03,2.247099e+03
1.607379e+03,2.242997e+03
1.608343e+03,2.242727e+03
1.609307e+03,2.243914e+03
1.610271e+03,2.242251e+03
1.611236e+03,2.238302e+03
1.612200e+03,2.236147e+03
1.613164e+03,2.236383e+03
1.614128e+03,2.237325e+03
1.615093e+03,2.235059e+03
1.616057e+03,2.236565e+03
1.617021e+03,2.251505e+03
1.617985e+03,2.261199e+03
1.618950e+03,2.251868e+03
1.619914e+03,2.230214e+03
1.620878e+03,2.222892e+03
1.621842e+03,2.226886e+03
1.622807e+03,2.229557e+03
1.623771e+03,2.228720e+03
1.624735e+03,2.228613e+03
1.625699e+03,2.231211e+03
1.626663e+03,2.233358e+03
1.627628e+03,2.233635e+03
1.628592e+03,2.231654e+03
1.629556e+03,2.228075e+03
1.630520e+03,2.224304e+03
1.631485e+03,2.223136e+03
1.632449e+03,2.223339e+03
1.633413e+03,2.220407e+03
1.634377e+03,2.211529e+03
1.635342e+03,2.202833e+03
1.636306e+03,2.194643e+03
1.637270e+03,2.190552e+03
1.638234e+03,2.194228e+03
1.639198e+03,2.200813e+03
1.640163e+03,2.195714e+03
1.641127e+03,2.183323e+03
1.642091e+03,2.176184e+03
1.643055e+03,2.174688e+03
1.644020e+03,2.174750e+03
1.644984e+03,2.175847e+03
1.645948e+03,2.174907e+03
1.646912e+03,2.171327e+03
1.647877e+03,2.167225e+03
1.648841e+03,2.165334e+03
1.649805e+03,2.164228e+03
1.650769e+03,2.155896e+03
1.651734e+03,2.144248e+03
1.652698e+03,2.140337e+03
1.653662e+03,2.147223e+03
1.654626e+03,2.154122e+03
1.655590e+03,2.160733e+03
1.656555e+03,2.162603e+03
1.657519e+03,2.158080e+03
1.658483e+03,2.152425e+03
1.659447e+03,2.151290e+03
1.660412e+03,2.152504e+03
1.661376e+03,2.154309e+03
1.662340e+03,2.157049e+03
1.663304e+03,2.160395e+03
1.664269e+03,2.164522e+03
1.665233e+03,2.166099e+03
1.666197e+03,2.164288e+03
1.667161e+03,2.160162e+03
1.668125e+03,2.154323e+03
1.669090e+03,2.147984e+03
1.670054e+03,2.142280e+03
1.671018e+03,2.137901e+03
1.671982e+03,2.136275e+03
1.672947e+03,2.137715e+03
1.673911e+03,2.141776e+03
1.674875e+03,2.149023e+03
1.675839e+03,2.150081e+03
1.676804e+03,2.144225e+03
1.677768e+03,2.138356e+03
1.678732e+03,2.138667e+03
1.679696e+03,2.139466e+03
1.680661e+03,2.134844e+03
1.681625e+03,2.126719e+03
1.682589e+03,2.118799e+03
1.683553e+03,2.111842e+03
1.684517e+03,2.112931e+03
1.685482e+03,2.121372e+03
1.686446e+03,2.124560e+03
1.687410e+03,2.117662e+03
1.688374e+03,2.110875e+03
1.689339e+03,2.111461e+03
1.690303e+03,2.114926e+03
1.691267e+03,2.120699e+03
1.692231e+03,2.126180e+03
1.693196e+03,2.125834e+03
1.694160e+03,2.119688e+03
1.695124e+03,2.110947e+03
1.696088e+03,2.101290e+03
1.697052e+03,2.096373e+03
1.698017e+03,2.100534e+03
1.698981e+03,2.103432e+03
1.699945e+03,2.102027e+03
1.700909e+03,2.097319e+03
1.701874e+03,2.090077e+03
1.702838e+03,2.083983e+03
1.703802e+03,2.085875e+03
1.704766e+03,2.091269e+03
1.705731e+03,2.093774e+03
1.706695e+03,2.093160e+03
1.707659e+03,2.093061e+03
1.708623e+03,2.096315e+03
1.709588e+03,2.096656e+03
1.710552e+03,2.091954e+03
1.711516e+03,2.084518e+03
1.712480e+03,2.073692e+03
1.713444e+03,2.064501e+03
1.714409e+03,2.067236e+03
1.715373e+03,2.074151e+03
1.716337e+03,2.071369e+03
1.717301e+03,2.059008e+03
1.718266e+03,2.055805e+03
1.719230e+03,2.060992e+03
1.720194e+03,2.062421e+03
1.721158e+03,2.055849e+03
1.722123e+03,2.050625e+03
1.723087e+03,2.057997e+03
1.724051e+03,2.063168e+03
1.725015e+03,2.057395e+03
1.725979e+03,2.047748e+03
1.726944e+03,2.043053e+03
1.727908e+03,2.042330e+03
1.728872e+03,2.041255e+03
1.729836e+03,2.039605e+03
1.730801e+03,2.039581e+03
1.731765e+03,2.041796e+03
1.732729e+03,2.048567e+03
1.733693e+03,2.063955e+03
1.734658e+03,2.072243e+03
1.735622e+03,2.064069e+03
1.736586e+03,2.050501e+03
1.737550e+03,2.047712e+03
1.738515e+03,2.049151e+03
1.739479e+03,2.047509e+03
1.740443e+03,2.042490e+03
1.741407e+03,2.037229e+03
1.742371e+03,2.031576e+03
1.743336e+03,2.028186e+03
1.744300e+03,2.027078e+03
1.745264e+03,2.025575e+03
1.746228e+03,2.021619e+03
1.747193e+03,2.019474e+03
1.748157e+03,2.025506e+03
1.749121e+03,2.031439e+03
1.750085e+03,2.027680e+03
1.751050e+03,2.017306e+03
1.752014e+03,2.018561e+03
1.752978e+03,2.026986e+03
1.753942e+03,2.030128e+03
1.754906e+03,2.025383e+03
1.755871e+03,2.020185e+03
1.756835e+03,2.015667e+03
1.757799e+03,2.006868e+03
1.758763e+03,1.993787e+03
1.759728e+03,1.984934e+03
1.760692e+03,1.990303e+03
1.761656e+03,2.001021e+03
1.762620e+03,2.012033e+03
1.763585e+03,2.018938e+03
1.764549e+03,2.014708e+03
1.765513e+03,1.998986e+03
1.766477e+03,1.993114e+03
1.767442e+03,1.995725e+03
1.768406e+03,1.994375e+03
1.769370e+03,1.984380e+03
1.770334e+03,1.977898e+03
1.771298e+03,1.984109e+03
1.772263e+03,1.986974e+03
1.773227e+03,1.981289e+03
1.774191e+03,1.974483e+03
1.775155e+03,1.977825e+03
1.776120e+03,1.984868e+03
1.777084e+03,1.987136e+03
1.778048e+03,1.985223e+03
1.779012e+03,1.981036e+03
1.779977e+03,1.974045e+03
1.780941e+03,1.971986e+03
1.781905e+03,1.973869e+03
1.782869e+03,1.975409e+03
1.783833e+03,1.975560e+03
1.784798e+03,1.973336e+03
1.785762e+03,1.964453e+03
1.786726e+03,1.957127e+03
1.787690e+03,1.956352e+03
1.788655e+03,1.958670e+03
1.789619e+03,1.956711e+03
1.790583e+03,1.952433e+03
1.791547e+03,1.949110e+03
1.792512e+03,1.946983e+03
1.793476e+03,1.945047e+03
1.794440e+03,1.942154e+03
1.795404e+03,1.939361e+03
1.796369e+03,1.936013e+03
1.797333e+03,1.934302e+03
1.798297e+03,1.936200e+03
1.799261e+03,1.939709e+03
1.800225e+03,1.947909e+03
1.801190e+03,1.950044e+03
1.802154e+03,1.936533e+03
1.803118e+03,1.916486e+03
1.804082e+03,1.918161e+03
1.805047e+03,1.932745e+03
1.806011e+03,1.939441e+03
1.806975e+03,1.936115e+03
1.807939e+03,1.930174e+03
1.808904e+03,1.920778e+03
1.809868e+03,1.913449e+03
1.810832e+03,1.909188e+03
1.811796e+03,1.909617e+03
1.812760e+03,1.919679e+03
1.813725e+03,1.929572e+03
1.814689e+03,1.935277e+03
1.815653e+03,1.935406e+03
1.816617e+03,1.926498e+03
1.817582e+03,1.913384e+03
1.818546e+03,1.912678e+03
1.819510e+03,1.919136e+03
1.820474e+03,1.921729e+03
1.821439e+03,1.919008e+03
1.822403e+03,1.917747e+03
1.823367e+03,1.919701e+03
1.824331e+03,1.917510e+03
1.825296e+03,1.909350e+03
1.826260e+03,1.899414e+03
1.827224e+03,1.887906e+03
1.828188e+03,1.882840e+03
1.829152e+03,1.891885e+03
1.830117e+03,1.903576e+03
1.831081e+03,1.909654e+03
1.832045e+03,1.910445e+03
1.833009e+03,1.908621e+03
1.833974e+03,1.905448e+03
1.834938e+03,1.899219e+03
1.835902e+03,1.888236e+03
1.836866e+03,1.881944e+03
1.837831e+03,1.880533e+03
1.838795e+03,1.878524e+03
1.839759e+03,1.875497e+03
1.840723e+03,1.875083e+03
1.841688e+03,1.880556e+03
1.842652e+03,1.886698e+03
1.843616e+03,1.891828e+03
1.844580e+03,1.893945e+03
1.845544e+03,1.890492e+03
1.846509e+03,1.884819e+03
1.847473e+03,1.884393e+03
1.848437e+03,1.884936e+03
1.849401e+03,1.876469e+03
1.850366e+03,1.859214e+03
1.851330e+03,1.850104e+03
1.852294e+03,1.849221e+03
1.853258e+03,1.853406e+03
1.854223e+03,1.862420e+03
1.855187e+03,1.868913e+03
1.856151e+03,1.867469e+03
1.857115e+03,1.863843e+03
1.858079e+03,1.857727e+03
1.859044e+03,1.853808e+03
1.860008e+03,1.862713e+03
1.860972e+03,1.872527e+03
1.861936e+03,1.870017e+03
1.862901e+03,1.860893e+03
1.863865e+03,1.852924e+03
1.864829e+03,1.844674e+03
1.865793e+03,1.830937e+03
1.866758e+03,1.816340e+03
1.867722e+03,1.814431e+03
1.868686e+03,1.831491e+03
1.869650e+03,1.842510e+03
1.870615e+03,1.845266e+03
1.871579e+03,1.840278e+03
1.872543e+03,1.827496e+03
1.873507e+03,1.817599e+03
1.874471e+03,1.818728e+03
1.875436e+03,1.822632e+03
1.876400e+03,1.828611e+03
1.877364e+03,1.832362e+03
1.878328e+03,1.826058e+03
1.879293e+03,1.815582e+03
1.880257e+03,1.812714e+03
1.881221e+03,1.813575e+03
1.882185e+03,1.810221e+03
1.883150e+03,1.802516e+03
1.884114e+03,1.801610e+03
1.885078e+03,1.805791e+03
1.886042e+03,1.805417e+03
1.887006e+03,1.796441e+03
1.887971e+03,1.793588e+03
1.888935e+03,1.808236e+03
1.889899e+03,1.814948e+03
1.890863e+03,1.805713e+03
1.891828e+03,1.793100e+03
1.892792e+03,1.790788e+03
1.893756e+03,1.790977e+03
1.894720e+03,1.790207e+03
1.895685e+03,1.789340e+03
1.896649e+03,1.787252e+03
1.897613e+03,1.783680e+03
1.898577e+03,1.778027e+03
1.899542e+03,1.773190e+03
1.900506e+03,1.776766e+03
1.901470e+03,1.790734e+03
1.902434e+03,1.795239e+03
1.903398e+03,1.790718e+03
1.904363e+03,1.783918e+03
1.905327e+03,1.776337e+03
1.906291e+03,1.771764e+03
1.907255e+03,1.771675e+03
1.908220e+03,1.774399e+03
1.909184e+03,1.780718e+03
1.910148e+03,1.785562e+03
1.911112e+03,1.786156e+03
1.912077e+03,1.782379e+03
1.913041e+03,1.768472e+03
1.914005e+03,1.754760e+03
1.914969e+03,1.753970e+03
1.915933e+03,1.760988e+03
1.916898e+03,1.755950e+03
1.917862e+03,1.744930e+03
1.918826e+03,1.739566e+03
1.919790e+03,1.742408e+03
1.920755e+03,1.746579e+03
1.921719e+03,1.751067e+03
1.922683e+03,1.756217e+03
1.923647e+03,1.762793e+03
1.924612e+03,1.765782e+03
1.925576e+03,1.760390e+03
1.926540e+03,1.754485e+03
1.927504e+03,1.747636e+03
1.928469e+03,1.742100e+03
1.929433e+03,1.741888e+03
1.930397e+03,1.740907e+03
1.931361e+03,1.732995e+03
1.932325e+03,1.724128e+03
1.933290e+03,1.719319e+03
1.934254e+03,1.718968e+03
1.935218e+03,1.723176e+03
1.936182e+03,1.727703e+03
1.937147e+03,1.726756e+03
1.938111e+03,1.721629e+03
1.939075e+03,1.721872e+03
1.940039e+03,1.727041e+03
1.941004e+03,1.727882e+03
1.941968e+03,1.722306e+03
1.942932e+03,1.719444e+03
1.943896e+03,1.724176e+03
1.944860e+03,1.727223e+03
1.945825e+03,1.728595e+03
1.946789e+03,1.726332e+03
1.947753e+03,1.712744e+03
1.948717e+03,1.702468e+03
1.949682e+03,1.702180e+03
1.950646e+03,1.704721e+03
1.951610e+03,1.706976e+03
1.952574e+03,1.708352e+03
1.953539e+03,1.707542e+03
1.954503e+03,1.705503e+03
1.955467e+03,1.703887e+03
1.956431e+03,1.702524e+03
1.957396e+03,1.697940e+03
1.958360e+03,1.692427e+03
1.959324e+03,1.695029e+03
1.960288e+03,1.704805e+03
1.961252e+03,1.706519e+03
1.962217e+03,1.697668e+03
1.963181e+03,1.693115e+03
1.964145e+03,1.693042e+03
1.965109e+03,1.693671e+03
1.966074e+03,1.694021e+03
1.967038e+03,1.696210e+03
1.968002e+03,1.699631e+03
1.968966e+03,1.697433e+03
1.969931e+03,1.683932e+03
1.970895e+03,1.671998e+03
1.971859e+03,1.678327e+03
1.972823e+03,1.682685e+03
1.973787e+03,1.673574e+03
1.974752e+03,1.662040e+03
1.975716e+03,1.669104e+03
1.976680e+03,1.678863e+03
1.977644e+03,1.671114e+03
1.978609e+03,1.657410e+03
1.979573e+03,1.657617e+03
1.980537e+03,1.666259e+03
1.981501e+03,1.666342e+03
1.982466e+03,1.659907e+03
1.983430e+03,1.652288e+03
1.984394e+03,1.643075e+03
1.985358e+03,1.644701e+03
1.986323e+03,1.654682e+03
1.987287e+03,1.658442e+03
1.988251e+03,1.649920e+03
1.989215e+03,1.644200e+03
1.990179e+03,1.643717e+03
1.991144e+03,1.645893e+03
1.992108e+03,1.651247e+03
1.993072e+03,1.653853e+03
1.994036e+03,1.644431e+03
1.995001e+03,1.637475e+03
1.995965e+03,1.637244e+03
1.996929e+03,1.639464e+03
1.997893e+03,1.638991e+03
1.998858e+03,1.638046e+03
1.999822e+03,1.640640e+03
2.000786e+03,1.641651e+03
2.001750e+03,1.636491e+03
2.002714e+03,1.629914e+03
2.003679e+03,1.632327e+03
2.004643e+03,1.636818e+03
2.005607e+03,1.631070e+03
2.006571e+03,1.619287e+03
2.007536e+03,1.620484e+03
2.008500e+03,1.629506e+03
2.009464e+03,1.627789e+03
2.010428e+03,1.614960e+03
2.011393e+03,1.609031e+03
2.012357e+03,1.611271e+03
2.013321e+03,1.614934e+03
2.014285e+03,1.618080e+03
2.015250e+03,1.619106e+03
2.016214e+03,1.616698e+03
2.017178e+03,1.612948e+03
2.018142e+03,1.608344e+03
2.019106e+03,1.602898e+03
2.020071e+03,1.594855e+03
2.021035e+03,1.589558e+03
2.021999e+03,1.591117e+03
2.022963e+03,1.592449e+03
2.023928e+03,1.591984e+03
2.024892e+03,1.589628e+03
2.025856e+03,1.580271e+03
2.026820e+03,1.575123e+03
2.027785e+03,1.583098e+03
2.028749e+03,1.593727e+03
2.029713e+03,1.590776e+03
2.030677e+03,1.584000e+03
2.031641e+03,1.589438e+03
2.032606e+03,1.597799e+03
2.033570e+03,1.591378e+03
2.034534e+03,1.574328e+03
2.035498e+03,1.564538e+03
2.036463e+03,1.560864e+03
2.037427e+03,1.561178e+03
2.038391e+03,1.565540e+03
2.039355e+03,1.568217e+03
2.040320e+03,1.569257e+03
2.041284e+03,1.566330e+03
2.042248e+03,1.558205e+03
2.043212e+03,1.557821e+03
2.044177e+03,1.567269e+03
2.045141e+03,1.568185e+03
2.046105e+03,1.557782e+03
2.047069e+03,1.550825e+03
2.048033e+03,1.556999e+03
2.048998e+03,1.560600e+03
2.049962e+03,1.560914e+03
2.050926e+03,1.559761e+03
2.051890e+03,1.558628e+03
2.052854e+03,1.555179e+03
2.053819e+03,1.546901e+03
2.054783e+03,1.539083e+03
2.055747e+03,1.535604e+03
2.056711e+03,1.534877e+03
2.057676e+03,1.534659e+03
2.058640e+03,1.537743e+03
2.059604e+03,1.545587e+03
2.060568e+03,1.552942e+03
2.061533e+03,1.553939e+03
2.062497e+03,1.550314e+03
2.063461e+03,1.539910e+03
2.064425e+03,1.529490e+03
2.065390e+03,1.530866e+03
2.066354e+03,1.536965e+03
2.067318e+03,1.534191e+03
2.068282e+03,1.527062e+03
2.069247e+03,1.525639e+03
2.070211e+03,1.528036e+03
2.071175e+03,1.522449e+03
2.072139e+03,1.513057e+03
2.073104e+03,1.509682e+03
2.074068e+03,1.513206e+03
2.075032e+03,1.519731e+03
2.075996e+03,1.526749e+03
2.076960e+03,1.522946e+03
2.077925e+03,1.506423e+03
2.078889e+03,1.506174e+03
2.079853e+03,1.524500e+03
2.080817e+03,1.525151e+03
2.081782e+03,1.505083e+03
2.082746e+03,1.491553e+03
2.083710e+03,1.499298e+03
2.084674e+03,1.502814e+03
2.085639e+03,1.501599e+03
2.086603e+03,1.503590e+03
2.087567e+03,1.516534e+03
2.088531e+03,1.519268e+03
2.089496e+03,1.506952e+03
2.090460e+03,1.494388e+03
2.091424e+03,1.490935e+03
2.092388e+03,1.489578e+03
2.093353e+03,1.484575e+03
2.094317e+03,1.481352e+03
2.095281e+03,1.479994e+03
2.096245e+03,1.480093e+03
2.097209e+03,1.482392e+03
2.098174e+03,1.485388e+03
2.099138e+03,1.489579e+03
2.100102e+03,1.492788e+03
2.101066e+03,1.493422e+03
2.102031e+03,1.490739e+03
2.102995e+03,1.481392e+03
2.103959e+03,1.471076e+03
2.104923e+03,1.462586e+03
2.105887e+03,1.458836e+03
2.106852e+03,1.465656e+03
2.107816e+03,1.474389e+03
2.108780e+03,1.477915e+03
2.109744e+03,1.476337e+03
2.110708e+03,1.467131e+03
2.111673e+03,1.457332e+03
2.112637e+03,1.457341e+03
2.113601e+03,1.462319e+03
2.114565e+03,1.464751e+03
2.115530e+03,1.464224e+03
2.116494e+03,1.457613e+03
2.117458e+03,1.448963e+03
2.118422e+03,1.444537e+03
2.119387e+03,1.443659e+03
2.120351e+03,1.454354e+03
2.121315e+03,1.470826e+03
2.122279e+03,1.476702e+03
2.123244e+03,1.471146e+03
2.124208e+03,1.458892e+03
2.125172e+03,1.443512e+03
2.126136e+03,1.436346e+03
2.127101e+03,1.441125e+03
2.128065e+03,1.441442e+03
2.129029e+03,1.437668e+03
2.129993e+03,1.434850e+03
2.130958e+03,1.432599e+03
2.131922e+03,1.433670e+03
2.132886e+03,1.438994e+03
2.133850e+03,1.440000e+03
2.134814e+03,1.437338e+03
2.135779e+03,1.435079e+03
2.136743e+03,1.432336e+03
2.137707e+03,1.436070e+03
2.138671e+03,1.446339e+03
2.139636e+03,1.446874e+03
2.140600e+03,1.418445e+03
2.141564e+03,1.407030e+03
2.142528e+03,1.416759e+03
2.143493e+03,1.419920e+03
2.144457e+03,1.401626e+03
2.145421e+03,1.388775e+03
2.146385e+03,1.388736e+03
2.147350e+03,1.394242e+03
2.148314e+03,1.405138e+03
2.149278e+03,1.415290e+03
2.150242e+03,1.420116e+03
2.151207e+03,1.418771e+03
2.152171e+03,1.409921e+03
2.153135e+03,1.400777e+03
2.154099e+03,1.399748e+03
2.155063e+03,1.399049e+03
2.156028e+03,1.397259e+03
2.156992e+03,1.395375e+03
2.157956e+03,1.391109e+03
2.158920e+03,1.387897e+03
2.159885e+03,1.387487e+03
2.160849e+03,1.388112e+03
2.161813e+03,1.389432e+03
2.162777e+03,1.389987e+03
2.163741e+03,1.389715e+03
2.164706e+03,1.387123e+03
2.165670e+03,1.383082e+03
2.166634e+03,1.377801e+03
2.167598e+03,1.361984e+03
2.168563e+03,1.357578e+03
2.169527e+03,1.375471e+03
2.170491e+03,1.394760e+03
2.171455e+03,1.396924e+03
2.172420e+03,1.390179e+03
2.173384e+03,1.375749e+03
2.174348e+03,1.363879e+03
2.175312e+03,1.364545e+03
2.176277e+03,1.368233e+03
2.177241e+03,1.366623e+03
2.178205e+03,1.363063e+03
2.179169e+03,1.360408e+03
2.180134e+03,1.358142e+03
2.181098e+03,1.352485e+03
2.182062e+03,1.348630e+03
2.183026e+03,1.349089e+03
2.183990e+03,1.351442e+03
2.184955e+03,1.353455e+03
2.185919e+03,1.354851e+03
2.186883e+03,1.355941e+03
2.187847e+03,1.353731e+03
2.188812e+03,1.339717e+03
2.189776e+03,1.326561e+03
2.190740e+03,1.331952e+03
2.191704e+03,1.340689e+03
2.192668e+03,1.339917e+03
2.193633e+03,1.334489e+03
2.194597e+03,1.327925e+03
2.195561e+03,1.324058e+03
2.196525e+03,1.326208e+03
2.197490e+03,1.330960e+03
2.198454e+03,1.334480e+03
2.199418e+03,1.334803e+03
2.200382e+03,1.329421e+03
2.201347e+03,1.324114e+03
2.202311e+03,1.329207e+03
2.203275e+03,1.336786e+03
2.204239e+03,1.337480e+03
2.205204e+03,1.334459e+03
2.206168e+03,1.335236e+03
2.207132e+03,1.335995e+03
2.208096e+03,1.330113e+03
2.209061e+03,1.320064e+03
2.210025e+03,1.305475e+03
2.210989e+03,1.293169e+03
2.211953e+03,1.297370e+03
2.212917e+03,1.309915e+03
2.213882e+03,1.320489e+03
2.214846e+03,1.326351e+03
2.215810e+03,1.321119e+03
2.216774e+03,1.311647e+03
2.217739e+03,1.306894e+03
2.218703e+03,1.305731e+03
2.219667e+03,1.308533e+03
2.220631e+03,1.309645e+03
2.221595e+03,1.300291e+03
2.222560e+03,1.289659e+03
2.223524e+03,1.294007e+03
2.224488e+03,1.301834e+03
2.225452e+03,1.298635e+03
2.226417e+03,1.293788e+03
2.227381e+03,1.298348e+03
2.228345e+03,1.304969e+03
2.229309e+03,1.301123e+03
2.230274e+03,1.294141e+03
2.231238e+03,1.291594e+03
2.232202e+03,1.289586e+03
2.233166e+03,1.280527e+03
2.234131e+03,1.274223e+03
2.235095e+03,1.278365e+03
2.236059e+03,1.285917e+03
2.237023e+03,1.286624e+03
2.237988e+03,1.284177e+03
2.238952e+03,1.280639e+03
2.239916e+03,1.276555e+03
2.240880e+03,1.273056e+03
2.241844e+03,1.271692e+03
2.242809e+03,1.274382e+03
2.243773e+03,1.277247e+03
2.244737e+03,1.275521e+03
2.245701e+03,1.271680e+03
2.246666e+03,1.266797e+03
2.247630e+03,1.261832e+03
2.248594e+03,1.259006e+03
2.249558e+03,1.257498e+03
2.250522e+03,1.254713e+03
2.251487e+03,1.254359e+03
2.252451e+03,1.258172e+03
2.253415e+03,1.260138e+03
2.254379e+03,1.254729e+03
2.255344e+03,1.248165e+03
2.256308e+03,1.242604e+03
2.257272e+03,1.239679e+03
2.258236e+03,1.242722e+03
2.259201e+03,1.246385e+03
2.260165e+03,1.248118e+03
2.261129e+03,1.249660e+03
2.262093e+03,1.255760e+03
2.263058e+03,1.255470e+03
2.264022e+03,1.247132e+03
2.264986e+03,1.235374e+03
2.265950e+03,1.214199e+03
2.266915e+03,1.206870e+03
2.267879e+03,1.222550e+03
2.268843e+03,1.231062e+03
2.269807e+03,1.217671e+03
2.270771e+03,1.207375e+03
2.271736e+03,1.210723e+03
2.272700e+03,1.215525e+03
2.273664e+03,1.217449e+03
2.274628e+03,1.218620e+03
2.275593e+03,1.219494e+03
2.276557e+03,1.220359e+03
2.277521e+03,1.222264e+03
2.278485e+03,1.223334e+03
2.279449e+03,1.221943e+03
2.280414e+03,1.220929e+03
2.281378e+03,1.220245e+03
2.282342e+03,1.218697e+03
2.283306e+03,1.216117e+03
2.284271e+03,1.205900e+03
2.285235e+03,1.188935e+03
2.286199e+03,1.180517e+03
2.287163e+03,1.191236e+03
2.288128e+03,1.195045e+03
2.289092e+03,1.191644e+03
2.290056e+03,1.194417e+03
2.291020e+03,1.206977e+03
2.291985e+03,1.205146e+03
2.292949e+03,1.191828e+03
2.293913e+03,1.188320e+03
2.294877e+03,1.195744e+03
2.295842e+03,1.200214e+03
2.296806e+03,1.200663e+03
2.297770e+03,1.200091e+03
2.298734e+03,1.198264e+03
2.299698e+03,1.194625e+03
2.300663e+03,1.189593e+03
2.301627e+03,1.180516e+03
2.302591e+03,1.170042e+03
2.303555e+03,1.165592e+03
2.304520e+03,1.166202e+03
2.305484e+03,1.165462e+03
2.306448e+03,1.166731e+03
2.307412e+03,1.178395e+03
2.308376e+03,1.192164e+03
2.309341e+03,1.185018e+03
2.310305e+03,1.168803e+03
2.311269e+03,1.158031e+03
2.312233e+03,1.153447e+03
2.313198e+03,1.156240e+03
2.314162e+03,1.162630e+03
2.315126e+03,1.171188e+03
2.316090e+03,1.177825e+03
2.317055e+03,1.179323e+03
2.318019e+03,1.176285e+03
2.318983e+03,1.165390e+03
2.319947e+03,1.154429e+03
2.320912e+03,1.149846e+03
2.321876e+03,1.148404e+03
2.322840e+03,1.146743e+03
2.323804e+03,1.148792e+03
2.324769e+03,1.160346e+03
2.325733e+03,1.166248e+03
2.326697e+03,1.147549e+03
2.327661e+03,1.136857e+03
2.328625e+03,1.143781e+03
2.329590e+03,1.150458e+03
2.330554e+03,1.145987e+03
2.331518e+03,1.145603e+03
2.332482e+03,1.151766e+03
2.333447e+03,1.152437e+03
2.334411e+03,1.136111e+03
2.335375e+03,1.130065e+03
2.336339e+03,1.135369e+03
2.337303e+03,1.138729e+03
2.338268e+03,1.132948e+03
2.339232e+03,1.128315e+03
2.340196e+03,1.125761e+03
2.341160e+03,1.130288e+03
2.342125e+03,1.144311e+03
2.343089e+03,1.147612e+03
2.344053e+03,1.141765e+03
2.345017e+03,1.140243e+03
2.345982e+03,1.143792e+03
2.346946e+03,1.137156e+03
2.347910e+03,1.125175e+03
2.348874e+03,1.117047e+03
2.349839e+03,1.112353e+03
2.350803e+03,1.110638e+03
2.351767e+03,1.111217e+03
2.352731e+03,1.113781e+03
2.353696e+03,1.115863e+03
2.354660e+03,1.111128e+03
2.355624e+03,1.103415e+03
2.356588e+03,1.097889e+03
2.357552e+03,1.096968e+03
2.358517e+03,1.106226e+03
2.359481e+03,1.115582e+03
2.360445e+03,1.109872e+03
2.361409e+03,1.101996e+03
2.362374e+03,1.098313e+03
2.363338e+03,1.095908e+03
2.364302e+03,1.094477e+03
2.365266e+03,1.094036e+03
2.366230e+03,1.093657e+03
2.367195e+03,1.093874e+03
2.368159e+03,1.095281e+03
2.369123e+03,1.095284e+03
2.370087e+03,1.094512e+03
2.371052e+03,1.092616e+03
2.372016e+03,1.086857e+03
2.372980e+03,1.090874e+03
2.373944e+03,1.103799e+03
2.374909e+03,1.110706e+03
2.375873e+03,1.105914e+03
2.376837e+03,1.102431e+03
2.377801e+03,1.099819e+03
2.378766e+03,1.093639e+03
2.379730e+03,1.084047e+03
2.380694e+03,1.085725e+03
2.381658e+03,1.094125e+03
2.382623e+03,1.094414e+03
2.383587e+03,1.088667e+03
2.384551e+03,1.086550e+03
2.385515e+03,1.085286e+03
2.386479e+03,1.081176e+03
2.387444e+03,1.076161e+03
2.388408e+03,1.071812e+03
2.389372e+03,1.070375e+03
2.390336e+03,1.075539e+03
2.391301e+03,1.080253e+03
2.392265e+03,1.077227e+03
2.393229e+03,1.070344e+03
2.394193e+03,1.059548e+03
2.395157e+03,1.055178e+03
2.396122e+03,1.070812e+03
2.397086e+03,1.078719e+03
2.398050e+03,1.069039e+03
2.399014e+03,1.062230e+03
2.399979e+03,1.067301e+03
2.400943e+03,1.065995e+03
2.401907e+03,1.054558e+03
2.402871e+03,1.051588e+03
2.403836e+03,1.061632e+03
2.404800e+03,1.063307e+03
2.405764e+03,1.055560e+03
2.406728e+03,1.053853e+03
2.407693e+03,1.057694e+03
2.408657e+03,1.057503e+03
2.409621e+03,1.053934e+03
2.410585e+03,1.045741e+03
2.411550e+03,1.037838e+03
2.412514e+03,1.041981e+03
2.413478e+03,1.051959e+03
2.414442e+03,1.052373e+03
2.415406e+03,1.047526e+03
2.416371e+03,1.040891e+03
2.417335e+03,1.035797e+03
2.418299e+03,1.039525e+03
2.419263e+03,1.042977e+03
2.420228e+03,1.040935e+03
2.421192e+03,1.037084e+03
2.422156e+03,1.034994e+03
2.423120e+03,1.032165e+03
2.424084e+03,1.026796e+03
2.425049e+03,1.022791e+03
2.426013e+03,1.024369e+03
2.426977e+03,1.025943e+03
2.427941e+03,1.027731e+03
2.428906e+03,1.027362e+03
2.429870e+03,1.022465e+03
2.430834e+03,1.027330e+03
2.431798e+03,1.038938e+03
2.432763e+03,1.035373e+03
2.433727e+03,1.017546e+03
2.434691e+03,1.015040e+03
2.435655e+03,1.021316e+03
2.436620e+03,1.023482e+03
2.437584e+03,1.022182e+03
2.438548e+03,1.020499e+03
2.439512e+03,1.017669e+03
2.440477e+03,1.011589e+03
2.441441e+03,1.005740e+03
2.442405e+03,1.008484e+03
2.443369e+03,1.010795e+03
2.444333e+03,1.008557e+03
2.445298e+03,1.006447e+03
2.446262e+03,1.009327e+03
2.447226e+03,1.010796e+03
2.448190e+03,1.010360e+03
2.449155e+03,1.007065e+03
2.450119e+03,9.952221e+02
2.451083e+03,9.968904e+02
2.452047e+03,1.009748e+03
2.453011e+03,1.012641e+03
2.453976e+03,1.000536e+03
2.454940e+03,9.912040e+02
2.455904e+03,9.857125e+02
2.456868e+03,9.861495e+02
2.457833e+03,9.901157e+02
2.458797e+03,9.955016e+02
2.459761e+03,9.996199e+02
2.460725e+03,9.968837e+02
2.461690e+03,9.917845e+02
2.462654e+03,9.906998e+02
2.463618e+03,9.903527e+02
2.464582e+03,9.888586e+02
2.465547e+03,9.888423e+02
2.466511e+03,9.956240e+02
2.467475e+03,9.937208e+02
2.468439e+03,9.794916e+02
2.469404e+03,9.673405e+02
2.470368e+03,9.669730e+02
2.471332e+03,9.724234e+02
2.472296e+03,9.817511e+02
2.473260e+03,9.854421e+02
2.474225e+03,9.808595e+02
2.475189e+03,9.720139e+02
2.476153e+03,9.635363e+02
2.477117e+03,9.733127e+02
2.478082e+03,9.916400e+02
2.479046e+03,9.843974e+02
2.480010e+03,9.682936e+02
2.480974e+03,9.671353e+02
2.481938e+03,9.714464e+02
2.482903e+03,9.693655e+02
2.483867e+03,9.655469e+02
2.484831e+03,9.617252e+02
2.485795e+03,9.602011e+02
2.486760e+03,9.684336e+02
2.487724e+03,9.690240e+02
2.488688e+03,9.595742e+02
2.489652e+03,9.527436e+02
2.490617e+03,9.551589e+02
2.491581e+03,9.595319e+02
2.492545e+03,9.646990e+02
2.493509e+03,9.583151e+02
2.494474e+03,9.399276e+02
2.495438e+03,9.350396e+02
2.496402e+03,9.389310e+02
2.497366e+03,9.420419e+02
2.498331e+03,9.452548e+02
2.499295e+03,9.547871e+02
2.500259e+03,9.621674e+02
2.501223e+03,9.614761e+02
2.502188e+03,9.570690e+02
2.503152e+03,9.507232e+02
2.504116e+03,9.457842e+02
2.505080e+03,9.432740e+02
2.506044e+03,9.411913e+02
2.507009e+03,9.349549e+02
2.507973e+03,9.374164e+02
2.508937e+03,9.482510e+02
2.509901e+03,9.521706e+02
2.510865e+03,9.445582e+02
2.511830e+03,9.455158e+02
2.512794e+03,9.504789e+02
2.513758e+03,9.479105e+02
2.514722e+03,9.409352e+02
2.515687e+03,9.349112e+02
2.516651e+03,9.322687e+02
2.517615e+03,9.371061e+02
2.518579e+03,9.403933e+02
2.519544e+03,9.248632e+02
2.520508e+03,9.142219e+02
2.521472e+03,9.175544e+02
2.522436e+03,9.237942e+02
2.523401e+03,9.286252e+02
2.524365e+03,9.267511e+02
2.525329e+03,9.176512e+02
2.526293e+03,9.145888e+02
2.527258e+03,9.219252e+02
2.528222e+03,9.208206e+02
2.529186e+03,9.147256e+02
2.530150e+03,9.160901e+02
2.531115e+03,9.220816e+02
2.532079e+03,9.192230e+02
2.533043e+03,9.132510e+02
2.534007e+03,9.095746e+02
2.534971e+03,9.078924e+02
2.535936e+03,9.111953e+02
2.536900e+03,9.147706e+02
2.537864e+03,9.174807e+02
2.538828e+03,9.155125e+02
2.539792e+03,9.030688e+02
2.540757e+03,8.950974e+02
2.541721e+03,8.935009e+02
2.542685e+03,9.015338e+02
2.543649e+03,9.177758e+02
2.544614e+03,9.269894e+02
2.545578e+03,9.290516e+02
2.546542e+03,9.312438e+02
2.547506e+03,9.311718e+02
2.548471e+03,9.150031e+02
2.549435e+03,9.005105e+02
2.550399e+03,9.067930e+02
2.551363e+03,9.145489e+02
2.552328e+03,9.056184e+02
2.553292e+03,9.019016e+02
2.554256e+03,9.125049e+02
2.555220e+03,9.210507e+02
2.556185e+03,9.242774e+02
2.557149e+03,9.202480e+02
2.558113e+03,9.088723e+02
2.559077e+03,9.005359e+02
2.560042e+03,8.962780e+02
2.561006e+03,9.062432e+02
2.561970e+03,9.210753e+02
2.562934e+03,9.166608e+02
2.563898e+03,9.055964e+02
2.564863e+03,9.002058e+02
2.565827e+03,8.986942e+02
2.566791e+03,9.066573e+02
2.567755e+03,9.100090e+02
2.568719e+03,9.046969e+02
2.569684e+03,8.940530e+02
2.570648e+03,8.757114e+02
2.571612e+03,8.737230e+02
2.572576e+03,8.854500e+02
2.573541e+03,8.876570e+02
2.574505e+03,8.795899e+02
2.575469e+03,8.784922e+02
2.576433e+03,8.813640e+02
2.577398e+03,8.856642e+02
2.578362e+03,8.893821e+02
2.579326e+03,8.922596e+02
2.580290e+03,8.884421e+02
2.581255e+03,8.744577e+02
2.582219e+03,8.642557e+02
2.583183e+03,8.749843e+02
2.584147e+03,8.750203e+02
2.585112e+03,8.650256e+02
2.586076e+03,8.595905e+02
2.587040e+03,8.609464e+02
2.588004e+03,8.612571e+02
2.588969e+03,8.625250e+02
2.589933e+03,8.727390e+02
2.590897e+03,8.839941e+02
2.591861e+03,8.781581e+02
2.592825e+03,8.653951e+02
2.593790e+03,8.493333e+02
2.594754e+03,8.405869e+02
2.595718e+03,8.492198e+02
2.596682e+03,8.593083e+02
2.597646e+03,8.677715e+02
2.598611e+03,8.662560e+02
2.599575e+03,8.566654e+02
2.600539e+03,8.523377e+02
2.601503e+03,8.529387e+02
2.602468e+03,8.515353e+02
2.603432e+03,8.489880e+02
2.604396e+03,8.470661e+02
2.605360e+03,8.475950e+02
2.606325e+03,8.551619e+02
2.607289e+03,8.579635e+02
2.608253e+03,8.500592e+02
2.609217e+03,8.467900e+02
2.610182e+03,8.574207e+02
2.611146e+03,8.567039e+02
2.612110e+03,8.460396e+02
2.613074e+03,8.430339e+02
2.614039e+03,8.488989e+02
2.615003e+03,8.550900e+02
2.615967e+03,8.568146e+02
2.616931e+03,8.464628e+02
2.617896e+03,8.351578e+02
2.618860e+03,8.386234e+02
2.619824e+03,8.428312e+02
2.620788e+03,8.420114e+02
2.621752e+03,8.404279e+02
2.622717e+03,8.407347e+02
2.623681e+03,8.420150e+02
2.624645e+03,8.437637e+02
2.625609e+03,8.445871e+02
2.626573e+03,8.447281e+02
2.627538e+03,8.476129e+02
2.628502e+03,8.504759e+02
2.629466e+03,8.485176e+02
2.630430e+03,8.436330e+02
2.631395e+03,8.360187e+02
2.632359e+03,8.294459e+02
2.633323e+03,8.257167e+02
2.634287e+03,8.218406e+02
2.635252e+03,8.172770e+02
2.636216e+03,8.184203e+02
2.637180e+03,8.256729e+02
2.638144e+03,8.300909e+02
2.639109e+03,8.316634e+02
2.640073e+03,8.314355e+02
2.641037e+03,8.310209e+02
2.642001e+03,8.294368e+02
2.642966e+03,8.288787e+02
2.643930e+03,8.309075e+02
2.644894e+03,8.314196e+02
2.645858e+03,8.239213e+02
2.646823e+03,8.267172e+02
2.647787e+03,8.378103e+02
2.648751e+03,8.322302e+02
2.649715e+03,8.095317e+02
2.650679e+03,8.048015e+02
2.651644e+03,8.098805e+02
2.652608e+03,8.112722e+02
2.653572e+03,8.111405e+02
2.654536e+03,8.144793e+02
2.655500e+03,8.156190e+02
2.656465e+03,8.118162e+02
2.657429e+03,8.109290e+02
2.658393e+03,8.151209e+02
2.659357e+03,8.163215e+02
2.660322e+03,8.150851e+02
2.661286e+03,8.158829e+02
2.662250e+03,8.178345e+02
2.663214e+03,8.181660e+02
2.664179e+03,8.175778e+02
2.665143e+03,8.176242e+02
2.666107e+03,8.174410e+02
2.667071e+03,8.174103e+02
2.668036e+03,8.127423e+02
2.669000e+03,7.934247e+02
2.669964e+03,7.925594e+02
2.670928e+03,8.066282e+02
2.671893e+03,8.074919e+02
2.672857e+03,7.971973e+02
2.673821e+03,7.931547e+02
2.674785e+03,7.953518e+02
2.675750e+03,8.060945e+02
2.676714e+03,8.134328e+02
2.677678e+03,7.965264e+02
2.678642e+03,7.847010e+02
2.679606e+03,7.844219e+02
2.680571e+03,7.873700e+02
2.681535e+03,7.909150e+02
2.682499e+03,7.877513e+02
2.683463e+03,7.817009e+02
2.684427e+03,7.908845e+02
2.685392e+03,8.054598e+02
2.686356e+03,8.059332e+02
2.687320e+03,8.040386e+02
2.688284e+03,8.104452e+02
2.689249e+03,8.093110e+02
2.690213e+03,7.976348e+02
2.691177e+03,7.870335e+02
2.692141e+03,7.820311e+02
2.693106e+03,7.818729e+02
2.694070e+03,7.840178e+02
2.695034e+03,7.803164e+02
2.695998e+03,7.758961e+02
2.696963e+03,7.828570e+02
2.697927e+03,7.898225e+02
2.698891e+03,7.910149e+02
2.699855e+03,7.850344e+02
2.700820e+03,7.693746e+02
2.701784e+03,7.622426e+02
2.702748e+03,7.650068e+02
2.703712e+03,7.754432e+02
2.704677e+03,7.879062e+02
2.705641e+03,7.856962e+02
2.706605e+03,7.787712e+02
2.707569e+03,7.753908e+02
2.708533e+03,7.741811e+02
2.709498e+03,7.740355e+02
2.710462e+03,7.742902e+02
2.711426e+03,7.763189e+02
2.712390e+03,7.741198e+02
2.713354e+03,7.694411e+02
2.714319e+03,7.724939e+02
2.715283e+03,7.786409e+02
2.716247e+03,7.754341e+02
2.717211e+03,7.710091e+02
2.718176e+03,7.716426e+02
2.719140e+03,7.720826e+02
2.720104e+03,7.678600e+02
2.721068e+03,7.651573e+02
2.722033e+03,7.648675e+02
2.722997e+03,7.657809e+02
2.723961e+03,7.674797e+02
2.724925e+03,7.734717e+02
2.725890e+03,7.782864e+02
2.726854e+03,7.722179e+02
2.727818e+03,7.631800e+02
2.728782e+03,7.531517e+02
2.729747e+03,7.527209e+02
2.730711e+03,7.761526e+02
2.731675e+03,7.827704e+02
2.732639e+03,7.757726e+02
2.733604e+03,7.725159e+02
2.734568e+03,7.706611e+02
2.735532e+03,7.536885e+02
2.736496e+03,7.414206e+02
2.737460e+03,7.495291e+02
2.738425e+03,7.601188e+02
2.739389e+03,7.634550e+02
2.740353e+03,7.566519e+02
2.741317e+03,7.411292e+02
2.742281e+03,7.432835e+02
2.743246e+03,7.572269e+02
2.744210e+03,7.594015e+02
2.745174e+03,7.552287e+02
2.746138e+03,7.528722e+02
2.747103e+03,7.510199e+02
2.748067e+03,7.495373e+02
2.749031e+03,7.477040e+02
2.749995e+03,7.435958e+02
2.750960e+03,7.435246e+02
2.751924e+03,7.469058e+02
2.752888e+03,7.526956e+02
2.753852e+03,7.572245e+02
2.754817e+03,7.504597e+02
2.755781e+03,7.432879e+02
2.756745e+03,7.416107e+02
2.757709e+03,7.410896e+02
2.758674e+03,7.393613e+02
2.759638e+03,7.409874e+02
2.760602e+03,7.454615e+02
2.761566e+03,7.358399e+02
2.762531e+03,7.236429e+02
2.763495e+03,7.293584e+02
2.764459e+03,7.390197e+02
2.765423e+03,7.417689e+02
2.766387e+03,7.389905e+02
2.767352e+03,7.320020e+02
2.768316e+03,7.288682e+02
2.769280e+03,7.309114e+02
2.770244e+03,7.355646e+02
2.771208e+03,7.401443e+02
2.772173e+03,7.387019e+02
2.773137e+03,7.344720e+02
2.774101e+03,7.321339e+02
2.775065e+03,7.295322e+02
2.776030e+03,7.247343e+02
2.776994e+03,7.235999e+02
2.777958e+03,7.252242e+02
2.778922e+03,7.265272e+02
2.779887e+03,7.274813e+02
2.780851e+03,7.282113e+02
2.781815e+03,7.284642e+02
2.782779e+03,7.292526e+02
2.783744e+03,7.284041e+02
2.784708e+03,7.223954e+02
2.785672e+03,7.209418e+02
2.786636e+03,7.239378e+02
2.787601e+03,7.250140e+02
2.788565e+03,7.240869e+02
2.789529e+03,7.173724e+02
2.790493e+03,7.124138e+02
2.791458e+03,7.199471e+02
2.792422e+03,7.186494e+02
2.793386e+03,7.054872e+02
2.794350e+03,7.083925e+02
2.795314e+03,7.332490e+02
2.796279e+03,7.267760e+02
2.797243e+03,7.097927e+02
2.798207e+03,7.194315e+02
2.799171e+03,7.343485e+02
2.800135e+03,7.274358e+02
2.801100e+03,7.140548e+02
2.802064e+03,6.967210e+02
2.803028e+03,7.001671e+02
2.803992e+03,7.187218e+02
2.804957e+03,7.167428e+02
2.805921e+03,7.071129e+02
2.806885e+03,7.207269e+02
2.807849e+03,7.301086e+02
2.808814e+03,7.221254e+02
2.809778e+03,7.111718e+02
2.810742e+03,7.027080e+02
2.811706e+03,7.030240e+02
2.812671e+03,7.080648e+02
2.813635e+03,7.052881e+02
2.814599e+03,6.994150e+02
2.815563e+03,6.996622e+02
2.816528e+03,7.040485e+02
2.817492e+03,7.144484e+02
2.818456e+03,7.199991e+02
2.819420e+03,7.188188e+02
2.820385e+03,7.067197e+02
2.821349e+03,6.899883e+02
2.822313e+03,6.884364e+02
2.823277e+03,6.936637e+02
2.824241e+03,6.978500e+02
2.825206e+03,6.993250e+02
2.826170e+03,6.960981e+02
2.827134e+03,7.019973e+02
2.828098e+03,7.154623e+02
2.829063e+03,7.170549e+02
2.830027e+03,7.109802e+02
2.830991e+03,7.047288e+02
2.831955e+03,7.030687e+02
2.832919e+03,7.150003e+02
2.833884e+03,7.154058e+02
2.834848e+03,7.019257e+02
2.835812e+03,6.921324e+02
2.836776e+03,6.890543e+02
2.837741e+03,7.025132e+02
2.838705e+03,7.118156e+02
2.839669e+03,6.903010e+02
2.840633e+03,6.757589e+02
2.841598e+03,6.897664e+02
2.842562e+03,6.975375e+02
2.843526e+03,6.913336e+02
2.844490e+03,6.929313e+02
2.845455e+03,6.968536e+02
2.846419e+03,6.931320e+02
2.847383e+03,6.894152e+02
2.848347e+03,6.951923e+02
2.849312e+03,7.031759e+02
2.850276e+03,7.113874e+02
2.851240e+03,7.038018e+02
2.852204e+03,6.853851e+02
2.853168e+03,6.893612e+02
2.854133e+03,6.995248e+02
2.855097e+03,6.920231e+02
2.856061e+03,6.883298e+02
2.857025e+03,6.939620e+02
2.857990e+03,7.018248e+02
2.858954e+03,7.103406e+02
2.859918e+03,7.069053e+02
2.860882e+03,6.976308e+02
2.861846e+03,6.924193e+02
2.862811e+03,6.894568e+02
2.863775e+03,6.866154e+02
2.864739e+03,6.870783e+02
2.865703e+03,6.920782e+02
2.866668e+03,6.933825e+02
2.867632e+03,6.939299e+02
2.868596e+03,7.068655e+02
2.869560e+03,7.187018e+02
2.870525e+03,7.095231e+02
2.871489e+03,7.030228e+02
2.872453e+03,7.047365e+02
2.873417e+03,7.038433e+02
2.874382e+03,6.987838e+02
2.875346e+03,6.897724e+02
2.876310e+03,6.814804e+02
2.877274e+03,6.768304e+02
2.878239e+03,6.797894e+02
2.879203e+03,6.903743e+02
2.880167e+03,6.990423e+02
2.881131e+03,7.039017e+02
2.882095e+03,6.930002e+02
2.883060e+03,6.823483e+02
2.884024e+03,6.991865e+02
2.884988e+03,7.154680e+02
2.885952e+03,7.034088e+02
2.886917e+03,6.931042e+02
2.887881e+03,6.926131e+02
2.888845e+03,7.034780e+02
2.889809e+03,7.174701e+02
2.890773e+03,7.145556e+02
2.891738e+03,7.060444e+02
2.892702e+03,7.061644e+02
2.893666e+03,7.014709e+02
2.894630e+03,6.901910e+02
2.895595e+03,6.893433e+02
2.896559e+03,6.960765e+02
2.897523e+03,6.949418e+02
2.898487e+03,6.910077e+02
2.899452e+03,6.910107e+02
2.900416e+03,6.845267e+02
2.901380e+03,6.702240e+02
2.902344e+03,6.762408e+02
2.903309e+03,7.022852e+02
2.904273e+03,7.094655e+02
2.905237e+03,7.050092e+02
2.906201e+03,6.981301e+02
2.907166e+03,6.860109e+02
2.908130e+03,6.671220e+02
2.909094e+03,6.626785e+02
2.910058e+03,6.752293e+02
2.911022e+03,6.832390e+02
2.911987e+03,6.866358e+02
2.912951e+03,6.852567e+02
2.913915e+03,6.811757e+02
2.914879e+03,6.732253e+02
2.915844e+03,6.760240e+02
2.916808e+03,6.868319e+02
2.917772e+03,6.748292e+02
2.918736e+03,6.574010e+02
2.919700e+03,6.634057e+02
2.920665e+03,6.707630e+02
2.921629e+03,6.633273e+02
2.922593e+03,6.570023e+02
2.923557e+03,6.547182e+02
2.924522e+03,6.650460e+02
2.925486e+03,6.793763e+02
2.926450e+03,6.782725e+02
2.927414e+03,6.736702e+02
2.928379e+03,6.692880e+02
2.929343e+03,6.692777e+02
2.930307e+03,6.721413e+02
2.931271e+03,6.688955e+02
2.932236e+03,6.655218e+02
2.933200e+03,6.790291e+02
2.934164e+03,6.823227e+02
2.935128e+03,6.628085e+02
2.936093e+03,6.583929e+02
2.937057e+03,6.701324e+02
2.938021e+03,6.680698e+02
2.938985e+03,6.600319e+02
2.939949e+03,6.612814e+02
2.940914e+03,6.579983e+02
2.941878e+03,6.461150e+02
2.942842e+03,6.424380e+02
2.943806e+03,6.479783e+02
2.944771e+03,6.488193e+02
2.945735e+03,6.478557e+02
2.946699e+03,6.488072e+02
2.947663e+03,6.508925e+02
2.948627e+03,6.527073e+02
2.949592e+03,6.578547e+02
2.950556e+03,6.663317e+02
2.951520e+03,6.640795e+02
2.952484e+03,6.588246e+02
2.953449e+03,6.594576e+02
2.954413e+03,6.605674e+02
2.955377e+03,6.600687e+02
2.956341e+03,6.742629e+02
2.957306e+03,6.981041e+02
2.958270e+03,6.979955e+02
2.959234e+03,6.792133e+02
2.960198e+03,6.477422e+02
2.961163e+03,6.325875e+02
2.962127e+03,6.474184e+02
2.963091e+03,6.540880e+02
2.964055e+03,6.518029e+02
2.965020e+03,6.551638e+02
2.965984e+03,6.541963e+02
2.966948e+03,6.395985e+02
2.967912e+03,6.317867e+02
2.968876e+03,6.418079e+02
2.969841e+03,6.454847e+02
2.970805e+03,6.460521e+02
2.971769e+03,6.536232e+02
2.972733e+03,6.552353e+02
2.973698e+03,6.402891e+02
2.974662e+03,6.288720e+02
2.975626e+03,6.267991e+02
2.976590e+03,6.307043e+02
2.977554e+03,6.367740e+02
2.978519e+03,6.387103e+02
2.979483e+03,6.410653e+02
2.980447e+03,6.483359e+02
2.981411e+03,6.506356e+02
2.982376e+03,6.485214e+02
2.983340e+03,6.589218e+02
2.984304e+03,6.637745e+02
2.985268e+03,6.437910e+02
2.986233e+03,6.304619e+02
2.987197e+03,6.457525e+02
2.988161e+03,6.409061e+02
2.989125e+03,6.228145e+02
2.990090e+03,6.206570e+02
2.991054e+03,6.244515e+02
2.992018e+03,6.265885e+02
2.992982e+03,6.215125e+02
2.993947e+03,6.057937e+02
2.994911e+03,5.944174e+02
2.995875e+03,5.985220e+02
2.996839e+03,6.391188e+02
2.997803e+03,6.622236e+02
2.998768e+03,6.325215e+02
2.999732e+03,6.129381e+02
3.000696e+03,6.153939e+02
3.001660e+03,6.095293e+02
3.002625e+03,6.047914e+02
3.003589e+03,6.114016e+02
3.004553e+03,6.173665e+02
3.005517e+03,6.176385e+02
3.006481e+03,6.132643e+02
3.007446e+03,6.078073e+02
3.008410e+03,6.171112e+02
3.009374e+03,6.285344e+02
3.010338e+03,6.358091e+02
3.011303e+03,6.285585e+02
3.012267e+03,6.024602e+02
3.013231e+03,5.927115e+02
3.014195e+03,5.985197e+02
3.015160e+03,6.270511e+02
3.016124e+03,6.323297e+02
3.017088e+03,6.016611e+02
3.018052e+03,5.979175e+02
3.019017e+03,6.246983e+02
3.019981e+03,6.274813e+02
3.020945e+03,6.190479e+02
3.021909e+03,6.083392e+02
3.022874e+03,6.106169e+02
3.023838e+03,6.250179e+02
3.024802e+03,6.292161e+02
3.025766e+03,6.232350e+02
3.026730e+03,5.988141e+02
3.027695e+03,5.956356e+02
3.028659e+03,6.311782e+02
3.029623e+03,6.395629e+02
3.030587e+03,6.211329e+02
3.031552e+03,6.137177e+02
3.032516e+03,6.146649e+02
3.033480e+03,6.265687e+02
3.034444e+03,6.344236e+02
3.035408e+03,6.355161e+02
3.036373e+03,6.261210e+02
3.037337e+03,6.132432e+02
3.038301e+03,6.198663e+02
3.039265e+03,6.281583e+02
3.040230e+03,6.285983e+02
3.041194e+03,6.220550e+02
3.042158e+03,6.132825e+02
3.043122e+03,6.179247e+02
3.044087e+03,6.274131e+02
3.045051e+03,6.327362e+02
3.046015e+03,6.247874e+02
3.046979e+03,5.988232e+02
3.047944e+03,5.730016e+02
3.048908e+03,5.618136e+02
3.049872e+03,5.864662e+02
3.050836e+03,6.120516e+02
3.051801e+03,6.161842e+02
3.052765e+03,6.069914e+02
3.053729e+03,5.907080e+02
3.054693e+03,6.015305e+02
3.055657e+03,6.105195e+02
3.056622e+03,5.952288e+02
3.057586e+03,5.997384e+02
3.058550e+03,6.367069e+02
3.059514e+03,6.347238e+02
3.060479e+03,6.144343e+02
3.061443e+03,6.108385e+02
3.062407e+03,6.113737e+02
3.063371e+03,6.110287e+02
3.064335e+03,5.907425e+02
3.065300e+03,5.612927e+02
3.066264e+03,5.754036e+02
3.067228e+03,6.003715e+02
3.068192e+03,6.188851e+02
3.069157e+03,6.190877e+02
3.070121e+03,6.060240e+02
3.071085e+03,5.988122e+02
3.072049e+03,5.962266e+02
3.073014e+03,5.983602e+02
3.073978e+03,5.995671e+02
3.074942e+03,5.983373e+02
3.075906e+03,5.955331e+02
3.076871e+03,5.934804e+02
3.077835e+03,5.953575e+02
3.078799e+03,5.972034e+02
3.079763e+03,5.963606e+02
3.080728e+03,5.962524e+02
3.081692e+03,5.953204e+02
3.082656e+03,5.797867e+02
3.083620e+03,5.790286e+02
3.084584e+03,6.078935e+02
3.085549e+03,6.246038e+02
3.086513e+03,6.209099e+02
3.087477e+03,6.226743e+02
3.088441e+03,6.216448e+02
3.089406e+03,6.069706e+02
3.090370e+03,6.013997e+02
3.091334e+03,6.065798e+02
3.092298e+03,6.033076e+02
3.093262e+03,5.963694e+02
3.094227e+03,6.017731e+02
3.095191e+03,5.982022e+02
3.096155e+03,5.769705e+02
3.097119e+03,5.797605e+02
3.098084e+03,5.956819e+02
3.099048e+03,5.976230e+02
3.100012e+03,5.970128e+02
3.100976e+03,6.036927e+02
3.101941e+03,6.041791e+02
3.102905e+03,5.988778e+02
3.103869e+03,5.990528e+02
3.104833e+03,5.973267e+02
3.105798e+03,5.897205e+02
3.106762e+03,5.825867e+02
3.107726e+03,5.786443e+02
3.108690e+03,5.861628e+02
3.109655e+03,5.968159e+02
3.110619e+03,6.035726e+02
3.111583e+03,6.014086e+02
3.112547e+03,5.925727e+02
3.113511e+03,5.884623e+02
3.114476e+03,5.899755e+02
3.115440e+03,6.032394e+02
3.116404e+03,6.123859e+02
3.117368e+03,6.119059e+02
3.118333e+03,6.025967e+02
3.119297e+03,5.963342e+02
3.120261e+03,6.137139e+02
3.121225e+03,6.256324e+02
3.122189e+03,6.155162e+02
3.123154e+03,6.126185e+02
3.124118e+03,6.132840e+02
3.125082e+03,5.852947e+02
3.126046e+03,5.747155e+02
3.127011e+03,6.022949e+02
3.127975e+03,6.054006e+02
3.128939e+03,5.872138e+02
3.129903e+03,6.029606e+02
3.130868e+03,6.196978e+02
3.131832e+03,5.975644e+02
3.132796e+03,6.018200e+02
3.133760e+03,6.256082e+02
3.134725e+03,6.055494e+02
3.135689e+03,5.838193e+02
3.136653e+03,6.020297e+02
3.137617e+03,6.214066e+02
3.138582e+03,6.310957e+02
3.139546e+03,6.289354e+02
3.140510e+03,6.260851e+02
3.141474e+03,6.401712e+02
3.142438e+03,6.349070e+02
3.143403e+03,6.097410e+02
3.144367e+03,6.027083e+02
3.145331e+03,6.035648e+02
3.146295e+03,5.900897e+02
3.147260e+03,5.841032e+02
3.148224e+03,5.908364e+02
3.149188e+03,6.086029e+02
3.150152e+03,6.168347e+02
3.151116e+03,5.884380e+02
3.152081e+03,5.690215e+02
3.153045e+03,5.771829e+02
3.154009e+03,5.934557e+02
3.154973e+03,6.065541e+02
3.155938e+03,5.882741e+02
3.156902e+03,5.824688e+02
3.157866e+03,5.976964e+02
3.158830e+03,5.930547e+02
3.159795e+03,5.791487e+02
3.160759e+03,5.905842e+02
3.161723e+03,5.987419e+02
3.162687e+03,5.840906e+02
3.163652e+03,5.833206e+02
3.164616e+03,5.909684e+02
3.165580e+03,5.932323e+02
3.166544e+03,5.930359e+02
3.167509e+03,5.927539e+02
3.168473e+03,6.083147e+02
3.169437e+03,6.283380e+02
3.170401e+03,6.042996e+02
3.171365e+03,5.851542e+02
3.172330e+03,5.930056e+02
3.173294e+03,6.172581e+02
3.174258e+03,6.435978e+02
3.175222e+03,6.500692e+02
3.176187e+03,6.431718e+02
3.177151e+03,6.270286e+02
3.178115e+03,6.027854e+02
3.179079e+03,5.774352e+02
3.180043e+03,5.648602e+02
3.181008e+03,5.704017e+02
3.181972e+03,5.928995e+02
3.182936e+03,5.928299e+02
3.183900e+03,5.829238e+02
3.184865e+03,6.244717e+02
3.185829e+03,6.574958e+02
3.186793e+03,6.397303e+02
3.187757e+03,6.236957e+02
3.188722e+03,6.105193e+02
3.189686e+03,5.972259e+02
3.190650e+03,6.010492e+02
3.191614e+03,6.242237e+02
3.192579e+03,6.153486e+02
3.193543e+03,5.877395e+02
3.194507e+03,5.950793e+02
3.195471e+03,6.096394e+02
3.196436e+03,6.205154e+02
3.197400e+03,6.278861e+02
3.198364e+03,6.341015e+02
3.199328e+03,6.469574e+02
3.200292e+03,6.380408e+02
3.201257e+03,0.000000e+00
3.202221e+03,0.000000e+00
3.203185e+03,0.000000e+00
3.204149e+03,0.000000e+00
3.205114e+03,0.000000e+00
3.206078e+03,0.000000e+00
3.207042e+03,0.000000e+00
3.208006e+03,0.000000e+00
3.208970e+03,0.000000e+00
3.209935e+03,0.000000e+00
3.210899e+03,0.000000e+00
3.211863e+03,0.000000e+00
3.212827e+03,0.000000e+00
3.213792e+03,0.000000e+00
3.214756e+03,0.000000e+00
3.215720e+03,0.000000e+00
3.216684e+03,0.000000e+00
3.217649e+03,0.000000e+00
3.218613e+03,0.000000e+00
3.219577e+03,0.000000e+00
3.220541e+03,0.000000e+00
3.221506e+03,0.000000e+00
3.222470e+03,0.000000e+00
3.223434e+03,0.000000e+00
3.224398e+03,0.000000e+00
3.225363e+03,0.000000e+00
3.226327e+03,0.000000e+00
3.227291e+03,0.000000e+00
3.228255e+03,0.000000e+00
3.229219e+03,0.000000e+00
3.230184e+03,0.000000e+00
3.231148e+03,0.000000e+00
3.232112e+03,0.000000e+00
3.233076e+03,0.000000e+00
3.234041e+03,0.000000e+00
3.235005e+03,0.000000e+00
3.235969e+03,0.000000e+00
3.236933e+03,0.000000e+00
3.237897e+03,0.000000e+00
3.238862e+03,0.000000e+00
3.239826e+03,0.000000e+00
3.240790e+03,0.000000e+00
3.241754e+03,0.000000e+00
3.242719e+03,0.000000e+00
3.243683e+03,0.000000e+00
3.244647e+03,0.000000e+00
3.245611e+03,0.000000e+00
3.246576e+03,0.000000e+00
3.247540e+03,0.000000e+00
3.248504e+03,0.000000e+00
3.249468e+03,0.000000e+00
3.250433e+03,0.000000e+00
3.251397e+03,0.000000e+00
3.252361e+03,0.000000e+00
3.253325e+03,0.000000e+00
3.254290e+03,0.000000e+00
3.255254e+03,0.000000e+00
3.256218e+03,0.000000e+00
3.257182e+03,0.000000e+00
3.258146e+03,0.000000e+00
3.259111e+03,0.000000e+00
3.260075e+03,0.000000e+00
3.261039e+03,0.000000e+00
3.262003e+03,0.000000e+00
3.262968e+03,0.000000e+00
3.263932e+03,0.000000e+00
3.264896e+03,0.000000e+00
3.265860e+03,0.000000e+00
3.266824e+03,0.000000e+00
3.267789e+03,0.000000e+00
3.268753e+03,0.000000e+00
3.269717e+03,0.000000e+00
3.270681e+03,0.000000e+00
3.271646e+03,0.000000e+00
3.272610e+03,0.000000e+00
3.273574e+03,0.000000e+00
3.274538e+03,0.000000e+00
3.275503e+03,0.000000e+00
3.276467e+03,0.000000e+00
3.277431e+03,0.000000e+00
3.278395e+03,0.000000e+00
3.279360e+03,0.000000e+00
3.280324e+03,0.000000e+00
3.281288e+03,0.000000e+00
3.282252e+03,0.000000e+00
3.283217e+03,0.000000e+00
3.284181e+03,0.000000e+00
3.285145e+03,0.000000e+00
3.286109e+03,0.000000e+00
3.287073e+03,0.000000e+00
3.288038e+03,0.000000e+00
3.289002e+03,0.000000e+00
3.289966e+03,0.000000e+00
3.290930e+03,0.000000e+00
3.291895e+03,0.000000e+00
3.292859e+03,0.000000e+00
3.293823e+03,0.000000e+00
3.294787e+03,0.000000e+00
3.295751e+03,0.000000e+00
3.296716e+03,0.000000e+00
3.297680e+03,0.000000e+00
3.298644e+03,0.000000e+00
3.299608e+03,0.000000e+00
3.300573e+03,0.000000e+00
3.301537e+03,0.000000e+00
3.302501e+03,0.000000e+00
3.303465e+03,0.000000e+00
3.304430e+03,0.000000e+00
3.305394e+03,0.000000e+00
3.306358e+03,0.000000e+00
3.307322e+03,0.000000e+00
3.308287e+03,0.000000e+00
3.309251e+03,0.000000e+00
3.310215e+03,0.000000e+00
3.311179e+03,0.000000e+00
3.312144e+03,0.000000e+00
3.313108e+03,0.000000e+00
3.314072e+03,0.000000e+00
3.315036e+03,0.000000e+00
3.316000e+03,0.000000e+00
3.316965e+03,0.000000e+00
3.317929e+03,0.000000e+00
3.318893e+03,0.000000e+00
3.319857e+03,0.000000e+00
3.320822e+03,0.000000e+00
3.321786e+03,0.000000e+00
3.322750e+03,0.000000e+00
3.323714e+03,0.000000e+00
3.324678e+03,0.000000e+00
3.325643e+03,0.000000e+00
3.326607e+03,0.000000e+00
3.327571e+03,0.000000e+00
3.328535e+03,0.000000e+00
3.329500e+03,0.000000e+00
3.330464e+03,0.000000e+00
3.331428e+03,0.000000e+00
3.332392e+03,0.000000e+00
3.333357e+03,0.000000e+00
3.334321e+03,0.000000e+00
3.335285e+03,0.000000e+00
3.336249e+03,0.000000e+00
3.337214e+03,0.000000e+00
3.338178e+03,0.000000e+00
3.339142e+03,0.000000e+00
3.340106e+03,0.000000e+00
3.341071e+03,0.000000e+00
3.342035e+03,0.000000e+00
3.342999e+03,0.000000e+00
3.343963e+03,0.000000e+00
3.344927e+03,0.000000e+00
3.345892e+03,0.000000e+00
3.346856e+03,0.000000e+00
3.347820e+03,0.000000e+00
3.348784e+03,0.000000e+00
3.349749e+03,0.000000e+00
3.350713e+03,0.000000e+00
3.351677e+03,0.000000e+00
3.352641e+03,0.000000e+00
3.353605e+03,0.000000e+00
3.354570e+03,0.000000e+00
3.355534e+03,0.000000e+00
3.356498e+03,0.000000e+00
3.357462e+03,0.000000e+00
3.358427e+03,0.000000e+00
3.359391e+03,0.000000e+00
3.360355e+03,0.000000e+00
3.361319e+03,0.000000e+00
3.362284e+03,0.000000e+00
3.363248e+03,0.000000e+00
3.364212e+03,0.000000e+00
3.365176e+03,0.000000e+00
3.366141e+03,0.000000e+00
3.367105e+03,0.000000e+00
3.368069e+03,0.000000e+00
3.369033e+03,0.000000e+00
3.369998e+03,0.000000e+00
3.370962e+03,0.000000e+00
3.371926e+03,0.000000e+00
3.372890e+03,0.000000e+00
3.373854e+03,0.000000e+00
3.374819e+03,0.000000e+00
3.375783e+03,0.000000e+00
3.376747e+03,0.000000e+00
3.377711e+03,0.000000e+00
3.378676e+03,0.000000e+00
3.379640e+03,0.000000e+00
3.380604e+03,0.000000e+00
3.381568e+03,0.000000e+00
3.382532e+03,0.000000e+00
3.383497e+03,0.000000e+00
3.384461e+03,0.000000e+00
3.385425e+03,0.000000e+00
3.386389e+03,0.000000e+00
3.387354e+03,0.000000e+00
3.388318e+03,0.000000e+00
3.389282e+03,0.000000e+00
3.390246e+03,0.000000e+00
3.391211e+03,0.000000e+00
3.392175e+03,0.000000e+00
3.393139e+03,0.000000e+00
3.394103e+03,0.000000e+00
3.395068e+03,0.000000e+00
3.396032e+03,0.000000e+00
3.396996e+03,0.000000e+00
3.397960e+03,0.000000e+00
3.398925e+03,0.000000e+00
3.399889e+03,0.000000e+00
3.400853e+03,0.000000e+00
3.401817e+03,0.000000e+00
3.402781e+03,0.000000e+00
3.403746e+03,0.000000e+00
3.404710e+03,0.000000e+00
3.405674e+03,0.000000e+00
3.406638e+03,0.000000e+00
3.407603e+03,0.000000e+00
3.408567e+03,0.000000e+00
3.409531e+03,0.000000e+00
3.410495e+03,0.000000e+00
3.411459e+03,0.000000e+00
3.412424e+03,0.000000e+00
3.413388e+03,0.000000e+00
3.414352e+03,0.000000e+00
3.415316e+03,0.000000e+00
3.416281e+03,0.000000e+00
3.417245e+03,0.000000e+00
3.418209e+03,0.000000e+00
3.419173e+03,0.000000e+00
3.420138e+03,0.000000e+00
3.421102e+03,0.000000e+00
3.422066e+03,0.000000e+00
3.423030e+03,0.000000e+00
3.423995e+03,0.000000e+00
3.424959e+03,0.000000e+00
3.425923e+03,0.000000e+00
3.426887e+03,0.000000e+00
3.427852e+03,0.000000e+00
3.428816e+03,0.000000e+00
3.429780e+03,0.000000e+00
3.430744e+03,0.000000e+00
3.431708e+03,0.000000e+00
3.432673e+03,0.000000e+00
3.433637e+03,0.000000e+00
3.434601e+03,0.000000e+00
3.435565e+03,0.000000e+00
3.436530e+03,0.000000e+00
3.437494e+03,0.000000e+00
3.438458e+03,0.000000e+00
3.439422e+03,0.000000e+00
3.440386e+03,0.000000e+00
3.441351e+03,0.000000e+00
3.442315e+03,0.000000e+00
3.443279e+03,0.000000e+00
3.444243e+03,0.000000e+00
3.445208e+03,0.000000e+00
3.446172e+03,0.000000e+00
3.447136e+03,0.000000e+00
3.448100e+03,0.000000e+00
3.449065e+03,0.000000e+00
3.450029e+03,0.000000e+00
3.450993e+03,0.000000e+00
3.451957e+03,0.000000e+00
3.452922e+03,0.000000e+00
3.453886e+03,0.000000e+00
3.454850e+03,0.000000e+00
3.455814e+03,0.000000e+00
3.456779e+03,0.000000e+00
3.457743e+03,0.000000e+00
3.458707e+03,0.000000e+00
3.459671e+03,0.000000e+00
3.460635e+03,0.000000e+00
3.461600e+03,0.000000e+00
3.462564e+03,0.000000e+00
3.463528e+03,0.000000e+00
3.464492e+03,0.000000e+00
3.465457e+03,0.000000e+00
3.466421e+03,0.000000e+00
3.467385e+03,0.000000e+00
3.468349e+03,0.000000e+00
3.469313e+03,0.000000e+00
3.470278e+03,0.000000e+00
3.471242e+03,0.000000e+00
3.472206e+03,0.000000e+00
3.473170e+03,0.000000e+00
3.474135e+03,0.000000e+00
3.475099e+03,0.000000e+00
3.476063e+03,0.000000e+00
3.477027e+03,0.000000e+00
3.477992e+03,0.000000e+00
3.478956e+03,0.000000e+00
3.479920e+03,0.000000e+00
3.480884e+03,0.000000e+00
3.481849e+03,0.000000e+00
3.482813e+03,0.000000e+00
3.483777e+03,0.000000e+00
3.484741e+03,0.000000e+00
3.485706e+03,0.000000e+00
3.486670e+03,0.000000e+00
3.487634e+03,0.000000e+00
3.488598e+03,0.000000e+00
3.489563e+03,0.000000e+00
3.490527e+03,0.000000e+00
3.491491e+03,0.000000e+00
3.492455e+03,0.000000e+00
3.493419e+03,0.000000e+00
3.494384e+03,0.000000e+00
3.495348e+03,0.000000e+00
3.496312e+03,0.000000e+00
3.497276e+03,0.000000e+00
3.498240e+03,0.000000e+00
3.499205e+03,0.000000e+00
3.500169e+03,0.000000e+00
