9.931763e+01,0.000000e+00
1.002819e+02,0.000000e+00
1.012461e+02,0.000000e+00
1.022103e+02,0.000000e+00
1.031746e+02,0.000000e+00
1.041388e+02,0.000000e+00
1.051030e+02,0.000000e+00
1.060673e+02,0.000000e+00
1.070315e+02,0.000000e+00
1.079957e+02,0.000000e+00
1.089600e+02,0.000000e+00
1.099242e+02,0.000000e+00
1.108884e+02,0.000000e+00
1.118527e+02,0.000000e+00
1.128169e+02,0.000000e+00
1.137811e+02,0.000000e+00
1.147454e+02,0.000000e+00
1.157096e+02,0.000000e+00
1.166738e+02,0.000000e+00
1.176381e+02,0.000000e+00
1.186023e+02,0.000000e+00
1.195665e+02,0.000000e+00
1.205308e+02,0.000000e+00
1.214950e+02,0.000000e+00
1.224592e+02,0.000000e+00
1.234235e+02,0.000000e+00
1.243877e+02,0.000000e+00
1.253519e+02,0.000000e+00
1.263162e+02,0.000000e+00
1.272804e+02,0.000000e+00
1.282446e+02,0.000000e+00
1.292089e+02,0.000000e+00
1.301731e+02,0.000000e+00
1.311373e+02,0.000000e+00
1.321016e+02,0.000000e+00
1.330658e+02,0.000000e+00
1.340300e+02,0.000000e+00
1.349943e+02,0.000000e+00
1.359585e+02,0.000000e+00
1.369227e+02,0.000000e+00
1.378870e+02,0.000000e+00
1.388512e+02,0.000000e+00
1.398154e+02,0.000000e+00
1.407797e+02,0.000000e+00
1.417439e+02,0.000000e+00
1.427081e+02,0.000000e+00
1.436724e+02,0.000000e+00
1.446366e+02,0.000000e+00
1.456008e+02,0.000000e+00
1.465651e+02,0.000000e+00
1.475293e+02,0.000000e+00
1.484935e+02,0.000000e+00
1.494578e+02,0.000000e+00
1.504220e+02,0.000000e+00
1.513862e+02,0.000000e+00
1.523505e+02,0.000000e+00
1.533147e+02,0.000000e+00
1.542789e+02,0.000000e+00
1.552432e+02,0.000000e+00
1.562074e+02,0.000000e+00
1.571716e+02,0.000000e+00
1.581359e+02,0.000000e+00
1.591001e+02,0.000000e+00
1.600643e+02,0.000000e+00
1.610286e+02,0.000000e+00
1.619928e+02,0.000000e+00
1.629570e+02,0.000000e+00
1.639213e+02,0.000000e+00
1.648855e+02,0.000000e+00
1.658497e+02,0.000000e+00
1.668140e+02,0.000000e+00
1.677782e+02,0.000000e+00
1.687424e+02,0.000000e+00
1.697067e+02,0.000000e+00
1.706709e+02,0.000000e+00
1.716351e+02,0.000000e+00
1.725994e+02,0.000000e+00
1.735636e+02,0.000000e+00
1.745278e+02,0.000000e+00
1.754921e+02,0.000000e+00
1.764563e+02,0.000000e+00
1.774205e+02,0.000000e+00
1.783848e+02,0.000000e+00
1.793490e+02,0.000000e+00
1.803132e+02,0.000000e+00
1.812775e+02,0.000000e+00
1.822417e+02,0.000000e+00
1.832059e+02,0.000000e+00
1.841702e+02,0.000000e+00
1.851344e+02,0.000000e+00
1.860986e+02,0.000000e+00
1.870629e+02,0.000000e+00
1.880271e+02,0.000000e+00
1.889913e+02,0.000000e+00
1.899556e+02,0.000000e+00
1.909198e+02,0.000000e+00
1.918840e+02,0.000000e+00
1.928483e+02,0.000000e+00
1.938125e+02,0.000000e+00
1.947767e+02,0.000000e+00
1.957410e+02,0.000000e+00
1.967052e+02,0.000000e+00
1.976694e+02,0.000000e+00
1.986337e+02,0.000000e+00
1.995979e+02,4.585454e+03
2.005621e+02,4.585648e+03
2.015264e+02,4.589451e+03
2.024906e+02,4.601833e+03
2.034548e+02,4.613629e+03
2.044191e+02,4.622047e+03
2.053833e+02,4.626279e+03
2.063475e+02,4.627187e+03
2.073118e+02,4.624763e+03
2.082760e+02,4.616570e+03
2.092402e+02,4.612875e+03
2.102045e+02,4.619859e+03
2.111687e+02,4.631571e+03
2.121329e+02,4.643342e+03
2.130972e+02,4.652334e+03
2.140614e+02,4.658633e+03
2.150256e+02,4.664480e+03
2.159899e+02,4.670081e+03
2.169541e+02,4.676055e+03
2.179183e+02,4.683579e+03
2.188826e+02,4.691897e+03
2.198468e+02,4.700063e+03
2.208110e+02,4.707911e+03
2.217753e+02,4.714766e+03
2.227395e+02,4.717481e+03
2.237037e+02,4.713724e+03
2.246680e+02,4.709727e+03
2.256322e+02,4.710607e+03
2.265964e+02,4.721295e+03
2.275607e+02,4.735410e+03
2.285249e+02,4.744920e+03
2.294892e+02,4.748938e+03
2.304534e+02,4.753424e+03
2.314176e+02,4.761030e+03
2.323819e+02,4.770107e+03
2.333461e+02,4.777289e+03
2.343103e+02,4.780977e+03
2.352746e+02,4.783338e+03
2.362388e+02,4.787522e+03
2.372030e+02,4.793731e+03
2.381673e+02,4.798757e+03
2.391315e+02,4.799725e+03
2.400957e+02,4.795287e+03
2.410600e+02,4.793260e+03
2.420242e+02,4.798748e+03
2.429884e+02,4.811525e+03
2.439527e+02,4.827737e+03
2.449169e+02,4.844226e+03
2.458811e+02,4.860283e+03
2.468454e+02,4.871583e+03
2.478096e+02,4.874622e+03
2.487738e+02,4.875713e+03
2.497381e+02,4.879232e+03
2.507023e+02,4.886069e+03
2.516665e+02,4.894377e+03
2.526308e+02,4.900721e+03
2.535950e+02,4.898425e+03
2.545592e+02,4.898120e+03
2.555235e+02,4.904278e+03
2.564877e+02,4.912952e+03
2.574519e+02,4.919329e+03
2.584161e+02,4.920652e+03
2.593804e+02,4.918531e+03
2.603446e+02,4.922243e+03
2.613088e+02,4.935286e+03
2.622731e+02,4.948865e+03
2.632373e+02,4.961205e+03
2.642015e+02,4.970839e+03
2.651658e+02,4.977063e+03
2.661300e+02,4.979040e+03
2.670942e+02,4.976931e+03
2.680585e+02,4.979144e+03
2.690227e+02,4.990772e+03
2.699869e+02,5.005326e+03
2.709512e+02,5.018333e+03
2.719154e+02,5.030628e+03
2.728796e+02,5.041706e+03
2.738439e+02,5.050034e+03
2.748081e+02,5.056110e+03
2.757723e+02,5.063612e+03
2.767366e+02,5.070395e+03
2.777008e+02,5.074704e+03
2.786650e+02,5.078714e+03
2.796293e+02,5.087005e+03
2.805935e+02,5.097024e+03
2.815577e+02,5.102659e+03
2.825220e+02,5.101625e+03
2.834862e+02,5.095770e+03
2.844504e+02,5.088876e+03
2.854147e+02,5.080640e+03
2.863789e+02,5.074172e+03
2.873431e+02,5.072160e+03
2.883074e+02,5.074378e+03
2.892716e+02,5.078539e+03
2.902358e+02,5.082431e+03
2.912001e+02,5.085409e+03
2.921643e+02,5.088625e+03
2.931285e+02,5.094509e+03
2.940928e+02,5.100625e+03
2.950570e+02,5.104973e+03
2.960212e+02,5.106742e+03
2.969855e+02,5.106758e+03
2.979497e+02,5.107360e+03
2.989139e+02,5.111094e+03
2.998782e+02,5.111998e+03
3.008424e+02,5.107762e+03
3.018066e+02,5.105084e+03
3.027709e+02,5.108396e+03
3.037351e+02,5.119804e+03
3.046993e+02,5.133240e+03
3.056636e+02,5.137963e+03
3.066278e+02,5.131532e+03
3.075920e+02,5.124470e+03
3.085563e+02,5.120142e+03
3.095205e+02,5.119407e+03
3.104847e+02,5.122396e+03
3.114490e+02,5.127822e+03
3.124132e+02,5.135083e+03
3.133774e+02,5.145708e+03
3.143417e+02,5.161476e+03
3.153059e+02,5.175529e+03
3.162701e+02,5.179802e+03
3.172344e+02,5.172664e+03
3.181986e+02,5.166909e+03
3.191628e+02,5.167320e+03
3.201271e+02,5.172114e+03
3.210913e+02,5.177158e+03
3.220555e+02,5.179844e+03
3.230198e+02,5.180735e+03
3.239840e+02,5.186357e+03
3.249482e+02,5.204583e+03
3.259125e+02,5.218875e+03
3.268767e+02,5.221802e+03
3.278409e+02,5.216020e+03
3.288052e+02,5.209333e+03
3.297694e+02,5.209041e+03
3.307336e+02,5.216835e+03
3.316979e+02,5.221101e+03
3.326621e+02,5.214490e+03
3.336263e+02,5.208182e+03
3.345906e+02,5.210150e+03
3.355548e+02,5.224001e+03
3.365190e+02,5.241091e+03
3.374833e+02,5.250788e+03
3.384475e+02,5.251960e+03
3.394117e+02,5.251499e+03
3.403760e+02,5.247610e+03
3.413402e+02,5.242695e+03
3.423044e+02,5.241703e+03
3.432687e+02,5.245979e+03
3.442329e+02,5.253662e+03
3.451971e+02,5.264338e+03
3.461614e+02,5.276600e+03
3.471256e+02,5.284152e+03
3.480898e+02,5.282990e+03
3.490541e+02,5.270917e+03
3.500183e+02,5.262933e+03
3.509825e+02,5.261138e+03
3.519468e+02,5.264667e+03
3.529110e+02,5.273611e+03
3.538752e+02,5.286740e+03
3.548395e+02,5.299399e+03
3.558037e+02,5.304294e+03
3.567680e+02,5.294475e+03
3.577322e+02,5.288574e+03
3.586964e+02,5.290925e+03
3.596607e+02,5.299388e+03
3.606249e+02,5.310426e+03
3.615891e+02,5.321624e+03
3.625534e+02,5.330331e+03
3.635176e+02,5.333977e+03
3.644818e+02,5.333178e+03
3.654461e+02,5.331288e+03
3.664103e+02,5.333166e+03
3.673745e+02,5.340335e+03
3.683388e+02,5.347207e+03
3.693030e+02,5.346241e+03
3.702672e+02,5.341602e+03
3.712315e+02,5.341576e+03
3.721957e+02,5.347889e+03
3.731599e+02,5.355771e+03
3.741242e+02,5.359763e+03
3.750884e+02,5.360028e+03
3.760526e+02,5.362019e+03
3.770169e+02,5.365514e+03
3.779811e+02,5.369771e+03
3.789453e+02,5.373929e+03
3.799096e+02,5.377276e+03
3.808738e+02,5.379353e+03
3.818380e+02,5.380063e+03
3.828023e+02,5.382044e+03
3.837665e+02,5.383901e+03
3.847307e+02,5.383091e+03
3.856950e+02,5.380866e+03
3.866592e+02,5.380048e+03
3.876234e+02,5.382347e+03
3.885877e+02,5.386834e+03
3.895519e+02,5.391667e+03
3.905161e+02,5.397013e+03
3.914804e+02,5.400286e+03
3.924446e+02,5.398314e+03
3.934088e+02,5.391029e+03
3.943731e+02,5.385472e+03
3.953373e+02,5.383655e+03
3.963015e+02,5.384173e+03
3.972658e+02,5.384751e+03
3.982300e+02,5.385019e+03
3.991942e+02,5.387888e+03
4.001585e+02,5.397111e+03
4.011227e+02,5.418104e+03
4.020869e+02,5.435544e+03
4.030512e+02,5.445728e+03
4.040154e+02,5.449198e+03
4.049796e+02,5.448306e+03
4.059439e+02,5.441655e+03
4.069081e+02,5.431797e+03
4.078723e+02,5.430024e+03
4.088366e+02,5.439938e+03
4.098008e+02,5.447531e+03
4.107650e+02,5.444432e+03
4.117293e+02,5.432290e+03
4.126935e+02,5.423338e+03
4.136577e+02,5.421679e+03
4.146220e+02,5.425509e+03
4.155862e+02,5.433589e+03
4.165504e+02,5.446234e+03
4.175147e+02,5.460705e+03
4.184789e+02,5.472367e+03
4.194431e+02,5.483926e+03
4.204074e+02,5.488158e+03
4.213716e+02,5.478880e+03
4.223358e+02,5.464317e+03
4.233001e+02,5.452926e+03
4.242643e+02,5.448853e+03
4.252285e+02,5.450686e+03
4.261928e+02,5.455424e+03
4.271570e+02,5.465771e+03
4.281212e+02,5.474174e+03
4.290855e+02,5.473835e+03
4.300497e+02,5.467880e+03
4.310139e+02,5.464265e+03
4.319782e+02,5.468358e+03
4.329424e+02,5.475953e+03
4.339066e+02,5.482166e+03
4.348709e+02,5.485942e+03
4.358351e+02,5.486487e+03
4.367993e+02,5.482606e+03
4.377636e+02,5.470962e+03
4.387278e+02,5.464896e+03
4.396920e+02,5.469578e+03
4.406563e+02,5.477545e+03
4.416205e+02,5.483033e+03
4.425847e+02,5.484291e+03
4.435490e+02,5.483639e+03
4.445132e+02,5.484469e+03
4.454774e+02,5.487601e+03
4.464417e+02,5.492549e+03
4.474059e+02,5.500829e+03
4.483701e+02,5.508392e+03
4.493344e+02,5.511208e+03
4.502986e+02,5.507113e+03
4.512628e+02,5.501792e+03
4.522271e+02,5.497589e+03
4.531913e+02,5.494846e+03
4.541555e+02,5.495411e+03
4.551198e+02,5.501037e+03
4.560840e+02,5.511999e+03
4.570482e+02,5.517068e+03
4.580125e+02,5.514170e+03
4.589767e+02,5.512345e+03
4.599409e+02,5.511378e+03
4.609052e+02,5.510712e+03
4.618694e+02,5.512131e+03
4.628336e+02,5.522477e+03
4.637979e+02,5.540167e+03
4.647621e+02,5.545013e+03
4.657263e+02,5.530584e+03
4.666906e+02,5.512936e+03
4.676548e+02,5.506042e+03
4.686190e+02,5.511070e+03
4.695833e+02,5.517345e+03
4.705475e+02,5.523612e+03
4.715117e+02,5.527835e+03
4.724760e+02,5.526770e+03
4.734402e+02,5.519389e+03
4.744044e+02,5.508935e+03
4.753687e+02,5.502037e+03
4.763329e+02,5.498524e+03
4.772971e+02,5.499619e+03
4.782614e+02,5.507903e+03
4.792256e+02,5.520107e+03
4.801898e+02,5.531701e+03
4.811541e+02,5.539895e+03
4.821183e+02,5.545947e+03
4.830826e+02,5.552779e+03
4.840468e+02,5.560167e+03
4.850110e+02,5.563302e+03
4.859753e+02,5.558217e+03
4.869395e+02,5.543847e+03
4.879037e+02,5.536796e+03
4.888680e+02,5.547359e+03
4.898322e+02,5.557625e+03
4.907964e+02,5.555895e+03
4.917607e+02,5.543670e+03
4.927249e+02,5.531474e+03
4.936891e+02,5.529625e+03
4.946534e+02,5.538609e+03
4.956176e+02,5.546943e+03
4.965818e+02,5.555056e+03
4.975461e+02,5.562052e+03
4.985103e+02,5.566650e+03
4.994745e+02,5.567443e+03
5.004388e+02,5.566057e+03
5.014030e+02,5.565248e+03
5.023672e+02,5.564262e+03
5.033315e+02,5.559429e+03
5.042957e+02,5.548706e+03
5.052599e+02,5.535992e+03
5.062242e+02,5.531917e+03
5.071884e+02,5.546284e+03
5.081526e+02,5.556889e+03
5.091169e+02,5.561163e+03
5.100811e+02,5.562156e+03
5.110453e+02,5.561674e+03
5.120095e+02,5.558963e+03
5.129738e+02,5.558172e+03
5.139380e+02,5.567385e+03
5.149022e+02,5.586555e+03
5.158665e+02,5.601438e+03
5.168307e+02,5.601326e+03
5.177949e+02,5.583902e+03
5.187592e+02,5.568725e+03
5.197234e+02,5.564321e+03
5.206876e+02,5.562252e+03
5.216519e+02,5.557881e+03
5.226161e+02,5.552844e+03
5.235803e+02,5.551510e+03
5.245446e+02,5.560646e+03
5.255088e+02,5.577878e+03
5.264730e+02,5.585501e+03
5.274373e+02,5.578766e+03
5.284015e+02,5.569860e+03
5.293657e+02,5.570081e+03
5.303300e+02,5.581329e+03
5.312942e+02,5.586198e+03
5.322584e+02,5.577317e+03
5.332227e+02,5.566714e+03
5.341869e+02,5.564345e+03
5.351511e+02,5.571200e+03
5.361154e+02,5.582359e+03
5.370796e+02,5.593087e+03
5.380438e+02,5.604386e+03
5.390081e+02,5.614644e+03
5.399723e+02,5.625300e+03
5.409365e+02,5.634778e+03
5.419008e+02,5.639485e+03
5.428650e+02,5.634302e+03
5.438292e+02,5.629426e+03
5.447935e+02,5.632582e+03
5.457577e+02,5.640246e+03
5.467219e+02,5.644830e+03
5.476862e+02,5.643097e+03
5.486504e+02,5.637124e+03
5.496146e+02,5.633703e+03
5.505789e+02,5.634949e+03
5.515431e+02,5.634901e+03
5.525073e+02,5.632251e+03
5.534716e+02,5.631292e+03
5.544358e+02,5.635384e+03
5.554000e+02,5.646988e+03
5.563643e+02,5.659836e+03
5.573285e+02,5.668641e+03
5.582927e+02,5.672837e+03
5.592570e+02,5.672903e+03
5.602212e+02,5.669549e+03
5.611854e+02,5.662333e+03
5.621497e+02,5.654356e+03
5.631139e+02,5.643886e+03
5.640781e+02,5.631412e+03
5.650424e+02,5.618442e+03
5.660066e+02,5.605612e+03
5.669708e+02,5.593261e+03
5.679351e+02,5.581289e+03
5.688993e+02,5.571135e+03
5.698635e+02,5.565081e+03
5.708278e+02,5.563890e+03
5.717920e+02,5.566748e+03
5.727562e+02,5.572057e+03
5.737205e+02,5.579574e+03
5.746847e+02,5.585521e+03
5.756489e+02,5.592432e+03
5.766132e+02,5.594643e+03
5.775774e+02,5.587059e+03
5.785416e+02,5.569939e+03
5.795059e+02,5.553487e+03
5.804701e+02,5.544654e+03
5.814343e+02,5.542710e+03
5.823986e+02,5.547278e+03
5.833628e+02,5.560387e+03
5.843270e+02,5.575003e+03
5.852913e+02,5.580995e+03
5.862555e+02,5.569307e+03
5.872197e+02,5.562484e+03
5.881840e+02,5.561380e+03
5.891482e+02,5.563272e+03
5.901124e+02,5.566072e+03
5.910767e+02,5.569066e+03
5.920409e+02,5.573908e+03
5.930051e+02,5.584337e+03
5.939694e+02,5.598378e+03
5.949336e+02,5.606921e+03
5.958978e+02,5.606881e+03
5.968621e+02,5.600617e+03
5.978263e+02,5.593977e+03
5.987905e+02,5.585600e+03
5.997548e+02,5.580317e+03
6.007190e+02,5.580517e+03
6.016832e+02,5.584408e+03
6.026475e+02,5.588443e+03
6.036117e+02,5.588789e+03
6.045759e+02,5.589843e+03
6.055402e+02,5.598808e+03
6.065044e+02,5.613895e+03
6.074686e+02,5.626420e+03
6.084329e+02,5.634410e+03
6.093971e+02,5.638096e+03
6.103613e+02,5.635890e+03
6.113256e+02,5.623808e+03
6.122899e+02,5.610351e+03
6.132541e+02,5.594701e+03
6.142183e+02,5.578728e+03
6.151826e+02,5.565808e+03
6.161468e+02,5.559973e+03
6.171110e+02,5.558698e+03
6.180753e+02,5.559002e+03
6.190395e+02,5.560101e+03
6.200037e+02,5.559278e+03
6.209680e+02,5.554580e+03
6.219322e+02,5.546903e+03
6.228964e+02,5.538915e+03
6.238607e+02,5.523561e+03
6.248249e+02,5.514833e+03
6.257891e+02,5.520158e+03
6.267534e+02,5.533713e+03
6.277176e+02,5.541853e+03
6.286818e+02,5.536570e+03
6.296461e+02,5.527474e+03
6.306103e+02,5.524899e+03
6.315745e+02,5.528952e+03
6.325388e+02,5.534299e+03
6.335030e+02,5.535750e+03
6.344672e+02,5.532273e+03
6.354315e+02,5.530200e+03
6.363957e+02,5.528548e+03
6.373599e+02,5.526752e+03
6.383242e+02,5.526226e+03
6.392884e+02,5.527484e+03
6.402526e+02,5.528722e+03
6.412169e+02,5.532260e+03
6.421811e+02,5.533359e+03
6.431453e+02,5.526232e+03
6.441096e+02,5.511264e+03
6.450738e+02,5.494154e+03
6.460380e+02,5.479336e+03
6.470023e+02,5.467903e+03
6.479665e+02,5.465179e+03
6.489307e+02,5.474111e+03
6.498950e+02,5.484602e+03
6.508592e+02,5.487405e+03
6.518234e+02,5.481182e+03
6.527877e+02,5.476024e+03
6.537519e+02,5.474979e+03
6.547161e+02,5.475213e+03
6.556804e+02,5.475448e+03
6.566446e+02,5.475513e+03
6.576088e+02,5.474480e+03
6.585731e+02,5.470141e+03
6.595373e+02,5.463295e+03
6.605015e+02,5.459010e+03
6.614658e+02,5.458167e+03
6.624300e+02,5.459084e+03
6.633942e+02,5.460101e+03
6.643585e+02,5.460351e+03
6.653227e+02,5.462187e+03
6.662869e+02,5.465755e+03
6.672512e+02,5.469124e+03
6.682154e+02,5.471486e+03
6.691796e+02,5.472016e+03
6.701439e+02,5.470777e+03
6.711081e+02,5.465004e+03
6.720723e+02,5.458200e+03
6.730366e+02,5.461339e+03
6.740008e+02,5.477498e+03
6.749650e+02,5.493024e+03
6.759293e+02,5.490196e+03
6.768935e+02,5.461437e+03
6.778577e+02,5.438800e+03
6.788220e+02,5.422259e+03
6.797862e+02,5.415537e+03
6.807504e+02,5.422531e+03
6.817147e+02,5.445492e+03
6.826789e+02,5.461183e+03
6.836431e+02,5.453759e+03
6.846074e+02,5.436022e+03
6.855716e+02,5.423331e+03
6.865358e+02,5.419539e+03
6.875001e+02,5.419031e+03
6.884643e+02,5.414657e+03
6.894285e+02,5.406686e+03
6.903928e+02,5.400837e+03
6.913570e+02,5.397191e+03
6.923212e+02,5.395152e+03
6.932855e+02,5.395226e+03
6.942497e+02,5.402146e+03
6.952139e+02,5.406251e+03
6.961782e+02,5.401632e+03
6.971424e+02,5.396725e+03
6.981066e+02,5.397911e+03
6.990709e+02,5.404376e+03
7.000351e+02,5.407334e+03
7.009993e+02,5.401349e+03
7.019636e+02,5.391030e+03
7.029278e+02,5.382380e+03
7.038920e+02,5.375891e+03
7.048563e+02,5.371557e+03
7.058205e+02,5.372686e+03
7.067847e+02,5.385803e+03
7.077490e+02,5.389036e+03
7.087132e+02,5.375322e+03
7.096774e+02,5.361739e+03
7.106417e+02,5.358127e+03
7.116059e+02,5.366062e+03
7.125701e+02,5.371772e+03
7.135344e+02,5.369808e+03
7.144986e+02,5.367106e+03
7.154628e+02,5.370307e+03
7.164271e+02,5.379481e+03
7.173913e+02,5.387489e+03
7.183555e+02,5.387440e+03
7.193198e+02,5.380058e+03
7.202840e+02,5.368866e+03
7.212482e+02,5.353947e+03
7.222125e+02,5.340369e+03
7.231767e+02,5.332865e+03
7.241409e+02,5.332463e+03
7.251052e+02,5.330843e+03
7.260694e+02,5.325925e+03
7.270336e+02,5.320890e+03
7.279979e+02,5.318875e+03
7.289621e+02,5.320050e+03
7.299263e+02,5.321455e+03
7.308906e+02,5.321368e+03
7.318548e+02,5.320124e+03
7.328190e+02,5.319133e+03
7.337833e+02,5.318458e+03
7.347475e+02,5.316600e+03
7.357117e+02,5.313106e+03
7.366760e+02,5.308928e+03
7.376402e+02,5.303596e+03
7.386044e+02,5.296370e+03
7.395687e+02,5.290787e+03
7.405329e+02,5.289097e+03
7.414971e+02,5.292136e+03
7.424614e+02,5.293997e+03
7.434256e+02,5.298024e+03
7.443898e+02,5.303449e+03
7.453541e+02,5.307672e+03
7.463183e+02,5.308058e+03
7.472825e+02,5.305622e+03
7.482468e+02,5.301808e+03
7.492110e+02,5.295714e+03
7.501752e+02,5.287755e+03
7.511395e+02,5.280110e+03
7.521037e+02,5.273702e+03
7.530679e+02,5.265922e+03
7.540322e+02,5.256342e+03
7.549964e+02,5.253444e+03
7.559606e+02,5.260473e+03
7.569249e+02,5.267142e+03
7.578891e+02,5.265746e+03
7.588533e+02,5.256063e+03
7.598176e+02,5.255022e+03
7.607818e+02,5.267407e+03
7.617460e+02,5.274771e+03
7.627103e+02,5.270779e+03
7.636745e+02,5.260115e+03
7.646387e+02,5.251857e+03
7.656030e+02,5.250732e+03
7.665672e+02,5.252038e+03
7.675314e+02,5.248685e+03
7.684957e+02,5.239292e+03
7.694599e+02,5.229185e+03
7.704241e+02,5.225895e+03
7.713884e+02,5.227812e+03
7.723526e+02,5.223363e+03
7.733168e+02,5.212442e+03
7.742811e+02,5.207795e+03
7.752453e+02,5.213457e+03
7.762095e+02,5.226026e+03
7.771738e+02,5.236545e+03
7.781380e+02,5.243909e+03
7.791022e+02,5.246218e+03
7.800665e+02,5.243717e+03
7.810307e+02,5.238430e+03
7.819949e+02,5.232985e+03
7.829592e+02,5.230170e+03
7.839234e+02,5.228625e+03
7.848876e+02,5.227503e+03
7.858519e+02,5.225483e+03
7.868161e+02,5.220678e+03
7.877803e+02,5.211577e+03
7.887446e+02,5.201476e+03
7.897088e+02,5.196970e+03
7.906730e+02,5.199111e+03
7.916373e+02,5.202479e+03
7.926015e+02,5.202837e+03
7.935657e+02,5.198719e+03
7.945300e+02,5.194089e+03
7.954942e+02,5.192597e+03
7.964584e+02,5.186802e+03
7.974227e+02,5.178151e+03
7.983869e+02,5.171276e+03
7.993511e+02,5.165435e+03
8.003154e+02,5.155959e+03
8.012796e+02,5.146542e+03
8.022438e+02,5.140984e+03
8.032081e+02,5.138015e+03
8.041723e+02,5.136656e+03
8.051365e+02,5.135995e+03
8.061008e+02,5.133420e+03
8.070650e+02,5.122933e+03
8.080292e+02,5.108592e+03
8.089935e+02,5.100886e+03
8.099577e+02,5.102601e+03
8.109219e+02,5.107065e+03
8.118862e+02,5.105465e+03
8.128504e+02,5.098071e+03
8.138146e+02,5.094771e+03
8.147789e+02,5.096162e+03
8.157431e+02,5.098186e+03
8.167073e+02,5.098850e+03
8.176716e+02,5.100546e+03
8.186358e+02,5.103076e+03
8.196000e+02,5.107370e+03
8.205643e+02,5.110885e+03
8.215285e+02,5.110259e+03
8.224927e+02,5.105465e+03
8.234570e+02,5.099138e+03
8.244212e+02,5.090708e+03
8.253854e+02,5.082373e+03
8.263497e+02,5.073911e+03
8.273139e+02,5.064445e+03
8.282781e+02,5.054957e+03
8.292424e+02,5.046851e+03
8.302066e+02,5.042844e+03
8.311708e+02,5.047748e+03
8.321351e+02,5.059612e+03
8.330993e+02,5.068073e+03
8.340635e+02,5.066047e+03
8.350278e+02,5.056930e+03
8.359920e+02,5.052579e+03
8.369562e+02,5.053859e+03
8.379205e+02,5.056751e+03
8.388847e+02,5.061611e+03
8.398489e+02,5.066468e+03
8.408132e+02,5.065281e+03
8.417774e+02,5.052431e+03
8.427416e+02,5.039750e+03
8.437059e+02,5.024738e+03
8.446701e+02,5.012436e+03
8.456343e+02,5.009453e+03
8.465986e+02,5.022148e+03
8.475628e+02,5.031852e+03
8.485270e+02,5.030339e+03
8.494913e+02,5.023688e+03
8.504555e+02,5.018956e+03
8.514197e+02,5.018454e+03
8.523840e+02,5.018327e+03
8.533482e+02,5.012146e+03
8.543124e+02,5.003283e+03
8.552767e+02,5.000416e+03
8.562409e+02,5.004108e+03
8.572051e+02,5.007022e+03
8.581694e+02,5.002188e+03
8.591336e+02,4.990936e+03
8.600978e+02,4.980249e+03
8.610621e+02,4.970820e+03
8.620263e+02,4.964085e+03
8.629905e+02,4.959640e+03
8.639548e+02,4.955659e+03
8.649190e+02,4.953722e+03
8.658832e+02,4.958570e+03
8.668475e+02,4.963931e+03
8.678117e+02,4.967253e+03
8.687759e+02,4.968112e+03
8.697402e+02,4.967314e+03
8.707044e+02,4.959058e+03
8.716686e+02,4.950042e+03
8.726329e+02,4.946901e+03
8.735971e+02,4.947711e+03
8.745613e+02,4.946909e+03
8.755256e+02,4.946107e+03
8.764898e+02,4.942140e+03
8.774540e+02,4.923692e+03
8.784183e+02,4.900449e+03
8.793825e+02,4.892313e+03
8.803467e+02,4.909102e+03
8.813110e+02,4.931779e+03
8.822752e+02,4.936372e+03
8.832394e+02,4.928343e+03
8.842037e+02,4.923632e+03
8.851679e+02,4.924883e+03
8.861321e+02,4.927340e+03
8.870964e+02,4.924702e+03
8.880606e+02,4.916192e+03
8.890248e+02,4.911935e+03
8.899891e+02,4.916993e+03
8.909533e+02,4.922778e+03
8.919175e+02,4.919312e+03
8.928818e+02,4.903477e+03
8.938460e+02,4.891894e+03
8.948102e+02,4.882351e+03
8.957745e+02,4.877000e+03
8.967387e+02,4.882280e+03
8.977029e+02,4.896331e+03
8.986672e+02,4.898075e+03
8.996314e+02,4.876054e+03
9.005956e+02,4.856717e+03
9.015599e+02,4.852693e+03
9.025241e+02,4.858720e+03
9.034883e+02,4.861575e+03
9.044526e+02,4.854923e+03
9.054168e+02,4.842713e+03
9.063810e+02,4.826600e+03
9.073453e+02,4.812295e+03
9.083095e+02,4.806156e+03
9.092737e+02,4.811196e+03
9.102380e+02,4.818063e+03
9.112022e+02,4.817281e+03
9.121664e+02,4.810480e+03
9.131307e+02,4.801654e+03
9.140949e+02,4.793243e+03
9.150591e+02,4.789739e+03
9.160234e+02,4.796699e+03
9.169876e+02,4.809917e+03
9.179518e+02,4.814761e+03
9.189161e+02,4.808871e+03
9.198803e+02,4.797565e+03
9.208445e+02,4.787521e+03
9.218088e+02,4.780497e+03
9.227730e+02,4.773405e+03
9.237372e+02,4.764063e+03
9.247015e+02,4.755857e+03
9.256657e+02,4.751129e+03
9.266299e+02,4.749593e+03
9.275942e+02,4.750240e+03
9.285584e+02,4.756577e+03
9.295226e+02,4.758748e+03
9.304869e+02,4.751749e+03
9.314511e+02,4.738951e+03
9.324153e+02,4.728783e+03
9.333796e+02,4.719908e+03
9.343438e+02,4.715642e+03
9.353080e+02,4.720788e+03
9.362723e+02,4.727438e+03
9.372365e+02,4.726205e+03
9.382007e+02,4.712335e+03
9.391650e+02,4.701255e+03
9.401292e+02,4.700971e+03
9.410934e+02,4.706055e+03
9.420577e+02,4.710384e+03
9.430219e+02,4.712171e+03
9.439861e+02,4.709523e+03
9.449504e+02,4.699136e+03
9.459146e+02,4.688174e+03
9.468788e+02,4.683748e+03
9.478431e+02,4.683846e+03
9.488073e+02,4.683342e+03
9.497715e+02,4.681099e+03
9.507358e+02,4.677937e+03
9.517000e+02,4.674962e+03
9.526642e+02,4.673391e+03
9.536285e+02,4.670436e+03
9.545927e+02,4.662443e+03
9.555569e+02,4.651453e+03
9.565212e+02,4.644443e+03
9.574854e+02,4.643014e+03
9.584496e+02,4.646295e+03
9.594139e+02,4.653159e+03
9.603781e+02,4.659713e+03
9.613423e+02,4.658804e+03
9.623066e+02,4.649075e+03
9.632708e+02,4.639218e+03
9.642350e+02,4.630942e+03
9.651993e+02,4.625866e+03
9.661635e+02,4.625861e+03
9.671277e+02,4.636330e+03
9.680920e+02,4.633822e+03
9.690562e+02,4.606392e+03
9.700204e+02,4.577812e+03
9.709847e+02,4.568823e+03
9.719489e+02,4.585729e+03
9.729131e+02,4.596750e+03
9.738774e+02,4.600208e+03
9.748416e+02,4.601959e+03
9.758058e+02,4.600743e+03
9.767701e+02,4.596378e+03
9.777343e+02,4.594725e+03
9.786985e+02,4.604167e+03
9.796628e+02,4.607004e+03
9.806270e+02,4.592386e+03
9.815912e+02,4.568876e+03
9.825555e+02,4.551238e+03
9.835197e+02,4.549107e+03
9.844839e+02,4.549426e+03
9.854482e+02,4.548654e+03
9.864124e+02,4.547378e+03
9.873766e+02,4.544304e+03
9.883409e+02,4.539065e+03
9.893051e+02,4.535940e+03
9.902693e+02,4.540529e+03
9.912336e+02,4.547230e+03
9.921978e+02,4.546831e+03
9.931620e+02,4.538075e+03
9.941263e+02,4.529766e+03
9.950905e+02,4.530723e+03
9.960547e+02,4.535012e+03
9.970190e+02,4.536288e+03
9.979832e+02,4.533605e+03
9.989474e+02,4.526350e+03
9.999117e+02,4.514580e+03
1.000876e+03,4.501284e+03
1.001840e+03,4.488406e+03
1.002804e+03,4.477929e+03
1.003769e+03,4.473746e+03
1.004733e+03,4.476647e+03
1.005697e+03,4.481710e+03
1.006661e+03,4.482586e+03
1.007626e+03,4.480392e+03
1.008590e+03,4.478493e+03
1.009554e+03,4.476466e+03
1.010518e+03,4.473609e+03
1.011482e+03,4.470989e+03
1.012447e+03,4.468200e+03
1.013411e+03,4.462139e+03
1.014375e+03,4.454585e+03
1.015339e+03,4.448950e+03
1.016304e+03,4.446839e+03
1.017268e+03,4.446882e+03
1.018232e+03,4.442341e+03
1.019196e+03,4.431619e+03
1.020161e+03,4.424524e+03
1.021125e+03,4.427108e+03
1.022089e+03,4.435982e+03
1.023053e+03,4.438195e+03
1.024018e+03,4.430345e+03
1.024982e+03,4.424386e+03
1.025946e+03,4.422129e+03
1.026910e+03,4.420148e+03
1.027875e+03,4.416714e+03
1.028839e+03,4.413990e+03
1.029803e+03,4.410737e+03
1.030767e+03,4.406380e+03
1.031731e+03,4.402981e+03
1.032696e+03,4.401226e+03
1.033660e+03,4.400739e+03
1.034624e+03,4.400290e+03
1.035588e+03,4.401414e+03
1.036552e+03,4.403168e+03
1.037517e+03,4.405087e+03
1.038481e+03,4.405186e+03
1.039445e+03,4.400333e+03
1.040409e+03,4.385670e+03
1.041374e+03,4.374694e+03
1.042338e+03,4.373807e+03
1.043302e+03,4.377049e+03
1.044266e+03,4.375479e+03
1.045231e+03,4.366093e+03
1.046195e+03,4.356098e+03
1.047159e+03,4.344370e+03
1.048123e+03,4.334720e+03
1.049088e+03,4.329861e+03
1.050052e+03,4.331588e+03
1.051016e+03,4.335086e+03
1.051980e+03,4.344382e+03
1.052945e+03,4.350243e+03
1.053909e+03,4.343720e+03
1.054873e+03,4.327115e+03
1.055837e+03,4.316698e+03
1.056802e+03,4.321944e+03
1.057766e+03,4.325890e+03
1.058730e+03,4.327598e+03
1.059694e+03,4.326356e+03
1.060658e+03,4.320070e+03
1.061623e+03,4.304928e+03
1.062587e+03,4.293979e+03
1.063551e+03,4.289009e+03
1.064515e+03,4.288890e+03
1.065479e+03,4.294269e+03
1.066444e+03,4.306582e+03
1.067408e+03,4.313894e+03
1.068372e+03,4.305325e+03
1.069336e+03,4.300485e+03
1.070301e+03,4.311820e+03
1.071265e+03,4.331842e+03
1.072229e+03,4.340150e+03
1.073193e+03,4.321619e+03
1.074158e+03,4.304833e+03
1.075122e+03,4.299846e+03
1.076086e+03,4.299676e+03
1.077050e+03,4.296644e+03
1.078015e+03,4.290992e+03
1.078979e+03,4.286222e+03
1.079943e+03,4.280266e+03
1.080907e+03,4.276157e+03
1.081872e+03,4.275007e+03
1.082836e+03,4.275791e+03
1.083800e+03,4.277092e+03
1.084764e+03,4.283821e+03
1.085729e+03,4.287985e+03
1.086693e+03,4.283676e+03
1.087657e+03,4.273104e+03
1.088621e+03,4.263378e+03
1.089585e+03,4.256789e+03
1.090550e+03,4.248128e+03
1.091514e+03,4.236125e+03
1.092478e+03,4.224771e+03
1.093442e+03,4.217815e+03
1.094406e+03,4.217596e+03
1.095371e+03,4.217552e+03
1.096335e+03,4.216470e+03
1.097299e+03,4.213421e+03
1.098263e+03,4.205749e+03
1.099228e+03,4.193532e+03
1.100192e+03,4.186610e+03
1.101156e+03,4.191991e+03
1.102120e+03,4.196493e+03
1.103085e+03,4.195205e+03
1.104049e+03,4.190065e+03
1.105013e+03,4.185197e+03
1.105977e+03,4.183924e+03
1.106942e+03,4.180159e+03
1.107906e+03,4.169961e+03
1.108870e+03,4.159217e+03
1.109834e+03,4.154448e+03
1.110799e+03,4.159351e+03
1.111763e+03,4.157342e+03
1.112727e+03,4.135799e+03
1.113691e+03,4.118498e+03
1.114656e+03,4.119603e+03
1.115620e+03,4.136546e+03
1.116584e+03,4.148931e+03
1.117548e+03,4.152312e+03
1.118512e+03,4.151295e+03
1.119477e+03,4.145255e+03
1.120441e+03,4.136398e+03
1.121405e+03,4.128598e+03
1.122369e+03,4.123786e+03
1.123334e+03,4.117507e+03
1.124298e+03,4.108489e+03
1.125262e+03,4.100543e+03
1.126226e+03,4.097290e+03
1.127191e+03,4.099890e+03
1.128155e+03,4.099317e+03
1.129119e+03,4.089344e+03
1.130083e+03,4.082933e+03
1.131047e+03,4.087914e+03
1.132012e+03,4.098493e+03
1.132976e+03,4.098020e+03
1.133940e+03,4.078802e+03
1.134904e+03,4.063597e+03
1.135869e+03,4.057854e+03
1.136833e+03,4.057430e+03
1.137797e+03,4.058181e+03
1.138761e+03,4.062824e+03
1.139726e+03,4.062938e+03
1.140690e+03,4.055718e+03
1.141654e+03,4.048042e+03
1.142618e+03,4.043770e+03
1.143583e+03,4.042614e+03
1.144547e+03,4.040104e+03
1.145511e+03,4.035819e+03
1.146475e+03,4.031001e+03
1.147439e+03,4.025254e+03
1.148404e+03,4.020519e+03
1.149368e+03,4.019321e+03
1.150332e+03,4.021560e+03
1.151296e+03,4.023746e+03
1.152261e+03,4.024188e+03
1.153225e+03,4.019845e+03
1.154189e+03,4.009758e+03
1.155153e+03,3.996403e+03
1.156118e+03,3.987650e+03
1.157082e+03,3.984909e+03
1.158046e+03,3.982977e+03
1.159010e+03,3.977609e+03
1.159974e+03,3.971145e+03
1.160939e+03,3.968584e+03
1.161903e+03,3.968827e+03
1.162867e+03,3.971343e+03
1.163831e+03,3.976041e+03
1.164796e+03,3.978015e+03
1.165760e+03,3.969898e+03
1.166724e+03,3.957058e+03
1.167688e+03,3.954200e+03
1.168653e+03,3.960395e+03
1.169617e+03,3.964555e+03
1.170581e+03,3.959695e+03
1.171545e+03,3.950518e+03
1.172510e+03,3.941269e+03
1.173474e+03,3.933370e+03
1.174438e+03,3.929927e+03
1.175402e+03,3.931845e+03
1.176366e+03,3.933351e+03
1.177331e+03,3.927796e+03
1.178295e+03,3.920668e+03
1.179259e+03,3.919277e+03
1.180223e+03,3.922432e+03
1.181188e+03,3.923087e+03
1.182152e+03,3.915614e+03
1.183116e+03,3.906261e+03
1.184080e+03,3.900441e+03
1.185045e+03,3.897234e+03
1.186009e+03,3.893273e+03
1.186973e+03,3.886536e+03
1.187937e+03,3.884054e+03
1.188901e+03,3.893491e+03
1.189866e+03,3.903751e+03
1.190830e+03,3.902867e+03
1.191794e+03,3.888681e+03
1.192758e+03,3.879174e+03
1.193723e+03,3.884825e+03
1.194687e+03,3.891521e+03
1.195651e+03,3.893839e+03
1.196615e+03,3.892159e+03
1.197580e+03,3.887939e+03
1.198544e+03,3.875808e+03
1.199508e+03,3.864024e+03
1.200472e+03,3.855406e+03
1.201437e+03,3.848863e+03
1.202401e+03,3.844388e+03
1.203365e+03,3.843463e+03
1.204329e+03,3.840338e+03
1.205293e+03,3.832424e+03
1.206258e+03,3.827571e+03
1.207222e+03,3.829713e+03
1.208186e+03,3.835746e+03
1.209150e+03,3.836696e+03
1.210115e+03,3.830722e+03
1.211079e+03,3.827900e+03
1.212043e+03,3.831695e+03
1.213007e+03,3.833316e+03
1.213972e+03,3.819617e+03
1.214936e+03,3.795553e+03
1.215900e+03,3.787640e+03
1.216864e+03,3.795631e+03
1.217828e+03,3.804186e+03
1.218793e+03,3.804363e+03
1.219757e+03,3.800387e+03
1.220721e+03,3.798767e+03
1.221685e+03,3.799081e+03
1.222650e+03,3.798077e+03
1.223614e+03,3.793552e+03
1.224578e+03,3.789310e+03
1.225542e+03,3.793201e+03
1.226507e+03,3.798785e+03
1.227471e+03,3.796744e+03
1.228435e+03,3.787187e+03
1.229399e+03,3.776757e+03
1.230364e+03,3.768614e+03
1.231328e+03,3.762597e+03
1.232292e+03,3.764081e+03
1.233256e+03,3.767966e+03
1.234220e+03,3.764590e+03
1.235185e+03,3.749682e+03
1.236149e+03,3.738724e+03
1.237113e+03,3.735395e+03
1.238077e+03,3.737432e+03
1.239042e+03,3.742923e+03
1.240006e+03,3.749684e+03
1.240970e+03,3.754041e+03
1.241934e+03,3.755983e+03
1.242899e+03,3.755134e+03
1.243863e+03,3.751859e+03
1.244827e+03,3.747264e+03
1.245791e+03,3.742667e+03
1.246755e+03,3.738680e+03
1.247720e+03,3.730333e+03
1.248684e+03,3.716955e+03
1.249648e+03,3.704199e+03
1.250612e+03,3.694339e+03
1.251577e+03,3.687506e+03
1.252541e+03,3.687926e+03
1.253505e+03,3.694102e+03
1.254469e+03,3.697441e+03
1.255434e+03,3.696072e+03
1.256398e+03,3.692758e+03
1.257362e+03,3.687472e+03
1.258326e+03,3.681684e+03
1.259291e+03,3.681923e+03
1.260255e+03,3.686249e+03
1.261219e+03,3.684828e+03
1.262183e+03,3.668082e+03
1.263147e+03,3.651165e+03
1.264112e+03,3.645130e+03
1.265076e+03,3.645746e+03
1.266040e+03,3.646441e+03
1.267004e+03,3.645874e+03
1.267969e+03,3.645327e+03
1.268933e+03,3.646645e+03
1.269897e+03,3.649956e+03
1.270861e+03,3.653044e+03
1.271826e+03,3.653194e+03
1.272790e+03,3.651747e+03
1.273754e+03,3.650350e+03
1.274718e+03,3.647079e+03
1.275682e+03,3.643159e+03
1.276647e+03,3.638661e+03
1.277611e+03,3.632140e+03
1.278575e+03,3.622698e+03
1.279539e+03,3.614495e+03
1.280504e+03,3.609665e+03
1.281468e+03,3.605424e+03
1.282432e+03,3.597992e+03
1.283396e+03,3.590481e+03
1.284361e+03,3.591862e+03
1.285325e+03,3.599468e+03
1.286289e+03,3.605479e+03
1.287253e+03,3.607687e+03
1.288218e+03,3.608703e+03
1.289182e+03,3.613388e+03
1.290146e+03,3.617877e+03
1.291110e+03,3.617555e+03
1.292074e+03,3.613204e+03
1.293039e+03,3.607152e+03
1.294003e+03,3.600212e+03
1.294967e+03,3.590685e+03
1.295931e+03,3.575064e+03
1.296896e+03,3.560181e+03
1.297860e+03,3.553079e+03
1.298824e+03,3.555747e+03
1.299788e+03,3.558092e+03
1.300753e+03,3.559630e+03
1.301717e+03,3.559697e+03
1.302681e+03,3.557112e+03
1.303645e+03,3.553514e+03
1.304609e+03,3.554300e+03
1.305574e+03,3.558980e+03
1.306538e+03,3.562039e+03
1.307502e+03,3.564788e+03
1.308466e+03,3.565145e+03
1.309431e+03,3.557882e+03
1.310395e+03,3.545863e+03
1.311359e+03,3.537776e+03
1.312323e+03,3.532082e+03
1.313288e+03,3.528221e+03
1.314252e+03,3.528222e+03
1.315216e+03,3.530660e+03
1.316180e+03,3.532892e+03
1.317145e+03,3.535891e+03
1.318109e+03,3.540990e+03
1.319073e+03,3.546707e+03
1.320037e+03,3.547976e+03
1.321001e+03,3.541885e+03
1.321966e+03,3.532587e+03
1.322930e+03,3.519197e+03
1.323894e+03,3.506892e+03
1.324858e+03,3.502932e+03
1.325823e+03,3.514171e+03
1.326787e+03,3.516541e+03
1.327751e+03,3.504567e+03
1.328715e+03,3.492691e+03
1.329680e+03,3.491107e+03
1.330644e+03,3.497832e+03
1.331608e+03,3.504712e+03
1.332572e+03,3.511174e+03
1.333536e+03,3.513451e+03
1.334501e+03,3.509648e+03
1.335465e+03,3.503457e+03
1.336429e+03,3.502135e+03
1.337393e+03,3.501791e+03
1.338358e+03,3.493189e+03
1.339322e+03,3.478545e+03
1.340286e+03,3.468663e+03
1.341250e+03,3.474185e+03
1.342215e+03,3.478936e+03
1.343179e+03,3.479156e+03
1.344143e+03,3.476458e+03
1.345107e+03,3.468860e+03
1.346072e+03,3.452479e+03
1.347036e+03,3.443435e+03
1.348000e+03,3.444614e+03
1.348964e+03,3.445450e+03
1.349928e+03,3.442096e+03
1.350893e+03,3.438433e+03
1.351857e+03,3.443243e+03
1.352821e+03,3.455196e+03
1.353785e+03,3.457785e+03
1.354750e+03,3.448440e+03
1.355714e+03,3.437245e+03
1.356678e+03,3.436948e+03
1.357642e+03,3.440482e+03
1.358607e+03,3.431081e+03
1.359571e+03,3.415423e+03
1.360535e+03,3.411286e+03
1.361499e+03,3.431066e+03
1.362464e+03,3.444796e+03
1.363428e+03,3.431585e+03
1.364392e+03,3.414844e+03
1.365356e+03,3.409947e+03
1.366320e+03,3.414817e+03
1.367285e+03,3.416591e+03
1.368249e+03,3.416323e+03
1.369213e+03,3.414026e+03
1.370177e+03,3.409373e+03
1.371142e+03,3.403451e+03
1.372106e+03,3.397083e+03
1.373070e+03,3.390562e+03
1.374034e+03,3.386530e+03
1.374999e+03,3.385543e+03
1.375963e+03,3.385384e+03
1.376927e+03,3.385359e+03
1.377891e+03,3.383913e+03
1.378855e+03,3.376332e+03
1.379820e+03,3.367137e+03
1.380784e+03,3.363506e+03
1.381748e+03,3.367291e+03
1.382712e+03,3.369629e+03
1.383677e+03,3.363694e+03
1.384641e+03,3.357187e+03
1.385605e+03,3.351995e+03
1.386569e+03,3.347651e+03
1.387534e+03,3.344295e+03
1.388498e+03,3.342678e+03
1.389462e+03,3.339494e+03
1.390426e+03,3.333407e+03
1.391391e+03,3.327955e+03
1.392355e+03,3.326524e+03
1.393319e+03,3.328177e+03
1.394283e+03,3.331716e+03
1.395247e+03,3.334888e+03
1.396212e+03,3.332245e+03
1.397176e+03,3.322312e+03
1.398140e+03,3.313695e+03
1.399104e+03,3.310979e+03
1.400069e+03,3.310287e+03
1.401033e+03,3.310023e+03
1.401997e+03,3.310097e+03
1.402961e+03,3.310752e+03
1.403926e+03,3.313293e+03
1.404890e+03,3.312619e+03
1.405854e+03,3.308419e+03
1.406818e+03,3.303216e+03
1.407782e+03,3.299015e+03
1.408747e+03,3.296103e+03
1.409711e+03,3.291640e+03
1.410675e+03,3.284497e+03
1.411639e+03,3.277224e+03
1.412604e+03,3.270893e+03
1.413568e+03,3.267111e+03
1.414532e+03,3.270210e+03
1.415496e+03,3.275964e+03
1.416461e+03,3.280209e+03
1.417425e+03,3.281700e+03
1.418389e+03,3.280641e+03
1.419353e+03,3.275571e+03
1.420318e+03,3.270647e+03
1.421282e+03,3.267849e+03
1.422246e+03,3.265388e+03
1.423210e+03,3.260712e+03
1.424174e+03,3.254965e+03
1.425139e+03,3.254014e+03
1.426103e+03,3.256198e+03
1.427067e+03,3.254248e+03
1.428031e+03,3.245123e+03
1.428996e+03,3.237025e+03
1.429960e+03,3.239258e+03
1.430924e+03,3.244293e+03
1.431888e+03,3.245886e+03
1.432853e+03,3.243540e+03
1.433817e+03,3.237430e+03
1.434781e+03,3.222827e+03
1.435745e+03,3.212919e+03
1.436709e+03,3.208465e+03
1.437674e+03,3.207023e+03
1.438638e+03,3.209089e+03
1.439602e+03,3.214777e+03
1.440566e+03,3.214173e+03
1.441531e+03,3.207704e+03
1.442495e+03,3.203111e+03
1.443459e+03,3.202477e+03
1.444423e+03,3.205359e+03
1.445388e+03,3.215406e+03
1.446352e+03,3.224663e+03
1.447316e+03,3.224173e+03
1.448280e+03,3.216397e+03
1.449245e+03,3.211800e+03
1.450209e+03,3.216013e+03
1.451173e+03,3.218434e+03
1.452137e+03,3.215923e+03
1.453101e+03,3.210364e+03
1.454066e+03,3.203666e+03
1.455030e+03,3.196515e+03
1.455994e+03,3.194247e+03
1.456958e+03,3.195945e+03
1.457923e+03,3.195468e+03
1.458887e+03,3.188951e+03
1.459851e+03,3.182199e+03
1.460815e+03,3.180074e+03
1.461780e+03,3.179413e+03
1.462744e+03,3.181137e+03
1.463708e+03,3.184592e+03
1.464672e+03,3.181767e+03
1.465636e+03,3.168448e+03
1.466601e+03,3.159959e+03
1.467565e+03,3.159350e+03
1.468529e+03,3.160680e+03
1.469493e+03,3.156184e+03
1.470458e+03,3.147681e+03
1.471422e+03,3.147873e+03
1.472386e+03,3.154591e+03
1.473350e+03,3.156952e+03
1.474315e+03,3.148962e+03
1.475279e+03,3.141406e+03
1.476243e+03,3.142578e+03
1.477207e+03,3.144369e+03
1.478172e+03,3.140835e+03
1.479136e+03,3.133968e+03
1.480100e+03,3.132621e+03
1.481064e+03,3.139908e+03
1.482028e+03,3.141654e+03
1.482993e+03,3.136257e+03
1.483957e+03,3.127334e+03
1.484921e+03,3.112100e+03
1.485885e+03,3.097720e+03
1.486850e+03,3.101407e+03
1.487814e+03,3.115242e+03
1.488778e+03,3.123829e+03
1.489742e+03,3.122295e+03
1.490707e+03,3.118213e+03
1.491671e+03,3.113050e+03
1.492635e+03,3.110595e+03
1.493599e+03,3.111946e+03
1.494563e+03,3.114871e+03
1.495528e+03,3.116423e+03
1.496492e+03,3.115978e+03
1.497456e+03,3.108653e+03
1.498420e+03,3.095169e+03
1.499385e+03,3.084112e+03
1.500349e+03,3.085885e+03
1.501313e+03,3.089262e+03
1.502277e+03,3.079727e+03
1.503242e+03,3.066316e+03
1.504206e+03,3.063737e+03
1.505170e+03,3.078780e+03
1.506134e+03,3.084828e+03
1.507099e+03,3.079595e+03
1.508063e+03,3.071944e+03
1.509027e+03,3.064218e+03
1.509991e+03,3.058052e+03
1.510955e+03,3.057532e+03
1.511920e+03,3.060506e+03
1.512884e+03,3.064125e+03
1.513848e+03,3.068458e+03
1.514812e+03,3.069657e+03
1.515777e+03,3.058074e+03
1.516741e+03,3.048292e+03
1.517705e+03,3.046508e+03
1.518669e+03,3.047094e+03
1.519634e+03,3.046202e+03
1.520598e+03,3.043527e+03
1.521562e+03,3.044336e+03
1.522526e+03,3.047477e+03
1.523490e+03,3.047805e+03
1.524455e+03,3.043787e+03
1.525419e+03,3.037884e+03
1.526383e+03,3.032343e+03
1.527347e+03,3.026433e+03
1.528312e+03,3.020233e+03
1.529276e+03,3.015126e+03
1.530240e+03,3.011694e+03
1.531204e+03,3.008129e+03
1.532169e+03,3.008344e+03
1.533133e+03,3.013658e+03
1.534097e+03,3.018338e+03
1.535061e+03,3.017717e+03
1.536026e+03,3.013120e+03
1.536990e+03,3.007194e+03
1.537954e+03,3.000630e+03
1.538918e+03,2.993650e+03
1.539882e+03,2.985531e+03
1.540847e+03,2.980826e+03
1.541811e+03,2.981502e+03
1.542775e+03,2.983347e+03
1.543739e+03,2.987389e+03
1.544704e+03,2.991830e+03
1.545668e+03,2.992475e+03
1.546632e+03,2.990519e+03
1.547596e+03,2.990619e+03
1.548561e+03,2.992364e+03
1.549525e+03,2.992157e+03
1.550489e+03,2.985214e+03
1.551453e+03,2.977833e+03
1.552417e+03,2.970957e+03
1.553382e+03,2.966608e+03
1.554346e+03,2.968096e+03
1.555310e+03,2.974918e+03
1.556274e+03,2.977558e+03
1.557239e+03,2.975836e+03
1.558203e+03,2.974492e+03
1.559167e+03,2.974679e+03
1.560131e+03,2.975818e+03
1.561096e+03,2.976556e+03
1.562060e+03,2.979572e+03
1.563024e+03,2.988853e+03
1.563988e+03,3.001415e+03
1.564953e+03,3.009768e+03
1.565917e+03,3.011111e+03
1.566881e+03,3.017449e+03
1.567845e+03,3.029292e+03
1.568809e+03,3.037343e+03
1.569774e+03,3.036003e+03
1.570738e+03,3.030617e+03
1.571702e+03,3.029243e+03
1.572666e+03,3.027483e+03
1.573631e+03,3.017204e+03
1.574595e+03,2.998876e+03
1.575559e+03,2.991239e+03
1.576523e+03,3.002849e+03
1.577488e+03,3.007439e+03
1.578452e+03,2.997237e+03
1.579416e+03,2.983023e+03
1.580380e+03,2.978542e+03
1.581344e+03,2.978303e+03
1.582309e+03,2.970409e+03
1.583273e+03,2.958652e+03
1.584237e+03,2.952098e+03
1.585201e+03,2.957802e+03
1.586166e+03,2.956828e+03
1.587130e+03,2.943496e+03
1.588094e+03,2.928274e+03
1.589058e+03,2.915541e+03
1.590023e+03,2.906013e+03
1.590987e+03,2.901870e+03
1.591951e+03,2.901632e+03
1.592915e+03,2.898501e+03
1.593880e+03,2.891060e+03
1.594844e+03,2.885119e+03
1.595808e+03,2.886276e+03
1.596772e+03,2.885732e+03
1.597736e+03,2.882598e+03
1.598701e+03,2.878123e+03
1.599665e+03,2.871222e+03
1.600629e+03,2.863712e+03
1.601593e+03,2.864134e+03
1.602558e+03,2.870533e+03
1.603522e+03,2.877865e+03
1.604486e+03,2.885327e+03
1.605450e+03,2.888164e+03
1.606415e+03,2.881833e+03
1.607379e+03,2.875694e+03
1.608343e+03,2.872677e+03
1.609307e+03,2.871282e+03
1.610271e+03,2.870004e+03
1.611236e+03,2.868075e+03
1.612200e+03,2.862383e+03
1.613164e+03,2.854599e+03
1.614128e+03,2.850343e+03
1.615093e+03,2.855883e+03
1.616057e+03,2.859266e+03
1.617021e+03,2.852448e+03
1.617985e+03,2.844978e+03
1.618950e+03,2.844145e+03
1.619914e+03,2.847824e+03
1.620878e+03,2.846426e+03
1.621842e+03,2.841849e+03
1.622807e+03,2.840268e+03
1.623771e+03,2.843485e+03
1.624735e+03,2.847617e+03
1.625699e+03,2.852637e+03
1.626663e+03,2.852571e+03
1.627628e+03,2.840791e+03
1.628592e+03,2.826649e+03
1.629556e+03,2.826721e+03
1.630520e+03,2.838725e+03
1.631485e+03,2.839755e+03
1.632449e+03,2.831180e+03
1.633413e+03,2.820984e+03
1.634377e+03,2.811247e+03
1.635342e+03,2.804019e+03
1.636306e+03,2.800907e+03
1.637270e+03,2.800378e+03
1.638234e+03,2.802314e+03
1.639198e+03,2.805760e+03
1.640163e+03,2.809079e+03
1.641127e+03,2.811151e+03
1.642091e+03,2.802484e+03
1.643055e+03,2.783168e+03
1.644020e+03,2.770308e+03
1.644984e+03,2.779490e+03
1.645948e+03,2.783184e+03
1.646912e+03,2.773415e+03
1.647877e+03,2.762695e+03
1.648841e+03,2.763743e+03
1.649805e+03,2.771405e+03
1.650769e+03,2.765319e+03
1.651734e+03,2.751525e+03
1.652698e+03,2.747233e+03
1.653662e+03,2.757657e+03
1.654626e+03,2.763083e+03
1.655590e+03,2.755869e+03
1.656555e+03,2.747654e+03
1.657519e+03,2.741719e+03
1.658483e+03,2.739629e+03
1.659447e+03,2.742657e+03
1.660412e+03,2.748180e+03
1.661376e+03,2.756906e+03
1.662340e+03,2.766565e+03
1.663304e+03,2.768331e+03
1.664269e+03,2.748943e+03
1.665233e+03,2.736732e+03
1.666197e+03,2.732570e+03
1.667161e+03,2.731034e+03
1.668125e+03,2.730402e+03
1.669090e+03,2.730450e+03
1.670054e+03,2.731559e+03
1.671018e+03,2.732919e+03
1.671982e+03,2.733999e+03
1.672947e+03,2.734877e+03
1.673911e+03,2.736501e+03
1.674875e+03,2.738891e+03
1.675839e+03,2.733950e+03
1.676804e+03,2.721146e+03
1.677768e+03,2.710706e+03
1.678732e+03,2.712324e+03
1.679696e+03,2.717007e+03
1.680661e+03,2.717292e+03
1.681625e+03,2.713648e+03
1.682589e+03,2.709101e+03
1.683553e+03,2.704874e+03
1.684517e+03,2.698314e+03
1.685482e+03,2.689260e+03
1.686446e+03,2.685180e+03
1.687410e+03,2.689073e+03
1.688374e+03,2.693654e+03
1.689339e+03,2.693588e+03
1.690303e+03,2.691953e+03
1.691267e+03,2.691187e+03
1.692231e+03,2.689990e+03
1.693196e+03,2.683001e+03
1.694160e+03,2.671082e+03
1.695124e+03,2.667323e+03
1.696088e+03,2.671552e+03
1.697052e+03,2.677276e+03
1.698017e+03,2.680768e+03
1.698981e+03,2.682583e+03
1.699945e+03,2.682464e+03
1.700909e+03,2.678713e+03
1.701874e+03,2.671318e+03
1.702838e+03,2.664257e+03
1.703802e+03,2.663593e+03
1.704766e+03,2.665515e+03
1.705731e+03,2.666185e+03
1.706695e+03,2.665505e+03
1.707659e+03,2.662600e+03
1.708623e+03,2.657815e+03
1.709588e+03,2.652589e+03
1.710552e+03,2.645399e+03
1.711516e+03,2.638217e+03
1.712480e+03,2.633427e+03
1.713444e+03,2.630007e+03
1.714409e+03,2.628479e+03
1.715373e+03,2.628360e+03
1.716337e+03,2.627957e+03
1.717301e+03,2.627904e+03
1.718266e+03,2.628320e+03
1.719230e+03,2.628606e+03
1.720194e+03,2.630651e+03
1.721158e+03,2.635130e+03
1.722123e+03,2.636208e+03
1.723087e+03,2.625594e+03
1.724051e+03,2.615466e+03
1.725015e+03,2.613354e+03
1.725979e+03,2.614820e+03
1.726944e+03,2.611801e+03
1.727908e+03,2.605884e+03
1.728872e+03,2.603811e+03
1.729836e+03,2.604269e+03
1.730801e+03,2.605249e+03
1.731765e+03,2.608703e+03
1.732729e+03,2.607188e+03
1.733693e+03,2.597852e+03
1.734658e+03,2.590293e+03
1.735622e+03,2.588326e+03
1.736586e+03,2.590505e+03
1.737550e+03,2.601575e+03
1.738515e+03,2.610976e+03
1.739479e+03,2.601236e+03
1.740443e+03,2.576384e+03
1.741407e+03,2.567070e+03
1.742371e+03,2.575740e+03
1.743336e+03,2.577485e+03
1.744300e+03,2.570320e+03
1.745264e+03,2.563935e+03
1.746228e+03,2.569989e+03
1.747193e+03,2.574765e+03
1.748157e+03,2.568292e+03
1.749121e+03,2.563655e+03
1.750085e+03,2.568337e+03
1.751050e+03,2.576578e+03
1.752014e+03,2.577250e+03
1.752978e+03,2.572711e+03
1.753942e+03,2.565555e+03
1.754906e+03,2.555765e+03
1.755871e+03,2.551048e+03
1.756835e+03,2.554122e+03
1.757799e+03,2.554082e+03
1.758763e+03,2.551853e+03
1.759728e+03,2.547550e+03
1.760692e+03,2.535680e+03
1.761656e+03,2.526078e+03
1.762620e+03,2.530926e+03
1.763585e+03,2.541274e+03
1.764549e+03,2.542690e+03
1.765513e+03,2.534353e+03
1.766477e+03,2.537214e+03
1.767442e+03,2.549071e+03
1.768406e+03,2.550854e+03
1.769370e+03,2.535014e+03
1.770334e+03,2.522716e+03
1.771298e+03,2.525626e+03
1.772263e+03,2.528346e+03
1.773227e+03,2.527996e+03
1.774191e+03,2.525124e+03
1.775155e+03,2.516807e+03
1.776120e+03,2.508007e+03
1.777084e+03,2.509140e+03
1.778048e+03,2.516515e+03
1.779012e+03,2.518745e+03
1.779977e+03,2.514951e+03
1.780941e+03,2.509265e+03
1.781905e+03,2.500686e+03
1.782869e+03,2.495594e+03
1.783833e+03,2.498933e+03
1.784798e+03,2.500625e+03
1.785762e+03,2.491508e+03
1.786726e+03,2.481881e+03
1.787690e+03,2.477173e+03
1.788655e+03,2.475484e+03
1.789619e+03,2.471721e+03
1.790583e+03,2.467883e+03
1.791547e+03,2.467586e+03
1.792512e+03,2.470815e+03
1.793476e+03,2.475504e+03
1.794440e+03,2.481450e+03
1.795404e+03,2.484465e+03
1.796369e+03,2.483536e+03
1.797333e+03,2.479134e+03
1.798297e+03,2.468386e+03
1.799261e+03,2.461062e+03
1.800225e+03,2.468029e+03
1.801190e+03,2.474789e+03
1.802154e+03,2.472628e+03
1.803118e+03,2.464156e+03
1.804082e+03,2.456271e+03
1.805047e+03,2.449802e+03
1.806011e+03,2.444309e+03
1.806975e+03,2.439819e+03
1.807939e+03,2.439963e+03
1.808904e+03,2.447777e+03
1.809868e+03,2.445224e+03
1.810832e+03,2.430579e+03
1.811796e+03,2.418906e+03
1.812760e+03,2.424471e+03
1.813725e+03,2.432027e+03
1.814689e+03,2.435265e+03
1.815653e+03,2.432413e+03
1.816617e+03,2.418646e+03
1.817582e+03,2.400792e+03
1.818546e+03,2.404265e+03
1.819510e+03,2.419162e+03
1.820474e+03,2.422881e+03
1.821439e+03,2.412352e+03
1.822403e+03,2.409937e+03
1.823367e+03,2.419806e+03
1.824331e+03,2.425810e+03
1.825296e+03,2.424749e+03
1.826260e+03,2.419185e+03
1.827224e+03,2.410045e+03
1.828188e+03,2.402510e+03
1.829152e+03,2.396712e+03
1.830117e+03,2.393829e+03
1.831081e+03,2.396754e+03
1.832045e+03,2.401898e+03
1.833009e+03,2.400088e+03
1.833974e+03,2.396670e+03
1.834938e+03,2.399913e+03
1.835902e+03,2.411381e+03
1.836866e+03,2.407992e+03
1.837831e+03,2.388177e+03
1.838795e+03,2.372357e+03
1.839759e+03,2.365671e+03
1.840723e+03,2.367819e+03
1.841688e+03,2.387570e+03
1.842652e+03,2.401323e+03
1.843616e+03,2.398644e+03
1.844580e+03,2.389624e+03
1.845544e+03,2.385234e+03
1.846509e+03,2.383477e+03
1.847473e+03,2.380341e+03
1.848437e+03,2.376409e+03
1.849401e+03,2.373317e+03
1.850366e+03,2.371480e+03
1.851330e+03,2.366026e+03
1.852294e+03,2.357958e+03
1.853258e+03,2.348113e+03
1.854223e+03,2.335837e+03
1.855187e+03,2.330554e+03
1.856151e+03,2.341088e+03
1.857115e+03,2.350179e+03
1.858079e+03,2.354511e+03
1.859044e+03,2.354700e+03
1.860008e+03,2.351582e+03
1.860972e+03,2.346649e+03
1.861936e+03,2.340053e+03
1.862901e+03,2.332950e+03
1.863865e+03,2.324280e+03
1.864829e+03,2.313727e+03
1.865793e+03,2.313641e+03
1.866758e+03,2.321114e+03
1.867722e+03,2.324872e+03
1.868686e+03,2.320421e+03
1.869650e+03,2.318885e+03
1.870615e+03,2.321106e+03
1.871579e+03,2.320199e+03
1.872543e+03,2.314992e+03
1.873507e+03,2.312899e+03
1.874471e+03,2.322012e+03
1.875436e+03,2.328228e+03
1.876400e+03,2.326152e+03
1.877364e+03,2.319852e+03
1.878328e+03,2.311644e+03
1.879293e+03,2.303425e+03
1.880257e+03,2.299764e+03
1.881221e+03,2.297576e+03
1.882185e+03,2.290806e+03
1.883150e+03,2.279577e+03
1.884114e+03,2.276866e+03
1.885078e+03,2.280560e+03
1.886042e+03,2.279239e+03
1.887006e+03,2.268341e+03
1.887971e+03,2.262707e+03
1.888935e+03,2.270716e+03
1.889899e+03,2.278845e+03
1.890863e+03,2.283040e+03
1.891828e+03,2.284459e+03
1.892792e+03,2.286509e+03
1.893756e+03,2.286167e+03
1.894720e+03,2.281818e+03
1.895685e+03,2.276722e+03
1.896649e+03,2.270007e+03
1.897613e+03,2.262883e+03
1.898577e+03,2.265617e+03
1.899542e+03,2.273292e+03
1.900506e+03,2.273277e+03
1.901470e+03,2.262297e+03
1.902434e+03,2.258825e+03
1.903398e+03,2.262493e+03
1.904363e+03,2.261984e+03
1.905327e+03,2.254468e+03
1.906291e+03,2.246124e+03
1.907255e+03,2.234925e+03
1.908220e+03,2.229595e+03
1.909184e+03,2.233202e+03
1.910148e+03,2.237117e+03
1.911112e+03,2.232388e+03
1.912077e+03,2.226742e+03
1.913041e+03,2.226969e+03
1.914005e+03,2.229435e+03
1.914969e+03,2.230747e+03
1.915933e+03,2.230713e+03
1.916898e+03,2.228298e+03
1.917862e+03,2.224364e+03
1.918826e+03,2.218031e+03
1.919790e+03,2.209700e+03
1.920755e+03,2.213437e+03
1.921719e+03,2.227200e+03
1.922683e+03,2.232275e+03
1.923647e+03,2.225446e+03
1.924612e+03,2.218622e+03
1.925576e+03,2.217366e+03
1.926540e+03,2.216795e+03
1.927504e+03,2.215431e+03
1.928469e+03,2.211137e+03
1.929433e+03,2.198472e+03
1.930397e+03,2.185685e+03
1.931361e+03,2.177932e+03
1.932325e+03,2.174649e+03
1.933290e+03,2.178636e+03
1.934254e+03,2.186945e+03
1.935218e+03,2.187933e+03
1.936182e+03,2.183385e+03
1.937147e+03,2.178200e+03
1.938111e+03,2.174059e+03
1.939075e+03,2.175331e+03
1.940039e+03,2.181568e+03
1.941004e+03,2.181326e+03
1.941968e+03,2.172138e+03
1.942932e+03,2.168123e+03
1.943896e+03,2.178139e+03
1.944860e+03,2.180339e+03
1.945825e+03,2.173307e+03
1.946789e+03,2.165779e+03
1.947753e+03,2.162519e+03
1.948717e+03,2.159976e+03
1.949682e+03,2.156581e+03
1.950646e+03,2.152952e+03
1.951610e+03,2.148754e+03
1.952574e+03,2.146025e+03
1.953539e+03,2.150786e+03
1.954503e+03,2.155636e+03
1.955467e+03,2.151742e+03
1.956431e+03,2.143997e+03
1.957396e+03,2.145052e+03
1.958360e+03,2.150939e+03
1.959324e+03,2.154624e+03
1.960288e+03,2.155683e+03
1.961252e+03,2.151009e+03
1.962217e+03,2.138692e+03
1.963181e+03,2.131702e+03
1.964145e+03,2.130054e+03
1.965109e+03,2.130317e+03
1.966074e+03,2.136161e+03
1.967038e+03,2.134177e+03
1.968002e+03,2.119070e+03
1.968966e+03,2.109396e+03
1.969931e+03,2.116833e+03
1.970895e+03,2.123934e+03
1.971859e+03,2.116109e+03
1.972823e+03,2.111407e+03
1.973787e+03,2.118070e+03
1.974752e+03,2.126710e+03
1.975716e+03,2.125708e+03
1.976680e+03,2.118334e+03
1.977644e+03,2.106692e+03
1.978609e+03,2.095111e+03
1.979573e+03,2.088430e+03
1.980537e+03,2.085049e+03
1.981501e+03,2.079893e+03
1.982466e+03,2.075535e+03
1.983430e+03,2.080982e+03
1.984394e+03,2.097833e+03
1.985358e+03,2.103769e+03
1.986323e+03,2.099449e+03
1.987287e+03,2.089063e+03
1.988251e+03,2.071191e+03
1.989215e+03,2.062446e+03
1.990179e+03,2.066753e+03
1.991144e+03,2.068923e+03
1.992108e+03,2.065776e+03
1.993072e+03,2.064156e+03
1.994036e+03,2.071814e+03
1.995001e+03,2.074786e+03
1.995965e+03,2.068083e+03
1.996929e+03,2.061268e+03
1.997893e+03,2.063159e+03
1.998858e+03,2.066799e+03
1.999822e+03,2.067164e+03
2.000786e+03,2.065167e+03
2.001750e+03,2.062995e+03
2.002714e+03,2.061750e+03
2.003679e+03,2.059977e+03
2.004643e+03,2.057597e+03
2.005607e+03,2.056164e+03
2.006571e+03,2.055863e+03
2.007536e+03,2.054138e+03
2.008500e+03,2.052313e+03
2.009464e+03,2.057773e+03
2.010428e+03,2.069257e+03
2.011393e+03,2.058499e+03
2.012357e+03,2.021485e+03
2.013321e+03,2.012816e+03
2.014285e+03,2.032576e+03
2.015250e+03,2.047189e+03
2.016214e+03,2.036529e+03
2.017178e+03,2.027055e+03
2.018142e+03,2.020606e+03
2.019106e+03,2.014016e+03
2.020071e+03,2.004112e+03
2.021035e+03,1.996473e+03
2.021999e+03,1.993482e+03
2.022963e+03,1.993733e+03
2.023928e+03,1.999366e+03
2.024892e+03,2.003118e+03
2.025856e+03,1.990691e+03
2.026820e+03,1.980245e+03
2.027785e+03,1.983806e+03
2.028749e+03,1.992680e+03
2.029713e+03,1.998863e+03
2.030677e+03,2.001082e+03
2.031641e+03,1.992989e+03
2.032606e+03,1.981248e+03
2.033570e+03,1.977490e+03
2.034534e+03,1.979552e+03
2.035498e+03,1.979745e+03
2.036463e+03,1.979473e+03
2.037427e+03,1.982604e+03
2.038391e+03,1.990023e+03
2.039355e+03,1.988649e+03
2.040320e+03,1.981195e+03
2.041284e+03,1.978700e+03
2.042248e+03,1.983059e+03
2.043212e+03,1.980495e+03
2.044177e+03,1.970275e+03
2.045141e+03,1.964444e+03
2.046105e+03,1.964277e+03
2.047069e+03,1.963806e+03
2.048033e+03,1.958398e+03
2.048998e+03,1.953100e+03
2.049962e+03,1.948850e+03
2.050926e+03,1.946910e+03
2.051890e+03,1.950198e+03
2.052854e+03,1.952538e+03
2.053819e+03,1.951677e+03
2.054783e+03,1.947243e+03
2.055747e+03,1.938787e+03
2.056711e+03,1.932135e+03
2.057676e+03,1.931996e+03
2.058640e+03,1.936680e+03
2.059604e+03,1.944387e+03
2.060568e+03,1.952469e+03
2.061533e+03,1.962024e+03
2.062497e+03,1.967368e+03
2.063461e+03,1.960675e+03
2.064425e+03,1.947558e+03
2.065390e+03,1.932203e+03
2.066354e+03,1.917113e+03
2.067318e+03,1.906636e+03
2.068282e+03,1.902162e+03
2.069247e+03,1.905914e+03
2.070211e+03,1.914587e+03
2.071175e+03,1.904541e+03
2.072139e+03,1.886761e+03
2.073104e+03,1.891813e+03
2.074068e+03,1.920848e+03
2.075032e+03,1.926548e+03
2.075996e+03,1.913016e+03
2.076960e+03,1.899926e+03
2.077925e+03,1.890939e+03
2.078889e+03,1.887668e+03
2.079853e+03,1.889992e+03
2.080817e+03,1.896474e+03
2.081782e+03,1.906157e+03
2.082746e+03,1.909277e+03
2.083710e+03,1.901734e+03
2.084674e+03,1.891467e+03
2.085639e+03,1.880001e+03
2.086603e+03,1.874245e+03
2.087567e+03,1.876855e+03
2.088531e+03,1.882047e+03
2.089496e+03,1.889128e+03
2.090460e+03,1.889898e+03
2.091424e+03,1.881181e+03
2.092388e+03,1.876351e+03
2.093353e+03,1.888923e+03
2.094317e+03,1.894091e+03
2.095281e+03,1.879962e+03
2.096245e+03,1.865923e+03
2.097209e+03,1.878064e+03
2.098174e+03,1.888023e+03
2.099138e+03,1.884086e+03
2.100102e+03,1.874302e+03
2.101066e+03,1.865353e+03
2.102031e+03,1.856298e+03
2.102995e+03,1.842887e+03
2.103959e+03,1.833108e+03
2.104923e+03,1.835402e+03
2.105887e+03,1.845403e+03
2.106852e+03,1.857637e+03
2.107816e+03,1.865370e+03
2.108780e+03,1.864085e+03
2.109744e+03,1.855684e+03
2.110708e+03,1.841804e+03
2.111673e+03,1.828956e+03
2.112637e+03,1.826674e+03
2.113601e+03,1.829563e+03
2.114565e+03,1.828462e+03
2.115530e+03,1.824892e+03
2.116494e+03,1.820932e+03
2.117458e+03,1.819801e+03
2.118422e+03,1.822649e+03
2.119387e+03,1.827366e+03
2.120351e+03,1.833089e+03
2.121315e+03,1.837223e+03
2.122279e+03,1.835206e+03
2.123244e+03,1.826879e+03
2.124208e+03,1.816511e+03
2.125172e+03,1.806121e+03
2.126136e+03,1.801151e+03
2.127101e+03,1.803780e+03
2.128065e+03,1.800375e+03
2.129029e+03,1.792027e+03
2.129993e+03,1.792180e+03
2.130958e+03,1.801670e+03
2.131922e+03,1.804136e+03
2.132886e+03,1.798522e+03
2.133850e+03,1.793842e+03
2.134814e+03,1.792767e+03
2.135779e+03,1.792227e+03
2.136743e+03,1.789031e+03
2.137707e+03,1.788982e+03
2.138671e+03,1.792842e+03
2.139636e+03,1.797000e+03
2.140600e+03,1.804477e+03
2.141564e+03,1.797352e+03
2.142528e+03,1.774093e+03
2.143493e+03,1.758826e+03
2.144457e+03,1.762114e+03
2.145421e+03,1.766051e+03
2.146385e+03,1.766867e+03
2.147350e+03,1.764544e+03
2.148314e+03,1.759117e+03
2.149278e+03,1.759054e+03
2.150242e+03,1.775214e+03
2.151207e+03,1.781956e+03
2.152171e+03,1.773857e+03
2.153135e+03,1.762720e+03
2.154099e+03,1.761768e+03
2.155063e+03,1.756447e+03
2.156028e+03,1.742334e+03
2.156992e+03,1.732899e+03
2.157956e+03,1.737784e+03
2.158920e+03,1.745056e+03
2.159885e+03,1.750969e+03
2.160849e+03,1.753432e+03
2.161813e+03,1.750082e+03
2.162777e+03,1.745859e+03
2.163741e+03,1.748525e+03
2.164706e+03,1.746625e+03
2.165670e+03,1.736806e+03
2.166634e+03,1.725744e+03
2.167598e+03,1.714023e+03
2.168563e+03,1.710155e+03
2.169527e+03,1.717055e+03
2.170491e+03,1.725861e+03
2.171455e+03,1.731576e+03
2.172420e+03,1.734280e+03
2.173384e+03,1.733788e+03
2.174348e+03,1.731812e+03
2.175312e+03,1.728367e+03
2.176277e+03,1.723629e+03
2.177241e+03,1.718744e+03
2.178205e+03,1.711931e+03
2.179169e+03,1.701134e+03
2.180134e+03,1.693006e+03
2.181098e+03,1.697186e+03
2.182062e+03,1.705324e+03
2.183026e+03,1.711446e+03
2.183990e+03,1.713484e+03
2.184955e+03,1.704829e+03
2.185919e+03,1.695429e+03
2.186883e+03,1.693329e+03
2.187847e+03,1.692659e+03
2.188812e+03,1.686177e+03
2.189776e+03,1.679142e+03
2.190740e+03,1.676891e+03
2.191704e+03,1.675845e+03
2.192668e+03,1.673173e+03
2.193633e+03,1.671264e+03
2.194597e+03,1.675637e+03
2.195561e+03,1.679897e+03
2.196525e+03,1.676449e+03
2.197490e+03,1.670198e+03
2.198454e+03,1.669125e+03
2.199418e+03,1.671581e+03
2.200382e+03,1.678236e+03
2.201347e+03,1.684265e+03
2.202311e+03,1.674571e+03
2.203275e+03,1.662934e+03
2.204239e+03,1.662828e+03
2.205204e+03,1.667725e+03
2.206168e+03,1.676966e+03
2.207132e+03,1.683447e+03
2.208096e+03,1.673175e+03
2.209061e+03,1.655579e+03
2.210025e+03,1.637490e+03
2.210989e+03,1.623990e+03
2.211953e+03,1.627626e+03
2.212917e+03,1.639861e+03
2.213882e+03,1.648134e+03
2.214846e+03,1.652060e+03
2.215810e+03,1.652430e+03
2.216774e+03,1.649019e+03
2.217739e+03,1.644369e+03
2.218703e+03,1.641085e+03
2.219667e+03,1.646971e+03
2.220631e+03,1.651360e+03
2.221595e+03,1.640503e+03
2.222560e+03,1.625399e+03
2.223524e+03,1.624105e+03
2.224488e+03,1.625453e+03
2.225452e+03,1.612672e+03
2.226417e+03,1.600828e+03
2.227381e+03,1.608460e+03
2.228345e+03,1.622716e+03
2.229309e+03,1.625477e+03
2.230274e+03,1.623213e+03
2.231238e+03,1.622160e+03
2.232202e+03,1.620706e+03
2.233166e+03,1.617481e+03
2.234131e+03,1.614929e+03
2.235095e+03,1.615390e+03
2.236059e+03,1.614398e+03
2.237023e+03,1.599611e+03
2.237988e+03,1.586187e+03
2.238952e+03,1.584528e+03
2.239916e+03,1.587284e+03
2.240880e+03,1.589652e+03
2.241844e+03,1.589407e+03
2.242809e+03,1.583204e+03
2.243773e+03,1.577091e+03
2.244737e+03,1.576864e+03
2.245701e+03,1.577673e+03
2.246666e+03,1.575559e+03
2.247630e+03,1.572091e+03
2.248594e+03,1.569006e+03
2.249558e+03,1.568342e+03
2.250522e+03,1.572211e+03
2.251487e+03,1.577796e+03
2.252451e+03,1.583971e+03
2.253415e+03,1.584172e+03
2.254379e+03,1.567540e+03
2.255344e+03,1.554375e+03
2.256308e+03,1.553741e+03
2.257272e+03,1.556076e+03
2.258236e+03,1.550769e+03
2.259201e+03,1.548042e+03
2.260165e+03,1.550666e+03
2.261129e+03,1.554703e+03
2.262093e+03,1.559491e+03
2.263058e+03,1.558475e+03
2.264022e+03,1.550224e+03
2.264986e+03,1.545329e+03
2.265950e+03,1.555023e+03
2.266915e+03,1.557339e+03
2.267879e+03,1.543416e+03
2.268843e+03,1.528584e+03
2.269807e+03,1.519733e+03
2.270771e+03,1.519416e+03
2.271736e+03,1.531981e+03
2.272700e+03,1.540093e+03
2.273664e+03,1.536642e+03
2.274628e+03,1.533871e+03
2.275593e+03,1.538581e+03
2.276557e+03,1.538491e+03
2.277521e+03,1.532928e+03
2.278485e+03,1.527354e+03
2.279449e+03,1.523647e+03
2.280414e+03,1.521553e+03
2.281378e+03,1.520790e+03
2.282342e+03,1.520165e+03
2.283306e+03,1.518858e+03
2.284271e+03,1.513548e+03
2.285235e+03,1.504422e+03
2.286199e+03,1.498061e+03
2.287163e+03,1.499113e+03
2.288128e+03,1.507879e+03
2.289092e+03,1.521177e+03
2.290056e+03,1.520736e+03
2.291020e+03,1.502045e+03
2.291985e+03,1.497947e+03
2.292949e+03,1.507790e+03
2.293913e+03,1.506365e+03
2.294877e+03,1.492344e+03
2.295842e+03,1.491801e+03
2.296806e+03,1.502420e+03
2.297770e+03,1.506288e+03
2.298734e+03,1.503141e+03
2.299698e+03,1.498388e+03
2.300663e+03,1.493150e+03
2.301627e+03,1.487868e+03
2.302591e+03,1.482603e+03
2.303555e+03,1.478335e+03
2.304520e+03,1.475646e+03
2.305484e+03,1.477761e+03
2.306448e+03,1.481993e+03
2.307412e+03,1.482369e+03
2.308376e+03,1.480094e+03
2.309341e+03,1.481593e+03
2.310305e+03,1.482083e+03
2.311269e+03,1.472618e+03
2.312233e+03,1.463622e+03
2.313198e+03,1.478325e+03
2.314162e+03,1.493035e+03
2.315126e+03,1.475958e+03
2.316090e+03,1.453578e+03
2.317055e+03,1.457471e+03
2.318019e+03,1.468028e+03
2.318983e+03,1.465983e+03
2.319947e+03,1.462507e+03
2.320912e+03,1.470326e+03
2.321876e+03,1.475391e+03
2.322840e+03,1.460808e+03
2.323804e+03,1.449424e+03
2.324769e+03,1.453245e+03
2.325733e+03,1.460747e+03
2.326697e+03,1.465759e+03
2.327661e+03,1.465235e+03
2.328625e+03,1.455971e+03
2.329590e+03,1.445922e+03
2.330554e+03,1.440568e+03
2.331518e+03,1.439760e+03
2.332482e+03,1.443750e+03
2.333447e+03,1.441937e+03
2.334411e+03,1.423005e+03
2.335375e+03,1.415409e+03
2.336339e+03,1.420284e+03
2.337303e+03,1.424089e+03
2.338268e+03,1.420324e+03
2.339232e+03,1.416048e+03
2.340196e+03,1.411915e+03
2.341160e+03,1.408361e+03
2.342125e+03,1.404833e+03
2.343089e+03,1.414735e+03
2.344053e+03,1.432087e+03
2.345017e+03,1.442240e+03
2.345982e+03,1.443297e+03
2.346946e+03,1.435240e+03
2.347910e+03,1.422445e+03
2.348874e+03,1.413148e+03
2.349839e+03,1.405233e+03
2.350803e+03,1.392078e+03
2.351767e+03,1.378954e+03
2.352731e+03,1.376220e+03
2.353696e+03,1.380982e+03
2.354660e+03,1.388906e+03
2.355624e+03,1.396312e+03
2.356588e+03,1.399951e+03
2.357552e+03,1.399653e+03
2.358517e+03,1.392170e+03
2.359481e+03,1.385062e+03
2.360445e+03,1.388980e+03
2.361409e+03,1.393044e+03
2.362374e+03,1.391684e+03
2.363338e+03,1.388832e+03
2.364302e+03,1.392312e+03
2.365266e+03,1.391785e+03
2.366230e+03,1.381558e+03
2.367195e+03,1.375709e+03
2.368159e+03,1.389982e+03
2.369123e+03,1.393558e+03
2.370087e+03,1.383154e+03
2.371052e+03,1.373090e+03
2.372016e+03,1.369268e+03
2.372980e+03,1.370313e+03
2.373944e+03,1.375028e+03
2.374909e+03,1.376322e+03
2.375873e+03,1.372066e+03
2.376837e+03,1.363424e+03
2.377801e+03,1.352930e+03
2.378766e+03,1.353242e+03
2.379730e+03,1.364701e+03
2.380694e+03,1.363275e+03
2.381658e+03,1.355270e+03
2.382623e+03,1.354110e+03
2.383587e+03,1.358888e+03
2.384551e+03,1.366923e+03
2.385515e+03,1.375369e+03
2.386479e+03,1.383847e+03
2.387444e+03,1.387733e+03
2.388408e+03,1.373876e+03
2.389372e+03,1.357847e+03
2.390336e+03,1.355313e+03
2.391301e+03,1.357303e+03
2.392265e+03,1.356397e+03
2.393229e+03,1.354582e+03
2.394193e+03,1.353387e+03
2.395157e+03,1.352471e+03
2.396122e+03,1.355883e+03
2.397086e+03,1.349268e+03
2.398050e+03,1.326828e+03
2.399014e+03,1.308902e+03
2.399979e+03,1.302087e+03
2.400943e+03,1.306093e+03
2.401907e+03,1.319676e+03
2.402871e+03,1.327628e+03
2.403836e+03,1.327012e+03
2.404800e+03,1.326973e+03
2.405764e+03,1.327981e+03
2.406728e+03,1.325515e+03
2.407693e+03,1.319404e+03
2.408657e+03,1.316971e+03
2.409621e+03,1.318082e+03
2.410585e+03,1.317506e+03
2.411550e+03,1.315471e+03
2.412514e+03,1.311587e+03
2.413478e+03,1.307848e+03
2.414442e+03,1.312388e+03
2.415406e+03,1.318163e+03
2.416371e+03,1.316835e+03
2.417335e+03,1.312822e+03
2.418299e+03,1.312088e+03
2.419263e+03,1.310915e+03
2.420228e+03,1.306439e+03
2.421192e+03,1.302754e+03
2.422156e+03,1.306515e+03
2.423120e+03,1.308838e+03
2.424084e+03,1.306732e+03
2.425049e+03,1.299805e+03
2.426013e+03,1.285753e+03
2.426977e+03,1.279597e+03
2.427941e+03,1.283403e+03
2.428906e+03,1.286430e+03
2.429870e+03,1.284632e+03
2.430834e+03,1.284435e+03
2.431798e+03,1.285611e+03
2.432763e+03,1.282995e+03
2.433727e+03,1.276649e+03
2.434691e+03,1.277448e+03
2.435655e+03,1.282120e+03
2.436620e+03,1.284480e+03
2.437584e+03,1.284797e+03
2.438548e+03,1.286120e+03
2.439512e+03,1.284313e+03
2.440477e+03,1.273198e+03
2.441441e+03,1.260965e+03
2.442405e+03,1.263071e+03
2.443369e+03,1.265700e+03
2.444333e+03,1.262562e+03
2.445298e+03,1.258997e+03
2.446262e+03,1.258937e+03
2.447226e+03,1.259417e+03
2.448190e+03,1.260514e+03
2.449155e+03,1.262138e+03
2.450119e+03,1.267040e+03
2.451083e+03,1.266769e+03
2.452047e+03,1.261479e+03
2.453011e+03,1.256785e+03
2.453976e+03,1.254563e+03
2.454940e+03,1.252069e+03
2.455904e+03,1.250761e+03
2.456868e+03,1.253823e+03
2.457833e+03,1.257661e+03
2.458797e+03,1.250134e+03
2.459761e+03,1.240383e+03
2.460725e+03,1.241763e+03
2.461690e+03,1.245694e+03
2.462654e+03,1.237986e+03
2.463618e+03,1.229212e+03
2.464582e+03,1.225946e+03
2.465547e+03,1.227699e+03
2.466511e+03,1.236010e+03
2.467475e+03,1.241428e+03
2.468439e+03,1.241738e+03
2.469404e+03,1.241138e+03
2.470368e+03,1.247682e+03
2.471332e+03,1.240325e+03
2.472296e+03,1.220068e+03
2.473260e+03,1.210946e+03
2.474225e+03,1.220153e+03
2.475189e+03,1.226636e+03
2.476153e+03,1.230639e+03
2.477117e+03,1.227363e+03
2.478082e+03,1.219773e+03
2.479046e+03,1.219082e+03
2.480010e+03,1.220009e+03
2.480974e+03,1.214973e+03
2.481938e+03,1.209538e+03
2.482903e+03,1.213588e+03
2.483867e+03,1.216240e+03
2.484831e+03,1.210707e+03
2.485795e+03,1.205041e+03
2.486760e+03,1.209931e+03
2.487724e+03,1.208472e+03
2.488688e+03,1.198286e+03
2.489652e+03,1.192718e+03
2.490617e+03,1.200285e+03
2.491581e+03,1.205938e+03
2.492545e+03,1.209807e+03
2.493509e+03,1.207708e+03
2.494474e+03,1.199566e+03
2.495438e+03,1.204171e+03
2.496402e+03,1.213929e+03
2.497366e+03,1.210514e+03
2.498331e+03,1.200800e+03
2.499295e+03,1.197900e+03
2.500259e+03,1.196722e+03
2.501223e+03,1.194134e+03
2.502188e+03,1.191789e+03
2.503152e+03,1.190696e+03
2.504116e+03,1.191648e+03
2.505080e+03,1.195086e+03
2.506044e+03,1.196987e+03
2.507009e+03,1.193305e+03
2.507973e+03,1.187334e+03
2.508937e+03,1.180281e+03
2.509901e+03,1.175956e+03
2.510865e+03,1.174649e+03
2.511830e+03,1.185907e+03
2.512794e+03,1.201770e+03
2.513758e+03,1.200314e+03
2.514722e+03,1.188002e+03
2.515687e+03,1.177926e+03
2.516651e+03,1.169799e+03
2.517615e+03,1.162010e+03
2.518579e+03,1.157775e+03
2.519544e+03,1.165195e+03
2.520508e+03,1.172167e+03
2.521472e+03,1.174984e+03
2.522436e+03,1.173372e+03
2.523401e+03,1.161946e+03
2.524365e+03,1.157787e+03
2.525329e+03,1.160680e+03
2.526293e+03,1.163833e+03
2.527258e+03,1.166781e+03
2.528222e+03,1.166146e+03
2.529186e+03,1.162491e+03
2.530150e+03,1.156859e+03
2.531115e+03,1.151755e+03
2.532079e+03,1.153004e+03
2.533043e+03,1.158359e+03
2.534007e+03,1.165488e+03
2.534971e+03,1.169672e+03
2.535936e+03,1.166023e+03
2.536900e+03,1.157605e+03
2.537864e+03,1.143822e+03
2.538828e+03,1.137536e+03
2.539792e+03,1.146565e+03
2.540757e+03,1.148602e+03
2.541721e+03,1.141520e+03
2.542685e+03,1.143863e+03
2.543649e+03,1.156300e+03
2.544614e+03,1.153200e+03
2.545578e+03,1.139630e+03
2.546542e+03,1.138078e+03
2.547506e+03,1.143379e+03
2.548471e+03,1.140451e+03
2.549435e+03,1.136603e+03
2.550399e+03,1.139546e+03
2.551363e+03,1.142709e+03
2.552328e+03,1.141286e+03
2.553292e+03,1.139436e+03
2.554256e+03,1.139094e+03
2.555220e+03,1.133845e+03
2.556185e+03,1.122481e+03
2.557149e+03,1.118767e+03
2.558113e+03,1.124832e+03
2.559077e+03,1.129117e+03
2.560042e+03,1.130656e+03
2.561006e+03,1.129672e+03
2.561970e+03,1.128901e+03
2.562934e+03,1.130337e+03
2.563898e+03,1.131720e+03
2.564863e+03,1.128687e+03
2.565827e+03,1.125868e+03
2.566791e+03,1.133467e+03
2.567755e+03,1.133943e+03
2.568719e+03,1.121762e+03
2.569684e+03,1.109771e+03
2.570648e+03,1.103493e+03
2.571612e+03,1.100623e+03
2.572576e+03,1.101765e+03
2.573541e+03,1.106774e+03
2.574505e+03,1.112801e+03
2.575469e+03,1.112936e+03
2.576433e+03,1.108644e+03
2.577398e+03,1.101849e+03
2.578362e+03,1.096986e+03
2.579326e+03,1.103678e+03
2.580290e+03,1.108356e+03
2.581255e+03,1.104440e+03
2.582219e+03,1.099684e+03
2.583183e+03,1.100623e+03
2.584147e+03,1.101828e+03
2.585112e+03,1.103826e+03
2.586076e+03,1.095665e+03
2.587040e+03,1.076079e+03
2.588004e+03,1.065446e+03
2.588969e+03,1.064845e+03
2.589933e+03,1.081039e+03
2.590897e+03,1.100656e+03
2.591861e+03,1.092638e+03
2.592825e+03,1.079626e+03
2.593790e+03,1.075554e+03
2.594754e+03,1.072936e+03
2.595718e+03,1.065517e+03
2.596682e+03,1.064830e+03
2.597646e+03,1.073222e+03
2.598611e+03,1.072800e+03
2.599575e+03,1.064046e+03
2.600539e+03,1.062683e+03
2.601503e+03,1.067714e+03
2.602468e+03,1.069913e+03
2.603432e+03,1.068807e+03
2.604396e+03,1.060520e+03
2.605360e+03,1.055055e+03
2.606325e+03,1.064786e+03
2.607289e+03,1.072595e+03
2.608253e+03,1.071372e+03
2.609217e+03,1.067119e+03
2.610182e+03,1.058533e+03
2.611146e+03,1.058040e+03
2.612110e+03,1.064289e+03
2.613074e+03,1.058826e+03
2.614039e+03,1.044054e+03
2.615003e+03,1.047710e+03
2.615967e+03,1.059439e+03
2.616931e+03,1.068464e+03
2.617896e+03,1.071270e+03
2.618860e+03,1.056740e+03
2.619824e+03,1.042762e+03
2.620788e+03,1.034932e+03
2.621752e+03,1.036013e+03
2.622717e+03,1.052902e+03
2.623681e+03,1.067049e+03
2.624645e+03,1.076060e+03
2.625609e+03,1.070018e+03
2.626573e+03,1.053223e+03
2.627538e+03,1.053681e+03
2.628502e+03,1.061442e+03
2.629466e+03,1.058583e+03
2.630430e+03,1.052631e+03
2.631395e+03,1.053831e+03
2.632359e+03,1.054288e+03
2.633323e+03,1.051656e+03
2.634287e+03,1.045886e+03
2.635252e+03,1.037674e+03
2.636216e+03,1.035936e+03
2.637180e+03,1.041583e+03
2.638144e+03,1.048138e+03
2.639109e+03,1.051768e+03
2.640073e+03,1.037734e+03
2.641037e+03,1.022179e+03
2.642001e+03,1.029638e+03
2.642966e+03,1.036733e+03
2.643930e+03,1.029694e+03
2.644894e+03,1.020744e+03
2.645858e+03,1.015219e+03
2.646823e+03,1.018236e+03
2.647787e+03,1.027505e+03
2.648751e+03,1.025902e+03
2.649715e+03,1.013051e+03
2.650679e+03,1.016543e+03
2.651644e+03,1.026509e+03
2.652608e+03,1.026438e+03
2.653572e+03,1.023421e+03
2.654536e+03,1.030447e+03
2.655500e+03,1.035405e+03
2.656465e+03,1.033659e+03
2.657429e+03,1.030339e+03
2.658393e+03,1.026523e+03
2.659357e+03,1.021663e+03
2.660322e+03,1.017302e+03
2.661286e+03,1.013165e+03
2.662250e+03,1.010795e+03
2.663214e+03,1.019767e+03
2.664179e+03,1.028233e+03
2.665143e+03,1.016431e+03
2.666107e+03,1.009479e+03
2.667071e+03,1.021673e+03
2.668036e+03,1.031206e+03
2.669000e+03,1.021909e+03
2.669964e+03,1.020881e+03
2.670928e+03,1.026710e+03
2.671893e+03,1.024175e+03
2.672857e+03,1.014780e+03
2.673821e+03,1.004709e+03
2.674785e+03,1.000671e+03
2.675750e+03,1.012708e+03
2.676714e+03,1.023508e+03
2.677678e+03,1.007345e+03
2.678642e+03,9.939600e+02
2.679606e+03,9.897852e+02
2.680571e+03,9.887830e+02
2.681535e+03,9.888531e+02
2.682499e+03,9.928111e+02
2.683463e+03,9.982418e+02
2.684427e+03,9.988074e+02
2.685392e+03,9.969463e+02
2.686356e+03,9.940778e+02
2.687320e+03,9.929232e+02
2.688284e+03,1.000952e+03
2.689249e+03,9.991220e+02
2.690213e+03,9.839054e+02
2.691177e+03,9.706399e+02
2.692141e+03,9.651415e+02
2.693106e+03,9.745089e+02
2.694070e+03,9.898279e+02
2.695034e+03,9.862125e+02
2.695998e+03,9.753193e+02
2.696963e+03,9.781878e+02
2.697927e+03,9.833453e+02
2.698891e+03,9.844032e+02
2.699855e+03,9.806661e+02
2.700820e+03,9.702175e+02
2.701784e+03,9.736116e+02
2.702748e+03,9.885829e+02
2.703712e+03,9.851762e+02
2.704677e+03,9.704059e+02
2.705641e+03,9.735912e+02
2.706605e+03,9.822565e+02
2.707569e+03,9.787482e+02
2.708533e+03,9.747548e+02
2.709498e+03,9.755059e+02
2.710462e+03,9.755818e+02
2.711426e+03,9.739108e+02
2.712390e+03,9.702473e+02
2.713354e+03,9.650594e+02
2.714319e+03,9.600949e+02
2.715283e+03,9.560299e+02
2.716247e+03,9.559733e+02
2.717211e+03,9.565081e+02
2.718176e+03,9.549089e+02
2.719140e+03,9.546094e+02
2.720104e+03,9.584244e+02
2.721068e+03,9.618309e+02
2.722033e+03,9.638602e+02
2.722997e+03,9.592484e+02
2.723961e+03,9.501484e+02
2.724925e+03,9.462557e+02
2.725890e+03,9.464453e+02
2.726854e+03,9.471575e+02
2.727818e+03,9.528641e+02
2.728782e+03,9.660357e+02
2.729747e+03,9.721912e+02
2.730711e+03,9.590707e+02
2.731675e+03,9.534557e+02
2.732639e+03,9.546418e+02
2.733604e+03,9.554313e+02
2.734568e+03,9.553643e+02
2.735532e+03,9.577824e+02
2.736496e+03,9.557148e+02
2.737460e+03,9.433433e+02
2.738425e+03,9.362051e+02
2.739389e+03,9.457761e+02
2.740353e+03,9.485800e+02
2.741317e+03,9.417913e+02
2.742281e+03,9.350991e+02
2.743246e+03,9.305602e+02
2.744210e+03,9.306140e+02
2.745174e+03,9.335743e+02
2.746138e+03,9.454469e+02
2.747103e+03,9.492819e+02
2.748067e+03,9.395685e+02
2.749031e+03,9.298461e+02
2.749995e+03,9.242937e+02
2.750960e+03,9.300341e+02
2.751924e+03,9.409496e+02
2.752888e+03,9.347488e+02
2.753852e+03,9.209103e+02
2.754817e+03,9.238875e+02
2.755781e+03,9.274214e+02
2.756745e+03,9.207216e+02
2.757709e+03,9.186664e+02
2.758674e+03,9.248135e+02
2.759638e+03,9.295330e+02
2.760602e+03,9.312907e+02
2.761566e+03,9.336091e+02
2.762531e+03,9.341602e+02
2.763495e+03,9.246042e+02
2.764459e+03,9.145017e+02
2.765423e+03,9.165417e+02
2.766387e+03,9.166058e+02
2.767352e+03,9.122745e+02
2.768316e+03,9.067327e+02
2.769280e+03,9.007300e+02
2.770244e+03,9.033738e+02
2.771208e+03,9.127808e+02
2.772173e+03,9.260178e+02
2.773137e+03,9.319423e+02
2.774101e+03,9.130579e+02
2.775065e+03,9.034280e+02
2.776030e+03,9.195831e+02
2.776994e+03,9.264041e+02
2.777958e+03,9.217007e+02
2.778922e+03,9.143959e+02
2.779887e+03,9.084759e+02
2.780851e+03,9.127110e+02
2.781815e+03,9.169200e+02
2.782779e+03,9.146270e+02
2.783744e+03,9.137334e+02
2.784708e+03,9.199955e+02
2.785672e+03,9.174615e+02
2.786636e+03,9.067321e+02
2.787601e+03,9.057933e+02
2.788565e+03,9.109406e+02
2.789529e+03,9.073890e+02
2.790493e+03,9.037229e+02
2.791458e+03,9.103838e+02
2.792422e+03,9.108724e+02
2.793386e+03,9.031893e+02
2.794350e+03,8.903873e+02
2.795314e+03,8.731247e+02
2.796279e+03,8.843642e+02
2.797243e+03,9.042039e+02
2.798207e+03,9.011660e+02
2.799171e+03,8.930453e+02
2.800135e+03,9.041014e+02
2.801100e+03,9.062354e+02
2.802064e+03,8.927202e+02
2.803028e+03,8.891817e+02
2.803992e+03,8.948427e+02
2.804957e+03,8.955671e+02
2.805921e+03,8.941201e+02
2.806885e+03,8.996776e+02
2.807849e+03,8.976023e+02
2.808814e+03,8.804462e+02
2.809778e+03,8.731727e+02
2.810742e+03,8.926876e+02
2.811706e+03,8.960534e+02
2.812671e+03,8.876359e+02
2.813635e+03,8.917393e+02
2.814599e+03,8.999226e+02
2.815563e+03,8.912791e+02
2.816528e+03,8.874934e+02
2.817492e+03,9.038406e+02
2.818456e+03,9.032780e+02
2.819420e+03,8.838418e+02
2.820385e+03,8.713209e+02
2.821349e+03,8.677410e+02
2.822313e+03,8.642914e+02
2.823277e+03,8.659451e+02
2.824241e+03,8.768994e+02
2.825206e+03,8.803971e+02
2.826170e+03,8.642897e+02
2.827134e+03,8.561667e+02
2.828098e+03,8.580809e+02
2.829063e+03,8.617219e+02
2.830027e+03,8.658041e+02
2.830991e+03,8.700650e+02
2.831955e+03,8.754871e+02
2.832919e+03,8.830833e+02
2.833884e+03,8.853621e+02
2.834848e+03,8.814962e+02
2.835812e+03,8.754589e+02
2.836776e+03,8.688634e+02
2.837741e+03,8.627454e+02
2.838705e+03,8.612128e+02
2.839669e+03,8.700027e+02
2.840633e+03,8.749065e+02
2.841598e+03,8.674404e+02
2.842562e+03,8.694440e+02
2.843526e+03,8.868575e+02
2.844490e+03,8.778516e+02
2.845455e+03,8.594520e+02
2.846419e+03,8.663924e+02
2.847383e+03,8.778932e+02
2.848347e+03,8.696888e+02
2.849312e+03,8.598904e+02
2.850276e+03,8.519294e+02
2.851240e+03,8.545725e+02
2.852204e+03,8.639075e+02
2.853168e+03,8.665578e+02
2.854133e+03,8.639434e+02
2.855097e+03,8.517264e+02
2.856061e+03,8.539474e+02
2.857025e+03,8.752899e+02
2.857990e+03,8.842188e+02
2.858954e+03,8.713497e+02
2.859918e+03,8.714691e+02
2.860882e+03,8.760286e+02
2.861846e+03,8.694539e+02
2.862811e+03,8.630593e+02
2.863775e+03,8.700023e+02
2.864739e+03,8.690534e+02
2.865703e+03,8.541910e+02
2.866668e+03,8.509827e+02
2.867632e+03,8.579699e+02
2.868596e+03,8.735813e+02
2.869560e+03,8.860043e+02
2.870525e+03,8.782270e+02
2.871489e+03,8.719628e+02
2.872453e+03,8.722468e+02
2.873417e+03,8.654899e+02
2.874382e+03,8.528817e+02
2.875346e+03,8.620459e+02
2.876310e+03,8.775366e+02
2.877274e+03,8.729494e+02
2.878239e+03,8.646325e+02
2.879203e+03,8.585214e+02
2.880167e+03,8.611830e+02
2.881131e+03,8.763560e+02
2.882095e+03,8.784548e+02
2.883060e+03,8.724844e+02
2.884024e+03,8.655944e+02
2.884988e+03,8.620818e+02
2.885952e+03,8.673200e+02
2.886917e+03,8.676061e+02
2.887881e+03,8.605325e+02
2.888845e+03,8.695563e+02
2.889809e+03,8.846589e+02
2.890773e+03,8.782432e+02
2.891738e+03,8.674966e+02
2.892702e+03,8.769863e+02
2.893666e+03,8.793802e+02
2.894630e+03,8.702401e+02
2.895595e+03,8.655583e+02
2.896559e+03,8.655902e+02
2.897523e+03,8.651751e+02
2.898487e+03,8.670428e+02
2.899452e+03,8.788250e+02
2.900416e+03,8.837348e+02
2.901380e+03,8.784551e+02
2.902344e+03,8.645552e+02
2.903309e+03,8.456492e+02
2.904273e+03,8.526527e+02
2.905237e+03,8.616531e+02
2.906201e+03,8.431049e+02
2.907166e+03,8.342263e+02
2.908130e+03,8.511843e+02
2.909094e+03,8.622336e+02
2.910058e+03,8.603662e+02
2.911022e+03,8.429086e+02
2.911987e+03,8.264549e+02
2.912951e+03,8.278075e+02
2.913915e+03,8.367840e+02
2.914879e+03,8.487256e+02
2.915844e+03,8.570798e+02
2.916808e+03,8.614774e+02
2.917772e+03,8.653781e+02
2.918736e+03,8.658029e+02
2.919700e+03,8.541371e+02
2.920665e+03,8.458207e+02
2.921629e+03,8.602255e+02
2.922593e+03,8.539500e+02
2.923557e+03,8.321008e+02
2.924522e+03,8.270206e+02
2.925486e+03,8.326667e+02
2.926450e+03,8.371995e+02
2.927414e+03,8.360052e+02
2.928379e+03,8.223783e+02
2.929343e+03,8.309357e+02
2.930307e+03,8.553618e+02
2.931271e+03,8.448870e+02
2.932236e+03,8.193187e+02
2.933200e+03,8.112574e+02
2.934164e+03,8.101385e+02
2.935128e+03,8.107606e+02
2.936093e+03,8.129541e+02
2.937057e+03,8.163704e+02
2.938021e+03,8.146366e+02
2.938985e+03,8.128379e+02
2.939949e+03,8.206614e+02
2.940914e+03,8.254855e+02
2.941878e+03,8.237256e+02
2.942842e+03,8.173028e+02
2.943806e+03,8.069739e+02
2.944771e+03,8.119241e+02
2.945735e+03,8.211826e+02
2.946699e+03,8.196818e+02
2.947663e+03,8.136329e+02
2.948627e+03,8.048613e+02
2.949592e+03,8.044326e+02
2.950556e+03,8.135233e+02
2.951520e+03,8.123840e+02
2.952484e+03,8.109734e+02
2.953449e+03,8.207686e+02
2.954413e+03,8.299606e+02
2.955377e+03,8.342166e+02
2.956341e+03,8.412918e+02
2.957306e+03,8.493466e+02
2.958270e+03,8.485123e+02
2.959234e+03,8.355994e+02
2.960198e+03,8.100138e+02
2.961163e+03,7.952734e+02
2.962127e+03,8.019425e+02
2.963091e+03,7.952875e+02
2.964055e+03,7.778772e+02
2.965020e+03,7.702487e+02
2.965984e+03,7.705173e+02
2.966948e+03,7.761673e+02
2.967912e+03,7.778839e+02
2.968876e+03,7.697383e+02
2.969841e+03,7.726556e+02
2.970805e+03,7.794277e+02
2.971769e+03,7.735313e+02
2.972733e+03,7.736981e+02
2.973698e+03,7.950574e+02
2.974662e+03,8.118649e+02
2.975626e+03,8.168956e+02
2.976590e+03,8.187510e+02
2.977554e+03,8.151540e+02
2.978519e+03,8.012326e+02
2.979483e+03,7.922242e+02
2.980447e+03,8.016426e+02
2.981411e+03,7.999147e+02
2.982376e+03,7.855922e+02
2.983340e+03,7.805029e+02
2.984304e+03,7.794317e+02
2.985268e+03,7.762716e+02
2.986233e+03,7.790403e+02
2.987197e+03,7.959578e+02
2.988161e+03,8.000079e+02
2.989125e+03,7.942178e+02
2.990090e+03,7.961504e+02
2.991054e+03,7.918925e+02
2.992018e+03,7.686615e+02
2.992982e+03,7.537841e+02
2.993947e+03,7.605612e+02
2.994911e+03,7.625684e+02
2.995875e+03,7.652361e+02
2.996839e+03,7.787112e+02
2.997803e+03,7.830060e+02
2.998768e+03,7.656984e+02
2.999732e+03,7.497479e+02
3.000696e+03,7.416780e+02
3.001660e+03,7.463835e+02
3.002625e+03,7.536000e+02
3.003589e+03,7.531270e+02
3.004553e+03,7.552340e+02
3.005517e+03,7.663617e+02
3.006481e+03,7.577374e+02
3.007446e+03,7.381259e+02
3.008410e+03,7.560178e+02
3.009374e+03,7.750833e+02
3.010338e+03,7.738636e+02
3.011303e+03,7.682433e+02
3.012267e+03,7.621050e+02
3.013231e+03,7.603285e+02
3.014195e+03,7.616023e+02
3.015160e+03,7.662969e+02
3.016124e+03,7.648434e+02
3.017088e+03,7.545077e+02
3.018052e+03,7.568606e+02
3.019017e+03,7.704542e+02
3.019981e+03,7.565233e+02
3.020945e+03,7.421561e+02
3.021909e+03,7.516155e+02
3.022874e+03,7.624842e+02
3.023838e+03,7.677687e+02
3.024802e+03,7.544001e+02
3.025766e+03,7.352035e+02
3.026730e+03,7.458859e+02
3.027695e+03,7.533746e+02
3.028659e+03,7.432410e+02
3.029623e+03,7.409523e+02
3.030587e+03,7.488371e+02
3.031552e+03,7.676863e+02
3.032516e+03,7.831361e+02
3.033480e+03,7.768608e+02
3.034444e+03,7.702615e+02
3.035408e+03,7.678031e+02
3.036373e+03,7.634199e+02
3.037337e+03,7.582006e+02
3.038301e+03,7.598911e+02
3.039265e+03,7.633679e+02
3.040230e+03,7.649197e+02
3.041194e+03,7.703282e+02
3.042158e+03,7.766537e+02
3.043122e+03,7.735082e+02
3.044087e+03,7.664246e+02
3.045051e+03,7.600726e+02
3.046015e+03,7.577787e+02
3.046979e+03,7.616413e+02
3.047944e+03,7.408752e+02
3.048908e+03,7.154608e+02
3.049872e+03,7.142052e+02
3.050836e+03,7.260595e+02
3.051801e+03,7.471070e+02
3.052765e+03,7.471949e+02
3.053729e+03,7.309570e+02
3.054693e+03,7.518875e+02
3.055657e+03,7.720665e+02
3.056622e+03,7.640240e+02
3.057586e+03,7.552203e+02
3.058550e+03,7.552713e+02
3.059514e+03,7.615994e+02
3.060479e+03,7.724920e+02
3.061443e+03,7.900582e+02
3.062407e+03,7.910475e+02
3.063371e+03,7.725234e+02
3.064335e+03,7.598556e+02
3.065300e+03,7.556144e+02
3.066264e+03,7.552521e+02
3.067228e+03,7.584033e+02
3.068192e+03,7.666169e+02
3.069157e+03,7.597853e+02
3.070121e+03,7.432309e+02
3.071085e+03,7.495732e+02
3.072049e+03,7.604167e+02
3.073014e+03,7.420540e+02
3.073978e+03,7.361995e+02
3.074942e+03,7.500602e+02
3.075906e+03,7.382912e+02
3.076871e+03,7.181809e+02
3.077835e+03,7.173402e+02
3.078799e+03,7.275540e+02
3.079763e+03,7.488019e+02
3.080728e+03,7.449039e+02
3.081692e+03,7.264505e+02
3.082656e+03,7.386527e+02
3.083620e+03,7.544365e+02
3.084584e+03,7.583371e+02
3.085549e+03,7.631595e+02
3.086513e+03,7.714228e+02
3.087477e+03,7.447234e+02
3.088441e+03,7.191637e+02
3.089406e+03,7.420102e+02
3.090370e+03,7.484479e+02
3.091334e+03,7.322595e+02
3.092298e+03,7.422677e+02
3.093262e+03,7.656684e+02
3.094227e+03,7.828842e+02
3.095191e+03,7.722225e+02
3.096155e+03,7.216537e+02
3.097119e+03,7.139034e+02
3.098084e+03,7.354867e+02
3.099048e+03,7.494352e+02
3.100012e+03,7.633552e+02
3.100976e+03,7.908363e+02
3.101941e+03,7.683635e+02
3.102905e+03,7.090914e+02
3.103869e+03,7.228239e+02
3.104833e+03,7.424929e+02
3.105798e+03,7.247089e+02
3.106762e+03,7.073694e+02
3.107726e+03,7.025919e+02
3.108690e+03,7.382840e+02
3.109655e+03,7.728758e+02
3.110619e+03,7.457537e+02
3.111583e+03,7.312139e+02
3.112547e+03,7.389807e+02
3.113511e+03,7.363726e+02
3.114476e+03,7.302167e+02
3.115440e+03,7.459924e+02
3.116404e+03,7.570746e+02
3.117368e+03,7.543973e+02
3.118333e+03,7.424401e+02
3.119297e+03,7.313179e+02
3.120261e+03,7.368001e+02
3.121225e+03,7.453199e+02
3.122189e+03,7.488115e+02
3.123154e+03,7.562920e+02
3.124118e+03,7.604114e+02
3.125082e+03,7.214694e+02
3.126046e+03,7.084747e+02
3.127011e+03,7.527496e+02
3.127975e+03,7.592097e+02
3.128939e+03,7.312458e+02
3.129903e+03,7.389562e+02
3.130868e+03,7.493224e+02
3.131832e+03,7.216426e+02
3.132796e+03,7.231645e+02
3.133760e+03,7.481532e+02
3.134725e+03,7.389961e+02
3.135689e+03,7.232709e+02
3.136653e+03,7.273221e+02
3.137617e+03,7.494877e+02
3.138582e+03,7.898578e+02
3.139546e+03,7.840075e+02
3.140510e+03,7.652121e+02
3.141474e+03,7.755014e+02
3.142438e+03,7.681659e+02
3.143403e+03,7.403627e+02
3.144367e+03,7.367007e+02
3.145331e+03,7.437920e+02
3.146295e+03,7.340930e+02
3.147260e+03,7.363597e+02
3.148224e+03,7.566581e+02
3.149188e+03,7.729689e+02
3.150152e+03,7.729137e+02
3.151116e+03,7.411465e+02
3.152081e+03,7.186131e+02
3.153045e+03,7.215400e+02
3.154009e+03,7.142218e+02
3.154973e+03,7.059720e+02
3.155938e+03,7.209940e+02
3.156902e+03,7.368751e+02
3.157866e+03,7.448757e+02
3.158830e+03,7.383273e+02
3.159795e+03,7.289979e+02
3.160759e+03,7.426710e+02
3.161723e+03,7.563981e+02
3.162687e+03,7.615025e+02
3.163652e+03,7.533965e+02
3.164616e+03,7.371857e+02
3.165580e+03,7.171879e+02
3.166544e+03,7.148158e+02
3.167509e+03,7.360547e+02
3.168473e+03,7.569163e+02
3.169437e+03,7.674816e+02
3.170401e+03,7.300158e+02
3.171365e+03,7.116900e+02
3.172330e+03,7.436231e+02
3.173294e+03,7.649286e+02
3.174258e+03,7.747664e+02
3.175222e+03,7.871922e+02
3.176187e+03,7.790457e+02
3.177151e+03,7.313876e+02
3.178115e+03,7.173419e+02
3.179079e+03,7.310829e+02
3.180043e+03,7.321443e+02
3.181008e+03,7.458721e+02
3.181972e+03,7.795433e+02
3.182936e+03,7.568903e+02
3.183900e+03,7.041523e+02
3.184865e+03,7.185194e+02
3.185829e+03,7.424539e+02
3.186793e+03,7.525643e+02
3.187757e+03,7.437283e+02
3.188722e+03,7.248175e+02
3.189686e+03,7.117771e+02
3.190650e+03,7.197024e+02
3.191614e+03,7.491641e+02
3.192579e+03,7.692465e+02
3.193543e+03,7.724229e+02
3.194507e+03,7.260511e+02
3.195471e+03,7.019797e+02
3.196436e+03,7.322975e+02
3.197400e+03,7.365844e+02
3.198364e+03,7.304387e+02
3.199328e+03,7.507826e+02
3.200292e+03,7.623682e+02
3.201257e+03,0.000000e+00
3.202221e+03,0.000000e+00
3.203185e+03,0.000000e+00
3.204149e+03,0.000000e+00
3.205114e+03,0.000000e+00
3.206078e+03,0.000000e+00
3.207042e+03,0.000000e+00
3.208006e+03,0.000000e+00
3.208970e+03,0.000000e+00
3.209935e+03,0.000000e+00
3.210899e+03,0.000000e+00
3.211863e+03,0.000000e+00
3.212827e+03,0.000000e+00
3.213792e+03,0.000000e+00
3.214756e+03,0.000000e+00
3.215720e+03,0.000000e+00
3.216684e+03,0.000000e+00
3.217649e+03,0.000000e+00
3.218613e+03,0.000000e+00
3.219577e+03,0.000000e+00
3.220541e+03,0.000000e+00
3.221506e+03,0.000000e+00
3.222470e+03,0.000000e+00
3.223434e+03,0.000000e+00
3.224398e+03,0.000000e+00
3.225363e+03,0.000000e+00
3.226327e+03,0.000000e+00
3.227291e+03,0.000000e+00
3.228255e+03,0.000000e+00
3.229219e+03,0.000000e+00
3.230184e+03,0.000000e+00
3.231148e+03,0.000000e+00
3.232112e+03,0.000000e+00
3.233076e+03,0.000000e+00
3.234041e+03,0.000000e+00
3.235005e+03,0.000000e+00
3.235969e+03,0.000000e+00
3.236933e+03,0.000000e+00
3.237897e+03,0.000000e+00
3.238862e+03,0.000000e+00
3.239826e+03,0.000000e+00
3.240790e+03,0.000000e+00
3.241754e+03,0.000000e+00
3.242719e+03,0.000000e+00
3.243683e+03,0.000000e+00
3.244647e+03,0.000000e+00
3.245611e+03,0.000000e+00
3.246576e+03,0.000000e+00
3.247540e+03,0.000000e+00
3.248504e+03,0.000000e+00
3.249468e+03,0.000000e+00
3.250433e+03,0.000000e+00
3.251397e+03,0.000000e+00
3.252361e+03,0.000000e+00
3.253325e+03,0.000000e+00
3.254290e+03,0.000000e+00
3.255254e+03,0.000000e+00
3.256218e+03,0.000000e+00
3.257182e+03,0.000000e+00
3.258146e+03,0.000000e+00
3.259111e+03,0.000000e+00
3.260075e+03,0.000000e+00
3.261039e+03,0.000000e+00
3.262003e+03,0.000000e+00
3.262968e+03,0.000000e+00
3.263932e+03,0.000000e+00
3.264896e+03,0.000000e+00
3.265860e+03,0.000000e+00
3.266824e+03,0.000000e+00
3.267789e+03,0.000000e+00
3.268753e+03,0.000000e+00
3.269717e+03,0.000000e+00
3.270681e+03,0.000000e+00
3.271646e+03,0.000000e+00
3.272610e+03,0.000000e+00
3.273574e+03,0.000000e+00
3.274538e+03,0.000000e+00
3.275503e+03,0.000000e+00
3.276467e+03,0.000000e+00
3.277431e+03,0.000000e+00
3.278395e+03,0.000000e+00
3.279360e+03,0.000000e+00
3.280324e+03,0.000000e+00
3.281288e+03,0.000000e+00
3.282252e+03,0.000000e+00
3.283217e+03,0.000000e+00
3.284181e+03,0.000000e+00
3.285145e+03,0.000000e+00
3.286109e+03,0.000000e+00
3.287073e+03,0.000000e+00
3.288038e+03,0.000000e+00
3.289002e+03,0.000000e+00
3.289966e+03,0.000000e+00
3.290930e+03,0.000000e+00
3.291895e+03,0.000000e+00
3.292859e+03,0.000000e+00
3.293823e+03,0.000000e+00
3.294787e+03,0.000000e+00
3.295751e+03,0.000000e+00
3.296716e+03,0.000000e+00
3.297680e+03,0.000000e+00
3.298644e+03,0.000000e+00
3.299608e+03,0.000000e+00
3.300573e+03,0.000000e+00
3.301537e+03,0.000000e+00
3.302501e+03,0.000000e+00
3.303465e+03,0.000000e+00
3.304430e+03,0.000000e+00
3.305394e+03,0.000000e+00
3.306358e+03,0.000000e+00
3.307322e+03,0.000000e+00
3.308287e+03,0.000000e+00
3.309251e+03,0.000000e+00
3.310215e+03,0.000000e+00
3.311179e+03,0.000000e+00
3.312144e+03,0.000000e+00
3.313108e+03,0.000000e+00
3.314072e+03,0.000000e+00
3.315036e+03,0.000000e+00
3.316000e+03,0.000000e+00
3.316965e+03,0.000000e+00
3.317929e+03,0.000000e+00
3.318893e+03,0.000000e+00
3.319857e+03,0.000000e+00
3.320822e+03,0.000000e+00
3.321786e+03,0.000000e+00
3.322750e+03,0.000000e+00
3.323714e+03,0.000000e+00
3.324678e+03,0.000000e+00
3.325643e+03,0.000000e+00
3.326607e+03,0.000000e+00
3.327571e+03,0.000000e+00
3.328535e+03,0.000000e+00
3.329500e+03,0.000000e+00
3.330464e+03,0.000000e+00
3.331428e+03,0.000000e+00
3.332392e+03,0.000000e+00
3.333357e+03,0.000000e+00
3.334321e+03,0.000000e+00
3.335285e+03,0.000000e+00
3.336249e+03,0.000000e+00
3.337214e+03,0.000000e+00
3.338178e+03,0.000000e+00
3.339142e+03,0.000000e+00
3.340106e+03,0.000000e+00
3.341071e+03,0.000000e+00
3.342035e+03,0.000000e+00
3.342999e+03,0.000000e+00
3.343963e+03,0.000000e+00
3.344927e+03,0.000000e+00
3.345892e+03,0.000000e+00
3.346856e+03,0.000000e+00
3.347820e+03,0.000000e+00
3.348784e+03,0.000000e+00
3.349749e+03,0.000000e+00
3.350713e+03,0.000000e+00
3.351677e+03,0.000000e+00
3.352641e+03,0.000000e+00
3.353605e+03,0.000000e+00
3.354570e+03,0.000000e+00
3.355534e+03,0.000000e+00
3.356498e+03,0.000000e+00
3.357462e+03,0.000000e+00
3.358427e+03,0.000000e+00
3.359391e+03,0.000000e+00
3.360355e+03,0.000000e+00
3.361319e+03,0.000000e+00
3.362284e+03,0.000000e+00
3.363248e+03,0.000000e+00
3.364212e+03,0.000000e+00
3.365176e+03,0.000000e+00
3.366141e+03,0.000000e+00
3.367105e+03,0.000000e+00
3.368069e+03,0.000000e+00
3.369033e+03,0.000000e+00
3.369998e+03,0.000000e+00
3.370962e+03,0.000000e+00
3.371926e+03,0.000000e+00
3.372890e+03,0.000000e+00
3.373854e+03,0.000000e+00
3.374819e+03,0.000000e+00
3.375783e+03,0.000000e+00
3.376747e+03,0.000000e+00
3.377711e+03,0.000000e+00
3.378676e+03,0.000000e+00
3.379640e+03,0.000000e+00
3.380604e+03,0.000000e+00
3.381568e+03,0.000000e+00
3.382532e+03,0.000000e+00
3.383497e+03,0.000000e+00
3.384461e+03,0.000000e+00
3.385425e+03,0.000000e+00
3.386389e+03,0.000000e+00
3.387354e+03,0.000000e+00
3.388318e+03,0.000000e+00
3.389282e+03,0.000000e+00
3.390246e+03,0.000000e+00
3.391211e+03,0.000000e+00
3.392175e+03,0.000000e+00
3.393139e+03,0.000000e+00
3.394103e+03,0.000000e+00
3.395068e+03,0.000000e+00
3.396032e+03,0.000000e+00
3.396996e+03,0.000000e+00
3.397960e+03,0.000000e+00
3.398925e+03,0.000000e+00
3.399889e+03,0.000000e+00
3.400853e+03,0.000000e+00
3.401817e+03,0.000000e+00
3.402781e+03,0.000000e+00
3.403746e+03,0.000000e+00
3.404710e+03,0.000000e+00
3.405674e+03,0.000000e+00
3.406638e+03,0.000000e+00
3.407603e+03,0.000000e+00
3.408567e+03,0.000000e+00
3.409531e+03,0.000000e+00
3.410495e+03,0.000000e+00
3.411459e+03,0.000000e+00
3.412424e+03,0.000000e+00
3.413388e+03,0.000000e+00
3.414352e+03,0.000000e+00
3.415316e+03,0.000000e+00
3.416281e+03,0.000000e+00
3.417245e+03,0.000000e+00
3.418209e+03,0.000000e+00
3.419173e+03,0.000000e+00
3.420138e+03,0.000000e+00
3.421102e+03,0.000000e+00
3.422066e+03,0.000000e+00
3.423030e+03,0.000000e+00
3.423995e+03,0.000000e+00
3.424959e+03,0.000000e+00
3.425923e+03,0.000000e+00
3.426887e+03,0.000000e+00
3.427852e+03,0.000000e+00
3.428816e+03,0.000000e+00
3.429780e+03,0.000000e+00
3.430744e+03,0.000000e+00
3.431708e+03,0.000000e+00
3.432673e+03,0.000000e+00
3.433637e+03,0.000000e+00
3.434601e+03,0.000000e+00
3.435565e+03,0.000000e+00
3.436530e+03,0.000000e+00
3.437494e+03,0.000000e+00
3.438458e+03,0.000000e+00
3.439422e+03,0.000000e+00
3.440386e+03,0.000000e+00
3.441351e+03,0.000000e+00
3.442315e+03,0.000000e+00
3.443279e+03,0.000000e+00
3.444243e+03,0.000000e+00
3.445208e+03,0.000000e+00
3.446172e+03,0.000000e+00
3.447136e+03,0.000000e+00
3.448100e+03,0.000000e+00
3.449065e+03,0.000000e+00
3.450029e+03,0.000000e+00
3.450993e+03,0.000000e+00
3.451957e+03,0.000000e+00
3.452922e+03,0.000000e+00
3.453886e+03,0.000000e+00
3.454850e+03,0.000000e+00
3.455814e+03,0.000000e+00
3.456779e+03,0.000000e+00
3.457743e+03,0.000000e+00
3.458707e+03,0.000000e+00
3.459671e+03,0.000000e+00
3.460635e+03,0.000000e+00
3.461600e+03,0.000000e+00
3.462564e+03,0.000000e+00
3.463528e+03,0.000000e+00
3.464492e+03,0.000000e+00
3.465457e+03,0.000000e+00
3.466421e+03,0.000000e+00
3.467385e+03,0.000000e+00
3.468349e+03,0.000000e+00
3.469313e+03,0.000000e+00
3.470278e+03,0.000000e+00
3.471242e+03,0.000000e+00
3.472206e+03,0.000000e+00
3.473170e+03,0.000000e+00
3.474135e+03,0.000000e+00
3.475099e+03,0.000000e+00
3.476063e+03,0.000000e+00
3.477027e+03,0.000000e+00
3.477992e+03,0.000000e+00
3.478956e+03,0.000000e+00
3.479920e+03,0.000000e+00
3.480884e+03,0.000000e+00
3.481849e+03,0.000000e+00
3.482813e+03,0.000000e+00
3.483777e+03,0.000000e+00
3.484741e+03,0.000000e+00
3.485706e+03,0.000000e+00
3.486670e+03,0.000000e+00
3.487634e+03,0.000000e+00
3.488598e+03,0.000000e+00
3.489563e+03,0.000000e+00
3.490527e+03,0.000000e+00
3.491491e+03,0.000000e+00
3.492455e+03,0.000000e+00
3.493419e+03,0.000000e+00
3.494384e+03,0.000000e+00
3.495348e+03,0.000000e+00
3.496312e+03,0.000000e+00
3.497276e+03,0.000000e+00
3.498240e+03,0.000000e+00
3.499205e+03,0.000000e+00
3.500169e+03,0.000000e+00
