9.931763e+01,0.000000e+00
1.002819e+02,0.000000e+00
1.012461e+02,0.000000e+00
1.022103e+02,0.000000e+00
1.031746e+02,0.000000e+00
1.041388e+02,0.000000e+00
1.051030e+02,0.000000e+00
1.060673e+02,0.000000e+00
1.070315e+02,0.000000e+00
1.079957e+02,0.000000e+00
1.089600e+02,0.000000e+00
1.099242e+02,0.000000e+00
1.108884e+02,0.000000e+00
1.118527e+02,0.000000e+00
1.128169e+02,0.000000e+00
1.137811e+02,0.000000e+00
1.147454e+02,0.000000e+00
1.157096e+02,0.000000e+00
1.166738e+02,0.000000e+00
1.176381e+02,0.000000e+00
1.186023e+02,0.000000e+00
1.195665e+02,0.000000e+00
1.205308e+02,0.000000e+00
1.214950e+02,0.000000e+00
1.224592e+02,0.000000e+00
1.234235e+02,0.000000e+00
1.243877e+02,0.000000e+00
1.253519e+02,0.000000e+00
1.263162e+02,0.000000e+00
1.272804e+02,0.000000e+00
1.282446e+02,0.000000e+00
1.292089e+02,0.000000e+00
1.301731e+02,0.000000e+00
1.311373e+02,0.000000e+00
1.321016e+02,0.000000e+00
1.330658e+02,0.000000e+00
1.340300e+02,0.000000e+00
1.349943e+02,0.000000e+00
1.359585e+02,0.000000e+00
1.369227e+02,0.000000e+00
1.378870e+02,0.000000e+00
1.388512e+02,0.000000e+00
1.398154e+02,0.000000e+00
1.407797e+02,0.000000e+00
1.417439e+02,0.000000e+00
1.427081e+02,0.000000e+00
1.436724e+02,0.000000e+00
1.446366e+02,0.000000e+00
1.456008e+02,0.000000e+00
1.465651e+02,0.000000e+00
1.475293e+02,0.000000e+00
1.484935e+02,0.000000e+00
1.494578e+02,0.000000e+00
1.504220e+02,0.000000e+00
1.513862e+02,0.000000e+00
1.523505e+02,0.000000e+00
1.533147e+02,0.000000e+00
1.542789e+02,0.000000e+00
1.552432e+02,0.000000e+00
1.562074e+02,0.000000e+00
1.571716e+02,0.000000e+00
1.581359e+02,0.000000e+00
1.591001e+02,0.000000e+00
1.600643e+02,0.000000e+00
1.610286e+02,0.000000e+00
1.619928e+02,0.000000e+00
1.629570e+02,0.000000e+00
1.639213e+02,0.000000e+00
1.648855e+02,0.000000e+00
1.658497e+02,0.000000e+00
1.668140e+02,0.000000e+00
1.677782e+02,0.000000e+00
1.687424e+02,0.000000e+00
1.697067e+02,0.000000e+00
1.706709e+02,0.000000e+00
1.716351e+02,0.000000e+00
1.725994e+02,0.000000e+00
1.735636e+02,0.000000e+00
1.745278e+02,0.000000e+00
1.754921e+02,0.000000e+00
1.764563e+02,0.000000e+00
1.774205e+02,0.000000e+00
1.783848e+02,0.000000e+00
1.793490e+02,0.000000e+00
1.803132e+02,0.000000e+00
1.812775e+02,0.000000e+00
1.822417e+02,0.000000e+00
1.832059e+02,0.000000e+00
1.841702e+02,0.000000e+00
1.851344e+02,0.000000e+00
1.860986e+02,0.000000e+00
1.870629e+02,0.000000e+00
1.880271e+02,0.000000e+00
1.889913e+02,0.000000e+00
1.899556e+02,0.000000e+00
1.909198e+02,0.000000e+00
1.918840e+02,0.000000e+00
1.928483e+02,0.000000e+00
1.938125e+02,0.000000e+00
1.947767e+02,0.000000e+00
1.957410e+02,0.000000e+00
1.967052e+02,0.000000e+00
1.976694e+02,0.000000e+00
1.986337e+02,0.000000e+00
1.995979e+02,3.588681e+03
2.005621e+02,3.586925e+03
2.015264e+02,3.589600e+03
2.024906e+02,3.602972e+03
2.034548e+02,3.615559e+03
2.044191e+02,3.623574e+03
2.053833e+02,3.626782e+03
2.063475e+02,3.627608e+03
2.073118e+02,3.628677e+03
2.082760e+02,3.630149e+03
2.092402e+02,3.631417e+03
2.102045e+02,3.633395e+03
2.111687e+02,3.637077e+03
2.121329e+02,3.643109e+03
2.130972e+02,3.651559e+03
2.140614e+02,3.660427e+03
2.150256e+02,3.666109e+03
2.159899e+02,3.667452e+03
2.169541e+02,3.667846e+03
2.179183e+02,3.667950e+03
2.188826e+02,3.668034e+03
2.198468e+02,3.670328e+03
2.208110e+02,3.678241e+03
2.217753e+02,3.691044e+03
2.227395e+02,3.699445e+03
2.237037e+02,3.702545e+03
2.246680e+02,3.702202e+03
2.256322e+02,3.698903e+03
2.265964e+02,3.691565e+03
2.275607e+02,3.685280e+03
2.285249e+02,3.685888e+03
2.294892e+02,3.694330e+03
2.304534e+02,3.705501e+03
2.314176e+02,3.715431e+03
2.323819e+02,3.723577e+03
2.333461e+02,3.729953e+03
2.343103e+02,3.733409e+03
2.352746e+02,3.736096e+03
2.362388e+02,3.741736e+03
2.372030e+02,3.751441e+03
2.381673e+02,3.760849e+03
2.391315e+02,3.764237e+03
2.400957e+02,3.759979e+03
2.410600e+02,3.756071e+03
2.420242e+02,3.755867e+03
2.429884e+02,3.759952e+03
2.439527e+02,3.767995e+03
2.449169e+02,3.779375e+03
2.458811e+02,3.793988e+03
2.468454e+02,3.805128e+03
2.478096e+02,3.810992e+03
2.487738e+02,3.814983e+03
2.497381e+02,3.819497e+03
2.507023e+02,3.825029e+03
2.516665e+02,3.830487e+03
2.526308e+02,3.833770e+03
2.535950e+02,3.830116e+03
2.545592e+02,3.826598e+03
2.555235e+02,3.824340e+03
2.564877e+02,3.823181e+03
2.574519e+02,3.823172e+03
2.584161e+02,3.824825e+03
2.593804e+02,3.828668e+03
2.603446e+02,3.834268e+03
2.613088e+02,3.840150e+03
2.622731e+02,3.847114e+03
2.632373e+02,3.855773e+03
2.642015e+02,3.865079e+03
2.651658e+02,3.873624e+03
2.661300e+02,3.880741e+03
2.670942e+02,3.887199e+03
2.680585e+02,3.895335e+03
2.690227e+02,3.909114e+03
2.699869e+02,3.922835e+03
2.709512e+02,3.931425e+03
2.719154e+02,3.932549e+03
2.728796e+02,3.931861e+03
2.738439e+02,3.938157e+03
2.748081e+02,3.954510e+03
2.757723e+02,3.971814e+03
2.767366e+02,3.980788e+03
2.777008e+02,3.981596e+03
2.786650e+02,3.979490e+03
2.796293e+02,3.975083e+03
2.805935e+02,3.970639e+03
2.815577e+02,3.969500e+03
2.825220e+02,3.972605e+03
2.834862e+02,3.976914e+03
2.844504e+02,3.977749e+03
2.854147e+02,3.975743e+03
2.863789e+02,3.972167e+03
2.873431e+02,3.966337e+03
2.883074e+02,3.960399e+03
2.892716e+02,3.957882e+03
2.902358e+02,3.960590e+03
2.912001e+02,3.968048e+03
2.921643e+02,3.971508e+03
2.931285e+02,3.969210e+03
2.940928e+02,3.966761e+03
2.950570e+02,3.965447e+03
2.960212e+02,3.964927e+03
2.969855e+02,3.964927e+03
2.979497e+02,3.966546e+03
2.989139e+02,3.972542e+03
2.998782e+02,3.975579e+03
3.008424e+02,3.976959e+03
3.018066e+02,3.977242e+03
3.027709e+02,3.974436e+03
3.037351e+02,3.966190e+03
3.046993e+02,3.956344e+03
3.056636e+02,3.953738e+03
3.066278e+02,3.962099e+03
3.075920e+02,3.971085e+03
3.085563e+02,3.975627e+03
3.095205e+02,3.978113e+03
3.104847e+02,3.982136e+03
3.114490e+02,3.989319e+03
3.124132e+02,3.997401e+03
3.133774e+02,4.002360e+03
3.143417e+02,4.002547e+03
3.153059e+02,4.000444e+03
3.162701e+02,4.001337e+03
3.172344e+02,4.008169e+03
3.181986e+02,4.013612e+03
3.191628e+02,4.014591e+03
3.201271e+02,4.012995e+03
3.210913e+02,4.011699e+03
3.220555e+02,4.011414e+03
3.230198e+02,4.012080e+03
3.239840e+02,4.015383e+03
3.249482e+02,4.025074e+03
3.259125e+02,4.033041e+03
3.268767e+02,4.036119e+03
3.278409e+02,4.035320e+03
3.288052e+02,4.033573e+03
3.297694e+02,4.032890e+03
3.307336e+02,4.033030e+03
3.316979e+02,4.035106e+03
3.326621e+02,4.042497e+03
3.336263e+02,4.048673e+03
3.345906e+02,4.050760e+03
3.355548e+02,4.049244e+03
3.365190e+02,4.046700e+03
3.374833e+02,4.044333e+03
3.384475e+02,4.041601e+03
3.394117e+02,4.040762e+03
3.403760e+02,4.041688e+03
3.413402e+02,4.044008e+03
3.423044e+02,4.047494e+03
3.432687e+02,4.052561e+03
3.442329e+02,4.058167e+03
3.451971e+02,4.062104e+03
3.461614e+02,4.063292e+03
3.471256e+02,4.063831e+03
3.480898e+02,4.067707e+03
3.490541e+02,4.078669e+03
3.500183e+02,4.084411e+03
3.509825e+02,4.082711e+03
3.519468e+02,4.079057e+03
3.529110e+02,4.075998e+03
3.538752e+02,4.073524e+03
3.548395e+02,4.071993e+03
3.558037e+02,4.073494e+03
3.567680e+02,4.080276e+03
3.577322e+02,4.086886e+03
3.586964e+02,4.095407e+03
3.596607e+02,4.104369e+03
3.606249e+02,4.110700e+03
3.615891e+02,4.110304e+03
3.625534e+02,4.104645e+03
3.635176e+02,4.100391e+03
3.644818e+02,4.099735e+03
3.654461e+02,4.099795e+03
3.664103e+02,4.099320e+03
3.673745e+02,4.100513e+03
3.683388e+02,4.106443e+03
3.693030e+02,4.120370e+03
3.702672e+02,4.136226e+03
3.712315e+02,4.144915e+03
3.721957e+02,4.143565e+03
3.731599e+02,4.137360e+03
3.741242e+02,4.135732e+03
3.750884e+02,4.148881e+03
3.760526e+02,4.158008e+03
3.770169e+02,4.158524e+03
3.779811e+02,4.154282e+03
3.789453e+02,4.149690e+03
3.799096e+02,4.146530e+03
3.808738e+02,4.143966e+03
3.818380e+02,4.139632e+03
3.828023e+02,4.130868e+03
3.837665e+02,4.128082e+03
3.847307e+02,4.137698e+03
3.856950e+02,4.154895e+03
3.866592e+02,4.168220e+03
3.876234e+02,4.168610e+03
3.885877e+02,4.159713e+03
3.895519e+02,4.151885e+03
3.905161e+02,4.144723e+03
3.914804e+02,4.139354e+03
3.924446e+02,4.138436e+03
3.934088e+02,4.143623e+03
3.943731e+02,4.149330e+03
3.953373e+02,4.155619e+03
3.963015e+02,4.160880e+03
3.972658e+02,4.162506e+03
3.982300e+02,4.159859e+03
3.991942e+02,4.155543e+03
4.001585e+02,4.153282e+03
4.011227e+02,4.149194e+03
4.020869e+02,4.148891e+03
4.030512e+02,4.154930e+03
4.040154e+02,4.163214e+03
4.049796e+02,4.168866e+03
4.059439e+02,4.167314e+03
4.069081e+02,4.161018e+03
4.078723e+02,4.160080e+03
4.088366e+02,4.166461e+03
4.098008e+02,4.171654e+03
4.107650e+02,4.172024e+03
4.117293e+02,4.168472e+03
4.126935e+02,4.164543e+03
4.136577e+02,4.159314e+03
4.146220e+02,4.154847e+03
4.155862e+02,4.155070e+03
4.165504e+02,4.161278e+03
4.175147e+02,4.170444e+03
4.184789e+02,4.177582e+03
4.194431e+02,4.184256e+03
4.204074e+02,4.186128e+03
4.213716e+02,4.178595e+03
4.223358e+02,4.167780e+03
4.233001e+02,4.159899e+03
4.242643e+02,4.157927e+03
4.252285e+02,4.161120e+03
4.261928e+02,4.167927e+03
4.271570e+02,4.180362e+03
4.281212e+02,4.192876e+03
4.290855e+02,4.204523e+03
4.300497e+02,4.213832e+03
4.310139e+02,4.217569e+03
4.319782e+02,4.211113e+03
4.329424e+02,4.201319e+03
4.339066e+02,4.195000e+03
4.348709e+02,4.192194e+03
4.358351e+02,4.191205e+03
4.367993e+02,4.190969e+03
4.377636e+02,4.192682e+03
4.387278e+02,4.192639e+03
4.396920e+02,4.189488e+03
4.406563e+02,4.186600e+03
4.416205e+02,4.185977e+03
4.425847e+02,4.187888e+03
4.435490e+02,4.190952e+03
4.445132e+02,4.194009e+03
4.454774e+02,4.197752e+03
4.464417e+02,4.201249e+03
4.474059e+02,4.202541e+03
4.483701e+02,4.202726e+03
4.493344e+02,4.204072e+03
4.502986e+02,4.209544e+03
4.512628e+02,4.215395e+03
4.522271e+02,4.218800e+03
4.531913e+02,4.220081e+03
4.541555e+02,4.220904e+03
4.551198e+02,4.222490e+03
4.560840e+02,4.225053e+03
4.570482e+02,4.222169e+03
4.580125e+02,4.208577e+03
4.589767e+02,4.198321e+03
4.599409e+02,4.195952e+03
4.609052e+02,4.199467e+03
4.618694e+02,4.203795e+03
4.628336e+02,4.206605e+03
4.637979e+02,4.208037e+03
4.647621e+02,4.206404e+03
4.657263e+02,4.200783e+03
4.666906e+02,4.195973e+03
4.676548e+02,4.194839e+03
4.686190e+02,4.196845e+03
4.695833e+02,4.200745e+03
4.705475e+02,4.209629e+03
4.715117e+02,4.218751e+03
4.724760e+02,4.220205e+03
4.734402e+02,4.211096e+03
4.744044e+02,4.197262e+03
4.753687e+02,4.192456e+03
4.763329e+02,4.206527e+03
4.772971e+02,4.214658e+03
4.782614e+02,4.206900e+03
4.792256e+02,4.193772e+03
4.801898e+02,4.188513e+03
4.811541e+02,4.201242e+03
4.821183e+02,4.219675e+03
4.830826e+02,4.224476e+03
4.840468e+02,4.214396e+03
4.850110e+02,4.205443e+03
4.859753e+02,4.209884e+03
4.869395e+02,4.228659e+03
4.879037e+02,4.236133e+03
4.888680e+02,4.222290e+03
4.898322e+02,4.206884e+03
4.907964e+02,4.201373e+03
4.917607e+02,4.205687e+03
4.927249e+02,4.212510e+03
4.936891e+02,4.214606e+03
4.946534e+02,4.211471e+03
4.956176e+02,4.209541e+03
4.965818e+02,4.208354e+03
4.975461e+02,4.209746e+03
4.985103e+02,4.215413e+03
4.994745e+02,4.226154e+03
5.004388e+02,4.233787e+03
5.014030e+02,4.232994e+03
5.023672e+02,4.228577e+03
5.033315e+02,4.228727e+03
5.042957e+02,4.236131e+03
5.052599e+02,4.246196e+03
5.062242e+02,4.250091e+03
5.071884e+02,4.245958e+03
5.081526e+02,4.239839e+03
5.091169e+02,4.230645e+03
5.100811e+02,4.221848e+03
5.110453e+02,4.216680e+03
5.120095e+02,4.218014e+03
5.129738e+02,4.222719e+03
5.139380e+02,4.227173e+03
5.149022e+02,4.231515e+03
5.158665e+02,4.235435e+03
5.168307e+02,4.237142e+03
5.177949e+02,4.234643e+03
5.187592e+02,4.231481e+03
5.197234e+02,4.234830e+03
5.206876e+02,4.237313e+03
5.216519e+02,4.234973e+03
5.226161e+02,4.229118e+03
5.235803e+02,4.223313e+03
5.245446e+02,4.219609e+03
5.255088e+02,4.217936e+03
5.264730e+02,4.218108e+03
5.274373e+02,4.220233e+03
5.284015e+02,4.223903e+03
5.293657e+02,4.229038e+03
5.303300e+02,4.236374e+03
5.312942e+02,4.240591e+03
5.322584e+02,4.239629e+03
5.332227e+02,4.238618e+03
5.341869e+02,4.240645e+03
5.351511e+02,4.245713e+03
5.361154e+02,4.253413e+03
5.370796e+02,4.265774e+03
5.380438e+02,4.286001e+03
5.390081e+02,4.300350e+03
5.399723e+02,4.303941e+03
5.409365e+02,4.303346e+03
5.419008e+02,4.302960e+03
5.428650e+02,4.300311e+03
5.438292e+02,4.300283e+03
5.447935e+02,4.310467e+03
5.457577e+02,4.325298e+03
5.467219e+02,4.332479e+03
5.476862e+02,4.326475e+03
5.486504e+02,4.311411e+03
5.496146e+02,4.299370e+03
5.505789e+02,4.288339e+03
5.515431e+02,4.283536e+03
5.525073e+02,4.291102e+03
5.534716e+02,4.306642e+03
5.544358e+02,4.321528e+03
5.554000e+02,4.332272e+03
5.563643e+02,4.338783e+03
5.573285e+02,4.340753e+03
5.582927e+02,4.337834e+03
5.592570e+02,4.330720e+03
5.602212e+02,4.319800e+03
5.611854e+02,4.304774e+03
5.621497e+02,4.290962e+03
5.631139e+02,4.277556e+03
5.640781e+02,4.264134e+03
5.650424e+02,4.251265e+03
5.660066e+02,4.239751e+03
5.669708e+02,4.230907e+03
5.679351e+02,4.227864e+03
5.688993e+02,4.228230e+03
5.698635e+02,4.227159e+03
5.708278e+02,4.224595e+03
5.717920e+02,4.223114e+03
5.727562e+02,4.224473e+03
5.737205e+02,4.229539e+03
5.746847e+02,4.230681e+03
5.756489e+02,4.224581e+03
5.766132e+02,4.216554e+03
5.775774e+02,4.209200e+03
5.785416e+02,4.203196e+03
5.795059e+02,4.199005e+03
5.804701e+02,4.196808e+03
5.814343e+02,4.196694e+03
5.823986e+02,4.200282e+03
5.833628e+02,4.209321e+03
5.843270e+02,4.218741e+03
5.852913e+02,4.221079e+03
5.862555e+02,4.207318e+03
5.872197e+02,4.200113e+03
5.881840e+02,4.202398e+03
5.891482e+02,4.208386e+03
5.901124e+02,4.213563e+03
5.910767e+02,4.216504e+03
5.920409e+02,4.219625e+03
5.930051e+02,4.226266e+03
5.939694e+02,4.235168e+03
5.949336e+02,4.240949e+03
5.958978e+02,4.241967e+03
5.968621e+02,4.239239e+03
5.978263e+02,4.235433e+03
5.987905e+02,4.231077e+03
5.997548e+02,4.226237e+03
6.007190e+02,4.218747e+03
6.016832e+02,4.212380e+03
6.026475e+02,4.210245e+03
6.036117e+02,4.211802e+03
6.045759e+02,4.218559e+03
6.055402e+02,4.236666e+03
6.065044e+02,4.263824e+03
6.074686e+02,4.285022e+03
6.084329e+02,4.294829e+03
6.093971e+02,4.294541e+03
6.103613e+02,4.288502e+03
6.113256e+02,4.272115e+03
6.122899e+02,4.255046e+03
6.132541e+02,4.236125e+03
6.142183e+02,4.217837e+03
6.151826e+02,4.204507e+03
6.161468e+02,4.201934e+03
6.171110e+02,4.204585e+03
6.180753e+02,4.205552e+03
6.190395e+02,4.204512e+03
6.200037e+02,4.201846e+03
6.209680e+02,4.197190e+03
6.219322e+02,4.191293e+03
6.228964e+02,4.187737e+03
6.238607e+02,4.187139e+03
6.248249e+02,4.187679e+03
6.257891e+02,4.188910e+03
6.267534e+02,4.189154e+03
6.277176e+02,4.186568e+03
6.286818e+02,4.177264e+03
6.296461e+02,4.168817e+03
6.306103e+02,4.172772e+03
6.315745e+02,4.187944e+03
6.325388e+02,4.200218e+03
6.335030e+02,4.196596e+03
6.344672e+02,4.175701e+03
6.354315e+02,4.161229e+03
6.363957e+02,4.155116e+03
6.373599e+02,4.151500e+03
6.383242e+02,4.148039e+03
6.392884e+02,4.145511e+03
6.402526e+02,4.146256e+03
6.412169e+02,4.155962e+03
6.421811e+02,4.165900e+03
6.431453e+02,4.167128e+03
6.441096e+02,4.159654e+03
6.450738e+02,4.149423e+03
6.460380e+02,4.141241e+03
6.470023e+02,4.135947e+03
6.479665e+02,4.136604e+03
6.489307e+02,4.145494e+03
6.498950e+02,4.154833e+03
6.508592e+02,4.157915e+03
6.518234e+02,4.154070e+03
6.527877e+02,4.148209e+03
6.537519e+02,4.138195e+03
6.547161e+02,4.128972e+03
6.556804e+02,4.126890e+03
6.566446e+02,4.131530e+03
6.576088e+02,4.133847e+03
6.585731e+02,4.120181e+03
6.595373e+02,4.094642e+03
6.605015e+02,4.083568e+03
6.614658e+02,4.092552e+03
6.624300e+02,4.107619e+03
6.633942e+02,4.115103e+03
6.643585e+02,4.110289e+03
6.653227e+02,4.109146e+03
6.662869e+02,4.114757e+03
6.672512e+02,4.120389e+03
6.682154e+02,4.121640e+03
6.691796e+02,4.117450e+03
6.701439e+02,4.111788e+03
6.711081e+02,4.106938e+03
6.720723e+02,4.102931e+03
6.730366e+02,4.100570e+03
6.740008e+02,4.100541e+03
6.749650e+02,4.101082e+03
6.759293e+02,4.100063e+03
6.768935e+02,4.097433e+03
6.778577e+02,4.095175e+03
6.788220e+02,4.094878e+03
6.797862e+02,4.096076e+03
6.807504e+02,4.096970e+03
6.817147e+02,4.096353e+03
6.826789e+02,4.094884e+03
6.836431e+02,4.090896e+03
6.846074e+02,4.085474e+03
6.855716e+02,4.080683e+03
6.865358e+02,4.077691e+03
6.875001e+02,4.076605e+03
6.884643e+02,4.079046e+03
6.894285e+02,4.085094e+03
6.903928e+02,4.085385e+03
6.913570e+02,4.076472e+03
6.923212e+02,4.064169e+03
6.932855e+02,4.055271e+03
6.942497e+02,4.053442e+03
6.952139e+02,4.051338e+03
6.961782e+02,4.045874e+03
6.971424e+02,4.041121e+03
6.981066e+02,4.039824e+03
6.990709e+02,4.041012e+03
7.000351e+02,4.040699e+03
7.009993e+02,4.037208e+03
7.019636e+02,4.032969e+03
7.029278e+02,4.030956e+03
7.038920e+02,4.031395e+03
7.048563e+02,4.032420e+03
7.058205e+02,4.033229e+03
7.067847e+02,4.036105e+03
7.077490e+02,4.036587e+03
7.087132e+02,4.035535e+03
7.096774e+02,4.034745e+03
7.106417e+02,4.031978e+03
7.116059e+02,4.025739e+03
7.125701e+02,4.020043e+03
7.135344e+02,4.015674e+03
7.144986e+02,4.013935e+03
7.154628e+02,4.016340e+03
7.164271e+02,4.022358e+03
7.173913e+02,4.028065e+03
7.183555e+02,4.030784e+03
7.193198e+02,4.030133e+03
7.202840e+02,4.023160e+03
7.212482e+02,4.008323e+03
7.222125e+02,3.994610e+03
7.231767e+02,3.991521e+03
7.241409e+02,4.003403e+03
7.251052e+02,4.010446e+03
7.260694e+02,4.008818e+03
7.270336e+02,4.005003e+03
7.279979e+02,4.003781e+03
7.289621e+02,4.005552e+03
7.299263e+02,4.005389e+03
7.308906e+02,3.997789e+03
7.318548e+02,3.988278e+03
7.328190e+02,3.984164e+03
7.337833e+02,3.985887e+03
7.347475e+02,3.988110e+03
7.357117e+02,3.986311e+03
7.366760e+02,3.981505e+03
7.376402e+02,3.977221e+03
7.386044e+02,3.974104e+03
7.395687e+02,3.970608e+03
7.405329e+02,3.964059e+03
7.414971e+02,3.952419e+03
7.424614e+02,3.945295e+03
7.434256e+02,3.948435e+03
7.443898e+02,3.954651e+03
7.453541e+02,3.958633e+03
7.463183e+02,3.958520e+03
7.472825e+02,3.958085e+03
7.482468e+02,3.961822e+03
7.492110e+02,3.965128e+03
7.501752e+02,3.963759e+03
7.511395e+02,3.959500e+03
7.521037e+02,3.956056e+03
7.530679e+02,3.955598e+03
7.540322e+02,3.956505e+03
7.549964e+02,3.953344e+03
7.559606e+02,3.945385e+03
7.569249e+02,3.939192e+03
7.578891e+02,3.939627e+03
7.588533e+02,3.947572e+03
7.598176e+02,3.953804e+03
7.607818e+02,3.954182e+03
7.617460e+02,3.950625e+03
7.627103e+02,3.942762e+03
7.636745e+02,3.934065e+03
7.646387e+02,3.930182e+03
7.656030e+02,3.937675e+03
7.665672e+02,3.947200e+03
7.675314e+02,3.948868e+03
7.684957e+02,3.941989e+03
7.694599e+02,3.932008e+03
7.704241e+02,3.924596e+03
7.713884e+02,3.919828e+03
7.723526e+02,3.913049e+03
7.733168e+02,3.904495e+03
7.742811e+02,3.900395e+03
7.752453e+02,3.901699e+03
7.762095e+02,3.906706e+03
7.771738e+02,3.913660e+03
7.781380e+02,3.927958e+03
7.791022e+02,3.934080e+03
7.800665e+02,3.924423e+03
7.810307e+02,3.907610e+03
7.819949e+02,3.897230e+03
7.829592e+02,3.903911e+03
7.839234e+02,3.912676e+03
7.848876e+02,3.915383e+03
7.858519e+02,3.914101e+03
7.868161e+02,3.912738e+03
7.877803e+02,3.912937e+03
7.887446e+02,3.913527e+03
7.897088e+02,3.915047e+03
7.906730e+02,3.918306e+03
7.916373e+02,3.918919e+03
7.926015e+02,3.913105e+03
7.935657e+02,3.901543e+03
7.945300e+02,3.890376e+03
7.954942e+02,3.881534e+03
7.964584e+02,3.872538e+03
7.974227e+02,3.866841e+03
7.983869e+02,3.864531e+03
7.993511e+02,3.861006e+03
8.003154e+02,3.852073e+03
8.012796e+02,3.842548e+03
8.022438e+02,3.831499e+03
8.032081e+02,3.824315e+03
8.041723e+02,3.827696e+03
8.051365e+02,3.842995e+03
8.061008e+02,3.856474e+03
8.070650e+02,3.854031e+03
8.080292e+02,3.842751e+03
8.089935e+02,3.837431e+03
8.099577e+02,3.841223e+03
8.109219e+02,3.846469e+03
8.118862e+02,3.844147e+03
8.128504e+02,3.834452e+03
8.138146e+02,3.823312e+03
8.147789e+02,3.808795e+03
8.157431e+02,3.796891e+03
8.167073e+02,3.794529e+03
8.176716e+02,3.806317e+03
8.186358e+02,3.813082e+03
8.196000e+02,3.808405e+03
8.205643e+02,3.804106e+03
8.215285e+02,3.804995e+03
8.224927e+02,3.809860e+03
8.234570e+02,3.810458e+03
8.244212e+02,3.798206e+03
8.253854e+02,3.787051e+03
8.263497e+02,3.786613e+03
8.273139e+02,3.793185e+03
8.282781e+02,3.798042e+03
8.292424e+02,3.798683e+03
8.302066e+02,3.796397e+03
8.311708e+02,3.788689e+03
8.321351e+02,3.777144e+03
8.330993e+02,3.770295e+03
8.340635e+02,3.772321e+03
8.350278e+02,3.780398e+03
8.359920e+02,3.789150e+03
8.369562e+02,3.800358e+03
8.379205e+02,3.802550e+03
8.388847e+02,3.787638e+03
8.398489e+02,3.764174e+03
8.408132e+02,3.753637e+03
8.417774e+02,3.768996e+03
8.427416e+02,3.777534e+03
8.437059e+02,3.771151e+03
8.446701e+02,3.759161e+03
8.456343e+02,3.751739e+03
8.465986e+02,3.751865e+03
8.475628e+02,3.752362e+03
8.485270e+02,3.751511e+03
8.494913e+02,3.749379e+03
8.504555e+02,3.746351e+03
8.514197e+02,3.742936e+03
8.523840e+02,3.739824e+03
8.533482e+02,3.736006e+03
8.543124e+02,3.732032e+03
8.552767e+02,3.730115e+03
8.562409e+02,3.730193e+03
8.572051e+02,3.729957e+03
8.581694e+02,3.727955e+03
8.591336e+02,3.724791e+03
8.600978e+02,3.721150e+03
8.610621e+02,3.717449e+03
8.620263e+02,3.714801e+03
8.629905e+02,3.713247e+03
8.639548e+02,3.711564e+03
8.649190e+02,3.707735e+03
8.658832e+02,3.701894e+03
8.668475e+02,3.697323e+03
8.678117e+02,3.695199e+03
8.687759e+02,3.694955e+03
8.697402e+02,3.696371e+03
8.707044e+02,3.698665e+03
8.716686e+02,3.699458e+03
8.726329e+02,3.702403e+03
8.735971e+02,3.705377e+03
8.745613e+02,3.702953e+03
8.755256e+02,3.689164e+03
8.764898e+02,3.676317e+03
8.774540e+02,3.672322e+03
8.784183e+02,3.673564e+03
8.793825e+02,3.674293e+03
8.803467e+02,3.672106e+03
8.813110e+02,3.669384e+03
8.822752e+02,3.669486e+03
8.832394e+02,3.672734e+03
8.842037e+02,3.678999e+03
8.851679e+02,3.687788e+03
8.861321e+02,3.693562e+03
8.870964e+02,3.688014e+03
8.880606e+02,3.670256e+03
8.890248e+02,3.653293e+03
8.899891e+02,3.638663e+03
8.909533e+02,3.629027e+03
8.919175e+02,3.626853e+03
8.928818e+02,3.634104e+03
8.938460e+02,3.639620e+03
8.948102e+02,3.643295e+03
8.957745e+02,3.643474e+03
8.967387e+02,3.638104e+03
8.977029e+02,3.626714e+03
8.986672e+02,3.617251e+03
8.996314e+02,3.613573e+03
9.005956e+02,3.612622e+03
9.015599e+02,3.613536e+03
9.025241e+02,3.615033e+03
9.034883e+02,3.615476e+03
9.044526e+02,3.614762e+03
9.054168e+02,3.610551e+03
9.063810e+02,3.602465e+03
9.073453e+02,3.593752e+03
9.083095e+02,3.586437e+03
9.092737e+02,3.579305e+03
9.102380e+02,3.574105e+03
9.112022e+02,3.575753e+03
9.121664e+02,3.581043e+03
9.131307e+02,3.582821e+03
9.140949e+02,3.580209e+03
9.150591e+02,3.576211e+03
9.160234e+02,3.570997e+03
9.169876e+02,3.563138e+03
9.179518e+02,3.556950e+03
9.189161e+02,3.553452e+03
9.198803e+02,3.550342e+03
9.208445e+02,3.546400e+03
9.218088e+02,3.542747e+03
9.227730e+02,3.538801e+03
9.237372e+02,3.532927e+03
9.247015e+02,3.527702e+03
9.256657e+02,3.524942e+03
9.266299e+02,3.524446e+03
9.275942e+02,3.525149e+03
9.285584e+02,3.529235e+03
9.295226e+02,3.530302e+03
9.304869e+02,3.523683e+03
9.314511e+02,3.512915e+03
9.324153e+02,3.507727e+03
9.333796e+02,3.515274e+03
9.343438e+02,3.520846e+03
9.353080e+02,3.517322e+03
9.362723e+02,3.508661e+03
9.372365e+02,3.502255e+03
9.382007e+02,3.503754e+03
9.391650e+02,3.506492e+03
9.401292e+02,3.508111e+03
9.410934e+02,3.508416e+03
9.420577e+02,3.505994e+03
9.430219e+02,3.500043e+03
9.439861e+02,3.493051e+03
9.449504e+02,3.488627e+03
9.459146e+02,3.486417e+03
9.468788e+02,3.482946e+03
9.478431e+02,3.476146e+03
9.488073e+02,3.468026e+03
9.497715e+02,3.461856e+03
9.507358e+02,3.457893e+03
9.517000e+02,3.456362e+03
9.526642e+02,3.458075e+03
9.536285e+02,3.460831e+03
9.545927e+02,3.463220e+03
9.555569e+02,3.464429e+03
9.565212e+02,3.461540e+03
9.574854e+02,3.455637e+03
9.584496e+02,3.450137e+03
9.594139e+02,3.444585e+03
9.603781e+02,3.438701e+03
9.613423e+02,3.434297e+03
9.623066e+02,3.431538e+03
9.632708e+02,3.430775e+03
9.642350e+02,3.434013e+03
9.651993e+02,3.438561e+03
9.661635e+02,3.439167e+03
9.671277e+02,3.432292e+03
9.680920e+02,3.427279e+03
9.690562e+02,3.426769e+03
9.700204e+02,3.424852e+03
9.709847e+02,3.417341e+03
9.719489e+02,3.403503e+03
9.729131e+02,3.393539e+03
9.738774e+02,3.388750e+03
9.748416e+02,3.388066e+03
9.758058e+02,3.390891e+03
9.767701e+02,3.395734e+03
9.777343e+02,3.400221e+03
9.786985e+02,3.406123e+03
9.796628e+02,3.408444e+03
9.806270e+02,3.404165e+03
9.815912e+02,3.395951e+03
9.825555e+02,3.388571e+03
9.835197e+02,3.386989e+03
9.844839e+02,3.384210e+03
9.854482e+02,3.375251e+03
9.864124e+02,3.365196e+03
9.873766e+02,3.358927e+03
9.883409e+02,3.358142e+03
9.893051e+02,3.359616e+03
9.902693e+02,3.361261e+03
9.912336e+02,3.364493e+03
9.921978e+02,3.371677e+03
9.931620e+02,3.381101e+03
9.941263e+02,3.386011e+03
9.950905e+02,3.378825e+03
9.960547e+02,3.367069e+03
9.970190e+02,3.360163e+03
9.979832e+02,3.356923e+03
9.989474e+02,3.352681e+03
9.999117e+02,3.345520e+03
1.000876e+03,3.337667e+03
1.001840e+03,3.331526e+03
1.002804e+03,3.327764e+03
1.003769e+03,3.326254e+03
1.004733e+03,3.326236e+03
1.005697e+03,3.326250e+03
1.006661e+03,3.324367e+03
1.007626e+03,3.321359e+03
1.008590e+03,3.320006e+03
1.009554e+03,3.320160e+03
1.010518e+03,3.319076e+03
1.011482e+03,3.312868e+03
1.012447e+03,3.302645e+03
1.013411e+03,3.300187e+03
1.014375e+03,3.308286e+03
1.015339e+03,3.314176e+03
1.016304e+03,3.306304e+03
1.017268e+03,3.287549e+03
1.018232e+03,3.276967e+03
1.019196e+03,3.274934e+03
1.020161e+03,3.275068e+03
1.021125e+03,3.276366e+03
1.022089e+03,3.278380e+03
1.023053e+03,3.276765e+03
1.024018e+03,3.269191e+03
1.024982e+03,3.263503e+03
1.025946e+03,3.261084e+03
1.026910e+03,3.258910e+03
1.027875e+03,3.254653e+03
1.028839e+03,3.248812e+03
1.029803e+03,3.246005e+03
1.030767e+03,3.247575e+03
1.031731e+03,3.250181e+03
1.032696e+03,3.250511e+03
1.033660e+03,3.248042e+03
1.034624e+03,3.248334e+03
1.035588e+03,3.254934e+03
1.036552e+03,3.260493e+03
1.037517e+03,3.261778e+03
1.038481e+03,3.258241e+03
1.039445e+03,3.250725e+03
1.040409e+03,3.232236e+03
1.041374e+03,3.222062e+03
1.042338e+03,3.230697e+03
1.043302e+03,3.246131e+03
1.044266e+03,3.251678e+03
1.045231e+03,3.240251e+03
1.046195e+03,3.230866e+03
1.047159e+03,3.225259e+03
1.048123e+03,3.221491e+03
1.049088e+03,3.218257e+03
1.050052e+03,3.216477e+03
1.051016e+03,3.216314e+03
1.051980e+03,3.220518e+03
1.052945e+03,3.222718e+03
1.053909e+03,3.217433e+03
1.054873e+03,3.205516e+03
1.055837e+03,3.195876e+03
1.056802e+03,3.190386e+03
1.057766e+03,3.187742e+03
1.058730e+03,3.190440e+03
1.059694e+03,3.195383e+03
1.060658e+03,3.198326e+03
1.061623e+03,3.199956e+03
1.062587e+03,3.199269e+03
1.063551e+03,3.194133e+03
1.064515e+03,3.188558e+03
1.065479e+03,3.184356e+03
1.066444e+03,3.182300e+03
1.067408e+03,3.182238e+03
1.068372e+03,3.183895e+03
1.069336e+03,3.187715e+03
1.070301e+03,3.194990e+03
1.071265e+03,3.202877e+03
1.072229e+03,3.205449e+03
1.073193e+03,3.195743e+03
1.074158e+03,3.187641e+03
1.075122e+03,3.186584e+03
1.076086e+03,3.188406e+03
1.077050e+03,3.188491e+03
1.078015e+03,3.186544e+03
1.078979e+03,3.187154e+03
1.079943e+03,3.192814e+03
1.080907e+03,3.199084e+03
1.081872e+03,3.202312e+03
1.082836e+03,3.201298e+03
1.083800e+03,3.197586e+03
1.084764e+03,3.189359e+03
1.085729e+03,3.182379e+03
1.086693e+03,3.179855e+03
1.087657e+03,3.179872e+03
1.088621e+03,3.178147e+03
1.089585e+03,3.172425e+03
1.090550e+03,3.165072e+03
1.091514e+03,3.158606e+03
1.092478e+03,3.152349e+03
1.093442e+03,3.144445e+03
1.094406e+03,3.133564e+03
1.095371e+03,3.125310e+03
1.096335e+03,3.120092e+03
1.097299e+03,3.117163e+03
1.098263e+03,3.117254e+03
1.099228e+03,3.119714e+03
1.100192e+03,3.120087e+03
1.101156e+03,3.115261e+03
1.102120e+03,3.110136e+03
1.103085e+03,3.108603e+03
1.104049e+03,3.108102e+03
1.105013e+03,3.103375e+03
1.105977e+03,3.086534e+03
1.106942e+03,3.075271e+03
1.107906e+03,3.075739e+03
1.108870e+03,3.081108e+03
1.109834e+03,3.085967e+03
1.110799e+03,3.090813e+03
1.111763e+03,3.091669e+03
1.112727e+03,3.083758e+03
1.113691e+03,3.076832e+03
1.114656e+03,3.075433e+03
1.115620e+03,3.079056e+03
1.116584e+03,3.083398e+03
1.117548e+03,3.091615e+03
1.118512e+03,3.093836e+03
1.119477e+03,3.083583e+03
1.120441e+03,3.067813e+03
1.121405e+03,3.057503e+03
1.122369e+03,3.058205e+03
1.123334e+03,3.056360e+03
1.124298e+03,3.050835e+03
1.125262e+03,3.044817e+03
1.126226e+03,3.041297e+03
1.127191e+03,3.041202e+03
1.128155e+03,3.036963e+03
1.129119e+03,3.020289e+03
1.130083e+03,3.009574e+03
1.131047e+03,3.015037e+03
1.132012e+03,3.030250e+03
1.132976e+03,3.035998e+03
1.133940e+03,3.026569e+03
1.134904e+03,3.018816e+03
1.135869e+03,3.016677e+03
1.136833e+03,3.017278e+03
1.137797e+03,3.017746e+03
1.138761e+03,3.020086e+03
1.139726e+03,3.017938e+03
1.140690e+03,3.008539e+03
1.141654e+03,2.999036e+03
1.142618e+03,2.993210e+03
1.143583e+03,2.990952e+03
1.144547e+03,2.990015e+03
1.145511e+03,2.990629e+03
1.146475e+03,2.991565e+03
1.147439e+03,2.992966e+03
1.148404e+03,2.993748e+03
1.149368e+03,2.989843e+03
1.150332e+03,2.980059e+03
1.151296e+03,2.974493e+03
1.152261e+03,2.973333e+03
1.153225e+03,2.971999e+03
1.154189e+03,2.969056e+03
1.155153e+03,2.965622e+03
1.156118e+03,2.960742e+03
1.157082e+03,2.955358e+03
1.158046e+03,2.949609e+03
1.159010e+03,2.941607e+03
1.159974e+03,2.934097e+03
1.160939e+03,2.934746e+03
1.161903e+03,2.941494e+03
1.162867e+03,2.943882e+03
1.163831e+03,2.939390e+03
1.164796e+03,2.934268e+03
1.165760e+03,2.939289e+03
1.166724e+03,2.949433e+03
1.167688e+03,2.948406e+03
1.168653e+03,2.937083e+03
1.169617e+03,2.925812e+03
1.170581e+03,2.922098e+03
1.171545e+03,2.921465e+03
1.172510e+03,2.916859e+03
1.173474e+03,2.910220e+03
1.174438e+03,2.904995e+03
1.175402e+03,2.901772e+03
1.176366e+03,2.900281e+03
1.177331e+03,2.902942e+03
1.178295e+03,2.906350e+03
1.179259e+03,2.904165e+03
1.180223e+03,2.896524e+03
1.181188e+03,2.890831e+03
1.182152e+03,2.895845e+03
1.183116e+03,2.900240e+03
1.184080e+03,2.895523e+03
1.185045e+03,2.885819e+03
1.186009e+03,2.877431e+03
1.186973e+03,2.872429e+03
1.187937e+03,2.870781e+03
1.188901e+03,2.875524e+03
1.189866e+03,2.880623e+03
1.190830e+03,2.878980e+03
1.191794e+03,2.869207e+03
1.192758e+03,2.863622e+03
1.193723e+03,2.871338e+03
1.194687e+03,2.878840e+03
1.195651e+03,2.879392e+03
1.196615e+03,2.875245e+03
1.197580e+03,2.872510e+03
1.198544e+03,2.871503e+03
1.199508e+03,2.867473e+03
1.200472e+03,2.860488e+03
1.201437e+03,2.852957e+03
1.202401e+03,2.847614e+03
1.203365e+03,2.845809e+03
1.204329e+03,2.840789e+03
1.205293e+03,2.829997e+03
1.206258e+03,2.821191e+03
1.207222e+03,2.817254e+03
1.208186e+03,2.817200e+03
1.209150e+03,2.819879e+03
1.210115e+03,2.824974e+03
1.211079e+03,2.827228e+03
1.212043e+03,2.825827e+03
1.213007e+03,2.822147e+03
1.213972e+03,2.818599e+03
1.214936e+03,2.815681e+03
1.215900e+03,2.810596e+03
1.216864e+03,2.803711e+03
1.217828e+03,2.799936e+03
1.218793e+03,2.803008e+03
1.219757e+03,2.809644e+03
1.220721e+03,2.815449e+03
1.221685e+03,2.820319e+03
1.222650e+03,2.822527e+03
1.223614e+03,2.820655e+03
1.224578e+03,2.816682e+03
1.225542e+03,2.811439e+03
1.226507e+03,2.807515e+03
1.227471e+03,2.810402e+03
1.228435e+03,2.816926e+03
1.229399e+03,2.816240e+03
1.230364e+03,2.797421e+03
1.231328e+03,2.777734e+03
1.232292e+03,2.766532e+03
1.233256e+03,2.761930e+03
1.234220e+03,2.760686e+03
1.235185e+03,2.764754e+03
1.236149e+03,2.765964e+03
1.237113e+03,2.757565e+03
1.238077e+03,2.751149e+03
1.239042e+03,2.753626e+03
1.240006e+03,2.762473e+03
1.240970e+03,2.765944e+03
1.241934e+03,2.760374e+03
1.242899e+03,2.755915e+03
1.243863e+03,2.756795e+03
1.244827e+03,2.758615e+03
1.245791e+03,2.753911e+03
1.246755e+03,2.740499e+03
1.247720e+03,2.734623e+03
1.248684e+03,2.738597e+03
1.249648e+03,2.741740e+03
1.250612e+03,2.735627e+03
1.251577e+03,2.723873e+03
1.252541e+03,2.721102e+03
1.253505e+03,2.725714e+03
1.254469e+03,2.727126e+03
1.255434e+03,2.722535e+03
1.256398e+03,2.716854e+03
1.257362e+03,2.714656e+03
1.258326e+03,2.714290e+03
1.259291e+03,2.714872e+03
1.260255e+03,2.715302e+03
1.261219e+03,2.712602e+03
1.262183e+03,2.704499e+03
1.263147e+03,2.696187e+03
1.264112e+03,2.691017e+03
1.265076e+03,2.687819e+03
1.266040e+03,2.683915e+03
1.267004e+03,2.677616e+03
1.267969e+03,2.675188e+03
1.268933e+03,2.684823e+03
1.269897e+03,2.695645e+03
1.270861e+03,2.697458e+03
1.271826e+03,2.689403e+03
1.272790e+03,2.685560e+03
1.273754e+03,2.692399e+03
1.274718e+03,2.693913e+03
1.275682e+03,2.685940e+03
1.276647e+03,2.675435e+03
1.277611e+03,2.670752e+03
1.278575e+03,2.672569e+03
1.279539e+03,2.671870e+03
1.280504e+03,2.669789e+03
1.281468e+03,2.667117e+03
1.282432e+03,2.662849e+03
1.283396e+03,2.658473e+03
1.284361e+03,2.659369e+03
1.285325e+03,2.663153e+03
1.286289e+03,2.661104e+03
1.287253e+03,2.650594e+03
1.288218e+03,2.640202e+03
1.289182e+03,2.640454e+03
1.290146e+03,2.644685e+03
1.291110e+03,2.645588e+03
1.292074e+03,2.643375e+03
1.293039e+03,2.639841e+03
1.294003e+03,2.633877e+03
1.294967e+03,2.628024e+03
1.295931e+03,2.624071e+03
1.296896e+03,2.621877e+03
1.297860e+03,2.621032e+03
1.298824e+03,2.621548e+03
1.299788e+03,2.620746e+03
1.300753e+03,2.614795e+03
1.301717e+03,2.612363e+03
1.302681e+03,2.619183e+03
1.303645e+03,2.630892e+03
1.304609e+03,2.634257e+03
1.305574e+03,2.626748e+03
1.306538e+03,2.621168e+03
1.307502e+03,2.620851e+03
1.308466e+03,2.622036e+03
1.309431e+03,2.619556e+03
1.310395e+03,2.614989e+03
1.311359e+03,2.614155e+03
1.312323e+03,2.615126e+03
1.313288e+03,2.613367e+03
1.314252e+03,2.607194e+03
1.315216e+03,2.602002e+03
1.316180e+03,2.603212e+03
1.317145e+03,2.607153e+03
1.318109e+03,2.608505e+03
1.319073e+03,2.605712e+03
1.320037e+03,2.602416e+03
1.321001e+03,2.599939e+03
1.321966e+03,2.597633e+03
1.322930e+03,2.596743e+03
1.323894e+03,2.597006e+03
1.324858e+03,2.596540e+03
1.325823e+03,2.595514e+03
1.326787e+03,2.592540e+03
1.327751e+03,2.585228e+03
1.328715e+03,2.579410e+03
1.329680e+03,2.580190e+03
1.330644e+03,2.585696e+03
1.331608e+03,2.586325e+03
1.332572e+03,2.582341e+03
1.333536e+03,2.580862e+03
1.334501e+03,2.583863e+03
1.335465e+03,2.585559e+03
1.336429e+03,2.579312e+03
1.337393e+03,2.569711e+03
1.338358e+03,2.562262e+03
1.339322e+03,2.557313e+03
1.340286e+03,2.554015e+03
1.341250e+03,2.555679e+03
1.342215e+03,2.554319e+03
1.343179e+03,2.543578e+03
1.344143e+03,2.532222e+03
1.345107e+03,2.528625e+03
1.346072e+03,2.534539e+03
1.347036e+03,2.539416e+03
1.348000e+03,2.543411e+03
1.348964e+03,2.544353e+03
1.349928e+03,2.541579e+03
1.350893e+03,2.537058e+03
1.351857e+03,2.532843e+03
1.352821e+03,2.528472e+03
1.353785e+03,2.527336e+03
1.354750e+03,2.529563e+03
1.355714e+03,2.530789e+03
1.356678e+03,2.528334e+03
1.357642e+03,2.524284e+03
1.358607e+03,2.518640e+03
1.359571e+03,2.512535e+03
1.360535e+03,2.509368e+03
1.361499e+03,2.511556e+03
1.362464e+03,2.514524e+03
1.363428e+03,2.518431e+03
1.364392e+03,2.521333e+03
1.365356e+03,2.519768e+03
1.366320e+03,2.513054e+03
1.367285e+03,2.506823e+03
1.368249e+03,2.501450e+03
1.369213e+03,2.498783e+03
1.370177e+03,2.500099e+03
1.371142e+03,2.502231e+03
1.372106e+03,2.502103e+03
1.373070e+03,2.499669e+03
1.374034e+03,2.493156e+03
1.374999e+03,2.483836e+03
1.375963e+03,2.477576e+03
1.376927e+03,2.478109e+03
1.377891e+03,2.480472e+03
1.378855e+03,2.480046e+03
1.379820e+03,2.477303e+03
1.380784e+03,2.471907e+03
1.381748e+03,2.464652e+03
1.382712e+03,2.460960e+03
1.383677e+03,2.464451e+03
1.384641e+03,2.466828e+03
1.385605e+03,2.464566e+03
1.386569e+03,2.459721e+03
1.387534e+03,2.455854e+03
1.388498e+03,2.453505e+03
1.389462e+03,2.450275e+03
1.390426e+03,2.445156e+03
1.391391e+03,2.441076e+03
1.392355e+03,2.441013e+03
1.393319e+03,2.443557e+03
1.394283e+03,2.445454e+03
1.395247e+03,2.446445e+03
1.396212e+03,2.446759e+03
1.397176e+03,2.446513e+03
1.398140e+03,2.445141e+03
1.399104e+03,2.440356e+03
1.400069e+03,2.435178e+03
1.401033e+03,2.430894e+03
1.401997e+03,2.428011e+03
1.402961e+03,2.428069e+03
1.403926e+03,2.435722e+03
1.404890e+03,2.433833e+03
1.405854e+03,2.417754e+03
1.406818e+03,2.403644e+03
1.407782e+03,2.405051e+03
1.408747e+03,2.417609e+03
1.409711e+03,2.423209e+03
1.410675e+03,2.421940e+03
1.411639e+03,2.420742e+03
1.412604e+03,2.422303e+03
1.413568e+03,2.421921e+03
1.414532e+03,2.414039e+03
1.415496e+03,2.405396e+03
1.416461e+03,2.400849e+03
1.417425e+03,2.399250e+03
1.418389e+03,2.397583e+03
1.419353e+03,2.394626e+03
1.420318e+03,2.393337e+03
1.421282e+03,2.396675e+03
1.422246e+03,2.399270e+03
1.423210e+03,2.395298e+03
1.424174e+03,2.386549e+03
1.425139e+03,2.384363e+03
1.426103e+03,2.387060e+03
1.427067e+03,2.385028e+03
1.428031e+03,2.374170e+03
1.428996e+03,2.364626e+03
1.429960e+03,2.369025e+03
1.430924e+03,2.376755e+03
1.431888e+03,2.376189e+03
1.432853e+03,2.368522e+03
1.433817e+03,2.363148e+03
1.434781e+03,2.364803e+03
1.435745e+03,2.366449e+03
1.436709e+03,2.366309e+03
1.437674e+03,2.365045e+03
1.438638e+03,2.364211e+03
1.439602e+03,2.364366e+03
1.440566e+03,2.364010e+03
1.441531e+03,2.362953e+03
1.442495e+03,2.361761e+03
1.443459e+03,2.360019e+03
1.444423e+03,2.359201e+03
1.445388e+03,2.361579e+03
1.446352e+03,2.364238e+03
1.447316e+03,2.365046e+03
1.448280e+03,2.364837e+03
1.449245e+03,2.364399e+03
1.450209e+03,2.362417e+03
1.451173e+03,2.362512e+03
1.452137e+03,2.365141e+03
1.453101e+03,2.366823e+03
1.454066e+03,2.364347e+03
1.455030e+03,2.358687e+03
1.455994e+03,2.357571e+03
1.456958e+03,2.360173e+03
1.457923e+03,2.361322e+03
1.458887e+03,2.358448e+03
1.459851e+03,2.353144e+03
1.460815e+03,2.344094e+03
1.461780e+03,2.334764e+03
1.462744e+03,2.330604e+03
1.463708e+03,2.331379e+03
1.464672e+03,2.329970e+03
1.465636e+03,2.325048e+03
1.466601e+03,2.322039e+03
1.467565e+03,2.322524e+03
1.468529e+03,2.322573e+03
1.469493e+03,2.315811e+03
1.470458e+03,2.304719e+03
1.471422e+03,2.302828e+03
1.472386e+03,2.308480e+03
1.473350e+03,2.314091e+03
1.474315e+03,2.316451e+03
1.475279e+03,2.317956e+03
1.476243e+03,2.320627e+03
1.477207e+03,2.321816e+03
1.478172e+03,2.320635e+03
1.479136e+03,2.317286e+03
1.480100e+03,2.311736e+03
1.481064e+03,2.303599e+03
1.482028e+03,2.295228e+03
1.482993e+03,2.286738e+03
1.483957e+03,2.281217e+03
1.484921e+03,2.282452e+03
1.485885e+03,2.287160e+03
1.486850e+03,2.289822e+03
1.487814e+03,2.290036e+03
1.488778e+03,2.288074e+03
1.489742e+03,2.283664e+03
1.490707e+03,2.279604e+03
1.491671e+03,2.278168e+03
1.492635e+03,2.278442e+03
1.493599e+03,2.279536e+03
1.494563e+03,2.280417e+03
1.495528e+03,2.280115e+03
1.496492e+03,2.278231e+03
1.497456e+03,2.273124e+03
1.498420e+03,2.265489e+03
1.499385e+03,2.259673e+03
1.500349e+03,2.260413e+03
1.501313e+03,2.263094e+03
1.502277e+03,2.263032e+03
1.503242e+03,2.261770e+03
1.504206e+03,2.261807e+03
1.505170e+03,2.263642e+03
1.506134e+03,2.264726e+03
1.507099e+03,2.265214e+03
1.508063e+03,2.265345e+03
1.509027e+03,2.265524e+03
1.509991e+03,2.264570e+03
1.510955e+03,2.259355e+03
1.511920e+03,2.251851e+03
1.512884e+03,2.247379e+03
1.513848e+03,2.246828e+03
1.514812e+03,2.247037e+03
1.515777e+03,2.245923e+03
1.516741e+03,2.242674e+03
1.517705e+03,2.233987e+03
1.518669e+03,2.225216e+03
1.519634e+03,2.221496e+03
1.520598e+03,2.222209e+03
1.521562e+03,2.222005e+03
1.522526e+03,2.220479e+03
1.523490e+03,2.222020e+03
1.524455e+03,2.229294e+03
1.525419e+03,2.234210e+03
1.526383e+03,2.227865e+03
1.527347e+03,2.217255e+03
1.528312e+03,2.207457e+03
1.529276e+03,2.200355e+03
1.530240e+03,2.197953e+03
1.531204e+03,2.200135e+03
1.532169e+03,2.205968e+03
1.533133e+03,2.217297e+03
1.534097e+03,2.223373e+03
1.535061e+03,2.212146e+03
1.536026e+03,2.193427e+03
1.536990e+03,2.184339e+03
1.537954e+03,2.183253e+03
1.538918e+03,2.189232e+03
1.539882e+03,2.203657e+03
1.540847e+03,2.210249e+03
1.541811e+03,2.196124e+03
1.542775e+03,2.182990e+03
1.543739e+03,2.176967e+03
1.544704e+03,2.176928e+03
1.545668e+03,2.183295e+03
1.546632e+03,2.194019e+03
1.547596e+03,2.198191e+03
1.548561e+03,2.195773e+03
1.549525e+03,2.191258e+03
1.550489e+03,2.184164e+03
1.551453e+03,2.178098e+03
1.552417e+03,2.175214e+03
1.553382e+03,2.173605e+03
1.554346e+03,2.172047e+03
1.555310e+03,2.171100e+03
1.556274e+03,2.171666e+03
1.557239e+03,2.173600e+03
1.558203e+03,2.180424e+03
1.559167e+03,2.193495e+03
1.560131e+03,2.203882e+03
1.561096e+03,2.199077e+03
1.562060e+03,2.193111e+03
1.563024e+03,2.196924e+03
1.563988e+03,2.208496e+03
1.564953e+03,2.221694e+03
1.565917e+03,2.235903e+03
1.566881e+03,2.253563e+03
1.567845e+03,2.275310e+03
1.568809e+03,2.291469e+03
1.569774e+03,2.296752e+03
1.570738e+03,2.294779e+03
1.571702e+03,2.289335e+03
1.572666e+03,2.280073e+03
1.573631e+03,2.264497e+03
1.574595e+03,2.243435e+03
1.575559e+03,2.229086e+03
1.576523e+03,2.224461e+03
1.577488e+03,2.221993e+03
1.578452e+03,2.219653e+03
1.579416e+03,2.216589e+03
1.580380e+03,2.213278e+03
1.581344e+03,2.208900e+03
1.582309e+03,2.199734e+03
1.583273e+03,2.188898e+03
1.584237e+03,2.183595e+03
1.585201e+03,2.189992e+03
1.586166e+03,2.191131e+03
1.587130e+03,2.183298e+03
1.588094e+03,2.171999e+03
1.589058e+03,2.158984e+03
1.590023e+03,2.146605e+03
1.590987e+03,2.138927e+03
1.591951e+03,2.135587e+03
1.592915e+03,2.135644e+03
1.593880e+03,2.137068e+03
1.594844e+03,2.134146e+03
1.595808e+03,2.118235e+03
1.596772e+03,2.107436e+03
1.597736e+03,2.106975e+03
1.598701e+03,2.111219e+03
1.599665e+03,2.116141e+03
1.600629e+03,2.120929e+03
1.601593e+03,2.121849e+03
1.602558e+03,2.119726e+03
1.603522e+03,2.117143e+03
1.604486e+03,2.114797e+03
1.605450e+03,2.111336e+03
1.606415e+03,2.104575e+03
1.607379e+03,2.100388e+03
1.608343e+03,2.100989e+03
1.609307e+03,2.104293e+03
1.610271e+03,2.108788e+03
1.611236e+03,2.112851e+03
1.612200e+03,2.107285e+03
1.613164e+03,2.094632e+03
1.614128e+03,2.088202e+03
1.615093e+03,2.101260e+03
1.616057e+03,2.111675e+03
1.617021e+03,2.109564e+03
1.617985e+03,2.103738e+03
1.618950e+03,2.099048e+03
1.619914e+03,2.095881e+03
1.620878e+03,2.096715e+03
1.621842e+03,2.100383e+03
1.622807e+03,2.100699e+03
1.623771e+03,2.096772e+03
1.624735e+03,2.093967e+03
1.625699e+03,2.094589e+03
1.626663e+03,2.095959e+03
1.627628e+03,2.098704e+03
1.628592e+03,2.098248e+03
1.629556e+03,2.087083e+03
1.630520e+03,2.069406e+03
1.631485e+03,2.067159e+03
1.632449e+03,2.076656e+03
1.633413e+03,2.082220e+03
1.634377e+03,2.076978e+03
1.635342e+03,2.069718e+03
1.636306e+03,2.061222e+03
1.637270e+03,2.054923e+03
1.638234e+03,2.052568e+03
1.639198e+03,2.053172e+03
1.640163e+03,2.054907e+03
1.641127e+03,2.056983e+03
1.642091e+03,2.053854e+03
1.643055e+03,2.045023e+03
1.644020e+03,2.037572e+03
1.644984e+03,2.031884e+03
1.645948e+03,2.031695e+03
1.646912e+03,2.041468e+03
1.647877e+03,2.051056e+03
1.648841e+03,2.051654e+03
1.649805e+03,2.045960e+03
1.650769e+03,2.041734e+03
1.651734e+03,2.037742e+03
1.652698e+03,2.030574e+03
1.653662e+03,2.017705e+03
1.654626e+03,2.009146e+03
1.655590e+03,2.008840e+03
1.656555e+03,2.011498e+03
1.657519e+03,2.017838e+03
1.658483e+03,2.024613e+03
1.659447e+03,2.026362e+03
1.660412e+03,2.023155e+03
1.661376e+03,2.013507e+03
1.662340e+03,2.001283e+03
1.663304e+03,1.996237e+03
1.664269e+03,2.006036e+03
1.665233e+03,2.013011e+03
1.666197e+03,2.016054e+03
1.667161e+03,2.017226e+03
1.668125e+03,2.018568e+03
1.669090e+03,2.018197e+03
1.670054e+03,2.010676e+03
1.671018e+03,2.001332e+03
1.671982e+03,1.998538e+03
1.672947e+03,2.002796e+03
1.673911e+03,2.004414e+03
1.674875e+03,2.000591e+03
1.675839e+03,1.999954e+03
1.676804e+03,2.005029e+03
1.677768e+03,2.011073e+03
1.678732e+03,2.013711e+03
1.679696e+03,2.013766e+03
1.680661e+03,2.011073e+03
1.681625e+03,2.005833e+03
1.682589e+03,1.999002e+03
1.683553e+03,1.991194e+03
1.684517e+03,1.991425e+03
1.685482e+03,1.999004e+03
1.686446e+03,2.000976e+03
1.687410e+03,1.992438e+03
1.688374e+03,1.983361e+03
1.689339e+03,1.982316e+03
1.690303e+03,1.981642e+03
1.691267e+03,1.975626e+03
1.692231e+03,1.968098e+03
1.693196e+03,1.964378e+03
1.694160e+03,1.963768e+03
1.695124e+03,1.966979e+03
1.696088e+03,1.973334e+03
1.697052e+03,1.977763e+03
1.698017e+03,1.974358e+03
1.698981e+03,1.972243e+03
1.699945e+03,1.975083e+03
1.700909e+03,1.975710e+03
1.701874e+03,1.971820e+03
1.702838e+03,1.965632e+03
1.703802e+03,1.956890e+03
1.704766e+03,1.947639e+03
1.705731e+03,1.946260e+03
1.706695e+03,1.953104e+03
1.707659e+03,1.952394e+03
1.708623e+03,1.936449e+03
1.709588e+03,1.929971e+03
1.710552e+03,1.936501e+03
1.711516e+03,1.943713e+03
1.712480e+03,1.940719e+03
1.713444e+03,1.933729e+03
1.714409e+03,1.929749e+03
1.715373e+03,1.927551e+03
1.716337e+03,1.923756e+03
1.717301e+03,1.918682e+03
1.718266e+03,1.921008e+03
1.719230e+03,1.929984e+03
1.720194e+03,1.932944e+03
1.721158e+03,1.925345e+03
1.722123e+03,1.918518e+03
1.723087e+03,1.923550e+03
1.724051e+03,1.928234e+03
1.725015e+03,1.926586e+03
1.725979e+03,1.921865e+03
1.726944e+03,1.916290e+03
1.727908e+03,1.910926e+03
1.728872e+03,1.912202e+03
1.729836e+03,1.917354e+03
1.730801e+03,1.918094e+03
1.731765e+03,1.906717e+03
1.732729e+03,1.903791e+03
1.733693e+03,1.915188e+03
1.734658e+03,1.923488e+03
1.735622e+03,1.920079e+03
1.736586e+03,1.911120e+03
1.737550e+03,1.901574e+03
1.738515e+03,1.894810e+03
1.739479e+03,1.898754e+03
1.740443e+03,1.910231e+03
1.741407e+03,1.909423e+03
1.742371e+03,1.894324e+03
1.743336e+03,1.885965e+03
1.744300e+03,1.885888e+03
1.745264e+03,1.888217e+03
1.746228e+03,1.894008e+03
1.747193e+03,1.897075e+03
1.748157e+03,1.890751e+03
1.749121e+03,1.886090e+03
1.750085e+03,1.890167e+03
1.751050e+03,1.897510e+03
1.752014e+03,1.893553e+03
1.752978e+03,1.883573e+03
1.753942e+03,1.879940e+03
1.754906e+03,1.884514e+03
1.755871e+03,1.887456e+03
1.756835e+03,1.886293e+03
1.757799e+03,1.881572e+03
1.758763e+03,1.874885e+03
1.759728e+03,1.868376e+03
1.760692e+03,1.862534e+03
1.761656e+03,1.858478e+03
1.762620e+03,1.856038e+03
1.763585e+03,1.855801e+03
1.764549e+03,1.859326e+03
1.765513e+03,1.865648e+03
1.766477e+03,1.867183e+03
1.767442e+03,1.864885e+03
1.768406e+03,1.860754e+03
1.769370e+03,1.854708e+03
1.770334e+03,1.852322e+03
1.771298e+03,1.861555e+03
1.772263e+03,1.864423e+03
1.773227e+03,1.854507e+03
1.774191e+03,1.841701e+03
1.775155e+03,1.839828e+03
1.776120e+03,1.842624e+03
1.777084e+03,1.840837e+03
1.778048e+03,1.836240e+03
1.779012e+03,1.834396e+03
1.779977e+03,1.836374e+03
1.780941e+03,1.840550e+03
1.781905e+03,1.846018e+03
1.782869e+03,1.848956e+03
1.783833e+03,1.847441e+03
1.784798e+03,1.844705e+03
1.785762e+03,1.844080e+03
1.786726e+03,1.839995e+03
1.787690e+03,1.828244e+03
1.788655e+03,1.815015e+03
1.789619e+03,1.812798e+03
1.790583e+03,1.816820e+03
1.791547e+03,1.817166e+03
1.792512e+03,1.814011e+03
1.793476e+03,1.811400e+03
1.794440e+03,1.807501e+03
1.795404e+03,1.811490e+03
1.796369e+03,1.823689e+03
1.797333e+03,1.829397e+03
1.798297e+03,1.815779e+03
1.799261e+03,1.801584e+03
1.800225e+03,1.799366e+03
1.801190e+03,1.800777e+03
1.802154e+03,1.800970e+03
1.803118e+03,1.800762e+03
1.804082e+03,1.804754e+03
1.805047e+03,1.810840e+03
1.806011e+03,1.812584e+03
1.806975e+03,1.809459e+03
1.807939e+03,1.805663e+03
1.808904e+03,1.800644e+03
1.809868e+03,1.797402e+03
1.810832e+03,1.796909e+03
1.811796e+03,1.796280e+03
1.812760e+03,1.792077e+03
1.813725e+03,1.787864e+03
1.814689e+03,1.785277e+03
1.815653e+03,1.784805e+03
1.816617e+03,1.787444e+03
1.817582e+03,1.792008e+03
1.818546e+03,1.796683e+03
1.819510e+03,1.799012e+03
1.820474e+03,1.791457e+03
1.821439e+03,1.773393e+03
1.822403e+03,1.764474e+03
1.823367e+03,1.767880e+03
1.824331e+03,1.770868e+03
1.825296e+03,1.770897e+03
1.826260e+03,1.771660e+03
1.827224e+03,1.784409e+03
1.828188e+03,1.791450e+03
1.829152e+03,1.772584e+03
1.830117e+03,1.752957e+03
1.831081e+03,1.755781e+03
1.832045e+03,1.771304e+03
1.833009e+03,1.773764e+03
1.833974e+03,1.769333e+03
1.834938e+03,1.767284e+03
1.835902e+03,1.768910e+03
1.836866e+03,1.763602e+03
1.837831e+03,1.750460e+03
1.838795e+03,1.741844e+03
1.839759e+03,1.741253e+03
1.840723e+03,1.742313e+03
1.841688e+03,1.739011e+03
1.842652e+03,1.736894e+03
1.843616e+03,1.735813e+03
1.844580e+03,1.737801e+03
1.845544e+03,1.751644e+03
1.846509e+03,1.767116e+03
1.847473e+03,1.760394e+03
1.848437e+03,1.743132e+03
1.849401e+03,1.739124e+03
1.850366e+03,1.749472e+03
1.851330e+03,1.745113e+03
1.852294e+03,1.728957e+03
1.853258e+03,1.723398e+03
1.854223e+03,1.735230e+03
1.855187e+03,1.744008e+03
1.856151e+03,1.734250e+03
1.857115e+03,1.730399e+03
1.858079e+03,1.739071e+03
1.859044e+03,1.746866e+03
1.860008e+03,1.738079e+03
1.860972e+03,1.724360e+03
1.861936e+03,1.713360e+03
1.862901e+03,1.707655e+03
1.863865e+03,1.710479e+03
1.864829e+03,1.719124e+03
1.865793e+03,1.719850e+03
1.866758e+03,1.715569e+03
1.867722e+03,1.713759e+03
1.868686e+03,1.716852e+03
1.869650e+03,1.715522e+03
1.870615e+03,1.707462e+03
1.871579e+03,1.702082e+03
1.872543e+03,1.702930e+03
1.873507e+03,1.705202e+03
1.874471e+03,1.701494e+03
1.875436e+03,1.699009e+03
1.876400e+03,1.703437e+03
1.877364e+03,1.708885e+03
1.878328e+03,1.708043e+03
1.879293e+03,1.703561e+03
1.880257e+03,1.698435e+03
1.881221e+03,1.693682e+03
1.882185e+03,1.693401e+03
1.883150e+03,1.698217e+03
1.884114e+03,1.697769e+03
1.885078e+03,1.692153e+03
1.886042e+03,1.684309e+03
1.887006e+03,1.674029e+03
1.887971e+03,1.669408e+03
1.888935e+03,1.676681e+03
1.889899e+03,1.683797e+03
1.890863e+03,1.687586e+03
1.891828e+03,1.687445e+03
1.892792e+03,1.682152e+03
1.893756e+03,1.675054e+03
1.894720e+03,1.668422e+03
1.895685e+03,1.664506e+03
1.896649e+03,1.665187e+03
1.897613e+03,1.668129e+03
1.898577e+03,1.667793e+03
1.899542e+03,1.665527e+03
1.900506e+03,1.663532e+03
1.901470e+03,1.661817e+03
1.902434e+03,1.662073e+03
1.903398e+03,1.664184e+03
1.904363e+03,1.662819e+03
1.905327e+03,1.656372e+03
1.906291e+03,1.652410e+03
1.907255e+03,1.654417e+03
1.908220e+03,1.658957e+03
1.909184e+03,1.666859e+03
1.910148e+03,1.671288e+03
1.911112e+03,1.662547e+03
1.912077e+03,1.652046e+03
1.913041e+03,1.651722e+03
1.914005e+03,1.652617e+03
1.914969e+03,1.643284e+03
1.915933e+03,1.628136e+03
1.916898e+03,1.623782e+03
1.917862e+03,1.625920e+03
1.918826e+03,1.624094e+03
1.919790e+03,1.616955e+03
1.920755e+03,1.617848e+03
1.921719e+03,1.625440e+03
1.922683e+03,1.630816e+03
1.923647e+03,1.632745e+03
1.924612e+03,1.631028e+03
1.925576e+03,1.619662e+03
1.926540e+03,1.615774e+03
1.927504e+03,1.622293e+03
1.928469e+03,1.627623e+03
1.929433e+03,1.617225e+03
1.930397e+03,1.606369e+03
1.931361e+03,1.609208e+03
1.932325e+03,1.614024e+03
1.933290e+03,1.611718e+03
1.934254e+03,1.606821e+03
1.935218e+03,1.607910e+03
1.936182e+03,1.610799e+03
1.937147e+03,1.610445e+03
1.938111e+03,1.607551e+03
1.939075e+03,1.607183e+03
1.940039e+03,1.609398e+03
1.941004e+03,1.608873e+03
1.941968e+03,1.604036e+03
1.942932e+03,1.600810e+03
1.943896e+03,1.603773e+03
1.944860e+03,1.600461e+03
1.945825e+03,1.590016e+03
1.946789e+03,1.581930e+03
1.947753e+03,1.584494e+03
1.948717e+03,1.587177e+03
1.949682e+03,1.585560e+03
1.950646e+03,1.582741e+03
1.951610e+03,1.580183e+03
1.952574e+03,1.578177e+03
1.953539e+03,1.576950e+03
1.954503e+03,1.576534e+03
1.955467e+03,1.577149e+03
1.956431e+03,1.579332e+03
1.957396e+03,1.585539e+03
1.958360e+03,1.592773e+03
1.959324e+03,1.593635e+03
1.960288e+03,1.589371e+03
1.961252e+03,1.588176e+03
1.962217e+03,1.590129e+03
1.963181e+03,1.586598e+03
1.964145e+03,1.577821e+03
1.965109e+03,1.571965e+03
1.966074e+03,1.576686e+03
1.967038e+03,1.578885e+03
1.968002e+03,1.575541e+03
1.968966e+03,1.571489e+03
1.969931e+03,1.569520e+03
1.970895e+03,1.566490e+03
1.971859e+03,1.558883e+03
1.972823e+03,1.555067e+03
1.973787e+03,1.559112e+03
1.974752e+03,1.564479e+03
1.975716e+03,1.562420e+03
1.976680e+03,1.556486e+03
1.977644e+03,1.550846e+03
1.978609e+03,1.546134e+03
1.979573e+03,1.540651e+03
1.980537e+03,1.535220e+03
1.981501e+03,1.534400e+03
1.982466e+03,1.537601e+03
1.983430e+03,1.543382e+03
1.984394e+03,1.551927e+03
1.985358e+03,1.551755e+03
1.986323e+03,1.544029e+03
1.987287e+03,1.536953e+03
1.988251e+03,1.532521e+03
1.989215e+03,1.530566e+03
1.990179e+03,1.532017e+03
1.991144e+03,1.531487e+03
1.992108e+03,1.528086e+03
1.993072e+03,1.524684e+03
1.994036e+03,1.522237e+03
1.995001e+03,1.519912e+03
1.995965e+03,1.516468e+03
1.996929e+03,1.516750e+03
1.997893e+03,1.531867e+03
1.998858e+03,1.543752e+03
1.999822e+03,1.530561e+03
2.000786e+03,1.511412e+03
2.001750e+03,1.503000e+03
2.002714e+03,1.503181e+03
2.003679e+03,1.507073e+03
2.004643e+03,1.511942e+03
2.005607e+03,1.514950e+03
2.006571e+03,1.516310e+03
2.007536e+03,1.513693e+03
2.008500e+03,1.509041e+03
2.009464e+03,1.508898e+03
2.010428e+03,1.513698e+03
2.011393e+03,1.514584e+03
2.012357e+03,1.510791e+03
2.013321e+03,1.505684e+03
2.014285e+03,1.499011e+03
2.015250e+03,1.495184e+03
2.016214e+03,1.499652e+03
2.017178e+03,1.501168e+03
2.018142e+03,1.499358e+03
2.019106e+03,1.498316e+03
2.020071e+03,1.501769e+03
2.021035e+03,1.501396e+03
2.021999e+03,1.490823e+03
2.022963e+03,1.478834e+03
2.023928e+03,1.467900e+03
2.024892e+03,1.461378e+03
2.025856e+03,1.465231e+03
2.026820e+03,1.472350e+03
2.027785e+03,1.478525e+03
2.028749e+03,1.483434e+03
2.029713e+03,1.488110e+03
2.030677e+03,1.491360e+03
2.031641e+03,1.490589e+03
2.032606e+03,1.486697e+03
2.033570e+03,1.481302e+03
2.034534e+03,1.474574e+03
2.035498e+03,1.468633e+03
2.036463e+03,1.463062e+03
2.037427e+03,1.455430e+03
2.038391e+03,1.446671e+03
2.039355e+03,1.443094e+03
2.040320e+03,1.444158e+03
2.041284e+03,1.447660e+03
2.042248e+03,1.452799e+03
2.043212e+03,1.452162e+03
2.044177e+03,1.445396e+03
2.045141e+03,1.441811e+03
2.046105e+03,1.442494e+03
2.047069e+03,1.445983e+03
2.048033e+03,1.455140e+03
2.048998e+03,1.457219e+03
2.049962e+03,1.451104e+03
2.050926e+03,1.446678e+03
2.051890e+03,1.454114e+03
2.052854e+03,1.458418e+03
2.053819e+03,1.453787e+03
2.054783e+03,1.447021e+03
2.055747e+03,1.441863e+03
2.056711e+03,1.438969e+03
2.057676e+03,1.440972e+03
2.058640e+03,1.442151e+03
2.059604e+03,1.437647e+03
2.060568e+03,1.431545e+03
2.061533e+03,1.431406e+03
2.062497e+03,1.433178e+03
2.063461e+03,1.433167e+03
2.064425e+03,1.431862e+03
2.065390e+03,1.430721e+03
2.066354e+03,1.428080e+03
2.067318e+03,1.419403e+03
2.068282e+03,1.408558e+03
2.069247e+03,1.401536e+03
2.070211e+03,1.398192e+03
2.071175e+03,1.401674e+03
2.072139e+03,1.409700e+03
2.073104e+03,1.418182e+03
2.074068e+03,1.426213e+03
2.075032e+03,1.420527e+03
2.075996e+03,1.404487e+03
2.076960e+03,1.395513e+03
2.077925e+03,1.396830e+03
2.078889e+03,1.399315e+03
2.079853e+03,1.402400e+03
2.080817e+03,1.401254e+03
2.081782e+03,1.395456e+03
2.082746e+03,1.389289e+03
2.083710e+03,1.384174e+03
2.084674e+03,1.382068e+03
2.085639e+03,1.383861e+03
2.086603e+03,1.388427e+03
2.087567e+03,1.396632e+03
2.088531e+03,1.398481e+03
2.089496e+03,1.391441e+03
2.090460e+03,1.382716e+03
2.091424e+03,1.376896e+03
2.092388e+03,1.374757e+03
2.093353e+03,1.377164e+03
2.094317e+03,1.381520e+03
2.095281e+03,1.386212e+03
2.096245e+03,1.389805e+03
2.097209e+03,1.391733e+03
2.098174e+03,1.391100e+03
2.099138e+03,1.388170e+03
2.100102e+03,1.384244e+03
2.101066e+03,1.381889e+03
2.102031e+03,1.377542e+03
2.102995e+03,1.360973e+03
2.103959e+03,1.348927e+03
2.104923e+03,1.360987e+03
2.105887e+03,1.381804e+03
2.106852e+03,1.384605e+03
2.107816e+03,1.377955e+03
2.108780e+03,1.373268e+03
2.109744e+03,1.369412e+03
2.110708e+03,1.363587e+03
2.111673e+03,1.358560e+03
2.112637e+03,1.358256e+03
2.113601e+03,1.359216e+03
2.114565e+03,1.353558e+03
2.115530e+03,1.345397e+03
2.116494e+03,1.344410e+03
2.117458e+03,1.350790e+03
2.118422e+03,1.356217e+03
2.119387e+03,1.359022e+03
2.120351e+03,1.354700e+03
2.121315e+03,1.345075e+03
2.122279e+03,1.339551e+03
2.123244e+03,1.338473e+03
2.124208e+03,1.339786e+03
2.125172e+03,1.342182e+03
2.126136e+03,1.338053e+03
2.127101e+03,1.324866e+03
2.128065e+03,1.318281e+03
2.129029e+03,1.317734e+03
2.129993e+03,1.323262e+03
2.130958e+03,1.333594e+03
2.131922e+03,1.337644e+03
2.132886e+03,1.334985e+03
2.133850e+03,1.329223e+03
2.134814e+03,1.322385e+03
2.135779e+03,1.318395e+03
2.136743e+03,1.317855e+03
2.137707e+03,1.319815e+03
2.138671e+03,1.324412e+03
2.139636e+03,1.325699e+03
2.140600e+03,1.318242e+03
2.141564e+03,1.312588e+03
2.142528e+03,1.309849e+03
2.143493e+03,1.305639e+03
2.144457e+03,1.296215e+03
2.145421e+03,1.290459e+03
2.146385e+03,1.291276e+03
2.147350e+03,1.294324e+03
2.148314e+03,1.299761e+03
2.149278e+03,1.303973e+03
2.150242e+03,1.301084e+03
2.151207e+03,1.298489e+03
2.152171e+03,1.297049e+03
2.153135e+03,1.294974e+03
2.154099e+03,1.291521e+03
2.155063e+03,1.290571e+03
2.156028e+03,1.294027e+03
2.156992e+03,1.296336e+03
2.157956e+03,1.289806e+03
2.158920e+03,1.283424e+03
2.159885e+03,1.280180e+03
2.160849e+03,1.281523e+03
2.161813e+03,1.291427e+03
2.162777e+03,1.297523e+03
2.163741e+03,1.283725e+03
2.164706e+03,1.271465e+03
2.165670e+03,1.269935e+03
2.166634e+03,1.274097e+03
2.167598e+03,1.282397e+03
2.168563e+03,1.286204e+03
2.169527e+03,1.279637e+03
2.170491e+03,1.271529e+03
2.171455e+03,1.275439e+03
2.172420e+03,1.279236e+03
2.173384e+03,1.274504e+03
2.174348e+03,1.267791e+03
2.175312e+03,1.261959e+03
2.176277e+03,1.258115e+03
2.177241e+03,1.260427e+03
2.178205e+03,1.262333e+03
2.179169e+03,1.260624e+03
2.180134e+03,1.257037e+03
2.181098e+03,1.248949e+03
2.182062e+03,1.244611e+03
2.183026e+03,1.249690e+03
2.183990e+03,1.256521e+03
2.184955e+03,1.251586e+03
2.185919e+03,1.246252e+03
2.186883e+03,1.250348e+03
2.187847e+03,1.256197e+03
2.188812e+03,1.255352e+03
2.189776e+03,1.251409e+03
2.190740e+03,1.246078e+03
2.191704e+03,1.240480e+03
2.192668e+03,1.235915e+03
2.193633e+03,1.232784e+03
2.194597e+03,1.232461e+03
2.195561e+03,1.232802e+03
2.196525e+03,1.230470e+03
2.197490e+03,1.228078e+03
2.198454e+03,1.232986e+03
2.199418e+03,1.237459e+03
2.200382e+03,1.234399e+03
2.201347e+03,1.228801e+03
2.202311e+03,1.227771e+03
2.203275e+03,1.227934e+03
2.204239e+03,1.224528e+03
2.205204e+03,1.219505e+03
2.206168e+03,1.217608e+03
2.207132e+03,1.217504e+03
2.208096e+03,1.217383e+03
2.209061e+03,1.215692e+03
2.210025e+03,1.209713e+03
2.210989e+03,1.203986e+03
2.211953e+03,1.208559e+03
2.212917e+03,1.217290e+03
2.213882e+03,1.221648e+03
2.214846e+03,1.220519e+03
2.215810e+03,1.206901e+03
2.216774e+03,1.194747e+03
2.217739e+03,1.200761e+03
2.218703e+03,1.214276e+03
2.219667e+03,1.218787e+03
2.220631e+03,1.216520e+03
2.221595e+03,1.206681e+03
2.222560e+03,1.195404e+03
2.223524e+03,1.191073e+03
2.224488e+03,1.190395e+03
2.225452e+03,1.192790e+03
2.226417e+03,1.194553e+03
2.227381e+03,1.189419e+03
2.228345e+03,1.183876e+03
2.229309e+03,1.186193e+03
2.230274e+03,1.190610e+03
2.231238e+03,1.193149e+03
2.232202e+03,1.193934e+03
2.233166e+03,1.192873e+03
2.234131e+03,1.193384e+03
2.235095e+03,1.199250e+03
2.236059e+03,1.203568e+03
2.237023e+03,1.191249e+03
2.237988e+03,1.177127e+03
2.238952e+03,1.171052e+03
2.239916e+03,1.169060e+03
2.240880e+03,1.170240e+03
2.241844e+03,1.170211e+03
2.242809e+03,1.164236e+03
2.243773e+03,1.158559e+03
2.244737e+03,1.159385e+03
2.245701e+03,1.161927e+03
2.246666e+03,1.162234e+03
2.247630e+03,1.162326e+03
2.248594e+03,1.166430e+03
2.249558e+03,1.169727e+03
2.250522e+03,1.164801e+03
2.251487e+03,1.158801e+03
2.252451e+03,1.152184e+03
2.253415e+03,1.148924e+03
2.254379e+03,1.161828e+03
2.255344e+03,1.170142e+03
2.256308e+03,1.165630e+03
2.257272e+03,1.156286e+03
2.258236e+03,1.146590e+03
2.259201e+03,1.139223e+03
2.260165e+03,1.134174e+03
2.261129e+03,1.131460e+03
2.262093e+03,1.131635e+03
2.263058e+03,1.133282e+03
2.264022e+03,1.137072e+03
2.264986e+03,1.141068e+03
2.265950e+03,1.144762e+03
2.266915e+03,1.143453e+03
2.267879e+03,1.133672e+03
2.268843e+03,1.126572e+03
2.269807e+03,1.130518e+03
2.270771e+03,1.130787e+03
2.271736e+03,1.119498e+03
2.272700e+03,1.116440e+03
2.273664e+03,1.127369e+03
2.274628e+03,1.133315e+03
2.275593e+03,1.121857e+03
2.276557e+03,1.116945e+03
2.277521e+03,1.123156e+03
2.278485e+03,1.127716e+03
2.279449e+03,1.122015e+03
2.280414e+03,1.120388e+03
2.281378e+03,1.123410e+03
2.282342e+03,1.126320e+03
2.283306e+03,1.127361e+03
2.284271e+03,1.123242e+03
2.285235e+03,1.114166e+03
2.286199e+03,1.105797e+03
2.287163e+03,1.101743e+03
2.288128e+03,1.098733e+03
2.289092e+03,1.095992e+03
2.290056e+03,1.097328e+03
2.291020e+03,1.104234e+03
2.291985e+03,1.108471e+03
2.292949e+03,1.110745e+03
2.293913e+03,1.110894e+03
2.294877e+03,1.108926e+03
2.295842e+03,1.110270e+03
2.296806e+03,1.113417e+03
2.297770e+03,1.108258e+03
2.298734e+03,1.097424e+03
2.299698e+03,1.094879e+03
2.300663e+03,1.099656e+03
2.301627e+03,1.096780e+03
2.302591e+03,1.089859e+03
2.303555e+03,1.090374e+03
2.304520e+03,1.095740e+03
2.305484e+03,1.089074e+03
2.306448e+03,1.078701e+03
2.307412e+03,1.079490e+03
2.308376e+03,1.085837e+03
2.309341e+03,1.084239e+03
2.310305e+03,1.078482e+03
2.311269e+03,1.073004e+03
2.312233e+03,1.069837e+03
2.313198e+03,1.071651e+03
2.314162e+03,1.075500e+03
2.315126e+03,1.081189e+03
2.316090e+03,1.083344e+03
2.317055e+03,1.071911e+03
2.318019e+03,1.059858e+03
2.318983e+03,1.059160e+03
2.319947e+03,1.061266e+03
2.320912e+03,1.061826e+03
2.321876e+03,1.062566e+03
2.322840e+03,1.064524e+03
2.323804e+03,1.066739e+03
2.324769e+03,1.069935e+03
2.325733e+03,1.071331e+03
2.326697e+03,1.066578e+03
2.327661e+03,1.062244e+03
2.328625e+03,1.058986e+03
2.329590e+03,1.057545e+03
2.330554e+03,1.062344e+03
2.331518e+03,1.062626e+03
2.332482e+03,1.056500e+03
2.333447e+03,1.049167e+03
2.334411e+03,1.041644e+03
2.335375e+03,1.037311e+03
2.336339e+03,1.036210e+03
2.337303e+03,1.034646e+03
2.338268e+03,1.028797e+03
2.339232e+03,1.029986e+03
2.340196e+03,1.037028e+03
2.341160e+03,1.039307e+03
2.342125e+03,1.033349e+03
2.343089e+03,1.032340e+03
2.344053e+03,1.033748e+03
2.345017e+03,1.033037e+03
2.345982e+03,1.030505e+03
2.346946e+03,1.031613e+03
2.347910e+03,1.035390e+03
2.348874e+03,1.037024e+03
2.349839e+03,1.035645e+03
2.350803e+03,1.032080e+03
2.351767e+03,1.028119e+03
2.352731e+03,1.027213e+03
2.353696e+03,1.027924e+03
2.354660e+03,1.025391e+03
2.355624e+03,1.022529e+03
2.356588e+03,1.029370e+03
2.357552e+03,1.034231e+03
2.358517e+03,1.023095e+03
2.359481e+03,1.009463e+03
2.360445e+03,1.010340e+03
2.361409e+03,1.012580e+03
2.362374e+03,1.008742e+03
2.363338e+03,1.006111e+03
2.364302e+03,1.016442e+03
2.365266e+03,1.025888e+03
2.366230e+03,1.030679e+03
2.367195e+03,1.028197e+03
2.368159e+03,1.008184e+03
2.369123e+03,9.977964e+02
2.370087e+03,1.001964e+03
2.371052e+03,1.007306e+03
2.372016e+03,1.009384e+03
2.372980e+03,1.005610e+03
2.373944e+03,9.963047e+02
2.374909e+03,9.922819e+02
2.375873e+03,9.992355e+02
2.376837e+03,9.997047e+02
2.377801e+03,9.952009e+02
2.378766e+03,9.911937e+02
2.379730e+03,9.885540e+02
2.380694e+03,9.857943e+02
2.381658e+03,9.841047e+02
2.382623e+03,9.858918e+02
2.383587e+03,9.891866e+02
2.384551e+03,9.888391e+02
2.385515e+03,9.851708e+02
2.386479e+03,9.773655e+02
2.387444e+03,9.702083e+02
2.388408e+03,9.703972e+02
2.389372e+03,9.763626e+02
2.390336e+03,9.896152e+02
2.391301e+03,1.000081e+03
2.392265e+03,9.943851e+02
2.393229e+03,9.863805e+02
2.394193e+03,9.849874e+02
2.395157e+03,9.835593e+02
2.396122e+03,9.769523e+02
2.397086e+03,9.731805e+02
2.398050e+03,9.761038e+02
2.399014e+03,9.756190e+02
2.399979e+03,9.663754e+02
2.400943e+03,9.595140e+02
2.401907e+03,9.563214e+02
2.402871e+03,9.572539e+02
2.403836e+03,9.629705e+02
2.404800e+03,9.721136e+02
2.405764e+03,9.832900e+02
2.406728e+03,9.836341e+02
2.407693e+03,9.735189e+02
2.408657e+03,9.691713e+02
2.409621e+03,9.701550e+02
2.410585e+03,9.693596e+02
2.411550e+03,9.661035e+02
2.412514e+03,9.582744e+02
2.413478e+03,9.492732e+02
2.414442e+03,9.505560e+02
2.415406e+03,9.542393e+02
2.416371e+03,9.505162e+02
2.417335e+03,9.451971e+02
2.418299e+03,9.479651e+02
2.419263e+03,9.500889e+02
2.420228e+03,9.458843e+02
2.421192e+03,9.419426e+02
2.422156e+03,9.472411e+02
2.423120e+03,9.497957e+02
2.424084e+03,9.454964e+02
2.425049e+03,9.426461e+02
2.426013e+03,9.499224e+02
2.426977e+03,9.479280e+02
2.427941e+03,9.361848e+02
2.428906e+03,9.329910e+02
2.429870e+03,9.441357e+02
2.430834e+03,9.496090e+02
2.431798e+03,9.494654e+02
2.432763e+03,9.442723e+02
2.433727e+03,9.350619e+02
2.434691e+03,9.294650e+02
2.435655e+03,9.265984e+02
2.436620e+03,9.255206e+02
2.437584e+03,9.246904e+02
2.438548e+03,9.188549e+02
2.439512e+03,9.138144e+02
2.440477e+03,9.149277e+02
2.441441e+03,9.184350e+02
2.442405e+03,9.226244e+02
2.443369e+03,9.246577e+02
2.444333e+03,9.234774e+02
2.445298e+03,9.225016e+02
2.446262e+03,9.250408e+02
2.447226e+03,9.268461e+02
2.448190e+03,9.276783e+02
2.449155e+03,9.275150e+02
2.450119e+03,9.255155e+02
2.451083e+03,9.265240e+02
2.452047e+03,9.296652e+02
2.453011e+03,9.288072e+02
2.453976e+03,9.227323e+02
2.454940e+03,9.172027e+02
2.455904e+03,9.129978e+02
2.456868e+03,9.106017e+02
2.457833e+03,9.088220e+02
2.458797e+03,9.049630e+02
2.459761e+03,9.022504e+02
2.460725e+03,9.051992e+02
2.461690e+03,9.100309e+02
2.462654e+03,9.141335e+02
2.463618e+03,9.132272e+02
2.464582e+03,9.044805e+02
2.465547e+03,8.966414e+02
2.466511e+03,8.960111e+02
2.467475e+03,8.991513e+02
2.468439e+03,9.053096e+02
2.469404e+03,9.073517e+02
2.470368e+03,8.980095e+02
2.471332e+03,8.939880e+02
2.472296e+03,8.947819e+02
2.473260e+03,8.968360e+02
2.474225e+03,8.996169e+02
2.475189e+03,8.948919e+02
2.476153e+03,8.872229e+02
2.477117e+03,8.916459e+02
2.478082e+03,9.023781e+02
2.479046e+03,8.990818e+02
2.480010e+03,8.902484e+02
2.480974e+03,8.882376e+02
2.481938e+03,8.882463e+02
2.482903e+03,8.824660e+02
2.483867e+03,8.775929e+02
2.484831e+03,8.766392e+02
2.485795e+03,8.780162e+02
2.486760e+03,8.846738e+02
2.487724e+03,8.865682e+02
2.488688e+03,8.825397e+02
2.489652e+03,8.776785e+02
2.490617e+03,8.722614e+02
2.491581e+03,8.697767e+02
2.492545e+03,8.706157e+02
2.493509e+03,8.759579e+02
2.494474e+03,8.843817e+02
2.495438e+03,8.843693e+02
2.496402e+03,8.798536e+02
2.497366e+03,8.798958e+02
2.498331e+03,8.823596e+02
2.499295e+03,8.844637e+02
2.500259e+03,8.830936e+02
2.501223e+03,8.753339e+02
2.502188e+03,8.692469e+02
2.503152e+03,8.788454e+02
2.504116e+03,8.810164e+02
2.505080e+03,8.686100e+02
2.506044e+03,8.575431e+02
2.507009e+03,8.610154e+02
2.507973e+03,8.570629e+02
2.508937e+03,8.463156e+02
2.509901e+03,8.422115e+02
2.510865e+03,8.480932e+02
2.511830e+03,8.521220e+02
2.512794e+03,8.548641e+02
2.513758e+03,8.624105e+02
2.514722e+03,8.706879e+02
2.515687e+03,8.599814e+02
2.516651e+03,8.475540e+02
2.517615e+03,8.527832e+02
2.518579e+03,8.619916e+02
2.519544e+03,8.576278e+02
2.520508e+03,8.517017e+02
2.521472e+03,8.491945e+02
2.522436e+03,8.461321e+02
2.523401e+03,8.368139e+02
2.524365e+03,8.345794e+02
2.525329e+03,8.391840e+02
2.526293e+03,8.423658e+02
2.527258e+03,8.428894e+02
2.528222e+03,8.409360e+02
2.529186e+03,8.386746e+02
2.530150e+03,8.443026e+02
2.531115e+03,8.540481e+02
2.532079e+03,8.534568e+02
2.533043e+03,8.469902e+02
2.534007e+03,8.387911e+02
2.534971e+03,8.318470e+02
2.535936e+03,8.333747e+02
2.536900e+03,8.350229e+02
2.537864e+03,8.337379e+02
2.538828e+03,8.323088e+02
2.539792e+03,8.308983e+02
2.540757e+03,8.282247e+02
2.541721e+03,8.243009e+02
2.542685e+03,8.253934e+02
2.543649e+03,8.316005e+02
2.544614e+03,8.345104e+02
2.545578e+03,8.340739e+02
2.546542e+03,8.343677e+02
2.547506e+03,8.345957e+02
2.548471e+03,8.287757e+02
2.549435e+03,8.252971e+02
2.550399e+03,8.352582e+02
2.551363e+03,8.426324e+02
2.552328e+03,8.311108e+02
2.553292e+03,8.232773e+02
2.554256e+03,8.281101e+02
2.555220e+03,8.296017e+02
2.556185e+03,8.244872e+02
2.557149e+03,8.205176e+02
2.558113e+03,8.191845e+02
2.559077e+03,8.201439e+02
2.560042e+03,8.224647e+02
2.561006e+03,8.271207e+02
2.561970e+03,8.318145e+02
2.562934e+03,8.276628e+02
2.563898e+03,8.213405e+02
2.564863e+03,8.204395e+02
2.565827e+03,8.201526e+02
2.566791e+03,8.187016e+02
2.567755e+03,8.175803e+02
2.568719e+03,8.162619e+02
2.569684e+03,8.128590e+02
2.570648e+03,8.056077e+02
2.571612e+03,8.019682e+02
2.572576e+03,8.024363e+02
2.573541e+03,8.048723e+02
2.574505e+03,8.074766e+02
2.575469e+03,8.089014e+02
2.576433e+03,8.077217e+02
2.577398e+03,8.020095e+02
2.578362e+03,7.951408e+02
2.579326e+03,7.891453e+02
2.580290e+03,7.887252e+02
2.581255e+03,7.956263e+02
2.582219e+03,8.002999e+02
2.583183e+03,7.929863e+02
2.584147e+03,7.898518e+02
2.585112e+03,7.925138e+02
2.586076e+03,7.962411e+02
2.587040e+03,7.999739e+02
2.588004e+03,8.026342e+02
2.588969e+03,8.028580e+02
2.589933e+03,8.000812e+02
2.590897e+03,7.944297e+02
2.591861e+03,7.815414e+02
2.592825e+03,7.716005e+02
2.593790e+03,7.709120e+02
2.594754e+03,7.732810e+02
2.595718e+03,7.751525e+02
2.596682e+03,7.783713e+02
2.597646e+03,7.831179e+02
2.598611e+03,7.812561e+02
2.599575e+03,7.740391e+02
2.600539e+03,7.749257e+02
2.601503e+03,7.823019e+02
2.602468e+03,7.839999e+02
2.603432e+03,7.825061e+02
2.604396e+03,7.849472e+02
2.605360e+03,7.862824e+02
2.606325e+03,7.779083e+02
2.607289e+03,7.715847e+02
2.608253e+03,7.730416e+02
2.609217e+03,7.740322e+02
2.610182e+03,7.686577e+02
2.611146e+03,7.680508e+02
2.612110e+03,7.719488e+02
2.613074e+03,7.715602e+02
2.614039e+03,7.675556e+02
2.615003e+03,7.694363e+02
2.615967e+03,7.737458e+02
2.616931e+03,7.776067e+02
2.617896e+03,7.804409e+02
2.618860e+03,7.811495e+02
2.619824e+03,7.796270e+02
2.620788e+03,7.754446e+02
2.621752e+03,7.729522e+02
2.622717e+03,7.774101e+02
2.623681e+03,7.739011e+02
2.624645e+03,7.635189e+02
2.625609e+03,7.649388e+02
2.626573e+03,7.758085e+02
2.627538e+03,7.697919e+02
2.628502e+03,7.576650e+02
2.629466e+03,7.553525e+02
2.630430e+03,7.569940e+02
2.631395e+03,7.548983e+02
2.632359e+03,7.544265e+02
2.633323e+03,7.588724e+02
2.634287e+03,7.591120e+02
2.635252e+03,7.537072e+02
2.636216e+03,7.511082e+02
2.637180e+03,7.524764e+02
2.638144e+03,7.546312e+02
2.639109e+03,7.569421e+02
2.640073e+03,7.599859e+02
2.641037e+03,7.629517e+02
2.642001e+03,7.638154e+02
2.642966e+03,7.603019e+02
2.643930e+03,7.506505e+02
2.644894e+03,7.426258e+02
2.645858e+03,7.417482e+02
2.646823e+03,7.441483e+02
2.647787e+03,7.486412e+02
2.648751e+03,7.545135e+02
2.649715e+03,7.604040e+02
2.650679e+03,7.531408e+02
2.651644e+03,7.402798e+02
2.652608e+03,7.325258e+02
2.653572e+03,7.298422e+02
2.654536e+03,7.358078e+02
2.655500e+03,7.426105e+02
2.656465e+03,7.480983e+02
2.657429e+03,7.479033e+02
2.658393e+03,7.401594e+02
2.659357e+03,7.303617e+02
2.660322e+03,7.220653e+02
2.661286e+03,7.269778e+02
2.662250e+03,7.391184e+02
2.663214e+03,7.418649e+02
2.664179e+03,7.396992e+02
2.665143e+03,7.361966e+02
2.666107e+03,7.357532e+02
2.667071e+03,7.411182e+02
2.668036e+03,7.452860e+02
2.669000e+03,7.428972e+02
2.669964e+03,7.416398e+02
2.670928e+03,7.405522e+02
2.671893e+03,7.280518e+02
2.672857e+03,7.100684e+02
2.673821e+03,7.201777e+02
2.674785e+03,7.360412e+02
2.675750e+03,7.325616e+02
2.676714e+03,7.248849e+02
2.677678e+03,7.317438e+02
2.678642e+03,7.333000e+02
2.679606e+03,7.253063e+02
2.680571e+03,7.155491e+02
2.681535e+03,7.059293e+02
2.682499e+03,7.086064e+02
2.683463e+03,7.196478e+02
2.684427e+03,7.223055e+02
2.685392e+03,7.209130e+02
2.686356e+03,7.209193e+02
2.687320e+03,7.223565e+02
2.688284e+03,7.290323e+02
2.689249e+03,7.295553e+02
2.690213e+03,7.218640e+02
2.691177e+03,7.124583e+02
2.692141e+03,7.035630e+02
2.693106e+03,7.084169e+02
2.694070e+03,7.206340e+02
2.695034e+03,7.247527e+02
2.695998e+03,7.227321e+02
2.696963e+03,7.154503e+02
2.697927e+03,7.085733e+02
2.698891e+03,7.040787e+02
2.699855e+03,7.004504e+02
2.700820e+03,6.969284e+02
2.701784e+03,6.995588e+02
2.702748e+03,7.069207e+02
2.703712e+03,7.058809e+02
2.704677e+03,7.000190e+02
2.705641e+03,7.052780e+02
2.706605e+03,7.132990e+02
2.707569e+03,7.119626e+02
2.708533e+03,7.103492e+02
2.709498e+03,7.130340e+02
2.710462e+03,7.112351e+02
2.711426e+03,6.992698e+02
2.712390e+03,6.930969e+02
2.713354e+03,6.922410e+02
2.714319e+03,6.959171e+02
2.715283e+03,7.009395e+02
2.716247e+03,7.008715e+02
2.717211e+03,7.000706e+02
2.718176e+03,7.017458e+02
2.719140e+03,7.046480e+02
2.720104e+03,7.104195e+02
2.721068e+03,7.033723e+02
2.722033e+03,6.835073e+02
2.722997e+03,6.820730e+02
2.723961e+03,6.937538e+02
2.724925e+03,6.913448e+02
2.725890e+03,6.831547e+02
2.726854e+03,6.789418e+02
2.727818e+03,6.816456e+02
2.728782e+03,6.931795e+02
2.729747e+03,6.979357e+02
2.730711e+03,6.825960e+02
2.731675e+03,6.766981e+02
2.732639e+03,6.793088e+02
2.733604e+03,6.839412e+02
2.734568e+03,6.877886e+02
2.735532e+03,6.845639e+02
2.736496e+03,6.790871e+02
2.737460e+03,6.748046e+02
2.738425e+03,6.747771e+02
2.739389e+03,6.823433e+02
2.740353e+03,6.841251e+02
2.741317e+03,6.788621e+02
2.742281e+03,6.775652e+02
2.743246e+03,6.795713e+02
2.744210e+03,6.786017e+02
2.745174e+03,6.769515e+02
2.746138e+03,6.810194e+02
2.747103e+03,6.834870e+02
2.748067e+03,6.817498e+02
2.749031e+03,6.817291e+02
2.749995e+03,6.890682e+02
2.750960e+03,6.816359e+02
2.751924e+03,6.664925e+02
2.752888e+03,6.671556e+02
2.753852e+03,6.761705e+02
2.754817e+03,6.784086e+02
2.755781e+03,6.767930e+02
2.756745e+03,6.716181e+02
2.757709e+03,6.694493e+02
2.758674e+03,6.714373e+02
2.759638e+03,6.753174e+02
2.760602e+03,6.797279e+02
2.761566e+03,6.739811e+02
2.762531e+03,6.654564e+02
2.763495e+03,6.667164e+02
2.764459e+03,6.694003e+02
2.765423e+03,6.646842e+02
2.766387e+03,6.613815e+02
2.767352e+03,6.617397e+02
2.768316e+03,6.640320e+02
2.769280e+03,6.675018e+02
2.770244e+03,6.772943e+02
2.771208e+03,6.844700e+02
2.772173e+03,6.687097e+02
2.773137e+03,6.497328e+02
2.774101e+03,6.514426e+02
2.775065e+03,6.577184e+02
2.776030e+03,6.646801e+02
2.776994e+03,6.603944e+02
2.777958e+03,6.479246e+02
2.778922e+03,6.566600e+02
2.779887e+03,6.753711e+02
2.780851e+03,6.597679e+02
2.781815e+03,6.476252e+02
2.782779e+03,6.672762e+02
2.783744e+03,6.831540e+02
2.784708e+03,6.709445e+02
2.785672e+03,6.545867e+02
2.786636e+03,6.391526e+02
2.787601e+03,6.426503e+02
2.788565e+03,6.577238e+02
2.789529e+03,6.668767e+02
2.790493e+03,6.706058e+02
2.791458e+03,6.679096e+02
2.792422e+03,6.580446e+02
2.793386e+03,6.427049e+02
2.794350e+03,6.386559e+02
2.795314e+03,6.493450e+02
2.796279e+03,6.452836e+02
2.797243e+03,6.387485e+02
2.798207e+03,6.529030e+02
2.799171e+03,6.689010e+02
2.800135e+03,6.611399e+02
2.801100e+03,6.488362e+02
2.802064e+03,6.357221e+02
2.803028e+03,6.307513e+02
2.803992e+03,6.330114e+02
2.804957e+03,6.411764e+02
2.805921e+03,6.504720e+02
2.806885e+03,6.537863e+02
2.807849e+03,6.502175e+02
2.808814e+03,6.396481e+02
2.809778e+03,6.351796e+02
2.810742e+03,6.463108e+02
2.811706e+03,6.469138e+02
2.812671e+03,6.393087e+02
2.813635e+03,6.356445e+02
2.814599e+03,6.359625e+02
2.815563e+03,6.455881e+02
2.816528e+03,6.493370e+02
2.817492e+03,6.356183e+02
2.818456e+03,6.313973e+02
2.819420e+03,6.378844e+02
2.820385e+03,6.419465e+02
2.821349e+03,6.435325e+02
2.822313e+03,6.483270e+02
2.823277e+03,6.504637e+02
2.824241e+03,6.458395e+02
2.825206e+03,6.362736e+02
2.826170e+03,6.206331e+02
2.827134e+03,6.188308e+02
2.828098e+03,6.302675e+02
2.829063e+03,6.332979e+02
2.830027e+03,6.299091e+02
2.830991e+03,6.222490e+02
2.831955e+03,6.203156e+02
2.832919e+03,6.372961e+02
2.833884e+03,6.492067e+02
2.834848e+03,6.520189e+02
2.835812e+03,6.409244e+02
2.836776e+03,6.207302e+02
2.837741e+03,6.241783e+02
2.838705e+03,6.345065e+02
2.839669e+03,6.328708e+02
2.840633e+03,6.282387e+02
2.841598e+03,6.257670e+02
2.842562e+03,6.212881e+02
2.843526e+03,6.145078e+02
2.844490e+03,6.131885e+02
2.845455e+03,6.151398e+02
2.846419e+03,6.160717e+02
2.847383e+03,6.211782e+02
2.848347e+03,6.451000e+02
2.849312e+03,6.557770e+02
2.850276e+03,6.478068e+02
2.851240e+03,6.391400e+02
2.852204e+03,6.321283e+02
2.853168e+03,6.273257e+02
2.854133e+03,6.243975e+02
2.855097e+03,6.222728e+02
2.856061e+03,6.255897e+02
2.857025e+03,6.341843e+02
2.857990e+03,6.394071e+02
2.858954e+03,6.389151e+02
2.859918e+03,6.357894e+02
2.860882e+03,6.297820e+02
2.861846e+03,6.195975e+02
2.862811e+03,6.115012e+02
2.863775e+03,6.125784e+02
2.864739e+03,6.117927e+02
2.865703e+03,6.064377e+02
2.866668e+03,6.103661e+02
2.867632e+03,6.201025e+02
2.868596e+03,6.247789e+02
2.869560e+03,6.285325e+02
2.870525e+03,6.422503e+02
2.871489e+03,6.463073e+02
2.872453e+03,6.359745e+02
2.873417e+03,6.265462e+02
2.874382e+03,6.206532e+02
2.875346e+03,6.251232e+02
2.876310e+03,6.325453e+02
2.877274e+03,6.289053e+02
2.878239e+03,6.268644e+02
2.879203e+03,6.307372e+02
2.880167e+03,6.325172e+02
2.881131e+03,6.303534e+02
2.882095e+03,6.442010e+02
2.883060e+03,6.579635e+02
2.884024e+03,6.445763e+02
2.884988e+03,6.265900e+02
2.885952e+03,6.229506e+02
2.886917e+03,6.269462e+02
2.887881e+03,6.384527e+02
2.888845e+03,6.374072e+02
2.889809e+03,6.306545e+02
2.890773e+03,6.349966e+02
2.891738e+03,6.406239e+02
2.892702e+03,6.366526e+02
2.893666e+03,6.349902e+02
2.894630e+03,6.373126e+02
2.895595e+03,6.296086e+02
2.896559e+03,6.158153e+02
2.897523e+03,6.207021e+02
2.898487e+03,6.284616e+02
2.899452e+03,6.179684e+02
2.900416e+03,6.139252e+02
2.901380e+03,6.208970e+02
2.902344e+03,6.208252e+02
2.903309e+03,6.125641e+02
2.904273e+03,6.206459e+02
2.905237e+03,6.278075e+02
2.906201e+03,6.137353e+02
2.907166e+03,6.018914e+02
2.908130e+03,6.023348e+02
2.909094e+03,6.090140e+02
2.910058e+03,6.188688e+02
2.911022e+03,6.099779e+02
2.911987e+03,6.030230e+02
2.912951e+03,6.216537e+02
2.913915e+03,6.397152e+02
2.914879e+03,6.389658e+02
2.915844e+03,6.283502e+02
2.916808e+03,6.118555e+02
2.917772e+03,6.081556e+02
2.918736e+03,6.100961e+02
2.919700e+03,6.041891e+02
2.920665e+03,6.021716e+02
2.921629e+03,6.210743e+02
2.922593e+03,6.197785e+02
2.923557e+03,6.031531e+02
2.924522e+03,6.048605e+02
2.925486e+03,6.139767e+02
2.926450e+03,5.977706e+02
2.927414e+03,5.847699e+02
2.928379e+03,5.890056e+02
2.929343e+03,5.948595e+02
2.930307e+03,5.996326e+02
2.931271e+03,6.033466e+02
2.932236e+03,6.065795e+02
2.933200e+03,6.104427e+02
2.934164e+03,6.095372e+02
2.935128e+03,6.006961e+02
2.936093e+03,5.975753e+02
2.937057e+03,6.008098e+02
2.938021e+03,5.997996e+02
2.938985e+03,5.975976e+02
2.939949e+03,6.008516e+02
2.940914e+03,5.996518e+02
2.941878e+03,5.913254e+02
2.942842e+03,5.898566e+02
2.943806e+03,5.955696e+02
2.944771e+03,5.867625e+02
2.945735e+03,5.757736e+02
2.946699e+03,5.817001e+02
2.947663e+03,5.856819e+02
2.948627e+03,5.806456e+02
2.949592e+03,5.818393e+02
2.950556e+03,5.914266e+02
2.951520e+03,5.923416e+02
2.952484e+03,5.920677e+02
2.953449e+03,5.993152e+02
2.954413e+03,6.054128e+02
2.955377e+03,6.069813e+02
2.956341e+03,6.216504e+02
2.957306e+03,6.437022e+02
2.958270e+03,6.332594e+02
2.959234e+03,6.069776e+02
2.960198e+03,5.793101e+02
2.961163e+03,5.710496e+02
2.962127e+03,5.925041e+02
2.963091e+03,6.084082e+02
2.964055e+03,6.111835e+02
2.965020e+03,5.903266e+02
2.965984e+03,5.699286e+02
2.966948e+03,5.663571e+02
2.967912e+03,5.704433e+02
2.968876e+03,5.830333e+02
2.969841e+03,5.676257e+02
2.970805e+03,5.454403e+02
2.971769e+03,5.612786e+02
2.972733e+03,5.787576e+02
2.973698e+03,5.696064e+02
2.974662e+03,5.686810e+02
2.975626e+03,5.851490e+02
2.976590e+03,5.848502e+02
2.977554e+03,5.764653e+02
2.978519e+03,5.708962e+02
2.979483e+03,5.696962e+02
2.980447e+03,5.756618e+02
2.981411e+03,5.760595e+02
2.982376e+03,5.714454e+02
2.983340e+03,5.808991e+02
2.984304e+03,5.865722e+02
2.985268e+03,5.692703e+02
2.986233e+03,5.589302e+02
2.987197e+03,5.768481e+02
2.988161e+03,5.744696e+02
2.989125e+03,5.573006e+02
2.990090e+03,5.505939e+02
2.991054e+03,5.482745e+02
2.992018e+03,5.440359e+02
2.992982e+03,5.484161e+02
2.993947e+03,5.684946e+02
2.994911e+03,5.862012e+02
2.995875e+03,5.955197e+02
2.996839e+03,5.873022e+02
2.997803e+03,5.720685e+02
2.998768e+03,5.558688e+02
2.999732e+03,5.603204e+02
3.000696e+03,5.856290e+02
3.001660e+03,5.618871e+02
3.002625e+03,5.328609e+02
3.003589e+03,5.435552e+02
3.004553e+03,5.585994e+02
3.005517e+03,5.619301e+02
3.006481e+03,5.515505e+02
3.007446e+03,5.354536e+02
3.008410e+03,5.468019e+02
3.009374e+03,5.608438e+02
3.010338e+03,5.628157e+02
3.011303e+03,5.602325e+02
3.012267e+03,5.545836e+02
3.013231e+03,5.599922e+02
3.014195e+03,5.681901e+02
3.015160e+03,5.611404e+02
3.016124e+03,5.620244e+02
3.017088e+03,5.776466e+02
3.018052e+03,5.774391e+02
3.019017e+03,5.597190e+02
3.019981e+03,5.589100e+02
3.020945e+03,5.609329e+02
3.021909e+03,5.509642e+02
3.022874e+03,5.527575e+02
3.023838e+03,5.681351e+02
3.024802e+03,5.797440e+02
3.025766e+03,5.822758e+02
3.026730e+03,5.536904e+02
3.027695e+03,5.411451e+02
3.028659e+03,5.653878e+02
3.029623e+03,5.714147e+02
3.030587e+03,5.573467e+02
3.031552e+03,5.449558e+02
3.032516e+03,5.404432e+02
3.033480e+03,5.575291e+02
3.034444e+03,5.753428e+02
3.035408e+03,5.878909e+02
3.036373e+03,5.726217e+02
3.037337e+03,5.449742e+02
3.038301e+03,5.577625e+02
3.039265e+03,5.666837e+02
3.040230e+03,5.347560e+02
3.041194e+03,5.385438e+02
3.042158e+03,5.660223e+02
3.043122e+03,5.563796e+02
3.044087e+03,5.410968e+02
3.045051e+03,5.723356e+02
3.046015e+03,5.907130e+02
3.046979e+03,5.779816e+02
3.047944e+03,5.477513e+02
3.048908e+03,5.249529e+02
3.049872e+03,5.476245e+02
3.050836e+03,5.688433e+02
3.051801e+03,5.560740e+02
3.052765e+03,5.425458e+02
3.053729e+03,5.338467e+02
3.054693e+03,5.380953e+02
3.055657e+03,5.463524e+02
3.056622e+03,5.506630e+02
3.057586e+03,5.609282e+02
3.058550e+03,5.800604e+02
3.059514e+03,5.802480e+02
3.060479e+03,5.688513e+02
3.061443e+03,5.568299e+02
3.062407e+03,5.433348e+02
3.063371e+03,5.285595e+02
3.064335e+03,5.220315e+02
3.065300e+03,5.234005e+02
3.066264e+03,5.304960e+02
3.067228e+03,5.413567e+02
3.068192e+03,5.575992e+02
3.069157e+03,5.521955e+02
3.070121e+03,5.324657e+02
3.071085e+03,5.428547e+02
3.072049e+03,5.564460e+02
3.073014e+03,5.194568e+02
3.073978e+03,5.011474e+02
3.074942e+03,5.163882e+02
3.075906e+03,5.333645e+02
3.076871e+03,5.429435e+02
3.077835e+03,5.330168e+02
3.078799e+03,5.243152e+02
3.079763e+03,5.305821e+02
3.080728e+03,5.340321e+02
3.081692e+03,5.343339e+02
3.082656e+03,5.321001e+02
3.083620e+03,5.334323e+02
3.084584e+03,5.410974e+02
3.085549e+03,5.583238e+02
3.086513e+03,5.831512e+02
3.087477e+03,5.496322e+02
3.088441e+03,5.121109e+02
3.089406e+03,5.348468e+02
3.090370e+03,5.542346e+02
3.091334e+03,5.583772e+02
3.092298e+03,5.606735e+02
3.093262e+03,5.608054e+02
3.094227e+03,5.473806e+02
3.095191e+03,5.428939e+02
3.096155e+03,5.564387e+02
3.097119e+03,5.551893e+02
3.098084e+03,5.461168e+02
3.099048e+03,5.454254e+02
3.100012e+03,5.489656e+02
3.100976e+03,5.551277e+02
3.101941e+03,5.563763e+02
3.102905e+03,5.517136e+02
3.103869e+03,5.401055e+02
3.104833e+03,5.326829e+02
3.105798e+03,5.358185e+02
3.106762e+03,5.437610e+02
3.107726e+03,5.544058e+02
3.108690e+03,5.615695e+02
3.109655e+03,5.650340e+02
3.110619e+03,5.643757e+02
3.111583e+03,5.621243e+02
3.112547e+03,5.589277e+02
3.113511e+03,5.501374e+02
3.114476e+03,5.405482e+02
3.115440e+03,5.403310e+02
3.116404e+03,5.468484e+02
3.117368e+03,5.643156e+02
3.118333e+03,5.414312e+02
3.119297e+03,5.093890e+02
3.120261e+03,5.210959e+02
3.121225e+03,5.427626e+02
3.122189e+03,5.550967e+02
3.123154e+03,5.559426e+02
3.124118e+03,5.460926e+02
3.125082e+03,5.250749e+02
3.126046e+03,5.180531e+02
3.127011e+03,5.356254e+02
3.127975e+03,5.380795e+02
3.128939e+03,5.276383e+02
3.129903e+03,5.424083e+02
3.130868e+03,5.572631e+02
3.131832e+03,5.419907e+02
3.132796e+03,5.424105e+02
3.133760e+03,5.575801e+02
3.134725e+03,5.612296e+02
3.135689e+03,5.623611e+02
3.136653e+03,5.703830e+02
3.137617e+03,5.791493e+02
3.138582e+03,5.870662e+02
3.139546e+03,5.845027e+02
3.140510e+03,5.735408e+02
3.141474e+03,5.554532e+02
3.142438e+03,5.509724e+02
3.143403e+03,5.588882e+02
3.144367e+03,5.466625e+02
3.145331e+03,5.262869e+02
3.146295e+03,5.133469e+02
3.147260e+03,5.142718e+02
3.148224e+03,5.313348e+02
3.149188e+03,5.573107e+02
3.150152e+03,5.730129e+02
3.151116e+03,5.539929e+02
3.152081e+03,5.419190e+02
3.153045e+03,5.539079e+02
3.154009e+03,5.523519e+02
3.154973e+03,5.432202e+02
3.155938e+03,5.413334e+02
3.156902e+03,5.425041e+02
3.157866e+03,5.434341e+02
3.158830e+03,5.320178e+02
3.159795e+03,5.176536e+02
3.160759e+03,5.235320e+02
3.161723e+03,5.307014e+02
3.162687e+03,5.288512e+02
3.163652e+03,5.361590e+02
3.164616e+03,5.477615e+02
3.165580e+03,5.529218e+02
3.166544e+03,5.535973e+02
3.167509e+03,5.519330e+02
3.168473e+03,5.484822e+02
3.169437e+03,5.434080e+02
3.170401e+03,5.287408e+02
3.171365e+03,5.301630e+02
3.172330e+03,5.603278e+02
3.173294e+03,5.833010e+02
3.174258e+03,5.935217e+02
3.175222e+03,5.863160e+02
3.176187e+03,5.748414e+02
3.177151e+03,5.666154e+02
3.178115e+03,5.760113e+02
3.179079e+03,5.917280e+02
3.180043e+03,5.780233e+02
3.181008e+03,5.536727e+02
3.181972e+03,5.293608e+02
3.182936e+03,5.231603e+02
3.183900e+03,5.312510e+02
3.184865e+03,5.512180e+02
3.185829e+03,5.674835e+02
3.186793e+03,5.758895e+02
3.187757e+03,5.539902e+02
3.188722e+03,5.215055e+02
3.189686e+03,5.177091e+02
3.190650e+03,5.404476e+02
3.191614e+03,5.815305e+02
3.192579e+03,5.628997e+02
3.193543e+03,5.124688e+02
3.194507e+03,5.395927e+02
3.195471e+03,5.608543e+02
3.196436e+03,5.403550e+02
3.197400e+03,5.419775e+02
3.198364e+03,5.593869e+02
3.199328e+03,5.787701e+02
3.200292e+03,5.780055e+02
3.201257e+03,0.000000e+00
3.202221e+03,0.000000e+00
3.203185e+03,0.000000e+00
3.204149e+03,0.000000e+00
3.205114e+03,0.000000e+00
3.206078e+03,0.000000e+00
3.207042e+03,0.000000e+00
3.208006e+03,0.000000e+00
3.208970e+03,0.000000e+00
3.209935e+03,0.000000e+00
3.210899e+03,0.000000e+00
3.211863e+03,0.000000e+00
3.212827e+03,0.000000e+00
3.213792e+03,0.000000e+00
3.214756e+03,0.000000e+00
3.215720e+03,0.000000e+00
3.216684e+03,0.000000e+00
3.217649e+03,0.000000e+00
3.218613e+03,0.000000e+00
3.219577e+03,0.000000e+00
3.220541e+03,0.000000e+00
3.221506e+03,0.000000e+00
3.222470e+03,0.000000e+00
3.223434e+03,0.000000e+00
3.224398e+03,0.000000e+00
3.225363e+03,0.000000e+00
3.226327e+03,0.000000e+00
3.227291e+03,0.000000e+00
3.228255e+03,0.000000e+00
3.229219e+03,0.000000e+00
3.230184e+03,0.000000e+00
3.231148e+03,0.000000e+00
3.232112e+03,0.000000e+00
3.233076e+03,0.000000e+00
3.234041e+03,0.000000e+00
3.235005e+03,0.000000e+00
3.235969e+03,0.000000e+00
3.236933e+03,0.000000e+00
3.237897e+03,0.000000e+00
3.238862e+03,0.000000e+00
3.239826e+03,0.000000e+00
3.240790e+03,0.000000e+00
3.241754e+03,0.000000e+00
3.242719e+03,0.000000e+00
3.243683e+03,0.000000e+00
3.244647e+03,0.000000e+00
3.245611e+03,0.000000e+00
3.246576e+03,0.000000e+00
3.247540e+03,0.000000e+00
3.248504e+03,0.000000e+00
3.249468e+03,0.000000e+00
3.250433e+03,0.000000e+00
3.251397e+03,0.000000e+00
3.252361e+03,0.000000e+00
3.253325e+03,0.000000e+00
3.254290e+03,0.000000e+00
3.255254e+03,0.000000e+00
3.256218e+03,0.000000e+00
3.257182e+03,0.000000e+00
3.258146e+03,0.000000e+00
3.259111e+03,0.000000e+00
3.260075e+03,0.000000e+00
3.261039e+03,0.000000e+00
3.262003e+03,0.000000e+00
3.262968e+03,0.000000e+00
3.263932e+03,0.000000e+00
3.264896e+03,0.000000e+00
3.265860e+03,0.000000e+00
3.266824e+03,0.000000e+00
3.267789e+03,0.000000e+00
3.268753e+03,0.000000e+00
3.269717e+03,0.000000e+00
3.270681e+03,0.000000e+00
3.271646e+03,0.000000e+00
3.272610e+03,0.000000e+00
3.273574e+03,0.000000e+00
3.274538e+03,0.000000e+00
3.275503e+03,0.000000e+00
3.276467e+03,0.000000e+00
3.277431e+03,0.000000e+00
3.278395e+03,0.000000e+00
3.279360e+03,0.000000e+00
3.280324e+03,0.000000e+00
3.281288e+03,0.000000e+00
3.282252e+03,0.000000e+00
3.283217e+03,0.000000e+00
3.284181e+03,0.000000e+00
3.285145e+03,0.000000e+00
3.286109e+03,0.000000e+00
3.287073e+03,0.000000e+00
3.288038e+03,0.000000e+00
3.289002e+03,0.000000e+00
3.289966e+03,0.000000e+00
3.290930e+03,0.000000e+00
3.291895e+03,0.000000e+00
3.292859e+03,0.000000e+00
3.293823e+03,0.000000e+00
3.294787e+03,0.000000e+00
3.295751e+03,0.000000e+00
3.296716e+03,0.000000e+00
3.297680e+03,0.000000e+00
3.298644e+03,0.000000e+00
3.299608e+03,0.000000e+00
3.300573e+03,0.000000e+00
3.301537e+03,0.000000e+00
3.302501e+03,0.000000e+00
3.303465e+03,0.000000e+00
3.304430e+03,0.000000e+00
3.305394e+03,0.000000e+00
3.306358e+03,0.000000e+00
3.307322e+03,0.000000e+00
3.308287e+03,0.000000e+00
3.309251e+03,0.000000e+00
3.310215e+03,0.000000e+00
3.311179e+03,0.000000e+00
3.312144e+03,0.000000e+00
3.313108e+03,0.000000e+00
3.314072e+03,0.000000e+00
3.315036e+03,0.000000e+00
3.316000e+03,0.000000e+00
3.316965e+03,0.000000e+00
3.317929e+03,0.000000e+00
3.318893e+03,0.000000e+00
3.319857e+03,0.000000e+00
3.320822e+03,0.000000e+00
3.321786e+03,0.000000e+00
3.322750e+03,0.000000e+00
3.323714e+03,0.000000e+00
3.324678e+03,0.000000e+00
3.325643e+03,0.000000e+00
3.326607e+03,0.000000e+00
3.327571e+03,0.000000e+00
3.328535e+03,0.000000e+00
3.329500e+03,0.000000e+00
3.330464e+03,0.000000e+00
3.331428e+03,0.000000e+00
3.332392e+03,0.000000e+00
3.333357e+03,0.000000e+00
3.334321e+03,0.000000e+00
3.335285e+03,0.000000e+00
3.336249e+03,0.000000e+00
3.337214e+03,0.000000e+00
3.338178e+03,0.000000e+00
3.339142e+03,0.000000e+00
3.340106e+03,0.000000e+00
3.341071e+03,0.000000e+00
3.342035e+03,0.000000e+00
3.342999e+03,0.000000e+00
3.343963e+03,0.000000e+00
3.344927e+03,0.000000e+00
3.345892e+03,0.000000e+00
3.346856e+03,0.000000e+00
3.347820e+03,0.000000e+00
3.348784e+03,0.000000e+00
3.349749e+03,0.000000e+00
3.350713e+03,0.000000e+00
3.351677e+03,0.000000e+00
3.352641e+03,0.000000e+00
3.353605e+03,0.000000e+00
3.354570e+03,0.000000e+00
3.355534e+03,0.000000e+00
3.356498e+03,0.000000e+00
3.357462e+03,0.000000e+00
3.358427e+03,0.000000e+00
3.359391e+03,0.000000e+00
3.360355e+03,0.000000e+00
3.361319e+03,0.000000e+00
3.362284e+03,0.000000e+00
3.363248e+03,0.000000e+00
3.364212e+03,0.000000e+00
3.365176e+03,0.000000e+00
3.366141e+03,0.000000e+00
3.367105e+03,0.000000e+00
3.368069e+03,0.000000e+00
3.369033e+03,0.000000e+00
3.369998e+03,0.000000e+00
3.370962e+03,0.000000e+00
3.371926e+03,0.000000e+00
3.372890e+03,0.000000e+00
3.373854e+03,0.000000e+00
3.374819e+03,0.000000e+00
3.375783e+03,0.000000e+00
3.376747e+03,0.000000e+00
3.377711e+03,0.000000e+00
3.378676e+03,0.000000e+00
3.379640e+03,0.000000e+00
3.380604e+03,0.000000e+00
3.381568e+03,0.000000e+00
3.382532e+03,0.000000e+00
3.383497e+03,0.000000e+00
3.384461e+03,0.000000e+00
3.385425e+03,0.000000e+00
3.386389e+03,0.000000e+00
3.387354e+03,0.000000e+00
3.388318e+03,0.000000e+00
3.389282e+03,0.000000e+00
3.390246e+03,0.000000e+00
3.391211e+03,0.000000e+00
3.392175e+03,0.000000e+00
3.393139e+03,0.000000e+00
3.394103e+03,0.000000e+00
3.395068e+03,0.000000e+00
3.396032e+03,0.000000e+00
3.396996e+03,0.000000e+00
3.397960e+03,0.000000e+00
3.398925e+03,0.000000e+00
3.399889e+03,0.000000e+00
3.400853e+03,0.000000e+00
3.401817e+03,0.000000e+00
3.402781e+03,0.000000e+00
3.403746e+03,0.000000e+00
3.404710e+03,0.000000e+00
3.405674e+03,0.000000e+00
3.406638e+03,0.000000e+00
3.407603e+03,0.000000e+00
3.408567e+03,0.000000e+00
3.409531e+03,0.000000e+00
3.410495e+03,0.000000e+00
3.411459e+03,0.000000e+00
3.412424e+03,0.000000e+00
3.413388e+03,0.000000e+00
3.414352e+03,0.000000e+00
3.415316e+03,0.000000e+00
3.416281e+03,0.000000e+00
3.417245e+03,0.000000e+00
3.418209e+03,0.000000e+00
3.419173e+03,0.000000e+00
3.420138e+03,0.000000e+00
3.421102e+03,0.000000e+00
3.422066e+03,0.000000e+00
3.423030e+03,0.000000e+00
3.423995e+03,0.000000e+00
3.424959e+03,0.000000e+00
3.425923e+03,0.000000e+00
3.426887e+03,0.000000e+00
3.427852e+03,0.000000e+00
3.428816e+03,0.000000e+00
3.429780e+03,0.000000e+00
3.430744e+03,0.000000e+00
3.431708e+03,0.000000e+00
3.432673e+03,0.000000e+00
3.433637e+03,0.000000e+00
3.434601e+03,0.000000e+00
3.435565e+03,0.000000e+00
3.436530e+03,0.000000e+00
3.437494e+03,0.000000e+00
3.438458e+03,0.000000e+00
3.439422e+03,0.000000e+00
3.440386e+03,0.000000e+00
3.441351e+03,0.000000e+00
3.442315e+03,0.000000e+00
3.443279e+03,0.000000e+00
3.444243e+03,0.000000e+00
3.445208e+03,0.000000e+00
3.446172e+03,0.000000e+00
3.447136e+03,0.000000e+00
3.448100e+03,0.000000e+00
3.449065e+03,0.000000e+00
3.450029e+03,0.000000e+00
3.450993e+03,0.000000e+00
3.451957e+03,0.000000e+00
3.452922e+03,0.000000e+00
3.453886e+03,0.000000e+00
3.454850e+03,0.000000e+00
3.455814e+03,0.000000e+00
3.456779e+03,0.000000e+00
3.457743e+03,0.000000e+00
3.458707e+03,0.000000e+00
3.459671e+03,0.000000e+00
3.460635e+03,0.000000e+00
3.461600e+03,0.000000e+00
3.462564e+03,0.000000e+00
3.463528e+03,0.000000e+00
3.464492e+03,0.000000e+00
3.465457e+03,0.000000e+00
3.466421e+03,0.000000e+00
3.467385e+03,0.000000e+00
3.468349e+03,0.000000e+00
3.469313e+03,0.000000e+00
3.470278e+03,0.000000e+00
3.471242e+03,0.000000e+00
3.472206e+03,0.000000e+00
3.473170e+03,0.000000e+00
3.474135e+03,0.000000e+00
3.475099e+03,0.000000e+00
3.476063e+03,0.000000e+00
3.477027e+03,0.000000e+00
3.477992e+03,0.000000e+00
3.478956e+03,0.000000e+00
3.479920e+03,0.000000e+00
3.480884e+03,0.000000e+00
3.481849e+03,0.000000e+00
3.482813e+03,0.000000e+00
3.483777e+03,0.000000e+00
3.484741e+03,0.000000e+00
3.485706e+03,0.000000e+00
3.486670e+03,0.000000e+00
3.487634e+03,0.000000e+00
3.488598e+03,0.000000e+00
3.489563e+03,0.000000e+00
3.490527e+03,0.000000e+00
3.491491e+03,0.000000e+00
3.492455e+03,0.000000e+00
3.493419e+03,0.000000e+00
3.494384e+03,0.000000e+00
3.495348e+03,0.000000e+00
3.496312e+03,0.000000e+00
3.497276e+03,0.000000e+00
3.498240e+03,0.000000e+00
3.499205e+03,0.000000e+00
3.500169e+03,0.000000e+00
