9.931763e+01,0.000000e+00
1.002819e+02,0.000000e+00
1.012461e+02,0.000000e+00
1.022103e+02,0.000000e+00
1.031746e+02,0.000000e+00
1.041388e+02,0.000000e+00
1.051030e+02,0.000000e+00
1.060673e+02,0.000000e+00
1.070315e+02,0.000000e+00
1.079957e+02,0.000000e+00
1.089600e+02,0.000000e+00
1.099242e+02,0.000000e+00
1.108884e+02,0.000000e+00
1.118527e+02,0.000000e+00
1.128169e+02,0.000000e+00
1.137811e+02,0.000000e+00
1.147454e+02,0.000000e+00
1.157096e+02,0.000000e+00
1.166738e+02,0.000000e+00
1.176381e+02,0.000000e+00
1.186023e+02,0.000000e+00
1.195665e+02,0.000000e+00
1.205308e+02,0.000000e+00
1.214950e+02,0.000000e+00
1.224592e+02,0.000000e+00
1.234235e+02,0.000000e+00
1.243877e+02,0.000000e+00
1.253519e+02,0.000000e+00
1.263162e+02,0.000000e+00
1.272804e+02,0.000000e+00
1.282446e+02,0.000000e+00
1.292089e+02,0.000000e+00
1.301731e+02,0.000000e+00
1.311373e+02,0.000000e+00
1.321016e+02,0.000000e+00
1.330658e+02,0.000000e+00
1.340300e+02,0.000000e+00
1.349943e+02,0.000000e+00
1.359585e+02,0.000000e+00
1.369227e+02,0.000000e+00
1.378870e+02,0.000000e+00
1.388512e+02,0.000000e+00
1.398154e+02,0.000000e+00
1.407797e+02,0.000000e+00
1.417439e+02,0.000000e+00
1.427081e+02,0.000000e+00
1.436724e+02,0.000000e+00
1.446366e+02,0.000000e+00
1.456008e+02,0.000000e+00
1.465651e+02,0.000000e+00
1.475293e+02,0.000000e+00
1.484935e+02,0.000000e+00
1.494578e+02,0.000000e+00
1.504220e+02,0.000000e+00
1.513862e+02,0.000000e+00
1.523505e+02,0.000000e+00
1.533147e+02,0.000000e+00
1.542789e+02,0.000000e+00
1.552432e+02,0.000000e+00
1.562074e+02,0.000000e+00
1.571716e+02,0.000000e+00
1.581359e+02,0.000000e+00
1.591001e+02,0.000000e+00
1.600643e+02,0.000000e+00
1.610286e+02,0.000000e+00
1.619928e+02,0.000000e+00
1.629570e+02,0.000000e+00
1.639213e+02,0.000000e+00
1.648855e+02,0.000000e+00
1.658497e+02,0.000000e+00
1.668140e+02,0.000000e+00
1.677782e+02,0.000000e+00
1.687424e+02,0.000000e+00
1.697067e+02,0.000000e+00
1.706709e+02,0.000000e+00
1.716351e+02,0.000000e+00
1.725994e+02,0.000000e+00
1.735636e+02,0.000000e+00
1.745278e+02,0.000000e+00
1.754921e+02,0.000000e+00
1.764563e+02,0.000000e+00
1.774205e+02,0.000000e+00
1.783848e+02,0.000000e+00
1.793490e+02,0.000000e+00
1.803132e+02,0.000000e+00
1.812775e+02,0.000000e+00
1.822417e+02,0.000000e+00
1.832059e+02,0.000000e+00
1.841702e+02,0.000000e+00
1.851344e+02,0.000000e+00
1.860986e+02,0.000000e+00
1.870629e+02,0.000000e+00
1.880271e+02,0.000000e+00
1.889913e+02,0.000000e+00
1.899556e+02,0.000000e+00
1.909198e+02,0.000000e+00
1.918840e+02,0.000000e+00
1.928483e+02,0.000000e+00
1.938125e+02,0.000000e+00
1.947767e+02,0.000000e+00
1.957410e+02,0.000000e+00
1.967052e+02,0.000000e+00
1.976694e+02,0.000000e+00
1.986337e+02,0.000000e+00
1.995979e+02,3.248486e+03
2.005621e+02,3.243062e+03
2.015264e+02,3.242029e+03
2.024906e+02,3.251381e+03
2.034548e+02,3.260167e+03
2.044191e+02,3.264122e+03
2.053833e+02,3.263482e+03
2.063475e+02,3.261910e+03
2.073118e+02,3.264477e+03
2.082760e+02,3.274104e+03
2.092402e+02,3.278701e+03
2.102045e+02,3.274922e+03
2.111687e+02,3.269620e+03
2.121329e+02,3.267265e+03
2.130972e+02,3.269272e+03
2.140614e+02,3.273726e+03
2.150256e+02,3.277048e+03
2.159899e+02,3.278226e+03
2.169541e+02,3.280608e+03
2.179183e+02,3.286518e+03
2.188826e+02,3.294937e+03
2.198468e+02,3.303403e+03
2.208110e+02,3.310462e+03
2.217753e+02,3.315674e+03
2.227395e+02,3.318155e+03
2.237037e+02,3.317981e+03
2.246680e+02,3.316903e+03
2.256322e+02,3.315629e+03
2.265964e+02,3.314598e+03
2.275607e+02,3.315353e+03
2.285249e+02,3.320268e+03
2.294892e+02,3.330252e+03
2.304534e+02,3.340303e+03
2.314176e+02,3.342798e+03
2.323819e+02,3.339247e+03
2.333461e+02,3.340148e+03
2.343103e+02,3.355687e+03
2.352746e+02,3.377859e+03
2.362388e+02,3.389722e+03
2.372030e+02,3.384013e+03
2.381673e+02,3.368684e+03
2.391315e+02,3.361098e+03
2.400957e+02,3.367162e+03
2.410600e+02,3.375370e+03
2.420242e+02,3.383465e+03
2.429884e+02,3.391808e+03
2.439527e+02,3.399041e+03
2.449169e+02,3.402550e+03
2.458811e+02,3.400984e+03
2.468454e+02,3.402669e+03
2.478096e+02,3.410042e+03
2.487738e+02,3.418904e+03
2.497381e+02,3.426677e+03
2.507023e+02,3.432853e+03
2.516665e+02,3.437925e+03
2.526308e+02,3.442444e+03
2.535950e+02,3.445974e+03
2.545592e+02,3.446179e+03
2.555235e+02,3.441695e+03
2.564877e+02,3.435219e+03
2.574519e+02,3.430064e+03
2.584161e+02,3.428469e+03
2.593804e+02,3.430760e+03
2.603446e+02,3.435079e+03
2.613088e+02,3.438543e+03
2.622731e+02,3.444975e+03
2.632373e+02,3.458563e+03
2.642015e+02,3.477016e+03
2.651658e+02,3.492597e+03
2.661300e+02,3.496898e+03
2.670942e+02,3.488491e+03
2.680585e+02,3.483411e+03
2.690227e+02,3.486705e+03
2.699869e+02,3.492932e+03
2.709512e+02,3.498148e+03
2.719154e+02,3.501804e+03
2.728796e+02,3.505729e+03
2.738439e+02,3.512998e+03
2.748081e+02,3.525546e+03
2.757723e+02,3.538869e+03
2.767366e+02,3.546793e+03
2.777008e+02,3.549116e+03
2.786650e+02,3.549937e+03
2.796293e+02,3.551831e+03
2.805935e+02,3.554351e+03
2.815577e+02,3.555519e+03
2.825220e+02,3.554253e+03
2.834862e+02,3.551340e+03
2.844504e+02,3.549046e+03
2.854147e+02,3.550778e+03
2.863789e+02,3.549934e+03
2.873431e+02,3.542823e+03
2.883074e+02,3.532771e+03
2.892716e+02,3.525764e+03
2.902358e+02,3.524787e+03
2.912001e+02,3.529415e+03
2.921643e+02,3.532671e+03
2.931285e+02,3.533194e+03
2.940928e+02,3.535156e+03
2.950570e+02,3.541296e+03
2.960212e+02,3.550411e+03
2.969855e+02,3.558432e+03
2.979497e+02,3.561033e+03
2.989139e+02,3.556424e+03
2.998782e+02,3.552728e+03
3.008424e+02,3.552577e+03
3.018066e+02,3.554243e+03
3.027709e+02,3.555284e+03
3.037351e+02,3.554126e+03
3.046993e+02,3.551517e+03
3.056636e+02,3.549371e+03
3.066278e+02,3.547920e+03
3.075920e+02,3.548264e+03
3.085563e+02,3.552423e+03
3.095205e+02,3.559523e+03
3.104847e+02,3.565856e+03
3.114490e+02,3.568302e+03
3.124132e+02,3.567637e+03
3.133774e+02,3.565398e+03
3.143417e+02,3.560187e+03
3.153059e+02,3.555400e+03
3.162701e+02,3.558188e+03
3.172344e+02,3.572729e+03
3.181986e+02,3.585721e+03
3.191628e+02,3.592953e+03
3.201271e+02,3.596183e+03
3.210913e+02,3.598263e+03
3.220555e+02,3.600146e+03
3.230198e+02,3.601469e+03
3.239840e+02,3.601416e+03
3.249482e+02,3.595387e+03
3.259125e+02,3.592064e+03
3.268767e+02,3.596189e+03
3.278409e+02,3.606048e+03
3.288052e+02,3.616372e+03
3.297694e+02,3.622696e+03
3.307336e+02,3.624510e+03
3.316979e+02,3.624515e+03
3.326621e+02,3.622163e+03
3.336263e+02,3.617494e+03
3.345906e+02,3.609151e+03
3.355548e+02,3.597612e+03
3.365190e+02,3.589175e+03
3.374833e+02,3.592301e+03
3.384475e+02,3.608168e+03
3.394117e+02,3.622063e+03
3.403760e+02,3.626083e+03
3.413402e+02,3.624048e+03
3.423044e+02,3.623440e+03
3.432687e+02,3.625083e+03
3.442329e+02,3.628392e+03
3.451971e+02,3.633490e+03
3.461614e+02,3.639417e+03
3.471256e+02,3.642253e+03
3.480898e+02,3.639556e+03
3.490541e+02,3.629920e+03
3.500183e+02,3.623424e+03
3.509825e+02,3.621642e+03
3.519468e+02,3.623769e+03
3.529110e+02,3.629081e+03
3.538752e+02,3.636608e+03
3.548395e+02,3.644671e+03
3.558037e+02,3.651510e+03
3.567680e+02,3.657184e+03
3.577322e+02,3.661604e+03
3.586964e+02,3.665979e+03
3.596607e+02,3.670480e+03
3.606249e+02,3.674264e+03
3.615891e+02,3.675663e+03
3.625534e+02,3.673804e+03
3.635176e+02,3.668972e+03
3.644818e+02,3.661418e+03
3.654461e+02,3.654050e+03
3.664103e+02,3.649553e+03
3.673745e+02,3.649237e+03
3.683388e+02,3.652383e+03
3.693030e+02,3.657930e+03
3.702672e+02,3.664480e+03
3.712315e+02,3.670998e+03
3.721957e+02,3.677028e+03
3.731599e+02,3.682152e+03
3.741242e+02,3.687070e+03
3.750884e+02,3.697716e+03
3.760526e+02,3.704470e+03
3.770169e+02,3.703553e+03
3.779811e+02,3.698348e+03
3.789453e+02,3.692281e+03
3.799096e+02,3.686381e+03
3.808738e+02,3.680962e+03
3.818380e+02,3.678651e+03
3.828023e+02,3.684466e+03
3.837665e+02,3.690167e+03
3.847307e+02,3.692769e+03
3.856950e+02,3.692839e+03
3.866592e+02,3.691731e+03
3.876234e+02,3.687771e+03
3.885877e+02,3.682717e+03
3.895519e+02,3.682774e+03
3.905161e+02,3.689789e+03
3.914804e+02,3.698047e+03
3.924446e+02,3.701457e+03
3.934088e+02,3.699949e+03
3.943731e+02,3.699025e+03
3.953373e+02,3.700566e+03
3.963015e+02,3.703131e+03
3.972658e+02,3.705018e+03
3.982300e+02,3.706151e+03
3.991942e+02,3.707365e+03
4.001585e+02,3.707865e+03
4.011227e+02,3.703464e+03
4.020869e+02,3.700368e+03
4.030512e+02,3.698239e+03
4.040154e+02,3.696555e+03
4.049796e+02,3.695706e+03
4.059439e+02,3.695866e+03
4.069081e+02,3.696890e+03
4.078723e+02,3.698707e+03
4.088366e+02,3.700807e+03
4.098008e+02,3.701814e+03
4.107650e+02,3.702473e+03
4.117293e+02,3.703248e+03
4.126935e+02,3.705026e+03
4.136577e+02,3.708774e+03
4.146220e+02,3.713411e+03
4.155862e+02,3.717599e+03
4.165504e+02,3.721203e+03
4.175147e+02,3.724337e+03
4.184789e+02,3.726939e+03
4.194431e+02,3.728594e+03
4.204074e+02,3.729827e+03
4.213716e+02,3.729897e+03
4.223358e+02,3.729713e+03
4.233001e+02,3.730632e+03
4.242643e+02,3.733911e+03
4.252285e+02,3.738196e+03
4.261928e+02,3.739503e+03
4.271570e+02,3.736869e+03
4.281212e+02,3.734272e+03
4.290855e+02,3.732197e+03
4.300497e+02,3.730498e+03
4.310139e+02,3.729727e+03
4.319782e+02,3.731108e+03
4.329424e+02,3.733954e+03
4.339066e+02,3.737566e+03
4.348709e+02,3.741446e+03
4.358351e+02,3.743813e+03
4.367993e+02,3.743122e+03
4.377636e+02,3.738692e+03
4.387278e+02,3.733202e+03
4.396920e+02,3.722327e+03
4.406563e+02,3.714077e+03
4.416205e+02,3.715542e+03
4.425847e+02,3.728059e+03
4.435490e+02,3.743646e+03
4.445132e+02,3.751816e+03
4.454774e+02,3.751829e+03
4.464417e+02,3.750583e+03
4.474059e+02,3.746762e+03
4.483701e+02,3.742394e+03
4.493344e+02,3.740863e+03
4.502986e+02,3.746569e+03
4.512628e+02,3.752989e+03
4.522271e+02,3.754757e+03
4.531913e+02,3.752777e+03
4.541555e+02,3.751311e+03
4.551198e+02,3.753111e+03
4.560840e+02,3.758376e+03
4.570482e+02,3.759452e+03
4.580125e+02,3.754476e+03
4.589767e+02,3.750493e+03
4.599409e+02,3.748265e+03
4.609052e+02,3.747001e+03
4.618694e+02,3.746378e+03
4.628336e+02,3.747825e+03
4.637979e+02,3.751159e+03
4.647621e+02,3.752111e+03
4.657263e+02,3.750780e+03
4.666906e+02,3.749054e+03
4.676548e+02,3.746655e+03
4.686190e+02,3.742018e+03
4.695833e+02,3.739381e+03
4.705475e+02,3.740678e+03
4.715117e+02,3.744098e+03
4.724760e+02,3.748078e+03
4.734402e+02,3.752540e+03
4.744044e+02,3.756456e+03
4.753687e+02,3.756528e+03
4.763329e+02,3.747766e+03
4.772971e+02,3.743154e+03
4.782614e+02,3.747553e+03
4.792256e+02,3.756230e+03
4.801898e+02,3.762757e+03
4.811541e+02,3.761827e+03
4.821183e+02,3.758656e+03
4.830826e+02,3.762053e+03
4.840468e+02,3.772174e+03
4.850110e+02,3.780823e+03
4.859753e+02,3.783790e+03
4.869395e+02,3.780396e+03
4.879037e+02,3.774691e+03
4.888680e+02,3.763158e+03
4.898322e+02,3.753073e+03
4.907964e+02,3.750293e+03
4.917607e+02,3.754065e+03
4.927249e+02,3.758154e+03
4.936891e+02,3.754682e+03
4.946534e+02,3.742716e+03
4.956176e+02,3.737356e+03
4.965818e+02,3.743288e+03
4.975461e+02,3.752773e+03
4.985103e+02,3.758870e+03
4.994745e+02,3.760281e+03
5.004388e+02,3.759854e+03
5.014030e+02,3.757315e+03
5.023672e+02,3.755273e+03
5.033315e+02,3.759224e+03
5.042957e+02,3.771382e+03
5.052599e+02,3.785460e+03
5.062242e+02,3.787891e+03
5.071884e+02,3.766418e+03
5.081526e+02,3.753540e+03
5.091169e+02,3.760497e+03
5.100811e+02,3.775778e+03
5.110453e+02,3.785219e+03
5.120095e+02,3.781481e+03
5.129738e+02,3.772927e+03
5.139380e+02,3.768777e+03
5.149022e+02,3.769145e+03
5.158665e+02,3.773450e+03
5.168307e+02,3.781905e+03
5.177949e+02,3.792337e+03
5.187592e+02,3.793966e+03
5.197234e+02,3.786039e+03
5.206876e+02,3.777048e+03
5.216519e+02,3.768612e+03
5.226161e+02,3.761901e+03
5.235803e+02,3.758439e+03
5.245446e+02,3.761247e+03
5.255088e+02,3.769089e+03
5.264730e+02,3.772696e+03
5.274373e+02,3.769357e+03
5.284015e+02,3.766050e+03
5.293657e+02,3.770312e+03
5.303300e+02,3.783963e+03
5.312942e+02,3.790651e+03
5.322584e+02,3.782084e+03
5.332227e+02,3.770613e+03
5.341869e+02,3.768210e+03
5.351511e+02,3.776327e+03
5.361154e+02,3.786640e+03
5.370796e+02,3.787322e+03
5.380438e+02,3.775101e+03
5.390081e+02,3.768936e+03
5.399723e+02,3.775887e+03
5.409365e+02,3.788044e+03
5.419008e+02,3.797031e+03
5.428650e+02,3.799860e+03
5.438292e+02,3.801014e+03
5.447935e+02,3.802114e+03
5.457577e+02,3.803489e+03
5.467219e+02,3.806048e+03
5.476862e+02,3.810391e+03
5.486504e+02,3.815759e+03
5.496146e+02,3.820452e+03
5.505789e+02,3.825575e+03
5.515431e+02,3.827689e+03
5.525073e+02,3.824144e+03
5.534716e+02,3.820308e+03
5.544358e+02,3.822100e+03
5.554000e+02,3.836345e+03
5.563643e+02,3.851522e+03
5.573285e+02,3.855714e+03
5.582927e+02,3.849444e+03
5.592570e+02,3.839133e+03
5.602212e+02,3.828385e+03
5.611854e+02,3.816930e+03
5.621497e+02,3.808605e+03
5.631139e+02,3.805774e+03
5.640781e+02,3.802128e+03
5.650424e+02,3.797282e+03
5.660066e+02,3.791532e+03
5.669708e+02,3.785220e+03
5.679351e+02,3.778829e+03
5.688993e+02,3.772692e+03
5.698635e+02,3.766637e+03
5.708278e+02,3.760890e+03
5.717920e+02,3.757355e+03
5.727562e+02,3.757333e+03
5.737205e+02,3.761805e+03
5.746847e+02,3.763119e+03
5.756489e+02,3.755768e+03
5.766132e+02,3.748949e+03
5.775774e+02,3.750053e+03
5.785416e+02,3.759616e+03
5.795059e+02,3.767928e+03
5.804701e+02,3.766267e+03
5.814343e+02,3.757163e+03
5.823986e+02,3.747831e+03
5.833628e+02,3.739001e+03
5.843270e+02,3.733019e+03
5.852913e+02,3.732946e+03
5.862555e+02,3.744959e+03
5.872197e+02,3.753730e+03
5.881840e+02,3.757247e+03
5.891482e+02,3.758105e+03
5.901124e+02,3.757919e+03
5.910767e+02,3.756816e+03
5.920409e+02,3.756829e+03
5.930051e+02,3.760574e+03
5.939694e+02,3.767083e+03
5.949336e+02,3.773061e+03
5.958978e+02,3.778439e+03
5.968621e+02,3.781669e+03
5.978263e+02,3.779432e+03
5.987905e+02,3.762653e+03
5.997548e+02,3.752327e+03
6.007190e+02,3.754743e+03
6.016832e+02,3.763538e+03
6.026475e+02,3.770229e+03
6.036117e+02,3.769263e+03
6.045759e+02,3.766882e+03
6.055402e+02,3.772247e+03
6.065044e+02,3.783760e+03
6.074686e+02,3.791836e+03
6.084329e+02,3.792862e+03
6.093971e+02,3.788236e+03
6.103613e+02,3.783027e+03
6.113256e+02,3.778502e+03
6.122899e+02,3.772324e+03
6.132541e+02,3.762406e+03
6.142183e+02,3.750626e+03
6.151826e+02,3.740429e+03
6.161468e+02,3.735323e+03
6.171110e+02,3.732885e+03
6.180753e+02,3.729010e+03
6.190395e+02,3.723609e+03
6.200037e+02,3.718949e+03
6.209680e+02,3.716040e+03
6.219322e+02,3.715421e+03
6.228964e+02,3.717822e+03
6.238607e+02,3.728840e+03
6.248249e+02,3.736203e+03
6.257891e+02,3.732301e+03
6.267534e+02,3.719683e+03
6.277176e+02,3.708930e+03
6.286818e+02,3.706618e+03
6.296461e+02,3.709129e+03
6.306103e+02,3.713970e+03
6.315745e+02,3.720626e+03
6.325388e+02,3.725280e+03
6.335030e+02,3.723491e+03
6.344672e+02,3.714353e+03
6.354315e+02,3.709065e+03
6.363957e+02,3.709862e+03
6.373599e+02,3.710198e+03
6.383242e+02,3.706948e+03
6.392884e+02,3.701105e+03
6.402526e+02,3.697475e+03
6.412169e+02,3.699444e+03
6.421811e+02,3.702836e+03
6.431453e+02,3.703343e+03
6.441096e+02,3.700962e+03
6.450738e+02,3.698739e+03
6.460380e+02,3.700917e+03
6.470023e+02,3.708452e+03
6.479665e+02,3.713597e+03
6.489307e+02,3.714991e+03
6.498950e+02,3.713757e+03
6.508592e+02,3.709426e+03
6.518234e+02,3.701252e+03
6.527877e+02,3.693513e+03
6.537519e+02,3.686255e+03
6.547161e+02,3.680610e+03
6.556804e+02,3.678967e+03
6.566446e+02,3.681052e+03
6.576088e+02,3.682390e+03
6.585731e+02,3.677203e+03
6.595373e+02,3.666897e+03
6.605015e+02,3.659752e+03
6.614658e+02,3.656541e+03
6.624300e+02,3.656768e+03
6.633942e+02,3.660602e+03
6.643585e+02,3.670655e+03
6.653227e+02,3.676916e+03
6.662869e+02,3.676799e+03
6.672512e+02,3.673905e+03
6.682154e+02,3.669948e+03
6.691796e+02,3.664837e+03
6.701439e+02,3.659535e+03
6.711081e+02,3.653656e+03
6.720723e+02,3.648450e+03
6.730366e+02,3.648383e+03
6.740008e+02,3.654918e+03
6.749650e+02,3.661622e+03
6.759293e+02,3.659772e+03
6.768935e+02,3.644882e+03
6.778577e+02,3.636268e+03
6.788220e+02,3.638948e+03
6.797862e+02,3.646418e+03
6.807504e+02,3.653880e+03
6.817147e+02,3.660510e+03
6.826789e+02,3.664261e+03
6.836431e+02,3.661935e+03
6.846074e+02,3.656045e+03
6.855716e+02,3.650169e+03
6.865358e+02,3.645665e+03
6.875001e+02,3.641797e+03
6.884643e+02,3.636796e+03
6.894285e+02,3.630841e+03
6.903928e+02,3.627979e+03
6.913570e+02,3.629503e+03
6.923212e+02,3.631842e+03
6.932855e+02,3.631568e+03
6.942497e+02,3.628337e+03
6.952139e+02,3.626311e+03
6.961782e+02,3.624717e+03
6.971424e+02,3.623999e+03
6.981066e+02,3.624059e+03
6.990709e+02,3.623540e+03
7.000351e+02,3.621287e+03
7.009993e+02,3.619349e+03
7.019636e+02,3.617500e+03
7.029278e+02,3.611531e+03
7.038920e+02,3.600108e+03
7.048563e+02,3.588357e+03
7.058205e+02,3.584708e+03
7.067847e+02,3.594333e+03
7.077490e+02,3.599260e+03
7.087132e+02,3.597956e+03
7.096774e+02,3.595838e+03
7.106417e+02,3.594130e+03
7.116059e+02,3.592155e+03
7.125701e+02,3.589982e+03
7.135344e+02,3.586907e+03
7.144986e+02,3.585379e+03
7.154628e+02,3.588808e+03
7.164271e+02,3.596774e+03
7.173913e+02,3.602466e+03
7.183555e+02,3.596652e+03
7.193198e+02,3.581861e+03
7.202840e+02,3.571930e+03
7.212482e+02,3.569493e+03
7.222125e+02,3.570839e+03
7.231767e+02,3.571558e+03
7.241409e+02,3.569791e+03
7.251052e+02,3.569694e+03
7.260694e+02,3.573828e+03
7.270336e+02,3.577231e+03
7.279979e+02,3.578106e+03
7.289621e+02,3.576153e+03
7.299263e+02,3.572360e+03
7.308906e+02,3.563136e+03
7.318548e+02,3.553749e+03
7.328190e+02,3.551942e+03
7.337833e+02,3.557890e+03
7.347475e+02,3.564177e+03
7.357117e+02,3.562632e+03
7.366760e+02,3.554940e+03
7.376402e+02,3.554282e+03
7.386044e+02,3.564361e+03
7.395687e+02,3.573091e+03
7.405329e+02,3.568246e+03
7.414971e+02,3.544137e+03
7.424614e+02,3.529676e+03
7.434256e+02,3.532957e+03
7.443898e+02,3.541484e+03
7.453541e+02,3.549244e+03
7.463183e+02,3.553909e+03
7.472825e+02,3.555592e+03
7.482468e+02,3.555158e+03
7.492110e+02,3.551892e+03
7.501752e+02,3.544306e+03
7.511395e+02,3.534675e+03
7.521037e+02,3.528292e+03
7.530679e+02,3.529818e+03
7.540322e+02,3.536944e+03
7.549964e+02,3.538588e+03
7.559606e+02,3.534120e+03
7.569249e+02,3.529215e+03
7.578891e+02,3.527602e+03
7.588533e+02,3.529874e+03
7.598176e+02,3.531650e+03
7.607818e+02,3.530326e+03
7.617460e+02,3.525385e+03
7.627103e+02,3.515363e+03
7.636745e+02,3.503800e+03
7.646387e+02,3.497262e+03
7.656030e+02,3.500271e+03
7.665672e+02,3.507499e+03
7.675314e+02,3.515902e+03
7.684957e+02,3.521958e+03
7.694599e+02,3.520471e+03
7.704241e+02,3.507105e+03
7.713884e+02,3.489298e+03
7.723526e+02,3.486802e+03
7.733168e+02,3.501931e+03
7.742811e+02,3.519783e+03
7.752453e+02,3.532871e+03
7.762095e+02,3.540182e+03
7.771738e+02,3.543014e+03
7.781380e+02,3.540269e+03
7.791022e+02,3.531284e+03
7.800665e+02,3.510869e+03
7.810307e+02,3.487145e+03
7.819949e+02,3.472876e+03
7.829592e+02,3.478181e+03
7.839234e+02,3.488586e+03
7.848876e+02,3.499688e+03
7.858519e+02,3.509436e+03
7.868161e+02,3.514863e+03
7.877803e+02,3.514420e+03
7.887446e+02,3.509957e+03
7.897088e+02,3.503860e+03
7.906730e+02,3.497616e+03
7.916373e+02,3.493279e+03
7.926015e+02,3.489820e+03
7.935657e+02,3.485068e+03
7.945300e+02,3.479192e+03
7.954942e+02,3.473952e+03
7.964584e+02,3.466747e+03
7.974227e+02,3.457460e+03
7.983869e+02,3.451334e+03
7.993511e+02,3.450903e+03
8.003154e+02,3.458420e+03
8.012796e+02,3.460866e+03
8.022438e+02,3.453978e+03
8.032081e+02,3.445210e+03
8.041723e+02,3.441086e+03
8.051365e+02,3.442673e+03
8.061008e+02,3.444334e+03
8.070650e+02,3.441191e+03
8.080292e+02,3.434337e+03
8.089935e+02,3.426092e+03
8.099577e+02,3.417924e+03
8.109219e+02,3.412638e+03
8.118862e+02,3.414788e+03
8.128504e+02,3.423961e+03
8.138146e+02,3.427128e+03
8.147789e+02,3.421932e+03
8.157431e+02,3.413630e+03
8.167073e+02,3.406822e+03
8.176716e+02,3.403310e+03
8.186358e+02,3.401704e+03
8.196000e+02,3.401036e+03
8.205643e+02,3.402780e+03
8.215285e+02,3.407730e+03
8.224927e+02,3.414953e+03
8.234570e+02,3.419213e+03
8.244212e+02,3.416611e+03
8.253854e+02,3.413178e+03
8.263497e+02,3.413021e+03
8.273139e+02,3.413858e+03
8.282781e+02,3.411295e+03
8.292424e+02,3.400676e+03
8.302066e+02,3.389488e+03
8.311708e+02,3.389338e+03
8.321351e+02,3.398087e+03
8.330993e+02,3.404798e+03
8.340635e+02,3.402923e+03
8.350278e+02,3.394773e+03
8.359920e+02,3.387571e+03
8.369562e+02,3.381022e+03
8.379205e+02,3.377925e+03
8.388847e+02,3.380509e+03
8.398489e+02,3.386451e+03
8.408132e+02,3.389324e+03
8.417774e+02,3.388811e+03
8.427416e+02,3.384407e+03
8.437059e+02,3.370943e+03
8.446701e+02,3.356397e+03
8.456343e+02,3.350164e+03
8.465986e+02,3.358587e+03
8.475628e+02,3.364242e+03
8.485270e+02,3.358062e+03
8.494913e+02,3.347873e+03
8.504555e+02,3.342203e+03
8.514197e+02,3.343523e+03
8.523840e+02,3.347431e+03
8.533482e+02,3.351794e+03
8.543124e+02,3.354752e+03
8.552767e+02,3.352079e+03
8.562409e+02,3.343208e+03
8.572051e+02,3.333650e+03
8.581694e+02,3.331143e+03
8.591336e+02,3.335276e+03
8.600978e+02,3.334353e+03
8.610621e+02,3.327143e+03
8.620263e+02,3.321866e+03
8.629905e+02,3.324917e+03
8.639548e+02,3.335909e+03
8.649190e+02,3.338217e+03
8.658832e+02,3.326805e+03
8.668475e+02,3.316656e+03
8.678117e+02,3.315713e+03
8.687759e+02,3.321724e+03
8.697402e+02,3.325225e+03
8.707044e+02,3.319884e+03
8.716686e+02,3.314558e+03
8.726329e+02,3.316741e+03
8.735971e+02,3.322907e+03
8.745613e+02,3.325029e+03
8.755256e+02,3.317970e+03
8.764898e+02,3.310691e+03
8.774540e+02,3.308121e+03
8.784183e+02,3.308361e+03
8.793825e+02,3.308648e+03
8.803467e+02,3.307848e+03
8.813110e+02,3.306794e+03
8.822752e+02,3.309092e+03
8.832394e+02,3.313418e+03
8.842037e+02,3.311099e+03
8.851679e+02,3.298618e+03
8.861321e+02,3.283208e+03
8.870964e+02,3.275606e+03
8.880606e+02,3.275948e+03
8.890248e+02,3.277616e+03
8.899891e+02,3.282783e+03
8.909533e+02,3.286684e+03
8.919175e+02,3.282961e+03
8.928818e+02,3.268395e+03
8.938460e+02,3.260627e+03
8.948102e+02,3.262840e+03
8.957745e+02,3.266774e+03
8.967387e+02,3.268510e+03
8.977029e+02,3.267445e+03
8.986672e+02,3.266248e+03
8.996314e+02,3.270676e+03
9.005956e+02,3.273046e+03
9.015599e+02,3.267904e+03
9.025241e+02,3.257032e+03
9.034883e+02,3.246619e+03
9.044526e+02,3.237272e+03
9.054168e+02,3.229032e+03
9.063810e+02,3.225843e+03
9.073453e+02,3.226757e+03
9.083095e+02,3.226712e+03
9.092737e+02,3.221352e+03
9.102380e+02,3.215464e+03
9.112022e+02,3.216874e+03
9.121664e+02,3.222099e+03
9.131307e+02,3.222651e+03
9.140949e+02,3.216991e+03
9.150591e+02,3.210441e+03
9.160234e+02,3.207807e+03
9.169876e+02,3.207029e+03
9.179518e+02,3.205222e+03
9.189161e+02,3.202191e+03
9.198803e+02,3.197807e+03
9.208445e+02,3.192291e+03
9.218088e+02,3.186194e+03
9.227730e+02,3.183715e+03
9.237372e+02,3.184972e+03
9.247015e+02,3.187446e+03
9.256657e+02,3.190154e+03
9.266299e+02,3.192936e+03
9.275942e+02,3.193885e+03
9.285584e+02,3.190542e+03
9.295226e+02,3.186875e+03
9.304869e+02,3.184604e+03
9.314511e+02,3.183965e+03
9.324153e+02,3.184155e+03
9.333796e+02,3.186166e+03
9.343438e+02,3.187566e+03
9.353080e+02,3.188121e+03
9.362723e+02,3.185924e+03
9.372365e+02,3.179476e+03
9.382007e+02,3.167634e+03
9.391650e+02,3.157525e+03
9.401292e+02,3.152788e+03
9.410934e+02,3.150824e+03
9.420577e+02,3.147480e+03
9.430219e+02,3.141256e+03
9.439861e+02,3.136268e+03
9.449504e+02,3.139379e+03
9.459146e+02,3.146540e+03
9.468788e+02,3.149462e+03
9.478431e+02,3.145725e+03
9.488073e+02,3.139127e+03
9.497715e+02,3.135118e+03
9.507358e+02,3.132464e+03
9.517000e+02,3.126232e+03
9.526642e+02,3.117793e+03
9.536285e+02,3.112662e+03
9.545927e+02,3.115179e+03
9.555569e+02,3.122026e+03
9.565212e+02,3.122129e+03
9.574854e+02,3.116404e+03
9.584496e+02,3.110589e+03
9.594139e+02,3.104913e+03
9.603781e+02,3.099795e+03
9.613423e+02,3.099725e+03
9.623066e+02,3.106645e+03
9.632708e+02,3.109989e+03
9.642350e+02,3.107417e+03
9.651993e+02,3.102710e+03
9.661635e+02,3.100298e+03
9.671277e+02,3.101912e+03
9.680920e+02,3.098728e+03
9.690562e+02,3.087716e+03
9.700204e+02,3.074524e+03
9.709847e+02,3.063320e+03
9.719489e+02,3.054271e+03
9.729131e+02,3.051341e+03
9.738774e+02,3.063605e+03
9.748416e+02,3.074349e+03
9.758058e+02,3.072766e+03
9.767701e+02,3.060764e+03
9.777343e+02,3.053853e+03
9.786985e+02,3.060358e+03
9.796628e+02,3.064788e+03
9.806270e+02,3.061217e+03
9.815912e+02,3.052552e+03
9.825555e+02,3.043945e+03
9.835197e+02,3.036248e+03
9.844839e+02,3.032287e+03
9.854482e+02,3.038333e+03
9.864124e+02,3.046769e+03
9.873766e+02,3.046548e+03
9.883409e+02,3.033915e+03
9.893051e+02,3.023524e+03
9.902693e+02,3.027129e+03
9.912336e+02,3.036262e+03
9.921978e+02,3.040797e+03
9.931620e+02,3.039014e+03
9.941263e+02,3.035571e+03
9.950905e+02,3.033839e+03
9.960547e+02,3.032908e+03
9.970190e+02,3.033051e+03
9.979832e+02,3.032820e+03
9.989474e+02,3.027887e+03
9.999117e+02,3.013839e+03
1.000876e+03,2.998432e+03
1.001840e+03,2.995347e+03
1.002804e+03,3.001640e+03
1.003769e+03,3.003917e+03
1.004733e+03,2.995552e+03
1.005697e+03,2.985149e+03
1.006661e+03,2.987942e+03
1.007626e+03,3.001026e+03
1.008590e+03,3.010808e+03
1.009554e+03,3.014222e+03
1.010518e+03,3.011981e+03
1.011482e+03,3.003402e+03
1.012447e+03,2.989603e+03
1.013411e+03,2.980742e+03
1.014375e+03,2.978940e+03
1.015339e+03,2.978610e+03
1.016304e+03,2.974020e+03
1.017268e+03,2.966530e+03
1.018232e+03,2.968449e+03
1.019196e+03,2.981429e+03
1.020161e+03,2.986722e+03
1.021125e+03,2.975205e+03
1.022089e+03,2.955318e+03
1.023053e+03,2.947886e+03
1.024018e+03,2.954541e+03
1.024982e+03,2.960129e+03
1.025946e+03,2.961514e+03
1.026910e+03,2.959114e+03
1.027875e+03,2.954811e+03
1.028839e+03,2.949378e+03
1.029803e+03,2.945331e+03
1.030767e+03,2.943095e+03
1.031731e+03,2.941882e+03
1.032696e+03,2.940735e+03
1.033660e+03,2.939388e+03
1.034624e+03,2.937494e+03
1.035588e+03,2.936185e+03
1.036552e+03,2.934322e+03
1.037517e+03,2.929411e+03
1.038481e+03,2.922275e+03
1.039445e+03,2.919441e+03
1.040409e+03,2.924649e+03
1.041374e+03,2.928173e+03
1.042338e+03,2.928459e+03
1.043302e+03,2.927600e+03
1.044266e+03,2.927758e+03
1.045231e+03,2.931345e+03
1.046195e+03,2.930712e+03
1.047159e+03,2.922650e+03
1.048123e+03,2.914297e+03
1.049088e+03,2.910777e+03
1.050052e+03,2.913781e+03
1.051016e+03,2.915706e+03
1.051980e+03,2.915258e+03
1.052945e+03,2.914363e+03
1.053909e+03,2.911521e+03
1.054873e+03,2.906422e+03
1.055837e+03,2.902959e+03
1.056802e+03,2.906698e+03
1.057766e+03,2.907560e+03
1.058730e+03,2.900062e+03
1.059694e+03,2.890961e+03
1.060658e+03,2.888766e+03
1.061623e+03,2.902575e+03
1.062587e+03,2.908902e+03
1.063551e+03,2.899322e+03
1.064515e+03,2.886236e+03
1.065479e+03,2.876704e+03
1.066444e+03,2.871881e+03
1.067408e+03,2.870491e+03
1.068372e+03,2.874057e+03
1.069336e+03,2.879216e+03
1.070301e+03,2.883983e+03
1.071265e+03,2.887467e+03
1.072229e+03,2.889640e+03
1.073193e+03,2.890687e+03
1.074158e+03,2.890089e+03
1.075122e+03,2.886854e+03
1.076086e+03,2.882434e+03
1.077050e+03,2.879057e+03
1.078015e+03,2.878759e+03
1.078979e+03,2.880194e+03
1.079943e+03,2.883251e+03
1.080907e+03,2.886875e+03
1.081872e+03,2.889933e+03
1.082836e+03,2.891530e+03
1.083800e+03,2.891055e+03
1.084764e+03,2.889870e+03
1.085729e+03,2.886617e+03
1.086693e+03,2.878122e+03
1.087657e+03,2.866507e+03
1.088621e+03,2.857902e+03
1.089585e+03,2.854172e+03
1.090550e+03,2.851434e+03
1.091514e+03,2.853450e+03
1.092478e+03,2.855749e+03
1.093442e+03,2.852004e+03
1.094406e+03,2.838335e+03
1.095371e+03,2.828760e+03
1.096335e+03,2.827231e+03
1.097299e+03,2.828525e+03
1.098263e+03,2.830609e+03
1.099228e+03,2.832772e+03
1.100192e+03,2.832302e+03
1.101156e+03,2.825229e+03
1.102120e+03,2.818686e+03
1.103085e+03,2.815790e+03
1.104049e+03,2.815571e+03
1.105013e+03,2.815846e+03
1.105977e+03,2.820365e+03
1.106942e+03,2.820561e+03
1.107906e+03,2.810334e+03
1.108870e+03,2.798557e+03
1.109834e+03,2.793725e+03
1.110799e+03,2.798587e+03
1.111763e+03,2.801918e+03
1.112727e+03,2.802072e+03
1.113691e+03,2.801720e+03
1.114656e+03,2.801254e+03
1.115620e+03,2.800814e+03
1.116584e+03,2.801359e+03
1.117548e+03,2.804395e+03
1.118512e+03,2.804353e+03
1.119477e+03,2.798421e+03
1.120441e+03,2.789514e+03
1.121405e+03,2.782461e+03
1.122369e+03,2.780967e+03
1.123334e+03,2.775967e+03
1.124298e+03,2.763656e+03
1.125262e+03,2.752121e+03
1.126226e+03,2.747922e+03
1.127191e+03,2.752367e+03
1.128155e+03,2.754113e+03
1.129119e+03,2.750479e+03
1.130083e+03,2.746423e+03
1.131047e+03,2.743324e+03
1.132012e+03,2.740430e+03
1.132976e+03,2.737341e+03
1.133940e+03,2.733924e+03
1.134904e+03,2.730303e+03
1.135869e+03,2.727317e+03
1.136833e+03,2.724909e+03
1.137797e+03,2.723019e+03
1.138761e+03,2.722991e+03
1.139726e+03,2.721779e+03
1.140690e+03,2.718776e+03
1.141654e+03,2.714444e+03
1.142618e+03,2.707593e+03
1.143583e+03,2.699398e+03
1.144547e+03,2.698940e+03
1.145511e+03,2.708812e+03
1.146475e+03,2.716152e+03
1.147439e+03,2.716892e+03
1.148404e+03,2.713800e+03
1.149368e+03,2.710024e+03
1.150332e+03,2.704897e+03
1.151296e+03,2.703501e+03
1.152261e+03,2.706137e+03
1.153225e+03,2.706082e+03
1.154189e+03,2.698576e+03
1.155153e+03,2.685672e+03
1.156118e+03,2.675126e+03
1.157082e+03,2.667808e+03
1.158046e+03,2.663615e+03
1.159010e+03,2.661681e+03
1.159974e+03,2.661598e+03
1.160939e+03,2.662878e+03
1.161903e+03,2.664911e+03
1.162867e+03,2.668119e+03
1.163831e+03,2.672590e+03
1.164796e+03,2.675078e+03
1.165760e+03,2.672215e+03
1.166724e+03,2.665817e+03
1.167688e+03,2.658206e+03
1.168653e+03,2.650176e+03
1.169617e+03,2.645417e+03
1.170581e+03,2.648709e+03
1.171545e+03,2.654326e+03
1.172510e+03,2.653492e+03
1.173474e+03,2.648390e+03
1.174438e+03,2.643108e+03
1.175402e+03,2.638480e+03
1.176366e+03,2.633911e+03
1.177331e+03,2.626663e+03
1.178295e+03,2.621059e+03
1.179259e+03,2.624742e+03
1.180223e+03,2.635861e+03
1.181188e+03,2.642934e+03
1.182152e+03,2.635354e+03
1.183116e+03,2.625672e+03
1.184080e+03,2.624184e+03
1.185045e+03,2.627628e+03
1.186009e+03,2.629358e+03
1.186973e+03,2.628230e+03
1.187937e+03,2.625148e+03
1.188901e+03,2.617264e+03
1.189866e+03,2.609150e+03
1.190830e+03,2.604293e+03
1.191794e+03,2.602594e+03
1.192758e+03,2.601230e+03
1.193723e+03,2.599777e+03
1.194687e+03,2.600516e+03
1.195651e+03,2.606705e+03
1.196615e+03,2.614894e+03
1.197580e+03,2.616526e+03
1.198544e+03,2.604005e+03
1.199508e+03,2.592744e+03
1.200472e+03,2.585098e+03
1.201437e+03,2.580196e+03
1.202401e+03,2.578271e+03
1.203365e+03,2.580699e+03
1.204329e+03,2.580115e+03
1.205293e+03,2.574333e+03
1.206258e+03,2.570033e+03
1.207222e+03,2.569972e+03
1.208186e+03,2.572772e+03
1.209150e+03,2.575499e+03
1.210115e+03,2.577554e+03
1.211079e+03,2.577548e+03
1.212043e+03,2.575378e+03
1.213007e+03,2.571685e+03
1.213972e+03,2.568070e+03
1.214936e+03,2.564986e+03
1.215900e+03,2.560247e+03
1.216864e+03,2.554094e+03
1.217828e+03,2.549348e+03
1.218793e+03,2.547726e+03
1.219757e+03,2.548509e+03
1.220721e+03,2.552052e+03
1.221685e+03,2.557014e+03
1.222650e+03,2.558339e+03
1.223614e+03,2.553763e+03
1.224578e+03,2.547391e+03
1.225542e+03,2.541368e+03
1.226507e+03,2.538116e+03
1.227471e+03,2.541702e+03
1.228435e+03,2.550013e+03
1.229399e+03,2.556106e+03
1.230364e+03,2.561021e+03
1.231328e+03,2.559392e+03
1.232292e+03,2.544267e+03
1.233256e+03,2.524726e+03
1.234220e+03,2.510845e+03
1.235185e+03,2.505987e+03
1.236149e+03,2.504184e+03
1.237113e+03,2.505901e+03
1.238077e+03,2.509406e+03
1.239042e+03,2.513184e+03
1.240006e+03,2.515820e+03
1.240970e+03,2.514958e+03
1.241934e+03,2.506442e+03
1.242899e+03,2.502103e+03
1.243863e+03,2.508097e+03
1.244827e+03,2.516329e+03
1.245791e+03,2.514685e+03
1.246755e+03,2.500954e+03
1.247720e+03,2.489944e+03
1.248684e+03,2.482046e+03
1.249648e+03,2.478089e+03
1.250612e+03,2.479474e+03
1.251577e+03,2.483670e+03
1.252541e+03,2.482744e+03
1.253505e+03,2.477148e+03
1.254469e+03,2.472490e+03
1.255434e+03,2.470846e+03
1.256398e+03,2.471143e+03
1.257362e+03,2.472399e+03
1.258326e+03,2.473236e+03
1.259291e+03,2.471718e+03
1.260255e+03,2.467663e+03
1.261219e+03,2.462578e+03
1.262183e+03,2.457540e+03
1.263147e+03,2.454497e+03
1.264112e+03,2.456699e+03
1.265076e+03,2.460632e+03
1.266040e+03,2.460365e+03
1.267004e+03,2.453388e+03
1.267969e+03,2.446783e+03
1.268933e+03,2.442555e+03
1.269897e+03,2.441618e+03
1.270861e+03,2.443407e+03
1.271826e+03,2.445938e+03
1.272790e+03,2.448167e+03
1.273754e+03,2.452136e+03
1.274718e+03,2.454012e+03
1.275682e+03,2.454711e+03
1.276647e+03,2.453351e+03
1.277611e+03,2.447101e+03
1.278575e+03,2.434600e+03
1.279539e+03,2.425282e+03
1.280504e+03,2.420676e+03
1.281468e+03,2.418739e+03
1.282432e+03,2.417495e+03
1.283396e+03,2.417597e+03
1.284361e+03,2.422642e+03
1.285325e+03,2.430288e+03
1.286289e+03,2.432310e+03
1.287253e+03,2.426309e+03
1.288218e+03,2.418484e+03
1.289182e+03,2.414102e+03
1.290146e+03,2.412378e+03
1.291110e+03,2.414044e+03
1.292074e+03,2.418082e+03
1.293039e+03,2.420282e+03
1.294003e+03,2.419300e+03
1.294967e+03,2.414432e+03
1.295931e+03,2.401640e+03
1.296896e+03,2.388397e+03
1.297860e+03,2.382484e+03
1.298824e+03,2.385904e+03
1.299788e+03,2.389918e+03
1.300753e+03,2.395332e+03
1.301717e+03,2.398852e+03
1.302681e+03,2.398919e+03
1.303645e+03,2.396461e+03
1.304609e+03,2.393968e+03
1.305574e+03,2.390407e+03
1.306538e+03,2.387637e+03
1.307502e+03,2.387343e+03
1.308466e+03,2.387223e+03
1.309431e+03,2.382181e+03
1.310395e+03,2.375080e+03
1.311359e+03,2.378275e+03
1.312323e+03,2.388133e+03
1.313288e+03,2.391441e+03
1.314252e+03,2.381497e+03
1.315216e+03,2.370285e+03
1.316180e+03,2.367438e+03
1.317145e+03,2.370099e+03
1.318109e+03,2.376407e+03
1.319073e+03,2.384589e+03
1.320037e+03,2.387089e+03
1.321001e+03,2.375253e+03
1.321966e+03,2.363990e+03
1.322930e+03,2.362273e+03
1.323894e+03,2.365792e+03
1.324858e+03,2.364818e+03
1.325823e+03,2.355084e+03
1.326787e+03,2.350652e+03
1.327751e+03,2.352596e+03
1.328715e+03,2.355802e+03
1.329680e+03,2.357238e+03
1.330644e+03,2.357749e+03
1.331608e+03,2.361683e+03
1.332572e+03,2.368336e+03
1.333536e+03,2.370844e+03
1.334501e+03,2.366567e+03
1.335465e+03,2.360592e+03
1.336429e+03,2.361730e+03
1.337393e+03,2.364683e+03
1.338358e+03,2.358731e+03
1.339322e+03,2.345893e+03
1.340286e+03,2.336873e+03
1.341250e+03,2.341036e+03
1.342215e+03,2.345005e+03
1.343179e+03,2.345072e+03
1.344143e+03,2.342995e+03
1.345107e+03,2.338340e+03
1.346072e+03,2.328929e+03
1.347036e+03,2.323307e+03
1.348000e+03,2.322443e+03
1.348964e+03,2.322333e+03
1.349928e+03,2.322712e+03
1.350893e+03,2.323345e+03
1.351857e+03,2.321279e+03
1.352821e+03,2.316194e+03
1.353785e+03,2.313880e+03
1.354750e+03,2.314792e+03
1.355714e+03,2.314777e+03
1.356678e+03,2.310392e+03
1.357642e+03,2.305019e+03
1.358607e+03,2.301560e+03
1.359571e+03,2.299820e+03
1.360535e+03,2.300363e+03
1.361499e+03,2.304888e+03
1.362464e+03,2.308550e+03
1.363428e+03,2.308668e+03
1.364392e+03,2.308334e+03
1.365356e+03,2.308112e+03
1.366320e+03,2.307208e+03
1.367285e+03,2.307469e+03
1.368249e+03,2.311908e+03
1.369213e+03,2.312578e+03
1.370177e+03,2.307118e+03
1.371142e+03,2.299497e+03
1.372106e+03,2.294505e+03
1.373070e+03,2.291747e+03
1.374034e+03,2.287772e+03
1.374999e+03,2.283370e+03
1.375963e+03,2.281362e+03
1.376927e+03,2.284353e+03
1.377891e+03,2.287055e+03
1.378855e+03,2.280188e+03
1.379820e+03,2.271099e+03
1.380784e+03,2.271536e+03
1.381748e+03,2.283578e+03
1.382712e+03,2.290890e+03
1.383677e+03,2.283593e+03
1.384641e+03,2.274036e+03
1.385605e+03,2.265048e+03
1.386569e+03,2.256757e+03
1.387534e+03,2.249479e+03
1.388498e+03,2.243103e+03
1.389462e+03,2.240531e+03
1.390426e+03,2.241812e+03
1.391391e+03,2.242140e+03
1.392355e+03,2.238267e+03
1.393319e+03,2.233562e+03
1.394283e+03,2.234903e+03
1.395247e+03,2.239475e+03
1.396212e+03,2.240783e+03
1.397176e+03,2.237192e+03
1.398140e+03,2.234789e+03
1.399104e+03,2.238898e+03
1.400069e+03,2.242692e+03
1.401033e+03,2.241154e+03
1.401997e+03,2.236144e+03
1.402961e+03,2.233535e+03
1.403926e+03,2.236684e+03
1.404890e+03,2.233957e+03
1.405854e+03,2.223094e+03
1.406818e+03,2.212024e+03
1.407782e+03,2.206329e+03
1.408747e+03,2.205753e+03
1.409711e+03,2.208822e+03
1.410675e+03,2.213301e+03
1.411639e+03,2.214230e+03
1.412604e+03,2.210189e+03
1.413568e+03,2.205579e+03
1.414532e+03,2.205165e+03
1.415496e+03,2.206180e+03
1.416461e+03,2.205511e+03
1.417425e+03,2.202646e+03
1.418389e+03,2.198857e+03
1.419353e+03,2.191512e+03
1.420318e+03,2.188375e+03
1.421282e+03,2.193153e+03
1.422246e+03,2.199022e+03
1.423210e+03,2.199984e+03
1.424174e+03,2.197051e+03
1.425139e+03,2.194346e+03
1.426103e+03,2.191446e+03
1.427067e+03,2.190227e+03
1.428031e+03,2.191809e+03
1.428996e+03,2.193659e+03
1.429960e+03,2.194298e+03
1.430924e+03,2.192342e+03
1.431888e+03,2.184622e+03
1.432853e+03,2.172744e+03
1.433817e+03,2.163896e+03
1.434781e+03,2.160142e+03
1.435745e+03,2.160516e+03
1.436709e+03,2.166213e+03
1.437674e+03,2.172015e+03
1.438638e+03,2.174616e+03
1.439602e+03,2.174629e+03
1.440566e+03,2.169626e+03
1.441531e+03,2.160290e+03
1.442495e+03,2.156993e+03
1.443459e+03,2.164310e+03
1.444423e+03,2.172969e+03
1.445388e+03,2.174429e+03
1.446352e+03,2.171232e+03
1.447316e+03,2.165390e+03
1.448280e+03,2.158613e+03
1.449245e+03,2.153701e+03
1.450209e+03,2.150058e+03
1.451173e+03,2.150522e+03
1.452137e+03,2.156558e+03
1.453101e+03,2.162253e+03
1.454066e+03,2.162284e+03
1.455030e+03,2.157657e+03
1.455994e+03,2.155530e+03
1.456958e+03,2.155630e+03
1.457923e+03,2.156802e+03
1.458887e+03,2.158532e+03
1.459851e+03,2.158610e+03
1.460815e+03,2.154049e+03
1.461780e+03,2.147182e+03
1.462744e+03,2.140888e+03
1.463708e+03,2.135810e+03
1.464672e+03,2.131347e+03
1.465636e+03,2.127744e+03
1.466601e+03,2.126212e+03
1.467565e+03,2.127258e+03
1.468529e+03,2.129417e+03
1.469493e+03,2.131360e+03
1.470458e+03,2.132223e+03
1.471422e+03,2.130311e+03
1.472386e+03,2.126590e+03
1.473350e+03,2.122822e+03
1.474315e+03,2.118772e+03
1.475279e+03,2.116171e+03
1.476243e+03,2.117443e+03
1.477207e+03,2.118712e+03
1.478172e+03,2.118636e+03
1.479136e+03,2.117051e+03
1.480100e+03,2.112340e+03
1.481064e+03,2.103055e+03
1.482028e+03,2.097735e+03
1.482993e+03,2.098163e+03
1.483957e+03,2.100417e+03
1.484921e+03,2.101601e+03
1.485885e+03,2.101055e+03
1.486850e+03,2.093923e+03
1.487814e+03,2.084051e+03
1.488778e+03,2.082486e+03
1.489742e+03,2.096231e+03
1.490707e+03,2.105187e+03
1.491671e+03,2.102059e+03
1.492635e+03,2.095656e+03
1.493599e+03,2.087100e+03
1.494563e+03,2.078058e+03
1.495528e+03,2.074983e+03
1.496492e+03,2.077348e+03
1.497456e+03,2.080192e+03
1.498420e+03,2.083497e+03
1.499385e+03,2.084525e+03
1.500349e+03,2.078161e+03
1.501313e+03,2.071592e+03
1.502277e+03,2.070672e+03
1.503242e+03,2.073272e+03
1.504206e+03,2.077082e+03
1.505170e+03,2.082946e+03
1.506134e+03,2.082961e+03
1.507099e+03,2.075429e+03
1.508063e+03,2.066897e+03
1.509027e+03,2.059120e+03
1.509991e+03,2.053273e+03
1.510955e+03,2.052119e+03
1.511920e+03,2.054339e+03
1.512884e+03,2.059481e+03
1.513848e+03,2.066935e+03
1.514812e+03,2.069743e+03
1.515777e+03,2.055683e+03
1.516741e+03,2.044499e+03
1.517705e+03,2.045642e+03
1.518669e+03,2.049844e+03
1.519634e+03,2.049641e+03
1.520598e+03,2.045168e+03
1.521562e+03,2.047915e+03
1.522526e+03,2.056644e+03
1.523490e+03,2.059992e+03
1.524455e+03,2.053810e+03
1.525419e+03,2.045250e+03
1.526383e+03,2.040530e+03
1.527347e+03,2.037082e+03
1.528312e+03,2.033233e+03
1.529276e+03,2.030009e+03
1.530240e+03,2.028936e+03
1.531204e+03,2.030402e+03
1.532169e+03,2.030388e+03
1.533133e+03,2.028340e+03
1.534097e+03,2.026156e+03
1.535061e+03,2.025468e+03
1.536026e+03,2.024858e+03
1.536990e+03,2.022460e+03
1.537954e+03,2.018890e+03
1.538918e+03,2.014695e+03
1.539882e+03,2.009585e+03
1.540847e+03,2.005548e+03
1.541811e+03,2.003225e+03
1.542775e+03,2.000435e+03
1.543739e+03,1.996196e+03
1.544704e+03,1.993624e+03
1.545668e+03,2.000022e+03
1.546632e+03,2.012713e+03
1.547596e+03,2.017185e+03
1.548561e+03,2.013839e+03
1.549525e+03,2.010988e+03
1.550489e+03,2.014573e+03
1.551453e+03,2.016164e+03
1.552417e+03,2.009267e+03
1.553382e+03,2.000814e+03
1.554346e+03,1.997250e+03
1.555310e+03,1.998278e+03
1.556274e+03,1.998134e+03
1.557239e+03,1.996651e+03
1.558203e+03,1.994189e+03
1.559167e+03,1.990691e+03
1.560131e+03,1.989098e+03
1.561096e+03,1.992475e+03
1.562060e+03,1.998919e+03
1.563024e+03,2.008443e+03
1.563988e+03,2.019274e+03
1.564953e+03,2.027290e+03
1.565917e+03,2.030845e+03
1.566881e+03,2.037319e+03
1.567845e+03,2.047155e+03
1.568809e+03,2.052995e+03
1.569774e+03,2.050130e+03
1.570738e+03,2.043487e+03
1.571702e+03,2.038856e+03
1.572666e+03,2.034871e+03
1.573631e+03,2.030261e+03
1.574595e+03,2.025429e+03
1.575559e+03,2.018836e+03
1.576523e+03,2.007688e+03
1.577488e+03,2.002759e+03
1.578452e+03,2.006148e+03
1.579416e+03,2.011024e+03
1.580380e+03,2.011362e+03
1.581344e+03,2.008340e+03
1.582309e+03,2.002913e+03
1.583273e+03,1.996575e+03
1.584237e+03,1.992276e+03
1.585201e+03,1.992683e+03
1.586166e+03,1.990379e+03
1.587130e+03,1.983120e+03
1.588094e+03,1.974185e+03
1.589058e+03,1.964204e+03
1.590023e+03,1.956250e+03
1.590987e+03,1.959378e+03
1.591951e+03,1.968408e+03
1.592915e+03,1.967586e+03
1.593880e+03,1.955787e+03
1.594844e+03,1.945992e+03
1.595808e+03,1.947144e+03
1.596772e+03,1.946413e+03
1.597736e+03,1.939964e+03
1.598701e+03,1.934433e+03
1.599665e+03,1.936305e+03
1.600629e+03,1.943233e+03
1.601593e+03,1.945135e+03
1.602558e+03,1.943581e+03
1.603522e+03,1.944001e+03
1.604486e+03,1.948587e+03
1.605450e+03,1.950338e+03
1.606415e+03,1.943525e+03
1.607379e+03,1.938422e+03
1.608343e+03,1.939663e+03
1.609307e+03,1.942947e+03
1.610271e+03,1.939868e+03
1.611236e+03,1.932005e+03
1.612200e+03,1.928544e+03
1.613164e+03,1.929651e+03
1.614128e+03,1.929861e+03
1.615093e+03,1.921410e+03
1.616057e+03,1.917609e+03
1.617021e+03,1.928030e+03
1.617985e+03,1.937799e+03
1.618950e+03,1.937845e+03
1.619914e+03,1.930953e+03
1.620878e+03,1.928031e+03
1.621842e+03,1.927982e+03
1.622807e+03,1.924883e+03
1.623771e+03,1.917868e+03
1.624735e+03,1.912726e+03
1.625699e+03,1.911133e+03
1.626663e+03,1.912408e+03
1.627628e+03,1.917471e+03
1.628592e+03,1.922107e+03
1.629556e+03,1.922142e+03
1.630520e+03,1.919195e+03
1.631485e+03,1.916836e+03
1.632449e+03,1.914933e+03
1.633413e+03,1.913616e+03
1.634377e+03,1.914053e+03
1.635342e+03,1.912775e+03
1.636306e+03,1.906837e+03
1.637270e+03,1.901009e+03
1.638234e+03,1.897399e+03
1.639198e+03,1.895264e+03
1.640163e+03,1.891695e+03
1.641127e+03,1.887662e+03
1.642091e+03,1.884814e+03
1.643055e+03,1.882665e+03
1.644020e+03,1.880813e+03
1.644984e+03,1.877678e+03
1.645948e+03,1.875849e+03
1.646912e+03,1.876998e+03
1.647877e+03,1.878666e+03
1.648841e+03,1.879058e+03
1.649805e+03,1.878584e+03
1.650769e+03,1.877918e+03
1.651734e+03,1.876800e+03
1.652698e+03,1.875169e+03
1.653662e+03,1.872424e+03
1.654626e+03,1.868685e+03
1.655590e+03,1.862758e+03
1.656555e+03,1.858262e+03
1.657519e+03,1.857071e+03
1.658483e+03,1.858379e+03
1.659447e+03,1.861052e+03
1.660412e+03,1.863100e+03
1.661376e+03,1.861702e+03
1.662340e+03,1.858236e+03
1.663304e+03,1.855715e+03
1.664269e+03,1.852056e+03
1.665233e+03,1.853619e+03
1.666197e+03,1.862237e+03
1.667161e+03,1.867686e+03
1.668125e+03,1.863516e+03
1.669090e+03,1.856425e+03
1.670054e+03,1.857895e+03
1.671018e+03,1.862334e+03
1.671982e+03,1.861938e+03
1.672947e+03,1.856461e+03
1.673911e+03,1.854752e+03
1.674875e+03,1.857478e+03
1.675839e+03,1.858173e+03
1.676804e+03,1.856910e+03
1.677768e+03,1.853923e+03
1.678732e+03,1.846796e+03
1.679696e+03,1.838846e+03
1.680661e+03,1.831883e+03
1.681625e+03,1.826058e+03
1.682589e+03,1.822221e+03
1.683553e+03,1.820811e+03
1.684517e+03,1.830785e+03
1.685482e+03,1.851127e+03
1.686446e+03,1.857500e+03
1.687410e+03,1.840125e+03
1.688374e+03,1.822256e+03
1.689339e+03,1.822641e+03
1.690303e+03,1.826574e+03
1.691267e+03,1.825120e+03
1.692231e+03,1.821716e+03
1.693196e+03,1.822232e+03
1.694160e+03,1.825321e+03
1.695124e+03,1.825687e+03
1.696088e+03,1.823406e+03
1.697052e+03,1.818655e+03
1.698017e+03,1.805111e+03
1.698981e+03,1.798217e+03
1.699945e+03,1.805440e+03
1.700909e+03,1.812747e+03
1.701874e+03,1.814838e+03
1.702838e+03,1.813658e+03
1.703802e+03,1.809382e+03
1.704766e+03,1.803040e+03
1.705731e+03,1.798104e+03
1.706695e+03,1.795463e+03
1.707659e+03,1.795500e+03
1.708623e+03,1.801043e+03
1.709588e+03,1.804057e+03
1.710552e+03,1.802621e+03
1.711516e+03,1.797434e+03
1.712480e+03,1.785745e+03
1.713444e+03,1.774470e+03
1.714409e+03,1.775045e+03
1.715373e+03,1.780313e+03
1.716337e+03,1.777612e+03
1.717301e+03,1.766958e+03
1.718266e+03,1.764048e+03
1.719230e+03,1.768374e+03
1.720194e+03,1.776521e+03
1.721158e+03,1.788030e+03
1.722123e+03,1.796146e+03
1.723087e+03,1.796806e+03
1.724051e+03,1.791207e+03
1.725015e+03,1.775359e+03
1.725979e+03,1.759885e+03
1.726944e+03,1.762658e+03
1.727908e+03,1.777986e+03
1.728872e+03,1.780888e+03
1.729836e+03,1.773321e+03
1.730801e+03,1.767642e+03
1.731765e+03,1.770103e+03
1.732729e+03,1.771698e+03
1.733693e+03,1.771778e+03
1.734658e+03,1.770403e+03
1.735622e+03,1.767177e+03
1.736586e+03,1.762906e+03
1.737550e+03,1.757034e+03
1.738515e+03,1.752251e+03
1.739479e+03,1.754022e+03
1.740443e+03,1.760526e+03
1.741407e+03,1.759800e+03
1.742371e+03,1.750575e+03
1.743336e+03,1.747220e+03
1.744300e+03,1.750603e+03
1.745264e+03,1.752681e+03
1.746228e+03,1.749164e+03
1.747193e+03,1.743631e+03
1.748157e+03,1.734887e+03
1.749121e+03,1.729710e+03
1.750085e+03,1.732190e+03
1.751050e+03,1.738069e+03
1.752014e+03,1.737468e+03
1.752978e+03,1.733600e+03
1.753942e+03,1.733777e+03
1.754906e+03,1.738987e+03
1.755871e+03,1.742425e+03
1.756835e+03,1.741889e+03
1.757799e+03,1.739072e+03
1.758763e+03,1.735992e+03
1.759728e+03,1.732094e+03
1.760692e+03,1.723327e+03
1.761656e+03,1.716117e+03
1.762620e+03,1.717137e+03
1.763585e+03,1.722696e+03
1.764549e+03,1.727767e+03
1.765513e+03,1.731473e+03
1.766477e+03,1.730728e+03
1.767442e+03,1.726550e+03
1.768406e+03,1.721911e+03
1.769370e+03,1.717430e+03
1.770334e+03,1.715152e+03
1.771298e+03,1.716491e+03
1.772263e+03,1.717908e+03
1.773227e+03,1.719316e+03
1.774191e+03,1.719966e+03
1.775155e+03,1.719140e+03
1.776120e+03,1.716045e+03
1.777084e+03,1.707626e+03
1.778048e+03,1.696789e+03
1.779012e+03,1.691145e+03
1.779977e+03,1.692458e+03
1.780941e+03,1.694369e+03
1.781905e+03,1.696112e+03
1.782869e+03,1.697983e+03
1.783833e+03,1.702195e+03
1.784798e+03,1.700803e+03
1.785762e+03,1.678070e+03
1.786726e+03,1.661804e+03
1.787690e+03,1.668188e+03
1.788655e+03,1.684844e+03
1.789619e+03,1.687987e+03
1.790583e+03,1.683150e+03
1.791547e+03,1.680957e+03
1.792512e+03,1.681429e+03
1.793476e+03,1.678807e+03
1.794440e+03,1.668418e+03
1.795404e+03,1.666795e+03
1.796369e+03,1.674387e+03
1.797333e+03,1.683609e+03
1.798297e+03,1.693120e+03
1.799261e+03,1.697978e+03
1.800225e+03,1.690348e+03
1.801190e+03,1.679872e+03
1.802154e+03,1.673454e+03
1.803118e+03,1.669507e+03
1.804082e+03,1.664643e+03
1.805047e+03,1.660198e+03
1.806011e+03,1.658349e+03
1.806975e+03,1.658986e+03
1.807939e+03,1.659523e+03
1.808904e+03,1.659254e+03
1.809868e+03,1.657851e+03
1.810832e+03,1.655702e+03
1.811796e+03,1.654209e+03
1.812760e+03,1.654675e+03
1.813725e+03,1.655154e+03
1.814689e+03,1.654710e+03
1.815653e+03,1.653613e+03
1.816617e+03,1.651951e+03
1.817582e+03,1.650003e+03
1.818546e+03,1.647747e+03
1.819510e+03,1.645680e+03
1.820474e+03,1.646839e+03
1.821439e+03,1.651788e+03
1.822403e+03,1.648545e+03
1.823367e+03,1.633376e+03
1.824331e+03,1.626732e+03
1.825296e+03,1.631511e+03
1.826260e+03,1.638744e+03
1.827224e+03,1.646624e+03
1.828188e+03,1.651369e+03
1.829152e+03,1.646940e+03
1.830117e+03,1.640487e+03
1.831081e+03,1.637405e+03
1.832045e+03,1.636446e+03
1.833009e+03,1.636992e+03
1.833974e+03,1.638934e+03
1.834938e+03,1.639281e+03
1.835902e+03,1.636537e+03
1.836866e+03,1.634013e+03
1.837831e+03,1.631823e+03
1.838795e+03,1.624344e+03
1.839759e+03,1.610651e+03
1.840723e+03,1.603004e+03
1.841688e+03,1.615139e+03
1.842652e+03,1.626934e+03
1.843616e+03,1.632008e+03
1.844580e+03,1.630872e+03
1.845544e+03,1.621710e+03
1.846509e+03,1.609879e+03
1.847473e+03,1.603610e+03
1.848437e+03,1.601860e+03
1.849401e+03,1.604654e+03
1.850366e+03,1.611819e+03
1.851330e+03,1.610265e+03
1.852294e+03,1.601405e+03
1.853258e+03,1.591856e+03
1.854223e+03,1.582585e+03
1.855187e+03,1.580167e+03
1.856151e+03,1.593360e+03
1.857115e+03,1.603573e+03
1.858079e+03,1.607358e+03
1.859044e+03,1.605246e+03
1.860008e+03,1.593581e+03
1.860972e+03,1.581862e+03
1.861936e+03,1.581565e+03
1.862901e+03,1.585855e+03
1.863865e+03,1.582705e+03
1.864829e+03,1.572811e+03
1.865793e+03,1.571807e+03
1.866758e+03,1.577317e+03
1.867722e+03,1.580487e+03
1.868686e+03,1.577939e+03
1.869650e+03,1.578116e+03
1.870615e+03,1.582127e+03
1.871579e+03,1.582288e+03
1.872543e+03,1.577227e+03
1.873507e+03,1.570758e+03
1.874471e+03,1.558624e+03
1.875436e+03,1.552651e+03
1.876400e+03,1.562028e+03
1.877364e+03,1.575008e+03
1.878328e+03,1.578734e+03
1.879293e+03,1.576138e+03
1.880257e+03,1.570251e+03
1.881221e+03,1.562722e+03
1.882185e+03,1.557616e+03
1.883150e+03,1.555435e+03
1.884114e+03,1.555843e+03
1.885078e+03,1.558012e+03
1.886042e+03,1.559144e+03
1.887006e+03,1.558271e+03
1.887971e+03,1.557427e+03
1.888935e+03,1.560172e+03
1.889899e+03,1.557438e+03
1.890863e+03,1.544832e+03
1.891828e+03,1.533099e+03
1.892792e+03,1.535321e+03
1.893756e+03,1.541953e+03
1.894720e+03,1.550788e+03
1.895685e+03,1.558016e+03
1.896649e+03,1.557417e+03
1.897613e+03,1.550158e+03
1.898577e+03,1.537923e+03
1.899542e+03,1.525620e+03
1.900506e+03,1.525924e+03
1.901470e+03,1.542114e+03
1.902434e+03,1.544643e+03
1.903398e+03,1.534354e+03
1.904363e+03,1.528106e+03
1.905327e+03,1.530513e+03
1.906291e+03,1.534744e+03
1.907255e+03,1.539155e+03
1.908220e+03,1.539931e+03
1.909184e+03,1.535686e+03
1.910148e+03,1.530672e+03
1.911112e+03,1.529998e+03
1.912077e+03,1.530979e+03
1.913041e+03,1.533226e+03
1.914005e+03,1.533798e+03
1.914969e+03,1.528662e+03
1.915933e+03,1.519795e+03
1.916898e+03,1.513448e+03
1.917862e+03,1.509376e+03
1.918826e+03,1.506352e+03
1.919790e+03,1.504646e+03
1.920755e+03,1.505376e+03
1.921719e+03,1.507538e+03
1.922683e+03,1.506593e+03
1.923647e+03,1.502004e+03
1.924612e+03,1.502478e+03
1.925576e+03,1.522247e+03
1.926540e+03,1.527779e+03
1.927504e+03,1.510939e+03
1.928469e+03,1.492908e+03
1.929433e+03,1.493650e+03
1.930397e+03,1.498287e+03
1.931361e+03,1.496149e+03
1.932325e+03,1.493019e+03
1.933290e+03,1.494877e+03
1.934254e+03,1.499870e+03
1.935218e+03,1.501091e+03
1.936182e+03,1.498654e+03
1.937147e+03,1.494001e+03
1.938111e+03,1.488284e+03
1.939075e+03,1.483611e+03
1.940039e+03,1.481061e+03
1.941004e+03,1.485083e+03
1.941968e+03,1.494731e+03
1.942932e+03,1.497440e+03
1.943896e+03,1.487117e+03
1.944860e+03,1.480585e+03
1.945825e+03,1.480292e+03
1.946789e+03,1.479576e+03
1.947753e+03,1.470507e+03
1.948717e+03,1.463010e+03
1.949682e+03,1.460300e+03
1.950646e+03,1.461333e+03
1.951610e+03,1.467340e+03
1.952574e+03,1.474147e+03
1.953539e+03,1.474135e+03
1.954503e+03,1.472859e+03
1.955467e+03,1.479072e+03
1.956431e+03,1.487520e+03
1.957396e+03,1.479663e+03
1.958360e+03,1.462360e+03
1.959324e+03,1.452792e+03
1.960288e+03,1.452556e+03
1.961252e+03,1.455437e+03
1.962217e+03,1.460443e+03
1.963181e+03,1.461875e+03
1.964145e+03,1.459576e+03
1.965109e+03,1.457070e+03
1.966074e+03,1.455714e+03
1.967038e+03,1.456873e+03
1.968002e+03,1.459453e+03
1.968966e+03,1.461832e+03
1.969931e+03,1.464803e+03
1.970895e+03,1.463349e+03
1.971859e+03,1.448550e+03
1.972823e+03,1.438822e+03
1.973787e+03,1.442897e+03
1.974752e+03,1.451002e+03
1.975716e+03,1.449981e+03
1.976680e+03,1.444953e+03
1.977644e+03,1.442938e+03
1.978609e+03,1.442052e+03
1.979573e+03,1.435719e+03
1.980537e+03,1.426399e+03
1.981501e+03,1.425233e+03
1.982466e+03,1.429732e+03
1.983430e+03,1.430893e+03
1.984394e+03,1.426960e+03
1.985358e+03,1.428338e+03
1.986323e+03,1.433822e+03
1.987287e+03,1.437200e+03
1.988251e+03,1.436205e+03
1.989215e+03,1.434465e+03
1.990179e+03,1.433303e+03
1.991144e+03,1.429099e+03
1.992108e+03,1.421049e+03
1.993072e+03,1.415007e+03
1.994036e+03,1.417110e+03
1.995001e+03,1.417256e+03
1.995965e+03,1.411672e+03
1.996929e+03,1.407517e+03
1.997893e+03,1.413168e+03
1.998858e+03,1.419892e+03
1.999822e+03,1.419981e+03
2.000786e+03,1.417172e+03
2.001750e+03,1.415771e+03
2.002714e+03,1.415569e+03
2.003679e+03,1.413010e+03
2.004643e+03,1.409221e+03
2.005607e+03,1.407379e+03
2.006571e+03,1.407169e+03
2.007536e+03,1.405263e+03
2.008500e+03,1.402209e+03
2.009464e+03,1.399283e+03
2.010428e+03,1.396887e+03
2.011393e+03,1.392474e+03
2.012357e+03,1.385222e+03
2.013321e+03,1.388336e+03
2.014285e+03,1.400391e+03
2.015250e+03,1.405843e+03
2.016214e+03,1.389244e+03
2.017178e+03,1.381025e+03
2.018142e+03,1.383478e+03
2.019106e+03,1.386892e+03
2.020071e+03,1.386745e+03
2.021035e+03,1.384456e+03
2.021999e+03,1.378047e+03
2.022963e+03,1.374328e+03
2.023928e+03,1.377243e+03
2.024892e+03,1.381641e+03
2.025856e+03,1.382450e+03
2.026820e+03,1.381002e+03
2.027785e+03,1.377376e+03
2.028749e+03,1.373240e+03
2.029713e+03,1.370369e+03
2.030677e+03,1.370095e+03
2.031641e+03,1.378012e+03
2.032606e+03,1.386503e+03
2.033570e+03,1.380870e+03
2.034534e+03,1.365666e+03
2.035498e+03,1.363516e+03
2.036463e+03,1.368809e+03
2.037427e+03,1.367272e+03
2.038391e+03,1.358977e+03
2.039355e+03,1.352390e+03
2.040320e+03,1.347914e+03
2.041284e+03,1.346666e+03
2.042248e+03,1.348623e+03
2.043212e+03,1.351050e+03
2.044177e+03,1.354245e+03
2.045141e+03,1.357130e+03
2.046105e+03,1.359178e+03
2.047069e+03,1.358320e+03
2.048033e+03,1.349818e+03
2.048998e+03,1.343504e+03
2.049962e+03,1.340649e+03
2.050926e+03,1.339685e+03
2.051890e+03,1.341740e+03
2.052854e+03,1.341510e+03
2.053819e+03,1.335448e+03
2.054783e+03,1.330684e+03
2.055747e+03,1.333009e+03
2.056711e+03,1.336516e+03
2.057676e+03,1.334723e+03
2.058640e+03,1.332620e+03
2.059604e+03,1.331731e+03
2.060568e+03,1.331313e+03
2.061533e+03,1.330912e+03
2.062497e+03,1.331479e+03
2.063461e+03,1.335786e+03
2.064425e+03,1.339777e+03
2.065390e+03,1.337994e+03
2.066354e+03,1.331377e+03
2.067318e+03,1.318190e+03
2.068282e+03,1.304560e+03
2.069247e+03,1.301560e+03
2.070211e+03,1.306949e+03
2.071175e+03,1.310479e+03
2.072139e+03,1.311606e+03
2.073104e+03,1.306788e+03
2.074068e+03,1.296502e+03
2.075032e+03,1.293397e+03
2.075996e+03,1.295934e+03
2.076960e+03,1.299979e+03
2.077925e+03,1.304699e+03
2.078889e+03,1.311303e+03
2.079853e+03,1.320089e+03
2.080817e+03,1.321588e+03
2.081782e+03,1.315105e+03
2.082746e+03,1.310015e+03
2.083710e+03,1.312955e+03
2.084674e+03,1.309886e+03
2.085639e+03,1.300820e+03
2.086603e+03,1.294949e+03
2.087567e+03,1.295941e+03
2.088531e+03,1.299405e+03
2.089496e+03,1.304709e+03
2.090460e+03,1.306996e+03
2.091424e+03,1.306474e+03
2.092388e+03,1.303308e+03
2.093353e+03,1.292311e+03
2.094317e+03,1.286088e+03
2.095281e+03,1.287967e+03
2.096245e+03,1.291360e+03
2.097209e+03,1.291680e+03
2.098174e+03,1.288806e+03
2.099138e+03,1.283041e+03
2.100102e+03,1.276823e+03
2.101066e+03,1.271235e+03
2.102031e+03,1.267754e+03
2.102995e+03,1.270475e+03
2.103959e+03,1.273182e+03
2.104923e+03,1.269870e+03
2.105887e+03,1.265281e+03
2.106852e+03,1.264641e+03
2.107816e+03,1.265340e+03
2.108780e+03,1.265875e+03
2.109744e+03,1.265906e+03
2.110708e+03,1.265594e+03
2.111673e+03,1.265564e+03
2.112637e+03,1.265664e+03
2.113601e+03,1.264424e+03
2.114565e+03,1.259912e+03
2.115530e+03,1.252930e+03
2.116494e+03,1.241959e+03
2.117458e+03,1.232396e+03
2.118422e+03,1.235980e+03
2.119387e+03,1.248995e+03
2.120351e+03,1.257812e+03
2.121315e+03,1.261493e+03
2.122279e+03,1.260766e+03
2.123244e+03,1.255835e+03
2.124208e+03,1.256124e+03
2.125172e+03,1.260180e+03
2.126136e+03,1.261893e+03
2.127101e+03,1.260009e+03
2.128065e+03,1.248967e+03
2.129029e+03,1.230829e+03
2.129993e+03,1.225954e+03
2.130958e+03,1.237171e+03
2.131922e+03,1.244806e+03
2.132886e+03,1.247530e+03
2.133850e+03,1.243068e+03
2.134814e+03,1.233164e+03
2.135779e+03,1.229564e+03
2.136743e+03,1.238590e+03
2.137707e+03,1.242489e+03
2.138671e+03,1.240974e+03
2.139636e+03,1.236775e+03
2.140600e+03,1.229307e+03
2.141564e+03,1.222697e+03
2.142528e+03,1.217352e+03
2.143493e+03,1.214488e+03
2.144457e+03,1.214827e+03
2.145421e+03,1.213486e+03
2.146385e+03,1.208640e+03
2.147350e+03,1.206708e+03
2.148314e+03,1.210538e+03
2.149278e+03,1.214617e+03
2.150242e+03,1.213326e+03
2.151207e+03,1.211640e+03
2.152171e+03,1.210081e+03
2.153135e+03,1.207007e+03
2.154099e+03,1.201183e+03
2.155063e+03,1.197084e+03
2.156028e+03,1.195822e+03
2.156992e+03,1.197282e+03
2.157956e+03,1.202185e+03
2.158920e+03,1.204848e+03
2.159885e+03,1.201888e+03
2.160849e+03,1.198300e+03
2.161813e+03,1.196224e+03
2.162777e+03,1.194579e+03
2.163741e+03,1.194853e+03
2.164706e+03,1.191806e+03
2.165670e+03,1.183684e+03
2.166634e+03,1.176387e+03
2.167598e+03,1.173336e+03
2.168563e+03,1.175817e+03
2.169527e+03,1.184089e+03
2.170491e+03,1.191969e+03
2.171455e+03,1.195251e+03
2.172420e+03,1.195659e+03
2.173384e+03,1.195144e+03
2.174348e+03,1.191420e+03
2.175312e+03,1.176998e+03
2.176277e+03,1.163668e+03
2.177241e+03,1.168302e+03
2.178205e+03,1.173849e+03
2.179169e+03,1.169425e+03
2.180134e+03,1.162871e+03
2.181098e+03,1.164560e+03
2.182062e+03,1.167002e+03
2.183026e+03,1.163306e+03
2.183990e+03,1.158736e+03
2.184955e+03,1.162509e+03
2.185919e+03,1.168143e+03
2.186883e+03,1.170706e+03
2.187847e+03,1.169933e+03
2.188812e+03,1.163058e+03
2.189776e+03,1.156498e+03
2.190740e+03,1.159974e+03
2.191704e+03,1.163493e+03
2.192668e+03,1.155946e+03
2.193633e+03,1.145798e+03
2.194597e+03,1.145082e+03
2.195561e+03,1.148642e+03
2.196525e+03,1.151874e+03
2.197490e+03,1.153974e+03
2.198454e+03,1.154252e+03
2.199418e+03,1.151520e+03
2.200382e+03,1.143775e+03
2.201347e+03,1.136740e+03
2.202311e+03,1.140408e+03
2.203275e+03,1.147973e+03
2.204239e+03,1.153452e+03
2.205204e+03,1.154572e+03
2.206168e+03,1.147730e+03
2.207132e+03,1.138558e+03
2.208096e+03,1.132480e+03
2.209061e+03,1.127730e+03
2.210025e+03,1.122236e+03
2.210989e+03,1.118595e+03
2.211953e+03,1.123699e+03
2.212917e+03,1.132816e+03
2.213882e+03,1.139158e+03
2.214846e+03,1.140903e+03
2.215810e+03,1.132234e+03
2.216774e+03,1.121814e+03
2.217739e+03,1.120915e+03
2.218703e+03,1.123769e+03
2.219667e+03,1.119368e+03
2.220631e+03,1.112776e+03
2.221595e+03,1.108247e+03
2.222560e+03,1.104434e+03
2.223524e+03,1.097771e+03
2.224488e+03,1.092637e+03
2.225452e+03,1.097054e+03
2.226417e+03,1.104214e+03
2.227381e+03,1.108515e+03
2.228345e+03,1.110726e+03
2.229309e+03,1.109072e+03
2.230274e+03,1.106244e+03
2.231238e+03,1.105427e+03
2.232202e+03,1.104642e+03
2.233166e+03,1.101848e+03
2.234131e+03,1.098524e+03
2.235095e+03,1.094859e+03
2.236059e+03,1.092201e+03
2.237023e+03,1.094686e+03
2.237988e+03,1.095340e+03
2.238952e+03,1.087616e+03
2.239916e+03,1.079055e+03
2.240880e+03,1.082190e+03
2.241844e+03,1.088255e+03
2.242809e+03,1.092625e+03
2.243773e+03,1.092576e+03
2.244737e+03,1.077980e+03
2.245701e+03,1.065189e+03
2.246666e+03,1.070207e+03
2.247630e+03,1.079074e+03
2.248594e+03,1.085340e+03
2.249558e+03,1.090262e+03
2.250522e+03,1.095047e+03
2.251487e+03,1.096938e+03
2.252451e+03,1.092952e+03
2.253415e+03,1.085148e+03
2.254379e+03,1.073486e+03
2.255344e+03,1.066410e+03
2.256308e+03,1.068591e+03
2.257272e+03,1.071070e+03
2.258236e+03,1.060354e+03
2.259201e+03,1.055766e+03
2.260165e+03,1.064080e+03
2.261129e+03,1.073239e+03
2.262093e+03,1.071154e+03
2.263058e+03,1.069885e+03
2.264022e+03,1.074736e+03
2.264986e+03,1.077453e+03
2.265950e+03,1.069624e+03
2.266915e+03,1.061103e+03
2.267879e+03,1.053441e+03
2.268843e+03,1.048594e+03
2.269807e+03,1.050591e+03
2.270771e+03,1.049606e+03
2.271736e+03,1.040765e+03
2.272700e+03,1.034900e+03
2.273664e+03,1.033672e+03
2.274628e+03,1.036628e+03
2.275593e+03,1.046587e+03
2.276557e+03,1.049388e+03
2.277521e+03,1.043626e+03
2.278485e+03,1.037402e+03
2.279449e+03,1.032385e+03
2.280414e+03,1.034315e+03
2.281378e+03,1.043019e+03
2.282342e+03,1.048160e+03
2.283306e+03,1.041036e+03
2.284271e+03,1.033957e+03
2.285235e+03,1.027102e+03
2.286199e+03,1.026145e+03
2.287163e+03,1.037740e+03
2.288128e+03,1.039546e+03
2.289092e+03,1.031761e+03
2.290056e+03,1.028425e+03
2.291020e+03,1.033322e+03
2.291985e+03,1.035128e+03
2.292949e+03,1.034764e+03
2.293913e+03,1.037239e+03
2.294877e+03,1.041791e+03
2.295842e+03,1.040054e+03
2.296806e+03,1.032411e+03
2.297770e+03,1.029237e+03
2.298734e+03,1.029272e+03
2.299698e+03,1.024356e+03
2.300663e+03,1.015940e+03
2.301627e+03,1.016259e+03
2.302591e+03,1.021262e+03
2.303555e+03,1.021816e+03
2.304520e+03,1.018736e+03
2.305484e+03,1.015787e+03
2.306448e+03,1.013061e+03
2.307412e+03,1.009933e+03
2.308376e+03,1.006297e+03
2.309341e+03,1.002300e+03
2.310305e+03,9.988785e+02
2.311269e+03,9.979583e+02
2.312233e+03,9.993759e+02
2.313198e+03,1.003383e+03
2.314162e+03,1.006873e+03
2.315126e+03,1.006500e+03
2.316090e+03,1.004344e+03
2.317055e+03,1.003194e+03
2.318019e+03,1.001367e+03
2.318983e+03,9.935222e+02
2.319947e+03,9.892330e+02
2.320912e+03,1.002648e+03
2.321876e+03,1.013445e+03
2.322840e+03,1.000881e+03
2.323804e+03,9.881559e+02
2.324769e+03,9.860471e+02
2.325733e+03,9.868015e+02
2.326697e+03,9.840637e+02
2.327661e+03,9.841568e+02
2.328625e+03,9.890702e+02
2.329590e+03,9.902342e+02
2.330554e+03,9.798360e+02
2.331518e+03,9.755025e+02
2.332482e+03,9.800002e+02
2.333447e+03,9.836165e+02
2.334411e+03,9.813716e+02
2.335375e+03,9.770004e+02
2.336339e+03,9.710066e+02
2.337303e+03,9.681910e+02
2.338268e+03,9.722079e+02
2.339232e+03,9.702020e+02
2.340196e+03,9.638255e+02
2.341160e+03,9.630575e+02
2.342125e+03,9.710929e+02
2.343089e+03,9.745453e+02
2.344053e+03,9.735217e+02
2.345017e+03,9.736060e+02
2.345982e+03,9.758406e+02
2.346946e+03,9.801893e+02
2.347910e+03,9.846604e+02
2.348874e+03,9.797420e+02
2.349839e+03,9.675372e+02
2.350803e+03,9.566649e+02
2.351767e+03,9.490605e+02
2.352731e+03,9.495172e+02
2.353696e+03,9.551635e+02
2.354660e+03,9.630782e+02
2.355624e+03,9.689154e+02
2.356588e+03,9.630809e+02
2.357552e+03,9.568523e+02
2.358517e+03,9.636031e+02
2.359481e+03,9.702356e+02
2.360445e+03,9.544681e+02
2.361409e+03,9.407526e+02
2.362374e+03,9.428674e+02
2.363338e+03,9.485289e+02
2.364302e+03,9.487492e+02
2.365266e+03,9.503415e+02
2.366230e+03,9.550129e+02
2.367195e+03,9.570203e+02
2.368159e+03,9.490090e+02
2.369123e+03,9.442006e+02
2.370087e+03,9.454108e+02
2.371052e+03,9.447175e+02
2.372016e+03,9.371570e+02
2.372980e+03,9.319302e+02
2.373944e+03,9.290248e+02
2.374909e+03,9.264819e+02
2.375873e+03,9.237635e+02
2.376837e+03,9.225541e+02
2.377801e+03,9.225361e+02
2.378766e+03,9.210674e+02
2.379730e+03,9.179768e+02
2.380694e+03,9.159076e+02
2.381658e+03,9.157291e+02
2.382623e+03,9.198030e+02
2.383587e+03,9.253220e+02
2.384551e+03,9.226444e+02
2.385515e+03,9.163128e+02
2.386479e+03,9.149433e+02
2.387444e+03,9.165969e+02
2.388408e+03,9.212803e+02
2.389372e+03,9.242220e+02
2.390336e+03,9.171968e+02
2.391301e+03,9.101661e+02
2.392265e+03,9.147004e+02
2.393229e+03,9.194452e+02
2.394193e+03,9.185483e+02
2.395157e+03,9.134254e+02
2.396122e+03,9.005059e+02
2.397086e+03,8.941719e+02
2.398050e+03,8.996545e+02
2.399014e+03,9.076810e+02
2.399979e+03,9.161468e+02
2.400943e+03,9.197188e+02
2.401907e+03,9.177706e+02
2.402871e+03,9.113827e+02
2.403836e+03,9.009701e+02
2.404800e+03,8.971945e+02
2.405764e+03,8.998909e+02
2.406728e+03,9.000697e+02
2.407693e+03,8.975165e+02
2.408657e+03,9.017384e+02
2.409621e+03,9.104266e+02
2.410585e+03,9.057347e+02
2.411550e+03,8.944369e+02
2.412514e+03,8.943737e+02
2.413478e+03,9.013453e+02
2.414442e+03,9.088037e+02
2.415406e+03,9.111146e+02
2.416371e+03,9.000192e+02
2.417335e+03,8.864940e+02
2.418299e+03,8.865504e+02
2.419263e+03,8.916839e+02
2.420228e+03,8.991826e+02
2.421192e+03,9.018840e+02
2.422156e+03,8.867603e+02
2.423120e+03,8.766405e+02
2.424084e+03,8.759943e+02
2.425049e+03,8.806171e+02
2.426013e+03,8.947892e+02
2.426977e+03,8.956651e+02
2.427941e+03,8.824045e+02
2.428906e+03,8.730849e+02
2.429870e+03,8.716948e+02
2.430834e+03,8.775193e+02
2.431798e+03,8.885301e+02
2.432763e+03,8.927877e+02
2.433727e+03,8.900472e+02
2.434691e+03,8.905307e+02
2.435655e+03,8.912203e+02
2.436620e+03,8.849556e+02
2.437584e+03,8.755511e+02
2.438548e+03,8.736890e+02
2.439512e+03,8.743417e+02
2.440477e+03,8.717862e+02
2.441441e+03,8.676289e+02
2.442405e+03,8.650784e+02
2.443369e+03,8.630086e+02
2.444333e+03,8.611096e+02
2.445298e+03,8.599012e+02
2.446262e+03,8.597237e+02
2.447226e+03,8.591605e+02
2.448190e+03,8.582355e+02
2.449155e+03,8.613216e+02
2.450119e+03,8.781813e+02
2.451083e+03,8.828438e+02
2.452047e+03,8.758626e+02
2.453011e+03,8.665779e+02
2.453976e+03,8.572912e+02
2.454940e+03,8.551449e+02
2.455904e+03,8.581682e+02
2.456868e+03,8.586466e+02
2.457833e+03,8.559492e+02
2.458797e+03,8.492402e+02
2.459761e+03,8.432896e+02
2.460725e+03,8.450032e+02
2.461690e+03,8.493307e+02
2.462654e+03,8.486329e+02
2.463618e+03,8.486708e+02
2.464582e+03,8.545784e+02
2.465547e+03,8.586576e+02
2.466511e+03,8.474449e+02
2.467475e+03,8.421035e+02
2.468439e+03,8.475799e+02
2.469404e+03,8.517701e+02
2.470368e+03,8.475362e+02
2.471332e+03,8.440066e+02
2.472296e+03,8.410491e+02
2.473260e+03,8.398460e+02
2.474225e+03,8.410107e+02
2.475189e+03,8.406033e+02
2.476153e+03,8.397997e+02
2.477117e+03,8.411317e+02
2.478082e+03,8.426359e+02
2.479046e+03,8.362903e+02
2.480010e+03,8.288699e+02
2.480974e+03,8.317483e+02
2.481938e+03,8.365830e+02
2.482903e+03,8.310126e+02
2.483867e+03,8.246771e+02
2.484831e+03,8.228087e+02
2.485795e+03,8.211929e+02
2.486760e+03,8.148612e+02
2.487724e+03,8.137830e+02
2.488688e+03,8.197524e+02
2.489652e+03,8.247725e+02
2.490617e+03,8.242250e+02
2.491581e+03,8.199225e+02
2.492545e+03,8.136309e+02
2.493509e+03,8.147291e+02
2.494474e+03,8.229860e+02
2.495438e+03,8.238915e+02
2.496402e+03,8.207305e+02
2.497366e+03,8.208453e+02
2.498331e+03,8.229367e+02
2.499295e+03,8.253049e+02
2.500259e+03,8.262010e+02
2.501223e+03,8.262623e+02
2.502188e+03,8.225431e+02
2.503152e+03,8.040977e+02
2.504116e+03,7.948033e+02
2.505080e+03,8.017025e+02
2.506044e+03,8.106837e+02
2.507009e+03,8.141370e+02
2.507973e+03,8.129088e+02
2.508937e+03,8.082488e+02
2.509901e+03,8.088792e+02
2.510865e+03,8.172157e+02
2.511830e+03,8.178541e+02
2.512794e+03,8.121826e+02
2.513758e+03,8.047883e+02
2.514722e+03,7.978090e+02
2.515687e+03,7.926115e+02
2.516651e+03,7.916283e+02
2.517615e+03,7.986689e+02
2.518579e+03,8.051700e+02
2.519544e+03,7.964700e+02
2.520508e+03,7.909854e+02
2.521472e+03,7.964399e+02
2.522436e+03,7.996890e+02
2.523401e+03,7.861238e+02
2.524365e+03,7.825550e+02
2.525329e+03,7.894082e+02
2.526293e+03,7.934935e+02
2.527258e+03,7.925566e+02
2.528222e+03,7.853859e+02
2.529186e+03,7.758287e+02
2.530150e+03,7.763356e+02
2.531115e+03,7.839776e+02
2.532079e+03,7.887386e+02
2.533043e+03,7.908835e+02
2.534007e+03,7.904935e+02
2.534971e+03,7.890274e+02
2.535936e+03,7.917383e+02
2.536900e+03,7.898173e+02
2.537864e+03,7.790170e+02
2.538828e+03,7.714711e+02
2.539792e+03,7.734113e+02
2.540757e+03,7.722867e+02
2.541721e+03,7.669777e+02
2.542685e+03,7.687757e+02
2.543649e+03,7.780724e+02
2.544614e+03,7.854698e+02
2.545578e+03,7.896096e+02
2.546542e+03,7.913525e+02
2.547506e+03,7.907781e+02
2.548471e+03,7.845541e+02
2.549435e+03,7.784086e+02
2.550399e+03,7.775302e+02
2.551363e+03,7.792410e+02
2.552328e+03,7.830652e+02
2.553292e+03,7.862043e+02
2.554256e+03,7.881686e+02
2.555220e+03,7.867175e+02
2.556185e+03,7.817909e+02
2.557149e+03,7.725558e+02
2.558113e+03,7.596899e+02
2.559077e+03,7.564931e+02
2.560042e+03,7.605518e+02
2.561006e+03,7.670245e+02
2.561970e+03,7.728888e+02
2.562934e+03,7.675771e+02
2.563898e+03,7.613009e+02
2.564863e+03,7.668931e+02
2.565827e+03,7.741469e+02
2.566791e+03,7.807170e+02
2.567755e+03,7.797102e+02
2.568719e+03,7.689844e+02
2.569684e+03,7.586255e+02
2.570648e+03,7.530965e+02
2.571612e+03,7.496514e+02
2.572576e+03,7.486697e+02
2.573541e+03,7.489703e+02
2.574505e+03,7.500195e+02
2.575469e+03,7.574977e+02
2.576433e+03,7.643800e+02
2.577398e+03,7.593843e+02
2.578362e+03,7.513430e+02
2.579326e+03,7.528580e+02
2.580290e+03,7.538773e+02
2.581255e+03,7.492148e+02
2.582219e+03,7.458040e+02
2.583183e+03,7.520677e+02
2.584147e+03,7.525722e+02
2.585112e+03,7.481703e+02
2.586076e+03,7.470176e+02
2.587040e+03,7.502928e+02
2.588004e+03,7.515560e+02
2.588969e+03,7.507933e+02
2.589933e+03,7.499023e+02
2.590897e+03,7.483373e+02
2.591861e+03,7.418854e+02
2.592825e+03,7.382446e+02
2.593790e+03,7.428716e+02
2.594754e+03,7.471070e+02
2.595718e+03,7.446547e+02
2.596682e+03,7.426629e+02
2.597646e+03,7.421928e+02
2.598611e+03,7.379391e+02
2.599575e+03,7.307383e+02
2.600539e+03,7.278163e+02
2.601503e+03,7.277868e+02
2.602468e+03,7.210129e+02
2.603432e+03,7.131512e+02
2.604396e+03,7.188818e+02
2.605360e+03,7.286287e+02
2.606325e+03,7.369077e+02
2.607289e+03,7.382628e+02
2.608253e+03,7.299464e+02
2.609217e+03,7.236844e+02
2.610182e+03,7.250253e+02
2.611146e+03,7.231370e+02
2.612110e+03,7.181310e+02
2.613074e+03,7.119127e+02
2.614039e+03,7.071262e+02
2.615003e+03,7.186262e+02
2.615967e+03,7.336534e+02
2.616931e+03,7.340853e+02
2.617896e+03,7.284689e+02
2.618860e+03,7.255175e+02
2.619824e+03,7.227337e+02
2.620788e+03,7.185408e+02
2.621752e+03,7.170639e+02
2.622717e+03,7.217572e+02
2.623681e+03,7.304955e+02
2.624645e+03,7.411647e+02
2.625609e+03,7.390359e+02
2.626573e+03,7.267023e+02
2.627538e+03,7.263351e+02
2.628502e+03,7.290465e+02
2.629466e+03,7.190254e+02
2.630430e+03,7.060657e+02
2.631395e+03,7.033592e+02
2.632359e+03,7.016326e+02
2.633323e+03,6.972335e+02
2.634287e+03,6.978106e+02
2.635252e+03,7.049387e+02
2.636216e+03,7.097443e+02
2.637180e+03,7.094911e+02
2.638144e+03,7.018711e+02
2.639109e+03,6.915596e+02
2.640073e+03,6.967283e+02
2.641037e+03,7.054554e+02
2.642001e+03,6.935195e+02
2.642966e+03,6.856878e+02
2.643930e+03,6.965449e+02
2.644894e+03,7.087894e+02
2.645858e+03,7.124004e+02
2.646823e+03,7.120491e+02
2.647787e+03,7.080553e+02
2.648751e+03,7.031097e+02
2.649715e+03,6.979617e+02
2.650679e+03,6.980572e+02
2.651644e+03,7.012462e+02
2.652608e+03,7.039694e+02
2.653572e+03,7.061976e+02
2.654536e+03,7.110930e+02
2.655500e+03,7.093870e+02
2.656465e+03,6.963124e+02
2.657429e+03,6.863971e+02
2.658393e+03,6.835845e+02
2.659357e+03,6.884179e+02
2.660322e+03,6.998026e+02
2.661286e+03,7.000762e+02
2.662250e+03,6.939578e+02
2.663214e+03,6.988100e+02
2.664179e+03,7.040714e+02
2.665143e+03,6.932350e+02
2.666107e+03,6.835189e+02
2.667071e+03,6.840568e+02
2.668036e+03,6.865384e+02
2.669000e+03,6.869159e+02
2.669964e+03,6.844871e+02
2.670928e+03,6.803593e+02
2.671893e+03,6.838873e+02
2.672857e+03,6.926697e+02
2.673821e+03,6.906930e+02
2.674785e+03,6.826737e+02
2.675750e+03,6.743453e+02
2.676714e+03,6.677176e+02
2.677678e+03,6.646484e+02
2.678642e+03,6.634769e+02
2.679606e+03,6.638281e+02
2.680571e+03,6.733392e+02
2.681535e+03,6.915632e+02
2.682499e+03,6.872563e+02
2.683463e+03,6.672117e+02
2.684427e+03,6.687527e+02
2.685392e+03,6.796796e+02
2.686356e+03,6.778773e+02
2.687320e+03,6.737128e+02
2.688284e+03,6.737172e+02
2.689249e+03,6.745151e+02
2.690213e+03,6.748773e+02
2.691177e+03,6.748775e+02
2.692141e+03,6.752870e+02
2.693106e+03,6.723820e+02
2.694070e+03,6.694708e+02
2.695034e+03,6.763118e+02
2.695998e+03,6.852576e+02
2.696963e+03,6.824131e+02
2.697927e+03,6.762386e+02
2.698891e+03,6.696740e+02
2.699855e+03,6.682714e+02
2.700820e+03,6.769328e+02
2.701784e+03,6.821741e+02
2.702748e+03,6.810096e+02
2.703712e+03,6.650923e+02
2.704677e+03,6.436970e+02
2.705641e+03,6.509150e+02
2.706605e+03,6.676603e+02
2.707569e+03,6.728445e+02
2.708533e+03,6.725440e+02
2.709498e+03,6.695194e+02
2.710462e+03,6.658607e+02
2.711426e+03,6.634617e+02
2.712390e+03,6.581896e+02
2.713354e+03,6.510040e+02
2.714319e+03,6.450652e+02
2.715283e+03,6.425164e+02
2.716247e+03,6.541102e+02
2.717211e+03,6.657215e+02
2.718176e+03,6.679551e+02
2.719140e+03,6.652803e+02
2.720104e+03,6.592397e+02
2.721068e+03,6.514774e+02
2.722033e+03,6.430326e+02
2.722997e+03,6.426931e+02
2.723961e+03,6.486420e+02
2.724925e+03,6.575993e+02
2.725890e+03,6.647948e+02
2.726854e+03,6.622715e+02
2.727818e+03,6.574046e+02
2.728782e+03,6.533732e+02
2.729747e+03,6.502430e+02
2.730711e+03,6.483760e+02
2.731675e+03,6.478436e+02
2.732639e+03,6.490782e+02
2.733604e+03,6.559168e+02
2.734568e+03,6.632373e+02
2.735532e+03,6.523276e+02
2.736496e+03,6.421740e+02
2.737460e+03,6.485914e+02
2.738425e+03,6.529679e+02
2.739389e+03,6.419953e+02
2.740353e+03,6.363723e+02
2.741317e+03,6.393143e+02
2.742281e+03,6.415928e+02
2.743246e+03,6.421349e+02
2.744210e+03,6.346985e+02
2.745174e+03,6.271251e+02
2.746138e+03,6.343092e+02
2.747103e+03,6.405115e+02
2.748067e+03,6.400623e+02
2.749031e+03,6.354524e+02
2.749995e+03,6.229927e+02
2.750960e+03,6.262125e+02
2.751924e+03,6.383589e+02
2.752888e+03,6.356622e+02
2.753852e+03,6.257543e+02
2.754817e+03,6.272836e+02
2.755781e+03,6.326302e+02
2.756745e+03,6.388563e+02
2.757709e+03,6.377219e+02
2.758674e+03,6.263070e+02
2.759638e+03,6.257698e+02
2.760602e+03,6.385500e+02
2.761566e+03,6.422137e+02
2.762531e+03,6.380384e+02
2.763495e+03,6.226119e+02
2.764459e+03,6.093972e+02
2.765423e+03,6.154046e+02
2.766387e+03,6.236378e+02
2.767352e+03,6.304318e+02
2.768316e+03,6.337222e+02
2.769280e+03,6.332644e+02
2.770244e+03,6.309842e+02
2.771208e+03,6.279778e+02
2.772173e+03,6.265612e+02
2.773137e+03,6.229590e+02
2.774101e+03,6.108401e+02
2.775065e+03,6.055846e+02
2.776030e+03,6.151915e+02
2.776994e+03,6.217255e+02
2.777958e+03,6.240400e+02
2.778922e+03,6.332653e+02
2.779887e+03,6.429378e+02
2.780851e+03,6.248460e+02
2.781815e+03,6.077834e+02
2.782779e+03,6.122852e+02
2.783744e+03,6.213351e+02
2.784708e+03,6.258876e+02
2.785672e+03,6.219894e+02
2.786636e+03,6.113405e+02
2.787601e+03,6.101168e+02
2.788565e+03,6.155736e+02
2.789529e+03,6.199255e+02
2.790493e+03,6.220869e+02
2.791458e+03,6.202336e+02
2.792422e+03,6.144288e+02
2.793386e+03,6.059615e+02
2.794350e+03,6.059239e+02
2.795314e+03,6.164537e+02
2.796279e+03,6.168085e+02
2.797243e+03,6.140537e+02
2.798207e+03,6.225775e+02
2.799171e+03,6.309905e+02
2.800135e+03,6.202510e+02
2.801100e+03,6.132335e+02
2.802064e+03,6.157507e+02
2.803028e+03,6.208676e+02
2.803992e+03,6.258139e+02
2.804957e+03,6.225198e+02
2.805921e+03,6.154885e+02
2.806885e+03,6.116232e+02
2.807849e+03,6.092565e+02
2.808814e+03,6.069678e+02
2.809778e+03,6.080169e+02
2.810742e+03,6.165267e+02
2.811706e+03,6.131879e+02
2.812671e+03,6.027303e+02
2.813635e+03,6.059519e+02
2.814599e+03,6.148410e+02
2.815563e+03,6.139345e+02
2.816528e+03,6.116231e+02
2.817492e+03,6.112995e+02
2.818456e+03,6.108717e+02
2.819420e+03,6.091825e+02
2.820385e+03,6.018250e+02
2.821349e+03,5.926356e+02
2.822313e+03,5.967573e+02
2.823277e+03,6.016622e+02
2.824241e+03,5.958342e+02
2.825206e+03,5.936607e+02
2.826170e+03,6.062797e+02
2.827134e+03,6.119232e+02
2.828098e+03,6.093621e+02
2.829063e+03,6.161943e+02
2.830027e+03,6.245880e+02
2.830991e+03,6.133818e+02
2.831955e+03,6.028463e+02
2.832919e+03,6.095450e+02
2.833884e+03,6.164105e+02
2.834848e+03,6.201395e+02
2.835812e+03,6.204091e+02
2.836776e+03,6.179303e+02
2.837741e+03,6.123949e+02
2.838705e+03,6.057657e+02
2.839669e+03,6.000599e+02
2.840633e+03,5.939940e+02
2.841598e+03,5.861747e+02
2.842562e+03,5.873532e+02
2.843526e+03,6.012952e+02
2.844490e+03,6.058536e+02
2.845455e+03,6.014555e+02
2.846419e+03,5.865632e+02
2.847383e+03,5.756569e+02
2.848347e+03,5.912998e+02
2.849312e+03,6.010834e+02
2.850276e+03,5.994490e+02
2.851240e+03,6.023477e+02
2.852204e+03,6.085674e+02
2.853168e+03,6.026058e+02
2.854133e+03,5.937556e+02
2.855097e+03,5.936685e+02
2.856061e+03,5.988844e+02
2.857025e+03,6.064979e+02
2.857990e+03,6.133040e+02
2.858954e+03,6.187156e+02
2.859918e+03,6.072311e+02
2.860882e+03,5.941515e+02
2.861846e+03,6.068767e+02
2.862811e+03,6.176840e+02
2.863775e+03,5.947167e+02
2.864739e+03,5.853273e+02
2.865703e+03,6.026637e+02
2.866668e+03,6.138708e+02
2.867632e+03,6.175717e+02
2.868596e+03,6.129391e+02
2.869560e+03,6.057697e+02
2.870525e+03,6.013802e+02
2.871489e+03,6.013316e+02
2.872453e+03,6.054911e+02
2.873417e+03,6.048611e+02
2.874382e+03,5.992177e+02
2.875346e+03,5.922102e+02
2.876310e+03,5.891078e+02
2.877274e+03,5.982920e+02
2.878239e+03,6.082272e+02
2.879203e+03,6.141871e+02
2.880167e+03,6.128835e+02
2.881131e+03,6.035433e+02
2.882095e+03,6.057003e+02
2.883060e+03,6.126711e+02
2.884024e+03,6.126624e+02
2.884988e+03,6.107509e+02
2.885952e+03,6.115618e+02
2.886917e+03,6.110289e+02
2.887881e+03,6.086279e+02
2.888845e+03,6.044430e+02
2.889809e+03,6.008705e+02
2.890773e+03,6.033817e+02
2.891738e+03,6.060750e+02
2.892702e+03,6.014676e+02
2.893666e+03,6.019202e+02
2.894630e+03,6.093664e+02
2.895595e+03,6.173378e+02
2.896559e+03,6.226640e+02
2.897523e+03,6.113073e+02
2.898487e+03,5.983665e+02
2.899452e+03,6.002504e+02
2.900416e+03,6.064035e+02
2.901380e+03,6.130496e+02
2.902344e+03,6.145167e+02
2.903309e+03,6.105264e+02
2.904273e+03,6.051329e+02
2.905237e+03,5.995994e+02
2.906201e+03,5.951637e+02
2.907166e+03,5.905241e+02
2.908130e+03,5.847526e+02
2.909094e+03,5.874822e+02
2.910058e+03,5.983895e+02
2.911022e+03,5.936047e+02
2.911987e+03,5.860682e+02
2.912951e+03,5.904538e+02
2.913915e+03,5.942578e+02
2.914879e+03,5.877563e+02
2.915844e+03,5.799635e+02
2.916808e+03,5.737171e+02
2.917772e+03,5.775686e+02
2.918736e+03,5.853754e+02
2.919700e+03,5.886570e+02
2.920665e+03,5.867424e+02
2.921629e+03,5.762062e+02
2.922593e+03,5.615129e+02
2.923557e+03,5.478787e+02
2.924522e+03,5.568823e+02
2.925486e+03,5.773168e+02
2.926450e+03,5.893902e+02
2.927414e+03,5.938519e+02
2.928379e+03,5.893419e+02
2.929343e+03,5.754753e+02
2.930307e+03,5.568400e+02
2.931271e+03,5.563573e+02
2.932236e+03,5.664559e+02
2.933200e+03,5.772328e+02
2.934164e+03,5.852382e+02
2.935128e+03,5.886107e+02
2.936093e+03,5.888028e+02
2.937057e+03,5.872100e+02
2.938021e+03,5.815067e+02
2.938985e+03,5.770770e+02
2.939949e+03,5.856995e+02
2.940914e+03,5.886984e+02
2.941878e+03,5.805145e+02
2.942842e+03,5.753860e+02
2.943806e+03,5.749674e+02
2.944771e+03,5.741063e+02
2.945735e+03,5.711116e+02
2.946699e+03,5.621683e+02
2.947663e+03,5.541656e+02
2.948627e+03,5.484241e+02
2.949592e+03,5.525504e+02
2.950556e+03,5.667764e+02
2.951520e+03,5.754792e+02
2.952484e+03,5.792365e+02
2.953449e+03,5.782473e+02
2.954413e+03,5.853400e+02
2.955377e+03,6.064089e+02
2.956341e+03,6.174490e+02
2.957306e+03,6.149218e+02
2.958270e+03,6.059626e+02
2.959234e+03,5.878502e+02
2.960198e+03,5.586357e+02
2.961163e+03,5.456244e+02
2.962127e+03,5.622702e+02
2.963091e+03,5.657120e+02
2.964055e+03,5.578495e+02
2.965020e+03,5.603662e+02
2.965984e+03,5.656912e+02
2.966948e+03,5.672879e+02
2.967912e+03,5.675445e+02
2.968876e+03,5.683815e+02
2.969841e+03,5.557855e+02
2.970805e+03,5.412838e+02
2.971769e+03,5.505368e+02
2.972733e+03,5.570513e+02
2.973698e+03,5.398453e+02
2.974662e+03,5.293110e+02
2.975626e+03,5.342314e+02
2.976590e+03,5.473765e+02
2.977554e+03,5.578009e+02
2.978519e+03,5.505320e+02
2.979483e+03,5.396588e+02
2.980447e+03,5.340828e+02
2.981411e+03,5.369836e+02
2.982376e+03,5.470716e+02
2.983340e+03,5.464113e+02
2.984304e+03,5.417197e+02
2.985268e+03,5.397515e+02
2.986233e+03,5.414388e+02
2.987197e+03,5.498420e+02
2.988161e+03,5.464352e+02
2.989125e+03,5.369785e+02
2.990090e+03,5.450029e+02
2.991054e+03,5.499301e+02
2.992018e+03,5.340778e+02
2.992982e+03,5.220524e+02
2.993947e+03,5.238670e+02
2.994911e+03,5.393137e+02
2.995875e+03,5.562464e+02
2.996839e+03,5.541228e+02
2.997803e+03,5.447424e+02
2.998768e+03,5.362218e+02
2.999732e+03,5.293617e+02
3.000696e+03,5.262901e+02
3.001660e+03,5.384550e+02
3.002625e+03,5.491835e+02
3.003589e+03,5.420020e+02
3.004553e+03,5.366794e+02
3.005517e+03,5.432614e+02
3.006481e+03,5.507893e+02
3.007446e+03,5.556273e+02
3.008410e+03,5.513285e+02
3.009374e+03,5.478946e+02
3.010338e+03,5.525524e+02
3.011303e+03,5.511883e+02
3.012267e+03,5.382374e+02
3.013231e+03,5.256351e+02
3.014195e+03,5.206669e+02
3.015160e+03,5.395693e+02
3.016124e+03,5.543646e+02
3.017088e+03,5.555153e+02
3.018052e+03,5.496724e+02
3.019017e+03,5.393160e+02
3.019981e+03,5.330237e+02
3.020945e+03,5.282931e+02
3.021909e+03,5.210074e+02
3.022874e+03,5.245978e+02
3.023838e+03,5.382421e+02
3.024802e+03,5.373694e+02
3.025766e+03,5.260858e+02
3.026730e+03,5.119619e+02
3.027695e+03,5.085474e+02
3.028659e+03,5.216127e+02
3.029623e+03,5.297206e+02
3.030587e+03,5.298704e+02
3.031552e+03,5.149771e+02
3.032516e+03,5.015224e+02
3.033480e+03,5.161805e+02
3.034444e+03,5.228036e+02
3.035408e+03,5.160693e+02
3.036373e+03,5.097499e+02
3.037337e+03,5.072698e+02
3.038301e+03,5.243915e+02
3.039265e+03,5.327289e+02
3.040230e+03,5.037066e+02
3.041194e+03,5.016930e+02
3.042158e+03,5.194329e+02
3.043122e+03,5.178741e+02
3.044087e+03,5.088450e+02
3.045051e+03,5.076929e+02
3.046015e+03,5.131407e+02
3.046979e+03,5.262721e+02
3.047944e+03,5.048830e+02
3.048908e+03,4.794198e+02
3.049872e+03,4.970240e+02
3.050836e+03,5.225932e+02
3.051801e+03,5.344818e+02
3.052765e+03,5.321669e+02
3.053729e+03,5.188846e+02
3.054693e+03,5.188729e+02
3.055657e+03,5.209786e+02
3.056622e+03,5.155869e+02
3.057586e+03,5.205262e+02
3.058550e+03,5.408458e+02
3.059514e+03,5.366588e+02
3.060479e+03,5.217183e+02
3.061443e+03,5.154088e+02
3.062407e+03,5.211830e+02
3.063371e+03,5.368807e+02
3.064335e+03,5.373058e+02
3.065300e+03,5.257852e+02
3.066264e+03,5.203134e+02
3.067228e+03,5.229399e+02
3.068192e+03,5.386663e+02
3.069157e+03,5.343611e+02
3.070121e+03,5.162747e+02
3.071085e+03,5.285081e+02
3.072049e+03,5.464286e+02
3.073014e+03,5.263943e+02
3.073978e+03,5.151766e+02
3.074942e+03,5.213689e+02
3.075906e+03,5.104625e+02
3.076871e+03,4.955647e+02
3.077835e+03,4.998217e+02
3.078799e+03,5.024126e+02
3.079763e+03,4.869468e+02
3.080728e+03,4.912472e+02
3.081692e+03,5.097377e+02
3.082656e+03,5.106136e+02
3.083620e+03,5.069097e+02
3.084584e+03,5.067225e+02
3.085549e+03,5.152322e+02
3.086513e+03,5.315628e+02
3.087477e+03,5.020489e+02
3.088441e+03,4.757120e+02
3.089406e+03,5.154030e+02
3.090370e+03,5.401786e+02
3.091334e+03,5.368582e+02
3.092298e+03,5.148357e+02
3.093262e+03,4.914534e+02
3.094227e+03,5.024193e+02
3.095191e+03,5.102775e+02
3.096155e+03,5.019739e+02
3.097119e+03,4.959696e+02
3.098084e+03,4.956489e+02
3.099048e+03,5.044215e+02
3.100012e+03,5.135925e+02
3.100976e+03,5.175099e+02
3.101941e+03,5.135732e+02
3.102905e+03,5.057125e+02
3.103869e+03,5.169926e+02
3.104833e+03,5.237078e+02
3.105798e+03,5.119126e+02
3.106762e+03,5.002947e+02
3.107726e+03,4.951342e+02
3.108690e+03,5.119102e+02
3.109655e+03,5.306781e+02
3.110619e+03,5.243806e+02
3.111583e+03,5.229087e+02
3.112547e+03,5.287241e+02
3.113511e+03,5.121443e+02
3.114476e+03,4.914229e+02
3.115440e+03,5.167073e+02
3.116404e+03,5.386852e+02
3.117368e+03,5.410317e+02
3.118333e+03,5.230339e+02
3.119297e+03,5.010052e+02
3.120261e+03,4.987550e+02
3.121225e+03,5.139907e+02
3.122189e+03,5.456092e+02
3.123154e+03,5.421889e+02
3.124118e+03,5.152316e+02
3.125082e+03,5.385074e+02
3.126046e+03,5.508696e+02
3.127011e+03,5.222103e+02
3.127975e+03,5.230474e+02
3.128939e+03,5.485981e+02
3.129903e+03,5.397462e+02
3.130868e+03,5.195272e+02
3.131832e+03,4.951860e+02
3.132796e+03,5.020971e+02
3.133760e+03,5.316829e+02
3.134725e+03,5.292267e+02
3.135689e+03,5.214437e+02
3.136653e+03,5.366337e+02
3.137617e+03,5.363100e+02
3.138582e+03,5.094710e+02
3.139546e+03,5.134503e+02
3.140510e+03,5.295911e+02
3.141474e+03,5.408440e+02
3.142438e+03,5.402405e+02
3.143403e+03,5.303928e+02
3.144367e+03,5.270776e+02
3.145331e+03,5.258583e+02
3.146295e+03,5.163329e+02
3.147260e+03,5.070719e+02
3.148224e+03,5.003785e+02
3.149188e+03,5.171715e+02
3.150152e+03,5.326170e+02
3.151116e+03,5.141362e+02
3.152081e+03,4.929273e+02
3.153045e+03,4.815228e+02
3.154009e+03,5.044857e+02
3.154973e+03,5.352162e+02
3.155938e+03,5.053686e+02
3.156902e+03,4.942436e+02
3.157866e+03,5.201038e+02
3.158830e+03,5.336379e+02
3.159795e+03,5.365347e+02
3.160759e+03,5.424523e+02
3.161723e+03,5.446477e+02
3.162687e+03,5.399913e+02
3.163652e+03,5.194408e+02
3.164616e+03,5.013785e+02
3.165580e+03,5.205995e+02
3.166544e+03,5.359321e+02
3.167509e+03,5.310560e+02
3.168473e+03,5.362553e+02
3.169437e+03,5.451972e+02
3.170401e+03,5.179727e+02
3.171365e+03,4.933429e+02
3.172330e+03,4.887262e+02
3.173294e+03,5.217466e+02
3.174258e+03,5.628152e+02
3.175222e+03,5.551064e+02
3.176187e+03,5.341464e+02
3.177151e+03,5.217615e+02
3.178115e+03,5.084404e+02
3.179079e+03,5.027423e+02
3.180043e+03,5.402238e+02
3.181008e+03,5.596115e+02
3.181972e+03,5.416024e+02
3.182936e+03,5.200378e+02
3.183900e+03,5.043811e+02
3.184865e+03,5.102865e+02
3.185829e+03,5.218139e+02
3.186793e+03,5.384443e+02
3.187757e+03,5.399662e+02
3.188722e+03,5.302131e+02
3.189686e+03,5.176904e+02
3.190650e+03,5.160084e+02
3.191614e+03,5.275480e+02
3.192579e+03,5.187108e+02
3.193543e+03,5.010894e+02
3.194507e+03,5.261391e+02
3.195471e+03,5.514694e+02
3.196436e+03,5.593057e+02
3.197400e+03,5.301093e+02
3.198364e+03,5.001313e+02
3.199328e+03,5.280035e+02
3.200292e+03,5.567350e+02
3.201257e+03,0.000000e+00
3.202221e+03,0.000000e+00
3.203185e+03,0.000000e+00
3.204149e+03,0.000000e+00
3.205114e+03,0.000000e+00
3.206078e+03,0.000000e+00
3.207042e+03,0.000000e+00
3.208006e+03,0.000000e+00
3.208970e+03,0.000000e+00
3.209935e+03,0.000000e+00
3.210899e+03,0.000000e+00
3.211863e+03,0.000000e+00
3.212827e+03,0.000000e+00
3.213792e+03,0.000000e+00
3.214756e+03,0.000000e+00
3.215720e+03,0.000000e+00
3.216684e+03,0.000000e+00
3.217649e+03,0.000000e+00
3.218613e+03,0.000000e+00
3.219577e+03,0.000000e+00
3.220541e+03,0.000000e+00
3.221506e+03,0.000000e+00
3.222470e+03,0.000000e+00
3.223434e+03,0.000000e+00
3.224398e+03,0.000000e+00
3.225363e+03,0.000000e+00
3.226327e+03,0.000000e+00
3.227291e+03,0.000000e+00
3.228255e+03,0.000000e+00
3.229219e+03,0.000000e+00
3.230184e+03,0.000000e+00
3.231148e+03,0.000000e+00
3.232112e+03,0.000000e+00
3.233076e+03,0.000000e+00
3.234041e+03,0.000000e+00
3.235005e+03,0.000000e+00
3.235969e+03,0.000000e+00
3.236933e+03,0.000000e+00
3.237897e+03,0.000000e+00
3.238862e+03,0.000000e+00
3.239826e+03,0.000000e+00
3.240790e+03,0.000000e+00
3.241754e+03,0.000000e+00
3.242719e+03,0.000000e+00
3.243683e+03,0.000000e+00
3.244647e+03,0.000000e+00
3.245611e+03,0.000000e+00
3.246576e+03,0.000000e+00
3.247540e+03,0.000000e+00
3.248504e+03,0.000000e+00
3.249468e+03,0.000000e+00
3.250433e+03,0.000000e+00
3.251397e+03,0.000000e+00
3.252361e+03,0.000000e+00
3.253325e+03,0.000000e+00
3.254290e+03,0.000000e+00
3.255254e+03,0.000000e+00
3.256218e+03,0.000000e+00
3.257182e+03,0.000000e+00
3.258146e+03,0.000000e+00
3.259111e+03,0.000000e+00
3.260075e+03,0.000000e+00
3.261039e+03,0.000000e+00
3.262003e+03,0.000000e+00
3.262968e+03,0.000000e+00
3.263932e+03,0.000000e+00
3.264896e+03,0.000000e+00
3.265860e+03,0.000000e+00
3.266824e+03,0.000000e+00
3.267789e+03,0.000000e+00
3.268753e+03,0.000000e+00
3.269717e+03,0.000000e+00
3.270681e+03,0.000000e+00
3.271646e+03,0.000000e+00
3.272610e+03,0.000000e+00
3.273574e+03,0.000000e+00
3.274538e+03,0.000000e+00
3.275503e+03,0.000000e+00
3.276467e+03,0.000000e+00
3.277431e+03,0.000000e+00
3.278395e+03,0.000000e+00
3.279360e+03,0.000000e+00
3.280324e+03,0.000000e+00
3.281288e+03,0.000000e+00
3.282252e+03,0.000000e+00
3.283217e+03,0.000000e+00
3.284181e+03,0.000000e+00
3.285145e+03,0.000000e+00
3.286109e+03,0.000000e+00
3.287073e+03,0.000000e+00
3.288038e+03,0.000000e+00
3.289002e+03,0.000000e+00
3.289966e+03,0.000000e+00
3.290930e+03,0.000000e+00
3.291895e+03,0.000000e+00
3.292859e+03,0.000000e+00
3.293823e+03,0.000000e+00
3.294787e+03,0.000000e+00
3.295751e+03,0.000000e+00
3.296716e+03,0.000000e+00
3.297680e+03,0.000000e+00
3.298644e+03,0.000000e+00
3.299608e+03,0.000000e+00
3.300573e+03,0.000000e+00
3.301537e+03,0.000000e+00
3.302501e+03,0.000000e+00
3.303465e+03,0.000000e+00
3.304430e+03,0.000000e+00
3.305394e+03,0.000000e+00
3.306358e+03,0.000000e+00
3.307322e+03,0.000000e+00
3.308287e+03,0.000000e+00
3.309251e+03,0.000000e+00
3.310215e+03,0.000000e+00
3.311179e+03,0.000000e+00
3.312144e+03,0.000000e+00
3.313108e+03,0.000000e+00
3.314072e+03,0.000000e+00
3.315036e+03,0.000000e+00
3.316000e+03,0.000000e+00
3.316965e+03,0.000000e+00
3.317929e+03,0.000000e+00
3.318893e+03,0.000000e+00
3.319857e+03,0.000000e+00
3.320822e+03,0.000000e+00
3.321786e+03,0.000000e+00
3.322750e+03,0.000000e+00
3.323714e+03,0.000000e+00
3.324678e+03,0.000000e+00
3.325643e+03,0.000000e+00
3.326607e+03,0.000000e+00
3.327571e+03,0.000000e+00
3.328535e+03,0.000000e+00
3.329500e+03,0.000000e+00
3.330464e+03,0.000000e+00
3.331428e+03,0.000000e+00
3.332392e+03,0.000000e+00
3.333357e+03,0.000000e+00
3.334321e+03,0.000000e+00
3.335285e+03,0.000000e+00
3.336249e+03,0.000000e+00
3.337214e+03,0.000000e+00
3.338178e+03,0.000000e+00
3.339142e+03,0.000000e+00
3.340106e+03,0.000000e+00
3.341071e+03,0.000000e+00
3.342035e+03,0.000000e+00
3.342999e+03,0.000000e+00
3.343963e+03,0.000000e+00
3.344927e+03,0.000000e+00
3.345892e+03,0.000000e+00
3.346856e+03,0.000000e+00
3.347820e+03,0.000000e+00
3.348784e+03,0.000000e+00
3.349749e+03,0.000000e+00
3.350713e+03,0.000000e+00
3.351677e+03,0.000000e+00
3.352641e+03,0.000000e+00
3.353605e+03,0.000000e+00
3.354570e+03,0.000000e+00
3.355534e+03,0.000000e+00
3.356498e+03,0.000000e+00
3.357462e+03,0.000000e+00
3.358427e+03,0.000000e+00
3.359391e+03,0.000000e+00
3.360355e+03,0.000000e+00
3.361319e+03,0.000000e+00
3.362284e+03,0.000000e+00
3.363248e+03,0.000000e+00
3.364212e+03,0.000000e+00
3.365176e+03,0.000000e+00
3.366141e+03,0.000000e+00
3.367105e+03,0.000000e+00
3.368069e+03,0.000000e+00
3.369033e+03,0.000000e+00
3.369998e+03,0.000000e+00
3.370962e+03,0.000000e+00
3.371926e+03,0.000000e+00
3.372890e+03,0.000000e+00
3.373854e+03,0.000000e+00
3.374819e+03,0.000000e+00
3.375783e+03,0.000000e+00
3.376747e+03,0.000000e+00
3.377711e+03,0.000000e+00
3.378676e+03,0.000000e+00
3.379640e+03,0.000000e+00
3.380604e+03,0.000000e+00
3.381568e+03,0.000000e+00
3.382532e+03,0.000000e+00
3.383497e+03,0.000000e+00
3.384461e+03,0.000000e+00
3.385425e+03,0.000000e+00
3.386389e+03,0.000000e+00
3.387354e+03,0.000000e+00
3.388318e+03,0.000000e+00
3.389282e+03,0.000000e+00
3.390246e+03,0.000000e+00
3.391211e+03,0.000000e+00
3.392175e+03,0.000000e+00
3.393139e+03,0.000000e+00
3.394103e+03,0.000000e+00
3.395068e+03,0.000000e+00
3.396032e+03,0.000000e+00
3.396996e+03,0.000000e+00
3.397960e+03,0.000000e+00
3.398925e+03,0.000000e+00
3.399889e+03,0.000000e+00
3.400853e+03,0.000000e+00
3.401817e+03,0.000000e+00
3.402781e+03,0.000000e+00
3.403746e+03,0.000000e+00
3.404710e+03,0.000000e+00
3.405674e+03,0.000000e+00
3.406638e+03,0.000000e+00
3.407603e+03,0.000000e+00
3.408567e+03,0.000000e+00
3.409531e+03,0.000000e+00
3.410495e+03,0.000000e+00
3.411459e+03,0.000000e+00
3.412424e+03,0.000000e+00
3.413388e+03,0.000000e+00
3.414352e+03,0.000000e+00
3.415316e+03,0.000000e+00
3.416281e+03,0.000000e+00
3.417245e+03,0.000000e+00
3.418209e+03,0.000000e+00
3.419173e+03,0.000000e+00
3.420138e+03,0.000000e+00
3.421102e+03,0.000000e+00
3.422066e+03,0.000000e+00
3.423030e+03,0.000000e+00
3.423995e+03,0.000000e+00
3.424959e+03,0.000000e+00
3.425923e+03,0.000000e+00
3.426887e+03,0.000000e+00
3.427852e+03,0.000000e+00
3.428816e+03,0.000000e+00
3.429780e+03,0.000000e+00
3.430744e+03,0.000000e+00
3.431708e+03,0.000000e+00
3.432673e+03,0.000000e+00
3.433637e+03,0.000000e+00
3.434601e+03,0.000000e+00
3.435565e+03,0.000000e+00
3.436530e+03,0.000000e+00
3.437494e+03,0.000000e+00
3.438458e+03,0.000000e+00
3.439422e+03,0.000000e+00
3.440386e+03,0.000000e+00
3.441351e+03,0.000000e+00
3.442315e+03,0.000000e+00
3.443279e+03,0.000000e+00
3.444243e+03,0.000000e+00
3.445208e+03,0.000000e+00
3.446172e+03,0.000000e+00
3.447136e+03,0.000000e+00
3.448100e+03,0.000000e+00
3.449065e+03,0.000000e+00
3.450029e+03,0.000000e+00
3.450993e+03,0.000000e+00
3.451957e+03,0.000000e+00
3.452922e+03,0.000000e+00
3.453886e+03,0.000000e+00
3.454850e+03,0.000000e+00
3.455814e+03,0.000000e+00
3.456779e+03,0.000000e+00
3.457743e+03,0.000000e+00
3.458707e+03,0.000000e+00
3.459671e+03,0.000000e+00
3.460635e+03,0.000000e+00
3.461600e+03,0.000000e+00
3.462564e+03,0.000000e+00
3.463528e+03,0.000000e+00
3.464492e+03,0.000000e+00
3.465457e+03,0.000000e+00
3.466421e+03,0.000000e+00
3.467385e+03,0.000000e+00
3.468349e+03,0.000000e+00
3.469313e+03,0.000000e+00
3.470278e+03,0.000000e+00
3.471242e+03,0.000000e+00
3.472206e+03,0.000000e+00
3.473170e+03,0.000000e+00
3.474135e+03,0.000000e+00
3.475099e+03,0.000000e+00
3.476063e+03,0.000000e+00
3.477027e+03,0.000000e+00
3.477992e+03,0.000000e+00
3.478956e+03,0.000000e+00
3.479920e+03,0.000000e+00
3.480884e+03,0.000000e+00
3.481849e+03,0.000000e+00
3.482813e+03,0.000000e+00
3.483777e+03,0.000000e+00
3.484741e+03,0.000000e+00
3.485706e+03,0.000000e+00
3.486670e+03,0.000000e+00
3.487634e+03,0.000000e+00
3.488598e+03,0.000000e+00
3.489563e+03,0.000000e+00
3.490527e+03,0.000000e+00
3.491491e+03,0.000000e+00
3.492455e+03,0.000000e+00
3.493419e+03,0.000000e+00
3.494384e+03,0.000000e+00
3.495348e+03,0.000000e+00
3.496312e+03,0.000000e+00
3.497276e+03,0.000000e+00
3.498240e+03,0.000000e+00
3.499205e+03,0.000000e+00
3.500169e+03,0.000000e+00
