9.931763e+01,0.000000e+00
1.002819e+02,0.000000e+00
1.012461e+02,0.000000e+00
1.022103e+02,0.000000e+00
1.031746e+02,0.000000e+00
1.041388e+02,0.000000e+00
1.051030e+02,0.000000e+00
1.060673e+02,0.000000e+00
1.070315e+02,0.000000e+00
1.079957e+02,0.000000e+00
1.089600e+02,0.000000e+00
1.099242e+02,0.000000e+00
1.108884e+02,0.000000e+00
1.118527e+02,0.000000e+00
1.128169e+02,0.000000e+00
1.137811e+02,0.000000e+00
1.147454e+02,0.000000e+00
1.157096e+02,0.000000e+00
1.166738e+02,0.000000e+00
1.176381e+02,0.000000e+00
1.186023e+02,0.000000e+00
1.195665e+02,0.000000e+00
1.205308e+02,0.000000e+00
1.214950e+02,0.000000e+00
1.224592e+02,0.000000e+00
1.234235e+02,0.000000e+00
1.243877e+02,0.000000e+00
1.253519e+02,0.000000e+00
1.263162e+02,0.000000e+00
1.272804e+02,0.000000e+00
1.282446e+02,0.000000e+00
1.292089e+02,0.000000e+00
1.301731e+02,0.000000e+00
1.311373e+02,0.000000e+00
1.321016e+02,0.000000e+00
1.330658e+02,0.000000e+00
1.340300e+02,0.000000e+00
1.349943e+02,0.000000e+00
1.359585e+02,0.000000e+00
1.369227e+02,0.000000e+00
1.378870e+02,0.000000e+00
1.388512e+02,0.000000e+00
1.398154e+02,0.000000e+00
1.407797e+02,0.000000e+00
1.417439e+02,0.000000e+00
1.427081e+02,0.000000e+00
1.436724e+02,0.000000e+00
1.446366e+02,0.000000e+00
1.456008e+02,0.000000e+00
1.465651e+02,0.000000e+00
1.475293e+02,0.000000e+00
1.484935e+02,0.000000e+00
1.494578e+02,0.000000e+00
1.504220e+02,0.000000e+00
1.513862e+02,0.000000e+00
1.523505e+02,0.000000e+00
1.533147e+02,0.000000e+00
1.542789e+02,0.000000e+00
1.552432e+02,0.000000e+00
1.562074e+02,0.000000e+00
1.571716e+02,0.000000e+00
1.581359e+02,0.000000e+00
1.591001e+02,0.000000e+00
1.600643e+02,0.000000e+00
1.610286e+02,0.000000e+00
1.619928e+02,0.000000e+00
1.629570e+02,0.000000e+00
1.639213e+02,0.000000e+00
1.648855e+02,0.000000e+00
1.658497e+02,0.000000e+00
1.668140e+02,0.000000e+00
1.677782e+02,0.000000e+00
1.687424e+02,0.000000e+00
1.697067e+02,0.000000e+00
1.706709e+02,0.000000e+00
1.716351e+02,0.000000e+00
1.725994e+02,0.000000e+00
1.735636e+02,0.000000e+00
1.745278e+02,0.000000e+00
1.754921e+02,0.000000e+00
1.764563e+02,0.000000e+00
1.774205e+02,0.000000e+00
1.783848e+02,0.000000e+00
1.793490e+02,0.000000e+00
1.803132e+02,0.000000e+00
1.812775e+02,0.000000e+00
1.822417e+02,0.000000e+00
1.832059e+02,0.000000e+00
1.841702e+02,0.000000e+00
1.851344e+02,0.000000e+00
1.860986e+02,0.000000e+00
1.870629e+02,0.000000e+00
1.880271e+02,0.000000e+00
1.889913e+02,0.000000e+00
1.899556e+02,0.000000e+00
1.909198e+02,0.000000e+00
1.918840e+02,0.000000e+00
1.928483e+02,0.000000e+00
1.938125e+02,0.000000e+00
1.947767e+02,0.000000e+00
1.957410e+02,0.000000e+00
1.967052e+02,0.000000e+00
1.976694e+02,0.000000e+00
1.986337e+02,0.000000e+00
1.995979e+02,3.549022e+03
2.005621e+02,3.551715e+03
2.015264e+02,3.554477e+03
2.024906e+02,3.554901e+03
2.034548e+02,3.557523e+03
2.044191e+02,3.564465e+03
2.053833e+02,3.574106e+03
2.063475e+02,3.582554e+03
2.073118e+02,3.585729e+03
2.082760e+02,3.581864e+03
2.092402e+02,3.578022e+03
2.102045e+02,3.574886e+03
2.111687e+02,3.574193e+03
2.121329e+02,3.577238e+03
2.130972e+02,3.584473e+03
2.140614e+02,3.593542e+03
2.150256e+02,3.599896e+03
2.159899e+02,3.602233e+03
2.169541e+02,3.604417e+03
2.179183e+02,3.609203e+03
2.188826e+02,3.615548e+03
2.198468e+02,3.620997e+03
2.208110e+02,3.622025e+03
2.217753e+02,3.618395e+03
2.227395e+02,3.617481e+03
2.237037e+02,3.625490e+03
2.246680e+02,3.636392e+03
2.256322e+02,3.643890e+03
2.265964e+02,3.647510e+03
2.275607e+02,3.649404e+03
2.285249e+02,3.650638e+03
2.294892e+02,3.650799e+03
2.304534e+02,3.652851e+03
2.314176e+02,3.658737e+03
2.323819e+02,3.666812e+03
2.333461e+02,3.672688e+03
2.343103e+02,3.673992e+03
2.352746e+02,3.673243e+03
2.362388e+02,3.674016e+03
2.372030e+02,3.676166e+03
2.381673e+02,3.678554e+03
2.391315e+02,3.681807e+03
2.400957e+02,3.691668e+03
2.410600e+02,3.698833e+03
2.420242e+02,3.696560e+03
2.429884e+02,3.688586e+03
2.439527e+02,3.685856e+03
2.449169e+02,3.695341e+03
2.458811e+02,3.718322e+03
2.468454e+02,3.736038e+03
2.478096e+02,3.750039e+03
2.487738e+02,3.758503e+03
2.497381e+02,3.756729e+03
2.507023e+02,3.744488e+03
2.516665e+02,3.729910e+03
2.526308e+02,3.725809e+03
2.535950e+02,3.743505e+03
2.545592e+02,3.755298e+03
2.555235e+02,3.758604e+03
2.564877e+02,3.757211e+03
2.574519e+02,3.755492e+03
2.584161e+02,3.755924e+03
2.593804e+02,3.759197e+03
2.603446e+02,3.766768e+03
2.613088e+02,3.784349e+03
2.622731e+02,3.799331e+03
2.632373e+02,3.805916e+03
2.642015e+02,3.804326e+03
2.651658e+02,3.800906e+03
2.661300e+02,3.803791e+03
2.670942e+02,3.815737e+03
2.680585e+02,3.825738e+03
2.690227e+02,3.830665e+03
2.699869e+02,3.833349e+03
2.709512e+02,3.835152e+03
2.719154e+02,3.837313e+03
2.728796e+02,3.840310e+03
2.738439e+02,3.844666e+03
2.748081e+02,3.851457e+03
2.757723e+02,3.860373e+03
2.767366e+02,3.869741e+03
2.777008e+02,3.877500e+03
2.786650e+02,3.881138e+03
2.796293e+02,3.877886e+03
2.805935e+02,3.871978e+03
2.815577e+02,3.870130e+03
2.825220e+02,3.874017e+03
2.834862e+02,3.879987e+03
2.844504e+02,3.882364e+03
2.854147e+02,3.882144e+03
2.863789e+02,3.879761e+03
2.873431e+02,3.874673e+03
2.883074e+02,3.868719e+03
2.892716e+02,3.864133e+03
2.902358e+02,3.861069e+03
2.912001e+02,3.859021e+03
2.921643e+02,3.861121e+03
2.931285e+02,3.872919e+03
2.940928e+02,3.885008e+03
2.950570e+02,3.892648e+03
2.960212e+02,3.895094e+03
2.969855e+02,3.894631e+03
2.979497e+02,3.894861e+03
2.989139e+02,3.898006e+03
2.998782e+02,3.898527e+03
3.008424e+02,3.895797e+03
3.018066e+02,3.893241e+03
3.027709e+02,3.891987e+03
3.037351e+02,3.891817e+03
3.046993e+02,3.892283e+03
3.056636e+02,3.893459e+03
3.066278e+02,3.895929e+03
3.075920e+02,3.899755e+03
3.085563e+02,3.906176e+03
3.095205e+02,3.914817e+03
3.104847e+02,3.922926e+03
3.114490e+02,3.927792e+03
3.124132e+02,3.929901e+03
3.133774e+02,3.930979e+03
3.143417e+02,3.930605e+03
3.153059e+02,3.929107e+03
3.162701e+02,3.928758e+03
3.172344e+02,3.931510e+03
3.181986e+02,3.933800e+03
3.191628e+02,3.934386e+03
3.201271e+02,3.934085e+03
3.210913e+02,3.933894e+03
3.220555e+02,3.933788e+03
3.230198e+02,3.933711e+03
3.239840e+02,3.935238e+03
3.249482e+02,3.938703e+03
3.259125e+02,3.942783e+03
3.268767e+02,3.947498e+03
3.278409e+02,3.952780e+03
3.288052e+02,3.958328e+03
3.297694e+02,3.964098e+03
3.307336e+02,3.970348e+03
3.316979e+02,3.974831e+03
3.326621e+02,3.976459e+03
3.336263e+02,3.976111e+03
3.345906e+02,3.973938e+03
3.355548e+02,3.971019e+03
3.365190e+02,3.969911e+03
3.374833e+02,3.973255e+03
3.384475e+02,3.981176e+03
3.394117e+02,3.989398e+03
3.403760e+02,3.996453e+03
3.413402e+02,4.001458e+03
3.423044e+02,4.003394e+03
3.432687e+02,3.996404e+03
3.442329e+02,3.989284e+03
3.451971e+02,3.990936e+03
3.461614e+02,4.000547e+03
3.471256e+02,4.009406e+03
3.480898e+02,4.011618e+03
3.490541e+02,4.005716e+03
3.500183e+02,4.001918e+03
3.509825e+02,4.003453e+03
3.519468e+02,4.007177e+03
3.529110e+02,4.009034e+03
3.538752e+02,4.007279e+03
3.548395e+02,4.004177e+03
3.558037e+02,4.005049e+03
3.567680e+02,4.012468e+03
3.577322e+02,4.020239e+03
3.586964e+02,4.030121e+03
3.596607e+02,4.040886e+03
3.606249e+02,4.050099e+03
3.615891e+02,4.055333e+03
3.625534e+02,4.055696e+03
3.635176e+02,4.051180e+03
3.644818e+02,4.041001e+03
3.654461e+02,4.031814e+03
3.664103e+02,4.030050e+03
3.673745e+02,4.036233e+03
3.683388e+02,4.044207e+03
3.693030e+02,4.050634e+03
3.702672e+02,4.055196e+03
3.712315e+02,4.057711e+03
3.721957e+02,4.057423e+03
3.731599e+02,4.056147e+03
3.741242e+02,4.058198e+03
3.750884e+02,4.072386e+03
3.760526e+02,4.082997e+03
3.770169e+02,4.085525e+03
3.779811e+02,4.083898e+03
3.789453e+02,4.083030e+03
3.799096e+02,4.085237e+03
3.808738e+02,4.088705e+03
3.818380e+02,4.087324e+03
3.828023e+02,4.077392e+03
3.837665e+02,4.071344e+03
3.847307e+02,4.074847e+03
3.856950e+02,4.084340e+03
3.866592e+02,4.091292e+03
3.876234e+02,4.087719e+03
3.885877e+02,4.077396e+03
3.895519e+02,4.071728e+03
3.905161e+02,4.071749e+03
3.914804e+02,4.074649e+03
3.924446e+02,4.078836e+03
3.934088e+02,4.085880e+03
3.943731e+02,4.091968e+03
3.953373e+02,4.095348e+03
3.963015e+02,4.097003e+03
3.972658e+02,4.098714e+03
3.982300e+02,4.101741e+03
3.991942e+02,4.106174e+03
4.001585e+02,4.108761e+03
4.011227e+02,4.102495e+03
4.020869e+02,4.099387e+03
4.030512e+02,4.102708e+03
4.040154e+02,4.108222e+03
4.049796e+02,4.110545e+03
4.059439e+02,4.103599e+03
4.069081e+02,4.091279e+03
4.078723e+02,4.089727e+03
4.088366e+02,4.103522e+03
4.098008e+02,4.117083e+03
4.107650e+02,4.121878e+03
4.117293e+02,4.119186e+03
4.126935e+02,4.116310e+03
4.136577e+02,4.115652e+03
4.146220e+02,4.116169e+03
4.155862e+02,4.116424e+03
4.165504e+02,4.116209e+03
4.175147e+02,4.116153e+03
4.184789e+02,4.117009e+03
4.194431e+02,4.119737e+03
4.204074e+02,4.121909e+03
4.213716e+02,4.122994e+03
4.223358e+02,4.123572e+03
4.233001e+02,4.124369e+03
4.242643e+02,4.126095e+03
4.252285e+02,4.128566e+03
4.261928e+02,4.130837e+03
4.271570e+02,4.133265e+03
4.281212e+02,4.135648e+03
4.290855e+02,4.136034e+03
4.300497e+02,4.135296e+03
4.310139e+02,4.136369e+03
4.319782e+02,4.142678e+03
4.329424e+02,4.151088e+03
4.339066e+02,4.157802e+03
4.348709e+02,4.162006e+03
4.358351e+02,4.163629e+03
4.367993e+02,4.162671e+03
4.377636e+02,4.158532e+03
4.387278e+02,4.153781e+03
4.396920e+02,4.148667e+03
4.406563e+02,4.143882e+03
4.416205e+02,4.138951e+03
4.425847e+02,4.133614e+03
4.435490e+02,4.129057e+03
4.445132e+02,4.127232e+03
4.454774e+02,4.128847e+03
4.464417e+02,4.133046e+03
4.474059e+02,4.140494e+03
4.483701e+02,4.148825e+03
4.493344e+02,4.156022e+03
4.502986e+02,4.164948e+03
4.512628e+02,4.171316e+03
4.522271e+02,4.169273e+03
4.531913e+02,4.160706e+03
4.541555e+02,4.154530e+03
4.551198e+02,4.156829e+03
4.560840e+02,4.167847e+03
4.570482e+02,4.171137e+03
4.580125e+02,4.160540e+03
4.589767e+02,4.151941e+03
4.599409e+02,4.150078e+03
4.609052e+02,4.153218e+03
4.618694e+02,4.156907e+03
4.628336e+02,4.158008e+03
4.637979e+02,4.157133e+03
4.647621e+02,4.158043e+03
4.657263e+02,4.163597e+03
4.666906e+02,4.170659e+03
4.676548e+02,4.173942e+03
4.686190e+02,4.171646e+03
4.695833e+02,4.169477e+03
4.705475e+02,4.169183e+03
4.715117e+02,4.169509e+03
4.724760e+02,4.168967e+03
4.734402e+02,4.167286e+03
4.744044e+02,4.165313e+03
4.753687e+02,4.164519e+03
4.763329e+02,4.165241e+03
4.772971e+02,4.166960e+03
4.782614e+02,4.170424e+03
4.792256e+02,4.174820e+03
4.801898e+02,4.178758e+03
4.811541e+02,4.180866e+03
4.821183e+02,4.181822e+03
4.830826e+02,4.183044e+03
4.840468e+02,4.184271e+03
4.850110e+02,4.183767e+03
4.859753e+02,4.180742e+03
4.869395e+02,4.174731e+03
4.879037e+02,4.169251e+03
4.888680e+02,4.163123e+03
4.898322e+02,4.159292e+03
4.907964e+02,4.161194e+03
4.917607e+02,4.168150e+03
4.927249e+02,4.175483e+03
4.936891e+02,4.177286e+03
4.946534e+02,4.172835e+03
4.956176e+02,4.173144e+03
4.965818e+02,4.181927e+03
4.975461e+02,4.193081e+03
4.985103e+02,4.201830e+03
4.994745e+02,4.207874e+03
5.004388e+02,4.208590e+03
5.014030e+02,4.199749e+03
5.023672e+02,4.186809e+03
5.033315e+02,4.178521e+03
5.042957e+02,4.177565e+03
5.052599e+02,4.180503e+03
5.062242e+02,4.180984e+03
5.071884e+02,4.177193e+03
5.081526e+02,4.175493e+03
5.091169e+02,4.179463e+03
5.100811e+02,4.185911e+03
5.110453e+02,4.190196e+03
5.120095e+02,4.190177e+03
5.129738e+02,4.188810e+03
5.139380e+02,4.189945e+03
5.149022e+02,4.193672e+03
5.158665e+02,4.196826e+03
5.168307e+02,4.196158e+03
5.177949e+02,4.189711e+03
5.187592e+02,4.182357e+03
5.197234e+02,4.177213e+03
5.206876e+02,4.174658e+03
5.216519e+02,4.176620e+03
5.226161e+02,4.181915e+03
5.235803e+02,4.186427e+03
5.245446e+02,4.184812e+03
5.255088e+02,4.178413e+03
5.264730e+02,4.178025e+03
5.274373e+02,4.186631e+03
5.284015e+02,4.196268e+03
5.293657e+02,4.198381e+03
5.303300e+02,4.192345e+03
5.312942e+02,4.187500e+03
5.322584e+02,4.188513e+03
5.332227e+02,4.192826e+03
5.341869e+02,4.195989e+03
5.351511e+02,4.196564e+03
5.361154e+02,4.197815e+03
5.370796e+02,4.207658e+03
5.380438e+02,4.231503e+03
5.390081e+02,4.244030e+03
5.399723e+02,4.231025e+03
5.409365e+02,4.212420e+03
5.419008e+02,4.206527e+03
5.428650e+02,4.220346e+03
5.438292e+02,4.233661e+03
5.447935e+02,4.234593e+03
5.457577e+02,4.227500e+03
5.467219e+02,4.221513e+03
5.476862e+02,4.220555e+03
5.486504e+02,4.222693e+03
5.496146e+02,4.222356e+03
5.505789e+02,4.217209e+03
5.515431e+02,4.212741e+03
5.525073e+02,4.212654e+03
5.534716e+02,4.216112e+03
5.544358e+02,4.219640e+03
5.554000e+02,4.218097e+03
5.563643e+02,4.216218e+03
5.573285e+02,4.220393e+03
5.582927e+02,4.229222e+03
5.592570e+02,4.236140e+03
5.602212e+02,4.237565e+03
5.611854e+02,4.233184e+03
5.621497e+02,4.228519e+03
5.631139e+02,4.222367e+03
5.640781e+02,4.214926e+03
5.650424e+02,4.207532e+03
5.660066e+02,4.200478e+03
5.669708e+02,4.193440e+03
5.679351e+02,4.186684e+03
5.688993e+02,4.180572e+03
5.698635e+02,4.175288e+03
5.708278e+02,4.171209e+03
5.717920e+02,4.168873e+03
5.727562e+02,4.167383e+03
5.737205e+02,4.164583e+03
5.746847e+02,4.166719e+03
5.756489e+02,4.180293e+03
5.766132e+02,4.192101e+03
5.775774e+02,4.194564e+03
5.785416e+02,4.187114e+03
5.795059e+02,4.176774e+03
5.804701e+02,4.166428e+03
5.814343e+02,4.157219e+03
5.823986e+02,4.153553e+03
5.833628e+02,4.157206e+03
5.843270e+02,4.164646e+03
5.852913e+02,4.170880e+03
5.862555e+02,4.175379e+03
5.872197e+02,4.179373e+03
5.881840e+02,4.181934e+03
5.891482e+02,4.183718e+03
5.901124e+02,4.185059e+03
5.910767e+02,4.185834e+03
5.920409e+02,4.187603e+03
5.930051e+02,4.193153e+03
5.939694e+02,4.201153e+03
5.949336e+02,4.206016e+03
5.958978e+02,4.206338e+03
5.968621e+02,4.202434e+03
5.978263e+02,4.195294e+03
5.987905e+02,4.177856e+03
5.997548e+02,4.166980e+03
6.007190e+02,4.169261e+03
6.016832e+02,4.177734e+03
6.026475e+02,4.182686e+03
6.036117e+02,4.176494e+03
6.045759e+02,4.169760e+03
6.055402e+02,4.178476e+03
6.065044e+02,4.200056e+03
6.074686e+02,4.216735e+03
6.084329e+02,4.221387e+03
6.093971e+02,4.216213e+03
6.103613e+02,4.210056e+03
6.113256e+02,4.203768e+03
6.122899e+02,4.195898e+03
6.132541e+02,4.183213e+03
6.142183e+02,4.168992e+03
6.151826e+02,4.159094e+03
6.161468e+02,4.161254e+03
6.171110e+02,4.167518e+03
6.180753e+02,4.165446e+03
6.190395e+02,4.155709e+03
6.200037e+02,4.148391e+03
6.209680e+02,4.149954e+03
6.219322e+02,4.160436e+03
6.228964e+02,4.168808e+03
6.238607e+02,4.176186e+03
6.248249e+02,4.179194e+03
6.257891e+02,4.172899e+03
6.267534e+02,4.159160e+03
6.277176e+02,4.146530e+03
6.286818e+02,4.139798e+03
6.296461e+02,4.137489e+03
6.306103e+02,4.138456e+03
6.315745e+02,4.142553e+03
6.325388e+02,4.148076e+03
6.335030e+02,4.153612e+03
6.344672e+02,4.158639e+03
6.354315e+02,4.159837e+03
6.363957e+02,4.154314e+03
6.373599e+02,4.145983e+03
6.383242e+02,4.135800e+03
6.392884e+02,4.124926e+03
6.402526e+02,4.119264e+03
6.412169e+02,4.126821e+03
6.421811e+02,4.136277e+03
6.431453e+02,4.136353e+03
6.441096e+02,4.126947e+03
6.450738e+02,4.114985e+03
6.460380e+02,4.105926e+03
6.470023e+02,4.100590e+03
6.479665e+02,4.103040e+03
6.489307e+02,4.116938e+03
6.498950e+02,4.131211e+03
6.508592e+02,4.135468e+03
6.518234e+02,4.128384e+03
6.527877e+02,4.122740e+03
6.537519e+02,4.123493e+03
6.547161e+02,4.124779e+03
6.556804e+02,4.121905e+03
6.566446e+02,4.114861e+03
6.576088e+02,4.107043e+03
6.585731e+02,4.101030e+03
6.595373e+02,4.096706e+03
6.605015e+02,4.092815e+03
6.614658e+02,4.088390e+03
6.624300e+02,4.087162e+03
6.633942e+02,4.094240e+03
6.643585e+02,4.117062e+03
6.653227e+02,4.127906e+03
6.662869e+02,4.114807e+03
6.672512e+02,4.097919e+03
6.682154e+02,4.090399e+03
6.691796e+02,4.093500e+03
6.701439e+02,4.097623e+03
6.711081e+02,4.096151e+03
6.720723e+02,4.091073e+03
6.730366e+02,4.086586e+03
6.740008e+02,4.083826e+03
6.749650e+02,4.082154e+03
6.759293e+02,4.080992e+03
6.768935e+02,4.081280e+03
6.778577e+02,4.081068e+03
6.788220e+02,4.080587e+03
6.797862e+02,4.081759e+03
6.807504e+02,4.084759e+03
6.817147e+02,4.088995e+03
6.826789e+02,4.091579e+03
6.836431e+02,4.090070e+03
6.846074e+02,4.085396e+03
6.855716e+02,4.078765e+03
6.865358e+02,4.071352e+03
6.875001e+02,4.065425e+03
6.884643e+02,4.065600e+03
6.894285e+02,4.071923e+03
6.903928e+02,4.070037e+03
6.913570e+02,4.053757e+03
6.923212e+02,4.034958e+03
6.932855e+02,4.027312e+03
6.942497e+02,4.039065e+03
6.952139e+02,4.049325e+03
6.961782e+02,4.054659e+03
6.971424e+02,4.059606e+03
6.981066e+02,4.069051e+03
6.990709e+02,4.082287e+03
7.000351e+02,4.088194e+03
7.009993e+02,4.074381e+03
7.019636e+02,4.050689e+03
7.029278e+02,4.037062e+03
7.038920e+02,4.036934e+03
7.048563e+02,4.041640e+03
7.058205e+02,4.042461e+03
7.067847e+02,4.041253e+03
7.077490e+02,4.034921e+03
7.087132e+02,4.016726e+03
7.096774e+02,4.002696e+03
7.106417e+02,4.004118e+03
7.116059e+02,4.024917e+03
7.125701e+02,4.039924e+03
7.135344e+02,4.041478e+03
7.144986e+02,4.036491e+03
7.154628e+02,4.028426e+03
7.164271e+02,4.018039e+03
7.173913e+02,4.008841e+03
7.183555e+02,4.005332e+03
7.193198e+02,4.006249e+03
7.202840e+02,4.005971e+03
7.212482e+02,4.004202e+03
7.222125e+02,4.002655e+03
7.231767e+02,4.002607e+03
7.241409e+02,4.003854e+03
7.251052e+02,4.003876e+03
7.260694e+02,4.000811e+03
7.270336e+02,3.997590e+03
7.279979e+02,3.998019e+03
7.289621e+02,4.002463e+03
7.299263e+02,4.003254e+03
7.308906e+02,3.990209e+03
7.318548e+02,3.974852e+03
7.328190e+02,3.972348e+03
7.337833e+02,3.983372e+03
7.347475e+02,3.995651e+03
7.357117e+02,3.997654e+03
7.366760e+02,3.990948e+03
7.376402e+02,3.983908e+03
7.386044e+02,3.975964e+03
7.395687e+02,3.971014e+03
7.405329e+02,3.972741e+03
7.414971e+02,3.984088e+03
7.424614e+02,3.988319e+03
7.434256e+02,3.980786e+03
7.443898e+02,3.974916e+03
7.453541e+02,3.977660e+03
7.463183e+02,3.986123e+03
7.472825e+02,3.988971e+03
7.482468e+02,3.975691e+03
7.492110e+02,3.958022e+03
7.501752e+02,3.950423e+03
7.511395e+02,3.954185e+03
7.521037e+02,3.961490e+03
7.530679e+02,3.964571e+03
7.540322e+02,3.963140e+03
7.549964e+02,3.962973e+03
7.559606e+02,3.965697e+03
7.569249e+02,3.967233e+03
7.578891e+02,3.964446e+03
7.588533e+02,3.957402e+03
7.598176e+02,3.953680e+03
7.607818e+02,3.951074e+03
7.617460e+02,3.947428e+03
7.627103e+02,3.944943e+03
7.636745e+02,3.944013e+03
7.646387e+02,3.941180e+03
7.656030e+02,3.928874e+03
7.665672e+02,3.918514e+03
7.675314e+02,3.920016e+03
7.684957e+02,3.928644e+03
7.694599e+02,3.935273e+03
7.704241e+02,3.936894e+03
7.713884e+02,3.935698e+03
7.723526e+02,3.933734e+03
7.733168e+02,3.931737e+03
7.742811e+02,3.931059e+03
7.752453e+02,3.930277e+03
7.762095e+02,3.928184e+03
7.771738e+02,3.925485e+03
7.781380e+02,3.918185e+03
7.791022e+02,3.912289e+03
7.800665e+02,3.913308e+03
7.810307e+02,3.917421e+03
7.819949e+02,3.917899e+03
7.829592e+02,3.910296e+03
7.839234e+02,3.904304e+03
7.848876e+02,3.905010e+03
7.858519e+02,3.909121e+03
7.868161e+02,3.911993e+03
7.877803e+02,3.911694e+03
7.887446e+02,3.909202e+03
7.897088e+02,3.906200e+03
7.906730e+02,3.904193e+03
7.916373e+02,3.904923e+03
7.926015e+02,3.907688e+03
7.935657e+02,3.907989e+03
7.945300e+02,3.900801e+03
7.954942e+02,3.883756e+03
7.964584e+02,3.869569e+03
7.974227e+02,3.862577e+03
7.983869e+02,3.863740e+03
7.993511e+02,3.870254e+03
8.003154e+02,3.886022e+03
8.012796e+02,3.892494e+03
8.022438e+02,3.881531e+03
8.032081e+02,3.866209e+03
8.041723e+02,3.857722e+03
8.051365e+02,3.858146e+03
8.061008e+02,3.859821e+03
8.070650e+02,3.855688e+03
8.080292e+02,3.848095e+03
8.089935e+02,3.843121e+03
8.099577e+02,3.842687e+03
8.109219e+02,3.844154e+03
8.118862e+02,3.844195e+03
8.128504e+02,3.842839e+03
8.138146e+02,3.841540e+03
8.147789e+02,3.839630e+03
8.157431e+02,3.837602e+03
8.167073e+02,3.836992e+03
8.176716e+02,3.840284e+03
8.186358e+02,3.842739e+03
8.196000e+02,3.842883e+03
8.205643e+02,3.843003e+03
8.215285e+02,3.842291e+03
8.224927e+02,3.840611e+03
8.234570e+02,3.838633e+03
8.244212e+02,3.835057e+03
8.253854e+02,3.832790e+03
8.263497e+02,3.835862e+03
8.273139e+02,3.840427e+03
8.282781e+02,3.838712e+03
8.292424e+02,3.823047e+03
8.302066e+02,3.803862e+03
8.311708e+02,3.795470e+03
8.321351e+02,3.796164e+03
8.330993e+02,3.797168e+03
8.340635e+02,3.792694e+03
8.350278e+02,3.785358e+03
8.359920e+02,3.786050e+03
8.369562e+02,3.797349e+03
8.379205e+02,3.803146e+03
8.388847e+02,3.795519e+03
8.398489e+02,3.780898e+03
8.408132e+02,3.775257e+03
8.417774e+02,3.787320e+03
8.427416e+02,3.794656e+03
8.437059e+02,3.791177e+03
8.446701e+02,3.784102e+03
8.456343e+02,3.781794e+03
8.465986e+02,3.788616e+03
8.475628e+02,3.792730e+03
8.485270e+02,3.786532e+03
8.494913e+02,3.777491e+03
8.504555e+02,3.775278e+03
8.514197e+02,3.782820e+03
8.523840e+02,3.789607e+03
8.533482e+02,3.783733e+03
8.543124e+02,3.770670e+03
8.552767e+02,3.761215e+03
8.562409e+02,3.756634e+03
8.572051e+02,3.753544e+03
8.581694e+02,3.748756e+03
8.591336e+02,3.743182e+03
8.600978e+02,3.742728e+03
8.610621e+02,3.749506e+03
8.620263e+02,3.756085e+03
8.629905e+02,3.755454e+03
8.639548e+02,3.745760e+03
8.649190e+02,3.737844e+03
8.658832e+02,3.734460e+03
8.668475e+02,3.732814e+03
8.678117e+02,3.731118e+03
8.687759e+02,3.729362e+03
8.697402e+02,3.730256e+03
8.707044e+02,3.734983e+03
8.716686e+02,3.737269e+03
8.726329e+02,3.736965e+03
8.735971e+02,3.735230e+03
8.745613e+02,3.732788e+03
8.755256e+02,3.731899e+03
8.764898e+02,3.730488e+03
8.774540e+02,3.723794e+03
8.784183e+02,3.714800e+03
8.793825e+02,3.710200e+03
8.803467e+02,3.713411e+03
8.813110e+02,3.717132e+03
8.822752e+02,3.710436e+03
8.832394e+02,3.697441e+03
8.842037e+02,3.690578e+03
8.851679e+02,3.692116e+03
8.861321e+02,3.696692e+03
8.870964e+02,3.698567e+03
8.880606e+02,3.697465e+03
8.890248e+02,3.692529e+03
8.899891e+02,3.683540e+03
8.909533e+02,3.675919e+03
8.919175e+02,3.674148e+03
8.928818e+02,3.679440e+03
8.938460e+02,3.684877e+03
8.948102e+02,3.692220e+03
8.957745e+02,3.695902e+03
8.967387e+02,3.690899e+03
8.977029e+02,3.676937e+03
8.986672e+02,3.667201e+03
8.996314e+02,3.671884e+03
9.005956e+02,3.675791e+03
9.015599e+02,3.669657e+03
9.025241e+02,3.656420e+03
9.034883e+02,3.645824e+03
9.044526e+02,3.643714e+03
9.054168e+02,3.641320e+03
9.063810e+02,3.636083e+03
9.073453e+02,3.630312e+03
9.083095e+02,3.624420e+03
9.092737e+02,3.616302e+03
9.102380e+02,3.608842e+03
9.112022e+02,3.606254e+03
9.121664e+02,3.607090e+03
9.131307e+02,3.609219e+03
9.140949e+02,3.613399e+03
9.150591e+02,3.618902e+03
9.160234e+02,3.622573e+03
9.169876e+02,3.622477e+03
9.179518e+02,3.617723e+03
9.189161e+02,3.607760e+03
9.198803e+02,3.596646e+03
9.208445e+02,3.589830e+03
9.218088e+02,3.588961e+03
9.227730e+02,3.589261e+03
9.237372e+02,3.591070e+03
9.247015e+02,3.590640e+03
9.256657e+02,3.584251e+03
9.266299e+02,3.571191e+03
9.275942e+02,3.565023e+03
9.285584e+02,3.569851e+03
9.295226e+02,3.575129e+03
9.304869e+02,3.578501e+03
9.314511e+02,3.580501e+03
9.324153e+02,3.581011e+03
9.333796e+02,3.579735e+03
9.343438e+02,3.577027e+03
9.353080e+02,3.570388e+03
9.362723e+02,3.561445e+03
9.372365e+02,3.554037e+03
9.382007e+02,3.551691e+03
9.391650e+02,3.551896e+03
9.401292e+02,3.556073e+03
9.410934e+02,3.560367e+03
9.420577e+02,3.558494e+03
9.430219e+02,3.548204e+03
9.439861e+02,3.537360e+03
9.449504e+02,3.534385e+03
9.459146e+02,3.536261e+03
9.468788e+02,3.536484e+03
9.478431e+02,3.532340e+03
9.488073e+02,3.525061e+03
9.497715e+02,3.515352e+03
9.507358e+02,3.506062e+03
9.517000e+02,3.504703e+03
9.526642e+02,3.511587e+03
9.536285e+02,3.517012e+03
9.545927e+02,3.512429e+03
9.555569e+02,3.502174e+03
9.565212e+02,3.503288e+03
9.574854e+02,3.517414e+03
9.584496e+02,3.527177e+03
9.594139e+02,3.523487e+03
9.603781e+02,3.510380e+03
9.613423e+02,3.500296e+03
9.623066e+02,3.493889e+03
9.632708e+02,3.488164e+03
9.642350e+02,3.482888e+03
9.651993e+02,3.479613e+03
9.661635e+02,3.479723e+03
9.671277e+02,3.484910e+03
9.680920e+02,3.486327e+03
9.690562e+02,3.482539e+03
9.700204e+02,3.475836e+03
9.709847e+02,3.468386e+03
9.719489e+02,3.460673e+03
9.729131e+02,3.455391e+03
9.738774e+02,3.455504e+03
9.748416e+02,3.456747e+03
9.758058e+02,3.454870e+03
9.767701e+02,3.450022e+03
9.777343e+02,3.448594e+03
9.786985e+02,3.458023e+03
9.796628e+02,3.462974e+03
9.806270e+02,3.454738e+03
9.815912e+02,3.439795e+03
9.825555e+02,3.429477e+03
9.835197e+02,3.432882e+03
9.844839e+02,3.435812e+03
9.854482e+02,3.432080e+03
9.864124e+02,3.425560e+03
9.873766e+02,3.418792e+03
9.883409e+02,3.412268e+03
9.893051e+02,3.409128e+03
9.902693e+02,3.413516e+03
9.912336e+02,3.421277e+03
9.921978e+02,3.427831e+03
9.931620e+02,3.431313e+03
9.941263e+02,3.430844e+03
9.950905e+02,3.424944e+03
9.960547e+02,3.416114e+03
9.970190e+02,3.404660e+03
9.979832e+02,3.392022e+03
9.989474e+02,3.384438e+03
9.999117e+02,3.389296e+03
1.000876e+03,3.399456e+03
1.001840e+03,3.405019e+03
1.002804e+03,3.406927e+03
1.003769e+03,3.404558e+03
1.004733e+03,3.396011e+03
1.005697e+03,3.385736e+03
1.006661e+03,3.380941e+03
1.007626e+03,3.381016e+03
1.008590e+03,3.382382e+03
1.009554e+03,3.383698e+03
1.010518e+03,3.383973e+03
1.011482e+03,3.383758e+03
1.012447e+03,3.382646e+03
1.013411e+03,3.377884e+03
1.014375e+03,3.370918e+03
1.015339e+03,3.362231e+03
1.016304e+03,3.349415e+03
1.017268e+03,3.334016e+03
1.018232e+03,3.328284e+03
1.019196e+03,3.332975e+03
1.020161e+03,3.337880e+03
1.021125e+03,3.339593e+03
1.022089e+03,3.340248e+03
1.023053e+03,3.343584e+03
1.024018e+03,3.349552e+03
1.024982e+03,3.351685e+03
1.025946e+03,3.347121e+03
1.026910e+03,3.338709e+03
1.027875e+03,3.332197e+03
1.028839e+03,3.330224e+03
1.029803e+03,3.327224e+03
1.030767e+03,3.322858e+03
1.031731e+03,3.318232e+03
1.032696e+03,3.312962e+03
1.033660e+03,3.306577e+03
1.034624e+03,3.303421e+03
1.035588e+03,3.307277e+03
1.036552e+03,3.309911e+03
1.037517e+03,3.305174e+03
1.038481e+03,3.295295e+03
1.039445e+03,3.292821e+03
1.040409e+03,3.305591e+03
1.041374e+03,3.312900e+03
1.042338e+03,3.309390e+03
1.043302e+03,3.301496e+03
1.044266e+03,3.296914e+03
1.045231e+03,3.299009e+03
1.046195e+03,3.297376e+03
1.047159e+03,3.289926e+03
1.048123e+03,3.281872e+03
1.049088e+03,3.276216e+03
1.050052e+03,3.274003e+03
1.051016e+03,3.274407e+03
1.051980e+03,3.280956e+03
1.052945e+03,3.285678e+03
1.053909e+03,3.281769e+03
1.054873e+03,3.270773e+03
1.055837e+03,3.264272e+03
1.056802e+03,3.273052e+03
1.057766e+03,3.276182e+03
1.058730e+03,3.265339e+03
1.059694e+03,3.249491e+03
1.060658e+03,3.239124e+03
1.061623e+03,3.238011e+03
1.062587e+03,3.238668e+03
1.063551e+03,3.242284e+03
1.064515e+03,3.246185e+03
1.065479e+03,3.247410e+03
1.066444e+03,3.246184e+03
1.067408e+03,3.246810e+03
1.068372e+03,3.252299e+03
1.069336e+03,3.257316e+03
1.070301e+03,3.257506e+03
1.071265e+03,3.253304e+03
1.072229e+03,3.249177e+03
1.073193e+03,3.245490e+03
1.074158e+03,3.242291e+03
1.075122e+03,3.239953e+03
1.076086e+03,3.238081e+03
1.077050e+03,3.237224e+03
1.078015e+03,3.241108e+03
1.078979e+03,3.242714e+03
1.079943e+03,3.235032e+03
1.080907e+03,3.227875e+03
1.081872e+03,3.228910e+03
1.082836e+03,3.237866e+03
1.083800e+03,3.242254e+03
1.084764e+03,3.237503e+03
1.085729e+03,3.231354e+03
1.086693e+03,3.223962e+03
1.087657e+03,3.217264e+03
1.088621e+03,3.216442e+03
1.089585e+03,3.232676e+03
1.090550e+03,3.240894e+03
1.091514e+03,3.231840e+03
1.092478e+03,3.215823e+03
1.093442e+03,3.203190e+03
1.094406e+03,3.196493e+03
1.095371e+03,3.190766e+03
1.096335e+03,3.184126e+03
1.097299e+03,3.177611e+03
1.098263e+03,3.170594e+03
1.099228e+03,3.163085e+03
1.100192e+03,3.160481e+03
1.101156e+03,3.170606e+03
1.102120e+03,3.177779e+03
1.103085e+03,3.174053e+03
1.104049e+03,3.163981e+03
1.105013e+03,3.156947e+03
1.105977e+03,3.156508e+03
1.106942e+03,3.156884e+03
1.107906e+03,3.160167e+03
1.108870e+03,3.162344e+03
1.109834e+03,3.158391e+03
1.110799e+03,3.145244e+03
1.111763e+03,3.137306e+03
1.112727e+03,3.140584e+03
1.113691e+03,3.146134e+03
1.114656e+03,3.149341e+03
1.115620e+03,3.150378e+03
1.116584e+03,3.151694e+03
1.117548e+03,3.156367e+03
1.118512e+03,3.155199e+03
1.119477e+03,3.140738e+03
1.120441e+03,3.121414e+03
1.121405e+03,3.110481e+03
1.122369e+03,3.115762e+03
1.123334e+03,3.118003e+03
1.124298e+03,3.116715e+03
1.125262e+03,3.113896e+03
1.126226e+03,3.111167e+03
1.127191e+03,3.108990e+03
1.128155e+03,3.104829e+03
1.129119e+03,3.094901e+03
1.130083e+03,3.086624e+03
1.131047e+03,3.082535e+03
1.132012e+03,3.081286e+03
1.132976e+03,3.080944e+03
1.133940e+03,3.082376e+03
1.134904e+03,3.082730e+03
1.135869e+03,3.083008e+03
1.136833e+03,3.082395e+03
1.137797e+03,3.079703e+03
1.138761e+03,3.075576e+03
1.139726e+03,3.070506e+03
1.140690e+03,3.062945e+03
1.141654e+03,3.056257e+03
1.142618e+03,3.051809e+03
1.143583e+03,3.049896e+03
1.144547e+03,3.052351e+03
1.145511e+03,3.061197e+03
1.146475e+03,3.065871e+03
1.147439e+03,3.062083e+03
1.148404e+03,3.054642e+03
1.149368e+03,3.051393e+03
1.150332e+03,3.052541e+03
1.151296e+03,3.051825e+03
1.152261e+03,3.047093e+03
1.153225e+03,3.039376e+03
1.154189e+03,3.031838e+03
1.155153e+03,3.025447e+03
1.156118e+03,3.016765e+03
1.157082e+03,3.006648e+03
1.158046e+03,2.999851e+03
1.159010e+03,2.997402e+03
1.159974e+03,2.998572e+03
1.160939e+03,3.003970e+03
1.161903e+03,3.011925e+03
1.162867e+03,3.015358e+03
1.163831e+03,3.012581e+03
1.164796e+03,3.006157e+03
1.165760e+03,2.997677e+03
1.166724e+03,2.989181e+03
1.167688e+03,2.986127e+03
1.168653e+03,2.987917e+03
1.169617e+03,2.988752e+03
1.170581e+03,2.985029e+03
1.171545e+03,2.979384e+03
1.172510e+03,2.973437e+03
1.173474e+03,2.968824e+03
1.174438e+03,2.970305e+03
1.175402e+03,2.979901e+03
1.176366e+03,2.986573e+03
1.177331e+03,2.975365e+03
1.178295e+03,2.959223e+03
1.179259e+03,2.955401e+03
1.180223e+03,2.962982e+03
1.181188e+03,2.968707e+03
1.182152e+03,2.964079e+03
1.183116e+03,2.956246e+03
1.184080e+03,2.950107e+03
1.185045e+03,2.945635e+03
1.186009e+03,2.941515e+03
1.186973e+03,2.937604e+03
1.187937e+03,2.935623e+03
1.188901e+03,2.937338e+03
1.189866e+03,2.939667e+03
1.190830e+03,2.938161e+03
1.191794e+03,2.931733e+03
1.192758e+03,2.929902e+03
1.193723e+03,2.946219e+03
1.194687e+03,2.957309e+03
1.195651e+03,2.947566e+03
1.196615e+03,2.925658e+03
1.197580e+03,2.913888e+03
1.198544e+03,2.917638e+03
1.199508e+03,2.919797e+03
1.200472e+03,2.922413e+03
1.201437e+03,2.922944e+03
1.202401e+03,2.919264e+03
1.203365e+03,2.911623e+03
1.204329e+03,2.903258e+03
1.205293e+03,2.891534e+03
1.206258e+03,2.884868e+03
1.207222e+03,2.887929e+03
1.208186e+03,2.896957e+03
1.209150e+03,2.901725e+03
1.210115e+03,2.901196e+03
1.211079e+03,2.897196e+03
1.212043e+03,2.889708e+03
1.213007e+03,2.881927e+03
1.213972e+03,2.879022e+03
1.214936e+03,2.880822e+03
1.215900e+03,2.881384e+03
1.216864e+03,2.880759e+03
1.217828e+03,2.880435e+03
1.218793e+03,2.881341e+03
1.219757e+03,2.883130e+03
1.220721e+03,2.886476e+03
1.221685e+03,2.890274e+03
1.222650e+03,2.889225e+03
1.223614e+03,2.880740e+03
1.224578e+03,2.872342e+03
1.225542e+03,2.874342e+03
1.226507e+03,2.879450e+03
1.227471e+03,2.877146e+03
1.228435e+03,2.868106e+03
1.229399e+03,2.860698e+03
1.230364e+03,2.862514e+03
1.231328e+03,2.864732e+03
1.232292e+03,2.864855e+03
1.233256e+03,2.863737e+03
1.234220e+03,2.860582e+03
1.235185e+03,2.855148e+03
1.236149e+03,2.850416e+03
1.237113e+03,2.848039e+03
1.238077e+03,2.846304e+03
1.239042e+03,2.841083e+03
1.240006e+03,2.832108e+03
1.240970e+03,2.827770e+03
1.241934e+03,2.832115e+03
1.242899e+03,2.833569e+03
1.243863e+03,2.829505e+03
1.244827e+03,2.823479e+03
1.245791e+03,2.820108e+03
1.246755e+03,2.820125e+03
1.247720e+03,2.818351e+03
1.248684e+03,2.814697e+03
1.249648e+03,2.810916e+03
1.250612e+03,2.807264e+03
1.251577e+03,2.803988e+03
1.252541e+03,2.804220e+03
1.253505e+03,2.807066e+03
1.254469e+03,2.807909e+03
1.255434e+03,2.805896e+03
1.256398e+03,2.802532e+03
1.257362e+03,2.796911e+03
1.258326e+03,2.790637e+03
1.259291e+03,2.789219e+03
1.260255e+03,2.791412e+03
1.261219e+03,2.790500e+03
1.262183e+03,2.780230e+03
1.263147e+03,2.770689e+03
1.264112e+03,2.770561e+03
1.265076e+03,2.775119e+03
1.266040e+03,2.776996e+03
1.267004e+03,2.774090e+03
1.267969e+03,2.770311e+03
1.268933e+03,2.765712e+03
1.269897e+03,2.764013e+03
1.270861e+03,2.766457e+03
1.271826e+03,2.770601e+03
1.272790e+03,2.772949e+03
1.273754e+03,2.775128e+03
1.274718e+03,2.774383e+03
1.275682e+03,2.770451e+03
1.276647e+03,2.765617e+03
1.277611e+03,2.762085e+03
1.278575e+03,2.759862e+03
1.279539e+03,2.755266e+03
1.280504e+03,2.749239e+03
1.281468e+03,2.745085e+03
1.282432e+03,2.744192e+03
1.283396e+03,2.745448e+03
1.284361e+03,2.746446e+03
1.285325e+03,2.746603e+03
1.286289e+03,2.745966e+03
1.287253e+03,2.744367e+03
1.288218e+03,2.742085e+03
1.289182e+03,2.739876e+03
1.290146e+03,2.737715e+03
1.291110e+03,2.736142e+03
1.292074e+03,2.735098e+03
1.293039e+03,2.733181e+03
1.294003e+03,2.730352e+03
1.294967e+03,2.724728e+03
1.295931e+03,2.711649e+03
1.296896e+03,2.699199e+03
1.297860e+03,2.696754e+03
1.298824e+03,2.708339e+03
1.299788e+03,2.714364e+03
1.300753e+03,2.708888e+03
1.301717e+03,2.704467e+03
1.302681e+03,2.706810e+03
1.303645e+03,2.713357e+03
1.304609e+03,2.717003e+03
1.305574e+03,2.716474e+03
1.306538e+03,2.714082e+03
1.307502e+03,2.711395e+03
1.308466e+03,2.708216e+03
1.309431e+03,2.701673e+03
1.310395e+03,2.693956e+03
1.311359e+03,2.693980e+03
1.312323e+03,2.698937e+03
1.313288e+03,2.700773e+03
1.314252e+03,2.697076e+03
1.315216e+03,2.691220e+03
1.316180e+03,2.681583e+03
1.317145e+03,2.673240e+03
1.318109e+03,2.673374e+03
1.319073e+03,2.681365e+03
1.320037e+03,2.686302e+03
1.321001e+03,2.681103e+03
1.321966e+03,2.675752e+03
1.322930e+03,2.677444e+03
1.323894e+03,2.682379e+03
1.324858e+03,2.681708e+03
1.325823e+03,2.670121e+03
1.326787e+03,2.665396e+03
1.327751e+03,2.669722e+03
1.328715e+03,2.674091e+03
1.329680e+03,2.672604e+03
1.330644e+03,2.667129e+03
1.331608e+03,2.665686e+03
1.332572e+03,2.667688e+03
1.333536e+03,2.668845e+03
1.334501e+03,2.667511e+03
1.335465e+03,2.664864e+03
1.336429e+03,2.665890e+03
1.337393e+03,2.666330e+03
1.338358e+03,2.654993e+03
1.339322e+03,2.635378e+03
1.340286e+03,2.623436e+03
1.341250e+03,2.637028e+03
1.342215e+03,2.647719e+03
1.343179e+03,2.641560e+03
1.344143e+03,2.629596e+03
1.345107e+03,2.621677e+03
1.346072e+03,2.618237e+03
1.347036e+03,2.616440e+03
1.348000e+03,2.614946e+03
1.348964e+03,2.616678e+03
1.349928e+03,2.625790e+03
1.350893e+03,2.637524e+03
1.351857e+03,2.636921e+03
1.352821e+03,2.624036e+03
1.353785e+03,2.616237e+03
1.354750e+03,2.615389e+03
1.355714e+03,2.615918e+03
1.356678e+03,2.615289e+03
1.357642e+03,2.614142e+03
1.358607e+03,2.610742e+03
1.359571e+03,2.606095e+03
1.360535e+03,2.603414e+03
1.361499e+03,2.605129e+03
1.362464e+03,2.606467e+03
1.363428e+03,2.605047e+03
1.364392e+03,2.603548e+03
1.365356e+03,2.602659e+03
1.366320e+03,2.601168e+03
1.367285e+03,2.598597e+03
1.368249e+03,2.596326e+03
1.369213e+03,2.592317e+03
1.370177e+03,2.585615e+03
1.371142e+03,2.578394e+03
1.372106e+03,2.572718e+03
1.373070e+03,2.568782e+03
1.374034e+03,2.568653e+03
1.374999e+03,2.572628e+03
1.375963e+03,2.578290e+03
1.376927e+03,2.585658e+03
1.377891e+03,2.590830e+03
1.378855e+03,2.587652e+03
1.379820e+03,2.580231e+03
1.380784e+03,2.573565e+03
1.381748e+03,2.569167e+03
1.382712e+03,2.566297e+03
1.383677e+03,2.564402e+03
1.384641e+03,2.561634e+03
1.385605e+03,2.555972e+03
1.386569e+03,2.549598e+03
1.387534e+03,2.547039e+03
1.388498e+03,2.550070e+03
1.389462e+03,2.547145e+03
1.390426e+03,2.536065e+03
1.391391e+03,2.528255e+03
1.392355e+03,2.534417e+03
1.393319e+03,2.545749e+03
1.394283e+03,2.539997e+03
1.395247e+03,2.524902e+03
1.396212e+03,2.521496e+03
1.397176e+03,2.535289e+03
1.398140e+03,2.545788e+03
1.399104e+03,2.536081e+03
1.400069e+03,2.522737e+03
1.401033e+03,2.513663e+03
1.401997e+03,2.509681e+03
1.402961e+03,2.511999e+03
1.403926e+03,2.526372e+03
1.404890e+03,2.532762e+03
1.405854e+03,2.529092e+03
1.406818e+03,2.521496e+03
1.407782e+03,2.512994e+03
1.408747e+03,2.505535e+03
1.409711e+03,2.505641e+03
1.410675e+03,2.510040e+03
1.411639e+03,2.509304e+03
1.412604e+03,2.500465e+03
1.413568e+03,2.492167e+03
1.414532e+03,2.493515e+03
1.415496e+03,2.498430e+03
1.416461e+03,2.502188e+03
1.417425e+03,2.503256e+03
1.418389e+03,2.500398e+03
1.419353e+03,2.491144e+03
1.420318e+03,2.481106e+03
1.421282e+03,2.469102e+03
1.422246e+03,2.461428e+03
1.423210e+03,2.464716e+03
1.424174e+03,2.477044e+03
1.425139e+03,2.482093e+03
1.426103e+03,2.480034e+03
1.427067e+03,2.478560e+03
1.428031e+03,2.480916e+03
1.428996e+03,2.482038e+03
1.429960e+03,2.473466e+03
1.430924e+03,2.462797e+03
1.431888e+03,2.458139e+03
1.432853e+03,2.459251e+03
1.433817e+03,2.460953e+03
1.434781e+03,2.464222e+03
1.435745e+03,2.466054e+03
1.436709e+03,2.464886e+03
1.437674e+03,2.461555e+03
1.438638e+03,2.457139e+03
1.439602e+03,2.452630e+03
1.440566e+03,2.450966e+03
1.441531e+03,2.451746e+03
1.442495e+03,2.453946e+03
1.443459e+03,2.457092e+03
1.444423e+03,2.459946e+03
1.445388e+03,2.462736e+03
1.446352e+03,2.462685e+03
1.447316e+03,2.455882e+03
1.448280e+03,2.444521e+03
1.449245e+03,2.436328e+03
1.450209e+03,2.433276e+03
1.451173e+03,2.433334e+03
1.452137e+03,2.436471e+03
1.453101e+03,2.439366e+03
1.454066e+03,2.440295e+03
1.455030e+03,2.439242e+03
1.455994e+03,2.433587e+03
1.456958e+03,2.424292e+03
1.457923e+03,2.418405e+03
1.458887e+03,2.418298e+03
1.459851e+03,2.420223e+03
1.460815e+03,2.422027e+03
1.461780e+03,2.422807e+03
1.462744e+03,2.423676e+03
1.463708e+03,2.424727e+03
1.464672e+03,2.423053e+03
1.465636e+03,2.417915e+03
1.466601e+03,2.413505e+03
1.467565e+03,2.410002e+03
1.468529e+03,2.407874e+03
1.469493e+03,2.407539e+03
1.470458e+03,2.407788e+03
1.471422e+03,2.405909e+03
1.472386e+03,2.402935e+03
1.473350e+03,2.400991e+03
1.474315e+03,2.400417e+03
1.475279e+03,2.400203e+03
1.476243e+03,2.399271e+03
1.477207e+03,2.398093e+03
1.478172e+03,2.399373e+03
1.479136e+03,2.401957e+03
1.480100e+03,2.399414e+03
1.481064e+03,2.390412e+03
1.482028e+03,2.382405e+03
1.482993e+03,2.376536e+03
1.483957e+03,2.372675e+03
1.484921e+03,2.369229e+03
1.485885e+03,2.367645e+03
1.486850e+03,2.374710e+03
1.487814e+03,2.384297e+03
1.488778e+03,2.382752e+03
1.489742e+03,2.361922e+03
1.490707e+03,2.346802e+03
1.491671e+03,2.352670e+03
1.492635e+03,2.360638e+03
1.493599e+03,2.361482e+03
1.494563e+03,2.357099e+03
1.495528e+03,2.353329e+03
1.496492e+03,2.349852e+03
1.497456e+03,2.349415e+03
1.498420e+03,2.352947e+03
1.499385e+03,2.355339e+03
1.500349e+03,2.349547e+03
1.501313e+03,2.344038e+03
1.502277e+03,2.347846e+03
1.503242e+03,2.355407e+03
1.504206e+03,2.358370e+03
1.505170e+03,2.353251e+03
1.506134e+03,2.350115e+03
1.507099e+03,2.350256e+03
1.508063e+03,2.349579e+03
1.509027e+03,2.346576e+03
1.509991e+03,2.341849e+03
1.510955e+03,2.335275e+03
1.511920e+03,2.328220e+03
1.512884e+03,2.324398e+03
1.513848e+03,2.324801e+03
1.514812e+03,2.327659e+03
1.515777e+03,2.334843e+03
1.516741e+03,2.337462e+03
1.517705e+03,2.325557e+03
1.518669e+03,2.313385e+03
1.519634e+03,2.314902e+03
1.520598e+03,2.328628e+03
1.521562e+03,2.330939e+03
1.522526e+03,2.322098e+03
1.523490e+03,2.318598e+03
1.524455e+03,2.327488e+03
1.525419e+03,2.335106e+03
1.526383e+03,2.327190e+03
1.527347e+03,2.313961e+03
1.528312e+03,2.303430e+03
1.529276e+03,2.297209e+03
1.530240e+03,2.295245e+03
1.531204e+03,2.297274e+03
1.532169e+03,2.302249e+03
1.533133e+03,2.311644e+03
1.534097e+03,2.316927e+03
1.535061e+03,2.309703e+03
1.536026e+03,2.295331e+03
1.536990e+03,2.281995e+03
1.537954e+03,2.270906e+03
1.538918e+03,2.264309e+03
1.539882e+03,2.262746e+03
1.540847e+03,2.263396e+03
1.541811e+03,2.267195e+03
1.542775e+03,2.269347e+03
1.543739e+03,2.268782e+03
1.544704e+03,2.267646e+03
1.545668e+03,2.268977e+03
1.546632e+03,2.272677e+03
1.547596e+03,2.278227e+03
1.548561e+03,2.284876e+03
1.549525e+03,2.289221e+03
1.550489e+03,2.286923e+03
1.551453e+03,2.283857e+03
1.552417e+03,2.281708e+03
1.553382e+03,2.280785e+03
1.554346e+03,2.282851e+03
1.555310e+03,2.287491e+03
1.556274e+03,2.286491e+03
1.557239e+03,2.279805e+03
1.558203e+03,2.274551e+03
1.559167e+03,2.272391e+03
1.560131e+03,2.273146e+03
1.561096e+03,2.280386e+03
1.562060e+03,2.287575e+03
1.563024e+03,2.286015e+03
1.563988e+03,2.280835e+03
1.564953e+03,2.284645e+03
1.565917e+03,2.302721e+03
1.566881e+03,2.311766e+03
1.567845e+03,2.309906e+03
1.568809e+03,2.307278e+03
1.569774e+03,2.310909e+03
1.570738e+03,2.314304e+03
1.571702e+03,2.306887e+03
1.572666e+03,2.294614e+03
1.573631e+03,2.284424e+03
1.574595e+03,2.278032e+03
1.575559e+03,2.275971e+03
1.576523e+03,2.282035e+03
1.577488e+03,2.282718e+03
1.578452e+03,2.272962e+03
1.579416e+03,2.261364e+03
1.580380e+03,2.259177e+03
1.581344e+03,2.261514e+03
1.582309e+03,2.259141e+03
1.583273e+03,2.253786e+03
1.584237e+03,2.249660e+03
1.585201e+03,2.250505e+03
1.586166e+03,2.245179e+03
1.587130e+03,2.225916e+03
1.588094e+03,2.212614e+03
1.589058e+03,2.217032e+03
1.590023e+03,2.228642e+03
1.590987e+03,2.223060e+03
1.591951e+03,2.208910e+03
1.592915e+03,2.205960e+03
1.593880e+03,2.213985e+03
1.594844e+03,2.220426e+03
1.595808e+03,2.220881e+03
1.596772e+03,2.218399e+03
1.597736e+03,2.213494e+03
1.598701e+03,2.208138e+03
1.599665e+03,2.203157e+03
1.600629e+03,2.198824e+03
1.601593e+03,2.195862e+03
1.602558e+03,2.194574e+03
1.603522e+03,2.196945e+03
1.604486e+03,2.204524e+03
1.605450e+03,2.208597e+03
1.606415e+03,2.204112e+03
1.607379e+03,2.198630e+03
1.608343e+03,2.194470e+03
1.609307e+03,2.190664e+03
1.610271e+03,2.184981e+03
1.611236e+03,2.178104e+03
1.612200e+03,2.175340e+03
1.613164e+03,2.176797e+03
1.614128e+03,2.177994e+03
1.615093e+03,2.174636e+03
1.616057e+03,2.172333e+03
1.617021e+03,2.173242e+03
1.617985e+03,2.174296e+03
1.618950e+03,2.175011e+03
1.619914e+03,2.174743e+03
1.620878e+03,2.168596e+03
1.621842e+03,2.158999e+03
1.622807e+03,2.155064e+03
1.623771e+03,2.159084e+03
1.624735e+03,2.163373e+03
1.625699e+03,2.161315e+03
1.626663e+03,2.160241e+03
1.627628e+03,2.162933e+03
1.628592e+03,2.165993e+03
1.629556e+03,2.166560e+03
1.630520e+03,2.166157e+03
1.631485e+03,2.168709e+03
1.632449e+03,2.172698e+03
1.633413e+03,2.172201e+03
1.634377e+03,2.163368e+03
1.635342e+03,2.154570e+03
1.636306e+03,2.149614e+03
1.637270e+03,2.144916e+03
1.638234e+03,2.137884e+03
1.639198e+03,2.131139e+03
1.640163e+03,2.130897e+03
1.641127e+03,2.135698e+03
1.642091e+03,2.139706e+03
1.643055e+03,2.141363e+03
1.644020e+03,2.140526e+03
1.644984e+03,2.133926e+03
1.645948e+03,2.128021e+03
1.646912e+03,2.124716e+03
1.647877e+03,2.122843e+03
1.648841e+03,2.121881e+03
1.649805e+03,2.121767e+03
1.650769e+03,2.121311e+03
1.651734e+03,2.120825e+03
1.652698e+03,2.122608e+03
1.653662e+03,2.127426e+03
1.654626e+03,2.127342e+03
1.655590e+03,2.116608e+03
1.656555e+03,2.107461e+03
1.657519e+03,2.104025e+03
1.658483e+03,2.104631e+03
1.659447e+03,2.107444e+03
1.660412e+03,2.109748e+03
1.661376e+03,2.106357e+03
1.662340e+03,2.100003e+03
1.663304e+03,2.097897e+03
1.664269e+03,2.105990e+03
1.665233e+03,2.109170e+03
1.666197e+03,2.105738e+03
1.667161e+03,2.100138e+03
1.668125e+03,2.094743e+03
1.669090e+03,2.090013e+03
1.670054e+03,2.085876e+03
1.671018e+03,2.083538e+03
1.671982e+03,2.086396e+03
1.672947e+03,2.094321e+03
1.673911e+03,2.099040e+03
1.674875e+03,2.098680e+03
1.675839e+03,2.095928e+03
1.676804e+03,2.091890e+03
1.677768e+03,2.090127e+03
1.678732e+03,2.095031e+03
1.679696e+03,2.100367e+03
1.680661e+03,2.100688e+03
1.681625e+03,2.096543e+03
1.682589e+03,2.089721e+03
1.683553e+03,2.080991e+03
1.684517e+03,2.077629e+03
1.685482e+03,2.079070e+03
1.686446e+03,2.076278e+03
1.687410e+03,2.065355e+03
1.688374e+03,2.056960e+03
1.689339e+03,2.062108e+03
1.690303e+03,2.068948e+03
1.691267e+03,2.071559e+03
1.692231e+03,2.070582e+03
1.693196e+03,2.063863e+03
1.694160e+03,2.052478e+03
1.695124e+03,2.051563e+03
1.696088e+03,2.059504e+03
1.697052e+03,2.062486e+03
1.698017e+03,2.047131e+03
1.698981e+03,2.035478e+03
1.699945e+03,2.032610e+03
1.700909e+03,2.034029e+03
1.701874e+03,2.041359e+03
1.702838e+03,2.050591e+03
1.703802e+03,2.048048e+03
1.704766e+03,2.038739e+03
1.705731e+03,2.034354e+03
1.706695e+03,2.036528e+03
1.707659e+03,2.039422e+03
1.708623e+03,2.044135e+03
1.709588e+03,2.046125e+03
1.710552e+03,2.043298e+03
1.711516e+03,2.039160e+03
1.712480e+03,2.036754e+03
1.713444e+03,2.035491e+03
1.714409e+03,2.038643e+03
1.715373e+03,2.041681e+03
1.716337e+03,2.035394e+03
1.717301e+03,2.020203e+03
1.718266e+03,2.011085e+03
1.719230e+03,2.007533e+03
1.720194e+03,2.008645e+03
1.721158e+03,2.014532e+03
1.722123e+03,2.018759e+03
1.723087e+03,2.015531e+03
1.724051e+03,2.010770e+03
1.725015e+03,2.007372e+03
1.725979e+03,2.005273e+03
1.726944e+03,2.003541e+03
1.727908e+03,2.002194e+03
1.728872e+03,2.001077e+03
1.729836e+03,1.999769e+03
1.730801e+03,1.999340e+03
1.731765e+03,2.001344e+03
1.732729e+03,2.002727e+03
1.733693e+03,2.003190e+03
1.734658e+03,2.003432e+03
1.735622e+03,2.003828e+03
1.736586e+03,2.003259e+03
1.737550e+03,1.998537e+03
1.738515e+03,1.993247e+03
1.739479e+03,1.992235e+03
1.740443e+03,1.995158e+03
1.741407e+03,1.997626e+03
1.742371e+03,1.999761e+03
1.743336e+03,2.001193e+03
1.744300e+03,2.001636e+03
1.745264e+03,1.997697e+03
1.746228e+03,1.983527e+03
1.747193e+03,1.971215e+03
1.748157e+03,1.967514e+03
1.749121e+03,1.969632e+03
1.750085e+03,1.975472e+03
1.751050e+03,1.981177e+03
1.752014e+03,1.978477e+03
1.752978e+03,1.970911e+03
1.753942e+03,1.964972e+03
1.754906e+03,1.961459e+03
1.755871e+03,1.962850e+03
1.756835e+03,1.972702e+03
1.757799e+03,1.974490e+03
1.758763e+03,1.966391e+03
1.759728e+03,1.957763e+03
1.760692e+03,1.956868e+03
1.761656e+03,1.959416e+03
1.762620e+03,1.963690e+03
1.763585e+03,1.965649e+03
1.764549e+03,1.958291e+03
1.765513e+03,1.941262e+03
1.766477e+03,1.935763e+03
1.767442e+03,1.940741e+03
1.768406e+03,1.947448e+03
1.769370e+03,1.954110e+03
1.770334e+03,1.957830e+03
1.771298e+03,1.954366e+03
1.772263e+03,1.948678e+03
1.773227e+03,1.941010e+03
1.774191e+03,1.936138e+03
1.775155e+03,1.945489e+03
1.776120e+03,1.957592e+03
1.777084e+03,1.952831e+03
1.778048e+03,1.937053e+03
1.779012e+03,1.927366e+03
1.779977e+03,1.925843e+03
1.780941e+03,1.929799e+03
1.781905e+03,1.938174e+03
1.782869e+03,1.942342e+03
1.783833e+03,1.938151e+03
1.784798e+03,1.931122e+03
1.785762e+03,1.918230e+03
1.786726e+03,1.911752e+03
1.787690e+03,1.921343e+03
1.788655e+03,1.935357e+03
1.789619e+03,1.926094e+03
1.790583e+03,1.906348e+03
1.791547e+03,1.903801e+03
1.792512e+03,1.916357e+03
1.793476e+03,1.922222e+03
1.794440e+03,1.915147e+03
1.795404e+03,1.910282e+03
1.796369e+03,1.907663e+03
1.797333e+03,1.906498e+03
1.798297e+03,1.907779e+03
1.799261e+03,1.908530e+03
1.800225e+03,1.904428e+03
1.801190e+03,1.900101e+03
1.802154e+03,1.899730e+03
1.803118e+03,1.901265e+03
1.804082e+03,1.901158e+03
1.805047e+03,1.899739e+03
1.806011e+03,1.895453e+03
1.806975e+03,1.888430e+03
1.807939e+03,1.883430e+03
1.808904e+03,1.881291e+03
1.809868e+03,1.877207e+03
1.810832e+03,1.871102e+03
1.811796e+03,1.866859e+03
1.812760e+03,1.867761e+03
1.813725e+03,1.870260e+03
1.814689e+03,1.872496e+03
1.815653e+03,1.875486e+03
1.816617e+03,1.881293e+03
1.817582e+03,1.887548e+03
1.818546e+03,1.884884e+03
1.819510e+03,1.876606e+03
1.820474e+03,1.870246e+03
1.821439e+03,1.867403e+03
1.822403e+03,1.864825e+03
1.823367e+03,1.862724e+03
1.824331e+03,1.858646e+03
1.825296e+03,1.851554e+03
1.826260e+03,1.844593e+03
1.827224e+03,1.839381e+03
1.828188e+03,1.839485e+03
1.829152e+03,1.850817e+03
1.830117e+03,1.861654e+03
1.831081e+03,1.861534e+03
1.832045e+03,1.853794e+03
1.833009e+03,1.849046e+03
1.833974e+03,1.847633e+03
1.834938e+03,1.847953e+03
1.835902e+03,1.849187e+03
1.836866e+03,1.846165e+03
1.837831e+03,1.838424e+03
1.838795e+03,1.830314e+03
1.839759e+03,1.823407e+03
1.840723e+03,1.820022e+03
1.841688e+03,1.823094e+03
1.842652e+03,1.826618e+03
1.843616e+03,1.827310e+03
1.844580e+03,1.827290e+03
1.845544e+03,1.830424e+03
1.846509e+03,1.834972e+03
1.847473e+03,1.838422e+03
1.848437e+03,1.839979e+03
1.849401e+03,1.838189e+03
1.850366e+03,1.833544e+03
1.851330e+03,1.822312e+03
1.852294e+03,1.806381e+03
1.853258e+03,1.797300e+03
1.854223e+03,1.798092e+03
1.855187e+03,1.803929e+03
1.856151e+03,1.817144e+03
1.857115e+03,1.826661e+03
1.858079e+03,1.830103e+03
1.859044e+03,1.828558e+03
1.860008e+03,1.821618e+03
1.860972e+03,1.813466e+03
1.861936e+03,1.807844e+03
1.862901e+03,1.803677e+03
1.863865e+03,1.797153e+03
1.864829e+03,1.788231e+03
1.865793e+03,1.788888e+03
1.866758e+03,1.795898e+03
1.867722e+03,1.797281e+03
1.868686e+03,1.788016e+03
1.869650e+03,1.782377e+03
1.870615e+03,1.781521e+03
1.871579e+03,1.778599e+03
1.872543e+03,1.772116e+03
1.873507e+03,1.769981e+03
1.874471e+03,1.782038e+03
1.875436e+03,1.792200e+03
1.876400e+03,1.794233e+03
1.877364e+03,1.791571e+03
1.878328e+03,1.785617e+03
1.879293e+03,1.778904e+03
1.880257e+03,1.774808e+03
1.881221e+03,1.773545e+03
1.882185e+03,1.779029e+03
1.883150e+03,1.792000e+03
1.884114e+03,1.789342e+03
1.885078e+03,1.773101e+03
1.886042e+03,1.761256e+03
1.887006e+03,1.759207e+03
1.887971e+03,1.758185e+03
1.888935e+03,1.757483e+03
1.889899e+03,1.755086e+03
1.890863e+03,1.748770e+03
1.891828e+03,1.743782e+03
1.892792e+03,1.748412e+03
1.893756e+03,1.755061e+03
1.894720e+03,1.761906e+03
1.895685e+03,1.766805e+03
1.896649e+03,1.765329e+03
1.897613e+03,1.757840e+03
1.898577e+03,1.743908e+03
1.899542e+03,1.728538e+03
1.900506e+03,1.722771e+03
1.901470e+03,1.728673e+03
1.902434e+03,1.736366e+03
1.903398e+03,1.745680e+03
1.904363e+03,1.750497e+03
1.905327e+03,1.749099e+03
1.906291e+03,1.748141e+03
1.907255e+03,1.752031e+03
1.908220e+03,1.752408e+03
1.909184e+03,1.747605e+03
1.910148e+03,1.739713e+03
1.911112e+03,1.728509e+03
1.912077e+03,1.719280e+03
1.913041e+03,1.717904e+03
1.914005e+03,1.719721e+03
1.914969e+03,1.720459e+03
1.915933e+03,1.719944e+03
1.916898e+03,1.715031e+03
1.917862e+03,1.709477e+03
1.918826e+03,1.712660e+03
1.919790e+03,1.726857e+03
1.920755e+03,1.725123e+03
1.921719e+03,1.707565e+03
1.922683e+03,1.700143e+03
1.923647e+03,1.708979e+03
1.924612e+03,1.719392e+03
1.925576e+03,1.729897e+03
1.926540e+03,1.730370e+03
1.927504e+03,1.716341e+03
1.928469e+03,1.702246e+03
1.929433e+03,1.704890e+03
1.930397e+03,1.707040e+03
1.931361e+03,1.690746e+03
1.932325e+03,1.673941e+03
1.933290e+03,1.672746e+03
1.934254e+03,1.681703e+03
1.935218e+03,1.683705e+03
1.936182e+03,1.682840e+03
1.937147e+03,1.690545e+03
1.938111e+03,1.706021e+03
1.939075e+03,1.713345e+03
1.940039e+03,1.713492e+03
1.941004e+03,1.703990e+03
1.941968e+03,1.684393e+03
1.942932e+03,1.673827e+03
1.943896e+03,1.683158e+03
1.944860e+03,1.685475e+03
1.945825e+03,1.678602e+03
1.946789e+03,1.673584e+03
1.947753e+03,1.681313e+03
1.948717e+03,1.686479e+03
1.949682e+03,1.681711e+03
1.950646e+03,1.674445e+03
1.951610e+03,1.667947e+03
1.952574e+03,1.663305e+03
1.953539e+03,1.664268e+03
1.954503e+03,1.665852e+03
1.955467e+03,1.661883e+03
1.956431e+03,1.656098e+03
1.957396e+03,1.658723e+03
1.958360e+03,1.666094e+03
1.959324e+03,1.671384e+03
1.960288e+03,1.674177e+03
1.961252e+03,1.673106e+03
1.962217e+03,1.667154e+03
1.963181e+03,1.659009e+03
1.964145e+03,1.649321e+03
1.965109e+03,1.643895e+03
1.966074e+03,1.650240e+03
1.967038e+03,1.653409e+03
1.968002e+03,1.649785e+03
1.968966e+03,1.647273e+03
1.969931e+03,1.651094e+03
1.970895e+03,1.653124e+03
1.971859e+03,1.645626e+03
1.972823e+03,1.640669e+03
1.973787e+03,1.643524e+03
1.974752e+03,1.648259e+03
1.975716e+03,1.648335e+03
1.976680e+03,1.644455e+03
1.977644e+03,1.634537e+03
1.978609e+03,1.625426e+03
1.979573e+03,1.629740e+03
1.980537e+03,1.641538e+03
1.981501e+03,1.641535e+03
1.982466e+03,1.632706e+03
1.983430e+03,1.623457e+03
1.984394e+03,1.614100e+03
1.985358e+03,1.608808e+03
1.986323e+03,1.607490e+03
1.987287e+03,1.612424e+03
1.988251e+03,1.626314e+03
1.989215e+03,1.632424e+03
1.990179e+03,1.628510e+03
1.991144e+03,1.623250e+03
1.992108e+03,1.619260e+03
1.993072e+03,1.614602e+03
1.994036e+03,1.605146e+03
1.995001e+03,1.597076e+03
1.995965e+03,1.591430e+03
1.996929e+03,1.589863e+03
1.997893e+03,1.595293e+03
1.998858e+03,1.601986e+03
1.999822e+03,1.606267e+03
2.000786e+03,1.607819e+03
2.001750e+03,1.607697e+03
2.002714e+03,1.606586e+03
2.003679e+03,1.601442e+03
2.004643e+03,1.594717e+03
2.005607e+03,1.592096e+03
2.006571e+03,1.592807e+03
2.007536e+03,1.592293e+03
2.008500e+03,1.590360e+03
2.009464e+03,1.583382e+03
2.010428e+03,1.572862e+03
2.011393e+03,1.573322e+03
2.012357e+03,1.586169e+03
2.013321e+03,1.593919e+03
2.014285e+03,1.594271e+03
2.015250e+03,1.591529e+03
2.016214e+03,1.585954e+03
2.017178e+03,1.580027e+03
2.018142e+03,1.573993e+03
2.019106e+03,1.571316e+03
2.020071e+03,1.575615e+03
2.021035e+03,1.578224e+03
2.021999e+03,1.573929e+03
2.022963e+03,1.568335e+03
2.023928e+03,1.564096e+03
2.024892e+03,1.559764e+03
2.025856e+03,1.550999e+03
2.026820e+03,1.544569e+03
2.027785e+03,1.545068e+03
2.028749e+03,1.548044e+03
2.029713e+03,1.549007e+03
2.030677e+03,1.548543e+03
2.031641e+03,1.544787e+03
2.032606e+03,1.541045e+03
2.033570e+03,1.544463e+03
2.034534e+03,1.551871e+03
2.035498e+03,1.549093e+03
2.036463e+03,1.540681e+03
2.037427e+03,1.536985e+03
2.038391e+03,1.539380e+03
2.039355e+03,1.539533e+03
2.040320e+03,1.538708e+03
2.041284e+03,1.543076e+03
2.042248e+03,1.553679e+03
2.043212e+03,1.551247e+03
2.044177e+03,1.534015e+03
2.045141e+03,1.528699e+03
2.046105e+03,1.538604e+03
2.047069e+03,1.545518e+03
2.048033e+03,1.537211e+03
2.048998e+03,1.529571e+03
2.049962e+03,1.524355e+03
2.050926e+03,1.519750e+03
2.051890e+03,1.513606e+03
2.052854e+03,1.509347e+03
2.053819e+03,1.507752e+03
2.054783e+03,1.505498e+03
2.055747e+03,1.500682e+03
2.056711e+03,1.498860e+03
2.057676e+03,1.509808e+03
2.058640e+03,1.519032e+03
2.059604e+03,1.516604e+03
2.060568e+03,1.510205e+03
2.061533e+03,1.514738e+03
2.062497e+03,1.519644e+03
2.063461e+03,1.511202e+03
2.064425e+03,1.498901e+03
2.065390e+03,1.496063e+03
2.066354e+03,1.498502e+03
2.067318e+03,1.499991e+03
2.068282e+03,1.500940e+03
2.069247e+03,1.503200e+03
2.070211e+03,1.505166e+03
2.071175e+03,1.495058e+03
2.072139e+03,1.479488e+03
2.073104e+03,1.475779e+03
2.074068e+03,1.484884e+03
2.075032e+03,1.484443e+03
2.075996e+03,1.476621e+03
2.076960e+03,1.473371e+03
2.077925e+03,1.476911e+03
2.078889e+03,1.484220e+03
2.079853e+03,1.495403e+03
2.080817e+03,1.493472e+03
2.081782e+03,1.477237e+03
2.082746e+03,1.463338e+03
2.083710e+03,1.458316e+03
2.084674e+03,1.458220e+03
2.085639e+03,1.463648e+03
2.086603e+03,1.470056e+03
2.087567e+03,1.474004e+03
2.088531e+03,1.473955e+03
2.089496e+03,1.468332e+03
2.090460e+03,1.464050e+03
2.091424e+03,1.467658e+03
2.092388e+03,1.471696e+03
2.093353e+03,1.470533e+03
2.094317e+03,1.468427e+03
2.095281e+03,1.464843e+03
2.096245e+03,1.460645e+03
2.097209e+03,1.456021e+03
2.098174e+03,1.452973e+03
2.099138e+03,1.453452e+03
2.100102e+03,1.454228e+03
2.101066e+03,1.450728e+03
2.102031e+03,1.446665e+03
2.102995e+03,1.448175e+03
2.103959e+03,1.447580e+03
2.104923e+03,1.434204e+03
2.105887e+03,1.419995e+03
2.106852e+03,1.423428e+03
2.107816e+03,1.434310e+03
2.108780e+03,1.444131e+03
2.109744e+03,1.450350e+03
2.110708e+03,1.444490e+03
2.111673e+03,1.434854e+03
2.112637e+03,1.432730e+03
2.113601e+03,1.434405e+03
2.114565e+03,1.433115e+03
2.115530e+03,1.429858e+03
2.116494e+03,1.427038e+03
2.117458e+03,1.425503e+03
2.118422e+03,1.419073e+03
2.119387e+03,1.409203e+03
2.120351e+03,1.416169e+03
2.121315e+03,1.433175e+03
2.122279e+03,1.438849e+03
2.123244e+03,1.431857e+03
2.124208e+03,1.419565e+03
2.125172e+03,1.405252e+03
2.126136e+03,1.399435e+03
2.127101e+03,1.405718e+03
2.128065e+03,1.406426e+03
2.129029e+03,1.402444e+03
2.129993e+03,1.405347e+03
2.130958e+03,1.415869e+03
2.131922e+03,1.412967e+03
2.132886e+03,1.394757e+03
2.133850e+03,1.383677e+03
2.134814e+03,1.383320e+03
2.135779e+03,1.386518e+03
2.136743e+03,1.392033e+03
2.137707e+03,1.393451e+03
2.138671e+03,1.391061e+03
2.139636e+03,1.386575e+03
2.140600e+03,1.377656e+03
2.141564e+03,1.374468e+03
2.142528e+03,1.378146e+03
2.143493e+03,1.380174e+03
2.144457e+03,1.375530e+03
2.145421e+03,1.372636e+03
2.146385e+03,1.374725e+03
2.147350e+03,1.375674e+03
2.148314e+03,1.374590e+03
2.149278e+03,1.373617e+03
2.150242e+03,1.370337e+03
2.151207e+03,1.370516e+03
2.152171e+03,1.375276e+03
2.153135e+03,1.378236e+03
2.154099e+03,1.375495e+03
2.155063e+03,1.372306e+03
2.156028e+03,1.370449e+03
2.156992e+03,1.368688e+03
2.157956e+03,1.363537e+03
2.158920e+03,1.358427e+03
2.159885e+03,1.353555e+03
2.160849e+03,1.353279e+03
2.161813e+03,1.362971e+03
2.162777e+03,1.369240e+03
2.163741e+03,1.355761e+03
2.164706e+03,1.343330e+03
2.165670e+03,1.341648e+03
2.166634e+03,1.342765e+03
2.167598e+03,1.332360e+03
2.168563e+03,1.329014e+03
2.169527e+03,1.341700e+03
2.170491e+03,1.354753e+03
2.171455e+03,1.351119e+03
2.172420e+03,1.345631e+03
2.173384e+03,1.349515e+03
2.174348e+03,1.353496e+03
2.175312e+03,1.348947e+03
2.176277e+03,1.340660e+03
2.177241e+03,1.331644e+03
2.178205e+03,1.323841e+03
2.179169e+03,1.318277e+03
2.180134e+03,1.317538e+03
2.181098e+03,1.330389e+03
2.182062e+03,1.340864e+03
2.183026e+03,1.336970e+03
2.183990e+03,1.326042e+03
2.184955e+03,1.312961e+03
2.185919e+03,1.306078e+03
2.186883e+03,1.315025e+03
2.187847e+03,1.325800e+03
2.188812e+03,1.319639e+03
2.189776e+03,1.309018e+03
2.190740e+03,1.306351e+03
2.191704e+03,1.306553e+03
2.192668e+03,1.308006e+03
2.193633e+03,1.308072e+03
2.194597e+03,1.299118e+03
2.195561e+03,1.290667e+03
2.196525e+03,1.291221e+03
2.197490e+03,1.295809e+03
2.198454e+03,1.298495e+03
2.199418e+03,1.297160e+03
2.200382e+03,1.289042e+03
2.201347e+03,1.280653e+03
2.202311e+03,1.281176e+03
2.203275e+03,1.287294e+03
2.204239e+03,1.297339e+03
2.205204e+03,1.305662e+03
2.206168e+03,1.306836e+03
2.207132e+03,1.303808e+03
2.208096e+03,1.297460e+03
2.209061e+03,1.288938e+03
2.210025e+03,1.278115e+03
2.210989e+03,1.268821e+03
2.211953e+03,1.269107e+03
2.212917e+03,1.275371e+03
2.213882e+03,1.280781e+03
2.214846e+03,1.284284e+03
2.215810e+03,1.286812e+03
2.216774e+03,1.285066e+03
2.217739e+03,1.277823e+03
2.218703e+03,1.269887e+03
2.219667e+03,1.271592e+03
2.220631e+03,1.273674e+03
2.221595e+03,1.264048e+03
2.222560e+03,1.252551e+03
2.223524e+03,1.257332e+03
2.224488e+03,1.264725e+03
2.225452e+03,1.255301e+03
2.226417e+03,1.244330e+03
2.227381e+03,1.249367e+03
2.228345e+03,1.259438e+03
2.229309e+03,1.258553e+03
2.230274e+03,1.253572e+03
2.231238e+03,1.250806e+03
2.232202e+03,1.248734e+03
2.233166e+03,1.245902e+03
2.234131e+03,1.244280e+03
2.235095e+03,1.244808e+03
2.236059e+03,1.246487e+03
2.237023e+03,1.249841e+03
2.237988e+03,1.249686e+03
2.238952e+03,1.241032e+03
2.239916e+03,1.230530e+03
2.240880e+03,1.228792e+03
2.241844e+03,1.229382e+03
2.242809e+03,1.227793e+03
2.243773e+03,1.225178e+03
2.244737e+03,1.218579e+03
2.245701e+03,1.215191e+03
2.246666e+03,1.225598e+03
2.247630e+03,1.233949e+03
2.248594e+03,1.229275e+03
2.249558e+03,1.221510e+03
2.250522e+03,1.217685e+03
2.251487e+03,1.216466e+03
2.252451e+03,1.216528e+03
2.253415e+03,1.215897e+03
2.254379e+03,1.215257e+03
2.255344e+03,1.212870e+03
2.256308e+03,1.207744e+03
2.257272e+03,1.203647e+03
2.258236e+03,1.204990e+03
2.259201e+03,1.207993e+03
2.260165e+03,1.211484e+03
2.261129e+03,1.211559e+03
2.262093e+03,1.199775e+03
2.263058e+03,1.191789e+03
2.264022e+03,1.193543e+03
2.264986e+03,1.196162e+03
2.265950e+03,1.190975e+03
2.266915e+03,1.188451e+03
2.267879e+03,1.191619e+03
2.268843e+03,1.192418e+03
2.269807e+03,1.187803e+03
2.270771e+03,1.185055e+03
2.271736e+03,1.187487e+03
2.272700e+03,1.192588e+03
2.273664e+03,1.199641e+03
2.274628e+03,1.198341e+03
2.275593e+03,1.177719e+03
2.276557e+03,1.169561e+03
2.277521e+03,1.179860e+03
2.278485e+03,1.185740e+03
2.279449e+03,1.169256e+03
2.280414e+03,1.167598e+03
2.281378e+03,1.182160e+03
2.282342e+03,1.191600e+03
2.283306e+03,1.180147e+03
2.284271e+03,1.170172e+03
2.285235e+03,1.161740e+03
2.286199e+03,1.159134e+03
2.287163e+03,1.168401e+03
2.288128e+03,1.170534e+03
2.289092e+03,1.165116e+03
2.290056e+03,1.161167e+03
2.291020e+03,1.161129e+03
2.291985e+03,1.157286e+03
2.292949e+03,1.151308e+03
2.293913e+03,1.151614e+03
2.294877e+03,1.158442e+03
2.295842e+03,1.167625e+03
2.296806e+03,1.176703e+03
2.297770e+03,1.170965e+03
2.298734e+03,1.154908e+03
2.299698e+03,1.150635e+03
2.300663e+03,1.157165e+03
2.301627e+03,1.159103e+03
2.302591e+03,1.156929e+03
2.303555e+03,1.154246e+03
2.304520e+03,1.150672e+03
2.305484e+03,1.135965e+03
2.306448e+03,1.121613e+03
2.307412e+03,1.129867e+03
2.308376e+03,1.149493e+03
2.309341e+03,1.155563e+03
2.310305e+03,1.152196e+03
2.311269e+03,1.141463e+03
2.312233e+03,1.132069e+03
2.313198e+03,1.141511e+03
2.314162e+03,1.152968e+03
2.315126e+03,1.145340e+03
2.316090e+03,1.133834e+03
2.317055e+03,1.137944e+03
2.318019e+03,1.143627e+03
2.318983e+03,1.134397e+03
2.319947e+03,1.125166e+03
2.320912e+03,1.130302e+03
2.321876e+03,1.136490e+03
2.322840e+03,1.133105e+03
2.323804e+03,1.125515e+03
2.324769e+03,1.113264e+03
2.325733e+03,1.106836e+03
2.326697e+03,1.118919e+03
2.327661e+03,1.124555e+03
2.328625e+03,1.114465e+03
2.329590e+03,1.104838e+03
2.330554e+03,1.108096e+03
2.331518e+03,1.110645e+03
2.332482e+03,1.110443e+03
2.333447e+03,1.107957e+03
2.334411e+03,1.102217e+03
2.335375e+03,1.095889e+03
2.336339e+03,1.089389e+03
2.337303e+03,1.086952e+03
2.338268e+03,1.091608e+03
2.339232e+03,1.093411e+03
2.340196e+03,1.093276e+03
2.341160e+03,1.095884e+03
2.342125e+03,1.102777e+03
2.343089e+03,1.106477e+03
2.344053e+03,1.105834e+03
2.345017e+03,1.100740e+03
2.345982e+03,1.092982e+03
2.346946e+03,1.094018e+03
2.347910e+03,1.100697e+03
2.348874e+03,1.101936e+03
2.349839e+03,1.097808e+03
2.350803e+03,1.093443e+03
2.351767e+03,1.090013e+03
2.352731e+03,1.090233e+03
2.353696e+03,1.092079e+03
2.354660e+03,1.091229e+03
2.355624e+03,1.088179e+03
2.356588e+03,1.083124e+03
2.357552e+03,1.079770e+03
2.358517e+03,1.082966e+03
2.359481e+03,1.086921e+03
2.360445e+03,1.083868e+03
2.361409e+03,1.077984e+03
2.362374e+03,1.069891e+03
2.363338e+03,1.064301e+03
2.364302e+03,1.071133e+03
2.365266e+03,1.076737e+03
2.366230e+03,1.076582e+03
2.367195e+03,1.073396e+03
2.368159e+03,1.066365e+03
2.369123e+03,1.060213e+03
2.370087e+03,1.056544e+03
2.371052e+03,1.054226e+03
2.372016e+03,1.052670e+03
2.372980e+03,1.054225e+03
2.373944e+03,1.058184e+03
2.374909e+03,1.058908e+03
2.375873e+03,1.052934e+03
2.376837e+03,1.057818e+03
2.377801e+03,1.069177e+03
2.378766e+03,1.061905e+03
2.379730e+03,1.034996e+03
2.380694e+03,1.029821e+03
2.381658e+03,1.039041e+03
2.382623e+03,1.042488e+03
2.383587e+03,1.040613e+03
2.384551e+03,1.038813e+03
2.385515e+03,1.037966e+03
2.386479e+03,1.043250e+03
2.387444e+03,1.049346e+03
2.388408e+03,1.047753e+03
2.389372e+03,1.043569e+03
2.390336e+03,1.040231e+03
2.391301e+03,1.038473e+03
2.392265e+03,1.040032e+03
2.393229e+03,1.041356e+03
2.394193e+03,1.040937e+03
2.395157e+03,1.038692e+03
2.396122e+03,1.032591e+03
2.397086e+03,1.030111e+03
2.398050e+03,1.034569e+03
2.399014e+03,1.038444e+03
2.399979e+03,1.039140e+03
2.400943e+03,1.035734e+03
2.401907e+03,1.027733e+03
2.402871e+03,1.025557e+03
2.403836e+03,1.031988e+03
2.404800e+03,1.037269e+03
2.405764e+03,1.039935e+03
2.406728e+03,1.034482e+03
2.407693e+03,1.022180e+03
2.408657e+03,1.018400e+03
2.409621e+03,1.021969e+03
2.410585e+03,1.021814e+03
2.411550e+03,1.019967e+03
2.412514e+03,1.022890e+03
2.413478e+03,1.027626e+03
2.414442e+03,1.027524e+03
2.415406e+03,1.023140e+03
2.416371e+03,1.013954e+03
2.417335e+03,1.004482e+03
2.418299e+03,1.000832e+03
2.419263e+03,1.000309e+03
2.420228e+03,1.001363e+03
2.421192e+03,1.003801e+03
2.422156e+03,1.011395e+03
2.423120e+03,1.013380e+03
2.424084e+03,1.005504e+03
2.425049e+03,9.989505e+02
2.426013e+03,1.003206e+03
2.426977e+03,1.002182e+03
2.427941e+03,9.954341e+02
2.428906e+03,9.913391e+02
2.429870e+03,9.914426e+02
2.430834e+03,9.956007e+02
2.431798e+03,1.002049e+03
2.432763e+03,9.986260e+02
2.433727e+03,9.859700e+02
2.434691e+03,9.805915e+02
2.435655e+03,9.798969e+02
2.436620e+03,9.783068e+02
2.437584e+03,9.769517e+02
2.438548e+03,9.833102e+02
2.439512e+03,9.885274e+02
2.440477e+03,9.822714e+02
2.441441e+03,9.726536e+02
2.442405e+03,9.700975e+02
2.443369e+03,9.734623e+02
2.444333e+03,9.829193e+02
2.445298e+03,9.916228e+02
2.446262e+03,9.956119e+02
2.447226e+03,9.896307e+02
2.448190e+03,9.731525e+02
2.449155e+03,9.635332e+02
2.450119e+03,9.793599e+02
2.451083e+03,9.844670e+02
2.452047e+03,9.791578e+02
2.453011e+03,9.721884e+02
2.453976e+03,9.657936e+02
2.454940e+03,9.663735e+02
2.455904e+03,9.719091e+02
2.456868e+03,9.741469e+02
2.457833e+03,9.725510e+02
2.458797e+03,9.673500e+02
2.459761e+03,9.619310e+02
2.460725e+03,9.596387e+02
2.461690e+03,9.604083e+02
2.462654e+03,9.691546e+02
2.463618e+03,9.742411e+02
2.464582e+03,9.691920e+02
2.465547e+03,9.608268e+02
2.466511e+03,9.506039e+02
2.467475e+03,9.426987e+02
2.468439e+03,9.375683e+02
2.469404e+03,9.369754e+02
2.470368e+03,9.493666e+02
2.471332e+03,9.512582e+02
2.472296e+03,9.429351e+02
2.473260e+03,9.408233e+02
2.474225e+03,9.497984e+02
2.475189e+03,9.520905e+02
2.476153e+03,9.501511e+02
2.477117e+03,9.484070e+02
2.478082e+03,9.469953e+02
2.479046e+03,9.465067e+02
2.480010e+03,9.456160e+02
2.480974e+03,9.430031e+02
2.481938e+03,9.395087e+02
2.482903e+03,9.339785e+02
2.483867e+03,9.316628e+02
2.484831e+03,9.354554e+02
2.485795e+03,9.388596e+02
2.486760e+03,9.361910e+02
2.487724e+03,9.351934e+02
2.488688e+03,9.375836e+02
2.489652e+03,9.376093e+02
2.490617e+03,9.281629e+02
2.491581e+03,9.278994e+02
2.492545e+03,9.350711e+02
2.493509e+03,9.343663e+02
2.494474e+03,9.240994e+02
2.495438e+03,9.242753e+02
2.496402e+03,9.293021e+02
2.497366e+03,9.255461e+02
2.498331e+03,9.183785e+02
2.499295e+03,9.191786e+02
2.500259e+03,9.223345e+02
2.501223e+03,9.243669e+02
2.502188e+03,9.253806e+02
2.503152e+03,9.251049e+02
2.504116e+03,9.238957e+02
2.505080e+03,9.221352e+02
2.506044e+03,9.189202e+02
2.507009e+03,9.091365e+02
2.507973e+03,9.083577e+02
2.508937e+03,9.163919e+02
2.509901e+03,9.179210e+02
2.510865e+03,9.082151e+02
2.511830e+03,9.102794e+02
2.512794e+03,9.186608e+02
2.513758e+03,9.195348e+02
2.514722e+03,9.157227e+02
2.515687e+03,9.136451e+02
2.516651e+03,9.127354e+02
2.517615e+03,9.132475e+02
2.518579e+03,9.117640e+02
2.519544e+03,8.996797e+02
2.520508e+03,8.920011e+02
2.521472e+03,8.948633e+02
2.522436e+03,8.976237e+02
2.523401e+03,8.907317e+02
2.524365e+03,8.886072e+02
2.525329e+03,8.910861e+02
2.526293e+03,8.907946e+02
2.527258e+03,8.863599e+02
2.528222e+03,8.869945e+02
2.529186e+03,8.913322e+02
2.530150e+03,8.954232e+02
2.531115e+03,8.989042e+02
2.532079e+03,9.000549e+02
2.533043e+03,8.986205e+02
2.534007e+03,8.935916e+02
2.534971e+03,8.883093e+02
2.535936e+03,8.912996e+02
2.536900e+03,8.901093e+02
2.537864e+03,8.787537e+02
2.538828e+03,8.743719e+02
2.539792e+03,8.879781e+02
2.540757e+03,8.920342e+02
2.541721e+03,8.836760e+02
2.542685e+03,8.777133e+02
2.543649e+03,8.763093e+02
2.544614e+03,8.801154e+02
2.545578e+03,8.848001e+02
2.546542e+03,8.772365e+02
2.547506e+03,8.665533e+02
2.548471e+03,8.810472e+02
2.549435e+03,8.966383e+02
2.550399e+03,8.898431e+02
2.551363e+03,8.790839e+02
2.552328e+03,8.804276e+02
2.553292e+03,8.818484e+02
2.554256e+03,8.789764e+02
2.555220e+03,8.789589e+02
2.556185e+03,8.828196e+02
2.557149e+03,8.853665e+02
2.558113e+03,8.852040e+02
2.559077e+03,8.820455e+02
2.560042e+03,8.758334e+02
2.561006e+03,8.663820e+02
2.561970e+03,8.574621e+02
2.562934e+03,8.523214e+02
2.563898e+03,8.510700e+02
2.564863e+03,8.548487e+02
2.565827e+03,8.591340e+02
2.566791e+03,8.631827e+02
2.567755e+03,8.668130e+02
2.568719e+03,8.695103e+02
2.569684e+03,8.654431e+02
2.570648e+03,8.481227e+02
2.571612e+03,8.436003e+02
2.572576e+03,8.510607e+02
2.573541e+03,8.584050e+02
2.574505e+03,8.631312e+02
2.575469e+03,8.698122e+02
2.576433e+03,8.725902e+02
2.577398e+03,8.616119e+02
2.578362e+03,8.470480e+02
2.579326e+03,8.404170e+02
2.580290e+03,8.386501e+02
2.581255e+03,8.395069e+02
2.582219e+03,8.410239e+02
2.583183e+03,8.430043e+02
2.584147e+03,8.438492e+02
2.585112e+03,8.446924e+02
2.586076e+03,8.463044e+02
2.587040e+03,8.487494e+02
2.588004e+03,8.417410e+02
2.588969e+03,8.316872e+02
2.589933e+03,8.354218e+02
2.590897e+03,8.445553e+02
2.591861e+03,8.395296e+02
2.592825e+03,8.333760e+02
2.593790e+03,8.344194e+02
2.594754e+03,8.356354e+02
2.595718e+03,8.311277e+02
2.596682e+03,8.315334e+02
2.597646e+03,8.390098e+02
2.598611e+03,8.376465e+02
2.599575e+03,8.277537e+02
2.600539e+03,8.170721e+02
2.601503e+03,8.096261e+02
2.602468e+03,8.195452e+02
2.603432e+03,8.342245e+02
2.604396e+03,8.246863e+02
2.605360e+03,8.117269e+02
2.606325e+03,8.130861e+02
2.607289e+03,8.178566e+02
2.608253e+03,8.213529e+02
2.609217e+03,8.252810e+02
2.610182e+03,8.305842e+02
2.611146e+03,8.277885e+02
2.612110e+03,8.186735e+02
2.613074e+03,8.168434e+02
2.614039e+03,8.221049e+02
2.615003e+03,8.161298e+02
2.615967e+03,8.079338e+02
2.616931e+03,8.143630e+02
2.617896e+03,8.255524e+02
2.618860e+03,8.321703e+02
2.619824e+03,8.306804e+02
2.620788e+03,8.196426e+02
2.621752e+03,8.089856e+02
2.622717e+03,8.044587e+02
2.623681e+03,8.026424e+02
2.624645e+03,8.031625e+02
2.625609e+03,8.079636e+02
2.626573e+03,8.152586e+02
2.627538e+03,8.119196e+02
2.628502e+03,8.049163e+02
2.629466e+03,8.045790e+02
2.630430e+03,8.058183e+02
2.631395e+03,8.009086e+02
2.632359e+03,7.963444e+02
2.633323e+03,7.945909e+02
2.634287e+03,7.932384e+02
2.635252e+03,7.918104e+02
2.636216e+03,7.959100e+02
2.637180e+03,8.056301e+02
2.638144e+03,8.118420e+02
2.639109e+03,8.136335e+02
2.640073e+03,8.076555e+02
2.641037e+03,7.996827e+02
2.642001e+03,7.943072e+02
2.642966e+03,7.906669e+02
2.643930e+03,7.877487e+02
2.644894e+03,7.870800e+02
2.645858e+03,7.915413e+02
2.646823e+03,7.955402e+02
2.647787e+03,7.981141e+02
2.648751e+03,7.990279e+02
2.649715e+03,7.983590e+02
2.650679e+03,8.003967e+02
2.651644e+03,8.010925e+02
2.652608e+03,7.929854e+02
2.653572e+03,7.837137e+02
2.654536e+03,7.878681e+02
2.655500e+03,7.897696e+02
2.656465e+03,7.831537e+02
2.657429e+03,7.766968e+02
2.658393e+03,7.725721e+02
2.659357e+03,7.719490e+02
2.660322e+03,7.752556e+02
2.661286e+03,7.743294e+02
2.662250e+03,7.718513e+02
2.663214e+03,7.784367e+02
2.664179e+03,7.869866e+02
2.665143e+03,7.914977e+02
2.666107e+03,7.897903e+02
2.667071e+03,7.807882e+02
2.668036e+03,7.709042e+02
2.669000e+03,7.589540e+02
2.669964e+03,7.609424e+02
2.670928e+03,7.739086e+02
2.671893e+03,7.801117e+02
2.672857e+03,7.787408e+02
2.673821e+03,7.674215e+02
2.674785e+03,7.568456e+02
2.675750e+03,7.597390e+02
2.676714e+03,7.663022e+02
2.677678e+03,7.673622e+02
2.678642e+03,7.629282e+02
2.679606e+03,7.525934e+02
2.680571e+03,7.479667e+02
2.681535e+03,7.503352e+02
2.682499e+03,7.590621e+02
2.683463e+03,7.696387e+02
2.684427e+03,7.683566e+02
2.685392e+03,7.627292e+02
2.686356e+03,7.670193e+02
2.687320e+03,7.700565e+02
2.688284e+03,7.645382e+02
2.689249e+03,7.535554e+02
2.690213e+03,7.379742e+02
2.691177e+03,7.363500e+02
2.692141e+03,7.578576e+02
2.693106e+03,7.599614e+02
2.694070e+03,7.513914e+02
2.695034e+03,7.539385e+02
2.695998e+03,7.604564e+02
2.696963e+03,7.547778e+02
2.697927e+03,7.528717e+02
2.698891e+03,7.630482e+02
2.699855e+03,7.654192e+02
2.700820e+03,7.470959e+02
2.701784e+03,7.479725e+02
2.702748e+03,7.665653e+02
2.703712e+03,7.631177e+02
2.704677e+03,7.444960e+02
2.705641e+03,7.357332e+02
2.706605e+03,7.353910e+02
2.707569e+03,7.439177e+02
2.708533e+03,7.504955e+02
2.709498e+03,7.496951e+02
2.710462e+03,7.482833e+02
2.711426e+03,7.507210e+02
2.712390e+03,7.469739e+02
2.713354e+03,7.392386e+02
2.714319e+03,7.392991e+02
2.715283e+03,7.433238e+02
2.716247e+03,7.423920e+02
2.717211e+03,7.391478e+02
2.718176e+03,7.356693e+02
2.719140e+03,7.327058e+02
2.720104e+03,7.306667e+02
2.721068e+03,7.280311e+02
2.722033e+03,7.252405e+02
2.722997e+03,7.292985e+02
2.723961e+03,7.373903e+02
2.724925e+03,7.393232e+02
2.725890e+03,7.376232e+02
2.726854e+03,7.335168e+02
2.727818e+03,7.324065e+02
2.728782e+03,7.365071e+02
2.729747e+03,7.402197e+02
2.730711e+03,7.409105e+02
2.731675e+03,7.410621e+02
2.732639e+03,7.409601e+02
2.733604e+03,7.411695e+02
2.734568e+03,7.398250e+02
2.735532e+03,7.271367e+02
2.736496e+03,7.166676e+02
2.737460e+03,7.197731e+02
2.738425e+03,7.217459e+02
2.739389e+03,7.113695e+02
2.740353e+03,7.099789e+02
2.741317e+03,7.203939e+02
2.742281e+03,7.231721e+02
2.743246e+03,7.203327e+02
2.744210e+03,7.196547e+02
2.745174e+03,7.192054e+02
2.746138e+03,7.168305e+02
2.747103e+03,7.168165e+02
2.748067e+03,7.212845e+02
2.749031e+03,7.238323e+02
2.749995e+03,7.197211e+02
2.750960e+03,7.168902e+02
2.751924e+03,7.152346e+02
2.752888e+03,7.137703e+02
2.753852e+03,7.126044e+02
2.754817e+03,7.139528e+02
2.755781e+03,7.141339e+02
2.756745e+03,7.097418e+02
2.757709e+03,7.098922e+02
2.758674e+03,7.165732e+02
2.759638e+03,7.176818e+02
2.760602e+03,7.123397e+02
2.761566e+03,7.175662e+02
2.762531e+03,7.243357e+02
2.763495e+03,7.124178e+02
2.764459e+03,6.979875e+02
2.765423e+03,6.991984e+02
2.766387e+03,6.996323e+02
2.767352e+03,6.961196e+02
2.768316e+03,7.005846e+02
2.769280e+03,7.147072e+02
2.770244e+03,7.156655e+02
2.771208e+03,7.080183e+02
2.772173e+03,7.004158e+02
2.773137e+03,6.961801e+02
2.774101e+03,7.018827e+02
2.775065e+03,7.092999e+02
2.776030e+03,7.165410e+02
2.776994e+03,7.144614e+02
2.777958e+03,7.043201e+02
2.778922e+03,6.978902e+02
2.779887e+03,6.954374e+02
2.780851e+03,6.939177e+02
2.781815e+03,6.945723e+02
2.782779e+03,6.992429e+02
2.783744e+03,7.017911e+02
2.784708e+03,6.967125e+02
2.785672e+03,6.913730e+02
2.786636e+03,6.873968e+02
2.787601e+03,6.916042e+02
2.788565e+03,7.000004e+02
2.789529e+03,7.002813e+02
2.790493e+03,6.980774e+02
2.791458e+03,6.993876e+02
2.792422e+03,6.929650e+02
2.793386e+03,6.780545e+02
2.794350e+03,6.751323e+02
2.795314e+03,6.885940e+02
2.796279e+03,6.936111e+02
2.797243e+03,6.920240e+02
2.798207e+03,6.887556e+02
2.799171e+03,6.853416e+02
2.800135e+03,6.824919e+02
2.801100e+03,6.793468e+02
2.802064e+03,6.761700e+02
2.803028e+03,6.729355e+02
2.803992e+03,6.705904e+02
2.804957e+03,6.795110e+02
2.805921e+03,6.910298e+02
2.806885e+03,6.862303e+02
2.807849e+03,6.787478e+02
2.808814e+03,6.754217e+02
2.809778e+03,6.767748e+02
2.810742e+03,6.851348e+02
2.811706e+03,6.911622e+02
2.812671e+03,6.918702e+02
2.813635e+03,6.781459e+02
2.814599e+03,6.631744e+02
2.815563e+03,6.797100e+02
2.816528e+03,6.949680e+02
2.817492e+03,6.929119e+02
2.818456e+03,6.914935e+02
2.819420e+03,6.920047e+02
2.820385e+03,6.811898e+02
2.821349e+03,6.650616e+02
2.822313e+03,6.696750e+02
2.823277e+03,6.791978e+02
2.824241e+03,6.806268e+02
2.825206e+03,6.756859e+02
2.826170e+03,6.632327e+02
2.827134e+03,6.628466e+02
2.828098e+03,6.738977e+02
2.829063e+03,6.753752e+02
2.830027e+03,6.711264e+02
2.830991e+03,6.694057e+02
2.831955e+03,6.722175e+02
2.832919e+03,6.864384e+02
2.833884e+03,6.872905e+02
2.834848e+03,6.732842e+02
2.835812e+03,6.778671e+02
2.836776e+03,6.990098e+02
2.837741e+03,6.851876e+02
2.838705e+03,6.613314e+02
2.839669e+03,6.541426e+02
2.840633e+03,6.546216e+02
2.841598e+03,6.580543e+02
2.842562e+03,6.612870e+02
2.843526e+03,6.643334e+02
2.844490e+03,6.706858e+02
2.845455e+03,6.748040e+02
2.846419e+03,6.652885e+02
2.847383e+03,6.563250e+02
2.848347e+03,6.669703e+02
2.849312e+03,6.758251e+02
2.850276e+03,6.788277e+02
2.851240e+03,6.757717e+02
2.852204e+03,6.687995e+02
2.853168e+03,6.685812e+02
2.854133e+03,6.702082e+02
2.855097e+03,6.665211e+02
2.856061e+03,6.650910e+02
2.857025e+03,6.672252e+02
2.857990e+03,6.673569e+02
2.858954e+03,6.640565e+02
2.859918e+03,6.630248e+02
2.860882e+03,6.661701e+02
2.861846e+03,6.778951e+02
2.862811e+03,6.855381e+02
2.863775e+03,6.744764e+02
2.864739e+03,6.658180e+02
2.865703e+03,6.649005e+02
2.866668e+03,6.646635e+02
2.867632e+03,6.654206e+02
2.868596e+03,6.718513e+02
2.869560e+03,6.773304e+02
2.870525e+03,6.736960e+02
2.871489e+03,6.677237e+02
2.872453e+03,6.609039e+02
2.873417e+03,6.594328e+02
2.874382e+03,6.626008e+02
2.875346e+03,6.718620e+02
2.876310e+03,6.795317e+02
2.877274e+03,6.665951e+02
2.878239e+03,6.630423e+02
2.879203e+03,6.791330e+02
2.880167e+03,6.853665e+02
2.881131e+03,6.731872e+02
2.882095e+03,6.682531e+02
2.883060e+03,6.698884e+02
2.884024e+03,6.767107e+02
2.884988e+03,6.809960e+02
2.885952e+03,6.739672e+02
2.886917e+03,6.706955e+02
2.887881e+03,6.756111e+02
2.888845e+03,6.764627e+02
2.889809e+03,6.731124e+02
2.890773e+03,6.631313e+02
2.891738e+03,6.539316e+02
2.892702e+03,6.558640e+02
2.893666e+03,6.617405e+02
2.894630e+03,6.698839e+02
2.895595e+03,6.761807e+02
2.896559e+03,6.799910e+02
2.897523e+03,6.815312e+02
2.898487e+03,6.789742e+02
2.899452e+03,6.643214e+02
2.900416e+03,6.584382e+02
2.901380e+03,6.644841e+02
2.902344e+03,6.647244e+02
2.903309e+03,6.573002e+02
2.904273e+03,6.554496e+02
2.905237e+03,6.572647e+02
2.906201e+03,6.625123e+02
2.907166e+03,6.586113e+02
2.908130e+03,6.399579e+02
2.909094e+03,6.369456e+02
2.910058e+03,6.535323e+02
2.911022e+03,6.671371e+02
2.911987e+03,6.702363e+02
2.912951e+03,6.532173e+02
2.913915e+03,6.376622e+02
2.914879e+03,6.390176e+02
2.915844e+03,6.444598e+02
2.916808e+03,6.518644e+02
2.917772e+03,6.547037e+02
2.918736e+03,6.534833e+02
2.919700e+03,6.464646e+02
2.920665e+03,6.424266e+02
2.921629e+03,6.548339e+02
2.922593e+03,6.492802e+02
2.923557e+03,6.300920e+02
2.924522e+03,6.243880e+02
2.925486e+03,6.269464e+02
2.926450e+03,6.251354e+02
2.927414e+03,6.219702e+02
2.928379e+03,6.171383e+02
2.929343e+03,6.216884e+02
2.930307e+03,6.330509e+02
2.931271e+03,6.351221e+02
2.932236e+03,6.333834e+02
2.933200e+03,6.358160e+02
2.934164e+03,6.441839e+02
2.935128e+03,6.594208e+02
2.936093e+03,6.578779e+02
2.937057e+03,6.422201e+02
2.938021e+03,6.376774e+02
2.938985e+03,6.402931e+02
2.939949e+03,6.458269e+02
2.940914e+03,6.393856e+02
2.941878e+03,6.175041e+02
2.942842e+03,6.152732e+02
2.943806e+03,6.348569e+02
2.944771e+03,6.318275e+02
2.945735e+03,6.218160e+02
2.946699e+03,6.260776e+02
2.947663e+03,6.368486e+02
2.948627e+03,6.494725e+02
2.949592e+03,6.532831e+02
2.950556e+03,6.473165e+02
2.951520e+03,6.304988e+02
2.952484e+03,6.228516e+02
2.953449e+03,6.474658e+02
2.954413e+03,6.607943e+02
2.955377e+03,6.451480e+02
2.956341e+03,6.349407e+02
2.957306e+03,6.338329e+02
2.958270e+03,6.356414e+02
2.959234e+03,6.329262e+02
2.960198e+03,6.209330e+02
2.961163e+03,6.141289e+02
2.962127e+03,6.184564e+02
2.963091e+03,6.170574e+02
2.964055e+03,6.103503e+02
2.965020e+03,6.056946e+02
2.965984e+03,6.076913e+02
2.966948e+03,6.193539e+02
2.967912e+03,6.249128e+02
2.968876e+03,6.162509e+02
2.969841e+03,6.058616e+02
2.970805e+03,5.982340e+02
2.971769e+03,6.023807e+02
2.972733e+03,6.081604e+02
2.973698e+03,6.077170e+02
2.974662e+03,6.108265e+02
2.975626e+03,6.201733e+02
2.976590e+03,6.254181e+02
2.977554e+03,6.229557e+02
2.978519e+03,6.072360e+02
2.979483e+03,5.925781e+02
2.980447e+03,5.895938e+02
2.981411e+03,5.854955e+02
2.982376e+03,5.818755e+02
2.983340e+03,5.976984e+02
2.984304e+03,6.132048e+02
2.985268e+03,6.082921e+02
2.986233e+03,6.031906e+02
2.987197e+03,6.102653e+02
2.988161e+03,6.093473e+02
2.989125e+03,6.051760e+02
2.990090e+03,6.202366e+02
2.991054e+03,6.265331e+02
2.992018e+03,6.001930e+02
2.992982e+03,5.780099e+02
2.993947e+03,5.743260e+02
2.994911e+03,5.869576e+02
2.995875e+03,6.064404e+02
2.996839e+03,6.179483e+02
2.997803e+03,6.158533e+02
2.998768e+03,5.966638e+02
2.999732e+03,5.832776e+02
3.000696e+03,5.813783e+02
3.001660e+03,5.845916e+02
3.002625e+03,5.922868e+02
3.003589e+03,6.066136e+02
3.004553e+03,6.030728e+02
3.005517e+03,5.690692e+02
3.006481e+03,5.648837e+02
3.007446e+03,5.854606e+02
3.008410e+03,5.913906e+02
3.009374e+03,5.935203e+02
3.010338e+03,6.007460e+02
3.011303e+03,5.969987e+02
3.012267e+03,5.760478e+02
3.013231e+03,5.668096e+02
3.014195e+03,5.682859e+02
3.015160e+03,5.774922e+02
3.016124e+03,5.909063e+02
3.017088e+03,6.062988e+02
3.018052e+03,6.080335e+02
3.019017e+03,5.966347e+02
3.019981e+03,6.040802e+02
3.020945e+03,6.071082e+02
3.021909e+03,5.818167e+02
3.022874e+03,5.717930e+02
3.023838e+03,5.827253e+02
3.024802e+03,5.856498e+02
3.025766e+03,5.832207e+02
3.026730e+03,5.924674e+02
3.027695e+03,5.929952e+02
3.028659e+03,5.762210e+02
3.029623e+03,5.696444e+02
3.030587e+03,5.736385e+02
3.031552e+03,5.723840e+02
3.032516e+03,5.689417e+02
3.033480e+03,5.657098e+02
3.034444e+03,5.725897e+02
3.035408e+03,5.890045e+02
3.036373e+03,5.921430e+02
3.037337e+03,5.849978e+02
3.038301e+03,5.768789e+02
3.039265e+03,5.713202e+02
3.040230e+03,5.709536e+02
3.041194e+03,5.715270e+02
3.042158e+03,5.713372e+02
3.043122e+03,5.647502e+02
3.044087e+03,5.598975e+02
3.045051e+03,5.688143e+02
3.046015e+03,5.793497e+02
3.046979e+03,5.888700e+02
3.047944e+03,5.809320e+02
3.048908e+03,5.704745e+02
3.049872e+03,5.811661e+02
3.050836e+03,5.900047e+02
3.051801e+03,5.799340e+02
3.052765e+03,5.757379e+02
3.053729e+03,5.783429e+02
3.054693e+03,5.777725e+02
3.055657e+03,5.804944e+02
3.056622e+03,5.906612e+02
3.057586e+03,5.930363e+02
3.058550e+03,5.837027e+02
3.059514e+03,5.617557e+02
3.060479e+03,5.423236e+02
3.061443e+03,5.506375e+02
3.062407e+03,5.628978e+02
3.063371e+03,5.709728e+02
3.064335e+03,5.680095e+02
3.065300e+03,5.598013e+02
3.066264e+03,5.728956e+02
3.067228e+03,5.848030e+02
3.068192e+03,5.810417e+02
3.069157e+03,5.641940e+02
3.070121e+03,5.438945e+02
3.071085e+03,5.582169e+02
3.072049e+03,5.808040e+02
3.073014e+03,5.686219e+02
3.073978e+03,5.656384e+02
3.074942e+03,5.802514e+02
3.075906e+03,5.872477e+02
3.076871e+03,5.843210e+02
3.077835e+03,5.681441e+02
3.078799e+03,5.560313e+02
3.079763e+03,5.607218e+02
3.080728e+03,5.588633e+02
3.081692e+03,5.506638e+02
3.082656e+03,5.355228e+02
3.083620e+03,5.377006e+02
3.084584e+03,5.690338e+02
3.085549e+03,5.808073e+02
3.086513e+03,5.643636e+02
3.087477e+03,5.596570e+02
3.088441e+03,5.640157e+02
3.089406e+03,5.796317e+02
3.090370e+03,5.868207e+02
3.091334e+03,5.841690e+02
3.092298e+03,5.827048e+02
3.093262e+03,5.813636e+02
3.094227e+03,5.750431e+02
3.095191e+03,5.649992e+02
3.096155e+03,5.510090e+02
3.097119e+03,5.493868e+02
3.098084e+03,5.565060e+02
3.099048e+03,5.627871e+02
3.100012e+03,5.699916e+02
3.100976e+03,5.816082e+02
3.101941e+03,5.844410e+02
3.102905e+03,5.771892e+02
3.103869e+03,5.603631e+02
3.104833e+03,5.529064e+02
3.105798e+03,5.657221e+02
3.106762e+03,5.755097e+02
3.107726e+03,5.773575e+02
3.108690e+03,5.810336e+02
3.109655e+03,5.770820e+02
3.110619e+03,5.381053e+02
3.111583e+03,5.381729e+02
3.112547e+03,5.774691e+02
3.113511e+03,5.790700e+02
3.114476e+03,5.600715e+02
3.115440e+03,5.623724e+02
3.116404e+03,5.707551e+02
3.117368e+03,5.837051e+02
3.118333e+03,5.890099e+02
3.119297e+03,5.887112e+02
3.120261e+03,5.873378e+02
3.121225e+03,5.843401e+02
3.122189e+03,5.787645e+02
3.123154e+03,5.816896e+02
3.124118e+03,5.892093e+02
3.125082e+03,5.886240e+02
3.126046e+03,5.769344e+02
3.127011e+03,5.531243e+02
3.127975e+03,5.435582e+02
3.128939e+03,5.489897e+02
3.129903e+03,5.793519e+02
3.130868e+03,5.987231e+02
3.131832e+03,5.537715e+02
3.132796e+03,5.475870e+02
3.133760e+03,5.755694e+02
3.134725e+03,5.653868e+02
3.135689e+03,5.539287e+02
3.136653e+03,5.800869e+02
3.137617e+03,5.896175e+02
3.138582e+03,5.669847e+02
3.139546e+03,5.741730e+02
3.140510e+03,5.911085e+02
3.141474e+03,5.993627e+02
3.142438e+03,5.965014e+02
3.143403e+03,5.850280e+02
3.144367e+03,5.656277e+02
3.145331e+03,5.489765e+02
3.146295e+03,5.579299e+02
3.147260e+03,5.654230e+02
3.148224e+03,5.642095e+02
3.149188e+03,5.766794e+02
3.150152e+03,5.816844e+02
3.151116e+03,5.484492e+02
3.152081e+03,5.330540e+02
3.153045e+03,5.588641e+02
3.154009e+03,5.702494e+02
3.154973e+03,5.663400e+02
3.155938e+03,5.414733e+02
3.156902e+03,5.360965e+02
3.157866e+03,5.570822e+02
3.158830e+03,5.722569e+02
3.159795e+03,5.792795e+02
3.160759e+03,5.739160e+02
3.161723e+03,5.676815e+02
3.162687e+03,5.652833e+02
3.163652e+03,5.742985e+02
3.164616e+03,5.908925e+02
3.165580e+03,6.102673e+02
3.166544e+03,6.065984e+02
3.167509e+03,5.742634e+02
3.168473e+03,5.648300e+02
3.169437e+03,5.735380e+02
3.170401e+03,5.674555e+02
3.171365e+03,5.636449e+02
3.172330e+03,5.701186e+02
3.173294e+03,5.755830e+02
3.174258e+03,5.779666e+02
3.175222e+03,5.754967e+02
3.176187e+03,5.699876e+02
3.177151e+03,5.631525e+02
3.178115e+03,5.575304e+02
3.179079e+03,5.548646e+02
3.180043e+03,5.576394e+02
3.181008e+03,5.657092e+02
3.181972e+03,5.783987e+02
3.182936e+03,5.725322e+02
3.183900e+03,5.560864e+02
3.184865e+03,5.571264e+02
3.185829e+03,5.624739e+02
3.186793e+03,5.725607e+02
3.187757e+03,5.626642e+02
3.188722e+03,5.460065e+02
3.189686e+03,5.538615e+02
3.190650e+03,5.612628e+02
3.191614e+03,5.578019e+02
3.192579e+03,5.519495e+02
3.193543e+03,5.504313e+02
3.194507e+03,5.776481e+02
3.195471e+03,6.030460e+02
3.196436e+03,6.132599e+02
3.197400e+03,5.957548e+02
3.198364e+03,5.737744e+02
3.199328e+03,5.842600e+02
3.200292e+03,6.017542e+02
3.201257e+03,0.000000e+00
3.202221e+03,0.000000e+00
3.203185e+03,0.000000e+00
3.204149e+03,0.000000e+00
3.205114e+03,0.000000e+00
3.206078e+03,0.000000e+00
3.207042e+03,0.000000e+00
3.208006e+03,0.000000e+00
3.208970e+03,0.000000e+00
3.209935e+03,0.000000e+00
3.210899e+03,0.000000e+00
3.211863e+03,0.000000e+00
3.212827e+03,0.000000e+00
3.213792e+03,0.000000e+00
3.214756e+03,0.000000e+00
3.215720e+03,0.000000e+00
3.216684e+03,0.000000e+00
3.217649e+03,0.000000e+00
3.218613e+03,0.000000e+00
3.219577e+03,0.000000e+00
3.220541e+03,0.000000e+00
3.221506e+03,0.000000e+00
3.222470e+03,0.000000e+00
3.223434e+03,0.000000e+00
3.224398e+03,0.000000e+00
3.225363e+03,0.000000e+00
3.226327e+03,0.000000e+00
3.227291e+03,0.000000e+00
3.228255e+03,0.000000e+00
3.229219e+03,0.000000e+00
3.230184e+03,0.000000e+00
3.231148e+03,0.000000e+00
3.232112e+03,0.000000e+00
3.233076e+03,0.000000e+00
3.234041e+03,0.000000e+00
3.235005e+03,0.000000e+00
3.235969e+03,0.000000e+00
3.236933e+03,0.000000e+00
3.237897e+03,0.000000e+00
3.238862e+03,0.000000e+00
3.239826e+03,0.000000e+00
3.240790e+03,0.000000e+00
3.241754e+03,0.000000e+00
3.242719e+03,0.000000e+00
3.243683e+03,0.000000e+00
3.244647e+03,0.000000e+00
3.245611e+03,0.000000e+00
3.246576e+03,0.000000e+00
3.247540e+03,0.000000e+00
3.248504e+03,0.000000e+00
3.249468e+03,0.000000e+00
3.250433e+03,0.000000e+00
3.251397e+03,0.000000e+00
3.252361e+03,0.000000e+00
3.253325e+03,0.000000e+00
3.254290e+03,0.000000e+00
3.255254e+03,0.000000e+00
3.256218e+03,0.000000e+00
3.257182e+03,0.000000e+00
3.258146e+03,0.000000e+00
3.259111e+03,0.000000e+00
3.260075e+03,0.000000e+00
3.261039e+03,0.000000e+00
3.262003e+03,0.000000e+00
3.262968e+03,0.000000e+00
3.263932e+03,0.000000e+00
3.264896e+03,0.000000e+00
3.265860e+03,0.000000e+00
3.266824e+03,0.000000e+00
3.267789e+03,0.000000e+00
3.268753e+03,0.000000e+00
3.269717e+03,0.000000e+00
3.270681e+03,0.000000e+00
3.271646e+03,0.000000e+00
3.272610e+03,0.000000e+00
3.273574e+03,0.000000e+00
3.274538e+03,0.000000e+00
3.275503e+03,0.000000e+00
3.276467e+03,0.000000e+00
3.277431e+03,0.000000e+00
3.278395e+03,0.000000e+00
3.279360e+03,0.000000e+00
3.280324e+03,0.000000e+00
3.281288e+03,0.000000e+00
3.282252e+03,0.000000e+00
3.283217e+03,0.000000e+00
3.284181e+03,0.000000e+00
3.285145e+03,0.000000e+00
3.286109e+03,0.000000e+00
3.287073e+03,0.000000e+00
3.288038e+03,0.000000e+00
3.289002e+03,0.000000e+00
3.289966e+03,0.000000e+00
3.290930e+03,0.000000e+00
3.291895e+03,0.000000e+00
3.292859e+03,0.000000e+00
3.293823e+03,0.000000e+00
3.294787e+03,0.000000e+00
3.295751e+03,0.000000e+00
3.296716e+03,0.000000e+00
3.297680e+03,0.000000e+00
3.298644e+03,0.000000e+00
3.299608e+03,0.000000e+00
3.300573e+03,0.000000e+00
3.301537e+03,0.000000e+00
3.302501e+03,0.000000e+00
3.303465e+03,0.000000e+00
3.304430e+03,0.000000e+00
3.305394e+03,0.000000e+00
3.306358e+03,0.000000e+00
3.307322e+03,0.000000e+00
3.308287e+03,0.000000e+00
3.309251e+03,0.000000e+00
3.310215e+03,0.000000e+00
3.311179e+03,0.000000e+00
3.312144e+03,0.000000e+00
3.313108e+03,0.000000e+00
3.314072e+03,0.000000e+00
3.315036e+03,0.000000e+00
3.316000e+03,0.000000e+00
3.316965e+03,0.000000e+00
3.317929e+03,0.000000e+00
3.318893e+03,0.000000e+00
3.319857e+03,0.000000e+00
3.320822e+03,0.000000e+00
3.321786e+03,0.000000e+00
3.322750e+03,0.000000e+00
3.323714e+03,0.000000e+00
3.324678e+03,0.000000e+00
3.325643e+03,0.000000e+00
3.326607e+03,0.000000e+00
3.327571e+03,0.000000e+00
3.328535e+03,0.000000e+00
3.329500e+03,0.000000e+00
3.330464e+03,0.000000e+00
3.331428e+03,0.000000e+00
3.332392e+03,0.000000e+00
3.333357e+03,0.000000e+00
3.334321e+03,0.000000e+00
3.335285e+03,0.000000e+00
3.336249e+03,0.000000e+00
3.337214e+03,0.000000e+00
3.338178e+03,0.000000e+00
3.339142e+03,0.000000e+00
3.340106e+03,0.000000e+00
3.341071e+03,0.000000e+00
3.342035e+03,0.000000e+00
3.342999e+03,0.000000e+00
3.343963e+03,0.000000e+00
3.344927e+03,0.000000e+00
3.345892e+03,0.000000e+00
3.346856e+03,0.000000e+00
3.347820e+03,0.000000e+00
3.348784e+03,0.000000e+00
3.349749e+03,0.000000e+00
3.350713e+03,0.000000e+00
3.351677e+03,0.000000e+00
3.352641e+03,0.000000e+00
3.353605e+03,0.000000e+00
3.354570e+03,0.000000e+00
3.355534e+03,0.000000e+00
3.356498e+03,0.000000e+00
3.357462e+03,0.000000e+00
3.358427e+03,0.000000e+00
3.359391e+03,0.000000e+00
3.360355e+03,0.000000e+00
3.361319e+03,0.000000e+00
3.362284e+03,0.000000e+00
3.363248e+03,0.000000e+00
3.364212e+03,0.000000e+00
3.365176e+03,0.000000e+00
3.366141e+03,0.000000e+00
3.367105e+03,0.000000e+00
3.368069e+03,0.000000e+00
3.369033e+03,0.000000e+00
3.369998e+03,0.000000e+00
3.370962e+03,0.000000e+00
3.371926e+03,0.000000e+00
3.372890e+03,0.000000e+00
3.373854e+03,0.000000e+00
3.374819e+03,0.000000e+00
3.375783e+03,0.000000e+00
3.376747e+03,0.000000e+00
3.377711e+03,0.000000e+00
3.378676e+03,0.000000e+00
3.379640e+03,0.000000e+00
3.380604e+03,0.000000e+00
3.381568e+03,0.000000e+00
3.382532e+03,0.000000e+00
3.383497e+03,0.000000e+00
3.384461e+03,0.000000e+00
3.385425e+03,0.000000e+00
3.386389e+03,0.000000e+00
3.387354e+03,0.000000e+00
3.388318e+03,0.000000e+00
3.389282e+03,0.000000e+00
3.390246e+03,0.000000e+00
3.391211e+03,0.000000e+00
3.392175e+03,0.000000e+00
3.393139e+03,0.000000e+00
3.394103e+03,0.000000e+00
3.395068e+03,0.000000e+00
3.396032e+03,0.000000e+00
3.396996e+03,0.000000e+00
3.397960e+03,0.000000e+00
3.398925e+03,0.000000e+00
3.399889e+03,0.000000e+00
3.400853e+03,0.000000e+00
3.401817e+03,0.000000e+00
3.402781e+03,0.000000e+00
3.403746e+03,0.000000e+00
3.404710e+03,0.000000e+00
3.405674e+03,0.000000e+00
3.406638e+03,0.000000e+00
3.407603e+03,0.000000e+00
3.408567e+03,0.000000e+00
3.409531e+03,0.000000e+00
3.410495e+03,0.000000e+00
3.411459e+03,0.000000e+00
3.412424e+03,0.000000e+00
3.413388e+03,0.000000e+00
3.414352e+03,0.000000e+00
3.415316e+03,0.000000e+00
3.416281e+03,0.000000e+00
3.417245e+03,0.000000e+00
3.418209e+03,0.000000e+00
3.419173e+03,0.000000e+00
3.420138e+03,0.000000e+00
3.421102e+03,0.000000e+00
3.422066e+03,0.000000e+00
3.423030e+03,0.000000e+00
3.423995e+03,0.000000e+00
3.424959e+03,0.000000e+00
3.425923e+03,0.000000e+00
3.426887e+03,0.000000e+00
3.427852e+03,0.000000e+00
3.428816e+03,0.000000e+00
3.429780e+03,0.000000e+00
3.430744e+03,0.000000e+00
3.431708e+03,0.000000e+00
3.432673e+03,0.000000e+00
3.433637e+03,0.000000e+00
3.434601e+03,0.000000e+00
3.435565e+03,0.000000e+00
3.436530e+03,0.000000e+00
3.437494e+03,0.000000e+00
3.438458e+03,0.000000e+00
3.439422e+03,0.000000e+00
3.440386e+03,0.000000e+00
3.441351e+03,0.000000e+00
3.442315e+03,0.000000e+00
3.443279e+03,0.000000e+00
3.444243e+03,0.000000e+00
3.445208e+03,0.000000e+00
3.446172e+03,0.000000e+00
3.447136e+03,0.000000e+00
3.448100e+03,0.000000e+00
3.449065e+03,0.000000e+00
3.450029e+03,0.000000e+00
3.450993e+03,0.000000e+00
3.451957e+03,0.000000e+00
3.452922e+03,0.000000e+00
3.453886e+03,0.000000e+00
3.454850e+03,0.000000e+00
3.455814e+03,0.000000e+00
3.456779e+03,0.000000e+00
3.457743e+03,0.000000e+00
3.458707e+03,0.000000e+00
3.459671e+03,0.000000e+00
3.460635e+03,0.000000e+00
3.461600e+03,0.000000e+00
3.462564e+03,0.000000e+00
3.463528e+03,0.000000e+00
3.464492e+03,0.000000e+00
3.465457e+03,0.000000e+00
3.466421e+03,0.000000e+00
3.467385e+03,0.000000e+00
3.468349e+03,0.000000e+00
3.469313e+03,0.000000e+00
3.470278e+03,0.000000e+00
3.471242e+03,0.000000e+00
3.472206e+03,0.000000e+00
3.473170e+03,0.000000e+00
3.474135e+03,0.000000e+00
3.475099e+03,0.000000e+00
3.476063e+03,0.000000e+00
3.477027e+03,0.000000e+00
3.477992e+03,0.000000e+00
3.478956e+03,0.000000e+00
3.479920e+03,0.000000e+00
3.480884e+03,0.000000e+00
3.481849e+03,0.000000e+00
3.482813e+03,0.000000e+00
3.483777e+03,0.000000e+00
3.484741e+03,0.000000e+00
3.485706e+03,0.000000e+00
3.486670e+03,0.000000e+00
3.487634e+03,0.000000e+00
3.488598e+03,0.000000e+00
3.489563e+03,0.000000e+00
3.490527e+03,0.000000e+00
3.491491e+03,0.000000e+00
3.492455e+03,0.000000e+00
3.493419e+03,0.000000e+00
3.494384e+03,0.000000e+00
3.495348e+03,0.000000e+00
3.496312e+03,0.000000e+00
3.497276e+03,0.000000e+00
3.498240e+03,0.000000e+00
3.499205e+03,0.000000e+00
3.500169e+03,0.000000e+00
