9.931763e+01,0.000000e+00
1.002819e+02,0.000000e+00
1.012461e+02,0.000000e+00
1.022103e+02,0.000000e+00
1.031746e+02,0.000000e+00
1.041388e+02,0.000000e+00
1.051030e+02,0.000000e+00
1.060673e+02,0.000000e+00
1.070315e+02,0.000000e+00
1.079957e+02,0.000000e+00
1.089600e+02,0.000000e+00
1.099242e+02,0.000000e+00
1.108884e+02,0.000000e+00
1.118527e+02,0.000000e+00
1.128169e+02,0.000000e+00
1.137811e+02,0.000000e+00
1.147454e+02,0.000000e+00
1.157096e+02,0.000000e+00
1.166738e+02,0.000000e+00
1.176381e+02,0.000000e+00
1.186023e+02,0.000000e+00
1.195665e+02,0.000000e+00
1.205308e+02,0.000000e+00
1.214950e+02,0.000000e+00
1.224592e+02,0.000000e+00
1.234235e+02,0.000000e+00
1.243877e+02,0.000000e+00
1.253519e+02,0.000000e+00
1.263162e+02,0.000000e+00
1.272804e+02,0.000000e+00
1.282446e+02,0.000000e+00
1.292089e+02,0.000000e+00
1.301731e+02,0.000000e+00
1.311373e+02,0.000000e+00
1.321016e+02,0.000000e+00
1.330658e+02,0.000000e+00
1.340300e+02,0.000000e+00
1.349943e+02,0.000000e+00
1.359585e+02,0.000000e+00
1.369227e+02,0.000000e+00
1.378870e+02,0.000000e+00
1.388512e+02,0.000000e+00
1.398154e+02,0.000000e+00
1.407797e+02,0.000000e+00
1.417439e+02,0.000000e+00
1.427081e+02,0.000000e+00
1.436724e+02,0.000000e+00
1.446366e+02,0.000000e+00
1.456008e+02,0.000000e+00
1.465651e+02,0.000000e+00
1.475293e+02,0.000000e+00
1.484935e+02,0.000000e+00
1.494578e+02,0.000000e+00
1.504220e+02,0.000000e+00
1.513862e+02,0.000000e+00
1.523505e+02,0.000000e+00
1.533147e+02,0.000000e+00
1.542789e+02,0.000000e+00
1.552432e+02,0.000000e+00
1.562074e+02,0.000000e+00
1.571716e+02,0.000000e+00
1.581359e+02,0.000000e+00
1.591001e+02,0.000000e+00
1.600643e+02,0.000000e+00
1.610286e+02,0.000000e+00
1.619928e+02,0.000000e+00
1.629570e+02,0.000000e+00
1.639213e+02,0.000000e+00
1.648855e+02,0.000000e+00
1.658497e+02,0.000000e+00
1.668140e+02,0.000000e+00
1.677782e+02,0.000000e+00
1.687424e+02,0.000000e+00
1.697067e+02,0.000000e+00
1.706709e+02,0.000000e+00
1.716351e+02,0.000000e+00
1.725994e+02,0.000000e+00
1.735636e+02,0.000000e+00
1.745278e+02,0.000000e+00
1.754921e+02,0.000000e+00
1.764563e+02,0.000000e+00
1.774205e+02,0.000000e+00
1.783848e+02,0.000000e+00
1.793490e+02,0.000000e+00
1.803132e+02,0.000000e+00
1.812775e+02,0.000000e+00
1.822417e+02,0.000000e+00
1.832059e+02,0.000000e+00
1.841702e+02,0.000000e+00
1.851344e+02,0.000000e+00
1.860986e+02,0.000000e+00
1.870629e+02,0.000000e+00
1.880271e+02,0.000000e+00
1.889913e+02,0.000000e+00
1.899556e+02,0.000000e+00
1.909198e+02,0.000000e+00
1.918840e+02,0.000000e+00
1.928483e+02,0.000000e+00
1.938125e+02,0.000000e+00
1.947767e+02,0.000000e+00
1.957410e+02,0.000000e+00
1.967052e+02,0.000000e+00
1.976694e+02,0.000000e+00
1.986337e+02,0.000000e+00
1.995979e+02,1.022983e+04
2.005621e+02,1.023821e+04
2.015264e+02,1.024934e+04
2.024906e+02,1.026610e+04
2.034548e+02,1.028298e+04
2.044191e+02,1.029787e+04
2.053833e+02,1.030848e+04
2.063475e+02,1.031347e+04
2.073118e+02,1.031108e+04
2.082760e+02,1.029841e+04
2.092402e+02,1.028744e+04
2.102045e+02,1.028306e+04
2.111687e+02,1.028530e+04
2.121329e+02,1.029362e+04
2.130972e+02,1.030667e+04
2.140614e+02,1.032068e+04
2.150256e+02,1.033038e+04
2.159899e+02,1.033411e+04
2.169541e+02,1.033822e+04
2.179183e+02,1.034679e+04
2.188826e+02,1.035824e+04
2.198468e+02,1.037049e+04
2.208110e+02,1.038337e+04
2.217753e+02,1.039542e+04
2.227395e+02,1.039947e+04
2.237037e+02,1.039482e+04
2.246680e+02,1.038788e+04
2.256322e+02,1.038211e+04
2.265964e+02,1.038093e+04
2.275607e+02,1.038496e+04
2.285249e+02,1.039518e+04
2.294892e+02,1.041276e+04
2.304534e+02,1.043215e+04
2.314176e+02,1.044360e+04
2.323819e+02,1.044710e+04
2.333461e+02,1.045071e+04
2.343103e+02,1.045862e+04
2.352746e+02,1.047058e+04
2.362388e+02,1.048427e+04
2.372030e+02,1.049779e+04
2.381673e+02,1.050604e+04
2.391315e+02,1.050669e+04
2.400957e+02,1.050339e+04
2.410600e+02,1.049897e+04
2.420242e+02,1.049499e+04
2.429884e+02,1.049438e+04
2.439527e+02,1.050037e+04
2.449169e+02,1.051289e+04
2.458811e+02,1.053109e+04
2.468454e+02,1.054304e+04
2.478096e+02,1.054342e+04
2.487738e+02,1.054177e+04
2.497381e+02,1.054383e+04
2.507023e+02,1.055096e+04
2.516665e+02,1.056237e+04
2.526308e+02,1.057612e+04
2.535950e+02,1.059403e+04
2.545592e+02,1.060246e+04
2.555235e+02,1.059819e+04
2.564877e+02,1.058814e+04
2.574519e+02,1.058140e+04
2.584161e+02,1.058485e+04
2.593804e+02,1.059902e+04
2.603446e+02,1.061282e+04
2.613088e+02,1.061820e+04
2.622731e+02,1.062416e+04
2.632373e+02,1.063242e+04
2.642015e+02,1.064098e+04
2.651658e+02,1.064890e+04
2.661300e+02,1.065995e+04
2.670942e+02,1.067897e+04
2.680585e+02,1.069415e+04
2.690227e+02,1.070108e+04
2.699869e+02,1.070375e+04
2.709512e+02,1.070334e+04
2.719154e+02,1.070225e+04
2.728796e+02,1.070296e+04
2.738439e+02,1.070798e+04
2.748081e+02,1.071984e+04
2.757723e+02,1.073969e+04
2.767366e+02,1.076483e+04
2.777008e+02,1.078874e+04
2.786650e+02,1.080276e+04
2.796293e+02,1.080251e+04
2.805935e+02,1.079554e+04
2.815577e+02,1.079224e+04
2.825220e+02,1.079427e+04
2.834862e+02,1.079664e+04
2.844504e+02,1.079211e+04
2.854147e+02,1.077870e+04
2.863789e+02,1.076758e+04
2.873431e+02,1.076493e+04
2.883074e+02,1.077067e+04
2.892716e+02,1.078109e+04
2.902358e+02,1.079267e+04
2.912001e+02,1.080401e+04
2.921643e+02,1.081110e+04
2.931285e+02,1.081375e+04
2.940928e+02,1.081747e+04
2.950570e+02,1.082378e+04
2.960212e+02,1.083058e+04
2.969855e+02,1.083481e+04
2.979497e+02,1.083504e+04
2.989139e+02,1.083234e+04
2.998782e+02,1.082921e+04
3.008424e+02,1.082819e+04
3.018066e+02,1.083203e+04
3.027709e+02,1.084014e+04
3.037351e+02,1.085149e+04
3.046993e+02,1.086226e+04
3.056636e+02,1.086750e+04
3.066278e+02,1.086725e+04
3.075920e+02,1.086665e+04
3.085563e+02,1.086631e+04
3.095205e+02,1.086914e+04
3.104847e+02,1.087727e+04
3.114490e+02,1.088960e+04
3.124132e+02,1.090362e+04
3.133774e+02,1.091880e+04
3.143417e+02,1.093661e+04
3.153059e+02,1.094852e+04
3.162701e+02,1.094505e+04
3.172344e+02,1.092278e+04
3.181986e+02,1.090673e+04
3.191628e+02,1.090906e+04
3.201271e+02,1.092352e+04
3.210913e+02,1.093716e+04
3.220555e+02,1.094303e+04
3.230198e+02,1.094199e+04
3.239840e+02,1.094513e+04
3.249482e+02,1.095438e+04
3.259125e+02,1.096414e+04
3.268767e+02,1.097384e+04
3.278409e+02,1.098338e+04
3.288052e+02,1.099222e+04
3.297694e+02,1.099933e+04
3.307336e+02,1.100403e+04
3.316979e+02,1.100925e+04
3.326621e+02,1.101797e+04
3.336263e+02,1.102274e+04
3.345906e+02,1.101998e+04
3.355548e+02,1.101189e+04
3.365190e+02,1.100542e+04
3.374833e+02,1.100583e+04
3.384475e+02,1.101258e+04
3.394117e+02,1.102260e+04
3.403760e+02,1.103303e+04
3.413402e+02,1.104295e+04
3.423044e+02,1.105207e+04
3.432687e+02,1.105763e+04
3.442329e+02,1.106297e+04
3.451971e+02,1.106865e+04
3.461614e+02,1.107187e+04
3.471256e+02,1.107267e+04
3.480898e+02,1.107607e+04
3.490541e+02,1.108810e+04
3.500183e+02,1.109454e+04
3.509825e+02,1.109291e+04
3.519468e+02,1.109242e+04
3.529110e+02,1.109783e+04
3.538752e+02,1.110825e+04
3.548395e+02,1.112072e+04
3.558037e+02,1.113394e+04
3.567680e+02,1.115126e+04
3.577322e+02,1.116426e+04
3.586964e+02,1.117636e+04
3.596607e+02,1.118770e+04
3.606249e+02,1.119466e+04
3.615891e+02,1.118920e+04
3.625534e+02,1.117297e+04
3.635176e+02,1.115888e+04
3.644818e+02,1.115287e+04
3.654461e+02,1.114710e+04
3.664103e+02,1.113946e+04
3.673745e+02,1.113553e+04
3.683388e+02,1.113924e+04
3.693030e+02,1.115068e+04
3.702672e+02,1.116305e+04
3.712315e+02,1.116843e+04
3.721957e+02,1.116390e+04
3.731599e+02,1.115215e+04
3.741242e+02,1.114096e+04
3.750884e+02,1.113368e+04
3.760526e+02,1.113502e+04
3.770169e+02,1.115083e+04
3.779811e+02,1.117129e+04
3.789453e+02,1.118352e+04
3.799096e+02,1.117977e+04
3.808738e+02,1.116377e+04
3.818380e+02,1.115302e+04
3.828023e+02,1.115755e+04
3.837665e+02,1.116453e+04
3.847307e+02,1.116767e+04
3.856950e+02,1.116831e+04
3.866592e+02,1.116953e+04
3.876234e+02,1.117393e+04
3.885877e+02,1.117937e+04
3.895519e+02,1.117922e+04
3.905161e+02,1.116947e+04
3.914804e+02,1.115688e+04
3.924446e+02,1.115187e+04
3.934088e+02,1.115993e+04
3.943731e+02,1.116384e+04
3.953373e+02,1.115270e+04
3.963015e+02,1.113526e+04
3.972658e+02,1.112533e+04
3.982300e+02,1.112977e+04
3.991942e+02,1.114622e+04
4.001585e+02,1.115889e+04
4.011227e+02,1.115371e+04
4.020869e+02,1.115247e+04
4.030512e+02,1.115613e+04
4.040154e+02,1.116116e+04
4.049796e+02,1.116577e+04
4.059439e+02,1.116821e+04
4.069081e+02,1.116906e+04
4.078723e+02,1.117240e+04
4.088366e+02,1.117857e+04
4.098008e+02,1.117798e+04
4.107650e+02,1.116764e+04
4.117293e+02,1.114972e+04
4.126935e+02,1.113546e+04
4.136577e+02,1.112854e+04
4.146220e+02,1.112720e+04
4.155862e+02,1.113099e+04
4.165504e+02,1.114076e+04
4.175147e+02,1.115225e+04
4.184789e+02,1.115801e+04
4.194431e+02,1.115106e+04
4.204074e+02,1.114548e+04
4.213716e+02,1.114232e+04
4.223358e+02,1.113997e+04
4.233001e+02,1.113660e+04
4.242643e+02,1.113191e+04
4.252285e+02,1.112800e+04
4.261928e+02,1.112958e+04
4.271570e+02,1.114169e+04
4.281212e+02,1.115059e+04
4.290855e+02,1.114288e+04
4.300497e+02,1.112494e+04
4.310139e+02,1.111317e+04
4.319782e+02,1.111907e+04
4.329424e+02,1.113333e+04
4.339066e+02,1.114404e+04
4.348709e+02,1.114887e+04
4.358351e+02,1.115036e+04
4.367993e+02,1.115143e+04
4.377636e+02,1.115314e+04
4.387278e+02,1.115352e+04
4.396920e+02,1.115201e+04
4.406563e+02,1.115239e+04
4.416205e+02,1.115829e+04
4.425847e+02,1.116972e+04
4.435490e+02,1.117920e+04
4.445132e+02,1.117491e+04
4.454774e+02,1.115438e+04
4.464417e+02,1.114046e+04
4.474059e+02,1.113847e+04
4.483701e+02,1.114267e+04
4.493344e+02,1.114836e+04
4.502986e+02,1.116251e+04
4.512628e+02,1.117522e+04
4.522271e+02,1.117677e+04
4.531913e+02,1.116930e+04
4.541555e+02,1.116319e+04
4.551198e+02,1.116574e+04
4.560840e+02,1.117757e+04
4.570482e+02,1.117248e+04
4.580125e+02,1.113127e+04
4.589767e+02,1.110140e+04
4.599409e+02,1.110232e+04
4.609052e+02,1.112602e+04
4.618694e+02,1.114840e+04
4.628336e+02,1.115011e+04
4.637979e+02,1.113399e+04
4.647621e+02,1.112056e+04
4.657263e+02,1.111354e+04
4.666906e+02,1.111457e+04
4.676548e+02,1.112255e+04
4.686190e+02,1.113937e+04
4.695833e+02,1.114896e+04
4.705475e+02,1.113807e+04
4.715117e+02,1.111729e+04
4.724760e+02,1.110345e+04
4.734402e+02,1.110314e+04
4.744044e+02,1.111169e+04
4.753687e+02,1.111730e+04
4.763329e+02,1.111886e+04
4.772971e+02,1.111953e+04
4.782614e+02,1.111863e+04
4.792256e+02,1.111840e+04
4.801898e+02,1.112056e+04
4.811541e+02,1.112411e+04
4.821183e+02,1.112894e+04
4.830826e+02,1.113699e+04
4.840468e+02,1.114772e+04
4.850110e+02,1.115422e+04
4.859753e+02,1.115386e+04
4.869395e+02,1.114542e+04
4.879037e+02,1.113374e+04
4.888680e+02,1.111434e+04
4.898322e+02,1.109784e+04
4.907964e+02,1.109193e+04
4.917607e+02,1.109641e+04
4.927249e+02,1.110469e+04
4.936891e+02,1.110950e+04
4.946534e+02,1.111004e+04
4.956176e+02,1.111511e+04
4.965818e+02,1.113109e+04
4.975461e+02,1.114699e+04
4.985103e+02,1.115240e+04
4.994745e+02,1.114330e+04
5.004388e+02,1.112901e+04
5.014030e+02,1.111184e+04
5.023672e+02,1.109615e+04
5.033315e+02,1.108900e+04
5.042957e+02,1.109271e+04
5.052599e+02,1.109971e+04
5.062242e+02,1.109611e+04
5.071884e+02,1.107387e+04
5.081526e+02,1.105778e+04
5.091169e+02,1.105364e+04
5.100811e+02,1.105864e+04
5.110453e+02,1.106779e+04
5.120095e+02,1.108283e+04
5.129738e+02,1.110003e+04
5.139380e+02,1.111714e+04
5.149022e+02,1.113437e+04
5.158665e+02,1.114153e+04
5.168307e+02,1.112510e+04
5.177949e+02,1.108071e+04
5.187592e+02,1.105058e+04
5.197234e+02,1.106256e+04
5.206876e+02,1.107734e+04
5.216519e+02,1.107698e+04
5.226161e+02,1.106550e+04
5.235803e+02,1.105617e+04
5.245446e+02,1.106168e+04
5.255088e+02,1.107921e+04
5.264730e+02,1.108846e+04
5.274373e+02,1.108509e+04
5.284015e+02,1.107992e+04
5.293657e+02,1.108194e+04
5.303300e+02,1.109310e+04
5.312942e+02,1.109759e+04
5.322584e+02,1.109366e+04
5.332227e+02,1.108890e+04
5.341869e+02,1.108775e+04
5.351511e+02,1.108908e+04
5.361154e+02,1.108901e+04
5.370796e+02,1.108204e+04
5.380438e+02,1.106539e+04
5.390081e+02,1.106029e+04
5.399723e+02,1.108293e+04
5.409365e+02,1.111257e+04
5.419008e+02,1.112575e+04
5.428650e+02,1.110881e+04
5.438292e+02,1.108942e+04
5.447935e+02,1.108536e+04
5.457577e+02,1.109008e+04
5.467219e+02,1.108913e+04
5.476862e+02,1.107607e+04
5.486504e+02,1.105589e+04
5.496146e+02,1.104524e+04
5.505789e+02,1.105329e+04
5.515431e+02,1.105545e+04
5.525073e+02,1.104539e+04
5.534716e+02,1.103417e+04
5.544358e+02,1.103219e+04
5.554000e+02,1.104546e+04
5.563643e+02,1.106115e+04
5.573285e+02,1.106657e+04
5.582927e+02,1.106142e+04
5.592570e+02,1.105182e+04
5.602212e+02,1.104168e+04
5.611854e+02,1.103019e+04
5.621497e+02,1.102608e+04
5.631139e+02,1.104046e+04
5.640781e+02,1.104634e+04
5.650424e+02,1.103628e+04
5.660066e+02,1.101419e+04
5.669708e+02,1.099182e+04
5.679351e+02,1.097703e+04
5.688993e+02,1.096808e+04
5.698635e+02,1.096112e+04
5.708278e+02,1.095694e+04
5.717920e+02,1.095662e+04
5.727562e+02,1.095851e+04
5.737205e+02,1.095977e+04
5.746847e+02,1.096356e+04
5.756489e+02,1.096618e+04
5.766132e+02,1.097104e+04
5.775774e+02,1.098598e+04
5.785416e+02,1.101113e+04
5.795059e+02,1.102924e+04
5.804701e+02,1.102175e+04
5.814343e+02,1.099581e+04
5.823986e+02,1.097414e+04
5.833628e+02,1.096146e+04
5.843270e+02,1.095487e+04
5.852913e+02,1.094931e+04
5.862555e+02,1.094191e+04
5.872197e+02,1.094046e+04
5.881840e+02,1.094752e+04
5.891482e+02,1.095661e+04
5.901124e+02,1.096255e+04
5.910767e+02,1.096346e+04
5.920409e+02,1.096396e+04
5.930051e+02,1.096996e+04
5.939694e+02,1.097898e+04
5.949336e+02,1.098117e+04
5.958978e+02,1.097283e+04
5.968621e+02,1.095767e+04
5.978263e+02,1.094504e+04
5.987905e+02,1.093974e+04
5.997548e+02,1.093482e+04
6.007190e+02,1.092838e+04
6.016832e+02,1.092471e+04
6.026475e+02,1.092685e+04
6.036117e+02,1.093462e+04
6.045759e+02,1.094467e+04
6.055402e+02,1.095409e+04
6.065044e+02,1.096128e+04
6.074686e+02,1.096591e+04
6.084329e+02,1.097103e+04
6.093971e+02,1.097607e+04
6.103613e+02,1.097288e+04
6.113256e+02,1.095207e+04
6.122899e+02,1.093398e+04
6.132541e+02,1.092461e+04
6.142183e+02,1.091960e+04
6.151826e+02,1.091215e+04
6.161468e+02,1.090053e+04
6.171110e+02,1.088881e+04
6.180753e+02,1.087800e+04
6.190395e+02,1.086745e+04
6.200037e+02,1.086043e+04
6.209680e+02,1.085908e+04
6.219322e+02,1.086457e+04
6.228964e+02,1.087043e+04
6.238607e+02,1.087547e+04
6.248249e+02,1.088025e+04
6.257891e+02,1.088320e+04
6.267534e+02,1.088134e+04
6.277176e+02,1.087375e+04
6.286818e+02,1.085899e+04
6.296461e+02,1.084488e+04
6.306103e+02,1.084074e+04
6.315745e+02,1.084634e+04
6.325388e+02,1.085263e+04
6.335030e+02,1.084963e+04
6.344672e+02,1.083510e+04
6.354315e+02,1.082858e+04
6.363957e+02,1.083611e+04
6.373599e+02,1.083938e+04
6.383242e+02,1.083010e+04
6.392884e+02,1.081108e+04
6.402526e+02,1.079550e+04
6.412169e+02,1.078890e+04
6.421811e+02,1.078582e+04
6.431453e+02,1.078055e+04
6.441096e+02,1.077308e+04
6.450738e+02,1.076781e+04
6.460380e+02,1.077391e+04
6.470023e+02,1.079421e+04
6.479665e+02,1.080287e+04
6.489307e+02,1.078951e+04
6.498950e+02,1.077284e+04
6.508592e+02,1.076627e+04
6.518234e+02,1.076865e+04
6.527877e+02,1.077228e+04
6.537519e+02,1.078386e+04
6.547161e+02,1.079260e+04
6.556804e+02,1.078914e+04
6.566446e+02,1.077390e+04
6.576088e+02,1.075507e+04
6.585731e+02,1.073558e+04
6.595373e+02,1.071712e+04
6.605015e+02,1.071255e+04
6.614658e+02,1.072703e+04
6.624300e+02,1.074518e+04
6.633942e+02,1.075139e+04
6.643585e+02,1.073747e+04
6.653227e+02,1.073081e+04
6.662869e+02,1.073318e+04
6.672512e+02,1.073804e+04
6.682154e+02,1.074296e+04
6.691796e+02,1.074605e+04
6.701439e+02,1.074547e+04
6.711081e+02,1.073931e+04
6.720723e+02,1.072925e+04
6.730366e+02,1.072059e+04
6.740008e+02,1.071560e+04
6.749650e+02,1.070926e+04
6.759293e+02,1.069339e+04
6.768935e+02,1.066177e+04
6.778577e+02,1.064381e+04
6.788220e+02,1.065228e+04
6.797862e+02,1.067126e+04
6.807504e+02,1.068797e+04
6.817147e+02,1.069954e+04
6.826789e+02,1.070363e+04
6.836431e+02,1.069147e+04
6.846074e+02,1.067094e+04
6.855716e+02,1.065319e+04
6.865358e+02,1.064230e+04
6.875001e+02,1.063550e+04
6.884643e+02,1.062944e+04
6.894285e+02,1.062455e+04
6.903928e+02,1.062018e+04
6.913570e+02,1.061607e+04
6.923212e+02,1.060961e+04
6.932855e+02,1.059840e+04
6.942497e+02,1.057910e+04
6.952139e+02,1.057168e+04
6.961782e+02,1.057949e+04
6.971424e+02,1.059461e+04
6.981066e+02,1.061216e+04
6.990709e+02,1.062715e+04
7.000351e+02,1.063239e+04
7.009993e+02,1.062535e+04
7.019636e+02,1.061246e+04
7.029278e+02,1.060045e+04
7.038920e+02,1.058951e+04
7.048563e+02,1.057858e+04
7.058205e+02,1.056974e+04
7.067847e+02,1.056849e+04
7.077490e+02,1.056537e+04
7.087132e+02,1.056380e+04
7.096774e+02,1.056659e+04
7.106417e+02,1.056702e+04
7.116059e+02,1.056229e+04
7.125701e+02,1.055687e+04
7.135344e+02,1.055778e+04
7.144986e+02,1.055897e+04
7.154628e+02,1.054885e+04
7.164271e+02,1.052568e+04
7.173913e+02,1.050475e+04
7.183555e+02,1.050511e+04
7.193198e+02,1.052182e+04
7.202840e+02,1.053199e+04
7.212482e+02,1.053379e+04
7.222125e+02,1.053317e+04
7.231767e+02,1.053547e+04
7.241409e+02,1.054249e+04
7.251052e+02,1.053865e+04
7.260694e+02,1.051290e+04
7.270336e+02,1.048401e+04
7.279979e+02,1.046414e+04
7.289621e+02,1.045414e+04
7.299263e+02,1.044688e+04
7.308906e+02,1.043578e+04
7.318548e+02,1.042579e+04
7.328190e+02,1.042699e+04
7.337833e+02,1.043916e+04
7.347475e+02,1.044942e+04
7.357117e+02,1.044409e+04
7.366760e+02,1.042691e+04
7.376402e+02,1.041975e+04
7.386044e+02,1.042693e+04
7.395687e+02,1.043624e+04
7.405329e+02,1.043478e+04
7.414971e+02,1.041788e+04
7.424614e+02,1.040705e+04
7.434256e+02,1.041667e+04
7.443898e+02,1.042980e+04
7.453541e+02,1.043093e+04
7.463183e+02,1.041615e+04
7.472825e+02,1.040279e+04
7.482468e+02,1.040735e+04
7.492110e+02,1.041398e+04
7.501752e+02,1.040705e+04
7.511395e+02,1.039144e+04
7.521037e+02,1.037998e+04
7.530679e+02,1.037996e+04
7.540322e+02,1.038746e+04
7.549964e+02,1.039362e+04
7.559606e+02,1.040101e+04
7.569249e+02,1.040682e+04
7.578891e+02,1.040958e+04
7.588533e+02,1.041043e+04
7.598176e+02,1.041001e+04
7.607818e+02,1.039468e+04
7.617460e+02,1.037482e+04
7.627103e+02,1.035707e+04
7.636745e+02,1.034545e+04
7.646387e+02,1.033896e+04
7.656030e+02,1.033690e+04
7.665672e+02,1.033916e+04
7.675314e+02,1.034457e+04
7.684957e+02,1.034535e+04
7.694599e+02,1.033362e+04
7.704241e+02,1.030597e+04
7.713884e+02,1.027460e+04
7.723526e+02,1.026856e+04
7.733168e+02,1.029306e+04
7.742811e+02,1.031842e+04
7.752453e+02,1.032416e+04
7.762095e+02,1.031135e+04
7.771738e+02,1.030647e+04
7.781380e+02,1.031682e+04
7.791022e+02,1.031779e+04
7.800665e+02,1.030359e+04
7.810307e+02,1.028210e+04
7.819949e+02,1.026497e+04
7.829592e+02,1.026151e+04
7.839234e+02,1.026310e+04
7.848876e+02,1.026373e+04
7.858519e+02,1.026346e+04
7.868161e+02,1.026463e+04
7.877803e+02,1.026896e+04
7.887446e+02,1.027233e+04
7.897088e+02,1.027073e+04
7.906730e+02,1.026830e+04
7.916373e+02,1.026987e+04
7.926015e+02,1.027251e+04
7.935657e+02,1.026847e+04
7.945300e+02,1.025390e+04
7.954942e+02,1.022806e+04
7.964584e+02,1.020499e+04
7.974227e+02,1.019635e+04
7.983869e+02,1.020135e+04
7.993511e+02,1.020720e+04
8.003154e+02,1.020848e+04
8.012796e+02,1.020156e+04
8.022438e+02,1.017924e+04
8.032081e+02,1.016068e+04
8.041723e+02,1.016632e+04
8.051365e+02,1.020012e+04
8.061008e+02,1.023055e+04
8.070650e+02,1.022883e+04
8.080292e+02,1.020615e+04
8.089935e+02,1.018493e+04
8.099577e+02,1.017158e+04
8.109219e+02,1.016302e+04
8.118862e+02,1.015329e+04
8.128504e+02,1.014257e+04
8.138146e+02,1.013961e+04
8.147789e+02,1.014578e+04
8.157431e+02,1.015096e+04
8.167073e+02,1.014980e+04
8.176716e+02,1.014724e+04
8.186358e+02,1.014171e+04
8.196000e+02,1.012578e+04
8.205643e+02,1.011233e+04
8.215285e+02,1.010047e+04
8.224927e+02,1.009043e+04
8.234570e+02,1.008735e+04
8.244212e+02,1.010075e+04
8.253854e+02,1.011506e+04
8.263497e+02,1.011981e+04
8.273139e+02,1.011296e+04
8.282781e+02,1.009818e+04
8.292424e+02,1.007462e+04
8.302066e+02,1.005496e+04
8.311708e+02,1.005862e+04
8.321351e+02,1.008118e+04
8.330993e+02,1.010032e+04
8.340635e+02,1.010259e+04
8.350278e+02,1.009133e+04
8.359920e+02,1.007760e+04
8.369562e+02,1.006014e+04
8.379205e+02,1.004939e+04
8.388847e+02,1.005129e+04
8.398489e+02,1.006089e+04
8.408132e+02,1.006386e+04
8.417774e+02,1.005513e+04
8.427416e+02,1.004340e+04
8.437059e+02,1.002345e+04
8.446701e+02,1.000442e+04
8.456343e+02,9.997979e+03
8.465986e+02,1.001327e+04
8.475628e+02,1.002334e+04
8.485270e+02,1.001165e+04
8.494913e+02,9.993973e+03
8.504555e+02,9.991304e+03
8.514197e+02,1.001021e+04
8.523840e+02,1.002738e+04
8.533482e+02,1.001401e+04
8.543124e+02,9.984718e+03
8.552767e+02,9.970077e+03
8.562409e+02,9.973364e+03
8.572051e+02,9.979885e+03
8.581694e+02,9.977116e+03
8.591336e+02,9.967174e+03
8.600978e+02,9.958101e+03
8.610621e+02,9.951606e+03
8.620263e+02,9.948145e+03
8.629905e+02,9.945339e+03
8.639548e+02,9.939560e+03
8.649190e+02,9.933686e+03
8.658832e+02,9.937655e+03
8.668475e+02,9.937856e+03
8.678117e+02,9.919772e+03
8.687759e+02,9.888116e+03
8.697402e+02,9.875738e+03
8.707044e+02,9.900828e+03
8.716686e+02,9.917441e+03
8.726329e+02,9.912056e+03
8.735971e+02,9.894245e+03
8.745613e+02,9.878308e+03
8.755256e+02,9.873729e+03
8.764898e+02,9.873873e+03
8.774540e+02,9.870750e+03
8.784183e+02,9.866099e+03
8.793825e+02,9.864794e+03
8.803467e+02,9.868933e+03
8.813110e+02,9.874432e+03
8.822752e+02,9.879303e+03
8.832394e+02,9.884751e+03
8.842037e+02,9.887271e+03
8.851679e+02,9.883253e+03
8.861321e+02,9.874279e+03
8.870964e+02,9.863907e+03
8.880606e+02,9.851328e+03
8.890248e+02,9.839271e+03
8.899891e+02,9.832198e+03
8.909533e+02,9.828471e+03
8.919175e+02,9.824592e+03
8.928818e+02,9.820650e+03
8.938460e+02,9.814656e+03
8.948102e+02,9.796376e+03
8.957745e+02,9.782142e+03
8.967387e+02,9.788349e+03
8.977029e+02,9.811497e+03
8.986672e+02,9.818392e+03
8.996314e+02,9.799646e+03
9.005956e+02,9.781927e+03
9.015599e+02,9.776493e+03
9.025241e+02,9.777926e+03
9.034883e+02,9.774408e+03
9.044526e+02,9.753139e+03
9.054168e+02,9.728903e+03
9.063810e+02,9.718710e+03
9.073453e+02,9.721721e+03
9.083095e+02,9.727594e+03
9.092737e+02,9.729030e+03
9.102380e+02,9.726173e+03
9.112022e+02,9.716880e+03
9.121664e+02,9.704188e+03
9.131307e+02,9.700466e+03
9.140949e+02,9.713203e+03
9.150591e+02,9.732344e+03
9.160234e+02,9.736283e+03
9.169876e+02,9.721627e+03
9.179518e+02,9.702350e+03
9.189161e+02,9.680097e+03
9.198803e+02,9.658037e+03
9.208445e+02,9.642816e+03
9.218088e+02,9.638331e+03
9.227730e+02,9.635854e+03
9.237372e+02,9.633609e+03
9.247015e+02,9.630265e+03
9.256657e+02,9.624530e+03
9.266299e+02,9.615460e+03
9.275942e+02,9.611271e+03
9.285584e+02,9.613577e+03
9.295226e+02,9.614564e+03
9.304869e+02,9.612121e+03
9.314511e+02,9.608766e+03
9.324153e+02,9.607875e+03
9.333796e+02,9.613037e+03
9.343438e+02,9.616162e+03
9.353080e+02,9.611979e+03
9.362723e+02,9.600619e+03
9.372365e+02,9.586505e+03
9.382007e+02,9.575290e+03
9.391650e+02,9.567875e+03
9.401292e+02,9.565576e+03
9.410934e+02,9.565283e+03
9.420577e+02,9.560056e+03
9.430219e+02,9.546868e+03
9.439861e+02,9.534584e+03
9.449504e+02,9.534422e+03
9.459146e+02,9.545088e+03
9.468788e+02,9.562668e+03
9.478431e+02,9.579574e+03
9.488073e+02,9.582441e+03
9.497715e+02,9.555527e+03
9.507358e+02,9.514824e+03
9.517000e+02,9.497623e+03
9.526642e+02,9.505365e+03
9.536285e+02,9.512073e+03
9.545927e+02,9.496469e+03
9.555569e+02,9.467390e+03
9.565212e+02,9.456656e+03
9.574854e+02,9.467964e+03
9.584496e+02,9.481783e+03
9.594139e+02,9.486325e+03
9.603781e+02,9.483040e+03
9.613423e+02,9.483324e+03
9.623066e+02,9.489562e+03
9.632708e+02,9.490731e+03
9.642350e+02,9.486808e+03
9.651993e+02,9.479598e+03
9.661635e+02,9.466859e+03
9.671277e+02,9.438705e+03
9.680920e+02,9.421307e+03
9.690562e+02,9.422582e+03
9.700204e+02,9.424965e+03
9.709847e+02,9.417660e+03
9.719489e+02,9.400946e+03
9.729131e+02,9.388650e+03
9.738774e+02,9.387806e+03
9.748416e+02,9.388938e+03
9.758058e+02,9.379399e+03
9.767701e+02,9.360761e+03
9.777343e+02,9.356338e+03
9.786985e+02,9.384860e+03
9.796628e+02,9.408787e+03
9.806270e+02,9.420327e+03
9.815912e+02,9.418644e+03
9.825555e+02,9.403076e+03
9.835197e+02,9.364201e+03
9.844839e+02,9.333009e+03
9.854482e+02,9.330729e+03
9.864124e+02,9.340364e+03
9.873766e+02,9.338678e+03
9.883409e+02,9.319137e+03
9.893051e+02,9.302448e+03
9.902693e+02,9.303197e+03
9.912336e+02,9.313045e+03
9.921978e+02,9.321255e+03
9.931620e+02,9.323625e+03
9.941263e+02,9.321140e+03
9.950905e+02,9.312655e+03
9.960547e+02,9.303054e+03
9.970190e+02,9.300236e+03
9.979832e+02,9.301021e+03
9.989474e+02,9.296075e+03
9.999117e+02,9.281505e+03
1.000876e+03,9.264115e+03
1.001840e+03,9.251413e+03
1.002804e+03,9.245221e+03
1.003769e+03,9.244686e+03
1.004733e+03,9.247219e+03
1.005697e+03,9.250751e+03
1.006661e+03,9.254249e+03
1.007626e+03,9.258434e+03
1.008590e+03,9.264157e+03
1.009554e+03,9.269630e+03
1.010518e+03,9.270779e+03
1.011482e+03,9.266667e+03
1.012447e+03,9.256831e+03
1.013411e+03,9.237325e+03
1.014375e+03,9.211822e+03
1.015339e+03,9.188231e+03
1.016304e+03,9.166824e+03
1.017268e+03,9.148651e+03
1.018232e+03,9.149065e+03
1.019196e+03,9.169774e+03
1.020161e+03,9.185691e+03
1.021125e+03,9.188231e+03
1.022089e+03,9.183766e+03
1.023053e+03,9.180942e+03
1.024018e+03,9.175787e+03
1.024982e+03,9.175824e+03
1.025946e+03,9.183892e+03
1.026910e+03,9.188451e+03
1.027875e+03,9.178245e+03
1.028839e+03,9.152206e+03
1.029803e+03,9.134371e+03
1.030767e+03,9.126611e+03
1.031731e+03,9.125418e+03
1.032696e+03,9.127919e+03
1.033660e+03,9.133515e+03
1.034624e+03,9.134535e+03
1.035588e+03,9.130822e+03
1.036552e+03,9.129440e+03
1.037517e+03,9.131714e+03
1.038481e+03,9.134001e+03
1.039445e+03,9.132308e+03
1.040409e+03,9.124861e+03
1.041374e+03,9.117167e+03
1.042338e+03,9.112499e+03
1.043302e+03,9.110632e+03
1.044266e+03,9.109209e+03
1.045231e+03,9.110134e+03
1.046195e+03,9.105483e+03
1.047159e+03,9.094556e+03
1.048123e+03,9.082375e+03
1.049088e+03,9.071689e+03
1.050052e+03,9.065323e+03
1.051016e+03,9.061699e+03
1.051980e+03,9.056811e+03
1.052945e+03,9.056642e+03
1.053909e+03,9.063207e+03
1.054873e+03,9.069983e+03
1.055837e+03,9.068565e+03
1.056802e+03,9.059943e+03
1.057766e+03,9.047865e+03
1.058730e+03,9.029392e+03
1.059694e+03,9.011594e+03
1.060658e+03,9.002323e+03
1.061623e+03,9.013538e+03
1.062587e+03,9.016619e+03
1.063551e+03,8.999705e+03
1.064515e+03,8.981316e+03
1.065479e+03,8.973068e+03
1.066444e+03,8.978174e+03
1.067408e+03,8.983830e+03
1.068372e+03,8.984917e+03
1.069336e+03,8.989210e+03
1.070301e+03,9.000881e+03
1.071265e+03,9.013559e+03
1.072229e+03,9.015063e+03
1.073193e+03,8.992108e+03
1.074158e+03,8.970863e+03
1.075122e+03,8.962198e+03
1.076086e+03,8.957516e+03
1.077050e+03,8.947236e+03
1.078015e+03,8.929686e+03
1.078979e+03,8.921729e+03
1.079943e+03,8.930665e+03
1.080907e+03,8.944343e+03
1.081872e+03,8.952297e+03
1.082836e+03,8.951198e+03
1.083800e+03,8.947187e+03
1.084764e+03,8.944512e+03
1.085729e+03,8.940960e+03
1.086693e+03,8.933016e+03
1.087657e+03,8.921487e+03
1.088621e+03,8.910876e+03
1.089585e+03,8.896827e+03
1.090550e+03,8.885979e+03
1.091514e+03,8.891537e+03
1.092478e+03,8.902169e+03
1.093442e+03,8.902744e+03
1.094406e+03,8.887506e+03
1.095371e+03,8.876494e+03
1.096335e+03,8.871667e+03
1.097299e+03,8.870455e+03
1.098263e+03,8.872905e+03
1.099228e+03,8.877626e+03
1.100192e+03,8.879750e+03
1.101156e+03,8.876837e+03
1.102120e+03,8.871230e+03
1.103085e+03,8.864980e+03
1.104049e+03,8.857556e+03
1.105013e+03,8.847646e+03
1.105977e+03,8.834902e+03
1.106942e+03,8.821469e+03
1.107906e+03,8.805065e+03
1.108870e+03,8.790719e+03
1.109834e+03,8.783579e+03
1.110799e+03,8.786482e+03
1.111763e+03,8.787169e+03
1.112727e+03,8.782927e+03
1.113691e+03,8.780204e+03
1.114656e+03,8.780171e+03
1.115620e+03,8.782870e+03
1.116584e+03,8.788729e+03
1.117548e+03,8.800769e+03
1.118512e+03,8.805037e+03
1.119477e+03,8.793729e+03
1.120441e+03,8.775318e+03
1.121405e+03,8.763874e+03
1.122369e+03,8.766643e+03
1.123334e+03,8.766363e+03
1.124298e+03,8.765849e+03
1.125262e+03,8.762850e+03
1.126226e+03,8.755557e+03
1.127191e+03,8.744128e+03
1.128155e+03,8.732919e+03
1.129119e+03,8.713331e+03
1.130083e+03,8.701637e+03
1.131047e+03,8.706131e+03
1.132012e+03,8.720253e+03
1.132976e+03,8.729368e+03
1.133940e+03,8.733910e+03
1.134904e+03,8.731008e+03
1.135869e+03,8.718896e+03
1.136833e+03,8.705977e+03
1.137797e+03,8.702852e+03
1.138761e+03,8.718417e+03
1.139726e+03,8.719649e+03
1.140690e+03,8.699036e+03
1.141654e+03,8.675529e+03
1.142618e+03,8.657869e+03
1.143583e+03,8.646796e+03
1.144547e+03,8.646154e+03
1.145511e+03,8.660597e+03
1.146475e+03,8.665044e+03
1.147439e+03,8.647949e+03
1.148404e+03,8.624377e+03
1.149368e+03,8.620514e+03
1.150332e+03,8.637915e+03
1.151296e+03,8.648455e+03
1.152261e+03,8.645556e+03
1.153225e+03,8.629928e+03
1.154189e+03,8.604334e+03
1.155153e+03,8.574543e+03
1.156118e+03,8.563046e+03
1.157082e+03,8.573084e+03
1.158046e+03,8.585459e+03
1.159010e+03,8.588597e+03
1.159974e+03,8.585271e+03
1.160939e+03,8.579436e+03
1.161903e+03,8.570271e+03
1.162867e+03,8.565771e+03
1.163831e+03,8.567400e+03
1.164796e+03,8.567223e+03
1.165760e+03,8.555980e+03
1.166724e+03,8.540122e+03
1.167688e+03,8.537864e+03
1.168653e+03,8.547074e+03
1.169617e+03,8.546762e+03
1.170581e+03,8.516870e+03
1.171545e+03,8.481728e+03
1.172510e+03,8.479195e+03
1.173474e+03,8.499144e+03
1.174438e+03,8.517190e+03
1.175402e+03,8.524865e+03
1.176366e+03,8.526240e+03
1.177331e+03,8.524428e+03
1.178295e+03,8.520532e+03
1.179259e+03,8.511941e+03
1.180223e+03,8.498364e+03
1.181188e+03,8.487566e+03
1.182152e+03,8.489705e+03
1.183116e+03,8.491630e+03
1.184080e+03,8.486446e+03
1.185045e+03,8.477318e+03
1.186009e+03,8.467417e+03
1.186973e+03,8.459715e+03
1.187937e+03,8.453217e+03
1.188901e+03,8.442948e+03
1.189866e+03,8.434673e+03
1.190830e+03,8.433253e+03
1.191794e+03,8.437589e+03
1.192758e+03,8.438269e+03
1.193723e+03,8.433194e+03
1.194687e+03,8.431242e+03
1.195651e+03,8.435818e+03
1.196615e+03,8.443937e+03
1.197580e+03,8.448407e+03
1.198544e+03,8.441593e+03
1.199508e+03,8.430673e+03
1.200472e+03,8.420989e+03
1.201437e+03,8.410766e+03
1.202401e+03,8.398694e+03
1.203365e+03,8.386075e+03
1.204329e+03,8.378915e+03
1.205293e+03,8.376670e+03
1.206258e+03,8.378455e+03
1.207222e+03,8.384074e+03
1.208186e+03,8.390788e+03
1.209150e+03,8.391421e+03
1.210115e+03,8.382491e+03
1.211079e+03,8.378793e+03
1.212043e+03,8.385419e+03
1.213007e+03,8.390772e+03
1.213972e+03,8.381630e+03
1.214936e+03,8.363076e+03
1.215900e+03,8.352561e+03
1.216864e+03,8.350483e+03
1.217828e+03,8.351833e+03
1.218793e+03,8.355471e+03
1.219757e+03,8.358762e+03
1.220721e+03,8.353685e+03
1.221685e+03,8.345212e+03
1.222650e+03,8.344358e+03
1.223614e+03,8.351679e+03
1.224578e+03,8.356379e+03
1.225542e+03,8.349574e+03
1.226507e+03,8.340454e+03
1.227471e+03,8.342105e+03
1.228435e+03,8.348880e+03
1.229399e+03,8.342612e+03
1.230364e+03,8.306429e+03
1.231328e+03,8.268235e+03
1.232292e+03,8.241657e+03
1.233256e+03,8.228644e+03
1.234220e+03,8.228996e+03
1.235185e+03,8.250335e+03
1.236149e+03,8.266614e+03
1.237113e+03,8.268202e+03
1.238077e+03,8.269259e+03
1.239042e+03,8.273373e+03
1.240006e+03,8.276558e+03
1.240970e+03,8.274833e+03
1.241934e+03,8.266201e+03
1.242899e+03,8.255361e+03
1.243863e+03,8.244529e+03
1.244827e+03,8.234794e+03
1.245791e+03,8.226721e+03
1.246755e+03,8.220770e+03
1.247720e+03,8.214248e+03
1.248684e+03,8.208354e+03
1.249648e+03,8.200357e+03
1.250612e+03,8.184203e+03
1.251577e+03,8.165060e+03
1.252541e+03,8.169258e+03
1.253505e+03,8.192247e+03
1.254469e+03,8.203810e+03
1.255434e+03,8.195775e+03
1.256398e+03,8.184381e+03
1.257362e+03,8.188193e+03
1.258326e+03,8.197330e+03
1.259291e+03,8.197583e+03
1.260255e+03,8.187014e+03
1.261219e+03,8.168526e+03
1.262183e+03,8.140276e+03
1.263147e+03,8.117788e+03
1.264112e+03,8.115570e+03
1.265076e+03,8.123930e+03
1.266040e+03,8.127155e+03
1.267004e+03,8.120383e+03
1.267969e+03,8.114322e+03
1.268933e+03,8.115834e+03
1.269897e+03,8.122877e+03
1.270861e+03,8.129617e+03
1.271826e+03,8.129807e+03
1.272790e+03,8.125298e+03
1.273754e+03,8.117800e+03
1.274718e+03,8.108343e+03
1.275682e+03,8.100534e+03
1.276647e+03,8.094107e+03
1.277611e+03,8.085705e+03
1.278575e+03,8.073658e+03
1.279539e+03,8.063877e+03
1.280504e+03,8.060830e+03
1.281468e+03,8.061288e+03
1.282432e+03,8.061531e+03
1.283396e+03,8.061389e+03
1.284361e+03,8.058337e+03
1.285325e+03,8.052428e+03
1.286289e+03,8.052818e+03
1.287253e+03,8.061653e+03
1.288218e+03,8.068903e+03
1.289182e+03,8.063860e+03
1.290146e+03,8.055333e+03
1.291110e+03,8.056981e+03
1.292074e+03,8.066904e+03
1.293039e+03,8.072240e+03
1.294003e+03,8.066703e+03
1.294967e+03,8.052654e+03
1.295931e+03,8.021636e+03
1.296896e+03,7.992811e+03
1.297860e+03,7.987708e+03
1.298824e+03,8.014835e+03
1.299788e+03,8.032123e+03
1.300753e+03,8.033248e+03
1.301717e+03,8.028357e+03
1.302681e+03,8.018857e+03
1.303645e+03,8.007720e+03
1.304609e+03,8.005031e+03
1.305574e+03,8.009626e+03
1.306538e+03,8.008131e+03
1.307502e+03,8.002140e+03
1.308466e+03,7.995010e+03
1.309431e+03,7.986503e+03
1.310395e+03,7.977567e+03
1.311359e+03,7.969866e+03
1.312323e+03,7.960448e+03
1.313288e+03,7.950222e+03
1.314252e+03,7.943360e+03
1.315216e+03,7.941256e+03
1.316180e+03,7.942814e+03
1.317145e+03,7.947748e+03
1.318109e+03,7.954455e+03
1.319073e+03,7.959540e+03
1.320037e+03,7.960351e+03
1.321001e+03,7.956472e+03
1.321966e+03,7.948547e+03
1.322930e+03,7.939377e+03
1.323894e+03,7.930500e+03
1.324858e+03,7.919220e+03
1.325823e+03,7.897493e+03
1.326787e+03,7.892869e+03
1.327751e+03,7.911171e+03
1.328715e+03,7.927313e+03
1.329680e+03,7.925200e+03
1.330644e+03,7.909687e+03
1.331608e+03,7.899359e+03
1.332572e+03,7.893346e+03
1.333536e+03,7.890804e+03
1.334501e+03,7.890573e+03
1.335465e+03,7.889222e+03
1.336429e+03,7.886612e+03
1.337393e+03,7.884159e+03
1.338358e+03,7.882736e+03
1.339322e+03,7.881823e+03
1.340286e+03,7.879107e+03
1.341250e+03,7.875920e+03
1.342215e+03,7.867297e+03
1.343179e+03,7.850454e+03
1.344143e+03,7.835212e+03
1.345107e+03,7.827322e+03
1.346072e+03,7.825833e+03
1.347036e+03,7.826019e+03
1.348000e+03,7.830207e+03
1.348964e+03,7.825914e+03
1.349928e+03,7.806938e+03
1.350893e+03,7.784281e+03
1.351857e+03,7.779662e+03
1.352821e+03,7.790667e+03
1.353785e+03,7.800386e+03
1.354750e+03,7.805721e+03
1.355714e+03,7.803599e+03
1.356678e+03,7.793038e+03
1.357642e+03,7.779571e+03
1.358607e+03,7.761151e+03
1.359571e+03,7.742345e+03
1.360535e+03,7.736906e+03
1.361499e+03,7.755782e+03
1.362464e+03,7.773803e+03
1.363428e+03,7.782198e+03
1.364392e+03,7.786062e+03
1.365356e+03,7.782412e+03
1.366320e+03,7.769084e+03
1.367285e+03,7.759154e+03
1.368249e+03,7.759174e+03
1.369213e+03,7.755682e+03
1.370177e+03,7.746305e+03
1.371142e+03,7.732709e+03
1.372106e+03,7.715170e+03
1.373070e+03,7.694866e+03
1.374034e+03,7.679954e+03
1.374999e+03,7.672412e+03
1.375963e+03,7.672605e+03
1.376927e+03,7.682298e+03
1.377891e+03,7.694358e+03
1.378855e+03,7.703536e+03
1.379820e+03,7.707298e+03
1.380784e+03,7.700725e+03
1.381748e+03,7.685565e+03
1.382712e+03,7.675280e+03
1.383677e+03,7.675182e+03
1.384641e+03,7.670795e+03
1.385605e+03,7.651684e+03
1.386569e+03,7.627978e+03
1.387534e+03,7.617830e+03
1.388498e+03,7.625619e+03
1.389462e+03,7.626875e+03
1.390426e+03,7.618083e+03
1.391391e+03,7.607076e+03
1.392355e+03,7.600939e+03
1.393319e+03,7.598705e+03
1.394283e+03,7.593312e+03
1.395247e+03,7.587012e+03
1.396212e+03,7.589796e+03
1.397176e+03,7.604644e+03
1.398140e+03,7.615147e+03
1.399104e+03,7.605840e+03
1.400069e+03,7.591341e+03
1.401033e+03,7.580229e+03
1.401997e+03,7.571882e+03
1.402961e+03,7.563322e+03
1.403926e+03,7.553555e+03
1.404890e+03,7.543890e+03
1.405854e+03,7.535193e+03
1.406818e+03,7.529334e+03
1.407782e+03,7.528069e+03
1.408747e+03,7.532630e+03
1.409711e+03,7.542256e+03
1.410675e+03,7.551312e+03
1.411639e+03,7.553143e+03
1.412604e+03,7.546750e+03
1.413568e+03,7.535897e+03
1.414532e+03,7.517790e+03
1.415496e+03,7.506112e+03
1.416461e+03,7.515947e+03
1.417425e+03,7.538736e+03
1.418389e+03,7.549179e+03
1.419353e+03,7.536724e+03
1.420318e+03,7.521063e+03
1.421282e+03,7.504205e+03
1.422246e+03,7.490110e+03
1.423210e+03,7.480911e+03
1.424174e+03,7.477222e+03
1.425139e+03,7.476193e+03
1.426103e+03,7.475713e+03
1.427067e+03,7.475704e+03
1.428031e+03,7.477001e+03
1.428996e+03,7.478342e+03
1.429960e+03,7.476932e+03
1.430924e+03,7.473104e+03
1.431888e+03,7.468752e+03
1.432853e+03,7.463504e+03
1.433817e+03,7.453403e+03
1.434781e+03,7.430966e+03
1.435745e+03,7.416866e+03
1.436709e+03,7.411757e+03
1.437674e+03,7.410755e+03
1.438638e+03,7.413838e+03
1.439602e+03,7.422403e+03
1.440566e+03,7.429218e+03
1.441531e+03,7.433260e+03
1.442495e+03,7.431606e+03
1.443459e+03,7.420872e+03
1.444423e+03,7.409013e+03
1.445388e+03,7.402075e+03
1.446352e+03,7.396901e+03
1.447316e+03,7.394401e+03
1.448280e+03,7.396213e+03
1.449245e+03,7.396124e+03
1.450209e+03,7.387783e+03
1.451173e+03,7.384933e+03
1.452137e+03,7.387903e+03
1.453101e+03,7.389170e+03
1.454066e+03,7.383350e+03
1.455030e+03,7.372068e+03
1.455994e+03,7.365903e+03
1.456958e+03,7.364083e+03
1.457923e+03,7.362246e+03
1.458887e+03,7.356390e+03
1.459851e+03,7.350534e+03
1.460815e+03,7.348853e+03
1.461780e+03,7.346333e+03
1.462744e+03,7.343271e+03
1.463708e+03,7.340581e+03
1.464672e+03,7.334900e+03
1.465636e+03,7.327018e+03
1.466601e+03,7.321328e+03
1.467565e+03,7.318531e+03
1.468529e+03,7.317029e+03
1.469493e+03,7.313347e+03
1.470458e+03,7.306407e+03
1.471422e+03,7.299055e+03
1.472386e+03,7.292912e+03
1.473350e+03,7.288784e+03
1.474315e+03,7.285422e+03
1.475279e+03,7.282856e+03
1.476243e+03,7.283298e+03
1.477207e+03,7.280272e+03
1.478172e+03,7.268388e+03
1.479136e+03,7.251804e+03
1.480100e+03,7.246295e+03
1.481064e+03,7.257031e+03
1.482028e+03,7.261861e+03
1.482993e+03,7.258955e+03
1.483957e+03,7.251753e+03
1.484921e+03,7.236844e+03
1.485885e+03,7.220608e+03
1.486850e+03,7.214337e+03
1.487814e+03,7.214326e+03
1.488778e+03,7.218788e+03
1.489742e+03,7.232065e+03
1.490707e+03,7.234906e+03
1.491671e+03,7.214949e+03
1.492635e+03,7.198280e+03
1.493599e+03,7.193284e+03
1.494563e+03,7.195493e+03
1.495528e+03,7.200330e+03
1.496492e+03,7.206264e+03
1.497456e+03,7.201098e+03
1.498420e+03,7.186061e+03
1.499385e+03,7.171462e+03
1.500349e+03,7.164374e+03
1.501313e+03,7.162078e+03
1.502277e+03,7.160223e+03
1.503242e+03,7.160144e+03
1.504206e+03,7.165563e+03
1.505170e+03,7.179597e+03
1.506134e+03,7.182413e+03
1.507099e+03,7.169978e+03
1.508063e+03,7.159576e+03
1.509027e+03,7.158169e+03
1.509991e+03,7.160886e+03
1.510955e+03,7.163920e+03
1.511920e+03,7.163554e+03
1.512884e+03,7.147575e+03
1.513848e+03,7.121193e+03
1.514812e+03,7.105418e+03
1.515777e+03,7.112484e+03
1.516741e+03,7.118716e+03
1.517705e+03,7.112203e+03
1.518669e+03,7.103760e+03
1.519634e+03,7.104939e+03
1.520598e+03,7.113824e+03
1.521562e+03,7.115967e+03
1.522526e+03,7.109827e+03
1.523490e+03,7.103425e+03
1.524455e+03,7.100807e+03
1.525419e+03,7.095725e+03
1.526383e+03,7.081159e+03
1.527347e+03,7.063628e+03
1.528312e+03,7.049429e+03
1.529276e+03,7.042236e+03
1.530240e+03,7.044158e+03
1.531204e+03,7.058665e+03
1.532169e+03,7.062464e+03
1.533133e+03,7.052000e+03
1.534097e+03,7.039479e+03
1.535061e+03,7.032495e+03
1.536026e+03,7.029149e+03
1.536990e+03,7.031874e+03
1.537954e+03,7.037166e+03
1.538918e+03,7.036019e+03
1.539882e+03,7.024455e+03
1.540847e+03,7.016954e+03
1.541811e+03,7.016381e+03
1.542775e+03,7.018276e+03
1.543739e+03,7.027060e+03
1.544704e+03,7.036545e+03
1.545668e+03,7.033465e+03
1.546632e+03,7.021127e+03
1.547596e+03,7.009722e+03
1.548561e+03,7.000186e+03
1.549525e+03,6.994296e+03
1.550489e+03,6.988357e+03
1.551453e+03,6.988124e+03
1.552417e+03,7.008250e+03
1.553382e+03,7.023931e+03
1.554346e+03,7.013458e+03
1.555310e+03,6.982436e+03
1.556274e+03,6.969220e+03
1.557239e+03,6.972857e+03
1.558203e+03,6.977467e+03
1.559167e+03,6.979597e+03
1.560131e+03,6.979583e+03
1.561096e+03,6.973742e+03
1.562060e+03,6.971331e+03
1.563024e+03,6.983211e+03
1.563988e+03,7.002986e+03
1.564953e+03,7.014504e+03
1.565917e+03,7.012890e+03
1.566881e+03,7.016935e+03
1.567845e+03,7.026097e+03
1.568809e+03,7.033967e+03
1.569774e+03,7.039069e+03
1.570738e+03,7.039719e+03
1.571702e+03,7.034880e+03
1.572666e+03,7.022696e+03
1.573631e+03,6.993807e+03
1.574595e+03,6.950686e+03
1.575559e+03,6.937309e+03
1.576523e+03,6.974259e+03
1.577488e+03,6.997896e+03
1.578452e+03,6.990837e+03
1.579416e+03,6.973589e+03
1.580380e+03,6.972578e+03
1.581344e+03,6.977575e+03
1.582309e+03,6.968678e+03
1.583273e+03,6.950586e+03
1.584237e+03,6.932682e+03
1.585201e+03,6.917450e+03
1.586166e+03,6.903821e+03
1.587130e+03,6.887454e+03
1.588094e+03,6.875938e+03
1.589058e+03,6.876212e+03
1.590023e+03,6.882349e+03
1.590987e+03,6.880784e+03
1.591951e+03,6.875843e+03
1.592915e+03,6.872028e+03
1.593880e+03,6.866353e+03
1.594844e+03,6.856608e+03
1.595808e+03,6.834383e+03
1.596772e+03,6.821857e+03
1.597736e+03,6.830589e+03
1.598701e+03,6.843089e+03
1.599665e+03,6.841603e+03
1.600629e+03,6.830122e+03
1.601593e+03,6.825110e+03
1.602558e+03,6.824725e+03
1.603522e+03,6.823758e+03
1.604486e+03,6.820533e+03
1.605450e+03,6.814655e+03
1.606415e+03,6.808836e+03
1.607379e+03,6.801782e+03
1.608343e+03,6.790726e+03
1.609307e+03,6.777914e+03
1.610271e+03,6.766759e+03
1.611236e+03,6.757395e+03
1.612200e+03,6.758015e+03
1.613164e+03,6.768239e+03
1.614128e+03,6.774115e+03
1.615093e+03,6.757694e+03
1.616057e+03,6.747381e+03
1.617021e+03,6.760868e+03
1.617985e+03,6.770068e+03
1.618950e+03,6.757383e+03
1.619914e+03,6.730053e+03
1.620878e+03,6.714611e+03
1.621842e+03,6.709784e+03
1.622807e+03,6.708759e+03
1.623771e+03,6.711399e+03
1.624735e+03,6.712829e+03
1.625699e+03,6.701874e+03
1.626663e+03,6.694530e+03
1.627628e+03,6.696963e+03
1.628592e+03,6.699853e+03
1.629556e+03,6.698811e+03
1.630520e+03,6.695942e+03
1.631485e+03,6.678999e+03
1.632449e+03,6.651557e+03
1.633413e+03,6.631738e+03
1.634377e+03,6.629271e+03
1.635342e+03,6.630636e+03
1.636306e+03,6.635169e+03
1.637270e+03,6.638058e+03
1.638234e+03,6.635886e+03
1.639198e+03,6.631908e+03
1.640163e+03,6.631408e+03
1.641127e+03,6.634173e+03
1.642091e+03,6.633585e+03
1.643055e+03,6.627150e+03
1.644020e+03,6.620039e+03
1.644984e+03,6.616263e+03
1.645948e+03,6.604875e+03
1.646912e+03,6.581423e+03
1.647877e+03,6.558626e+03
1.648841e+03,6.547179e+03
1.649805e+03,6.545948e+03
1.650769e+03,6.553452e+03
1.651734e+03,6.565088e+03
1.652698e+03,6.571096e+03
1.653662e+03,6.566400e+03
1.654626e+03,6.559385e+03
1.655590e+03,6.550852e+03
1.656555e+03,6.543523e+03
1.657519e+03,6.541284e+03
1.658483e+03,6.542759e+03
1.659447e+03,6.543426e+03
1.660412e+03,6.539518e+03
1.661376e+03,6.523291e+03
1.662340e+03,6.503138e+03
1.663304e+03,6.499567e+03
1.664269e+03,6.533865e+03
1.665233e+03,6.550275e+03
1.666197e+03,6.542306e+03
1.667161e+03,6.529045e+03
1.668125e+03,6.522118e+03
1.669090e+03,6.517396e+03
1.670054e+03,6.507443e+03
1.671018e+03,6.496981e+03
1.671982e+03,6.496099e+03
1.672947e+03,6.504924e+03
1.673911e+03,6.505486e+03
1.674875e+03,6.491875e+03
1.675839e+03,6.475212e+03
1.676804e+03,6.459754e+03
1.677768e+03,6.451172e+03
1.678732e+03,6.452900e+03
1.679696e+03,6.459175e+03
1.680661e+03,6.471650e+03
1.681625e+03,6.478401e+03
1.682589e+03,6.463721e+03
1.683553e+03,6.428911e+03
1.684517e+03,6.419069e+03
1.685482e+03,6.432362e+03
1.686446e+03,6.440967e+03
1.687410e+03,6.436268e+03
1.688374e+03,6.424625e+03
1.689339e+03,6.401617e+03
1.690303e+03,6.382407e+03
1.691267e+03,6.379202e+03
1.692231e+03,6.384026e+03
1.693196e+03,6.379229e+03
1.694160e+03,6.365540e+03
1.695124e+03,6.365092e+03
1.696088e+03,6.377136e+03
1.697052e+03,6.386919e+03
1.698017e+03,6.382164e+03
1.698981e+03,6.373836e+03
1.699945e+03,6.358324e+03
1.700909e+03,6.344727e+03
1.701874e+03,6.343879e+03
1.702838e+03,6.353328e+03
1.703802e+03,6.363135e+03
1.704766e+03,6.368346e+03
1.705731e+03,6.364430e+03
1.706695e+03,6.352856e+03
1.707659e+03,6.343463e+03
1.708623e+03,6.340548e+03
1.709588e+03,6.340763e+03
1.710552e+03,6.341182e+03
1.711516e+03,6.337085e+03
1.712480e+03,6.321199e+03
1.713444e+03,6.304181e+03
1.714409e+03,6.306781e+03
1.715373e+03,6.315400e+03
1.716337e+03,6.303196e+03
1.717301e+03,6.271075e+03
1.718266e+03,6.263137e+03
1.719230e+03,6.277199e+03
1.720194e+03,6.283602e+03
1.721158e+03,6.272258e+03
1.722123e+03,6.261395e+03
1.723087e+03,6.269395e+03
1.724051e+03,6.275461e+03
1.725015e+03,6.268328e+03
1.725979e+03,6.257203e+03
1.726944e+03,6.254744e+03
1.727908e+03,6.256963e+03
1.728872e+03,6.241280e+03
1.729836e+03,6.212326e+03
1.730801e+03,6.196583e+03
1.731765e+03,6.213139e+03
1.732729e+03,6.226102e+03
1.733693e+03,6.232482e+03
1.734658e+03,6.234181e+03
1.735622e+03,6.230970e+03
1.736586e+03,6.223938e+03
1.737550e+03,6.210977e+03
1.738515e+03,6.198513e+03
1.739479e+03,6.197527e+03
1.740443e+03,6.205498e+03
1.741407e+03,6.204924e+03
1.742371e+03,6.194910e+03
1.743336e+03,6.185453e+03
1.744300e+03,6.176979e+03
1.745264e+03,6.166818e+03
1.746228e+03,6.156402e+03
1.747193e+03,6.146793e+03
1.748157e+03,6.138812e+03
1.749121e+03,6.137388e+03
1.750085e+03,6.139350e+03
1.751050e+03,6.140331e+03
1.752014e+03,6.147403e+03
1.752978e+03,6.157947e+03
1.753942e+03,6.160414e+03
1.754906e+03,6.151595e+03
1.755871e+03,6.144005e+03
1.756835e+03,6.138735e+03
1.757799e+03,6.126159e+03
1.758763e+03,6.109845e+03
1.759728e+03,6.096894e+03
1.760692e+03,6.096618e+03
1.761656e+03,6.097717e+03
1.762620e+03,6.077640e+03
1.763585e+03,6.054763e+03
1.764549e+03,6.059095e+03
1.765513e+03,6.087428e+03
1.766477e+03,6.099418e+03
1.767442e+03,6.098433e+03
1.768406e+03,6.094864e+03
1.769370e+03,6.091935e+03
1.770334e+03,6.088495e+03
1.771298e+03,6.076525e+03
1.772263e+03,6.068497e+03
1.773227e+03,6.071577e+03
1.774191e+03,6.076638e+03
1.775155e+03,6.068039e+03
1.776120e+03,6.053451e+03
1.777084e+03,6.047614e+03
1.778048e+03,6.047064e+03
1.779012e+03,6.038104e+03
1.779977e+03,6.016393e+03
1.780941e+03,6.012036e+03
1.781905e+03,6.022108e+03
1.782869e+03,6.036808e+03
1.783833e+03,6.056805e+03
1.784798e+03,6.068045e+03
1.785762e+03,6.056281e+03
1.786726e+03,6.037328e+03
1.787690e+03,6.018025e+03
1.788655e+03,6.001106e+03
1.789619e+03,5.990955e+03
1.790583e+03,5.984868e+03
1.791547e+03,5.971380e+03
1.792512e+03,5.954678e+03
1.793476e+03,5.958409e+03
1.794440e+03,5.992904e+03
1.795404e+03,6.009552e+03
1.796369e+03,6.003927e+03
1.797333e+03,5.988071e+03
1.798297e+03,5.961471e+03
1.799261e+03,5.943126e+03
1.800225e+03,5.955515e+03
1.801190e+03,5.966500e+03
1.802154e+03,5.955023e+03
1.803118e+03,5.930761e+03
1.804082e+03,5.921766e+03
1.805047e+03,5.924853e+03
1.806011e+03,5.931604e+03
1.806975e+03,5.939441e+03
1.807939e+03,5.937603e+03
1.808904e+03,5.918606e+03
1.809868e+03,5.908026e+03
1.810832e+03,5.910711e+03
1.811796e+03,5.912625e+03
1.812760e+03,5.898678e+03
1.813725e+03,5.883726e+03
1.814689e+03,5.877833e+03
1.815653e+03,5.875608e+03
1.816617e+03,5.873634e+03
1.817582e+03,5.871847e+03
1.818546e+03,5.867765e+03
1.819510e+03,5.862581e+03
1.820474e+03,5.861669e+03
1.821439e+03,5.866813e+03
1.822403e+03,5.866546e+03
1.823367e+03,5.858969e+03
1.824331e+03,5.855224e+03
1.825296e+03,5.855547e+03
1.826260e+03,5.851727e+03
1.827224e+03,5.837529e+03
1.828188e+03,5.827375e+03
1.829152e+03,5.825600e+03
1.830117e+03,5.828055e+03
1.831081e+03,5.834349e+03
1.832045e+03,5.839583e+03
1.833009e+03,5.834462e+03
1.833974e+03,5.826986e+03
1.834938e+03,5.824623e+03
1.835902e+03,5.827016e+03
1.836866e+03,5.812224e+03
1.837831e+03,5.777724e+03
1.838795e+03,5.756810e+03
1.839759e+03,5.759300e+03
1.840723e+03,5.770055e+03
1.841688e+03,5.778589e+03
1.842652e+03,5.788609e+03
1.843616e+03,5.801340e+03
1.844580e+03,5.807961e+03
1.845544e+03,5.800732e+03
1.846509e+03,5.786017e+03
1.847473e+03,5.767849e+03
1.848437e+03,5.751649e+03
1.849401e+03,5.752150e+03
1.850366e+03,5.769913e+03
1.851330e+03,5.766426e+03
1.852294e+03,5.745536e+03
1.853258e+03,5.722055e+03
1.854223e+03,5.698000e+03
1.855187e+03,5.688650e+03
1.856151e+03,5.712837e+03
1.857115e+03,5.727659e+03
1.858079e+03,5.722262e+03
1.859044e+03,5.710531e+03
1.860008e+03,5.710120e+03
1.860972e+03,5.713163e+03
1.861936e+03,5.711710e+03
1.862901e+03,5.707439e+03
1.863865e+03,5.698881e+03
1.864829e+03,5.683803e+03
1.865793e+03,5.676120e+03
1.866758e+03,5.675157e+03
1.867722e+03,5.672712e+03
1.868686e+03,5.664228e+03
1.869650e+03,5.662970e+03
1.870615e+03,5.670483e+03
1.871579e+03,5.667923e+03
1.872543e+03,5.652293e+03
1.873507e+03,5.638290e+03
1.874471e+03,5.628453e+03
1.875436e+03,5.624266e+03
1.876400e+03,5.632870e+03
1.877364e+03,5.643240e+03
1.878328e+03,5.642790e+03
1.879293e+03,5.634353e+03
1.880257e+03,5.616246e+03
1.881221e+03,5.594519e+03
1.882185e+03,5.586307e+03
1.883150e+03,5.593557e+03
1.884114e+03,5.602266e+03
1.885078e+03,5.609957e+03
1.886042e+03,5.609079e+03
1.887006e+03,5.596069e+03
1.887971e+03,5.583583e+03
1.888935e+03,5.577808e+03
1.889899e+03,5.576713e+03
1.890863e+03,5.577625e+03
1.891828e+03,5.575601e+03
1.892792e+03,5.569924e+03
1.893756e+03,5.560391e+03
1.894720e+03,5.549873e+03
1.895685e+03,5.541784e+03
1.896649e+03,5.531683e+03
1.897613e+03,5.520525e+03
1.898577e+03,5.521864e+03
1.899542e+03,5.531214e+03
1.900506e+03,5.537744e+03
1.901470e+03,5.538865e+03
1.902434e+03,5.534153e+03
1.903398e+03,5.524223e+03
1.904363e+03,5.514734e+03
1.905327e+03,5.507407e+03
1.906291e+03,5.505701e+03
1.907255e+03,5.513711e+03
1.908220e+03,5.517159e+03
1.909184e+03,5.513492e+03
1.910148e+03,5.505213e+03
1.911112e+03,5.496227e+03
1.912077e+03,5.487584e+03
1.913041e+03,5.478875e+03
1.914005e+03,5.471164e+03
1.914969e+03,5.464824e+03
1.915933e+03,5.460224e+03
1.916898e+03,5.463053e+03
1.917862e+03,5.467609e+03
1.918826e+03,5.455544e+03
1.919790e+03,5.424833e+03
1.920755e+03,5.416850e+03
1.921719e+03,5.427376e+03
1.922683e+03,5.430644e+03
1.923647e+03,5.423188e+03
1.924612e+03,5.415612e+03
1.925576e+03,5.412939e+03
1.926540e+03,5.409086e+03
1.927504e+03,5.398962e+03
1.928469e+03,5.391424e+03
1.929433e+03,5.397331e+03
1.930397e+03,5.403743e+03
1.931361e+03,5.402210e+03
1.932325e+03,5.396225e+03
1.933290e+03,5.391149e+03
1.934254e+03,5.388488e+03
1.935218e+03,5.381116e+03
1.936182e+03,5.367625e+03
1.937147e+03,5.350491e+03
1.938111e+03,5.333655e+03
1.939075e+03,5.331511e+03
1.940039e+03,5.344207e+03
1.941004e+03,5.358132e+03
1.941968e+03,5.367375e+03
1.942932e+03,5.367036e+03
1.943896e+03,5.356279e+03
1.944860e+03,5.339734e+03
1.945825e+03,5.319557e+03
1.946789e+03,5.308013e+03
1.947753e+03,5.319441e+03
1.948717e+03,5.327929e+03
1.949682e+03,5.318525e+03
1.950646e+03,5.310802e+03
1.951610e+03,5.319892e+03
1.952574e+03,5.331786e+03
1.953539e+03,5.326035e+03
1.954503e+03,5.310776e+03
1.955467e+03,5.292532e+03
1.956431e+03,5.276811e+03
1.957396e+03,5.275912e+03
1.958360e+03,5.284107e+03
1.959324e+03,5.294445e+03
1.960288e+03,5.305900e+03
1.961252e+03,5.305265e+03
1.962217e+03,5.288313e+03
1.963181e+03,5.270583e+03
1.964145e+03,5.253276e+03
1.965109e+03,5.244763e+03
1.966074e+03,5.257526e+03
1.967038e+03,5.270728e+03
1.968002e+03,5.278592e+03
1.968966e+03,5.275537e+03
1.969931e+03,5.255921e+03
1.970895e+03,5.235756e+03
1.971859e+03,5.236158e+03
1.972823e+03,5.239031e+03
1.973787e+03,5.234205e+03
1.974752e+03,5.224170e+03
1.975716e+03,5.212005e+03
1.976680e+03,5.199307e+03
1.977644e+03,5.194554e+03
1.978609e+03,5.193695e+03
1.979573e+03,5.181291e+03
1.980537e+03,5.162397e+03
1.981501e+03,5.162250e+03
1.982466e+03,5.175494e+03
1.983430e+03,5.182979e+03
1.984394e+03,5.181537e+03
1.985358e+03,5.177112e+03
1.986323e+03,5.170020e+03
1.987287e+03,5.168782e+03
1.988251e+03,5.178513e+03
1.989215e+03,5.171584e+03
1.990179e+03,5.143508e+03
1.991144e+03,5.116722e+03
1.992108e+03,5.097181e+03
1.993072e+03,5.092837e+03
1.994036e+03,5.124490e+03
1.995001e+03,5.143827e+03
1.995965e+03,5.135259e+03
1.996929e+03,5.122883e+03
1.997893e+03,5.128255e+03
1.998858e+03,5.135269e+03
1.999822e+03,5.132546e+03
2.000786e+03,5.121200e+03
2.001750e+03,5.103416e+03
2.002714e+03,5.086593e+03
2.003679e+03,5.076411e+03
2.004643e+03,5.071866e+03
2.005607e+03,5.081307e+03
2.006571e+03,5.098857e+03
2.007536e+03,5.090978e+03
2.008500e+03,5.067278e+03
2.009464e+03,5.057174e+03
2.010428e+03,5.064131e+03
2.011393e+03,5.065648e+03
2.012357e+03,5.059600e+03
2.013321e+03,5.051192e+03
2.014285e+03,5.038930e+03
2.015250e+03,5.036856e+03
2.016214e+03,5.071248e+03
2.017178e+03,5.077997e+03
2.018142e+03,5.053659e+03
2.019106e+03,5.027138e+03
2.020071e+03,5.008487e+03
2.021035e+03,5.000328e+03
2.021999e+03,5.011171e+03
2.022963e+03,5.016443e+03
2.023928e+03,5.008267e+03
2.024892e+03,4.995237e+03
2.025856e+03,4.978765e+03
2.026820e+03,4.970562e+03
2.027785e+03,4.980344e+03
2.028749e+03,4.993218e+03
2.029713e+03,4.990642e+03
2.030677e+03,4.980683e+03
2.031641e+03,4.970272e+03
2.032606e+03,4.959851e+03
2.033570e+03,4.949041e+03
2.034534e+03,4.937957e+03
2.035498e+03,4.931463e+03
2.036463e+03,4.928947e+03
2.037427e+03,4.928384e+03
2.038391e+03,4.931828e+03
2.039355e+03,4.927287e+03
2.040320e+03,4.918025e+03
2.041284e+03,4.914756e+03
2.042248e+03,4.918400e+03
2.043212e+03,4.921975e+03
2.044177e+03,4.927184e+03
2.045141e+03,4.922329e+03
2.046105e+03,4.904917e+03
2.047069e+03,4.889926e+03
2.048033e+03,4.881338e+03
2.048998e+03,4.876907e+03
2.049962e+03,4.878412e+03
2.050926e+03,4.882091e+03
2.051890e+03,4.888538e+03
2.052854e+03,4.891081e+03
2.053819e+03,4.886481e+03
2.054783e+03,4.872642e+03
2.055747e+03,4.846419e+03
2.056711e+03,4.827572e+03
2.057676e+03,4.841948e+03
2.058640e+03,4.860388e+03
2.059604e+03,4.863861e+03
2.060568e+03,4.858329e+03
2.061533e+03,4.854164e+03
2.062497e+03,4.850021e+03
2.063461e+03,4.841475e+03
2.064425e+03,4.834467e+03
2.065390e+03,4.843597e+03
2.066354e+03,4.855686e+03
2.067318e+03,4.844448e+03
2.068282e+03,4.820976e+03
2.069247e+03,4.806476e+03
2.070211e+03,4.798764e+03
2.071175e+03,4.794563e+03
2.072139e+03,4.791155e+03
2.073104e+03,4.776189e+03
2.074068e+03,4.750446e+03
2.075032e+03,4.752428e+03
2.075996e+03,4.773102e+03
2.076960e+03,4.777874e+03
2.077925e+03,4.760345e+03
2.078889e+03,4.766551e+03
2.079853e+03,4.800269e+03
2.080817e+03,4.806970e+03
2.081782e+03,4.781530e+03
2.082746e+03,4.758760e+03
2.083710e+03,4.758749e+03
2.084674e+03,4.749179e+03
2.085639e+03,4.731012e+03
2.086603e+03,4.718173e+03
2.087567e+03,4.710093e+03
2.088531e+03,4.707459e+03
2.089496e+03,4.708698e+03
2.090460e+03,4.707050e+03
2.091424e+03,4.707814e+03
2.092388e+03,4.709099e+03
2.093353e+03,4.706406e+03
2.094317e+03,4.701760e+03
2.095281e+03,4.688894e+03
2.096245e+03,4.679657e+03
2.097209e+03,4.695629e+03
2.098174e+03,4.707478e+03
2.099138e+03,4.704133e+03
2.100102e+03,4.695006e+03
2.101066e+03,4.689995e+03
2.102031e+03,4.682960e+03
2.102995e+03,4.664429e+03
2.103959e+03,4.645435e+03
2.104923e+03,4.631338e+03
2.105887e+03,4.629633e+03
2.106852e+03,4.655765e+03
2.107816e+03,4.682994e+03
2.108780e+03,4.688337e+03
2.109744e+03,4.676634e+03
2.110708e+03,4.660203e+03
2.111673e+03,4.642243e+03
2.112637e+03,4.616375e+03
2.113601e+03,4.587687e+03
2.114565e+03,4.577127e+03
2.115530e+03,4.578544e+03
2.116494e+03,4.579219e+03
2.117458e+03,4.584220e+03
2.118422e+03,4.592823e+03
2.119387e+03,4.601206e+03
2.120351e+03,4.614045e+03
2.121315e+03,4.626060e+03
2.122279e+03,4.630606e+03
2.123244e+03,4.627180e+03
2.124208e+03,4.612221e+03
2.125172e+03,4.590189e+03
2.126136e+03,4.568641e+03
2.127101e+03,4.549345e+03
2.128065e+03,4.542549e+03
2.129029e+03,4.546038e+03
2.129993e+03,4.553536e+03
2.130958e+03,4.559267e+03
2.131922e+03,4.551432e+03
2.132886e+03,4.529858e+03
2.133850e+03,4.524396e+03
2.134814e+03,4.541181e+03
2.135779e+03,4.551433e+03
2.136743e+03,4.538610e+03
2.137707e+03,4.531067e+03
2.138671e+03,4.531307e+03
2.139636e+03,4.527691e+03
2.140600e+03,4.510752e+03
2.141564e+03,4.496583e+03
2.142528e+03,4.487022e+03
2.143493e+03,4.481888e+03
2.144457e+03,4.480780e+03
2.145421e+03,4.472769e+03
2.146385e+03,4.451404e+03
2.147350e+03,4.448534e+03
2.148314e+03,4.478329e+03
2.149278e+03,4.505530e+03
2.150242e+03,4.497884e+03
2.151207e+03,4.484257e+03
2.152171e+03,4.466674e+03
2.153135e+03,4.452003e+03
2.154099e+03,4.462178e+03
2.155063e+03,4.460250e+03
2.156028e+03,4.437108e+03
2.156992e+03,4.415834e+03
2.157956e+03,4.402447e+03
2.158920e+03,4.400821e+03
2.159885e+03,4.418986e+03
2.160849e+03,4.432428e+03
2.161813e+03,4.427417e+03
2.162777e+03,4.418067e+03
2.163741e+03,4.416765e+03
2.164706e+03,4.417374e+03
2.165670e+03,4.423623e+03
2.166634e+03,4.429144e+03
2.167598e+03,4.418333e+03
2.168563e+03,4.408196e+03
2.169527e+03,4.403596e+03
2.170491e+03,4.397017e+03
2.171455e+03,4.381260e+03
2.172420e+03,4.371578e+03
2.173384e+03,4.383367e+03
2.174348e+03,4.396593e+03
2.175312e+03,4.392740e+03
2.176277e+03,4.380667e+03
2.177241e+03,4.366593e+03
2.178205e+03,4.354133e+03
2.179169e+03,4.349302e+03
2.180134e+03,4.348571e+03
2.181098e+03,4.343242e+03
2.182062e+03,4.337338e+03
2.183026e+03,4.330046e+03
2.183990e+03,4.322163e+03
2.184955e+03,4.310705e+03
2.185919e+03,4.307062e+03
2.186883e+03,4.324215e+03
2.187847e+03,4.340274e+03
2.188812e+03,4.324479e+03
2.189776e+03,4.301649e+03
2.190740e+03,4.297309e+03
2.191704e+03,4.297709e+03
2.192668e+03,4.294883e+03
2.193633e+03,4.289526e+03
2.194597e+03,4.279857e+03
2.195561e+03,4.269840e+03
2.196525e+03,4.258753e+03
2.197490e+03,4.250838e+03
2.198454e+03,4.258647e+03
2.199418e+03,4.269709e+03
2.200382e+03,4.275083e+03
2.201347e+03,4.276884e+03
2.202311e+03,4.268325e+03
2.203275e+03,4.259880e+03
2.204239e+03,4.259857e+03
2.205204e+03,4.262106e+03
2.206168e+03,4.272885e+03
2.207132e+03,4.280432e+03
2.208096e+03,4.259433e+03
2.209061e+03,4.226931e+03
2.210025e+03,4.200822e+03
2.210989e+03,4.181888e+03
2.211953e+03,4.173343e+03
2.212917e+03,4.180688e+03
2.213882e+03,4.200283e+03
2.214846e+03,4.219740e+03
2.215810e+03,4.221663e+03
2.216774e+03,4.211485e+03
2.217739e+03,4.204541e+03
2.218703e+03,4.197810e+03
2.219667e+03,4.175796e+03
2.220631e+03,4.157751e+03
2.221595e+03,4.164799e+03
2.222560e+03,4.177576e+03
2.223524e+03,4.169311e+03
2.224488e+03,4.152815e+03
2.225452e+03,4.142658e+03
2.226417e+03,4.136871e+03
2.227381e+03,4.130542e+03
2.228345e+03,4.129750e+03
2.229309e+03,4.141572e+03
2.230274e+03,4.155844e+03
2.231238e+03,4.168282e+03
2.232202e+03,4.174320e+03
2.233166e+03,4.172876e+03
2.234131e+03,4.161127e+03
2.235095e+03,4.132371e+03
2.236059e+03,4.101956e+03
2.237023e+03,4.092442e+03
2.237988e+03,4.090924e+03
2.238952e+03,4.086996e+03
2.239916e+03,4.080450e+03
2.240880e+03,4.075104e+03
2.241844e+03,4.070702e+03
2.242809e+03,4.064585e+03
2.243773e+03,4.062695e+03
2.244737e+03,4.074487e+03
2.245701e+03,4.084047e+03
2.246666e+03,4.075432e+03
2.247630e+03,4.061689e+03
2.248594e+03,4.056004e+03
2.249558e+03,4.053094e+03
2.250522e+03,4.040301e+03
2.251487e+03,4.034741e+03
2.252451e+03,4.043206e+03
2.253415e+03,4.049552e+03
2.254379e+03,4.046751e+03
2.255344e+03,4.033724e+03
2.256308e+03,4.009201e+03
2.257272e+03,3.985010e+03
2.258236e+03,3.965542e+03
2.259201e+03,3.964509e+03
2.260165e+03,3.986578e+03
2.261129e+03,4.006738e+03
2.262093e+03,3.999337e+03
2.263058e+03,3.987950e+03
2.264022e+03,3.982581e+03
2.264986e+03,3.982277e+03
2.265950e+03,3.989870e+03
2.266915e+03,3.984124e+03
2.267879e+03,3.950821e+03
2.268843e+03,3.931521e+03
2.269807e+03,3.958594e+03
2.270771e+03,3.971048e+03
2.271736e+03,3.939136e+03
2.272700e+03,3.925964e+03
2.273664e+03,3.946370e+03
2.274628e+03,3.969233e+03
2.275593e+03,3.985737e+03
2.276557e+03,3.978776e+03
2.277521e+03,3.948110e+03
2.278485e+03,3.927062e+03
2.279449e+03,3.937744e+03
2.280414e+03,3.942011e+03
2.281378e+03,3.937194e+03
2.282342e+03,3.932262e+03
2.283306e+03,3.932063e+03
2.284271e+03,3.917554e+03
2.285235e+03,3.889686e+03
2.286199e+03,3.872828e+03
2.287163e+03,3.885633e+03
2.288128e+03,3.892049e+03
2.289092e+03,3.888931e+03
2.290056e+03,3.887481e+03
2.291020e+03,3.891338e+03
2.291985e+03,3.882151e+03
2.292949e+03,3.865432e+03
2.293913e+03,3.866889e+03
2.294877e+03,3.885617e+03
2.295842e+03,3.895167e+03
2.296806e+03,3.893050e+03
2.297770e+03,3.885331e+03
2.298734e+03,3.874075e+03
2.299698e+03,3.868766e+03
2.300663e+03,3.868906e+03
2.301627e+03,3.854040e+03
2.302591e+03,3.831678e+03
2.303555e+03,3.826002e+03
2.304520e+03,3.832284e+03
2.305484e+03,3.818432e+03
2.306448e+03,3.800344e+03
2.307412e+03,3.805500e+03
2.308376e+03,3.821996e+03
2.309341e+03,3.824037e+03
2.310305e+03,3.817764e+03
2.311269e+03,3.813104e+03
2.312233e+03,3.810979e+03
2.313198e+03,3.805012e+03
2.314162e+03,3.799870e+03
2.315126e+03,3.804552e+03
2.316090e+03,3.810544e+03
2.317055e+03,3.813478e+03
2.318019e+03,3.811430e+03
2.318983e+03,3.797465e+03
2.319947e+03,3.779308e+03
2.320912e+03,3.763542e+03
2.321876e+03,3.751056e+03
2.322840e+03,3.736361e+03
2.323804e+03,3.734757e+03
2.324769e+03,3.761400e+03
2.325733e+03,3.786626e+03
2.326697e+03,3.784770e+03
2.327661e+03,3.779498e+03
2.328625e+03,3.773919e+03
2.329590e+03,3.763363e+03
2.330554e+03,3.747488e+03
2.331518e+03,3.731202e+03
2.332482e+03,3.714369e+03
2.333447e+03,3.705740e+03
2.334411e+03,3.714158e+03
2.335375e+03,3.716627e+03
2.336339e+03,3.712262e+03
2.337303e+03,3.711508e+03
2.338268e+03,3.721800e+03
2.339232e+03,3.712355e+03
2.340196e+03,3.688068e+03
2.341160e+03,3.675036e+03
2.342125e+03,3.680495e+03
2.343089e+03,3.685246e+03
2.344053e+03,3.686374e+03
2.345017e+03,3.697997e+03
2.345982e+03,3.718286e+03
2.346946e+03,3.700990e+03
2.347910e+03,3.665620e+03
2.348874e+03,3.657181e+03
2.349839e+03,3.666310e+03
2.350803e+03,3.664937e+03
2.351767e+03,3.659122e+03
2.352731e+03,3.660665e+03
2.353696e+03,3.663870e+03
2.354660e+03,3.650544e+03
2.355624e+03,3.631759e+03
2.356588e+03,3.631810e+03
2.357552e+03,3.637407e+03
2.358517e+03,3.637349e+03
2.359481e+03,3.634006e+03
2.360445e+03,3.623910e+03
2.361409e+03,3.616510e+03
2.362374e+03,3.619118e+03
2.363338e+03,3.620517e+03
2.364302e+03,3.614923e+03
2.365266e+03,3.611492e+03
2.366230e+03,3.609896e+03
2.367195e+03,3.607476e+03
2.368159e+03,3.599233e+03
2.369123e+03,3.591840e+03
2.370087e+03,3.589553e+03
2.371052e+03,3.586952e+03
2.372016e+03,3.581384e+03
2.372980e+03,3.576739e+03
2.373944e+03,3.572114e+03
2.374909e+03,3.571246e+03
2.375873e+03,3.578499e+03
2.376837e+03,3.575687e+03
2.377801e+03,3.565647e+03
2.378766e+03,3.558023e+03
2.379730e+03,3.553873e+03
2.380694e+03,3.539888e+03
2.381658e+03,3.524649e+03
2.382623e+03,3.527115e+03
2.383587e+03,3.540714e+03
2.384551e+03,3.548812e+03
2.385515e+03,3.548941e+03
2.386479e+03,3.536275e+03
2.387444e+03,3.521085e+03
2.388408e+03,3.517367e+03
2.389372e+03,3.521491e+03
2.390336e+03,3.530792e+03
2.391301e+03,3.537177e+03
2.392265e+03,3.527169e+03
2.393229e+03,3.516914e+03
2.394193e+03,3.518353e+03
2.395157e+03,3.519542e+03
2.396122e+03,3.516210e+03
2.397086e+03,3.505119e+03
2.398050e+03,3.484820e+03
2.399014e+03,3.472019e+03
2.399979e+03,3.473153e+03
2.400943e+03,3.480077e+03
2.401907e+03,3.490082e+03
2.402871e+03,3.488704e+03
2.403836e+03,3.473750e+03
2.404800e+03,3.466798e+03
2.405764e+03,3.467857e+03
2.406728e+03,3.459879e+03
2.407693e+03,3.443375e+03
2.408657e+03,3.447079e+03
2.409621e+03,3.466489e+03
2.410585e+03,3.463634e+03
2.411550e+03,3.448415e+03
2.412514e+03,3.450198e+03
2.413478e+03,3.459293e+03
2.414442e+03,3.447333e+03
2.415406e+03,3.431513e+03
2.416371e+03,3.431995e+03
2.417335e+03,3.436737e+03
2.418299e+03,3.420093e+03
2.419263e+03,3.412625e+03
2.420228e+03,3.434477e+03
2.421192e+03,3.454837e+03
2.422156e+03,3.439435e+03
2.423120e+03,3.429836e+03
2.424084e+03,3.433688e+03
2.425049e+03,3.430398e+03
2.426013e+03,3.411026e+03
2.426977e+03,3.387395e+03
2.427941e+03,3.363835e+03
2.428906e+03,3.357627e+03
2.429870e+03,3.373611e+03
2.430834e+03,3.378534e+03
2.431798e+03,3.375255e+03
2.432763e+03,3.380303e+03
2.433727e+03,3.392135e+03
2.434691e+03,3.391466e+03
2.435655e+03,3.381794e+03
2.436620e+03,3.368558e+03
2.437584e+03,3.357050e+03
2.438548e+03,3.368475e+03
2.439512e+03,3.380501e+03
2.440477e+03,3.367409e+03
2.441441e+03,3.344754e+03
2.442405e+03,3.335754e+03
2.443369e+03,3.333093e+03
2.444333e+03,3.334088e+03
2.445298e+03,3.338064e+03
2.446262e+03,3.348275e+03
2.447226e+03,3.349207e+03
2.448190e+03,3.339915e+03
2.449155e+03,3.331605e+03
2.450119e+03,3.338023e+03
2.451083e+03,3.327951e+03
2.452047e+03,3.303400e+03
2.453011e+03,3.296852e+03
2.453976e+03,3.318528e+03
2.454940e+03,3.325397e+03
2.455904e+03,3.321563e+03
2.456868e+03,3.305190e+03
2.457833e+03,3.281578e+03
2.458797e+03,3.272309e+03
2.459761e+03,3.271819e+03
2.460725e+03,3.267830e+03
2.461690e+03,3.267028e+03
2.462654e+03,3.291612e+03
2.463618e+03,3.308337e+03
2.464582e+03,3.297565e+03
2.465547e+03,3.283157e+03
2.466511e+03,3.279207e+03
2.467475e+03,3.278418e+03
2.468439e+03,3.278849e+03
2.469404e+03,3.276019e+03
2.470368e+03,3.266655e+03
2.471332e+03,3.269507e+03
2.472296e+03,3.280957e+03
2.473260e+03,3.280731e+03
2.474225e+03,3.263327e+03
2.475189e+03,3.252077e+03
2.476153e+03,3.246974e+03
2.477117e+03,3.238023e+03
2.478082e+03,3.227566e+03
2.479046e+03,3.236284e+03
2.480010e+03,3.245493e+03
2.480974e+03,3.228302e+03
2.481938e+03,3.203794e+03
2.482903e+03,3.191777e+03
2.483867e+03,3.191371e+03
2.484831e+03,3.201135e+03
2.485795e+03,3.211064e+03
2.486760e+03,3.220775e+03
2.487724e+03,3.216831e+03
2.488688e+03,3.198623e+03
2.489652e+03,3.187359e+03
2.490617e+03,3.196208e+03
2.491581e+03,3.194962e+03
2.492545e+03,3.187313e+03
2.493509e+03,3.188489e+03
2.494474e+03,3.197255e+03
2.495438e+03,3.194739e+03
2.496402e+03,3.185052e+03
2.497366e+03,3.175348e+03
2.498331e+03,3.168838e+03
2.499295e+03,3.177741e+03
2.500259e+03,3.183231e+03
2.501223e+03,3.171834e+03
2.502188e+03,3.157686e+03
2.503152e+03,3.151339e+03
2.504116e+03,3.153982e+03
2.505080e+03,3.166399e+03
2.506044e+03,3.174359e+03
2.507009e+03,3.164542e+03
2.507973e+03,3.146750e+03
2.508937e+03,3.125165e+03
2.509901e+03,3.124462e+03
2.510865e+03,3.151563e+03
2.511830e+03,3.149926e+03
2.512794e+03,3.129565e+03
2.513758e+03,3.128840e+03
2.514722e+03,3.141791e+03
2.515687e+03,3.146049e+03
2.516651e+03,3.138000e+03
2.517615e+03,3.110449e+03
2.518579e+03,3.084665e+03
2.519544e+03,3.092103e+03
2.520508e+03,3.105354e+03
2.521472e+03,3.116014e+03
2.522436e+03,3.117969e+03
2.523401e+03,3.096858e+03
2.524365e+03,3.088245e+03
2.525329e+03,3.091536e+03
2.526293e+03,3.101878e+03
2.527258e+03,3.121667e+03
2.528222e+03,3.122871e+03
2.529186e+03,3.111091e+03
2.530150e+03,3.104743e+03
2.531115e+03,3.104508e+03
2.532079e+03,3.106331e+03
2.533043e+03,3.104775e+03
2.534007e+03,3.092409e+03
2.534971e+03,3.075671e+03
2.535936e+03,3.063863e+03
2.536900e+03,3.062139e+03
2.537864e+03,3.074390e+03
2.538828e+03,3.077399e+03
2.539792e+03,3.047932e+03
2.540757e+03,3.039815e+03
2.541721e+03,3.057580e+03
2.542685e+03,3.057102e+03
2.543649e+03,3.037801e+03
2.544614e+03,3.029355e+03
2.545578e+03,3.031710e+03
2.546542e+03,3.047583e+03
2.547506e+03,3.067919e+03
2.548471e+03,3.069724e+03
2.549435e+03,3.057594e+03
2.550399e+03,3.028976e+03
2.551363e+03,3.007594e+03
2.552328e+03,3.020673e+03
2.553292e+03,3.034227e+03
2.554256e+03,3.037617e+03
2.555220e+03,3.038334e+03
2.556185e+03,3.037753e+03
2.557149e+03,3.036871e+03
2.558113e+03,3.035592e+03
2.559077e+03,3.038541e+03
2.560042e+03,3.040524e+03
2.561006e+03,3.027835e+03
2.561970e+03,3.009148e+03
2.562934e+03,2.984248e+03
2.563898e+03,2.969730e+03
2.564863e+03,2.993760e+03
2.565827e+03,3.014528e+03
2.566791e+03,3.000619e+03
2.567755e+03,2.988522e+03
2.568719e+03,2.984044e+03
2.569684e+03,2.977983e+03
2.570648e+03,2.965558e+03
2.571612e+03,2.964435e+03
2.572576e+03,2.975439e+03
2.573541e+03,2.985430e+03
2.574505e+03,2.988920e+03
2.575469e+03,2.985645e+03
2.576433e+03,2.976020e+03
2.577398e+03,2.961747e+03
2.578362e+03,2.950301e+03
2.579326e+03,2.954938e+03
2.580290e+03,2.962673e+03
2.581255e+03,2.966499e+03
2.582219e+03,2.965375e+03
2.583183e+03,2.955793e+03
2.584147e+03,2.950845e+03
2.585112e+03,2.954504e+03
2.586076e+03,2.954123e+03
2.587040e+03,2.947375e+03
2.588004e+03,2.949149e+03
2.588969e+03,2.953005e+03
2.589933e+03,2.949251e+03
2.590897e+03,2.943639e+03
2.591861e+03,2.949008e+03
2.592825e+03,2.957006e+03
2.593790e+03,2.963486e+03
2.594754e+03,2.957911e+03
2.595718e+03,2.926913e+03
2.596682e+03,2.904110e+03
2.597646e+03,2.894820e+03
2.598611e+03,2.894308e+03
2.599575e+03,2.902216e+03
2.600539e+03,2.904432e+03
2.601503e+03,2.902699e+03
2.602468e+03,2.918669e+03
2.603432e+03,2.936036e+03
2.604396e+03,2.918480e+03
2.605360e+03,2.894825e+03
2.606325e+03,2.882233e+03
2.607289e+03,2.882184e+03
2.608253e+03,2.897260e+03
2.609217e+03,2.908156e+03
2.610182e+03,2.900409e+03
2.611146e+03,2.889351e+03
2.612110e+03,2.878148e+03
2.613074e+03,2.871664e+03
2.614039e+03,2.871505e+03
2.615003e+03,2.877826e+03
2.615967e+03,2.880667e+03
2.616931e+03,2.870927e+03
2.617896e+03,2.856751e+03
2.618860e+03,2.837335e+03
2.619824e+03,2.836849e+03
2.620788e+03,2.864374e+03
2.621752e+03,2.877960e+03
2.622717e+03,2.846227e+03
2.623681e+03,2.834253e+03
2.624645e+03,2.841457e+03
2.625609e+03,2.842955e+03
2.626573e+03,2.838502e+03
2.627538e+03,2.847398e+03
2.628502e+03,2.863048e+03
2.629466e+03,2.875242e+03
2.630430e+03,2.876850e+03
2.631395e+03,2.846017e+03
2.632359e+03,2.817120e+03
2.633323e+03,2.801680e+03
2.634287e+03,2.798458e+03
2.635252e+03,2.806642e+03
2.636216e+03,2.810931e+03
2.637180e+03,2.807215e+03
2.638144e+03,2.810280e+03
2.639109e+03,2.815688e+03
2.640073e+03,2.815414e+03
2.641037e+03,2.814370e+03
2.642001e+03,2.812281e+03
2.642966e+03,2.808291e+03
2.643930e+03,2.801773e+03
2.644894e+03,2.794662e+03
2.645858e+03,2.785372e+03
2.646823e+03,2.785641e+03
2.647787e+03,2.792675e+03
2.648751e+03,2.795685e+03
2.649715e+03,2.792446e+03
2.650679e+03,2.782964e+03
2.651644e+03,2.774008e+03
2.652608e+03,2.775207e+03
2.653572e+03,2.781329e+03
2.654536e+03,2.788240e+03
2.655500e+03,2.796362e+03
2.656465e+03,2.807481e+03
2.657429e+03,2.805526e+03
2.658393e+03,2.782310e+03
2.659357e+03,2.776498e+03
2.660322e+03,2.791350e+03
2.661286e+03,2.779030e+03
2.662250e+03,2.751901e+03
2.663214e+03,2.751626e+03
2.664179e+03,2.761407e+03
2.665143e+03,2.766457e+03
2.666107e+03,2.762985e+03
2.667071e+03,2.748260e+03
2.668036e+03,2.738659e+03
2.669000e+03,2.740699e+03
2.669964e+03,2.748141e+03
2.670928e+03,2.757767e+03
2.671893e+03,2.755709e+03
2.672857e+03,2.746001e+03
2.673821e+03,2.742112e+03
2.674785e+03,2.740320e+03
2.675750e+03,2.738562e+03
2.676714e+03,2.738147e+03
2.677678e+03,2.740323e+03
2.678642e+03,2.740040e+03
2.679606e+03,2.736953e+03
2.680571e+03,2.727802e+03
2.681535e+03,2.712282e+03
2.682499e+03,2.701494e+03
2.683463e+03,2.697390e+03
2.684427e+03,2.709288e+03
2.685392e+03,2.726041e+03
2.686356e+03,2.725597e+03
2.687320e+03,2.715903e+03
2.688284e+03,2.695263e+03
2.689249e+03,2.683693e+03
2.690213e+03,2.683313e+03
2.691177e+03,2.680685e+03
2.692141e+03,2.674160e+03
2.693106e+03,2.678730e+03
2.694070e+03,2.689390e+03
2.695034e+03,2.692434e+03
2.695998e+03,2.689929e+03
2.696963e+03,2.684377e+03
2.697927e+03,2.677995e+03
2.698891e+03,2.668152e+03
2.699855e+03,2.665004e+03
2.700820e+03,2.678426e+03
2.701784e+03,2.682349e+03
2.702748e+03,2.673160e+03
2.703712e+03,2.656808e+03
2.704677e+03,2.640539e+03
2.705641e+03,2.657212e+03
2.706605e+03,2.681551e+03
2.707569e+03,2.678094e+03
2.708533e+03,2.667146e+03
2.709498e+03,2.656330e+03
2.710462e+03,2.653091e+03
2.711426e+03,2.670101e+03
2.712390e+03,2.667491e+03
2.713354e+03,2.649219e+03
2.714319e+03,2.631113e+03
2.715283e+03,2.619297e+03
2.716247e+03,2.637007e+03
2.717211e+03,2.655682e+03
2.718176e+03,2.656030e+03
2.719140e+03,2.648128e+03
2.720104e+03,2.634109e+03
2.721068e+03,2.627092e+03
2.722033e+03,2.628617e+03
2.722997e+03,2.629460e+03
2.723961e+03,2.627864e+03
2.724925e+03,2.623960e+03
2.725890e+03,2.621949e+03
2.726854e+03,2.632594e+03
2.727818e+03,2.633161e+03
2.728782e+03,2.605976e+03
2.729747e+03,2.585078e+03
2.730711e+03,2.592001e+03
2.731675e+03,2.603417e+03
2.732639e+03,2.616880e+03
2.733604e+03,2.616388e+03
2.734568e+03,2.609013e+03
2.735532e+03,2.620707e+03
2.736496e+03,2.626587e+03
2.737460e+03,2.607665e+03
2.738425e+03,2.595708e+03
2.739389e+03,2.613058e+03
2.740353e+03,2.615438e+03
2.741317e+03,2.599041e+03
2.742281e+03,2.596897e+03
2.743246e+03,2.606454e+03
2.744210e+03,2.610621e+03
2.745174e+03,2.606760e+03
2.746138e+03,2.598819e+03
2.747103e+03,2.581646e+03
2.748067e+03,2.554204e+03
2.749031e+03,2.542249e+03
2.749995e+03,2.563879e+03
2.750960e+03,2.584947e+03
2.751924e+03,2.599564e+03
2.752888e+03,2.584023e+03
2.753852e+03,2.555603e+03
2.754817e+03,2.551857e+03
2.755781e+03,2.558793e+03
2.756745e+03,2.569842e+03
2.757709e+03,2.577029e+03
2.758674e+03,2.575952e+03
2.759638e+03,2.561481e+03
2.760602e+03,2.536520e+03
2.761566e+03,2.535110e+03
2.762531e+03,2.548486e+03
2.763495e+03,2.560779e+03
2.764459e+03,2.563534e+03
2.765423e+03,2.538939e+03
2.766387e+03,2.528315e+03
2.767352e+03,2.541078e+03
2.768316e+03,2.543545e+03
2.769280e+03,2.528492e+03
2.770244e+03,2.531509e+03
2.771208e+03,2.542983e+03
2.772173e+03,2.537853e+03
2.773137e+03,2.524978e+03
2.774101e+03,2.515987e+03
2.775065e+03,2.514760e+03
2.776030e+03,2.524582e+03
2.776994e+03,2.525783e+03
2.777958e+03,2.516767e+03
2.778922e+03,2.508058e+03
2.779887e+03,2.504249e+03
2.780851e+03,2.518871e+03
2.781815e+03,2.528397e+03
2.782779e+03,2.519551e+03
2.783744e+03,2.509908e+03
2.784708e+03,2.505875e+03
2.785672e+03,2.513539e+03
2.786636e+03,2.528143e+03
2.787601e+03,2.514130e+03
2.788565e+03,2.488199e+03
2.789529e+03,2.497585e+03
2.790493e+03,2.513745e+03
2.791458e+03,2.513449e+03
2.792422e+03,2.498876e+03
2.793386e+03,2.475511e+03
2.794350e+03,2.469489e+03
2.795314e+03,2.485311e+03
2.796279e+03,2.485677e+03
2.797243e+03,2.481613e+03
2.798207e+03,2.499130e+03
2.799171e+03,2.517249e+03
2.800135e+03,2.502262e+03
2.801100e+03,2.486471e+03
2.802064e+03,2.478431e+03
2.803028e+03,2.471838e+03
2.803992e+03,2.464655e+03
2.804957e+03,2.455010e+03
2.805921e+03,2.447853e+03
2.806885e+03,2.454353e+03
2.807849e+03,2.455345e+03
2.808814e+03,2.441335e+03
2.809778e+03,2.431147e+03
2.810742e+03,2.434847e+03
2.811706e+03,2.450130e+03
2.812671e+03,2.467023e+03
2.813635e+03,2.460598e+03
2.814599e+03,2.444288e+03
2.815563e+03,2.449016e+03
2.816528e+03,2.450805e+03
2.817492e+03,2.435128e+03
2.818456e+03,2.426177e+03
2.819420e+03,2.424338e+03
2.820385e+03,2.427896e+03
2.821349e+03,2.434950e+03
2.822313e+03,2.428283e+03
2.823277e+03,2.423268e+03
2.824241e+03,2.430820e+03
2.825206e+03,2.436711e+03
2.826170e+03,2.432892e+03
2.827134e+03,2.442704e+03
2.828098e+03,2.460949e+03
2.829063e+03,2.445604e+03
2.830027e+03,2.414239e+03
2.830991e+03,2.408023e+03
2.831955e+03,2.412034e+03
2.832919e+03,2.406847e+03
2.833884e+03,2.419815e+03
2.834848e+03,2.450450e+03
2.835812e+03,2.456080e+03
2.836776e+03,2.437964e+03
2.837741e+03,2.428808e+03
2.838705e+03,2.432062e+03
2.839669e+03,2.457298e+03
2.840633e+03,2.461712e+03
2.841598e+03,2.420289e+03
2.842562e+03,2.396899e+03
2.843526e+03,2.409970e+03
2.844490e+03,2.399629e+03
2.845455e+03,2.379896e+03
2.846419e+03,2.383197e+03
2.847383e+03,2.389394e+03
2.848347e+03,2.363073e+03
2.849312e+03,2.367306e+03
2.850276e+03,2.410763e+03
2.851240e+03,2.421789e+03
2.852204e+03,2.401041e+03
2.853168e+03,2.388025e+03
2.854133e+03,2.384745e+03
2.855097e+03,2.399040e+03
2.856061e+03,2.415345e+03
2.857025e+03,2.425719e+03
2.857990e+03,2.411309e+03
2.858954e+03,2.366387e+03
2.859918e+03,2.366480e+03
2.860882e+03,2.391482e+03
2.861846e+03,2.408556e+03
2.862811e+03,2.413217e+03
2.863775e+03,2.398056e+03
2.864739e+03,2.378813e+03
2.865703e+03,2.358939e+03
2.866668e+03,2.366106e+03
2.867632e+03,2.387753e+03
2.868596e+03,2.388896e+03
2.869560e+03,2.380734e+03
2.870525e+03,2.376675e+03
2.871489e+03,2.378215e+03
2.872453e+03,2.384250e+03
2.873417e+03,2.386954e+03
2.874382e+03,2.384324e+03
2.875346e+03,2.377270e+03
2.876310e+03,2.368185e+03
2.877274e+03,2.343258e+03
2.878239e+03,2.344631e+03
2.879203e+03,2.384247e+03
2.880167e+03,2.398321e+03
2.881131e+03,2.369161e+03
2.882095e+03,2.361899e+03
2.883060e+03,2.375912e+03
2.884024e+03,2.412788e+03
2.884988e+03,2.431648e+03
2.885952e+03,2.387520e+03
2.886917e+03,2.347194e+03
2.887881e+03,2.329039e+03
2.888845e+03,2.316914e+03
2.889809e+03,2.315449e+03
2.890773e+03,2.340166e+03
2.891738e+03,2.364862e+03
2.892702e+03,2.363087e+03
2.893666e+03,2.363478e+03
2.894630e+03,2.370831e+03
2.895595e+03,2.369275e+03
2.896559e+03,2.360191e+03
2.897523e+03,2.358930e+03
2.898487e+03,2.358049e+03
2.899452e+03,2.341812e+03
2.900416e+03,2.340891e+03
2.901380e+03,2.358842e+03
2.902344e+03,2.364147e+03
2.903309e+03,2.353934e+03
2.904273e+03,2.362194e+03
2.905237e+03,2.366436e+03
2.906201e+03,2.340712e+03
2.907166e+03,2.315833e+03
2.908130e+03,2.305422e+03
2.909094e+03,2.291220e+03
2.910058e+03,2.273909e+03
2.911022e+03,2.290286e+03
2.911987e+03,2.319231e+03
2.912951e+03,2.335669e+03
2.913915e+03,2.341992e+03
2.914879e+03,2.336766e+03
2.915844e+03,2.329720e+03
2.916808e+03,2.321967e+03
2.917772e+03,2.303663e+03
2.918736e+03,2.291571e+03
2.919700e+03,2.316750e+03
2.920665e+03,2.336202e+03
2.921629e+03,2.312695e+03
2.922593e+03,2.296431e+03
2.923557e+03,2.291048e+03
2.924522e+03,2.292145e+03
2.925486e+03,2.296209e+03
2.926450e+03,2.303806e+03
2.927414e+03,2.298456e+03
2.928379e+03,2.263216e+03
2.929343e+03,2.263997e+03
2.930307e+03,2.294517e+03
2.931271e+03,2.296496e+03
2.932236e+03,2.284937e+03
2.933200e+03,2.285078e+03
2.934164e+03,2.285978e+03
2.935128e+03,2.279891e+03
2.936093e+03,2.294407e+03
2.937057e+03,2.324327e+03
2.938021e+03,2.292387e+03
2.938985e+03,2.244833e+03
2.939949e+03,2.262709e+03
2.940914e+03,2.281428e+03
2.941878e+03,2.278699e+03
2.942842e+03,2.279502e+03
2.943806e+03,2.285005e+03
2.944771e+03,2.285354e+03
2.945735e+03,2.283548e+03
2.946699e+03,2.280237e+03
2.947663e+03,2.286206e+03
2.948627e+03,2.300575e+03
2.949592e+03,2.304570e+03
2.950556e+03,2.295811e+03
2.951520e+03,2.258999e+03
2.952484e+03,2.226431e+03
2.953449e+03,2.231270e+03
2.954413e+03,2.250700e+03
2.955377e+03,2.276059e+03
2.956341e+03,2.295094e+03
2.957306e+03,2.302124e+03
2.958270e+03,2.287051e+03
2.959234e+03,2.257640e+03
2.960198e+03,2.224111e+03
2.961163e+03,2.217251e+03
2.962127e+03,2.250417e+03
2.963091e+03,2.241745e+03
2.964055e+03,2.200154e+03
2.965020e+03,2.189177e+03
2.965984e+03,2.194444e+03
2.966948e+03,2.201146e+03
2.967912e+03,2.206320e+03
2.968876e+03,2.209547e+03
2.969841e+03,2.201670e+03
2.970805e+03,2.193387e+03
2.971769e+03,2.212180e+03
2.972733e+03,2.223426e+03
2.973698e+03,2.198561e+03
2.974662e+03,2.191639e+03
2.975626e+03,2.218777e+03
2.976590e+03,2.252662e+03
2.977554e+03,2.273453e+03
2.978519e+03,2.254169e+03
2.979483e+03,2.223229e+03
2.980447e+03,2.199297e+03
2.981411e+03,2.187053e+03
2.982376e+03,2.188939e+03
2.983340e+03,2.196755e+03
2.984304e+03,2.202798e+03
2.985268e+03,2.199844e+03
2.986233e+03,2.198634e+03
2.987197e+03,2.207155e+03
2.988161e+03,2.215574e+03
2.989125e+03,2.221339e+03
2.990090e+03,2.216192e+03
2.991054e+03,2.206852e+03
2.992018e+03,2.199635e+03
2.992982e+03,2.181847e+03
2.993947e+03,2.147595e+03
2.994911e+03,2.146013e+03
2.995875e+03,2.162620e+03
2.996839e+03,2.167955e+03
2.997803e+03,2.160417e+03
2.998768e+03,2.139947e+03
2.999732e+03,2.142701e+03
3.000696e+03,2.175263e+03
3.001660e+03,2.182372e+03
3.002625e+03,2.174881e+03
3.003589e+03,2.167226e+03
3.004553e+03,2.164759e+03
3.005517e+03,2.172760e+03
3.006481e+03,2.160753e+03
3.007446e+03,2.135563e+03
3.008410e+03,2.146865e+03
3.009374e+03,2.157378e+03
3.010338e+03,2.145406e+03
3.011303e+03,2.149296e+03
3.012267e+03,2.177314e+03
3.013231e+03,2.173288e+03
3.014195e+03,2.154531e+03
3.015160e+03,2.155605e+03
3.016124e+03,2.161255e+03
3.017088e+03,2.164120e+03
3.018052e+03,2.158396e+03
3.019017e+03,2.143323e+03
3.019981e+03,2.133964e+03
3.020945e+03,2.130431e+03
3.021909e+03,2.133672e+03
3.022874e+03,2.129064e+03
3.023838e+03,2.115473e+03
3.024802e+03,2.122991e+03
3.025766e+03,2.142695e+03
3.026730e+03,2.147584e+03
3.027695e+03,2.145283e+03
3.028659e+03,2.140360e+03
3.029623e+03,2.144592e+03
3.030587e+03,2.152835e+03
3.031552e+03,2.118212e+03
3.032516e+03,2.081146e+03
3.033480e+03,2.099148e+03
3.034444e+03,2.124616e+03
3.035408e+03,2.147070e+03
3.036373e+03,2.156824e+03
3.037337e+03,2.157698e+03
3.038301e+03,2.163421e+03
3.039265e+03,2.168398e+03
3.040230e+03,2.167590e+03
3.041194e+03,2.156917e+03
3.042158e+03,2.140129e+03
3.043122e+03,2.131769e+03
3.044087e+03,2.125649e+03
3.045051e+03,2.105344e+03
3.046015e+03,2.095460e+03
3.046979e+03,2.106750e+03
3.047944e+03,2.117420e+03
3.048908e+03,2.129241e+03
3.049872e+03,2.147140e+03
3.050836e+03,2.147130e+03
3.051801e+03,2.106458e+03
3.052765e+03,2.089777e+03
3.053729e+03,2.094853e+03
3.054693e+03,2.070928e+03
3.055657e+03,2.062136e+03
3.056622e+03,2.095887e+03
3.057586e+03,2.116804e+03
3.058550e+03,2.109732e+03
3.059514e+03,2.118409e+03
3.060479e+03,2.133288e+03
3.061443e+03,2.134913e+03
3.062407e+03,2.122404e+03
3.063371e+03,2.098492e+03
3.064335e+03,2.069319e+03
3.065300e+03,2.047420e+03
3.066264e+03,2.099334e+03
3.067228e+03,2.140067e+03
3.068192e+03,2.106458e+03
3.069157e+03,2.087470e+03
3.070121e+03,2.091826e+03
3.071085e+03,2.108484e+03
3.072049e+03,2.124882e+03
3.073014e+03,2.138235e+03
3.073978e+03,2.106007e+03
3.074942e+03,2.021652e+03
3.075906e+03,2.030648e+03
3.076871e+03,2.076106e+03
3.077835e+03,2.057357e+03
3.078799e+03,2.047536e+03
3.079763e+03,2.102940e+03
3.080728e+03,2.106409e+03
3.081692e+03,2.069844e+03
3.082656e+03,2.063532e+03
3.083620e+03,2.065718e+03
3.084584e+03,2.063785e+03
3.085549e+03,2.058637e+03
3.086513e+03,2.053331e+03
3.087477e+03,2.073078e+03
3.088441e+03,2.095674e+03
3.089406e+03,2.106332e+03
3.090370e+03,2.093619e+03
3.091334e+03,2.064513e+03
3.092298e+03,2.065664e+03
3.093262e+03,2.078940e+03
3.094227e+03,2.057671e+03
3.095191e+03,2.046313e+03
3.096155e+03,2.061540e+03
3.097119e+03,2.064777e+03
3.098084e+03,2.060920e+03
3.099048e+03,2.060140e+03
3.100012e+03,2.063472e+03
3.100976e+03,2.071749e+03
3.101941e+03,2.090016e+03
3.102905e+03,2.112441e+03
3.103869e+03,2.106400e+03
3.104833e+03,2.091314e+03
3.105798e+03,2.083457e+03
3.106762e+03,2.062971e+03
3.107726e+03,2.030982e+03
3.108690e+03,2.032586e+03
3.109655e+03,2.041189e+03
3.110619e+03,2.017232e+03
3.111583e+03,2.013717e+03
3.112547e+03,2.035378e+03
3.113511e+03,2.049669e+03
3.114476e+03,2.054386e+03
3.115440e+03,2.041468e+03
3.116404e+03,2.039466e+03
3.117368e+03,2.066664e+03
3.118333e+03,2.082152e+03
3.119297e+03,2.095160e+03
3.120261e+03,2.130312e+03
3.121225e+03,2.129453e+03
3.122189e+03,2.057763e+03
3.123154e+03,2.049689e+03
3.124118e+03,2.093641e+03
3.125082e+03,2.103622e+03
3.126046e+03,2.094157e+03
3.127011e+03,2.073046e+03
3.127975e+03,2.069597e+03
3.128939e+03,2.077882e+03
3.129903e+03,2.053902e+03
3.130868e+03,2.032548e+03
3.131832e+03,2.051553e+03
3.132796e+03,2.060614e+03
3.133760e+03,2.057895e+03
3.134725e+03,2.060042e+03
3.135689e+03,2.063238e+03
3.136653e+03,2.062015e+03
3.137617e+03,2.069137e+03
3.138582e+03,2.089201e+03
3.139546e+03,2.069222e+03
3.140510e+03,2.047661e+03
3.141474e+03,2.077821e+03
3.142438e+03,2.081588e+03
3.143403e+03,2.050975e+03
3.144367e+03,2.025250e+03
3.145331e+03,2.011517e+03
3.146295e+03,2.021161e+03
3.147260e+03,2.048321e+03
3.148224e+03,2.087241e+03
3.149188e+03,2.098264e+03
3.150152e+03,2.086745e+03
3.151116e+03,2.061208e+03
3.152081e+03,2.034273e+03
3.153045e+03,2.006679e+03
3.154009e+03,1.996541e+03
3.154973e+03,2.003616e+03
3.155938e+03,2.021215e+03
3.156902e+03,2.048552e+03
3.157866e+03,2.077767e+03
3.158830e+03,2.062374e+03
3.159795e+03,2.031635e+03
3.160759e+03,2.051702e+03
3.161723e+03,2.076117e+03
3.162687e+03,2.093825e+03
3.163652e+03,2.068269e+03
3.164616e+03,2.021299e+03
3.165580e+03,1.980353e+03
3.166544e+03,1.987598e+03
3.167509e+03,2.052252e+03
3.168473e+03,2.092405e+03
3.169437e+03,2.101981e+03
3.170401e+03,2.077365e+03
3.171365e+03,2.060219e+03
3.172330e+03,2.070756e+03
3.173294e+03,2.080895e+03
3.174258e+03,2.081504e+03
3.175222e+03,2.057351e+03
3.176187e+03,2.037706e+03
3.177151e+03,2.047891e+03
3.178115e+03,2.026187e+03
3.179079e+03,1.993840e+03
3.180043e+03,2.035779e+03
3.181008e+03,2.061129e+03
3.181972e+03,2.040790e+03
3.182936e+03,2.006280e+03
3.183900e+03,1.973485e+03
3.184865e+03,1.975108e+03
3.185829e+03,1.994248e+03
3.186793e+03,2.046358e+03
3.187757e+03,2.077757e+03
3.188722e+03,2.077298e+03
3.189686e+03,2.015814e+03
3.190650e+03,2.005258e+03
3.191614e+03,2.076573e+03
3.192579e+03,2.060913e+03
3.193543e+03,1.986979e+03
3.194507e+03,1.985956e+03
3.195471e+03,2.000537e+03
3.196436e+03,2.006896e+03
3.197400e+03,2.081806e+03
3.198364e+03,2.144369e+03
3.199328e+03,2.059402e+03
3.200292e+03,2.004212e+03
3.201257e+03,0.000000e+00
3.202221e+03,0.000000e+00
3.203185e+03,0.000000e+00
3.204149e+03,0.000000e+00
3.205114e+03,0.000000e+00
3.206078e+03,0.000000e+00
3.207042e+03,0.000000e+00
3.208006e+03,0.000000e+00
3.208970e+03,0.000000e+00
3.209935e+03,0.000000e+00
3.210899e+03,0.000000e+00
3.211863e+03,0.000000e+00
3.212827e+03,0.000000e+00
3.213792e+03,0.000000e+00
3.214756e+03,0.000000e+00
3.215720e+03,0.000000e+00
3.216684e+03,0.000000e+00
3.217649e+03,0.000000e+00
3.218613e+03,0.000000e+00
3.219577e+03,0.000000e+00
3.220541e+03,0.000000e+00
3.221506e+03,0.000000e+00
3.222470e+03,0.000000e+00
3.223434e+03,0.000000e+00
3.224398e+03,0.000000e+00
3.225363e+03,0.000000e+00
3.226327e+03,0.000000e+00
3.227291e+03,0.000000e+00
3.228255e+03,0.000000e+00
3.229219e+03,0.000000e+00
3.230184e+03,0.000000e+00
3.231148e+03,0.000000e+00
3.232112e+03,0.000000e+00
3.233076e+03,0.000000e+00
3.234041e+03,0.000000e+00
3.235005e+03,0.000000e+00
3.235969e+03,0.000000e+00
3.236933e+03,0.000000e+00
3.237897e+03,0.000000e+00
3.238862e+03,0.000000e+00
3.239826e+03,0.000000e+00
3.240790e+03,0.000000e+00
3.241754e+03,0.000000e+00
3.242719e+03,0.000000e+00
3.243683e+03,0.000000e+00
3.244647e+03,0.000000e+00
3.245611e+03,0.000000e+00
3.246576e+03,0.000000e+00
3.247540e+03,0.000000e+00
3.248504e+03,0.000000e+00
3.249468e+03,0.000000e+00
3.250433e+03,0.000000e+00
3.251397e+03,0.000000e+00
3.252361e+03,0.000000e+00
3.253325e+03,0.000000e+00
3.254290e+03,0.000000e+00
3.255254e+03,0.000000e+00
3.256218e+03,0.000000e+00
3.257182e+03,0.000000e+00
3.258146e+03,0.000000e+00
3.259111e+03,0.000000e+00
3.260075e+03,0.000000e+00
3.261039e+03,0.000000e+00
3.262003e+03,0.000000e+00
3.262968e+03,0.000000e+00
3.263932e+03,0.000000e+00
3.264896e+03,0.000000e+00
3.265860e+03,0.000000e+00
3.266824e+03,0.000000e+00
3.267789e+03,0.000000e+00
3.268753e+03,0.000000e+00
3.269717e+03,0.000000e+00
3.270681e+03,0.000000e+00
3.271646e+03,0.000000e+00
3.272610e+03,0.000000e+00
3.273574e+03,0.000000e+00
3.274538e+03,0.000000e+00
3.275503e+03,0.000000e+00
3.276467e+03,0.000000e+00
3.277431e+03,0.000000e+00
3.278395e+03,0.000000e+00
3.279360e+03,0.000000e+00
3.280324e+03,0.000000e+00
3.281288e+03,0.000000e+00
3.282252e+03,0.000000e+00
3.283217e+03,0.000000e+00
3.284181e+03,0.000000e+00
3.285145e+03,0.000000e+00
3.286109e+03,0.000000e+00
3.287073e+03,0.000000e+00
3.288038e+03,0.000000e+00
3.289002e+03,0.000000e+00
3.289966e+03,0.000000e+00
3.290930e+03,0.000000e+00
3.291895e+03,0.000000e+00
3.292859e+03,0.000000e+00
3.293823e+03,0.000000e+00
3.294787e+03,0.000000e+00
3.295751e+03,0.000000e+00
3.296716e+03,0.000000e+00
3.297680e+03,0.000000e+00
3.298644e+03,0.000000e+00
3.299608e+03,0.000000e+00
3.300573e+03,0.000000e+00
3.301537e+03,0.000000e+00
3.302501e+03,0.000000e+00
3.303465e+03,0.000000e+00
3.304430e+03,0.000000e+00
3.305394e+03,0.000000e+00
3.306358e+03,0.000000e+00
3.307322e+03,0.000000e+00
3.308287e+03,0.000000e+00
3.309251e+03,0.000000e+00
3.310215e+03,0.000000e+00
3.311179e+03,0.000000e+00
3.312144e+03,0.000000e+00
3.313108e+03,0.000000e+00
3.314072e+03,0.000000e+00
3.315036e+03,0.000000e+00
3.316000e+03,0.000000e+00
3.316965e+03,0.000000e+00
3.317929e+03,0.000000e+00
3.318893e+03,0.000000e+00
3.319857e+03,0.000000e+00
3.320822e+03,0.000000e+00
3.321786e+03,0.000000e+00
3.322750e+03,0.000000e+00
3.323714e+03,0.000000e+00
3.324678e+03,0.000000e+00
3.325643e+03,0.000000e+00
3.326607e+03,0.000000e+00
3.327571e+03,0.000000e+00
3.328535e+03,0.000000e+00
3.329500e+03,0.000000e+00
3.330464e+03,0.000000e+00
3.331428e+03,0.000000e+00
3.332392e+03,0.000000e+00
3.333357e+03,0.000000e+00
3.334321e+03,0.000000e+00
3.335285e+03,0.000000e+00
3.336249e+03,0.000000e+00
3.337214e+03,0.000000e+00
3.338178e+03,0.000000e+00
3.339142e+03,0.000000e+00
3.340106e+03,0.000000e+00
3.341071e+03,0.000000e+00
3.342035e+03,0.000000e+00
3.342999e+03,0.000000e+00
3.343963e+03,0.000000e+00
3.344927e+03,0.000000e+00
3.345892e+03,0.000000e+00
3.346856e+03,0.000000e+00
3.347820e+03,0.000000e+00
3.348784e+03,0.000000e+00
3.349749e+03,0.000000e+00
3.350713e+03,0.000000e+00
3.351677e+03,0.000000e+00
3.352641e+03,0.000000e+00
3.353605e+03,0.000000e+00
3.354570e+03,0.000000e+00
3.355534e+03,0.000000e+00
3.356498e+03,0.000000e+00
3.357462e+03,0.000000e+00
3.358427e+03,0.000000e+00
3.359391e+03,0.000000e+00
3.360355e+03,0.000000e+00
3.361319e+03,0.000000e+00
3.362284e+03,0.000000e+00
3.363248e+03,0.000000e+00
3.364212e+03,0.000000e+00
3.365176e+03,0.000000e+00
3.366141e+03,0.000000e+00
3.367105e+03,0.000000e+00
3.368069e+03,0.000000e+00
3.369033e+03,0.000000e+00
3.369998e+03,0.000000e+00
3.370962e+03,0.000000e+00
3.371926e+03,0.000000e+00
3.372890e+03,0.000000e+00
3.373854e+03,0.000000e+00
3.374819e+03,0.000000e+00
3.375783e+03,0.000000e+00
3.376747e+03,0.000000e+00
3.377711e+03,0.000000e+00
3.378676e+03,0.000000e+00
3.379640e+03,0.000000e+00
3.380604e+03,0.000000e+00
3.381568e+03,0.000000e+00
3.382532e+03,0.000000e+00
3.383497e+03,0.000000e+00
3.384461e+03,0.000000e+00
3.385425e+03,0.000000e+00
3.386389e+03,0.000000e+00
3.387354e+03,0.000000e+00
3.388318e+03,0.000000e+00
3.389282e+03,0.000000e+00
3.390246e+03,0.000000e+00
3.391211e+03,0.000000e+00
3.392175e+03,0.000000e+00
3.393139e+03,0.000000e+00
3.394103e+03,0.000000e+00
3.395068e+03,0.000000e+00
3.396032e+03,0.000000e+00
3.396996e+03,0.000000e+00
3.397960e+03,0.000000e+00
3.398925e+03,0.000000e+00
3.399889e+03,0.000000e+00
3.400853e+03,0.000000e+00
3.401817e+03,0.000000e+00
3.402781e+03,0.000000e+00
3.403746e+03,0.000000e+00
3.404710e+03,0.000000e+00
3.405674e+03,0.000000e+00
3.406638e+03,0.000000e+00
3.407603e+03,0.000000e+00
3.408567e+03,0.000000e+00
3.409531e+03,0.000000e+00
3.410495e+03,0.000000e+00
3.411459e+03,0.000000e+00
3.412424e+03,0.000000e+00
3.413388e+03,0.000000e+00
3.414352e+03,0.000000e+00
3.415316e+03,0.000000e+00
3.416281e+03,0.000000e+00
3.417245e+03,0.000000e+00
3.418209e+03,0.000000e+00
3.419173e+03,0.000000e+00
3.420138e+03,0.000000e+00
3.421102e+03,0.000000e+00
3.422066e+03,0.000000e+00
3.423030e+03,0.000000e+00
3.423995e+03,0.000000e+00
3.424959e+03,0.000000e+00
3.425923e+03,0.000000e+00
3.426887e+03,0.000000e+00
3.427852e+03,0.000000e+00
3.428816e+03,0.000000e+00
3.429780e+03,0.000000e+00
3.430744e+03,0.000000e+00
3.431708e+03,0.000000e+00
3.432673e+03,0.000000e+00
3.433637e+03,0.000000e+00
3.434601e+03,0.000000e+00
3.435565e+03,0.000000e+00
3.436530e+03,0.000000e+00
3.437494e+03,0.000000e+00
3.438458e+03,0.000000e+00
3.439422e+03,0.000000e+00
3.440386e+03,0.000000e+00
3.441351e+03,0.000000e+00
3.442315e+03,0.000000e+00
3.443279e+03,0.000000e+00
3.444243e+03,0.000000e+00
3.445208e+03,0.000000e+00
3.446172e+03,0.000000e+00
3.447136e+03,0.000000e+00
3.448100e+03,0.000000e+00
3.449065e+03,0.000000e+00
3.450029e+03,0.000000e+00
3.450993e+03,0.000000e+00
3.451957e+03,0.000000e+00
3.452922e+03,0.000000e+00
3.453886e+03,0.000000e+00
3.454850e+03,0.000000e+00
3.455814e+03,0.000000e+00
3.456779e+03,0.000000e+00
3.457743e+03,0.000000e+00
3.458707e+03,0.000000e+00
3.459671e+03,0.000000e+00
3.460635e+03,0.000000e+00
3.461600e+03,0.000000e+00
3.462564e+03,0.000000e+00
3.463528e+03,0.000000e+00
3.464492e+03,0.000000e+00
3.465457e+03,0.000000e+00
3.466421e+03,0.000000e+00
3.467385e+03,0.000000e+00
3.468349e+03,0.000000e+00
3.469313e+03,0.000000e+00
3.470278e+03,0.000000e+00
3.471242e+03,0.000000e+00
3.472206e+03,0.000000e+00
3.473170e+03,0.000000e+00
3.474135e+03,0.000000e+00
3.475099e+03,0.000000e+00
3.476063e+03,0.000000e+00
3.477027e+03,0.000000e+00
3.477992e+03,0.000000e+00
3.478956e+03,0.000000e+00
3.479920e+03,0.000000e+00
3.480884e+03,0.000000e+00
3.481849e+03,0.000000e+00
3.482813e+03,0.000000e+00
3.483777e+03,0.000000e+00
3.484741e+03,0.000000e+00
3.485706e+03,0.000000e+00
3.486670e+03,0.000000e+00
3.487634e+03,0.000000e+00
3.488598e+03,0.000000e+00
3.489563e+03,0.000000e+00
3.490527e+03,0.000000e+00
3.491491e+03,0.000000e+00
3.492455e+03,0.000000e+00
3.493419e+03,0.000000e+00
3.494384e+03,0.000000e+00
3.495348e+03,0.000000e+00
3.496312e+03,0.000000e+00
3.497276e+03,0.000000e+00
3.498240e+03,0.000000e+00
3.499205e+03,0.000000e+00
3.500169e+03,0.000000e+00
