9.931763e+01,0.000000e+00
1.002819e+02,0.000000e+00
1.012461e+02,0.000000e+00
1.022103e+02,0.000000e+00
1.031746e+02,0.000000e+00
1.041388e+02,0.000000e+00
1.051030e+02,0.000000e+00
1.060673e+02,0.000000e+00
1.070315e+02,0.000000e+00
1.079957e+02,0.000000e+00
1.089600e+02,0.000000e+00
1.099242e+02,0.000000e+00
1.108884e+02,0.000000e+00
1.118527e+02,0.000000e+00
1.128169e+02,0.000000e+00
1.137811e+02,0.000000e+00
1.147454e+02,0.000000e+00
1.157096e+02,0.000000e+00
1.166738e+02,0.000000e+00
1.176381e+02,0.000000e+00
1.186023e+02,0.000000e+00
1.195665e+02,0.000000e+00
1.205308e+02,0.000000e+00
1.214950e+02,0.000000e+00
1.224592e+02,0.000000e+00
1.234235e+02,0.000000e+00
1.243877e+02,0.000000e+00
1.253519e+02,0.000000e+00
1.263162e+02,0.000000e+00
1.272804e+02,0.000000e+00
1.282446e+02,0.000000e+00
1.292089e+02,0.000000e+00
1.301731e+02,0.000000e+00
1.311373e+02,0.000000e+00
1.321016e+02,0.000000e+00
1.330658e+02,0.000000e+00
1.340300e+02,0.000000e+00
1.349943e+02,0.000000e+00
1.359585e+02,0.000000e+00
1.369227e+02,0.000000e+00
1.378870e+02,0.000000e+00
1.388512e+02,0.000000e+00
1.398154e+02,0.000000e+00
1.407797e+02,0.000000e+00
1.417439e+02,0.000000e+00
1.427081e+02,0.000000e+00
1.436724e+02,0.000000e+00
1.446366e+02,0.000000e+00
1.456008e+02,0.000000e+00
1.465651e+02,0.000000e+00
1.475293e+02,0.000000e+00
1.484935e+02,0.000000e+00
1.494578e+02,0.000000e+00
1.504220e+02,0.000000e+00
1.513862e+02,0.000000e+00
1.523505e+02,0.000000e+00
1.533147e+02,0.000000e+00
1.542789e+02,0.000000e+00
1.552432e+02,0.000000e+00
1.562074e+02,0.000000e+00
1.571716e+02,0.000000e+00
1.581359e+02,0.000000e+00
1.591001e+02,0.000000e+00
1.600643e+02,0.000000e+00
1.610286e+02,0.000000e+00
1.619928e+02,0.000000e+00
1.629570e+02,0.000000e+00
1.639213e+02,0.000000e+00
1.648855e+02,0.000000e+00
1.658497e+02,0.000000e+00
1.668140e+02,0.000000e+00
1.677782e+02,0.000000e+00
1.687424e+02,0.000000e+00
1.697067e+02,0.000000e+00
1.706709e+02,0.000000e+00
1.716351e+02,0.000000e+00
1.725994e+02,0.000000e+00
1.735636e+02,0.000000e+00
1.745278e+02,0.000000e+00
1.754921e+02,0.000000e+00
1.764563e+02,0.000000e+00
1.774205e+02,0.000000e+00
1.783848e+02,0.000000e+00
1.793490e+02,0.000000e+00
1.803132e+02,0.000000e+00
1.812775e+02,0.000000e+00
1.822417e+02,0.000000e+00
1.832059e+02,0.000000e+00
1.841702e+02,0.000000e+00
1.851344e+02,0.000000e+00
1.860986e+02,0.000000e+00
1.870629e+02,0.000000e+00
1.880271e+02,0.000000e+00
1.889913e+02,0.000000e+00
1.899556e+02,0.000000e+00
1.909198e+02,0.000000e+00
1.918840e+02,0.000000e+00
1.928483e+02,0.000000e+00
1.938125e+02,0.000000e+00
1.947767e+02,0.000000e+00
1.957410e+02,0.000000e+00
1.967052e+02,0.000000e+00
1.976694e+02,0.000000e+00
1.986337e+02,0.000000e+00
1.995979e+02,5.233050e+03
2.005621e+02,5.250023e+03
2.015264e+02,5.264861e+03
2.024906e+02,5.274589e+03
2.034548e+02,5.284385e+03
2.044191e+02,5.293626e+03
2.053833e+02,5.301898e+03
2.063475e+02,5.309996e+03
2.073118e+02,5.320672e+03
2.082760e+02,5.336981e+03
2.092402e+02,5.345987e+03
2.102045e+02,5.344632e+03
2.111687e+02,5.340866e+03
2.121329e+02,5.338865e+03
2.130972e+02,5.338561e+03
2.140614e+02,5.340072e+03
2.150256e+02,5.346655e+03
2.159899e+02,5.362037e+03
2.169541e+02,5.378783e+03
2.179183e+02,5.397571e+03
2.188826e+02,5.416288e+03
2.198468e+02,5.429648e+03
2.208110e+02,5.430298e+03
2.217753e+02,5.418001e+03
2.227395e+02,5.407583e+03
2.237037e+02,5.403490e+03
2.246680e+02,5.405281e+03
2.256322e+02,5.411977e+03
2.265964e+02,5.428662e+03
2.275607e+02,5.447754e+03
2.285249e+02,5.458711e+03
2.294892e+02,5.459751e+03
2.304534e+02,5.462276e+03
2.314176e+02,5.473355e+03
2.323819e+02,5.490032e+03
2.333461e+02,5.504576e+03
2.343103e+02,5.515089e+03
2.352746e+02,5.523282e+03
2.362388e+02,5.530570e+03
2.372030e+02,5.535501e+03
2.381673e+02,5.537640e+03
2.391315e+02,5.540001e+03
2.400957e+02,5.545697e+03
2.410600e+02,5.552699e+03
2.420242e+02,5.563333e+03
2.429884e+02,5.577531e+03
2.439527e+02,5.590735e+03
2.449169e+02,5.597202e+03
2.458811e+02,5.594596e+03
2.468454e+02,5.597951e+03
2.478096e+02,5.615305e+03
2.487738e+02,5.633178e+03
2.497381e+02,5.640760e+03
2.507023e+02,5.636325e+03
2.516665e+02,5.627042e+03
2.526308e+02,5.623841e+03
2.535950e+02,5.629136e+03
2.545592e+02,5.633334e+03
2.555235e+02,5.636315e+03
2.564877e+02,5.639596e+03
2.574519e+02,5.645698e+03
2.584161e+02,5.657208e+03
2.593804e+02,5.674365e+03
2.603446e+02,5.690514e+03
2.613088e+02,5.702272e+03
2.622731e+02,5.712552e+03
2.632373e+02,5.721722e+03
2.642015e+02,5.728682e+03
2.651658e+02,5.733143e+03
2.661300e+02,5.735187e+03
2.670942e+02,5.735546e+03
2.680585e+02,5.740313e+03
2.690227e+02,5.755005e+03
2.699869e+02,5.772166e+03
2.709512e+02,5.786264e+03
2.719154e+02,5.797296e+03
2.728796e+02,5.806695e+03
2.738439e+02,5.815696e+03
2.748081e+02,5.825386e+03
2.757723e+02,5.837725e+03
2.767366e+02,5.851062e+03
2.777008e+02,5.862368e+03
2.786650e+02,5.868741e+03
2.796293e+02,5.868528e+03
2.805935e+02,5.865438e+03
2.815577e+02,5.864503e+03
2.825220e+02,5.866523e+03
2.834862e+02,5.868819e+03
2.844504e+02,5.867694e+03
2.854147e+02,5.864109e+03
2.863789e+02,5.859334e+03
2.873431e+02,5.853333e+03
2.883074e+02,5.848281e+03
2.892716e+02,5.846961e+03
2.902358e+02,5.850229e+03
2.912001e+02,5.857362e+03
2.921643e+02,5.862173e+03
2.931285e+02,5.864002e+03
2.940928e+02,5.866869e+03
2.950570e+02,5.870841e+03
2.960212e+02,5.875365e+03
2.969855e+02,5.881012e+03
2.979497e+02,5.891126e+03
2.989139e+02,5.911981e+03
2.998782e+02,5.924945e+03
3.008424e+02,5.928750e+03
3.018066e+02,5.929284e+03
3.027709e+02,5.928165e+03
3.037351e+02,5.924656e+03
3.046993e+02,5.919478e+03
3.056636e+02,5.914659e+03
3.066278e+02,5.909991e+03
3.075920e+02,5.909341e+03
3.085563e+02,5.917005e+03
3.095205e+02,5.931176e+03
3.104847e+02,5.945120e+03
3.114490e+02,5.954023e+03
3.124132e+02,5.958587e+03
3.133774e+02,5.960601e+03
3.143417e+02,5.958215e+03
3.153059e+02,5.955375e+03
3.162701e+02,5.961522e+03
3.172344e+02,5.983508e+03
3.181986e+02,6.000917e+03
3.191628e+02,6.005615e+03
3.201271e+02,6.002022e+03
3.210913e+02,5.997157e+03
3.220555e+02,5.993052e+03
3.230198e+02,5.989761e+03
3.239840e+02,5.990712e+03
3.249482e+02,5.999890e+03
3.259125e+02,6.008303e+03
3.268767e+02,6.011919e+03
3.278409e+02,6.012356e+03
3.288052e+02,6.014151e+03
3.297694e+02,6.022477e+03
3.307336e+02,6.039483e+03
3.316979e+02,6.050401e+03
3.326621e+02,6.051077e+03
3.336263e+02,6.046897e+03
3.345906e+02,6.039028e+03
3.355548e+02,6.029190e+03
3.365190e+02,6.023468e+03
3.374833e+02,6.028919e+03
3.384475e+02,6.046187e+03
3.394117e+02,6.064285e+03
3.403760e+02,6.079028e+03
3.413402e+02,6.090150e+03
3.423044e+02,6.098043e+03
3.432687e+02,6.097894e+03
3.442329e+02,6.096836e+03
3.451971e+02,6.100684e+03
3.461614e+02,6.108035e+03
3.471256e+02,6.114600e+03
3.480898e+02,6.119649e+03
3.490541e+02,6.125425e+03
3.500183e+02,6.128095e+03
3.509825e+02,6.126258e+03
3.519468e+02,6.125044e+03
3.529110e+02,6.127805e+03
3.538752e+02,6.134153e+03
3.548395e+02,6.140791e+03
3.558037e+02,6.143327e+03
3.567680e+02,6.137445e+03
3.577322e+02,6.135082e+03
3.586964e+02,6.142157e+03
3.596607e+02,6.154237e+03
3.606249e+02,6.164726e+03
3.615891e+02,6.168158e+03
3.625534e+02,6.164375e+03
3.635176e+02,6.156667e+03
3.644818e+02,6.145210e+03
3.654461e+02,6.135733e+03
3.664103e+02,6.133755e+03
3.673745e+02,6.141076e+03
3.683388e+02,6.154957e+03
3.693030e+02,6.177202e+03
3.702672e+02,6.200563e+03
3.712315e+02,6.214732e+03
3.721957e+02,6.216417e+03
3.731599e+02,6.210828e+03
3.741242e+02,6.208040e+03
3.750884e+02,6.216497e+03
3.760526e+02,6.223702e+03
3.770169e+02,6.225733e+03
3.779811e+02,6.225432e+03
3.789453e+02,6.226509e+03
3.799096e+02,6.230650e+03
3.808738e+02,6.235810e+03
3.818380e+02,6.235767e+03
3.828023e+02,6.228863e+03
3.837665e+02,6.224561e+03
3.847307e+02,6.224946e+03
3.856950e+02,6.228881e+03
3.866592e+02,6.233465e+03
3.876234e+02,6.236804e+03
3.885877e+02,6.239039e+03
3.895519e+02,6.241103e+03
3.905161e+02,6.242583e+03
3.914804e+02,6.242632e+03
3.924446e+02,6.240275e+03
3.934088e+02,6.235622e+03
3.943731e+02,6.234323e+03
3.953373e+02,6.240045e+03
3.963015e+02,6.248997e+03
3.972658e+02,6.256406e+03
3.982300e+02,6.261458e+03
3.991942e+02,6.265915e+03
4.001585e+02,6.269363e+03
4.011227e+02,6.264056e+03
4.020869e+02,6.262037e+03
4.030512e+02,6.264305e+03
4.040154e+02,6.268323e+03
4.049796e+02,6.272224e+03
4.059439e+02,6.274082e+03
4.069081e+02,6.274851e+03
4.078723e+02,6.279292e+03
4.088366e+02,6.288480e+03
4.098008e+02,6.294687e+03
4.107650e+02,6.294737e+03
4.117293e+02,6.289947e+03
4.126935e+02,6.287394e+03
4.136577e+02,6.291621e+03
4.146220e+02,6.298743e+03
4.155862e+02,6.303114e+03
4.165504e+02,6.303601e+03
4.175147e+02,6.302366e+03
4.184789e+02,6.302423e+03
4.194431e+02,6.304050e+03
4.204074e+02,6.306258e+03
4.213716e+02,6.310186e+03
4.223358e+02,6.314096e+03
4.233001e+02,6.316258e+03
4.242643e+02,6.316345e+03
4.252285e+02,6.315199e+03
4.261928e+02,6.313761e+03
4.271570e+02,6.312412e+03
4.281212e+02,6.311424e+03
4.290855e+02,6.307673e+03
4.300497e+02,6.302768e+03
4.310139e+02,6.301978e+03
4.319782e+02,6.311579e+03
4.329424e+02,6.325493e+03
4.339066e+02,6.336750e+03
4.348709e+02,6.344024e+03
4.358351e+02,6.346669e+03
4.367993e+02,6.343447e+03
4.377636e+02,6.330062e+03
4.387278e+02,6.323485e+03
4.396920e+02,6.331912e+03
4.406563e+02,6.343104e+03
4.416205e+02,6.346868e+03
4.425847e+02,6.340422e+03
4.435490e+02,6.330475e+03
4.445132e+02,6.326438e+03
4.454774e+02,6.329925e+03
4.464417e+02,6.336573e+03
4.474059e+02,6.346875e+03
4.483701e+02,6.357189e+03
4.493344e+02,6.364282e+03
4.502986e+02,6.369231e+03
4.512628e+02,6.371875e+03
4.522271e+02,6.371042e+03
4.531913e+02,6.367196e+03
4.541555e+02,6.362009e+03
4.551198e+02,6.355451e+03
4.560840e+02,6.347827e+03
4.570482e+02,6.343523e+03
4.580125e+02,6.351314e+03
4.589767e+02,6.359461e+03
4.599409e+02,6.360424e+03
4.609052e+02,6.353664e+03
4.618694e+02,6.344963e+03
4.628336e+02,6.339366e+03
4.637979e+02,6.337151e+03
4.647621e+02,6.336674e+03
4.657263e+02,6.339297e+03
4.666906e+02,6.346352e+03
4.676548e+02,6.358632e+03
4.686190e+02,6.379185e+03
4.695833e+02,6.390595e+03
4.705475e+02,6.377587e+03
4.715117e+02,6.353606e+03
4.724760e+02,6.339500e+03
4.734402e+02,6.343052e+03
4.744044e+02,6.357397e+03
4.753687e+02,6.366078e+03
4.763329e+02,6.365832e+03
4.772971e+02,6.364937e+03
4.782614e+02,6.363679e+03
4.792256e+02,6.363338e+03
4.801898e+02,6.365108e+03
4.811541e+02,6.370051e+03
4.821183e+02,6.375266e+03
4.830826e+02,6.375688e+03
4.840468e+02,6.370431e+03
4.850110e+02,6.365812e+03
4.859753e+02,6.366983e+03
4.869395e+02,6.374066e+03
4.879037e+02,6.379368e+03
4.888680e+02,6.384460e+03
4.898322e+02,6.388000e+03
4.907964e+02,6.388853e+03
4.917607e+02,6.387729e+03
4.927249e+02,6.386597e+03
4.936891e+02,6.387536e+03
4.946534e+02,6.390576e+03
4.956176e+02,6.391336e+03
4.965818e+02,6.388476e+03
4.975461e+02,6.384943e+03
4.985103e+02,6.381725e+03
4.994745e+02,6.376842e+03
5.004388e+02,6.373962e+03
5.014030e+02,6.380531e+03
5.023672e+02,6.391298e+03
5.033315e+02,6.395113e+03
5.042957e+02,6.387579e+03
5.052599e+02,6.373751e+03
5.062242e+02,6.366318e+03
5.071884e+02,6.369414e+03
5.081526e+02,6.375838e+03
5.091169e+02,6.391924e+03
5.100811e+02,6.409856e+03
5.110453e+02,6.418742e+03
5.120095e+02,6.411311e+03
5.129738e+02,6.398386e+03
5.139380e+02,6.393040e+03
5.149022e+02,6.395396e+03
5.158665e+02,6.399721e+03
5.168307e+02,6.401227e+03
5.177949e+02,6.396838e+03
5.187592e+02,6.390095e+03
5.197234e+02,6.387609e+03
5.206876e+02,6.386562e+03
5.216519e+02,6.384438e+03
5.226161e+02,6.382756e+03
5.235803e+02,6.384719e+03
5.245446e+02,6.396419e+03
5.255088e+02,6.415426e+03
5.264730e+02,6.423842e+03
5.274373e+02,6.417179e+03
5.284015e+02,6.406854e+03
5.293657e+02,6.401411e+03
5.303300e+02,6.401491e+03
5.312942e+02,6.400983e+03
5.322584e+02,6.401467e+03
5.332227e+02,6.403941e+03
5.341869e+02,6.407036e+03
5.351511e+02,6.409472e+03
5.361154e+02,6.412244e+03
5.370796e+02,6.417080e+03
5.380438e+02,6.423924e+03
5.390081e+02,6.437446e+03
5.399723e+02,6.468092e+03
5.409365e+02,6.501136e+03
5.419008e+02,6.521093e+03
5.428650e+02,6.521405e+03
5.438292e+02,6.513570e+03
5.447935e+02,6.499580e+03
5.457577e+02,6.482298e+03
5.467219e+02,6.467615e+03
5.476862e+02,6.458031e+03
5.486504e+02,6.452694e+03
5.496146e+02,6.450166e+03
5.505789e+02,6.454444e+03
5.515431e+02,6.454506e+03
5.525073e+02,6.447649e+03
5.534716e+02,6.439818e+03
5.544358e+02,6.436268e+03
5.554000e+02,6.436318e+03
5.563643e+02,6.439217e+03
5.573285e+02,6.446109e+03
5.582927e+02,6.455644e+03
5.592570e+02,6.463784e+03
5.602212e+02,6.469744e+03
5.611854e+02,6.472927e+03
5.621497e+02,6.468936e+03
5.631139e+02,6.443707e+03
5.640781e+02,6.421085e+03
5.650424e+02,6.413752e+03
5.660066e+02,6.418485e+03
5.669708e+02,6.421005e+03
5.679351e+02,6.413267e+03
5.688993e+02,6.399515e+03
5.698635e+02,6.385187e+03
5.708278e+02,6.370958e+03
5.717920e+02,6.360935e+03
5.727562e+02,6.357589e+03
5.737205e+02,6.361202e+03
5.746847e+02,6.365338e+03
5.756489e+02,6.372572e+03
5.766132e+02,6.376675e+03
5.775774e+02,6.372929e+03
5.785416e+02,6.361508e+03
5.795059e+02,6.350835e+03
5.804701e+02,6.348842e+03
5.814343e+02,6.352994e+03
5.823986e+02,6.354544e+03
5.833628e+02,6.351453e+03
5.843270e+02,6.348728e+03
5.852913e+02,6.353089e+03
5.862555e+02,6.376146e+03
5.872197e+02,6.388523e+03
5.881840e+02,6.381542e+03
5.891482e+02,6.368077e+03
5.901124e+02,6.357297e+03
5.910767e+02,6.351244e+03
5.920409e+02,6.351747e+03
5.930051e+02,6.365357e+03
5.939694e+02,6.388533e+03
5.949336e+02,6.403518e+03
5.958978e+02,6.404398e+03
5.968621e+02,6.395247e+03
5.978263e+02,6.385953e+03
5.987905e+02,6.376633e+03
5.997548e+02,6.369083e+03
6.007190e+02,6.360742e+03
6.016832e+02,6.356458e+03
6.026475e+02,6.361497e+03
6.036117e+02,6.379861e+03
6.045759e+02,6.401328e+03
6.055402e+02,6.414562e+03
6.065044e+02,6.419160e+03
6.074686e+02,6.419109e+03
6.084329e+02,6.417419e+03
6.093971e+02,6.414220e+03
6.103613e+02,6.407010e+03
6.113256e+02,6.392628e+03
6.122899e+02,6.378100e+03
6.132541e+02,6.363236e+03
6.142183e+02,6.348974e+03
6.151826e+02,6.337244e+03
6.161468e+02,6.332106e+03
6.171110e+02,6.330583e+03
6.180753e+02,6.328188e+03
6.190395e+02,6.324349e+03
6.200037e+02,6.318674e+03
6.209680e+02,6.309764e+03
6.219322e+02,6.298893e+03
6.228964e+02,6.294617e+03
6.238607e+02,6.300481e+03
6.248249e+02,6.308494e+03
6.257891e+02,6.316680e+03
6.267534e+02,6.322565e+03
6.277176e+02,6.323733e+03
6.286818e+02,6.319628e+03
6.296461e+02,6.313555e+03
6.306103e+02,6.306761e+03
6.315745e+02,6.300174e+03
6.325388e+02,6.297540e+03
6.335030e+02,6.301924e+03
6.344672e+02,6.312758e+03
6.354315e+02,6.317385e+03
6.363957e+02,6.309459e+03
6.373599e+02,6.299215e+03
6.383242e+02,6.293780e+03
6.392884e+02,6.293330e+03
6.402526e+02,6.292072e+03
6.412169e+02,6.289271e+03
6.421811e+02,6.283763e+03
6.431453e+02,6.272206e+03
6.441096e+02,6.255484e+03
6.450738e+02,6.240151e+03
6.460380e+02,6.233893e+03
6.470023e+02,6.238258e+03
6.479665e+02,6.243863e+03
6.489307e+02,6.249177e+03
6.498950e+02,6.254338e+03
6.508592e+02,6.259521e+03
6.518234e+02,6.264384e+03
6.527877e+02,6.265036e+03
6.537519e+02,6.261070e+03
6.547161e+02,6.253536e+03
6.556804e+02,6.240942e+03
6.566446e+02,6.224574e+03
6.576088e+02,6.210537e+03
6.585731e+02,6.206872e+03
6.595373e+02,6.211340e+03
6.605015e+02,6.208967e+03
6.614658e+02,6.195648e+03
6.624300e+02,6.183406e+03
6.633942e+02,6.184914e+03
6.643585e+02,6.207899e+03
6.653227e+02,6.224062e+03
6.662869e+02,6.226231e+03
6.672512e+02,6.225342e+03
6.682154e+02,6.228998e+03
6.691796e+02,6.237375e+03
6.701439e+02,6.244088e+03
6.711081e+02,6.247009e+03
6.720723e+02,6.245015e+03
6.730366e+02,6.234438e+03
6.740008e+02,6.215019e+03
6.749650e+02,6.193343e+03
6.759293e+02,6.177040e+03
6.768935e+02,6.168598e+03
6.778577e+02,6.161140e+03
6.788220e+02,6.158264e+03
6.797862e+02,6.157093e+03
6.807504e+02,6.152099e+03
6.817147e+02,6.139922e+03
6.826789e+02,6.131197e+03
6.836431e+02,6.130438e+03
6.846074e+02,6.132415e+03
6.855716e+02,6.133936e+03
6.865358e+02,6.135290e+03
6.875001e+02,6.136167e+03
6.884643e+02,6.136446e+03
6.894285e+02,6.136338e+03
6.903928e+02,6.131572e+03
6.913570e+02,6.117982e+03
6.923212e+02,6.103680e+03
6.932855e+02,6.098772e+03
6.942497e+02,6.112317e+03
6.952139e+02,6.122566e+03
6.961782e+02,6.128446e+03
6.971424e+02,6.130036e+03
6.981066e+02,6.124214e+03
6.990709e+02,6.108240e+03
7.000351e+02,6.090118e+03
7.009993e+02,6.078636e+03
7.019636e+02,6.073787e+03
7.029278e+02,6.073161e+03
7.038920e+02,6.076070e+03
7.048563e+02,6.077717e+03
7.058205e+02,6.072670e+03
7.067847e+02,6.059865e+03
7.077490e+02,6.052875e+03
7.087132e+02,6.059726e+03
7.096774e+02,6.071517e+03
7.106417e+02,6.076304e+03
7.116059e+02,6.071671e+03
7.125701e+02,6.064411e+03
7.135344e+02,6.054506e+03
7.144986e+02,6.046008e+03
7.154628e+02,6.042675e+03
7.164271e+02,6.044073e+03
7.173913e+02,6.044754e+03
7.183555e+02,6.037653e+03
7.193198e+02,6.024503e+03
7.202840e+02,6.015747e+03
7.212482e+02,6.013992e+03
7.222125e+02,6.015865e+03
7.231767e+02,6.017249e+03
7.241409e+02,6.016995e+03
7.251052e+02,6.014491e+03
7.260694e+02,6.005908e+03
7.270336e+02,5.997491e+03
7.279979e+02,5.994234e+03
7.289621e+02,5.996482e+03
7.299263e+02,5.999817e+03
7.308906e+02,6.007133e+03
7.318548e+02,6.010900e+03
7.328190e+02,5.999869e+03
7.337833e+02,5.974527e+03
7.347475e+02,5.949418e+03
7.357117e+02,5.941122e+03
7.366760e+02,5.949150e+03
7.376402e+02,5.957811e+03
7.386044e+02,5.967591e+03
7.395687e+02,5.975642e+03
7.405329e+02,5.978275e+03
7.414971e+02,5.974183e+03
7.424614e+02,5.968366e+03
7.434256e+02,5.961911e+03
7.443898e+02,5.958998e+03
7.453541e+02,5.960142e+03
7.463183e+02,5.961961e+03
7.472825e+02,5.960541e+03
7.482468e+02,5.952693e+03
7.492110e+02,5.942533e+03
7.501752e+02,5.937253e+03
7.511395e+02,5.938727e+03
7.521037e+02,5.942138e+03
7.530679e+02,5.941447e+03
7.540322e+02,5.935633e+03
7.549964e+02,5.927969e+03
7.559606e+02,5.919088e+03
7.569249e+02,5.911009e+03
7.578891e+02,5.904995e+03
7.588533e+02,5.901685e+03
7.598176e+02,5.900912e+03
7.607818e+02,5.898238e+03
7.617460e+02,5.892834e+03
7.627103e+02,5.885483e+03
7.636745e+02,5.879414e+03
7.646387e+02,5.877351e+03
7.656030e+02,5.883530e+03
7.665672e+02,5.891236e+03
7.675314e+02,5.890150e+03
7.684957e+02,5.879784e+03
7.694599e+02,5.869802e+03
7.704241e+02,5.872197e+03
7.713884e+02,5.882318e+03
7.723526e+02,5.877841e+03
7.733168e+02,5.857773e+03
7.742811e+02,5.845220e+03
7.752453e+02,5.849093e+03
7.762095e+02,5.864500e+03
7.771738e+02,5.875303e+03
7.781380e+02,5.879921e+03
7.791022e+02,5.876860e+03
7.800665e+02,5.864093e+03
7.810307e+02,5.846900e+03
7.819949e+02,5.833128e+03
7.829592e+02,5.828384e+03
7.839234e+02,5.827484e+03
7.848876e+02,5.830505e+03
7.858519e+02,5.833200e+03
7.868161e+02,5.827690e+03
7.877803e+02,5.808119e+03
7.887446e+02,5.786830e+03
7.897088e+02,5.787693e+03
7.906730e+02,5.808938e+03
7.916373e+02,5.822286e+03
7.926015e+02,5.815049e+03
7.935657e+02,5.793103e+03
7.945300e+02,5.774951e+03
7.954942e+02,5.763572e+03
7.964584e+02,5.755016e+03
7.974227e+02,5.756283e+03
7.983869e+02,5.764539e+03
7.993511e+02,5.769708e+03
8.003154e+02,5.767019e+03
8.012796e+02,5.759386e+03
8.022438e+02,5.746756e+03
8.032081e+02,5.734391e+03
8.041723e+02,5.725479e+03
8.051365e+02,5.719795e+03
8.061008e+02,5.717893e+03
8.070650e+02,5.724135e+03
8.080292e+02,5.731269e+03
8.089935e+02,5.727891e+03
8.099577e+02,5.714080e+03
8.109219e+02,5.699356e+03
8.118862e+02,5.694177e+03
8.128504e+02,5.698097e+03
8.138146e+02,5.697927e+03
8.147789e+02,5.691768e+03
8.157431e+02,5.681583e+03
8.167073e+02,5.668785e+03
8.176716e+02,5.654425e+03
8.186358e+02,5.649409e+03
8.196000e+02,5.663224e+03
8.205643e+02,5.676822e+03
8.215285e+02,5.678917e+03
8.224927e+02,5.670363e+03
8.234570e+02,5.662378e+03
8.244212e+02,5.657819e+03
8.253854e+02,5.654992e+03
8.263497e+02,5.650521e+03
8.273139e+02,5.644311e+03
8.282781e+02,5.640510e+03
8.292424e+02,5.650481e+03
8.302066e+02,5.663428e+03
8.311708e+02,5.657475e+03
8.321351e+02,5.636452e+03
8.330993e+02,5.620638e+03
8.340635e+02,5.620547e+03
8.350278e+02,5.629747e+03
8.359920e+02,5.629156e+03
8.369562e+02,5.616408e+03
8.379205e+02,5.607851e+03
8.388847e+02,5.610436e+03
8.398489e+02,5.619778e+03
8.408132e+02,5.623669e+03
8.417774e+02,5.617435e+03
8.427416e+02,5.610422e+03
8.437059e+02,5.605567e+03
8.446701e+02,5.599717e+03
8.456343e+02,5.588761e+03
8.465986e+02,5.564828e+03
8.475628e+02,5.549029e+03
8.485270e+02,5.558416e+03
8.494913e+02,5.573937e+03
8.504555e+02,5.575122e+03
8.514197e+02,5.557476e+03
8.523840e+02,5.538102e+03
8.533482e+02,5.529079e+03
8.543124e+02,5.526726e+03
8.552767e+02,5.526247e+03
8.562409e+02,5.526353e+03
8.572051e+02,5.525267e+03
8.581694e+02,5.521881e+03
8.591336e+02,5.517224e+03
8.600978e+02,5.513868e+03
8.610621e+02,5.512367e+03
8.620263e+02,5.515253e+03
8.629905e+02,5.524983e+03
8.639548e+02,5.540544e+03
8.649190e+02,5.542172e+03
8.658832e+02,5.522584e+03
8.668475e+02,5.504134e+03
8.678117e+02,5.496453e+03
8.687759e+02,5.497466e+03
8.697402e+02,5.500751e+03
8.707044e+02,5.511686e+03
8.716686e+02,5.512821e+03
8.726329e+02,5.493779e+03
8.735971e+02,5.465618e+03
8.745613e+02,5.446396e+03
8.755256e+02,5.450857e+03
8.764898e+02,5.460179e+03
8.774540e+02,5.460541e+03
8.784183e+02,5.455186e+03
8.793825e+02,5.449974e+03
8.803467e+02,5.446658e+03
8.813110e+02,5.445524e+03
8.822752e+02,5.450190e+03
8.832394e+02,5.459502e+03
8.842037e+02,5.465646e+03
8.851679e+02,5.465386e+03
8.861321e+02,5.458908e+03
8.870964e+02,5.445078e+03
8.880606e+02,5.422870e+03
8.890248e+02,5.407920e+03
8.899891e+02,5.406275e+03
8.909533e+02,5.407919e+03
8.919175e+02,5.401263e+03
8.928818e+02,5.382556e+03
8.938460e+02,5.372091e+03
8.948102e+02,5.371805e+03
8.957745e+02,5.374973e+03
8.967387e+02,5.381656e+03
8.977029e+02,5.390320e+03
8.986672e+02,5.390373e+03
8.996314e+02,5.376515e+03
9.005956e+02,5.364333e+03
9.015599e+02,5.361290e+03
9.025241e+02,5.363474e+03
9.034883e+02,5.361993e+03
9.044526e+02,5.347958e+03
9.054168e+02,5.332039e+03
9.063810e+02,5.325746e+03
9.073453e+02,5.327464e+03
9.083095e+02,5.328884e+03
9.092737e+02,5.323584e+03
9.102380e+02,5.316874e+03
9.112022e+02,5.317093e+03
9.121664e+02,5.320854e+03
9.131307e+02,5.320530e+03
9.140949e+02,5.315574e+03
9.150591e+02,5.311137e+03
9.160234e+02,5.312282e+03
9.169876e+02,5.314963e+03
9.179518e+02,5.307216e+03
9.189161e+02,5.286440e+03
9.198803e+02,5.262033e+03
9.208445e+02,5.245256e+03
9.218088e+02,5.238532e+03
9.227730e+02,5.234024e+03
9.237372e+02,5.230210e+03
9.247015e+02,5.228212e+03
9.256657e+02,5.229532e+03
9.266299e+02,5.233952e+03
9.275942e+02,5.237422e+03
9.285584e+02,5.240737e+03
9.295226e+02,5.239759e+03
9.304869e+02,5.231883e+03
9.314511e+02,5.219833e+03
9.324153e+02,5.209709e+03
9.333796e+02,5.201066e+03
9.343438e+02,5.195061e+03
9.353080e+02,5.192522e+03
9.362723e+02,5.190044e+03
9.372365e+02,5.185013e+03
9.382007e+02,5.177827e+03
9.391650e+02,5.173792e+03
9.401292e+02,5.177442e+03
9.410934e+02,5.183703e+03
9.420577e+02,5.186363e+03
9.430219e+02,5.183472e+03
9.439861e+02,5.174920e+03
9.449504e+02,5.157745e+03
9.459146e+02,5.140399e+03
9.468788e+02,5.131879e+03
9.478431e+02,5.129945e+03
9.488073e+02,5.127421e+03
9.497715e+02,5.119287e+03
9.507358e+02,5.109851e+03
9.517000e+02,5.110271e+03
9.526642e+02,5.121081e+03
9.536285e+02,5.128583e+03
9.545927e+02,5.120308e+03
9.555569e+02,5.102995e+03
9.565212e+02,5.102688e+03
9.574854e+02,5.121765e+03
9.584496e+02,5.135462e+03
9.594139e+02,5.131143e+03
9.603781e+02,5.113575e+03
9.613423e+02,5.097061e+03
9.623066e+02,5.080924e+03
9.632708e+02,5.071004e+03
9.642350e+02,5.071641e+03
9.651993e+02,5.077383e+03
9.661635e+02,5.078865e+03
9.671277e+02,5.072496e+03
9.680920e+02,5.066097e+03
9.690562e+02,5.059289e+03
9.700204e+02,5.052205e+03
9.709847e+02,5.047461e+03
9.719489e+02,5.048055e+03
9.729131e+02,5.043636e+03
9.738774e+02,5.029073e+03
9.748416e+02,5.017230e+03
9.758058e+02,5.012415e+03
9.767701e+02,5.012136e+03
9.777343e+02,5.010780e+03
9.786985e+02,5.004881e+03
9.796628e+02,4.999439e+03
9.806270e+02,4.999899e+03
9.815912e+02,5.001778e+03
9.825555e+02,4.997796e+03
9.835197e+02,4.984278e+03
9.844839e+02,4.971469e+03
9.854482e+02,4.961547e+03
9.864124e+02,4.956440e+03
9.873766e+02,4.959099e+03
9.883409e+02,4.972049e+03
9.893051e+02,4.982140e+03
9.902693e+02,4.979170e+03
9.912336e+02,4.970854e+03
9.921978e+02,4.962300e+03
9.931620e+02,4.953287e+03
9.941263e+02,4.945483e+03
9.950905e+02,4.943972e+03
9.960547e+02,4.943149e+03
9.970190e+02,4.932661e+03
9.979832e+02,4.914867e+03
9.989474e+02,4.901661e+03
9.999117e+02,4.904658e+03
1.000876e+03,4.914401e+03
1.001840e+03,4.916326e+03
1.002804e+03,4.912939e+03
1.003769e+03,4.908496e+03
1.004733e+03,4.903086e+03
1.005697e+03,4.896014e+03
1.006661e+03,4.884404e+03
1.007626e+03,4.870792e+03
1.008590e+03,4.866720e+03
1.009554e+03,4.873565e+03
1.010518e+03,4.881134e+03
1.011482e+03,4.879158e+03
1.012447e+03,4.868576e+03
1.013411e+03,4.856444e+03
1.014375e+03,4.844989e+03
1.015339e+03,4.839425e+03
1.016304e+03,4.844525e+03
1.017268e+03,4.856468e+03
1.018232e+03,4.853120e+03
1.019196e+03,4.831536e+03
1.020161e+03,4.812326e+03
1.021125e+03,4.804688e+03
1.022089e+03,4.806641e+03
1.023053e+03,4.810546e+03
1.024018e+03,4.815614e+03
1.024982e+03,4.817157e+03
1.025946e+03,4.812770e+03
1.026910e+03,4.803688e+03
1.027875e+03,4.793966e+03
1.028839e+03,4.785629e+03
1.029803e+03,4.778930e+03
1.030767e+03,4.773597e+03
1.031731e+03,4.770956e+03
1.032696e+03,4.771448e+03
1.033660e+03,4.774748e+03
1.034624e+03,4.777703e+03
1.035588e+03,4.783751e+03
1.036552e+03,4.786668e+03
1.037517e+03,4.780849e+03
1.038481e+03,4.767860e+03
1.039445e+03,4.759065e+03
1.040409e+03,4.759153e+03
1.041374e+03,4.756008e+03
1.042338e+03,4.746898e+03
1.043302e+03,4.736171e+03
1.044266e+03,4.728209e+03
1.045231e+03,4.722885e+03
1.046195e+03,4.719300e+03
1.047159e+03,4.721437e+03
1.048123e+03,4.723845e+03
1.049088e+03,4.722507e+03
1.050052e+03,4.718309e+03
1.051016e+03,4.715706e+03
1.051980e+03,4.715316e+03
1.052945e+03,4.714763e+03
1.053909e+03,4.710514e+03
1.054873e+03,4.701703e+03
1.055837e+03,4.693413e+03
1.056802e+03,4.688120e+03
1.057766e+03,4.683996e+03
1.058730e+03,4.685438e+03
1.059694e+03,4.686880e+03
1.060658e+03,4.679641e+03
1.061623e+03,4.654055e+03
1.062587e+03,4.639288e+03
1.063551e+03,4.649235e+03
1.064515e+03,4.663304e+03
1.065479e+03,4.665317e+03
1.066444e+03,4.654236e+03
1.067408e+03,4.647115e+03
1.068372e+03,4.647899e+03
1.069336e+03,4.651571e+03
1.070301e+03,4.655264e+03
1.071265e+03,4.657357e+03
1.072229e+03,4.657260e+03
1.073193e+03,4.653258e+03
1.074158e+03,4.648806e+03
1.075122e+03,4.646462e+03
1.076086e+03,4.643609e+03
1.077050e+03,4.637225e+03
1.078015e+03,4.625616e+03
1.078979e+03,4.620987e+03
1.079943e+03,4.630331e+03
1.080907e+03,4.642422e+03
1.081872e+03,4.648768e+03
1.082836e+03,4.647335e+03
1.083800e+03,4.642030e+03
1.084764e+03,4.630401e+03
1.085729e+03,4.620871e+03
1.086693e+03,4.618499e+03
1.087657e+03,4.620112e+03
1.088621e+03,4.618509e+03
1.089585e+03,4.607940e+03
1.090550e+03,4.597084e+03
1.091514e+03,4.592593e+03
1.092478e+03,4.590255e+03
1.093442e+03,4.584098e+03
1.094406e+03,4.571907e+03
1.095371e+03,4.561653e+03
1.096335e+03,4.553701e+03
1.097299e+03,4.547354e+03
1.098263e+03,4.542728e+03
1.099228e+03,4.539186e+03
1.100192e+03,4.535235e+03
1.101156e+03,4.530338e+03
1.102120e+03,4.524424e+03
1.103085e+03,4.515931e+03
1.104049e+03,4.507210e+03
1.105013e+03,4.502832e+03
1.105977e+03,4.512138e+03
1.106942e+03,4.515293e+03
1.107906e+03,4.503638e+03
1.108870e+03,4.488565e+03
1.109834e+03,4.480354e+03
1.110799e+03,4.481420e+03
1.111763e+03,4.482943e+03
1.112727e+03,4.485242e+03
1.113691e+03,4.487977e+03
1.114656e+03,4.489839e+03
1.115620e+03,4.491053e+03
1.116584e+03,4.493601e+03
1.117548e+03,4.499195e+03
1.118512e+03,4.500479e+03
1.119477e+03,4.495401e+03
1.120441e+03,4.485658e+03
1.121405e+03,4.474363e+03
1.122369e+03,4.459712e+03
1.123334e+03,4.446765e+03
1.124298e+03,4.436593e+03
1.125262e+03,4.428726e+03
1.126226e+03,4.423422e+03
1.127191e+03,4.421314e+03
1.128155e+03,4.419061e+03
1.129119e+03,4.413396e+03
1.130083e+03,4.410015e+03
1.131047e+03,4.412547e+03
1.132012e+03,4.417501e+03
1.132976e+03,4.416436e+03
1.133940e+03,4.405809e+03
1.134904e+03,4.395822e+03
1.135869e+03,4.389581e+03
1.136833e+03,4.385421e+03
1.137797e+03,4.381570e+03
1.138761e+03,4.380171e+03
1.139726e+03,4.375673e+03
1.140690e+03,4.364292e+03
1.141654e+03,4.356045e+03
1.142618e+03,4.358021e+03
1.143583e+03,4.368599e+03
1.144547e+03,4.372368e+03
1.145511e+03,4.367825e+03
1.146475e+03,4.361305e+03
1.147439e+03,4.353792e+03
1.148404e+03,4.346777e+03
1.149368e+03,4.341698e+03
1.150332e+03,4.338280e+03
1.151296e+03,4.333920e+03
1.152261e+03,4.326159e+03
1.153225e+03,4.315858e+03
1.154189e+03,4.306875e+03
1.155153e+03,4.300684e+03
1.156118e+03,4.294476e+03
1.157082e+03,4.289592e+03
1.158046e+03,4.287843e+03
1.159010e+03,4.288852e+03
1.159974e+03,4.291181e+03
1.160939e+03,4.292518e+03
1.161903e+03,4.291927e+03
1.162867e+03,4.288733e+03
1.163831e+03,4.282455e+03
1.164796e+03,4.275264e+03
1.165760e+03,4.272128e+03
1.166724e+03,4.271255e+03
1.167688e+03,4.265122e+03
1.168653e+03,4.254270e+03
1.169617e+03,4.243845e+03
1.170581e+03,4.237899e+03
1.171545e+03,4.234390e+03
1.172510e+03,4.229840e+03
1.173474e+03,4.225404e+03
1.174438e+03,4.222372e+03
1.175402e+03,4.220446e+03
1.176366e+03,4.220285e+03
1.177331e+03,4.224887e+03
1.178295e+03,4.231181e+03
1.179259e+03,4.235696e+03
1.180223e+03,4.236815e+03
1.181188e+03,4.232982e+03
1.182152e+03,4.218182e+03
1.183116e+03,4.203524e+03
1.184080e+03,4.199841e+03
1.185045e+03,4.202807e+03
1.186009e+03,4.203355e+03
1.186973e+03,4.198986e+03
1.187937e+03,4.194440e+03
1.188901e+03,4.188608e+03
1.189866e+03,4.184361e+03
1.190830e+03,4.184867e+03
1.191794e+03,4.189661e+03
1.192758e+03,4.190229e+03
1.193723e+03,4.183893e+03
1.194687e+03,4.177495e+03
1.195651e+03,4.172033e+03
1.196615e+03,4.167538e+03
1.197580e+03,4.164161e+03
1.198544e+03,4.160344e+03
1.199508e+03,4.154110e+03
1.200472e+03,4.148261e+03
1.201437e+03,4.141111e+03
1.202401e+03,4.130642e+03
1.203365e+03,4.116672e+03
1.204329e+03,4.109949e+03
1.205293e+03,4.112435e+03
1.206258e+03,4.115870e+03
1.207222e+03,4.116540e+03
1.208186e+03,4.114495e+03
1.209150e+03,4.109772e+03
1.210115e+03,4.100392e+03
1.211079e+03,4.097667e+03
1.212043e+03,4.105708e+03
1.213007e+03,4.113273e+03
1.213972e+03,4.105261e+03
1.214936e+03,4.086434e+03
1.215900e+03,4.081380e+03
1.216864e+03,4.089908e+03
1.217828e+03,4.097780e+03
1.218793e+03,4.095941e+03
1.219757e+03,4.090256e+03
1.220721e+03,4.090047e+03
1.221685e+03,4.094375e+03
1.222650e+03,4.099904e+03
1.223614e+03,4.104623e+03
1.224578e+03,4.105854e+03
1.225542e+03,4.100562e+03
1.226507e+03,4.093793e+03
1.227471e+03,4.090648e+03
1.228435e+03,4.089826e+03
1.229399e+03,4.087916e+03
1.230364e+03,4.087496e+03
1.231328e+03,4.083132e+03
1.232292e+03,4.072090e+03
1.233256e+03,4.058397e+03
1.234220e+03,4.044014e+03
1.235185e+03,4.028401e+03
1.236149e+03,4.018578e+03
1.237113e+03,4.018935e+03
1.238077e+03,4.023820e+03
1.239042e+03,4.029707e+03
1.240006e+03,4.034160e+03
1.240970e+03,4.032751e+03
1.241934e+03,4.022701e+03
1.242899e+03,4.011101e+03
1.243863e+03,3.998966e+03
1.244827e+03,3.988386e+03
1.245791e+03,3.981988e+03
1.246755e+03,3.980529e+03
1.247720e+03,3.979052e+03
1.248684e+03,3.978051e+03
1.249648e+03,3.976742e+03
1.250612e+03,3.973862e+03
1.251577e+03,3.969500e+03
1.252541e+03,3.965314e+03
1.253505e+03,3.961064e+03
1.254469e+03,3.959310e+03
1.255434e+03,3.962039e+03
1.256398e+03,3.963896e+03
1.257362e+03,3.953115e+03
1.258326e+03,3.937063e+03
1.259291e+03,3.932090e+03
1.260255e+03,3.937081e+03
1.261219e+03,3.941156e+03
1.262183e+03,3.940573e+03
1.263147e+03,3.938292e+03
1.264112e+03,3.935113e+03
1.265076e+03,3.931352e+03
1.266040e+03,3.926772e+03
1.267004e+03,3.921505e+03
1.267969e+03,3.915773e+03
1.268933e+03,3.908502e+03
1.269897e+03,3.905170e+03
1.270861e+03,3.908586e+03
1.271826e+03,3.914808e+03
1.272790e+03,3.914776e+03
1.273754e+03,3.907418e+03
1.274718e+03,3.897822e+03
1.275682e+03,3.886010e+03
1.276647e+03,3.876889e+03
1.277611e+03,3.877188e+03
1.278575e+03,3.888531e+03
1.279539e+03,3.890829e+03
1.280504e+03,3.884665e+03
1.281468e+03,3.880208e+03
1.282432e+03,3.884117e+03
1.283396e+03,3.890470e+03
1.284361e+03,3.879502e+03
1.285325e+03,3.856203e+03
1.286289e+03,3.847202e+03
1.287253e+03,3.859518e+03
1.288218e+03,3.873651e+03
1.289182e+03,3.873733e+03
1.290146e+03,3.864868e+03
1.291110e+03,3.848010e+03
1.292074e+03,3.827923e+03
1.293039e+03,3.817039e+03
1.294003e+03,3.830739e+03
1.294967e+03,3.841813e+03
1.295931e+03,3.838060e+03
1.296896e+03,3.828465e+03
1.297860e+03,3.821325e+03
1.298824e+03,3.816973e+03
1.299788e+03,3.814584e+03
1.300753e+03,3.815503e+03
1.301717e+03,3.815035e+03
1.302681e+03,3.809802e+03
1.303645e+03,3.802872e+03
1.304609e+03,3.804913e+03
1.305574e+03,3.816775e+03
1.306538e+03,3.820014e+03
1.307502e+03,3.812825e+03
1.308466e+03,3.804074e+03
1.309431e+03,3.800523e+03
1.310395e+03,3.801536e+03
1.311359e+03,3.806969e+03
1.312323e+03,3.813627e+03
1.313288e+03,3.813167e+03
1.314252e+03,3.801836e+03
1.315216e+03,3.790030e+03
1.316180e+03,3.786157e+03
1.317145e+03,3.786880e+03
1.318109e+03,3.788177e+03
1.319073e+03,3.787862e+03
1.320037e+03,3.784106e+03
1.321001e+03,3.773822e+03
1.321966e+03,3.763184e+03
1.322930e+03,3.754217e+03
1.323894e+03,3.749247e+03
1.324858e+03,3.750351e+03
1.325823e+03,3.764040e+03
1.326787e+03,3.767238e+03
1.327751e+03,3.754106e+03
1.328715e+03,3.740066e+03
1.329680e+03,3.735828e+03
1.330644e+03,3.739517e+03
1.331608e+03,3.742472e+03
1.332572e+03,3.744412e+03
1.333536e+03,3.746726e+03
1.334501e+03,3.749515e+03
1.335465e+03,3.749282e+03
1.336429e+03,3.743117e+03
1.337393e+03,3.733682e+03
1.338358e+03,3.721677e+03
1.339322e+03,3.708838e+03
1.340286e+03,3.700762e+03
1.341250e+03,3.704660e+03
1.342215e+03,3.708316e+03
1.343179e+03,3.709108e+03
1.344143e+03,3.708986e+03
1.345107e+03,3.707075e+03
1.346072e+03,3.701060e+03
1.347036e+03,3.697723e+03
1.348000e+03,3.697677e+03
1.348964e+03,3.696868e+03
1.349928e+03,3.694591e+03
1.350893e+03,3.692582e+03
1.351857e+03,3.693065e+03
1.352821e+03,3.695028e+03
1.353785e+03,3.693267e+03
1.354750e+03,3.686647e+03
1.355714e+03,3.676970e+03
1.356678e+03,3.663486e+03
1.357642e+03,3.652752e+03
1.358607e+03,3.654928e+03
1.359571e+03,3.664974e+03
1.360535e+03,3.672986e+03
1.361499e+03,3.676430e+03
1.362464e+03,3.677677e+03
1.363428e+03,3.677925e+03
1.364392e+03,3.677502e+03
1.365356e+03,3.673811e+03
1.366320e+03,3.665755e+03
1.367285e+03,3.659370e+03
1.368249e+03,3.656863e+03
1.369213e+03,3.655265e+03
1.370177e+03,3.655129e+03
1.371142e+03,3.653449e+03
1.372106e+03,3.645661e+03
1.373070e+03,3.632839e+03
1.374034e+03,3.623054e+03
1.374999e+03,3.617045e+03
1.375963e+03,3.612284e+03
1.376927e+03,3.606483e+03
1.377891e+03,3.602781e+03
1.378855e+03,3.606677e+03
1.379820e+03,3.612520e+03
1.380784e+03,3.613197e+03
1.381748e+03,3.608710e+03
1.382712e+03,3.604395e+03
1.383677e+03,3.598385e+03
1.384641e+03,3.593129e+03
1.385605e+03,3.589008e+03
1.386569e+03,3.585798e+03
1.387534e+03,3.584516e+03
1.388498e+03,3.586676e+03
1.389462e+03,3.583977e+03
1.390426e+03,3.574691e+03
1.391391e+03,3.563617e+03
1.392355e+03,3.553163e+03
1.393319e+03,3.546361e+03
1.394283e+03,3.550194e+03
1.395247e+03,3.560394e+03
1.396212e+03,3.568903e+03
1.397176e+03,3.573991e+03
1.398140e+03,3.575227e+03
1.399104e+03,3.568191e+03
1.400069e+03,3.559716e+03
1.401033e+03,3.554489e+03
1.401997e+03,3.551500e+03
1.402961e+03,3.547409e+03
1.403926e+03,3.541189e+03
1.404890e+03,3.535464e+03
1.405854e+03,3.531533e+03
1.406818e+03,3.527241e+03
1.407782e+03,3.520536e+03
1.408747e+03,3.513438e+03
1.409711e+03,3.509662e+03
1.410675e+03,3.507093e+03
1.411639e+03,3.504812e+03
1.412604e+03,3.503092e+03
1.413568e+03,3.502344e+03
1.414532e+03,3.505766e+03
1.415496e+03,3.510092e+03
1.416461e+03,3.511280e+03
1.417425e+03,3.508477e+03
1.418389e+03,3.503300e+03
1.419353e+03,3.491248e+03
1.420318e+03,3.485328e+03
1.421282e+03,3.491648e+03
1.422246e+03,3.498824e+03
1.423210e+03,3.496292e+03
1.424174e+03,3.486242e+03
1.425139e+03,3.479370e+03
1.426103e+03,3.474806e+03
1.427067e+03,3.474233e+03
1.428031e+03,3.479335e+03
1.428996e+03,3.484016e+03
1.429960e+03,3.479873e+03
1.430924e+03,3.472734e+03
1.431888e+03,3.469077e+03
1.432853e+03,3.468699e+03
1.433817e+03,3.467109e+03
1.434781e+03,3.463110e+03
1.435745e+03,3.459560e+03
1.436709e+03,3.454160e+03
1.437674e+03,3.449781e+03
1.438638e+03,3.451904e+03
1.439602e+03,3.460257e+03
1.440566e+03,3.460211e+03
1.441531e+03,3.452271e+03
1.442495e+03,3.445380e+03
1.443459e+03,3.442124e+03
1.444423e+03,3.441114e+03
1.445388e+03,3.441394e+03
1.446352e+03,3.441717e+03
1.447316e+03,3.442731e+03
1.448280e+03,3.445199e+03
1.449245e+03,3.446161e+03
1.450209e+03,3.441960e+03
1.451173e+03,3.440720e+03
1.452137e+03,3.443097e+03
1.453101e+03,3.444635e+03
1.454066e+03,3.441935e+03
1.455030e+03,3.435837e+03
1.455994e+03,3.431026e+03
1.456958e+03,3.427642e+03
1.457923e+03,3.427648e+03
1.458887e+03,3.431603e+03
1.459851e+03,3.435253e+03
1.460815e+03,3.435680e+03
1.461780e+03,3.432502e+03
1.462744e+03,3.426133e+03
1.463708e+03,3.417925e+03
1.464672e+03,3.411386e+03
1.465636e+03,3.410383e+03
1.466601e+03,3.406838e+03
1.467565e+03,3.399118e+03
1.468529e+03,3.389927e+03
1.469493e+03,3.379930e+03
1.470458e+03,3.369174e+03
1.471422e+03,3.360694e+03
1.472386e+03,3.355432e+03
1.473350e+03,3.355308e+03
1.474315e+03,3.361629e+03
1.475279e+03,3.367063e+03
1.476243e+03,3.364379e+03
1.477207e+03,3.360355e+03
1.478172e+03,3.363653e+03
1.479136e+03,3.371828e+03
1.480100e+03,3.371297e+03
1.481064e+03,3.359706e+03
1.482028e+03,3.349740e+03
1.482993e+03,3.343165e+03
1.483957e+03,3.340369e+03
1.484921e+03,3.343374e+03
1.485885e+03,3.348234e+03
1.486850e+03,3.345036e+03
1.487814e+03,3.337012e+03
1.488778e+03,3.334458e+03
1.489742e+03,3.343771e+03
1.490707e+03,3.347536e+03
1.491671e+03,3.333580e+03
1.492635e+03,3.324629e+03
1.493599e+03,3.332922e+03
1.494563e+03,3.349014e+03
1.495528e+03,3.347578e+03
1.496492e+03,3.328893e+03
1.497456e+03,3.318754e+03
1.498420e+03,3.320991e+03
1.499385e+03,3.324072e+03
1.500349e+03,3.318305e+03
1.501313e+03,3.310518e+03
1.502277e+03,3.303075e+03
1.503242e+03,3.298123e+03
1.504206e+03,3.300003e+03
1.505170e+03,3.312271e+03
1.506134e+03,3.317680e+03
1.507099e+03,3.314965e+03
1.508063e+03,3.309508e+03
1.509027e+03,3.302841e+03
1.509991e+03,3.295532e+03
1.510955e+03,3.288839e+03
1.511920e+03,3.282334e+03
1.512884e+03,3.275112e+03
1.513848e+03,3.268724e+03
1.514812e+03,3.265447e+03
1.515777e+03,3.264455e+03
1.516741e+03,3.264366e+03
1.517705e+03,3.265694e+03
1.518669e+03,3.266317e+03
1.519634e+03,3.264613e+03
1.520598e+03,3.260343e+03
1.521562e+03,3.261406e+03
1.522526e+03,3.266380e+03
1.523490e+03,3.266085e+03
1.524455e+03,3.257035e+03
1.525419e+03,3.247339e+03
1.526383e+03,3.246626e+03
1.527347e+03,3.247391e+03
1.528312e+03,3.243611e+03
1.529276e+03,3.237454e+03
1.530240e+03,3.234364e+03
1.531204e+03,3.235187e+03
1.532169e+03,3.232641e+03
1.533133e+03,3.225050e+03
1.534097e+03,3.219707e+03
1.535061e+03,3.223869e+03
1.536026e+03,3.231386e+03
1.536990e+03,3.231244e+03
1.537954e+03,3.227157e+03
1.538918e+03,3.226142e+03
1.539882e+03,3.230138e+03
1.540847e+03,3.231677e+03
1.541811e+03,3.227548e+03
1.542775e+03,3.219540e+03
1.543739e+03,3.207240e+03
1.544704e+03,3.195502e+03
1.545668e+03,3.192704e+03
1.546632e+03,3.197419e+03
1.547596e+03,3.202619e+03
1.548561e+03,3.207300e+03
1.549525e+03,3.209451e+03
1.550489e+03,3.205228e+03
1.551453e+03,3.199909e+03
1.552417e+03,3.193981e+03
1.553382e+03,3.189528e+03
1.554346e+03,3.188929e+03
1.555310e+03,3.192522e+03
1.556274e+03,3.199170e+03
1.557239e+03,3.208440e+03
1.558203e+03,3.214708e+03
1.559167e+03,3.216527e+03
1.560131e+03,3.217614e+03
1.561096e+03,3.217348e+03
1.562060e+03,3.222166e+03
1.563024e+03,3.239044e+03
1.563988e+03,3.264558e+03
1.564953e+03,3.290593e+03
1.565917e+03,3.318437e+03
1.566881e+03,3.340082e+03
1.567845e+03,3.354198e+03
1.568809e+03,3.365649e+03
1.569774e+03,3.379503e+03
1.570738e+03,3.388414e+03
1.571702e+03,3.381051e+03
1.572666e+03,3.363079e+03
1.573631e+03,3.339442e+03
1.574595e+03,3.312250e+03
1.575559e+03,3.290732e+03
1.576523e+03,3.276780e+03
1.577488e+03,3.266004e+03
1.578452e+03,3.255696e+03
1.579416e+03,3.247747e+03
1.580380e+03,3.247243e+03
1.581344e+03,3.250375e+03
1.582309e+03,3.253664e+03
1.583273e+03,3.254390e+03
1.584237e+03,3.244636e+03
1.585201e+03,3.216502e+03
1.586166e+03,3.193157e+03
1.587130e+03,3.177064e+03
1.588094e+03,3.164261e+03
1.589058e+03,3.155433e+03
1.590023e+03,3.147338e+03
1.590987e+03,3.129170e+03
1.591951e+03,3.107609e+03
1.592915e+03,3.096973e+03
1.593880e+03,3.096268e+03
1.594844e+03,3.095529e+03
1.595808e+03,3.090196e+03
1.596772e+03,3.086042e+03
1.597736e+03,3.085137e+03
1.598701e+03,3.086573e+03
1.599665e+03,3.089983e+03
1.600629e+03,3.094186e+03
1.601593e+03,3.094620e+03
1.602558e+03,3.091603e+03
1.603522e+03,3.085085e+03
1.604486e+03,3.073765e+03
1.605450e+03,3.065720e+03
1.606415e+03,3.070917e+03
1.607379e+03,3.074166e+03
1.608343e+03,3.067800e+03
1.609307e+03,3.057306e+03
1.610271e+03,3.053030e+03
1.611236e+03,3.053345e+03
1.612200e+03,3.053238e+03
1.613164e+03,3.053069e+03
1.614128e+03,3.052628e+03
1.615093e+03,3.048248e+03
1.616057e+03,3.047023e+03
1.617021e+03,3.053911e+03
1.617985e+03,3.060228e+03
1.618950e+03,3.062179e+03
1.619914e+03,3.060038e+03
1.620878e+03,3.052438e+03
1.621842e+03,3.041522e+03
1.622807e+03,3.033806e+03
1.623771e+03,3.031204e+03
1.624735e+03,3.032317e+03
1.625699e+03,3.038324e+03
1.626663e+03,3.042882e+03
1.627628e+03,3.042804e+03
1.628592e+03,3.039173e+03
1.629556e+03,3.035328e+03
1.630520e+03,3.032628e+03
1.631485e+03,3.030509e+03
1.632449e+03,3.028319e+03
1.633413e+03,3.024641e+03
1.634377e+03,3.019009e+03
1.635342e+03,3.012631e+03
1.636306e+03,3.005366e+03
1.637270e+03,2.998637e+03
1.638234e+03,2.992918e+03
1.639198e+03,2.988273e+03
1.640163e+03,2.981784e+03
1.641127e+03,2.975967e+03
1.642091e+03,2.978556e+03
1.643055e+03,2.988248e+03
1.644020e+03,2.995371e+03
1.644984e+03,2.994813e+03
1.645948e+03,2.989579e+03
1.646912e+03,2.979078e+03
1.647877e+03,2.968979e+03
1.648841e+03,2.965181e+03
1.649805e+03,2.965479e+03
1.650769e+03,2.960897e+03
1.651734e+03,2.953606e+03
1.652698e+03,2.949882e+03
1.653662e+03,2.950551e+03
1.654626e+03,2.953031e+03
1.655590e+03,2.961509e+03
1.656555e+03,2.962882e+03
1.657519e+03,2.952668e+03
1.658483e+03,2.940416e+03
1.659447e+03,2.938188e+03
1.660412e+03,2.940559e+03
1.661376e+03,2.940546e+03
1.662340e+03,2.938861e+03
1.663304e+03,2.936630e+03
1.664269e+03,2.929277e+03
1.665233e+03,2.927353e+03
1.666197e+03,2.931930e+03
1.667161e+03,2.935501e+03
1.668125e+03,2.934543e+03
1.669090e+03,2.931469e+03
1.670054e+03,2.930780e+03
1.671018e+03,2.930045e+03
1.671982e+03,2.925063e+03
1.672947e+03,2.916319e+03
1.673911e+03,2.914100e+03
1.674875e+03,2.919017e+03
1.675839e+03,2.922555e+03
1.676804e+03,2.925147e+03
1.677768e+03,2.925875e+03
1.678732e+03,2.920790e+03
1.679696e+03,2.913770e+03
1.680661e+03,2.908347e+03
1.681625e+03,2.902054e+03
1.682589e+03,2.892639e+03
1.683553e+03,2.880901e+03
1.684517e+03,2.876904e+03
1.685482e+03,2.879991e+03
1.686446e+03,2.882326e+03
1.687410e+03,2.881192e+03
1.688374e+03,2.880673e+03
1.689339e+03,2.886762e+03
1.690303e+03,2.890784e+03
1.691267e+03,2.885648e+03
1.692231e+03,2.876937e+03
1.693196e+03,2.873007e+03
1.694160e+03,2.872266e+03
1.695124e+03,2.869007e+03
1.696088e+03,2.864180e+03
1.697052e+03,2.861794e+03
1.698017e+03,2.863324e+03
1.698981e+03,2.863773e+03
1.699945e+03,2.861281e+03
1.700909e+03,2.855759e+03
1.701874e+03,2.848886e+03
1.702838e+03,2.842656e+03
1.703802e+03,2.836719e+03
1.704766e+03,2.830927e+03
1.705731e+03,2.828601e+03
1.706695e+03,2.830437e+03
1.707659e+03,2.832218e+03
1.708623e+03,2.834716e+03
1.709588e+03,2.836730e+03
1.710552e+03,2.836723e+03
1.711516e+03,2.834202e+03
1.712480e+03,2.829496e+03
1.713444e+03,2.822509e+03
1.714409e+03,2.810504e+03
1.715373e+03,2.799372e+03
1.716337e+03,2.799423e+03
1.717301e+03,2.811632e+03
1.718266e+03,2.809942e+03
1.719230e+03,2.794147e+03
1.720194e+03,2.784123e+03
1.721158e+03,2.785353e+03
1.722123e+03,2.789262e+03
1.723087e+03,2.793527e+03
1.724051e+03,2.794326e+03
1.725015e+03,2.789292e+03
1.725979e+03,2.781802e+03
1.726944e+03,2.773661e+03
1.727908e+03,2.766077e+03
1.728872e+03,2.766058e+03
1.729836e+03,2.770542e+03
1.730801e+03,2.771399e+03
1.731765e+03,2.763285e+03
1.732729e+03,2.758362e+03
1.733693e+03,2.757544e+03
1.734658e+03,2.761496e+03
1.735622e+03,2.772623e+03
1.736586e+03,2.782337e+03
1.737550e+03,2.774779e+03
1.738515e+03,2.761219e+03
1.739479e+03,2.755782e+03
1.740443e+03,2.757883e+03
1.741407e+03,2.756462e+03
1.742371e+03,2.750950e+03
1.743336e+03,2.748451e+03
1.744300e+03,2.749192e+03
1.745264e+03,2.746879e+03
1.746228e+03,2.737390e+03
1.747193e+03,2.726819e+03
1.748157e+03,2.715333e+03
1.749121e+03,2.709741e+03
1.750085e+03,2.713062e+03
1.751050e+03,2.720577e+03
1.752014e+03,2.725773e+03
1.752978e+03,2.729476e+03
1.753942e+03,2.731749e+03
1.754906e+03,2.732097e+03
1.755871e+03,2.731738e+03
1.756835e+03,2.730817e+03
1.757799e+03,2.723854e+03
1.758763e+03,2.711706e+03
1.759728e+03,2.701237e+03
1.760692e+03,2.700032e+03
1.761656e+03,2.701356e+03
1.762620e+03,2.696458e+03
1.763585e+03,2.689237e+03
1.764549e+03,2.686113e+03
1.765513e+03,2.685948e+03
1.766477e+03,2.683530e+03
1.767442e+03,2.680115e+03
1.768406e+03,2.679707e+03
1.769370e+03,2.684497e+03
1.770334e+03,2.686919e+03
1.771298e+03,2.679778e+03
1.772263e+03,2.671585e+03
1.773227e+03,2.665052e+03
1.774191e+03,2.659890e+03
1.775155e+03,2.654697e+03
1.776120e+03,2.650286e+03
1.777084e+03,2.649214e+03
1.778048e+03,2.650626e+03
1.779012e+03,2.651450e+03
1.779977e+03,2.651718e+03
1.780941e+03,2.654256e+03
1.781905e+03,2.657774e+03
1.782869e+03,2.657796e+03
1.783833e+03,2.651376e+03
1.784798e+03,2.645354e+03
1.785762e+03,2.645277e+03
1.786726e+03,2.644340e+03
1.787690e+03,2.639258e+03
1.788655e+03,2.632692e+03
1.789619e+03,2.628388e+03
1.790583e+03,2.625844e+03
1.791547e+03,2.623673e+03
1.792512e+03,2.621891e+03
1.793476e+03,2.619935e+03
1.794440e+03,2.614676e+03
1.795404e+03,2.617036e+03
1.796369e+03,2.627041e+03
1.797333e+03,2.633261e+03
1.798297e+03,2.626711e+03
1.799261e+03,2.619692e+03
1.800225e+03,2.622058e+03
1.801190e+03,2.623523e+03
1.802154e+03,2.617630e+03
1.803118e+03,2.607401e+03
1.804082e+03,2.603540e+03
1.805047e+03,2.603143e+03
1.806011e+03,2.595643e+03
1.806975e+03,2.580919e+03
1.807939e+03,2.574069e+03
1.808904e+03,2.578139e+03
1.809868e+03,2.582041e+03
1.810832e+03,2.585659e+03
1.811796e+03,2.586786e+03
1.812760e+03,2.581061e+03
1.813725e+03,2.574485e+03
1.814689e+03,2.568309e+03
1.815653e+03,2.566626e+03
1.816617e+03,2.576041e+03
1.817582e+03,2.589649e+03
1.818546e+03,2.580373e+03
1.819510e+03,2.558434e+03
1.820474e+03,2.547528e+03
1.821439e+03,2.551987e+03
1.822403e+03,2.554358e+03
1.823367e+03,2.553155e+03
1.824331e+03,2.550587e+03
1.825296e+03,2.546090e+03
1.826260e+03,2.542674e+03
1.827224e+03,2.547466e+03
1.828188e+03,2.552705e+03
1.829152e+03,2.551031e+03
1.830117e+03,2.548032e+03
1.831081e+03,2.548714e+03
1.832045e+03,2.550605e+03
1.833009e+03,2.549932e+03
1.833974e+03,2.548667e+03
1.834938e+03,2.545777e+03
1.835902e+03,2.539641e+03
1.836866e+03,2.536198e+03
1.837831e+03,2.535537e+03
1.838795e+03,2.533379e+03
1.839759e+03,2.529931e+03
1.840723e+03,2.526214e+03
1.841688e+03,2.520726e+03
1.842652e+03,2.515554e+03
1.843616e+03,2.509363e+03
1.844580e+03,2.504163e+03
1.845544e+03,2.503234e+03
1.846509e+03,2.506392e+03
1.847473e+03,2.519161e+03
1.848437e+03,2.532352e+03
1.849401e+03,2.524988e+03
1.850366e+03,2.497525e+03
1.851330e+03,2.482835e+03
1.852294e+03,2.480549e+03
1.853258e+03,2.481379e+03
1.854223e+03,2.483184e+03
1.855187e+03,2.484122e+03
1.856151e+03,2.482341e+03
1.857115e+03,2.477664e+03
1.858079e+03,2.467925e+03
1.859044e+03,2.461700e+03
1.860008e+03,2.475422e+03
1.860972e+03,2.492372e+03
1.861936e+03,2.495187e+03
1.862901e+03,2.489996e+03
1.863865e+03,2.484823e+03
1.864829e+03,2.478114e+03
1.865793e+03,2.469990e+03
1.866758e+03,2.461934e+03
1.867722e+03,2.455541e+03
1.868686e+03,2.450405e+03
1.869650e+03,2.449752e+03
1.870615e+03,2.453866e+03
1.871579e+03,2.456193e+03
1.872543e+03,2.456321e+03
1.873507e+03,2.455704e+03
1.874471e+03,2.451966e+03
1.875436e+03,2.446760e+03
1.876400e+03,2.441827e+03
1.877364e+03,2.437693e+03
1.878328e+03,2.434562e+03
1.879293e+03,2.432448e+03
1.880257e+03,2.430851e+03
1.881221e+03,2.429393e+03
1.882185e+03,2.429536e+03
1.883150e+03,2.431999e+03
1.884114e+03,2.430326e+03
1.885078e+03,2.424657e+03
1.886042e+03,2.420912e+03
1.887006e+03,2.420904e+03
1.887971e+03,2.420802e+03
1.888935e+03,2.421132e+03
1.889899e+03,2.421544e+03
1.890863e+03,2.421065e+03
1.891828e+03,2.416804e+03
1.892792e+03,2.403702e+03
1.893756e+03,2.390406e+03
1.894720e+03,2.385098e+03
1.895685e+03,2.386258e+03
1.896649e+03,2.392243e+03
1.897613e+03,2.399982e+03
1.898577e+03,2.402384e+03
1.899542e+03,2.401320e+03
1.900506e+03,2.400300e+03
1.901470e+03,2.399652e+03
1.902434e+03,2.395450e+03
1.903398e+03,2.388002e+03
1.904363e+03,2.379872e+03
1.905327e+03,2.371482e+03
1.906291e+03,2.369129e+03
1.907255e+03,2.384358e+03
1.908220e+03,2.388393e+03
1.909184e+03,2.374048e+03
1.910148e+03,2.356063e+03
1.911112e+03,2.351569e+03
1.912077e+03,2.349591e+03
1.913041e+03,2.335883e+03
1.914005e+03,2.323768e+03
1.914969e+03,2.330463e+03
1.915933e+03,2.348531e+03
1.916898e+03,2.350935e+03
1.917862e+03,2.344063e+03
1.918826e+03,2.339282e+03
1.919790e+03,2.339118e+03
1.920755e+03,2.341597e+03
1.921719e+03,2.345194e+03
1.922683e+03,2.345316e+03
1.923647e+03,2.341804e+03
1.924612e+03,2.337956e+03
1.925576e+03,2.334434e+03
1.926540e+03,2.331971e+03
1.927504e+03,2.329213e+03
1.928469e+03,2.327112e+03
1.929433e+03,2.327273e+03
1.930397e+03,2.326879e+03
1.931361e+03,2.323090e+03
1.932325e+03,2.318955e+03
1.933290e+03,2.318617e+03
1.934254e+03,2.321250e+03
1.935218e+03,2.318637e+03
1.936182e+03,2.313482e+03
1.937147e+03,2.316406e+03
1.938111e+03,2.326405e+03
1.939075e+03,2.321041e+03
1.940039e+03,2.304623e+03
1.941004e+03,2.299593e+03
1.941968e+03,2.307051e+03
1.942932e+03,2.309623e+03
1.943896e+03,2.302416e+03
1.944860e+03,2.293377e+03
1.945825e+03,2.284070e+03
1.946789e+03,2.277395e+03
1.947753e+03,2.274426e+03
1.948717e+03,2.273771e+03
1.949682e+03,2.274193e+03
1.950646e+03,2.277664e+03
1.951610e+03,2.288490e+03
1.952574e+03,2.298227e+03
1.953539e+03,2.292397e+03
1.954503e+03,2.279969e+03
1.955467e+03,2.268930e+03
1.956431e+03,2.261480e+03
1.957396e+03,2.265198e+03
1.958360e+03,2.273766e+03
1.959324e+03,2.271517e+03
1.960288e+03,2.260255e+03
1.961252e+03,2.254672e+03
1.962217e+03,2.254917e+03
1.963181e+03,2.250366e+03
1.964145e+03,2.241134e+03
1.965109e+03,2.236292e+03
1.966074e+03,2.245551e+03
1.967038e+03,2.251278e+03
1.968002e+03,2.249075e+03
1.968966e+03,2.247219e+03
1.969931e+03,2.251400e+03
1.970895e+03,2.252444e+03
1.971859e+03,2.243458e+03
1.972823e+03,2.233733e+03
1.973787e+03,2.225469e+03
1.974752e+03,2.219115e+03
1.975716e+03,2.217181e+03
1.976680e+03,2.216907e+03
1.977644e+03,2.217539e+03
1.978609e+03,2.219425e+03
1.979573e+03,2.221995e+03
1.980537e+03,2.223845e+03
1.981501e+03,2.222367e+03
1.982466e+03,2.218060e+03
1.983430e+03,2.210096e+03
1.984394e+03,2.197121e+03
1.985358e+03,2.195304e+03
1.986323e+03,2.202479e+03
1.987287e+03,2.207538e+03
1.988251e+03,2.206978e+03
1.989215e+03,2.202671e+03
1.990179e+03,2.194265e+03
1.991144e+03,2.191757e+03
1.992108e+03,2.199153e+03
1.993072e+03,2.203979e+03
1.994036e+03,2.193726e+03
1.995001e+03,2.181440e+03
1.995965e+03,2.169503e+03
1.996929e+03,2.161896e+03
1.997893e+03,2.163824e+03
1.998858e+03,2.167492e+03
1.999822e+03,2.165163e+03
2.000786e+03,2.162455e+03
2.001750e+03,2.168133e+03
2.002714e+03,2.177348e+03
2.003679e+03,2.173708e+03
2.004643e+03,2.162879e+03
2.005607e+03,2.155094e+03
2.006571e+03,2.150247e+03
2.007536e+03,2.141406e+03
2.008500e+03,2.131301e+03
2.009464e+03,2.129131e+03
2.010428e+03,2.135583e+03
2.011393e+03,2.138212e+03
2.012357e+03,2.135885e+03
2.013321e+03,2.133159e+03
2.014285e+03,2.129333e+03
2.015250e+03,2.127722e+03
2.016214e+03,2.133305e+03
2.017178e+03,2.135613e+03
2.018142e+03,2.134756e+03
2.019106e+03,2.130764e+03
2.020071e+03,2.121757e+03
2.021035e+03,2.112934e+03
2.021999e+03,2.104361e+03
2.022963e+03,2.101230e+03
2.023928e+03,2.108957e+03
2.024892e+03,2.115528e+03
2.025856e+03,2.102737e+03
2.026820e+03,2.088330e+03
2.027785e+03,2.082552e+03
2.028749e+03,2.081993e+03
2.029713e+03,2.086515e+03
2.030677e+03,2.091331e+03
2.031641e+03,2.087150e+03
2.032606e+03,2.078925e+03
2.033570e+03,2.076385e+03
2.034534e+03,2.077222e+03
2.035498e+03,2.071389e+03
2.036463e+03,2.062794e+03
2.037427e+03,2.061342e+03
2.038391e+03,2.068179e+03
2.039355e+03,2.066065e+03
2.040320e+03,2.057918e+03
2.041284e+03,2.055477e+03
2.042248e+03,2.060801e+03
2.043212e+03,2.060982e+03
2.044177e+03,2.055483e+03
2.045141e+03,2.051875e+03
2.046105e+03,2.050926e+03
2.047069e+03,2.054239e+03
2.048033e+03,2.066877e+03
2.048998e+03,2.073254e+03
2.049962e+03,2.072758e+03
2.050926e+03,2.067710e+03
2.051890e+03,2.056548e+03
2.052854e+03,2.045432e+03
2.053819e+03,2.034492e+03
2.054783e+03,2.024943e+03
2.055747e+03,2.018398e+03
2.056711e+03,2.016429e+03
2.057676e+03,2.025066e+03
2.058640e+03,2.032021e+03
2.059604e+03,2.028204e+03
2.060568e+03,2.020570e+03
2.061533e+03,2.021980e+03
2.062497e+03,2.024977e+03
2.063461e+03,2.020894e+03
2.064425e+03,2.014336e+03
2.065390e+03,2.011259e+03
2.066354e+03,2.010325e+03
2.067318e+03,2.012387e+03
2.068282e+03,2.014163e+03
2.069247e+03,2.006789e+03
2.070211e+03,1.992483e+03
2.071175e+03,1.991536e+03
2.072139e+03,1.998566e+03
2.073104e+03,1.999532e+03
2.074068e+03,1.993463e+03
2.075032e+03,1.991174e+03
2.075996e+03,1.990999e+03
2.076960e+03,1.988991e+03
2.077925e+03,1.984199e+03
2.078889e+03,1.980436e+03
2.079853e+03,1.978013e+03
2.080817e+03,1.974601e+03
2.081782e+03,1.969846e+03
2.082746e+03,1.964837e+03
2.083710e+03,1.960474e+03
2.084674e+03,1.959123e+03
2.085639e+03,1.962004e+03
2.086603e+03,1.965496e+03
2.087567e+03,1.962506e+03
2.088531e+03,1.963359e+03
2.089496e+03,1.969866e+03
2.090460e+03,1.970483e+03
2.091424e+03,1.961013e+03
2.092388e+03,1.954486e+03
2.093353e+03,1.961347e+03
2.094317e+03,1.965882e+03
2.095281e+03,1.961119e+03
2.096245e+03,1.953000e+03
2.097209e+03,1.945599e+03
2.098174e+03,1.940477e+03
2.099138e+03,1.939483e+03
2.100102e+03,1.939412e+03
2.101066e+03,1.934354e+03
2.102031e+03,1.930726e+03
2.102995e+03,1.939931e+03
2.103959e+03,1.947448e+03
2.104923e+03,1.938140e+03
2.105887e+03,1.924203e+03
2.106852e+03,1.920708e+03
2.107816e+03,1.922569e+03
2.108780e+03,1.926885e+03
2.109744e+03,1.930787e+03
2.110708e+03,1.930750e+03
2.111673e+03,1.926252e+03
2.112637e+03,1.906658e+03
2.113601e+03,1.882192e+03
2.114565e+03,1.884513e+03
2.115530e+03,1.900890e+03
2.116494e+03,1.901092e+03
2.117458e+03,1.891892e+03
2.118422e+03,1.898500e+03
2.119387e+03,1.915555e+03
2.120351e+03,1.922302e+03
2.121315e+03,1.919228e+03
2.122279e+03,1.915271e+03
2.123244e+03,1.911373e+03
2.124208e+03,1.896458e+03
2.125172e+03,1.876036e+03
2.126136e+03,1.868449e+03
2.127101e+03,1.879762e+03
2.128065e+03,1.878725e+03
2.129029e+03,1.867317e+03
2.129993e+03,1.866811e+03
2.130958e+03,1.879381e+03
2.131922e+03,1.877595e+03
2.132886e+03,1.859003e+03
2.133850e+03,1.848116e+03
2.134814e+03,1.849148e+03
2.135779e+03,1.853600e+03
2.136743e+03,1.859744e+03
2.137707e+03,1.859429e+03
2.138671e+03,1.853346e+03
2.139636e+03,1.849468e+03
2.140600e+03,1.854416e+03
2.141564e+03,1.855674e+03
2.142528e+03,1.852950e+03
2.143493e+03,1.844569e+03
2.144457e+03,1.825241e+03
2.145421e+03,1.815542e+03
2.146385e+03,1.823644e+03
2.147350e+03,1.828442e+03
2.148314e+03,1.824823e+03
2.149278e+03,1.823373e+03
2.150242e+03,1.831353e+03
2.151207e+03,1.835911e+03
2.152171e+03,1.834349e+03
2.153135e+03,1.829953e+03
2.154099e+03,1.828184e+03
2.155063e+03,1.823794e+03
2.156028e+03,1.815399e+03
2.156992e+03,1.809345e+03
2.157956e+03,1.808498e+03
2.158920e+03,1.808837e+03
2.159885e+03,1.809587e+03
2.160849e+03,1.808001e+03
2.161813e+03,1.800680e+03
2.162777e+03,1.795586e+03
2.163741e+03,1.805174e+03
2.164706e+03,1.811896e+03
2.165670e+03,1.811165e+03
2.166634e+03,1.806578e+03
2.167598e+03,1.790787e+03
2.168563e+03,1.786668e+03
2.169527e+03,1.806326e+03
2.170491e+03,1.824061e+03
2.171455e+03,1.811692e+03
2.172420e+03,1.792216e+03
2.173384e+03,1.777187e+03
2.174348e+03,1.769288e+03
2.175312e+03,1.773814e+03
2.176277e+03,1.781236e+03
2.177241e+03,1.786013e+03
2.178205e+03,1.784574e+03
2.179169e+03,1.772532e+03
2.180134e+03,1.760779e+03
2.181098e+03,1.764424e+03
2.182062e+03,1.772337e+03
2.183026e+03,1.776519e+03
2.183990e+03,1.775963e+03
2.184955e+03,1.765134e+03
2.185919e+03,1.754178e+03
2.186883e+03,1.750406e+03
2.187847e+03,1.750113e+03
2.188812e+03,1.751641e+03
2.189776e+03,1.753517e+03
2.190740e+03,1.754274e+03
2.191704e+03,1.752009e+03
2.192668e+03,1.743358e+03
2.193633e+03,1.733866e+03
2.194597e+03,1.732827e+03
2.195561e+03,1.733230e+03
2.196525e+03,1.725147e+03
2.197490e+03,1.717674e+03
2.198454e+03,1.734973e+03
2.199418e+03,1.753053e+03
2.200382e+03,1.750159e+03
2.201347e+03,1.737626e+03
2.202311e+03,1.729144e+03
2.203275e+03,1.724222e+03
2.204239e+03,1.721400e+03
2.205204e+03,1.719762e+03
2.206168e+03,1.724751e+03
2.207132e+03,1.729715e+03
2.208096e+03,1.721153e+03
2.209061e+03,1.708802e+03
2.210025e+03,1.705034e+03
2.210989e+03,1.705319e+03
2.211953e+03,1.703948e+03
2.212917e+03,1.704609e+03
2.213882e+03,1.705520e+03
2.214846e+03,1.706570e+03
2.215810e+03,1.714175e+03
2.216774e+03,1.717426e+03
2.217739e+03,1.708633e+03
2.218703e+03,1.696127e+03
2.219667e+03,1.692420e+03
2.220631e+03,1.693947e+03
2.221595e+03,1.698873e+03
2.222560e+03,1.701678e+03
2.223524e+03,1.691344e+03
2.224488e+03,1.678454e+03
2.225452e+03,1.678260e+03
2.226417e+03,1.681102e+03
2.227381e+03,1.675365e+03
2.228345e+03,1.668850e+03
2.229309e+03,1.668865e+03
2.230274e+03,1.674035e+03
2.231238e+03,1.687887e+03
2.232202e+03,1.699972e+03
2.233166e+03,1.693810e+03
2.234131e+03,1.681406e+03
2.235095e+03,1.670069e+03
2.236059e+03,1.662212e+03
2.237023e+03,1.665108e+03
2.237988e+03,1.667475e+03
2.238952e+03,1.659994e+03
2.239916e+03,1.649567e+03
2.240880e+03,1.647691e+03
2.241844e+03,1.647399e+03
2.242809e+03,1.643516e+03
2.243773e+03,1.638254e+03
2.244737e+03,1.628389e+03
2.245701e+03,1.622957e+03
2.246666e+03,1.635879e+03
2.247630e+03,1.645483e+03
2.248594e+03,1.635581e+03
2.249558e+03,1.622659e+03
2.250522e+03,1.621308e+03
2.251487e+03,1.622852e+03
2.252451e+03,1.621860e+03
2.253415e+03,1.618971e+03
2.254379e+03,1.617185e+03
2.255344e+03,1.615599e+03
2.256308e+03,1.613990e+03
2.257272e+03,1.613622e+03
2.258236e+03,1.618450e+03
2.259201e+03,1.620212e+03
2.260165e+03,1.615276e+03
2.261129e+03,1.607932e+03
2.262093e+03,1.601643e+03
2.263058e+03,1.592636e+03
2.264022e+03,1.580227e+03
2.264986e+03,1.572058e+03
2.265950e+03,1.572764e+03
2.266915e+03,1.576790e+03
2.267879e+03,1.581485e+03
2.268843e+03,1.585903e+03
2.269807e+03,1.592689e+03
2.270771e+03,1.596665e+03
2.271736e+03,1.596642e+03
2.272700e+03,1.593215e+03
2.273664e+03,1.583829e+03
2.274628e+03,1.577321e+03
2.275593e+03,1.578121e+03
2.276557e+03,1.580176e+03
2.277521e+03,1.584021e+03
2.278485e+03,1.584502e+03
2.279449e+03,1.576312e+03
2.280414e+03,1.570664e+03
2.281378e+03,1.567994e+03
2.282342e+03,1.566828e+03
2.283306e+03,1.567070e+03
2.284271e+03,1.563730e+03
2.285235e+03,1.556704e+03
2.286199e+03,1.548975e+03
2.287163e+03,1.542893e+03
2.288128e+03,1.543283e+03
2.289092e+03,1.547914e+03
2.290056e+03,1.549318e+03
2.291020e+03,1.545982e+03
2.291985e+03,1.538716e+03
2.292949e+03,1.530074e+03
2.293913e+03,1.530789e+03
2.294877e+03,1.540703e+03
2.295842e+03,1.549605e+03
2.296806e+03,1.555715e+03
2.297770e+03,1.556164e+03
2.298734e+03,1.551801e+03
2.299698e+03,1.548568e+03
2.300663e+03,1.546466e+03
2.301627e+03,1.535338e+03
2.302591e+03,1.520393e+03
2.303555e+03,1.515343e+03
2.304520e+03,1.519072e+03
2.305484e+03,1.530443e+03
2.306448e+03,1.541289e+03
2.307412e+03,1.534128e+03
2.308376e+03,1.516684e+03
2.309341e+03,1.508791e+03
2.310305e+03,1.505539e+03
2.311269e+03,1.500400e+03
2.312233e+03,1.497686e+03
2.313198e+03,1.507556e+03
2.314162e+03,1.518011e+03
2.315126e+03,1.514212e+03
2.316090e+03,1.507038e+03
2.317055e+03,1.508546e+03
2.318019e+03,1.513722e+03
2.318983e+03,1.520549e+03
2.319947e+03,1.521810e+03
2.320912e+03,1.507794e+03
2.321876e+03,1.495765e+03
2.322840e+03,1.502369e+03
2.323804e+03,1.507863e+03
2.324769e+03,1.503583e+03
2.325733e+03,1.496992e+03
2.326697e+03,1.489951e+03
2.327661e+03,1.486272e+03
2.328625e+03,1.486225e+03
2.329590e+03,1.487124e+03
2.330554e+03,1.491872e+03
2.331518e+03,1.490042e+03
2.332482e+03,1.479451e+03
2.333447e+03,1.472066e+03
2.334411e+03,1.475201e+03
2.335375e+03,1.477948e+03
2.336339e+03,1.479635e+03
2.337303e+03,1.480587e+03
2.338268e+03,1.481576e+03
2.339232e+03,1.473356e+03
2.340196e+03,1.458667e+03
2.341160e+03,1.453855e+03
2.342125e+03,1.464185e+03
2.343089e+03,1.468433e+03
2.344053e+03,1.466256e+03
2.345017e+03,1.464707e+03
2.345982e+03,1.464608e+03
2.346946e+03,1.457810e+03
2.347910e+03,1.448942e+03
2.348874e+03,1.448245e+03
2.349839e+03,1.451846e+03
2.350803e+03,1.448379e+03
2.351767e+03,1.443516e+03
2.352731e+03,1.450841e+03
2.353696e+03,1.462364e+03
2.354660e+03,1.462863e+03
2.355624e+03,1.457375e+03
2.356588e+03,1.454855e+03
2.357552e+03,1.452650e+03
2.358517e+03,1.446943e+03
2.359481e+03,1.441785e+03
2.360445e+03,1.443436e+03
2.361409e+03,1.443714e+03
2.362374e+03,1.438313e+03
2.363338e+03,1.430756e+03
2.364302e+03,1.425614e+03
2.365266e+03,1.421998e+03
2.366230e+03,1.418328e+03
2.367195e+03,1.416319e+03
2.368159e+03,1.417041e+03
2.369123e+03,1.418668e+03
2.370087e+03,1.422385e+03
2.371052e+03,1.424075e+03
2.372016e+03,1.421502e+03
2.372980e+03,1.417426e+03
2.373944e+03,1.411776e+03
2.374909e+03,1.408707e+03
2.375873e+03,1.410704e+03
2.376837e+03,1.411260e+03
2.377801e+03,1.410295e+03
2.378766e+03,1.404218e+03
2.379730e+03,1.393502e+03
2.380694e+03,1.394070e+03
2.381658e+03,1.401590e+03
2.382623e+03,1.400581e+03
2.383587e+03,1.393972e+03
2.384551e+03,1.395131e+03
2.385515e+03,1.399177e+03
2.386479e+03,1.400525e+03
2.387444e+03,1.399513e+03
2.388408e+03,1.395881e+03
2.389372e+03,1.391364e+03
2.390336e+03,1.384785e+03
2.391301e+03,1.381117e+03
2.392265e+03,1.387163e+03
2.393229e+03,1.395070e+03
2.394193e+03,1.402611e+03
2.395157e+03,1.403715e+03
2.396122e+03,1.390632e+03
2.397086e+03,1.379063e+03
2.398050e+03,1.374203e+03
2.399014e+03,1.374072e+03
2.399979e+03,1.379121e+03
2.400943e+03,1.382518e+03
2.401907e+03,1.382788e+03
2.402871e+03,1.380619e+03
2.403836e+03,1.376526e+03
2.404800e+03,1.370455e+03
2.405764e+03,1.362667e+03
2.406728e+03,1.362359e+03
2.407693e+03,1.367415e+03
2.408657e+03,1.363604e+03
2.409621e+03,1.353784e+03
2.410585e+03,1.349542e+03
2.411550e+03,1.349823e+03
2.412514e+03,1.349535e+03
2.413478e+03,1.348619e+03
2.414442e+03,1.347505e+03
2.415406e+03,1.346070e+03
2.416371e+03,1.343057e+03
2.417335e+03,1.341202e+03
2.418299e+03,1.348680e+03
2.419263e+03,1.351008e+03
2.420228e+03,1.337559e+03
2.421192e+03,1.325617e+03
2.422156e+03,1.337555e+03
2.423120e+03,1.345511e+03
2.424084e+03,1.341649e+03
2.425049e+03,1.334994e+03
2.426013e+03,1.332162e+03
2.426977e+03,1.325227e+03
2.427941e+03,1.314898e+03
2.428906e+03,1.313869e+03
2.429870e+03,1.326447e+03
2.430834e+03,1.330526e+03
2.431798e+03,1.327025e+03
2.432763e+03,1.320752e+03
2.433727e+03,1.312649e+03
2.434691e+03,1.306927e+03
2.435655e+03,1.304880e+03
2.436620e+03,1.311962e+03
2.437584e+03,1.321623e+03
2.438548e+03,1.314424e+03
2.439512e+03,1.304063e+03
2.440477e+03,1.304147e+03
2.441441e+03,1.307460e+03
2.442405e+03,1.306294e+03
2.443369e+03,1.305553e+03
2.444333e+03,1.308510e+03
2.445298e+03,1.310846e+03
2.446262e+03,1.307555e+03
2.447226e+03,1.303695e+03
2.448190e+03,1.300922e+03
2.449155e+03,1.297487e+03
2.450119e+03,1.291021e+03
2.451083e+03,1.290078e+03
2.452047e+03,1.293617e+03
2.453011e+03,1.295032e+03
2.453976e+03,1.293328e+03
2.454940e+03,1.288620e+03
2.455904e+03,1.282693e+03
2.456868e+03,1.276515e+03
2.457833e+03,1.270757e+03
2.458797e+03,1.271690e+03
2.459761e+03,1.275706e+03
2.460725e+03,1.277374e+03
2.461690e+03,1.276516e+03
2.462654e+03,1.271611e+03
2.463618e+03,1.265798e+03
2.464582e+03,1.260623e+03
2.465547e+03,1.260471e+03
2.466511e+03,1.274522e+03
2.467475e+03,1.279483e+03
2.468439e+03,1.269936e+03
2.469404e+03,1.260673e+03
2.470368e+03,1.263348e+03
2.471332e+03,1.264573e+03
2.472296e+03,1.263090e+03
2.473260e+03,1.259333e+03
2.474225e+03,1.253495e+03
2.475189e+03,1.243106e+03
2.476153e+03,1.233161e+03
2.477117e+03,1.240957e+03
2.478082e+03,1.258260e+03
2.479046e+03,1.259107e+03
2.480010e+03,1.252445e+03
2.480974e+03,1.251322e+03
2.481938e+03,1.251324e+03
2.482903e+03,1.243012e+03
2.483867e+03,1.238217e+03
2.484831e+03,1.243130e+03
2.485795e+03,1.249367e+03
2.486760e+03,1.254190e+03
2.487724e+03,1.252333e+03
2.488688e+03,1.243699e+03
2.489652e+03,1.236068e+03
2.490617e+03,1.231412e+03
2.491581e+03,1.232537e+03
2.492545e+03,1.238151e+03
2.493509e+03,1.233992e+03
2.494474e+03,1.219236e+03
2.495438e+03,1.225230e+03
2.496402e+03,1.241062e+03
2.497366e+03,1.242069e+03
2.498331e+03,1.234691e+03
2.499295e+03,1.230192e+03
2.500259e+03,1.226908e+03
2.501223e+03,1.224778e+03
2.502188e+03,1.223680e+03
2.503152e+03,1.223920e+03
2.504116e+03,1.223846e+03
2.505080e+03,1.223049e+03
2.506044e+03,1.222134e+03
2.507009e+03,1.219784e+03
2.507973e+03,1.220204e+03
2.508937e+03,1.223477e+03
2.509901e+03,1.220742e+03
2.510865e+03,1.208871e+03
2.511830e+03,1.204894e+03
2.512794e+03,1.205617e+03
2.513758e+03,1.205285e+03
2.514722e+03,1.204533e+03
2.515687e+03,1.203639e+03
2.516651e+03,1.203104e+03
2.517615e+03,1.204312e+03
2.518579e+03,1.203657e+03
2.519544e+03,1.192793e+03
2.520508e+03,1.185149e+03
2.521472e+03,1.186127e+03
2.522436e+03,1.188371e+03
2.523401e+03,1.187432e+03
2.524365e+03,1.185899e+03
2.525329e+03,1.183050e+03
2.526293e+03,1.181639e+03
2.527258e+03,1.183419e+03
2.528222e+03,1.181805e+03
2.529186e+03,1.178852e+03
2.530150e+03,1.182737e+03
2.531115e+03,1.190137e+03
2.532079e+03,1.185239e+03
2.533043e+03,1.176671e+03
2.534007e+03,1.172844e+03
2.534971e+03,1.171835e+03
2.535936e+03,1.175391e+03
2.536900e+03,1.178849e+03
2.537864e+03,1.180885e+03
2.538828e+03,1.179167e+03
2.539792e+03,1.168234e+03
2.540757e+03,1.163899e+03
2.541721e+03,1.167754e+03
2.542685e+03,1.174155e+03
2.543649e+03,1.181968e+03
2.544614e+03,1.180246e+03
2.545578e+03,1.171916e+03
2.546542e+03,1.170326e+03
2.547506e+03,1.173006e+03
2.548471e+03,1.173443e+03
2.549435e+03,1.171926e+03
2.550399e+03,1.168067e+03
2.551363e+03,1.164981e+03
2.552328e+03,1.168041e+03
2.553292e+03,1.166906e+03
2.554256e+03,1.156060e+03
2.555220e+03,1.152318e+03
2.556185e+03,1.158319e+03
2.557149e+03,1.155091e+03
2.558113e+03,1.140943e+03
2.559077e+03,1.148954e+03
2.560042e+03,1.170189e+03
2.561006e+03,1.172189e+03
2.561970e+03,1.161411e+03
2.562934e+03,1.145895e+03
2.563898e+03,1.134149e+03
2.564863e+03,1.138273e+03
2.565827e+03,1.144864e+03
2.566791e+03,1.149327e+03
2.567755e+03,1.148566e+03
2.568719e+03,1.140695e+03
2.569684e+03,1.133467e+03
2.570648e+03,1.130427e+03
2.571612e+03,1.131403e+03
2.572576e+03,1.136328e+03
2.573541e+03,1.139835e+03
2.574505e+03,1.139632e+03
2.575469e+03,1.133030e+03
2.576433e+03,1.124073e+03
2.577398e+03,1.119627e+03
2.578362e+03,1.119095e+03
2.579326e+03,1.126028e+03
2.580290e+03,1.129800e+03
2.581255e+03,1.125273e+03
2.582219e+03,1.119532e+03
2.583183e+03,1.118106e+03
2.584147e+03,1.116548e+03
2.585112e+03,1.115995e+03
2.586076e+03,1.113605e+03
2.587040e+03,1.108899e+03
2.588004e+03,1.105206e+03
2.588969e+03,1.104014e+03
2.589933e+03,1.112402e+03
2.590897e+03,1.122449e+03
2.591861e+03,1.113148e+03
2.592825e+03,1.104080e+03
2.593790e+03,1.108951e+03
2.594754e+03,1.110990e+03
2.595718e+03,1.096207e+03
2.596682e+03,1.085498e+03
2.597646e+03,1.082481e+03
2.598611e+03,1.082664e+03
2.599575e+03,1.085654e+03
2.600539e+03,1.090755e+03
2.601503e+03,1.095878e+03
2.602468e+03,1.096306e+03
2.603432e+03,1.092651e+03
2.604396e+03,1.084180e+03
2.605360e+03,1.077745e+03
2.606325e+03,1.079730e+03
2.607289e+03,1.083266e+03
2.608253e+03,1.085399e+03
2.609217e+03,1.088899e+03
2.610182e+03,1.095019e+03
2.611146e+03,1.094781e+03
2.612110e+03,1.089003e+03
2.613074e+03,1.081179e+03
2.614039e+03,1.074143e+03
2.615003e+03,1.080432e+03
2.615967e+03,1.088869e+03
2.616931e+03,1.083849e+03
2.617896e+03,1.075245e+03
2.618860e+03,1.073173e+03
2.619824e+03,1.076801e+03
2.620788e+03,1.085590e+03
2.621752e+03,1.090516e+03
2.622717e+03,1.086759e+03
2.623681e+03,1.077880e+03
2.624645e+03,1.065201e+03
2.625609e+03,1.059946e+03
2.626573e+03,1.062046e+03
2.627538e+03,1.072609e+03
2.628502e+03,1.084694e+03
2.629466e+03,1.088036e+03
2.630430e+03,1.084440e+03
2.631395e+03,1.070844e+03
2.632359e+03,1.058156e+03
2.633323e+03,1.049961e+03
2.634287e+03,1.046175e+03
2.635252e+03,1.046444e+03
2.636216e+03,1.052907e+03
2.637180e+03,1.063751e+03
2.638144e+03,1.057019e+03
2.639109e+03,1.041160e+03
2.640073e+03,1.044753e+03
2.641037e+03,1.055581e+03
2.642001e+03,1.054993e+03
2.642966e+03,1.047206e+03
2.643930e+03,1.033247e+03
2.644894e+03,1.026299e+03
2.645858e+03,1.044036e+03
2.646823e+03,1.050546e+03
2.647787e+03,1.044515e+03
2.648751e+03,1.041079e+03
2.649715e+03,1.041853e+03
2.650679e+03,1.040261e+03
2.651644e+03,1.036193e+03
2.652608e+03,1.027396e+03
2.653572e+03,1.021373e+03
2.654536e+03,1.037093e+03
2.655500e+03,1.046903e+03
2.656465e+03,1.039621e+03
2.657429e+03,1.032191e+03
2.658393e+03,1.029601e+03
2.659357e+03,1.028245e+03
2.660322e+03,1.027945e+03
2.661286e+03,1.018418e+03
2.662250e+03,1.006121e+03
2.663214e+03,1.015861e+03
2.664179e+03,1.029545e+03
2.665143e+03,1.023328e+03
2.666107e+03,1.015121e+03
2.667071e+03,1.014191e+03
2.668036e+03,1.016542e+03
2.669000e+03,1.020779e+03
2.669964e+03,1.022763e+03
2.670928e+03,1.022377e+03
2.671893e+03,1.020935e+03
2.672857e+03,1.019336e+03
2.673821e+03,1.015965e+03
2.674785e+03,1.013878e+03
2.675750e+03,1.018076e+03
2.676714e+03,1.022058e+03
2.677678e+03,1.015517e+03
2.678642e+03,1.010873e+03
2.679606e+03,1.011177e+03
2.680571e+03,1.008246e+03
2.681535e+03,1.000659e+03
2.682499e+03,9.951466e+02
2.683463e+03,9.920757e+02
2.684427e+03,9.913303e+02
2.685392e+03,9.932139e+02
2.686356e+03,1.000760e+03
2.687320e+03,1.005178e+03
2.688284e+03,9.971437e+02
2.689249e+03,9.938856e+02
2.690213e+03,9.985506e+02
2.691177e+03,9.920549e+02
2.692141e+03,9.672880e+02
2.693106e+03,9.711171e+02
2.694070e+03,9.910744e+02
2.695034e+03,9.965035e+02
2.695998e+03,9.928903e+02
2.696963e+03,9.873955e+02
2.697927e+03,9.850377e+02
2.698891e+03,9.876235e+02
2.699855e+03,9.874666e+02
2.700820e+03,9.799465e+02
2.701784e+03,9.815999e+02
2.702748e+03,9.915497e+02
2.703712e+03,9.948232e+02
2.704677e+03,9.921201e+02
2.705641e+03,9.876912e+02
2.706605e+03,9.839141e+02
2.707569e+03,9.801555e+02
2.708533e+03,9.794615e+02
2.709498e+03,9.836492e+02
2.710462e+03,9.806578e+02
2.711426e+03,9.611742e+02
2.712390e+03,9.584268e+02
2.713354e+03,9.685105e+02
2.714319e+03,9.741236e+02
2.715283e+03,9.759896e+02
2.716247e+03,9.807531e+02
2.717211e+03,9.824000e+02
2.718176e+03,9.770153e+02
2.719140e+03,9.704324e+02
2.720104e+03,9.671168e+02
2.721068e+03,9.576222e+02
2.722033e+03,9.422477e+02
2.722997e+03,9.405248e+02
2.723961e+03,9.488372e+02
2.724925e+03,9.533062e+02
2.725890e+03,9.543863e+02
2.726854e+03,9.469062e+02
2.727818e+03,9.497820e+02
2.728782e+03,9.742253e+02
2.729747e+03,9.890541e+02
2.730711e+03,9.707370e+02
2.731675e+03,9.681010e+02
2.732639e+03,9.769625e+02
2.733604e+03,9.673214e+02
2.734568e+03,9.480841e+02
2.735532e+03,9.492304e+02
2.736496e+03,9.525755e+02
2.737460e+03,9.445292e+02
2.738425e+03,9.358729e+02
2.739389e+03,9.314686e+02
2.740353e+03,9.354077e+02
2.741317e+03,9.483668e+02
2.742281e+03,9.579667e+02
2.743246e+03,9.629024e+02
2.744210e+03,9.540922e+02
2.745174e+03,9.419070e+02
2.746138e+03,9.412919e+02
2.747103e+03,9.457213e+02
2.748067e+03,9.528831e+02
2.749031e+03,9.550579e+02
2.749995e+03,9.434030e+02
2.750960e+03,9.449863e+02
2.751924e+03,9.540660e+02
2.752888e+03,9.499070e+02
2.753852e+03,9.396771e+02
2.754817e+03,9.408527e+02
2.755781e+03,9.472422e+02
2.756745e+03,9.570270e+02
2.757709e+03,9.597709e+02
2.758674e+03,9.518602e+02
2.759638e+03,9.426218e+02
2.760602e+03,9.342923e+02
2.761566e+03,9.289508e+02
2.762531e+03,9.256476e+02
2.763495e+03,9.205466e+02
2.764459e+03,9.153039e+02
2.765423e+03,9.102446e+02
2.766387e+03,9.133077e+02
2.767352e+03,9.260120e+02
2.768316e+03,9.301921e+02
2.769280e+03,9.223475e+02
2.770244e+03,9.195106e+02
2.771208e+03,9.183246e+02
2.772173e+03,9.075333e+02
2.773137e+03,8.982351e+02
2.774101e+03,9.077945e+02
2.775065e+03,9.147491e+02
2.776030e+03,9.090560e+02
2.776994e+03,9.065436e+02
2.777958e+03,9.072375e+02
2.778922e+03,9.060709e+02
2.779887e+03,9.049933e+02
2.780851e+03,9.125125e+02
2.781815e+03,9.180828e+02
2.782779e+03,9.155183e+02
2.783744e+03,9.125358e+02
2.784708e+03,9.132960e+02
2.785672e+03,9.116840e+02
2.786636e+03,9.072020e+02
2.787601e+03,8.996628e+02
2.788565e+03,8.947896e+02
2.789529e+03,9.161804e+02
2.790493e+03,9.345186e+02
2.791458e+03,9.153339e+02
2.792422e+03,9.000929e+02
2.793386e+03,8.991819e+02
2.794350e+03,8.986085e+02
2.795314e+03,8.943439e+02
2.796279e+03,8.964019e+02
2.797243e+03,8.988821e+02
2.798207e+03,8.937061e+02
2.799171e+03,8.876010e+02
2.800135e+03,8.896169e+02
2.801100e+03,8.873048e+02
2.802064e+03,8.779578e+02
2.803028e+03,8.691342e+02
2.803992e+03,8.665767e+02
2.804957e+03,9.188859e+02
2.805921e+03,9.789246e+02
2.806885e+03,9.454594e+02
2.807849e+03,8.987611e+02
2.808814e+03,8.803799e+02
2.809778e+03,8.748594e+02
2.810742e+03,8.788972e+02
2.811706e+03,8.755459e+02
2.812671e+03,8.692210e+02
2.813635e+03,8.798235e+02
2.814599e+03,8.972715e+02
2.815563e+03,9.063231e+02
2.816528e+03,9.065819e+02
2.817492e+03,8.922869e+02
2.818456e+03,8.874869e+02
2.819420e+03,8.924278e+02
2.820385e+03,8.922574e+02
2.821349e+03,8.863790e+02
2.822313e+03,8.683177e+02
2.823277e+03,8.596379e+02
2.824241e+03,8.767677e+02
2.825206e+03,8.916813e+02
2.826170e+03,8.883787e+02
2.827134e+03,8.784766e+02
2.828098e+03,8.645173e+02
2.829063e+03,8.599340e+02
2.830027e+03,8.622037e+02
2.830991e+03,8.703052e+02
2.831955e+03,8.778989e+02
2.832919e+03,8.781179e+02
2.833884e+03,8.720108e+02
2.834848e+03,8.611775e+02
2.835812e+03,8.675394e+02
2.836776e+03,8.883781e+02
2.837741e+03,8.832560e+02
2.838705e+03,8.708083e+02
2.839669e+03,8.732956e+02
2.840633e+03,8.727968e+02
2.841598e+03,8.587575e+02
2.842562e+03,8.537775e+02
2.843526e+03,8.646779e+02
2.844490e+03,8.665295e+02
2.845455e+03,8.617662e+02
2.846419e+03,8.540403e+02
2.847383e+03,8.511933e+02
2.848347e+03,8.703688e+02
2.849312e+03,8.765177e+02
2.850276e+03,8.640162e+02
2.851240e+03,8.628549e+02
2.852204e+03,8.710840e+02
2.853168e+03,8.666281e+02
2.854133e+03,8.576501e+02
2.855097e+03,8.548237e+02
2.856061e+03,8.550605e+02
2.857025e+03,8.554995e+02
2.857990e+03,8.589421e+02
2.858954e+03,8.667472e+02
2.859918e+03,8.680979e+02
2.860882e+03,8.656617e+02
2.861846e+03,8.654550e+02
2.862811e+03,8.607100e+02
2.863775e+03,8.398397e+02
2.864739e+03,8.330752e+02
2.865703e+03,8.496234e+02
2.866668e+03,8.567220e+02
2.867632e+03,8.562115e+02
2.868596e+03,8.583856e+02
2.869560e+03,8.591133e+02
2.870525e+03,8.489254e+02
2.871489e+03,8.469520e+02
2.872453e+03,8.571266e+02
2.873417e+03,8.709248e+02
2.874382e+03,8.834957e+02
2.875346e+03,8.709818e+02
2.876310e+03,8.534442e+02
2.877274e+03,8.601216e+02
2.878239e+03,8.711949e+02
2.879203e+03,8.780151e+02
2.880167e+03,8.765045e+02
2.881131e+03,8.659047e+02
2.882095e+03,8.695640e+02
2.883060e+03,8.776507e+02
2.884024e+03,8.727048e+02
2.884988e+03,8.656467e+02
2.885952e+03,8.661600e+02
2.886917e+03,8.689036e+02
2.887881e+03,8.732248e+02
2.888845e+03,8.559845e+02
2.889809e+03,8.320594e+02
2.890773e+03,8.362693e+02
2.891738e+03,8.493093e+02
2.892702e+03,8.567717e+02
2.893666e+03,8.559742e+02
2.894630e+03,8.478837e+02
2.895595e+03,8.636942e+02
2.896559e+03,8.938088e+02
2.897523e+03,8.899039e+02
2.898487e+03,8.731354e+02
2.899452e+03,8.621895e+02
2.900416e+03,8.545270e+02
2.901380e+03,8.486452e+02
2.902344e+03,8.503778e+02
2.903309e+03,8.581271e+02
2.904273e+03,8.494064e+02
2.905237e+03,8.383525e+02
2.906201e+03,8.406249e+02
2.907166e+03,8.442133e+02
2.908130e+03,8.437692e+02
2.909094e+03,8.386476e+02
2.910058e+03,8.302932e+02
2.911022e+03,8.346808e+02
2.911987e+03,8.437238e+02
2.912951e+03,8.478528e+02
2.913915e+03,8.482070e+02
2.914879e+03,8.445172e+02
2.915844e+03,8.395724e+02
2.916808e+03,8.340303e+02
2.917772e+03,8.282360e+02
2.918736e+03,8.224500e+02
2.919700e+03,8.150648e+02
2.920665e+03,8.112344e+02
2.921629e+03,8.210607e+02
2.922593e+03,8.173575e+02
2.923557e+03,8.034890e+02
2.924522e+03,7.977695e+02
2.925486e+03,8.005489e+02
2.926450e+03,8.207928e+02
2.927414e+03,8.319744e+02
2.928379e+03,8.186140e+02
2.929343e+03,8.030222e+02
2.930307e+03,7.899484e+02
2.931271e+03,7.909549e+02
2.932236e+03,8.001643e+02
2.933200e+03,8.134242e+02
2.934164e+03,8.158551e+02
2.935128e+03,7.990386e+02
2.936093e+03,8.112149e+02
2.937057e+03,8.484583e+02
2.938021e+03,8.436843e+02
2.938985e+03,8.217313e+02
2.939949e+03,8.291204e+02
2.940914e+03,8.278123e+02
2.941878e+03,8.057894e+02
2.942842e+03,7.938615e+02
2.943806e+03,7.961002e+02
2.944771e+03,8.070315e+02
2.945735e+03,8.164740e+02
2.946699e+03,8.084943e+02
2.947663e+03,8.006523e+02
2.948627e+03,7.978842e+02
2.949592e+03,8.017950e+02
2.950556e+03,8.109645e+02
2.951520e+03,7.972101e+02
2.952484e+03,7.837777e+02
2.953449e+03,7.950464e+02
2.954413e+03,8.107442e+02
2.955377e+03,8.223463e+02
2.956341e+03,8.378992e+02
2.957306e+03,8.540036e+02
2.958270e+03,8.567327e+02
2.959234e+03,8.365923e+02
2.960198e+03,7.869152e+02
2.961163e+03,7.629371e+02
2.962127e+03,7.914742e+02
2.963091e+03,8.077160e+02
2.964055e+03,8.067736e+02
2.965020e+03,7.940148e+02
2.965984e+03,7.879052e+02
2.966948e+03,8.018118e+02
2.967912e+03,8.075720e+02
2.968876e+03,7.893292e+02
2.969841e+03,7.912427e+02
2.970805e+03,8.008901e+02
2.971769e+03,7.941815e+02
2.972733e+03,7.827371e+02
2.973698e+03,7.747169e+02
2.974662e+03,7.708627e+02
2.975626e+03,7.720670e+02
2.976590e+03,7.745464e+02
2.977554e+03,7.777606e+02
2.978519e+03,7.804025e+02
2.979483e+03,7.813332e+02
2.980447e+03,7.811406e+02
2.981411e+03,7.727281e+02
2.982376e+03,7.588018e+02
2.983340e+03,7.638977e+02
2.984304e+03,7.721459e+02
2.985268e+03,7.665394e+02
2.986233e+03,7.663756e+02
2.987197e+03,7.864863e+02
2.988161e+03,7.876422e+02
2.989125e+03,7.780039e+02
2.990090e+03,7.934338e+02
2.991054e+03,8.047906e+02
2.992018e+03,7.878743e+02
2.992982e+03,7.690737e+02
2.993947e+03,7.572552e+02
2.994911e+03,7.729125e+02
2.995875e+03,7.965343e+02
2.996839e+03,7.940059e+02
2.997803e+03,7.821396e+02
2.998768e+03,7.727145e+02
2.999732e+03,7.656514e+02
3.000696e+03,7.620714e+02
3.001660e+03,7.594137e+02
3.002625e+03,7.587910e+02
3.003589e+03,7.624987e+02
3.004553e+03,7.615151e+02
3.005517e+03,7.514721e+02
3.006481e+03,7.593558e+02
3.007446e+03,7.785777e+02
3.008410e+03,7.815867e+02
3.009374e+03,7.747532e+02
3.010338e+03,7.643656e+02
3.011303e+03,7.535026e+02
3.012267e+03,7.415523e+02
3.013231e+03,7.453923e+02
3.014195e+03,7.578544e+02
3.015160e+03,7.707518e+02
3.016124e+03,7.717528e+02
3.017088e+03,7.583291e+02
3.018052e+03,7.525715e+02
3.019017e+03,7.555602e+02
3.019981e+03,7.486442e+02
3.020945e+03,7.402017e+02
3.021909e+03,7.359874e+02
3.022874e+03,7.405034e+02
3.023838e+03,7.518711e+02
3.024802e+03,7.614203e+02
3.025766e+03,7.670833e+02
3.026730e+03,7.613781e+02
3.027695e+03,7.590308e+02
3.028659e+03,7.671336e+02
3.029623e+03,7.628662e+02
3.030587e+03,7.479343e+02
3.031552e+03,7.380707e+02
3.032516e+03,7.373651e+02
3.033480e+03,7.623818e+02
3.034444e+03,7.758766e+02
3.035408e+03,7.723326e+02
3.036373e+03,7.600085e+02
3.037337e+03,7.480598e+02
3.038301e+03,7.680276e+02
3.039265e+03,7.859797e+02
3.040230e+03,7.792288e+02
3.041194e+03,7.733943e+02
3.042158e+03,7.681628e+02
3.043122e+03,7.543174e+02
3.044087e+03,7.406397e+02
3.045051e+03,7.383575e+02
3.046015e+03,7.407979e+02
3.046979e+03,7.477469e+02
3.047944e+03,7.388630e+02
3.048908e+03,7.303355e+02
3.049872e+03,7.486381e+02
3.050836e+03,7.612129e+02
3.051801e+03,7.431940e+02
3.052765e+03,7.372021e+02
3.053729e+03,7.442045e+02
3.054693e+03,7.470169e+02
3.055657e+03,7.416556e+02
3.056622e+03,7.240299e+02
3.057586e+03,7.245125e+02
3.058550e+03,7.516851e+02
3.059514e+03,7.550837e+02
3.060479e+03,7.480244e+02
3.061443e+03,7.575670e+02
3.062407e+03,7.549276e+02
3.063371e+03,7.346269e+02
3.064335e+03,7.229334e+02
3.065300e+03,7.235391e+02
3.066264e+03,7.477385e+02
3.067228e+03,7.666199e+02
3.068192e+03,7.598379e+02
3.069157e+03,7.440284e+02
3.070121e+03,7.288298e+02
3.071085e+03,7.459545e+02
3.072049e+03,7.676853e+02
3.073014e+03,7.480078e+02
3.073978e+03,7.321715e+02
3.074942e+03,7.293454e+02
3.075906e+03,7.300933e+02
3.076871e+03,7.323393e+02
3.077835e+03,7.332576e+02
3.078799e+03,7.366494e+02
3.079763e+03,7.473078e+02
3.080728e+03,7.422899e+02
3.081692e+03,7.265273e+02
3.082656e+03,7.172343e+02
3.083620e+03,7.225074e+02
3.084584e+03,7.454040e+02
3.085549e+03,7.547755e+02
3.086513e+03,7.450671e+02
3.087477e+03,7.284362e+02
3.088441e+03,7.197015e+02
3.089406e+03,7.430601e+02
3.090370e+03,7.508099e+02
3.091334e+03,7.386813e+02
3.092298e+03,7.362480e+02
3.093262e+03,7.401882e+02
3.094227e+03,7.412103e+02
3.095191e+03,7.400397e+02
3.096155e+03,7.365756e+02
3.097119e+03,7.376195e+02
3.098084e+03,7.399513e+02
3.099048e+03,7.338088e+02
3.100012e+03,7.314926e+02
3.100976e+03,7.462230e+02
3.101941e+03,7.427818e+02
3.102905e+03,7.252346e+02
3.103869e+03,7.353203e+02
3.104833e+03,7.489767e+02
3.105798e+03,7.517945e+02
3.106762e+03,7.359088e+02
3.107726e+03,7.062634e+02
3.108690e+03,7.295989e+02
3.109655e+03,7.608848e+02
3.110619e+03,7.384470e+02
3.111583e+03,7.229288e+02
3.112547e+03,7.239750e+02
3.113511e+03,7.248304e+02
3.114476e+03,7.258835e+02
3.115440e+03,7.367120e+02
3.116404e+03,7.404677e+02
3.117368e+03,7.296816e+02
3.118333e+03,7.311865e+02
3.119297e+03,7.394278e+02
3.120261e+03,7.445736e+02
3.121225e+03,7.443559e+02
3.122189e+03,7.374255e+02
3.123154e+03,7.284583e+02
3.124118e+03,7.208316e+02
3.125082e+03,7.290312e+02
3.126046e+03,7.395457e+02
3.127011e+03,7.452642e+02
3.127975e+03,7.353815e+02
3.128939e+03,7.183759e+02
3.129903e+03,7.372115e+02
3.130868e+03,7.632253e+02
3.131832e+03,7.763419e+02
3.132796e+03,7.778001e+02
3.133760e+03,7.662913e+02
3.134725e+03,7.298627e+02
3.135689e+03,7.065253e+02
3.136653e+03,7.317170e+02
3.137617e+03,7.597080e+02
3.138582e+03,7.777317e+02
3.139546e+03,7.818504e+02
3.140510e+03,7.719785e+02
3.141474e+03,7.468273e+02
3.142438e+03,7.362098e+02
3.143403e+03,7.419025e+02
3.144367e+03,7.437223e+02
3.145331e+03,7.437344e+02
3.146295e+03,7.524669e+02
3.147260e+03,7.478314e+02
3.148224e+03,7.239075e+02
3.149188e+03,7.425852e+02
3.150152e+03,7.625430e+02
3.151116e+03,7.245016e+02
3.152081e+03,7.066721e+02
3.153045e+03,7.420176e+02
3.154009e+03,7.537360e+02
3.154973e+03,7.465324e+02
3.155938e+03,7.295455e+02
3.156902e+03,7.319748e+02
3.157866e+03,7.562005e+02
3.158830e+03,7.588412e+02
3.159795e+03,7.476365e+02
3.160759e+03,7.428194e+02
3.161723e+03,7.389193e+02
3.162687e+03,7.361761e+02
3.163652e+03,7.217224e+02
3.164616e+03,7.116434e+02
3.165580e+03,7.390625e+02
3.166544e+03,7.474691e+02
3.167509e+03,7.174428e+02
3.168473e+03,7.139409e+02
3.169437e+03,7.324590e+02
3.170401e+03,7.401897e+02
3.171365e+03,7.396912e+02
3.172330e+03,7.320612e+02
3.173294e+03,7.349547e+02
3.174258e+03,7.472445e+02
3.175222e+03,7.672592e+02
3.176187e+03,7.713147e+02
3.177151e+03,7.426420e+02
3.178115e+03,7.339515e+02
3.179079e+03,7.410837e+02
3.180043e+03,7.375267e+02
3.181008e+03,7.316191e+02
3.181972e+03,7.281434e+02
3.182936e+03,7.218282e+02
3.183900e+03,7.177509e+02
3.184865e+03,7.424774e+02
3.185829e+03,7.653049e+02
3.186793e+03,7.710209e+02
3.187757e+03,7.616699e+02
3.188722e+03,7.491982e+02
3.189686e+03,7.631998e+02
3.190650e+03,7.693721e+02
3.191614e+03,7.551908e+02
3.192579e+03,7.457067e+02
3.193543e+03,7.455262e+02
3.194507e+03,7.710840e+02
3.195471e+03,7.824061e+02
3.196436e+03,7.596345e+02
3.197400e+03,7.636423e+02
3.198364e+03,7.812875e+02
3.199328e+03,7.878049e+02
3.200292e+03,7.824808e+02
3.201257e+03,0.000000e+00
3.202221e+03,0.000000e+00
3.203185e+03,0.000000e+00
3.204149e+03,0.000000e+00
3.205114e+03,0.000000e+00
3.206078e+03,0.000000e+00
3.207042e+03,0.000000e+00
3.208006e+03,0.000000e+00
3.208970e+03,0.000000e+00
3.209935e+03,0.000000e+00
3.210899e+03,0.000000e+00
3.211863e+03,0.000000e+00
3.212827e+03,0.000000e+00
3.213792e+03,0.000000e+00
3.214756e+03,0.000000e+00
3.215720e+03,0.000000e+00
3.216684e+03,0.000000e+00
3.217649e+03,0.000000e+00
3.218613e+03,0.000000e+00
3.219577e+03,0.000000e+00
3.220541e+03,0.000000e+00
3.221506e+03,0.000000e+00
3.222470e+03,0.000000e+00
3.223434e+03,0.000000e+00
3.224398e+03,0.000000e+00
3.225363e+03,0.000000e+00
3.226327e+03,0.000000e+00
3.227291e+03,0.000000e+00
3.228255e+03,0.000000e+00
3.229219e+03,0.000000e+00
3.230184e+03,0.000000e+00
3.231148e+03,0.000000e+00
3.232112e+03,0.000000e+00
3.233076e+03,0.000000e+00
3.234041e+03,0.000000e+00
3.235005e+03,0.000000e+00
3.235969e+03,0.000000e+00
3.236933e+03,0.000000e+00
3.237897e+03,0.000000e+00
3.238862e+03,0.000000e+00
3.239826e+03,0.000000e+00
3.240790e+03,0.000000e+00
3.241754e+03,0.000000e+00
3.242719e+03,0.000000e+00
3.243683e+03,0.000000e+00
3.244647e+03,0.000000e+00
3.245611e+03,0.000000e+00
3.246576e+03,0.000000e+00
3.247540e+03,0.000000e+00
3.248504e+03,0.000000e+00
3.249468e+03,0.000000e+00
3.250433e+03,0.000000e+00
3.251397e+03,0.000000e+00
3.252361e+03,0.000000e+00
3.253325e+03,0.000000e+00
3.254290e+03,0.000000e+00
3.255254e+03,0.000000e+00
3.256218e+03,0.000000e+00
3.257182e+03,0.000000e+00
3.258146e+03,0.000000e+00
3.259111e+03,0.000000e+00
3.260075e+03,0.000000e+00
3.261039e+03,0.000000e+00
3.262003e+03,0.000000e+00
3.262968e+03,0.000000e+00
3.263932e+03,0.000000e+00
3.264896e+03,0.000000e+00
3.265860e+03,0.000000e+00
3.266824e+03,0.000000e+00
3.267789e+03,0.000000e+00
3.268753e+03,0.000000e+00
3.269717e+03,0.000000e+00
3.270681e+03,0.000000e+00
3.271646e+03,0.000000e+00
3.272610e+03,0.000000e+00
3.273574e+03,0.000000e+00
3.274538e+03,0.000000e+00
3.275503e+03,0.000000e+00
3.276467e+03,0.000000e+00
3.277431e+03,0.000000e+00
3.278395e+03,0.000000e+00
3.279360e+03,0.000000e+00
3.280324e+03,0.000000e+00
3.281288e+03,0.000000e+00
3.282252e+03,0.000000e+00
3.283217e+03,0.000000e+00
3.284181e+03,0.000000e+00
3.285145e+03,0.000000e+00
3.286109e+03,0.000000e+00
3.287073e+03,0.000000e+00
3.288038e+03,0.000000e+00
3.289002e+03,0.000000e+00
3.289966e+03,0.000000e+00
3.290930e+03,0.000000e+00
3.291895e+03,0.000000e+00
3.292859e+03,0.000000e+00
3.293823e+03,0.000000e+00
3.294787e+03,0.000000e+00
3.295751e+03,0.000000e+00
3.296716e+03,0.000000e+00
3.297680e+03,0.000000e+00
3.298644e+03,0.000000e+00
3.299608e+03,0.000000e+00
3.300573e+03,0.000000e+00
3.301537e+03,0.000000e+00
3.302501e+03,0.000000e+00
3.303465e+03,0.000000e+00
3.304430e+03,0.000000e+00
3.305394e+03,0.000000e+00
3.306358e+03,0.000000e+00
3.307322e+03,0.000000e+00
3.308287e+03,0.000000e+00
3.309251e+03,0.000000e+00
3.310215e+03,0.000000e+00
3.311179e+03,0.000000e+00
3.312144e+03,0.000000e+00
3.313108e+03,0.000000e+00
3.314072e+03,0.000000e+00
3.315036e+03,0.000000e+00
3.316000e+03,0.000000e+00
3.316965e+03,0.000000e+00
3.317929e+03,0.000000e+00
3.318893e+03,0.000000e+00
3.319857e+03,0.000000e+00
3.320822e+03,0.000000e+00
3.321786e+03,0.000000e+00
3.322750e+03,0.000000e+00
3.323714e+03,0.000000e+00
3.324678e+03,0.000000e+00
3.325643e+03,0.000000e+00
3.326607e+03,0.000000e+00
3.327571e+03,0.000000e+00
3.328535e+03,0.000000e+00
3.329500e+03,0.000000e+00
3.330464e+03,0.000000e+00
3.331428e+03,0.000000e+00
3.332392e+03,0.000000e+00
3.333357e+03,0.000000e+00
3.334321e+03,0.000000e+00
3.335285e+03,0.000000e+00
3.336249e+03,0.000000e+00
3.337214e+03,0.000000e+00
3.338178e+03,0.000000e+00
3.339142e+03,0.000000e+00
3.340106e+03,0.000000e+00
3.341071e+03,0.000000e+00
3.342035e+03,0.000000e+00
3.342999e+03,0.000000e+00
3.343963e+03,0.000000e+00
3.344927e+03,0.000000e+00
3.345892e+03,0.000000e+00
3.346856e+03,0.000000e+00
3.347820e+03,0.000000e+00
3.348784e+03,0.000000e+00
3.349749e+03,0.000000e+00
3.350713e+03,0.000000e+00
3.351677e+03,0.000000e+00
3.352641e+03,0.000000e+00
3.353605e+03,0.000000e+00
3.354570e+03,0.000000e+00
3.355534e+03,0.000000e+00
3.356498e+03,0.000000e+00
3.357462e+03,0.000000e+00
3.358427e+03,0.000000e+00
3.359391e+03,0.000000e+00
3.360355e+03,0.000000e+00
3.361319e+03,0.000000e+00
3.362284e+03,0.000000e+00
3.363248e+03,0.000000e+00
3.364212e+03,0.000000e+00
3.365176e+03,0.000000e+00
3.366141e+03,0.000000e+00
3.367105e+03,0.000000e+00
3.368069e+03,0.000000e+00
3.369033e+03,0.000000e+00
3.369998e+03,0.000000e+00
3.370962e+03,0.000000e+00
3.371926e+03,0.000000e+00
3.372890e+03,0.000000e+00
3.373854e+03,0.000000e+00
3.374819e+03,0.000000e+00
3.375783e+03,0.000000e+00
3.376747e+03,0.000000e+00
3.377711e+03,0.000000e+00
3.378676e+03,0.000000e+00
3.379640e+03,0.000000e+00
3.380604e+03,0.000000e+00
3.381568e+03,0.000000e+00
3.382532e+03,0.000000e+00
3.383497e+03,0.000000e+00
3.384461e+03,0.000000e+00
3.385425e+03,0.000000e+00
3.386389e+03,0.000000e+00
3.387354e+03,0.000000e+00
3.388318e+03,0.000000e+00
3.389282e+03,0.000000e+00
3.390246e+03,0.000000e+00
3.391211e+03,0.000000e+00
3.392175e+03,0.000000e+00
3.393139e+03,0.000000e+00
3.394103e+03,0.000000e+00
3.395068e+03,0.000000e+00
3.396032e+03,0.000000e+00
3.396996e+03,0.000000e+00
3.397960e+03,0.000000e+00
3.398925e+03,0.000000e+00
3.399889e+03,0.000000e+00
3.400853e+03,0.000000e+00
3.401817e+03,0.000000e+00
3.402781e+03,0.000000e+00
3.403746e+03,0.000000e+00
3.404710e+03,0.000000e+00
3.405674e+03,0.000000e+00
3.406638e+03,0.000000e+00
3.407603e+03,0.000000e+00
3.408567e+03,0.000000e+00
3.409531e+03,0.000000e+00
3.410495e+03,0.000000e+00
3.411459e+03,0.000000e+00
3.412424e+03,0.000000e+00
3.413388e+03,0.000000e+00
3.414352e+03,0.000000e+00
3.415316e+03,0.000000e+00
3.416281e+03,0.000000e+00
3.417245e+03,0.000000e+00
3.418209e+03,0.000000e+00
3.419173e+03,0.000000e+00
3.420138e+03,0.000000e+00
3.421102e+03,0.000000e+00
3.422066e+03,0.000000e+00
3.423030e+03,0.000000e+00
3.423995e+03,0.000000e+00
3.424959e+03,0.000000e+00
3.425923e+03,0.000000e+00
3.426887e+03,0.000000e+00
3.427852e+03,0.000000e+00
3.428816e+03,0.000000e+00
3.429780e+03,0.000000e+00
3.430744e+03,0.000000e+00
3.431708e+03,0.000000e+00
3.432673e+03,0.000000e+00
3.433637e+03,0.000000e+00
3.434601e+03,0.000000e+00
3.435565e+03,0.000000e+00
3.436530e+03,0.000000e+00
3.437494e+03,0.000000e+00
3.438458e+03,0.000000e+00
3.439422e+03,0.000000e+00
3.440386e+03,0.000000e+00
3.441351e+03,0.000000e+00
3.442315e+03,0.000000e+00
3.443279e+03,0.000000e+00
3.444243e+03,0.000000e+00
3.445208e+03,0.000000e+00
3.446172e+03,0.000000e+00
3.447136e+03,0.000000e+00
3.448100e+03,0.000000e+00
3.449065e+03,0.000000e+00
3.450029e+03,0.000000e+00
3.450993e+03,0.000000e+00
3.451957e+03,0.000000e+00
3.452922e+03,0.000000e+00
3.453886e+03,0.000000e+00
3.454850e+03,0.000000e+00
3.455814e+03,0.000000e+00
3.456779e+03,0.000000e+00
3.457743e+03,0.000000e+00
3.458707e+03,0.000000e+00
3.459671e+03,0.000000e+00
3.460635e+03,0.000000e+00
3.461600e+03,0.000000e+00
3.462564e+03,0.000000e+00
3.463528e+03,0.000000e+00
3.464492e+03,0.000000e+00
3.465457e+03,0.000000e+00
3.466421e+03,0.000000e+00
3.467385e+03,0.000000e+00
3.468349e+03,0.000000e+00
3.469313e+03,0.000000e+00
3.470278e+03,0.000000e+00
3.471242e+03,0.000000e+00
3.472206e+03,0.000000e+00
3.473170e+03,0.000000e+00
3.474135e+03,0.000000e+00
3.475099e+03,0.000000e+00
3.476063e+03,0.000000e+00
3.477027e+03,0.000000e+00
3.477992e+03,0.000000e+00
3.478956e+03,0.000000e+00
3.479920e+03,0.000000e+00
3.480884e+03,0.000000e+00
3.481849e+03,0.000000e+00
3.482813e+03,0.000000e+00
3.483777e+03,0.000000e+00
3.484741e+03,0.000000e+00
3.485706e+03,0.000000e+00
3.486670e+03,0.000000e+00
3.487634e+03,0.000000e+00
3.488598e+03,0.000000e+00
3.489563e+03,0.000000e+00
3.490527e+03,0.000000e+00
3.491491e+03,0.000000e+00
3.492455e+03,0.000000e+00
3.493419e+03,0.000000e+00
3.494384e+03,0.000000e+00
3.495348e+03,0.000000e+00
3.496312e+03,0.000000e+00
3.497276e+03,0.000000e+00
3.498240e+03,0.000000e+00
3.499205e+03,0.000000e+00
3.500169e+03,0.000000e+00
