9.931763e+01,0.000000e+00
1.002819e+02,0.000000e+00
1.012461e+02,0.000000e+00
1.022103e+02,0.000000e+00
1.031746e+02,0.000000e+00
1.041388e+02,0.000000e+00
1.051030e+02,0.000000e+00
1.060673e+02,0.000000e+00
1.070315e+02,0.000000e+00
1.079957e+02,0.000000e+00
1.089600e+02,0.000000e+00
1.099242e+02,0.000000e+00
1.108884e+02,0.000000e+00
1.118527e+02,0.000000e+00
1.128169e+02,0.000000e+00
1.137811e+02,0.000000e+00
1.147454e+02,0.000000e+00
1.157096e+02,0.000000e+00
1.166738e+02,0.000000e+00
1.176381e+02,0.000000e+00
1.186023e+02,0.000000e+00
1.195665e+02,0.000000e+00
1.205308e+02,0.000000e+00
1.214950e+02,0.000000e+00
1.224592e+02,0.000000e+00
1.234235e+02,0.000000e+00
1.243877e+02,0.000000e+00
1.253519e+02,0.000000e+00
1.263162e+02,0.000000e+00
1.272804e+02,0.000000e+00
1.282446e+02,0.000000e+00
1.292089e+02,0.000000e+00
1.301731e+02,0.000000e+00
1.311373e+02,0.000000e+00
1.321016e+02,0.000000e+00
1.330658e+02,0.000000e+00
1.340300e+02,0.000000e+00
1.349943e+02,0.000000e+00
1.359585e+02,0.000000e+00
1.369227e+02,0.000000e+00
1.378870e+02,0.000000e+00
1.388512e+02,0.000000e+00
1.398154e+02,0.000000e+00
1.407797e+02,0.000000e+00
1.417439e+02,0.000000e+00
1.427081e+02,0.000000e+00
1.436724e+02,0.000000e+00
1.446366e+02,0.000000e+00
1.456008e+02,0.000000e+00
1.465651e+02,0.000000e+00
1.475293e+02,0.000000e+00
1.484935e+02,0.000000e+00
1.494578e+02,0.000000e+00
1.504220e+02,0.000000e+00
1.513862e+02,0.000000e+00
1.523505e+02,0.000000e+00
1.533147e+02,0.000000e+00
1.542789e+02,0.000000e+00
1.552432e+02,0.000000e+00
1.562074e+02,0.000000e+00
1.571716e+02,0.000000e+00
1.581359e+02,0.000000e+00
1.591001e+02,0.000000e+00
1.600643e+02,0.000000e+00
1.610286e+02,0.000000e+00
1.619928e+02,0.000000e+00
1.629570e+02,0.000000e+00
1.639213e+02,0.000000e+00
1.648855e+02,0.000000e+00
1.658497e+02,0.000000e+00
1.668140e+02,0.000000e+00
1.677782e+02,0.000000e+00
1.687424e+02,0.000000e+00
1.697067e+02,0.000000e+00
1.706709e+02,0.000000e+00
1.716351e+02,0.000000e+00
1.725994e+02,0.000000e+00
1.735636e+02,0.000000e+00
1.745278e+02,0.000000e+00
1.754921e+02,0.000000e+00
1.764563e+02,0.000000e+00
1.774205e+02,0.000000e+00
1.783848e+02,0.000000e+00
1.793490e+02,0.000000e+00
1.803132e+02,0.000000e+00
1.812775e+02,0.000000e+00
1.822417e+02,0.000000e+00
1.832059e+02,0.000000e+00
1.841702e+02,0.000000e+00
1.851344e+02,0.000000e+00
1.860986e+02,0.000000e+00
1.870629e+02,0.000000e+00
1.880271e+02,0.000000e+00
1.889913e+02,0.000000e+00
1.899556e+02,0.000000e+00
1.909198e+02,0.000000e+00
1.918840e+02,0.000000e+00
1.928483e+02,0.000000e+00
1.938125e+02,0.000000e+00
1.947767e+02,0.000000e+00
1.957410e+02,0.000000e+00
1.967052e+02,0.000000e+00
1.976694e+02,0.000000e+00
1.986337e+02,0.000000e+00
1.995979e+02,3.704518e+03
2.005621e+02,3.703194e+03
2.015264e+02,3.706206e+03
2.024906e+02,3.722875e+03
2.034548e+02,3.735760e+03
2.044191e+02,3.737116e+03
2.053833e+02,3.728218e+03
2.063475e+02,3.717118e+03
2.073118e+02,3.712972e+03
2.082760e+02,3.718874e+03
2.092402e+02,3.722416e+03
2.102045e+02,3.722918e+03
2.111687e+02,3.723310e+03
2.121329e+02,3.724941e+03
2.130972e+02,3.727403e+03
2.140614e+02,3.730377e+03
2.150256e+02,3.734805e+03
2.159899e+02,3.741548e+03
2.169541e+02,3.749620e+03
2.179183e+02,3.761590e+03
2.188826e+02,3.775429e+03
2.198468e+02,3.785376e+03
2.208110e+02,3.784234e+03
2.217753e+02,3.771941e+03
2.227395e+02,3.762475e+03
2.237037e+02,3.762021e+03
2.246680e+02,3.765958e+03
2.256322e+02,3.769302e+03
2.265964e+02,3.772780e+03
2.275607e+02,3.776345e+03
2.285249e+02,3.778781e+03
2.294892e+02,3.779576e+03
2.304534e+02,3.782299e+03
2.314176e+02,3.789503e+03
2.323819e+02,3.799329e+03
2.333461e+02,3.806453e+03
2.343103e+02,3.807106e+03
2.352746e+02,3.805161e+03
2.362388e+02,3.807353e+03
2.372030e+02,3.815374e+03
2.381673e+02,3.824703e+03
2.391315e+02,3.829494e+03
2.400957e+02,3.830532e+03
2.410600e+02,3.830408e+03
2.420242e+02,3.830022e+03
2.429884e+02,3.830528e+03
2.439527e+02,3.833358e+03
2.449169e+02,3.838533e+03
2.458811e+02,3.845697e+03
2.468454e+02,3.851439e+03
2.478096e+02,3.854332e+03
2.487738e+02,3.856942e+03
2.497381e+02,3.862200e+03
2.507023e+02,3.870496e+03
2.516665e+02,3.878528e+03
2.526308e+02,3.880512e+03
2.535950e+02,3.864399e+03
2.545592e+02,3.853433e+03
2.555235e+02,3.852378e+03
2.564877e+02,3.856801e+03
2.574519e+02,3.861630e+03
2.584161e+02,3.864356e+03
2.593804e+02,3.865959e+03
2.603446e+02,3.870682e+03
2.613088e+02,3.879448e+03
2.622731e+02,3.888630e+03
2.632373e+02,3.897009e+03
2.642015e+02,3.903812e+03
2.651658e+02,3.909598e+03
2.661300e+02,3.916982e+03
2.670942e+02,3.928142e+03
2.680585e+02,3.936061e+03
2.690227e+02,3.936711e+03
2.699869e+02,3.934649e+03
2.709512e+02,3.932475e+03
2.719154e+02,3.932013e+03
2.728796e+02,3.933067e+03
2.738439e+02,3.935213e+03
2.748081e+02,3.939442e+03
2.757723e+02,3.945889e+03
2.767366e+02,3.952556e+03
2.777008e+02,3.957583e+03
2.786650e+02,3.959935e+03
2.796293e+02,3.958875e+03
2.805935e+02,3.956694e+03
2.815577e+02,3.956522e+03
2.825220e+02,3.958965e+03
2.834862e+02,3.961906e+03
2.844504e+02,3.962289e+03
2.854147e+02,3.960439e+03
2.863789e+02,3.958035e+03
2.873431e+02,3.955354e+03
2.883074e+02,3.953742e+03
2.892716e+02,3.954890e+03
2.902358e+02,3.959368e+03
2.912001e+02,3.966696e+03
2.921643e+02,3.971594e+03
2.931285e+02,3.975077e+03
2.940928e+02,3.977385e+03
2.950570e+02,3.977061e+03
2.960212e+02,3.973870e+03
2.969855e+02,3.969644e+03
2.979497e+02,3.967566e+03
2.989139e+02,3.970032e+03
2.998782e+02,3.971108e+03
3.008424e+02,3.971846e+03
3.018066e+02,3.973024e+03
3.027709e+02,3.973891e+03
3.037351e+02,3.973553e+03
3.046993e+02,3.971892e+03
3.056636e+02,3.968990e+03
3.066278e+02,3.964158e+03
3.075920e+02,3.961786e+03
3.085563e+02,3.964991e+03
3.095205e+02,3.972832e+03
3.104847e+02,3.981586e+03
3.114490e+02,3.989790e+03
3.124132e+02,3.996248e+03
3.133774e+02,3.999122e+03
3.143417e+02,3.997162e+03
3.153059e+02,3.992202e+03
3.162701e+02,3.988086e+03
3.172344e+02,3.986308e+03
3.181986e+02,3.984936e+03
3.191628e+02,3.982262e+03
3.201271e+02,3.979932e+03
3.210913e+02,3.981112e+03
3.220555e+02,3.987410e+03
3.230198e+02,3.997626e+03
3.239840e+02,4.005680e+03
3.249482e+02,4.011387e+03
3.259125e+02,4.014862e+03
3.268767e+02,4.015521e+03
3.278409e+02,4.013989e+03
3.288052e+02,4.011527e+03
3.297694e+02,4.008623e+03
3.307336e+02,4.004722e+03
3.316979e+02,4.002930e+03
3.326621e+02,4.005598e+03
3.336263e+02,4.007970e+03
3.345906e+02,4.008008e+03
3.355548e+02,4.006371e+03
3.365190e+02,4.005423e+03
3.374833e+02,4.006517e+03
3.384475e+02,4.009272e+03
3.394117e+02,4.014590e+03
3.403760e+02,4.024309e+03
3.413402e+02,4.035234e+03
3.423044e+02,4.042099e+03
3.432687e+02,4.040189e+03
3.442329e+02,4.035864e+03
3.451971e+02,4.033715e+03
3.461614e+02,4.032847e+03
3.471256e+02,4.032055e+03
3.480898e+02,4.032337e+03
3.490541e+02,4.036102e+03
3.500183e+02,4.037053e+03
3.509825e+02,4.032323e+03
3.519468e+02,4.028304e+03
3.529110e+02,4.030309e+03
3.538752e+02,4.038806e+03
3.548395e+02,4.049098e+03
3.558037e+02,4.053878e+03
3.567680e+02,4.049126e+03
3.577322e+02,4.045515e+03
3.586964e+02,4.045135e+03
3.596607e+02,4.047863e+03
3.606249e+02,4.052831e+03
3.615891e+02,4.059734e+03
3.625534e+02,4.065076e+03
3.635176e+02,4.062260e+03
3.644818e+02,4.048915e+03
3.654461e+02,4.036813e+03
3.664103e+02,4.036161e+03
3.673745e+02,4.046744e+03
3.683388e+02,4.058626e+03
3.693030e+02,4.067635e+03
3.702672e+02,4.073454e+03
3.712315e+02,4.075837e+03
3.721957e+02,4.073972e+03
3.731599e+02,4.069880e+03
3.741242e+02,4.068112e+03
3.750884e+02,4.074656e+03
3.760526e+02,4.080290e+03
3.770169e+02,4.082752e+03
3.779811e+02,4.083463e+03
3.789453e+02,4.084465e+03
3.799096e+02,4.086767e+03
3.808738e+02,4.088804e+03
3.818380e+02,4.085366e+03
3.828023e+02,4.072540e+03
3.837665e+02,4.063171e+03
3.847307e+02,4.060039e+03
3.856950e+02,4.062256e+03
3.866592e+02,4.067502e+03
3.876234e+02,4.077158e+03
3.885877e+02,4.088756e+03
3.895519e+02,4.094249e+03
3.905161e+02,4.090242e+03
3.914804e+02,4.083988e+03
3.924446e+02,4.085779e+03
3.934088e+02,4.100026e+03
3.943731e+02,4.108060e+03
3.953373e+02,4.099018e+03
3.963015e+02,4.081862e+03
3.972658e+02,4.069023e+03
3.982300e+02,4.065382e+03
3.991942e+02,4.070185e+03
4.001585e+02,4.078176e+03
4.011227e+02,4.093473e+03
4.020869e+02,4.104162e+03
4.030512e+02,4.104276e+03
4.040154e+02,4.097825e+03
4.049796e+02,4.092281e+03
4.059439e+02,4.092986e+03
4.069081e+02,4.097607e+03
4.078723e+02,4.097056e+03
4.088366e+02,4.086898e+03
4.098008e+02,4.076267e+03
4.107650e+02,4.074087e+03
4.117293e+02,4.080032e+03
4.126935e+02,4.086556e+03
4.136577e+02,4.091940e+03
4.146220e+02,4.096030e+03
4.155862e+02,4.098892e+03
4.165504e+02,4.100733e+03
4.175147e+02,4.101192e+03
4.184789e+02,4.099399e+03
4.194431e+02,4.089879e+03
4.204074e+02,4.084478e+03
4.213716e+02,4.084294e+03
4.223358e+02,4.087808e+03
4.233001e+02,4.094784e+03
4.242643e+02,4.106651e+03
4.252285e+02,4.119504e+03
4.261928e+02,4.122383e+03
4.271570e+02,4.110901e+03
4.281212e+02,4.100174e+03
4.290855e+02,4.095776e+03
4.300497e+02,4.095791e+03
4.310139e+02,4.097228e+03
4.319782e+02,4.101767e+03
4.329424e+02,4.107137e+03
4.339066e+02,4.109731e+03
4.348709e+02,4.108741e+03
4.358351e+02,4.106246e+03
4.367993e+02,4.104493e+03
4.377636e+02,4.104534e+03
4.387278e+02,4.103221e+03
4.396920e+02,4.098502e+03
4.406563e+02,4.094824e+03
4.416205e+02,4.095838e+03
4.425847e+02,4.102114e+03
4.435490e+02,4.109389e+03
4.445132e+02,4.111979e+03
4.454774e+02,4.109481e+03
4.464417e+02,4.107197e+03
4.474059e+02,4.103833e+03
4.483701e+02,4.101030e+03
4.493344e+02,4.101872e+03
4.502986e+02,4.113182e+03
4.512628e+02,4.123816e+03
4.522271e+02,4.124218e+03
4.531913e+02,4.116209e+03
4.541555e+02,4.107837e+03
4.551198e+02,4.103387e+03
4.560840e+02,4.103079e+03
4.570482e+02,4.103514e+03
4.580125e+02,4.109667e+03
4.589767e+02,4.115389e+03
4.599409e+02,4.116631e+03
4.609052e+02,4.112789e+03
4.618694e+02,4.106549e+03
4.628336e+02,4.099069e+03
4.637979e+02,4.091097e+03
4.647621e+02,4.087668e+03
4.657263e+02,4.092743e+03
4.666906e+02,4.100852e+03
4.676548e+02,4.104593e+03
4.686190e+02,4.102315e+03
4.695833e+02,4.099310e+03
4.705475e+02,4.095252e+03
4.715117e+02,4.091352e+03
4.724760e+02,4.090665e+03
4.734402e+02,4.094774e+03
4.744044e+02,4.100985e+03
4.753687e+02,4.102292e+03
4.763329e+02,4.094277e+03
4.772971e+02,4.088278e+03
4.782614e+02,4.085609e+03
4.792256e+02,4.086121e+03
4.801898e+02,4.089538e+03
4.811541e+02,4.097348e+03
4.821183e+02,4.105704e+03
4.830826e+02,4.108768e+03
4.840468e+02,4.105936e+03
4.850110e+02,4.101522e+03
4.859753e+02,4.098221e+03
4.869395e+02,4.095867e+03
4.879037e+02,4.094992e+03
4.888680e+02,4.097303e+03
4.898322e+02,4.100481e+03
4.907964e+02,4.104110e+03
4.917607e+02,4.108045e+03
4.927249e+02,4.111477e+03
4.936891e+02,4.111894e+03
4.946534e+02,4.108677e+03
4.956176e+02,4.111536e+03
4.965818e+02,4.127099e+03
4.975461e+02,4.143365e+03
4.985103e+02,4.149784e+03
4.994745e+02,4.143687e+03
5.004388e+02,4.134478e+03
5.014030e+02,4.123791e+03
5.023672e+02,4.114421e+03
5.033315e+02,4.111782e+03
5.042957e+02,4.117928e+03
5.052599e+02,4.127299e+03
5.062242e+02,4.128624e+03
5.071884e+02,4.116089e+03
5.081526e+02,4.105839e+03
5.091169e+02,4.101900e+03
5.100811e+02,4.101463e+03
5.110453e+02,4.100246e+03
5.120095e+02,4.095675e+03
5.129738e+02,4.091813e+03
5.139380e+02,4.094152e+03
5.149022e+02,4.102755e+03
5.158665e+02,4.113389e+03
5.168307e+02,4.123839e+03
5.177949e+02,4.131862e+03
5.187592e+02,4.131378e+03
5.197234e+02,4.120670e+03
5.206876e+02,4.110540e+03
5.216519e+02,4.105021e+03
5.226161e+02,4.104050e+03
5.235803e+02,4.105431e+03
5.245446e+02,4.108140e+03
5.255088e+02,4.111861e+03
5.264730e+02,4.114808e+03
5.274373e+02,4.117053e+03
5.284015e+02,4.118181e+03
5.293657e+02,4.116486e+03
5.303300e+02,4.111873e+03
5.312942e+02,4.107360e+03
5.322584e+02,4.105409e+03
5.332227e+02,4.105662e+03
5.341869e+02,4.106412e+03
5.351511e+02,4.106646e+03
5.361154e+02,4.107096e+03
5.370796e+02,4.109481e+03
5.380438e+02,4.114517e+03
5.390081e+02,4.121286e+03
5.399723e+02,4.134013e+03
5.409365e+02,4.146583e+03
5.419008e+02,4.151364e+03
5.428650e+02,4.141767e+03
5.438292e+02,4.132640e+03
5.447935e+02,4.134502e+03
5.457577e+02,4.142737e+03
5.467219e+02,4.147441e+03
5.476862e+02,4.144365e+03
5.486504e+02,4.136130e+03
5.496146e+02,4.130974e+03
5.505789e+02,4.130935e+03
5.515431e+02,4.130476e+03
5.525073e+02,4.129568e+03
5.534716e+02,4.129985e+03
5.544358e+02,4.132154e+03
5.554000e+02,4.136263e+03
5.563643e+02,4.139635e+03
5.573285e+02,4.139238e+03
5.582927e+02,4.134994e+03
5.592570e+02,4.129417e+03
5.602212e+02,4.124315e+03
5.611854e+02,4.119363e+03
5.621497e+02,4.115915e+03
5.631139e+02,4.115639e+03
5.640781e+02,4.113265e+03
5.650424e+02,4.108600e+03
5.660066e+02,4.102052e+03
5.669708e+02,4.094164e+03
5.679351e+02,4.084242e+03
5.688993e+02,4.074256e+03
5.698635e+02,4.066676e+03
5.708278e+02,4.061927e+03
5.717920e+02,4.062102e+03
5.727562e+02,4.069378e+03
5.737205e+02,4.087119e+03
5.746847e+02,4.096729e+03
5.756489e+02,4.091455e+03
5.766132e+02,4.083310e+03
5.775774e+02,4.079273e+03
5.785416e+02,4.080357e+03
5.795059e+02,4.082388e+03
5.804701e+02,4.082795e+03
5.814343e+02,4.081638e+03
5.823986e+02,4.078838e+03
5.833628e+02,4.074264e+03
5.843270e+02,4.069519e+03
5.852913e+02,4.066302e+03
5.862555e+02,4.063758e+03
5.872197e+02,4.064366e+03
5.881840e+02,4.071694e+03
5.891482e+02,4.079211e+03
5.901124e+02,4.080543e+03
5.910767e+02,4.072958e+03
5.920409e+02,4.065103e+03
5.930051e+02,4.067054e+03
5.939694e+02,4.076621e+03
5.949336e+02,4.082972e+03
5.958978e+02,4.082473e+03
5.968621e+02,4.077686e+03
5.978263e+02,4.074860e+03
5.987905e+02,4.079372e+03
5.997548e+02,4.080680e+03
6.007190e+02,4.074153e+03
6.016832e+02,4.066167e+03
6.026475e+02,4.063707e+03
6.036117e+02,4.070330e+03
6.045759e+02,4.079581e+03
6.055402e+02,4.083177e+03
6.065044e+02,4.081281e+03
6.074686e+02,4.080971e+03
6.084329e+02,4.087796e+03
6.093971e+02,4.099140e+03
6.103613e+02,4.100041e+03
6.113256e+02,4.077696e+03
6.122899e+02,4.058738e+03
6.132541e+02,4.047948e+03
6.142183e+02,4.043460e+03
6.151826e+02,4.042116e+03
6.161468e+02,4.046601e+03
6.171110e+02,4.052637e+03
6.180753e+02,4.053167e+03
6.190395e+02,4.048385e+03
6.200037e+02,4.043507e+03
6.209680e+02,4.041384e+03
6.219322e+02,4.042471e+03
6.228964e+02,4.044754e+03
6.238607e+02,4.050470e+03
6.248249e+02,4.054241e+03
6.257891e+02,4.051232e+03
6.267534e+02,4.042847e+03
6.277176e+02,4.036285e+03
6.286818e+02,4.038462e+03
6.296461e+02,4.043931e+03
6.306103e+02,4.046894e+03
6.315745e+02,4.047327e+03
6.325388e+02,4.045816e+03
6.335030e+02,4.041266e+03
6.344672e+02,4.032818e+03
6.354315e+02,4.028463e+03
6.363957e+02,4.030922e+03
6.373599e+02,4.032422e+03
6.383242e+02,4.029232e+03
6.392884e+02,4.022478e+03
6.402526e+02,4.017822e+03
6.412169e+02,4.020326e+03
6.421811e+02,4.023358e+03
6.431453e+02,4.019905e+03
6.441096e+02,4.010073e+03
6.450738e+02,3.999028e+03
6.460380e+02,3.991410e+03
6.470023e+02,3.988084e+03
6.479665e+02,3.989459e+03
6.489307e+02,3.997322e+03
6.498950e+02,4.005151e+03
6.508592e+02,4.005978e+03
6.518234e+02,3.998437e+03
6.527877e+02,3.994120e+03
6.537519e+02,3.999849e+03
6.547161e+02,4.006434e+03
6.556804e+02,4.006362e+03
6.566446e+02,3.999522e+03
6.576088e+02,3.991522e+03
6.585731e+02,3.987142e+03
6.595373e+02,3.985930e+03
6.605015e+02,3.985941e+03
6.614658e+02,3.987938e+03
6.624300e+02,3.988751e+03
6.633942e+02,3.984405e+03
6.643585e+02,3.969809e+03
6.653227e+02,3.962837e+03
6.662869e+02,3.967533e+03
6.672512e+02,3.975346e+03
6.682154e+02,3.981940e+03
6.691796e+02,3.986058e+03
6.701439e+02,3.988086e+03
6.711081e+02,3.989495e+03
6.720723e+02,3.989031e+03
6.730366e+02,3.983310e+03
6.740008e+02,3.972002e+03
6.749650e+02,3.959390e+03
6.759293e+02,3.950471e+03
6.768935e+02,3.946929e+03
6.778577e+02,3.943928e+03
6.788220e+02,3.941878e+03
6.797862e+02,3.942364e+03
6.807504e+02,3.945467e+03
6.817147e+02,3.950701e+03
6.826789e+02,3.954691e+03
6.836431e+02,3.954369e+03
6.846074e+02,3.951461e+03
6.855716e+02,3.949324e+03
6.865358e+02,3.949189e+03
6.875001e+02,3.949011e+03
6.884643e+02,3.946647e+03
6.894285e+02,3.942245e+03
6.903928e+02,3.933861e+03
6.913570e+02,3.917897e+03
6.923212e+02,3.902097e+03
6.932855e+02,3.895865e+03
6.942497e+02,3.907338e+03
6.952139e+02,3.915635e+03
6.961782e+02,3.916797e+03
6.971424e+02,3.916262e+03
6.981066e+02,3.917082e+03
6.990709e+02,3.918409e+03
7.000351e+02,3.918448e+03
7.009993e+02,3.917627e+03
7.019636e+02,3.917335e+03
7.029278e+02,3.918815e+03
7.038920e+02,3.922079e+03
7.048563e+02,3.924243e+03
7.058205e+02,3.922682e+03
7.067847e+02,3.918177e+03
7.077490e+02,3.912658e+03
7.087132e+02,3.905969e+03
7.096774e+02,3.901968e+03
7.106417e+02,3.900611e+03
7.116059e+02,3.901645e+03
7.125701e+02,3.902525e+03
7.135344e+02,3.905366e+03
7.144986e+02,3.907587e+03
7.154628e+02,3.904673e+03
7.164271e+02,3.895912e+03
7.173913e+02,3.886879e+03
7.183555e+02,3.883917e+03
7.193198e+02,3.885630e+03
7.202840e+02,3.885491e+03
7.212482e+02,3.882879e+03
7.222125e+02,3.880559e+03
7.231767e+02,3.880886e+03
7.241409e+02,3.883820e+03
7.251052e+02,3.886340e+03
7.260694e+02,3.890462e+03
7.270336e+02,3.892182e+03
7.279979e+02,3.889354e+03
7.289621e+02,3.881560e+03
7.299263e+02,3.873463e+03
7.308906e+02,3.865932e+03
7.318548e+02,3.858921e+03
7.328190e+02,3.851995e+03
7.337833e+02,3.845491e+03
7.347475e+02,3.841662e+03
7.357117e+02,3.846245e+03
7.366760e+02,3.858630e+03
7.376402e+02,3.863555e+03
7.386044e+02,3.858710e+03
7.395687e+02,3.851603e+03
7.405329e+02,3.847813e+03
7.414971e+02,3.848465e+03
7.424614e+02,3.846465e+03
7.434256e+02,3.840455e+03
7.443898e+02,3.837130e+03
7.453541e+02,3.839023e+03
7.463183e+02,3.843839e+03
7.472825e+02,3.846716e+03
7.482468e+02,3.845226e+03
7.492110e+02,3.841449e+03
7.501752e+02,3.838804e+03
7.511395e+02,3.838803e+03
7.521037e+02,3.840282e+03
7.530679e+02,3.841026e+03
7.540322e+02,3.840149e+03
7.549964e+02,3.838357e+03
7.559606e+02,3.836414e+03
7.569249e+02,3.833964e+03
7.578891e+02,3.830219e+03
7.588533e+02,3.825343e+03
7.598176e+02,3.824535e+03
7.607818e+02,3.829349e+03
7.617460e+02,3.830300e+03
7.627103e+02,3.822621e+03
7.636745e+02,3.810761e+03
7.646387e+02,3.804263e+03
7.656030e+02,3.811518e+03
7.665672e+02,3.821713e+03
7.675314e+02,3.823486e+03
7.684957e+02,3.816604e+03
7.694599e+02,3.807963e+03
7.704241e+02,3.804438e+03
7.713884e+02,3.805135e+03
7.723526e+02,3.803295e+03
7.733168e+02,3.799309e+03
7.742811e+02,3.797761e+03
7.752453e+02,3.799200e+03
7.762095e+02,3.801757e+03
7.771738e+02,3.802194e+03
7.781380e+02,3.796629e+03
7.791022e+02,3.790786e+03
7.800665e+02,3.787267e+03
7.810307e+02,3.785731e+03
7.819949e+02,3.785134e+03
7.829592e+02,3.790297e+03
7.839234e+02,3.793741e+03
7.848876e+02,3.787325e+03
7.858519e+02,3.776336e+03
7.868161e+02,3.770575e+03
7.877803e+02,3.775169e+03
7.887446e+02,3.783301e+03
7.897088e+02,3.787719e+03
7.906730e+02,3.789652e+03
7.916373e+02,3.787348e+03
7.926015e+02,3.777124e+03
7.935657e+02,3.762062e+03
7.945300e+02,3.754260e+03
7.954942e+02,3.760753e+03
7.964584e+02,3.760293e+03
7.974227e+02,3.748027e+03
7.983869e+02,3.734559e+03
7.993511e+02,3.727985e+03
8.003154e+02,3.727045e+03
8.012796e+02,3.728245e+03
8.022438e+02,3.737972e+03
8.032081e+02,3.748502e+03
8.041723e+02,3.751417e+03
8.051365e+02,3.743965e+03
8.061008e+02,3.735855e+03
8.070650e+02,3.734345e+03
8.080292e+02,3.735576e+03
8.089935e+02,3.735646e+03
8.099577e+02,3.734805e+03
8.109219e+02,3.732123e+03
8.118862e+02,3.723833e+03
8.128504e+02,3.710276e+03
8.138146e+02,3.703932e+03
8.147789e+02,3.706786e+03
8.157431e+02,3.710537e+03
8.167073e+02,3.708823e+03
8.176716e+02,3.701871e+03
8.186358e+02,3.699787e+03
8.196000e+02,3.707386e+03
8.205643e+02,3.714883e+03
8.215285e+02,3.716512e+03
8.224927e+02,3.712507e+03
8.234570e+02,3.707548e+03
8.244212e+02,3.700240e+03
8.253854e+02,3.694806e+03
8.263497e+02,3.694698e+03
8.273139e+02,3.697257e+03
8.282781e+02,3.697636e+03
8.292424e+02,3.694024e+03
8.302066e+02,3.689198e+03
8.311708e+02,3.684774e+03
8.321351e+02,3.681014e+03
8.330993e+02,3.679489e+03
8.340635e+02,3.680456e+03
8.350278e+02,3.683113e+03
8.359920e+02,3.687158e+03
8.369562e+02,3.693663e+03
8.379205e+02,3.696225e+03
8.388847e+02,3.691042e+03
8.398489e+02,3.681811e+03
8.408132e+02,3.677512e+03
8.417774e+02,3.684223e+03
8.427416e+02,3.685908e+03
8.437059e+02,3.678278e+03
8.446701e+02,3.666554e+03
8.456343e+02,3.656125e+03
8.465986e+02,3.646298e+03
8.475628e+02,3.639669e+03
8.485270e+02,3.638468e+03
8.494913e+02,3.640034e+03
8.504555e+02,3.642830e+03
8.514197e+02,3.646967e+03
8.523840e+02,3.650684e+03
8.533482e+02,3.652397e+03
8.543124e+02,3.651516e+03
8.552767e+02,3.646172e+03
8.562409e+02,3.636122e+03
8.572051e+02,3.626238e+03
8.581694e+02,3.623981e+03
8.591336e+02,3.628902e+03
8.600978e+02,3.628385e+03
8.610621e+02,3.621253e+03
8.620263e+02,3.615489e+03
8.629905e+02,3.616863e+03
8.639548e+02,3.624712e+03
8.649190e+02,3.626112e+03
8.658832e+02,3.618312e+03
8.668475e+02,3.611243e+03
8.678117e+02,3.610699e+03
8.687759e+02,3.614659e+03
8.697402e+02,3.614877e+03
8.707044e+02,3.603614e+03
8.716686e+02,3.592411e+03
8.726329e+02,3.588363e+03
8.735971e+02,3.589416e+03
8.745613e+02,3.590002e+03
8.755256e+02,3.587282e+03
8.764898e+02,3.586708e+03
8.774540e+02,3.593015e+03
8.784183e+02,3.602354e+03
8.793825e+02,3.608705e+03
8.803467e+02,3.609737e+03
8.813110e+02,3.606935e+03
8.822752e+02,3.600455e+03
8.832394e+02,3.592543e+03
8.842037e+02,3.588886e+03
8.851679e+02,3.590075e+03
8.861321e+02,3.592971e+03
8.870964e+02,3.594374e+03
8.880606e+02,3.593974e+03
8.890248e+02,3.593239e+03
8.899891e+02,3.594901e+03
8.909533e+02,3.594546e+03
8.919175e+02,3.585847e+03
8.928818e+02,3.565106e+03
8.938460e+02,3.552571e+03
8.948102e+02,3.552340e+03
8.957745e+02,3.554106e+03
8.967387e+02,3.552754e+03
8.977029e+02,3.547676e+03
8.986672e+02,3.542912e+03
8.996314e+02,3.542759e+03
9.005956e+02,3.542872e+03
9.015599e+02,3.539567e+03
9.025241e+02,3.533906e+03
9.034883e+02,3.530138e+03
9.044526e+02,3.531099e+03
9.054168e+02,3.531437e+03
9.063810e+02,3.531551e+03
9.073453e+02,3.532023e+03
9.083095e+02,3.530033e+03
9.092737e+02,3.521583e+03
9.102380e+02,3.512441e+03
9.112022e+02,3.511617e+03
9.121664e+02,3.515336e+03
9.131307e+02,3.514130e+03
9.140949e+02,3.506195e+03
9.150591e+02,3.498335e+03
9.160234e+02,3.498669e+03
9.169876e+02,3.504128e+03
9.179518e+02,3.503739e+03
9.189161e+02,3.495584e+03
9.198803e+02,3.484660e+03
9.208445e+02,3.476845e+03
9.218088e+02,3.473372e+03
9.227730e+02,3.472933e+03
9.237372e+02,3.475782e+03
9.247015e+02,3.478703e+03
9.256657e+02,3.479683e+03
9.266299e+02,3.478372e+03
9.275942e+02,3.477818e+03
9.285584e+02,3.477979e+03
9.295226e+02,3.477394e+03
9.304869e+02,3.476993e+03
9.314511e+02,3.476535e+03
9.324153e+02,3.473395e+03
9.333796e+02,3.463485e+03
9.343438e+02,3.455088e+03
9.353080e+02,3.449917e+03
9.362723e+02,3.446078e+03
9.372365e+02,3.442404e+03
9.382007e+02,3.440638e+03
9.391650e+02,3.440524e+03
9.401292e+02,3.444157e+03
9.410934e+02,3.447766e+03
9.420577e+02,3.444943e+03
9.430219e+02,3.433357e+03
9.439861e+02,3.422003e+03
9.449504e+02,3.419712e+03
9.459146e+02,3.423671e+03
9.468788e+02,3.428402e+03
9.478431e+02,3.431088e+03
9.488073e+02,3.430750e+03
9.497715e+02,3.429165e+03
9.507358e+02,3.425964e+03
9.517000e+02,3.417146e+03
9.526642e+02,3.404506e+03
9.536285e+02,3.396148e+03
9.545927e+02,3.397967e+03
9.555569e+02,3.406297e+03
9.565212e+02,3.409661e+03
9.574854e+02,3.409157e+03
9.584496e+02,3.407634e+03
9.594139e+02,3.404132e+03
9.603781e+02,3.399264e+03
9.613423e+02,3.398021e+03
9.623066e+02,3.402144e+03
9.632708e+02,3.402147e+03
9.642350e+02,3.395528e+03
9.651993e+02,3.387009e+03
9.661635e+02,3.381836e+03
9.671277e+02,3.379801e+03
9.680920e+02,3.378942e+03
9.690562e+02,3.381789e+03
9.700204e+02,3.382513e+03
9.709847e+02,3.376915e+03
9.719489e+02,3.364172e+03
9.729131e+02,3.354982e+03
9.738774e+02,3.352093e+03
9.748416e+02,3.351569e+03
9.758058e+02,3.350166e+03
9.767701e+02,3.347506e+03
9.777343e+02,3.347100e+03
9.786985e+02,3.351063e+03
9.796628e+02,3.354723e+03
9.806270e+02,3.358672e+03
9.815912e+02,3.361173e+03
9.825555e+02,3.359609e+03
9.835197e+02,3.352579e+03
9.844839e+02,3.345368e+03
9.854482e+02,3.338404e+03
9.864124e+02,3.333863e+03
9.873766e+02,3.334687e+03
9.883409e+02,3.342824e+03
9.893051e+02,3.349077e+03
9.902693e+02,3.345084e+03
9.912336e+02,3.338173e+03
9.921978e+02,3.335705e+03
9.931620e+02,3.337075e+03
9.941263e+02,3.337067e+03
9.950905e+02,3.331776e+03
9.960547e+02,3.324054e+03
9.970190e+02,3.316405e+03
9.979832e+02,3.308897e+03
9.989474e+02,3.302480e+03
9.999117e+02,3.299491e+03
1.000876e+03,3.298451e+03
1.001840e+03,3.297020e+03
1.002804e+03,3.295856e+03
1.003769e+03,3.293769e+03
1.004733e+03,3.288863e+03
1.005697e+03,3.284631e+03
1.006661e+03,3.290376e+03
1.007626e+03,3.302967e+03
1.008590e+03,3.304841e+03
1.009554e+03,3.291600e+03
1.010518e+03,3.275640e+03
1.011482e+03,3.273813e+03
1.012447e+03,3.283707e+03
1.013411e+03,3.285906e+03
1.014375e+03,3.280881e+03
1.015339e+03,3.274483e+03
1.016304e+03,3.268854e+03
1.017268e+03,3.264131e+03
1.018232e+03,3.264687e+03
1.019196e+03,3.271300e+03
1.020161e+03,3.272829e+03
1.021125e+03,3.263817e+03
1.022089e+03,3.250357e+03
1.023053e+03,3.246876e+03
1.024018e+03,3.254399e+03
1.024982e+03,3.261062e+03
1.025946e+03,3.264953e+03
1.026910e+03,3.264197e+03
1.027875e+03,3.256870e+03
1.028839e+03,3.240998e+03
1.029803e+03,3.233538e+03
1.030767e+03,3.239128e+03
1.031731e+03,3.245410e+03
1.032696e+03,3.241851e+03
1.033660e+03,3.227447e+03
1.034624e+03,3.220441e+03
1.035588e+03,3.226499e+03
1.036552e+03,3.232331e+03
1.037517e+03,3.231181e+03
1.038481e+03,3.224335e+03
1.039445e+03,3.220346e+03
1.040409e+03,3.222573e+03
1.041374e+03,3.222277e+03
1.042338e+03,3.216997e+03
1.043302e+03,3.210569e+03
1.044266e+03,3.207235e+03
1.045231e+03,3.208639e+03
1.046195e+03,3.209303e+03
1.047159e+03,3.211586e+03
1.048123e+03,3.212448e+03
1.049088e+03,3.208533e+03
1.050052e+03,3.199667e+03
1.051016e+03,3.195856e+03
1.051980e+03,3.201356e+03
1.052945e+03,3.206742e+03
1.053909e+03,3.207673e+03
1.054873e+03,3.203346e+03
1.055837e+03,3.196629e+03
1.056802e+03,3.186005e+03
1.057766e+03,3.177343e+03
1.058730e+03,3.172892e+03
1.059694e+03,3.171217e+03
1.060658e+03,3.169962e+03
1.061623e+03,3.169498e+03
1.062587e+03,3.170043e+03
1.063551e+03,3.172796e+03
1.064515e+03,3.176006e+03
1.065479e+03,3.177712e+03
1.066444e+03,3.178310e+03
1.067408e+03,3.179646e+03
1.068372e+03,3.183328e+03
1.069336e+03,3.186399e+03
1.070301e+03,3.185129e+03
1.071265e+03,3.180194e+03
1.072229e+03,3.176564e+03
1.073193e+03,3.177008e+03
1.074158e+03,3.176402e+03
1.075122e+03,3.173213e+03
1.076086e+03,3.168479e+03
1.077050e+03,3.163783e+03
1.078015e+03,3.160037e+03
1.078979e+03,3.159893e+03
1.079943e+03,3.167881e+03
1.080907e+03,3.175500e+03
1.081872e+03,3.173883e+03
1.082836e+03,3.161537e+03
1.083800e+03,3.153592e+03
1.084764e+03,3.158965e+03
1.085729e+03,3.165228e+03
1.086693e+03,3.166064e+03
1.087657e+03,3.162736e+03
1.088621e+03,3.159970e+03
1.089585e+03,3.160345e+03
1.090550e+03,3.157893e+03
1.091514e+03,3.151573e+03
1.092478e+03,3.143981e+03
1.093442e+03,3.137514e+03
1.094406e+03,3.133768e+03
1.095371e+03,3.128293e+03
1.096335e+03,3.114709e+03
1.097299e+03,3.102458e+03
1.098263e+03,3.098587e+03
1.099228e+03,3.102645e+03
1.100192e+03,3.106053e+03
1.101156e+03,3.107777e+03
1.102120e+03,3.107471e+03
1.103085e+03,3.104245e+03
1.104049e+03,3.099415e+03
1.105013e+03,3.095522e+03
1.105977e+03,3.094635e+03
1.106942e+03,3.093040e+03
1.107906e+03,3.090215e+03
1.108870e+03,3.086747e+03
1.109834e+03,3.082536e+03
1.110799e+03,3.076780e+03
1.111763e+03,3.073808e+03
1.112727e+03,3.078628e+03
1.113691e+03,3.082979e+03
1.114656e+03,3.081470e+03
1.115620e+03,3.074837e+03
1.116584e+03,3.069513e+03
1.117548e+03,3.061804e+03
1.118512e+03,3.057790e+03
1.119477e+03,3.063687e+03
1.120441e+03,3.072758e+03
1.121405e+03,3.075179e+03
1.122369e+03,3.065297e+03
1.123334e+03,3.057531e+03
1.124298e+03,3.055048e+03
1.125262e+03,3.052965e+03
1.126226e+03,3.047369e+03
1.127191e+03,3.037732e+03
1.128155e+03,3.031427e+03
1.129119e+03,3.027265e+03
1.130083e+03,3.026808e+03
1.131047e+03,3.033417e+03
1.132012e+03,3.042988e+03
1.132976e+03,3.043824e+03
1.133940e+03,3.030424e+03
1.134904e+03,3.018906e+03
1.135869e+03,3.012282e+03
1.136833e+03,3.009475e+03
1.137797e+03,3.009788e+03
1.138761e+03,3.015930e+03
1.139726e+03,3.018614e+03
1.140690e+03,3.016714e+03
1.141654e+03,3.012179e+03
1.142618e+03,3.004813e+03
1.143583e+03,2.995592e+03
1.144547e+03,2.991151e+03
1.145511e+03,2.992727e+03
1.146475e+03,2.993883e+03
1.147439e+03,2.992352e+03
1.148404e+03,2.990176e+03
1.149368e+03,2.990359e+03
1.150332e+03,2.992914e+03
1.151296e+03,2.994495e+03
1.152261e+03,2.993971e+03
1.153225e+03,2.987902e+03
1.154189e+03,2.972521e+03
1.155153e+03,2.951120e+03
1.156118e+03,2.944242e+03
1.157082e+03,2.953260e+03
1.158046e+03,2.960949e+03
1.159010e+03,2.957617e+03
1.159974e+03,2.948977e+03
1.160939e+03,2.947683e+03
1.161903e+03,2.951940e+03
1.162867e+03,2.953906e+03
1.163831e+03,2.951780e+03
1.164796e+03,2.947658e+03
1.165760e+03,2.944229e+03
1.166724e+03,2.941742e+03
1.167688e+03,2.940026e+03
1.168653e+03,2.938924e+03
1.169617e+03,2.937027e+03
1.170581e+03,2.932774e+03
1.171545e+03,2.929005e+03
1.172510e+03,2.931796e+03
1.173474e+03,2.938096e+03
1.174438e+03,2.939686e+03
1.175402e+03,2.933301e+03
1.176366e+03,2.924363e+03
1.177331e+03,2.914066e+03
1.178295e+03,2.906719e+03
1.179259e+03,2.909889e+03
1.180223e+03,2.921675e+03
1.181188e+03,2.930646e+03
1.182152e+03,2.929135e+03
1.183116e+03,2.924003e+03
1.184080e+03,2.920989e+03
1.185045e+03,2.918808e+03
1.186009e+03,2.913657e+03
1.186973e+03,2.902671e+03
1.187937e+03,2.894579e+03
1.188901e+03,2.894683e+03
1.189866e+03,2.896962e+03
1.190830e+03,2.895930e+03
1.191794e+03,2.890373e+03
1.192758e+03,2.884347e+03
1.193723e+03,2.877176e+03
1.194687e+03,2.873617e+03
1.195651e+03,2.876768e+03
1.196615e+03,2.884070e+03
1.197580e+03,2.889290e+03
1.198544e+03,2.891674e+03
1.199508e+03,2.888649e+03
1.200472e+03,2.878929e+03
1.201437e+03,2.867741e+03
1.202401e+03,2.859012e+03
1.203365e+03,2.853004e+03
1.204329e+03,2.854342e+03
1.205293e+03,2.866972e+03
1.206258e+03,2.875848e+03
1.207222e+03,2.873008e+03
1.208186e+03,2.862076e+03
1.209150e+03,2.853899e+03
1.210115e+03,2.847439e+03
1.211079e+03,2.847460e+03
1.212043e+03,2.856759e+03
1.213007e+03,2.865100e+03
1.213972e+03,2.857839e+03
1.214936e+03,2.839555e+03
1.215900e+03,2.836656e+03
1.216864e+03,2.848698e+03
1.217828e+03,2.857860e+03
1.218793e+03,2.852856e+03
1.219757e+03,2.840749e+03
1.220721e+03,2.830226e+03
1.221685e+03,2.822745e+03
1.222650e+03,2.822190e+03
1.223614e+03,2.828955e+03
1.224578e+03,2.835737e+03
1.225542e+03,2.838394e+03
1.226507e+03,2.838158e+03
1.227471e+03,2.834837e+03
1.228435e+03,2.828469e+03
1.229399e+03,2.821313e+03
1.230364e+03,2.815240e+03
1.231328e+03,2.809352e+03
1.232292e+03,2.804353e+03
1.233256e+03,2.800817e+03
1.234220e+03,2.798023e+03
1.235185e+03,2.796854e+03
1.236149e+03,2.795424e+03
1.237113e+03,2.791453e+03
1.238077e+03,2.789545e+03
1.239042e+03,2.792338e+03
1.240006e+03,2.797697e+03
1.240970e+03,2.797794e+03
1.241934e+03,2.787935e+03
1.242899e+03,2.781038e+03
1.243863e+03,2.781374e+03
1.244827e+03,2.785285e+03
1.245791e+03,2.788155e+03
1.246755e+03,2.790553e+03
1.247720e+03,2.787641e+03
1.248684e+03,2.778360e+03
1.249648e+03,2.770398e+03
1.250612e+03,2.768827e+03
1.251577e+03,2.771134e+03
1.252541e+03,2.769584e+03
1.253505e+03,2.764608e+03
1.254469e+03,2.762716e+03
1.255434e+03,2.766711e+03
1.256398e+03,2.771323e+03
1.257362e+03,2.768422e+03
1.258326e+03,2.761079e+03
1.259291e+03,2.755451e+03
1.260255e+03,2.751566e+03
1.261219e+03,2.748020e+03
1.262183e+03,2.747918e+03
1.263147e+03,2.747094e+03
1.264112e+03,2.738578e+03
1.265076e+03,2.728130e+03
1.266040e+03,2.724642e+03
1.267004e+03,2.732943e+03
1.267969e+03,2.739114e+03
1.268933e+03,2.737019e+03
1.269897e+03,2.735524e+03
1.270861e+03,2.739695e+03
1.271826e+03,2.746607e+03
1.272790e+03,2.747279e+03
1.273754e+03,2.738878e+03
1.274718e+03,2.730866e+03
1.275682e+03,2.725726e+03
1.276647e+03,2.723192e+03
1.277611e+03,2.722872e+03
1.278575e+03,2.725131e+03
1.279539e+03,2.723380e+03
1.280504e+03,2.718671e+03
1.281468e+03,2.712654e+03
1.282432e+03,2.704174e+03
1.283396e+03,2.695948e+03
1.284361e+03,2.695488e+03
1.285325e+03,2.700818e+03
1.286289e+03,2.706792e+03
1.287253e+03,2.712061e+03
1.288218e+03,2.715422e+03
1.289182e+03,2.716249e+03
1.290146e+03,2.715078e+03
1.291110e+03,2.712274e+03
1.292074e+03,2.708478e+03
1.293039e+03,2.704444e+03
1.294003e+03,2.701103e+03
1.294967e+03,2.695845e+03
1.295931e+03,2.685170e+03
1.296896e+03,2.674969e+03
1.297860e+03,2.671629e+03
1.298824e+03,2.677374e+03
1.299788e+03,2.681066e+03
1.300753e+03,2.679637e+03
1.301717e+03,2.679230e+03
1.302681e+03,2.683643e+03
1.303645e+03,2.690210e+03
1.304609e+03,2.690661e+03
1.305574e+03,2.682809e+03
1.306538e+03,2.677021e+03
1.307502e+03,2.676617e+03
1.308466e+03,2.676184e+03
1.309431e+03,2.665670e+03
1.310395e+03,2.650517e+03
1.311359e+03,2.652926e+03
1.312323e+03,2.667849e+03
1.313288e+03,2.675939e+03
1.314252e+03,2.667803e+03
1.315216e+03,2.657678e+03
1.316180e+03,2.659682e+03
1.317145e+03,2.666268e+03
1.318109e+03,2.666946e+03
1.319073e+03,2.659650e+03
1.320037e+03,2.652699e+03
1.321001e+03,2.649934e+03
1.321966e+03,2.647700e+03
1.322930e+03,2.646081e+03
1.323894e+03,2.645166e+03
1.324858e+03,2.643594e+03
1.325823e+03,2.640405e+03
1.326787e+03,2.638600e+03
1.327751e+03,2.638175e+03
1.328715e+03,2.636917e+03
1.329680e+03,2.633251e+03
1.330644e+03,2.628327e+03
1.331608e+03,2.627423e+03
1.332572e+03,2.629887e+03
1.333536e+03,2.630255e+03
1.334501e+03,2.626386e+03
1.335465e+03,2.621473e+03
1.336429e+03,2.621982e+03
1.337393e+03,2.623958e+03
1.338358e+03,2.618505e+03
1.339322e+03,2.607673e+03
1.340286e+03,2.601606e+03
1.341250e+03,2.612384e+03
1.342215e+03,2.620289e+03
1.343179e+03,2.615810e+03
1.344143e+03,2.607133e+03
1.345107e+03,2.600755e+03
1.346072e+03,2.596059e+03
1.347036e+03,2.595496e+03
1.348000e+03,2.601363e+03
1.348964e+03,2.605517e+03
1.349928e+03,2.605715e+03
1.350893e+03,2.603394e+03
1.351857e+03,2.599383e+03
1.352821e+03,2.593209e+03
1.353785e+03,2.587175e+03
1.354750e+03,2.581227e+03
1.355714e+03,2.576957e+03
1.356678e+03,2.578269e+03
1.357642e+03,2.582818e+03
1.358607e+03,2.586467e+03
1.359571e+03,2.588735e+03
1.360535e+03,2.589122e+03
1.361499e+03,2.587255e+03
1.362464e+03,2.586001e+03
1.363428e+03,2.588048e+03
1.364392e+03,2.590875e+03
1.365356e+03,2.591499e+03
1.366320e+03,2.588785e+03
1.367285e+03,2.584754e+03
1.368249e+03,2.579528e+03
1.369213e+03,2.575875e+03
1.370177e+03,2.575253e+03
1.371142e+03,2.574333e+03
1.372106e+03,2.567718e+03
1.373070e+03,2.556780e+03
1.374034e+03,2.553060e+03
1.374999e+03,2.556441e+03
1.375963e+03,2.559249e+03
1.376927e+03,2.557091e+03
1.377891e+03,2.553396e+03
1.378855e+03,2.549434e+03
1.379820e+03,2.546732e+03
1.380784e+03,2.549502e+03
1.381748e+03,2.558813e+03
1.382712e+03,2.563393e+03
1.383677e+03,2.552907e+03
1.384641e+03,2.542583e+03
1.385605e+03,2.537608e+03
1.386569e+03,2.535286e+03
1.387534e+03,2.532004e+03
1.388498e+03,2.527783e+03
1.389462e+03,2.523981e+03
1.390426e+03,2.519954e+03
1.391391e+03,2.516051e+03
1.392355e+03,2.512973e+03
1.393319e+03,2.511471e+03
1.394283e+03,2.512623e+03
1.395247e+03,2.515232e+03
1.396212e+03,2.518018e+03
1.397176e+03,2.520847e+03
1.398140e+03,2.520604e+03
1.399104e+03,2.511335e+03
1.400069e+03,2.501310e+03
1.401033e+03,2.495435e+03
1.401997e+03,2.493203e+03
1.402961e+03,2.492661e+03
1.403926e+03,2.495265e+03
1.404890e+03,2.495092e+03
1.405854e+03,2.491145e+03
1.406818e+03,2.487944e+03
1.407782e+03,2.489937e+03
1.408747e+03,2.495411e+03
1.409711e+03,2.494280e+03
1.410675e+03,2.487008e+03
1.411639e+03,2.482262e+03
1.412604e+03,2.483298e+03
1.413568e+03,2.484673e+03
1.414532e+03,2.481735e+03
1.415496e+03,2.478838e+03
1.416461e+03,2.479352e+03
1.417425e+03,2.481750e+03
1.418389e+03,2.482336e+03
1.419353e+03,2.479883e+03
1.420318e+03,2.476523e+03
1.421282e+03,2.472306e+03
1.422246e+03,2.469735e+03
1.423210e+03,2.471624e+03
1.424174e+03,2.477039e+03
1.425139e+03,2.476245e+03
1.426103e+03,2.469289e+03
1.427067e+03,2.461817e+03
1.428031e+03,2.455467e+03
1.428996e+03,2.452239e+03
1.429960e+03,2.456875e+03
1.430924e+03,2.462582e+03
1.431888e+03,2.462552e+03
1.432853e+03,2.457176e+03
1.433817e+03,2.450529e+03
1.434781e+03,2.440211e+03
1.435745e+03,2.434989e+03
1.436709e+03,2.436724e+03
1.437674e+03,2.440158e+03
1.438638e+03,2.442091e+03
1.439602e+03,2.443190e+03
1.440566e+03,2.442325e+03
1.441531e+03,2.439487e+03
1.442495e+03,2.437267e+03
1.443459e+03,2.436142e+03
1.444423e+03,2.436089e+03
1.445388e+03,2.438911e+03
1.446352e+03,2.440621e+03
1.447316e+03,2.435434e+03
1.448280e+03,2.425950e+03
1.449245e+03,2.422838e+03
1.450209e+03,2.437126e+03
1.451173e+03,2.444628e+03
1.452137e+03,2.438051e+03
1.453101e+03,2.428352e+03
1.454066e+03,2.427417e+03
1.455030e+03,2.433812e+03
1.455994e+03,2.434352e+03
1.456958e+03,2.429948e+03
1.457923e+03,2.427513e+03
1.458887e+03,2.429673e+03
1.459851e+03,2.430985e+03
1.460815e+03,2.425656e+03
1.461780e+03,2.417421e+03
1.462744e+03,2.411110e+03
1.463708e+03,2.407078e+03
1.464672e+03,2.401469e+03
1.465636e+03,2.391561e+03
1.466601e+03,2.388006e+03
1.467565e+03,2.394292e+03
1.468529e+03,2.401734e+03
1.469493e+03,2.400368e+03
1.470458e+03,2.392361e+03
1.471422e+03,2.389425e+03
1.472386e+03,2.390630e+03
1.473350e+03,2.390417e+03
1.474315e+03,2.385388e+03
1.475279e+03,2.381993e+03
1.476243e+03,2.386229e+03
1.477207e+03,2.391129e+03
1.478172e+03,2.393752e+03
1.479136e+03,2.393688e+03
1.480100e+03,2.388893e+03
1.481064e+03,2.378196e+03
1.482028e+03,2.367418e+03
1.482993e+03,2.356764e+03
1.483957e+03,2.351285e+03
1.484921e+03,2.359250e+03
1.485885e+03,2.372584e+03
1.486850e+03,2.375632e+03
1.487814e+03,2.370955e+03
1.488778e+03,2.365550e+03
1.489742e+03,2.361793e+03
1.490707e+03,2.357383e+03
1.491671e+03,2.352365e+03
1.492635e+03,2.348255e+03
1.493599e+03,2.344004e+03
1.494563e+03,2.340194e+03
1.495528e+03,2.340768e+03
1.496492e+03,2.345149e+03
1.497456e+03,2.347587e+03
1.498420e+03,2.348173e+03
1.499385e+03,2.347537e+03
1.500349e+03,2.344622e+03
1.501313e+03,2.342235e+03
1.502277e+03,2.342202e+03
1.503242e+03,2.343862e+03
1.504206e+03,2.346924e+03
1.505170e+03,2.352302e+03
1.506134e+03,2.352749e+03
1.507099e+03,2.346126e+03
1.508063e+03,2.341458e+03
1.509027e+03,2.342965e+03
1.509991e+03,2.346158e+03
1.510955e+03,2.343638e+03
1.511920e+03,2.336865e+03
1.512884e+03,2.328466e+03
1.513848e+03,2.320172e+03
1.514812e+03,2.314790e+03
1.515777e+03,2.309992e+03
1.516741e+03,2.309576e+03
1.517705e+03,2.320225e+03
1.518669e+03,2.330907e+03
1.519634e+03,2.332707e+03
1.520598e+03,2.325742e+03
1.521562e+03,2.319157e+03
1.522526e+03,2.312634e+03
1.523490e+03,2.312590e+03
1.524455e+03,2.323114e+03
1.525419e+03,2.330390e+03
1.526383e+03,2.316579e+03
1.527347e+03,2.298296e+03
1.528312e+03,2.291906e+03
1.529276e+03,2.296086e+03
1.530240e+03,2.297287e+03
1.531204e+03,2.291292e+03
1.532169e+03,2.290418e+03
1.533133e+03,2.296948e+03
1.534097e+03,2.302339e+03
1.535061e+03,2.297427e+03
1.536026e+03,2.289090e+03
1.536990e+03,2.294691e+03
1.537954e+03,2.306372e+03
1.538918e+03,2.307352e+03
1.539882e+03,2.291830e+03
1.540847e+03,2.280467e+03
1.541811e+03,2.282309e+03
1.542775e+03,2.283098e+03
1.543739e+03,2.279588e+03
1.544704e+03,2.274199e+03
1.545668e+03,2.269503e+03
1.546632e+03,2.266197e+03
1.547596e+03,2.267528e+03
1.548561e+03,2.272730e+03
1.549525e+03,2.276706e+03
1.550489e+03,2.272948e+03
1.551453e+03,2.271132e+03
1.552417e+03,2.280803e+03
1.553382e+03,2.289526e+03
1.554346e+03,2.285959e+03
1.555310e+03,2.272732e+03
1.556274e+03,2.271030e+03
1.557239e+03,2.280269e+03
1.558203e+03,2.282072e+03
1.559167e+03,2.271566e+03
1.560131e+03,2.261766e+03
1.561096e+03,2.265899e+03
1.562060e+03,2.274510e+03
1.563024e+03,2.280181e+03
1.563988e+03,2.284082e+03
1.564953e+03,2.289673e+03
1.565917e+03,2.297903e+03
1.566881e+03,2.304690e+03
1.567845e+03,2.309473e+03
1.568809e+03,2.312509e+03
1.569774e+03,2.314608e+03
1.570738e+03,2.314530e+03
1.571702e+03,2.309425e+03
1.572666e+03,2.301554e+03
1.573631e+03,2.293428e+03
1.574595e+03,2.286161e+03
1.575559e+03,2.280761e+03
1.576523e+03,2.277094e+03
1.577488e+03,2.276783e+03
1.578452e+03,2.279824e+03
1.579416e+03,2.282189e+03
1.580380e+03,2.280965e+03
1.581344e+03,2.276378e+03
1.582309e+03,2.267355e+03
1.583273e+03,2.255962e+03
1.584237e+03,2.245816e+03
1.585201e+03,2.236794e+03
1.586166e+03,2.233137e+03
1.587130e+03,2.237418e+03
1.588094e+03,2.240850e+03
1.589058e+03,2.240606e+03
1.590023e+03,2.237434e+03
1.590987e+03,2.229795e+03
1.591951e+03,2.221124e+03
1.592915e+03,2.218746e+03
1.593880e+03,2.221574e+03
1.594844e+03,2.222735e+03
1.595808e+03,2.216790e+03
1.596772e+03,2.213683e+03
1.597736e+03,2.219138e+03
1.598701e+03,2.223507e+03
1.599665e+03,2.215917e+03
1.600629e+03,2.200312e+03
1.601593e+03,2.192890e+03
1.602558e+03,2.191846e+03
1.603522e+03,2.191853e+03
1.604486e+03,2.191311e+03
1.605450e+03,2.191246e+03
1.606415e+03,2.194845e+03
1.607379e+03,2.197111e+03
1.608343e+03,2.194696e+03
1.609307e+03,2.190741e+03
1.610271e+03,2.192528e+03
1.611236e+03,2.197856e+03
1.612200e+03,2.197029e+03
1.613164e+03,2.191152e+03
1.614128e+03,2.186673e+03
1.615093e+03,2.188914e+03
1.616057e+03,2.189147e+03
1.617021e+03,2.180173e+03
1.617985e+03,2.171752e+03
1.618950e+03,2.171439e+03
1.619914e+03,2.176636e+03
1.620878e+03,2.176658e+03
1.621842e+03,2.172885e+03
1.622807e+03,2.169027e+03
1.623771e+03,2.166245e+03
1.624735e+03,2.165657e+03
1.625699e+03,2.170249e+03
1.626663e+03,2.171953e+03
1.627628e+03,2.165206e+03
1.628592e+03,2.156021e+03
1.629556e+03,2.154402e+03
1.630520e+03,2.159769e+03
1.631485e+03,2.162695e+03
1.632449e+03,2.162982e+03
1.633413e+03,2.161124e+03
1.634377e+03,2.156455e+03
1.635342e+03,2.152710e+03
1.636306e+03,2.153230e+03
1.637270e+03,2.153036e+03
1.638234e+03,2.149337e+03
1.639198e+03,2.144049e+03
1.640163e+03,2.140104e+03
1.641127e+03,2.138032e+03
1.642091e+03,2.138288e+03
1.643055e+03,2.139973e+03
1.644020e+03,2.141464e+03
1.644984e+03,2.141715e+03
1.645948e+03,2.140737e+03
1.646912e+03,2.139086e+03
1.647877e+03,2.136850e+03
1.648841e+03,2.134161e+03
1.649805e+03,2.131317e+03
1.650769e+03,2.128597e+03
1.651734e+03,2.125771e+03
1.652698e+03,2.122887e+03
1.653662e+03,2.119238e+03
1.654626e+03,2.115388e+03
1.655590e+03,2.110042e+03
1.656555e+03,2.107818e+03
1.657519e+03,2.112175e+03
1.658483e+03,2.118063e+03
1.659447e+03,2.115247e+03
1.660412e+03,2.107780e+03
1.661376e+03,2.106629e+03
1.662340e+03,2.110368e+03
1.663304e+03,2.111076e+03
1.664269e+03,2.102254e+03
1.665233e+03,2.094331e+03
1.666197e+03,2.085895e+03
1.667161e+03,2.081771e+03
1.668125e+03,2.086491e+03
1.669090e+03,2.094611e+03
1.670054e+03,2.100488e+03
1.671018e+03,2.103006e+03
1.671982e+03,2.098084e+03
1.672947e+03,2.086756e+03
1.673911e+03,2.086214e+03
1.674875e+03,2.099508e+03
1.675839e+03,2.107923e+03
1.676804e+03,2.109798e+03
1.677768e+03,2.108361e+03
1.678732e+03,2.103886e+03
1.679696e+03,2.097821e+03
1.680661e+03,2.090075e+03
1.681625e+03,2.081534e+03
1.682589e+03,2.075352e+03
1.683553e+03,2.072444e+03
1.684517e+03,2.067181e+03
1.685482e+03,2.059605e+03
1.686446e+03,2.061830e+03
1.687410e+03,2.079815e+03
1.688374e+03,2.093314e+03
1.689339e+03,2.080117e+03
1.690303e+03,2.064785e+03
1.691267e+03,2.063028e+03
1.692231e+03,2.068250e+03
1.693196e+03,2.068495e+03
1.694160e+03,2.064047e+03
1.695124e+03,2.061523e+03
1.696088e+03,2.061349e+03
1.697052e+03,2.062082e+03
1.698017e+03,2.061394e+03
1.698981e+03,2.061453e+03
1.699945e+03,2.063432e+03
1.700909e+03,2.063215e+03
1.701874e+03,2.059470e+03
1.702838e+03,2.055517e+03
1.703802e+03,2.057862e+03
1.704766e+03,2.061611e+03
1.705731e+03,2.058208e+03
1.706695e+03,2.047718e+03
1.707659e+03,2.040761e+03
1.708623e+03,2.039865e+03
1.709588e+03,2.043004e+03
1.710552e+03,2.049525e+03
1.711516e+03,2.055496e+03
1.712480e+03,2.060098e+03
1.713444e+03,2.060799e+03
1.714409e+03,2.052934e+03
1.715373e+03,2.041535e+03
1.716337e+03,2.032638e+03
1.717301e+03,2.026998e+03
1.718266e+03,2.026202e+03
1.719230e+03,2.029627e+03
1.720194e+03,2.031467e+03
1.721158e+03,2.029738e+03
1.722123e+03,2.026932e+03
1.723087e+03,2.025884e+03
1.724051e+03,2.023013e+03
1.725015e+03,2.016208e+03
1.725979e+03,2.007996e+03
1.726944e+03,1.999339e+03
1.727908e+03,1.991605e+03
1.728872e+03,1.991571e+03
1.729836e+03,1.997221e+03
1.730801e+03,2.003440e+03
1.731765e+03,2.010174e+03
1.732729e+03,2.014205e+03
1.733693e+03,2.015111e+03
1.734658e+03,2.014357e+03
1.735622e+03,2.012258e+03
1.736586e+03,2.008931e+03
1.737550e+03,2.003890e+03
1.738515e+03,1.998427e+03
1.739479e+03,1.993474e+03
1.740443e+03,1.989706e+03
1.741407e+03,1.989254e+03
1.742371e+03,1.992408e+03
1.743336e+03,1.998357e+03
1.744300e+03,2.006608e+03
1.745264e+03,2.009340e+03
1.746228e+03,1.998451e+03
1.747193e+03,1.986662e+03
1.748157e+03,1.980578e+03
1.749121e+03,1.977661e+03
1.750085e+03,1.974262e+03
1.751050e+03,1.969309e+03
1.752014e+03,1.963525e+03
1.752978e+03,1.959219e+03
1.753942e+03,1.962620e+03
1.754906e+03,1.974473e+03
1.755871e+03,1.981240e+03
1.756835e+03,1.978395e+03
1.757799e+03,1.971915e+03
1.758763e+03,1.964018e+03
1.759728e+03,1.958452e+03
1.760692e+03,1.958115e+03
1.761656e+03,1.961577e+03
1.762620e+03,1.970882e+03
1.763585e+03,1.979574e+03
1.764549e+03,1.977537e+03
1.765513e+03,1.964307e+03
1.766477e+03,1.959080e+03
1.767442e+03,1.960677e+03
1.768406e+03,1.957637e+03
1.769370e+03,1.945340e+03
1.770334e+03,1.937410e+03
1.771298e+03,1.942428e+03
1.772263e+03,1.947945e+03
1.773227e+03,1.951969e+03
1.774191e+03,1.953722e+03
1.775155e+03,1.950756e+03
1.776120e+03,1.945061e+03
1.777084e+03,1.938488e+03
1.778048e+03,1.932584e+03
1.779012e+03,1.931121e+03
1.779977e+03,1.936429e+03
1.780941e+03,1.936883e+03
1.781905e+03,1.931772e+03
1.782869e+03,1.928184e+03
1.783833e+03,1.930089e+03
1.784798e+03,1.932202e+03
1.785762e+03,1.931309e+03
1.786726e+03,1.929009e+03
1.787690e+03,1.925924e+03
1.788655e+03,1.923196e+03
1.789619e+03,1.923060e+03
1.790583e+03,1.924031e+03
1.791547e+03,1.922840e+03
1.792512e+03,1.919514e+03
1.793476e+03,1.914066e+03
1.794440e+03,1.902033e+03
1.795404e+03,1.902581e+03
1.796369e+03,1.916500e+03
1.797333e+03,1.927395e+03
1.798297e+03,1.924731e+03
1.799261e+03,1.918688e+03
1.800225e+03,1.913259e+03
1.801190e+03,1.908891e+03
1.802154e+03,1.906643e+03
1.803118e+03,1.905836e+03
1.804082e+03,1.907427e+03
1.805047e+03,1.909820e+03
1.806011e+03,1.907055e+03
1.806975e+03,1.898909e+03
1.807939e+03,1.892192e+03
1.808904e+03,1.886923e+03
1.809868e+03,1.883688e+03
1.810832e+03,1.883156e+03
1.811796e+03,1.884580e+03
1.812760e+03,1.888300e+03
1.813725e+03,1.891955e+03
1.814689e+03,1.895257e+03
1.815653e+03,1.896682e+03
1.816617e+03,1.894658e+03
1.817582e+03,1.890374e+03
1.818546e+03,1.887275e+03
1.819510e+03,1.884480e+03
1.820474e+03,1.880428e+03
1.821439e+03,1.875212e+03
1.822403e+03,1.870119e+03
1.823367e+03,1.865173e+03
1.824331e+03,1.861302e+03
1.825296e+03,1.858091e+03
1.826260e+03,1.855667e+03
1.827224e+03,1.855461e+03
1.828188e+03,1.857824e+03
1.829152e+03,1.864825e+03
1.830117e+03,1.869900e+03
1.831081e+03,1.866106e+03
1.832045e+03,1.856752e+03
1.833009e+03,1.853579e+03
1.833974e+03,1.855266e+03
1.834938e+03,1.856988e+03
1.835902e+03,1.857120e+03
1.836866e+03,1.852200e+03
1.837831e+03,1.841430e+03
1.838795e+03,1.835415e+03
1.839759e+03,1.837307e+03
1.840723e+03,1.841761e+03
1.841688e+03,1.844760e+03
1.842652e+03,1.848486e+03
1.843616e+03,1.853412e+03
1.844580e+03,1.857170e+03
1.845544e+03,1.858598e+03
1.846509e+03,1.858148e+03
1.847473e+03,1.855904e+03
1.848437e+03,1.851985e+03
1.849401e+03,1.845969e+03
1.850366e+03,1.838268e+03
1.851330e+03,1.831852e+03
1.852294e+03,1.827466e+03
1.853258e+03,1.827142e+03
1.854223e+03,1.831636e+03
1.855187e+03,1.836467e+03
1.856151e+03,1.841831e+03
1.857115e+03,1.841002e+03
1.858079e+03,1.830954e+03
1.859044e+03,1.819250e+03
1.860008e+03,1.814487e+03
1.860972e+03,1.813160e+03
1.861936e+03,1.812240e+03
1.862901e+03,1.811981e+03
1.863865e+03,1.811900e+03
1.864829e+03,1.810886e+03
1.865793e+03,1.809572e+03
1.866758e+03,1.808689e+03
1.867722e+03,1.808976e+03
1.868686e+03,1.810652e+03
1.869650e+03,1.810121e+03
1.870615e+03,1.806238e+03
1.871579e+03,1.801735e+03
1.872543e+03,1.797968e+03
1.873507e+03,1.796851e+03
1.874471e+03,1.800799e+03
1.875436e+03,1.802652e+03
1.876400e+03,1.799117e+03
1.877364e+03,1.794587e+03
1.878328e+03,1.794283e+03
1.879293e+03,1.796035e+03
1.880257e+03,1.795247e+03
1.881221e+03,1.792585e+03
1.882185e+03,1.791028e+03
1.883150e+03,1.791273e+03
1.884114e+03,1.788528e+03
1.885078e+03,1.782995e+03
1.886042e+03,1.779904e+03
1.887006e+03,1.781019e+03
1.887971e+03,1.781546e+03
1.888935e+03,1.780357e+03
1.889899e+03,1.780869e+03
1.890863e+03,1.783326e+03
1.891828e+03,1.784162e+03
1.892792e+03,1.780159e+03
1.893756e+03,1.774487e+03
1.894720e+03,1.770142e+03
1.895685e+03,1.767958e+03
1.896649e+03,1.768067e+03
1.897613e+03,1.768530e+03
1.898577e+03,1.763694e+03
1.899542e+03,1.756729e+03
1.900506e+03,1.755010e+03
1.901470e+03,1.760094e+03
1.902434e+03,1.757460e+03
1.903398e+03,1.747853e+03
1.904363e+03,1.746895e+03
1.905327e+03,1.759676e+03
1.906291e+03,1.769382e+03
1.907255e+03,1.763507e+03
1.908220e+03,1.757889e+03
1.909184e+03,1.755610e+03
1.910148e+03,1.753107e+03
1.911112e+03,1.746803e+03
1.912077e+03,1.740439e+03
1.913041e+03,1.737835e+03
1.914005e+03,1.736039e+03
1.914969e+03,1.731126e+03
1.915933e+03,1.724667e+03
1.916898e+03,1.722055e+03
1.917862e+03,1.722561e+03
1.918826e+03,1.724182e+03
1.919790e+03,1.727118e+03
1.920755e+03,1.731115e+03
1.921719e+03,1.734985e+03
1.922683e+03,1.733445e+03
1.923647e+03,1.725921e+03
1.924612e+03,1.719044e+03
1.925576e+03,1.715898e+03
1.926540e+03,1.713305e+03
1.927504e+03,1.709470e+03
1.928469e+03,1.707530e+03
1.929433e+03,1.713216e+03
1.930397e+03,1.717933e+03
1.931361e+03,1.713000e+03
1.932325e+03,1.706863e+03
1.933290e+03,1.708152e+03
1.934254e+03,1.713549e+03
1.935218e+03,1.710240e+03
1.936182e+03,1.702184e+03
1.937147e+03,1.699059e+03
1.938111e+03,1.701194e+03
1.939075e+03,1.699400e+03
1.940039e+03,1.695417e+03
1.941004e+03,1.696492e+03
1.941968e+03,1.702155e+03
1.942932e+03,1.702896e+03
1.943896e+03,1.694111e+03
1.944860e+03,1.689602e+03
1.945825e+03,1.691698e+03
1.946789e+03,1.692504e+03
1.947753e+03,1.678830e+03
1.948717e+03,1.672309e+03
1.949682e+03,1.686385e+03
1.950646e+03,1.700272e+03
1.951610e+03,1.701660e+03
1.952574e+03,1.696393e+03
1.953539e+03,1.690225e+03
1.954503e+03,1.684213e+03
1.955467e+03,1.680541e+03
1.956431e+03,1.678154e+03
1.957396e+03,1.671367e+03
1.958360e+03,1.662965e+03
1.959324e+03,1.662493e+03
1.960288e+03,1.669620e+03
1.961252e+03,1.672247e+03
1.962217e+03,1.668412e+03
1.963181e+03,1.665200e+03
1.964145e+03,1.662848e+03
1.965109e+03,1.661855e+03
1.966074e+03,1.664033e+03
1.967038e+03,1.666438e+03
1.968002e+03,1.666870e+03
1.968966e+03,1.668430e+03
1.969931e+03,1.674258e+03
1.970895e+03,1.677252e+03
1.971859e+03,1.673052e+03
1.972823e+03,1.665984e+03
1.973787e+03,1.655763e+03
1.974752e+03,1.646349e+03
1.975716e+03,1.646335e+03
1.976680e+03,1.648556e+03
1.977644e+03,1.645464e+03
1.978609e+03,1.641057e+03
1.979573e+03,1.640089e+03
1.980537e+03,1.642051e+03
1.981501e+03,1.650057e+03
1.982466e+03,1.660510e+03
1.983430e+03,1.661142e+03
1.984394e+03,1.649910e+03
1.985358e+03,1.641347e+03
1.986323e+03,1.635424e+03
1.987287e+03,1.634672e+03
1.988251e+03,1.641494e+03
1.989215e+03,1.641350e+03
1.990179e+03,1.631742e+03
1.991144e+03,1.623229e+03
1.992108e+03,1.618563e+03
1.993072e+03,1.618979e+03
1.994036e+03,1.629470e+03
1.995001e+03,1.638197e+03
1.995965e+03,1.643130e+03
1.996929e+03,1.642132e+03
1.997893e+03,1.624697e+03
1.998858e+03,1.607403e+03
1.999822e+03,1.606590e+03
2.000786e+03,1.612911e+03
2.001750e+03,1.622941e+03
2.002714e+03,1.632750e+03
2.003679e+03,1.627540e+03
2.004643e+03,1.614665e+03
2.005607e+03,1.604980e+03
2.006571e+03,1.599868e+03
2.007536e+03,1.606149e+03
2.008500e+03,1.618110e+03
2.009464e+03,1.612716e+03
2.010428e+03,1.590750e+03
2.011393e+03,1.588155e+03
2.012357e+03,1.608563e+03
2.013321e+03,1.613873e+03
2.014285e+03,1.601473e+03
2.015250e+03,1.590698e+03
2.016214e+03,1.592848e+03
2.017178e+03,1.593797e+03
2.018142e+03,1.593216e+03
2.019106e+03,1.593046e+03
2.020071e+03,1.595275e+03
2.021035e+03,1.594540e+03
2.021999e+03,1.584582e+03
2.022963e+03,1.577781e+03
2.023928e+03,1.580315e+03
2.024892e+03,1.585309e+03
2.025856e+03,1.586528e+03
2.026820e+03,1.584586e+03
2.027785e+03,1.578493e+03
2.028749e+03,1.571971e+03
2.029713e+03,1.572400e+03
2.030677e+03,1.575247e+03
2.031641e+03,1.573149e+03
2.032606e+03,1.568812e+03
2.033570e+03,1.567379e+03
2.034534e+03,1.567942e+03
2.035498e+03,1.568898e+03
2.036463e+03,1.569492e+03
2.037427e+03,1.566114e+03
2.038391e+03,1.559878e+03
2.039355e+03,1.561463e+03
2.040320e+03,1.568561e+03
2.041284e+03,1.569798e+03
2.042248e+03,1.561959e+03
2.043212e+03,1.554200e+03
2.044177e+03,1.547520e+03
2.045141e+03,1.544817e+03
2.046105e+03,1.546179e+03
2.047069e+03,1.550573e+03
2.048033e+03,1.561641e+03
2.048998e+03,1.564999e+03
2.049962e+03,1.559602e+03
2.050926e+03,1.552993e+03
2.051890e+03,1.551756e+03
2.052854e+03,1.546789e+03
2.053819e+03,1.531844e+03
2.054783e+03,1.520877e+03
2.055747e+03,1.523737e+03
2.056711e+03,1.531138e+03
2.057676e+03,1.536450e+03
2.058640e+03,1.539587e+03
2.059604e+03,1.538902e+03
2.060568e+03,1.536483e+03
2.061533e+03,1.536093e+03
2.062497e+03,1.536885e+03
2.063461e+03,1.539789e+03
2.064425e+03,1.541401e+03
2.065390e+03,1.534418e+03
2.066354e+03,1.523994e+03
2.067318e+03,1.521077e+03
2.068282e+03,1.522856e+03
2.069247e+03,1.521611e+03
2.070211e+03,1.517471e+03
2.071175e+03,1.514316e+03
2.072139e+03,1.511975e+03
2.073104e+03,1.508945e+03
2.074068e+03,1.505404e+03
2.075032e+03,1.506757e+03
2.075996e+03,1.511646e+03
2.076960e+03,1.518088e+03
2.077925e+03,1.525289e+03
2.078889e+03,1.524880e+03
2.079853e+03,1.516306e+03
2.080817e+03,1.514212e+03
2.081782e+03,1.519350e+03
2.082746e+03,1.514931e+03
2.083710e+03,1.486533e+03
2.084674e+03,1.476911e+03
2.085639e+03,1.489143e+03
2.086603e+03,1.501917e+03
2.087567e+03,1.501562e+03
2.088531e+03,1.497588e+03
2.089496e+03,1.490332e+03
2.090460e+03,1.483279e+03
2.091424e+03,1.480504e+03
2.092388e+03,1.479897e+03
2.093353e+03,1.480033e+03
2.094317e+03,1.480301e+03
2.095281e+03,1.478794e+03
2.096245e+03,1.477394e+03
2.097209e+03,1.478869e+03
2.098174e+03,1.480861e+03
2.099138e+03,1.484060e+03
2.100102e+03,1.484625e+03
2.101066e+03,1.474814e+03
2.102031e+03,1.463921e+03
2.102995e+03,1.460518e+03
2.103959e+03,1.460440e+03
2.104923e+03,1.460627e+03
2.105887e+03,1.463128e+03
2.106852e+03,1.470565e+03
2.107816e+03,1.478260e+03
2.108780e+03,1.485075e+03
2.109744e+03,1.486857e+03
2.110708e+03,1.467217e+03
2.111673e+03,1.442171e+03
2.112637e+03,1.435846e+03
2.113601e+03,1.440716e+03
2.114565e+03,1.442102e+03
2.115530e+03,1.441440e+03
2.116494e+03,1.441640e+03
2.117458e+03,1.444208e+03
2.118422e+03,1.446100e+03
2.119387e+03,1.446706e+03
2.120351e+03,1.451889e+03
2.121315e+03,1.458623e+03
2.122279e+03,1.458643e+03
2.123244e+03,1.451326e+03
2.124208e+03,1.452698e+03
2.125172e+03,1.459183e+03
2.126136e+03,1.454714e+03
2.127101e+03,1.434298e+03
2.128065e+03,1.423754e+03
2.129029e+03,1.421977e+03
2.129993e+03,1.424874e+03
2.130958e+03,1.430284e+03
2.131922e+03,1.430862e+03
2.132886e+03,1.426428e+03
2.133850e+03,1.420876e+03
2.134814e+03,1.416416e+03
2.135779e+03,1.418684e+03
2.136743e+03,1.434284e+03
2.137707e+03,1.434221e+03
2.138671e+03,1.418638e+03
2.139636e+03,1.408207e+03
2.140600e+03,1.417221e+03
2.141564e+03,1.423206e+03
2.142528e+03,1.424973e+03
2.143493e+03,1.423632e+03
2.144457e+03,1.419104e+03
2.145421e+03,1.408331e+03
2.146385e+03,1.387448e+03
2.147350e+03,1.377974e+03
2.148314e+03,1.387557e+03
2.149278e+03,1.401091e+03
2.150242e+03,1.410817e+03
2.151207e+03,1.415184e+03
2.152171e+03,1.413059e+03
2.153135e+03,1.408610e+03
2.154099e+03,1.406639e+03
2.155063e+03,1.404396e+03
2.156028e+03,1.401806e+03
2.156992e+03,1.398607e+03
2.157956e+03,1.391220e+03
2.158920e+03,1.384753e+03
2.159885e+03,1.381522e+03
2.160849e+03,1.379876e+03
2.161813e+03,1.379572e+03
2.162777e+03,1.379033e+03
2.163741e+03,1.378148e+03
2.164706e+03,1.375105e+03
2.165670e+03,1.369853e+03
2.166634e+03,1.366288e+03
2.167598e+03,1.368068e+03
2.168563e+03,1.371049e+03
2.169527e+03,1.371986e+03
2.170491e+03,1.372319e+03
2.171455e+03,1.378254e+03
2.172420e+03,1.381473e+03
2.173384e+03,1.375249e+03
2.174348e+03,1.367295e+03
2.175312e+03,1.361592e+03
2.176277e+03,1.358212e+03
2.177241e+03,1.359967e+03
2.178205e+03,1.361583e+03
2.179169e+03,1.360078e+03
2.180134e+03,1.358700e+03
2.181098e+03,1.361347e+03
2.182062e+03,1.364498e+03
2.183026e+03,1.364878e+03
2.183990e+03,1.363230e+03
2.184955e+03,1.359279e+03
2.185919e+03,1.356099e+03
2.186883e+03,1.356297e+03
2.187847e+03,1.356446e+03
2.188812e+03,1.353066e+03
2.189776e+03,1.348205e+03
2.190740e+03,1.343450e+03
2.191704e+03,1.337348e+03
2.192668e+03,1.326018e+03
2.193633e+03,1.316318e+03
2.194597e+03,1.322551e+03
2.195561e+03,1.330681e+03
2.196525e+03,1.325424e+03
2.197490e+03,1.316345e+03
2.198454e+03,1.321648e+03
2.199418e+03,1.331486e+03
2.200382e+03,1.337475e+03
2.201347e+03,1.341503e+03
2.202311e+03,1.346005e+03
2.203275e+03,1.348466e+03
2.204239e+03,1.344007e+03
2.205204e+03,1.336503e+03
2.206168e+03,1.334163e+03
2.207132e+03,1.332891e+03
2.208096e+03,1.324619e+03
2.209061e+03,1.314400e+03
2.210025e+03,1.308146e+03
2.210989e+03,1.305224e+03
2.211953e+03,1.306735e+03
2.212917e+03,1.311843e+03
2.213882e+03,1.316483e+03
2.214846e+03,1.319069e+03
2.215810e+03,1.316996e+03
2.216774e+03,1.313422e+03
2.217739e+03,1.315117e+03
2.218703e+03,1.317661e+03
2.219667e+03,1.311206e+03
2.220631e+03,1.301827e+03
2.221595e+03,1.292982e+03
2.222560e+03,1.287273e+03
2.223524e+03,1.292797e+03
2.224488e+03,1.299914e+03
2.225452e+03,1.296667e+03
2.226417e+03,1.290477e+03
2.227381e+03,1.286666e+03
2.228345e+03,1.285779e+03
2.229309e+03,1.288648e+03
2.230274e+03,1.292141e+03
2.231238e+03,1.295284e+03
2.232202e+03,1.295886e+03
2.233166e+03,1.288936e+03
2.234131e+03,1.282446e+03
2.235095e+03,1.281910e+03
2.236059e+03,1.284586e+03
2.237023e+03,1.290055e+03
2.237988e+03,1.290481e+03
2.238952e+03,1.278137e+03
2.239916e+03,1.264259e+03
2.240880e+03,1.270140e+03
2.241844e+03,1.274846e+03
2.242809e+03,1.259302e+03
2.243773e+03,1.243249e+03
2.244737e+03,1.248555e+03
2.245701e+03,1.258156e+03
2.246666e+03,1.257768e+03
2.247630e+03,1.255488e+03
2.248594e+03,1.258780e+03
2.249558e+03,1.262868e+03
2.250522e+03,1.259696e+03
2.251487e+03,1.259440e+03
2.252451e+03,1.267917e+03
2.253415e+03,1.273595e+03
2.254379e+03,1.262981e+03
2.255344e+03,1.251724e+03
2.256308e+03,1.245716e+03
2.257272e+03,1.244052e+03
2.258236e+03,1.249183e+03
2.259201e+03,1.253452e+03
2.260165e+03,1.253734e+03
2.261129e+03,1.252049e+03
2.262093e+03,1.249437e+03
2.263058e+03,1.245303e+03
2.264022e+03,1.240059e+03
2.264986e+03,1.237375e+03
2.265950e+03,1.241306e+03
2.266915e+03,1.242457e+03
2.267879e+03,1.237314e+03
2.268843e+03,1.228123e+03
2.269807e+03,1.214334e+03
2.270771e+03,1.209470e+03
2.271736e+03,1.221768e+03
2.272700e+03,1.231506e+03
2.273664e+03,1.231955e+03
2.274628e+03,1.229768e+03
2.275593e+03,1.227125e+03
2.276557e+03,1.223036e+03
2.277521e+03,1.218235e+03
2.278485e+03,1.216264e+03
2.279449e+03,1.222355e+03
2.280414e+03,1.219836e+03
2.281378e+03,1.207954e+03
2.282342e+03,1.199736e+03
2.283306e+03,1.202513e+03
2.284271e+03,1.206712e+03
2.285235e+03,1.211547e+03
2.286199e+03,1.210279e+03
2.287163e+03,1.199055e+03
2.288128e+03,1.199542e+03
2.289092e+03,1.209275e+03
2.290056e+03,1.212118e+03
2.291020e+03,1.204337e+03
2.291985e+03,1.200117e+03
2.292949e+03,1.200470e+03
2.293913e+03,1.202238e+03
2.294877e+03,1.204320e+03
2.295842e+03,1.206294e+03
2.296806e+03,1.207047e+03
2.297770e+03,1.201457e+03
2.298734e+03,1.192105e+03
2.299698e+03,1.191147e+03
2.300663e+03,1.197592e+03
2.301627e+03,1.199958e+03
2.302591e+03,1.197384e+03
2.303555e+03,1.187458e+03
2.304520e+03,1.174189e+03
2.305484e+03,1.175675e+03
2.306448e+03,1.184703e+03
2.307412e+03,1.188573e+03
2.308376e+03,1.188075e+03
2.309341e+03,1.187907e+03
2.310305e+03,1.185765e+03
2.311269e+03,1.177278e+03
2.312233e+03,1.168518e+03
2.313198e+03,1.169348e+03
2.314162e+03,1.172495e+03
2.315126e+03,1.169766e+03
2.316090e+03,1.166013e+03
2.317055e+03,1.169090e+03
2.318019e+03,1.171861e+03
2.318983e+03,1.163835e+03
2.319947e+03,1.157296e+03
2.320912e+03,1.165586e+03
2.321876e+03,1.174548e+03
2.322840e+03,1.172653e+03
2.323804e+03,1.166600e+03
2.324769e+03,1.157440e+03
2.325733e+03,1.151449e+03
2.326697e+03,1.153567e+03
2.327661e+03,1.157270e+03
2.328625e+03,1.160264e+03
2.329590e+03,1.161861e+03
2.330554e+03,1.163128e+03
2.331518e+03,1.163156e+03
2.332482e+03,1.161646e+03
2.333447e+03,1.158672e+03
2.334411e+03,1.153078e+03
2.335375e+03,1.148363e+03
2.336339e+03,1.144821e+03
2.337303e+03,1.143518e+03
2.338268e+03,1.145931e+03
2.339232e+03,1.144260e+03
2.340196e+03,1.139446e+03
2.341160e+03,1.135039e+03
2.342125e+03,1.131461e+03
2.343089e+03,1.137159e+03
2.344053e+03,1.147242e+03
2.345017e+03,1.147531e+03
2.345982e+03,1.138094e+03
2.346946e+03,1.134539e+03
2.347910e+03,1.135332e+03
2.348874e+03,1.133228e+03
2.349839e+03,1.128583e+03
2.350803e+03,1.127964e+03
2.351767e+03,1.129345e+03
2.352731e+03,1.127745e+03
2.353696e+03,1.125031e+03
2.354660e+03,1.122440e+03
2.355624e+03,1.119930e+03
2.356588e+03,1.119104e+03
2.357552e+03,1.119307e+03
2.358517e+03,1.120212e+03
2.359481e+03,1.121103e+03
2.360445e+03,1.120717e+03
2.361409e+03,1.118935e+03
2.362374e+03,1.115498e+03
2.363338e+03,1.111532e+03
2.364302e+03,1.110416e+03
2.365266e+03,1.108618e+03
2.366230e+03,1.103413e+03
2.367195e+03,1.101637e+03
2.368159e+03,1.112292e+03
2.369123e+03,1.115295e+03
2.370087e+03,1.108665e+03
2.371052e+03,1.102261e+03
2.372016e+03,1.101232e+03
2.372980e+03,1.098694e+03
2.373944e+03,1.094150e+03
2.374909e+03,1.091517e+03
2.375873e+03,1.092664e+03
2.376837e+03,1.093929e+03
2.377801e+03,1.095190e+03
2.378766e+03,1.094337e+03
2.379730e+03,1.091340e+03
2.380694e+03,1.089635e+03
2.381658e+03,1.089427e+03
2.382623e+03,1.089999e+03
2.383587e+03,1.089987e+03
2.384551e+03,1.084519e+03
2.385515e+03,1.076690e+03
2.386479e+03,1.070905e+03
2.387444e+03,1.070086e+03
2.388408e+03,1.086399e+03
2.389372e+03,1.102496e+03
2.390336e+03,1.097085e+03
2.391301e+03,1.086097e+03
2.392265e+03,1.083163e+03
2.393229e+03,1.081070e+03
2.394193e+03,1.075024e+03
2.395157e+03,1.070887e+03
2.396122e+03,1.074752e+03
2.397086e+03,1.076552e+03
2.398050e+03,1.073012e+03
2.399014e+03,1.070436e+03
2.399979e+03,1.071129e+03
2.400943e+03,1.071799e+03
2.401907e+03,1.071373e+03
2.402871e+03,1.072613e+03
2.403836e+03,1.076495e+03
2.404800e+03,1.074401e+03
2.405764e+03,1.066152e+03
2.406728e+03,1.059527e+03
2.407693e+03,1.054766e+03
2.408657e+03,1.050147e+03
2.409621e+03,1.046990e+03
2.410585e+03,1.052371e+03
2.411550e+03,1.061050e+03
2.412514e+03,1.057867e+03
2.413478e+03,1.049124e+03
2.414442e+03,1.054229e+03
2.415406e+03,1.062107e+03
2.416371e+03,1.060477e+03
2.417335e+03,1.053927e+03
2.418299e+03,1.045278e+03
2.419263e+03,1.039696e+03
2.420228e+03,1.040565e+03
2.421192e+03,1.042054e+03
2.422156e+03,1.037274e+03
2.423120e+03,1.036375e+03
2.424084e+03,1.041301e+03
2.425049e+03,1.044941e+03
2.426013e+03,1.044086e+03
2.426977e+03,1.044867e+03
2.427941e+03,1.048393e+03
2.428906e+03,1.045487e+03
2.429870e+03,1.030844e+03
2.430834e+03,1.032254e+03
2.431798e+03,1.045947e+03
2.432763e+03,1.044528e+03
2.433727e+03,1.028218e+03
2.434691e+03,1.028721e+03
2.435655e+03,1.037195e+03
2.436620e+03,1.035494e+03
2.437584e+03,1.026710e+03
2.438548e+03,1.016249e+03
2.439512e+03,1.009426e+03
2.440477e+03,1.010772e+03
2.441441e+03,1.015936e+03
2.442405e+03,1.025403e+03
2.443369e+03,1.029159e+03
2.444333e+03,1.022554e+03
2.445298e+03,1.015940e+03
2.446262e+03,1.019903e+03
2.447226e+03,1.021073e+03
2.448190e+03,1.017561e+03
2.449155e+03,1.014602e+03
2.450119e+03,1.017410e+03
2.451083e+03,1.015566e+03
2.452047e+03,1.009718e+03
2.453011e+03,1.010884e+03
2.453976e+03,1.022708e+03
2.454940e+03,1.020722e+03
2.455904e+03,1.010673e+03
2.456868e+03,1.007858e+03
2.457833e+03,1.009960e+03
2.458797e+03,1.009496e+03
2.459761e+03,1.006938e+03
2.460725e+03,1.001344e+03
2.461690e+03,9.949954e+02
2.462654e+03,9.919671e+02
2.463618e+03,9.879720e+02
2.464582e+03,9.793403e+02
2.465547e+03,9.755556e+02
2.466511e+03,9.910980e+02
2.467475e+03,9.986876e+02
2.468439e+03,9.919642e+02
2.469404e+03,9.847499e+02
2.470368e+03,9.862254e+02
2.471332e+03,9.891645e+02
2.472296e+03,9.923564e+02
2.473260e+03,9.932492e+02
2.474225e+03,9.912072e+02
2.475189e+03,9.875832e+02
2.476153e+03,9.842469e+02
2.477117e+03,9.851481e+02
2.478082e+03,9.888745e+02
2.479046e+03,9.945877e+02
2.480010e+03,9.981097e+02
2.480974e+03,9.940926e+02
2.481938e+03,9.857102e+02
2.482903e+03,9.711691e+02
2.483867e+03,9.625795e+02
2.484831e+03,9.663164e+02
2.485795e+03,9.719200e+02
2.486760e+03,9.732994e+02
2.487724e+03,9.715281e+02
2.488688e+03,9.672789e+02
2.489652e+03,9.654161e+02
2.490617e+03,9.685665e+02
2.491581e+03,9.725357e+02
2.492545e+03,9.771127e+02
2.493509e+03,9.771623e+02
2.494474e+03,9.721166e+02
2.495438e+03,9.749611e+02
2.496402e+03,9.804819e+02
2.497366e+03,9.759055e+02
2.498331e+03,9.663386e+02
2.499295e+03,9.596310e+02
2.500259e+03,9.561465e+02
2.501223e+03,9.577621e+02
2.502188e+03,9.603232e+02
2.503152e+03,9.576224e+02
2.504116e+03,9.585963e+02
2.505080e+03,9.663838e+02
2.506044e+03,9.709949e+02
2.507009e+03,9.603044e+02
2.507973e+03,9.576158e+02
2.508937e+03,9.633309e+02
2.509901e+03,9.645767e+02
2.510865e+03,9.576106e+02
2.511830e+03,9.537953e+02
2.512794e+03,9.508034e+02
2.513758e+03,9.425281e+02
2.514722e+03,9.330613e+02
2.515687e+03,9.342675e+02
2.516651e+03,9.384680e+02
2.517615e+03,9.368105e+02
2.518579e+03,9.345513e+02
2.519544e+03,9.402430e+02
2.520508e+03,9.452323e+02
2.521472e+03,9.470808e+02
2.522436e+03,9.444745e+02
2.523401e+03,9.281413e+02
2.524365e+03,9.291918e+02
2.525329e+03,9.475234e+02
2.526293e+03,9.550862e+02
2.527258e+03,9.456381e+02
2.528222e+03,9.405521e+02
2.529186e+03,9.391631e+02
2.530150e+03,9.393309e+02
2.531115e+03,9.400850e+02
2.532079e+03,9.350278e+02
2.533043e+03,9.313137e+02
2.534007e+03,9.378585e+02
2.534971e+03,9.427485e+02
2.535936e+03,9.260658e+02
2.536900e+03,9.143792e+02
2.537864e+03,9.175836e+02
2.538828e+03,9.217578e+02
2.539792e+03,9.178282e+02
2.540757e+03,9.173535e+02
2.541721e+03,9.212606e+02
2.542685e+03,9.202335e+02
2.543649e+03,9.145170e+02
2.544614e+03,9.112836e+02
2.545578e+03,9.106232e+02
2.546542e+03,9.131240e+02
2.547506e+03,9.176394e+02
2.548471e+03,9.214664e+02
2.549435e+03,9.243927e+02
2.550399e+03,9.283524e+02
2.551363e+03,9.269346e+02
2.552328e+03,9.102269e+02
2.553292e+03,9.018129e+02
2.554256e+03,9.126925e+02
2.555220e+03,9.171445e+02
2.556185e+03,9.101844e+02
2.557149e+03,9.046656e+02
2.558113e+03,9.031076e+02
2.559077e+03,9.055110e+02
2.560042e+03,9.102580e+02
2.561006e+03,9.162470e+02
2.561970e+03,9.216185e+02
2.562934e+03,9.184138e+02
2.563898e+03,9.129114e+02
2.564863e+03,9.118438e+02
2.565827e+03,9.116894e+02
2.566791e+03,9.131350e+02
2.567755e+03,9.130603e+02
2.568719e+03,9.098885e+02
2.569684e+03,9.029983e+02
2.570648e+03,8.893209e+02
2.571612e+03,8.896119e+02
2.572576e+03,9.013766e+02
2.573541e+03,9.014111e+02
2.574505e+03,8.899844e+02
2.575469e+03,8.911729e+02
2.576433e+03,8.962625e+02
2.577398e+03,8.920764e+02
2.578362e+03,8.860032e+02
2.579326e+03,8.898160e+02
2.580290e+03,8.930671e+02
2.581255e+03,8.907405e+02
2.582219e+03,8.870154e+02
2.583183e+03,8.822563e+02
2.584147e+03,8.873448e+02
2.585112e+03,9.020811e+02
2.586076e+03,8.976953e+02
2.587040e+03,8.703391e+02
2.588004e+03,8.721513e+02
2.588969e+03,8.884076e+02
2.589933e+03,8.879041e+02
2.590897e+03,8.782411e+02
2.591861e+03,8.746892e+02
2.592825e+03,8.723506e+02
2.593790e+03,8.667531e+02
2.594754e+03,8.640814e+02
2.595718e+03,8.701906e+02
2.596682e+03,8.764621e+02
2.597646e+03,8.811163e+02
2.598611e+03,8.709318e+02
2.599575e+03,8.489093e+02
2.600539e+03,8.470168e+02
2.601503e+03,8.635124e+02
2.602468e+03,8.777574e+02
2.603432e+03,8.859080e+02
2.604396e+03,8.753898e+02
2.605360e+03,8.616732e+02
2.606325e+03,8.533589e+02
2.607289e+03,8.550593e+02
2.608253e+03,8.704686e+02
2.609217e+03,8.790790e+02
2.610182e+03,8.667667e+02
2.611146e+03,8.592130e+02
2.612110e+03,8.574992e+02
2.613074e+03,8.532081e+02
2.614039e+03,8.474865e+02
2.615003e+03,8.558309e+02
2.615967e+03,8.658828e+02
2.616931e+03,8.590634e+02
2.617896e+03,8.483147e+02
2.618860e+03,8.521783e+02
2.619824e+03,8.532372e+02
2.620788e+03,8.443260e+02
2.621752e+03,8.364389e+02
2.622717e+03,8.363108e+02
2.623681e+03,8.390037e+02
2.624645e+03,8.436379e+02
2.625609e+03,8.483615e+02
2.626573e+03,8.524638e+02
2.627538e+03,8.499271e+02
2.628502e+03,8.467689e+02
2.629466e+03,8.525366e+02
2.630430e+03,8.584683e+02
2.631395e+03,8.500805e+02
2.632359e+03,8.408288e+02
2.633323e+03,8.342445e+02
2.634287e+03,8.350370e+02
2.635252e+03,8.437681e+02
2.636216e+03,8.500231e+02
2.637180e+03,8.503917e+02
2.638144e+03,8.398486e+02
2.639109e+03,8.252634e+02
2.640073e+03,8.326271e+02
2.641037e+03,8.453108e+02
2.642001e+03,8.329109e+02
2.642966e+03,8.208698e+02
2.643930e+03,8.235967e+02
2.644894e+03,8.305507e+02
2.645858e+03,8.371887e+02
2.646823e+03,8.441723e+02
2.647787e+03,8.503124e+02
2.648751e+03,8.480580e+02
2.649715e+03,8.378965e+02
2.650679e+03,8.388176e+02
2.651644e+03,8.419373e+02
2.652608e+03,8.317745e+02
2.653572e+03,8.191907e+02
2.654536e+03,8.228018e+02
2.655500e+03,8.270540e+02
2.656465e+03,8.263549e+02
2.657429e+03,8.238569e+02
2.658393e+03,8.200634e+02
2.659357e+03,8.152484e+02
2.660322e+03,8.117331e+02
2.661286e+03,8.168820e+02
2.662250e+03,8.265363e+02
2.663214e+03,8.274236e+02
2.664179e+03,8.266152e+02
2.665143e+03,8.364489e+02
2.666107e+03,8.436187e+02
2.667071e+03,8.417526e+02
2.668036e+03,8.351713e+02
2.669000e+03,8.204244e+02
2.669964e+03,8.146985e+02
2.670928e+03,8.171420e+02
2.671893e+03,8.218394e+02
2.672857e+03,8.270616e+02
2.673821e+03,8.274623e+02
2.674785e+03,8.243998e+02
2.675750e+03,8.204922e+02
2.676714e+03,8.161093e+02
2.677678e+03,8.085032e+02
2.678642e+03,8.068138e+02
2.679606e+03,8.138517e+02
2.680571e+03,8.105573e+02
2.681535e+03,7.946540e+02
2.682499e+03,7.920526e+02
2.683463e+03,8.007264e+02
2.684427e+03,8.052423e+02
2.685392e+03,8.081649e+02
2.686356e+03,8.150766e+02
2.687320e+03,8.189869e+02
2.688284e+03,8.130225e+02
2.689249e+03,8.077551e+02
2.690213e+03,8.052767e+02
2.691177e+03,7.996771e+02
2.692141e+03,7.893211e+02
2.693106e+03,7.904681e+02
2.694070e+03,7.979359e+02
2.695034e+03,7.974551e+02
2.695998e+03,7.945762e+02
2.696963e+03,8.027043e+02
2.697927e+03,8.083270e+02
2.698891e+03,8.037248e+02
2.699855e+03,7.987936e+02
2.700820e+03,7.999232e+02
2.701784e+03,7.931508e+02
2.702748e+03,7.799013e+02
2.703712e+03,7.850344e+02
2.704677e+03,8.011986e+02
2.705641e+03,8.035624e+02
2.706605e+03,8.015760e+02
2.707569e+03,8.082373e+02
2.708533e+03,8.064646e+02
2.709498e+03,7.868826e+02
2.710462e+03,7.748104e+02
2.711426e+03,7.868932e+02
2.712390e+03,7.874778e+02
2.713354e+03,7.795472e+02
2.714319e+03,7.804764e+02
2.715283e+03,7.862408e+02
2.716247e+03,7.857214e+02
2.717211e+03,7.841113e+02
2.718176e+03,7.855212e+02
2.719140e+03,7.866390e+02
2.720104e+03,7.847269e+02
2.721068e+03,7.824435e+02
2.722033e+03,7.804470e+02
2.722997e+03,7.825431e+02
2.723961e+03,7.863199e+02
2.724925e+03,7.812764e+02
2.725890e+03,7.742582e+02
2.726854e+03,7.748527e+02
2.727818e+03,7.783220e+02
2.728782e+03,7.816607e+02
2.729747e+03,7.804250e+02
2.730711e+03,7.688320e+02
2.731675e+03,7.626158e+02
2.732639e+03,7.627711e+02
2.733604e+03,7.764578e+02
2.734568e+03,7.940710e+02
2.735532e+03,7.898076e+02
2.736496e+03,7.770530e+02
2.737460e+03,7.656455e+02
2.738425e+03,7.606508e+02
2.739389e+03,7.669006e+02
2.740353e+03,7.678620e+02
2.741317e+03,7.621627e+02
2.742281e+03,7.636652e+02
2.743246e+03,7.705228e+02
2.744210e+03,7.741522e+02
2.745174e+03,7.738641e+02
2.746138e+03,7.688307e+02
2.747103e+03,7.648504e+02
2.748067e+03,7.648455e+02
2.749031e+03,7.629596e+02
2.749995e+03,7.521628e+02
2.750960e+03,7.583771e+02
2.751924e+03,7.730897e+02
2.752888e+03,7.667722e+02
2.753852e+03,7.493855e+02
2.754817e+03,7.411723e+02
2.755781e+03,7.410638e+02
2.756745e+03,7.500878e+02
2.757709e+03,7.554657e+02
2.758674e+03,7.524593e+02
2.759638e+03,7.546400e+02
2.760602e+03,7.633800e+02
2.761566e+03,7.653962e+02
2.762531e+03,7.608203e+02
2.763495e+03,7.441669e+02
2.764459e+03,7.290968e+02
2.765423e+03,7.302298e+02
2.766387e+03,7.406334e+02
2.767352e+03,7.582606e+02
2.768316e+03,7.638500e+02
2.769280e+03,7.540989e+02
2.770244e+03,7.543707e+02
2.771208e+03,7.611271e+02
2.772173e+03,7.655807e+02
2.773137e+03,7.657226e+02
2.774101e+03,7.582302e+02
2.775065e+03,7.537970e+02
2.776030e+03,7.574716e+02
2.776994e+03,7.575231e+02
2.777958e+03,7.524944e+02
2.778922e+03,7.396324e+02
2.779887e+03,7.266730e+02
2.780851e+03,7.397098e+02
2.781815e+03,7.520278e+02
2.782779e+03,7.454055e+02
2.783744e+03,7.386373e+02
2.784708e+03,7.441730e+02
2.785672e+03,7.418213e+02
2.786636e+03,7.311338e+02
2.787601e+03,7.228406e+02
2.788565e+03,7.200099e+02
2.789529e+03,7.350641e+02
2.790493e+03,7.496830e+02
2.791458e+03,7.460462e+02
2.792422e+03,7.368330e+02
2.793386e+03,7.268278e+02
2.794350e+03,7.263940e+02
2.795314e+03,7.373222e+02
2.796279e+03,7.335422e+02
2.797243e+03,7.254241e+02
2.798207e+03,7.325235e+02
2.799171e+03,7.420423e+02
2.800135e+03,7.350768e+02
2.801100e+03,7.297526e+02
2.802064e+03,7.306479e+02
2.803028e+03,7.342969e+02
2.803992e+03,7.388990e+02
2.804957e+03,7.417683e+02
2.805921e+03,7.420590e+02
2.806885e+03,7.346866e+02
2.807849e+03,7.292613e+02
2.808814e+03,7.304103e+02
2.809778e+03,7.315338e+02
2.810742e+03,7.299064e+02
2.811706e+03,7.271291e+02
2.812671e+03,7.239825e+02
2.813635e+03,7.267836e+02
2.814599e+03,7.300010e+02
2.815563e+03,7.170432e+02
2.816528e+03,7.125170e+02
2.817492e+03,7.342556e+02
2.818456e+03,7.426969e+02
2.819420e+03,7.337224e+02
2.820385e+03,7.146701e+02
2.821349e+03,6.956346e+02
2.822313e+03,7.099142e+02
2.823277e+03,7.301447e+02
2.824241e+03,7.339411e+02
2.825206e+03,7.300148e+02
2.826170e+03,7.221298e+02
2.827134e+03,7.210887e+02
2.828098e+03,7.257036e+02
2.829063e+03,7.211679e+02
2.830027e+03,7.118746e+02
2.830991e+03,7.080394e+02
2.831955e+03,7.075894e+02
2.832919e+03,7.082289e+02
2.833884e+03,7.097763e+02
2.834848e+03,7.119539e+02
2.835812e+03,7.188310e+02
2.836776e+03,7.290694e+02
2.837741e+03,7.278401e+02
2.838705e+03,7.215797e+02
2.839669e+03,7.163376e+02
2.840633e+03,7.152652e+02
2.841598e+03,7.202811e+02
2.842562e+03,7.257888e+02
2.843526e+03,7.309375e+02
2.844490e+03,7.306791e+02
2.845455e+03,7.244834e+02
2.846419e+03,7.103830e+02
2.847383e+03,6.984688e+02
2.848347e+03,7.020394e+02
2.849312e+03,7.066717e+02
2.850276e+03,7.097111e+02
2.851240e+03,7.173622e+02
2.852204e+03,7.258002e+02
2.853168e+03,7.102435e+02
2.854133e+03,6.900023e+02
2.855097e+03,6.906990e+02
2.856061e+03,6.976874e+02
2.857025e+03,7.039217e+02
2.857990e+03,7.103605e+02
2.858954e+03,7.176218e+02
2.859918e+03,7.202943e+02
2.860882e+03,7.189640e+02
2.861846e+03,7.141541e+02
2.862811e+03,7.105765e+02
2.863775e+03,7.142566e+02
2.864739e+03,7.126430e+02
2.865703e+03,7.021014e+02
2.866668e+03,7.012405e+02
2.867632e+03,7.067515e+02
2.868596e+03,7.072288e+02
2.869560e+03,7.075771e+02
2.870525e+03,7.202146e+02
2.871489e+03,7.226546e+02
2.872453e+03,7.093223e+02
2.873417e+03,7.149707e+02
2.874382e+03,7.371234e+02
2.875346e+03,7.393572e+02
2.876310e+03,7.305420e+02
2.877274e+03,7.214717e+02
2.878239e+03,7.124475e+02
2.879203e+03,7.027129e+02
2.880167e+03,7.007722e+02
2.881131e+03,7.105372e+02
2.882095e+03,7.171658e+02
2.883060e+03,7.218184e+02
2.884024e+03,7.276953e+02
2.884988e+03,7.282190e+02
2.885952e+03,7.141290e+02
2.886917e+03,7.057285e+02
2.887881e+03,7.094941e+02
2.888845e+03,7.252298e+02
2.889809e+03,7.425673e+02
2.890773e+03,7.352553e+02
2.891738e+03,7.219636e+02
2.892702e+03,7.251091e+02
2.893666e+03,7.269543e+02
2.894630e+03,7.243691e+02
2.895595e+03,7.234648e+02
2.896559e+03,7.245219e+02
2.897523e+03,7.297881e+02
2.898487e+03,7.331902e+02
2.899452e+03,7.224710e+02
2.900416e+03,7.221438e+02
2.901380e+03,7.358314e+02
2.902344e+03,7.372441e+02
2.903309e+03,7.241398e+02
2.904273e+03,7.180825e+02
2.905237e+03,7.135723e+02
2.906201e+03,7.040006e+02
2.907166e+03,6.942295e+02
2.908130e+03,6.857658e+02
2.909094e+03,6.924803e+02
2.910058e+03,7.144962e+02
2.911022e+03,7.247446e+02
2.911987e+03,7.237208e+02
2.912951e+03,7.110723e+02
2.913915e+03,7.005382e+02
2.914879e+03,7.041545e+02
2.915844e+03,6.975268e+02
2.916808e+03,6.818702e+02
2.917772e+03,6.794949e+02
2.918736e+03,6.831467e+02
2.919700e+03,6.793889e+02
2.920665e+03,6.781168e+02
2.921629e+03,6.922044e+02
2.922593e+03,6.935599e+02
2.923557e+03,6.847501e+02
2.924522e+03,6.817914e+02
2.925486e+03,6.847794e+02
2.926450e+03,6.988502e+02
2.927414e+03,7.054463e+02
2.928379e+03,6.918323e+02
2.929343e+03,6.902038e+02
2.930307e+03,6.995087e+02
2.931271e+03,6.983268e+02
2.932236e+03,6.908929e+02
2.933200e+03,6.813843e+02
2.934164e+03,6.748560e+02
2.935128e+03,6.721810e+02
2.936093e+03,6.805025e+02
2.937057e+03,6.959293e+02
2.938021e+03,6.860326e+02
2.938985e+03,6.681482e+02
2.939949e+03,6.719186e+02
2.940914e+03,6.781053e+02
2.941878e+03,6.799528e+02
2.942842e+03,6.697004e+02
2.943806e+03,6.483494e+02
2.944771e+03,6.591725e+02
2.945735e+03,6.794248e+02
2.946699e+03,6.738375e+02
2.947663e+03,6.738303e+02
2.948627e+03,6.886345e+02
2.949592e+03,6.852529e+02
2.950556e+03,6.624415e+02
2.951520e+03,6.729519e+02
2.952484e+03,6.896575e+02
2.953449e+03,6.829304e+02
2.954413e+03,6.812917e+02
2.955377e+03,6.977732e+02
2.956341e+03,7.080449e+02
2.957306e+03,7.088420e+02
2.958270e+03,7.105900e+02
2.959234e+03,6.993370e+02
2.960198e+03,6.642867e+02
2.961163e+03,6.477388e+02
2.962127e+03,6.705417e+02
2.963091e+03,6.724713e+02
2.964055e+03,6.588062e+02
2.965020e+03,6.719921e+02
2.965984e+03,6.811380e+02
2.966948e+03,6.620195e+02
2.967912e+03,6.413617e+02
2.968876e+03,6.281217e+02
2.969841e+03,6.313362e+02
2.970805e+03,6.440979e+02
2.971769e+03,6.544555e+02
2.972733e+03,6.569636e+02
2.973698e+03,6.466324e+02
2.974662e+03,6.407946e+02
2.975626e+03,6.449441e+02
2.976590e+03,6.655307e+02
2.977554e+03,6.831208e+02
2.978519e+03,6.707606e+02
2.979483e+03,6.554814e+02
2.980447e+03,6.566590e+02
2.981411e+03,6.547087e+02
2.982376e+03,6.492770e+02
2.983340e+03,6.553618e+02
2.984304e+03,6.616125e+02
2.985268e+03,6.568281e+02
2.986233e+03,6.504833e+02
2.987197e+03,6.478894e+02
2.988161e+03,6.457913e+02
2.989125e+03,6.426700e+02
2.990090e+03,6.331272e+02
2.991054e+03,6.224921e+02
2.992018e+03,6.137050e+02
2.992982e+03,6.164746e+02
2.993947e+03,6.392464e+02
2.994911e+03,6.393063e+02
2.995875e+03,6.330721e+02
2.996839e+03,6.516708e+02
2.997803e+03,6.581158e+02
2.998768e+03,6.278209e+02
2.999732e+03,6.087672e+02
3.000696e+03,6.114446e+02
3.001660e+03,6.208858e+02
3.002625e+03,6.320559e+02
3.003589e+03,6.417567e+02
3.004553e+03,6.420008e+02
3.005517e+03,6.289308e+02
3.006481e+03,6.306510e+02
3.007446e+03,6.422253e+02
3.008410e+03,6.367272e+02
3.009374e+03,6.317445e+02
3.010338e+03,6.393170e+02
3.011303e+03,6.412528e+02
3.012267e+03,6.304233e+02
3.013231e+03,6.251793e+02
3.014195e+03,6.277238e+02
3.015160e+03,6.472531e+02
3.016124e+03,6.553805e+02
3.017088e+03,6.437682e+02
3.018052e+03,6.301470e+02
3.019017e+03,6.191640e+02
3.019981e+03,6.244183e+02
3.020945e+03,6.325192e+02
3.021909e+03,6.297560e+02
3.022874e+03,6.377336e+02
3.023838e+03,6.573272e+02
3.024802e+03,6.567932e+02
3.025766e+03,6.426327e+02
3.026730e+03,6.321476e+02
3.027695e+03,6.235331e+02
3.028659e+03,6.156027e+02
3.029623e+03,6.233708e+02
3.030587e+03,6.409041e+02
3.031552e+03,6.287430e+02
3.032516e+03,6.120756e+02
3.033480e+03,6.272011e+02
3.034444e+03,6.365292e+02
3.035408e+03,6.335017e+02
3.036373e+03,6.222904e+02
3.037337e+03,6.108663e+02
3.038301e+03,6.322122e+02
3.039265e+03,6.422034e+02
3.040230e+03,5.998074e+02
3.041194e+03,5.877004e+02
3.042158e+03,6.023721e+02
3.043122e+03,6.132638e+02
3.044087e+03,6.218290e+02
3.045051e+03,6.360042e+02
3.046015e+03,6.326627e+02
3.046979e+03,6.028950e+02
3.047944e+03,6.072814e+02
3.048908e+03,6.258186e+02
3.049872e+03,6.251258e+02
3.050836e+03,6.186784e+02
3.051801e+03,6.141815e+02
3.052765e+03,6.160851e+02
3.053729e+03,6.240886e+02
3.054693e+03,6.408948e+02
3.055657e+03,6.452370e+02
3.056622e+03,6.219930e+02
3.057586e+03,6.133563e+02
3.058550e+03,6.319039e+02
3.059514e+03,6.186469e+02
3.060479e+03,5.952509e+02
3.061443e+03,6.006064e+02
3.062407e+03,6.061351e+02
3.063371e+03,6.033680e+02
3.064335e+03,6.007180e+02
3.065300e+03,6.000567e+02
3.066264e+03,5.985775e+02
3.067228e+03,6.069904e+02
3.068192e+03,6.380535e+02
3.069157e+03,6.363968e+02
3.070121e+03,6.101023e+02
3.071085e+03,6.185477e+02
3.072049e+03,6.370710e+02
3.073014e+03,6.249594e+02
3.073978e+03,6.168770e+02
3.074942e+03,6.195472e+02
3.075906e+03,6.193619e+02
3.076871e+03,6.194855e+02
3.077835e+03,6.274444e+02
3.078799e+03,6.273672e+02
3.079763e+03,6.049220e+02
3.080728e+03,5.959894e+02
3.081692e+03,6.005416e+02
3.082656e+03,6.057138e+02
3.083620e+03,6.060297e+02
3.084584e+03,5.989692e+02
3.085549e+03,6.055693e+02
3.086513e+03,6.286377e+02
3.087477e+03,6.186807e+02
3.088441e+03,6.043577e+02
3.089406e+03,6.219056e+02
3.090370e+03,6.293017e+02
3.091334e+03,6.215114e+02
3.092298e+03,6.189312e+02
3.093262e+03,6.198509e+02
3.094227e+03,6.192375e+02
3.095191e+03,6.139958e+02
3.096155e+03,6.023226e+02
3.097119e+03,5.932278e+02
3.098084e+03,5.905590e+02
3.099048e+03,5.995872e+02
3.100012e+03,6.131207e+02
3.100976e+03,6.304969e+02
3.101941e+03,6.205468e+02
3.102905e+03,5.899710e+02
3.103869e+03,5.923175e+02
3.104833e+03,6.028559e+02
3.105798e+03,6.046642e+02
3.106762e+03,6.083985e+02
3.107726e+03,6.166550e+02
3.108690e+03,6.209413e+02
3.109655e+03,6.173400e+02
3.110619e+03,5.915602e+02
3.111583e+03,5.873115e+02
3.112547e+03,6.060002e+02
3.113511e+03,6.079567e+02
3.114476e+03,6.035261e+02
3.115440e+03,6.286547e+02
3.116404e+03,6.406830e+02
3.117368e+03,6.212888e+02
3.118333e+03,6.019488e+02
3.119297e+03,5.899880e+02
3.120261e+03,5.945413e+02
3.121225e+03,6.036199e+02
3.122189e+03,6.104145e+02
3.123154e+03,6.123632e+02
3.124118e+03,6.090799e+02
3.125082e+03,6.028314e+02
3.126046e+03,5.955099e+02
3.127011e+03,5.873885e+02
3.127975e+03,5.874268e+02
3.128939e+03,5.954719e+02
3.129903e+03,6.225004e+02
3.130868e+03,6.412694e+02
3.131832e+03,6.152064e+02
3.132796e+03,6.006449e+02
3.133760e+03,6.012058e+02
3.134725e+03,6.027391e+02
3.135689e+03,6.087640e+02
3.136653e+03,6.235710e+02
3.137617e+03,6.364666e+02
3.138582e+03,6.446747e+02
3.139546e+03,6.609920e+02
3.140510e+03,6.654872e+02
3.141474e+03,6.367632e+02
3.142438e+03,6.079354e+02
3.143403e+03,5.884145e+02
3.144367e+03,5.992382e+02
3.145331e+03,6.188665e+02
3.146295e+03,6.130057e+02
3.147260e+03,6.049832e+02
3.148224e+03,5.996677e+02
3.149188e+03,6.085267e+02
3.150152e+03,6.157416e+02
3.151116e+03,5.990458e+02
3.152081e+03,5.925410e+02
3.153045e+03,6.099752e+02
3.154009e+03,6.100292e+02
3.154973e+03,6.019459e+02
3.155938e+03,6.036341e+02
3.156902e+03,6.241099e+02
3.157866e+03,6.585690e+02
3.158830e+03,6.437947e+02
3.159795e+03,6.055128e+02
3.160759e+03,6.092360e+02
3.161723e+03,6.238348e+02
3.162687e+03,6.487855e+02
3.163652e+03,6.220209e+02
3.164616e+03,5.778878e+02
3.165580e+03,5.845061e+02
3.166544e+03,5.922270e+02
3.167509e+03,5.800601e+02
3.168473e+03,5.811677e+02
3.169437e+03,5.914242e+02
3.170401e+03,5.780183e+02
3.171365e+03,5.812414e+02
3.172330e+03,6.202227e+02
3.173294e+03,6.312615e+02
3.174258e+03,6.212521e+02
3.175222e+03,6.118076e+02
3.176187e+03,6.110898e+02
3.177151e+03,6.274941e+02
3.178115e+03,6.223115e+02
3.179079e+03,6.076130e+02
3.180043e+03,6.319026e+02
3.181008e+03,6.503088e+02
3.181972e+03,6.474178e+02
3.182936e+03,6.373272e+02
3.183900e+03,6.255941e+02
3.184865e+03,6.153461e+02
3.185829e+03,6.181905e+02
3.186793e+03,6.637422e+02
3.187757e+03,6.592176e+02
3.188722e+03,6.283301e+02
3.189686e+03,6.280646e+02
3.190650e+03,6.371733e+02
3.191614e+03,6.439820e+02
3.192579e+03,6.249051e+02
3.193543e+03,5.934207e+02
3.194507e+03,5.884362e+02
3.195471e+03,6.032940e+02
3.196436e+03,6.378676e+02
3.197400e+03,6.612469e+02
3.198364e+03,6.710070e+02
3.199328e+03,6.702897e+02
3.200292e+03,6.577783e+02
3.201257e+03,0.000000e+00
3.202221e+03,0.000000e+00
3.203185e+03,0.000000e+00
3.204149e+03,0.000000e+00
3.205114e+03,0.000000e+00
3.206078e+03,0.000000e+00
3.207042e+03,0.000000e+00
3.208006e+03,0.000000e+00
3.208970e+03,0.000000e+00
3.209935e+03,0.000000e+00
3.210899e+03,0.000000e+00
3.211863e+03,0.000000e+00
3.212827e+03,0.000000e+00
3.213792e+03,0.000000e+00
3.214756e+03,0.000000e+00
3.215720e+03,0.000000e+00
3.216684e+03,0.000000e+00
3.217649e+03,0.000000e+00
3.218613e+03,0.000000e+00
3.219577e+03,0.000000e+00
3.220541e+03,0.000000e+00
3.221506e+03,0.000000e+00
3.222470e+03,0.000000e+00
3.223434e+03,0.000000e+00
3.224398e+03,0.000000e+00
3.225363e+03,0.000000e+00
3.226327e+03,0.000000e+00
3.227291e+03,0.000000e+00
3.228255e+03,0.000000e+00
3.229219e+03,0.000000e+00
3.230184e+03,0.000000e+00
3.231148e+03,0.000000e+00
3.232112e+03,0.000000e+00
3.233076e+03,0.000000e+00
3.234041e+03,0.000000e+00
3.235005e+03,0.000000e+00
3.235969e+03,0.000000e+00
3.236933e+03,0.000000e+00
3.237897e+03,0.000000e+00
3.238862e+03,0.000000e+00
3.239826e+03,0.000000e+00
3.240790e+03,0.000000e+00
3.241754e+03,0.000000e+00
3.242719e+03,0.000000e+00
3.243683e+03,0.000000e+00
3.244647e+03,0.000000e+00
3.245611e+03,0.000000e+00
3.246576e+03,0.000000e+00
3.247540e+03,0.000000e+00
3.248504e+03,0.000000e+00
3.249468e+03,0.000000e+00
3.250433e+03,0.000000e+00
3.251397e+03,0.000000e+00
3.252361e+03,0.000000e+00
3.253325e+03,0.000000e+00
3.254290e+03,0.000000e+00
3.255254e+03,0.000000e+00
3.256218e+03,0.000000e+00
3.257182e+03,0.000000e+00
3.258146e+03,0.000000e+00
3.259111e+03,0.000000e+00
3.260075e+03,0.000000e+00
3.261039e+03,0.000000e+00
3.262003e+03,0.000000e+00
3.262968e+03,0.000000e+00
3.263932e+03,0.000000e+00
3.264896e+03,0.000000e+00
3.265860e+03,0.000000e+00
3.266824e+03,0.000000e+00
3.267789e+03,0.000000e+00
3.268753e+03,0.000000e+00
3.269717e+03,0.000000e+00
3.270681e+03,0.000000e+00
3.271646e+03,0.000000e+00
3.272610e+03,0.000000e+00
3.273574e+03,0.000000e+00
3.274538e+03,0.000000e+00
3.275503e+03,0.000000e+00
3.276467e+03,0.000000e+00
3.277431e+03,0.000000e+00
3.278395e+03,0.000000e+00
3.279360e+03,0.000000e+00
3.280324e+03,0.000000e+00
3.281288e+03,0.000000e+00
3.282252e+03,0.000000e+00
3.283217e+03,0.000000e+00
3.284181e+03,0.000000e+00
3.285145e+03,0.000000e+00
3.286109e+03,0.000000e+00
3.287073e+03,0.000000e+00
3.288038e+03,0.000000e+00
3.289002e+03,0.000000e+00
3.289966e+03,0.000000e+00
3.290930e+03,0.000000e+00
3.291895e+03,0.000000e+00
3.292859e+03,0.000000e+00
3.293823e+03,0.000000e+00
3.294787e+03,0.000000e+00
3.295751e+03,0.000000e+00
3.296716e+03,0.000000e+00
3.297680e+03,0.000000e+00
3.298644e+03,0.000000e+00
3.299608e+03,0.000000e+00
3.300573e+03,0.000000e+00
3.301537e+03,0.000000e+00
3.302501e+03,0.000000e+00
3.303465e+03,0.000000e+00
3.304430e+03,0.000000e+00
3.305394e+03,0.000000e+00
3.306358e+03,0.000000e+00
3.307322e+03,0.000000e+00
3.308287e+03,0.000000e+00
3.309251e+03,0.000000e+00
3.310215e+03,0.000000e+00
3.311179e+03,0.000000e+00
3.312144e+03,0.000000e+00
3.313108e+03,0.000000e+00
3.314072e+03,0.000000e+00
3.315036e+03,0.000000e+00
3.316000e+03,0.000000e+00
3.316965e+03,0.000000e+00
3.317929e+03,0.000000e+00
3.318893e+03,0.000000e+00
3.319857e+03,0.000000e+00
3.320822e+03,0.000000e+00
3.321786e+03,0.000000e+00
3.322750e+03,0.000000e+00
3.323714e+03,0.000000e+00
3.324678e+03,0.000000e+00
3.325643e+03,0.000000e+00
3.326607e+03,0.000000e+00
3.327571e+03,0.000000e+00
3.328535e+03,0.000000e+00
3.329500e+03,0.000000e+00
3.330464e+03,0.000000e+00
3.331428e+03,0.000000e+00
3.332392e+03,0.000000e+00
3.333357e+03,0.000000e+00
3.334321e+03,0.000000e+00
3.335285e+03,0.000000e+00
3.336249e+03,0.000000e+00
3.337214e+03,0.000000e+00
3.338178e+03,0.000000e+00
3.339142e+03,0.000000e+00
3.340106e+03,0.000000e+00
3.341071e+03,0.000000e+00
3.342035e+03,0.000000e+00
3.342999e+03,0.000000e+00
3.343963e+03,0.000000e+00
3.344927e+03,0.000000e+00
3.345892e+03,0.000000e+00
3.346856e+03,0.000000e+00
3.347820e+03,0.000000e+00
3.348784e+03,0.000000e+00
3.349749e+03,0.000000e+00
3.350713e+03,0.000000e+00
3.351677e+03,0.000000e+00
3.352641e+03,0.000000e+00
3.353605e+03,0.000000e+00
3.354570e+03,0.000000e+00
3.355534e+03,0.000000e+00
3.356498e+03,0.000000e+00
3.357462e+03,0.000000e+00
3.358427e+03,0.000000e+00
3.359391e+03,0.000000e+00
3.360355e+03,0.000000e+00
3.361319e+03,0.000000e+00
3.362284e+03,0.000000e+00
3.363248e+03,0.000000e+00
3.364212e+03,0.000000e+00
3.365176e+03,0.000000e+00
3.366141e+03,0.000000e+00
3.367105e+03,0.000000e+00
3.368069e+03,0.000000e+00
3.369033e+03,0.000000e+00
3.369998e+03,0.000000e+00
3.370962e+03,0.000000e+00
3.371926e+03,0.000000e+00
3.372890e+03,0.000000e+00
3.373854e+03,0.000000e+00
3.374819e+03,0.000000e+00
3.375783e+03,0.000000e+00
3.376747e+03,0.000000e+00
3.377711e+03,0.000000e+00
3.378676e+03,0.000000e+00
3.379640e+03,0.000000e+00
3.380604e+03,0.000000e+00
3.381568e+03,0.000000e+00
3.382532e+03,0.000000e+00
3.383497e+03,0.000000e+00
3.384461e+03,0.000000e+00
3.385425e+03,0.000000e+00
3.386389e+03,0.000000e+00
3.387354e+03,0.000000e+00
3.388318e+03,0.000000e+00
3.389282e+03,0.000000e+00
3.390246e+03,0.000000e+00
3.391211e+03,0.000000e+00
3.392175e+03,0.000000e+00
3.393139e+03,0.000000e+00
3.394103e+03,0.000000e+00
3.395068e+03,0.000000e+00
3.396032e+03,0.000000e+00
3.396996e+03,0.000000e+00
3.397960e+03,0.000000e+00
3.398925e+03,0.000000e+00
3.399889e+03,0.000000e+00
3.400853e+03,0.000000e+00
3.401817e+03,0.000000e+00
3.402781e+03,0.000000e+00
3.403746e+03,0.000000e+00
3.404710e+03,0.000000e+00
3.405674e+03,0.000000e+00
3.406638e+03,0.000000e+00
3.407603e+03,0.000000e+00
3.408567e+03,0.000000e+00
3.409531e+03,0.000000e+00
3.410495e+03,0.000000e+00
3.411459e+03,0.000000e+00
3.412424e+03,0.000000e+00
3.413388e+03,0.000000e+00
3.414352e+03,0.000000e+00
3.415316e+03,0.000000e+00
3.416281e+03,0.000000e+00
3.417245e+03,0.000000e+00
3.418209e+03,0.000000e+00
3.419173e+03,0.000000e+00
3.420138e+03,0.000000e+00
3.421102e+03,0.000000e+00
3.422066e+03,0.000000e+00
3.423030e+03,0.000000e+00
3.423995e+03,0.000000e+00
3.424959e+03,0.000000e+00
3.425923e+03,0.000000e+00
3.426887e+03,0.000000e+00
3.427852e+03,0.000000e+00
3.428816e+03,0.000000e+00
3.429780e+03,0.000000e+00
3.430744e+03,0.000000e+00
3.431708e+03,0.000000e+00
3.432673e+03,0.000000e+00
3.433637e+03,0.000000e+00
3.434601e+03,0.000000e+00
3.435565e+03,0.000000e+00
3.436530e+03,0.000000e+00
3.437494e+03,0.000000e+00
3.438458e+03,0.000000e+00
3.439422e+03,0.000000e+00
3.440386e+03,0.000000e+00
3.441351e+03,0.000000e+00
3.442315e+03,0.000000e+00
3.443279e+03,0.000000e+00
3.444243e+03,0.000000e+00
3.445208e+03,0.000000e+00
3.446172e+03,0.000000e+00
3.447136e+03,0.000000e+00
3.448100e+03,0.000000e+00
3.449065e+03,0.000000e+00
3.450029e+03,0.000000e+00
3.450993e+03,0.000000e+00
3.451957e+03,0.000000e+00
3.452922e+03,0.000000e+00
3.453886e+03,0.000000e+00
3.454850e+03,0.000000e+00
3.455814e+03,0.000000e+00
3.456779e+03,0.000000e+00
3.457743e+03,0.000000e+00
3.458707e+03,0.000000e+00
3.459671e+03,0.000000e+00
3.460635e+03,0.000000e+00
3.461600e+03,0.000000e+00
3.462564e+03,0.000000e+00
3.463528e+03,0.000000e+00
3.464492e+03,0.000000e+00
3.465457e+03,0.000000e+00
3.466421e+03,0.000000e+00
3.467385e+03,0.000000e+00
3.468349e+03,0.000000e+00
3.469313e+03,0.000000e+00
3.470278e+03,0.000000e+00
3.471242e+03,0.000000e+00
3.472206e+03,0.000000e+00
3.473170e+03,0.000000e+00
3.474135e+03,0.000000e+00
3.475099e+03,0.000000e+00
3.476063e+03,0.000000e+00
3.477027e+03,0.000000e+00
3.477992e+03,0.000000e+00
3.478956e+03,0.000000e+00
3.479920e+03,0.000000e+00
3.480884e+03,0.000000e+00
3.481849e+03,0.000000e+00
3.482813e+03,0.000000e+00
3.483777e+03,0.000000e+00
3.484741e+03,0.000000e+00
3.485706e+03,0.000000e+00
3.486670e+03,0.000000e+00
3.487634e+03,0.000000e+00
3.488598e+03,0.000000e+00
3.489563e+03,0.000000e+00
3.490527e+03,0.000000e+00
3.491491e+03,0.000000e+00
3.492455e+03,0.000000e+00
3.493419e+03,0.000000e+00
3.494384e+03,0.000000e+00
3.495348e+03,0.000000e+00
3.496312e+03,0.000000e+00
3.497276e+03,0.000000e+00
3.498240e+03,0.000000e+00
3.499205e+03,0.000000e+00
3.500169e+03,0.000000e+00
