9.931763e+01,0.000000e+00
1.002819e+02,0.000000e+00
1.012461e+02,0.000000e+00
1.022103e+02,0.000000e+00
1.031746e+02,0.000000e+00
1.041388e+02,0.000000e+00
1.051030e+02,0.000000e+00
1.060673e+02,0.000000e+00
1.070315e+02,0.000000e+00
1.079957e+02,0.000000e+00
1.089600e+02,0.000000e+00
1.099242e+02,0.000000e+00
1.108884e+02,0.000000e+00
1.118527e+02,0.000000e+00
1.128169e+02,0.000000e+00
1.137811e+02,0.000000e+00
1.147454e+02,0.000000e+00
1.157096e+02,0.000000e+00
1.166738e+02,0.000000e+00
1.176381e+02,0.000000e+00
1.186023e+02,0.000000e+00
1.195665e+02,0.000000e+00
1.205308e+02,0.000000e+00
1.214950e+02,0.000000e+00
1.224592e+02,0.000000e+00
1.234235e+02,0.000000e+00
1.243877e+02,0.000000e+00
1.253519e+02,0.000000e+00
1.263162e+02,0.000000e+00
1.272804e+02,0.000000e+00
1.282446e+02,0.000000e+00
1.292089e+02,0.000000e+00
1.301731e+02,0.000000e+00
1.311373e+02,0.000000e+00
1.321016e+02,0.000000e+00
1.330658e+02,0.000000e+00
1.340300e+02,0.000000e+00
1.349943e+02,0.000000e+00
1.359585e+02,0.000000e+00
1.369227e+02,0.000000e+00
1.378870e+02,0.000000e+00
1.388512e+02,0.000000e+00
1.398154e+02,0.000000e+00
1.407797e+02,0.000000e+00
1.417439e+02,0.000000e+00
1.427081e+02,0.000000e+00
1.436724e+02,0.000000e+00
1.446366e+02,0.000000e+00
1.456008e+02,0.000000e+00
1.465651e+02,0.000000e+00
1.475293e+02,0.000000e+00
1.484935e+02,0.000000e+00
1.494578e+02,0.000000e+00
1.504220e+02,0.000000e+00
1.513862e+02,0.000000e+00
1.523505e+02,0.000000e+00
1.533147e+02,0.000000e+00
1.542789e+02,0.000000e+00
1.552432e+02,0.000000e+00
1.562074e+02,0.000000e+00
1.571716e+02,0.000000e+00
1.581359e+02,0.000000e+00
1.591001e+02,0.000000e+00
1.600643e+02,0.000000e+00
1.610286e+02,0.000000e+00
1.619928e+02,0.000000e+00
1.629570e+02,0.000000e+00
1.639213e+02,0.000000e+00
1.648855e+02,0.000000e+00
1.658497e+02,0.000000e+00
1.668140e+02,0.000000e+00
1.677782e+02,0.000000e+00
1.687424e+02,0.000000e+00
1.697067e+02,0.000000e+00
1.706709e+02,0.000000e+00
1.716351e+02,0.000000e+00
1.725994e+02,0.000000e+00
1.735636e+02,0.000000e+00
1.745278e+02,0.000000e+00
1.754921e+02,0.000000e+00
1.764563e+02,0.000000e+00
1.774205e+02,0.000000e+00
1.783848e+02,0.000000e+00
1.793490e+02,0.000000e+00
1.803132e+02,0.000000e+00
1.812775e+02,0.000000e+00
1.822417e+02,0.000000e+00
1.832059e+02,0.000000e+00
1.841702e+02,0.000000e+00
1.851344e+02,0.000000e+00
1.860986e+02,0.000000e+00
1.870629e+02,0.000000e+00
1.880271e+02,0.000000e+00
1.889913e+02,0.000000e+00
1.899556e+02,0.000000e+00
1.909198e+02,0.000000e+00
1.918840e+02,0.000000e+00
1.928483e+02,0.000000e+00
1.938125e+02,0.000000e+00
1.947767e+02,0.000000e+00
1.957410e+02,0.000000e+00
1.967052e+02,0.000000e+00
1.976694e+02,0.000000e+00
1.986337e+02,0.000000e+00
1.995979e+02,9.698002e+03
2.005621e+02,9.712737e+03
2.015264e+02,9.727581e+03
2.024906e+02,9.741331e+03
2.034548e+02,9.755952e+03
2.044191e+02,9.770663e+03
2.053833e+02,9.783506e+03
2.063475e+02,9.793021e+03
2.073118e+02,9.798933e+03
2.082760e+02,9.801569e+03
2.092402e+02,9.799245e+03
2.102045e+02,9.792337e+03
2.111687e+02,9.787073e+03
2.121329e+02,9.786285e+03
2.130972e+02,9.788918e+03
2.140614e+02,9.793507e+03
2.150256e+02,9.801147e+03
2.159899e+02,9.815060e+03
2.169541e+02,9.829979e+03
2.179183e+02,9.846963e+03
2.188826e+02,9.864028e+03
2.198468e+02,9.877913e+03
2.208110e+02,9.885402e+03
2.217753e+02,9.885338e+03
2.227395e+02,9.879657e+03
2.237037e+02,9.869476e+03
2.246680e+02,9.859783e+03
2.256322e+02,9.852971e+03
2.265964e+02,9.853143e+03
2.275607e+02,9.858819e+03
2.285249e+02,9.867306e+03
2.294892e+02,9.878543e+03
2.304534e+02,9.894236e+03
2.314176e+02,9.913759e+03
2.323819e+02,9.934209e+03
2.333461e+02,9.950426e+03
2.343103e+02,9.960752e+03
2.352746e+02,9.968262e+03
2.362388e+02,9.976304e+03
2.372030e+02,9.983652e+03
2.381673e+02,9.986342e+03
2.391315e+02,9.983582e+03
2.400957e+02,9.975266e+03
2.410600e+02,9.971261e+03
2.420242e+02,9.979097e+03
2.429884e+02,9.999066e+03
2.439527e+02,1.002556e+04
2.449169e+02,1.005301e+04
2.458811e+02,1.007986e+04
2.468454e+02,1.010055e+04
2.478096e+02,1.011524e+04
2.487738e+02,1.012463e+04
2.497381e+02,1.012762e+04
2.507023e+02,1.012440e+04
2.516665e+02,1.011826e+04
2.526308e+02,1.011357e+04
2.535950e+02,1.010559e+04
2.545592e+02,1.009618e+04
2.555235e+02,1.008321e+04
2.564877e+02,1.007215e+04
2.574519e+02,1.007134e+04
2.584161e+02,1.008848e+04
2.593804e+02,1.012288e+04
2.603446e+02,1.015112e+04
2.613088e+02,1.016073e+04
2.622731e+02,1.016855e+04
2.632373e+02,1.017932e+04
2.642015e+02,1.019069e+04
2.651658e+02,1.019851e+04
2.661300e+02,1.019887e+04
2.670942e+02,1.019215e+04
2.680585e+02,1.019521e+04
2.690227e+02,1.022393e+04
2.699869e+02,1.025696e+04
2.709512e+02,1.027815e+04
2.719154e+02,1.028399e+04
2.728796e+02,1.028201e+04
2.738439e+02,1.027987e+04
2.748081e+02,1.027847e+04
2.757723e+02,1.028558e+04
2.767366e+02,1.030348e+04
2.777008e+02,1.032466e+04
2.786650e+02,1.033735e+04
2.796293e+02,1.033642e+04
2.805935e+02,1.032932e+04
2.815577e+02,1.032657e+04
2.825220e+02,1.033003e+04
2.834862e+02,1.033435e+04
2.844504e+02,1.033188e+04
2.854147e+02,1.032445e+04
2.863789e+02,1.031423e+04
2.873431e+02,1.030058e+04
2.883074e+02,1.028783e+04
2.892716e+02,1.028208e+04
2.902358e+02,1.028576e+04
2.912001e+02,1.029758e+04
2.921643e+02,1.030333e+04
2.931285e+02,1.030115e+04
2.940928e+02,1.029980e+04
2.950570e+02,1.030266e+04
2.960212e+02,1.030759e+04
2.969855e+02,1.030997e+04
2.979497e+02,1.030589e+04
2.989139e+02,1.029380e+04
2.998782e+02,1.028508e+04
3.008424e+02,1.028789e+04
3.018066e+02,1.029597e+04
3.027709e+02,1.030116e+04
3.037351e+02,1.029835e+04
3.046993e+02,1.029053e+04
3.056636e+02,1.028550e+04
3.066278e+02,1.028576e+04
3.075920e+02,1.028820e+04
3.085563e+02,1.029084e+04
3.095205e+02,1.029639e+04
3.104847e+02,1.030673e+04
3.114490e+02,1.032366e+04
3.124132e+02,1.034165e+04
3.133774e+02,1.035136e+04
3.143417e+02,1.034922e+04
3.153059e+02,1.033977e+04
3.162701e+02,1.033276e+04
3.172344e+02,1.033203e+04
3.181986e+02,1.033254e+04
3.191628e+02,1.033281e+04
3.201271e+02,1.033411e+04
3.210913e+02,1.033844e+04
3.220555e+02,1.034646e+04
3.230198e+02,1.035659e+04
3.239840e+02,1.036302e+04
3.249482e+02,1.036017e+04
3.259125e+02,1.035806e+04
3.268767e+02,1.036071e+04
3.278409e+02,1.036753e+04
3.288052e+02,1.037556e+04
3.297694e+02,1.038237e+04
3.307336e+02,1.038788e+04
3.316979e+02,1.039127e+04
3.326621e+02,1.039292e+04
3.336263e+02,1.038979e+04
3.345906e+02,1.037986e+04
3.355548e+02,1.036543e+04
3.365190e+02,1.035388e+04
3.374833e+02,1.035148e+04
3.384475e+02,1.035801e+04
3.394117e+02,1.036793e+04
3.403760e+02,1.037820e+04
3.413402e+02,1.038759e+04
3.423044e+02,1.039515e+04
3.432687e+02,1.039558e+04
3.442329e+02,1.039625e+04
3.451971e+02,1.040385e+04
3.461614e+02,1.041586e+04
3.471256e+02,1.042322e+04
3.480898e+02,1.042188e+04
3.490541e+02,1.041159e+04
3.500183e+02,1.040459e+04
3.509825e+02,1.040447e+04
3.519468e+02,1.041049e+04
3.529110e+02,1.042072e+04
3.538752e+02,1.043252e+04
3.548395e+02,1.044329e+04
3.558037e+02,1.045158e+04
3.567680e+02,1.045670e+04
3.577322e+02,1.046100e+04
3.586964e+02,1.047003e+04
3.596607e+02,1.048138e+04
3.606249e+02,1.048904e+04
3.615891e+02,1.048467e+04
3.625534e+02,1.046957e+04
3.635176e+02,1.045449e+04
3.644818e+02,1.044344e+04
3.654461e+02,1.043415e+04
3.664103e+02,1.042888e+04
3.673745e+02,1.043183e+04
3.683388e+02,1.044137e+04
3.693030e+02,1.045232e+04
3.702672e+02,1.046346e+04
3.712315e+02,1.047808e+04
3.721957e+02,1.049730e+04
3.731599e+02,1.051218e+04
3.741242e+02,1.051220e+04
3.750884e+02,1.048308e+04
3.760526e+02,1.046899e+04
3.770169e+02,1.048407e+04
3.779811e+02,1.051012e+04
3.789453e+02,1.052351e+04
3.799096e+02,1.051077e+04
3.808738e+02,1.047930e+04
3.818380e+02,1.046030e+04
3.828023e+02,1.046655e+04
3.837665e+02,1.047892e+04
3.847307e+02,1.048977e+04
3.856950e+02,1.050020e+04
3.866592e+02,1.051275e+04
3.876234e+02,1.053084e+04
3.885877e+02,1.055147e+04
3.895519e+02,1.056617e+04
3.905161e+02,1.057196e+04
3.914804e+02,1.057257e+04
3.924446e+02,1.057423e+04
3.934088e+02,1.058186e+04
3.943731e+02,1.058315e+04
3.953373e+02,1.056716e+04
3.963015e+02,1.054376e+04
3.972658e+02,1.052709e+04
3.982300e+02,1.052351e+04
3.991942e+02,1.053320e+04
4.001585e+02,1.054811e+04
4.011227e+02,1.057004e+04
4.020869e+02,1.058740e+04
4.030512e+02,1.059261e+04
4.040154e+02,1.058891e+04
4.049796e+02,1.058471e+04
4.059439e+02,1.058499e+04
4.069081e+02,1.058804e+04
4.078723e+02,1.058879e+04
4.088366e+02,1.058480e+04
4.098008e+02,1.057463e+04
4.107650e+02,1.055868e+04
4.117293e+02,1.053884e+04
4.126935e+02,1.052904e+04
4.136577e+02,1.054033e+04
4.146220e+02,1.056246e+04
4.155862e+02,1.058267e+04
4.165504e+02,1.059912e+04
4.175147e+02,1.061039e+04
4.184789e+02,1.061350e+04
4.194431e+02,1.060004e+04
4.204074e+02,1.058697e+04
4.213716e+02,1.057116e+04
4.223358e+02,1.055672e+04
4.233001e+02,1.054913e+04
4.242643e+02,1.055264e+04
4.252285e+02,1.056311e+04
4.261928e+02,1.056893e+04
4.271570e+02,1.056836e+04
4.281212e+02,1.056954e+04
4.290855e+02,1.057505e+04
4.300497e+02,1.058247e+04
4.310139e+02,1.058853e+04
4.319782e+02,1.059421e+04
4.329424e+02,1.059978e+04
4.339066e+02,1.060312e+04
4.348709e+02,1.060275e+04
4.358351e+02,1.060088e+04
4.367993e+02,1.060069e+04
4.377636e+02,1.060537e+04
4.387278e+02,1.060469e+04
4.396920e+02,1.059567e+04
4.406563e+02,1.058621e+04
4.416205e+02,1.057945e+04
4.425847e+02,1.057580e+04
4.435490e+02,1.057607e+04
4.445132e+02,1.058471e+04
4.454774e+02,1.060576e+04
4.464417e+02,1.062376e+04
4.474059e+02,1.063261e+04
4.483701e+02,1.063357e+04
4.493344e+02,1.063025e+04
4.502986e+02,1.062330e+04
4.512628e+02,1.061617e+04
4.522271e+02,1.060781e+04
4.531913e+02,1.059969e+04
4.541555e+02,1.059945e+04
4.551198e+02,1.061408e+04
4.560840e+02,1.064415e+04
4.570482e+02,1.065389e+04
4.580125e+02,1.062939e+04
4.589767e+02,1.060779e+04
4.599409e+02,1.059667e+04
4.609052e+02,1.059386e+04
4.618694e+02,1.059605e+04
4.628336e+02,1.060601e+04
4.637979e+02,1.062311e+04
4.647621e+02,1.063472e+04
4.657263e+02,1.064244e+04
4.666906e+02,1.064861e+04
4.676548e+02,1.065018e+04
4.686190e+02,1.064384e+04
4.695833e+02,1.063777e+04
4.705475e+02,1.063484e+04
4.715117e+02,1.063212e+04
4.724760e+02,1.062594e+04
4.734402e+02,1.061554e+04
4.744044e+02,1.060376e+04
4.753687e+02,1.059596e+04
4.763329e+02,1.059399e+04
4.772971e+02,1.059403e+04
4.782614e+02,1.059769e+04
4.792256e+02,1.060299e+04
4.801898e+02,1.060614e+04
4.811541e+02,1.060032e+04
4.821183e+02,1.059307e+04
4.830826e+02,1.059681e+04
4.840468e+02,1.061123e+04
4.850110e+02,1.062663e+04
4.859753e+02,1.064071e+04
4.869395e+02,1.065281e+04
4.879037e+02,1.065429e+04
4.888680e+02,1.063767e+04
4.898322e+02,1.061941e+04
4.907964e+02,1.060745e+04
4.917607e+02,1.060314e+04
4.927249e+02,1.060475e+04
4.936891e+02,1.061160e+04
4.946534e+02,1.062372e+04
4.956176e+02,1.063524e+04
4.965818e+02,1.064884e+04
4.975461e+02,1.065979e+04
4.985103e+02,1.066193e+04
4.994745e+02,1.065046e+04
5.004388e+02,1.063912e+04
5.014030e+02,1.063662e+04
5.023672e+02,1.064123e+04
5.033315e+02,1.064973e+04
5.042957e+02,1.066106e+04
5.052599e+02,1.067079e+04
5.062242e+02,1.067210e+04
5.071884e+02,1.066371e+04
5.081526e+02,1.065271e+04
5.091169e+02,1.063627e+04
5.100811e+02,1.062209e+04
5.110453e+02,1.061771e+04
5.120095e+02,1.063282e+04
5.129738e+02,1.065393e+04
5.139380e+02,1.066218e+04
5.149022e+02,1.065814e+04
5.158665e+02,1.065414e+04
5.168307e+02,1.065299e+04
5.177949e+02,1.064945e+04
5.187592e+02,1.064274e+04
5.197234e+02,1.064572e+04
5.206876e+02,1.065004e+04
5.216519e+02,1.065036e+04
5.226161e+02,1.064914e+04
5.235803e+02,1.065185e+04
5.245446e+02,1.066533e+04
5.255088e+02,1.068733e+04
5.264730e+02,1.070152e+04
5.274373e+02,1.070331e+04
5.284015e+02,1.070428e+04
5.293657e+02,1.071538e+04
5.303300e+02,1.073942e+04
5.312942e+02,1.075288e+04
5.322584e+02,1.074588e+04
5.332227e+02,1.073675e+04
5.341869e+02,1.074066e+04
5.351511e+02,1.075858e+04
5.361154e+02,1.078126e+04
5.370796e+02,1.079874e+04
5.380438e+02,1.081130e+04
5.390081e+02,1.082413e+04
5.399723e+02,1.084036e+04
5.409365e+02,1.085765e+04
5.419008e+02,1.087080e+04
5.428650e+02,1.087501e+04
5.438292e+02,1.087549e+04
5.447935e+02,1.087441e+04
5.457577e+02,1.087224e+04
5.467219e+02,1.087016e+04
5.476862e+02,1.086895e+04
5.486504e+02,1.086794e+04
5.496146e+02,1.086574e+04
5.505789e+02,1.085929e+04
5.515431e+02,1.085540e+04
5.525073e+02,1.086278e+04
5.534716e+02,1.087891e+04
5.544358e+02,1.089433e+04
5.554000e+02,1.089935e+04
5.563643e+02,1.089997e+04
5.573285e+02,1.090445e+04
5.582927e+02,1.091039e+04
5.592570e+02,1.090906e+04
5.602212e+02,1.089553e+04
5.611854e+02,1.086904e+04
5.621497e+02,1.084491e+04
5.631139e+02,1.082415e+04
5.640781e+02,1.079954e+04
5.650424e+02,1.077164e+04
5.660066e+02,1.074197e+04
5.669708e+02,1.071276e+04
5.679351e+02,1.068406e+04
5.688993e+02,1.065910e+04
5.698635e+02,1.064336e+04
5.708278e+02,1.063841e+04
5.717920e+02,1.064165e+04
5.727562e+02,1.064953e+04
5.737205e+02,1.066272e+04
5.746847e+02,1.066867e+04
5.756489e+02,1.065753e+04
5.766132e+02,1.064498e+04
5.775774e+02,1.064219e+04
5.785416e+02,1.065057e+04
5.795059e+02,1.065954e+04
5.804701e+02,1.066031e+04
5.814343e+02,1.065502e+04
5.823986e+02,1.065097e+04
5.833628e+02,1.065042e+04
5.843270e+02,1.065133e+04
5.852913e+02,1.064970e+04
5.862555e+02,1.063746e+04
5.872197e+02,1.063543e+04
5.881840e+02,1.064885e+04
5.891482e+02,1.066689e+04
5.901124e+02,1.068037e+04
5.910767e+02,1.068588e+04
5.920409e+02,1.069214e+04
5.930051e+02,1.071350e+04
5.939694e+02,1.074465e+04
5.949336e+02,1.075747e+04
5.958978e+02,1.073945e+04
5.968621e+02,1.070466e+04
5.978263e+02,1.068643e+04
5.987905e+02,1.071377e+04
5.997548e+02,1.072690e+04
6.007190e+02,1.070815e+04
6.016832e+02,1.067960e+04
6.026475e+02,1.066458e+04
6.036117e+02,1.067072e+04
6.045759e+02,1.068950e+04
6.055402e+02,1.071563e+04
6.065044e+02,1.074649e+04
6.074686e+02,1.077231e+04
6.084329e+02,1.079208e+04
6.093971e+02,1.080591e+04
6.103613e+02,1.080904e+04
6.113256e+02,1.079966e+04
6.122899e+02,1.078173e+04
6.132541e+02,1.074844e+04
6.142183e+02,1.070757e+04
6.151826e+02,1.067277e+04
6.161468e+02,1.065626e+04
6.171110e+02,1.064946e+04
6.180753e+02,1.063811e+04
6.190395e+02,1.062222e+04
6.200037e+02,1.061189e+04
6.209680e+02,1.061495e+04
6.219322e+02,1.063168e+04
6.228964e+02,1.063677e+04
6.238607e+02,1.060779e+04
6.248249e+02,1.058930e+04
6.257891e+02,1.060237e+04
6.267534e+02,1.063355e+04
6.277176e+02,1.064941e+04
6.286818e+02,1.062675e+04
6.296461e+02,1.059311e+04
6.306103e+02,1.057814e+04
6.315745e+02,1.058208e+04
6.325388e+02,1.059137e+04
6.335030e+02,1.059467e+04
6.344672e+02,1.059027e+04
6.354315e+02,1.058163e+04
6.363957e+02,1.055708e+04
6.373599e+02,1.053668e+04
6.383242e+02,1.053686e+04
6.392884e+02,1.055635e+04
6.402526e+02,1.057084e+04
6.412169e+02,1.057032e+04
6.421811e+02,1.056231e+04
6.431453e+02,1.055182e+04
6.441096e+02,1.053986e+04
6.450738e+02,1.052847e+04
6.460380e+02,1.052029e+04
6.470023e+02,1.051753e+04
6.479665e+02,1.052333e+04
6.489307e+02,1.054045e+04
6.498950e+02,1.055636e+04
6.508592e+02,1.055804e+04
6.518234e+02,1.054301e+04
6.527877e+02,1.052952e+04
6.537519e+02,1.052413e+04
6.547161e+02,1.052006e+04
6.556804e+02,1.051079e+04
6.566446e+02,1.049705e+04
6.576088e+02,1.048603e+04
6.585731e+02,1.048569e+04
6.595373e+02,1.049422e+04
6.605015e+02,1.050185e+04
6.614658e+02,1.050848e+04
6.624300e+02,1.051255e+04
6.633942e+02,1.051133e+04
6.643585e+02,1.049841e+04
6.653227e+02,1.049553e+04
6.662869e+02,1.050617e+04
6.672512e+02,1.052070e+04
6.682154e+02,1.053582e+04
6.691796e+02,1.054933e+04
6.701439e+02,1.055674e+04
6.711081e+02,1.055375e+04
6.720723e+02,1.054310e+04
6.730366e+02,1.053050e+04
6.740008e+02,1.051796e+04
6.749650e+02,1.050611e+04
6.759293e+02,1.049666e+04
6.768935e+02,1.049413e+04
6.778577e+02,1.048503e+04
6.788220e+02,1.046120e+04
6.797862e+02,1.044310e+04
6.807504e+02,1.044249e+04
6.817147e+02,1.046045e+04
6.826789e+02,1.047553e+04
6.836431e+02,1.047663e+04
6.846074e+02,1.046819e+04
6.855716e+02,1.045704e+04
6.865358e+02,1.044652e+04
6.875001e+02,1.043700e+04
6.884643e+02,1.042880e+04
6.894285e+02,1.042231e+04
6.903928e+02,1.041330e+04
6.913570e+02,1.039869e+04
6.923212e+02,1.038253e+04
6.932855e+02,1.037023e+04
6.942497e+02,1.036523e+04
6.952139e+02,1.036689e+04
6.961782e+02,1.037890e+04
6.971424e+02,1.039259e+04
6.981066e+02,1.039867e+04
6.990709e+02,1.039156e+04
7.000351e+02,1.037975e+04
7.009993e+02,1.037600e+04
7.019636e+02,1.037950e+04
7.029278e+02,1.038290e+04
7.038920e+02,1.038415e+04
7.048563e+02,1.038075e+04
7.058205e+02,1.037163e+04
7.067847e+02,1.035887e+04
7.077490e+02,1.034787e+04
7.087132e+02,1.034331e+04
7.096774e+02,1.034609e+04
7.106417e+02,1.034861e+04
7.116059e+02,1.034880e+04
7.125701e+02,1.034735e+04
7.135344e+02,1.034619e+04
7.144986e+02,1.034628e+04
7.154628e+02,1.034674e+04
7.164271e+02,1.034624e+04
7.173913e+02,1.034379e+04
7.183555e+02,1.033966e+04
7.193198e+02,1.033290e+04
7.202840e+02,1.031847e+04
7.212482e+02,1.029494e+04
7.222125e+02,1.027447e+04
7.231767e+02,1.026952e+04
7.241409e+02,1.028601e+04
7.251052e+02,1.029297e+04
7.260694e+02,1.027844e+04
7.270336e+02,1.026284e+04
7.279979e+02,1.026050e+04
7.289621e+02,1.027268e+04
7.299263e+02,1.028560e+04
7.308906e+02,1.029434e+04
7.318548e+02,1.029849e+04
7.328190e+02,1.030040e+04
7.337833e+02,1.029988e+04
7.347475e+02,1.029239e+04
7.357117e+02,1.026983e+04
7.366760e+02,1.023633e+04
7.376402e+02,1.021839e+04
7.386044e+02,1.021957e+04
7.395687e+02,1.023142e+04
7.405329e+02,1.024763e+04
7.414971e+02,1.027177e+04
7.424614e+02,1.028188e+04
7.434256e+02,1.027300e+04
7.443898e+02,1.026621e+04
7.453541e+02,1.026695e+04
7.463183e+02,1.027024e+04
7.472825e+02,1.027134e+04
7.482468e+02,1.027050e+04
7.492110e+02,1.026668e+04
7.501752e+02,1.026191e+04
7.511395e+02,1.026019e+04
7.521037e+02,1.026179e+04
7.530679e+02,1.026413e+04
7.540322e+02,1.026418e+04
7.549964e+02,1.025704e+04
7.559606e+02,1.024204e+04
7.569249e+02,1.023067e+04
7.578891e+02,1.023108e+04
7.588533e+02,1.024500e+04
7.598176e+02,1.025978e+04
7.607818e+02,1.027185e+04
7.617460e+02,1.027164e+04
7.627103e+02,1.025396e+04
7.636745e+02,1.022800e+04
7.646387e+02,1.020996e+04
7.656030e+02,1.021047e+04
7.665672e+02,1.021717e+04
7.675314e+02,1.021475e+04
7.684957e+02,1.019989e+04
7.694599e+02,1.018069e+04
7.704241e+02,1.016778e+04
7.713884e+02,1.016301e+04
7.723526e+02,1.016275e+04
7.733168e+02,1.016954e+04
7.742811e+02,1.018028e+04
7.752453e+02,1.018769e+04
7.762095e+02,1.018977e+04
7.771738e+02,1.019525e+04
7.781380e+02,1.020592e+04
7.791022e+02,1.020957e+04
7.800665e+02,1.020590e+04
7.810307e+02,1.019815e+04
7.819949e+02,1.019030e+04
7.829592e+02,1.018827e+04
7.839234e+02,1.018810e+04
7.848876e+02,1.018521e+04
7.858519e+02,1.017994e+04
7.868161e+02,1.017438e+04
7.877803e+02,1.016947e+04
7.887446e+02,1.016412e+04
7.897088e+02,1.016112e+04
7.906730e+02,1.016302e+04
7.916373e+02,1.016186e+04
7.926015e+02,1.014913e+04
7.935657e+02,1.012518e+04
7.945300e+02,1.010369e+04
7.954942e+02,1.009087e+04
7.964584e+02,1.007553e+04
7.974227e+02,1.006164e+04
7.983869e+02,1.005695e+04
7.993511e+02,1.005910e+04
8.003154e+02,1.006510e+04
8.012796e+02,1.006451e+04
8.022438e+02,1.005514e+04
8.032081e+02,1.004696e+04
8.041723e+02,1.004972e+04
8.051365e+02,1.006446e+04
8.061008e+02,1.007662e+04
8.070650e+02,1.007191e+04
8.080292e+02,1.005482e+04
8.089935e+02,1.003667e+04
8.099577e+02,1.002205e+04
8.109219e+02,1.001091e+04
8.118862e+02,1.000073e+04
8.128504e+02,9.991612e+03
8.138146e+02,9.989612e+03
8.147789e+02,9.996683e+03
8.157431e+02,9.999874e+03
8.167073e+02,9.988760e+03
8.176716e+02,9.963688e+03
8.186358e+02,9.953750e+03
8.196000e+02,9.972597e+03
8.205643e+02,9.992614e+03
8.215285e+02,9.996111e+03
8.224927e+02,9.984549e+03
8.234570e+02,9.976718e+03
8.244212e+02,9.981073e+03
8.253854e+02,9.987958e+03
8.263497e+02,9.991527e+03
8.273139e+02,9.988407e+03
8.282781e+02,9.978027e+03
8.292424e+02,9.959374e+03
8.302066e+02,9.942337e+03
8.311708e+02,9.940783e+03
8.321351e+02,9.951563e+03
8.330993e+02,9.957553e+03
8.340635e+02,9.945839e+03
8.350278e+02,9.924167e+03
8.359920e+02,9.921562e+03
8.369562e+02,9.942612e+03
8.379205e+02,9.960497e+03
8.388847e+02,9.966326e+03
8.398489e+02,9.964061e+03
8.408132e+02,9.962295e+03
8.417774e+02,9.965122e+03
8.427416e+02,9.959042e+03
8.437059e+02,9.933563e+03
8.446701e+02,9.903813e+03
8.456343e+02,9.886997e+03
8.465986e+02,9.890158e+03
8.475628e+02,9.894176e+03
8.485270e+02,9.895687e+03
8.494913e+02,9.893036e+03
8.504555e+02,9.883759e+03
8.514197e+02,9.868210e+03
8.523840e+02,9.856197e+03
8.533482e+02,9.856161e+03
8.543124e+02,9.861874e+03
8.552767e+02,9.863858e+03
8.562409e+02,9.859995e+03
8.572051e+02,9.852296e+03
8.581694e+02,9.845799e+03
8.591336e+02,9.841381e+03
8.600978e+02,9.830813e+03
8.610621e+02,9.813159e+03
8.620263e+02,9.801170e+03
8.629905e+02,9.803291e+03
8.639548e+02,9.817130e+03
8.649190e+02,9.820364e+03
8.658832e+02,9.811176e+03
8.668475e+02,9.803284e+03
8.678117e+02,9.801983e+03
8.687759e+02,9.805494e+03
8.697402e+02,9.811511e+03
8.707044e+02,9.824442e+03
8.716686e+02,9.824483e+03
8.726329e+02,9.801004e+03
8.735971e+02,9.767939e+03
8.745613e+02,9.746925e+03
8.755256e+02,9.760438e+03
8.764898e+02,9.777704e+03
8.774540e+02,9.773557e+03
8.784183e+02,9.756015e+03
8.793825e+02,9.739228e+03
8.803467e+02,9.727626e+03
8.813110e+02,9.721259e+03
8.822752e+02,9.724772e+03
8.832394e+02,9.737248e+03
8.842037e+02,9.748122e+03
8.851679e+02,9.752249e+03
8.861321e+02,9.751431e+03
8.870964e+02,9.750387e+03
8.880606e+02,9.748521e+03
8.890248e+02,9.742811e+03
8.899891e+02,9.735798e+03
8.909533e+02,9.730979e+03
8.919175e+02,9.730333e+03
8.928818e+02,9.736165e+03
8.938460e+02,9.734376e+03
8.948102e+02,9.714738e+03
8.957745e+02,9.693573e+03
8.967387e+02,9.680271e+03
8.977029e+02,9.672428e+03
8.986672e+02,9.668115e+03
8.996314e+02,9.681963e+03
9.005956e+02,9.695189e+03
9.015599e+02,9.697388e+03
9.025241e+02,9.689549e+03
9.034883e+02,9.679081e+03
9.044526e+02,9.667456e+03
9.054168e+02,9.650374e+03
9.063810e+02,9.629063e+03
9.073453e+02,9.610649e+03
9.083095e+02,9.598533e+03
9.092737e+02,9.590137e+03
9.102380e+02,9.585496e+03
9.112022e+02,9.589415e+03
9.121664e+02,9.597690e+03
9.131307e+02,9.602624e+03
9.140949e+02,9.605342e+03
9.150591e+02,9.608649e+03
9.160234e+02,9.608138e+03
9.169876e+02,9.599391e+03
9.179518e+02,9.587866e+03
9.189161e+02,9.574460e+03
9.198803e+02,9.560365e+03
9.208445e+02,9.550136e+03
9.218088e+02,9.547455e+03
9.227730e+02,9.544729e+03
9.237372e+02,9.538384e+03
9.247015e+02,9.532854e+03
9.256657e+02,9.531740e+03
9.266299e+02,9.534521e+03
9.275942e+02,9.537344e+03
9.285584e+02,9.541144e+03
9.295226e+02,9.539561e+03
9.304869e+02,9.528743e+03
9.314511e+02,9.513107e+03
9.324153e+02,9.502105e+03
9.333796e+02,9.494283e+03
9.343438e+02,9.492952e+03
9.353080e+02,9.506251e+03
9.362723e+02,9.519435e+03
9.372365e+02,9.514912e+03
9.382007e+02,9.480899e+03
9.391650e+02,9.455156e+03
9.401292e+02,9.460999e+03
9.410934e+02,9.479991e+03
9.420577e+02,9.488839e+03
9.430219e+02,9.480466e+03
9.439861e+02,9.467020e+03
9.449504e+02,9.458732e+03
9.459146e+02,9.458265e+03
9.468788e+02,9.465313e+03
9.478431e+02,9.473536e+03
9.488073e+02,9.473541e+03
9.497715e+02,9.460138e+03
9.507358e+02,9.439382e+03
9.517000e+02,9.422207e+03
9.526642e+02,9.411454e+03
9.536285e+02,9.402611e+03
9.545927e+02,9.390319e+03
9.555569e+02,9.376311e+03
9.565212e+02,9.368100e+03
9.574854e+02,9.369033e+03
9.584496e+02,9.372535e+03
9.594139e+02,9.371861e+03
9.603781e+02,9.366756e+03
9.613423e+02,9.364366e+03
9.623066e+02,9.366817e+03
9.632708e+02,9.363825e+03
9.642350e+02,9.353298e+03
9.651993e+02,9.342171e+03
9.661635e+02,9.337244e+03
9.671277e+02,9.340141e+03
9.680920e+02,9.337063e+03
9.690562e+02,9.325031e+03
9.700204e+02,9.308537e+03
9.709847e+02,9.292761e+03
9.719489e+02,9.279671e+03
9.729131e+02,9.272294e+03
9.738774e+02,9.275347e+03
9.748416e+02,9.283834e+03
9.758058e+02,9.294556e+03
9.767701e+02,9.303989e+03
9.777343e+02,9.308541e+03
9.786985e+02,9.303265e+03
9.796628e+02,9.295507e+03
9.806270e+02,9.289907e+03
9.815912e+02,9.284338e+03
9.825555e+02,9.275916e+03
9.835197e+02,9.270144e+03
9.844839e+02,9.260663e+03
9.854482e+02,9.237145e+03
9.864124e+02,9.213963e+03
9.873766e+02,9.208659e+03
9.883409e+02,9.229228e+03
9.893051e+02,9.245049e+03
9.902693e+02,9.226309e+03
9.912336e+02,9.200346e+03
9.921978e+02,9.196097e+03
9.931620e+02,9.212173e+03
9.941263e+02,9.227484e+03
9.950905e+02,9.228902e+03
9.960547e+02,9.222705e+03
9.970190e+02,9.216343e+03
9.979832e+02,9.208262e+03
9.989474e+02,9.194375e+03
9.999117e+02,9.172980e+03
1.000876e+03,9.151212e+03
1.001840e+03,9.138016e+03
1.002804e+03,9.134319e+03
1.003769e+03,9.136566e+03
1.004733e+03,9.141328e+03
1.005697e+03,9.146402e+03
1.006661e+03,9.150358e+03
1.007626e+03,9.154066e+03
1.008590e+03,9.159485e+03
1.009554e+03,9.165119e+03
1.010518e+03,9.165190e+03
1.011482e+03,9.151737e+03
1.012447e+03,9.127233e+03
1.013411e+03,9.116629e+03
1.014375e+03,9.126447e+03
1.015339e+03,9.135835e+03
1.016304e+03,9.125101e+03
1.017268e+03,9.098298e+03
1.018232e+03,9.085173e+03
1.019196e+03,9.085936e+03
1.020161e+03,9.089669e+03
1.021125e+03,9.095388e+03
1.022089e+03,9.102917e+03
1.023053e+03,9.103513e+03
1.024018e+03,9.091597e+03
1.024982e+03,9.083717e+03
1.025946e+03,9.082949e+03
1.026910e+03,9.080813e+03
1.027875e+03,9.071006e+03
1.028839e+03,9.055552e+03
1.029803e+03,9.043619e+03
1.030767e+03,9.035851e+03
1.031731e+03,9.031771e+03
1.032696e+03,9.030301e+03
1.033660e+03,9.030824e+03
1.034624e+03,9.026128e+03
1.035588e+03,9.013348e+03
1.036552e+03,9.007093e+03
1.037517e+03,9.013412e+03
1.038481e+03,9.026146e+03
1.039445e+03,9.031953e+03
1.040409e+03,9.031033e+03
1.041374e+03,9.023269e+03
1.042338e+03,9.005359e+03
1.043302e+03,8.986590e+03
1.044266e+03,8.977298e+03
1.045231e+03,8.986438e+03
1.046195e+03,8.986283e+03
1.047159e+03,8.972779e+03
1.048123e+03,8.957122e+03
1.049088e+03,8.944762e+03
1.050052e+03,8.937782e+03
1.051016e+03,8.940854e+03
1.051980e+03,8.963572e+03
1.052945e+03,8.984278e+03
1.053909e+03,8.989785e+03
1.054873e+03,8.979826e+03
1.055837e+03,8.969558e+03
1.056802e+03,8.967099e+03
1.057766e+03,8.961818e+03
1.058730e+03,8.951812e+03
1.059694e+03,8.940020e+03
1.060658e+03,8.928506e+03
1.061623e+03,8.920662e+03
1.062587e+03,8.911785e+03
1.063551e+03,8.896577e+03
1.064515e+03,8.884808e+03
1.065479e+03,8.883266e+03
1.066444e+03,8.894879e+03
1.067408e+03,8.904806e+03
1.068372e+03,8.904092e+03
1.069336e+03,8.907869e+03
1.070301e+03,8.923944e+03
1.071265e+03,8.945050e+03
1.072229e+03,8.955685e+03
1.073193e+03,8.945269e+03
1.074158e+03,8.933291e+03
1.075122e+03,8.927441e+03
1.076086e+03,8.922026e+03
1.077050e+03,8.910809e+03
1.078015e+03,8.892404e+03
1.078979e+03,8.883838e+03
1.079943e+03,8.892653e+03
1.080907e+03,8.906301e+03
1.081872e+03,8.915745e+03
1.082836e+03,8.917678e+03
1.083800e+03,8.910185e+03
1.084764e+03,8.884136e+03
1.085729e+03,8.862201e+03
1.086693e+03,8.857478e+03
1.087657e+03,8.862765e+03
1.088621e+03,8.861088e+03
1.089585e+03,8.843533e+03
1.090550e+03,8.821198e+03
1.091514e+03,8.795802e+03
1.092478e+03,8.774683e+03
1.093442e+03,8.765259e+03
1.094406e+03,8.774365e+03
1.095371e+03,8.780218e+03
1.096335e+03,8.771573e+03
1.097299e+03,8.760679e+03
1.098263e+03,8.755261e+03
1.099228e+03,8.754622e+03
1.100192e+03,8.754356e+03
1.101156e+03,8.755252e+03
1.102120e+03,8.753046e+03
1.103085e+03,8.746175e+03
1.104049e+03,8.736150e+03
1.105013e+03,8.725888e+03
1.105977e+03,8.717351e+03
1.106942e+03,8.708162e+03
1.107906e+03,8.696923e+03
1.108870e+03,8.686473e+03
1.109834e+03,8.680054e+03
1.110799e+03,8.680226e+03
1.111763e+03,8.675573e+03
1.112727e+03,8.657012e+03
1.113691e+03,8.643460e+03
1.114656e+03,8.644819e+03
1.115620e+03,8.659299e+03
1.116584e+03,8.672975e+03
1.117548e+03,8.684118e+03
1.118512e+03,8.688122e+03
1.119477e+03,8.682478e+03
1.120441e+03,8.670467e+03
1.121405e+03,8.658229e+03
1.122369e+03,8.649874e+03
1.123334e+03,8.635816e+03
1.124298e+03,8.609796e+03
1.125262e+03,8.586488e+03
1.126226e+03,8.577213e+03
1.127191e+03,8.584087e+03
1.128155e+03,8.591885e+03
1.129119e+03,8.599382e+03
1.130083e+03,8.605183e+03
1.131047e+03,8.607093e+03
1.132012e+03,8.604660e+03
1.132976e+03,8.603433e+03
1.133940e+03,8.608461e+03
1.134904e+03,8.602648e+03
1.135869e+03,8.578937e+03
1.136833e+03,8.553739e+03
1.137797e+03,8.546558e+03
1.138761e+03,8.567207e+03
1.139726e+03,8.578619e+03
1.140690e+03,8.575483e+03
1.141654e+03,8.570327e+03
1.142618e+03,8.569579e+03
1.143583e+03,8.573174e+03
1.144547e+03,8.577507e+03
1.145511e+03,8.584659e+03
1.146475e+03,8.582081e+03
1.147439e+03,8.562345e+03
1.148404e+03,8.537472e+03
1.149368e+03,8.527157e+03
1.150332e+03,8.532036e+03
1.151296e+03,8.534372e+03
1.152261e+03,8.528656e+03
1.153225e+03,8.514747e+03
1.154189e+03,8.497591e+03
1.155153e+03,8.480956e+03
1.156118e+03,8.468401e+03
1.157082e+03,8.462821e+03
1.158046e+03,8.456990e+03
1.159010e+03,8.442813e+03
1.159974e+03,8.427122e+03
1.160939e+03,8.426854e+03
1.161903e+03,8.437958e+03
1.162867e+03,8.445571e+03
1.163831e+03,8.446171e+03
1.164796e+03,8.442440e+03
1.165760e+03,8.439927e+03
1.166724e+03,8.438494e+03
1.167688e+03,8.435179e+03
1.168653e+03,8.429673e+03
1.169617e+03,8.419464e+03
1.170581e+03,8.400228e+03
1.171545e+03,8.381458e+03
1.172510e+03,8.376022e+03
1.173474e+03,8.382062e+03
1.174438e+03,8.396053e+03
1.175402e+03,8.417164e+03
1.176366e+03,8.431770e+03
1.177331e+03,8.422992e+03
1.178295e+03,8.405341e+03
1.179259e+03,8.393402e+03
1.180223e+03,8.387270e+03
1.181188e+03,8.384885e+03
1.182152e+03,8.389986e+03
1.183116e+03,8.394683e+03
1.184080e+03,8.399572e+03
1.185045e+03,8.401974e+03
1.186009e+03,8.393327e+03
1.186973e+03,8.364345e+03
1.187937e+03,8.345207e+03
1.188901e+03,8.354454e+03
1.189866e+03,8.371400e+03
1.190830e+03,8.377616e+03
1.191794e+03,8.369278e+03
1.192758e+03,8.359248e+03
1.193723e+03,8.349478e+03
1.194687e+03,8.345938e+03
1.195651e+03,8.355526e+03
1.196615e+03,8.370578e+03
1.197580e+03,8.372307e+03
1.198544e+03,8.345987e+03
1.199508e+03,8.316338e+03
1.200472e+03,8.283650e+03
1.201437e+03,8.257801e+03
1.202401e+03,8.250341e+03
1.203365e+03,8.266721e+03
1.204329e+03,8.274478e+03
1.205293e+03,8.268598e+03
1.206258e+03,8.263245e+03
1.207222e+03,8.262661e+03
1.208186e+03,8.265956e+03
1.209150e+03,8.275764e+03
1.210115e+03,8.291355e+03
1.211079e+03,8.293365e+03
1.212043e+03,8.277306e+03
1.213007e+03,8.255624e+03
1.213972e+03,8.246198e+03
1.214936e+03,8.248646e+03
1.215900e+03,8.245612e+03
1.216864e+03,8.237513e+03
1.217828e+03,8.232594e+03
1.218793e+03,8.236326e+03
1.219757e+03,8.245470e+03
1.220721e+03,8.256898e+03
1.221685e+03,8.269481e+03
1.222650e+03,8.276812e+03
1.223614e+03,8.274550e+03
1.224578e+03,8.265106e+03
1.225542e+03,8.249162e+03
1.226507e+03,8.233698e+03
1.227471e+03,8.227503e+03
1.228435e+03,8.226366e+03
1.229399e+03,8.218660e+03
1.230364e+03,8.195176e+03
1.231328e+03,8.171978e+03
1.232292e+03,8.162651e+03
1.233256e+03,8.162533e+03
1.234220e+03,8.161146e+03
1.235185e+03,8.158271e+03
1.236149e+03,8.155105e+03
1.237113e+03,8.150536e+03
1.238077e+03,8.149080e+03
1.239042e+03,8.148900e+03
1.240006e+03,8.146437e+03
1.240970e+03,8.141831e+03
1.241934e+03,8.133764e+03
1.242899e+03,8.125336e+03
1.243863e+03,8.119877e+03
1.244827e+03,8.115587e+03
1.245791e+03,8.109203e+03
1.246755e+03,8.100896e+03
1.247720e+03,8.088227e+03
1.248684e+03,8.070464e+03
1.249648e+03,8.056968e+03
1.250612e+03,8.053226e+03
1.251577e+03,8.055764e+03
1.252541e+03,8.058373e+03
1.253505e+03,8.059828e+03
1.254469e+03,8.057360e+03
1.255434e+03,8.051609e+03
1.256398e+03,8.044069e+03
1.257362e+03,8.031586e+03
1.258326e+03,8.015952e+03
1.259291e+03,8.002682e+03
1.260255e+03,7.991261e+03
1.261219e+03,7.981092e+03
1.262183e+03,7.981592e+03
1.263147e+03,7.982751e+03
1.264112e+03,7.971736e+03
1.265076e+03,7.956666e+03
1.266040e+03,7.948834e+03
1.267004e+03,7.953783e+03
1.267969e+03,7.957828e+03
1.268933e+03,7.958284e+03
1.269897e+03,7.962072e+03
1.270861e+03,7.968140e+03
1.271826e+03,7.970572e+03
1.272790e+03,7.970544e+03
1.273754e+03,7.973458e+03
1.274718e+03,7.969794e+03
1.275682e+03,7.959497e+03
1.276647e+03,7.947155e+03
1.277611e+03,7.935375e+03
1.278575e+03,7.922765e+03
1.279539e+03,7.912655e+03
1.280504e+03,7.909132e+03
1.281468e+03,7.911739e+03
1.282432e+03,7.919998e+03
1.283396e+03,7.929701e+03
1.284361e+03,7.929563e+03
1.285325e+03,7.919728e+03
1.286289e+03,7.907500e+03
1.287253e+03,7.894125e+03
1.288218e+03,7.880302e+03
1.289182e+03,7.866157e+03
1.290146e+03,7.854916e+03
1.291110e+03,7.853175e+03
1.292074e+03,7.859630e+03
1.293039e+03,7.865330e+03
1.294003e+03,7.868646e+03
1.294967e+03,7.864319e+03
1.295931e+03,7.845395e+03
1.296896e+03,7.825055e+03
1.297860e+03,7.816578e+03
1.298824e+03,7.823258e+03
1.299788e+03,7.826930e+03
1.300753e+03,7.817692e+03
1.301717e+03,7.816768e+03
1.302681e+03,7.837996e+03
1.303645e+03,7.871059e+03
1.304609e+03,7.885483e+03
1.305574e+03,7.875373e+03
1.306538e+03,7.865143e+03
1.307502e+03,7.862294e+03
1.308466e+03,7.860928e+03
1.309431e+03,7.850374e+03
1.310395e+03,7.834841e+03
1.311359e+03,7.829270e+03
1.312323e+03,7.828532e+03
1.313288e+03,7.822900e+03
1.314252e+03,7.811096e+03
1.315216e+03,7.800222e+03
1.316180e+03,7.792173e+03
1.317145e+03,7.788368e+03
1.318109e+03,7.789724e+03
1.319073e+03,7.793116e+03
1.320037e+03,7.792827e+03
1.321001e+03,7.786248e+03
1.321966e+03,7.777163e+03
1.322930e+03,7.772085e+03
1.323894e+03,7.768777e+03
1.324858e+03,7.758117e+03
1.325823e+03,7.731407e+03
1.326787e+03,7.716453e+03
1.327751e+03,7.712959e+03
1.328715e+03,7.716951e+03
1.329680e+03,7.730428e+03
1.330644e+03,7.749520e+03
1.331608e+03,7.751443e+03
1.332572e+03,7.737414e+03
1.333536e+03,7.734291e+03
1.334501e+03,7.749670e+03
1.335465e+03,7.763627e+03
1.336429e+03,7.755638e+03
1.337393e+03,7.737080e+03
1.338358e+03,7.721213e+03
1.339322e+03,7.709002e+03
1.340286e+03,7.698803e+03
1.341250e+03,7.691650e+03
1.342215e+03,7.683693e+03
1.343179e+03,7.679464e+03
1.344143e+03,7.677526e+03
1.345107e+03,7.669292e+03
1.346072e+03,7.647396e+03
1.347036e+03,7.638827e+03
1.348000e+03,7.649480e+03
1.348964e+03,7.658019e+03
1.349928e+03,7.659244e+03
1.350893e+03,7.656158e+03
1.351857e+03,7.649079e+03
1.352821e+03,7.636519e+03
1.353785e+03,7.622308e+03
1.354750e+03,7.605897e+03
1.355714e+03,7.594567e+03
1.356678e+03,7.604766e+03
1.357642e+03,7.624200e+03
1.358607e+03,7.632701e+03
1.359571e+03,7.630345e+03
1.360535e+03,7.618239e+03
1.361499e+03,7.594118e+03
1.362464e+03,7.574173e+03
1.363428e+03,7.568565e+03
1.364392e+03,7.569955e+03
1.365356e+03,7.571202e+03
1.366320e+03,7.568336e+03
1.367285e+03,7.560979e+03
1.368249e+03,7.550391e+03
1.369213e+03,7.540763e+03
1.370177e+03,7.533490e+03
1.371142e+03,7.526170e+03
1.372106e+03,7.515477e+03
1.373070e+03,7.502200e+03
1.374034e+03,7.492353e+03
1.374999e+03,7.487584e+03
1.375963e+03,7.486074e+03
1.376927e+03,7.487367e+03
1.377891e+03,7.488617e+03
1.378855e+03,7.486835e+03
1.379820e+03,7.481223e+03
1.380784e+03,7.469172e+03
1.381748e+03,7.452689e+03
1.382712e+03,7.443613e+03
1.383677e+03,7.445003e+03
1.384641e+03,7.447335e+03
1.385605e+03,7.448608e+03
1.386569e+03,7.447041e+03
1.387534e+03,7.440411e+03
1.388498e+03,7.428008e+03
1.389462e+03,7.418589e+03
1.390426e+03,7.410275e+03
1.391391e+03,7.406072e+03
1.392355e+03,7.413956e+03
1.393319e+03,7.424932e+03
1.394283e+03,7.411096e+03
1.395247e+03,7.383736e+03
1.396212e+03,7.373734e+03
1.397176e+03,7.389078e+03
1.398140e+03,7.404668e+03
1.399104e+03,7.403977e+03
1.400069e+03,7.397148e+03
1.401033e+03,7.390143e+03
1.401997e+03,7.382632e+03
1.402961e+03,7.372330e+03
1.403926e+03,7.353295e+03
1.404890e+03,7.344912e+03
1.405854e+03,7.353781e+03
1.406818e+03,7.363443e+03
1.407782e+03,7.361864e+03
1.408747e+03,7.353560e+03
1.409711e+03,7.344809e+03
1.410675e+03,7.333084e+03
1.411639e+03,7.326467e+03
1.412604e+03,7.329360e+03
1.413568e+03,7.330651e+03
1.414532e+03,7.319102e+03
1.415496e+03,7.308158e+03
1.416461e+03,7.308867e+03
1.417425e+03,7.316165e+03
1.418389e+03,7.316959e+03
1.419353e+03,7.300874e+03
1.420318e+03,7.292498e+03
1.421282e+03,7.302491e+03
1.422246e+03,7.312046e+03
1.423210e+03,7.301264e+03
1.424174e+03,7.275975e+03
1.425139e+03,7.272165e+03
1.426103e+03,7.285231e+03
1.427067e+03,7.293598e+03
1.428031e+03,7.290648e+03
1.428996e+03,7.282073e+03
1.429960e+03,7.262896e+03
1.430924e+03,7.245762e+03
1.431888e+03,7.251733e+03
1.432853e+03,7.275039e+03
1.433817e+03,7.282031e+03
1.434781e+03,7.246864e+03
1.435745e+03,7.224572e+03
1.436709e+03,7.222304e+03
1.437674e+03,7.226238e+03
1.438638e+03,7.228340e+03
1.439602e+03,7.230537e+03
1.440566e+03,7.229099e+03
1.441531e+03,7.223959e+03
1.442495e+03,7.222834e+03
1.443459e+03,7.227711e+03
1.444423e+03,7.235231e+03
1.445388e+03,7.246433e+03
1.446352e+03,7.252876e+03
1.447316e+03,7.243990e+03
1.448280e+03,7.225404e+03
1.449245e+03,7.215708e+03
1.450209e+03,7.226436e+03
1.451173e+03,7.235425e+03
1.452137e+03,7.237393e+03
1.453101e+03,7.232369e+03
1.454066e+03,7.220516e+03
1.455030e+03,7.203896e+03
1.455994e+03,7.197160e+03
1.456958e+03,7.199019e+03
1.457923e+03,7.202555e+03
1.458887e+03,7.204148e+03
1.459851e+03,7.201412e+03
1.460815e+03,7.190792e+03
1.461780e+03,7.174094e+03
1.462744e+03,7.154078e+03
1.463708e+03,7.133825e+03
1.464672e+03,7.120977e+03
1.465636e+03,7.123510e+03
1.466601e+03,7.124990e+03
1.467565e+03,7.123868e+03
1.468529e+03,7.119795e+03
1.469493e+03,7.107899e+03
1.470458e+03,7.089886e+03
1.471422e+03,7.080799e+03
1.472386e+03,7.080125e+03
1.473350e+03,7.080955e+03
1.474315e+03,7.079037e+03
1.475279e+03,7.078191e+03
1.476243e+03,7.081683e+03
1.477207e+03,7.084131e+03
1.478172e+03,7.085839e+03
1.479136e+03,7.086388e+03
1.480100e+03,7.081270e+03
1.481064e+03,7.070179e+03
1.482028e+03,7.057360e+03
1.482993e+03,7.043979e+03
1.483957e+03,7.031879e+03
1.484921e+03,7.017517e+03
1.485885e+03,7.005810e+03
1.486850e+03,7.008896e+03
1.487814e+03,7.019359e+03
1.488778e+03,7.025294e+03
1.489742e+03,7.023452e+03
1.490707e+03,7.019556e+03
1.491671e+03,7.020846e+03
1.492635e+03,7.022237e+03
1.493599e+03,7.018115e+03
1.494563e+03,7.008792e+03
1.495528e+03,6.998793e+03
1.496492e+03,6.987124e+03
1.497456e+03,6.977875e+03
1.498420e+03,6.973781e+03
1.499385e+03,6.973155e+03
1.500349e+03,6.974823e+03
1.501313e+03,6.979512e+03
1.502277e+03,6.990450e+03
1.503242e+03,7.001433e+03
1.504206e+03,7.002155e+03
1.505170e+03,6.984367e+03
1.506134e+03,6.977943e+03
1.507099e+03,6.989149e+03
1.508063e+03,6.996167e+03
1.509027e+03,6.989413e+03
1.509991e+03,6.977350e+03
1.510955e+03,6.977686e+03
1.511920e+03,6.983229e+03
1.512884e+03,6.974644e+03
1.513848e+03,6.956192e+03
1.514812e+03,6.948802e+03
1.515777e+03,6.964993e+03
1.516741e+03,6.980669e+03
1.517705e+03,6.988786e+03
1.518669e+03,6.990669e+03
1.519634e+03,6.988180e+03
1.520598e+03,6.980339e+03
1.521562e+03,6.972297e+03
1.522526e+03,6.961966e+03
1.523490e+03,6.944616e+03
1.524455e+03,6.917654e+03
1.525419e+03,6.895582e+03
1.526383e+03,6.904383e+03
1.527347e+03,6.914766e+03
1.528312e+03,6.898006e+03
1.529276e+03,6.863432e+03
1.530240e+03,6.844292e+03
1.531204e+03,6.843036e+03
1.532169e+03,6.847568e+03
1.533133e+03,6.859111e+03
1.534097e+03,6.867349e+03
1.535061e+03,6.862877e+03
1.536026e+03,6.849622e+03
1.536990e+03,6.831876e+03
1.537954e+03,6.815353e+03
1.538918e+03,6.812097e+03
1.539882e+03,6.826331e+03
1.540847e+03,6.835835e+03
1.541811e+03,6.831189e+03
1.542775e+03,6.820015e+03
1.543739e+03,6.803311e+03
1.544704e+03,6.788948e+03
1.545668e+03,6.791690e+03
1.546632e+03,6.808017e+03
1.547596e+03,6.818753e+03
1.548561e+03,6.822992e+03
1.549525e+03,6.824605e+03
1.550489e+03,6.820628e+03
1.551453e+03,6.816923e+03
1.552417e+03,6.814883e+03
1.553382e+03,6.815211e+03
1.554346e+03,6.821426e+03
1.555310e+03,6.833497e+03
1.556274e+03,6.839746e+03
1.557239e+03,6.839666e+03
1.558203e+03,6.838282e+03
1.559167e+03,6.836446e+03
1.560131e+03,6.840867e+03
1.561096e+03,6.857715e+03
1.562060e+03,6.884815e+03
1.563024e+03,6.926034e+03
1.563988e+03,6.974188e+03
1.564953e+03,7.012954e+03
1.565917e+03,7.039564e+03
1.566881e+03,7.063514e+03
1.567845e+03,7.083614e+03
1.568809e+03,7.097833e+03
1.569774e+03,7.107597e+03
1.570738e+03,7.108480e+03
1.571702e+03,7.091439e+03
1.572666e+03,7.062872e+03
1.573631e+03,7.028222e+03
1.574595e+03,6.990937e+03
1.575559e+03,6.963164e+03
1.576523e+03,6.947612e+03
1.577488e+03,6.939618e+03
1.578452e+03,6.936584e+03
1.579416e+03,6.931451e+03
1.580380e+03,6.919060e+03
1.581344e+03,6.901264e+03
1.582309e+03,6.881678e+03
1.583273e+03,6.860771e+03
1.584237e+03,6.836713e+03
1.585201e+03,6.807382e+03
1.586166e+03,6.779951e+03
1.587130e+03,6.752798e+03
1.588094e+03,6.727378e+03
1.589058e+03,6.706599e+03
1.590023e+03,6.689313e+03
1.590987e+03,6.669207e+03
1.591951e+03,6.651438e+03
1.592915e+03,6.643940e+03
1.593880e+03,6.643442e+03
1.594844e+03,6.641843e+03
1.595808e+03,6.635817e+03
1.596772e+03,6.630947e+03
1.597736e+03,6.633627e+03
1.598701e+03,6.634297e+03
1.599665e+03,6.619023e+03
1.600629e+03,6.594573e+03
1.601593e+03,6.592496e+03
1.602558e+03,6.605793e+03
1.603522e+03,6.613516e+03
1.604486e+03,6.609162e+03
1.605450e+03,6.598772e+03
1.606415e+03,6.581708e+03
1.607379e+03,6.568374e+03
1.608343e+03,6.562991e+03
1.609307e+03,6.560006e+03
1.610271e+03,6.546760e+03
1.611236e+03,6.527010e+03
1.612200e+03,6.525960e+03
1.613164e+03,6.543063e+03
1.614128e+03,6.557062e+03
1.615093e+03,6.551690e+03
1.616057e+03,6.545479e+03
1.617021e+03,6.543456e+03
1.617985e+03,6.539507e+03
1.618950e+03,6.531366e+03
1.619914e+03,6.520591e+03
1.620878e+03,6.510622e+03
1.621842e+03,6.503130e+03
1.622807e+03,6.501616e+03
1.623771e+03,6.508026e+03
1.624735e+03,6.519116e+03
1.625699e+03,6.538037e+03
1.626663e+03,6.549159e+03
1.627628e+03,6.543996e+03
1.628592e+03,6.527914e+03
1.629556e+03,6.511053e+03
1.630520e+03,6.496594e+03
1.631485e+03,6.485060e+03
1.632449e+03,6.474956e+03
1.633413e+03,6.462518e+03
1.634377e+03,6.445103e+03
1.635342e+03,6.430503e+03
1.636306e+03,6.426638e+03
1.637270e+03,6.421274e+03
1.638234e+03,6.407063e+03
1.639198e+03,6.389744e+03
1.640163e+03,6.380070e+03
1.641127e+03,6.377470e+03
1.642091e+03,6.374033e+03
1.643055e+03,6.367438e+03
1.644020e+03,6.364583e+03
1.644984e+03,6.372688e+03
1.645948e+03,6.375123e+03
1.646912e+03,6.368796e+03
1.647877e+03,6.360035e+03
1.648841e+03,6.355302e+03
1.649805e+03,6.352861e+03
1.650769e+03,6.342690e+03
1.651734e+03,6.328306e+03
1.652698e+03,6.320664e+03
1.653662e+03,6.321109e+03
1.654626e+03,6.322620e+03
1.655590e+03,6.325956e+03
1.656555e+03,6.326846e+03
1.657519e+03,6.327339e+03
1.658483e+03,6.326524e+03
1.659447e+03,6.315991e+03
1.660412e+03,6.298849e+03
1.661376e+03,6.285614e+03
1.662340e+03,6.278385e+03
1.663304e+03,6.276150e+03
1.664269e+03,6.276401e+03
1.665233e+03,6.279675e+03
1.666197e+03,6.286455e+03
1.667161e+03,6.287090e+03
1.668125e+03,6.275251e+03
1.669090e+03,6.261247e+03
1.670054e+03,6.262776e+03
1.671018e+03,6.271512e+03
1.671982e+03,6.280357e+03
1.672947e+03,6.287750e+03
1.673911e+03,6.285099e+03
1.674875e+03,6.265375e+03
1.675839e+03,6.250229e+03
1.676804e+03,6.246398e+03
1.677768e+03,6.244952e+03
1.678732e+03,6.231630e+03
1.679696e+03,6.217683e+03
1.680661e+03,6.214702e+03
1.681625e+03,6.214628e+03
1.682589e+03,6.210266e+03
1.683553e+03,6.203569e+03
1.684517e+03,6.200828e+03
1.685482e+03,6.201062e+03
1.686446e+03,6.202558e+03
1.687410e+03,6.205461e+03
1.688374e+03,6.204549e+03
1.689339e+03,6.187285e+03
1.690303e+03,6.173681e+03
1.691267e+03,6.180318e+03
1.692231e+03,6.195596e+03
1.693196e+03,6.197546e+03
1.694160e+03,6.186106e+03
1.695124e+03,6.173456e+03
1.696088e+03,6.161667e+03
1.697052e+03,6.152155e+03
1.698017e+03,6.136590e+03
1.698981e+03,6.130896e+03
1.699945e+03,6.146130e+03
1.700909e+03,6.154664e+03
1.701874e+03,6.145359e+03
1.702838e+03,6.129148e+03
1.703802e+03,6.120695e+03
1.704766e+03,6.114716e+03
1.705731e+03,6.107612e+03
1.706695e+03,6.100263e+03
1.707659e+03,6.094998e+03
1.708623e+03,6.097214e+03
1.709588e+03,6.093685e+03
1.710552e+03,6.077594e+03
1.711516e+03,6.063650e+03
1.712480e+03,6.072018e+03
1.713444e+03,6.084949e+03
1.714409e+03,6.086430e+03
1.715373e+03,6.081115e+03
1.716337e+03,6.071320e+03
1.717301e+03,6.059026e+03
1.718266e+03,6.059853e+03
1.719230e+03,6.071811e+03
1.720194e+03,6.072130e+03
1.721158e+03,6.052392e+03
1.722123e+03,6.031731e+03
1.723087e+03,6.024173e+03
1.724051e+03,6.019662e+03
1.725015e+03,6.014008e+03
1.725979e+03,6.009975e+03
1.726944e+03,6.009916e+03
1.727908e+03,6.012547e+03
1.728872e+03,6.013011e+03
1.729836e+03,6.009295e+03
1.730801e+03,6.002163e+03
1.731765e+03,5.988979e+03
1.732729e+03,5.983593e+03
1.733693e+03,5.991031e+03
1.734658e+03,5.995318e+03
1.735622e+03,5.987354e+03
1.736586e+03,5.975499e+03
1.737550e+03,5.972644e+03
1.738515e+03,5.973208e+03
1.739479e+03,5.972441e+03
1.740443e+03,5.968843e+03
1.741407e+03,5.958626e+03
1.742371e+03,5.940128e+03
1.743336e+03,5.935853e+03
1.744300e+03,5.946617e+03
1.745264e+03,5.950500e+03
1.746228e+03,5.928698e+03
1.747193e+03,5.908421e+03
1.748157e+03,5.905567e+03
1.749121e+03,5.913297e+03
1.750085e+03,5.923081e+03
1.751050e+03,5.928489e+03
1.752014e+03,5.922674e+03
1.752978e+03,5.912261e+03
1.753942e+03,5.911106e+03
1.754906e+03,5.920583e+03
1.755871e+03,5.925740e+03
1.756835e+03,5.921179e+03
1.757799e+03,5.908063e+03
1.758763e+03,5.891541e+03
1.759728e+03,5.876875e+03
1.760692e+03,5.865470e+03
1.761656e+03,5.859146e+03
1.762620e+03,5.855974e+03
1.763585e+03,5.857874e+03
1.764549e+03,5.870642e+03
1.765513e+03,5.891178e+03
1.766477e+03,5.889172e+03
1.767442e+03,5.869610e+03
1.768406e+03,5.852752e+03
1.769370e+03,5.844826e+03
1.770334e+03,5.841353e+03
1.771298e+03,5.838730e+03
1.772263e+03,5.836508e+03
1.773227e+03,5.836748e+03
1.774191e+03,5.837657e+03
1.775155e+03,5.839678e+03
1.776120e+03,5.836595e+03
1.777084e+03,5.810607e+03
1.778048e+03,5.774858e+03
1.779012e+03,5.766245e+03
1.779977e+03,5.796339e+03
1.780941e+03,5.812953e+03
1.781905e+03,5.813671e+03
1.782869e+03,5.805843e+03
1.783833e+03,5.789149e+03
1.784798e+03,5.778000e+03
1.785762e+03,5.788671e+03
1.786726e+03,5.797032e+03
1.787690e+03,5.792509e+03
1.788655e+03,5.780122e+03
1.789619e+03,5.763369e+03
1.790583e+03,5.746116e+03
1.791547e+03,5.733862e+03
1.792512e+03,5.727688e+03
1.793476e+03,5.729221e+03
1.794440e+03,5.739383e+03
1.795404e+03,5.742104e+03
1.796369e+03,5.734352e+03
1.797333e+03,5.731348e+03
1.798297e+03,5.750051e+03
1.799261e+03,5.763899e+03
1.800225e+03,5.745845e+03
1.801190e+03,5.720266e+03
1.802154e+03,5.704167e+03
1.803118e+03,5.695298e+03
1.804082e+03,5.694226e+03
1.805047e+03,5.698660e+03
1.806011e+03,5.696966e+03
1.806975e+03,5.688806e+03
1.807939e+03,5.691338e+03
1.808904e+03,5.710394e+03
1.809868e+03,5.717998e+03
1.810832e+03,5.712888e+03
1.811796e+03,5.702604e+03
1.812760e+03,5.685333e+03
1.813725e+03,5.671291e+03
1.814689e+03,5.675077e+03
1.815653e+03,5.677049e+03
1.816617e+03,5.657493e+03
1.817582e+03,5.628688e+03
1.818546e+03,5.636352e+03
1.819510e+03,5.662288e+03
1.820474e+03,5.665968e+03
1.821439e+03,5.641931e+03
1.822403e+03,5.625047e+03
1.823367e+03,5.619509e+03
1.824331e+03,5.614287e+03
1.825296e+03,5.605746e+03
1.826260e+03,5.602625e+03
1.827224e+03,5.627516e+03
1.828188e+03,5.650526e+03
1.829152e+03,5.647433e+03
1.830117e+03,5.636275e+03
1.831081e+03,5.632236e+03
1.832045e+03,5.629095e+03
1.833009e+03,5.612661e+03
1.833974e+03,5.592834e+03
1.834938e+03,5.579037e+03
1.835902e+03,5.571139e+03
1.836866e+03,5.565951e+03
1.837831e+03,5.563283e+03
1.838795e+03,5.559128e+03
1.839759e+03,5.554958e+03
1.840723e+03,5.554700e+03
1.841688e+03,5.553892e+03
1.842652e+03,5.564695e+03
1.843616e+03,5.597331e+03
1.844580e+03,5.621023e+03
1.845544e+03,5.597840e+03
1.846509e+03,5.554009e+03
1.847473e+03,5.529661e+03
1.848437e+03,5.520809e+03
1.849401e+03,5.524094e+03
1.850366e+03,5.538846e+03
1.851330e+03,5.542056e+03
1.852294e+03,5.536527e+03
1.853258e+03,5.531694e+03
1.854223e+03,5.529843e+03
1.855187e+03,5.526790e+03
1.856151e+03,5.517134e+03
1.857115e+03,5.505784e+03
1.858079e+03,5.491974e+03
1.859044e+03,5.479563e+03
1.860008e+03,5.472672e+03
1.860972e+03,5.474209e+03
1.861936e+03,5.498846e+03
1.862901e+03,5.524433e+03
1.863865e+03,5.513786e+03
1.864829e+03,5.469775e+03
1.865793e+03,5.443357e+03
1.866758e+03,5.433959e+03
1.867722e+03,5.436375e+03
1.868686e+03,5.450979e+03
1.869650e+03,5.459777e+03
1.870615e+03,5.459592e+03
1.871579e+03,5.453628e+03
1.872543e+03,5.444775e+03
1.873507e+03,5.439279e+03
1.874471e+03,5.439072e+03
1.875436e+03,5.435584e+03
1.876400e+03,5.427125e+03
1.877364e+03,5.417525e+03
1.878328e+03,5.410292e+03
1.879293e+03,5.404509e+03
1.880257e+03,5.393317e+03
1.881221e+03,5.381667e+03
1.882185e+03,5.388103e+03
1.883150e+03,5.415098e+03
1.884114e+03,5.413526e+03
1.885078e+03,5.386671e+03
1.886042e+03,5.368618e+03
1.887006e+03,5.369750e+03
1.887971e+03,5.371161e+03
1.888935e+03,5.369458e+03
1.889899e+03,5.371022e+03
1.890863e+03,5.375018e+03
1.891828e+03,5.375758e+03
1.892792e+03,5.369232e+03
1.893756e+03,5.360737e+03
1.894720e+03,5.361675e+03
1.895685e+03,5.365344e+03
1.896649e+03,5.357162e+03
1.897613e+03,5.339634e+03
1.898577e+03,5.326845e+03
1.899542e+03,5.319151e+03
1.900506e+03,5.315750e+03
1.901470e+03,5.315646e+03
1.902434e+03,5.323197e+03
1.903398e+03,5.337695e+03
1.904363e+03,5.334077e+03
1.905327e+03,5.304649e+03
1.906291e+03,5.282865e+03
1.907255e+03,5.285464e+03
1.908220e+03,5.293515e+03
1.909184e+03,5.306665e+03
1.910148e+03,5.312655e+03
1.911112e+03,5.296558e+03
1.912077e+03,5.276003e+03
1.913041e+03,5.266067e+03
1.914005e+03,5.258780e+03
1.914969e+03,5.243427e+03
1.915933e+03,5.224166e+03
1.916898e+03,5.215398e+03
1.917862e+03,5.215073e+03
1.918826e+03,5.217671e+03
1.919790e+03,5.223862e+03
1.920755e+03,5.227856e+03
1.921719e+03,5.226797e+03
1.922683e+03,5.223128e+03
1.923647e+03,5.219143e+03
1.924612e+03,5.217563e+03
1.925576e+03,5.222938e+03
1.926540e+03,5.224735e+03
1.927504e+03,5.218021e+03
1.928469e+03,5.207679e+03
1.929433e+03,5.189796e+03
1.930397e+03,5.178012e+03
1.931361e+03,5.193415e+03
1.932325e+03,5.208846e+03
1.933290e+03,5.201643e+03
1.934254e+03,5.187375e+03
1.935218e+03,5.202812e+03
1.936182e+03,5.223502e+03
1.937147e+03,5.208831e+03
1.938111e+03,5.164863e+03
1.939075e+03,5.149148e+03
1.940039e+03,5.159310e+03
1.941004e+03,5.163512e+03
1.941968e+03,5.154208e+03
1.942932e+03,5.147626e+03
1.943896e+03,5.155823e+03
1.944860e+03,5.148081e+03
1.945825e+03,5.122837e+03
1.946789e+03,5.102663e+03
1.947753e+03,5.103257e+03
1.948717e+03,5.108176e+03
1.949682e+03,5.111705e+03
1.950646e+03,5.114656e+03
1.951610e+03,5.119384e+03
1.952574e+03,5.121250e+03
1.953539e+03,5.109775e+03
1.954503e+03,5.094132e+03
1.955467e+03,5.084179e+03
1.956431e+03,5.080724e+03
1.957396e+03,5.087786e+03
1.958360e+03,5.097164e+03
1.959324e+03,5.086549e+03
1.960288e+03,5.061846e+03
1.961252e+03,5.057786e+03
1.962217e+03,5.075439e+03
1.963181e+03,5.076435e+03
1.964145e+03,5.060220e+03
1.965109e+03,5.048249e+03
1.966074e+03,5.058863e+03
1.967038e+03,5.063346e+03
1.968002e+03,5.053058e+03
1.968966e+03,5.042304e+03
1.969931e+03,5.039874e+03
1.970895e+03,5.034501e+03
1.971859e+03,5.016271e+03
1.972823e+03,5.006859e+03
1.973787e+03,5.015908e+03
1.974752e+03,5.028012e+03
1.975716e+03,5.023156e+03
1.976680e+03,5.009160e+03
1.977644e+03,4.996120e+03
1.978609e+03,4.986222e+03
1.979573e+03,4.974141e+03
1.980537e+03,4.962930e+03
1.981501e+03,4.974989e+03
1.982466e+03,5.000866e+03
1.983430e+03,5.008720e+03
1.984394e+03,4.993664e+03
1.985358e+03,4.977133e+03
1.986323e+03,4.960499e+03
1.987287e+03,4.960983e+03
1.988251e+03,4.989974e+03
1.989215e+03,4.989825e+03
1.990179e+03,4.949372e+03
1.991144e+03,4.918999e+03
1.992108e+03,4.912389e+03
1.993072e+03,4.917616e+03
1.994036e+03,4.938154e+03
1.995001e+03,4.943506e+03
1.995965e+03,4.920425e+03
1.996929e+03,4.901634e+03
1.997893e+03,4.928108e+03
1.998858e+03,4.956311e+03
1.999822e+03,4.944999e+03
2.000786e+03,4.917596e+03
2.001750e+03,4.893575e+03
2.002714e+03,4.878522e+03
2.003679e+03,4.884769e+03
2.004643e+03,4.895837e+03
2.005607e+03,4.883845e+03
2.006571e+03,4.858121e+03
2.007536e+03,4.855155e+03
2.008500e+03,4.868655e+03
2.009464e+03,4.880465e+03
2.010428e+03,4.887991e+03
2.011393e+03,4.878687e+03
2.012357e+03,4.849684e+03
2.013321e+03,4.850668e+03
2.014285e+03,4.878260e+03
2.015250e+03,4.889738e+03
2.016214e+03,4.846222e+03
2.017178e+03,4.820323e+03
2.018142e+03,4.817448e+03
2.019106e+03,4.820110e+03
2.020071e+03,4.819351e+03
2.021035e+03,4.820011e+03
2.021999e+03,4.828774e+03
2.022963e+03,4.827552e+03
2.023928e+03,4.808947e+03
2.024892e+03,4.787217e+03
2.025856e+03,4.770708e+03
2.026820e+03,4.766409e+03
2.027785e+03,4.781104e+03
2.028749e+03,4.800050e+03
2.029713e+03,4.804859e+03
2.030677e+03,4.803575e+03
2.031641e+03,4.805392e+03
2.032606e+03,4.807071e+03
2.033570e+03,4.803091e+03
2.034534e+03,4.793634e+03
2.035498e+03,4.783571e+03
2.036463e+03,4.772577e+03
2.037427e+03,4.755403e+03
2.038391e+03,4.735234e+03
2.039355e+03,4.731476e+03
2.040320e+03,4.740292e+03
2.041284e+03,4.740968e+03
2.042248e+03,4.727187e+03
2.043212e+03,4.718040e+03
2.044177e+03,4.716327e+03
2.045141e+03,4.722119e+03
2.046105e+03,4.734100e+03
2.047069e+03,4.741498e+03
2.048033e+03,4.732478e+03
2.048998e+03,4.725117e+03
2.049962e+03,4.722670e+03
2.050926e+03,4.719256e+03
2.051890e+03,4.712679e+03
2.052854e+03,4.699377e+03
2.053819e+03,4.670616e+03
2.054783e+03,4.650779e+03
2.055747e+03,4.662231e+03
2.056711e+03,4.676611e+03
2.057676e+03,4.657319e+03
2.058640e+03,4.642354e+03
2.059604e+03,4.649378e+03
2.060568e+03,4.664615e+03
2.061533e+03,4.679194e+03
2.062497e+03,4.685726e+03
2.063461e+03,4.669092e+03
2.064425e+03,4.646042e+03
2.065390e+03,4.640570e+03
2.066354e+03,4.643294e+03
2.067318e+03,4.637930e+03
2.068282e+03,4.629959e+03
2.069247e+03,4.630448e+03
2.070211e+03,4.635546e+03
2.071175e+03,4.624937e+03
2.072139e+03,4.606304e+03
2.073104e+03,4.597232e+03
2.074068e+03,4.599425e+03
2.075032e+03,4.600670e+03
2.075996e+03,4.599085e+03
2.076960e+03,4.593440e+03
2.077925e+03,4.583093e+03
2.078889e+03,4.576438e+03
2.079853e+03,4.573820e+03
2.080817e+03,4.579830e+03
2.081782e+03,4.593688e+03
2.082746e+03,4.598890e+03
2.083710e+03,4.590555e+03
2.084674e+03,4.577311e+03
2.085639e+03,4.562261e+03
2.086603e+03,4.558498e+03
2.087567e+03,4.572060e+03
2.088531e+03,4.584345e+03
2.089496e+03,4.592406e+03
2.090460e+03,4.585971e+03
2.091424e+03,4.564028e+03
2.092388e+03,4.545216e+03
2.093353e+03,4.537234e+03
2.094317e+03,4.536026e+03
2.095281e+03,4.537705e+03
2.096245e+03,4.536064e+03
2.097209e+03,4.522673e+03
2.098174e+03,4.508555e+03
2.099138e+03,4.499553e+03
2.100102e+03,4.496011e+03
2.101066e+03,4.502958e+03
2.102031e+03,4.509202e+03
2.102995e+03,4.503112e+03
2.103959e+03,4.492780e+03
2.104923e+03,4.481969e+03
2.105887e+03,4.476818e+03
2.106852e+03,4.482029e+03
2.107816e+03,4.488870e+03
2.108780e+03,4.493423e+03
2.109744e+03,4.493967e+03
2.110708e+03,4.489506e+03
2.111673e+03,4.483152e+03
2.112637e+03,4.473530e+03
2.113601e+03,4.458334e+03
2.114565e+03,4.430444e+03
2.115530e+03,4.401433e+03
2.116494e+03,4.400383e+03
2.117458e+03,4.426773e+03
2.118422e+03,4.449047e+03
2.119387e+03,4.462426e+03
2.120351e+03,4.456382e+03
2.121315e+03,4.436156e+03
2.122279e+03,4.433008e+03
2.123244e+03,4.448432e+03
2.124208e+03,4.437970e+03
2.125172e+03,4.409159e+03
2.126136e+03,4.378590e+03
2.127101e+03,4.349331e+03
2.128065e+03,4.342545e+03
2.129029e+03,4.355273e+03
2.129993e+03,4.377031e+03
2.130958e+03,4.401442e+03
2.131922e+03,4.405287e+03
2.132886e+03,4.387503e+03
2.133850e+03,4.382733e+03
2.134814e+03,4.397606e+03
2.135779e+03,4.403485e+03
2.136743e+03,4.383907e+03
2.137707e+03,4.364587e+03
2.138671e+03,4.348638e+03
2.139636e+03,4.339969e+03
2.140600e+03,4.345443e+03
2.141564e+03,4.347907e+03
2.142528e+03,4.347258e+03
2.143493e+03,4.341127e+03
2.144457e+03,4.325119e+03
2.145421e+03,4.305290e+03
2.146385e+03,4.281099e+03
2.147350e+03,4.269625e+03
2.148314e+03,4.278896e+03
2.149278e+03,4.296103e+03
2.150242e+03,4.315045e+03
2.151207e+03,4.323662e+03
2.152171e+03,4.318103e+03
2.153135e+03,4.306102e+03
2.154099e+03,4.298012e+03
2.155063e+03,4.289493e+03
2.156028e+03,4.280441e+03
2.156992e+03,4.273718e+03
2.157956e+03,4.261227e+03
2.158920e+03,4.257072e+03
2.159885e+03,4.272497e+03
2.160849e+03,4.285332e+03
2.161813e+03,4.285659e+03
2.162777e+03,4.277139e+03
2.163741e+03,4.257817e+03
2.164706e+03,4.240237e+03
2.165670e+03,4.234143e+03
2.166634e+03,4.232172e+03
2.167598e+03,4.216862e+03
2.168563e+03,4.209984e+03
2.169527e+03,4.220083e+03
2.170491e+03,4.228187e+03
2.171455e+03,4.216239e+03
2.172420e+03,4.202908e+03
2.173384e+03,4.201751e+03
2.174348e+03,4.203739e+03
2.175312e+03,4.199291e+03
2.176277e+03,4.192815e+03
2.177241e+03,4.191184e+03
2.178205e+03,4.188807e+03
2.179169e+03,4.184265e+03
2.180134e+03,4.181268e+03
2.181098e+03,4.181059e+03
2.182062e+03,4.182699e+03
2.183026e+03,4.183330e+03
2.183990e+03,4.180230e+03
2.184955e+03,4.164299e+03
2.185919e+03,4.150544e+03
2.186883e+03,4.149772e+03
2.187847e+03,4.153987e+03
2.188812e+03,4.161632e+03
2.189776e+03,4.165913e+03
2.190740e+03,4.149470e+03
2.191704e+03,4.130702e+03
2.192668e+03,4.132769e+03
2.193633e+03,4.141839e+03
2.194597e+03,4.136960e+03
2.195561e+03,4.128561e+03
2.196525e+03,4.124081e+03
2.197490e+03,4.120600e+03
2.198454e+03,4.112068e+03
2.199418e+03,4.103596e+03
2.200382e+03,4.100084e+03
2.201347e+03,4.103504e+03
2.202311e+03,4.117077e+03
2.203275e+03,4.131401e+03
2.204239e+03,4.134844e+03
2.205204e+03,4.127549e+03
2.206168e+03,4.114546e+03
2.207132e+03,4.098008e+03
2.208096e+03,4.069135e+03
2.209061e+03,4.041558e+03
2.210025e+03,4.037784e+03
2.210989e+03,4.044146e+03
2.211953e+03,4.038710e+03
2.212917e+03,4.040774e+03
2.213882e+03,4.061388e+03
2.214846e+03,4.084332e+03
2.215810e+03,4.083118e+03
2.216774e+03,4.070476e+03
2.217739e+03,4.069798e+03
2.218703e+03,4.070729e+03
2.219667e+03,4.042541e+03
2.220631e+03,4.015009e+03
2.221595e+03,4.019598e+03
2.222560e+03,4.033147e+03
2.223524e+03,4.024043e+03
2.224488e+03,4.006191e+03
2.225452e+03,3.993546e+03
2.226417e+03,3.987456e+03
2.227381e+03,3.990099e+03
2.228345e+03,3.999147e+03
2.229309e+03,4.012273e+03
2.230274e+03,4.020180e+03
2.231238e+03,4.016756e+03
2.232202e+03,4.004412e+03
2.233166e+03,3.982556e+03
2.234131e+03,3.967716e+03
2.235095e+03,3.973170e+03
2.236059e+03,3.982882e+03
2.237023e+03,3.967350e+03
2.237988e+03,3.947953e+03
2.238952e+03,3.936818e+03
2.239916e+03,3.932837e+03
2.240880e+03,3.949573e+03
2.241844e+03,3.961882e+03
2.242809e+03,3.946228e+03
2.243773e+03,3.927980e+03
2.244737e+03,3.931993e+03
2.245701e+03,3.940316e+03
2.246666e+03,3.940369e+03
2.247630e+03,3.932874e+03
2.248594e+03,3.917161e+03
2.249558e+03,3.906317e+03
2.250522e+03,3.916448e+03
2.251487e+03,3.926693e+03
2.252451e+03,3.922714e+03
2.253415e+03,3.910046e+03
2.254379e+03,3.897526e+03
2.255344e+03,3.886549e+03
2.256308e+03,3.878527e+03
2.257272e+03,3.872543e+03
2.258236e+03,3.866063e+03
2.259201e+03,3.864647e+03
2.260165e+03,3.868618e+03
2.261129e+03,3.872405e+03
2.262093e+03,3.872189e+03
2.263058e+03,3.865828e+03
2.264022e+03,3.855215e+03
2.264986e+03,3.849208e+03
2.265950e+03,3.856440e+03
2.266915e+03,3.854246e+03
2.267879e+03,3.830561e+03
2.268843e+03,3.810265e+03
2.269807e+03,3.811055e+03
2.270771e+03,3.813042e+03
2.271736e+03,3.809410e+03
2.272700e+03,3.808230e+03
2.273664e+03,3.806920e+03
2.274628e+03,3.812101e+03
2.275593e+03,3.832640e+03
2.276557e+03,3.835889e+03
2.277521e+03,3.819716e+03
2.278485e+03,3.802847e+03
2.279449e+03,3.791464e+03
2.280414e+03,3.787485e+03
2.281378e+03,3.790062e+03
2.282342e+03,3.788255e+03
2.283306e+03,3.764157e+03
2.284271e+03,3.758690e+03
2.285235e+03,3.769056e+03
2.286199e+03,3.769609e+03
2.287163e+03,3.752387e+03
2.288128e+03,3.748370e+03
2.289092e+03,3.753625e+03
2.290056e+03,3.760628e+03
2.291020e+03,3.768799e+03
2.291985e+03,3.764494e+03
2.292949e+03,3.752279e+03
2.293913e+03,3.745160e+03
2.294877e+03,3.743721e+03
2.295842e+03,3.749564e+03
2.296806e+03,3.758441e+03
2.297770e+03,3.755334e+03
2.298734e+03,3.742277e+03
2.299698e+03,3.732145e+03
2.300663e+03,3.727135e+03
2.301627e+03,3.736834e+03
2.302591e+03,3.748865e+03
2.303555e+03,3.734982e+03
2.304520e+03,3.702981e+03
2.305484e+03,3.682217e+03
2.306448e+03,3.671473e+03
2.307412e+03,3.665731e+03
2.308376e+03,3.664149e+03
2.309341e+03,3.676652e+03
2.310305e+03,3.690563e+03
2.311269e+03,3.689430e+03
2.312233e+03,3.683870e+03
2.313198e+03,3.688502e+03
2.314162e+03,3.691640e+03
2.315126e+03,3.678368e+03
2.316090e+03,3.662377e+03
2.317055e+03,3.663909e+03
2.318019e+03,3.666947e+03
2.318983e+03,3.648711e+03
2.319947e+03,3.632876e+03
2.320912e+03,3.645014e+03
2.321876e+03,3.661179e+03
2.322840e+03,3.661664e+03
2.323804e+03,3.657204e+03
2.324769e+03,3.651613e+03
2.325733e+03,3.649554e+03
2.326697e+03,3.656813e+03
2.327661e+03,3.654265e+03
2.328625e+03,3.630802e+03
2.329590e+03,3.610561e+03
2.330554e+03,3.614414e+03
2.331518e+03,3.622040e+03
2.332482e+03,3.630447e+03
2.333447e+03,3.634946e+03
2.334411e+03,3.635800e+03
2.335375e+03,3.618044e+03
2.336339e+03,3.582278e+03
2.337303e+03,3.557118e+03
2.338268e+03,3.552589e+03
2.339232e+03,3.560377e+03
2.340196e+03,3.578494e+03
2.341160e+03,3.585453e+03
2.342125e+03,3.573411e+03
2.343089e+03,3.584756e+03
2.344053e+03,3.607101e+03
2.345017e+03,3.610724e+03
2.345982e+03,3.594719e+03
2.346946e+03,3.577663e+03
2.347910e+03,3.564539e+03
2.348874e+03,3.564372e+03
2.349839e+03,3.567761e+03
2.350803e+03,3.552874e+03
2.351767e+03,3.531464e+03
2.352731e+03,3.521756e+03
2.353696e+03,3.525414e+03
2.354660e+03,3.548446e+03
2.355624e+03,3.570998e+03
2.356588e+03,3.561664e+03
2.357552e+03,3.542088e+03
2.358517e+03,3.530052e+03
2.359481e+03,3.520122e+03
2.360445e+03,3.498016e+03
2.361409e+03,3.484284e+03
2.362374e+03,3.494815e+03
2.363338e+03,3.503950e+03
2.364302e+03,3.485884e+03
2.365266e+03,3.478551e+03
2.366230e+03,3.490970e+03
2.367195e+03,3.505680e+03
2.368159e+03,3.517916e+03
2.369123e+03,3.503199e+03
2.370087e+03,3.459746e+03
2.371052e+03,3.433282e+03
2.372016e+03,3.453020e+03
2.372980e+03,3.470799e+03
2.373944e+03,3.482281e+03
2.374909e+03,3.483376e+03
2.375873e+03,3.471692e+03
2.376837e+03,3.457976e+03
2.377801e+03,3.443857e+03
2.378766e+03,3.433136e+03
2.379730e+03,3.426438e+03
2.380694e+03,3.427321e+03
2.381658e+03,3.434429e+03
2.382623e+03,3.437117e+03
2.383587e+03,3.436078e+03
2.384551e+03,3.438413e+03
2.385515e+03,3.439576e+03
2.386479e+03,3.433199e+03
2.387444e+03,3.426914e+03
2.388408e+03,3.442437e+03
2.389372e+03,3.453293e+03
2.390336e+03,3.418442e+03
2.391301e+03,3.383271e+03
2.392265e+03,3.398265e+03
2.393229e+03,3.417946e+03
2.394193e+03,3.417894e+03
2.395157e+03,3.407159e+03
2.396122e+03,3.384686e+03
2.397086e+03,3.368787e+03
2.398050e+03,3.366536e+03
2.399014e+03,3.369772e+03
2.399979e+03,3.376911e+03
2.400943e+03,3.377945e+03
2.401907e+03,3.369849e+03
2.402871e+03,3.371086e+03
2.403836e+03,3.387012e+03
2.404800e+03,3.391021e+03
2.405764e+03,3.381326e+03
2.406728e+03,3.373335e+03
2.407693e+03,3.366765e+03
2.408657e+03,3.361860e+03
2.409621e+03,3.359281e+03
2.410585e+03,3.351746e+03
2.411550e+03,3.342273e+03
2.412514e+03,3.334380e+03
2.413478e+03,3.330629e+03
2.414442e+03,3.348885e+03
2.415406e+03,3.365283e+03
2.416371e+03,3.351518e+03
2.417335e+03,3.326140e+03
2.418299e+03,3.308413e+03
2.419263e+03,3.300648e+03
2.420228e+03,3.304876e+03
2.421192e+03,3.312029e+03
2.422156e+03,3.317530e+03
2.423120e+03,3.320844e+03
2.424084e+03,3.318772e+03
2.425049e+03,3.313379e+03
2.426013e+03,3.311684e+03
2.426977e+03,3.299358e+03
2.427941e+03,3.278265e+03
2.428906e+03,3.267377e+03
2.429870e+03,3.270550e+03
2.430834e+03,3.273673e+03
2.431798e+03,3.276292e+03
2.432763e+03,3.271965e+03
2.433727e+03,3.260621e+03
2.434691e+03,3.257539e+03
2.435655e+03,3.258002e+03
2.436620e+03,3.250777e+03
2.437584e+03,3.241944e+03
2.438548e+03,3.253370e+03
2.439512e+03,3.269969e+03
2.440477e+03,3.276546e+03
2.441441e+03,3.271825e+03
2.442405e+03,3.249593e+03
2.443369e+03,3.233018e+03
2.444333e+03,3.235762e+03
2.445298e+03,3.237149e+03
2.446262e+03,3.211552e+03
2.447226e+03,3.190863e+03
2.448190e+03,3.181969e+03
2.449155e+03,3.185736e+03
2.450119e+03,3.217927e+03
2.451083e+03,3.234523e+03
2.452047e+03,3.235188e+03
2.453011e+03,3.230671e+03
2.453976e+03,3.224949e+03
2.454940e+03,3.205923e+03
2.455904e+03,3.183301e+03
2.456868e+03,3.183272e+03
2.457833e+03,3.195796e+03
2.458797e+03,3.192506e+03
2.459761e+03,3.182894e+03
2.460725e+03,3.176682e+03
2.461690e+03,3.172800e+03
2.462654e+03,3.171501e+03
2.463618e+03,3.169355e+03
2.464582e+03,3.165461e+03
2.465547e+03,3.164484e+03
2.466511e+03,3.170494e+03
2.467475e+03,3.165902e+03
2.468439e+03,3.145778e+03
2.469404e+03,3.135683e+03
2.470368e+03,3.170308e+03
2.471332e+03,3.180009e+03
2.472296e+03,3.163399e+03
2.473260e+03,3.147527e+03
2.474225e+03,3.139801e+03
2.475189e+03,3.132365e+03
2.476153e+03,3.126516e+03
2.477117e+03,3.114758e+03
2.478082e+03,3.101618e+03
2.479046e+03,3.113521e+03
2.480010e+03,3.129102e+03
2.480974e+03,3.116982e+03
2.481938e+03,3.099396e+03
2.482903e+03,3.108992e+03
2.483867e+03,3.120262e+03
2.484831e+03,3.118355e+03
2.485795e+03,3.112071e+03
2.486760e+03,3.106884e+03
2.487724e+03,3.109902e+03
2.488688e+03,3.123326e+03
2.489652e+03,3.127516e+03
2.490617e+03,3.102211e+03
2.491581e+03,3.085018e+03
2.492545e+03,3.077555e+03
2.493509e+03,3.081107e+03
2.494474e+03,3.092349e+03
2.495438e+03,3.100896e+03
2.496402e+03,3.104650e+03
2.497366e+03,3.096396e+03
2.498331e+03,3.083269e+03
2.499295e+03,3.079757e+03
2.500259e+03,3.074275e+03
2.501223e+03,3.057379e+03
2.502188e+03,3.046420e+03
2.503152e+03,3.072277e+03
2.504116e+03,3.084605e+03
2.505080e+03,3.068628e+03
2.506044e+03,3.048645e+03
2.507009e+03,3.032830e+03
2.507973e+03,3.026507e+03
2.508937e+03,3.030427e+03
2.509901e+03,3.035111e+03
2.510865e+03,3.037423e+03
2.511830e+03,3.036285e+03
2.512794e+03,3.031356e+03
2.513758e+03,3.029187e+03
2.514722e+03,3.030505e+03
2.515687e+03,3.033622e+03
2.516651e+03,3.031774e+03
2.517615e+03,3.015654e+03
2.518579e+03,2.999627e+03
2.519544e+03,3.007685e+03
2.520508e+03,3.011668e+03
2.521472e+03,3.001238e+03
2.522436e+03,2.992736e+03
2.523401e+03,3.003680e+03
2.524365e+03,3.003553e+03
2.525329e+03,2.988917e+03
2.526293e+03,2.983954e+03
2.527258e+03,2.997911e+03
2.528222e+03,2.991735e+03
2.529186e+03,2.974055e+03
2.530150e+03,2.974793e+03
2.531115e+03,2.988624e+03
2.532079e+03,2.990430e+03
2.533043e+03,2.985350e+03
2.534007e+03,2.977177e+03
2.534971e+03,2.968894e+03
2.535936e+03,2.974077e+03
2.536900e+03,2.973088e+03
2.537864e+03,2.956980e+03
2.538828e+03,2.947006e+03
2.539792e+03,2.951263e+03
2.540757e+03,2.952608e+03
2.541721e+03,2.949092e+03
2.542685e+03,2.951420e+03
2.543649e+03,2.961031e+03
2.544614e+03,2.964751e+03
2.545578e+03,2.961660e+03
2.546542e+03,2.958026e+03
2.547506e+03,2.955787e+03
2.548471e+03,2.958698e+03
2.549435e+03,2.960554e+03
2.550399e+03,2.956769e+03
2.551363e+03,2.948878e+03
2.552328e+03,2.938074e+03
2.553292e+03,2.930265e+03
2.554256e+03,2.928216e+03
2.555220e+03,2.926208e+03
2.556185e+03,2.922267e+03
2.557149e+03,2.921367e+03
2.558113e+03,2.923105e+03
2.559077e+03,2.914962e+03
2.560042e+03,2.898824e+03
2.561006e+03,2.889123e+03
2.561970e+03,2.887776e+03
2.562934e+03,2.884823e+03
2.563898e+03,2.885757e+03
2.564863e+03,2.900361e+03
2.565827e+03,2.909782e+03
2.566791e+03,2.901813e+03
2.567755e+03,2.893059e+03
2.568719e+03,2.884160e+03
2.569684e+03,2.875740e+03
2.570648e+03,2.868602e+03
2.571612e+03,2.869915e+03
2.572576e+03,2.879491e+03
2.573541e+03,2.876177e+03
2.574505e+03,2.859913e+03
2.575469e+03,2.864753e+03
2.576433e+03,2.875167e+03
2.577398e+03,2.871152e+03
2.578362e+03,2.860158e+03
2.579326e+03,2.847052e+03
2.580290e+03,2.840032e+03
2.581255e+03,2.840236e+03
2.582219e+03,2.844020e+03
2.583183e+03,2.854110e+03
2.584147e+03,2.861567e+03
2.585112e+03,2.869141e+03
2.586076e+03,2.864876e+03
2.587040e+03,2.847417e+03
2.588004e+03,2.832324e+03
2.588969e+03,2.821366e+03
2.589933e+03,2.823973e+03
2.590897e+03,2.833108e+03
2.591861e+03,2.837390e+03
2.592825e+03,2.834242e+03
2.593790e+03,2.817922e+03
2.594754e+03,2.806089e+03
2.595718e+03,2.813884e+03
2.596682e+03,2.819789e+03
2.597646e+03,2.818233e+03
2.598611e+03,2.815792e+03
2.599575e+03,2.815976e+03
2.600539e+03,2.816645e+03
2.601503e+03,2.814172e+03
2.602468e+03,2.796277e+03
2.603432e+03,2.776649e+03
2.604396e+03,2.797685e+03
2.605360e+03,2.823199e+03
2.606325e+03,2.814821e+03
2.607289e+03,2.801280e+03
2.608253e+03,2.796255e+03
2.609217e+03,2.792882e+03
2.610182e+03,2.784774e+03
2.611146e+03,2.771151e+03
2.612110e+03,2.755792e+03
2.613074e+03,2.762921e+03
2.614039e+03,2.788342e+03
2.615003e+03,2.773280e+03
2.615967e+03,2.743335e+03
2.616931e+03,2.745897e+03
2.617896e+03,2.759790e+03
2.618860e+03,2.753999e+03
2.619824e+03,2.754019e+03
2.620788e+03,2.769765e+03
2.621752e+03,2.773775e+03
2.622717e+03,2.743767e+03
2.623681e+03,2.732855e+03
2.624645e+03,2.740318e+03
2.625609e+03,2.746509e+03
2.626573e+03,2.749337e+03
2.627538e+03,2.752788e+03
2.628502e+03,2.753340e+03
2.629466e+03,2.740212e+03
2.630430e+03,2.725921e+03
2.631395e+03,2.728034e+03
2.632359e+03,2.733522e+03
2.633323e+03,2.740935e+03
2.634287e+03,2.739693e+03
2.635252e+03,2.729472e+03
2.636216e+03,2.722106e+03
2.637180e+03,2.718215e+03
2.638144e+03,2.717836e+03
2.639109e+03,2.717751e+03
2.640073e+03,2.713117e+03
2.641037e+03,2.709459e+03
2.642001e+03,2.706559e+03
2.642966e+03,2.706026e+03
2.643930e+03,2.708101e+03
2.644894e+03,2.712635e+03
2.645858e+03,2.727886e+03
2.646823e+03,2.723019e+03
2.647787e+03,2.697891e+03
2.648751e+03,2.685371e+03
2.649715e+03,2.687573e+03
2.650679e+03,2.679388e+03
2.651644e+03,2.671356e+03
2.652608e+03,2.680990e+03
2.653572e+03,2.694024e+03
2.654536e+03,2.690275e+03
2.655500e+03,2.682927e+03
2.656465e+03,2.676402e+03
2.657429e+03,2.671088e+03
2.658393e+03,2.665058e+03
2.659357e+03,2.657921e+03
2.660322e+03,2.654775e+03
2.661286e+03,2.665733e+03
2.662250e+03,2.682118e+03
2.663214e+03,2.676343e+03
2.664179e+03,2.662734e+03
2.665143e+03,2.659677e+03
2.666107e+03,2.659795e+03
2.667071e+03,2.660895e+03
2.668036e+03,2.653120e+03
2.669000e+03,2.613514e+03
2.669964e+03,2.617274e+03
2.670928e+03,2.656267e+03
2.671893e+03,2.669283e+03
2.672857e+03,2.659087e+03
2.673821e+03,2.658145e+03
2.674785e+03,2.657991e+03
2.675750e+03,2.650934e+03
2.676714e+03,2.644195e+03
2.677678e+03,2.649467e+03
2.678642e+03,2.642166e+03
2.679606e+03,2.616508e+03
2.680571e+03,2.604959e+03
2.681535e+03,2.610984e+03
2.682499e+03,2.599815e+03
2.683463e+03,2.577912e+03
2.684427e+03,2.583093e+03
2.685392e+03,2.603311e+03
2.686356e+03,2.624234e+03
2.687320e+03,2.632358e+03
2.688284e+03,2.605445e+03
2.689249e+03,2.594626e+03
2.690213e+03,2.608647e+03
2.691177e+03,2.609161e+03
2.692141e+03,2.584699e+03
2.693106e+03,2.587117e+03
2.694070e+03,2.603396e+03
2.695034e+03,2.597924e+03
2.695998e+03,2.583463e+03
2.696963e+03,2.582444e+03
2.697927e+03,2.587661e+03
2.698891e+03,2.593250e+03
2.699855e+03,2.594357e+03
2.700820e+03,2.591328e+03
2.701784e+03,2.576368e+03
2.702748e+03,2.551508e+03
2.703712e+03,2.548103e+03
2.704677e+03,2.560061e+03
2.705641e+03,2.574645e+03
2.706605e+03,2.587059e+03
2.707569e+03,2.588860e+03
2.708533e+03,2.577689e+03
2.709498e+03,2.550028e+03
2.710462e+03,2.532938e+03
2.711426e+03,2.547340e+03
2.712390e+03,2.553037e+03
2.713354e+03,2.549572e+03
2.714319e+03,2.534208e+03
2.715283e+03,2.516839e+03
2.716247e+03,2.525376e+03
2.717211e+03,2.539778e+03
2.718176e+03,2.546961e+03
2.719140e+03,2.545110e+03
2.720104e+03,2.526005e+03
2.721068e+03,2.522933e+03
2.722033e+03,2.538338e+03
2.722997e+03,2.536716e+03
2.723961e+03,2.522103e+03
2.724925e+03,2.529376e+03
2.725890e+03,2.542063e+03
2.726854e+03,2.531943e+03
2.727818e+03,2.517082e+03
2.728782e+03,2.502678e+03
2.729747e+03,2.499283e+03
2.730711e+03,2.521226e+03
2.731675e+03,2.536315e+03
2.732639e+03,2.543113e+03
2.733604e+03,2.525980e+03
2.734568e+03,2.498831e+03
2.735532e+03,2.499526e+03
2.736496e+03,2.507486e+03
2.737460e+03,2.508927e+03
2.738425e+03,2.507990e+03
2.739389e+03,2.507406e+03
2.740353e+03,2.493595e+03
2.741317e+03,2.467871e+03
2.742281e+03,2.463764e+03
2.743246e+03,2.476912e+03
2.744210e+03,2.487984e+03
2.745174e+03,2.492830e+03
2.746138e+03,2.495907e+03
2.747103e+03,2.486544e+03
2.748067e+03,2.462069e+03
2.749031e+03,2.450098e+03
2.749995e+03,2.469242e+03
2.750960e+03,2.480666e+03
2.751924e+03,2.485177e+03
2.752888e+03,2.484999e+03
2.753852e+03,2.480116e+03
2.754817e+03,2.465288e+03
2.755781e+03,2.455280e+03
2.756745e+03,2.458989e+03
2.757709e+03,2.461809e+03
2.758674e+03,2.456587e+03
2.759638e+03,2.449367e+03
2.760602e+03,2.443663e+03
2.761566e+03,2.454574e+03
2.762531e+03,2.470392e+03
2.763495e+03,2.464066e+03
2.764459e+03,2.449599e+03
2.765423e+03,2.439580e+03
2.766387e+03,2.432868e+03
2.767352e+03,2.430362e+03
2.768316e+03,2.428798e+03
2.769280e+03,2.426788e+03
2.770244e+03,2.422581e+03
2.771208e+03,2.420521e+03
2.772173e+03,2.425945e+03
2.773137e+03,2.431047e+03
2.774101e+03,2.431208e+03
2.775065e+03,2.431847e+03
2.776030e+03,2.434661e+03
2.776994e+03,2.424792e+03
2.777958e+03,2.403985e+03
2.778922e+03,2.400735e+03
2.779887e+03,2.411154e+03
2.780851e+03,2.423673e+03
2.781815e+03,2.425583e+03
2.782779e+03,2.411725e+03
2.783744e+03,2.398146e+03
2.784708e+03,2.389771e+03
2.785672e+03,2.397967e+03
2.786636e+03,2.417954e+03
2.787601e+03,2.409133e+03
2.788565e+03,2.387394e+03
2.789529e+03,2.399835e+03
2.790493e+03,2.415827e+03
2.791458e+03,2.400098e+03
2.792422e+03,2.391623e+03
2.793386e+03,2.401083e+03
2.794350e+03,2.413294e+03
2.795314e+03,2.422343e+03
2.796279e+03,2.399820e+03
2.797243e+03,2.367013e+03
2.798207e+03,2.362028e+03
2.799171e+03,2.371722e+03
2.800135e+03,2.391280e+03
2.801100e+03,2.384262e+03
2.802064e+03,2.340280e+03
2.803028e+03,2.332954e+03
2.803992e+03,2.357050e+03
2.804957e+03,2.359689e+03
2.805921e+03,2.353912e+03
2.806885e+03,2.373534e+03
2.807849e+03,2.383834e+03
2.808814e+03,2.367767e+03
2.809778e+03,2.357002e+03
2.810742e+03,2.369066e+03
2.811706e+03,2.387229e+03
2.812671e+03,2.400808e+03
2.813635e+03,2.381746e+03
2.814599e+03,2.353284e+03
2.815563e+03,2.368901e+03
2.816528e+03,2.384425e+03
2.817492e+03,2.378316e+03
2.818456e+03,2.374443e+03
2.819420e+03,2.373007e+03
2.820385e+03,2.356761e+03
2.821349e+03,2.335409e+03
2.822313e+03,2.345316e+03
2.823277e+03,2.362235e+03
2.824241e+03,2.365798e+03
2.825206e+03,2.357601e+03
2.826170e+03,2.337172e+03
2.827134e+03,2.327381e+03
2.828098e+03,2.328063e+03
2.829063e+03,2.329720e+03
2.830027e+03,2.327624e+03
2.830991e+03,2.310191e+03
2.831955e+03,2.299010e+03
2.832919e+03,2.315770e+03
2.833884e+03,2.313843e+03
2.834848e+03,2.288833e+03
2.835812e+03,2.291642e+03
2.836776e+03,2.321581e+03
2.837741e+03,2.322196e+03
2.838705e+03,2.314313e+03
2.839669e+03,2.322958e+03
2.840633e+03,2.327293e+03
2.841598e+03,2.315935e+03
2.842562e+03,2.307552e+03
2.843526e+03,2.308867e+03
2.844490e+03,2.302829e+03
2.845455e+03,2.295979e+03
2.846419e+03,2.308215e+03
2.847383e+03,2.318203e+03
2.848347e+03,2.290188e+03
2.849312e+03,2.279326e+03
2.850276e+03,2.293902e+03
2.851240e+03,2.292188e+03
2.852204e+03,2.274938e+03
2.853168e+03,2.281418e+03
2.854133e+03,2.294634e+03
2.855097e+03,2.298594e+03
2.856061e+03,2.287046e+03
2.857025e+03,2.257034e+03
2.857990e+03,2.247025e+03
2.858954e+03,2.270213e+03
2.859918e+03,2.271587e+03
2.860882e+03,2.261363e+03
2.861846e+03,2.255153e+03
2.862811e+03,2.254104e+03
2.863775e+03,2.258591e+03
2.864739e+03,2.272502e+03
2.865703e+03,2.297854e+03
2.866668e+03,2.305337e+03
2.867632e+03,2.299242e+03
2.868596e+03,2.293368e+03
2.869560e+03,2.286273e+03
2.870525e+03,2.279113e+03
2.871489e+03,2.266865e+03
2.872453e+03,2.247261e+03
2.873417e+03,2.253308e+03
2.874382e+03,2.278860e+03
2.875346e+03,2.278895e+03
2.876310e+03,2.265792e+03
2.877274e+03,2.250441e+03
2.878239e+03,2.238346e+03
2.879203e+03,2.229262e+03
2.880167e+03,2.226949e+03
2.881131e+03,2.235779e+03
2.882095e+03,2.242754e+03
2.883060e+03,2.248415e+03
2.884024e+03,2.253254e+03
2.884988e+03,2.253627e+03
2.885952e+03,2.246144e+03
2.886917e+03,2.226918e+03
2.887881e+03,2.196802e+03
2.888845e+03,2.195626e+03
2.889809e+03,2.216716e+03
2.890773e+03,2.248021e+03
2.891738e+03,2.267167e+03
2.892702e+03,2.242427e+03
2.893666e+03,2.222299e+03
2.894630e+03,2.216340e+03
2.895595e+03,2.234714e+03
2.896559e+03,2.262373e+03
2.897523e+03,2.234009e+03
2.898487e+03,2.194307e+03
2.899452e+03,2.188465e+03
2.900416e+03,2.195794e+03
2.901380e+03,2.207609e+03
2.902344e+03,2.211829e+03
2.903309e+03,2.207314e+03
2.904273e+03,2.202365e+03
2.905237e+03,2.198820e+03
2.906201e+03,2.198704e+03
2.907166e+03,2.198730e+03
2.908130e+03,2.197839e+03
2.909094e+03,2.184102e+03
2.910058e+03,2.158570e+03
2.911022e+03,2.154287e+03
2.911987e+03,2.166118e+03
2.912951e+03,2.186438e+03
2.913915e+03,2.202198e+03
2.914879e+03,2.200988e+03
2.915844e+03,2.206065e+03
2.916808e+03,2.217956e+03
2.917772e+03,2.219649e+03
2.918736e+03,2.215062e+03
2.919700e+03,2.209851e+03
2.920665e+03,2.198095e+03
2.921629e+03,2.161205e+03
2.922593e+03,2.163938e+03
2.923557e+03,2.196406e+03
2.924522e+03,2.187794e+03
2.925486e+03,2.158979e+03
2.926450e+03,2.164635e+03
2.927414e+03,2.168948e+03
2.928379e+03,2.152176e+03
2.929343e+03,2.152865e+03
2.930307e+03,2.168984e+03
2.931271e+03,2.180190e+03
2.932236e+03,2.184259e+03
2.933200e+03,2.169055e+03
2.934164e+03,2.152826e+03
2.935128e+03,2.140503e+03
2.936093e+03,2.131804e+03
2.937057e+03,2.127741e+03
2.938021e+03,2.130311e+03
2.938985e+03,2.138631e+03
2.939949e+03,2.156209e+03
2.940914e+03,2.154323e+03
2.941878e+03,2.126347e+03
2.942842e+03,2.121215e+03
2.943806e+03,2.141976e+03
2.944771e+03,2.161559e+03
2.945735e+03,2.169181e+03
2.946699e+03,2.139877e+03
2.947663e+03,2.127742e+03
2.948627e+03,2.145483e+03
2.949592e+03,2.164282e+03
2.950556e+03,2.177664e+03
2.951520e+03,2.159654e+03
2.952484e+03,2.140102e+03
2.953449e+03,2.155545e+03
2.954413e+03,2.156256e+03
2.955377e+03,2.122812e+03
2.956341e+03,2.128224e+03
2.957306e+03,2.170058e+03
2.958270e+03,2.188169e+03
2.959234e+03,2.172153e+03
2.960198e+03,2.119383e+03
2.961163e+03,2.090581e+03
2.962127e+03,2.110377e+03
2.963091e+03,2.137830e+03
2.964055e+03,2.154526e+03
2.965020e+03,2.122955e+03
2.965984e+03,2.091690e+03
2.966948e+03,2.092505e+03
2.967912e+03,2.105738e+03
2.968876e+03,2.129341e+03
2.969841e+03,2.130968e+03
2.970805e+03,2.115825e+03
2.971769e+03,2.097853e+03
2.972733e+03,2.084085e+03
2.973698e+03,2.078294e+03
2.974662e+03,2.086833e+03
2.975626e+03,2.112856e+03
2.976590e+03,2.131218e+03
2.977554e+03,2.133167e+03
2.978519e+03,2.104371e+03
2.979483e+03,2.078341e+03
2.980447e+03,2.081852e+03
2.981411e+03,2.075009e+03
2.982376e+03,2.059051e+03
2.983340e+03,2.078017e+03
2.984304e+03,2.094579e+03
2.985268e+03,2.069587e+03
2.986233e+03,2.053902e+03
2.987197e+03,2.081795e+03
2.988161e+03,2.090893e+03
2.989125e+03,2.086304e+03
2.990090e+03,2.093457e+03
2.991054e+03,2.101718e+03
2.992018e+03,2.104210e+03
2.992982e+03,2.085051e+03
2.993947e+03,2.032349e+03
2.994911e+03,2.048587e+03
2.995875e+03,2.096213e+03
2.996839e+03,2.107351e+03
2.997803e+03,2.097230e+03
2.998768e+03,2.078992e+03
2.999732e+03,2.051985e+03
3.000696e+03,2.022935e+03
3.001660e+03,2.042520e+03
3.002625e+03,2.061010e+03
3.003589e+03,2.028719e+03
3.004553e+03,2.005422e+03
3.005517e+03,2.021777e+03
3.006481e+03,2.041729e+03
3.007446e+03,2.055864e+03
3.008410e+03,2.055976e+03
3.009374e+03,2.051165e+03
3.010338e+03,2.049868e+03
3.011303e+03,2.054201e+03
3.012267e+03,2.060869e+03
3.013231e+03,2.040424e+03
3.014195e+03,2.018819e+03
3.015160e+03,2.049494e+03
3.016124e+03,2.077946e+03
3.017088e+03,2.083940e+03
3.018052e+03,2.079658e+03
3.019017e+03,2.067124e+03
3.019981e+03,2.045324e+03
3.020945e+03,2.036620e+03
3.021909e+03,2.063675e+03
3.022874e+03,2.076924e+03
3.023838e+03,2.067409e+03
3.024802e+03,2.056229e+03
3.025766e+03,2.050033e+03
3.026730e+03,2.061799e+03
3.027695e+03,2.069330e+03
3.028659e+03,2.064395e+03
3.029623e+03,2.048991e+03
3.030587e+03,2.028626e+03
3.031552e+03,2.018631e+03
3.032516e+03,2.014789e+03
3.033480e+03,2.023106e+03
3.034444e+03,2.025252e+03
3.035408e+03,2.018302e+03
3.036373e+03,1.989587e+03
3.037337e+03,1.957402e+03
3.038301e+03,1.988892e+03
3.039265e+03,2.032657e+03
3.040230e+03,2.073236e+03
3.041194e+03,2.058589e+03
3.042158e+03,2.009802e+03
3.043122e+03,2.004149e+03
3.044087e+03,2.023391e+03
3.045051e+03,2.048364e+03
3.046015e+03,2.047679e+03
3.046979e+03,2.009785e+03
3.047944e+03,2.017813e+03
3.048908e+03,2.044687e+03
3.049872e+03,2.045686e+03
3.050836e+03,2.028962e+03
3.051801e+03,1.993957e+03
3.052765e+03,1.987161e+03
3.053729e+03,2.004236e+03
3.054693e+03,1.997399e+03
3.055657e+03,1.995224e+03
3.056622e+03,2.015562e+03
3.057586e+03,2.027603e+03
3.058550e+03,2.023401e+03
3.059514e+03,1.998690e+03
3.060479e+03,1.976550e+03
3.061443e+03,1.993333e+03
3.062407e+03,2.014524e+03
3.063371e+03,2.028142e+03
3.064335e+03,2.009529e+03
3.065300e+03,1.971744e+03
3.066264e+03,1.956984e+03
3.067228e+03,1.963327e+03
3.068192e+03,1.994424e+03
3.069157e+03,2.011052e+03
3.070121e+03,2.011921e+03
3.071085e+03,2.012712e+03
3.072049e+03,2.009995e+03
3.073014e+03,1.988265e+03
3.073978e+03,1.984299e+03
3.074942e+03,2.004170e+03
3.075906e+03,1.996700e+03
3.076871e+03,1.981358e+03
3.077835e+03,1.991650e+03
3.078799e+03,1.998789e+03
3.079763e+03,1.981216e+03
3.080728e+03,1.976897e+03
3.081692e+03,1.981776e+03
3.082656e+03,1.960586e+03
3.083620e+03,1.947433e+03
3.084584e+03,1.960939e+03
3.085549e+03,1.981344e+03
3.086513e+03,2.002455e+03
3.087477e+03,1.969410e+03
3.088441e+03,1.929786e+03
3.089406e+03,1.941495e+03
3.090370e+03,1.954568e+03
3.091334e+03,1.959517e+03
3.092298e+03,1.969108e+03
3.093262e+03,1.979069e+03
3.094227e+03,1.977019e+03
3.095191e+03,1.969488e+03
3.096155e+03,1.957758e+03
3.097119e+03,1.975640e+03
3.098084e+03,2.005585e+03
3.099048e+03,2.009012e+03
3.100012e+03,1.995428e+03
3.100976e+03,1.964114e+03
3.101941e+03,1.964055e+03
3.102905e+03,1.990931e+03
3.103869e+03,1.982904e+03
3.104833e+03,1.969837e+03
3.105798e+03,1.972950e+03
3.106762e+03,1.975870e+03
3.107726e+03,1.977530e+03
3.108690e+03,2.007923e+03
3.109655e+03,2.032006e+03
3.110619e+03,1.994220e+03
3.111583e+03,1.976795e+03
3.112547e+03,1.989193e+03
3.113511e+03,1.990028e+03
3.114476e+03,1.979024e+03
3.115440e+03,1.952874e+03
3.116404e+03,1.938355e+03
3.117368e+03,1.952691e+03
3.118333e+03,1.972818e+03
3.119297e+03,1.986184e+03
3.120261e+03,1.969935e+03
3.121225e+03,1.973085e+03
3.122189e+03,2.023105e+03
3.123154e+03,2.018418e+03
3.124118e+03,1.968063e+03
3.125082e+03,1.958329e+03
3.126046e+03,1.958949e+03
3.127011e+03,1.952139e+03
3.127975e+03,1.938036e+03
3.128939e+03,1.923334e+03
3.129903e+03,1.944927e+03
3.130868e+03,1.970842e+03
3.131832e+03,1.968717e+03
3.132796e+03,1.976790e+03
3.133760e+03,1.991245e+03
3.134725e+03,1.972778e+03
3.135689e+03,1.963137e+03
3.136653e+03,2.005309e+03
3.137617e+03,2.015099e+03
3.138582e+03,1.968553e+03
3.139546e+03,1.957066e+03
3.140510e+03,1.959639e+03
3.141474e+03,1.955406e+03
3.142438e+03,1.968354e+03
3.143403e+03,1.994801e+03
3.144367e+03,1.969048e+03
3.145331e+03,1.927530e+03
3.146295e+03,1.935646e+03
3.147260e+03,1.941180e+03
3.148224e+03,1.928775e+03
3.149188e+03,1.939179e+03
3.150152e+03,1.953077e+03
3.151116e+03,1.940955e+03
3.152081e+03,1.937448e+03
3.153045e+03,1.953792e+03
3.154009e+03,1.951579e+03
3.154973e+03,1.941856e+03
3.155938e+03,1.951077e+03
3.156902e+03,1.947560e+03
3.157866e+03,1.922770e+03
3.158830e+03,1.922943e+03
3.159795e+03,1.939143e+03
3.160759e+03,1.919324e+03
3.161723e+03,1.918423e+03
3.162687e+03,1.992452e+03
3.163652e+03,2.021813e+03
3.164616e+03,2.015466e+03
3.165580e+03,1.987742e+03
3.166544e+03,1.974395e+03
3.167509e+03,1.988841e+03
3.168473e+03,1.998664e+03
3.169437e+03,1.995174e+03
3.170401e+03,1.941211e+03
3.171365e+03,1.921068e+03
3.172330e+03,1.975238e+03
3.173294e+03,1.992675e+03
3.174258e+03,1.980847e+03
3.175222e+03,1.973355e+03
3.176187e+03,1.962304e+03
3.177151e+03,1.943897e+03
3.178115e+03,1.950100e+03
3.179079e+03,1.970071e+03
3.180043e+03,1.958982e+03
3.181008e+03,1.947463e+03
3.181972e+03,1.950602e+03
3.182936e+03,1.971056e+03
3.183900e+03,1.995899e+03
3.184865e+03,1.993623e+03
3.185829e+03,1.988215e+03
3.186793e+03,2.005923e+03
3.187757e+03,1.998128e+03
3.188722e+03,1.970565e+03
3.189686e+03,1.931553e+03
3.190650e+03,1.931524e+03
3.191614e+03,1.979737e+03
3.192579e+03,1.969015e+03
3.193543e+03,1.917553e+03
3.194507e+03,1.892318e+03
3.195471e+03,1.914805e+03
3.196436e+03,1.999547e+03
3.197400e+03,2.000887e+03
3.198364e+03,1.972806e+03
3.199328e+03,2.025237e+03
3.200292e+03,2.042804e+03
3.201257e+03,0.000000e+00
3.202221e+03,0.000000e+00
3.203185e+03,0.000000e+00
3.204149e+03,0.000000e+00
3.205114e+03,0.000000e+00
3.206078e+03,0.000000e+00
3.207042e+03,0.000000e+00
3.208006e+03,0.000000e+00
3.208970e+03,0.000000e+00
3.209935e+03,0.000000e+00
3.210899e+03,0.000000e+00
3.211863e+03,0.000000e+00
3.212827e+03,0.000000e+00
3.213792e+03,0.000000e+00
3.214756e+03,0.000000e+00
3.215720e+03,0.000000e+00
3.216684e+03,0.000000e+00
3.217649e+03,0.000000e+00
3.218613e+03,0.000000e+00
3.219577e+03,0.000000e+00
3.220541e+03,0.000000e+00
3.221506e+03,0.000000e+00
3.222470e+03,0.000000e+00
3.223434e+03,0.000000e+00
3.224398e+03,0.000000e+00
3.225363e+03,0.000000e+00
3.226327e+03,0.000000e+00
3.227291e+03,0.000000e+00
3.228255e+03,0.000000e+00
3.229219e+03,0.000000e+00
3.230184e+03,0.000000e+00
3.231148e+03,0.000000e+00
3.232112e+03,0.000000e+00
3.233076e+03,0.000000e+00
3.234041e+03,0.000000e+00
3.235005e+03,0.000000e+00
3.235969e+03,0.000000e+00
3.236933e+03,0.000000e+00
3.237897e+03,0.000000e+00
3.238862e+03,0.000000e+00
3.239826e+03,0.000000e+00
3.240790e+03,0.000000e+00
3.241754e+03,0.000000e+00
3.242719e+03,0.000000e+00
3.243683e+03,0.000000e+00
3.244647e+03,0.000000e+00
3.245611e+03,0.000000e+00
3.246576e+03,0.000000e+00
3.247540e+03,0.000000e+00
3.248504e+03,0.000000e+00
3.249468e+03,0.000000e+00
3.250433e+03,0.000000e+00
3.251397e+03,0.000000e+00
3.252361e+03,0.000000e+00
3.253325e+03,0.000000e+00
3.254290e+03,0.000000e+00
3.255254e+03,0.000000e+00
3.256218e+03,0.000000e+00
3.257182e+03,0.000000e+00
3.258146e+03,0.000000e+00
3.259111e+03,0.000000e+00
3.260075e+03,0.000000e+00
3.261039e+03,0.000000e+00
3.262003e+03,0.000000e+00
3.262968e+03,0.000000e+00
3.263932e+03,0.000000e+00
3.264896e+03,0.000000e+00
3.265860e+03,0.000000e+00
3.266824e+03,0.000000e+00
3.267789e+03,0.000000e+00
3.268753e+03,0.000000e+00
3.269717e+03,0.000000e+00
3.270681e+03,0.000000e+00
3.271646e+03,0.000000e+00
3.272610e+03,0.000000e+00
3.273574e+03,0.000000e+00
3.274538e+03,0.000000e+00
3.275503e+03,0.000000e+00
3.276467e+03,0.000000e+00
3.277431e+03,0.000000e+00
3.278395e+03,0.000000e+00
3.279360e+03,0.000000e+00
3.280324e+03,0.000000e+00
3.281288e+03,0.000000e+00
3.282252e+03,0.000000e+00
3.283217e+03,0.000000e+00
3.284181e+03,0.000000e+00
3.285145e+03,0.000000e+00
3.286109e+03,0.000000e+00
3.287073e+03,0.000000e+00
3.288038e+03,0.000000e+00
3.289002e+03,0.000000e+00
3.289966e+03,0.000000e+00
3.290930e+03,0.000000e+00
3.291895e+03,0.000000e+00
3.292859e+03,0.000000e+00
3.293823e+03,0.000000e+00
3.294787e+03,0.000000e+00
3.295751e+03,0.000000e+00
3.296716e+03,0.000000e+00
3.297680e+03,0.000000e+00
3.298644e+03,0.000000e+00
3.299608e+03,0.000000e+00
3.300573e+03,0.000000e+00
3.301537e+03,0.000000e+00
3.302501e+03,0.000000e+00
3.303465e+03,0.000000e+00
3.304430e+03,0.000000e+00
3.305394e+03,0.000000e+00
3.306358e+03,0.000000e+00
3.307322e+03,0.000000e+00
3.308287e+03,0.000000e+00
3.309251e+03,0.000000e+00
3.310215e+03,0.000000e+00
3.311179e+03,0.000000e+00
3.312144e+03,0.000000e+00
3.313108e+03,0.000000e+00
3.314072e+03,0.000000e+00
3.315036e+03,0.000000e+00
3.316000e+03,0.000000e+00
3.316965e+03,0.000000e+00
3.317929e+03,0.000000e+00
3.318893e+03,0.000000e+00
3.319857e+03,0.000000e+00
3.320822e+03,0.000000e+00
3.321786e+03,0.000000e+00
3.322750e+03,0.000000e+00
3.323714e+03,0.000000e+00
3.324678e+03,0.000000e+00
3.325643e+03,0.000000e+00
3.326607e+03,0.000000e+00
3.327571e+03,0.000000e+00
3.328535e+03,0.000000e+00
3.329500e+03,0.000000e+00
3.330464e+03,0.000000e+00
3.331428e+03,0.000000e+00
3.332392e+03,0.000000e+00
3.333357e+03,0.000000e+00
3.334321e+03,0.000000e+00
3.335285e+03,0.000000e+00
3.336249e+03,0.000000e+00
3.337214e+03,0.000000e+00
3.338178e+03,0.000000e+00
3.339142e+03,0.000000e+00
3.340106e+03,0.000000e+00
3.341071e+03,0.000000e+00
3.342035e+03,0.000000e+00
3.342999e+03,0.000000e+00
3.343963e+03,0.000000e+00
3.344927e+03,0.000000e+00
3.345892e+03,0.000000e+00
3.346856e+03,0.000000e+00
3.347820e+03,0.000000e+00
3.348784e+03,0.000000e+00
3.349749e+03,0.000000e+00
3.350713e+03,0.000000e+00
3.351677e+03,0.000000e+00
3.352641e+03,0.000000e+00
3.353605e+03,0.000000e+00
3.354570e+03,0.000000e+00
3.355534e+03,0.000000e+00
3.356498e+03,0.000000e+00
3.357462e+03,0.000000e+00
3.358427e+03,0.000000e+00
3.359391e+03,0.000000e+00
3.360355e+03,0.000000e+00
3.361319e+03,0.000000e+00
3.362284e+03,0.000000e+00
3.363248e+03,0.000000e+00
3.364212e+03,0.000000e+00
3.365176e+03,0.000000e+00
3.366141e+03,0.000000e+00
3.367105e+03,0.000000e+00
3.368069e+03,0.000000e+00
3.369033e+03,0.000000e+00
3.369998e+03,0.000000e+00
3.370962e+03,0.000000e+00
3.371926e+03,0.000000e+00
3.372890e+03,0.000000e+00
3.373854e+03,0.000000e+00
3.374819e+03,0.000000e+00
3.375783e+03,0.000000e+00
3.376747e+03,0.000000e+00
3.377711e+03,0.000000e+00
3.378676e+03,0.000000e+00
3.379640e+03,0.000000e+00
3.380604e+03,0.000000e+00
3.381568e+03,0.000000e+00
3.382532e+03,0.000000e+00
3.383497e+03,0.000000e+00
3.384461e+03,0.000000e+00
3.385425e+03,0.000000e+00
3.386389e+03,0.000000e+00
3.387354e+03,0.000000e+00
3.388318e+03,0.000000e+00
3.389282e+03,0.000000e+00
3.390246e+03,0.000000e+00
3.391211e+03,0.000000e+00
3.392175e+03,0.000000e+00
3.393139e+03,0.000000e+00
3.394103e+03,0.000000e+00
3.395068e+03,0.000000e+00
3.396032e+03,0.000000e+00
3.396996e+03,0.000000e+00
3.397960e+03,0.000000e+00
3.398925e+03,0.000000e+00
3.399889e+03,0.000000e+00
3.400853e+03,0.000000e+00
3.401817e+03,0.000000e+00
3.402781e+03,0.000000e+00
3.403746e+03,0.000000e+00
3.404710e+03,0.000000e+00
3.405674e+03,0.000000e+00
3.406638e+03,0.000000e+00
3.407603e+03,0.000000e+00
3.408567e+03,0.000000e+00
3.409531e+03,0.000000e+00
3.410495e+03,0.000000e+00
3.411459e+03,0.000000e+00
3.412424e+03,0.000000e+00
3.413388e+03,0.000000e+00
3.414352e+03,0.000000e+00
3.415316e+03,0.000000e+00
3.416281e+03,0.000000e+00
3.417245e+03,0.000000e+00
3.418209e+03,0.000000e+00
3.419173e+03,0.000000e+00
3.420138e+03,0.000000e+00
3.421102e+03,0.000000e+00
3.422066e+03,0.000000e+00
3.423030e+03,0.000000e+00
3.423995e+03,0.000000e+00
3.424959e+03,0.000000e+00
3.425923e+03,0.000000e+00
3.426887e+03,0.000000e+00
3.427852e+03,0.000000e+00
3.428816e+03,0.000000e+00
3.429780e+03,0.000000e+00
3.430744e+03,0.000000e+00
3.431708e+03,0.000000e+00
3.432673e+03,0.000000e+00
3.433637e+03,0.000000e+00
3.434601e+03,0.000000e+00
3.435565e+03,0.000000e+00
3.436530e+03,0.000000e+00
3.437494e+03,0.000000e+00
3.438458e+03,0.000000e+00
3.439422e+03,0.000000e+00
3.440386e+03,0.000000e+00
3.441351e+03,0.000000e+00
3.442315e+03,0.000000e+00
3.443279e+03,0.000000e+00
3.444243e+03,0.000000e+00
3.445208e+03,0.000000e+00
3.446172e+03,0.000000e+00
3.447136e+03,0.000000e+00
3.448100e+03,0.000000e+00
3.449065e+03,0.000000e+00
3.450029e+03,0.000000e+00
3.450993e+03,0.000000e+00
3.451957e+03,0.000000e+00
3.452922e+03,0.000000e+00
3.453886e+03,0.000000e+00
3.454850e+03,0.000000e+00
3.455814e+03,0.000000e+00
3.456779e+03,0.000000e+00
3.457743e+03,0.000000e+00
3.458707e+03,0.000000e+00
3.459671e+03,0.000000e+00
3.460635e+03,0.000000e+00
3.461600e+03,0.000000e+00
3.462564e+03,0.000000e+00
3.463528e+03,0.000000e+00
3.464492e+03,0.000000e+00
3.465457e+03,0.000000e+00
3.466421e+03,0.000000e+00
3.467385e+03,0.000000e+00
3.468349e+03,0.000000e+00
3.469313e+03,0.000000e+00
3.470278e+03,0.000000e+00
3.471242e+03,0.000000e+00
3.472206e+03,0.000000e+00
3.473170e+03,0.000000e+00
3.474135e+03,0.000000e+00
3.475099e+03,0.000000e+00
3.476063e+03,0.000000e+00
3.477027e+03,0.000000e+00
3.477992e+03,0.000000e+00
3.478956e+03,0.000000e+00
3.479920e+03,0.000000e+00
3.480884e+03,0.000000e+00
3.481849e+03,0.000000e+00
3.482813e+03,0.000000e+00
3.483777e+03,0.000000e+00
3.484741e+03,0.000000e+00
3.485706e+03,0.000000e+00
3.486670e+03,0.000000e+00
3.487634e+03,0.000000e+00
3.488598e+03,0.000000e+00
3.489563e+03,0.000000e+00
3.490527e+03,0.000000e+00
3.491491e+03,0.000000e+00
3.492455e+03,0.000000e+00
3.493419e+03,0.000000e+00
3.494384e+03,0.000000e+00
3.495348e+03,0.000000e+00
3.496312e+03,0.000000e+00
3.497276e+03,0.000000e+00
3.498240e+03,0.000000e+00
3.499205e+03,0.000000e+00
3.500169e+03,0.000000e+00
