9.931763e+01,0.000000e+00
1.002819e+02,0.000000e+00
1.012461e+02,0.000000e+00
1.022103e+02,0.000000e+00
1.031746e+02,0.000000e+00
1.041388e+02,0.000000e+00
1.051030e+02,0.000000e+00
1.060673e+02,0.000000e+00
1.070315e+02,0.000000e+00
1.079957e+02,0.000000e+00
1.089600e+02,0.000000e+00
1.099242e+02,0.000000e+00
1.108884e+02,0.000000e+00
1.118527e+02,0.000000e+00
1.128169e+02,0.000000e+00
1.137811e+02,0.000000e+00
1.147454e+02,0.000000e+00
1.157096e+02,0.000000e+00
1.166738e+02,0.000000e+00
1.176381e+02,0.000000e+00
1.186023e+02,0.000000e+00
1.195665e+02,0.000000e+00
1.205308e+02,0.000000e+00
1.214950e+02,0.000000e+00
1.224592e+02,0.000000e+00
1.234235e+02,0.000000e+00
1.243877e+02,0.000000e+00
1.253519e+02,0.000000e+00
1.263162e+02,0.000000e+00
1.272804e+02,0.000000e+00
1.282446e+02,0.000000e+00
1.292089e+02,0.000000e+00
1.301731e+02,0.000000e+00
1.311373e+02,0.000000e+00
1.321016e+02,0.000000e+00
1.330658e+02,0.000000e+00
1.340300e+02,0.000000e+00
1.349943e+02,0.000000e+00
1.359585e+02,0.000000e+00
1.369227e+02,0.000000e+00
1.378870e+02,0.000000e+00
1.388512e+02,0.000000e+00
1.398154e+02,0.000000e+00
1.407797e+02,0.000000e+00
1.417439e+02,0.000000e+00
1.427081e+02,0.000000e+00
1.436724e+02,0.000000e+00
1.446366e+02,0.000000e+00
1.456008e+02,0.000000e+00
1.465651e+02,0.000000e+00
1.475293e+02,0.000000e+00
1.484935e+02,0.000000e+00
1.494578e+02,0.000000e+00
1.504220e+02,0.000000e+00
1.513862e+02,0.000000e+00
1.523505e+02,0.000000e+00
1.533147e+02,0.000000e+00
1.542789e+02,0.000000e+00
1.552432e+02,0.000000e+00
1.562074e+02,0.000000e+00
1.571716e+02,0.000000e+00
1.581359e+02,0.000000e+00
1.591001e+02,0.000000e+00
1.600643e+02,0.000000e+00
1.610286e+02,0.000000e+00
1.619928e+02,0.000000e+00
1.629570e+02,0.000000e+00
1.639213e+02,0.000000e+00
1.648855e+02,0.000000e+00
1.658497e+02,0.000000e+00
1.668140e+02,0.000000e+00
1.677782e+02,0.000000e+00
1.687424e+02,0.000000e+00
1.697067e+02,0.000000e+00
1.706709e+02,0.000000e+00
1.716351e+02,0.000000e+00
1.725994e+02,0.000000e+00
1.735636e+02,0.000000e+00
1.745278e+02,0.000000e+00
1.754921e+02,0.000000e+00
1.764563e+02,0.000000e+00
1.774205e+02,0.000000e+00
1.783848e+02,0.000000e+00
1.793490e+02,0.000000e+00
1.803132e+02,0.000000e+00
1.812775e+02,0.000000e+00
1.822417e+02,0.000000e+00
1.832059e+02,0.000000e+00
1.841702e+02,0.000000e+00
1.851344e+02,0.000000e+00
1.860986e+02,0.000000e+00
1.870629e+02,0.000000e+00
1.880271e+02,0.000000e+00
1.889913e+02,0.000000e+00
1.899556e+02,0.000000e+00
1.909198e+02,0.000000e+00
1.918840e+02,0.000000e+00
1.928483e+02,0.000000e+00
1.938125e+02,0.000000e+00
1.947767e+02,0.000000e+00
1.957410e+02,0.000000e+00
1.967052e+02,0.000000e+00
1.976694e+02,0.000000e+00
1.986337e+02,0.000000e+00
1.995979e+02,3.551317e+03
2.005621e+02,3.551542e+03
2.015264e+02,3.553780e+03
2.024906e+02,3.560521e+03
2.034548e+02,3.567156e+03
2.044191e+02,3.571353e+03
2.053833e+02,3.572931e+03
2.063475e+02,3.573668e+03
2.073118e+02,3.576051e+03
2.082760e+02,3.581171e+03
2.092402e+02,3.584537e+03
2.102045e+02,3.585857e+03
2.111687e+02,3.587800e+03
2.121329e+02,3.591912e+03
2.130972e+02,3.598333e+03
2.140614e+02,3.605668e+03
2.150256e+02,3.612350e+03
2.159899e+02,3.620051e+03
2.169541e+02,3.625145e+03
2.179183e+02,3.623838e+03
2.188826e+02,3.618040e+03
2.198468e+02,3.615949e+03
2.208110e+02,3.627353e+03
2.217753e+02,3.651193e+03
2.227395e+02,3.666364e+03
2.237037e+02,3.665284e+03
2.246680e+02,3.658240e+03
2.256322e+02,3.653995e+03
2.265964e+02,3.655884e+03
2.275607e+02,3.661083e+03
2.285249e+02,3.665911e+03
2.294892e+02,3.670015e+03
2.304534e+02,3.676038e+03
2.314176e+02,3.686585e+03
2.323819e+02,3.699616e+03
2.333461e+02,3.708176e+03
2.343103e+02,3.706534e+03
2.352746e+02,3.700306e+03
2.362388e+02,3.699351e+03
2.372030e+02,3.706052e+03
2.381673e+02,3.715635e+03
2.391315e+02,3.721546e+03
2.400957e+02,3.721848e+03
2.410600e+02,3.724593e+03
2.420242e+02,3.737220e+03
2.429884e+02,3.757717e+03
2.439527e+02,3.775910e+03
2.449169e+02,3.782836e+03
2.458811e+02,3.775810e+03
2.468454e+02,3.775781e+03
2.478096e+02,3.788897e+03
2.487738e+02,3.804569e+03
2.497381e+02,3.816173e+03
2.507023e+02,3.822364e+03
2.516665e+02,3.824648e+03
2.526308e+02,3.824903e+03
2.535950e+02,3.815228e+03
2.545592e+02,3.810100e+03
2.555235e+02,3.814648e+03
2.564877e+02,3.823806e+03
2.574519e+02,3.831731e+03
2.584161e+02,3.835397e+03
2.593804e+02,3.835908e+03
2.603446e+02,3.838828e+03
2.613088e+02,3.843892e+03
2.622731e+02,3.849657e+03
2.632373e+02,3.856509e+03
2.642015e+02,3.863183e+03
2.651658e+02,3.867751e+03
2.661300e+02,3.867979e+03
2.670942e+02,3.863624e+03
2.680585e+02,3.863662e+03
2.690227e+02,3.871794e+03
2.699869e+02,3.883758e+03
2.709512e+02,3.897241e+03
2.719154e+02,3.914508e+03
2.728796e+02,3.932047e+03
2.738439e+02,3.944188e+03
2.748081e+02,3.950708e+03
2.757723e+02,3.957269e+03
2.767366e+02,3.963748e+03
2.777008e+02,3.968613e+03
2.786650e+02,3.972874e+03
2.796293e+02,3.978678e+03
2.805935e+02,3.985513e+03
2.815577e+02,3.992319e+03
2.825220e+02,3.999449e+03
2.834862e+02,4.003622e+03
2.844504e+02,3.998548e+03
2.854147e+02,3.979366e+03
2.863789e+02,3.961876e+03
2.873431e+02,3.950527e+03
2.883074e+02,3.945382e+03
2.892716e+02,3.945865e+03
2.902358e+02,3.951877e+03
2.912001e+02,3.962957e+03
2.921643e+02,3.968492e+03
2.931285e+02,3.965698e+03
2.940928e+02,3.962368e+03
2.950570e+02,3.960284e+03
2.960212e+02,3.959342e+03
2.969855e+02,3.959677e+03
2.979497e+02,3.963394e+03
2.989139e+02,3.975082e+03
2.998782e+02,3.980914e+03
3.008424e+02,3.977601e+03
3.018066e+02,3.972787e+03
3.027709e+02,3.971109e+03
3.037351e+02,3.974228e+03
3.046993e+02,3.978670e+03
3.056636e+02,3.977575e+03
3.066278e+02,3.967602e+03
3.075920e+02,3.962056e+03
3.085563e+02,3.971353e+03
3.095205e+02,3.990499e+03
3.104847e+02,4.006175e+03
3.114490e+02,4.008915e+03
3.124132e+02,4.003195e+03
3.133774e+02,3.998653e+03
3.143417e+02,3.995875e+03
3.153059e+02,3.994223e+03
3.162701e+02,3.995209e+03
3.172344e+02,4.001284e+03
3.181986e+02,4.006798e+03
3.191628e+02,4.008820e+03
3.201271e+02,4.009452e+03
3.210913e+02,4.012662e+03
3.220555e+02,4.020392e+03
3.230198e+02,4.031408e+03
3.239840e+02,4.039375e+03
3.249482e+02,4.045614e+03
3.259125e+02,4.047407e+03
3.268767e+02,4.040322e+03
3.278409e+02,4.027338e+03
3.288052e+02,4.015924e+03
3.297694e+02,4.012844e+03
3.307336e+02,4.019434e+03
3.316979e+02,4.026679e+03
3.326621e+02,4.034847e+03
3.336263e+02,4.042626e+03
3.345906e+02,4.050958e+03
3.355548e+02,4.061387e+03
3.365190e+02,4.070923e+03
3.374833e+02,4.074157e+03
3.384475e+02,4.069907e+03
3.394117e+02,4.066746e+03
3.403760e+02,4.066720e+03
3.413402e+02,4.068620e+03
3.423044e+02,4.070708e+03
3.432687e+02,4.071343e+03
3.442329e+02,4.072536e+03
3.451971e+02,4.075141e+03
3.461614e+02,4.078156e+03
3.471256e+02,4.081548e+03
3.480898e+02,4.087642e+03
3.490541e+02,4.099927e+03
3.500183e+02,4.107119e+03
3.509825e+02,4.106003e+03
3.519468e+02,4.103605e+03
3.529110e+02,4.104587e+03
3.538752e+02,4.109372e+03
3.548395e+02,4.115779e+03
3.558037e+02,4.121384e+03
3.567680e+02,4.126506e+03
3.577322e+02,4.130429e+03
3.586964e+02,4.134692e+03
3.596607e+02,4.139162e+03
3.606249e+02,4.142297e+03
3.615891e+02,4.141020e+03
3.625534e+02,4.135988e+03
3.635176e+02,4.132111e+03
3.644818e+02,4.131639e+03
3.654461e+02,4.131517e+03
3.664103e+02,4.131715e+03
3.673745e+02,4.133966e+03
3.683388e+02,4.137120e+03
3.693030e+02,4.135390e+03
3.702672e+02,4.132817e+03
3.712315e+02,4.138404e+03
3.721957e+02,4.154768e+03
3.731599e+02,4.173527e+03
3.741242e+02,4.183180e+03
3.750884e+02,4.177882e+03
3.760526e+02,4.175457e+03
3.770169e+02,4.178046e+03
3.779811e+02,4.182812e+03
3.789453e+02,4.186248e+03
3.799096e+02,4.186336e+03
3.808738e+02,4.183514e+03
3.818380e+02,4.180653e+03
3.828023e+02,4.179977e+03
3.837665e+02,4.180144e+03
3.847307e+02,4.179052e+03
3.856950e+02,4.177650e+03
3.866592e+02,4.178080e+03
3.876234e+02,4.182008e+03
3.885877e+02,4.188388e+03
3.895519e+02,4.194631e+03
3.905161e+02,4.200360e+03
3.914804e+02,4.204877e+03
3.924446e+02,4.207604e+03
3.934088e+02,4.209112e+03
3.943731e+02,4.211252e+03
3.953373e+02,4.216527e+03
3.963015e+02,4.221917e+03
3.972658e+02,4.222267e+03
3.982300e+02,4.215786e+03
3.991942e+02,4.206851e+03
4.001585e+02,4.204194e+03
4.011227e+02,4.210073e+03
4.020869e+02,4.217063e+03
4.030512e+02,4.224156e+03
4.040154e+02,4.230030e+03
4.049796e+02,4.234170e+03
4.059439e+02,4.235509e+03
4.069081e+02,4.234809e+03
4.078723e+02,4.235330e+03
4.088366e+02,4.236667e+03
4.098008e+02,4.236746e+03
4.107650e+02,4.235177e+03
4.117293e+02,4.232654e+03
4.126935e+02,4.233787e+03
4.136577e+02,4.245287e+03
4.146220e+02,4.259875e+03
4.155862e+02,4.265149e+03
4.165504e+02,4.257776e+03
4.175147e+02,4.246336e+03
4.184789e+02,4.244213e+03
4.194431e+02,4.267176e+03
4.204074e+02,4.280122e+03
4.213716e+02,4.274763e+03
4.223358e+02,4.261951e+03
4.233001e+02,4.253078e+03
4.242643e+02,4.253758e+03
4.252285e+02,4.261000e+03
4.261928e+02,4.267825e+03
4.271570e+02,4.275097e+03
4.281212e+02,4.280917e+03
4.290855e+02,4.282620e+03
4.300497e+02,4.281300e+03
4.310139e+02,4.280054e+03
4.319782e+02,4.281089e+03
4.329424e+02,4.283125e+03
4.339066e+02,4.283537e+03
4.348709e+02,4.281577e+03
4.358351e+02,4.279339e+03
4.367993e+02,4.279251e+03
4.377636e+02,4.283140e+03
4.387278e+02,4.285175e+03
4.396920e+02,4.284366e+03
4.406563e+02,4.283528e+03
4.416205e+02,4.284051e+03
4.425847e+02,4.286067e+03
4.435490e+02,4.288992e+03
4.445132e+02,4.292905e+03
4.454774e+02,4.298792e+03
4.464417e+02,4.304178e+03
4.474059e+02,4.308413e+03
4.483701e+02,4.310309e+03
4.493344e+02,4.309065e+03
4.502986e+02,4.300918e+03
4.512628e+02,4.294735e+03
4.522271e+02,4.298800e+03
4.531913e+02,4.311091e+03
4.541555e+02,4.322356e+03
4.551198e+02,4.326624e+03
4.560840e+02,4.324056e+03
4.570482e+02,4.322362e+03
4.580125e+02,4.325488e+03
4.589767e+02,4.329432e+03
4.599409e+02,4.330214e+03
4.609052e+02,4.327562e+03
4.618694e+02,4.325117e+03
4.628336e+02,4.328069e+03
4.637979e+02,4.335829e+03
4.647621e+02,4.339481e+03
4.657263e+02,4.337592e+03
4.666906e+02,4.335449e+03
4.676548e+02,4.337027e+03
4.686190e+02,4.343073e+03
4.695833e+02,4.347047e+03
4.705475e+02,4.344724e+03
4.715117e+02,4.339000e+03
4.724760e+02,4.334661e+03
4.734402e+02,4.333670e+03
4.744044e+02,4.334661e+03
4.753687e+02,4.333971e+03
4.763329e+02,4.330557e+03
4.772971e+02,4.327206e+03
4.782614e+02,4.321396e+03
4.792256e+02,4.317015e+03
4.801898e+02,4.319017e+03
4.811541e+02,4.333317e+03
4.821183e+02,4.350817e+03
4.830826e+02,4.357700e+03
4.840468e+02,4.353027e+03
4.850110e+02,4.346597e+03
4.859753e+02,4.344864e+03
4.869395e+02,4.347969e+03
4.879037e+02,4.349653e+03
4.888680e+02,4.350878e+03
4.898322e+02,4.350935e+03
4.907964e+02,4.348369e+03
4.917607e+02,4.344100e+03
4.927249e+02,4.341218e+03
4.936891e+02,4.342898e+03
4.946534e+02,4.349276e+03
4.956176e+02,4.355619e+03
4.965818e+02,4.362218e+03
4.975461e+02,4.368717e+03
4.985103e+02,4.374850e+03
4.994745e+02,4.380299e+03
5.004388e+02,4.382349e+03
5.014030e+02,4.377736e+03
5.023672e+02,4.370818e+03
5.033315e+02,4.369102e+03
5.042957e+02,4.375098e+03
5.052599e+02,4.384042e+03
5.062242e+02,4.386502e+03
5.071884e+02,4.377728e+03
5.081526e+02,4.371398e+03
5.091169e+02,4.372522e+03
5.100811e+02,4.376787e+03
5.110453e+02,4.377900e+03
5.120095e+02,4.371288e+03
5.129738e+02,4.364183e+03
5.139380e+02,4.366370e+03
5.149022e+02,4.377872e+03
5.158665e+02,4.391411e+03
5.168307e+02,4.402937e+03
5.177949e+02,4.410136e+03
5.187592e+02,4.409719e+03
5.197234e+02,4.400939e+03
5.206876e+02,4.392994e+03
5.216519e+02,4.389385e+03
5.226161e+02,4.390047e+03
5.235803e+02,4.392899e+03
5.245446e+02,4.396224e+03
5.255088e+02,4.400092e+03
5.264730e+02,4.406143e+03
5.274373e+02,4.416240e+03
5.284015e+02,4.425175e+03
5.293657e+02,4.425945e+03
5.303300e+02,4.417658e+03
5.312942e+02,4.411898e+03
5.322584e+02,4.413492e+03
5.332227e+02,4.420193e+03
5.341869e+02,4.428845e+03
5.351511e+02,4.438018e+03
5.361154e+02,4.447950e+03
5.370796e+02,4.460510e+03
5.380438e+02,4.477447e+03
5.390081e+02,4.492824e+03
5.399723e+02,4.509463e+03
5.409365e+02,4.522699e+03
5.419008e+02,4.525644e+03
5.428650e+02,4.509529e+03
5.438292e+02,4.495407e+03
5.447935e+02,4.497577e+03
5.457577e+02,4.510054e+03
5.467219e+02,4.520392e+03
5.476862e+02,4.523492e+03
5.486504e+02,4.521697e+03
5.496146e+02,4.522555e+03
5.505789e+02,4.528521e+03
5.515431e+02,4.532839e+03
5.525073e+02,4.533791e+03
5.534716e+02,4.535348e+03
5.544358e+02,4.540984e+03
5.554000e+02,4.554523e+03
5.563643e+02,4.568109e+03
5.573285e+02,4.574062e+03
5.582927e+02,4.572354e+03
5.592570e+02,4.566400e+03
5.602212e+02,4.558654e+03
5.611854e+02,4.548745e+03
5.621497e+02,4.537018e+03
5.631139e+02,4.519868e+03
5.640781e+02,4.501987e+03
5.650424e+02,4.486281e+03
5.660066e+02,4.472785e+03
5.669708e+02,4.459839e+03
5.679351e+02,4.445734e+03
5.688993e+02,4.432706e+03
5.698635e+02,4.424323e+03
5.708278e+02,4.421282e+03
5.717920e+02,4.423241e+03
5.727562e+02,4.430069e+03
5.737205e+02,4.444375e+03
5.746847e+02,4.450469e+03
5.756489e+02,4.439062e+03
5.766132e+02,4.426558e+03
5.775774e+02,4.424120e+03
5.785416e+02,4.432833e+03
5.795059e+02,4.441289e+03
5.804701e+02,4.437858e+03
5.814343e+02,4.426731e+03
5.823986e+02,4.422492e+03
5.833628e+02,4.429302e+03
5.843270e+02,4.439958e+03
5.852913e+02,4.444093e+03
5.862555e+02,4.431937e+03
5.872197e+02,4.428193e+03
5.881840e+02,4.440190e+03
5.891482e+02,4.455166e+03
5.901124e+02,4.461868e+03
5.910767e+02,4.456108e+03
5.920409e+02,4.448408e+03
5.930051e+02,4.449423e+03
5.939694e+02,4.457444e+03
5.949336e+02,4.465427e+03
5.958978e+02,4.472303e+03
5.968621e+02,4.476748e+03
5.978263e+02,4.476049e+03
5.987905e+02,4.464189e+03
5.997548e+02,4.455550e+03
6.007190e+02,4.450856e+03
6.016832e+02,4.450963e+03
6.026475e+02,4.456084e+03
6.036117e+02,4.466002e+03
6.045759e+02,4.479005e+03
6.055402e+02,4.494256e+03
6.065044e+02,4.510851e+03
6.074686e+02,4.526932e+03
6.084329e+02,4.544275e+03
6.093971e+02,4.561044e+03
6.103613e+02,4.565943e+03
6.113256e+02,4.550782e+03
6.122899e+02,4.532281e+03
6.132541e+02,4.510670e+03
6.142183e+02,4.487795e+03
6.151826e+02,4.466712e+03
6.161468e+02,4.448975e+03
6.171110e+02,4.435483e+03
6.180753e+02,4.426259e+03
6.190395e+02,4.420895e+03
6.200037e+02,4.419798e+03
6.209680e+02,4.424132e+03
6.219322e+02,4.434055e+03
6.228964e+02,4.440252e+03
6.238607e+02,4.440307e+03
6.248249e+02,4.438150e+03
6.257891e+02,4.432597e+03
6.267534e+02,4.423651e+03
6.277176e+02,4.414345e+03
6.286818e+02,4.405531e+03
6.296461e+02,4.399619e+03
6.306103e+02,4.400465e+03
6.315745e+02,4.407643e+03
6.325388e+02,4.415267e+03
6.335030e+02,4.417654e+03
6.344672e+02,4.413873e+03
6.354315e+02,4.412834e+03
6.363957e+02,4.416487e+03
6.373599e+02,4.418450e+03
6.383242e+02,4.416249e+03
6.392884e+02,4.410846e+03
6.402526e+02,4.405898e+03
6.412169e+02,4.402835e+03
6.421811e+02,4.400212e+03
6.431453e+02,4.395809e+03
6.441096e+02,4.389916e+03
6.450738e+02,4.385624e+03
6.460380e+02,4.388244e+03
6.470023e+02,4.398996e+03
6.479665e+02,4.404362e+03
6.489307e+02,4.400318e+03
6.498950e+02,4.393969e+03
6.508592e+02,4.390292e+03
6.518234e+02,4.388901e+03
6.527877e+02,4.386833e+03
6.537519e+02,4.383528e+03
6.547161e+02,4.380171e+03
6.556804e+02,4.377781e+03
6.566446e+02,4.376641e+03
6.576088e+02,4.376116e+03
6.585731e+02,4.376208e+03
6.595373e+02,4.376539e+03
6.605015e+02,4.374497e+03
6.614658e+02,4.369209e+03
6.624300e+02,4.363505e+03
6.633942e+02,4.359831e+03
6.643585e+02,4.357539e+03
6.653227e+02,4.358671e+03
6.662869e+02,4.366667e+03
6.672512e+02,4.374110e+03
6.682154e+02,4.375693e+03
6.691796e+02,4.370290e+03
6.701439e+02,4.363878e+03
6.711081e+02,4.359953e+03
6.720723e+02,4.358383e+03
6.730366e+02,4.360413e+03
6.740008e+02,4.366955e+03
6.749650e+02,4.373841e+03
6.759293e+02,4.376018e+03
6.768935e+02,4.372554e+03
6.778577e+02,4.369001e+03
6.788220e+02,4.367236e+03
6.797862e+02,4.366407e+03
6.807504e+02,4.363313e+03
6.817147e+02,4.355618e+03
6.826789e+02,4.350759e+03
6.836431e+02,4.355269e+03
6.846074e+02,4.360455e+03
6.855716e+02,4.356288e+03
6.865358e+02,4.342095e+03
6.875001e+02,4.326930e+03
6.884643e+02,4.322315e+03
6.894285e+02,4.328301e+03
6.903928e+02,4.330514e+03
6.913570e+02,4.326091e+03
6.923212e+02,4.318222e+03
6.932855e+02,4.310235e+03
6.942497e+02,4.300362e+03
6.952139e+02,4.298257e+03
6.961782e+02,4.310232e+03
6.971424e+02,4.324842e+03
6.981066e+02,4.333823e+03
6.990709e+02,4.333917e+03
7.000351e+02,4.327296e+03
7.009993e+02,4.312176e+03
7.019636e+02,4.295232e+03
7.029278e+02,4.290612e+03
7.038920e+02,4.300924e+03
7.048563e+02,4.314804e+03
7.058205e+02,4.319154e+03
7.067847e+02,4.312891e+03
7.077490e+02,4.306816e+03
7.087132e+02,4.302272e+03
7.096774e+02,4.300969e+03
7.106417e+02,4.301442e+03
7.116059e+02,4.303891e+03
7.125701e+02,4.302862e+03
7.135344e+02,4.294432e+03
7.144986e+02,4.284926e+03
7.154628e+02,4.278569e+03
7.164271e+02,4.275797e+03
7.173913e+02,4.276202e+03
7.183555e+02,4.282951e+03
7.193198e+02,4.293572e+03
7.202840e+02,4.294717e+03
7.212482e+02,4.283599e+03
7.222125e+02,4.270527e+03
7.231767e+02,4.265654e+03
7.241409e+02,4.270750e+03
7.251052e+02,4.275612e+03
7.260694e+02,4.282929e+03
7.270336e+02,4.287453e+03
7.279979e+02,4.286213e+03
7.289621e+02,4.278680e+03
7.299263e+02,4.270983e+03
7.308906e+02,4.264965e+03
7.318548e+02,4.259656e+03
7.328190e+02,4.254646e+03
7.337833e+02,4.249900e+03
7.347475e+02,4.245328e+03
7.357117e+02,4.240886e+03
7.366760e+02,4.237557e+03
7.376402e+02,4.238915e+03
7.386044e+02,4.246855e+03
7.395687e+02,4.255279e+03
7.405329e+02,4.258265e+03
7.414971e+02,4.254351e+03
7.424614e+02,4.249891e+03
7.434256e+02,4.245028e+03
7.443898e+02,4.243859e+03
7.453541e+02,4.248170e+03
7.463183e+02,4.255197e+03
7.472825e+02,4.258848e+03
7.482468e+02,4.255931e+03
7.492110e+02,4.249202e+03
7.501752e+02,4.242241e+03
7.511395e+02,4.237061e+03
7.521037e+02,4.234043e+03
7.530679e+02,4.232212e+03
7.540322e+02,4.230373e+03
7.549964e+02,4.227325e+03
7.559606e+02,4.223231e+03
7.569249e+02,4.220925e+03
7.578891e+02,4.222927e+03
7.588533e+02,4.230038e+03
7.598176e+02,4.235458e+03
7.607818e+02,4.234917e+03
7.617460e+02,4.230131e+03
7.627103e+02,4.220739e+03
7.636745e+02,4.210351e+03
7.646387e+02,4.204733e+03
7.656030e+02,4.207213e+03
7.665672e+02,4.214150e+03
7.675314e+02,4.222583e+03
7.684957e+02,4.229289e+03
7.694599e+02,4.231699e+03
7.704241e+02,4.230380e+03
7.713884e+02,4.227542e+03
7.723526e+02,4.225146e+03
7.733168e+02,4.224064e+03
7.742811e+02,4.224592e+03
7.752453e+02,4.223744e+03
7.762095e+02,4.221291e+03
7.771738e+02,4.224498e+03
7.781380e+02,4.241737e+03
7.791022e+02,4.250649e+03
7.800665e+02,4.243181e+03
7.810307e+02,4.227437e+03
7.819949e+02,4.216143e+03
7.829592e+02,4.218684e+03
7.839234e+02,4.222562e+03
7.848876e+02,4.220057e+03
7.858519e+02,4.213688e+03
7.868161e+02,4.207888e+03
7.877803e+02,4.204200e+03
7.887446e+02,4.202635e+03
7.897088e+02,4.206501e+03
7.906730e+02,4.216087e+03
7.916373e+02,4.223225e+03
7.926015e+02,4.223599e+03
7.935657e+02,4.215619e+03
7.945300e+02,4.199639e+03
7.954942e+02,4.171475e+03
7.964584e+02,4.151070e+03
7.974227e+02,4.148643e+03
7.983869e+02,4.157137e+03
7.993511e+02,4.163217e+03
8.003154e+02,4.163565e+03
8.012796e+02,4.159919e+03
8.022438e+02,4.152913e+03
8.032081e+02,4.145222e+03
8.041723e+02,4.138200e+03
8.051365e+02,4.131457e+03
8.061008e+02,4.125874e+03
8.070650e+02,4.121357e+03
8.080292e+02,4.117199e+03
8.089935e+02,4.115164e+03
8.099577e+02,4.116455e+03
8.109219e+02,4.117800e+03
8.118862e+02,4.113072e+03
8.128504e+02,4.102638e+03
8.138146e+02,4.099985e+03
8.147789e+02,4.107417e+03
8.157431e+02,4.115369e+03
8.167073e+02,4.116825e+03
8.176716e+02,4.112461e+03
8.186358e+02,4.110563e+03
8.196000e+02,4.113905e+03
8.205643e+02,4.116534e+03
8.215285e+02,4.112507e+03
8.224927e+02,4.102699e+03
8.234570e+02,4.096140e+03
8.244212e+02,4.097938e+03
8.253854e+02,4.101451e+03
8.263497e+02,4.103064e+03
8.273139e+02,4.101236e+03
8.282781e+02,4.095626e+03
8.292424e+02,4.084239e+03
8.302066e+02,4.073636e+03
8.311708e+02,4.073529e+03
8.321351e+02,4.082069e+03
8.330993e+02,4.089934e+03
8.340635e+02,4.091496e+03
8.350278e+02,4.088240e+03
8.359920e+02,4.085848e+03
8.369562e+02,4.084684e+03
8.379205e+02,4.083379e+03
8.388847e+02,4.081927e+03
8.398489e+02,4.079955e+03
8.408132e+02,4.075585e+03
8.417774e+02,4.062878e+03
8.427416e+02,4.054916e+03
8.437059e+02,4.055781e+03
8.446701e+02,4.060556e+03
8.456343e+02,4.064795e+03
8.465986e+02,4.068899e+03
8.475628e+02,4.069400e+03
8.485270e+02,4.062632e+03
8.494913e+02,4.052889e+03
8.504555e+02,4.044616e+03
8.514197e+02,4.039319e+03
8.523840e+02,4.036785e+03
8.533482e+02,4.038454e+03
8.543124e+02,4.041013e+03
8.552767e+02,4.037536e+03
8.562409e+02,4.027047e+03
8.572051e+02,4.016196e+03
8.581694e+02,4.013562e+03
8.591336e+02,4.018930e+03
8.600978e+02,4.023612e+03
8.610621e+02,4.028410e+03
8.620263e+02,4.031261e+03
8.629905e+02,4.028870e+03
8.639548e+02,4.019403e+03
8.649190e+02,4.011176e+03
8.658832e+02,4.005882e+03
8.668475e+02,4.003474e+03
8.678117e+02,4.005019e+03
8.687759e+02,4.009281e+03
8.697402e+02,4.012457e+03
8.707044e+02,4.012130e+03
8.716686e+02,4.008719e+03
8.726329e+02,4.003438e+03
8.735971e+02,3.998062e+03
8.745613e+02,3.994111e+03
8.755256e+02,3.994857e+03
8.764898e+02,3.996608e+03
8.774540e+02,3.994283e+03
8.784183e+02,3.990193e+03
8.793825e+02,3.989902e+03
8.803467e+02,3.996382e+03
8.813110e+02,4.002691e+03
8.822752e+02,3.997293e+03
8.832394e+02,3.985218e+03
8.842037e+02,3.983456e+03
8.851679e+02,3.995840e+03
8.861321e+02,4.010420e+03
8.870964e+02,4.010343e+03
8.880606e+02,3.994448e+03
8.890248e+02,3.981664e+03
8.899891e+02,3.976303e+03
8.909533e+02,3.973208e+03
8.919175e+02,3.966083e+03
8.928818e+02,3.952805e+03
8.938460e+02,3.944724e+03
8.948102e+02,3.942863e+03
8.957745e+02,3.943106e+03
8.967387e+02,3.944656e+03
8.977029e+02,3.946550e+03
8.986672e+02,3.946519e+03
8.996314e+02,3.946922e+03
9.005956e+02,3.947178e+03
9.015599e+02,3.946560e+03
9.025241e+02,3.944343e+03
9.034883e+02,3.940224e+03
9.044526e+02,3.932472e+03
9.054168e+02,3.922387e+03
9.063810e+02,3.912273e+03
9.073453e+02,3.904585e+03
9.083095e+02,3.900104e+03
9.092737e+02,3.898002e+03
9.102380e+02,3.896836e+03
9.112022e+02,3.896195e+03
9.121664e+02,3.895481e+03
9.131307e+02,3.894220e+03
9.140949e+02,3.893605e+03
9.150591e+02,3.894435e+03
9.160234e+02,3.895426e+03
9.169876e+02,3.894360e+03
9.179518e+02,3.889643e+03
9.189161e+02,3.880955e+03
9.198803e+02,3.870280e+03
9.208445e+02,3.859809e+03
9.218088e+02,3.850122e+03
9.227730e+02,3.847768e+03
9.237372e+02,3.854959e+03
9.247015e+02,3.862266e+03
9.256657e+02,3.864320e+03
9.266299e+02,3.860785e+03
9.275942e+02,3.853238e+03
9.285584e+02,3.831599e+03
9.295226e+02,3.816390e+03
9.304869e+02,3.820388e+03
9.314511e+02,3.838076e+03
9.324153e+02,3.849740e+03
9.333796e+02,3.849116e+03
9.343438e+02,3.847553e+03
9.353080e+02,3.847711e+03
9.362723e+02,3.847008e+03
9.372365e+02,3.843431e+03
9.382007e+02,3.838207e+03
9.391650e+02,3.832680e+03
9.401292e+02,3.825562e+03
9.410934e+02,3.818739e+03
9.420577e+02,3.813585e+03
9.430219e+02,3.810133e+03
9.439861e+02,3.807309e+03
9.449504e+02,3.805560e+03
9.459146e+02,3.806541e+03
9.468788e+02,3.811727e+03
9.478431e+02,3.818406e+03
9.488073e+02,3.820008e+03
9.497715e+02,3.810365e+03
9.507358e+02,3.794704e+03
9.517000e+02,3.782841e+03
9.526642e+02,3.776201e+03
9.536285e+02,3.774274e+03
9.545927e+02,3.777491e+03
9.555569e+02,3.783365e+03
9.565212e+02,3.783562e+03
9.574854e+02,3.779238e+03
9.584496e+02,3.775754e+03
9.594139e+02,3.773462e+03
9.603781e+02,3.771241e+03
9.613423e+02,3.769451e+03
9.623066e+02,3.768760e+03
9.632708e+02,3.766082e+03
9.642350e+02,3.760746e+03
9.651993e+02,3.755496e+03
9.661635e+02,3.752997e+03
9.671277e+02,3.753806e+03
9.680920e+02,3.752737e+03
9.690562e+02,3.749022e+03
9.700204e+02,3.743579e+03
9.709847e+02,3.737909e+03
9.719489e+02,3.732816e+03
9.729131e+02,3.729433e+03
9.738774e+02,3.729646e+03
9.748416e+02,3.731495e+03
9.758058e+02,3.734045e+03
9.767701e+02,3.735659e+03
9.777343e+02,3.733778e+03
9.786985e+02,3.723616e+03
9.796628e+02,3.713807e+03
9.806270e+02,3.709445e+03
9.815912e+02,3.707451e+03
9.825555e+02,3.702687e+03
9.835197e+02,3.692188e+03
9.844839e+02,3.684208e+03
9.854482e+02,3.683626e+03
9.864124e+02,3.687285e+03
9.873766e+02,3.691548e+03
9.883409e+02,3.696297e+03
9.893051e+02,3.698426e+03
9.902693e+02,3.692992e+03
9.912336e+02,3.686046e+03
9.921978e+02,3.683682e+03
9.931620e+02,3.684980e+03
9.941263e+02,3.684683e+03
9.950905e+02,3.676708e+03
9.960547e+02,3.667441e+03
9.970190e+02,3.666469e+03
9.979832e+02,3.671435e+03
9.989474e+02,3.673867e+03
9.999117e+02,3.669941e+03
1.000876e+03,3.662568e+03
1.001840e+03,3.652955e+03
1.002804e+03,3.643567e+03
1.003769e+03,3.640661e+03
1.004733e+03,3.646186e+03
1.005697e+03,3.654283e+03
1.006661e+03,3.656291e+03
1.007626e+03,3.654036e+03
1.008590e+03,3.655572e+03
1.009554e+03,3.661739e+03
1.010518e+03,3.666424e+03
1.011482e+03,3.662769e+03
1.012447e+03,3.651812e+03
1.013411e+03,3.642557e+03
1.014375e+03,3.637173e+03
1.015339e+03,3.633721e+03
1.016304e+03,3.629929e+03
1.017268e+03,3.625492e+03
1.018232e+03,3.620157e+03
1.019196e+03,3.613090e+03
1.020161e+03,3.607904e+03
1.021125e+03,3.607170e+03
1.022089e+03,3.610168e+03
1.023053e+03,3.612863e+03
1.024018e+03,3.614438e+03
1.024982e+03,3.612519e+03
1.025946e+03,3.605063e+03
1.026910e+03,3.594129e+03
1.027875e+03,3.583387e+03
1.028839e+03,3.572500e+03
1.029803e+03,3.571623e+03
1.030767e+03,3.586042e+03
1.031731e+03,3.601587e+03
1.032696e+03,3.607425e+03
1.033660e+03,3.602794e+03
1.034624e+03,3.598182e+03
1.035588e+03,3.595097e+03
1.036552e+03,3.591877e+03
1.037517e+03,3.585856e+03
1.038481e+03,3.577550e+03
1.039445e+03,3.572979e+03
1.040409e+03,3.575234e+03
1.041374e+03,3.576419e+03
1.042338e+03,3.576074e+03
1.043302e+03,3.575146e+03
1.044266e+03,3.574167e+03
1.045231e+03,3.575570e+03
1.046195e+03,3.571433e+03
1.047159e+03,3.556216e+03
1.048123e+03,3.541613e+03
1.049088e+03,3.535931e+03
1.050052e+03,3.541472e+03
1.051016e+03,3.546739e+03
1.051980e+03,3.551593e+03
1.052945e+03,3.555462e+03
1.053909e+03,3.556419e+03
1.054873e+03,3.553487e+03
1.055837e+03,3.549286e+03
1.056802e+03,3.544432e+03
1.057766e+03,3.540275e+03
1.058730e+03,3.540143e+03
1.059694e+03,3.540326e+03
1.060658e+03,3.534877e+03
1.061623e+03,3.516823e+03
1.062587e+03,3.507343e+03
1.063551e+03,3.517729e+03
1.064515e+03,3.530912e+03
1.065479e+03,3.532786e+03
1.066444e+03,3.522179e+03
1.067408e+03,3.517499e+03
1.068372e+03,3.526499e+03
1.069336e+03,3.536832e+03
1.070301e+03,3.541821e+03
1.071265e+03,3.541594e+03
1.072229e+03,3.540423e+03
1.073193e+03,3.538731e+03
1.074158e+03,3.536401e+03
1.075122e+03,3.533577e+03
1.076086e+03,3.530176e+03
1.077050e+03,3.526572e+03
1.078015e+03,3.523948e+03
1.078979e+03,3.524228e+03
1.079943e+03,3.528816e+03
1.080907e+03,3.534489e+03
1.081872e+03,3.538125e+03
1.082836e+03,3.538501e+03
1.083800e+03,3.537700e+03
1.084764e+03,3.538266e+03
1.085729e+03,3.537491e+03
1.086693e+03,3.533047e+03
1.087657e+03,3.525554e+03
1.088621e+03,3.517650e+03
1.089585e+03,3.509434e+03
1.090550e+03,3.499733e+03
1.091514e+03,3.488311e+03
1.092478e+03,3.478023e+03
1.093442e+03,3.471423e+03
1.094406e+03,3.470170e+03
1.095371e+03,3.469703e+03
1.096335e+03,3.468500e+03
1.097299e+03,3.466946e+03
1.098263e+03,3.465322e+03
1.099228e+03,3.463264e+03
1.100192e+03,3.460868e+03
1.101156e+03,3.458715e+03
1.102120e+03,3.454966e+03
1.103085e+03,3.447740e+03
1.104049e+03,3.439060e+03
1.105013e+03,3.432915e+03
1.105977e+03,3.432485e+03
1.106942e+03,3.431832e+03
1.107906e+03,3.428796e+03
1.108870e+03,3.426300e+03
1.109834e+03,3.428433e+03
1.110799e+03,3.438789e+03
1.111763e+03,3.440559e+03
1.112727e+03,3.423061e+03
1.113691e+03,3.406050e+03
1.114656e+03,3.397730e+03
1.115620e+03,3.397858e+03
1.116584e+03,3.403004e+03
1.117548e+03,3.424481e+03
1.118512e+03,3.434310e+03
1.119477e+03,3.415135e+03
1.120441e+03,3.384763e+03
1.121405e+03,3.370786e+03
1.122369e+03,3.391005e+03
1.123334e+03,3.401170e+03
1.124298e+03,3.395798e+03
1.125262e+03,3.386311e+03
1.126226e+03,3.380388e+03
1.127191e+03,3.378678e+03
1.128155e+03,3.376978e+03
1.129119e+03,3.373838e+03
1.130083e+03,3.371015e+03
1.131047e+03,3.368823e+03
1.132012e+03,3.366515e+03
1.132976e+03,3.364266e+03
1.133940e+03,3.362650e+03
1.134904e+03,3.359578e+03
1.135869e+03,3.355557e+03
1.136833e+03,3.351143e+03
1.137797e+03,3.346701e+03
1.138761e+03,3.343250e+03
1.139726e+03,3.339951e+03
1.140690e+03,3.335723e+03
1.141654e+03,3.332540e+03
1.142618e+03,3.331707e+03
1.143583e+03,3.332996e+03
1.144547e+03,3.333067e+03
1.145511e+03,3.332073e+03
1.146475e+03,3.328267e+03
1.147439e+03,3.319644e+03
1.148404e+03,3.310511e+03
1.149368e+03,3.308357e+03
1.150332e+03,3.313706e+03
1.151296e+03,3.316262e+03
1.152261e+03,3.313205e+03
1.153225e+03,3.306787e+03
1.154189e+03,3.301490e+03
1.155153e+03,3.298236e+03
1.156118e+03,3.292587e+03
1.157082e+03,3.285502e+03
1.158046e+03,3.281107e+03
1.159010e+03,3.280357e+03
1.159974e+03,3.281645e+03
1.160939e+03,3.281359e+03
1.161903e+03,3.279329e+03
1.162867e+03,3.279475e+03
1.163831e+03,3.282517e+03
1.164796e+03,3.285538e+03
1.165760e+03,3.287757e+03
1.166724e+03,3.288539e+03
1.167688e+03,3.282780e+03
1.168653e+03,3.271599e+03
1.169617e+03,3.262982e+03
1.170581e+03,3.263941e+03
1.171545e+03,3.268637e+03
1.172510e+03,3.268981e+03
1.173474e+03,3.266242e+03
1.174438e+03,3.261377e+03
1.175402e+03,3.253675e+03
1.176366e+03,3.248280e+03
1.177331e+03,3.253823e+03
1.178295e+03,3.262725e+03
1.179259e+03,3.263508e+03
1.180223e+03,3.255970e+03
1.181188e+03,3.249680e+03
1.182152e+03,3.252978e+03
1.183116e+03,3.256997e+03
1.184080e+03,3.256972e+03
1.185045e+03,3.254167e+03
1.186009e+03,3.249778e+03
1.186973e+03,3.243766e+03
1.187937e+03,3.239554e+03
1.188901e+03,3.239448e+03
1.189866e+03,3.240111e+03
1.190830e+03,3.237738e+03
1.191794e+03,3.231250e+03
1.192758e+03,3.225739e+03
1.193723e+03,3.225144e+03
1.194687e+03,3.225176e+03
1.195651e+03,3.223045e+03
1.196615e+03,3.219580e+03
1.197580e+03,3.217184e+03
1.198544e+03,3.216699e+03
1.199508e+03,3.211262e+03
1.200472e+03,3.199026e+03
1.201437e+03,3.186413e+03
1.202401e+03,3.179362e+03
1.203365e+03,3.179375e+03
1.204329e+03,3.179563e+03
1.205293e+03,3.179437e+03
1.206258e+03,3.179623e+03
1.207222e+03,3.180336e+03
1.208186e+03,3.180644e+03
1.209150e+03,3.177847e+03
1.210115e+03,3.170446e+03
1.211079e+03,3.166124e+03
1.212043e+03,3.167237e+03
1.213007e+03,3.168827e+03
1.213972e+03,3.165366e+03
1.214936e+03,3.158757e+03
1.215900e+03,3.155408e+03
1.216864e+03,3.155488e+03
1.217828e+03,3.157455e+03
1.218793e+03,3.161203e+03
1.219757e+03,3.165332e+03
1.220721e+03,3.166231e+03
1.221685e+03,3.165800e+03
1.222650e+03,3.168421e+03
1.223614e+03,3.174404e+03
1.224578e+03,3.178763e+03
1.225542e+03,3.177202e+03
1.226507e+03,3.173833e+03
1.227471e+03,3.173864e+03
1.228435e+03,3.175498e+03
1.229399e+03,3.172925e+03
1.230364e+03,3.160136e+03
1.231328e+03,3.147615e+03
1.232292e+03,3.144639e+03
1.233256e+03,3.145924e+03
1.234220e+03,3.141863e+03
1.235185e+03,3.128095e+03
1.236149e+03,3.119992e+03
1.237113e+03,3.125928e+03
1.238077e+03,3.134485e+03
1.239042e+03,3.137391e+03
1.240006e+03,3.133814e+03
1.240970e+03,3.129470e+03
1.241934e+03,3.122433e+03
1.242899e+03,3.118202e+03
1.243863e+03,3.121058e+03
1.244827e+03,3.125280e+03
1.245791e+03,3.122061e+03
1.246755e+03,3.109745e+03
1.247720e+03,3.099547e+03
1.248684e+03,3.092050e+03
1.249648e+03,3.086688e+03
1.250612e+03,3.082405e+03
1.251577e+03,3.079451e+03
1.252541e+03,3.082207e+03
1.253505e+03,3.089183e+03
1.254469e+03,3.090417e+03
1.255434e+03,3.083089e+03
1.256398e+03,3.074501e+03
1.257362e+03,3.072203e+03
1.258326e+03,3.073228e+03
1.259291e+03,3.073458e+03
1.260255e+03,3.072290e+03
1.261219e+03,3.070763e+03
1.262183e+03,3.075002e+03
1.263147e+03,3.077243e+03
1.264112e+03,3.068752e+03
1.265076e+03,3.054824e+03
1.266040e+03,3.041912e+03
1.267004e+03,3.030687e+03
1.267969e+03,3.024785e+03
1.268933e+03,3.030761e+03
1.269897e+03,3.040167e+03
1.270861e+03,3.046962e+03
1.271826e+03,3.048529e+03
1.272790e+03,3.045404e+03
1.273754e+03,3.035012e+03
1.274718e+03,3.026517e+03
1.275682e+03,3.022608e+03
1.276647e+03,3.022749e+03
1.277611e+03,3.026952e+03
1.278575e+03,3.036340e+03
1.279539e+03,3.036444e+03
1.280504e+03,3.027734e+03
1.281468e+03,3.017145e+03
1.282432e+03,3.005973e+03
1.283396e+03,2.997142e+03
1.284361e+03,3.000838e+03
1.285325e+03,3.013174e+03
1.286289e+03,3.020035e+03
1.287253e+03,3.017507e+03
1.288218e+03,3.013422e+03
1.289182e+03,3.018670e+03
1.290146e+03,3.025232e+03
1.291110e+03,3.021841e+03
1.292074e+03,3.010863e+03
1.293039e+03,3.001574e+03
1.294003e+03,2.999846e+03
1.294967e+03,2.997578e+03
1.295931e+03,2.990534e+03
1.296896e+03,2.983402e+03
1.297860e+03,2.981216e+03
1.298824e+03,2.985766e+03
1.299788e+03,2.987167e+03
1.300753e+03,2.981646e+03
1.301717e+03,2.976854e+03
1.302681e+03,2.975455e+03
1.303645e+03,2.977178e+03
1.304609e+03,2.982375e+03
1.305574e+03,2.990949e+03
1.306538e+03,2.995083e+03
1.307502e+03,2.994905e+03
1.308466e+03,2.992526e+03
1.309431e+03,2.986605e+03
1.310395e+03,2.979638e+03
1.311359e+03,2.982522e+03
1.312323e+03,2.991556e+03
1.313288e+03,2.994326e+03
1.314252e+03,2.984741e+03
1.315216e+03,2.974780e+03
1.316180e+03,2.977628e+03
1.317145e+03,2.984562e+03
1.318109e+03,2.982377e+03
1.319073e+03,2.968927e+03
1.320037e+03,2.958643e+03
1.321001e+03,2.964708e+03
1.321966e+03,2.966758e+03
1.322930e+03,2.951217e+03
1.323894e+03,2.929723e+03
1.324858e+03,2.921891e+03
1.325823e+03,2.935963e+03
1.326787e+03,2.944144e+03
1.327751e+03,2.943348e+03
1.328715e+03,2.940549e+03
1.329680e+03,2.940823e+03
1.330644e+03,2.943316e+03
1.331608e+03,2.942953e+03
1.332572e+03,2.939806e+03
1.333536e+03,2.938755e+03
1.334501e+03,2.940957e+03
1.335465e+03,2.942516e+03
1.336429e+03,2.941125e+03
1.337393e+03,2.937392e+03
1.338358e+03,2.929958e+03
1.339322e+03,2.920031e+03
1.340286e+03,2.912175e+03
1.341250e+03,2.910181e+03
1.342215e+03,2.908671e+03
1.343179e+03,2.906335e+03
1.344143e+03,2.905545e+03
1.345107e+03,2.907589e+03
1.346072e+03,2.912743e+03
1.347036e+03,2.914656e+03
1.348000e+03,2.910898e+03
1.348964e+03,2.906712e+03
1.349928e+03,2.905071e+03
1.350893e+03,2.905427e+03
1.351857e+03,2.903727e+03
1.352821e+03,2.899535e+03
1.353785e+03,2.899715e+03
1.354750e+03,2.904796e+03
1.355714e+03,2.907225e+03
1.356678e+03,2.899364e+03
1.357642e+03,2.888409e+03
1.358607e+03,2.882586e+03
1.359571e+03,2.880589e+03
1.360535e+03,2.880651e+03
1.361499e+03,2.883775e+03
1.362464e+03,2.885893e+03
1.363428e+03,2.884873e+03
1.364392e+03,2.883415e+03
1.365356e+03,2.881291e+03
1.366320e+03,2.877581e+03
1.367285e+03,2.875487e+03
1.368249e+03,2.877375e+03
1.369213e+03,2.878540e+03
1.370177e+03,2.878359e+03
1.371142e+03,2.876755e+03
1.372106e+03,2.873727e+03
1.373070e+03,2.869303e+03
1.374034e+03,2.863058e+03
1.374999e+03,2.855958e+03
1.375963e+03,2.850202e+03
1.376927e+03,2.846446e+03
1.377891e+03,2.844732e+03
1.378855e+03,2.846129e+03
1.379820e+03,2.848284e+03
1.380784e+03,2.848551e+03
1.381748e+03,2.847329e+03
1.382712e+03,2.845856e+03
1.383677e+03,2.843037e+03
1.384641e+03,2.838645e+03
1.385605e+03,2.830558e+03
1.386569e+03,2.821764e+03
1.387534e+03,2.817938e+03
1.388498e+03,2.820792e+03
1.389462e+03,2.820371e+03
1.390426e+03,2.815143e+03
1.391391e+03,2.809927e+03
1.392355e+03,2.808914e+03
1.393319e+03,2.810473e+03
1.394283e+03,2.810471e+03
1.395247e+03,2.809059e+03
1.396212e+03,2.807281e+03
1.397176e+03,2.805410e+03
1.398140e+03,2.803878e+03
1.399104e+03,2.801646e+03
1.400069e+03,2.799884e+03
1.401033e+03,2.800477e+03
1.401997e+03,2.802263e+03
1.402961e+03,2.801859e+03
1.403926e+03,2.796875e+03
1.404890e+03,2.795046e+03
1.405854e+03,2.799131e+03
1.406818e+03,2.801816e+03
1.407782e+03,2.796373e+03
1.408747e+03,2.786746e+03
1.409711e+03,2.785375e+03
1.410675e+03,2.789086e+03
1.411639e+03,2.790824e+03
1.412604e+03,2.789067e+03
1.413568e+03,2.784325e+03
1.414532e+03,2.774502e+03
1.415496e+03,2.765676e+03
1.416461e+03,2.762959e+03
1.417425e+03,2.764308e+03
1.418389e+03,2.764092e+03
1.419353e+03,2.759561e+03
1.420318e+03,2.756602e+03
1.421282e+03,2.757431e+03
1.422246e+03,2.759500e+03
1.423210e+03,2.760884e+03
1.424174e+03,2.761669e+03
1.425139e+03,2.758543e+03
1.426103e+03,2.751423e+03
1.427067e+03,2.746250e+03
1.428031e+03,2.745466e+03
1.428996e+03,2.746167e+03
1.429960e+03,2.746469e+03
1.430924e+03,2.745029e+03
1.431888e+03,2.738918e+03
1.432853e+03,2.729658e+03
1.433817e+03,2.723876e+03
1.434781e+03,2.726368e+03
1.435745e+03,2.729213e+03
1.436709e+03,2.730224e+03
1.437674e+03,2.730573e+03
1.438638e+03,2.732958e+03
1.439602e+03,2.737658e+03
1.440566e+03,2.738893e+03
1.441531e+03,2.736631e+03
1.442495e+03,2.732905e+03
1.443459e+03,2.727159e+03
1.444423e+03,2.724153e+03
1.445388e+03,2.731750e+03
1.446352e+03,2.741321e+03
1.447316e+03,2.744170e+03
1.448280e+03,2.741820e+03
1.449245e+03,2.741177e+03
1.450209e+03,2.745831e+03
1.451173e+03,2.748940e+03
1.452137e+03,2.747507e+03
1.453101e+03,2.744448e+03
1.454066e+03,2.743832e+03
1.455030e+03,2.745230e+03
1.455994e+03,2.744440e+03
1.456958e+03,2.741446e+03
1.457923e+03,2.735945e+03
1.458887e+03,2.726192e+03
1.459851e+03,2.717359e+03
1.460815e+03,2.716488e+03
1.461780e+03,2.715957e+03
1.462744e+03,2.708763e+03
1.463708e+03,2.696460e+03
1.464672e+03,2.688685e+03
1.465636e+03,2.689103e+03
1.466601e+03,2.690848e+03
1.467565e+03,2.693871e+03
1.468529e+03,2.696085e+03
1.469493e+03,2.693912e+03
1.470458e+03,2.688181e+03
1.471422e+03,2.685436e+03
1.472386e+03,2.685336e+03
1.473350e+03,2.684599e+03
1.474315e+03,2.681144e+03
1.475279e+03,2.677793e+03
1.476243e+03,2.674366e+03
1.477207e+03,2.672591e+03
1.478172e+03,2.678020e+03
1.479136e+03,2.687822e+03
1.480100e+03,2.688080e+03
1.481064e+03,2.676442e+03
1.482028e+03,2.664922e+03
1.482993e+03,2.654799e+03
1.483957e+03,2.648583e+03
1.484921e+03,2.649531e+03
1.485885e+03,2.654409e+03
1.486850e+03,2.658027e+03
1.487814e+03,2.659560e+03
1.488778e+03,2.658360e+03
1.489742e+03,2.653409e+03
1.490707e+03,2.650240e+03
1.491671e+03,2.658277e+03
1.492635e+03,2.662290e+03
1.493599e+03,2.650728e+03
1.494563e+03,2.631302e+03
1.495528e+03,2.628238e+03
1.496492e+03,2.640414e+03
1.497456e+03,2.647033e+03
1.498420e+03,2.646594e+03
1.499385e+03,2.643751e+03
1.500349e+03,2.639797e+03
1.501313e+03,2.637227e+03
1.502277e+03,2.639363e+03
1.503242e+03,2.642987e+03
1.504206e+03,2.642877e+03
1.505170e+03,2.635514e+03
1.506134e+03,2.633795e+03
1.507099e+03,2.641072e+03
1.508063e+03,2.645286e+03
1.509027e+03,2.641080e+03
1.509991e+03,2.633355e+03
1.510955e+03,2.631698e+03
1.511920e+03,2.632766e+03
1.512884e+03,2.627819e+03
1.513848e+03,2.618402e+03
1.514812e+03,2.613040e+03
1.515777e+03,2.615547e+03
1.516741e+03,2.619332e+03
1.517705e+03,2.624651e+03
1.518669e+03,2.627697e+03
1.519634e+03,2.625178e+03
1.520598e+03,2.617038e+03
1.521562e+03,2.611034e+03
1.522526e+03,2.606414e+03
1.523490e+03,2.602674e+03
1.524455e+03,2.600361e+03
1.525419e+03,2.596655e+03
1.526383e+03,2.587408e+03
1.527347e+03,2.577294e+03
1.528312e+03,2.572575e+03
1.529276e+03,2.572635e+03
1.530240e+03,2.569081e+03
1.531204e+03,2.556073e+03
1.532169e+03,2.552921e+03
1.533133e+03,2.562921e+03
1.534097e+03,2.574678e+03
1.535061e+03,2.580215e+03
1.536026e+03,2.580571e+03
1.536990e+03,2.576143e+03
1.537954e+03,2.569774e+03
1.538918e+03,2.566785e+03
1.539882e+03,2.568589e+03
1.540847e+03,2.569901e+03
1.541811e+03,2.568137e+03
1.542775e+03,2.565683e+03
1.543739e+03,2.564651e+03
1.544704e+03,2.563632e+03
1.545668e+03,2.558565e+03
1.546632e+03,2.551083e+03
1.547596e+03,2.547131e+03
1.548561e+03,2.546912e+03
1.549525e+03,2.549478e+03
1.550489e+03,2.555017e+03
1.551453e+03,2.560500e+03
1.552417e+03,2.567159e+03
1.553382e+03,2.570396e+03
1.554346e+03,2.565712e+03
1.555310e+03,2.555085e+03
1.556274e+03,2.551265e+03
1.557239e+03,2.553994e+03
1.558203e+03,2.562393e+03
1.559167e+03,2.576830e+03
1.560131e+03,2.588605e+03
1.561096e+03,2.584624e+03
1.562060e+03,2.580430e+03
1.563024e+03,2.587731e+03
1.563988e+03,2.604842e+03
1.564953e+03,2.627101e+03
1.565917e+03,2.658424e+03
1.566881e+03,2.679099e+03
1.567845e+03,2.687319e+03
1.568809e+03,2.691765e+03
1.569774e+03,2.697755e+03
1.570738e+03,2.702162e+03
1.571702e+03,2.703746e+03
1.572666e+03,2.699079e+03
1.573631e+03,2.679690e+03
1.574595e+03,2.646193e+03
1.575559e+03,2.624413e+03
1.576523e+03,2.620308e+03
1.577488e+03,2.618460e+03
1.578452e+03,2.614810e+03
1.579416e+03,2.611641e+03
1.580380e+03,2.615659e+03
1.581344e+03,2.620782e+03
1.582309e+03,2.614234e+03
1.583273e+03,2.599663e+03
1.584237e+03,2.584964e+03
1.585201e+03,2.571666e+03
1.586166e+03,2.560962e+03
1.587130e+03,2.553623e+03
1.588094e+03,2.545364e+03
1.589058e+03,2.534724e+03
1.590023e+03,2.523438e+03
1.590987e+03,2.513051e+03
1.591951e+03,2.505092e+03
1.592915e+03,2.502168e+03
1.593880e+03,2.502689e+03
1.594844e+03,2.501644e+03
1.595808e+03,2.496475e+03
1.596772e+03,2.490544e+03
1.597736e+03,2.482378e+03
1.598701e+03,2.479174e+03
1.599665e+03,2.491239e+03
1.600629e+03,2.511808e+03
1.601593e+03,2.509615e+03
1.602558e+03,2.491513e+03
1.603522e+03,2.478758e+03
1.604486e+03,2.478059e+03
1.605450e+03,2.478249e+03
1.606415e+03,2.475722e+03
1.607379e+03,2.473903e+03
1.608343e+03,2.473993e+03
1.609307e+03,2.474500e+03
1.610271e+03,2.473177e+03
1.611236e+03,2.469964e+03
1.612200e+03,2.464911e+03
1.613164e+03,2.459508e+03
1.614128e+03,2.457749e+03
1.615093e+03,2.465085e+03
1.616057e+03,2.470429e+03
1.617021e+03,2.467958e+03
1.617985e+03,2.462981e+03
1.618950e+03,2.458726e+03
1.619914e+03,2.455519e+03
1.620878e+03,2.454374e+03
1.621842e+03,2.455312e+03
1.622807e+03,2.458127e+03
1.623771e+03,2.463240e+03
1.624735e+03,2.465833e+03
1.625699e+03,2.457158e+03
1.626663e+03,2.451454e+03
1.627628e+03,2.455761e+03
1.628592e+03,2.461087e+03
1.629556e+03,2.456118e+03
1.630520e+03,2.444578e+03
1.631485e+03,2.443630e+03
1.632449e+03,2.450388e+03
1.633413e+03,2.452697e+03
1.634377e+03,2.444613e+03
1.635342e+03,2.435487e+03
1.636306e+03,2.428617e+03
1.637270e+03,2.422268e+03
1.638234e+03,2.415785e+03
1.639198e+03,2.409145e+03
1.640163e+03,2.397844e+03
1.641127e+03,2.386074e+03
1.642091e+03,2.389413e+03
1.643055e+03,2.406452e+03
1.644020e+03,2.417569e+03
1.644984e+03,2.407792e+03
1.645948e+03,2.397464e+03
1.646912e+03,2.390815e+03
1.647877e+03,2.386781e+03
1.648841e+03,2.385283e+03
1.649805e+03,2.385768e+03
1.650769e+03,2.386862e+03
1.651734e+03,2.387384e+03
1.652698e+03,2.384371e+03
1.653662e+03,2.375550e+03
1.654626e+03,2.368653e+03
1.655590e+03,2.365352e+03
1.656555e+03,2.365477e+03
1.657519e+03,2.371169e+03
1.658483e+03,2.378700e+03
1.659447e+03,2.380944e+03
1.660412e+03,2.379208e+03
1.661376e+03,2.378480e+03
1.662340e+03,2.378740e+03
1.663304e+03,2.377016e+03
1.664269e+03,2.365780e+03
1.665233e+03,2.362502e+03
1.666197e+03,2.369415e+03
1.667161e+03,2.374618e+03
1.668125e+03,2.371450e+03
1.669090e+03,2.365338e+03
1.670054e+03,2.365496e+03
1.671018e+03,2.367601e+03
1.671982e+03,2.366204e+03
1.672947e+03,2.360995e+03
1.673911e+03,2.355735e+03
1.674875e+03,2.347953e+03
1.675839e+03,2.347429e+03
1.676804e+03,2.357696e+03
1.677768e+03,2.365976e+03
1.678732e+03,2.355108e+03
1.679696e+03,2.340909e+03
1.680661e+03,2.338019e+03
1.681625e+03,2.340335e+03
1.682589e+03,2.341256e+03
1.683553e+03,2.341477e+03
1.684517e+03,2.337903e+03
1.685482e+03,2.330388e+03
1.686446e+03,2.325010e+03
1.687410e+03,2.323804e+03
1.688374e+03,2.323964e+03
1.689339e+03,2.323351e+03
1.690303e+03,2.323223e+03
1.691267e+03,2.325042e+03
1.692231e+03,2.327580e+03
1.693196e+03,2.328239e+03
1.694160e+03,2.326289e+03
1.695124e+03,2.320255e+03
1.696088e+03,2.311594e+03
1.697052e+03,2.305880e+03
1.698017e+03,2.304501e+03
1.698981e+03,2.305097e+03
1.699945e+03,2.307185e+03
1.700909e+03,2.309135e+03
1.701874e+03,2.313374e+03
1.702838e+03,2.317363e+03
1.703802e+03,2.309204e+03
1.704766e+03,2.294591e+03
1.705731e+03,2.287482e+03
1.706695e+03,2.289552e+03
1.707659e+03,2.290690e+03
1.708623e+03,2.289950e+03
1.709588e+03,2.289274e+03
1.710552e+03,2.287928e+03
1.711516e+03,2.284204e+03
1.712480e+03,2.274428e+03
1.713444e+03,2.264445e+03
1.714409e+03,2.262117e+03
1.715373e+03,2.264680e+03
1.716337e+03,2.268663e+03
1.717301e+03,2.274498e+03
1.718266e+03,2.270460e+03
1.719230e+03,2.256481e+03
1.720194e+03,2.253412e+03
1.721158e+03,2.268093e+03
1.722123e+03,2.280960e+03
1.723087e+03,2.276387e+03
1.724051e+03,2.267806e+03
1.725015e+03,2.260281e+03
1.725979e+03,2.255773e+03
1.726944e+03,2.258176e+03
1.727908e+03,2.264964e+03
1.728872e+03,2.265232e+03
1.729836e+03,2.259249e+03
1.730801e+03,2.251865e+03
1.731765e+03,2.242499e+03
1.732729e+03,2.239304e+03
1.733693e+03,2.245329e+03
1.734658e+03,2.250810e+03
1.735622e+03,2.251619e+03
1.736586e+03,2.248308e+03
1.737550e+03,2.238221e+03
1.738515e+03,2.227216e+03
1.739479e+03,2.221965e+03
1.740443e+03,2.223050e+03
1.741407e+03,2.229951e+03
1.742371e+03,2.244677e+03
1.743336e+03,2.243100e+03
1.744300e+03,2.223677e+03
1.745264e+03,2.205716e+03
1.746228e+03,2.205519e+03
1.747193e+03,2.208170e+03
1.748157e+03,2.206292e+03
1.749121e+03,2.206636e+03
1.750085e+03,2.212153e+03
1.751050e+03,2.219319e+03
1.752014e+03,2.224652e+03
1.752978e+03,2.227712e+03
1.753942e+03,2.223571e+03
1.754906e+03,2.210945e+03
1.755871e+03,2.206672e+03
1.756835e+03,2.218095e+03
1.757799e+03,2.221652e+03
1.758763e+03,2.214876e+03
1.759728e+03,2.206368e+03
1.760692e+03,2.204143e+03
1.761656e+03,2.203233e+03
1.762620e+03,2.195377e+03
1.763585e+03,2.186287e+03
1.764549e+03,2.185478e+03
1.765513e+03,2.191827e+03
1.766477e+03,2.190717e+03
1.767442e+03,2.184410e+03
1.768406e+03,2.184184e+03
1.769370e+03,2.194871e+03
1.770334e+03,2.202937e+03
1.771298e+03,2.200585e+03
1.772263e+03,2.193393e+03
1.773227e+03,2.181741e+03
1.774191e+03,2.170518e+03
1.775155e+03,2.166175e+03
1.776120e+03,2.165769e+03
1.777084e+03,2.165885e+03
1.778048e+03,2.166721e+03
1.779012e+03,2.169105e+03
1.779977e+03,2.174017e+03
1.780941e+03,2.179972e+03
1.781905e+03,2.185814e+03
1.782869e+03,2.183563e+03
1.783833e+03,2.166531e+03
1.784798e+03,2.151655e+03
1.785762e+03,2.151844e+03
1.786726e+03,2.153671e+03
1.787690e+03,2.150821e+03
1.788655e+03,2.146244e+03
1.789619e+03,2.143635e+03
1.790583e+03,2.143444e+03
1.791547e+03,2.147824e+03
1.792512e+03,2.155531e+03
1.793476e+03,2.159215e+03
1.794440e+03,2.155584e+03
1.795404e+03,2.154034e+03
1.796369e+03,2.154466e+03
1.797333e+03,2.150465e+03
1.798297e+03,2.133763e+03
1.799261e+03,2.120670e+03
1.800225e+03,2.125189e+03
1.801190e+03,2.133646e+03
1.802154e+03,2.138996e+03
1.803118e+03,2.140612e+03
1.804082e+03,2.136214e+03
1.805047e+03,2.128906e+03
1.806011e+03,2.123543e+03
1.806975e+03,2.120648e+03
1.807939e+03,2.120983e+03
1.808904e+03,2.125698e+03
1.809868e+03,2.125955e+03
1.810832e+03,2.121330e+03
1.811796e+03,2.116474e+03
1.812760e+03,2.113401e+03
1.813725e+03,2.112115e+03
1.814689e+03,2.114392e+03
1.815653e+03,2.117148e+03
1.816617e+03,2.118514e+03
1.817582e+03,2.118311e+03
1.818546e+03,2.114493e+03
1.819510e+03,2.108479e+03
1.820474e+03,2.103510e+03
1.821439e+03,2.100590e+03
1.822403e+03,2.100563e+03
1.823367e+03,2.104736e+03
1.824331e+03,2.105464e+03
1.825296e+03,2.100849e+03
1.826260e+03,2.094447e+03
1.827224e+03,2.088816e+03
1.828188e+03,2.086245e+03
1.829152e+03,2.088708e+03
1.830117e+03,2.091325e+03
1.831081e+03,2.089862e+03
1.832045e+03,2.085297e+03
1.833009e+03,2.083261e+03
1.833974e+03,2.083457e+03
1.834938e+03,2.081784e+03
1.835902e+03,2.076296e+03
1.836866e+03,2.070539e+03
1.837831e+03,2.064240e+03
1.838795e+03,2.058544e+03
1.839759e+03,2.054448e+03
1.840723e+03,2.055266e+03
1.841688e+03,2.069698e+03
1.842652e+03,2.078262e+03
1.843616e+03,2.071470e+03
1.844580e+03,2.060326e+03
1.845544e+03,2.057318e+03
1.846509e+03,2.058867e+03
1.847473e+03,2.058674e+03
1.848437e+03,2.057364e+03
1.849401e+03,2.056571e+03
1.850366e+03,2.056692e+03
1.851330e+03,2.053066e+03
1.852294e+03,2.046804e+03
1.853258e+03,2.041761e+03
1.854223e+03,2.038733e+03
1.855187e+03,2.037901e+03
1.856151e+03,2.039486e+03
1.857115e+03,2.041867e+03
1.858079e+03,2.045330e+03
1.859044e+03,2.045852e+03
1.860008e+03,2.035465e+03
1.860972e+03,2.025476e+03
1.861936e+03,2.029782e+03
1.862901e+03,2.039866e+03
1.863865e+03,2.041877e+03
1.864829e+03,2.035737e+03
1.865793e+03,2.031766e+03
1.866758e+03,2.029908e+03
1.867722e+03,2.027944e+03
1.868686e+03,2.024696e+03
1.869650e+03,2.021902e+03
1.870615e+03,2.018813e+03
1.871579e+03,2.017227e+03
1.872543e+03,2.018819e+03
1.873507e+03,2.021424e+03
1.874471e+03,2.022950e+03
1.875436e+03,2.020401e+03
1.876400e+03,2.011325e+03
1.877364e+03,2.002618e+03
1.878328e+03,2.005015e+03
1.879293e+03,2.011124e+03
1.880257e+03,2.002594e+03
1.881221e+03,1.987225e+03
1.882185e+03,1.984672e+03
1.883150e+03,1.996530e+03
1.884114e+03,1.998139e+03
1.885078e+03,1.990887e+03
1.886042e+03,1.989587e+03
1.887006e+03,1.999700e+03
1.887971e+03,2.004305e+03
1.888935e+03,1.996076e+03
1.889899e+03,1.990243e+03
1.890863e+03,1.989028e+03
1.891828e+03,1.990099e+03
1.892792e+03,1.999320e+03
1.893756e+03,2.003091e+03
1.894720e+03,1.986323e+03
1.895685e+03,1.965012e+03
1.896649e+03,1.950463e+03
1.897613e+03,1.943300e+03
1.898577e+03,1.955110e+03
1.899542e+03,1.976451e+03
1.900506e+03,1.985378e+03
1.901470e+03,1.977163e+03
1.902434e+03,1.968922e+03
1.903398e+03,1.960955e+03
1.904363e+03,1.957631e+03
1.905327e+03,1.960646e+03
1.906291e+03,1.964081e+03
1.907255e+03,1.964879e+03
1.908220e+03,1.962850e+03
1.909184e+03,1.957096e+03
1.910148e+03,1.952331e+03
1.911112e+03,1.959532e+03
1.912077e+03,1.965000e+03
1.913041e+03,1.952037e+03
1.914005e+03,1.934670e+03
1.914969e+03,1.927689e+03
1.915933e+03,1.928166e+03
1.916898e+03,1.926404e+03
1.917862e+03,1.923617e+03
1.918826e+03,1.921164e+03
1.919790e+03,1.919806e+03
1.920755e+03,1.919606e+03
1.921719e+03,1.919550e+03
1.922683e+03,1.921672e+03
1.923647e+03,1.927109e+03
1.924612e+03,1.933056e+03
1.925576e+03,1.942065e+03
1.926540e+03,1.943551e+03
1.927504e+03,1.933662e+03
1.928469e+03,1.921838e+03
1.929433e+03,1.914832e+03
1.930397e+03,1.910291e+03
1.931361e+03,1.907296e+03
1.932325e+03,1.905750e+03
1.933290e+03,1.907536e+03
1.934254e+03,1.911659e+03
1.935218e+03,1.912699e+03
1.936182e+03,1.909842e+03
1.937147e+03,1.901804e+03
1.938111e+03,1.891097e+03
1.939075e+03,1.894332e+03
1.940039e+03,1.909083e+03
1.941004e+03,1.911961e+03
1.941968e+03,1.899032e+03
1.942932e+03,1.888614e+03
1.943896e+03,1.887862e+03
1.944860e+03,1.884492e+03
1.945825e+03,1.877878e+03
1.946789e+03,1.875757e+03
1.947753e+03,1.888840e+03
1.948717e+03,1.898173e+03
1.949682e+03,1.893770e+03
1.950646e+03,1.887543e+03
1.951610e+03,1.886320e+03
1.952574e+03,1.887584e+03
1.953539e+03,1.889846e+03
1.954503e+03,1.890357e+03
1.955467e+03,1.885474e+03
1.956431e+03,1.878463e+03
1.957396e+03,1.878276e+03
1.958360e+03,1.880879e+03
1.959324e+03,1.876261e+03
1.960288e+03,1.866005e+03
1.961252e+03,1.860641e+03
1.962217e+03,1.860111e+03
1.963181e+03,1.856283e+03
1.964145e+03,1.849350e+03
1.965109e+03,1.847343e+03
1.966074e+03,1.863426e+03
1.967038e+03,1.866281e+03
1.968002e+03,1.848772e+03
1.968966e+03,1.836492e+03
1.969931e+03,1.844074e+03
1.970895e+03,1.852865e+03
1.971859e+03,1.850195e+03
1.972823e+03,1.847024e+03
1.973787e+03,1.847464e+03
1.974752e+03,1.848234e+03
1.975716e+03,1.844482e+03
1.976680e+03,1.839322e+03
1.977644e+03,1.837976e+03
1.978609e+03,1.839238e+03
1.979573e+03,1.839192e+03
1.980537e+03,1.837905e+03
1.981501e+03,1.837039e+03
1.982466e+03,1.836971e+03
1.983430e+03,1.838217e+03
1.984394e+03,1.840693e+03
1.985358e+03,1.841435e+03
1.986323e+03,1.839898e+03
1.987287e+03,1.833319e+03
1.988251e+03,1.818983e+03
1.989215e+03,1.809777e+03
1.990179e+03,1.808318e+03
1.991144e+03,1.807499e+03
1.992108e+03,1.806415e+03
1.993072e+03,1.804859e+03
1.994036e+03,1.797044e+03
1.995001e+03,1.796849e+03
1.995965e+03,1.809892e+03
1.996929e+03,1.823786e+03
1.997893e+03,1.825472e+03
1.998858e+03,1.821335e+03
1.999822e+03,1.813475e+03
2.000786e+03,1.806484e+03
2.001750e+03,1.807760e+03
2.002714e+03,1.812687e+03
2.003679e+03,1.804302e+03
2.004643e+03,1.790874e+03
2.005607e+03,1.788489e+03
2.006571e+03,1.794367e+03
2.007536e+03,1.794170e+03
2.008500e+03,1.789210e+03
2.009464e+03,1.780612e+03
2.010428e+03,1.770298e+03
2.011393e+03,1.769955e+03
2.012357e+03,1.780899e+03
2.013321e+03,1.782729e+03
2.014285e+03,1.773761e+03
2.015250e+03,1.767591e+03
2.016214e+03,1.774979e+03
2.017178e+03,1.777842e+03
2.018142e+03,1.775566e+03
2.019106e+03,1.772273e+03
2.020071e+03,1.768208e+03
2.021035e+03,1.767562e+03
2.021999e+03,1.777606e+03
2.022963e+03,1.779432e+03
2.023928e+03,1.763990e+03
2.024892e+03,1.746648e+03
2.025856e+03,1.743254e+03
2.026820e+03,1.746572e+03
2.027785e+03,1.753589e+03
2.028749e+03,1.759365e+03
2.029713e+03,1.755878e+03
2.030677e+03,1.749384e+03
2.031641e+03,1.747428e+03
2.032606e+03,1.748302e+03
2.033570e+03,1.748868e+03
2.034534e+03,1.748812e+03
2.035498e+03,1.750802e+03
2.036463e+03,1.751666e+03
2.037427e+03,1.740292e+03
2.038391e+03,1.718234e+03
2.039355e+03,1.707798e+03
2.040320e+03,1.707094e+03
2.041284e+03,1.706915e+03
2.042248e+03,1.704839e+03
2.043212e+03,1.707137e+03
2.044177e+03,1.715134e+03
2.045141e+03,1.719642e+03
2.046105e+03,1.718998e+03
2.047069e+03,1.718480e+03
2.048033e+03,1.721774e+03
2.048998e+03,1.719615e+03
2.049962e+03,1.711346e+03
2.050926e+03,1.705292e+03
2.051890e+03,1.710009e+03
2.052854e+03,1.713028e+03
2.053819e+03,1.709798e+03
2.054783e+03,1.703524e+03
2.055747e+03,1.694901e+03
2.056711e+03,1.690382e+03
2.057676e+03,1.700200e+03
2.058640e+03,1.710667e+03
2.059604e+03,1.712957e+03
2.060568e+03,1.711246e+03
2.061533e+03,1.713676e+03
2.062497e+03,1.715515e+03
2.063461e+03,1.710799e+03
2.064425e+03,1.703233e+03
2.065390e+03,1.696605e+03
2.066354e+03,1.691197e+03
2.067318e+03,1.690815e+03
2.068282e+03,1.691418e+03
2.069247e+03,1.682582e+03
2.070211e+03,1.666565e+03
2.071175e+03,1.661904e+03
2.072139e+03,1.665202e+03
2.073104e+03,1.668202e+03
2.074068e+03,1.670065e+03
2.075032e+03,1.674073e+03
2.075996e+03,1.678972e+03
2.076960e+03,1.683104e+03
2.077925e+03,1.685684e+03
2.078889e+03,1.680819e+03
2.079853e+03,1.668076e+03
2.080817e+03,1.662564e+03
2.081782e+03,1.665311e+03
2.082746e+03,1.663359e+03
2.083710e+03,1.648918e+03
2.084674e+03,1.642381e+03
2.085639e+03,1.645759e+03
2.086603e+03,1.651486e+03
2.087567e+03,1.653558e+03
2.088531e+03,1.654732e+03
2.089496e+03,1.654627e+03
2.090460e+03,1.653608e+03
2.091424e+03,1.654866e+03
2.092388e+03,1.656304e+03
2.093353e+03,1.654814e+03
2.094317e+03,1.654188e+03
2.095281e+03,1.654153e+03
2.096245e+03,1.653016e+03
2.097209e+03,1.647386e+03
2.098174e+03,1.643963e+03
2.099138e+03,1.648554e+03
2.100102e+03,1.650367e+03
2.101066e+03,1.628455e+03
2.102031e+03,1.607951e+03
2.102995e+03,1.620363e+03
2.103959e+03,1.636631e+03
2.104923e+03,1.631499e+03
2.105887e+03,1.618415e+03
2.106852e+03,1.612409e+03
2.107816e+03,1.612762e+03
2.108780e+03,1.622035e+03
2.109744e+03,1.633152e+03
2.110708e+03,1.626005e+03
2.111673e+03,1.613388e+03
2.112637e+03,1.614689e+03
2.113601e+03,1.622594e+03
2.114565e+03,1.620693e+03
2.115530e+03,1.613366e+03
2.116494e+03,1.609835e+03
2.117458e+03,1.611557e+03
2.118422e+03,1.612106e+03
2.119387e+03,1.610840e+03
2.120351e+03,1.614488e+03
2.121315e+03,1.619746e+03
2.122279e+03,1.618200e+03
2.123244e+03,1.609334e+03
2.124208e+03,1.600705e+03
2.125172e+03,1.593158e+03
2.126136e+03,1.586809e+03
2.127101e+03,1.581752e+03
2.128065e+03,1.586242e+03
2.129029e+03,1.598264e+03
2.129993e+03,1.605015e+03
2.130958e+03,1.602359e+03
2.131922e+03,1.596306e+03
2.132886e+03,1.587946e+03
2.133850e+03,1.584440e+03
2.134814e+03,1.587604e+03
2.135779e+03,1.588699e+03
2.136743e+03,1.582689e+03
2.137707e+03,1.576466e+03
2.138671e+03,1.571111e+03
2.139636e+03,1.569662e+03
2.140600e+03,1.579289e+03
2.141564e+03,1.578029e+03
2.142528e+03,1.564271e+03
2.143493e+03,1.554997e+03
2.144457e+03,1.558559e+03
2.145421e+03,1.555277e+03
2.146385e+03,1.537495e+03
2.147350e+03,1.527257e+03
2.148314e+03,1.531778e+03
2.149278e+03,1.541328e+03
2.150242e+03,1.552797e+03
2.151207e+03,1.558044e+03
2.152171e+03,1.554802e+03
2.153135e+03,1.548878e+03
2.154099e+03,1.547398e+03
2.155063e+03,1.543539e+03
2.156028e+03,1.535557e+03
2.156992e+03,1.529355e+03
2.157956e+03,1.527190e+03
2.158920e+03,1.526713e+03
2.159885e+03,1.526518e+03
2.160849e+03,1.529131e+03
2.161813e+03,1.538416e+03
2.162777e+03,1.543689e+03
2.163741e+03,1.529644e+03
2.164706e+03,1.518871e+03
2.165670e+03,1.521836e+03
2.166634e+03,1.530365e+03
2.167598e+03,1.539286e+03
2.168563e+03,1.542196e+03
2.169527e+03,1.534198e+03
2.170491e+03,1.523792e+03
2.171455e+03,1.523569e+03
2.172420e+03,1.523615e+03
2.173384e+03,1.516266e+03
2.174348e+03,1.509334e+03
2.175312e+03,1.510061e+03
2.176277e+03,1.511529e+03
2.177241e+03,1.504829e+03
2.178205e+03,1.499679e+03
2.179169e+03,1.505326e+03
2.180134e+03,1.512605e+03
2.181098e+03,1.505655e+03
2.182062e+03,1.495964e+03
2.183026e+03,1.489487e+03
2.183990e+03,1.486450e+03
2.184955e+03,1.491320e+03
2.185919e+03,1.495566e+03
2.186883e+03,1.490245e+03
2.187847e+03,1.482385e+03
2.188812e+03,1.482921e+03
2.189776e+03,1.485328e+03
2.190740e+03,1.478861e+03
2.191704e+03,1.472522e+03
2.192668e+03,1.478460e+03
2.193633e+03,1.487974e+03
2.194597e+03,1.487719e+03
2.195561e+03,1.484759e+03
2.196525e+03,1.484859e+03
2.197490e+03,1.485891e+03
2.198454e+03,1.484030e+03
2.199418e+03,1.481424e+03
2.200382e+03,1.480356e+03
2.201347e+03,1.481147e+03
2.202311e+03,1.483582e+03
2.203275e+03,1.485926e+03
2.204239e+03,1.486316e+03
2.205204e+03,1.482752e+03
2.206168e+03,1.470925e+03
2.207132e+03,1.459013e+03
2.208096e+03,1.459426e+03
2.209061e+03,1.461065e+03
2.210025e+03,1.449912e+03
2.210989e+03,1.436229e+03
2.211953e+03,1.439529e+03
2.212917e+03,1.449203e+03
2.213882e+03,1.449707e+03
2.214846e+03,1.445397e+03
2.215810e+03,1.446873e+03
2.216774e+03,1.448059e+03
2.217739e+03,1.445252e+03
2.218703e+03,1.442683e+03
2.219667e+03,1.451229e+03
2.220631e+03,1.458986e+03
2.221595e+03,1.452283e+03
2.222560e+03,1.439525e+03
2.223524e+03,1.430316e+03
2.224488e+03,1.424212e+03
2.225452e+03,1.423174e+03
2.226417e+03,1.424028e+03
2.227381e+03,1.423606e+03
2.228345e+03,1.423473e+03
2.229309e+03,1.424467e+03
2.230274e+03,1.424915e+03
2.231238e+03,1.423248e+03
2.232202e+03,1.421562e+03
2.233166e+03,1.427930e+03
2.234131e+03,1.432506e+03
2.235095e+03,1.426721e+03
2.236059e+03,1.416735e+03
2.237023e+03,1.407757e+03
2.237988e+03,1.403484e+03
2.238952e+03,1.406546e+03
2.239916e+03,1.411260e+03
2.240880e+03,1.411260e+03
2.241844e+03,1.411800e+03
2.242809e+03,1.418524e+03
2.243773e+03,1.423242e+03
2.244737e+03,1.412223e+03
2.245701e+03,1.400318e+03
2.246666e+03,1.403161e+03
2.247630e+03,1.404393e+03
2.248594e+03,1.390832e+03
2.249558e+03,1.377960e+03
2.250522e+03,1.381599e+03
2.251487e+03,1.389652e+03
2.252451e+03,1.396645e+03
2.253415e+03,1.399372e+03
2.254379e+03,1.394393e+03
2.255344e+03,1.388423e+03
2.256308e+03,1.384159e+03
2.257272e+03,1.381533e+03
2.258236e+03,1.380976e+03
2.259201e+03,1.381450e+03
2.260165e+03,1.381912e+03
2.261129e+03,1.382263e+03
2.262093e+03,1.382370e+03
2.263058e+03,1.381835e+03
2.264022e+03,1.382038e+03
2.264986e+03,1.381291e+03
2.265950e+03,1.372457e+03
2.266915e+03,1.373167e+03
2.267879e+03,1.392096e+03
2.268843e+03,1.395254e+03
2.269807e+03,1.362515e+03
2.270771e+03,1.337722e+03
2.271736e+03,1.338468e+03
2.272700e+03,1.346589e+03
2.273664e+03,1.357411e+03
2.274628e+03,1.363197e+03
2.275593e+03,1.358018e+03
2.276557e+03,1.353718e+03
2.277521e+03,1.353064e+03
2.278485e+03,1.354590e+03
2.279449e+03,1.358942e+03
2.280414e+03,1.361345e+03
2.281378e+03,1.361344e+03
2.282342e+03,1.360414e+03
2.283306e+03,1.358600e+03
2.284271e+03,1.352573e+03
2.285235e+03,1.342638e+03
2.286199e+03,1.336853e+03
2.287163e+03,1.341598e+03
2.288128e+03,1.345338e+03
2.289092e+03,1.346440e+03
2.290056e+03,1.342257e+03
2.291020e+03,1.332261e+03
2.291985e+03,1.326967e+03
2.292949e+03,1.327075e+03
2.293913e+03,1.327753e+03
2.294877e+03,1.327741e+03
2.295842e+03,1.326196e+03
2.296806e+03,1.323274e+03
2.297770e+03,1.329681e+03
2.298734e+03,1.341488e+03
2.299698e+03,1.341681e+03
2.300663e+03,1.332107e+03
2.301627e+03,1.326142e+03
2.302591e+03,1.322121e+03
2.303555e+03,1.315604e+03
2.304520e+03,1.308431e+03
2.305484e+03,1.310240e+03
2.306448e+03,1.317171e+03
2.307412e+03,1.323216e+03
2.308376e+03,1.326156e+03
2.309341e+03,1.319330e+03
2.310305e+03,1.309245e+03
2.311269e+03,1.304869e+03
2.312233e+03,1.305439e+03
2.313198e+03,1.312101e+03
2.314162e+03,1.317187e+03
2.315126e+03,1.310905e+03
2.316090e+03,1.301266e+03
2.317055e+03,1.295953e+03
2.318019e+03,1.293685e+03
2.318983e+03,1.292863e+03
2.319947e+03,1.293280e+03
2.320912e+03,1.298909e+03
2.321876e+03,1.302092e+03
2.322840e+03,1.292812e+03
2.323804e+03,1.285114e+03
2.324769e+03,1.285947e+03
2.325733e+03,1.290441e+03
2.326697e+03,1.297021e+03
2.327661e+03,1.300372e+03
2.328625e+03,1.297794e+03
2.329590e+03,1.291115e+03
2.330554e+03,1.278683e+03
2.331518e+03,1.274548e+03
2.332482e+03,1.281100e+03
2.333447e+03,1.285453e+03
2.334411e+03,1.279185e+03
2.335375e+03,1.274997e+03
2.336339e+03,1.273735e+03
2.337303e+03,1.275689e+03
2.338268e+03,1.283978e+03
2.339232e+03,1.280551e+03
2.340196e+03,1.268029e+03
2.341160e+03,1.261849e+03
2.342125e+03,1.266390e+03
2.343089e+03,1.271696e+03
2.344053e+03,1.275129e+03
2.345017e+03,1.272286e+03
2.345982e+03,1.263998e+03
2.346946e+03,1.257307e+03
2.347910e+03,1.253855e+03
2.348874e+03,1.256636e+03
2.349839e+03,1.262441e+03
2.350803e+03,1.265953e+03
2.351767e+03,1.267511e+03
2.352731e+03,1.266279e+03
2.353696e+03,1.263632e+03
2.354660e+03,1.259387e+03
2.355624e+03,1.254188e+03
2.356588e+03,1.250215e+03
2.357552e+03,1.247764e+03
2.358517e+03,1.247622e+03
2.359481e+03,1.247936e+03
2.360445e+03,1.246114e+03
2.361409e+03,1.242486e+03
2.362374e+03,1.236453e+03
2.363338e+03,1.231192e+03
2.364302e+03,1.234522e+03
2.365266e+03,1.235194e+03
2.366230e+03,1.228175e+03
2.367195e+03,1.222407e+03
2.368159e+03,1.223897e+03
2.369123e+03,1.227235e+03
2.370087e+03,1.233068e+03
2.371052e+03,1.234459e+03
2.372016e+03,1.225034e+03
2.372980e+03,1.222503e+03
2.373944e+03,1.226511e+03
2.374909e+03,1.226273e+03
2.375873e+03,1.217126e+03
2.376837e+03,1.212098e+03
2.377801e+03,1.210886e+03
2.378766e+03,1.212267e+03
2.379730e+03,1.215453e+03
2.380694e+03,1.210119e+03
2.381658e+03,1.201277e+03
2.382623e+03,1.200042e+03
2.383587e+03,1.204840e+03
2.384551e+03,1.212504e+03
2.385515e+03,1.219338e+03
2.386479e+03,1.219420e+03
2.387444e+03,1.216490e+03
2.388408e+03,1.216601e+03
2.389372e+03,1.215879e+03
2.390336e+03,1.207907e+03
2.391301e+03,1.199162e+03
2.392265e+03,1.193588e+03
2.393229e+03,1.192689e+03
2.394193e+03,1.200064e+03
2.395157e+03,1.204135e+03
2.396122e+03,1.193835e+03
2.397086e+03,1.189271e+03
2.398050e+03,1.199345e+03
2.399014e+03,1.201971e+03
2.399979e+03,1.185560e+03
2.400943e+03,1.176080e+03
2.401907e+03,1.177382e+03
2.402871e+03,1.179169e+03
2.403836e+03,1.179787e+03
2.404800e+03,1.183566e+03
2.405764e+03,1.189993e+03
2.406728e+03,1.192134e+03
2.407693e+03,1.189086e+03
2.408657e+03,1.185537e+03
2.409621e+03,1.182689e+03
2.410585e+03,1.182215e+03
2.411550e+03,1.182846e+03
2.412514e+03,1.180695e+03
2.413478e+03,1.176783e+03
2.414442e+03,1.173827e+03
2.415406e+03,1.171644e+03
2.416371e+03,1.169684e+03
2.417335e+03,1.168149e+03
2.418299e+03,1.167312e+03
2.419263e+03,1.166557e+03
2.420228e+03,1.165631e+03
2.421192e+03,1.163535e+03
2.422156e+03,1.156569e+03
2.423120e+03,1.155310e+03
2.424084e+03,1.161856e+03
2.425049e+03,1.167930e+03
2.426013e+03,1.172936e+03
2.426977e+03,1.166979e+03
2.427941e+03,1.150682e+03
2.428906e+03,1.143447e+03
2.429870e+03,1.150855e+03
2.430834e+03,1.155651e+03
2.431798e+03,1.157832e+03
2.432763e+03,1.158217e+03
2.433727e+03,1.156817e+03
2.434691e+03,1.153365e+03
2.435655e+03,1.149024e+03
2.436620e+03,1.145671e+03
2.437584e+03,1.144412e+03
2.438548e+03,1.153229e+03
2.439512e+03,1.160279e+03
2.440477e+03,1.151399e+03
2.441441e+03,1.138986e+03
2.442405e+03,1.145164e+03
2.443369e+03,1.149261e+03
2.444333e+03,1.141509e+03
2.445298e+03,1.132926e+03
2.446262e+03,1.131802e+03
2.447226e+03,1.134213e+03
2.448190e+03,1.140112e+03
2.449155e+03,1.142341e+03
2.450119e+03,1.133716e+03
2.451083e+03,1.129638e+03
2.452047e+03,1.129409e+03
2.453011e+03,1.127562e+03
2.453976e+03,1.123064e+03
2.454940e+03,1.126610e+03
2.455904e+03,1.134533e+03
2.456868e+03,1.130058e+03
2.457833e+03,1.117124e+03
2.458797e+03,1.111981e+03
2.459761e+03,1.112677e+03
2.460725e+03,1.117174e+03
2.461690e+03,1.121400e+03
2.462654e+03,1.119037e+03
2.463618e+03,1.115012e+03
2.464582e+03,1.112828e+03
2.465547e+03,1.112595e+03
2.466511e+03,1.114446e+03
2.467475e+03,1.113442e+03
2.468439e+03,1.108211e+03
2.469404e+03,1.105359e+03
2.470368e+03,1.113490e+03
2.471332e+03,1.117722e+03
2.472296e+03,1.117067e+03
2.473260e+03,1.113305e+03
2.474225e+03,1.106848e+03
2.475189e+03,1.096872e+03
2.476153e+03,1.088144e+03
2.477117e+03,1.098290e+03
2.478082e+03,1.118231e+03
2.479046e+03,1.119129e+03
2.480010e+03,1.111193e+03
2.480974e+03,1.108421e+03
2.481938e+03,1.107807e+03
2.482903e+03,1.104001e+03
2.483867e+03,1.102445e+03
2.484831e+03,1.106905e+03
2.485795e+03,1.107642e+03
2.486760e+03,1.091992e+03
2.487724e+03,1.082430e+03
2.488688e+03,1.082965e+03
2.489652e+03,1.085248e+03
2.490617e+03,1.083665e+03
2.491581e+03,1.088415e+03
2.492545e+03,1.097973e+03
2.493509e+03,1.098470e+03
2.494474e+03,1.088062e+03
2.495438e+03,1.079379e+03
2.496402e+03,1.073740e+03
2.497366e+03,1.076121e+03
2.498331e+03,1.082385e+03
2.499295e+03,1.089208e+03
2.500259e+03,1.089848e+03
2.501223e+03,1.078151e+03
2.502188e+03,1.066908e+03
2.503152e+03,1.072274e+03
2.504116e+03,1.076429e+03
2.505080e+03,1.073922e+03
2.506044e+03,1.070716e+03
2.507009e+03,1.071387e+03
2.507973e+03,1.065718e+03
2.508937e+03,1.054929e+03
2.509901e+03,1.051957e+03
2.510865e+03,1.060249e+03
2.511830e+03,1.059843e+03
2.512794e+03,1.054010e+03
2.513758e+03,1.056405e+03
2.514722e+03,1.063277e+03
2.515687e+03,1.058465e+03
2.516651e+03,1.051235e+03
2.517615e+03,1.052015e+03
2.518579e+03,1.054247e+03
2.519544e+03,1.047987e+03
2.520508e+03,1.043009e+03
2.521472e+03,1.042988e+03
2.522436e+03,1.045985e+03
2.523401e+03,1.055175e+03
2.524365e+03,1.056210e+03
2.525329e+03,1.047995e+03
2.526293e+03,1.046493e+03
2.527258e+03,1.057082e+03
2.528222e+03,1.054731e+03
2.529186e+03,1.044463e+03
2.530150e+03,1.043264e+03
2.531115e+03,1.048797e+03
2.532079e+03,1.050171e+03
2.533043e+03,1.049028e+03
2.534007e+03,1.047226e+03
2.534971e+03,1.043761e+03
2.535936e+03,1.037250e+03
2.536900e+03,1.032654e+03
2.537864e+03,1.031748e+03
2.538828e+03,1.031687e+03
2.539792e+03,1.029301e+03
2.540757e+03,1.027345e+03
2.541721e+03,1.026195e+03
2.542685e+03,1.029943e+03
2.543649e+03,1.038282e+03
2.544614e+03,1.036727e+03
2.545578e+03,1.028491e+03
2.546542e+03,1.029544e+03
2.547506e+03,1.034246e+03
2.548471e+03,1.023285e+03
2.549435e+03,1.011944e+03
2.550399e+03,1.015311e+03
2.551363e+03,1.021823e+03
2.552328e+03,1.022876e+03
2.553292e+03,1.024148e+03
2.554256e+03,1.027992e+03
2.555220e+03,1.029852e+03
2.556185e+03,1.028921e+03
2.557149e+03,1.023549e+03
2.558113e+03,1.013861e+03
2.559077e+03,1.010234e+03
2.560042e+03,1.010984e+03
2.561006e+03,1.012579e+03
2.561970e+03,1.015287e+03
2.562934e+03,1.017476e+03
2.563898e+03,1.018360e+03
2.564863e+03,1.016029e+03
2.565827e+03,1.012105e+03
2.566791e+03,1.008261e+03
2.567755e+03,1.006977e+03
2.568719e+03,1.007361e+03
2.569684e+03,1.007042e+03
2.570648e+03,1.004547e+03
2.571612e+03,1.008491e+03
2.572576e+03,1.017322e+03
2.573541e+03,1.012132e+03
2.574505e+03,9.950147e+02
2.575469e+03,9.976445e+02
2.576433e+03,1.005919e+03
2.577398e+03,9.966400e+02
2.578362e+03,9.859249e+02
2.579326e+03,1.002284e+03
2.580290e+03,1.015071e+03
2.581255e+03,1.010598e+03
2.582219e+03,1.002204e+03
2.583183e+03,1.000699e+03
2.584147e+03,9.908601e+02
2.585112e+03,9.745400e+02
2.586076e+03,9.678825e+02
2.587040e+03,9.728381e+02
2.588004e+03,9.841752e+02
2.588969e+03,9.948152e+02
2.589933e+03,9.900302e+02
2.590897e+03,9.793819e+02
2.591861e+03,9.847169e+02
2.592825e+03,9.898819e+02
2.593790e+03,9.832887e+02
2.594754e+03,9.756393e+02
2.595718e+03,9.743129e+02
2.596682e+03,9.730611e+02
2.597646e+03,9.701311e+02
2.598611e+03,9.731278e+02
2.599575e+03,9.823519e+02
2.600539e+03,9.840824e+02
2.601503e+03,9.784147e+02
2.602468e+03,9.756828e+02
2.603432e+03,9.732115e+02
2.604396e+03,9.650349e+02
2.605360e+03,9.575014e+02
2.606325e+03,9.537852e+02
2.607289e+03,9.561385e+02
2.608253e+03,9.665533e+02
2.609217e+03,9.736747e+02
2.610182e+03,9.691334e+02
2.611146e+03,9.682150e+02
2.612110e+03,9.707689e+02
2.613074e+03,9.630342e+02
2.614039e+03,9.479555e+02
2.615003e+03,9.531561e+02
2.615967e+03,9.666465e+02
2.616931e+03,9.749341e+02
2.617896e+03,9.756653e+02
2.618860e+03,9.540400e+02
2.619824e+03,9.444764e+02
2.620788e+03,9.599101e+02
2.621752e+03,9.723991e+02
2.622717e+03,9.649251e+02
2.623681e+03,9.608523e+02
2.624645e+03,9.602415e+02
2.625609e+03,9.554684e+02
2.626573e+03,9.476481e+02
2.627538e+03,9.503655e+02
2.628502e+03,9.578276e+02
2.629466e+03,9.600388e+02
2.630430e+03,9.589052e+02
2.631395e+03,9.562955e+02
2.632359e+03,9.499791e+02
2.633323e+03,9.368766e+02
2.634287e+03,9.322587e+02
2.635252e+03,9.392643e+02
2.636216e+03,9.405170e+02
2.637180e+03,9.326482e+02
2.638144e+03,9.291060e+02
2.639109e+03,9.288599e+02
2.640073e+03,9.330950e+02
2.641037e+03,9.370958e+02
2.642001e+03,9.290234e+02
2.642966e+03,9.208194e+02
2.643930e+03,9.186414e+02
2.644894e+03,9.212659e+02
2.645858e+03,9.337756e+02
2.646823e+03,9.383826e+02
2.647787e+03,9.342198e+02
2.648751e+03,9.270315e+02
2.649715e+03,9.187516e+02
2.650679e+03,9.239650e+02
2.651644e+03,9.326490e+02
2.652608e+03,9.277843e+02
2.653572e+03,9.196191e+02
2.654536e+03,9.269971e+02
2.655500e+03,9.306839e+02
2.656465e+03,9.227560e+02
2.657429e+03,9.165202e+02
2.658393e+03,9.159182e+02
2.659357e+03,9.124590e+02
2.660322e+03,9.075117e+02
2.661286e+03,9.098997e+02
2.662250e+03,9.163034e+02
2.663214e+03,9.169426e+02
2.664179e+03,9.149210e+02
2.665143e+03,9.149103e+02
2.666107e+03,9.134547e+02
2.667071e+03,9.080564e+02
2.668036e+03,9.068904e+02
2.669000e+03,9.159269e+02
2.669964e+03,9.222532e+02
2.670928e+03,9.251641e+02
2.671893e+03,9.246883e+02
2.672857e+03,9.224559e+02
2.673821e+03,9.208682e+02
2.674785e+03,9.202983e+02
2.675750e+03,9.221886e+02
2.676714e+03,9.242051e+02
2.677678e+03,9.251364e+02
2.678642e+03,9.185859e+02
2.679606e+03,9.026229e+02
2.680571e+03,8.962955e+02
2.681535e+03,9.015683e+02
2.682499e+03,8.958441e+02
2.683463e+03,8.840397e+02
2.684427e+03,8.931446e+02
2.685392e+03,9.101379e+02
2.686356e+03,9.099628e+02
2.687320e+03,9.067916e+02
2.688284e+03,9.138530e+02
2.689249e+03,9.099414e+02
2.690213e+03,8.911119e+02
2.691177e+03,8.792655e+02
2.692141e+03,8.832467e+02
2.693106e+03,8.849287e+02
2.694070e+03,8.866560e+02
2.695034e+03,8.952828e+02
2.695998e+03,9.047936e+02
2.696963e+03,9.050143e+02
2.697927e+03,9.002816e+02
2.698891e+03,8.915385e+02
2.699855e+03,8.849952e+02
2.700820e+03,8.845843e+02
2.701784e+03,8.865114e+02
2.702748e+03,8.894122e+02
2.703712e+03,8.894083e+02
2.704677e+03,8.879823e+02
2.705641e+03,8.940259e+02
2.706605e+03,9.005464e+02
2.707569e+03,8.970406e+02
2.708533e+03,8.897578e+02
2.709498e+03,8.807348e+02
2.710462e+03,8.760638e+02
2.711426e+03,8.809332e+02
2.712390e+03,8.903939e+02
2.713354e+03,9.010988e+02
2.714319e+03,8.965258e+02
2.715283e+03,8.846213e+02
2.716247e+03,8.842184e+02
2.717211e+03,8.890336e+02
2.718176e+03,8.953588e+02
2.719140e+03,8.963284e+02
2.720104e+03,8.843597e+02
2.721068e+03,8.741312e+02
2.722033e+03,8.681907e+02
2.722997e+03,8.725707e+02
2.723961e+03,8.825616e+02
2.724925e+03,8.828796e+02
2.725890e+03,8.763990e+02
2.726854e+03,8.607662e+02
2.727818e+03,8.535931e+02
2.728782e+03,8.638264e+02
2.729747e+03,8.747256e+02
2.730711e+03,8.798459e+02
2.731675e+03,8.762317e+02
2.732639e+03,8.674287e+02
2.733604e+03,8.719305e+02
2.734568e+03,8.808821e+02
2.735532e+03,8.618661e+02
2.736496e+03,8.429196e+02
2.737460e+03,8.457393e+02
2.738425e+03,8.534432e+02
2.739389e+03,8.567920e+02
2.740353e+03,8.545074e+02
2.741317e+03,8.473749e+02
2.742281e+03,8.484922e+02
2.743246e+03,8.536590e+02
2.744210e+03,8.383337e+02
2.745174e+03,8.223115e+02
2.746138e+03,8.410924e+02
2.747103e+03,8.571067e+02
2.748067e+03,8.557789e+02
2.749031e+03,8.517758e+02
2.749995e+03,8.512509e+02
2.750960e+03,8.460836e+02
2.751924e+03,8.397019e+02
2.752888e+03,8.444120e+02
2.753852e+03,8.528233e+02
2.754817e+03,8.458409e+02
2.755781e+03,8.397049e+02
2.756745e+03,8.433040e+02
2.757709e+03,8.513950e+02
2.758674e+03,8.612902e+02
2.759638e+03,8.596221e+02
2.760602e+03,8.457231e+02
2.761566e+03,8.446368e+02
2.762531e+03,8.488964e+02
2.763495e+03,8.427822e+02
2.764459e+03,8.346122e+02
2.765423e+03,8.312952e+02
2.766387e+03,8.361863e+02
2.767352e+03,8.497166e+02
2.768316e+03,8.530518e+02
2.769280e+03,8.427791e+02
2.770244e+03,8.475939e+02
2.771208e+03,8.564750e+02
2.772173e+03,8.408121e+02
2.773137e+03,8.253969e+02
2.774101e+03,8.463215e+02
2.775065e+03,8.582500e+02
2.776030e+03,8.400637e+02
2.776994e+03,8.225369e+02
2.777958e+03,8.095403e+02
2.778922e+03,8.112174e+02
2.779887e+03,8.202986e+02
2.780851e+03,8.131000e+02
2.781815e+03,8.068341e+02
2.782779e+03,8.144452e+02
2.783744e+03,8.238386e+02
2.784708e+03,8.272508e+02
2.785672e+03,8.279004e+02
2.786636e+03,8.264490e+02
2.787601e+03,8.276804e+02
2.788565e+03,8.304521e+02
2.789529e+03,8.279858e+02
2.790493e+03,8.262451e+02
2.791458e+03,8.344809e+02
2.792422e+03,8.325048e+02
2.793386e+03,8.179568e+02
2.794350e+03,8.131063e+02
2.795314e+03,8.228004e+02
2.796279e+03,8.289008e+02
2.797243e+03,8.291842e+02
2.798207e+03,8.207812e+02
2.799171e+03,8.140181e+02
2.800135e+03,8.271227e+02
2.801100e+03,8.289642e+02
2.802064e+03,8.118099e+02
2.803028e+03,8.005410e+02
2.803992e+03,7.975297e+02
2.804957e+03,8.076235e+02
2.805921e+03,8.217506e+02
2.806885e+03,8.235341e+02
2.807849e+03,8.199012e+02
2.808814e+03,8.149589e+02
2.809778e+03,8.122264e+02
2.810742e+03,8.155271e+02
2.811706e+03,8.074313e+02
2.812671e+03,7.943066e+02
2.813635e+03,8.036625e+02
2.814599e+03,8.207348e+02
2.815563e+03,8.153705e+02
2.816528e+03,8.085905e+02
2.817492e+03,8.105925e+02
2.818456e+03,8.068528e+02
2.819420e+03,7.961452e+02
2.820385e+03,7.897286e+02
2.821349e+03,7.885834e+02
2.822313e+03,7.883067e+02
2.823277e+03,7.901143e+02
2.824241e+03,7.936680e+02
2.825206e+03,7.998949e+02
2.826170e+03,8.114521e+02
2.827134e+03,8.193712e+02
2.828098e+03,8.209277e+02
2.829063e+03,8.143499e+02
2.830027e+03,8.027486e+02
2.830991e+03,7.882574e+02
2.831955e+03,7.822042e+02
2.832919e+03,8.021851e+02
2.833884e+03,8.098985e+02
2.834848e+03,8.009219e+02
2.835812e+03,7.987479e+02
2.836776e+03,8.051624e+02
2.837741e+03,8.089764e+02
2.838705e+03,8.063771e+02
2.839669e+03,7.909178e+02
2.840633e+03,7.811254e+02
2.841598e+03,7.879532e+02
2.842562e+03,7.883958e+02
2.843526e+03,7.777985e+02
2.844490e+03,7.819382e+02
2.845455e+03,7.906476e+02
2.846419e+03,7.857536e+02
2.847383e+03,7.779688e+02
2.848347e+03,7.765135e+02
2.849312e+03,7.834365e+02
2.850276e+03,7.981642e+02
2.851240e+03,7.971934e+02
2.852204e+03,7.831061e+02
2.853168e+03,7.770178e+02
2.854133e+03,7.776993e+02
2.855097e+03,7.899513e+02
2.856061e+03,7.920313e+02
2.857025e+03,7.770487e+02
2.857990e+03,7.744703e+02
2.858954e+03,7.938970e+02
2.859918e+03,7.882117e+02
2.860882e+03,7.739993e+02
2.861846e+03,7.790599e+02
2.862811e+03,7.880846e+02
2.863775e+03,7.852369e+02
2.864739e+03,7.890071e+02
2.865703e+03,8.044316e+02
2.866668e+03,8.004570e+02
2.867632e+03,7.868063e+02
2.868596e+03,7.975399e+02
2.869560e+03,8.118340e+02
2.870525e+03,8.022018e+02
2.871489e+03,7.942370e+02
2.872453e+03,7.939423e+02
2.873417e+03,7.965839e+02
2.874382e+03,7.987844e+02
2.875346e+03,7.801621e+02
2.876310e+03,7.631675e+02
2.877274e+03,7.855027e+02
2.878239e+03,8.081396e+02
2.879203e+03,8.156662e+02
2.880167e+03,8.137188e+02
2.881131e+03,8.043586e+02
2.882095e+03,8.005359e+02
2.883060e+03,8.001033e+02
2.884024e+03,7.977198e+02
2.884988e+03,7.972161e+02
2.885952e+03,8.032233e+02
2.886917e+03,8.071307e+02
2.887881e+03,8.071551e+02
2.888845e+03,7.959668e+02
2.889809e+03,7.817747e+02
2.890773e+03,7.828385e+02
2.891738e+03,7.883658e+02
2.892702e+03,7.909039e+02
2.893666e+03,7.887153e+02
2.894630e+03,7.823742e+02
2.895595e+03,7.912303e+02
2.896559e+03,8.091960e+02
2.897523e+03,8.068738e+02
2.898487e+03,7.962115e+02
2.899452e+03,7.863281e+02
2.900416e+03,7.798143e+02
2.901380e+03,7.764875e+02
2.902344e+03,7.825566e+02
2.903309e+03,7.964232e+02
2.904273e+03,8.023444e+02
2.905237e+03,7.986154e+02
2.906201e+03,7.823172e+02
2.907166e+03,7.685909e+02
2.908130e+03,7.633884e+02
2.909094e+03,7.734157e+02
2.910058e+03,7.954121e+02
2.911022e+03,7.814517e+02
2.911987e+03,7.611838e+02
2.912951e+03,7.681204e+02
2.913915e+03,7.768571e+02
2.914879e+03,7.681498e+02
2.915844e+03,7.610721e+02
2.916808e+03,7.591625e+02
2.917772e+03,7.667376e+02
2.918736e+03,7.785226e+02
2.919700e+03,7.884472e+02
2.920665e+03,7.912106e+02
2.921629e+03,7.765632e+02
2.922593e+03,7.696403e+02
2.923557e+03,7.687822e+02
2.924522e+03,7.546692e+02
2.925486e+03,7.370795e+02
2.926450e+03,7.429430e+02
2.927414e+03,7.508934e+02
2.928379e+03,7.515032e+02
2.929343e+03,7.528412e+02
2.930307e+03,7.553021e+02
2.931271e+03,7.577155e+02
2.932236e+03,7.598145e+02
2.933200e+03,7.605793e+02
2.934164e+03,7.573617e+02
2.935128e+03,7.477328e+02
2.936093e+03,7.498972e+02
2.937057e+03,7.617319e+02
2.938021e+03,7.472683e+02
2.938985e+03,7.268250e+02
2.939949e+03,7.370508e+02
2.940914e+03,7.490445e+02
2.941878e+03,7.525287e+02
2.942842e+03,7.553493e+02
2.943806e+03,7.580185e+02
2.944771e+03,7.563189e+02
2.945735e+03,7.534486e+02
2.946699e+03,7.551912e+02
2.947663e+03,7.532530e+02
2.948627e+03,7.444372e+02
2.949592e+03,7.350231e+02
2.950556e+03,7.283969e+02
2.951520e+03,7.421334e+02
2.952484e+03,7.541683e+02
2.953449e+03,7.410800e+02
2.954413e+03,7.325519e+02
2.955377e+03,7.418566e+02
2.956341e+03,7.595375e+02
2.957306e+03,7.788283e+02
2.958270e+03,7.772106e+02
2.959234e+03,7.608707e+02
2.960198e+03,7.363347e+02
2.961163e+03,7.287620e+02
2.962127e+03,7.510992e+02
2.963091e+03,7.461893e+02
2.964055e+03,7.195579e+02
2.965020e+03,7.067375e+02
2.965984e+03,7.078025e+02
2.966948e+03,7.214402e+02
2.967912e+03,7.331591e+02
2.968876e+03,7.371347e+02
2.969841e+03,7.388818e+02
2.970805e+03,7.337961e+02
2.971769e+03,7.143724e+02
2.972733e+03,6.937686e+02
2.973698e+03,6.805834e+02
2.974662e+03,6.766209e+02
2.975626e+03,6.841353e+02
2.976590e+03,7.057177e+02
2.977554e+03,7.266978e+02
2.978519e+03,7.267192e+02
2.979483e+03,7.231613e+02
2.980447e+03,7.288953e+02
2.981411e+03,7.295430e+02
2.982376e+03,7.251466e+02
2.983340e+03,7.296184e+02
2.984304e+03,7.355283e+02
2.985268e+03,7.357399e+02
2.986233e+03,7.347658e+02
2.987197e+03,7.367261e+02
2.988161e+03,7.266562e+02
2.989125e+03,7.092392e+02
2.990090e+03,7.014343e+02
2.991054e+03,6.949757e+02
2.992018e+03,6.815906e+02
2.992982e+03,6.786656e+02
2.993947e+03,6.965787e+02
2.994911e+03,7.064750e+02
2.995875e+03,7.111991e+02
2.996839e+03,7.173309e+02
2.997803e+03,7.136562e+02
2.998768e+03,6.928574e+02
2.999732e+03,6.798666e+02
3.000696e+03,6.808905e+02
3.001660e+03,6.883363e+02
3.002625e+03,6.975896e+02
3.003589e+03,7.060524e+02
3.004553e+03,7.043187e+02
3.005517e+03,6.878387e+02
3.006481e+03,6.854814e+02
3.007446e+03,6.958221e+02
3.008410e+03,7.052655e+02
3.009374e+03,7.141223e+02
3.010338e+03,7.241273e+02
3.011303e+03,7.267448e+02
3.012267e+03,7.179258e+02
3.013231e+03,7.227959e+02
3.014195e+03,7.276229e+02
3.015160e+03,7.037400e+02
3.016124e+03,6.848432e+02
3.017088e+03,6.818503e+02
3.018052e+03,6.826844e+02
3.019017e+03,6.846133e+02
3.019981e+03,6.967367e+02
3.020945e+03,7.099925e+02
3.021909e+03,7.200839e+02
3.022874e+03,7.052521e+02
3.023838e+03,6.693287e+02
3.024802e+03,6.808185e+02
3.025766e+03,7.176354e+02
3.026730e+03,7.110501e+02
3.027695e+03,7.053814e+02
3.028659e+03,7.208404e+02
3.029623e+03,7.287419e+02
3.030587e+03,7.255781e+02
3.031552e+03,7.041972e+02
3.032516e+03,6.849353e+02
3.033480e+03,7.013580e+02
3.034444e+03,7.051508e+02
3.035408e+03,6.906891e+02
3.036373e+03,6.937056e+02
3.037337e+03,7.080043e+02
3.038301e+03,7.178383e+02
3.039265e+03,7.122157e+02
3.040230e+03,6.654479e+02
3.041194e+03,6.621093e+02
3.042158e+03,6.894417e+02
3.043122e+03,6.857441e+02
3.044087e+03,6.717698e+02
3.045051e+03,6.788658e+02
3.046015e+03,6.815726e+02
3.046979e+03,6.730699e+02
3.047944e+03,6.760538e+02
3.048908e+03,6.855363e+02
3.049872e+03,6.937316e+02
3.050836e+03,6.937048e+02
3.051801e+03,6.787158e+02
3.052765e+03,6.652414e+02
3.053729e+03,6.591580e+02
3.054693e+03,6.807433e+02
3.055657e+03,7.027176e+02
3.056622e+03,7.052345e+02
3.057586e+03,7.069655e+02
3.058550e+03,7.143282e+02
3.059514e+03,6.956409e+02
3.060479e+03,6.706495e+02
3.061443e+03,6.721002e+02
3.062407e+03,6.784089e+02
3.063371e+03,6.819089e+02
3.064335e+03,6.763547e+02
3.065300e+03,6.672932e+02
3.066264e+03,6.798463e+02
3.067228e+03,6.956459e+02
3.068192e+03,7.046862e+02
3.069157e+03,6.948014e+02
3.070121e+03,6.752469e+02
3.071085e+03,6.888522e+02
3.072049e+03,7.110009e+02
3.073014e+03,7.075703e+02
3.073978e+03,6.916506e+02
3.074942e+03,6.664693e+02
3.075906e+03,6.699581e+02
3.076871e+03,6.847916e+02
3.077835e+03,6.819148e+02
3.078799e+03,6.769524e+02
3.079763e+03,6.798499e+02
3.080728e+03,6.809838e+02
3.081692e+03,6.797883e+02
3.082656e+03,6.710840e+02
3.083620e+03,6.734210e+02
3.084584e+03,6.965872e+02
3.085549e+03,6.994036e+02
3.086513e+03,6.757748e+02
3.087477e+03,6.774454e+02
3.088441e+03,6.920314e+02
3.089406e+03,7.155738e+02
3.090370e+03,7.139736e+02
3.091334e+03,6.885258e+02
3.092298e+03,6.767267e+02
3.093262e+03,6.724761e+02
3.094227e+03,6.506093e+02
3.095191e+03,6.494232e+02
3.096155e+03,6.853519e+02
3.097119e+03,6.746179e+02
3.098084e+03,6.485045e+02
3.099048e+03,6.802720e+02
3.100012e+03,7.123996e+02
3.100976e+03,6.981775e+02
3.101941e+03,6.874288e+02
3.102905e+03,6.821157e+02
3.103869e+03,6.587303e+02
3.104833e+03,6.440311e+02
3.105798e+03,6.538102e+02
3.106762e+03,6.644190e+02
3.107726e+03,6.703961e+02
3.108690e+03,6.794717e+02
3.109655e+03,6.860592e+02
3.110619e+03,6.798918e+02
3.111583e+03,6.805497e+02
3.112547e+03,6.893006e+02
3.113511e+03,6.891537e+02
3.114476e+03,6.836053e+02
3.115440e+03,6.790273e+02
3.116404e+03,6.798910e+02
3.117368e+03,6.915317e+02
3.118333e+03,6.940433e+02
3.119297e+03,6.891013e+02
3.120261e+03,6.795281e+02
3.121225e+03,6.753396e+02
3.122189e+03,6.810759e+02
3.123154e+03,7.030801e+02
3.124118e+03,7.286715e+02
3.125082e+03,7.120428e+02
3.126046e+03,6.898641e+02
3.127011e+03,6.803449e+02
3.127975e+03,6.726739e+02
3.128939e+03,6.669220e+02
3.129903e+03,6.873842e+02
3.130868e+03,7.021509e+02
3.131832e+03,6.640593e+02
3.132796e+03,6.677472e+02
3.133760e+03,7.067888e+02
3.134725e+03,7.107981e+02
3.135689e+03,7.000536e+02
3.136653e+03,6.959260e+02
3.137617e+03,6.935530e+02
3.138582e+03,6.920590e+02
3.139546e+03,7.018018e+02
3.140510e+03,7.125092e+02
3.141474e+03,7.171176e+02
3.142438e+03,7.086449e+02
3.143403e+03,6.898274e+02
3.144367e+03,6.708139e+02
3.145331e+03,6.583590e+02
3.146295e+03,6.711017e+02
3.147260e+03,6.794958e+02
3.148224e+03,6.753212e+02
3.149188e+03,6.851102e+02
3.150152e+03,6.933100e+02
3.151116e+03,6.774659e+02
3.152081e+03,6.667722e+02
3.153045e+03,6.726758e+02
3.154009e+03,6.671325e+02
3.154973e+03,6.624717e+02
3.155938e+03,6.970404e+02
3.156902e+03,7.058589e+02
3.157866e+03,6.755658e+02
3.158830e+03,6.810798e+02
3.159795e+03,7.071403e+02
3.160759e+03,6.919208e+02
3.161723e+03,6.791645e+02
3.162687e+03,7.004803e+02
3.163652e+03,7.010678e+02
3.164616e+03,6.874131e+02
3.165580e+03,6.687515e+02
3.166544e+03,6.668116e+02
3.167509e+03,6.875434e+02
3.168473e+03,6.771197e+02
3.169437e+03,6.475828e+02
3.170401e+03,6.533260e+02
3.171365e+03,6.666960e+02
3.172330e+03,6.766121e+02
3.173294e+03,6.763251e+02
3.174258e+03,6.759349e+02
3.175222e+03,6.981028e+02
3.176187e+03,7.094891e+02
3.177151e+03,6.887186e+02
3.178115e+03,6.665657e+02
3.179079e+03,6.528125e+02
3.180043e+03,6.661649e+02
3.181008e+03,6.886022e+02
3.181972e+03,7.115743e+02
3.182936e+03,6.976342e+02
3.183900e+03,6.647379e+02
3.184865e+03,6.728058e+02
3.185829e+03,6.854817e+02
3.186793e+03,6.867659e+02
3.187757e+03,6.803128e+02
3.188722e+03,6.701624e+02
3.189686e+03,6.667991e+02
3.190650e+03,6.602493e+02
3.191614e+03,6.471011e+02
3.192579e+03,6.583580e+02
3.193543e+03,6.831807e+02
3.194507e+03,6.844318e+02
3.195471e+03,6.788967e+02
3.196436e+03,6.713035e+02
3.197400e+03,6.731512e+02
3.198364e+03,6.844366e+02
3.199328e+03,7.076464e+02
3.200292e+03,7.133625e+02
3.201257e+03,0.000000e+00
3.202221e+03,0.000000e+00
3.203185e+03,0.000000e+00
3.204149e+03,0.000000e+00
3.205114e+03,0.000000e+00
3.206078e+03,0.000000e+00
3.207042e+03,0.000000e+00
3.208006e+03,0.000000e+00
3.208970e+03,0.000000e+00
3.209935e+03,0.000000e+00
3.210899e+03,0.000000e+00
3.211863e+03,0.000000e+00
3.212827e+03,0.000000e+00
3.213792e+03,0.000000e+00
3.214756e+03,0.000000e+00
3.215720e+03,0.000000e+00
3.216684e+03,0.000000e+00
3.217649e+03,0.000000e+00
3.218613e+03,0.000000e+00
3.219577e+03,0.000000e+00
3.220541e+03,0.000000e+00
3.221506e+03,0.000000e+00
3.222470e+03,0.000000e+00
3.223434e+03,0.000000e+00
3.224398e+03,0.000000e+00
3.225363e+03,0.000000e+00
3.226327e+03,0.000000e+00
3.227291e+03,0.000000e+00
3.228255e+03,0.000000e+00
3.229219e+03,0.000000e+00
3.230184e+03,0.000000e+00
3.231148e+03,0.000000e+00
3.232112e+03,0.000000e+00
3.233076e+03,0.000000e+00
3.234041e+03,0.000000e+00
3.235005e+03,0.000000e+00
3.235969e+03,0.000000e+00
3.236933e+03,0.000000e+00
3.237897e+03,0.000000e+00
3.238862e+03,0.000000e+00
3.239826e+03,0.000000e+00
3.240790e+03,0.000000e+00
3.241754e+03,0.000000e+00
3.242719e+03,0.000000e+00
3.243683e+03,0.000000e+00
3.244647e+03,0.000000e+00
3.245611e+03,0.000000e+00
3.246576e+03,0.000000e+00
3.247540e+03,0.000000e+00
3.248504e+03,0.000000e+00
3.249468e+03,0.000000e+00
3.250433e+03,0.000000e+00
3.251397e+03,0.000000e+00
3.252361e+03,0.000000e+00
3.253325e+03,0.000000e+00
3.254290e+03,0.000000e+00
3.255254e+03,0.000000e+00
3.256218e+03,0.000000e+00
3.257182e+03,0.000000e+00
3.258146e+03,0.000000e+00
3.259111e+03,0.000000e+00
3.260075e+03,0.000000e+00
3.261039e+03,0.000000e+00
3.262003e+03,0.000000e+00
3.262968e+03,0.000000e+00
3.263932e+03,0.000000e+00
3.264896e+03,0.000000e+00
3.265860e+03,0.000000e+00
3.266824e+03,0.000000e+00
3.267789e+03,0.000000e+00
3.268753e+03,0.000000e+00
3.269717e+03,0.000000e+00
3.270681e+03,0.000000e+00
3.271646e+03,0.000000e+00
3.272610e+03,0.000000e+00
3.273574e+03,0.000000e+00
3.274538e+03,0.000000e+00
3.275503e+03,0.000000e+00
3.276467e+03,0.000000e+00
3.277431e+03,0.000000e+00
3.278395e+03,0.000000e+00
3.279360e+03,0.000000e+00
3.280324e+03,0.000000e+00
3.281288e+03,0.000000e+00
3.282252e+03,0.000000e+00
3.283217e+03,0.000000e+00
3.284181e+03,0.000000e+00
3.285145e+03,0.000000e+00
3.286109e+03,0.000000e+00
3.287073e+03,0.000000e+00
3.288038e+03,0.000000e+00
3.289002e+03,0.000000e+00
3.289966e+03,0.000000e+00
3.290930e+03,0.000000e+00
3.291895e+03,0.000000e+00
3.292859e+03,0.000000e+00
3.293823e+03,0.000000e+00
3.294787e+03,0.000000e+00
3.295751e+03,0.000000e+00
3.296716e+03,0.000000e+00
3.297680e+03,0.000000e+00
3.298644e+03,0.000000e+00
3.299608e+03,0.000000e+00
3.300573e+03,0.000000e+00
3.301537e+03,0.000000e+00
3.302501e+03,0.000000e+00
3.303465e+03,0.000000e+00
3.304430e+03,0.000000e+00
3.305394e+03,0.000000e+00
3.306358e+03,0.000000e+00
3.307322e+03,0.000000e+00
3.308287e+03,0.000000e+00
3.309251e+03,0.000000e+00
3.310215e+03,0.000000e+00
3.311179e+03,0.000000e+00
3.312144e+03,0.000000e+00
3.313108e+03,0.000000e+00
3.314072e+03,0.000000e+00
3.315036e+03,0.000000e+00
3.316000e+03,0.000000e+00
3.316965e+03,0.000000e+00
3.317929e+03,0.000000e+00
3.318893e+03,0.000000e+00
3.319857e+03,0.000000e+00
3.320822e+03,0.000000e+00
3.321786e+03,0.000000e+00
3.322750e+03,0.000000e+00
3.323714e+03,0.000000e+00
3.324678e+03,0.000000e+00
3.325643e+03,0.000000e+00
3.326607e+03,0.000000e+00
3.327571e+03,0.000000e+00
3.328535e+03,0.000000e+00
3.329500e+03,0.000000e+00
3.330464e+03,0.000000e+00
3.331428e+03,0.000000e+00
3.332392e+03,0.000000e+00
3.333357e+03,0.000000e+00
3.334321e+03,0.000000e+00
3.335285e+03,0.000000e+00
3.336249e+03,0.000000e+00
3.337214e+03,0.000000e+00
3.338178e+03,0.000000e+00
3.339142e+03,0.000000e+00
3.340106e+03,0.000000e+00
3.341071e+03,0.000000e+00
3.342035e+03,0.000000e+00
3.342999e+03,0.000000e+00
3.343963e+03,0.000000e+00
3.344927e+03,0.000000e+00
3.345892e+03,0.000000e+00
3.346856e+03,0.000000e+00
3.347820e+03,0.000000e+00
3.348784e+03,0.000000e+00
3.349749e+03,0.000000e+00
3.350713e+03,0.000000e+00
3.351677e+03,0.000000e+00
3.352641e+03,0.000000e+00
3.353605e+03,0.000000e+00
3.354570e+03,0.000000e+00
3.355534e+03,0.000000e+00
3.356498e+03,0.000000e+00
3.357462e+03,0.000000e+00
3.358427e+03,0.000000e+00
3.359391e+03,0.000000e+00
3.360355e+03,0.000000e+00
3.361319e+03,0.000000e+00
3.362284e+03,0.000000e+00
3.363248e+03,0.000000e+00
3.364212e+03,0.000000e+00
3.365176e+03,0.000000e+00
3.366141e+03,0.000000e+00
3.367105e+03,0.000000e+00
3.368069e+03,0.000000e+00
3.369033e+03,0.000000e+00
3.369998e+03,0.000000e+00
3.370962e+03,0.000000e+00
3.371926e+03,0.000000e+00
3.372890e+03,0.000000e+00
3.373854e+03,0.000000e+00
3.374819e+03,0.000000e+00
3.375783e+03,0.000000e+00
3.376747e+03,0.000000e+00
3.377711e+03,0.000000e+00
3.378676e+03,0.000000e+00
3.379640e+03,0.000000e+00
3.380604e+03,0.000000e+00
3.381568e+03,0.000000e+00
3.382532e+03,0.000000e+00
3.383497e+03,0.000000e+00
3.384461e+03,0.000000e+00
3.385425e+03,0.000000e+00
3.386389e+03,0.000000e+00
3.387354e+03,0.000000e+00
3.388318e+03,0.000000e+00
3.389282e+03,0.000000e+00
3.390246e+03,0.000000e+00
3.391211e+03,0.000000e+00
3.392175e+03,0.000000e+00
3.393139e+03,0.000000e+00
3.394103e+03,0.000000e+00
3.395068e+03,0.000000e+00
3.396032e+03,0.000000e+00
3.396996e+03,0.000000e+00
3.397960e+03,0.000000e+00
3.398925e+03,0.000000e+00
3.399889e+03,0.000000e+00
3.400853e+03,0.000000e+00
3.401817e+03,0.000000e+00
3.402781e+03,0.000000e+00
3.403746e+03,0.000000e+00
3.404710e+03,0.000000e+00
3.405674e+03,0.000000e+00
3.406638e+03,0.000000e+00
3.407603e+03,0.000000e+00
3.408567e+03,0.000000e+00
3.409531e+03,0.000000e+00
3.410495e+03,0.000000e+00
3.411459e+03,0.000000e+00
3.412424e+03,0.000000e+00
3.413388e+03,0.000000e+00
3.414352e+03,0.000000e+00
3.415316e+03,0.000000e+00
3.416281e+03,0.000000e+00
3.417245e+03,0.000000e+00
3.418209e+03,0.000000e+00
3.419173e+03,0.000000e+00
3.420138e+03,0.000000e+00
3.421102e+03,0.000000e+00
3.422066e+03,0.000000e+00
3.423030e+03,0.000000e+00
3.423995e+03,0.000000e+00
3.424959e+03,0.000000e+00
3.425923e+03,0.000000e+00
3.426887e+03,0.000000e+00
3.427852e+03,0.000000e+00
3.428816e+03,0.000000e+00
3.429780e+03,0.000000e+00
3.430744e+03,0.000000e+00
3.431708e+03,0.000000e+00
3.432673e+03,0.000000e+00
3.433637e+03,0.000000e+00
3.434601e+03,0.000000e+00
3.435565e+03,0.000000e+00
3.436530e+03,0.000000e+00
3.437494e+03,0.000000e+00
3.438458e+03,0.000000e+00
3.439422e+03,0.000000e+00
3.440386e+03,0.000000e+00
3.441351e+03,0.000000e+00
3.442315e+03,0.000000e+00
3.443279e+03,0.000000e+00
3.444243e+03,0.000000e+00
3.445208e+03,0.000000e+00
3.446172e+03,0.000000e+00
3.447136e+03,0.000000e+00
3.448100e+03,0.000000e+00
3.449065e+03,0.000000e+00
3.450029e+03,0.000000e+00
3.450993e+03,0.000000e+00
3.451957e+03,0.000000e+00
3.452922e+03,0.000000e+00
3.453886e+03,0.000000e+00
3.454850e+03,0.000000e+00
3.455814e+03,0.000000e+00
3.456779e+03,0.000000e+00
3.457743e+03,0.000000e+00
3.458707e+03,0.000000e+00
3.459671e+03,0.000000e+00
3.460635e+03,0.000000e+00
3.461600e+03,0.000000e+00
3.462564e+03,0.000000e+00
3.463528e+03,0.000000e+00
3.464492e+03,0.000000e+00
3.465457e+03,0.000000e+00
3.466421e+03,0.000000e+00
3.467385e+03,0.000000e+00
3.468349e+03,0.000000e+00
3.469313e+03,0.000000e+00
3.470278e+03,0.000000e+00
3.471242e+03,0.000000e+00
3.472206e+03,0.000000e+00
3.473170e+03,0.000000e+00
3.474135e+03,0.000000e+00
3.475099e+03,0.000000e+00
3.476063e+03,0.000000e+00
3.477027e+03,0.000000e+00
3.477992e+03,0.000000e+00
3.478956e+03,0.000000e+00
3.479920e+03,0.000000e+00
3.480884e+03,0.000000e+00
3.481849e+03,0.000000e+00
3.482813e+03,0.000000e+00
3.483777e+03,0.000000e+00
3.484741e+03,0.000000e+00
3.485706e+03,0.000000e+00
3.486670e+03,0.000000e+00
3.487634e+03,0.000000e+00
3.488598e+03,0.000000e+00
3.489563e+03,0.000000e+00
3.490527e+03,0.000000e+00
3.491491e+03,0.000000e+00
3.492455e+03,0.000000e+00
3.493419e+03,0.000000e+00
3.494384e+03,0.000000e+00
3.495348e+03,0.000000e+00
3.496312e+03,0.000000e+00
3.497276e+03,0.000000e+00
3.498240e+03,0.000000e+00
3.499205e+03,0.000000e+00
3.500169e+03,0.000000e+00
