9.931763e+01,0.000000e+00
1.002819e+02,0.000000e+00
1.012461e+02,0.000000e+00
1.022103e+02,0.000000e+00
1.031746e+02,0.000000e+00
1.041388e+02,0.000000e+00
1.051030e+02,0.000000e+00
1.060673e+02,0.000000e+00
1.070315e+02,0.000000e+00
1.079957e+02,0.000000e+00
1.089600e+02,0.000000e+00
1.099242e+02,0.000000e+00
1.108884e+02,0.000000e+00
1.118527e+02,0.000000e+00
1.128169e+02,0.000000e+00
1.137811e+02,0.000000e+00
1.147454e+02,0.000000e+00
1.157096e+02,0.000000e+00
1.166738e+02,0.000000e+00
1.176381e+02,0.000000e+00
1.186023e+02,0.000000e+00
1.195665e+02,0.000000e+00
1.205308e+02,0.000000e+00
1.214950e+02,0.000000e+00
1.224592e+02,0.000000e+00
1.234235e+02,0.000000e+00
1.243877e+02,0.000000e+00
1.253519e+02,0.000000e+00
1.263162e+02,0.000000e+00
1.272804e+02,0.000000e+00
1.282446e+02,0.000000e+00
1.292089e+02,0.000000e+00
1.301731e+02,0.000000e+00
1.311373e+02,0.000000e+00
1.321016e+02,0.000000e+00
1.330658e+02,0.000000e+00
1.340300e+02,0.000000e+00
1.349943e+02,0.000000e+00
1.359585e+02,0.000000e+00
1.369227e+02,0.000000e+00
1.378870e+02,0.000000e+00
1.388512e+02,0.000000e+00
1.398154e+02,0.000000e+00
1.407797e+02,0.000000e+00
1.417439e+02,0.000000e+00
1.427081e+02,0.000000e+00
1.436724e+02,0.000000e+00
1.446366e+02,0.000000e+00
1.456008e+02,0.000000e+00
1.465651e+02,0.000000e+00
1.475293e+02,0.000000e+00
1.484935e+02,0.000000e+00
1.494578e+02,0.000000e+00
1.504220e+02,0.000000e+00
1.513862e+02,0.000000e+00
1.523505e+02,0.000000e+00
1.533147e+02,0.000000e+00
1.542789e+02,0.000000e+00
1.552432e+02,0.000000e+00
1.562074e+02,0.000000e+00
1.571716e+02,0.000000e+00
1.581359e+02,0.000000e+00
1.591001e+02,0.000000e+00
1.600643e+02,0.000000e+00
1.610286e+02,0.000000e+00
1.619928e+02,0.000000e+00
1.629570e+02,0.000000e+00
1.639213e+02,0.000000e+00
1.648855e+02,0.000000e+00
1.658497e+02,0.000000e+00
1.668140e+02,0.000000e+00
1.677782e+02,0.000000e+00
1.687424e+02,0.000000e+00
1.697067e+02,0.000000e+00
1.706709e+02,0.000000e+00
1.716351e+02,0.000000e+00
1.725994e+02,0.000000e+00
1.735636e+02,0.000000e+00
1.745278e+02,0.000000e+00
1.754921e+02,0.000000e+00
1.764563e+02,0.000000e+00
1.774205e+02,0.000000e+00
1.783848e+02,0.000000e+00
1.793490e+02,0.000000e+00
1.803132e+02,0.000000e+00
1.812775e+02,0.000000e+00
1.822417e+02,0.000000e+00
1.832059e+02,0.000000e+00
1.841702e+02,0.000000e+00
1.851344e+02,0.000000e+00
1.860986e+02,0.000000e+00
1.870629e+02,0.000000e+00
1.880271e+02,0.000000e+00
1.889913e+02,0.000000e+00
1.899556e+02,0.000000e+00
1.909198e+02,0.000000e+00
1.918840e+02,0.000000e+00
1.928483e+02,0.000000e+00
1.938125e+02,0.000000e+00
1.947767e+02,0.000000e+00
1.957410e+02,0.000000e+00
1.967052e+02,0.000000e+00
1.976694e+02,0.000000e+00
1.986337e+02,0.000000e+00
1.995979e+02,1.046964e+04
2.005621e+02,1.047981e+04
2.015264e+02,1.049152e+04
2.024906e+02,1.050564e+04
2.034548e+02,1.052034e+04
2.044191e+02,1.053340e+04
2.053833e+02,1.054303e+04
2.063475e+02,1.054905e+04
2.073118e+02,1.055229e+04
2.082760e+02,1.055275e+04
2.092402e+02,1.055023e+04
2.102045e+02,1.054658e+04
2.111687e+02,1.054622e+04
2.121329e+02,1.055114e+04
2.130972e+02,1.056043e+04
2.140614e+02,1.057110e+04
2.150256e+02,1.057994e+04
2.159899e+02,1.058612e+04
2.169541e+02,1.059435e+04
2.179183e+02,1.060919e+04
2.188826e+02,1.062824e+04
2.198468e+02,1.064671e+04
2.208110e+02,1.066058e+04
2.217753e+02,1.066859e+04
2.227395e+02,1.067257e+04
2.237037e+02,1.067718e+04
2.246680e+02,1.068221e+04
2.256322e+02,1.068503e+04
2.265964e+02,1.068749e+04
2.275607e+02,1.069241e+04
2.285249e+02,1.070199e+04
2.294892e+02,1.071674e+04
2.304534e+02,1.073503e+04
2.314176e+02,1.075159e+04
2.323819e+02,1.076485e+04
2.333461e+02,1.077655e+04
2.343103e+02,1.078854e+04
2.352746e+02,1.080180e+04
2.362388e+02,1.081599e+04
2.372030e+02,1.082920e+04
2.381673e+02,1.083688e+04
2.391315e+02,1.083789e+04
2.400957e+02,1.083586e+04
2.410600e+02,1.083374e+04
2.420242e+02,1.083454e+04
2.429884e+02,1.084039e+04
2.439527e+02,1.085114e+04
2.449169e+02,1.086350e+04
2.458811e+02,1.087555e+04
2.468454e+02,1.088743e+04
2.478096e+02,1.089928e+04
2.487738e+02,1.091119e+04
2.497381e+02,1.092293e+04
2.507023e+02,1.093465e+04
2.516665e+02,1.094691e+04
2.526308e+02,1.095972e+04
2.535950e+02,1.096986e+04
2.545592e+02,1.097477e+04
2.555235e+02,1.097477e+04
2.564877e+02,1.097263e+04
2.574519e+02,1.097223e+04
2.584161e+02,1.097703e+04
2.593804e+02,1.098841e+04
2.603446e+02,1.100378e+04
2.613088e+02,1.102010e+04
2.622731e+02,1.103715e+04
2.632373e+02,1.105562e+04
2.642015e+02,1.107264e+04
2.651658e+02,1.108527e+04
2.661300e+02,1.109288e+04
2.670942e+02,1.109793e+04
2.680585e+02,1.110515e+04
2.690227e+02,1.111871e+04
2.699869e+02,1.113241e+04
2.709512e+02,1.114052e+04
2.719154e+02,1.114331e+04
2.728796e+02,1.114520e+04
2.738439e+02,1.115154e+04
2.748081e+02,1.116541e+04
2.757723e+02,1.118599e+04
2.767366e+02,1.120554e+04
2.777008e+02,1.121963e+04
2.786650e+02,1.122956e+04
2.796293e+02,1.123792e+04
2.805935e+02,1.124688e+04
2.815577e+02,1.125743e+04
2.825220e+02,1.126901e+04
2.834862e+02,1.127886e+04
2.844504e+02,1.128402e+04
2.854147e+02,1.128623e+04
2.863789e+02,1.128756e+04
2.873431e+02,1.129060e+04
2.883074e+02,1.129709e+04
2.892716e+02,1.130667e+04
2.902358e+02,1.131700e+04
2.912001e+02,1.132663e+04
2.921643e+02,1.133578e+04
2.931285e+02,1.134644e+04
2.940928e+02,1.135958e+04
2.950570e+02,1.137532e+04
2.960212e+02,1.139113e+04
2.969855e+02,1.140364e+04
2.979497e+02,1.141115e+04
2.989139e+02,1.141448e+04
2.998782e+02,1.141725e+04
3.008424e+02,1.142350e+04
3.018066e+02,1.143413e+04
3.027709e+02,1.144636e+04
3.037351e+02,1.145768e+04
3.046993e+02,1.146692e+04
3.056636e+02,1.147431e+04
3.066278e+02,1.148101e+04
3.075920e+02,1.148884e+04
3.085563e+02,1.149845e+04
3.095205e+02,1.151189e+04
3.104847e+02,1.152890e+04
3.114490e+02,1.154741e+04
3.124132e+02,1.156491e+04
3.133774e+02,1.157925e+04
3.143417e+02,1.158917e+04
3.153059e+02,1.159377e+04
3.162701e+02,1.159601e+04
3.172344e+02,1.159868e+04
3.181986e+02,1.160278e+04
3.191628e+02,1.160888e+04
3.201271e+02,1.161750e+04
3.210913e+02,1.162868e+04
3.220555e+02,1.164175e+04
3.230198e+02,1.165575e+04
3.239840e+02,1.167008e+04
3.249482e+02,1.168424e+04
3.259125e+02,1.169771e+04
3.268767e+02,1.171076e+04
3.278409e+02,1.172364e+04
3.288052e+02,1.173625e+04
3.297694e+02,1.174823e+04
3.307336e+02,1.175929e+04
3.316979e+02,1.176965e+04
3.326621e+02,1.177917e+04
3.336263e+02,1.178546e+04
3.345906e+02,1.178808e+04
3.355548e+02,1.179020e+04
3.365190e+02,1.179593e+04
3.374833e+02,1.180784e+04
3.384475e+02,1.182536e+04
3.394117e+02,1.184477e+04
3.403760e+02,1.186072e+04
3.413402e+02,1.187475e+04
3.423044e+02,1.189110e+04
3.432687e+02,1.191061e+04
3.442329e+02,1.193150e+04
3.451971e+02,1.195065e+04
3.461614e+02,1.196491e+04
3.471256e+02,1.197256e+04
3.480898e+02,1.197636e+04
3.490541e+02,1.197884e+04
3.500183e+02,1.198235e+04
3.509825e+02,1.198931e+04
3.519468e+02,1.200161e+04
3.529110e+02,1.201902e+04
3.538752e+02,1.203903e+04
3.548395e+02,1.205831e+04
3.558037e+02,1.207473e+04
3.567680e+02,1.208796e+04
3.577322e+02,1.209937e+04
3.586964e+02,1.211193e+04
3.596607e+02,1.212734e+04
3.606249e+02,1.214420e+04
3.615891e+02,1.215814e+04
3.625534e+02,1.216518e+04
3.635176e+02,1.216445e+04
3.644818e+02,1.215827e+04
3.654461e+02,1.215143e+04
3.664103e+02,1.215042e+04
3.673745e+02,1.215997e+04
3.683388e+02,1.217766e+04
3.693030e+02,1.219936e+04
3.702672e+02,1.222116e+04
3.712315e+02,1.224066e+04
3.721957e+02,1.225655e+04
3.731599e+02,1.226728e+04
3.741242e+02,1.227460e+04
3.750884e+02,1.228331e+04
3.760526e+02,1.229588e+04
3.770169e+02,1.231209e+04
3.779811e+02,1.232940e+04
3.789453e+02,1.234456e+04
3.799096e+02,1.235504e+04
3.808738e+02,1.236076e+04
3.818380e+02,1.236471e+04
3.828023e+02,1.237077e+04
3.837665e+02,1.238138e+04
3.847307e+02,1.239503e+04
3.856950e+02,1.241141e+04
3.866592e+02,1.242942e+04
3.876234e+02,1.244819e+04
3.885877e+02,1.246715e+04
3.895519e+02,1.248583e+04
3.905161e+02,1.250335e+04
3.914804e+02,1.251785e+04
3.924446e+02,1.252836e+04
3.934088e+02,1.253735e+04
3.943731e+02,1.254654e+04
3.953373e+02,1.255656e+04
3.963015e+02,1.256595e+04
3.972658e+02,1.257221e+04
3.982300e+02,1.257562e+04
3.991942e+02,1.258175e+04
4.001585e+02,1.259571e+04
4.011227e+02,1.261709e+04
4.020869e+02,1.263801e+04
4.030512e+02,1.265208e+04
4.040154e+02,1.266066e+04
4.049796e+02,1.267012e+04
4.059439e+02,1.268439e+04
4.069081e+02,1.270183e+04
4.078723e+02,1.271719e+04
4.088366e+02,1.272684e+04
4.098008e+02,1.273115e+04
4.107650e+02,1.273667e+04
4.117293e+02,1.274472e+04
4.126935e+02,1.275391e+04
4.136577e+02,1.276351e+04
4.146220e+02,1.277363e+04
4.155862e+02,1.278514e+04
4.165504e+02,1.279876e+04
4.175147e+02,1.281375e+04
4.184789e+02,1.282808e+04
4.194431e+02,1.284042e+04
4.204074e+02,1.285257e+04
4.213716e+02,1.286533e+04
4.223358e+02,1.287724e+04
4.233001e+02,1.288676e+04
4.242643e+02,1.289395e+04
4.252285e+02,1.290059e+04
4.261928e+02,1.290905e+04
4.271570e+02,1.292052e+04
4.281212e+02,1.293422e+04
4.290855e+02,1.294774e+04
4.300497e+02,1.296031e+04
4.310139e+02,1.297290e+04
4.319782e+02,1.298699e+04
4.329424e+02,1.300393e+04
4.339066e+02,1.302397e+04
4.348709e+02,1.304558e+04
4.358351e+02,1.306580e+04
4.367993e+02,1.308250e+04
4.377636e+02,1.309523e+04
4.387278e+02,1.310746e+04
4.396920e+02,1.312154e+04
4.406563e+02,1.313692e+04
4.416205e+02,1.315178e+04
4.425847e+02,1.316490e+04
4.435490e+02,1.317664e+04
4.445132e+02,1.318845e+04
4.454774e+02,1.320192e+04
4.464417e+02,1.321787e+04
4.474059e+02,1.323620e+04
4.483701e+02,1.325284e+04
4.493344e+02,1.326524e+04
4.502986e+02,1.327414e+04
4.512628e+02,1.328288e+04
4.522271e+02,1.329400e+04
4.531913e+02,1.330678e+04
4.541555e+02,1.331778e+04
4.551198e+02,1.332378e+04
4.560840e+02,1.332536e+04
4.570482e+02,1.332676e+04
4.580125e+02,1.333318e+04
4.589767e+02,1.334581e+04
4.599409e+02,1.336213e+04
4.609052e+02,1.337773e+04
4.618694e+02,1.338995e+04
4.628336e+02,1.339856e+04
4.637979e+02,1.340457e+04
4.647621e+02,1.340945e+04
4.657263e+02,1.341577e+04
4.666906e+02,1.342731e+04
4.676548e+02,1.344245e+04
4.686190e+02,1.345959e+04
4.695833e+02,1.347626e+04
4.705475e+02,1.349112e+04
4.715117e+02,1.350331e+04
4.724760e+02,1.351270e+04
4.734402e+02,1.352007e+04
4.744044e+02,1.352671e+04
4.753687e+02,1.353410e+04
4.763329e+02,1.354281e+04
4.772971e+02,1.355213e+04
4.782614e+02,1.356131e+04
4.792256e+02,1.357221e+04
4.801898e+02,1.358607e+04
4.811541e+02,1.360236e+04
4.821183e+02,1.361925e+04
4.830826e+02,1.363477e+04
4.840468e+02,1.364771e+04
4.850110e+02,1.365878e+04
4.859753e+02,1.367048e+04
4.869395e+02,1.368210e+04
4.879037e+02,1.369153e+04
4.888680e+02,1.369953e+04
4.898322e+02,1.370779e+04
4.907964e+02,1.371801e+04
4.917607e+02,1.373081e+04
4.927249e+02,1.374528e+04
4.936891e+02,1.376011e+04
4.946534e+02,1.377487e+04
4.956176e+02,1.378946e+04
4.965818e+02,1.380458e+04
4.975461e+02,1.382020e+04
4.985103e+02,1.383496e+04
4.994745e+02,1.384642e+04
5.004388e+02,1.385327e+04
5.014030e+02,1.385635e+04
5.023672e+02,1.385897e+04
5.033315e+02,1.386479e+04
5.042957e+02,1.387435e+04
5.052599e+02,1.388399e+04
5.062242e+02,1.388943e+04
5.071884e+02,1.389094e+04
5.081526e+02,1.389362e+04
5.091169e+02,1.390177e+04
5.100811e+02,1.391389e+04
5.110453e+02,1.392515e+04
5.120095e+02,1.393477e+04
5.129738e+02,1.394534e+04
5.139380e+02,1.395983e+04
5.149022e+02,1.397866e+04
5.158665e+02,1.399864e+04
5.168307e+02,1.401432e+04
5.177949e+02,1.401878e+04
5.187592e+02,1.401324e+04
5.197234e+02,1.400611e+04
5.206876e+02,1.400367e+04
5.216519e+02,1.400965e+04
5.226161e+02,1.402352e+04
5.235803e+02,1.404020e+04
5.245446e+02,1.405543e+04
5.255088e+02,1.406928e+04
5.264730e+02,1.408429e+04
5.274373e+02,1.410163e+04
5.284015e+02,1.411754e+04
5.293657e+02,1.412550e+04
5.303300e+02,1.412588e+04
5.312942e+02,1.412302e+04
5.322584e+02,1.412197e+04
5.332227e+02,1.412560e+04
5.341869e+02,1.413296e+04
5.351511e+02,1.414131e+04
5.361154e+02,1.414876e+04
5.370796e+02,1.415512e+04
5.380438e+02,1.416168e+04
5.390081e+02,1.417050e+04
5.399723e+02,1.418307e+04
5.409365e+02,1.420013e+04
5.419008e+02,1.421884e+04
5.428650e+02,1.423590e+04
5.438292e+02,1.425011e+04
5.447935e+02,1.426149e+04
5.457577e+02,1.427032e+04
5.467219e+02,1.427737e+04
5.476862e+02,1.428333e+04
5.486504e+02,1.428750e+04
5.496146e+02,1.428900e+04
5.505789e+02,1.428684e+04
5.515431e+02,1.428182e+04
5.525073e+02,1.427654e+04
5.534716e+02,1.427754e+04
5.544358e+02,1.428688e+04
5.554000e+02,1.430265e+04
5.563643e+02,1.432018e+04
5.573285e+02,1.433506e+04
5.582927e+02,1.434608e+04
5.592570e+02,1.435616e+04
5.602212e+02,1.436940e+04
5.611854e+02,1.438454e+04
5.621497e+02,1.439771e+04
5.631139e+02,1.440496e+04
5.640781e+02,1.440638e+04
5.650424e+02,1.440605e+04
5.660066e+02,1.440517e+04
5.669708e+02,1.440352e+04
5.679351e+02,1.440203e+04
5.688993e+02,1.440236e+04
5.698635e+02,1.440597e+04
5.708278e+02,1.441442e+04
5.717920e+02,1.442877e+04
5.727562e+02,1.444706e+04
5.737205e+02,1.446703e+04
5.746847e+02,1.448613e+04
5.756489e+02,1.450327e+04
5.766132e+02,1.451686e+04
5.775774e+02,1.452726e+04
5.785416e+02,1.453512e+04
5.795059e+02,1.454171e+04
5.804701e+02,1.454792e+04
5.814343e+02,1.455359e+04
5.823986e+02,1.455829e+04
5.833628e+02,1.456252e+04
5.843270e+02,1.456812e+04
5.852913e+02,1.457644e+04
5.862555e+02,1.458832e+04
5.872197e+02,1.460200e+04
5.881840e+02,1.461572e+04
5.891482e+02,1.462927e+04
5.901124e+02,1.464325e+04
5.910767e+02,1.465786e+04
5.920409e+02,1.467274e+04
5.930051e+02,1.468703e+04
5.939694e+02,1.469935e+04
5.949336e+02,1.470816e+04
5.958978e+02,1.471322e+04
5.968621e+02,1.471511e+04
5.978263e+02,1.471625e+04
5.987905e+02,1.471903e+04
5.997548e+02,1.472276e+04
6.007190e+02,1.472743e+04
6.016832e+02,1.473596e+04
6.026475e+02,1.474913e+04
6.036117e+02,1.476522e+04
6.045759e+02,1.478114e+04
6.055402e+02,1.479394e+04
6.065044e+02,1.480164e+04
6.074686e+02,1.480414e+04
6.084329e+02,1.480400e+04
6.093971e+02,1.480281e+04
6.103613e+02,1.480117e+04
6.113256e+02,1.479959e+04
6.122899e+02,1.479857e+04
6.132541e+02,1.479843e+04
6.142183e+02,1.479833e+04
6.151826e+02,1.479787e+04
6.161468e+02,1.479927e+04
6.171110e+02,1.480506e+04
6.180753e+02,1.481610e+04
6.190395e+02,1.483061e+04
6.200037e+02,1.484453e+04
6.209680e+02,1.485462e+04
6.219322e+02,1.486313e+04
6.228964e+02,1.487450e+04
6.238607e+02,1.488985e+04
6.248249e+02,1.490432e+04
6.257891e+02,1.491219e+04
6.267534e+02,1.491131e+04
6.277176e+02,1.490618e+04
6.286818e+02,1.490214e+04
6.296461e+02,1.490105e+04
6.306103e+02,1.490276e+04
6.315745e+02,1.490820e+04
6.325388e+02,1.491863e+04
6.335030e+02,1.493296e+04
6.344672e+02,1.494905e+04
6.354315e+02,1.496458e+04
6.363957e+02,1.497678e+04
6.373599e+02,1.498393e+04
6.383242e+02,1.498855e+04
6.392884e+02,1.499267e+04
6.402526e+02,1.499711e+04
6.412169e+02,1.500204e+04
6.421811e+02,1.500636e+04
6.431453e+02,1.500872e+04
6.441096e+02,1.500903e+04
6.450738e+02,1.500892e+04
6.460380e+02,1.501161e+04
6.470023e+02,1.502031e+04
6.479665e+02,1.503492e+04
6.489307e+02,1.505329e+04
6.498950e+02,1.507207e+04
6.508592e+02,1.508725e+04
6.518234e+02,1.509699e+04
6.527877e+02,1.510284e+04
6.537519e+02,1.510643e+04
6.547161e+02,1.510748e+04
6.556804e+02,1.510486e+04
6.566446e+02,1.509975e+04
6.576088e+02,1.509536e+04
6.585731e+02,1.509446e+04
6.595373e+02,1.509648e+04
6.605015e+02,1.509805e+04
6.614658e+02,1.509839e+04
6.624300e+02,1.510049e+04
6.633942e+02,1.510734e+04
6.643585e+02,1.511926e+04
6.653227e+02,1.513308e+04
6.662869e+02,1.514652e+04
6.672512e+02,1.515898e+04
6.682154e+02,1.517125e+04
6.691796e+02,1.518144e+04
6.701439e+02,1.518759e+04
6.711081e+02,1.518883e+04
6.720723e+02,1.518572e+04
6.730366e+02,1.518052e+04
6.740008e+02,1.517525e+04
6.749650e+02,1.516938e+04
6.759293e+02,1.516196e+04
6.768935e+02,1.515402e+04
6.778577e+02,1.514802e+04
6.788220e+02,1.514704e+04
6.797862e+02,1.515445e+04
6.807504e+02,1.516739e+04
6.817147e+02,1.518239e+04
6.826789e+02,1.519640e+04
6.836431e+02,1.520608e+04
6.846074e+02,1.520919e+04
6.855716e+02,1.520678e+04
6.865358e+02,1.520188e+04
6.875001e+02,1.519729e+04
6.884643e+02,1.519484e+04
6.894285e+02,1.519513e+04
6.903928e+02,1.519692e+04
6.913570e+02,1.519876e+04
6.923212e+02,1.519975e+04
6.932855e+02,1.520076e+04
6.942497e+02,1.520564e+04
6.952139e+02,1.521645e+04
6.961782e+02,1.523265e+04
6.971424e+02,1.525153e+04
6.981066e+02,1.526940e+04
6.990709e+02,1.527987e+04
7.000351e+02,1.528018e+04
7.009993e+02,1.527333e+04
7.019636e+02,1.526599e+04
7.029278e+02,1.526464e+04
7.038920e+02,1.526940e+04
7.048563e+02,1.527217e+04
7.058205e+02,1.526622e+04
7.067847e+02,1.525439e+04
7.077490e+02,1.524566e+04
7.087132e+02,1.524811e+04
7.096774e+02,1.526092e+04
7.106417e+02,1.527125e+04
7.116059e+02,1.527594e+04
7.125701e+02,1.527668e+04
7.135344e+02,1.527426e+04
7.144986e+02,1.527355e+04
7.154628e+02,1.527731e+04
7.164271e+02,1.528394e+04
7.173913e+02,1.528756e+04
7.183555e+02,1.528043e+04
7.193198e+02,1.526430e+04
7.202840e+02,1.525162e+04
7.212482e+02,1.524658e+04
7.222125e+02,1.524566e+04
7.231767e+02,1.524213e+04
7.241409e+02,1.522800e+04
7.251052e+02,1.522117e+04
7.260694e+02,1.523010e+04
7.270336e+02,1.523804e+04
7.279979e+02,1.523813e+04
7.289621e+02,1.522902e+04
7.299263e+02,1.522076e+04
7.308906e+02,1.521657e+04
7.318548e+02,1.521299e+04
7.328190e+02,1.520909e+04
7.337833e+02,1.520462e+04
7.347475e+02,1.519793e+04
7.357117e+02,1.519025e+04
7.366760e+02,1.518414e+04
7.376402e+02,1.517841e+04
7.386044e+02,1.517369e+04
7.395687e+02,1.516941e+04
7.405329e+02,1.516104e+04
7.414971e+02,1.514471e+04
7.424614e+02,1.513650e+04
7.434256e+02,1.515138e+04
7.443898e+02,1.517592e+04
7.453541e+02,1.520083e+04
7.463183e+02,1.521718e+04
7.472825e+02,1.522025e+04
7.482468e+02,1.520373e+04
7.492110e+02,1.517786e+04
7.501752e+02,1.515829e+04
7.511395e+02,1.515099e+04
7.521037e+02,1.515021e+04
7.530679e+02,1.514336e+04
7.540322e+02,1.512887e+04
7.549964e+02,1.512759e+04
7.559606e+02,1.514811e+04
7.569249e+02,1.516415e+04
7.578891e+02,1.515535e+04
7.588533e+02,1.512102e+04
7.598176e+02,1.510996e+04
7.607818e+02,1.512972e+04
7.617460e+02,1.513971e+04
7.627103e+02,1.512838e+04
7.636745e+02,1.510650e+04
7.646387e+02,1.509116e+04
7.656030e+02,1.508972e+04
7.665672e+02,1.509561e+04
7.675314e+02,1.509742e+04
7.684957e+02,1.508795e+04
7.694599e+02,1.507093e+04
7.704241e+02,1.505768e+04
7.713884e+02,1.505132e+04
7.723526e+02,1.504576e+04
7.733168e+02,1.504400e+04
7.742811e+02,1.504948e+04
7.752453e+02,1.505601e+04
7.762095e+02,1.505907e+04
7.771738e+02,1.506259e+04
7.781380e+02,1.506149e+04
7.791022e+02,1.505531e+04
7.800665e+02,1.505217e+04
7.810307e+02,1.504945e+04
7.819949e+02,1.504094e+04
7.829592e+02,1.502496e+04
7.839234e+02,1.501327e+04
7.848876e+02,1.501128e+04
7.858519e+02,1.501243e+04
7.868161e+02,1.500832e+04
7.877803e+02,1.499516e+04
7.887446e+02,1.497569e+04
7.897088e+02,1.495324e+04
7.906730e+02,1.493447e+04
7.916373e+02,1.493253e+04
7.926015e+02,1.494681e+04
7.935657e+02,1.495876e+04
7.945300e+02,1.494906e+04
7.954942e+02,1.491717e+04
7.964584e+02,1.488095e+04
7.974227e+02,1.484913e+04
7.983869e+02,1.483342e+04
7.993511e+02,1.483061e+04
8.003154e+02,1.483758e+04
8.012796e+02,1.483523e+04
8.022438e+02,1.482256e+04
8.032081e+02,1.481005e+04
8.041723e+02,1.480579e+04
8.051365e+02,1.480950e+04
8.061008e+02,1.481312e+04
8.070650e+02,1.480631e+04
8.080292e+02,1.479140e+04
8.089935e+02,1.478153e+04
8.099577e+02,1.478233e+04
8.109219e+02,1.478379e+04
8.118862e+02,1.476884e+04
8.128504e+02,1.473825e+04
8.138146e+02,1.472149e+04
8.147789e+02,1.472131e+04
8.157431e+02,1.472185e+04
8.167073e+02,1.471225e+04
8.176716e+02,1.469638e+04
8.186358e+02,1.469447e+04
8.196000e+02,1.472460e+04
8.205643e+02,1.474975e+04
8.215285e+02,1.474280e+04
8.224927e+02,1.470701e+04
8.234570e+02,1.467769e+04
8.244212e+02,1.466643e+04
8.253854e+02,1.466283e+04
8.263497e+02,1.466050e+04
8.273139e+02,1.465427e+04
8.282781e+02,1.464240e+04
8.292424e+02,1.462940e+04
8.302066e+02,1.461934e+04
8.311708e+02,1.461179e+04
8.321351e+02,1.460680e+04
8.330993e+02,1.460513e+04
8.340635e+02,1.460481e+04
8.350278e+02,1.460402e+04
8.359920e+02,1.460242e+04
8.369562e+02,1.460090e+04
8.379205e+02,1.459615e+04
8.388847e+02,1.458526e+04
8.398489e+02,1.457217e+04
8.408132e+02,1.456458e+04
8.417774e+02,1.456756e+04
8.427416e+02,1.456380e+04
8.437059e+02,1.454694e+04
8.446701e+02,1.452564e+04
8.456343e+02,1.451046e+04
8.465986e+02,1.450500e+04
8.475628e+02,1.449757e+04
8.485270e+02,1.448053e+04
8.494913e+02,1.446107e+04
8.504555e+02,1.444982e+04
8.514197e+02,1.445116e+04
8.523840e+02,1.445513e+04
8.533482e+02,1.444433e+04
8.543124e+02,1.442798e+04
8.552767e+02,1.443218e+04
8.562409e+02,1.445831e+04
8.572051e+02,1.447888e+04
8.581694e+02,1.446355e+04
8.591336e+02,1.441797e+04
8.600978e+02,1.438515e+04
8.610621e+02,1.436941e+04
8.620263e+02,1.436598e+04
8.629905e+02,1.436980e+04
8.639548e+02,1.437643e+04
8.649190e+02,1.437289e+04
8.658832e+02,1.436489e+04
8.668475e+02,1.435298e+04
8.678117e+02,1.432854e+04
8.687759e+02,1.429495e+04
8.697402e+02,1.428161e+04
8.707044e+02,1.430976e+04
8.716686e+02,1.432216e+04
8.726329e+02,1.429723e+04
8.735971e+02,1.425389e+04
8.745613e+02,1.422168e+04
8.755256e+02,1.422256e+04
8.764898e+02,1.423375e+04
8.774540e+02,1.423979e+04
8.784183e+02,1.424011e+04
8.793825e+02,1.423529e+04
8.803467e+02,1.422485e+04
8.813110e+02,1.421071e+04
8.822752e+02,1.419427e+04
8.832394e+02,1.418031e+04
8.842037e+02,1.417822e+04
8.851679e+02,1.418760e+04
8.861321e+02,1.419404e+04
8.870964e+02,1.417704e+04
8.880606e+02,1.413402e+04
8.890248e+02,1.409990e+04
8.899891e+02,1.408506e+04
8.909533e+02,1.408063e+04
8.919175e+02,1.407493e+04
8.928818e+02,1.406596e+04
8.938460e+02,1.406390e+04
8.948102e+02,1.407283e+04
8.957745e+02,1.407709e+04
8.967387e+02,1.406640e+04
8.977029e+02,1.403858e+04
8.986672e+02,1.401624e+04
8.996314e+02,1.401860e+04
9.005956e+02,1.402459e+04
9.015599e+02,1.402629e+04
9.025241e+02,1.402015e+04
9.034883e+02,1.400405e+04
9.044526e+02,1.396498e+04
9.054168e+02,1.392049e+04
9.063810e+02,1.388735e+04
9.073453e+02,1.387127e+04
9.083095e+02,1.387118e+04
9.092737e+02,1.388613e+04
9.102380e+02,1.389976e+04
9.112022e+02,1.389615e+04
9.121664e+02,1.387788e+04
9.131307e+02,1.385125e+04
9.140949e+02,1.382180e+04
9.150591e+02,1.380377e+04
9.160234e+02,1.381426e+04
9.169876e+02,1.384133e+04
9.179518e+02,1.384261e+04
9.189161e+02,1.381021e+04
9.198803e+02,1.376686e+04
9.208445e+02,1.374090e+04
9.218088e+02,1.373915e+04
9.227730e+02,1.373652e+04
9.237372e+02,1.372767e+04
9.247015e+02,1.371989e+04
9.256657e+02,1.372074e+04
9.266299e+02,1.372999e+04
9.275942e+02,1.372707e+04
9.285584e+02,1.369436e+04
9.295226e+02,1.366448e+04
9.304869e+02,1.365494e+04
9.314511e+02,1.366146e+04
9.324153e+02,1.366337e+04
9.333796e+02,1.365194e+04
9.343438e+02,1.364300e+04
9.353080e+02,1.364257e+04
9.362723e+02,1.363984e+04
9.372365e+02,1.362475e+04
9.382007e+02,1.359354e+04
9.391650e+02,1.357177e+04
9.401292e+02,1.357959e+04
9.410934e+02,1.359688e+04
9.420577e+02,1.359634e+04
9.430219e+02,1.356921e+04
9.439861e+02,1.353452e+04
9.449504e+02,1.350231e+04
9.459146e+02,1.348425e+04
9.468788e+02,1.349601e+04
9.478431e+02,1.352809e+04
9.488073e+02,1.354622e+04
9.497715e+02,1.351971e+04
9.507358e+02,1.346907e+04
9.517000e+02,1.343845e+04
9.526642e+02,1.343127e+04
9.536285e+02,1.342588e+04
9.545927e+02,1.340339e+04
9.555569e+02,1.337127e+04
9.565212e+02,1.335824e+04
9.574854e+02,1.336941e+04
9.584496e+02,1.338231e+04
9.594139e+02,1.338224e+04
9.603781e+02,1.337062e+04
9.613423e+02,1.336136e+04
9.623066e+02,1.335681e+04
9.632708e+02,1.334656e+04
9.642350e+02,1.332987e+04
9.651993e+02,1.331269e+04
9.661635e+02,1.329875e+04
9.671277e+02,1.328629e+04
9.680920e+02,1.326929e+04
9.690562e+02,1.324241e+04
9.700204e+02,1.321465e+04
9.709847e+02,1.319925e+04
9.719489e+02,1.320494e+04
9.729131e+02,1.319913e+04
9.738774e+02,1.316794e+04
9.748416e+02,1.314588e+04
9.758058e+02,1.314474e+04
9.767701e+02,1.315786e+04
9.777343e+02,1.316949e+04
9.786985e+02,1.318627e+04
9.796628e+02,1.318816e+04
9.806270e+02,1.316197e+04
9.815912e+02,1.311967e+04
9.825555e+02,1.308188e+04
9.835197e+02,1.306060e+04
9.844839e+02,1.304711e+04
9.854482e+02,1.304483e+04
9.864124e+02,1.304728e+04
9.873766e+02,1.304224e+04
9.883409e+02,1.302673e+04
9.893051e+02,1.301392e+04
9.902693e+02,1.301434e+04
9.912336e+02,1.302127e+04
9.921978e+02,1.302411e+04
9.931620e+02,1.301779e+04
9.941263e+02,1.300412e+04
9.950905e+02,1.298052e+04
9.960547e+02,1.295570e+04
9.970190e+02,1.294158e+04
9.979832e+02,1.293466e+04
9.989474e+02,1.292537e+04
9.999117e+02,1.291311e+04
1.000876e+03,1.290021e+04
1.001840e+03,1.288709e+04
1.002804e+03,1.287704e+04
1.003769e+03,1.286981e+04
1.004733e+03,1.286101e+04
1.005697e+03,1.285459e+04
1.006661e+03,1.286339e+04
1.007626e+03,1.288397e+04
1.008590e+03,1.289617e+04
1.009554e+03,1.289332e+04
1.010518e+03,1.287977e+04
1.011482e+03,1.286307e+04
1.012447e+03,1.284290e+04
1.013411e+03,1.281889e+04
1.014375e+03,1.279712e+04
1.015339e+03,1.277635e+04
1.016304e+03,1.274931e+04
1.017268e+03,1.271778e+04
1.018232e+03,1.270002e+04
1.019196e+03,1.269516e+04
1.020161e+03,1.269866e+04
1.021125e+03,1.271495e+04
1.022089e+03,1.273873e+04
1.023053e+03,1.274537e+04
1.024018e+03,1.272724e+04
1.024982e+03,1.270409e+04
1.025946e+03,1.267392e+04
1.026910e+03,1.264096e+04
1.027875e+03,1.261908e+04
1.028839e+03,1.261854e+04
1.029803e+03,1.261676e+04
1.030767e+03,1.261174e+04
1.031731e+03,1.261019e+04
1.032696e+03,1.261687e+04
1.033660e+03,1.263141e+04
1.034624e+03,1.263080e+04
1.035588e+03,1.260936e+04
1.036552e+03,1.259189e+04
1.037517e+03,1.258628e+04
1.038481e+03,1.258591e+04
1.039445e+03,1.257937e+04
1.040409e+03,1.256519e+04
1.041374e+03,1.254837e+04
1.042338e+03,1.253255e+04
1.043302e+03,1.251832e+04
1.044266e+03,1.250285e+04
1.045231e+03,1.247959e+04
1.046195e+03,1.246366e+04
1.047159e+03,1.246825e+04
1.048123e+03,1.247399e+04
1.049088e+03,1.246533e+04
1.050052e+03,1.244309e+04
1.051016e+03,1.243289e+04
1.051980e+03,1.244604e+04
1.052945e+03,1.245657e+04
1.053909e+03,1.244562e+04
1.054873e+03,1.241424e+04
1.055837e+03,1.238862e+04
1.056802e+03,1.238483e+04
1.057766e+03,1.237767e+04
1.058730e+03,1.236080e+04
1.059694e+03,1.234168e+04
1.060658e+03,1.232747e+04
1.061623e+03,1.232481e+04
1.062587e+03,1.232221e+04
1.063551e+03,1.231713e+04
1.064515e+03,1.231400e+04
1.065479e+03,1.231432e+04
1.066444e+03,1.232094e+04
1.067408e+03,1.232725e+04
1.068372e+03,1.233044e+04
1.069336e+03,1.233470e+04
1.070301e+03,1.233798e+04
1.071265e+03,1.233661e+04
1.072229e+03,1.232967e+04
1.073193e+03,1.231402e+04
1.074158e+03,1.229586e+04
1.075122e+03,1.227475e+04
1.076086e+03,1.225353e+04
1.077050e+03,1.223861e+04
1.078015e+03,1.224199e+04
1.078979e+03,1.224560e+04
1.079943e+03,1.224133e+04
1.080907e+03,1.223546e+04
1.081872e+03,1.222885e+04
1.082836e+03,1.221836e+04
1.083800e+03,1.220472e+04
1.084764e+03,1.219000e+04
1.085729e+03,1.217667e+04
1.086693e+03,1.216358e+04
1.087657e+03,1.215007e+04
1.088621e+03,1.213750e+04
1.089585e+03,1.212490e+04
1.090550e+03,1.210899e+04
1.091514e+03,1.209886e+04
1.092478e+03,1.208952e+04
1.093442e+03,1.207115e+04
1.094406e+03,1.203747e+04
1.095371e+03,1.201387e+04
1.096335e+03,1.200850e+04
1.097299e+03,1.200733e+04
1.098263e+03,1.200263e+04
1.099228e+03,1.199261e+04
1.100192e+03,1.198040e+04
1.101156e+03,1.196113e+04
1.102120e+03,1.194338e+04
1.103085e+03,1.193456e+04
1.104049e+03,1.193027e+04
1.105013e+03,1.192142e+04
1.105977e+03,1.190348e+04
1.106942e+03,1.188719e+04
1.107906e+03,1.187141e+04
1.108870e+03,1.186103e+04
1.109834e+03,1.186415e+04
1.110799e+03,1.188961e+04
1.111763e+03,1.189549e+04
1.112727e+03,1.185897e+04
1.113691e+03,1.182288e+04
1.114656e+03,1.180596e+04
1.115620e+03,1.180676e+04
1.116584e+03,1.181183e+04
1.117548e+03,1.182469e+04
1.118512e+03,1.182661e+04
1.119477e+03,1.180527e+04
1.120441e+03,1.177457e+04
1.121405e+03,1.175742e+04
1.122369e+03,1.177478e+04
1.123334e+03,1.177500e+04
1.124298e+03,1.174873e+04
1.125262e+03,1.171755e+04
1.126226e+03,1.169719e+04
1.127191e+03,1.169008e+04
1.128155e+03,1.167956e+04
1.129119e+03,1.165289e+04
1.130083e+03,1.163471e+04
1.131047e+03,1.163678e+04
1.132012e+03,1.165049e+04
1.132976e+03,1.165646e+04
1.133940e+03,1.165341e+04
1.134904e+03,1.164351e+04
1.135869e+03,1.162787e+04
1.136833e+03,1.161165e+04
1.137797e+03,1.160019e+04
1.138761e+03,1.159873e+04
1.139726e+03,1.159696e+04
1.140690e+03,1.159402e+04
1.141654e+03,1.158718e+04
1.142618e+03,1.157181e+04
1.143583e+03,1.155063e+04
1.144547e+03,1.154087e+04
1.145511e+03,1.154683e+04
1.146475e+03,1.154540e+04
1.147439e+03,1.152693e+04
1.148404e+03,1.150274e+04
1.149368e+03,1.149056e+04
1.150332e+03,1.149079e+04
1.151296e+03,1.148333e+04
1.152261e+03,1.145964e+04
1.153225e+03,1.142754e+04
1.154189e+03,1.140163e+04
1.155153e+03,1.138572e+04
1.156118e+03,1.137351e+04
1.157082e+03,1.136881e+04
1.158046e+03,1.136574e+04
1.159010e+03,1.135646e+04
1.159974e+03,1.134530e+04
1.160939e+03,1.134315e+04
1.161903e+03,1.134630e+04
1.162867e+03,1.134617e+04
1.163831e+03,1.134034e+04
1.164796e+03,1.133076e+04
1.165760e+03,1.132437e+04
1.166724e+03,1.131986e+04
1.167688e+03,1.130718e+04
1.168653e+03,1.128744e+04
1.169617e+03,1.126917e+04
1.170581e+03,1.126148e+04
1.171545e+03,1.125696e+04
1.172510e+03,1.124076e+04
1.173474e+03,1.121952e+04
1.174438e+03,1.120522e+04
1.175402e+03,1.119999e+04
1.176366e+03,1.120043e+04
1.177331e+03,1.121326e+04
1.178295e+03,1.122706e+04
1.179259e+03,1.121942e+04
1.180223e+03,1.119099e+04
1.181188e+03,1.116948e+04
1.182152e+03,1.118554e+04
1.183116e+03,1.120101e+04
1.184080e+03,1.119161e+04
1.185045e+03,1.116639e+04
1.186009e+03,1.113695e+04
1.186973e+03,1.110256e+04
1.187937e+03,1.108225e+04
1.188901e+03,1.109242e+04
1.189866e+03,1.111030e+04
1.190830e+03,1.111464e+04
1.191794e+03,1.110073e+04
1.192758e+03,1.108646e+04
1.193723e+03,1.108636e+04
1.194687e+03,1.108373e+04
1.195651e+03,1.106204e+04
1.196615e+03,1.103101e+04
1.197580e+03,1.101613e+04
1.198544e+03,1.102958e+04
1.199508e+03,1.102466e+04
1.200472e+03,1.099519e+04
1.201437e+03,1.096108e+04
1.202401e+03,1.094143e+04
1.203365e+03,1.094182e+04
1.204329e+03,1.093339e+04
1.205293e+03,1.090826e+04
1.206258e+03,1.088996e+04
1.207222e+03,1.088826e+04
1.208186e+03,1.089765e+04
1.209150e+03,1.090542e+04
1.210115e+03,1.090827e+04
1.211079e+03,1.091013e+04
1.212043e+03,1.091359e+04
1.213007e+03,1.091276e+04
1.213972e+03,1.090211e+04
1.214936e+03,1.088632e+04
1.215900e+03,1.087635e+04
1.216864e+03,1.087259e+04
1.217828e+03,1.087031e+04
1.218793e+03,1.086710e+04
1.219757e+03,1.086411e+04
1.220721e+03,1.086186e+04
1.221685e+03,1.086205e+04
1.222650e+03,1.086592e+04
1.223614e+03,1.087063e+04
1.224578e+03,1.086954e+04
1.225542e+03,1.086062e+04
1.226507e+03,1.084779e+04
1.227471e+03,1.083200e+04
1.228435e+03,1.081139e+04
1.229399e+03,1.078714e+04
1.230364e+03,1.076184e+04
1.231328e+03,1.073672e+04
1.232292e+03,1.071717e+04
1.233256e+03,1.070406e+04
1.234220e+03,1.069193e+04
1.235185e+03,1.068105e+04
1.236149e+03,1.067591e+04
1.237113e+03,1.068256e+04
1.238077e+03,1.069329e+04
1.239042e+03,1.069659e+04
1.240006e+03,1.068902e+04
1.240970e+03,1.068269e+04
1.241934e+03,1.068490e+04
1.242899e+03,1.067351e+04
1.243863e+03,1.064043e+04
1.244827e+03,1.060169e+04
1.245791e+03,1.057903e+04
1.246755e+03,1.057668e+04
1.247720e+03,1.056369e+04
1.248684e+03,1.053782e+04
1.249648e+03,1.051642e+04
1.250612e+03,1.051011e+04
1.251577e+03,1.051316e+04
1.252541e+03,1.051292e+04
1.253505e+03,1.050827e+04
1.254469e+03,1.049874e+04
1.255434e+03,1.048575e+04
1.256398e+03,1.047374e+04
1.257362e+03,1.046322e+04
1.258326e+03,1.045329e+04
1.259291e+03,1.044968e+04
1.260255e+03,1.044885e+04
1.261219e+03,1.043793e+04
1.262183e+03,1.040418e+04
1.263147e+03,1.037431e+04
1.264112e+03,1.037087e+04
1.265076e+03,1.038132e+04
1.266040e+03,1.038575e+04
1.267004e+03,1.037892e+04
1.267969e+03,1.037009e+04
1.268933e+03,1.036669e+04
1.269897e+03,1.036696e+04
1.270861e+03,1.035810e+04
1.271826e+03,1.033513e+04
1.272790e+03,1.032556e+04
1.273754e+03,1.034881e+04
1.274718e+03,1.035890e+04
1.275682e+03,1.034914e+04
1.276647e+03,1.033036e+04
1.277611e+03,1.031281e+04
1.278575e+03,1.029584e+04
1.279539e+03,1.027161e+04
1.280504e+03,1.024375e+04
1.281468e+03,1.022380e+04
1.282432e+03,1.021553e+04
1.283396e+03,1.021704e+04
1.284361e+03,1.022818e+04
1.285325e+03,1.024346e+04
1.286289e+03,1.024929e+04
1.287253e+03,1.024154e+04
1.288218e+03,1.022575e+04
1.289182e+03,1.020357e+04
1.290146e+03,1.018202e+04
1.291110e+03,1.017392e+04
1.292074e+03,1.017668e+04
1.293039e+03,1.017468e+04
1.294003e+03,1.015354e+04
1.294967e+03,1.013080e+04
1.295931e+03,1.011467e+04
1.296896e+03,1.010610e+04
1.297860e+03,1.010582e+04
1.298824e+03,1.011552e+04
1.299788e+03,1.011722e+04
1.300753e+03,1.009982e+04
1.301717e+03,1.008662e+04
1.302681e+03,1.008905e+04
1.303645e+03,1.010142e+04
1.304609e+03,1.010731e+04
1.305574e+03,1.010156e+04
1.306538e+03,1.009820e+04
1.307502e+03,1.010553e+04
1.308466e+03,1.011099e+04
1.309431e+03,1.009619e+04
1.310395e+03,1.006725e+04
1.311359e+03,1.003970e+04
1.312323e+03,1.001125e+04
1.313288e+03,9.990146e+03
1.314252e+03,9.987353e+03
1.315216e+03,9.992769e+03
1.316180e+03,9.994152e+03
1.317145e+03,9.995028e+03
1.318109e+03,9.998435e+03
1.319073e+03,1.000062e+04
1.320037e+03,9.994006e+03
1.321001e+03,9.971788e+03
1.321966e+03,9.946050e+03
1.322930e+03,9.924866e+03
1.323894e+03,9.908785e+03
1.324858e+03,9.891721e+03
1.325823e+03,9.866502e+03
1.326787e+03,9.857281e+03
1.327751e+03,9.868399e+03
1.328715e+03,9.877803e+03
1.329680e+03,9.871188e+03
1.330644e+03,9.853813e+03
1.331608e+03,9.845825e+03
1.332572e+03,9.846065e+03
1.333536e+03,9.854456e+03
1.334501e+03,9.870946e+03
1.335465e+03,9.880011e+03
1.336429e+03,9.861776e+03
1.337393e+03,9.833907e+03
1.338358e+03,9.822725e+03
1.339322e+03,9.825603e+03
1.340286e+03,9.823801e+03
1.341250e+03,9.806149e+03
1.342215e+03,9.783791e+03
1.343179e+03,9.764899e+03
1.344143e+03,9.751571e+03
1.345107e+03,9.737790e+03
1.346072e+03,9.716342e+03
1.347036e+03,9.712017e+03
1.348000e+03,9.734983e+03
1.348964e+03,9.749748e+03
1.349928e+03,9.744178e+03
1.350893e+03,9.728226e+03
1.351857e+03,9.717721e+03
1.352821e+03,9.710283e+03
1.353785e+03,9.699199e+03
1.354750e+03,9.682354e+03
1.355714e+03,9.665266e+03
1.356678e+03,9.658591e+03
1.357642e+03,9.659597e+03
1.358607e+03,9.660733e+03
1.359571e+03,9.659687e+03
1.360535e+03,9.653672e+03
1.361499e+03,9.641832e+03
1.362464e+03,9.631651e+03
1.363428e+03,9.627452e+03
1.364392e+03,9.628635e+03
1.365356e+03,9.632812e+03
1.366320e+03,9.634453e+03
1.367285e+03,9.625989e+03
1.368249e+03,9.608259e+03
1.369213e+03,9.588142e+03
1.370177e+03,9.565106e+03
1.371142e+03,9.544121e+03
1.372106e+03,9.534357e+03
1.373070e+03,9.533465e+03
1.374034e+03,9.521884e+03
1.374999e+03,9.502959e+03
1.375963e+03,9.488822e+03
1.376927e+03,9.487192e+03
1.377891e+03,9.486641e+03
1.378855e+03,9.472231e+03
1.379820e+03,9.450704e+03
1.380784e+03,9.429094e+03
1.381748e+03,9.411393e+03
1.382712e+03,9.404704e+03
1.383677e+03,9.413094e+03
1.384641e+03,9.420940e+03
1.385605e+03,9.425868e+03
1.386569e+03,9.424027e+03
1.387534e+03,9.408026e+03
1.388498e+03,9.373379e+03
1.389462e+03,9.358893e+03
1.390426e+03,9.366266e+03
1.391391e+03,9.368543e+03
1.392355e+03,9.347301e+03
1.393319e+03,9.319422e+03
1.394283e+03,9.314419e+03
1.395247e+03,9.325108e+03
1.396212e+03,9.340947e+03
1.397176e+03,9.360159e+03
1.398140e+03,9.371011e+03
1.399104e+03,9.360655e+03
1.400069e+03,9.341316e+03
1.401033e+03,9.315300e+03
1.401997e+03,9.287655e+03
1.402961e+03,9.271426e+03
1.403926e+03,9.274640e+03
1.404890e+03,9.268999e+03
1.405854e+03,9.252181e+03
1.406818e+03,9.234382e+03
1.407782e+03,9.221489e+03
1.408747e+03,9.216882e+03
1.409711e+03,9.227986e+03
1.410675e+03,9.246136e+03
1.411639e+03,9.255828e+03
1.412604e+03,9.253934e+03
1.413568e+03,9.244046e+03
1.414532e+03,9.225233e+03
1.415496e+03,9.208622e+03
1.416461e+03,9.203525e+03
1.417425e+03,9.203671e+03
1.418389e+03,9.194335e+03
1.419353e+03,9.163806e+03
1.420318e+03,9.138888e+03
1.421282e+03,9.126384e+03
1.422246e+03,9.119985e+03
1.423210e+03,9.112529e+03
1.424174e+03,9.106428e+03
1.425139e+03,9.112337e+03
1.426103e+03,9.125969e+03
1.427067e+03,9.132844e+03
1.428031e+03,9.128993e+03
1.428996e+03,9.117547e+03
1.429960e+03,9.088754e+03
1.430924e+03,9.059744e+03
1.431888e+03,9.052569e+03
1.432853e+03,9.064221e+03
1.433817e+03,9.070851e+03
1.434781e+03,9.066026e+03
1.435745e+03,9.061513e+03
1.436709e+03,9.055652e+03
1.437674e+03,9.046049e+03
1.438638e+03,9.034052e+03
1.439602e+03,9.022240e+03
1.440566e+03,9.007178e+03
1.441531e+03,8.989025e+03
1.442495e+03,8.980796e+03
1.443459e+03,8.986988e+03
1.444423e+03,8.997932e+03
1.445388e+03,9.005340e+03
1.446352e+03,9.008467e+03
1.447316e+03,9.011609e+03
1.448280e+03,9.016762e+03
1.449245e+03,9.014769e+03
1.450209e+03,8.987354e+03
1.451173e+03,8.977121e+03
1.452137e+03,8.990400e+03
1.453101e+03,9.008176e+03
1.454066e+03,9.019078e+03
1.455030e+03,9.022657e+03
1.455994e+03,9.005385e+03
1.456958e+03,8.971432e+03
1.457923e+03,8.952074e+03
1.458887e+03,8.959475e+03
1.459851e+03,8.970363e+03
1.460815e+03,8.970666e+03
1.461780e+03,8.957610e+03
1.462744e+03,8.928029e+03
1.463708e+03,8.887120e+03
1.464672e+03,8.854991e+03
1.465636e+03,8.837907e+03
1.466601e+03,8.829172e+03
1.467565e+03,8.830482e+03
1.468529e+03,8.833386e+03
1.469493e+03,8.824097e+03
1.470458e+03,8.806201e+03
1.471422e+03,8.806563e+03
1.472386e+03,8.821984e+03
1.473350e+03,8.835197e+03
1.474315e+03,8.838827e+03
1.475279e+03,8.834732e+03
1.476243e+03,8.817112e+03
1.477207e+03,8.795560e+03
1.478172e+03,8.780720e+03
1.479136e+03,8.772321e+03
1.480100e+03,8.762993e+03
1.481064e+03,8.753453e+03
1.482028e+03,8.744821e+03
1.482993e+03,8.739063e+03
1.483957e+03,8.732010e+03
1.484921e+03,8.711841e+03
1.485885e+03,8.688978e+03
1.486850e+03,8.685814e+03
1.487814e+03,8.692585e+03
1.488778e+03,8.692966e+03
1.489742e+03,8.681823e+03
1.490707e+03,8.669847e+03
1.491671e+03,8.664279e+03
1.492635e+03,8.664663e+03
1.493599e+03,8.669705e+03
1.494563e+03,8.673900e+03
1.495528e+03,8.665496e+03
1.496492e+03,8.643813e+03
1.497456e+03,8.632420e+03
1.498420e+03,8.636503e+03
1.499385e+03,8.641139e+03
1.500349e+03,8.635087e+03
1.501313e+03,8.624736e+03
1.502277e+03,8.607133e+03
1.503242e+03,8.589941e+03
1.504206e+03,8.586281e+03
1.505170e+03,8.602577e+03
1.506134e+03,8.609105e+03
1.507099e+03,8.603229e+03
1.508063e+03,8.597891e+03
1.509027e+03,8.599318e+03
1.509991e+03,8.600290e+03
1.510955e+03,8.585337e+03
1.511920e+03,8.561607e+03
1.512884e+03,8.547628e+03
1.513848e+03,8.547240e+03
1.514812e+03,8.551822e+03
1.515777e+03,8.551762e+03
1.516741e+03,8.550219e+03
1.517705e+03,8.548436e+03
1.518669e+03,8.543873e+03
1.519634e+03,8.536240e+03
1.520598e+03,8.524228e+03
1.521562e+03,8.508850e+03
1.522526e+03,8.488481e+03
1.523490e+03,8.475197e+03
1.524455e+03,8.475242e+03
1.525419e+03,8.476607e+03
1.526383e+03,8.473438e+03
1.527347e+03,8.463414e+03
1.528312e+03,8.440885e+03
1.529276e+03,8.414787e+03
1.530240e+03,8.408586e+03
1.531204e+03,8.431747e+03
1.532169e+03,8.438088e+03
1.533133e+03,8.421082e+03
1.534097e+03,8.401866e+03
1.535061e+03,8.395449e+03
1.536026e+03,8.395939e+03
1.536990e+03,8.399863e+03
1.537954e+03,8.404128e+03
1.538918e+03,8.401193e+03
1.539882e+03,8.387998e+03
1.540847e+03,8.371904e+03
1.541811e+03,8.345268e+03
1.542775e+03,8.323923e+03
1.543739e+03,8.316942e+03
1.544704e+03,8.319065e+03
1.545668e+03,8.320535e+03
1.546632e+03,8.322612e+03
1.547596e+03,8.327710e+03
1.548561e+03,8.335146e+03
1.549525e+03,8.341665e+03
1.550489e+03,8.344124e+03
1.551453e+03,8.341425e+03
1.552417e+03,8.324051e+03
1.553382e+03,8.308908e+03
1.554346e+03,8.315177e+03
1.555310e+03,8.340384e+03
1.556274e+03,8.347746e+03
1.557239e+03,8.336927e+03
1.558203e+03,8.326841e+03
1.559167e+03,8.321521e+03
1.560131e+03,8.327396e+03
1.561096e+03,8.355514e+03
1.562060e+03,8.394342e+03
1.563024e+03,8.437620e+03
1.563988e+03,8.482750e+03
1.564953e+03,8.524342e+03
1.565917e+03,8.560929e+03
1.566881e+03,8.598794e+03
1.567845e+03,8.637555e+03
1.568809e+03,8.665220e+03
1.569774e+03,8.678566e+03
1.570738e+03,8.674150e+03
1.571702e+03,8.638705e+03
1.572666e+03,8.586805e+03
1.573631e+03,8.533733e+03
1.574595e+03,8.484778e+03
1.575559e+03,8.450468e+03
1.576523e+03,8.437779e+03
1.577488e+03,8.424979e+03
1.578452e+03,8.402562e+03
1.579416e+03,8.379793e+03
1.580380e+03,8.374320e+03
1.581344e+03,8.375157e+03
1.582309e+03,8.362196e+03
1.583273e+03,8.339136e+03
1.584237e+03,8.312680e+03
1.585201e+03,8.284462e+03
1.586166e+03,8.254332e+03
1.587130e+03,8.218216e+03
1.588094e+03,8.181953e+03
1.589058e+03,8.149127e+03
1.590023e+03,8.122225e+03
1.590987e+03,8.106584e+03
1.591951e+03,8.100074e+03
1.592915e+03,8.088144e+03
1.593880e+03,8.067351e+03
1.594844e+03,8.053149e+03
1.595808e+03,8.065969e+03
1.596772e+03,8.068386e+03
1.597736e+03,8.050251e+03
1.598701e+03,8.030919e+03
1.599665e+03,8.027928e+03
1.600629e+03,8.035537e+03
1.601593e+03,8.030457e+03
1.602558e+03,8.015238e+03
1.603522e+03,7.996373e+03
1.604486e+03,7.973925e+03
1.605450e+03,7.955821e+03
1.606415e+03,7.951184e+03
1.607379e+03,7.951236e+03
1.608343e+03,7.952269e+03
1.609307e+03,7.952735e+03
1.610271e+03,7.950248e+03
1.611236e+03,7.944843e+03
1.612200e+03,7.942053e+03
1.613164e+03,7.943816e+03
1.614128e+03,7.947106e+03
1.615093e+03,7.953083e+03
1.616057e+03,7.952380e+03
1.617021e+03,7.931297e+03
1.617985e+03,7.909069e+03
1.618950e+03,7.900525e+03
1.619914e+03,7.902204e+03
1.620878e+03,7.899804e+03
1.621842e+03,7.895000e+03
1.622807e+03,7.889449e+03
1.623771e+03,7.884951e+03
1.624735e+03,7.884637e+03
1.625699e+03,7.887331e+03
1.626663e+03,7.891842e+03
1.627628e+03,7.900361e+03
1.628592e+03,7.901404e+03
1.629556e+03,7.883217e+03
1.630520e+03,7.853213e+03
1.631485e+03,7.832383e+03
1.632449e+03,7.818674e+03
1.633413e+03,7.804778e+03
1.634377e+03,7.785687e+03
1.635342e+03,7.774480e+03
1.636306e+03,7.787729e+03
1.637270e+03,7.797724e+03
1.638234e+03,7.790553e+03
1.639198e+03,7.773579e+03
1.640163e+03,7.759103e+03
1.641127e+03,7.748163e+03
1.642091e+03,7.737219e+03
1.643055e+03,7.723759e+03
1.644020e+03,7.712607e+03
1.644984e+03,7.702133e+03
1.645948e+03,7.696033e+03
1.646912e+03,7.701078e+03
1.647877e+03,7.704635e+03
1.648841e+03,7.695305e+03
1.649805e+03,7.678067e+03
1.650769e+03,7.662390e+03
1.651734e+03,7.650156e+03
1.652698e+03,7.652461e+03
1.653662e+03,7.673606e+03
1.654626e+03,7.677044e+03
1.655590e+03,7.639776e+03
1.656555e+03,7.608163e+03
1.657519e+03,7.596956e+03
1.658483e+03,7.602224e+03
1.659447e+03,7.624409e+03
1.660412e+03,7.646688e+03
1.661376e+03,7.636245e+03
1.662340e+03,7.604615e+03
1.663304e+03,7.585345e+03
1.664269e+03,7.597292e+03
1.665233e+03,7.595987e+03
1.666197e+03,7.573311e+03
1.667161e+03,7.555990e+03
1.668125e+03,7.563623e+03
1.669090e+03,7.579446e+03
1.670054e+03,7.580470e+03
1.671018e+03,7.572451e+03
1.671982e+03,7.561485e+03
1.672947e+03,7.549753e+03
1.673911e+03,7.548022e+03
1.674875e+03,7.555657e+03
1.675839e+03,7.559662e+03
1.676804e+03,7.562399e+03
1.677768e+03,7.560768e+03
1.678732e+03,7.544076e+03
1.679696e+03,7.522429e+03
1.680661e+03,7.500267e+03
1.681625e+03,7.478907e+03
1.682589e+03,7.467101e+03
1.683553e+03,7.468018e+03
1.684517e+03,7.466700e+03
1.685482e+03,7.462115e+03
1.686446e+03,7.455966e+03
1.687410e+03,7.448411e+03
1.688374e+03,7.441447e+03
1.689339e+03,7.437558e+03
1.690303e+03,7.432577e+03
1.691267e+03,7.421736e+03
1.692231e+03,7.410875e+03
1.693196e+03,7.407471e+03
1.694160e+03,7.408490e+03
1.695124e+03,7.408967e+03
1.696088e+03,7.409930e+03
1.697052e+03,7.411827e+03
1.698017e+03,7.407447e+03
1.698981e+03,7.406379e+03
1.699945e+03,7.414515e+03
1.700909e+03,7.413567e+03
1.701874e+03,7.397077e+03
1.702838e+03,7.377232e+03
1.703802e+03,7.371820e+03
1.704766e+03,7.371846e+03
1.705731e+03,7.369524e+03
1.706695e+03,7.364935e+03
1.707659e+03,7.354433e+03
1.708623e+03,7.335503e+03
1.709588e+03,7.324777e+03
1.710552e+03,7.320985e+03
1.711516e+03,7.319471e+03
1.712480e+03,7.324946e+03
1.713444e+03,7.325476e+03
1.714409e+03,7.304485e+03
1.715373e+03,7.276039e+03
1.716337e+03,7.258872e+03
1.717301e+03,7.255614e+03
1.718266e+03,7.248598e+03
1.719230e+03,7.236411e+03
1.720194e+03,7.233041e+03
1.721158e+03,7.242263e+03
1.722123e+03,7.251505e+03
1.723087e+03,7.256308e+03
1.724051e+03,7.253329e+03
1.725015e+03,7.240313e+03
1.725979e+03,7.223246e+03
1.726944e+03,7.202185e+03
1.727908e+03,7.181540e+03
1.728872e+03,7.185725e+03
1.729836e+03,7.205614e+03
1.730801e+03,7.215634e+03
1.731765e+03,7.202437e+03
1.732729e+03,7.191919e+03
1.733693e+03,7.187257e+03
1.734658e+03,7.184876e+03
1.735622e+03,7.183175e+03
1.736586e+03,7.180349e+03
1.737550e+03,7.174713e+03
1.738515e+03,7.166599e+03
1.739479e+03,7.155885e+03
1.740443e+03,7.143111e+03
1.741407e+03,7.132450e+03
1.742371e+03,7.124462e+03
1.743336e+03,7.114612e+03
1.744300e+03,7.102165e+03
1.745264e+03,7.089088e+03
1.746228e+03,7.082113e+03
1.747193e+03,7.076031e+03
1.748157e+03,7.073023e+03
1.749121e+03,7.070957e+03
1.750085e+03,7.058040e+03
1.751050e+03,7.035042e+03
1.752014e+03,7.025326e+03
1.752978e+03,7.027744e+03
1.753942e+03,7.036732e+03
1.754906e+03,7.050006e+03
1.755871e+03,7.060493e+03
1.756835e+03,7.065015e+03
1.757799e+03,7.058961e+03
1.758763e+03,7.048124e+03
1.759728e+03,7.035440e+03
1.760692e+03,7.017299e+03
1.761656e+03,7.001695e+03
1.762620e+03,6.991628e+03
1.763585e+03,6.987900e+03
1.764549e+03,6.993981e+03
1.765513e+03,7.006400e+03
1.766477e+03,7.000721e+03
1.767442e+03,6.981624e+03
1.768406e+03,6.966033e+03
1.769370e+03,6.959552e+03
1.770334e+03,6.956388e+03
1.771298e+03,6.951978e+03
1.772263e+03,6.945370e+03
1.773227e+03,6.937724e+03
1.774191e+03,6.930942e+03
1.775155e+03,6.927658e+03
1.776120e+03,6.924176e+03
1.777084e+03,6.916943e+03
1.778048e+03,6.906632e+03
1.779012e+03,6.892621e+03
1.779977e+03,6.872477e+03
1.780941e+03,6.872624e+03
1.781905e+03,6.889479e+03
1.782869e+03,6.900325e+03
1.783833e+03,6.893393e+03
1.784798e+03,6.887560e+03
1.785762e+03,6.902873e+03
1.786726e+03,6.909408e+03
1.787690e+03,6.891140e+03
1.788655e+03,6.862226e+03
1.789619e+03,6.847090e+03
1.790583e+03,6.839619e+03
1.791547e+03,6.822535e+03
1.792512e+03,6.799209e+03
1.793476e+03,6.790995e+03
1.794440e+03,6.803583e+03
1.795404e+03,6.807027e+03
1.796369e+03,6.797482e+03
1.797333e+03,6.786431e+03
1.798297e+03,6.780383e+03
1.799261e+03,6.778139e+03
1.800225e+03,6.780509e+03
1.801190e+03,6.779359e+03
1.802154e+03,6.770973e+03
1.803118e+03,6.758049e+03
1.804082e+03,6.752198e+03
1.805047e+03,6.752099e+03
1.806011e+03,6.748446e+03
1.806975e+03,6.740599e+03
1.807939e+03,6.740493e+03
1.808904e+03,6.752689e+03
1.809868e+03,6.750732e+03
1.810832e+03,6.733417e+03
1.811796e+03,6.715700e+03
1.812760e+03,6.705311e+03
1.813725e+03,6.699530e+03
1.814689e+03,6.699795e+03
1.815653e+03,6.702223e+03
1.816617e+03,6.705162e+03
1.817582e+03,6.707302e+03
1.818546e+03,6.704881e+03
1.819510e+03,6.696038e+03
1.820474e+03,6.672888e+03
1.821439e+03,6.636106e+03
1.822403e+03,6.623505e+03
1.823367e+03,6.643783e+03
1.824331e+03,6.657571e+03
1.825296e+03,6.656882e+03
1.826260e+03,6.647331e+03
1.827224e+03,6.632232e+03
1.828188e+03,6.622531e+03
1.829152e+03,6.619820e+03
1.830117e+03,6.621908e+03
1.831081e+03,6.631664e+03
1.832045e+03,6.640990e+03
1.833009e+03,6.629225e+03
1.833974e+03,6.610893e+03
1.834938e+03,6.605312e+03
1.835902e+03,6.614976e+03
1.836866e+03,6.605210e+03
1.837831e+03,6.573523e+03
1.838795e+03,6.552476e+03
1.839759e+03,6.552244e+03
1.840723e+03,6.553514e+03
1.841688e+03,6.529772e+03
1.842652e+03,6.518147e+03
1.843616e+03,6.532819e+03
1.844580e+03,6.549711e+03
1.845544e+03,6.548089e+03
1.846509e+03,6.535611e+03
1.847473e+03,6.521218e+03
1.848437e+03,6.505802e+03
1.849401e+03,6.491704e+03
1.850366e+03,6.479931e+03
1.851330e+03,6.458529e+03
1.852294e+03,6.432065e+03
1.853258e+03,6.426636e+03
1.854223e+03,6.450991e+03
1.855187e+03,6.468354e+03
1.856151e+03,6.450178e+03
1.857115e+03,6.437083e+03
1.858079e+03,6.437102e+03
1.859044e+03,6.439686e+03
1.860008e+03,6.435396e+03
1.860972e+03,6.432304e+03
1.861936e+03,6.442751e+03
1.862901e+03,6.455288e+03
1.863865e+03,6.448528e+03
1.864829e+03,6.421808e+03
1.865793e+03,6.404449e+03
1.866758e+03,6.396133e+03
1.867722e+03,6.389562e+03
1.868686e+03,6.381262e+03
1.869650e+03,6.375603e+03
1.870615e+03,6.370923e+03
1.871579e+03,6.367042e+03
1.872543e+03,6.367367e+03
1.873507e+03,6.370117e+03
1.874471e+03,6.366811e+03
1.875436e+03,6.360159e+03
1.876400e+03,6.354577e+03
1.877364e+03,6.350083e+03
1.878328e+03,6.345369e+03
1.879293e+03,6.341421e+03
1.880257e+03,6.343022e+03
1.881221e+03,6.342944e+03
1.882185e+03,6.325785e+03
1.883150e+03,6.292097e+03
1.884114e+03,6.290979e+03
1.885078e+03,6.314501e+03
1.886042e+03,6.315523e+03
1.887006e+03,6.275950e+03
1.887971e+03,6.250947e+03
1.888935e+03,6.268031e+03
1.889899e+03,6.286361e+03
1.890863e+03,6.294771e+03
1.891828e+03,6.291940e+03
1.892792e+03,6.278098e+03
1.893756e+03,6.257193e+03
1.894720e+03,6.229275e+03
1.895685e+03,6.208934e+03
1.896649e+03,6.209458e+03
1.897613e+03,6.221161e+03
1.898577e+03,6.221675e+03
1.899542e+03,6.214543e+03
1.900506e+03,6.203506e+03
1.901470e+03,6.187184e+03
1.902434e+03,6.184283e+03
1.903398e+03,6.194356e+03
1.904363e+03,6.198596e+03
1.905327e+03,6.192238e+03
1.906291e+03,6.190375e+03
1.907255e+03,6.203557e+03
1.908220e+03,6.210243e+03
1.909184e+03,6.208019e+03
1.910148e+03,6.192550e+03
1.911112e+03,6.145127e+03
1.912077e+03,6.103920e+03
1.913041e+03,6.110052e+03
1.914005e+03,6.132845e+03
1.914969e+03,6.143143e+03
1.915933e+03,6.141694e+03
1.916898e+03,6.124856e+03
1.917862e+03,6.101479e+03
1.918826e+03,6.086558e+03
1.919790e+03,6.084506e+03
1.920755e+03,6.088888e+03
1.921719e+03,6.095822e+03
1.922683e+03,6.095808e+03
1.923647e+03,6.088986e+03
1.924612e+03,6.080746e+03
1.925576e+03,6.071522e+03
1.926540e+03,6.063823e+03
1.927504e+03,6.054055e+03
1.928469e+03,6.045510e+03
1.929433e+03,6.042768e+03
1.930397e+03,6.038739e+03
1.931361e+03,6.023467e+03
1.932325e+03,6.010880e+03
1.933290e+03,6.019445e+03
1.934254e+03,6.040166e+03
1.935218e+03,6.036698e+03
1.936182e+03,6.017759e+03
1.937147e+03,6.005693e+03
1.938111e+03,6.003546e+03
1.939075e+03,6.004224e+03
1.940039e+03,6.009306e+03
1.941004e+03,6.011253e+03
1.941968e+03,6.004889e+03
1.942932e+03,5.987781e+03
1.943896e+03,5.953319e+03
1.944860e+03,5.935525e+03
1.945825e+03,5.940938e+03
1.946789e+03,5.950162e+03
1.947753e+03,5.945359e+03
1.948717e+03,5.941665e+03
1.949682e+03,5.948970e+03
1.950646e+03,5.949484e+03
1.951610e+03,5.928813e+03
1.952574e+03,5.902463e+03
1.953539e+03,5.891517e+03
1.954503e+03,5.888289e+03
1.955467e+03,5.888583e+03
1.956431e+03,5.890578e+03
1.957396e+03,5.882951e+03
1.958360e+03,5.870673e+03
1.959324e+03,5.870670e+03
1.960288e+03,5.885213e+03
1.961252e+03,5.903328e+03
1.962217e+03,5.922614e+03
1.963181e+03,5.916355e+03
1.964145e+03,5.885501e+03
1.965109e+03,5.858179e+03
1.966074e+03,5.850454e+03
1.967038e+03,5.848888e+03
1.968002e+03,5.845972e+03
1.968966e+03,5.848204e+03
1.969931e+03,5.865920e+03
1.970895e+03,5.870252e+03
1.971859e+03,5.826853e+03
1.972823e+03,5.794582e+03
1.973787e+03,5.800103e+03
1.974752e+03,5.815150e+03
1.975716e+03,5.798695e+03
1.976680e+03,5.771896e+03
1.977644e+03,5.762014e+03
1.978609e+03,5.764600e+03
1.979573e+03,5.767578e+03
1.980537e+03,5.768827e+03
1.981501e+03,5.765396e+03
1.982466e+03,5.759580e+03
1.983430e+03,5.754951e+03
1.984394e+03,5.750289e+03
1.985358e+03,5.752228e+03
1.986323e+03,5.759195e+03
1.987287e+03,5.769079e+03
1.988251e+03,5.784279e+03
1.989215e+03,5.775248e+03
1.990179e+03,5.736451e+03
1.991144e+03,5.702269e+03
1.992108e+03,5.682572e+03
1.993072e+03,5.672231e+03
1.994036e+03,5.666733e+03
1.995001e+03,5.667644e+03
1.995965e+03,5.677090e+03
1.996929e+03,5.686745e+03
1.997893e+03,5.684326e+03
1.998858e+03,5.675476e+03
1.999822e+03,5.660478e+03
2.000786e+03,5.647439e+03
2.001750e+03,5.651708e+03
2.002714e+03,5.665437e+03
2.003679e+03,5.658792e+03
2.004643e+03,5.640301e+03
2.005607e+03,5.624578e+03
2.006571e+03,5.614694e+03
2.007536e+03,5.620705e+03
2.008500e+03,5.634589e+03
2.009464e+03,5.622560e+03
2.010428e+03,5.586495e+03
2.011393e+03,5.576686e+03
2.012357e+03,5.597592e+03
2.013321e+03,5.603737e+03
2.014285e+03,5.589529e+03
2.015250e+03,5.578851e+03
2.016214e+03,5.592928e+03
2.017178e+03,5.592140e+03
2.018142e+03,5.575075e+03
2.019106e+03,5.557798e+03
2.020071e+03,5.545175e+03
2.021035e+03,5.540021e+03
2.021999e+03,5.552857e+03
2.022963e+03,5.551422e+03
2.023928e+03,5.521313e+03
2.024892e+03,5.488470e+03
2.025856e+03,5.477695e+03
2.026820e+03,5.480755e+03
2.027785e+03,5.496401e+03
2.028749e+03,5.509509e+03
2.029713e+03,5.494060e+03
2.030677e+03,5.471804e+03
2.031641e+03,5.472540e+03
2.032606e+03,5.484947e+03
2.033570e+03,5.490583e+03
2.034534e+03,5.488201e+03
2.035498e+03,5.473900e+03
2.036463e+03,5.452656e+03
2.037427e+03,5.433313e+03
2.038391e+03,5.419653e+03
2.039355e+03,5.404706e+03
2.040320e+03,5.391296e+03
2.041284e+03,5.389561e+03
2.042248e+03,5.400476e+03
2.043212e+03,5.404231e+03
2.044177e+03,5.400892e+03
2.045141e+03,5.401744e+03
2.046105e+03,5.406986e+03
2.047069e+03,5.403709e+03
2.048033e+03,5.366155e+03
2.048998e+03,5.356127e+03
2.049962e+03,5.382992e+03
2.050926e+03,5.400856e+03
2.051890e+03,5.361103e+03
2.052854e+03,5.335471e+03
2.053819e+03,5.347867e+03
2.054783e+03,5.358445e+03
2.055747e+03,5.350141e+03
2.056711e+03,5.337694e+03
2.057676e+03,5.328521e+03
2.058640e+03,5.327513e+03
2.059604e+03,5.335002e+03
2.060568e+03,5.341995e+03
2.061533e+03,5.340730e+03
2.062497e+03,5.333038e+03
2.063461e+03,5.314959e+03
2.064425e+03,5.296425e+03
2.065390e+03,5.295500e+03
2.066354e+03,5.300098e+03
2.067318e+03,5.285683e+03
2.068282e+03,5.264118e+03
2.069247e+03,5.257778e+03
2.070211e+03,5.262719e+03
2.071175e+03,5.265436e+03
2.072139e+03,5.265001e+03
2.073104e+03,5.253186e+03
2.074068e+03,5.231247e+03
2.075032e+03,5.234391e+03
2.075996e+03,5.254245e+03
2.076960e+03,5.261553e+03
2.077925e+03,5.250502e+03
2.078889e+03,5.252680e+03
2.079853e+03,5.270918e+03
2.080817e+03,5.268086e+03
2.081782e+03,5.240300e+03
2.082746e+03,5.206268e+03
2.083710e+03,5.166692e+03
2.084674e+03,5.150379e+03
2.085639e+03,5.161762e+03
2.086603e+03,5.183406e+03
2.087567e+03,5.205671e+03
2.088531e+03,5.217362e+03
2.089496e+03,5.215848e+03
2.090460e+03,5.198352e+03
2.091424e+03,5.166360e+03
2.092388e+03,5.143597e+03
2.093353e+03,5.145143e+03
2.094317e+03,5.152558e+03
2.095281e+03,5.156646e+03
2.096245e+03,5.157125e+03
2.097209e+03,5.157355e+03
2.098174e+03,5.149708e+03
2.099138e+03,5.132063e+03
2.100102e+03,5.113587e+03
2.101066e+03,5.101624e+03
2.102031e+03,5.094788e+03
2.102995e+03,5.096681e+03
2.103959e+03,5.098442e+03
2.104923e+03,5.089950e+03
2.105887e+03,5.083667e+03
2.106852e+03,5.096250e+03
2.107816e+03,5.108843e+03
2.108780e+03,5.106479e+03
2.109744e+03,5.093315e+03
2.110708e+03,5.083519e+03
2.111673e+03,5.075363e+03
2.112637e+03,5.054068e+03
2.113601e+03,5.026565e+03
2.114565e+03,5.021634e+03
2.115530e+03,5.028490e+03
2.116494e+03,5.021350e+03
2.117458e+03,5.009532e+03
2.118422e+03,5.010025e+03
2.119387e+03,5.016612e+03
2.120351e+03,5.020890e+03
2.121315e+03,5.020184e+03
2.122279e+03,5.018242e+03
2.123244e+03,5.014726e+03
2.124208e+03,5.012260e+03
2.125172e+03,5.010566e+03
2.126136e+03,5.000127e+03
2.127101e+03,4.978065e+03
2.128065e+03,4.963620e+03
2.129029e+03,4.956229e+03
2.129993e+03,4.967734e+03
2.130958e+03,4.995310e+03
2.131922e+03,4.987664e+03
2.132886e+03,4.940741e+03
2.133850e+03,4.912168e+03
2.134814e+03,4.912472e+03
2.135779e+03,4.923034e+03
2.136743e+03,4.941600e+03
2.137707e+03,4.942727e+03
2.138671e+03,4.927581e+03
2.139636e+03,4.907763e+03
2.140600e+03,4.881406e+03
2.141564e+03,4.868735e+03
2.142528e+03,4.872367e+03
2.143493e+03,4.873370e+03
2.144457e+03,4.858347e+03
2.145421e+03,4.855178e+03
2.146385e+03,4.879044e+03
2.147350e+03,4.881547e+03
2.148314e+03,4.849104e+03
2.149278e+03,4.824860e+03
2.150242e+03,4.838302e+03
2.151207e+03,4.846906e+03
2.152171e+03,4.842764e+03
2.153135e+03,4.831391e+03
2.154099e+03,4.818737e+03
2.155063e+03,4.811639e+03
2.156028e+03,4.813662e+03
2.156992e+03,4.817335e+03
2.157956e+03,4.809602e+03
2.158920e+03,4.801024e+03
2.159885e+03,4.796239e+03
2.160849e+03,4.792822e+03
2.161813e+03,4.791179e+03
2.162777e+03,4.785469e+03
2.163741e+03,4.764444e+03
2.164706e+03,4.751837e+03
2.165670e+03,4.765065e+03
2.166634e+03,4.779953e+03
2.167598e+03,4.755780e+03
2.168563e+03,4.737250e+03
2.169527e+03,4.742139e+03
2.170491e+03,4.749934e+03
2.171455e+03,4.747056e+03
2.172420e+03,4.740414e+03
2.173384e+03,4.734755e+03
2.174348e+03,4.729211e+03
2.175312e+03,4.720282e+03
2.176277e+03,4.709213e+03
2.177241e+03,4.696656e+03
2.178205e+03,4.686457e+03
2.179169e+03,4.685040e+03
2.180134e+03,4.688669e+03
2.181098e+03,4.685881e+03
2.182062e+03,4.687154e+03
2.183026e+03,4.698841e+03
2.183990e+03,4.707500e+03
2.184955e+03,4.689292e+03
2.185919e+03,4.664346e+03
2.186883e+03,4.643002e+03
2.187847e+03,4.629036e+03
2.188812e+03,4.638453e+03
2.189776e+03,4.652448e+03
2.190740e+03,4.646834e+03
2.191704e+03,4.632204e+03
2.192668e+03,4.615209e+03
2.193633e+03,4.603091e+03
2.194597e+03,4.612439e+03
2.195561e+03,4.625095e+03
2.196525e+03,4.621913e+03
2.197490e+03,4.609931e+03
2.198454e+03,4.600912e+03
2.199418e+03,4.590874e+03
2.200382e+03,4.575683e+03
2.201347e+03,4.564226e+03
2.202311e+03,4.569679e+03
2.203275e+03,4.580333e+03
2.204239e+03,4.581112e+03
2.205204e+03,4.574562e+03
2.206168e+03,4.573063e+03
2.207132e+03,4.571913e+03
2.208096e+03,4.559251e+03
2.209061e+03,4.539511e+03
2.210025e+03,4.520475e+03
2.210989e+03,4.501787e+03
2.211953e+03,4.476792e+03
2.212917e+03,4.468937e+03
2.213882e+03,4.493761e+03
2.214846e+03,4.526633e+03
2.215810e+03,4.529481e+03
2.216774e+03,4.512780e+03
2.217739e+03,4.494444e+03
2.218703e+03,4.480449e+03
2.219667e+03,4.483194e+03
2.220631e+03,4.489349e+03
2.221595e+03,4.485476e+03
2.222560e+03,4.472183e+03
2.223524e+03,4.440240e+03
2.224488e+03,4.410514e+03
2.225452e+03,4.418717e+03
2.226417e+03,4.436063e+03
2.227381e+03,4.431526e+03
2.228345e+03,4.422106e+03
2.229309e+03,4.425188e+03
2.230274e+03,4.431439e+03
2.231238e+03,4.438116e+03
2.232202e+03,4.438343e+03
2.233166e+03,4.416732e+03
2.234131e+03,4.399196e+03
2.235095e+03,4.405538e+03
2.236059e+03,4.419200e+03
2.237023e+03,4.414704e+03
2.237988e+03,4.402829e+03
2.238952e+03,4.389878e+03
2.239916e+03,4.374798e+03
2.240880e+03,4.358407e+03
2.241844e+03,4.345973e+03
2.242809e+03,4.341403e+03
2.243773e+03,4.340033e+03
2.244737e+03,4.331788e+03
2.245701e+03,4.326363e+03
2.246666e+03,4.336359e+03
2.247630e+03,4.343946e+03
2.248594e+03,4.340569e+03
2.249558e+03,4.336128e+03
2.250522e+03,4.340385e+03
2.251487e+03,4.339718e+03
2.252451e+03,4.320040e+03
2.253415e+03,4.294589e+03
2.254379e+03,4.286140e+03
2.255344e+03,4.276966e+03
2.256308e+03,4.260149e+03
2.257272e+03,4.244338e+03
2.258236e+03,4.237431e+03
2.259201e+03,4.235118e+03
2.260165e+03,4.233328e+03
2.261129e+03,4.233736e+03
2.262093e+03,4.238375e+03
2.263058e+03,4.243404e+03
2.264022e+03,4.252232e+03
2.264986e+03,4.259003e+03
2.265950e+03,4.254341e+03
2.266915e+03,4.248163e+03
2.267879e+03,4.242556e+03
2.268843e+03,4.223628e+03
2.269807e+03,4.183553e+03
2.270771e+03,4.159030e+03
2.271736e+03,4.168886e+03
2.272700e+03,4.179450e+03
2.273664e+03,4.176931e+03
2.274628e+03,4.175745e+03
2.275593e+03,4.184295e+03
2.276557e+03,4.183799e+03
2.277521e+03,4.174625e+03
2.278485e+03,4.166838e+03
2.279449e+03,4.167077e+03
2.280414e+03,4.160416e+03
2.281378e+03,4.145767e+03
2.282342e+03,4.135525e+03
2.283306e+03,4.137995e+03
2.284271e+03,4.129208e+03
2.285235e+03,4.109444e+03
2.286199e+03,4.095390e+03
2.287163e+03,4.101645e+03
2.288128e+03,4.100896e+03
2.289092e+03,4.090717e+03
2.290056e+03,4.089365e+03
2.291020e+03,4.102789e+03
2.291985e+03,4.107600e+03
2.292949e+03,4.106943e+03
2.293913e+03,4.102152e+03
2.294877e+03,4.094207e+03
2.295842e+03,4.105577e+03
2.296806e+03,4.129602e+03
2.297770e+03,4.128477e+03
2.298734e+03,4.104448e+03
2.299698e+03,4.076828e+03
2.300663e+03,4.050967e+03
2.301627e+03,4.053228e+03
2.302591e+03,4.069114e+03
2.303555e+03,4.067412e+03
2.304520e+03,4.051187e+03
2.305484e+03,4.026220e+03
2.306448e+03,4.004999e+03
2.307412e+03,4.010296e+03
2.308376e+03,4.027981e+03
2.309341e+03,4.026681e+03
2.310305e+03,4.016870e+03
2.311269e+03,4.015420e+03
2.312233e+03,4.019257e+03
2.313198e+03,4.018814e+03
2.314162e+03,4.014124e+03
2.315126e+03,4.005305e+03
2.316090e+03,3.995559e+03
2.317055e+03,3.990194e+03
2.318019e+03,3.987362e+03
2.318983e+03,3.984250e+03
2.319947e+03,3.977650e+03
2.320912e+03,3.963669e+03
2.321876e+03,3.955960e+03
2.322840e+03,3.970610e+03
2.323804e+03,3.980062e+03
2.324769e+03,3.970611e+03
2.325733e+03,3.960927e+03
2.326697e+03,3.959899e+03
2.327661e+03,3.966394e+03
2.328625e+03,3.981086e+03
2.329590e+03,3.975794e+03
2.330554e+03,3.920762e+03
2.331518e+03,3.888069e+03
2.332482e+03,3.888429e+03
2.333447e+03,3.897118e+03
2.334411e+03,3.907226e+03
2.335375e+03,3.908024e+03
2.336339e+03,3.899426e+03
2.337303e+03,3.892254e+03
2.338268e+03,3.891180e+03
2.339232e+03,3.877622e+03
2.340196e+03,3.855915e+03
2.341160e+03,3.848155e+03
2.342125e+03,3.860827e+03
2.343089e+03,3.878744e+03
2.344053e+03,3.893570e+03
2.345017e+03,3.892894e+03
2.345982e+03,3.877458e+03
2.346946e+03,3.853358e+03
2.347910e+03,3.830788e+03
2.348874e+03,3.832113e+03
2.349839e+03,3.847005e+03
2.350803e+03,3.855136e+03
2.351767e+03,3.856528e+03
2.352731e+03,3.841922e+03
2.353696e+03,3.824894e+03
2.354660e+03,3.822603e+03
2.355624e+03,3.825410e+03
2.356588e+03,3.824961e+03
2.357552e+03,3.822965e+03
2.358517e+03,3.820528e+03
2.359481e+03,3.817282e+03
2.360445e+03,3.810294e+03
2.361409e+03,3.800623e+03
2.362374e+03,3.788614e+03
2.363338e+03,3.775855e+03
2.364302e+03,3.769825e+03
2.365266e+03,3.768473e+03
2.366230e+03,3.769041e+03
2.367195e+03,3.766701e+03
2.368159e+03,3.749157e+03
2.369123e+03,3.745686e+03
2.370087e+03,3.764505e+03
2.371052e+03,3.776249e+03
2.372016e+03,3.767067e+03
2.372980e+03,3.746578e+03
2.373944e+03,3.716074e+03
2.374909e+03,3.703726e+03
2.375873e+03,3.725496e+03
2.376837e+03,3.730680e+03
2.377801e+03,3.723186e+03
2.378766e+03,3.716952e+03
2.379730e+03,3.713720e+03
2.380694e+03,3.696783e+03
2.381658e+03,3.676937e+03
2.382623e+03,3.680203e+03
2.383587e+03,3.697292e+03
2.384551e+03,3.699613e+03
2.385515e+03,3.691618e+03
2.386479e+03,3.684849e+03
2.387444e+03,3.677144e+03
2.388408e+03,3.660236e+03
2.389372e+03,3.645827e+03
2.390336e+03,3.646192e+03
2.391301e+03,3.648150e+03
2.392265e+03,3.631128e+03
2.393229e+03,3.621666e+03
2.394193e+03,3.642937e+03
2.395157e+03,3.656365e+03
2.396122e+03,3.631009e+03
2.397086e+03,3.610594e+03
2.398050e+03,3.610813e+03
2.399014e+03,3.617261e+03
2.399979e+03,3.626610e+03
2.400943e+03,3.627844e+03
2.401907e+03,3.618179e+03
2.402871e+03,3.611236e+03
2.403836e+03,3.611292e+03
2.404800e+03,3.613750e+03
2.405764e+03,3.616682e+03
2.406728e+03,3.617792e+03
2.407693e+03,3.613384e+03
2.408657e+03,3.597882e+03
2.409621e+03,3.576963e+03
2.410585e+03,3.566517e+03
2.411550e+03,3.564946e+03
2.412514e+03,3.565723e+03
2.413478e+03,3.564725e+03
2.414442e+03,3.544483e+03
2.415406e+03,3.526415e+03
2.416371e+03,3.536716e+03
2.417335e+03,3.554112e+03
2.418299e+03,3.541047e+03
2.419263e+03,3.530362e+03
2.420228e+03,3.540485e+03
2.421192e+03,3.554162e+03
2.422156e+03,3.560380e+03
2.423120e+03,3.561311e+03
2.424084e+03,3.554402e+03
2.425049e+03,3.537077e+03
2.426013e+03,3.505304e+03
2.426977e+03,3.486384e+03
2.427941e+03,3.485195e+03
2.428906e+03,3.488674e+03
2.429870e+03,3.491329e+03
2.430834e+03,3.491472e+03
2.431798e+03,3.490849e+03
2.432763e+03,3.495746e+03
2.433727e+03,3.503678e+03
2.434691e+03,3.490823e+03
2.435655e+03,3.468355e+03
2.436620e+03,3.461091e+03
2.437584e+03,3.463336e+03
2.438548e+03,3.460570e+03
2.439512e+03,3.457854e+03
2.440477e+03,3.458927e+03
2.441441e+03,3.458912e+03
2.442405e+03,3.458118e+03
2.443369e+03,3.452403e+03
2.444333e+03,3.440648e+03
2.445298e+03,3.431553e+03
2.446262e+03,3.434692e+03
2.447226e+03,3.435063e+03
2.448190e+03,3.431857e+03
2.449155e+03,3.426405e+03
2.450119e+03,3.418588e+03
2.451083e+03,3.416211e+03
2.452047e+03,3.417492e+03
2.453011e+03,3.414450e+03
2.453976e+03,3.406427e+03
2.454940e+03,3.402742e+03
2.455904e+03,3.402825e+03
2.456868e+03,3.393776e+03
2.457833e+03,3.377479e+03
2.458797e+03,3.366694e+03
2.459761e+03,3.363992e+03
2.460725e+03,3.375167e+03
2.461690e+03,3.384741e+03
2.462654e+03,3.362550e+03
2.463618e+03,3.340964e+03
2.464582e+03,3.343020e+03
2.465547e+03,3.350256e+03
2.466511e+03,3.336908e+03
2.467475e+03,3.331158e+03
2.468439e+03,3.339645e+03
2.469404e+03,3.343597e+03
2.470368e+03,3.329215e+03
2.471332e+03,3.329869e+03
2.472296e+03,3.342427e+03
2.473260e+03,3.349345e+03
2.474225e+03,3.346656e+03
2.475189e+03,3.323340e+03
2.476153e+03,3.291376e+03
2.477117e+03,3.281962e+03
2.478082e+03,3.288388e+03
2.479046e+03,3.293494e+03
2.480010e+03,3.294577e+03
2.480974e+03,3.287331e+03
2.481938e+03,3.280402e+03
2.482903e+03,3.293569e+03
2.483867e+03,3.296168e+03
2.484831e+03,3.268530e+03
2.485795e+03,3.242266e+03
2.486760e+03,3.250227e+03
2.487724e+03,3.257319e+03
2.488688e+03,3.258420e+03
2.489652e+03,3.258947e+03
2.490617e+03,3.259882e+03
2.491581e+03,3.252752e+03
2.492545e+03,3.240823e+03
2.493509e+03,3.233191e+03
2.494474e+03,3.229499e+03
2.495438e+03,3.236081e+03
2.496402e+03,3.247019e+03
2.497366e+03,3.252331e+03
2.498331e+03,3.249718e+03
2.499295e+03,3.221708e+03
2.500259e+03,3.199057e+03
2.501223e+03,3.215792e+03
2.502188e+03,3.237573e+03
2.503152e+03,3.224921e+03
2.504116e+03,3.210348e+03
2.505080e+03,3.204087e+03
2.506044e+03,3.201130e+03
2.507009e+03,3.196869e+03
2.507973e+03,3.193647e+03
2.508937e+03,3.193262e+03
2.509901e+03,3.198740e+03
2.510865e+03,3.211095e+03
2.511830e+03,3.190738e+03
2.512794e+03,3.152382e+03
2.513758e+03,3.150600e+03
2.514722e+03,3.173308e+03
2.515687e+03,3.181390e+03
2.516651e+03,3.180043e+03
2.517615e+03,3.173993e+03
2.518579e+03,3.168229e+03
2.519544e+03,3.176204e+03
2.520508e+03,3.171052e+03
2.521472e+03,3.142173e+03
2.522436e+03,3.120313e+03
2.523401e+03,3.134444e+03
2.524365e+03,3.147819e+03
2.525329e+03,3.155112e+03
2.526293e+03,3.150846e+03
2.527258e+03,3.135840e+03
2.528222e+03,3.126569e+03
2.529186e+03,3.122941e+03
2.530150e+03,3.127013e+03
2.531115e+03,3.134381e+03
2.532079e+03,3.118579e+03
2.533043e+03,3.102325e+03
2.534007e+03,3.109989e+03
2.534971e+03,3.120621e+03
2.535936e+03,3.112074e+03
2.536900e+03,3.099842e+03
2.537864e+03,3.087802e+03
2.538828e+03,3.082417e+03
2.539792e+03,3.083164e+03
2.540757e+03,3.087570e+03
2.541721e+03,3.094414e+03
2.542685e+03,3.088140e+03
2.543649e+03,3.071179e+03
2.544614e+03,3.070741e+03
2.545578e+03,3.076055e+03
2.546542e+03,3.051934e+03
2.547506e+03,3.020578e+03
2.548471e+03,3.047298e+03
2.549435e+03,3.081261e+03
2.550399e+03,3.077256e+03
2.551363e+03,3.059301e+03
2.552328e+03,3.043611e+03
2.553292e+03,3.037270e+03
2.554256e+03,3.046402e+03
2.555220e+03,3.046676e+03
2.556185e+03,3.033080e+03
2.557149e+03,3.028500e+03
2.558113e+03,3.035873e+03
2.559077e+03,3.036657e+03
2.560042e+03,3.029628e+03
2.561006e+03,3.017993e+03
2.561970e+03,3.008242e+03
2.562934e+03,3.000878e+03
2.563898e+03,2.996866e+03
2.564863e+03,2.996859e+03
2.565827e+03,2.996605e+03
2.566791e+03,3.001002e+03
2.567755e+03,3.003484e+03
2.568719e+03,2.998945e+03
2.569684e+03,2.989706e+03
2.570648e+03,2.975500e+03
2.571612e+03,2.967423e+03
2.572576e+03,2.967847e+03
2.573541e+03,2.972552e+03
2.574505e+03,2.977044e+03
2.575469e+03,2.982660e+03
2.576433e+03,2.984107e+03
2.577398e+03,2.976575e+03
2.578362e+03,2.964513e+03
2.579326e+03,2.944467e+03
2.580290e+03,2.940372e+03
2.581255e+03,2.961373e+03
2.582219e+03,2.977189e+03
2.583183e+03,2.959761e+03
2.584147e+03,2.954652e+03
2.585112e+03,2.966008e+03
2.586076e+03,2.958167e+03
2.587040e+03,2.925792e+03
2.588004e+03,2.919375e+03
2.588969e+03,2.925647e+03
2.589933e+03,2.917974e+03
2.590897e+03,2.907560e+03
2.591861e+03,2.930370e+03
2.592825e+03,2.941610e+03
2.593790e+03,2.904657e+03
2.594754e+03,2.875569e+03
2.595718e+03,2.900237e+03
2.596682e+03,2.916285e+03
2.597646e+03,2.910042e+03
2.598611e+03,2.894203e+03
2.599575e+03,2.876172e+03
2.600539e+03,2.878718e+03
2.601503e+03,2.895298e+03
2.602468e+03,2.892023e+03
2.603432e+03,2.878429e+03
2.604396e+03,2.878132e+03
2.605360e+03,2.880932e+03
2.606325e+03,2.870412e+03
2.607289e+03,2.866362e+03
2.608253e+03,2.880513e+03
2.609217e+03,2.883963e+03
2.610182e+03,2.851519e+03
2.611146e+03,2.838417e+03
2.612110e+03,2.845539e+03
2.613074e+03,2.850504e+03
2.614039e+03,2.851463e+03
2.615003e+03,2.850759e+03
2.615967e+03,2.845472e+03
2.616931e+03,2.836358e+03
2.617896e+03,2.829405e+03
2.618860e+03,2.833032e+03
2.619824e+03,2.837463e+03
2.620788e+03,2.838079e+03
2.621752e+03,2.835723e+03
2.622717e+03,2.834234e+03
2.623681e+03,2.820597e+03
2.624645e+03,2.796893e+03
2.625609e+03,2.796023e+03
2.626573e+03,2.813237e+03
2.627538e+03,2.796105e+03
2.628502e+03,2.773074e+03
2.629466e+03,2.785022e+03
2.630430e+03,2.808282e+03
2.631395e+03,2.814938e+03
2.632359e+03,2.813131e+03
2.633323e+03,2.803400e+03
2.634287e+03,2.796523e+03
2.635252e+03,2.795947e+03
2.636216e+03,2.796094e+03
2.637180e+03,2.793964e+03
2.638144e+03,2.790205e+03
2.639109e+03,2.785015e+03
2.640073e+03,2.786279e+03
2.641037e+03,2.789788e+03
2.642001e+03,2.782984e+03
2.642966e+03,2.768383e+03
2.643930e+03,2.745644e+03
2.644894e+03,2.731077e+03
2.645858e+03,2.744211e+03
2.646823e+03,2.751111e+03
2.647787e+03,2.748241e+03
2.648751e+03,2.740509e+03
2.649715e+03,2.729331e+03
2.650679e+03,2.726670e+03
2.651644e+03,2.729576e+03
2.652608e+03,2.733134e+03
2.653572e+03,2.735519e+03
2.654536e+03,2.733253e+03
2.655500e+03,2.735181e+03
2.656465e+03,2.746327e+03
2.657429e+03,2.748234e+03
2.658393e+03,2.732856e+03
2.659357e+03,2.715075e+03
2.660322e+03,2.702028e+03
2.661286e+03,2.700816e+03
2.662250e+03,2.707069e+03
2.663214e+03,2.714416e+03
2.664179e+03,2.715201e+03
2.665143e+03,2.688532e+03
2.666107e+03,2.678357e+03
2.667071e+03,2.710583e+03
2.668036e+03,2.734740e+03
2.669000e+03,2.715320e+03
2.669964e+03,2.697106e+03
2.670928e+03,2.682391e+03
2.671893e+03,2.674983e+03
2.672857e+03,2.674147e+03
2.673821e+03,2.671383e+03
2.674785e+03,2.664590e+03
2.675750e+03,2.652722e+03
2.676714e+03,2.644088e+03
2.677678e+03,2.649621e+03
2.678642e+03,2.654257e+03
2.679606e+03,2.655581e+03
2.680571e+03,2.651656e+03
2.681535e+03,2.642425e+03
2.682499e+03,2.648600e+03
2.683463e+03,2.664742e+03
2.684427e+03,2.673346e+03
2.685392e+03,2.675481e+03
2.686356e+03,2.669313e+03
2.687320e+03,2.654681e+03
2.688284e+03,2.618849e+03
2.689249e+03,2.606089e+03
2.690213e+03,2.622187e+03
2.691177e+03,2.636120e+03
2.692141e+03,2.641555e+03
2.693106e+03,2.620833e+03
2.694070e+03,2.591635e+03
2.695034e+03,2.599271e+03
2.695998e+03,2.623017e+03
2.696963e+03,2.634875e+03
2.697927e+03,2.633462e+03
2.698891e+03,2.614540e+03
2.699855e+03,2.600492e+03
2.700820e+03,2.604925e+03
2.701784e+03,2.616386e+03
2.702748e+03,2.629031e+03
2.703712e+03,2.623447e+03
2.704677e+03,2.604361e+03
2.705641e+03,2.583870e+03
2.706605e+03,2.573854e+03
2.707569e+03,2.591920e+03
2.708533e+03,2.602147e+03
2.709498e+03,2.585725e+03
2.710462e+03,2.572888e+03
2.711426e+03,2.582901e+03
2.712390e+03,2.583544e+03
2.713354e+03,2.577058e+03
2.714319e+03,2.577890e+03
2.715283e+03,2.583195e+03
2.716247e+03,2.589732e+03
2.717211e+03,2.592130e+03
2.718176e+03,2.588191e+03
2.719140e+03,2.577910e+03
2.720104e+03,2.554758e+03
2.721068e+03,2.550021e+03
2.722033e+03,2.565637e+03
2.722997e+03,2.563157e+03
2.723961e+03,2.545084e+03
2.724925e+03,2.532795e+03
2.725890e+03,2.528152e+03
2.726854e+03,2.537506e+03
2.727818e+03,2.538887e+03
2.728782e+03,2.513730e+03
2.729747e+03,2.504550e+03
2.730711e+03,2.548763e+03
2.731675e+03,2.565286e+03
2.732639e+03,2.558781e+03
2.733604e+03,2.551000e+03
2.734568e+03,2.544555e+03
2.735532e+03,2.540339e+03
2.736496e+03,2.538009e+03
2.737460e+03,2.539228e+03
2.738425e+03,2.540648e+03
2.739389e+03,2.540802e+03
2.740353e+03,2.528817e+03
2.741317e+03,2.505509e+03
2.742281e+03,2.492155e+03
2.743246e+03,2.490060e+03
2.744210e+03,2.502821e+03
2.745174e+03,2.512755e+03
2.746138e+03,2.498648e+03
2.747103e+03,2.485230e+03
2.748067e+03,2.483617e+03
2.749031e+03,2.488476e+03
2.749995e+03,2.501687e+03
2.750960e+03,2.493518e+03
2.751924e+03,2.473985e+03
2.752888e+03,2.479035e+03
2.753852e+03,2.490671e+03
2.754817e+03,2.455914e+03
2.755781e+03,2.428436e+03
2.756745e+03,2.439273e+03
2.757709e+03,2.458340e+03
2.758674e+03,2.472842e+03
2.759638e+03,2.472853e+03
2.760602e+03,2.459143e+03
2.761566e+03,2.461214e+03
2.762531e+03,2.472290e+03
2.763495e+03,2.477422e+03
2.764459e+03,2.475651e+03
2.765423e+03,2.462091e+03
2.766387e+03,2.456249e+03
2.767352e+03,2.463208e+03
2.768316e+03,2.456399e+03
2.769280e+03,2.430669e+03
2.770244e+03,2.411186e+03
2.771208e+03,2.404467e+03
2.772173e+03,2.417277e+03
2.773137e+03,2.433000e+03
2.774101e+03,2.437647e+03
2.775065e+03,2.441199e+03
2.776030e+03,2.446562e+03
2.776994e+03,2.440060e+03
2.777958e+03,2.422658e+03
2.778922e+03,2.418501e+03
2.779887e+03,2.422770e+03
2.780851e+03,2.412047e+03
2.781815e+03,2.401176e+03
2.782779e+03,2.403231e+03
2.783744e+03,2.407858e+03
2.784708e+03,2.406920e+03
2.785672e+03,2.402196e+03
2.786636e+03,2.393663e+03
2.787601e+03,2.381899e+03
2.788565e+03,2.373698e+03
2.789529e+03,2.389334e+03
2.790493e+03,2.407875e+03
2.791458e+03,2.417348e+03
2.792422e+03,2.398465e+03
2.793386e+03,2.353796e+03
2.794350e+03,2.332425e+03
2.795314e+03,2.345073e+03
2.796279e+03,2.377510e+03
2.797243e+03,2.405801e+03
2.798207e+03,2.397304e+03
2.799171e+03,2.377045e+03
2.800135e+03,2.369140e+03
2.801100e+03,2.361001e+03
2.802064e+03,2.351647e+03
2.803028e+03,2.343056e+03
2.803992e+03,2.336840e+03
2.804957e+03,2.351899e+03
2.805921e+03,2.374658e+03
2.806885e+03,2.378951e+03
2.807849e+03,2.372006e+03
2.808814e+03,2.358700e+03
2.809778e+03,2.349161e+03
2.810742e+03,2.350187e+03
2.811706e+03,2.352136e+03
2.812671e+03,2.353188e+03
2.813635e+03,2.359106e+03
2.814599e+03,2.362805e+03
2.815563e+03,2.345805e+03
2.816528e+03,2.332772e+03
2.817492e+03,2.337254e+03
2.818456e+03,2.339285e+03
2.819420e+03,2.333630e+03
2.820385e+03,2.313999e+03
2.821349e+03,2.292714e+03
2.822313e+03,2.314739e+03
2.823277e+03,2.340706e+03
2.824241e+03,2.337679e+03
2.825206e+03,2.325747e+03
2.826170e+03,2.317452e+03
2.827134e+03,2.310797e+03
2.828098e+03,2.305965e+03
2.829063e+03,2.320565e+03
2.830027e+03,2.336831e+03
2.830991e+03,2.310535e+03
2.831955e+03,2.286772e+03
2.832919e+03,2.299834e+03
2.833884e+03,2.312979e+03
2.834848e+03,2.319102e+03
2.835812e+03,2.326020e+03
2.836776e+03,2.333496e+03
2.837741e+03,2.314082e+03
2.838705e+03,2.294856e+03
2.839669e+03,2.310194e+03
2.840633e+03,2.314251e+03
2.841598e+03,2.280651e+03
2.842562e+03,2.261778e+03
2.843526e+03,2.273761e+03
2.844490e+03,2.282538e+03
2.845455e+03,2.284748e+03
2.846419e+03,2.275642e+03
2.847383e+03,2.268961e+03
2.848347e+03,2.287912e+03
2.849312e+03,2.289985e+03
2.850276e+03,2.268559e+03
2.851240e+03,2.273184e+03
2.852204e+03,2.297636e+03
2.853168e+03,2.303968e+03
2.854133e+03,2.298460e+03
2.855097e+03,2.284112e+03
2.856061e+03,2.284333e+03
2.857025e+03,2.301951e+03
2.857990e+03,2.300741e+03
2.858954e+03,2.270436e+03
2.859918e+03,2.245115e+03
2.860882e+03,2.230632e+03
2.861846e+03,2.232146e+03
2.862811e+03,2.245180e+03
2.863775e+03,2.273793e+03
2.864739e+03,2.278609e+03
2.865703e+03,2.247014e+03
2.866668e+03,2.249697e+03
2.867632e+03,2.272041e+03
2.868596e+03,2.263875e+03
2.869560e+03,2.247164e+03
2.870525e+03,2.255451e+03
2.871489e+03,2.259392e+03
2.872453e+03,2.250657e+03
2.873417e+03,2.243510e+03
2.874382e+03,2.238695e+03
2.875346e+03,2.233470e+03
2.876310e+03,2.233683e+03
2.877274e+03,2.251873e+03
2.878239e+03,2.253310e+03
2.879203e+03,2.224594e+03
2.880167e+03,2.213189e+03
2.881131e+03,2.237161e+03
2.882095e+03,2.249073e+03
2.883060e+03,2.250838e+03
2.884024e+03,2.245269e+03
2.884988e+03,2.236219e+03
2.885952e+03,2.224658e+03
2.886917e+03,2.216676e+03
2.887881e+03,2.217119e+03
2.888845e+03,2.240397e+03
2.889809e+03,2.268380e+03
2.890773e+03,2.252631e+03
2.891738e+03,2.224814e+03
2.892702e+03,2.221864e+03
2.893666e+03,2.224728e+03
2.894630e+03,2.229441e+03
2.895595e+03,2.235033e+03
2.896559e+03,2.238290e+03
2.897523e+03,2.223042e+03
2.898487e+03,2.207582e+03
2.899452e+03,2.213459e+03
2.900416e+03,2.222386e+03
2.901380e+03,2.228110e+03
2.902344e+03,2.217004e+03
2.903309e+03,2.192040e+03
2.904273e+03,2.205652e+03
2.905237e+03,2.223405e+03
2.906201e+03,2.206992e+03
2.907166e+03,2.186058e+03
2.908130e+03,2.173756e+03
2.909094e+03,2.172149e+03
2.910058e+03,2.178427e+03
2.911022e+03,2.153320e+03
2.911987e+03,2.136251e+03
2.912951e+03,2.170865e+03
2.913915e+03,2.205114e+03
2.914879e+03,2.198817e+03
2.915844e+03,2.200480e+03
2.916808e+03,2.209943e+03
2.917772e+03,2.189810e+03
2.918736e+03,2.160929e+03
2.919700e+03,2.154019e+03
2.920665e+03,2.153790e+03
2.921629e+03,2.160067e+03
2.922593e+03,2.142523e+03
2.923557e+03,2.109512e+03
2.924522e+03,2.098515e+03
2.925486e+03,2.104481e+03
2.926450e+03,2.121533e+03
2.927414e+03,2.138596e+03
2.928379e+03,2.152026e+03
2.929343e+03,2.150890e+03
2.930307e+03,2.138422e+03
2.931271e+03,2.138702e+03
2.932236e+03,2.145522e+03
2.933200e+03,2.140248e+03
2.934164e+03,2.140279e+03
2.935128e+03,2.151618e+03
2.936093e+03,2.138744e+03
2.937057e+03,2.108010e+03
2.938021e+03,2.118140e+03
2.938985e+03,2.143313e+03
2.939949e+03,2.133082e+03
2.940914e+03,2.117786e+03
2.941878e+03,2.110002e+03
2.942842e+03,2.103075e+03
2.943806e+03,2.092718e+03
2.944771e+03,2.090375e+03
2.945735e+03,2.096669e+03
2.946699e+03,2.118161e+03
2.947663e+03,2.125577e+03
2.948627e+03,2.108361e+03
2.949592e+03,2.109141e+03
2.950556e+03,2.131855e+03
2.951520e+03,2.095282e+03
2.952484e+03,2.056206e+03
2.953449e+03,2.075680e+03
2.954413e+03,2.101552e+03
2.955377e+03,2.112335e+03
2.956341e+03,2.134236e+03
2.957306e+03,2.159923e+03
2.958270e+03,2.134402e+03
2.959234e+03,2.097257e+03
2.960198e+03,2.086848e+03
2.961163e+03,2.081850e+03
2.962127e+03,2.064910e+03
2.963091e+03,2.081726e+03
2.964055e+03,2.117010e+03
2.965020e+03,2.125725e+03
2.965984e+03,2.113724e+03
2.966948e+03,2.081365e+03
2.967912e+03,2.058810e+03
2.968876e+03,2.060774e+03
2.969841e+03,2.066953e+03
2.970805e+03,2.077035e+03
2.971769e+03,2.099005e+03
2.972733e+03,2.103104e+03
2.973698e+03,2.064753e+03
2.974662e+03,2.034637e+03
2.975626e+03,2.028256e+03
2.976590e+03,2.064514e+03
2.977554e+03,2.105592e+03
2.978519e+03,2.099992e+03
2.979483e+03,2.076979e+03
2.980447e+03,2.056068e+03
2.981411e+03,2.038559e+03
2.982376e+03,2.027490e+03
2.983340e+03,1.991758e+03
2.984304e+03,2.030004e+03
2.985268e+03,2.262841e+03
2.986233e+03,2.377117e+03
2.987197e+03,2.154253e+03
2.988161e+03,2.050342e+03
2.989125e+03,2.055625e+03
2.990090e+03,2.042372e+03
2.991054e+03,2.024533e+03
2.992018e+03,2.014353e+03
2.992982e+03,2.006450e+03
2.993947e+03,2.001558e+03
2.994911e+03,2.010500e+03
2.995875e+03,2.026206e+03
2.996839e+03,2.033349e+03
2.997803e+03,2.031307e+03
2.998768e+03,2.022626e+03
2.999732e+03,2.005285e+03
3.000696e+03,1.984058e+03
3.001660e+03,1.990596e+03
3.002625e+03,2.002026e+03
3.003589e+03,1.997818e+03
3.004553e+03,1.984785e+03
3.005517e+03,1.966727e+03
3.006481e+03,1.981163e+03
3.007446e+03,2.015891e+03
3.008410e+03,2.026778e+03
3.009374e+03,2.020570e+03
3.010338e+03,2.005703e+03
3.011303e+03,1.999695e+03
3.012267e+03,2.004210e+03
3.013231e+03,1.993414e+03
3.014195e+03,1.981171e+03
3.015160e+03,1.996684e+03
3.016124e+03,2.013754e+03
3.017088e+03,2.021818e+03
3.018052e+03,2.010079e+03
3.019017e+03,1.982504e+03
3.019981e+03,2.004969e+03
3.020945e+03,2.022818e+03
3.021909e+03,1.981541e+03
3.022874e+03,1.967926e+03
3.023838e+03,1.993604e+03
3.024802e+03,2.004012e+03
3.025766e+03,1.999295e+03
3.026730e+03,1.981398e+03
3.027695e+03,1.976267e+03
3.028659e+03,1.995826e+03
3.029623e+03,2.006491e+03
3.030587e+03,2.004750e+03
3.031552e+03,1.987989e+03
3.032516e+03,1.971021e+03
3.033480e+03,1.980078e+03
3.034444e+03,1.982736e+03
3.035408e+03,1.975426e+03
3.036373e+03,1.980845e+03
3.037337e+03,1.989371e+03
3.038301e+03,1.960335e+03
3.039265e+03,1.941883e+03
3.040230e+03,1.967320e+03
3.041194e+03,1.990171e+03
3.042158e+03,2.005610e+03
3.043122e+03,2.018542e+03
3.044087e+03,2.013598e+03
3.045051e+03,1.946263e+03
3.046015e+03,1.905487e+03
3.046979e+03,1.922765e+03
3.047944e+03,1.950507e+03
3.048908e+03,1.978107e+03
3.049872e+03,1.990161e+03
3.050836e+03,1.996666e+03
3.051801e+03,2.004211e+03
3.052765e+03,1.993644e+03
3.053729e+03,1.970908e+03
3.054693e+03,2.003076e+03
3.055657e+03,2.017914e+03
3.056622e+03,1.962231e+03
3.057586e+03,1.933079e+03
3.058550e+03,1.960938e+03
3.059514e+03,1.974497e+03
3.060479e+03,1.977339e+03
3.061443e+03,1.971221e+03
3.062407e+03,1.970883e+03
3.063371e+03,1.978613e+03
3.064335e+03,1.962167e+03
3.065300e+03,1.933259e+03
3.066264e+03,1.958737e+03
3.067228e+03,1.981203e+03
3.068192e+03,1.960262e+03
3.069157e+03,1.932958e+03
3.070121e+03,1.911645e+03
3.071085e+03,1.925081e+03
3.072049e+03,1.951376e+03
3.073014e+03,1.974340e+03
3.073978e+03,1.968528e+03
3.074942e+03,1.928033e+03
3.075906e+03,1.917818e+03
3.076871e+03,1.928039e+03
3.077835e+03,1.939086e+03
3.078799e+03,1.945012e+03
3.079763e+03,1.939300e+03
3.080728e+03,1.948788e+03
3.081692e+03,1.964318e+03
3.082656e+03,1.937452e+03
3.083620e+03,1.918656e+03
3.084584e+03,1.936204e+03
3.085549e+03,1.949481e+03
3.086513e+03,1.949876e+03
3.087477e+03,1.930714e+03
3.088441e+03,1.919779e+03
3.089406e+03,1.965459e+03
3.090370e+03,1.968762e+03
3.091334e+03,1.924791e+03
3.092298e+03,1.913885e+03
3.093262e+03,1.924808e+03
3.094227e+03,1.930918e+03
3.095191e+03,1.938108e+03
3.096155e+03,1.948691e+03
3.097119e+03,1.934914e+03
3.098084e+03,1.911845e+03
3.099048e+03,1.904418e+03
3.100012e+03,1.914163e+03
3.100976e+03,1.949653e+03
3.101941e+03,1.969566e+03
3.102905e+03,1.967398e+03
3.103869e+03,1.936113e+03
3.104833e+03,1.916750e+03
3.105798e+03,1.936405e+03
3.106762e+03,1.925044e+03
3.107726e+03,1.875694e+03
3.108690e+03,1.880381e+03
3.109655e+03,1.905550e+03
3.110619e+03,1.913006e+03
3.111583e+03,1.918973e+03
3.112547e+03,1.926876e+03
3.113511e+03,1.928121e+03
3.114476e+03,1.922436e+03
3.115440e+03,1.896077e+03
3.116404e+03,1.895870e+03
3.117368e+03,1.954048e+03
3.118333e+03,1.949898e+03
3.119297e+03,1.911366e+03
3.120261e+03,1.885252e+03
3.121225e+03,1.896322e+03
3.122189e+03,1.956868e+03
3.123154e+03,1.983127e+03
3.124118e+03,1.968968e+03
3.125082e+03,1.931783e+03
3.126046e+03,1.909674e+03
3.127011e+03,1.918759e+03
3.127975e+03,1.897051e+03
3.128939e+03,1.855165e+03
3.129903e+03,1.888759e+03
3.130868e+03,1.932686e+03
3.131832e+03,1.928011e+03
3.132796e+03,1.920288e+03
3.133760e+03,1.914391e+03
3.134725e+03,1.906216e+03
3.135689e+03,1.907338e+03
3.136653e+03,1.929037e+03
3.137617e+03,1.945019e+03
3.138582e+03,1.948619e+03
3.139546e+03,1.966248e+03
3.140510e+03,1.973348e+03
3.141474e+03,1.947776e+03
3.142438e+03,1.913997e+03
3.143403e+03,1.883968e+03
3.144367e+03,1.908652e+03
3.145331e+03,1.950427e+03
3.146295e+03,1.951507e+03
3.147260e+03,1.936075e+03
3.148224e+03,1.907348e+03
3.149188e+03,1.935774e+03
3.150152e+03,1.964151e+03
3.151116e+03,1.909031e+03
3.152081e+03,1.899058e+03
3.153045e+03,1.987159e+03
3.154009e+03,1.964094e+03
3.154973e+03,1.893435e+03
3.155938e+03,1.944692e+03
3.156902e+03,1.948729e+03
3.157866e+03,1.866626e+03
3.158830e+03,1.868123e+03
3.159795e+03,1.925518e+03
3.160759e+03,1.927418e+03
3.161723e+03,1.927088e+03
3.162687e+03,1.962387e+03
3.163652e+03,1.967911e+03
3.164616e+03,1.959747e+03
3.165580e+03,1.972195e+03
3.166544e+03,1.958244e+03
3.167509e+03,1.905041e+03
3.168473e+03,1.903648e+03
3.169437e+03,1.939046e+03
3.170401e+03,1.942438e+03
3.171365e+03,1.924273e+03
3.172330e+03,1.889029e+03
3.173294e+03,1.917673e+03
3.174258e+03,1.974330e+03
3.175222e+03,1.982475e+03
3.176187e+03,1.954512e+03
3.177151e+03,1.894025e+03
3.178115e+03,1.900846e+03
3.179079e+03,1.944647e+03
3.180043e+03,1.898760e+03
3.181008e+03,1.866467e+03
3.181972e+03,1.887866e+03
3.182936e+03,1.917869e+03
3.183900e+03,1.939841e+03
3.184865e+03,1.922857e+03
3.185829e+03,1.909572e+03
3.186793e+03,1.948091e+03
3.187757e+03,1.929364e+03
3.188722e+03,1.884628e+03
3.189686e+03,1.884602e+03
3.190650e+03,1.904095e+03
3.191614e+03,1.927051e+03
3.192579e+03,1.952637e+03
3.193543e+03,1.975596e+03
3.194507e+03,1.985696e+03
3.195471e+03,1.977189e+03
3.196436e+03,1.941757e+03
3.197400e+03,1.924003e+03
3.198364e+03,1.921754e+03
3.199328e+03,1.928269e+03
3.200292e+03,1.939989e+03
3.201257e+03,0.000000e+00
3.202221e+03,0.000000e+00
3.203185e+03,0.000000e+00
3.204149e+03,0.000000e+00
3.205114e+03,0.000000e+00
3.206078e+03,0.000000e+00
3.207042e+03,0.000000e+00
3.208006e+03,0.000000e+00
3.208970e+03,0.000000e+00
3.209935e+03,0.000000e+00
3.210899e+03,0.000000e+00
3.211863e+03,0.000000e+00
3.212827e+03,0.000000e+00
3.213792e+03,0.000000e+00
3.214756e+03,0.000000e+00
3.215720e+03,0.000000e+00
3.216684e+03,0.000000e+00
3.217649e+03,0.000000e+00
3.218613e+03,0.000000e+00
3.219577e+03,0.000000e+00
3.220541e+03,0.000000e+00
3.221506e+03,0.000000e+00
3.222470e+03,0.000000e+00
3.223434e+03,0.000000e+00
3.224398e+03,0.000000e+00
3.225363e+03,0.000000e+00
3.226327e+03,0.000000e+00
3.227291e+03,0.000000e+00
3.228255e+03,0.000000e+00
3.229219e+03,0.000000e+00
3.230184e+03,0.000000e+00
3.231148e+03,0.000000e+00
3.232112e+03,0.000000e+00
3.233076e+03,0.000000e+00
3.234041e+03,0.000000e+00
3.235005e+03,0.000000e+00
3.235969e+03,0.000000e+00
3.236933e+03,0.000000e+00
3.237897e+03,0.000000e+00
3.238862e+03,0.000000e+00
3.239826e+03,0.000000e+00
3.240790e+03,0.000000e+00
3.241754e+03,0.000000e+00
3.242719e+03,0.000000e+00
3.243683e+03,0.000000e+00
3.244647e+03,0.000000e+00
3.245611e+03,0.000000e+00
3.246576e+03,0.000000e+00
3.247540e+03,0.000000e+00
3.248504e+03,0.000000e+00
3.249468e+03,0.000000e+00
3.250433e+03,0.000000e+00
3.251397e+03,0.000000e+00
3.252361e+03,0.000000e+00
3.253325e+03,0.000000e+00
3.254290e+03,0.000000e+00
3.255254e+03,0.000000e+00
3.256218e+03,0.000000e+00
3.257182e+03,0.000000e+00
3.258146e+03,0.000000e+00
3.259111e+03,0.000000e+00
3.260075e+03,0.000000e+00
3.261039e+03,0.000000e+00
3.262003e+03,0.000000e+00
3.262968e+03,0.000000e+00
3.263932e+03,0.000000e+00
3.264896e+03,0.000000e+00
3.265860e+03,0.000000e+00
3.266824e+03,0.000000e+00
3.267789e+03,0.000000e+00
3.268753e+03,0.000000e+00
3.269717e+03,0.000000e+00
3.270681e+03,0.000000e+00
3.271646e+03,0.000000e+00
3.272610e+03,0.000000e+00
3.273574e+03,0.000000e+00
3.274538e+03,0.000000e+00
3.275503e+03,0.000000e+00
3.276467e+03,0.000000e+00
3.277431e+03,0.000000e+00
3.278395e+03,0.000000e+00
3.279360e+03,0.000000e+00
3.280324e+03,0.000000e+00
3.281288e+03,0.000000e+00
3.282252e+03,0.000000e+00
3.283217e+03,0.000000e+00
3.284181e+03,0.000000e+00
3.285145e+03,0.000000e+00
3.286109e+03,0.000000e+00
3.287073e+03,0.000000e+00
3.288038e+03,0.000000e+00
3.289002e+03,0.000000e+00
3.289966e+03,0.000000e+00
3.290930e+03,0.000000e+00
3.291895e+03,0.000000e+00
3.292859e+03,0.000000e+00
3.293823e+03,0.000000e+00
3.294787e+03,0.000000e+00
3.295751e+03,0.000000e+00
3.296716e+03,0.000000e+00
3.297680e+03,0.000000e+00
3.298644e+03,0.000000e+00
3.299608e+03,0.000000e+00
3.300573e+03,0.000000e+00
3.301537e+03,0.000000e+00
3.302501e+03,0.000000e+00
3.303465e+03,0.000000e+00
3.304430e+03,0.000000e+00
3.305394e+03,0.000000e+00
3.306358e+03,0.000000e+00
3.307322e+03,0.000000e+00
3.308287e+03,0.000000e+00
3.309251e+03,0.000000e+00
3.310215e+03,0.000000e+00
3.311179e+03,0.000000e+00
3.312144e+03,0.000000e+00
3.313108e+03,0.000000e+00
3.314072e+03,0.000000e+00
3.315036e+03,0.000000e+00
3.316000e+03,0.000000e+00
3.316965e+03,0.000000e+00
3.317929e+03,0.000000e+00
3.318893e+03,0.000000e+00
3.319857e+03,0.000000e+00
3.320822e+03,0.000000e+00
3.321786e+03,0.000000e+00
3.322750e+03,0.000000e+00
3.323714e+03,0.000000e+00
3.324678e+03,0.000000e+00
3.325643e+03,0.000000e+00
3.326607e+03,0.000000e+00
3.327571e+03,0.000000e+00
3.328535e+03,0.000000e+00
3.329500e+03,0.000000e+00
3.330464e+03,0.000000e+00
3.331428e+03,0.000000e+00
3.332392e+03,0.000000e+00
3.333357e+03,0.000000e+00
3.334321e+03,0.000000e+00
3.335285e+03,0.000000e+00
3.336249e+03,0.000000e+00
3.337214e+03,0.000000e+00
3.338178e+03,0.000000e+00
3.339142e+03,0.000000e+00
3.340106e+03,0.000000e+00
3.341071e+03,0.000000e+00
3.342035e+03,0.000000e+00
3.342999e+03,0.000000e+00
3.343963e+03,0.000000e+00
3.344927e+03,0.000000e+00
3.345892e+03,0.000000e+00
3.346856e+03,0.000000e+00
3.347820e+03,0.000000e+00
3.348784e+03,0.000000e+00
3.349749e+03,0.000000e+00
3.350713e+03,0.000000e+00
3.351677e+03,0.000000e+00
3.352641e+03,0.000000e+00
3.353605e+03,0.000000e+00
3.354570e+03,0.000000e+00
3.355534e+03,0.000000e+00
3.356498e+03,0.000000e+00
3.357462e+03,0.000000e+00
3.358427e+03,0.000000e+00
3.359391e+03,0.000000e+00
3.360355e+03,0.000000e+00
3.361319e+03,0.000000e+00
3.362284e+03,0.000000e+00
3.363248e+03,0.000000e+00
3.364212e+03,0.000000e+00
3.365176e+03,0.000000e+00
3.366141e+03,0.000000e+00
3.367105e+03,0.000000e+00
3.368069e+03,0.000000e+00
3.369033e+03,0.000000e+00
3.369998e+03,0.000000e+00
3.370962e+03,0.000000e+00
3.371926e+03,0.000000e+00
3.372890e+03,0.000000e+00
3.373854e+03,0.000000e+00
3.374819e+03,0.000000e+00
3.375783e+03,0.000000e+00
3.376747e+03,0.000000e+00
3.377711e+03,0.000000e+00
3.378676e+03,0.000000e+00
3.379640e+03,0.000000e+00
3.380604e+03,0.000000e+00
3.381568e+03,0.000000e+00
3.382532e+03,0.000000e+00
3.383497e+03,0.000000e+00
3.384461e+03,0.000000e+00
3.385425e+03,0.000000e+00
3.386389e+03,0.000000e+00
3.387354e+03,0.000000e+00
3.388318e+03,0.000000e+00
3.389282e+03,0.000000e+00
3.390246e+03,0.000000e+00
3.391211e+03,0.000000e+00
3.392175e+03,0.000000e+00
3.393139e+03,0.000000e+00
3.394103e+03,0.000000e+00
3.395068e+03,0.000000e+00
3.396032e+03,0.000000e+00
3.396996e+03,0.000000e+00
3.397960e+03,0.000000e+00
3.398925e+03,0.000000e+00
3.399889e+03,0.000000e+00
3.400853e+03,0.000000e+00
3.401817e+03,0.000000e+00
3.402781e+03,0.000000e+00
3.403746e+03,0.000000e+00
3.404710e+03,0.000000e+00
3.405674e+03,0.000000e+00
3.406638e+03,0.000000e+00
3.407603e+03,0.000000e+00
3.408567e+03,0.000000e+00
3.409531e+03,0.000000e+00
3.410495e+03,0.000000e+00
3.411459e+03,0.000000e+00
3.412424e+03,0.000000e+00
3.413388e+03,0.000000e+00
3.414352e+03,0.000000e+00
3.415316e+03,0.000000e+00
3.416281e+03,0.000000e+00
3.417245e+03,0.000000e+00
3.418209e+03,0.000000e+00
3.419173e+03,0.000000e+00
3.420138e+03,0.000000e+00
3.421102e+03,0.000000e+00
3.422066e+03,0.000000e+00
3.423030e+03,0.000000e+00
3.423995e+03,0.000000e+00
3.424959e+03,0.000000e+00
3.425923e+03,0.000000e+00
3.426887e+03,0.000000e+00
3.427852e+03,0.000000e+00
3.428816e+03,0.000000e+00
3.429780e+03,0.000000e+00
3.430744e+03,0.000000e+00
3.431708e+03,0.000000e+00
3.432673e+03,0.000000e+00
3.433637e+03,0.000000e+00
3.434601e+03,0.000000e+00
3.435565e+03,0.000000e+00
3.436530e+03,0.000000e+00
3.437494e+03,0.000000e+00
3.438458e+03,0.000000e+00
3.439422e+03,0.000000e+00
3.440386e+03,0.000000e+00
3.441351e+03,0.000000e+00
3.442315e+03,0.000000e+00
3.443279e+03,0.000000e+00
3.444243e+03,0.000000e+00
3.445208e+03,0.000000e+00
3.446172e+03,0.000000e+00
3.447136e+03,0.000000e+00
3.448100e+03,0.000000e+00
3.449065e+03,0.000000e+00
3.450029e+03,0.000000e+00
3.450993e+03,0.000000e+00
3.451957e+03,0.000000e+00
3.452922e+03,0.000000e+00
3.453886e+03,0.000000e+00
3.454850e+03,0.000000e+00
3.455814e+03,0.000000e+00
3.456779e+03,0.000000e+00
3.457743e+03,0.000000e+00
3.458707e+03,0.000000e+00
3.459671e+03,0.000000e+00
3.460635e+03,0.000000e+00
3.461600e+03,0.000000e+00
3.462564e+03,0.000000e+00
3.463528e+03,0.000000e+00
3.464492e+03,0.000000e+00
3.465457e+03,0.000000e+00
3.466421e+03,0.000000e+00
3.467385e+03,0.000000e+00
3.468349e+03,0.000000e+00
3.469313e+03,0.000000e+00
3.470278e+03,0.000000e+00
3.471242e+03,0.000000e+00
3.472206e+03,0.000000e+00
3.473170e+03,0.000000e+00
3.474135e+03,0.000000e+00
3.475099e+03,0.000000e+00
3.476063e+03,0.000000e+00
3.477027e+03,0.000000e+00
3.477992e+03,0.000000e+00
3.478956e+03,0.000000e+00
3.479920e+03,0.000000e+00
3.480884e+03,0.000000e+00
3.481849e+03,0.000000e+00
3.482813e+03,0.000000e+00
3.483777e+03,0.000000e+00
3.484741e+03,0.000000e+00
3.485706e+03,0.000000e+00
3.486670e+03,0.000000e+00
3.487634e+03,0.000000e+00
3.488598e+03,0.000000e+00
3.489563e+03,0.000000e+00
3.490527e+03,0.000000e+00
3.491491e+03,0.000000e+00
3.492455e+03,0.000000e+00
3.493419e+03,0.000000e+00
3.494384e+03,0.000000e+00
3.495348e+03,0.000000e+00
3.496312e+03,0.000000e+00
3.497276e+03,0.000000e+00
3.498240e+03,0.000000e+00
3.499205e+03,0.000000e+00
3.500169e+03,0.000000e+00
