9.931763e+01,0.000000e+00
1.002819e+02,0.000000e+00
1.012461e+02,0.000000e+00
1.022103e+02,0.000000e+00
1.031746e+02,0.000000e+00
1.041388e+02,0.000000e+00
1.051030e+02,0.000000e+00
1.060673e+02,0.000000e+00
1.070315e+02,0.000000e+00
1.079957e+02,0.000000e+00
1.089600e+02,0.000000e+00
1.099242e+02,0.000000e+00
1.108884e+02,0.000000e+00
1.118527e+02,0.000000e+00
1.128169e+02,0.000000e+00
1.137811e+02,0.000000e+00
1.147454e+02,0.000000e+00
1.157096e+02,0.000000e+00
1.166738e+02,0.000000e+00
1.176381e+02,0.000000e+00
1.186023e+02,0.000000e+00
1.195665e+02,0.000000e+00
1.205308e+02,0.000000e+00
1.214950e+02,0.000000e+00
1.224592e+02,0.000000e+00
1.234235e+02,0.000000e+00
1.243877e+02,0.000000e+00
1.253519e+02,0.000000e+00
1.263162e+02,0.000000e+00
1.272804e+02,0.000000e+00
1.282446e+02,0.000000e+00
1.292089e+02,0.000000e+00
1.301731e+02,0.000000e+00
1.311373e+02,0.000000e+00
1.321016e+02,0.000000e+00
1.330658e+02,0.000000e+00
1.340300e+02,0.000000e+00
1.349943e+02,0.000000e+00
1.359585e+02,0.000000e+00
1.369227e+02,0.000000e+00
1.378870e+02,0.000000e+00
1.388512e+02,0.000000e+00
1.398154e+02,0.000000e+00
1.407797e+02,0.000000e+00
1.417439e+02,0.000000e+00
1.427081e+02,0.000000e+00
1.436724e+02,0.000000e+00
1.446366e+02,0.000000e+00
1.456008e+02,0.000000e+00
1.465651e+02,0.000000e+00
1.475293e+02,0.000000e+00
1.484935e+02,0.000000e+00
1.494578e+02,0.000000e+00
1.504220e+02,0.000000e+00
1.513862e+02,0.000000e+00
1.523505e+02,0.000000e+00
1.533147e+02,0.000000e+00
1.542789e+02,0.000000e+00
1.552432e+02,0.000000e+00
1.562074e+02,0.000000e+00
1.571716e+02,0.000000e+00
1.581359e+02,0.000000e+00
1.591001e+02,0.000000e+00
1.600643e+02,0.000000e+00
1.610286e+02,0.000000e+00
1.619928e+02,0.000000e+00
1.629570e+02,0.000000e+00
1.639213e+02,0.000000e+00
1.648855e+02,0.000000e+00
1.658497e+02,0.000000e+00
1.668140e+02,0.000000e+00
1.677782e+02,0.000000e+00
1.687424e+02,0.000000e+00
1.697067e+02,0.000000e+00
1.706709e+02,0.000000e+00
1.716351e+02,0.000000e+00
1.725994e+02,0.000000e+00
1.735636e+02,0.000000e+00
1.745278e+02,0.000000e+00
1.754921e+02,0.000000e+00
1.764563e+02,0.000000e+00
1.774205e+02,0.000000e+00
1.783848e+02,0.000000e+00
1.793490e+02,0.000000e+00
1.803132e+02,0.000000e+00
1.812775e+02,0.000000e+00
1.822417e+02,0.000000e+00
1.832059e+02,0.000000e+00
1.841702e+02,0.000000e+00
1.851344e+02,0.000000e+00
1.860986e+02,0.000000e+00
1.870629e+02,0.000000e+00
1.880271e+02,0.000000e+00
1.889913e+02,0.000000e+00
1.899556e+02,0.000000e+00
1.909198e+02,0.000000e+00
1.918840e+02,0.000000e+00
1.928483e+02,0.000000e+00
1.938125e+02,0.000000e+00
1.947767e+02,0.000000e+00
1.957410e+02,0.000000e+00
1.967052e+02,0.000000e+00
1.976694e+02,0.000000e+00
1.986337e+02,0.000000e+00
1.995979e+02,9.762994e+02
2.005621e+02,9.794387e+02
2.015264e+02,9.815920e+02
2.024906e+02,9.826603e+02
2.034548e+02,9.826104e+02
2.044191e+02,9.800634e+02
2.053833e+02,9.755497e+02
2.063475e+02,9.713040e+02
2.073118e+02,9.700662e+02
2.082760e+02,9.731312e+02
2.092402e+02,9.752951e+02
2.102045e+02,9.766967e+02
2.111687e+02,9.775516e+02
2.121329e+02,9.775724e+02
2.130972e+02,9.760915e+02
2.140614e+02,9.738616e+02
2.150256e+02,9.733256e+02
2.159899e+02,9.754356e+02
2.169541e+02,9.782826e+02
2.179183e+02,9.821293e+02
2.188826e+02,9.863425e+02
2.198468e+02,9.890811e+02
2.208110e+02,9.879570e+02
2.217753e+02,9.829905e+02
2.227395e+02,9.790474e+02
2.237037e+02,9.780799e+02
2.246680e+02,9.785814e+02
2.256322e+02,9.789081e+02
2.265964e+02,9.789692e+02
2.275607e+02,9.793021e+02
2.285249e+02,9.808435e+02
2.294892e+02,9.839727e+02
2.304534e+02,9.865392e+02
2.314176e+02,9.853578e+02
2.323819e+02,9.812252e+02
2.333461e+02,9.786092e+02
2.343103e+02,9.801703e+02
2.352746e+02,9.842296e+02
2.362388e+02,9.875702e+02
2.372030e+02,9.892828e+02
2.381673e+02,9.894101e+02
2.391315e+02,9.887180e+02
2.400957e+02,9.877101e+02
2.410600e+02,9.863431e+02
2.420242e+02,9.843409e+02
2.429884e+02,9.821887e+02
2.439527e+02,9.808909e+02
2.449169e+02,9.808365e+02
2.458811e+02,9.820088e+02
2.468454e+02,9.832897e+02
2.478096e+02,9.847166e+02
2.487738e+02,9.862442e+02
2.497381e+02,9.880078e+02
2.507023e+02,9.900144e+02
2.516665e+02,9.919089e+02
2.526308e+02,9.930473e+02
2.535950e+02,9.925269e+02
2.545592e+02,9.913602e+02
2.555235e+02,9.888158e+02
2.564877e+02,9.861092e+02
2.574519e+02,9.850146e+02
2.584161e+02,9.870346e+02
2.593804e+02,9.918445e+02
2.603446e+02,9.944170e+02
2.613088e+02,9.908504e+02
2.622731e+02,9.876950e+02
2.632373e+02,9.869178e+02
2.642015e+02,9.882386e+02
2.651658e+02,9.902384e+02
2.661300e+02,9.921873e+02
2.670942e+02,9.945697e+02
2.680585e+02,9.960510e+02
2.690227e+02,9.955226e+02
2.699869e+02,9.943184e+02
2.709512e+02,9.932781e+02
2.719154e+02,9.930602e+02
2.728796e+02,9.932501e+02
2.738439e+02,9.930310e+02
2.748081e+02,9.923683e+02
2.757723e+02,9.925592e+02
2.767366e+02,9.944335e+02
2.777008e+02,9.970531e+02
2.786650e+02,9.983757e+02
2.796293e+02,9.970405e+02
2.805935e+02,9.945428e+02
2.815577e+02,9.933052e+02
2.825220e+02,9.939084e+02
2.834862e+02,9.952764e+02
2.844504e+02,9.956300e+02
2.854147e+02,9.939915e+02
2.863789e+02,9.933445e+02
2.873431e+02,9.955500e+02
2.883074e+02,9.997825e+02
2.892716e+02,1.004071e+03
2.902358e+02,1.007322e+03
2.912001e+02,1.009409e+03
2.921643e+02,1.009125e+03
2.931285e+02,1.003179e+03
2.940928e+02,9.984411e+02
2.950570e+02,9.983292e+02
2.960212e+02,1.002506e+03
2.969855e+02,1.008136e+03
2.979497e+02,1.012487e+03
2.989139e+02,1.015855e+03
2.998782e+02,1.017630e+03
3.008424e+02,1.018141e+03
3.018066e+02,1.017681e+03
3.027709e+02,1.015563e+03
3.037351e+02,1.010874e+03
3.046993e+02,1.005547e+03
3.056636e+02,1.003825e+03
3.066278e+02,1.007440e+03
3.075920e+02,1.011164e+03
3.085563e+02,1.012782e+03
3.095205e+02,1.013029e+03
3.104847e+02,1.012961e+03
3.114490e+02,1.012153e+03
3.124132e+02,1.010985e+03
3.133774e+02,1.010571e+03
3.143417e+02,1.011121e+03
3.153059e+02,1.011950e+03
3.162701e+02,1.012575e+03
3.172344e+02,1.013070e+03
3.181986e+02,1.014050e+03
3.191628e+02,1.016872e+03
3.201271e+02,1.020366e+03
3.210913e+02,1.021836e+03
3.220555e+02,1.019565e+03
3.230198e+02,1.014342e+03
3.239840e+02,1.011998e+03
3.249482e+02,1.015669e+03
3.259125e+02,1.018791e+03
3.268767e+02,1.019304e+03
3.278409e+02,1.017552e+03
3.288052e+02,1.014836e+03
3.297694e+02,1.011687e+03
3.307336e+02,1.007542e+03
3.316979e+02,1.005982e+03
3.326621e+02,1.010154e+03
3.336263e+02,1.014625e+03
3.345906e+02,1.016903e+03
3.355548e+02,1.016711e+03
3.365190e+02,1.015489e+03
3.374833e+02,1.014071e+03
3.384475e+02,1.012222e+03
3.394117e+02,1.011563e+03
3.403760e+02,1.013180e+03
3.413402e+02,1.015976e+03
3.423044e+02,1.018067e+03
3.432687e+02,1.018484e+03
3.442329e+02,1.018409e+03
3.451971e+02,1.018839e+03
3.461614e+02,1.019538e+03
3.471256e+02,1.019686e+03
3.480898e+02,1.019054e+03
3.490541e+02,1.017899e+03
3.500183e+02,1.015924e+03
3.509825e+02,1.012391e+03
3.519468e+02,1.008932e+03
3.529110e+02,1.006709e+03
3.538752e+02,1.005824e+03
3.548395e+02,1.005526e+03
3.558037e+02,1.004723e+03
3.567680e+02,1.002620e+03
3.577322e+02,1.001454e+03
3.586964e+02,1.002048e+03
3.596607e+02,1.003834e+03
3.606249e+02,1.005976e+03
3.615891e+02,1.007943e+03
3.625534e+02,1.009249e+03
3.635176e+02,1.009380e+03
3.644818e+02,1.008323e+03
3.654461e+02,1.007133e+03
3.664103e+02,1.006157e+03
3.673745e+02,1.005969e+03
3.683388e+02,1.008023e+03
3.693030e+02,1.014439e+03
3.702672e+02,1.022279e+03
3.712315e+02,1.027488e+03
3.721957e+02,1.029145e+03
3.731599e+02,1.027998e+03
3.741242e+02,1.025436e+03
3.750884e+02,1.019983e+03
3.760526e+02,1.016129e+03
3.770169e+02,1.014334e+03
3.779811e+02,1.013998e+03
3.789453e+02,1.014734e+03
3.799096e+02,1.016547e+03
3.808738e+02,1.018650e+03
3.818380e+02,1.018256e+03
3.828023e+02,1.014063e+03
3.837665e+02,1.009893e+03
3.847307e+02,1.006255e+03
3.856950e+02,1.003286e+03
3.866592e+02,1.001248e+03
3.876234e+02,1.000854e+03
3.885877e+02,1.001466e+03
3.895519e+02,1.001047e+03
3.905161e+02,9.988331e+02
3.914804e+02,9.964049e+02
3.924446e+02,9.960396e+02
3.934088e+02,9.986568e+02
3.943731e+02,1.000299e+03
3.953373e+02,9.986945e+02
3.963015e+02,9.956956e+02
3.972658e+02,9.940495e+02
3.982300e+02,9.949180e+02
3.991942e+02,9.977780e+02
4.001585e+02,1.000372e+03
4.011227e+02,1.002541e+03
4.020869e+02,1.003801e+03
4.030512e+02,1.003006e+03
4.040154e+02,1.001019e+03
4.049796e+02,9.994659e+02
4.059439e+02,9.995827e+02
4.069081e+02,1.000777e+03
4.078723e+02,1.000913e+03
4.088366e+02,9.993818e+02
4.098008e+02,9.970743e+02
4.107650e+02,9.946882e+02
4.117293e+02,9.923547e+02
4.126935e+02,9.910306e+02
4.136577e+02,9.912025e+02
4.146220e+02,9.925010e+02
4.155862e+02,9.947291e+02
4.165504e+02,9.979827e+02
4.175147e+02,1.001514e+03
4.184789e+02,1.004072e+03
4.194431e+02,1.005332e+03
4.204074e+02,1.005784e+03
4.213716e+02,1.005026e+03
4.223358e+02,1.003585e+03
4.233001e+02,1.001846e+03
4.242643e+02,9.998916e+02
4.252285e+02,9.982546e+02
4.261928e+02,9.981533e+02
4.271570e+02,1.000154e+03
4.281212e+02,1.002690e+03
4.290855e+02,1.005829e+03
4.300497e+02,1.008871e+03
4.310139e+02,1.010261e+03
4.319782e+02,1.008072e+03
4.329424e+02,1.004924e+03
4.339066e+02,1.003875e+03
4.348709e+02,1.005058e+03
4.358351e+02,1.006720e+03
4.367993e+02,1.007386e+03
4.377636e+02,1.007164e+03
4.387278e+02,1.005547e+03
4.396920e+02,1.000550e+03
4.406563e+02,9.957484e+02
4.416205e+02,9.938677e+02
4.425847e+02,9.955020e+02
4.435490e+02,9.985186e+02
4.445132e+02,1.000180e+03
4.454774e+02,1.000355e+03
4.464417e+02,1.000547e+03
4.474059e+02,1.001108e+03
4.483701e+02,1.001526e+03
4.493344e+02,1.001342e+03
4.502986e+02,1.000144e+03
4.512628e+02,9.990486e+02
4.522271e+02,9.986943e+02
4.531913e+02,9.990480e+02
4.541555e+02,1.000091e+03
4.551198e+02,1.002065e+03
4.560840e+02,1.005021e+03
4.570482e+02,1.005815e+03
4.580125e+02,1.003214e+03
4.589767e+02,1.000589e+03
4.599409e+02,9.986503e+02
4.609052e+02,9.971633e+02
4.618694e+02,9.957305e+02
4.628336e+02,9.939369e+02
4.637979e+02,9.919739e+02
4.647621e+02,9.913264e+02
4.657263e+02,9.935794e+02
4.666906e+02,9.959998e+02
4.676548e+02,9.948922e+02
4.686190e+02,9.887825e+02
4.695833e+02,9.838949e+02
4.705475e+02,9.824680e+02
4.715117e+02,9.832208e+02
4.724760e+02,9.847285e+02
4.734402e+02,9.866686e+02
4.744044e+02,9.886733e+02
4.753687e+02,9.897195e+02
4.763329e+02,9.890510e+02
4.772971e+02,9.886074e+02
4.782614e+02,9.890465e+02
4.792256e+02,9.898311e+02
4.801898e+02,9.902044e+02
4.811541e+02,9.896417e+02
4.821183e+02,9.884329e+02
4.830826e+02,9.866142e+02
4.840468e+02,9.840270e+02
4.850110e+02,9.820949e+02
4.859753e+02,9.820597e+02
4.869395e+02,9.840257e+02
4.879037e+02,9.852356e+02
4.888680e+02,9.851718e+02
4.898322e+02,9.850314e+02
4.907964e+02,9.854861e+02
4.917607e+02,9.866012e+02
4.927249e+02,9.880605e+02
4.936891e+02,9.900305e+02
4.946534e+02,9.926135e+02
4.956176e+02,9.931785e+02
4.965818e+02,9.902081e+02
4.975461e+02,9.865569e+02
4.985103e+02,9.846450e+02
4.994745e+02,9.847545e+02
5.004388e+02,9.844739e+02
5.014030e+02,9.826863e+02
5.023672e+02,9.801818e+02
5.033315e+02,9.781555e+02
5.042957e+02,9.769480e+02
5.052599e+02,9.760489e+02
5.062242e+02,9.745370e+02
5.071884e+02,9.713510e+02
5.081526e+02,9.696416e+02
5.091169e+02,9.712191e+02
5.100811e+02,9.740983e+02
5.110453e+02,9.756901e+02
5.120095e+02,9.743192e+02
5.129738e+02,9.723039e+02
5.139380e+02,9.725876e+02
5.149022e+02,9.751757e+02
5.158665e+02,9.786052e+02
5.168307e+02,9.824496e+02
5.177949e+02,9.861014e+02
5.187592e+02,9.858699e+02
5.197234e+02,9.791629e+02
5.206876e+02,9.730437e+02
5.216519e+02,9.710334e+02
5.226161e+02,9.723215e+02
5.235803e+02,9.737194e+02
5.245446e+02,9.723316e+02
5.255088e+02,9.686263e+02
5.264730e+02,9.660056e+02
5.274373e+02,9.647449e+02
5.284015e+02,9.641584e+02
5.293657e+02,9.638549e+02
5.303300e+02,9.640650e+02
5.312942e+02,9.632152e+02
5.322584e+02,9.597607e+02
5.332227e+02,9.564385e+02
5.341869e+02,9.560176e+02
5.351511e+02,9.587913e+02
5.361154e+02,9.625262e+02
5.370796e+02,9.643996e+02
5.380438e+02,9.640653e+02
5.390081e+02,9.638435e+02
5.399723e+02,9.641815e+02
5.409365e+02,9.648375e+02
5.419008e+02,9.653705e+02
5.428650e+02,9.655654e+02
5.438292e+02,9.652704e+02
5.447935e+02,9.637284e+02
5.457577e+02,9.617079e+02
5.467219e+02,9.611207e+02
5.476862e+02,9.629941e+02
5.486504e+02,9.661735e+02
5.496146e+02,9.671536e+02
5.505789e+02,9.641435e+02
5.515431e+02,9.615697e+02
5.525073e+02,9.612482e+02
5.534716e+02,9.623495e+02
5.544358e+02,9.631471e+02
5.554000e+02,9.619997e+02
5.563643e+02,9.604152e+02
5.573285e+02,9.598524e+02
5.582927e+02,9.601437e+02
5.592570e+02,9.609609e+02
5.602212e+02,9.625280e+02
5.611854e+02,9.647409e+02
5.621497e+02,9.652199e+02
5.631139e+02,9.616875e+02
5.640781e+02,9.579893e+02
5.650424e+02,9.556661e+02
5.660066e+02,9.545424e+02
5.669708e+02,9.534557e+02
5.679351e+02,9.512168e+02
5.688993e+02,9.489315e+02
5.698635e+02,9.487715e+02
5.708278e+02,9.510826e+02
5.717920e+02,9.543849e+02
5.727562e+02,9.573864e+02
5.737205e+02,9.603039e+02
5.746847e+02,9.611953e+02
5.756489e+02,9.582211e+02
5.766132e+02,9.546619e+02
5.775774e+02,9.520641e+02
5.785416e+02,9.507457e+02
5.795059e+02,9.506801e+02
5.804701e+02,9.531843e+02
5.814343e+02,9.570949e+02
5.823986e+02,9.582012e+02
5.833628e+02,9.552433e+02
5.843270e+02,9.511747e+02
5.852913e+02,9.499869e+02
5.862555e+02,9.551199e+02
5.872197e+02,9.579733e+02
5.881840e+02,9.565331e+02
5.891482e+02,9.538800e+02
5.901124e+02,9.527121e+02
5.910767e+02,9.539685e+02
5.920409e+02,9.556254e+02
5.930051e+02,9.559186e+02
5.939694e+02,9.548071e+02
5.949336e+02,9.519471e+02
5.958978e+02,9.464102e+02
5.968621e+02,9.402766e+02
5.978263e+02,9.384117e+02
5.987905e+02,9.467539e+02
5.997548e+02,9.527523e+02
6.007190e+02,9.550300e+02
6.016832e+02,9.548148e+02
6.026475e+02,9.530925e+02
6.036117e+02,9.491785e+02
6.045759e+02,9.451142e+02
6.055402e+02,9.435108e+02
6.065044e+02,9.440262e+02
6.074686e+02,9.449114e+02
6.084329e+02,9.457966e+02
6.093971e+02,9.466241e+02
6.103613e+02,9.466470e+02
6.113256e+02,9.451844e+02
6.122899e+02,9.437090e+02
6.132541e+02,9.421336e+02
6.142183e+02,9.407230e+02
6.151826e+02,9.399714e+02
6.161468e+02,9.408392e+02
6.171110e+02,9.424037e+02
6.180753e+02,9.435207e+02
6.190395e+02,9.440958e+02
6.200037e+02,9.440279e+02
6.209680e+02,9.431754e+02
6.219322e+02,9.416891e+02
6.228964e+02,9.399872e+02
6.238607e+02,9.369844e+02
6.248249e+02,9.348030e+02
6.257891e+02,9.336442e+02
6.267534e+02,9.333660e+02
6.277176e+02,9.341279e+02
6.286818e+02,9.383101e+02
6.296461e+02,9.427755e+02
6.306103e+02,9.433610e+02
6.315745e+02,9.403506e+02
6.325388e+02,9.369141e+02
6.335030e+02,9.352321e+02
6.344672e+02,9.352028e+02
6.354315e+02,9.356038e+02
6.363957e+02,9.374561e+02
6.373599e+02,9.380395e+02
6.383242e+02,9.355916e+02
6.392884e+02,9.306176e+02
6.402526e+02,9.267009e+02
6.412169e+02,9.248475e+02
6.421811e+02,9.245302e+02
6.431453e+02,9.261766e+02
6.441096e+02,9.293663e+02
6.450738e+02,9.319932e+02
6.460380e+02,9.317450e+02
6.470023e+02,9.287241e+02
6.479665e+02,9.274572e+02
6.489307e+02,9.290641e+02
6.498950e+02,9.303414e+02
6.508592e+02,9.274600e+02
6.518234e+02,9.196015e+02
6.527877e+02,9.153086e+02
6.537519e+02,9.191204e+02
6.547161e+02,9.247922e+02
6.556804e+02,9.281453e+02
6.566446e+02,9.286547e+02
6.576088e+02,9.275204e+02
6.585731e+02,9.250884e+02
6.595373e+02,9.216677e+02
6.605015e+02,9.190377e+02
6.614658e+02,9.173267e+02
6.624300e+02,9.165833e+02
6.633942e+02,9.170582e+02
6.643585e+02,9.196572e+02
6.653227e+02,9.209689e+02
6.662869e+02,9.196761e+02
6.672512e+02,9.178602e+02
6.682154e+02,9.166680e+02
6.691796e+02,9.161812e+02
6.701439e+02,9.162423e+02
6.711081e+02,9.175256e+02
6.720723e+02,9.192123e+02
6.730366e+02,9.196029e+02
6.740008e+02,9.184924e+02
6.749650e+02,9.166143e+02
6.759293e+02,9.148328e+02
6.768935e+02,9.134885e+02
6.778577e+02,9.116058e+02
6.788220e+02,9.078091e+02
6.797862e+02,9.050869e+02
6.807504e+02,9.055307e+02
6.817147e+02,9.096239e+02
6.826789e+02,9.131921e+02
6.836431e+02,9.145627e+02
6.846074e+02,9.143210e+02
6.855716e+02,9.128551e+02
6.865358e+02,9.105198e+02
6.875001e+02,9.085470e+02
6.884643e+02,9.089261e+02
6.894285e+02,9.116566e+02
6.903928e+02,9.123749e+02
6.913570e+02,9.095872e+02
6.923212e+02,9.060111e+02
6.932855e+02,9.048447e+02
6.942497e+02,9.084108e+02
6.952139e+02,9.105128e+02
6.961782e+02,9.090544e+02
6.971424e+02,9.072444e+02
6.981066e+02,9.076116e+02
6.990709e+02,9.102910e+02
7.000351e+02,9.123613e+02
7.009993e+02,9.122875e+02
7.019636e+02,9.106214e+02
7.029278e+02,9.072613e+02
7.038920e+02,9.019738e+02
7.048563e+02,8.970072e+02
7.058205e+02,8.960071e+02
7.067847e+02,9.012492e+02
7.077490e+02,9.038226e+02
7.087132e+02,9.020895e+02
7.096774e+02,8.995668e+02
7.106417e+02,8.983159e+02
7.116059e+02,8.984453e+02
7.125701e+02,8.984969e+02
7.135344e+02,8.979600e+02
7.144986e+02,8.975840e+02
7.154628e+02,8.980341e+02
7.164271e+02,8.992724e+02
7.173913e+02,9.005060e+02
7.183555e+02,9.013457e+02
7.193198e+02,9.016092e+02
7.202840e+02,9.001373e+02
7.212482e+02,8.965087e+02
7.222125e+02,8.928466e+02
7.231767e+02,8.911956e+02
7.241409e+02,8.917483e+02
7.251052e+02,8.930556e+02
7.260694e+02,8.966663e+02
7.270336e+02,8.997123e+02
7.279979e+02,9.004612e+02
7.289621e+02,8.986770e+02
7.299263e+02,8.970141e+02
7.308906e+02,8.968699e+02
7.318548e+02,8.970907e+02
7.328190e+02,8.965338e+02
7.337833e+02,8.951002e+02
7.347475e+02,8.933322e+02
7.357117e+02,8.919313e+02
7.366760e+02,8.910033e+02
7.376402e+02,8.899374e+02
7.386044e+02,8.886057e+02
7.395687e+02,8.875345e+02
7.405329e+02,8.869512e+02
7.414971e+02,8.867796e+02
7.424614e+02,8.871892e+02
7.434256e+02,8.908513e+02
7.443898e+02,8.936160e+02
7.453541e+02,8.921679e+02
7.463183e+02,8.864522e+02
7.472825e+02,8.811746e+02
7.482468e+02,8.782537e+02
7.492110e+02,8.771324e+02
7.501752e+02,8.785284e+02
7.511395e+02,8.822639e+02
7.521037e+02,8.857366e+02
7.530679e+02,8.860446e+02
7.540322e+02,8.834922e+02
7.549964e+02,8.822176e+02
7.559606e+02,8.828369e+02
7.569249e+02,8.833448e+02
7.578891e+02,8.824675e+02
7.588533e+02,8.802227e+02
7.598176e+02,8.781648e+02
7.607818e+02,8.730272e+02
7.617460e+02,8.698947e+02
7.627103e+02,8.733341e+02
7.636745e+02,8.813046e+02
7.646387e+02,8.861632e+02
7.656030e+02,8.810416e+02
7.665672e+02,8.745384e+02
7.675314e+02,8.746784e+02
7.684957e+02,8.791748e+02
7.694599e+02,8.813995e+02
7.704241e+02,8.771270e+02
7.713884e+02,8.689371e+02
7.723526e+02,8.627460e+02
7.733168e+02,8.586516e+02
7.742811e+02,8.578239e+02
7.752453e+02,8.613407e+02
7.762095e+02,8.678414e+02
7.771738e+02,8.713098e+02
7.781380e+02,8.698694e+02
7.791022e+02,8.669129e+02
7.800665e+02,8.620880e+02
7.810307e+02,8.569032e+02
7.819949e+02,8.536877e+02
7.829592e+02,8.537878e+02
7.839234e+02,8.557171e+02
7.848876e+02,8.598855e+02
7.858519e+02,8.648826e+02
7.868161e+02,8.684933e+02
7.877803e+02,8.696586e+02
7.887446e+02,8.694293e+02
7.897088e+02,8.698420e+02
7.906730e+02,8.709134e+02
7.916373e+02,8.700925e+02
7.926015e+02,8.656165e+02
7.935657e+02,8.594427e+02
7.945300e+02,8.567568e+02
7.954942e+02,8.592383e+02
7.964584e+02,8.620245e+02
7.974227e+02,8.675610e+02
7.983869e+02,8.725156e+02
7.993511e+02,8.714572e+02
8.003154e+02,8.581543e+02
8.012796e+02,8.489418e+02
8.022438e+02,8.501846e+02
8.032081e+02,8.551310e+02
8.041723e+02,8.577266e+02
8.051365e+02,8.564085e+02
8.061008e+02,8.548605e+02
8.070650e+02,8.560452e+02
8.080292e+02,8.584224e+02
8.089935e+02,8.598792e+02
8.099577e+02,8.603064e+02
8.109219e+02,8.602021e+02
8.118862e+02,8.599349e+02
8.128504e+02,8.594929e+02
8.138146e+02,8.584713e+02
8.147789e+02,8.563941e+02
8.157431e+02,8.545553e+02
8.167073e+02,8.544774e+02
8.176716e+02,8.571985e+02
8.186358e+02,8.583929e+02
8.196000e+02,8.563502e+02
8.205643e+02,8.542321e+02
8.215285e+02,8.527418e+02
8.224927e+02,8.518747e+02
8.234570e+02,8.516490e+02
8.244212e+02,8.538352e+02
8.253854e+02,8.551946e+02
8.263497e+02,8.520450e+02
8.273139e+02,8.458303e+02
8.282781e+02,8.413830e+02
8.292424e+02,8.439421e+02
8.302066e+02,8.490331e+02
8.311708e+02,8.493378e+02
8.321351e+02,8.457338e+02
8.330993e+02,8.425484e+02
8.340635e+02,8.416533e+02
8.350278e+02,8.427684e+02
8.359920e+02,8.462640e+02
8.369562e+02,8.531542e+02
8.379205e+02,8.570233e+02
8.388847e+02,8.547794e+02
8.398489e+02,8.488574e+02
8.408132e+02,8.453452e+02
8.417774e+02,8.461420e+02
8.427416e+02,8.463695e+02
8.437059e+02,8.448771e+02
8.446701e+02,8.429483e+02
8.456343e+02,8.421551e+02
8.465986e+02,8.436699e+02
8.475628e+02,8.441727e+02
8.485270e+02,8.413824e+02
8.494913e+02,8.376268e+02
8.504555e+02,8.353060e+02
8.514197e+02,8.350940e+02
8.523840e+02,8.361592e+02
8.533482e+02,8.381213e+02
8.543124e+02,8.405336e+02
8.552767e+02,8.429493e+02
8.562409e+02,8.451962e+02
8.572051e+02,8.467611e+02
8.581694e+02,8.473329e+02
8.591336e+02,8.470456e+02
8.600978e+02,8.459674e+02
8.610621e+02,8.441689e+02
8.620263e+02,8.419093e+02
8.629905e+02,8.386412e+02
8.639548e+02,8.338409e+02
8.649190e+02,8.323361e+02
8.658832e+02,8.375343e+02
8.668475e+02,8.422856e+02
8.678117e+02,8.423842e+02
8.687759e+02,8.388207e+02
8.697402e+02,8.373708e+02
8.707044e+02,8.404221e+02
8.716686e+02,8.425355e+02
8.726329e+02,8.420291e+02
8.735971e+02,8.398770e+02
8.745613e+02,8.375810e+02
8.755256e+02,8.349471e+02
8.764898e+02,8.336886e+02
8.774540e+02,8.362846e+02
8.784183e+02,8.404631e+02
8.793825e+02,8.421614e+02
8.803467e+02,8.395433e+02
8.813110e+02,8.353052e+02
8.822752e+02,8.319897e+02
8.832394e+02,8.300133e+02
8.842037e+02,8.307689e+02
8.851679e+02,8.345721e+02
8.861321e+02,8.390410e+02
8.870964e+02,8.413430e+02
8.880606e+02,8.413734e+02
8.890248e+02,8.395687e+02
8.899891e+02,8.357377e+02
8.909533e+02,8.317502e+02
8.919175e+02,8.292452e+02
8.928818e+02,8.286247e+02
8.938460e+02,8.274590e+02
8.948102e+02,8.240766e+02
8.957745e+02,8.215421e+02
8.967387e+02,8.226348e+02
8.977029e+02,8.269445e+02
8.986672e+02,8.289302e+02
8.996314e+02,8.275677e+02
9.005956e+02,8.253383e+02
9.015599e+02,8.226332e+02
9.025241e+02,8.196105e+02
9.034883e+02,8.167830e+02
9.044526e+02,8.135254e+02
9.054168e+02,8.108958e+02
9.063810e+02,8.111192e+02
9.073453e+02,8.130842e+02
9.083095e+02,8.138884e+02
9.092737e+02,8.115355e+02
9.102380e+02,8.084261e+02
9.112022e+02,8.072922e+02
9.121664e+02,8.075579e+02
9.131307e+02,8.079875e+02
9.140949e+02,8.084951e+02
9.150591e+02,8.096207e+02
9.160234e+02,8.122712e+02
9.169876e+02,8.156309e+02
9.179518e+02,8.163072e+02
9.189161e+02,8.137327e+02
9.198803e+02,8.091917e+02
9.208445e+02,8.035579e+02
9.218088e+02,7.966024e+02
9.227730e+02,7.929545e+02
9.237372e+02,7.932022e+02
9.247015e+02,7.950569e+02
9.256657e+02,7.977867e+02
9.266299e+02,8.014671e+02
9.275942e+02,8.021667e+02
9.285584e+02,7.963840e+02
9.295226e+02,7.914524e+02
9.304869e+02,7.906827e+02
9.314511e+02,7.930709e+02
9.324153e+02,7.949964e+02
9.333796e+02,7.956121e+02
9.343438e+02,7.963494e+02
9.353080e+02,7.980470e+02
9.362723e+02,7.995524e+02
9.372365e+02,7.995825e+02
9.382007e+02,7.978431e+02
9.391650e+02,7.956947e+02
9.401292e+02,7.928743e+02
9.410934e+02,7.902696e+02
9.420577e+02,7.889450e+02
9.430219e+02,7.891649e+02
9.439861e+02,7.893870e+02
9.449504e+02,7.878460e+02
9.459146e+02,7.865206e+02
9.468788e+02,7.884170e+02
9.478431e+02,7.930840e+02
9.488073e+02,7.969224e+02
9.497715e+02,7.972443e+02
9.507358e+02,7.950540e+02
9.517000e+02,7.914744e+02
9.526642e+02,7.870660e+02
9.536285e+02,7.843904e+02
9.545927e+02,7.855771e+02
9.555569e+02,7.891148e+02
9.565212e+02,7.899443e+02
9.574854e+02,7.882723e+02
9.584496e+02,7.865826e+02
9.594139e+02,7.853132e+02
9.603781e+02,7.844793e+02
9.613423e+02,7.849141e+02
9.623066e+02,7.869846e+02
9.632708e+02,7.887382e+02
9.642350e+02,7.897590e+02
9.651993e+02,7.908231e+02
9.661635e+02,7.929921e+02
9.671277e+02,7.977155e+02
9.680920e+02,7.992364e+02
9.690562e+02,7.957688e+02
9.700204e+02,7.908156e+02
9.709847e+02,7.871907e+02
9.719489e+02,7.854606e+02
9.729131e+02,7.833804e+02
9.738774e+02,7.795560e+02
9.748416e+02,7.771478e+02
9.758058e+02,7.781579e+02
9.767701e+02,7.815894e+02
9.777343e+02,7.833467e+02
9.786985e+02,7.805746e+02
9.796628e+02,7.783345e+02
9.806270e+02,7.797977e+02
9.815912e+02,7.827299e+02
9.825555e+02,7.833383e+02
9.835197e+02,7.790859e+02
9.844839e+02,7.752011e+02
9.854482e+02,7.744008e+02
9.864124e+02,7.749703e+02
9.873766e+02,7.744210e+02
9.883409e+02,7.719224e+02
9.893051e+02,7.706768e+02
9.902693e+02,7.750634e+02
9.912336e+02,7.803763e+02
9.921978e+02,7.796777e+02
9.931620e+02,7.729439e+02
9.941263e+02,7.678878e+02
9.950905e+02,7.729131e+02
9.960547e+02,7.809639e+02
9.970190e+02,7.829977e+02
9.979832e+02,7.797169e+02
9.989474e+02,7.753170e+02
9.999117e+02,7.718704e+02
1.000876e+03,7.696863e+02
1.001840e+03,7.699459e+02
1.002804e+03,7.720394e+02
1.003769e+03,7.732832e+02
1.004733e+03,7.724487e+02
1.005697e+03,7.703280e+02
1.006661e+03,7.670963e+02
1.007626e+03,7.635219e+02
1.008590e+03,7.635892e+02
1.009554e+03,7.680086e+02
1.010518e+03,7.727667e+02
1.011482e+03,7.736509e+02
1.012447e+03,7.709842e+02
1.013411e+03,7.668067e+02
1.014375e+03,7.613727e+02
1.015339e+03,7.574011e+02
1.016304e+03,7.566042e+02
1.017268e+03,7.585722e+02
1.018232e+03,7.618107e+02
1.019196e+03,7.664495e+02
1.020161e+03,7.705587e+02
1.021125e+03,7.736541e+02
1.022089e+03,7.758458e+02
1.023053e+03,7.765706e+02
1.024018e+03,7.751943e+02
1.024982e+03,7.740976e+02
1.025946e+03,7.738021e+02
1.026910e+03,7.732613e+02
1.027875e+03,7.711583e+02
1.028839e+03,7.667140e+02
1.029803e+03,7.655103e+02
1.030767e+03,7.691495e+02
1.031731e+03,7.733757e+02
1.032696e+03,7.750935e+02
1.033660e+03,7.741365e+02
1.034624e+03,7.726404e+02
1.035588e+03,7.697415e+02
1.036552e+03,7.685007e+02
1.037517e+03,7.711509e+02
1.038481e+03,7.759316e+02
1.039445e+03,7.767775e+02
1.040409e+03,7.700287e+02
1.041374e+03,7.655530e+02
1.042338e+03,7.665128e+02
1.043302e+03,7.699102e+02
1.044266e+03,7.716429e+02
1.045231e+03,7.706974e+02
1.046195e+03,7.697142e+02
1.047159e+03,7.695129e+02
1.048123e+03,7.688910e+02
1.049088e+03,7.663995e+02
1.050052e+03,7.617152e+02
1.051016e+03,7.597579e+02
1.051980e+03,7.637684e+02
1.052945e+03,7.669631e+02
1.053909e+03,7.651961e+02
1.054873e+03,7.598075e+02
1.055837e+03,7.572194e+02
1.056802e+03,7.620013e+02
1.057766e+03,7.649354e+02
1.058730e+03,7.634286e+02
1.059694e+03,7.597253e+02
1.060658e+03,7.563434e+02
1.061623e+03,7.530341e+02
1.062587e+03,7.513476e+02
1.063551e+03,7.523498e+02
1.064515e+03,7.544162e+02
1.065479e+03,7.571406e+02
1.066444e+03,7.608179e+02
1.067408e+03,7.615240e+02
1.068372e+03,7.546927e+02
1.069336e+03,7.487542e+02
1.070301e+03,7.479812e+02
1.071265e+03,7.507692e+02
1.072229e+03,7.523046e+02
1.073193e+03,7.497881e+02
1.074158e+03,7.482708e+02
1.075122e+03,7.512428e+02
1.076086e+03,7.549627e+02
1.077050e+03,7.545569e+02
1.078015e+03,7.466627e+02
1.078979e+03,7.421033e+02
1.079943e+03,7.451212e+02
1.080907e+03,7.503567e+02
1.081872e+03,7.541042e+02
1.082836e+03,7.558145e+02
1.083800e+03,7.572255e+02
1.084764e+03,7.587466e+02
1.085729e+03,7.604078e+02
1.086693e+03,7.619752e+02
1.087657e+03,7.635328e+02
1.088621e+03,7.654764e+02
1.089585e+03,7.695158e+02
1.090550e+03,7.715833e+02
1.091514e+03,7.703943e+02
1.092478e+03,7.674993e+02
1.093442e+03,7.641530e+02
1.094406e+03,7.600303e+02
1.095371e+03,7.572219e+02
1.096335e+03,7.565180e+02
1.097299e+03,7.566304e+02
1.098263e+03,7.570064e+02
1.099228e+03,7.574771e+02
1.100192e+03,7.576025e+02
1.101156e+03,7.574838e+02
1.102120e+03,7.566710e+02
1.103085e+03,7.552721e+02
1.104049e+03,7.531097e+02
1.105013e+03,7.498354e+02
1.105977e+03,7.422904e+02
1.106942e+03,7.378157e+02
1.107906e+03,7.395496e+02
1.108870e+03,7.436390e+02
1.109834e+03,7.469634e+02
1.110799e+03,7.495852e+02
1.111763e+03,7.502790e+02
1.112727e+03,7.461155e+02
1.113691e+03,7.428715e+02
1.114656e+03,7.443730e+02
1.115620e+03,7.498151e+02
1.116584e+03,7.529195e+02
1.117548e+03,7.513223e+02
1.118512e+03,7.490671e+02
1.119477e+03,7.461835e+02
1.120441e+03,7.435482e+02
1.121405e+03,7.426221e+02
1.122369e+03,7.462473e+02
1.123334e+03,7.472980e+02
1.124298e+03,7.434996e+02
1.125262e+03,7.393796e+02
1.126226e+03,7.387298e+02
1.127191e+03,7.423367e+02
1.128155e+03,7.426038e+02
1.129119e+03,7.353494e+02
1.130083e+03,7.302297e+02
1.131047e+03,7.325342e+02
1.132012e+03,7.392092e+02
1.132976e+03,7.404364e+02
1.133940e+03,7.321611e+02
1.134904e+03,7.266395e+02
1.135869e+03,7.271638e+02
1.136833e+03,7.298571e+02
1.137797e+03,7.302373e+02
1.138761e+03,7.276699e+02
1.139726e+03,7.260732e+02
1.140690e+03,7.253448e+02
1.141654e+03,7.254748e+02
1.142618e+03,7.263259e+02
1.143583e+03,7.280060e+02
1.144547e+03,7.317168e+02
1.145511e+03,7.387740e+02
1.146475e+03,7.424230e+02
1.147439e+03,7.398438e+02
1.148404e+03,7.342811e+02
1.149368e+03,7.311332e+02
1.150332e+03,7.304962e+02
1.151296e+03,7.308552e+02
1.152261e+03,7.322189e+02
1.153225e+03,7.318890e+02
1.154189e+03,7.272096e+02
1.155153e+03,7.192108e+02
1.156118e+03,7.142243e+02
1.157082e+03,7.125214e+02
1.158046e+03,7.123814e+02
1.159010e+03,7.126530e+02
1.159974e+03,7.140219e+02
1.160939e+03,7.195289e+02
1.161903e+03,7.279909e+02
1.162867e+03,7.323365e+02
1.163831e+03,7.310008e+02
1.164796e+03,7.267386e+02
1.165760e+03,7.216752e+02
1.166724e+03,7.164446e+02
1.167688e+03,7.115592e+02
1.168653e+03,7.074680e+02
1.169617e+03,7.069299e+02
1.170581e+03,7.148327e+02
1.171545e+03,7.235831e+02
1.172510e+03,7.195453e+02
1.173474e+03,7.078593e+02
1.174438e+03,7.000605e+02
1.175402e+03,6.997188e+02
1.176366e+03,7.025793e+02
1.177331e+03,7.066622e+02
1.178295e+03,7.109417e+02
1.179259e+03,7.143649e+02
1.180223e+03,7.165430e+02
1.181188e+03,7.169847e+02
1.182152e+03,7.143865e+02
1.183116e+03,7.110188e+02
1.184080e+03,7.078653e+02
1.185045e+03,7.055356e+02
1.186009e+03,7.050491e+02
1.186973e+03,7.083474e+02
1.187937e+03,7.104120e+02
1.188901e+03,7.076582e+02
1.189866e+03,7.038093e+02
1.190830e+03,7.015756e+02
1.191794e+03,7.011420e+02
1.192758e+03,7.018330e+02
1.193723e+03,7.057195e+02
1.194687e+03,7.089012e+02
1.195651e+03,7.094459e+02
1.196615e+03,7.080200e+02
1.197580e+03,7.064147e+02
1.198544e+03,7.045469e+02
1.199508e+03,7.015970e+02
1.200472e+03,6.962537e+02
1.201437e+03,6.918294e+02
1.202401e+03,6.916842e+02
1.203365e+03,6.967836e+02
1.204329e+03,6.998506e+02
1.205293e+03,7.003321e+02
1.206258e+03,6.998154e+02
1.207222e+03,6.985699e+02
1.208186e+03,6.969298e+02
1.209150e+03,6.963135e+02
1.210115e+03,6.966715e+02
1.211079e+03,6.963820e+02
1.212043e+03,6.951820e+02
1.213007e+03,6.934815e+02
1.213972e+03,6.917295e+02
1.214936e+03,6.902015e+02
1.215900e+03,6.897453e+02
1.216864e+03,6.903103e+02
1.217828e+03,6.904578e+02
1.218793e+03,6.891351e+02
1.219757e+03,6.873069e+02
1.220721e+03,6.864085e+02
1.221685e+03,6.863878e+02
1.222650e+03,6.872138e+02
1.223614e+03,6.887412e+02
1.224578e+03,6.891635e+02
1.225542e+03,6.856258e+02
1.226507e+03,6.814376e+02
1.227471e+03,6.803609e+02
1.228435e+03,6.820445e+02
1.229399e+03,6.843582e+02
1.230364e+03,6.886926e+02
1.231328e+03,6.910920e+02
1.232292e+03,6.884907e+02
1.233256e+03,6.836748e+02
1.234220e+03,6.796424e+02
1.235185e+03,6.769715e+02
1.236149e+03,6.756559e+02
1.237113e+03,6.756703e+02
1.238077e+03,6.772330e+02
1.239042e+03,6.812745e+02
1.240006e+03,6.868924e+02
1.240970e+03,6.892035e+02
1.241934e+03,6.857947e+02
1.242899e+03,6.834381e+02
1.243863e+03,6.846320e+02
1.244827e+03,6.865085e+02
1.245791e+03,6.845494e+02
1.246755e+03,6.776039e+02
1.247720e+03,6.737774e+02
1.248684e+03,6.737040e+02
1.249648e+03,6.748369e+02
1.250612e+03,6.756740e+02
1.251577e+03,6.761818e+02
1.252541e+03,6.763895e+02
1.253505e+03,6.763026e+02
1.254469e+03,6.767261e+02
1.255434e+03,6.781115e+02
1.256398e+03,6.793992e+02
1.257362e+03,6.782883e+02
1.258326e+03,6.762552e+02
1.259291e+03,6.764713e+02
1.260255e+03,6.787606e+02
1.261219e+03,6.811362e+02
1.262183e+03,6.842363e+02
1.263147e+03,6.859301e+02
1.264112e+03,6.830768e+02
1.265076e+03,6.781884e+02
1.266040e+03,6.747334e+02
1.267004e+03,6.736823e+02
1.267969e+03,6.738276e+02
1.268933e+03,6.753151e+02
1.269897e+03,6.780154e+02
1.270861e+03,6.818514e+02
1.271826e+03,6.861202e+02
1.272790e+03,6.894716e+02
1.273754e+03,6.936723e+02
1.274718e+03,6.938789e+02
1.275682e+03,6.868874e+02
1.276647e+03,6.789297e+02
1.277611e+03,6.785693e+02
1.278575e+03,6.871912e+02
1.279539e+03,6.912719e+02
1.280504e+03,6.904775e+02
1.281468e+03,6.893450e+02
1.282432e+03,6.900714e+02
1.283396e+03,6.923932e+02
1.284361e+03,6.963183e+02
1.285325e+03,7.012215e+02
1.286289e+03,7.052807e+02
1.287253e+03,7.080057e+02
1.288218e+03,7.095400e+02
1.289182e+03,7.093768e+02
1.290146e+03,7.087427e+02
1.291110e+03,7.099377e+02
1.292074e+03,7.122906e+02
1.293039e+03,7.128353e+02
1.294003e+03,7.077110e+02
1.294967e+03,7.031960e+02
1.295931e+03,7.033200e+02
1.296896e+03,7.050099e+02
1.297860e+03,7.044538e+02
1.298824e+03,7.000438e+02
1.299788e+03,6.981175e+02
1.300753e+03,7.006859e+02
1.301717e+03,7.029747e+02
1.302681e+03,7.028020e+02
1.303645e+03,7.012540e+02
1.304609e+03,7.013168e+02
1.305574e+03,7.027313e+02
1.306538e+03,7.059866e+02
1.307502e+03,7.117776e+02
1.308466e+03,7.180983e+02
1.309431e+03,7.231528e+02
1.310395e+03,7.269471e+02
1.311359e+03,7.284023e+02
1.312323e+03,7.279302e+02
1.313288e+03,7.290474e+02
1.314252e+03,7.344928e+02
1.315216e+03,7.401335e+02
1.316180e+03,7.416971e+02
1.317145e+03,7.409417e+02
1.318109e+03,7.392592e+02
1.319073e+03,7.367075e+02
1.320037e+03,7.345280e+02
1.321001e+03,7.347935e+02
1.321966e+03,7.338458e+02
1.322930e+03,7.287099e+02
1.323894e+03,7.223223e+02
1.324858e+03,7.197359e+02
1.325823e+03,7.243904e+02
1.326787e+03,7.243527e+02
1.327751e+03,7.171888e+02
1.328715e+03,7.100317e+02
1.329680e+03,7.079910e+02
1.330644e+03,7.097126e+02
1.331608e+03,7.091407e+02
1.332572e+03,7.063333e+02
1.333536e+03,7.024989e+02
1.334501e+03,6.976346e+02
1.335465e+03,6.936194e+02
1.336429e+03,6.942219e+02
1.337393e+03,6.965475e+02
1.338358e+03,6.953549e+02
1.339322e+03,6.913729e+02
1.340286e+03,6.889576e+02
1.341250e+03,6.934769e+02
1.342215e+03,6.960947e+02
1.343179e+03,6.903083e+02
1.344143e+03,6.828654e+02
1.345107e+03,6.811097e+02
1.346072e+03,6.870638e+02
1.347036e+03,6.911297e+02
1.348000e+03,6.931612e+02
1.348964e+03,6.930129e+02
1.349928e+03,6.903940e+02
1.350893e+03,6.863602e+02
1.351857e+03,6.821933e+02
1.352821e+03,6.778467e+02
1.353785e+03,6.764875e+02
1.354750e+03,6.784401e+02
1.355714e+03,6.812330e+02
1.356678e+03,6.835811e+02
1.357642e+03,6.855945e+02
1.358607e+03,6.863040e+02
1.359571e+03,6.864968e+02
1.360535e+03,6.885469e+02
1.361499e+03,6.946868e+02
1.362464e+03,6.986600e+02
1.363428e+03,6.965706e+02
1.364392e+03,6.924269e+02
1.365356e+03,6.878856e+02
1.366320e+03,6.829863e+02
1.367285e+03,6.797242e+02
1.368249e+03,6.794581e+02
1.369213e+03,6.782349e+02
1.370177e+03,6.749278e+02
1.371142e+03,6.713644e+02
1.372106e+03,6.703977e+02
1.373070e+03,6.714146e+02
1.374034e+03,6.692568e+02
1.374999e+03,6.643947e+02
1.375963e+03,6.599500e+02
1.376927e+03,6.570426e+02
1.377891e+03,6.559996e+02
1.378855e+03,6.588900e+02
1.379820e+03,6.627373e+02
1.380784e+03,6.635710e+02
1.381748e+03,6.610256e+02
1.382712e+03,6.584689e+02
1.383677e+03,6.567553e+02
1.384641e+03,6.546729e+02
1.385605e+03,6.516653e+02
1.386569e+03,6.480750e+02
1.387534e+03,6.443199e+02
1.388498e+03,6.401830e+02
1.389462e+03,6.373828e+02
1.390426e+03,6.357557e+02
1.391391e+03,6.359930e+02
1.392355e+03,6.395911e+02
1.393319e+03,6.444457e+02
1.394283e+03,6.461614e+02
1.395247e+03,6.454642e+02
1.396212e+03,6.439850e+02
1.397176e+03,6.420830e+02
1.398140e+03,6.402885e+02
1.399104e+03,6.390035e+02
1.400069e+03,6.375642e+02
1.401033e+03,6.350224e+02
1.401997e+03,6.321097e+02
1.402961e+03,6.309157e+02
1.403926e+03,6.325842e+02
1.404890e+03,6.332933e+02
1.405854e+03,6.327828e+02
1.406818e+03,6.318237e+02
1.407782e+03,6.306111e+02
1.408747e+03,6.297543e+02
1.409711e+03,6.317181e+02
1.410675e+03,6.353337e+02
1.411639e+03,6.366639e+02
1.412604e+03,6.344474e+02
1.413568e+03,6.317576e+02
1.414532e+03,6.312709e+02
1.415496e+03,6.316907e+02
1.416461e+03,6.313429e+02
1.417425e+03,6.304315e+02
1.418389e+03,6.307019e+02
1.419353e+03,6.343519e+02
1.420318e+03,6.362145e+02
1.421282e+03,6.351037e+02
1.422246e+03,6.341362e+02
1.423210e+03,6.363041e+02
1.424174e+03,6.409135e+02
1.425139e+03,6.423961e+02
1.426103e+03,6.408368e+02
1.427067e+03,6.381920e+02
1.428031e+03,6.349299e+02
1.428996e+03,6.322957e+02
1.429960e+03,6.315247e+02
1.430924e+03,6.317314e+02
1.431888e+03,6.323621e+02
1.432853e+03,6.332479e+02
1.433817e+03,6.338387e+02
1.434781e+03,6.339288e+02
1.435745e+03,6.341328e+02
1.436709e+03,6.342794e+02
1.437674e+03,6.343014e+02
1.438638e+03,6.344759e+02
1.439602e+03,6.349197e+02
1.440566e+03,6.347183e+02
1.441531e+03,6.338994e+02
1.442495e+03,6.336922e+02
1.443459e+03,6.347073e+02
1.444423e+03,6.351056e+02
1.445388e+03,6.315771e+02
1.446352e+03,6.273459e+02
1.447316e+03,6.267675e+02
1.448280e+03,6.295166e+02
1.449245e+03,6.305922e+02
1.450209e+03,6.265297e+02
1.451173e+03,6.242256e+02
1.452137e+03,6.244557e+02
1.453101e+03,6.258105e+02
1.454066e+03,6.276456e+02
1.455030e+03,6.297687e+02
1.455994e+03,6.301045e+02
1.456958e+03,6.289064e+02
1.457923e+03,6.280394e+02
1.458887e+03,6.281504e+02
1.459851e+03,6.281406e+02
1.460815e+03,6.266520e+02
1.461780e+03,6.247379e+02
1.462744e+03,6.235164e+02
1.463708e+03,6.232076e+02
1.464672e+03,6.237670e+02
1.465636e+03,6.262774e+02
1.466601e+03,6.279156e+02
1.467565e+03,6.281913e+02
1.468529e+03,6.278633e+02
1.469493e+03,6.273633e+02
1.470458e+03,6.265897e+02
1.471422e+03,6.257114e+02
1.472386e+03,6.249054e+02
1.473350e+03,6.243035e+02
1.474315e+03,6.236972e+02
1.475279e+03,6.237228e+02
1.476243e+03,6.263519e+02
1.477207e+03,6.281689e+02
1.478172e+03,6.257318e+02
1.479136e+03,6.204011e+02
1.480100e+03,6.185615e+02
1.481064e+03,6.219288e+02
1.482028e+03,6.217986e+02
1.482993e+03,6.166717e+02
1.483957e+03,6.110082e+02
1.484921e+03,6.083877e+02
1.485885e+03,6.079871e+02
1.486850e+03,6.084815e+02
1.487814e+03,6.096988e+02
1.488778e+03,6.122452e+02
1.489742e+03,6.176686e+02
1.490707e+03,6.194959e+02
1.491671e+03,6.114651e+02
1.492635e+03,6.048405e+02
1.493599e+03,6.048239e+02
1.494563e+03,6.090049e+02
1.495528e+03,6.119865e+02
1.496492e+03,6.136396e+02
1.497456e+03,6.124252e+02
1.498420e+03,6.084875e+02
1.499385e+03,6.056435e+02
1.500349e+03,6.080477e+02
1.501313e+03,6.116267e+02
1.502277e+03,6.130565e+02
1.503242e+03,6.129776e+02
1.504206e+03,6.121647e+02
1.505170e+03,6.101103e+02
1.506134e+03,6.096022e+02
1.507099e+03,6.118348e+02
1.508063e+03,6.123433e+02
1.509027e+03,6.090244e+02
1.509991e+03,6.041072e+02
1.510955e+03,6.012666e+02
1.511920e+03,5.998560e+02
1.512884e+03,5.985254e+02
1.513848e+03,5.974333e+02
1.514812e+03,5.971090e+02
1.515777e+03,5.982720e+02
1.516741e+03,5.987777e+02
1.517705e+03,5.970739e+02
1.518669e+03,5.949686e+02
1.519634e+03,5.937984e+02
1.520598e+03,5.935101e+02
1.521562e+03,5.957715e+02
1.522526e+03,6.001664e+02
1.523490e+03,6.027106e+02
1.524455e+03,6.020847e+02
1.525419e+03,5.996917e+02
1.526383e+03,5.962131e+02
1.527347e+03,5.921564e+02
1.528312e+03,5.872538e+02
1.529276e+03,5.825068e+02
1.530240e+03,5.809490e+02
1.531204e+03,5.840550e+02
1.532169e+03,5.854534e+02
1.533133e+03,5.843277e+02
1.534097e+03,5.831536e+02
1.535061e+03,5.843351e+02
1.536026e+03,5.860266e+02
1.536990e+03,5.845557e+02
1.537954e+03,5.813289e+02
1.538918e+03,5.786737e+02
1.539882e+03,5.769614e+02
1.540847e+03,5.765839e+02
1.541811e+03,5.782379e+02
1.542775e+03,5.802885e+02
1.543739e+03,5.830245e+02
1.544704e+03,5.854581e+02
1.545668e+03,5.853842e+02
1.546632e+03,5.834510e+02
1.547596e+03,5.827508e+02
1.548561e+03,5.830764e+02
1.549525e+03,5.821454e+02
1.550489e+03,5.763596e+02
1.551453e+03,5.720021e+02
1.552417e+03,5.735476e+02
1.553382e+03,5.764114e+02
1.554346e+03,5.766768e+02
1.555310e+03,5.749226e+02
1.556274e+03,5.759951e+02
1.557239e+03,5.797199e+02
1.558203e+03,5.804951e+02
1.559167e+03,5.768340e+02
1.560131e+03,5.726340e+02
1.561096e+03,5.705612e+02
1.562060e+03,5.702648e+02
1.563024e+03,5.723673e+02
1.563988e+03,5.757935e+02
1.564953e+03,5.782327e+02
1.565917e+03,5.797771e+02
1.566881e+03,5.790608e+02
1.567845e+03,5.754617e+02
1.568809e+03,5.734512e+02
1.569774e+03,5.766241e+02
1.570738e+03,5.804492e+02
1.571702e+03,5.772386e+02
1.572666e+03,5.717501e+02
1.573631e+03,5.711470e+02
1.574595e+03,5.762696e+02
1.575559e+03,5.775770e+02
1.576523e+03,5.719299e+02
1.577488e+03,5.686709e+02
1.578452e+03,5.693206e+02
1.579416e+03,5.719042e+02
1.580380e+03,5.758527e+02
1.581344e+03,5.796915e+02
1.582309e+03,5.799466e+02
1.583273e+03,5.779453e+02
1.584237e+03,5.768161e+02
1.585201e+03,5.781679e+02
1.586166e+03,5.785805e+02
1.587130e+03,5.774601e+02
1.588094e+03,5.752190e+02
1.589058e+03,5.715325e+02
1.590023e+03,5.681344e+02
1.590987e+03,5.697073e+02
1.591951e+03,5.739134e+02
1.592915e+03,5.736113e+02
1.593880e+03,5.686096e+02
1.594844e+03,5.658477e+02
1.595808e+03,5.712957e+02
1.596772e+03,5.751638e+02
1.597736e+03,5.752428e+02
1.598701e+03,5.741251e+02
1.599665e+03,5.740488e+02
1.600629e+03,5.745095e+02
1.601593e+03,5.730324e+02
1.602558e+03,5.702850e+02
1.603522e+03,5.683591e+02
1.604486e+03,5.679160e+02
1.605450e+03,5.677181e+02
1.606415e+03,5.675567e+02
1.607379e+03,5.676662e+02
1.608343e+03,5.682819e+02
1.609307e+03,5.687802e+02
1.610271e+03,5.676617e+02
1.611236e+03,5.654219e+02
1.612200e+03,5.649443e+02
1.613164e+03,5.662468e+02
1.614128e+03,5.675250e+02
1.615093e+03,5.678966e+02
1.616057e+03,5.677270e+02
1.617021e+03,5.657855e+02
1.617985e+03,5.645548e+02
1.618950e+03,5.664258e+02
1.619914e+03,5.700774e+02
1.620878e+03,5.700562e+02
1.621842e+03,5.671191e+02
1.622807e+03,5.634305e+02
1.623771e+03,5.595355e+02
1.624735e+03,5.569449e+02
1.625699e+03,5.564031e+02
1.626663e+03,5.569960e+02
1.627628e+03,5.583210e+02
1.628592e+03,5.601223e+02
1.629556e+03,5.636215e+02
1.630520e+03,5.681698e+02
1.631485e+03,5.664255e+02
1.632449e+03,5.600580e+02
1.633413e+03,5.568346e+02
1.634377e+03,5.615840e+02
1.635342e+03,5.653044e+02
1.636306e+03,5.638171e+02
1.637270e+03,5.612542e+02
1.638234e+03,5.589778e+02
1.639198e+03,5.573163e+02
1.640163e+03,5.572994e+02
1.641127e+03,5.583855e+02
1.642091e+03,5.579540e+02
1.643055e+03,5.558009e+02
1.644020e+03,5.544305e+02
1.644984e+03,5.554403e+02
1.645948e+03,5.564895e+02
1.646912e+03,5.573909e+02
1.647877e+03,5.579684e+02
1.648841e+03,5.578049e+02
1.649805e+03,5.574408e+02
1.650769e+03,5.593174e+02
1.651734e+03,5.620827e+02
1.652698e+03,5.624940e+02
1.653662e+03,5.593995e+02
1.654626e+03,5.548906e+02
1.655590e+03,5.458570e+02
1.656555e+03,5.424982e+02
1.657519e+03,5.494736e+02
1.658483e+03,5.596198e+02
1.659447e+03,5.631342e+02
1.660412e+03,5.617531e+02
1.661376e+03,5.575516e+02
1.662340e+03,5.521285e+02
1.663304e+03,5.491939e+02
1.664269e+03,5.529283e+02
1.665233e+03,5.527545e+02
1.666197e+03,5.470997e+02
1.667161e+03,5.418815e+02
1.668125e+03,5.404339e+02
1.669090e+03,5.412440e+02
1.670054e+03,5.442722e+02
1.671018e+03,5.467736e+02
1.671982e+03,5.435028e+02
1.672947e+03,5.347540e+02
1.673911e+03,5.319432e+02
1.674875e+03,5.367499e+02
1.675839e+03,5.410887e+02
1.676804e+03,5.442263e+02
1.677768e+03,5.455599e+02
1.678732e+03,5.431388e+02
1.679696e+03,5.395382e+02
1.680661e+03,5.358239e+02
1.681625e+03,5.330295e+02
1.682589e+03,5.339240e+02
1.683553e+03,5.389616e+02
1.684517e+03,5.374944e+02
1.685482e+03,5.297459e+02
1.686446e+03,5.256276e+02
1.687410e+03,5.288838e+02
1.688374e+03,5.317651e+02
1.689339e+03,5.258804e+02
1.690303e+03,5.205257e+02
1.691267e+03,5.225073e+02
1.692231e+03,5.277455e+02
1.693196e+03,5.294365e+02
1.694160e+03,5.277820e+02
1.695124e+03,5.241721e+02
1.696088e+03,5.196224e+02
1.697052e+03,5.182973e+02
1.698017e+03,5.242515e+02
1.698981e+03,5.290629e+02
1.699945e+03,5.306453e+02
1.700909e+03,5.299255e+02
1.701874e+03,5.269770e+02
1.702838e+03,5.236634e+02
1.703802e+03,5.240710e+02
1.704766e+03,5.261106e+02
1.705731e+03,5.266528e+02
1.706695e+03,5.253626e+02
1.707659e+03,5.222413e+02
1.708623e+03,5.155812e+02
1.709588e+03,5.123416e+02
1.710552e+03,5.133479e+02
1.711516e+03,5.164600e+02
1.712480e+03,5.222572e+02
1.713444e+03,5.271423e+02
1.714409e+03,5.263596e+02
1.715373e+03,5.227059e+02
1.716337e+03,5.199960e+02
1.717301e+03,5.185776e+02
1.718266e+03,5.170316e+02
1.719230e+03,5.152245e+02
1.720194e+03,5.125305e+02
1.721158e+03,5.084273e+02
1.722123e+03,5.060220e+02
1.723087e+03,5.091902e+02
1.724051e+03,5.128031e+02
1.725015e+03,5.140209e+02
1.725979e+03,5.146750e+02
1.726944e+03,5.178722e+02
1.727908e+03,5.225462e+02
1.728872e+03,5.239730e+02
1.729836e+03,5.225270e+02
1.730801e+03,5.208300e+02
1.731765e+03,5.204310e+02
1.732729e+03,5.183187e+02
1.733693e+03,5.129993e+02
1.734658e+03,5.097976e+02
1.735622e+03,5.118578e+02
1.736586e+03,5.150764e+02
1.737550e+03,5.125118e+02
1.738515e+03,5.083643e+02
1.739479e+03,5.079220e+02
1.740443e+03,5.109897e+02
1.741407e+03,5.133954e+02
1.742371e+03,5.151075e+02
1.743336e+03,5.165178e+02
1.744300e+03,5.175961e+02
1.745264e+03,5.174852e+02
1.746228e+03,5.150622e+02
1.747193e+03,5.125902e+02
1.748157e+03,5.113083e+02
1.749121e+03,5.108048e+02
1.750085e+03,5.103878e+02
1.751050e+03,5.095989e+02
1.752014e+03,5.077583e+02
1.752978e+03,5.058984e+02
1.753942e+03,5.069082e+02
1.754906e+03,5.112091e+02
1.755871e+03,5.132940e+02
1.756835e+03,5.104473e+02
1.757799e+03,5.093770e+02
1.758763e+03,5.121107e+02
1.759728e+03,5.147929e+02
1.760692e+03,5.131360e+02
1.761656e+03,5.100676e+02
1.762620e+03,5.072691e+02
1.763585e+03,5.053341e+02
1.764549e+03,5.051746e+02
1.765513e+03,5.065193e+02
1.766477e+03,5.072744e+02
1.767442e+03,5.074799e+02
1.768406e+03,5.063040e+02
1.769370e+03,5.032337e+02
1.770334e+03,5.007881e+02
1.771298e+03,5.000011e+02
1.772263e+03,4.997821e+02
1.773227e+03,5.002316e+02
1.774191e+03,5.006716e+02
1.775155e+03,4.997829e+02
1.776120e+03,4.983821e+02
1.777084e+03,4.975480e+02
1.778048e+03,4.974477e+02
1.779012e+03,4.983374e+02
1.779977e+03,5.005563e+02
1.780941e+03,5.027548e+02
1.781905e+03,5.046929e+02
1.782869e+03,5.055442e+02
1.783833e+03,5.046271e+02
1.784798e+03,5.037828e+02
1.785762e+03,5.047602e+02
1.786726e+03,5.051451e+02
1.787690e+03,5.035339e+02
1.788655e+03,5.013014e+02
1.789619e+03,5.011744e+02
1.790583e+03,5.021144e+02
1.791547e+03,5.020551e+02
1.792512e+03,5.009470e+02
1.793476e+03,4.990437e+02
1.794440e+03,4.951855e+02
1.795404e+03,4.943831e+02
1.796369e+03,4.968107e+02
1.797333e+03,4.991706e+02
1.798297e+03,4.999228e+02
1.799261e+03,4.995260e+02
1.800225e+03,4.963377e+02
1.801190e+03,4.939515e+02
1.802154e+03,4.953679e+02
1.803118e+03,4.987794e+02
1.804082e+03,5.002409e+02
1.805047e+03,5.000670e+02
1.806011e+03,4.978026e+02
1.806975e+03,4.937321e+02
1.807939e+03,4.917549e+02
1.808904e+03,4.932944e+02
1.809868e+03,4.923924e+02
1.810832e+03,4.884962e+02
1.811796e+03,4.845706e+02
1.812760e+03,4.819425e+02
1.813725e+03,4.808822e+02
1.814689e+03,4.820931e+02
1.815653e+03,4.847192e+02
1.816617e+03,4.886280e+02
1.817582e+03,4.930244e+02
1.818546e+03,4.957238e+02
1.819510e+03,4.966189e+02
1.820474e+03,4.952679e+02
1.821439e+03,4.916829e+02
1.822403e+03,4.875912e+02
1.823367e+03,4.825455e+02
1.824331e+03,4.805490e+02
1.825296e+03,4.821922e+02
1.826260e+03,4.841226e+02
1.827224e+03,4.843317e+02
1.828188e+03,4.841545e+02
1.829152e+03,4.839028e+02
1.830117e+03,4.834194e+02
1.831081e+03,4.830331e+02
1.832045e+03,4.818947e+02
1.833009e+03,4.762428e+02
1.833974e+03,4.693824e+02
1.834938e+03,4.680539e+02
1.835902e+03,4.741272e+02
1.836866e+03,4.721479e+02
1.837831e+03,4.610457e+02
1.838795e+03,4.585399e+02
1.839759e+03,4.689801e+02
1.840723e+03,4.779065e+02
1.841688e+03,4.712187e+02
1.842652e+03,4.662924e+02
1.843616e+03,4.701589e+02
1.844580e+03,4.750880e+02
1.845544e+03,4.719334e+02
1.846509e+03,4.657371e+02
1.847473e+03,4.664299e+02
1.848437e+03,4.703330e+02
1.849401e+03,4.702641e+02
1.850366e+03,4.660435e+02
1.851330e+03,4.624445e+02
1.852294e+03,4.597156e+02
1.853258e+03,4.589336e+02
1.854223e+03,4.604689e+02
1.855187e+03,4.626345e+02
1.856151e+03,4.661328e+02
1.857115e+03,4.670331e+02
1.858079e+03,4.639262e+02
1.859044e+03,4.599802e+02
1.860008e+03,4.588185e+02
1.860972e+03,4.586568e+02
1.861936e+03,4.572005e+02
1.862901e+03,4.559333e+02
1.863865e+03,4.568655e+02
1.864829e+03,4.594007e+02
1.865793e+03,4.626620e+02
1.866758e+03,4.653865e+02
1.867722e+03,4.620345e+02
1.868686e+03,4.488978e+02
1.869650e+03,4.440634e+02
1.870615e+03,4.498503e+02
1.871579e+03,4.558239e+02
1.872543e+03,4.597700e+02
1.873507e+03,4.620239e+02
1.874471e+03,4.609898e+02
1.875436e+03,4.597048e+02
1.876400e+03,4.606968e+02
1.877364e+03,4.610031e+02
1.878328e+03,4.553537e+02
1.879293e+03,4.476949e+02
1.880257e+03,4.457964e+02
1.881221e+03,4.475880e+02
1.882185e+03,4.489370e+02
1.883150e+03,4.495791e+02
1.884114e+03,4.522980e+02
1.885078e+03,4.563808e+02
1.886042e+03,4.570362e+02
1.887006e+03,4.521943e+02
1.887971e+03,4.496273e+02
1.888935e+03,4.534096e+02
1.889899e+03,4.562863e+02
1.890863e+03,4.563648e+02
1.891828e+03,4.550820e+02
1.892792e+03,4.537870e+02
1.893756e+03,4.522855e+02
1.894720e+03,4.506474e+02
1.895685e+03,4.492639e+02
1.896649e+03,4.477801e+02
1.897613e+03,4.464097e+02
1.898577e+03,4.473446e+02
1.899542e+03,4.493023e+02
1.900506e+03,4.489432e+02
1.901470e+03,4.453851e+02
1.902434e+03,4.440444e+02
1.903398e+03,4.448538e+02
1.904363e+03,4.455080e+02
1.905327e+03,4.453651e+02
1.906291e+03,4.466022e+02
1.907255e+03,4.534382e+02
1.908220e+03,4.552911e+02
1.909184e+03,4.490120e+02
1.910148e+03,4.426313e+02
1.911112e+03,4.465794e+02
1.912077e+03,4.517904e+02
1.913041e+03,4.500650e+02
1.914005e+03,4.455094e+02
1.914969e+03,4.413686e+02
1.915933e+03,4.384928e+02
1.916898e+03,4.418117e+02
1.917862e+03,4.481264e+02
1.918826e+03,4.503067e+02
1.919790e+03,4.471804e+02
1.920755e+03,4.454139e+02
1.921719e+03,4.447089e+02
1.922683e+03,4.443272e+02
1.923647e+03,4.442993e+02
1.924612e+03,4.435433e+02
1.925576e+03,4.403760e+02
1.926540e+03,4.384095e+02
1.927504e+03,4.379122e+02
1.928469e+03,4.383471e+02
1.929433e+03,4.398077e+02
1.930397e+03,4.412462e+02
1.931361e+03,4.418753e+02
1.932325e+03,4.421980e+02
1.933290e+03,4.429699e+02
1.934254e+03,4.440001e+02
1.935218e+03,4.432488e+02
1.936182e+03,4.418351e+02
1.937147e+03,4.431844e+02
1.938111e+03,4.468537e+02
1.939075e+03,4.455045e+02
1.940039e+03,4.404100e+02
1.941004e+03,4.389565e+02
1.941968e+03,4.417261e+02
1.942932e+03,4.431906e+02
1.943896e+03,4.413351e+02
1.944860e+03,4.404890e+02
1.945825e+03,4.413156e+02
1.946789e+03,4.419201e+02
1.947753e+03,4.408697e+02
1.948717e+03,4.388833e+02
1.949682e+03,4.355391e+02
1.950646e+03,4.324698e+02
1.951610e+03,4.302028e+02
1.952574e+03,4.295839e+02
1.953539e+03,4.345856e+02
1.954503e+03,4.393604e+02
1.955467e+03,4.360891e+02
1.956431e+03,4.293124e+02
1.957396e+03,4.330143e+02
1.958360e+03,4.419890e+02
1.959324e+03,4.423523e+02
1.960288e+03,4.350555e+02
1.961252e+03,4.339415e+02
1.962217e+03,4.404632e+02
1.963181e+03,4.375835e+02
1.964145e+03,4.257072e+02
1.965109e+03,4.168477e+02
1.966074e+03,4.171786e+02
1.967038e+03,4.215703e+02
1.968002e+03,4.298962e+02
1.968966e+03,4.367890e+02
1.969931e+03,4.403041e+02
1.970895e+03,4.402128e+02
1.971859e+03,4.340319e+02
1.972823e+03,4.278676e+02
1.973787e+03,4.237569e+02
1.974752e+03,4.216956e+02
1.975716e+03,4.238424e+02
1.976680e+03,4.263583e+02
1.977644e+03,4.244623e+02
1.978609e+03,4.207837e+02
1.979573e+03,4.190031e+02
1.980537e+03,4.188642e+02
1.981501e+03,4.211574e+02
1.982466e+03,4.245302e+02
1.983430e+03,4.243224e+02
1.984394e+03,4.195922e+02
1.985358e+03,4.191573e+02
1.986323e+03,4.221422e+02
1.987287e+03,4.235009e+02
1.988251e+03,4.214667e+02
1.989215e+03,4.187545e+02
1.990179e+03,4.155395e+02
1.991144e+03,4.139538e+02
1.992108e+03,4.148395e+02
1.993072e+03,4.154526e+02
1.994036e+03,4.129500e+02
1.995001e+03,4.106571e+02
1.995965e+03,4.093821e+02
1.996929e+03,4.090006e+02
1.997893e+03,4.103800e+02
1.998858e+03,4.109778e+02
1.999822e+03,4.072862e+02
2.000786e+03,4.029093e+02
2.001750e+03,4.011187e+02
2.002714e+03,4.014672e+02
2.003679e+03,4.034594e+02
2.004643e+03,4.054453e+02
2.005607e+03,4.040756e+02
2.006571e+03,4.008109e+02
2.007536e+03,4.021570e+02
2.008500e+03,4.063942e+02
2.009464e+03,4.081698e+02
2.010428e+03,4.069102e+02
2.011393e+03,4.037556e+02
2.012357e+03,3.985609e+02
2.013321e+03,3.968100e+02
2.014285e+03,3.983773e+02
2.015250e+03,3.998882e+02
2.016214e+03,3.993311e+02
2.017178e+03,3.997218e+02
2.018142e+03,4.014329e+02
2.019106e+03,4.023948e+02
2.020071e+03,4.011374e+02
2.021035e+03,3.996517e+02
2.021999e+03,3.984311e+02
2.022963e+03,3.980469e+02
2.023928e+03,3.993497e+02
2.024892e+03,4.002394e+02
2.025856e+03,3.975127e+02
2.026820e+03,3.941899e+02
2.027785e+03,3.914356e+02
2.028749e+03,3.902984e+02
2.029713e+03,3.944312e+02
2.030677e+03,3.996932e+02
2.031641e+03,4.000407e+02
2.032606e+03,3.973102e+02
2.033570e+03,3.945085e+02
2.034534e+03,3.920120e+02
2.035498e+03,3.927408e+02
2.036463e+03,3.951177e+02
2.037427e+03,3.953130e+02
2.038391e+03,3.933554e+02
2.039355e+03,3.893432e+02
2.040320e+03,3.843219e+02
2.041284e+03,3.830327e+02
2.042248e+03,3.865445e+02
2.043212e+03,3.881804e+02
2.044177e+03,3.875461e+02
2.045141e+03,3.863451e+02
2.046105e+03,3.847839e+02
2.047069e+03,3.839252e+02
2.048033e+03,3.839187e+02
2.048998e+03,3.853686e+02
2.049962e+03,3.885999e+02
2.050926e+03,3.914172e+02
2.051890e+03,3.929304e+02
2.052854e+03,3.924030e+02
2.053819e+03,3.883534e+02
2.054783e+03,3.857220e+02
2.055747e+03,3.883108e+02
2.056711e+03,3.913767e+02
2.057676e+03,3.896540e+02
2.058640e+03,3.876003e+02
2.059604e+03,3.874405e+02
2.060568e+03,3.876672e+02
2.061533e+03,3.860548e+02
2.062497e+03,3.841198e+02
2.063461e+03,3.827872e+02
2.064425e+03,3.826850e+02
2.065390e+03,3.867283e+02
2.066354e+03,3.913663e+02
2.067318e+03,3.881263e+02
2.068282e+03,3.815284e+02
2.069247e+03,3.817883e+02
2.070211e+03,3.870463e+02
2.071175e+03,3.839867e+02
2.072139e+03,3.765059e+02
2.073104e+03,3.742989e+02
2.074068e+03,3.781020e+02
2.075032e+03,3.806629e+02
2.075996e+03,3.817580e+02
2.076960e+03,3.801096e+02
2.077925e+03,3.755667e+02
2.078889e+03,3.761547e+02
2.079853e+03,3.825111e+02
2.080817e+03,3.834773e+02
2.081782e+03,3.781006e+02
2.082746e+03,3.743876e+02
2.083710e+03,3.760012e+02
2.084674e+03,3.787078e+02
2.085639e+03,3.824730e+02
2.086603e+03,3.839549e+02
2.087567e+03,3.779961e+02
2.088531e+03,3.749164e+02
2.089496e+03,3.766107e+02
2.090460e+03,3.766735e+02
2.091424e+03,3.721709e+02
2.092388e+03,3.681456e+02
2.093353e+03,3.675592e+02
2.094317e+03,3.678255e+02
2.095281e+03,3.678047e+02
2.096245e+03,3.684436e+02
2.097209e+03,3.715335e+02
2.098174e+03,3.747294e+02
2.099138e+03,3.775605e+02
2.100102e+03,3.790396e+02
2.101066e+03,3.766836e+02
2.102031e+03,3.739199e+02
2.102995e+03,3.740734e+02
2.103959e+03,3.752560e+02
2.104923e+03,3.765768e+02
2.105887e+03,3.776786e+02
2.106852e+03,3.771601e+02
2.107816e+03,3.753946e+02
2.108780e+03,3.730314e+02
2.109744e+03,3.706178e+02
2.110708e+03,3.700087e+02
2.111673e+03,3.704481e+02
2.112637e+03,3.702432e+02
2.113601e+03,3.695994e+02
2.114565e+03,3.698732e+02
2.115530e+03,3.706776e+02
2.116494e+03,3.711669e+02
2.117458e+03,3.717756e+02
2.118422e+03,3.724466e+02
2.119387e+03,3.729756e+02
2.120351e+03,3.752824e+02
2.121315e+03,3.778321e+02
2.122279e+03,3.752870e+02
2.123244e+03,3.673809e+02
2.124208e+03,3.661464e+02
2.125172e+03,3.696512e+02
2.126136e+03,3.705169e+02
2.127101e+03,3.668013e+02
2.128065e+03,3.659277e+02
2.129029e+03,3.672116e+02
2.129993e+03,3.655730e+02
2.130958e+03,3.596559e+02
2.131922e+03,3.553858e+02
2.132886e+03,3.534346e+02
2.133850e+03,3.525510e+02
2.134814e+03,3.528504e+02
2.135779e+03,3.534026e+02
2.136743e+03,3.533748e+02
2.137707e+03,3.549237e+02
2.138671e+03,3.581093e+02
2.139636e+03,3.594366e+02
2.140600e+03,3.558205e+02
2.141564e+03,3.528058e+02
2.142528e+03,3.507628e+02
2.143493e+03,3.508091e+02
2.144457e+03,3.543394e+02
2.145421e+03,3.547754e+02
2.146385e+03,3.492441e+02
2.147350e+03,3.472924e+02
2.148314e+03,3.522265e+02
2.149278e+03,3.566236e+02
2.150242e+03,3.528058e+02
2.151207e+03,3.523981e+02
2.152171e+03,3.576334e+02
2.153135e+03,3.619823e+02
2.154099e+03,3.608046e+02
2.155063e+03,3.578633e+02
2.156028e+03,3.540746e+02
2.156992e+03,3.504263e+02
2.157956e+03,3.469971e+02
2.158920e+03,3.437967e+02
2.159885e+03,3.399654e+02
2.160849e+03,3.387759e+02
2.161813e+03,3.430020e+02
2.162777e+03,3.473044e+02
2.163741e+03,3.465627e+02
2.164706e+03,3.456961e+02
2.165670e+03,3.473209e+02
2.166634e+03,3.482547e+02
2.167598e+03,3.420016e+02
2.168563e+03,3.379100e+02
2.169527e+03,3.402872e+02
2.170491e+03,3.439431e+02
2.171455e+03,3.445639e+02
2.172420e+03,3.435591e+02
2.173384e+03,3.408134e+02
2.174348e+03,3.390853e+02
2.175312e+03,3.416380e+02
2.176277e+03,3.447071e+02
2.177241e+03,3.447472e+02
2.178205e+03,3.432660e+02
2.179169e+03,3.404642e+02
2.180134e+03,3.387713e+02
2.181098e+03,3.437592e+02
2.182062e+03,3.477312e+02
2.183026e+03,3.444687e+02
2.183990e+03,3.394638e+02
2.184955e+03,3.422181e+02
2.185919e+03,3.455648e+02
2.186883e+03,3.428974e+02
2.187847e+03,3.386222e+02
2.188812e+03,3.384760e+02
2.189776e+03,3.399357e+02
2.190740e+03,3.409382e+02
2.191704e+03,3.408911e+02
2.192668e+03,3.385450e+02
2.193633e+03,3.358403e+02
2.194597e+03,3.356353e+02
2.195561e+03,3.365218e+02
2.196525e+03,3.369632e+02
2.197490e+03,3.374280e+02
2.198454e+03,3.407628e+02
2.199418e+03,3.420345e+02
2.200382e+03,3.357918e+02
2.201347e+03,3.280146e+02
2.202311e+03,3.293388e+02
2.203275e+03,3.339657e+02
2.204239e+03,3.365520e+02
2.205204e+03,3.369958e+02
2.206168e+03,3.353428e+02
2.207132e+03,3.324478e+02
2.208096e+03,3.272852e+02
2.209061e+03,3.229585e+02
2.210025e+03,3.241455e+02
2.210989e+03,3.276271e+02
2.211953e+03,3.288860e+02
2.212917e+03,3.296430e+02
2.213882e+03,3.306775e+02
2.214846e+03,3.316181e+02
2.215810e+03,3.326530e+02
2.216774e+03,3.328174e+02
2.217739e+03,3.319801e+02
2.218703e+03,3.305396e+02
2.219667e+03,3.284546e+02
2.220631e+03,3.265465e+02
2.221595e+03,3.251944e+02
2.222560e+03,3.247010e+02
2.223524e+03,3.267461e+02
2.224488e+03,3.289305e+02
2.225452e+03,3.284688e+02
2.226417e+03,3.267686e+02
2.227381e+03,3.241050e+02
2.228345e+03,3.218839e+02
2.229309e+03,3.216020e+02
2.230274e+03,3.226572e+02
2.231238e+03,3.253393e+02
2.232202e+03,3.279587e+02
2.233166e+03,3.282784e+02
2.234131e+03,3.273190e+02
2.235095e+03,3.251747e+02
2.236059e+03,3.238206e+02
2.237023e+03,3.287995e+02
2.237988e+03,3.322056e+02
2.238952e+03,3.273507e+02
2.239916e+03,3.212247e+02
2.240880e+03,3.246408e+02
2.241844e+03,3.296036e+02
2.242809e+03,3.310748e+02
2.243773e+03,3.294872e+02
2.244737e+03,3.213932e+02
2.245701e+03,3.146158e+02
2.246666e+03,3.173657e+02
2.247630e+03,3.215887e+02
2.248594e+03,3.230217e+02
2.249558e+03,3.228163e+02
2.250522e+03,3.194788e+02
2.251487e+03,3.184710e+02
2.252451e+03,3.233876e+02
2.253415e+03,3.278717e+02
2.254379e+03,3.241378e+02
2.255344e+03,3.207688e+02
2.256308e+03,3.213792e+02
2.257272e+03,3.230003e+02
2.258236e+03,3.238698e+02
2.259201e+03,3.226095e+02
2.260165e+03,3.181589e+02
2.261129e+03,3.146506e+02
2.262093e+03,3.169628e+02
2.263058e+03,3.190004e+02
2.264022e+03,3.192951e+02
2.264986e+03,3.190010e+02
2.265950e+03,3.179604e+02
2.266915e+03,3.176252e+02
2.267879e+03,3.183142e+02
2.268843e+03,3.186705e+02
2.269807e+03,3.183289e+02
2.270771e+03,3.186326e+02
2.271736e+03,3.207917e+02
2.272700e+03,3.212826e+02
2.273664e+03,3.186186e+02
2.274628e+03,3.151302e+02
2.275593e+03,3.103232e+02
2.276557e+03,3.101315e+02
2.277521e+03,3.158248e+02
2.278485e+03,3.209805e+02
2.279449e+03,3.228086e+02
2.280414e+03,3.225571e+02
2.281378e+03,3.202878e+02
2.282342e+03,3.171225e+02
2.283306e+03,3.110735e+02
2.284271e+03,3.103708e+02
2.285235e+03,3.143253e+02
2.286199e+03,3.148376e+02
2.287163e+03,3.080694e+02
2.288128e+03,3.040774e+02
2.289092e+03,3.027108e+02
2.290056e+03,3.041646e+02
2.291020e+03,3.087745e+02
2.291985e+03,3.110972e+02
2.292949e+03,3.113383e+02
2.293913e+03,3.095861e+02
2.294877e+03,3.062474e+02
2.295842e+03,3.054740e+02
2.296806e+03,3.069926e+02
2.297770e+03,3.103951e+02
2.298734e+03,3.142805e+02
2.299698e+03,3.137036e+02
2.300663e+03,3.094745e+02
2.301627e+03,3.071167e+02
2.302591e+03,3.060679e+02
2.303555e+03,3.049578e+02
2.304520e+03,3.038736e+02
2.305484e+03,3.034206e+02
2.306448e+03,3.036154e+02
2.307412e+03,3.050451e+02
2.308376e+03,3.061111e+02
2.309341e+03,3.013835e+02
2.310305e+03,2.951303e+02
2.311269e+03,2.931226e+02
2.312233e+03,2.940735e+02
2.313198e+03,2.970768e+02
2.314162e+03,2.999943e+02
2.315126e+03,3.006435e+02
2.316090e+03,2.998187e+02
2.317055e+03,2.970111e+02
2.318019e+03,2.949382e+02
2.318983e+03,2.966884e+02
2.319947e+03,2.988478e+02
2.320912e+03,2.998923e+02
2.321876e+03,2.995173e+02
2.322840e+03,2.955448e+02
2.323804e+03,2.937140e+02
2.324769e+03,2.982033e+02
2.325733e+03,3.016216e+02
2.326697e+03,2.972296e+02
2.327661e+03,2.930324e+02
2.328625e+03,2.907968e+02
2.329590e+03,2.899110e+02
2.330554e+03,2.913376e+02
2.331518e+03,2.920177e+02
2.332482e+03,2.914704e+02
2.333447e+03,2.898859e+02
2.334411e+03,2.860927e+02
2.335375e+03,2.848200e+02
2.336339e+03,2.862707e+02
2.337303e+03,2.884361e+02
2.338268e+03,2.914414e+02
2.339232e+03,2.907552e+02
2.340196e+03,2.872041e+02
2.341160e+03,2.859778e+02
2.342125e+03,2.886603e+02
2.343089e+03,2.898696e+02
2.344053e+03,2.894526e+02
2.345017e+03,2.878252e+02
2.345982e+03,2.856109e+02
2.346946e+03,2.860025e+02
2.347910e+03,2.885259e+02
2.348874e+03,2.928152e+02
2.349839e+03,2.965000e+02
2.350803e+03,2.922995e+02
2.351767e+03,2.850985e+02
2.352731e+03,2.851173e+02
2.353696e+03,2.888968e+02
2.354660e+03,2.909637e+02
2.355624e+03,2.914582e+02
2.356588e+03,2.903019e+02
2.357552e+03,2.885316e+02
2.358517e+03,2.866063e+02
2.359481e+03,2.851526e+02
2.360445e+03,2.848860e+02
2.361409e+03,2.852920e+02
2.362374e+03,2.864342e+02
2.363338e+03,2.873398e+02
2.364302e+03,2.874952e+02
2.365266e+03,2.877740e+02
2.366230e+03,2.884447e+02
2.367195e+03,2.874009e+02
2.368159e+03,2.802154e+02
2.369123e+03,2.778077e+02
2.370087e+03,2.821091e+02
2.371052e+03,2.861989e+02
2.372016e+03,2.867602e+02
2.372980e+03,2.879083e+02
2.373944e+03,2.895168e+02
2.374909e+03,2.883090e+02
2.375873e+03,2.817606e+02
2.376837e+03,2.813894e+02
2.377801e+03,2.858214e+02
2.378766e+03,2.887777e+02
2.379730e+03,2.893725e+02
2.380694e+03,2.896462e+02
2.381658e+03,2.893726e+02
2.382623e+03,2.865747e+02
2.383587e+03,2.823553e+02
2.384551e+03,2.796489e+02
2.385515e+03,2.785483e+02
2.386479e+03,2.812844e+02
2.387444e+03,2.844237e+02
2.388408e+03,2.815538e+02
2.389372e+03,2.780727e+02
2.390336e+03,2.801471e+02
2.391301e+03,2.829307e+02
2.392265e+03,2.815508e+02
2.393229e+03,2.790559e+02
2.394193e+03,2.767360e+02
2.395157e+03,2.760850e+02
2.396122e+03,2.790612e+02
2.397086e+03,2.823054e+02
2.398050e+03,2.852424e+02
2.399014e+03,2.856702e+02
2.399979e+03,2.819615e+02
2.400943e+03,2.786385e+02
2.401907e+03,2.763017e+02
2.402871e+03,2.763869e+02
2.403836e+03,2.793766e+02
2.404800e+03,2.793714e+02
2.405764e+03,2.762179e+02
2.406728e+03,2.753970e+02
2.407693e+03,2.766865e+02
2.408657e+03,2.756494e+02
2.409621e+03,2.730460e+02
2.410585e+03,2.729201e+02
2.411550e+03,2.740970e+02
2.412514e+03,2.725042e+02
2.413478e+03,2.699289e+02
2.414442e+03,2.718334e+02
2.415406e+03,2.753555e+02
2.416371e+03,2.778463e+02
2.417335e+03,2.786540e+02
2.418299e+03,2.747471e+02
2.419263e+03,2.714312e+02
2.420228e+03,2.714313e+02
2.421192e+03,2.732106e+02
2.422156e+03,2.783369e+02
2.423120e+03,2.791805e+02
2.424084e+03,2.730697e+02
2.425049e+03,2.681935e+02
2.426013e+03,2.700534e+02
2.426977e+03,2.716436e+02
2.427941e+03,2.725498e+02
2.428906e+03,2.737154e+02
2.429870e+03,2.755003e+02
2.430834e+03,2.747364e+02
2.431798e+03,2.720091e+02
2.432763e+03,2.705658e+02
2.433727e+03,2.703364e+02
2.434691e+03,2.670929e+02
2.435655e+03,2.630355e+02
2.436620e+03,2.628885e+02
2.437584e+03,2.654023e+02
2.438548e+03,2.685159e+02
2.439512e+03,2.711605e+02
2.440477e+03,2.722527e+02
2.441441e+03,2.721648e+02
2.442405e+03,2.712272e+02
2.443369e+03,2.702006e+02
2.444333e+03,2.694675e+02
2.445298e+03,2.693110e+02
2.446262e+03,2.709732e+02
2.447226e+03,2.705449e+02
2.448190e+03,2.674154e+02
2.449155e+03,2.661079e+02
2.450119e+03,2.721385e+02
2.451083e+03,2.734203e+02
2.452047e+03,2.702357e+02
2.453011e+03,2.670547e+02
2.453976e+03,2.650189e+02
2.454940e+03,2.632902e+02
2.455904e+03,2.626437e+02
2.456868e+03,2.669495e+02
2.457833e+03,2.729089e+02
2.458797e+03,2.680638e+02
2.459761e+03,2.595683e+02
2.460725e+03,2.570612e+02
2.461690e+03,2.577599e+02
2.462654e+03,2.579449e+02
2.463618e+03,2.593294e+02
2.464582e+03,2.637340e+02
2.465547e+03,2.668276e+02
2.466511e+03,2.632261e+02
2.467475e+03,2.579684e+02
2.468439e+03,2.520640e+02
2.469404e+03,2.495342e+02
2.470368e+03,2.563957e+02
2.471332e+03,2.601325e+02
2.472296e+03,2.603288e+02
2.473260e+03,2.578219e+02
2.474225e+03,2.525739e+02
2.475189e+03,2.526119e+02
2.476153e+03,2.560855e+02
2.477117e+03,2.560009e+02
2.478082e+03,2.537652e+02
2.479046e+03,2.568822e+02
2.480010e+03,2.607906e+02
2.480974e+03,2.589592e+02
2.481938e+03,2.550762e+02
2.482903e+03,2.524995e+02
2.483867e+03,2.523035e+02
2.484831e+03,2.550694e+02
2.485795e+03,2.578751e+02
2.486760e+03,2.593866e+02
2.487724e+03,2.582427e+02
2.488688e+03,2.544074e+02
2.489652e+03,2.521895e+02
2.490617e+03,2.538074e+02
2.491581e+03,2.583309e+02
2.492545e+03,2.647039e+02
2.493509e+03,2.650818e+02
2.494474e+03,2.587752e+02
2.495438e+03,2.543143e+02
2.496402e+03,2.515627e+02
2.497366e+03,2.508824e+02
2.498331e+03,2.511331e+02
2.499295e+03,2.506422e+02
2.500259e+03,2.497253e+02
2.501223e+03,2.487642e+02
2.502188e+03,2.484396e+02
2.503152e+03,2.494145e+02
2.504116e+03,2.517334e+02
2.505080e+03,2.555634e+02
2.506044e+03,2.578204e+02
2.507009e+03,2.545903e+02
2.507973e+03,2.531468e+02
2.508937e+03,2.537716e+02
2.509901e+03,2.543942e+02
2.510865e+03,2.543875e+02
2.511830e+03,2.554814e+02
2.512794e+03,2.570720e+02
2.513758e+03,2.583575e+02
2.514722e+03,2.590867e+02
2.515687e+03,2.580555e+02
2.516651e+03,2.552036e+02
2.517615e+03,2.496462e+02
2.518579e+03,2.453551e+02
2.519544e+03,2.495676e+02
2.520508e+03,2.533269e+02
2.521472e+03,2.534506e+02
2.522436e+03,2.520537e+02
2.523401e+03,2.494608e+02
2.524365e+03,2.474879e+02
2.525329e+03,2.461379e+02
2.526293e+03,2.476004e+02
2.527258e+03,2.528557e+02
2.528222e+03,2.539411e+02
2.529186e+03,2.518132e+02
2.530150e+03,2.494120e+02
2.531115e+03,2.474946e+02
2.532079e+03,2.480860e+02
2.533043e+03,2.486858e+02
2.534007e+03,2.459022e+02
2.534971e+03,2.432899e+02
2.535936e+03,2.479312e+02
2.536900e+03,2.506458e+02
2.537864e+03,2.479565e+02
2.538828e+03,2.444770e+02
2.539792e+03,2.410382e+02
2.540757e+03,2.428580e+02
2.541721e+03,2.502018e+02
2.542685e+03,2.538662e+02
2.543649e+03,2.533817e+02
2.544614e+03,2.510119e+02
2.545578e+03,2.484050e+02
2.546542e+03,2.511001e+02
2.547506e+03,2.558592e+02
2.548471e+03,2.517493e+02
2.549435e+03,2.487294e+02
2.550399e+03,2.585029e+02
2.551363e+03,2.669269e+02
2.552328e+03,2.601410e+02
2.553292e+03,2.548404e+02
2.554256e+03,2.571691e+02
2.555220e+03,2.578368e+02
2.556185e+03,2.548867e+02
2.557149e+03,2.554594e+02
2.558113e+03,2.602706e+02
2.559077e+03,2.584352e+02
2.560042e+03,2.526265e+02
2.561006e+03,2.569168e+02
2.561970e+03,2.648469e+02
2.562934e+03,2.589774e+02
2.563898e+03,2.499407e+02
2.564863e+03,2.502470e+02
2.565827e+03,2.528554e+02
2.566791e+03,2.536216e+02
2.567755e+03,2.550686e+02
2.568719e+03,2.576630e+02
2.569684e+03,2.583399e+02
2.570648e+03,2.550016e+02
2.571612e+03,2.529890e+02
2.572576e+03,2.525594e+02
2.573541e+03,2.528005e+02
2.574505e+03,2.532654e+02
2.575469e+03,2.547437e+02
2.576433e+03,2.556772e+02
2.577398e+03,2.537717e+02
2.578362e+03,2.507496e+02
2.579326e+03,2.477766e+02
2.580290e+03,2.464302e+02
2.581255e+03,2.471070e+02
2.582219e+03,2.483434e+02
2.583183e+03,2.508661e+02
2.584147e+03,2.493239e+02
2.585112e+03,2.441943e+02
2.586076e+03,2.401184e+02
2.587040e+03,2.377981e+02
2.588004e+03,2.414458e+02
2.588969e+03,2.475336e+02
2.589933e+03,2.491337e+02
2.590897e+03,2.475418e+02
2.591861e+03,2.433274e+02
2.592825e+03,2.407548e+02
2.593790e+03,2.431255e+02
2.594754e+03,2.446185e+02
2.595718e+03,2.406254e+02
2.596682e+03,2.371315e+02
2.597646e+03,2.351510e+02
2.598611e+03,2.342607e+02
2.599575e+03,2.343519e+02
2.600539e+03,2.341215e+02
2.601503e+03,2.336846e+02
2.602468e+03,2.345522e+02
2.603432e+03,2.356774e+02
2.604396e+03,2.347077e+02
2.605360e+03,2.337418e+02
2.606325e+03,2.343545e+02
2.607289e+03,2.358680e+02
2.608253e+03,2.382253e+02
2.609217e+03,2.397251e+02
2.610182e+03,2.394108e+02
2.611146e+03,2.359438e+02
2.612110e+03,2.301037e+02
2.613074e+03,2.259383e+02
2.614039e+03,2.239709e+02
2.615003e+03,2.220868e+02
2.615967e+03,2.219190e+02
2.616931e+03,2.279967e+02
2.617896e+03,2.339033e+02
2.618860e+03,2.274701e+02
2.619824e+03,2.250052e+02
2.620788e+03,2.328079e+02
2.621752e+03,2.391245e+02
2.622717e+03,2.366071e+02
2.623681e+03,2.350542e+02
2.624645e+03,2.348011e+02
2.625609e+03,2.352486e+02
2.626573e+03,2.359687e+02
2.627538e+03,2.344821e+02
2.628502e+03,2.324151e+02
2.629466e+03,2.317062e+02
2.630430e+03,2.320447e+02
2.631395e+03,2.333953e+02
2.632359e+03,2.355533e+02
2.633323e+03,2.397023e+02
2.634287e+03,2.375516e+02
2.635252e+03,2.277952e+02
2.636216e+03,2.276261e+02
2.637180e+03,2.389812e+02
2.638144e+03,2.380267e+02
2.639109e+03,2.297519e+02
2.640073e+03,2.299440e+02
2.641037e+03,2.328993e+02
2.642001e+03,2.275347e+02
2.642966e+03,2.238327e+02
2.643930e+03,2.277525e+02
2.644894e+03,2.318732e+02
2.645858e+03,2.300442e+02
2.646823e+03,2.319586e+02
2.647787e+03,2.371161e+02
2.648751e+03,2.358634e+02
2.649715e+03,2.281026e+02
2.650679e+03,2.290346e+02
2.651644e+03,2.331507e+02
2.652608e+03,2.313250e+02
2.653572e+03,2.277243e+02
2.654536e+03,2.275471e+02
2.655500e+03,2.313779e+02
2.656465e+03,2.408741e+02
2.657429e+03,2.423089e+02
2.658393e+03,2.307451e+02
2.659357e+03,2.238217e+02
2.660322e+03,2.234509e+02
2.661286e+03,2.208868e+02
2.662250e+03,2.181331e+02
2.663214e+03,2.246246e+02
2.664179e+03,2.329968e+02
2.665143e+03,2.347952e+02
2.666107e+03,2.336609e+02
2.667071e+03,2.315402e+02
2.668036e+03,2.293853e+02
2.669000e+03,2.262969e+02
2.669964e+03,2.282797e+02
2.670928e+03,2.340869e+02
2.671893e+03,2.357306e+02
2.672857e+03,2.333629e+02
2.673821e+03,2.292793e+02
2.674785e+03,2.245534e+02
2.675750e+03,2.195185e+02
2.676714e+03,2.178105e+02
2.677678e+03,2.272492e+02
2.678642e+03,2.349423e+02
2.679606e+03,2.384338e+02
2.680571e+03,2.347336e+02
2.681535e+03,2.244991e+02
2.682499e+03,2.196420e+02
2.683463e+03,2.205114e+02
2.684427e+03,2.240178e+02
2.685392e+03,2.281665e+02
2.686356e+03,2.290393e+02
2.687320e+03,2.287830e+02
2.688284e+03,2.282150e+02
2.689249e+03,2.286602e+02
2.690213e+03,2.302766e+02
2.691177e+03,2.273305e+02
2.692141e+03,2.173200e+02
2.693106e+03,2.203026e+02
2.694070e+03,2.301213e+02
2.695034e+03,2.314164e+02
2.695998e+03,2.280194e+02
2.696963e+03,2.250986e+02
2.697927e+03,2.243309e+02
2.698891e+03,2.262282e+02
2.699855e+03,2.289223e+02
2.700820e+03,2.320666e+02
2.701784e+03,2.335907e+02
2.702748e+03,2.330370e+02
2.703712e+03,2.299504e+02
2.704677e+03,2.261202e+02
2.705641e+03,2.291134e+02
2.706605e+03,2.328734e+02
2.707569e+03,2.279868e+02
2.708533e+03,2.247438e+02
2.709498e+03,2.282761e+02
2.710462e+03,2.291234e+02
2.711426e+03,2.216005e+02
2.712390e+03,2.196275e+02
2.713354e+03,2.217735e+02
2.714319e+03,2.204802e+02
2.715283e+03,2.175431e+02
2.716247e+03,2.188808e+02
2.717211e+03,2.211587e+02
2.718176e+03,2.219587e+02
2.719140e+03,2.223445e+02
2.720104e+03,2.229075e+02
2.721068e+03,2.230445e+02
2.722033e+03,2.228849e+02
2.722997e+03,2.249513e+02
2.723961e+03,2.283051e+02
2.724925e+03,2.304116e+02
2.725890e+03,2.298420e+02
2.726854e+03,2.214339e+02
2.727818e+03,2.155785e+02
2.728782e+03,2.176400e+02
2.729747e+03,2.217000e+02
2.730711e+03,2.258919e+02
2.731675e+03,2.296912e+02
2.732639e+03,2.330413e+02
2.733604e+03,2.364654e+02
2.734568e+03,2.378269e+02
2.735532e+03,2.259175e+02
2.736496e+03,2.148307e+02
2.737460e+03,2.149198e+02
2.738425e+03,2.193721e+02
2.739389e+03,2.254462e+02
2.740353e+03,2.265243e+02
2.741317e+03,2.219993e+02
2.742281e+03,2.203338e+02
2.743246e+03,2.212399e+02
2.744210e+03,2.221739e+02
2.745174e+03,2.228646e+02
2.746138e+03,2.241038e+02
2.747103e+03,2.244421e+02
2.748067e+03,2.234862e+02
2.749031e+03,2.228941e+02
2.749995e+03,2.235942e+02
2.750960e+03,2.236172e+02
2.751924e+03,2.232256e+02
2.752888e+03,2.234136e+02
2.753852e+03,2.234516e+02
2.754817e+03,2.217216e+02
2.755781e+03,2.186273e+02
2.756745e+03,2.133081e+02
2.757709e+03,2.121232e+02
2.758674e+03,2.164938e+02
2.759638e+03,2.223905e+02
2.760602e+03,2.282715e+02
2.761566e+03,2.264953e+02
2.762531e+03,2.221311e+02
2.763495e+03,2.250031e+02
2.764459e+03,2.271040e+02
2.765423e+03,2.153416e+02
2.766387e+03,2.124949e+02
2.767352e+03,2.229138e+02
2.768316e+03,2.272709e+02
2.769280e+03,2.216599e+02
2.770244e+03,2.176526e+02
2.771208e+03,2.166824e+02
2.772173e+03,2.201502e+02
2.773137e+03,2.251463e+02
2.774101e+03,2.305987e+02
2.775065e+03,2.310119e+02
2.776030e+03,2.220580e+02
2.776994e+03,2.151606e+02
2.777958e+03,2.114247e+02
2.778922e+03,2.134497e+02
2.779887e+03,2.183136e+02
2.780851e+03,2.190359e+02
2.781815e+03,2.165383e+02
2.782779e+03,2.115548e+02
2.783744e+03,2.098363e+02
2.784708e+03,2.167047e+02
2.785672e+03,2.172012e+02
2.786636e+03,2.116976e+02
2.787601e+03,2.145944e+02
2.788565e+03,2.219082e+02
2.789529e+03,2.198681e+02
2.790493e+03,2.163461e+02
2.791458e+03,2.199027e+02
2.792422e+03,2.189807e+02
2.793386e+03,2.117371e+02
2.794350e+03,2.088353e+02
2.795314e+03,2.127102e+02
2.796279e+03,2.129947e+02
2.797243e+03,2.124110e+02
2.798207e+03,2.164488e+02
2.799171e+03,2.204731e+02
2.800135e+03,2.179937e+02
2.801100e+03,2.131358e+02
2.802064e+03,2.064167e+02
2.803028e+03,2.103786e+02
2.803992e+03,2.221728e+02
2.804957e+03,2.250231e+02
2.805921e+03,2.225961e+02
2.806885e+03,2.238573e+02
2.807849e+03,2.215601e+02
2.808814e+03,2.121173e+02
2.809778e+03,2.064695e+02
2.810742e+03,2.119043e+02
2.811706e+03,2.087467e+02
2.812671e+03,2.005234e+02
2.813635e+03,2.009631e+02
2.814599e+03,2.071674e+02
2.815563e+03,2.175153e+02
2.816528e+03,2.241927e+02
2.817492e+03,2.221208e+02
2.818456e+03,2.193115e+02
2.819420e+03,2.168953e+02
2.820385e+03,2.127811e+02
2.821349e+03,2.084878e+02
2.822313e+03,2.113143e+02
2.823277e+03,2.136717e+02
2.824241e+03,2.089207e+02
2.825206e+03,2.056079e+02
2.826170e+03,2.092458e+02
2.827134e+03,2.154374e+02
2.828098e+03,2.223296e+02
2.829063e+03,2.221880e+02
2.830027e+03,2.182154e+02
2.830991e+03,2.155816e+02
2.831955e+03,2.168602e+02
2.832919e+03,2.296095e+02
2.833884e+03,2.321995e+02
2.834848e+03,2.230168e+02
2.835812e+03,2.242415e+02
2.836776e+03,2.357867e+02
2.837741e+03,2.362898e+02
2.838705e+03,2.298067e+02
2.839669e+03,2.195170e+02
2.840633e+03,2.139086e+02
2.841598e+03,2.179329e+02
2.842562e+03,2.200040e+02
2.843526e+03,2.176268e+02
2.844490e+03,2.202115e+02
2.845455e+03,2.229476e+02
2.846419e+03,2.154642e+02
2.847383e+03,2.089825e+02
2.848347e+03,2.203554e+02
2.849312e+03,2.264971e+02
2.850276e+03,2.235514e+02
2.851240e+03,2.243670e+02
2.852204e+03,2.286123e+02
2.853168e+03,2.271135e+02
2.854133e+03,2.246151e+02
2.855097e+03,2.287506e+02
2.856061e+03,2.325999e+02
2.857025e+03,2.337348e+02
2.857990e+03,2.303697e+02
2.858954e+03,2.218234e+02
2.859918e+03,2.245814e+02
2.860882e+03,2.324399e+02
2.861846e+03,2.354308e+02
2.862811e+03,2.347821e+02
2.863775e+03,2.298974e+02
2.864739e+03,2.288926e+02
2.865703e+03,2.342479e+02
2.866668e+03,2.369315e+02
2.867632e+03,2.372287e+02
2.868596e+03,2.358820e+02
2.869560e+03,2.359543e+02
2.870525e+03,2.433732e+02
2.871489e+03,2.513351e+02
2.872453e+03,2.580282e+02
2.873417e+03,2.539019e+02
2.874382e+03,2.418475e+02
2.875346e+03,2.472967e+02
2.876310e+03,2.554470e+02
2.877274e+03,2.366257e+02
2.878239e+03,2.254468e+02
2.879203e+03,2.339364e+02
2.880167e+03,2.459787e+02
2.881131e+03,2.574965e+02
2.882095e+03,2.552969e+02
2.883060e+03,2.483685e+02
2.884024e+03,2.513803e+02
2.884988e+03,2.571786e+02
2.885952e+03,2.597399e+02
2.886917e+03,2.611728e+02
2.887881e+03,2.618550e+02
2.888845e+03,2.577756e+02
2.889809e+03,2.511719e+02
2.890773e+03,2.455428e+02
2.891738e+03,2.430076e+02
2.892702e+03,2.502200e+02
2.893666e+03,2.538865e+02
2.894630e+03,2.519353e+02
2.895595e+03,2.542734e+02
2.896559e+03,2.597581e+02
2.897523e+03,2.601874e+02
2.898487e+03,2.579911e+02
2.899452e+03,2.537477e+02
2.900416e+03,2.530843e+02
2.901380e+03,2.565352e+02
2.902344e+03,2.546664e+02
2.903309e+03,2.471021e+02
2.904273e+03,2.449614e+02
2.905237e+03,2.448950e+02
2.906201e+03,2.426902e+02
2.907166e+03,2.418335e+02
2.908130e+03,2.437199e+02
2.909094e+03,2.474985e+02
2.910058e+03,2.518682e+02
2.911022e+03,2.463569e+02
2.911987e+03,2.390807e+02
2.912951e+03,2.383585e+02
2.913915e+03,2.420542e+02
2.914879e+03,2.510836e+02
2.915844e+03,2.537505e+02
2.916808e+03,2.494866e+02
2.917772e+03,2.443545e+02
2.918736e+03,2.395940e+02
2.919700e+03,2.358780e+02
2.920665e+03,2.344770e+02
2.921629e+03,2.405522e+02
2.922593e+03,2.370417e+02
2.923557e+03,2.263145e+02
2.924522e+03,2.223533e+02
2.925486e+03,2.237236e+02
2.926450e+03,2.289594e+02
2.927414e+03,2.327432e+02
2.928379e+03,2.323099e+02
2.929343e+03,2.302957e+02
2.930307e+03,2.273022e+02
2.931271e+03,2.228669e+02
2.932236e+03,2.194511e+02
2.933200e+03,2.229812e+02
2.934164e+03,2.260486e+02
2.935128e+03,2.252051e+02
2.936093e+03,2.280868e+02
2.937057e+03,2.344124e+02
2.938021e+03,2.337474e+02
2.938985e+03,2.310666e+02
2.939949e+03,2.367346e+02
2.940914e+03,2.386927e+02
2.941878e+03,2.332836e+02
2.942842e+03,2.303830e+02
2.943806e+03,2.314843e+02
2.944771e+03,2.351099e+02
2.945735e+03,2.394106e+02
2.946699e+03,2.451229e+02
2.947663e+03,2.405929e+02
2.948627e+03,2.232110e+02
2.949592e+03,2.189952e+02
2.950556e+03,2.307800e+02
2.951520e+03,2.290314e+02
2.952484e+03,2.253209e+02
2.953449e+03,2.310641e+02
2.954413e+03,2.429031e+02
2.955377e+03,2.591818e+02
2.956341e+03,2.743190e+02
2.957306e+03,2.837840e+02
2.958270e+03,2.741785e+02
2.959234e+03,2.510514e+02
2.960198e+03,2.189555e+02
2.961163e+03,2.030468e+02
2.962127e+03,2.163561e+02
2.963091e+03,2.205583e+02
2.964055e+03,2.164650e+02
2.965020e+03,2.190710e+02
2.965984e+03,2.226157e+02
2.966948e+03,2.225481e+02
2.967912e+03,2.206169e+02
2.968876e+03,2.161969e+02
2.969841e+03,2.209436e+02
2.970805e+03,2.285872e+02
2.971769e+03,2.276844e+02
2.972733e+03,2.223865e+02
2.973698e+03,2.156281e+02
2.974662e+03,2.074632e+02
2.975626e+03,1.985867e+02
2.976590e+03,2.136767e+02
2.977554e+03,2.314056e+02
2.978519e+03,2.225024e+02
2.979483e+03,2.101395e+02
2.980447e+03,2.105119e+02
2.981411e+03,2.077982e+02
2.982376e+03,2.021423e+02
2.983340e+03,2.094485e+02
2.984304e+03,2.170218e+02
2.985268e+03,2.111035e+02
2.986233e+03,2.096242e+02
2.987197e+03,2.249987e+02
2.988161e+03,2.335872e+02
2.989125e+03,2.330907e+02
2.990090e+03,2.205815e+02
2.991054e+03,2.090683e+02
2.992018e+03,2.090495e+02
2.992982e+03,2.096691e+02
2.993947e+03,2.074066e+02
2.994911e+03,2.029537e+02
2.995875e+03,2.021647e+02
2.996839e+03,2.165741e+02
2.997803e+03,2.228962e+02
2.998768e+03,2.056829e+02
2.999732e+03,1.932600e+02
3.000696e+03,1.919752e+02
3.001660e+03,1.986347e+02
3.002625e+03,2.065603e+02
3.003589e+03,2.096535e+02
3.004553e+03,2.089961e+02
3.005517e+03,2.052301e+02
3.006481e+03,2.023110e+02
3.007446e+03,2.017311e+02
3.008410e+03,2.078091e+02
3.009374e+03,2.155479e+02
3.010338e+03,2.223771e+02
3.011303e+03,2.231101e+02
3.012267e+03,2.157954e+02
3.013231e+03,2.095325e+02
3.014195e+03,2.070878e+02
3.015160e+03,2.147459e+02
3.016124e+03,2.197859e+02
3.017088e+03,2.179775e+02
3.018052e+03,2.177615e+02
3.019017e+03,2.199395e+02
3.019981e+03,2.213312e+02
3.020945e+03,2.179449e+02
3.021909e+03,2.051730e+02
3.022874e+03,1.962498e+02
3.023838e+03,1.935799e+02
3.024802e+03,1.992906e+02
3.025766e+03,2.066398e+02
3.026730e+03,1.923207e+02
3.027695e+03,1.904091e+02
3.028659e+03,2.156235e+02
3.029623e+03,2.338095e+02
3.030587e+03,2.397027e+02
3.031552e+03,2.229507e+02
3.032516e+03,2.047456e+02
3.033480e+03,2.134418e+02
3.034444e+03,2.190615e+02
3.035408e+03,2.164884e+02
3.036373e+03,2.162071e+02
3.037337e+03,2.169122e+02
3.038301e+03,2.089454e+02
3.039265e+03,2.035703e+02
3.040230e+03,2.085678e+02
3.041194e+03,2.158741e+02
3.042158e+03,2.222099e+02
3.043122e+03,2.182815e+02
3.044087e+03,2.130608e+02
3.045051e+03,2.208089e+02
3.046015e+03,2.228625e+02
3.046979e+03,2.132924e+02
3.047944e+03,2.035427e+02
3.048908e+03,2.016849e+02
3.049872e+03,2.210005e+02
3.050836e+03,2.346455e+02
3.051801e+03,2.237880e+02
3.052765e+03,2.066152e+02
3.053729e+03,1.904008e+02
3.054693e+03,1.989029e+02
3.055657e+03,2.132466e+02
3.056622e+03,2.193818e+02
3.057586e+03,2.228756e+02
3.058550e+03,2.258352e+02
3.059514e+03,2.179168e+02
3.060479e+03,2.054245e+02
3.061443e+03,1.957937e+02
3.062407e+03,1.943750e+02
3.063371e+03,2.006971e+02
3.064335e+03,2.001573e+02
3.065300e+03,1.955942e+02
3.066264e+03,2.102007e+02
3.067228e+03,2.240290e+02
3.068192e+03,2.242583e+02
3.069157e+03,2.166938e+02
3.070121e+03,2.074289e+02
3.071085e+03,2.188804e+02
3.072049e+03,2.322717e+02
3.073014e+03,2.128250e+02
3.073978e+03,2.015602e+02
3.074942e+03,2.073251e+02
3.075906e+03,2.171880e+02
3.076871e+03,2.250000e+02
3.077835e+03,2.228436e+02
3.078799e+03,2.181725e+02
3.079763e+03,2.146784e+02
3.080728e+03,2.155734e+02
3.081692e+03,2.169372e+02
3.082656e+03,2.008932e+02
3.083620e+03,1.913159e+02
3.084584e+03,2.005260e+02
3.085549e+03,2.133071e+02
3.086513e+03,2.246837e+02
3.087477e+03,2.086262e+02
3.088441e+03,1.921527e+02
3.089406e+03,2.079898e+02
3.090370e+03,2.202231e+02
3.091334e+03,2.222112e+02
3.092298e+03,2.172079e+02
3.093262e+03,2.105839e+02
3.094227e+03,2.120662e+02
3.095191e+03,2.116685e+02
3.096155e+03,2.057257e+02
3.097119e+03,2.026211e+02
3.098084e+03,2.045229e+02
3.099048e+03,2.147091e+02
3.100012e+03,2.259054e+02
3.100976e+03,2.342922e+02
3.101941e+03,2.326724e+02
3.102905e+03,2.216896e+02
3.103869e+03,2.098282e+02
3.104833e+03,2.049792e+02
3.105798e+03,2.115623e+02
3.106762e+03,2.081591e+02
3.107726e+03,1.927658e+02
3.108690e+03,2.067339e+02
3.109655e+03,2.214019e+02
3.110619e+03,1.884208e+02
3.111583e+03,1.837549e+02
3.112547e+03,2.119998e+02
3.113511e+03,2.192732e+02
3.114476e+03,2.130784e+02
3.115440e+03,2.140767e+02
3.116404e+03,2.170016e+02
3.117368e+03,2.211317e+02
3.118333e+03,2.283915e+02
3.119297e+03,2.322745e+02
3.120261e+03,2.216804e+02
3.121225e+03,2.128569e+02
3.122189e+03,2.147248e+02
3.123154e+03,2.137620e+02
3.124118e+03,2.107054e+02
3.125082e+03,2.196683e+02
3.126046e+03,2.195367e+02
3.127011e+03,2.003766e+02
3.127975e+03,1.964636e+02
3.128939e+03,2.073076e+02
3.129903e+03,2.200160e+02
3.130868e+03,2.281772e+02
3.131832e+03,2.215064e+02
3.132796e+03,2.189413e+02
3.133760e+03,2.216619e+02
3.134725e+03,2.239531e+02
3.135689e+03,2.299303e+02
3.136653e+03,2.446887e+02
3.137617e+03,2.498611e+02
3.138582e+03,2.399308e+02
3.139546e+03,2.293020e+02
3.140510e+03,2.206394e+02
3.141474e+03,2.173766e+02
3.142438e+03,2.143829e+02
3.143403e+03,2.106901e+02
3.144367e+03,2.096539e+02
3.145331e+03,2.101111e+02
3.146295e+03,2.137668e+02
3.147260e+03,2.065327e+02
3.148224e+03,1.856252e+02
3.149188e+03,2.007558e+02
3.150152e+03,2.249871e+02
3.151116e+03,2.216925e+02
3.152081e+03,2.129619e+02
3.153045e+03,2.083622e+02
3.154009e+03,2.072793e+02
3.154973e+03,2.078922e+02
3.155938e+03,2.029984e+02
3.156902e+03,2.070838e+02
3.157866e+03,2.220824e+02
3.158830e+03,2.344838e+02
3.159795e+03,2.415773e+02
3.160759e+03,2.257338e+02
3.161723e+03,2.353362e+02
3.162687e+03,3.333286e+02
3.163652e+03,3.262319e+02
3.164616e+03,2.646327e+02
3.165580e+03,2.552130e+02
3.166544e+03,2.523552e+02
3.167509e+03,2.351460e+02
3.168473e+03,2.296040e+02
3.169437e+03,2.314396e+02
3.170401e+03,2.144950e+02
3.171365e+03,2.006131e+02
3.172330e+03,1.996654e+02
3.173294e+03,2.139436e+02
3.174258e+03,2.333930e+02
3.175222e+03,2.408565e+02
3.176187e+03,2.410633e+02
3.177151e+03,2.373418e+02
3.178115e+03,2.216475e+02
3.179079e+03,2.030684e+02
3.180043e+03,2.109709e+02
3.181008e+03,2.186509e+02
3.181972e+03,2.163033e+02
3.182936e+03,2.237431e+02
3.183900e+03,2.379785e+02
3.184865e+03,2.471092e+02
3.185829e+03,2.517506e+02
3.186793e+03,2.529118e+02
3.187757e+03,2.396101e+02
3.188722e+03,2.224078e+02
3.189686e+03,2.240268e+02
3.190650e+03,2.321386e+02
3.191614e+03,2.398338e+02
3.192579e+03,2.292796e+02
3.193543e+03,2.096990e+02
3.194507e+03,2.089260e+02
3.195471e+03,2.193320e+02
3.196436e+03,2.394389e+02
3.197400e+03,2.523026e+02
3.198364e+03,2.581069e+02
3.199328e+03,2.597025e+02
3.200292e+03,2.620583e+02
3.201257e+03,0.000000e+00
3.202221e+03,0.000000e+00
3.203185e+03,0.000000e+00
3.204149e+03,0.000000e+00
3.205114e+03,0.000000e+00
3.206078e+03,0.000000e+00
3.207042e+03,0.000000e+00
3.208006e+03,0.000000e+00
3.208970e+03,0.000000e+00
3.209935e+03,0.000000e+00
3.210899e+03,0.000000e+00
3.211863e+03,0.000000e+00
3.212827e+03,0.000000e+00
3.213792e+03,0.000000e+00
3.214756e+03,0.000000e+00
3.215720e+03,0.000000e+00
3.216684e+03,0.000000e+00
3.217649e+03,0.000000e+00
3.218613e+03,0.000000e+00
3.219577e+03,0.000000e+00
3.220541e+03,0.000000e+00
3.221506e+03,0.000000e+00
3.222470e+03,0.000000e+00
3.223434e+03,0.000000e+00
3.224398e+03,0.000000e+00
3.225363e+03,0.000000e+00
3.226327e+03,0.000000e+00
3.227291e+03,0.000000e+00
3.228255e+03,0.000000e+00
3.229219e+03,0.000000e+00
3.230184e+03,0.000000e+00
3.231148e+03,0.000000e+00
3.232112e+03,0.000000e+00
3.233076e+03,0.000000e+00
3.234041e+03,0.000000e+00
3.235005e+03,0.000000e+00
3.235969e+03,0.000000e+00
3.236933e+03,0.000000e+00
3.237897e+03,0.000000e+00
3.238862e+03,0.000000e+00
3.239826e+03,0.000000e+00
3.240790e+03,0.000000e+00
3.241754e+03,0.000000e+00
3.242719e+03,0.000000e+00
3.243683e+03,0.000000e+00
3.244647e+03,0.000000e+00
3.245611e+03,0.000000e+00
3.246576e+03,0.000000e+00
3.247540e+03,0.000000e+00
3.248504e+03,0.000000e+00
3.249468e+03,0.000000e+00
3.250433e+03,0.000000e+00
3.251397e+03,0.000000e+00
3.252361e+03,0.000000e+00
3.253325e+03,0.000000e+00
3.254290e+03,0.000000e+00
3.255254e+03,0.000000e+00
3.256218e+03,0.000000e+00
3.257182e+03,0.000000e+00
3.258146e+03,0.000000e+00
3.259111e+03,0.000000e+00
3.260075e+03,0.000000e+00
3.261039e+03,0.000000e+00
3.262003e+03,0.000000e+00
3.262968e+03,0.000000e+00
3.263932e+03,0.000000e+00
3.264896e+03,0.000000e+00
3.265860e+03,0.000000e+00
3.266824e+03,0.000000e+00
3.267789e+03,0.000000e+00
3.268753e+03,0.000000e+00
3.269717e+03,0.000000e+00
3.270681e+03,0.000000e+00
3.271646e+03,0.000000e+00
3.272610e+03,0.000000e+00
3.273574e+03,0.000000e+00
3.274538e+03,0.000000e+00
3.275503e+03,0.000000e+00
3.276467e+03,0.000000e+00
3.277431e+03,0.000000e+00
3.278395e+03,0.000000e+00
3.279360e+03,0.000000e+00
3.280324e+03,0.000000e+00
3.281288e+03,0.000000e+00
3.282252e+03,0.000000e+00
3.283217e+03,0.000000e+00
3.284181e+03,0.000000e+00
3.285145e+03,0.000000e+00
3.286109e+03,0.000000e+00
3.287073e+03,0.000000e+00
3.288038e+03,0.000000e+00
3.289002e+03,0.000000e+00
3.289966e+03,0.000000e+00
3.290930e+03,0.000000e+00
3.291895e+03,0.000000e+00
3.292859e+03,0.000000e+00
3.293823e+03,0.000000e+00
3.294787e+03,0.000000e+00
3.295751e+03,0.000000e+00
3.296716e+03,0.000000e+00
3.297680e+03,0.000000e+00
3.298644e+03,0.000000e+00
3.299608e+03,0.000000e+00
3.300573e+03,0.000000e+00
3.301537e+03,0.000000e+00
3.302501e+03,0.000000e+00
3.303465e+03,0.000000e+00
3.304430e+03,0.000000e+00
3.305394e+03,0.000000e+00
3.306358e+03,0.000000e+00
3.307322e+03,0.000000e+00
3.308287e+03,0.000000e+00
3.309251e+03,0.000000e+00
3.310215e+03,0.000000e+00
3.311179e+03,0.000000e+00
3.312144e+03,0.000000e+00
3.313108e+03,0.000000e+00
3.314072e+03,0.000000e+00
3.315036e+03,0.000000e+00
3.316000e+03,0.000000e+00
3.316965e+03,0.000000e+00
3.317929e+03,0.000000e+00
3.318893e+03,0.000000e+00
3.319857e+03,0.000000e+00
3.320822e+03,0.000000e+00
3.321786e+03,0.000000e+00
3.322750e+03,0.000000e+00
3.323714e+03,0.000000e+00
3.324678e+03,0.000000e+00
3.325643e+03,0.000000e+00
3.326607e+03,0.000000e+00
3.327571e+03,0.000000e+00
3.328535e+03,0.000000e+00
3.329500e+03,0.000000e+00
3.330464e+03,0.000000e+00
3.331428e+03,0.000000e+00
3.332392e+03,0.000000e+00
3.333357e+03,0.000000e+00
3.334321e+03,0.000000e+00
3.335285e+03,0.000000e+00
3.336249e+03,0.000000e+00
3.337214e+03,0.000000e+00
3.338178e+03,0.000000e+00
3.339142e+03,0.000000e+00
3.340106e+03,0.000000e+00
3.341071e+03,0.000000e+00
3.342035e+03,0.000000e+00
3.342999e+03,0.000000e+00
3.343963e+03,0.000000e+00
3.344927e+03,0.000000e+00
3.345892e+03,0.000000e+00
3.346856e+03,0.000000e+00
3.347820e+03,0.000000e+00
3.348784e+03,0.000000e+00
3.349749e+03,0.000000e+00
3.350713e+03,0.000000e+00
3.351677e+03,0.000000e+00
3.352641e+03,0.000000e+00
3.353605e+03,0.000000e+00
3.354570e+03,0.000000e+00
3.355534e+03,0.000000e+00
3.356498e+03,0.000000e+00
3.357462e+03,0.000000e+00
3.358427e+03,0.000000e+00
3.359391e+03,0.000000e+00
3.360355e+03,0.000000e+00
3.361319e+03,0.000000e+00
3.362284e+03,0.000000e+00
3.363248e+03,0.000000e+00
3.364212e+03,0.000000e+00
3.365176e+03,0.000000e+00
3.366141e+03,0.000000e+00
3.367105e+03,0.000000e+00
3.368069e+03,0.000000e+00
3.369033e+03,0.000000e+00
3.369998e+03,0.000000e+00
3.370962e+03,0.000000e+00
3.371926e+03,0.000000e+00
3.372890e+03,0.000000e+00
3.373854e+03,0.000000e+00
3.374819e+03,0.000000e+00
3.375783e+03,0.000000e+00
3.376747e+03,0.000000e+00
3.377711e+03,0.000000e+00
3.378676e+03,0.000000e+00
3.379640e+03,0.000000e+00
3.380604e+03,0.000000e+00
3.381568e+03,0.000000e+00
3.382532e+03,0.000000e+00
3.383497e+03,0.000000e+00
3.384461e+03,0.000000e+00
3.385425e+03,0.000000e+00
3.386389e+03,0.000000e+00
3.387354e+03,0.000000e+00
3.388318e+03,0.000000e+00
3.389282e+03,0.000000e+00
3.390246e+03,0.000000e+00
3.391211e+03,0.000000e+00
3.392175e+03,0.000000e+00
3.393139e+03,0.000000e+00
3.394103e+03,0.000000e+00
3.395068e+03,0.000000e+00
3.396032e+03,0.000000e+00
3.396996e+03,0.000000e+00
3.397960e+03,0.000000e+00
3.398925e+03,0.000000e+00
3.399889e+03,0.000000e+00
3.400853e+03,0.000000e+00
3.401817e+03,0.000000e+00
3.402781e+03,0.000000e+00
3.403746e+03,0.000000e+00
3.404710e+03,0.000000e+00
3.405674e+03,0.000000e+00
3.406638e+03,0.000000e+00
3.407603e+03,0.000000e+00
3.408567e+03,0.000000e+00
3.409531e+03,0.000000e+00
3.410495e+03,0.000000e+00
3.411459e+03,0.000000e+00
3.412424e+03,0.000000e+00
3.413388e+03,0.000000e+00
3.414352e+03,0.000000e+00
3.415316e+03,0.000000e+00
3.416281e+03,0.000000e+00
3.417245e+03,0.000000e+00
3.418209e+03,0.000000e+00
3.419173e+03,0.000000e+00
3.420138e+03,0.000000e+00
3.421102e+03,0.000000e+00
3.422066e+03,0.000000e+00
3.423030e+03,0.000000e+00
3.423995e+03,0.000000e+00
3.424959e+03,0.000000e+00
3.425923e+03,0.000000e+00
3.426887e+03,0.000000e+00
3.427852e+03,0.000000e+00
3.428816e+03,0.000000e+00
3.429780e+03,0.000000e+00
3.430744e+03,0.000000e+00
3.431708e+03,0.000000e+00
3.432673e+03,0.000000e+00
3.433637e+03,0.000000e+00
3.434601e+03,0.000000e+00
3.435565e+03,0.000000e+00
3.436530e+03,0.000000e+00
3.437494e+03,0.000000e+00
3.438458e+03,0.000000e+00
3.439422e+03,0.000000e+00
3.440386e+03,0.000000e+00
3.441351e+03,0.000000e+00
3.442315e+03,0.000000e+00
3.443279e+03,0.000000e+00
3.444243e+03,0.000000e+00
3.445208e+03,0.000000e+00
3.446172e+03,0.000000e+00
3.447136e+03,0.000000e+00
3.448100e+03,0.000000e+00
3.449065e+03,0.000000e+00
3.450029e+03,0.000000e+00
3.450993e+03,0.000000e+00
3.451957e+03,0.000000e+00
3.452922e+03,0.000000e+00
3.453886e+03,0.000000e+00
3.454850e+03,0.000000e+00
3.455814e+03,0.000000e+00
3.456779e+03,0.000000e+00
3.457743e+03,0.000000e+00
3.458707e+03,0.000000e+00
3.459671e+03,0.000000e+00
3.460635e+03,0.000000e+00
3.461600e+03,0.000000e+00
3.462564e+03,0.000000e+00
3.463528e+03,0.000000e+00
3.464492e+03,0.000000e+00
3.465457e+03,0.000000e+00
3.466421e+03,0.000000e+00
3.467385e+03,0.000000e+00
3.468349e+03,0.000000e+00
3.469313e+03,0.000000e+00
3.470278e+03,0.000000e+00
3.471242e+03,0.000000e+00
3.472206e+03,0.000000e+00
3.473170e+03,0.000000e+00
3.474135e+03,0.000000e+00
3.475099e+03,0.000000e+00
3.476063e+03,0.000000e+00
3.477027e+03,0.000000e+00
3.477992e+03,0.000000e+00
3.478956e+03,0.000000e+00
3.479920e+03,0.000000e+00
3.480884e+03,0.000000e+00
3.481849e+03,0.000000e+00
3.482813e+03,0.000000e+00
3.483777e+03,0.000000e+00
3.484741e+03,0.000000e+00
3.485706e+03,0.000000e+00
3.486670e+03,0.000000e+00
3.487634e+03,0.000000e+00
3.488598e+03,0.000000e+00
3.489563e+03,0.000000e+00
3.490527e+03,0.000000e+00
3.491491e+03,0.000000e+00
3.492455e+03,0.000000e+00
3.493419e+03,0.000000e+00
3.494384e+03,0.000000e+00
3.495348e+03,0.000000e+00
3.496312e+03,0.000000e+00
3.497276e+03,0.000000e+00
3.498240e+03,0.000000e+00
3.499205e+03,0.000000e+00
3.500169e+03,0.000000e+00
