9.931763e+01,0.000000e+00
1.002819e+02,0.000000e+00
1.012461e+02,0.000000e+00
1.022103e+02,0.000000e+00
1.031746e+02,0.000000e+00
1.041388e+02,0.000000e+00
1.051030e+02,0.000000e+00
1.060673e+02,0.000000e+00
1.070315e+02,0.000000e+00
1.079957e+02,0.000000e+00
1.089600e+02,0.000000e+00
1.099242e+02,0.000000e+00
1.108884e+02,0.000000e+00
1.118527e+02,0.000000e+00
1.128169e+02,0.000000e+00
1.137811e+02,0.000000e+00
1.147454e+02,0.000000e+00
1.157096e+02,0.000000e+00
1.166738e+02,0.000000e+00
1.176381e+02,0.000000e+00
1.186023e+02,0.000000e+00
1.195665e+02,0.000000e+00
1.205308e+02,0.000000e+00
1.214950e+02,0.000000e+00
1.224592e+02,0.000000e+00
1.234235e+02,0.000000e+00
1.243877e+02,0.000000e+00
1.253519e+02,0.000000e+00
1.263162e+02,0.000000e+00
1.272804e+02,0.000000e+00
1.282446e+02,0.000000e+00
1.292089e+02,0.000000e+00
1.301731e+02,0.000000e+00
1.311373e+02,0.000000e+00
1.321016e+02,0.000000e+00
1.330658e+02,0.000000e+00
1.340300e+02,0.000000e+00
1.349943e+02,0.000000e+00
1.359585e+02,0.000000e+00
1.369227e+02,0.000000e+00
1.378870e+02,0.000000e+00
1.388512e+02,0.000000e+00
1.398154e+02,0.000000e+00
1.407797e+02,0.000000e+00
1.417439e+02,0.000000e+00
1.427081e+02,0.000000e+00
1.436724e+02,0.000000e+00
1.446366e+02,0.000000e+00
1.456008e+02,0.000000e+00
1.465651e+02,0.000000e+00
1.475293e+02,0.000000e+00
1.484935e+02,0.000000e+00
1.494578e+02,0.000000e+00
1.504220e+02,0.000000e+00
1.513862e+02,0.000000e+00
1.523505e+02,0.000000e+00
1.533147e+02,0.000000e+00
1.542789e+02,0.000000e+00
1.552432e+02,0.000000e+00
1.562074e+02,0.000000e+00
1.571716e+02,0.000000e+00
1.581359e+02,0.000000e+00
1.591001e+02,0.000000e+00
1.600643e+02,0.000000e+00
1.610286e+02,0.000000e+00
1.619928e+02,0.000000e+00
1.629570e+02,0.000000e+00
1.639213e+02,0.000000e+00
1.648855e+02,0.000000e+00
1.658497e+02,0.000000e+00
1.668140e+02,0.000000e+00
1.677782e+02,0.000000e+00
1.687424e+02,0.000000e+00
1.697067e+02,0.000000e+00
1.706709e+02,0.000000e+00
1.716351e+02,0.000000e+00
1.725994e+02,0.000000e+00
1.735636e+02,0.000000e+00
1.745278e+02,0.000000e+00
1.754921e+02,0.000000e+00
1.764563e+02,0.000000e+00
1.774205e+02,0.000000e+00
1.783848e+02,0.000000e+00
1.793490e+02,0.000000e+00
1.803132e+02,0.000000e+00
1.812775e+02,0.000000e+00
1.822417e+02,0.000000e+00
1.832059e+02,0.000000e+00
1.841702e+02,0.000000e+00
1.851344e+02,0.000000e+00
1.860986e+02,0.000000e+00
1.870629e+02,0.000000e+00
1.880271e+02,0.000000e+00
1.889913e+02,0.000000e+00
1.899556e+02,0.000000e+00
1.909198e+02,0.000000e+00
1.918840e+02,0.000000e+00
1.928483e+02,0.000000e+00
1.938125e+02,0.000000e+00
1.947767e+02,0.000000e+00
1.957410e+02,0.000000e+00
1.967052e+02,0.000000e+00
1.976694e+02,0.000000e+00
1.986337e+02,0.000000e+00
1.995979e+02,9.627563e+02
2.005621e+02,9.609238e+02
2.015264e+02,9.605807e+02
2.024906e+02,9.639254e+02
2.034548e+02,9.669276e+02
2.044191e+02,9.681809e+02
2.053833e+02,9.677332e+02
2.063475e+02,9.666979e+02
2.073118e+02,9.661289e+02
2.082760e+02,9.659353e+02
2.092402e+02,9.665873e+02
2.102045e+02,9.698477e+02
2.111687e+02,9.736913e+02
2.121329e+02,9.764417e+02
2.130972e+02,9.770520e+02
2.140614e+02,9.760651e+02
2.150256e+02,9.753002e+02
2.159899e+02,9.751200e+02
2.169541e+02,9.748858e+02
2.179183e+02,9.741342e+02
2.188826e+02,9.730215e+02
2.198468e+02,9.724559e+02
2.208110e+02,9.737422e+02
2.217753e+02,9.766653e+02
2.227395e+02,9.778542e+02
2.237037e+02,9.760009e+02
2.246680e+02,9.731561e+02
2.256322e+02,9.709343e+02
2.265964e+02,9.698126e+02
2.275607e+02,9.698007e+02
2.285249e+02,9.711954e+02
2.294892e+02,9.742831e+02
2.304534e+02,9.774914e+02
2.314176e+02,9.795300e+02
2.323819e+02,9.803680e+02
2.333461e+02,9.800407e+02
2.343103e+02,9.775369e+02
2.352746e+02,9.742011e+02
2.362388e+02,9.723514e+02
2.372030e+02,9.724974e+02
2.381673e+02,9.735753e+02
2.391315e+02,9.743017e+02
2.400957e+02,9.757172e+02
2.410600e+02,9.765126e+02
2.420242e+02,9.760638e+02
2.429884e+02,9.748367e+02
2.439527e+02,9.737668e+02
2.449169e+02,9.731406e+02
2.458811e+02,9.728359e+02
2.468454e+02,9.723761e+02
2.478096e+02,9.712104e+02
2.487738e+02,9.702697e+02
2.497381e+02,9.702689e+02
2.507023e+02,9.713439e+02
2.516665e+02,9.730682e+02
2.526308e+02,9.747164e+02
2.535950e+02,9.765272e+02
2.545592e+02,9.770104e+02
2.555235e+02,9.752990e+02
2.564877e+02,9.727410e+02
2.574519e+02,9.710938e+02
2.584161e+02,9.716246e+02
2.593804e+02,9.742158e+02
2.603446e+02,9.760971e+02
2.613088e+02,9.755237e+02
2.622731e+02,9.751484e+02
2.632373e+02,9.759824e+02
2.642015e+02,9.776731e+02
2.651658e+02,9.791071e+02
2.661300e+02,9.792299e+02
2.670942e+02,9.780114e+02
2.680585e+02,9.775058e+02
2.690227e+02,9.791034e+02
2.699869e+02,9.809854e+02
2.709512e+02,9.817016e+02
2.719154e+02,9.807808e+02
2.728796e+02,9.792930e+02
2.738439e+02,9.785632e+02
2.748081e+02,9.788533e+02
2.757723e+02,9.801169e+02
2.767366e+02,9.825238e+02
2.777008e+02,9.852035e+02
2.786650e+02,9.860468e+02
2.796293e+02,9.827748e+02
2.805935e+02,9.779149e+02
2.815577e+02,9.758333e+02
2.825220e+02,9.777391e+02
2.834862e+02,9.815662e+02
2.844504e+02,9.839445e+02
2.854147e+02,9.852007e+02
2.863789e+02,9.854461e+02
2.873431e+02,9.842795e+02
2.883074e+02,9.824098e+02
2.892716e+02,9.809561e+02
2.902358e+02,9.803232e+02
2.912001e+02,9.803866e+02
2.921643e+02,9.809285e+02
2.931285e+02,9.834466e+02
2.940928e+02,9.855095e+02
2.950570e+02,9.855184e+02
2.960212e+02,9.834530e+02
2.969855e+02,9.806776e+02
2.979497e+02,9.788212e+02
2.989139e+02,9.781255e+02
2.998782e+02,9.784531e+02
3.008424e+02,9.816700e+02
3.018066e+02,9.854200e+02
3.027709e+02,9.875307e+02
3.037351e+02,9.868741e+02
3.046993e+02,9.845341e+02
3.056636e+02,9.823964e+02
3.066278e+02,9.801834e+02
3.075920e+02,9.793962e+02
3.085563e+02,9.817457e+02
3.095205e+02,9.862482e+02
3.104847e+02,9.902179e+02
3.114490e+02,9.916772e+02
3.124132e+02,9.915291e+02
3.133774e+02,9.920979e+02
3.143417e+02,9.940107e+02
3.153059e+02,9.956143e+02
3.162701e+02,9.948058e+02
3.172344e+02,9.909179e+02
3.181986e+02,9.877316e+02
3.191628e+02,9.866564e+02
3.201271e+02,9.871324e+02
3.210913e+02,9.880923e+02
3.220555e+02,9.890441e+02
3.230198e+02,9.899265e+02
3.239840e+02,9.908147e+02
3.249482e+02,9.918376e+02
3.259125e+02,9.926207e+02
3.268767e+02,9.929570e+02
3.278409e+02,9.929766e+02
3.288052e+02,9.929828e+02
3.297694e+02,9.933352e+02
3.307336e+02,9.941985e+02
3.316979e+02,9.943594e+02
3.326621e+02,9.923828e+02
3.336263e+02,9.904584e+02
3.345906e+02,9.902974e+02
3.355548e+02,9.926543e+02
3.365190e+02,9.953044e+02
3.374833e+02,9.948600e+02
3.384475e+02,9.907318e+02
3.394117e+02,9.881154e+02
3.403760e+02,9.898262e+02
3.413402e+02,9.937601e+02
3.423044e+02,9.962000e+02
3.432687e+02,9.950275e+02
3.442329e+02,9.929933e+02
3.451971e+02,9.923825e+02
3.461614e+02,9.930051e+02
3.471256e+02,9.938524e+02
3.480898e+02,9.946466e+02
3.490541e+02,9.959489e+02
3.500183e+02,9.961732e+02
3.509825e+02,9.943203e+02
3.519468e+02,9.924260e+02
3.529110e+02,9.919443e+02
3.538752e+02,9.930583e+02
3.548395e+02,9.949980e+02
3.558037e+02,9.968180e+02
3.567680e+02,9.989366e+02
3.577322e+02,1.000232e+03
3.586964e+02,1.000951e+03
3.596607e+02,1.001213e+03
3.606249e+02,1.000751e+03
3.615891e+02,9.986387e+02
3.625534e+02,9.954034e+02
3.635176e+02,9.930239e+02
3.644818e+02,9.919867e+02
3.654461e+02,9.917607e+02
3.664103e+02,9.927995e+02
3.673745e+02,9.953077e+02
3.683388e+02,9.979843e+02
3.693030e+02,9.998630e+02
3.702672e+02,1.001103e+03
3.712315e+02,1.002117e+03
3.721957e+02,1.002869e+03
3.731599e+02,1.003388e+03
3.741242e+02,1.004083e+03
3.750884e+02,1.006350e+03
3.760526e+02,1.008089e+03
3.770169e+02,1.009188e+03
3.779811e+02,1.009434e+03
3.789453e+02,1.008374e+03
3.799096e+02,1.005583e+03
3.808738e+02,1.001482e+03
3.818380e+02,9.979434e+02
3.828023e+02,9.956534e+02
3.837665e+02,9.939975e+02
3.847307e+02,9.920375e+02
3.856950e+02,9.902884e+02
3.866592e+02,9.899432e+02
3.876234e+02,9.928302e+02
3.885877e+02,9.976438e+02
3.895519e+02,1.000527e+03
3.905161e+02,1.000732e+03
3.914804e+02,9.995352e+02
3.924446e+02,9.984041e+02
3.934088e+02,9.978173e+02
3.943731e+02,9.965632e+02
3.953373e+02,9.935585e+02
3.963015e+02,9.897878e+02
3.972658e+02,9.865583e+02
3.982300e+02,9.844221e+02
3.991942e+02,9.836151e+02
4.001585e+02,9.840038e+02
4.011227e+02,9.859172e+02
4.020869e+02,9.880280e+02
4.030512e+02,9.903482e+02
4.040154e+02,9.923282e+02
4.049796e+02,9.934708e+02
4.059439e+02,9.931580e+02
4.069081e+02,9.917867e+02
4.078723e+02,9.909172e+02
4.088366e+02,9.904922e+02
4.098008e+02,9.899332e+02
4.107650e+02,9.893312e+02
4.117293e+02,9.888041e+02
4.126935e+02,9.885698e+02
4.136577e+02,9.889977e+02
4.146220e+02,9.896505e+02
4.155862e+02,9.899495e+02
4.165504e+02,9.898059e+02
4.175147e+02,9.893257e+02
4.184789e+02,9.886115e+02
4.194431e+02,9.869832e+02
4.204074e+02,9.858746e+02
4.213716e+02,9.851523e+02
4.223358e+02,9.849800e+02
4.233001e+02,9.858092e+02
4.242643e+02,9.881774e+02
4.252285e+02,9.911473e+02
4.261928e+02,9.921395e+02
4.271570e+02,9.902422e+02
4.281212e+02,9.886326e+02
4.290855e+02,9.889639e+02
4.300497e+02,9.903663e+02
4.310139e+02,9.910900e+02
4.319782e+02,9.905482e+02
4.329424e+02,9.893444e+02
4.339066e+02,9.878183e+02
4.348709e+02,9.858714e+02
4.358351e+02,9.838672e+02
4.367993e+02,9.823102e+02
4.377636e+02,9.818289e+02
4.387278e+02,9.802354e+02
4.396920e+02,9.756699e+02
4.406563e+02,9.714774e+02
4.416205e+02,9.702150e+02
4.425847e+02,9.724361e+02
4.435490e+02,9.761202e+02
4.445132e+02,9.786866e+02
4.454774e+02,9.800248e+02
4.464417e+02,9.815291e+02
4.474059e+02,9.841261e+02
4.483701e+02,9.864743e+02
4.493344e+02,9.870371e+02
4.502986e+02,9.840966e+02
4.512628e+02,9.811219e+02
4.522271e+02,9.807828e+02
4.531913e+02,9.826326e+02
4.541555e+02,9.847488e+02
4.551198e+02,9.861669e+02
4.560840e+02,9.869324e+02
4.570482e+02,9.858929e+02
4.580125e+02,9.813294e+02
4.589767e+02,9.775052e+02
4.599409e+02,9.756644e+02
4.609052e+02,9.754300e+02
4.618694e+02,9.757598e+02
4.628336e+02,9.764619e+02
4.637979e+02,9.774669e+02
4.647621e+02,9.774761e+02
4.657263e+02,9.764798e+02
4.666906e+02,9.750085e+02
4.676548e+02,9.728674e+02
4.686190e+02,9.693550e+02
4.695833e+02,9.668824e+02
4.705475e+02,9.670607e+02
4.715117e+02,9.683863e+02
4.724760e+02,9.689215e+02
4.734402e+02,9.681066e+02
4.744044e+02,9.661697e+02
4.753687e+02,9.632784e+02
4.763329e+02,9.573816e+02
4.772971e+02,9.538683e+02
4.782614e+02,9.553672e+02
4.792256e+02,9.590069e+02
4.801898e+02,9.610274e+02
4.811541e+02,9.585844e+02
4.821183e+02,9.545683e+02
4.830826e+02,9.529369e+02
4.840468e+02,9.536826e+02
4.850110e+02,9.557849e+02
4.859753e+02,9.593953e+02
4.869395e+02,9.646054e+02
4.879037e+02,9.674533e+02
4.888680e+02,9.665818e+02
4.898322e+02,9.648156e+02
4.907964e+02,9.634271e+02
4.917607e+02,9.626336e+02
4.927249e+02,9.622620e+02
4.936891e+02,9.620430e+02
4.946534e+02,9.619207e+02
4.956176e+02,9.624706e+02
4.965818e+02,9.644666e+02
4.975461e+02,9.665287e+02
4.985103e+02,9.673982e+02
4.994745e+02,9.666749e+02
5.004388e+02,9.654250e+02
5.014030e+02,9.641656e+02
5.023672e+02,9.629940e+02
5.033315e+02,9.619794e+02
5.042957e+02,9.611194e+02
5.052599e+02,9.600790e+02
5.062242e+02,9.582468e+02
5.071884e+02,9.540235e+02
5.081526e+02,9.519437e+02
5.091169e+02,9.539575e+02
5.100811e+02,9.579565e+02
5.110453e+02,9.614232e+02
5.120095e+02,9.637413e+02
5.129738e+02,9.650074e+02
5.139380e+02,9.645989e+02
5.149022e+02,9.625895e+02
5.158665e+02,9.615525e+02
5.168307e+02,9.630978e+02
5.177949e+02,9.666127e+02
5.187592e+02,9.669877e+02
5.197234e+02,9.615555e+02
5.206876e+02,9.573741e+02
5.216519e+02,9.587256e+02
5.226161e+02,9.642112e+02
5.235803e+02,9.690150e+02
5.245446e+02,9.684687e+02
5.255088e+02,9.634467e+02
5.264730e+02,9.604095e+02
5.274373e+02,9.602254e+02
5.284015e+02,9.606647e+02
5.293657e+02,9.593400e+02
5.303300e+02,9.559784e+02
5.312942e+02,9.536633e+02
5.322584e+02,9.546083e+02
5.332227e+02,9.566557e+02
5.341869e+02,9.573839e+02
5.351511e+02,9.561649e+02
5.361154e+02,9.541171e+02
5.370796e+02,9.528876e+02
5.380438e+02,9.528045e+02
5.390081e+02,9.527844e+02
5.399723e+02,9.527408e+02
5.409365e+02,9.528640e+02
5.419008e+02,9.530293e+02
5.428650e+02,9.527857e+02
5.438292e+02,9.527444e+02
5.447935e+02,9.536757e+02
5.457577e+02,9.550905e+02
5.467219e+02,9.559417e+02
5.476862e+02,9.557911e+02
5.486504e+02,9.549052e+02
5.496146e+02,9.541806e+02
5.505789e+02,9.539198e+02
5.515431e+02,9.532356e+02
5.525073e+02,9.513860e+02
5.534716e+02,9.497652e+02
5.544358e+02,9.499481e+02
5.554000e+02,9.543987e+02
5.563643e+02,9.590027e+02
5.573285e+02,9.589999e+02
5.582927e+02,9.548291e+02
5.592570e+02,9.502520e+02
5.602212e+02,9.475386e+02
5.611854e+02,9.466091e+02
5.621497e+02,9.466734e+02
5.631139e+02,9.509453e+02
5.640781e+02,9.526697e+02
5.650424e+02,9.479343e+02
5.660066e+02,9.387018e+02
5.669708e+02,9.316025e+02
5.679351e+02,9.321740e+02
5.688993e+02,9.369880e+02
5.698635e+02,9.401464e+02
5.708278e+02,9.413147e+02
5.717920e+02,9.413076e+02
5.727562e+02,9.403781e+02
5.737205e+02,9.376393e+02
5.746847e+02,9.362245e+02
5.756489e+02,9.361413e+02
5.766132e+02,9.369530e+02
5.775774e+02,9.393495e+02
5.785416e+02,9.432338e+02
5.795059e+02,9.460156e+02
5.804701e+02,9.452260e+02
5.814343e+02,9.416586e+02
5.823986e+02,9.375554e+02
5.833628e+02,9.330988e+02
5.843270e+02,9.291062e+02
5.852913e+02,9.265445e+02
5.862555e+02,9.254904e+02
5.872197e+02,9.259496e+02
5.881840e+02,9.295452e+02
5.891482e+02,9.334852e+02
5.901124e+02,9.349797e+02
5.910767e+02,9.328230e+02
5.920409e+02,9.308594e+02
5.930051e+02,9.343016e+02
5.939694e+02,9.418686e+02
5.949336e+02,9.465051e+02
5.958978e+02,9.457562e+02
5.968621e+02,9.413919e+02
5.978263e+02,9.375693e+02
5.987905e+02,9.344542e+02
5.997548e+02,9.320417e+02
6.007190e+02,9.315624e+02
6.016832e+02,9.315411e+02
6.026475e+02,9.295872e+02
6.036117e+02,9.229210e+02
6.045759e+02,9.166207e+02
6.055402e+02,9.185575e+02
6.065044e+02,9.275519e+02
6.074686e+02,9.340668e+02
6.084329e+02,9.334736e+02
6.093971e+02,9.276004e+02
6.103613e+02,9.250478e+02
6.113256e+02,9.299680e+02
6.122899e+02,9.339659e+02
6.132541e+02,9.361838e+02
6.142183e+02,9.363943e+02
6.151826e+02,9.343538e+02
6.161468e+02,9.274841e+02
6.171110e+02,9.202968e+02
6.180753e+02,9.193842e+02
6.190395e+02,9.239912e+02
6.200037e+02,9.276580e+02
6.209680e+02,9.261129e+02
6.219322e+02,9.198281e+02
6.228964e+02,9.160048e+02
6.238607e+02,9.155453e+02
6.248249e+02,9.166292e+02
6.257891e+02,9.199594e+02
6.267534e+02,9.242030e+02
6.277176e+02,9.261882e+02
6.286818e+02,9.227808e+02
6.296461e+02,9.180081e+02
6.306103e+02,9.168047e+02
6.315745e+02,9.189773e+02
6.325388e+02,9.208732e+02
6.335030e+02,9.191045e+02
6.344672e+02,9.133263e+02
6.354315e+02,9.101761e+02
6.363957e+02,9.108870e+02
6.373599e+02,9.124879e+02
6.383242e+02,9.141710e+02
6.392884e+02,9.159590e+02
6.402526e+02,9.169662e+02
6.412169e+02,9.163861e+02
6.421811e+02,9.151674e+02
6.431453e+02,9.142029e+02
6.441096e+02,9.135113e+02
6.450738e+02,9.126638e+02
6.460380e+02,9.110319e+02
6.470023e+02,9.087601e+02
6.479665e+02,9.084164e+02
6.489307e+02,9.110665e+02
6.498950e+02,9.136494e+02
6.508592e+02,9.130087e+02
6.518234e+02,9.086406e+02
6.527877e+02,9.058137e+02
6.537519e+02,9.069182e+02
6.547161e+02,9.088409e+02
6.556804e+02,9.090619e+02
6.566446e+02,9.075097e+02
6.576088e+02,9.060109e+02
6.585731e+02,9.065295e+02
6.595373e+02,9.086786e+02
6.605015e+02,9.101152e+02
6.614658e+02,9.104857e+02
6.624300e+02,9.105801e+02
6.633942e+02,9.111794e+02
6.643585e+02,9.125088e+02
6.653227e+02,9.136306e+02
6.662869e+02,9.146980e+02
6.672512e+02,9.151880e+02
6.682154e+02,9.148903e+02
6.691796e+02,9.136468e+02
6.701439e+02,9.113588e+02
6.711081e+02,9.063157e+02
6.720723e+02,9.004807e+02
6.730366e+02,8.986484e+02
6.740008e+02,9.018673e+02
6.749650e+02,9.065726e+02
6.759293e+02,9.086066e+02
6.768935e+02,9.072759e+02
6.778577e+02,9.056691e+02
6.788220e+02,9.038433e+02
6.797862e+02,9.022099e+02
6.807504e+02,9.002885e+02
6.817147e+02,8.974616e+02
6.826789e+02,8.962472e+02
6.836431e+02,8.992148e+02
6.846074e+02,9.031210e+02
6.855716e+02,9.043614e+02
6.865358e+02,9.024991e+02
6.875001e+02,8.999274e+02
6.884643e+02,8.997732e+02
6.894285e+02,9.020362e+02
6.903928e+02,9.023839e+02
6.913570e+02,8.993710e+02
6.923212e+02,8.956038e+02
6.932855e+02,8.942303e+02
6.942497e+02,8.980204e+02
6.952139e+02,8.993499e+02
6.961782e+02,8.948380e+02
6.971424e+02,8.898165e+02
6.981066e+02,8.883690e+02
6.990709e+02,8.909445e+02
7.000351e+02,8.935651e+02
7.009993e+02,8.924391e+02
7.019636e+02,8.899352e+02
7.029278e+02,8.916309e+02
7.038920e+02,8.986346e+02
7.048563e+02,9.064236e+02
7.058205e+02,9.095745e+02
7.067847e+02,9.073441e+02
7.077490e+02,9.041702e+02
7.087132e+02,8.987997e+02
7.096774e+02,8.944852e+02
7.106417e+02,8.933542e+02
7.116059e+02,8.960693e+02
7.125701e+02,8.981647e+02
7.135344e+02,8.987121e+02
7.144986e+02,8.983223e+02
7.154628e+02,8.967255e+02
7.164271e+02,8.939838e+02
7.173913e+02,8.918844e+02
7.183555e+02,8.938486e+02
7.193198e+02,8.984913e+02
7.202840e+02,8.978952e+02
7.212482e+02,8.900914e+02
7.222125e+02,8.815574e+02
7.231767e+02,8.792861e+02
7.241409e+02,8.862853e+02
7.251052e+02,8.904006e+02
7.260694e+02,8.894772e+02
7.270336e+02,8.873031e+02
7.279979e+02,8.859002e+02
7.289621e+02,8.854376e+02
7.299263e+02,8.852438e+02
7.308906e+02,8.851572e+02
7.318548e+02,8.849599e+02
7.328190e+02,8.843585e+02
7.337833e+02,8.834017e+02
7.347475e+02,8.826356e+02
7.357117e+02,8.833656e+02
7.366760e+02,8.854649e+02
7.376402e+02,8.854915e+02
7.386044e+02,8.827737e+02
7.395687e+02,8.795486e+02
7.405329e+02,8.774099e+02
7.414971e+02,8.764443e+02
7.424614e+02,8.759606e+02
7.434256e+02,8.766736e+02
7.443898e+02,8.780886e+02
7.453541e+02,8.803478e+02
7.463183e+02,8.827084e+02
7.472825e+02,8.829974e+02
7.482468e+02,8.785110e+02
7.492110e+02,8.726185e+02
7.501752e+02,8.694802e+02
7.511395e+02,8.693170e+02
7.521037e+02,8.695889e+02
7.530679e+02,8.669379e+02
7.540322e+02,8.619843e+02
7.549964e+02,8.620414e+02
7.559606e+02,8.689018e+02
7.569249e+02,8.753239e+02
7.578891e+02,8.766110e+02
7.588533e+02,8.725804e+02
7.598176e+02,8.691033e+02
7.607818e+02,8.639001e+02
7.617460e+02,8.600856e+02
7.627103e+02,8.608517e+02
7.636745e+02,8.648483e+02
7.646387e+02,8.666972e+02
7.656030e+02,8.615159e+02
7.665672e+02,8.554144e+02
7.675314e+02,8.533415e+02
7.684957e+02,8.540833e+02
7.694599e+02,8.546403e+02
7.704241e+02,8.534700e+02
7.713884e+02,8.516726e+02
7.723526e+02,8.515505e+02
7.733168e+02,8.533578e+02
7.742811e+02,8.567543e+02
7.752453e+02,8.621057e+02
7.762095e+02,8.681882e+02
7.771738e+02,8.696514e+02
7.781380e+02,8.613182e+02
7.791022e+02,8.540967e+02
7.800665e+02,8.515032e+02
7.810307e+02,8.515906e+02
7.819949e+02,8.510427e+02
7.829592e+02,8.480670e+02
7.839234e+02,8.459092e+02
7.848876e+02,8.466059e+02
7.858519e+02,8.488132e+02
7.868161e+02,8.505413e+02
7.877803e+02,8.509857e+02
7.887446e+02,8.504987e+02
7.897088e+02,8.495145e+02
7.906730e+02,8.484088e+02
7.916373e+02,8.477819e+02
7.926015e+02,8.474119e+02
7.935657e+02,8.467732e+02
7.945300e+02,8.457553e+02
7.954942e+02,8.442538e+02
7.964584e+02,8.436576e+02
7.974227e+02,8.461758e+02
7.983869e+02,8.497614e+02
7.993511e+02,8.508339e+02
8.003154e+02,8.467847e+02
8.012796e+02,8.435369e+02
8.022438e+02,8.424921e+02
8.032081e+02,8.430836e+02
8.041723e+02,8.451463e+02
8.051365e+02,8.485751e+02
8.061008e+02,8.517428e+02
8.070650e+02,8.535507e+02
8.080292e+02,8.539498e+02
8.089935e+02,8.528529e+02
8.099577e+02,8.505438e+02
8.109219e+02,8.482750e+02
8.118862e+02,8.471513e+02
8.128504e+02,8.471546e+02
8.138146e+02,8.482303e+02
8.147789e+02,8.509410e+02
8.157431e+02,8.525409e+02
8.167073e+02,8.503879e+02
8.176716e+02,8.436698e+02
8.186358e+02,8.405637e+02
8.196000e+02,8.443469e+02
8.205643e+02,8.486183e+02
8.215285e+02,8.506686e+02
8.224927e+02,8.505173e+02
8.234570e+02,8.494613e+02
8.244212e+02,8.471670e+02
8.253854e+02,8.446930e+02
8.263497e+02,8.419639e+02
8.273139e+02,8.391905e+02
8.282781e+02,8.374075e+02
8.292424e+02,8.386533e+02
8.302066e+02,8.410334e+02
8.311708e+02,8.406913e+02
8.321351e+02,8.383417e+02
8.330993e+02,8.379436e+02
8.340635e+02,8.418909e+02
8.350278e+02,8.482313e+02
8.359920e+02,8.514418e+02
8.369562e+02,8.513173e+02
8.379205e+02,8.490272e+02
8.388847e+02,8.437847e+02
8.398489e+02,8.373560e+02
8.408132e+02,8.341716e+02
8.417774e+02,8.372994e+02
8.427416e+02,8.390243e+02
8.437059e+02,8.367204e+02
8.446701e+02,8.336256e+02
8.456343e+02,8.337233e+02
8.465986e+02,8.406750e+02
8.475628e+02,8.443265e+02
8.485270e+02,8.377479e+02
8.494913e+02,8.280480e+02
8.504555e+02,8.225508e+02
8.514197e+02,8.231312e+02
8.523840e+02,8.263437e+02
8.533482e+02,8.310568e+02
8.543124e+02,8.357377e+02
8.552767e+02,8.369869e+02
8.562409e+02,8.344013e+02
8.572051e+02,8.312272e+02
8.581694e+02,8.318320e+02
8.591336e+02,8.358020e+02
8.600978e+02,8.361512e+02
8.610621e+02,8.320587e+02
8.620263e+02,8.277655e+02
8.629905e+02,8.262430e+02
8.639548e+02,8.273669e+02
8.649190e+02,8.275900e+02
8.658832e+02,8.264776e+02
8.668475e+02,8.258441e+02
8.678117e+02,8.267783e+02
8.687759e+02,8.288716e+02
8.697402e+02,8.305261e+02
8.707044e+02,8.299129e+02
8.716686e+02,8.298031e+02
8.726329e+02,8.323600e+02
8.735971e+02,8.365313e+02
8.745613e+02,8.400477e+02
8.755256e+02,8.430026e+02
8.764898e+02,8.445817e+02
8.774540e+02,8.433986e+02
8.784183e+02,8.402857e+02
8.793825e+02,8.365081e+02
8.803467e+02,8.322903e+02
8.813110e+02,8.286123e+02
8.822752e+02,8.272131e+02
8.832394e+02,8.277144e+02
8.842037e+02,8.279471e+02
8.851679e+02,8.270986e+02
8.861321e+02,8.263209e+02
8.870964e+02,8.281898e+02
8.880606e+02,8.329073e+02
8.890248e+02,8.343064e+02
8.899891e+02,8.313211e+02
8.909533e+02,8.272809e+02
8.919175e+02,8.252641e+02
8.928818e+02,8.260586e+02
8.938460e+02,8.250500e+02
8.948102e+02,8.194602e+02
8.957745e+02,8.146569e+02
8.967387e+02,8.147672e+02
8.977029e+02,8.193178e+02
8.986672e+02,8.215051e+02
8.996314e+02,8.199538e+02
9.005956e+02,8.177302e+02
9.015599e+02,8.152160e+02
9.025241e+02,8.127709e+02
9.034883e+02,8.113615e+02
9.044526e+02,8.125425e+02
9.054168e+02,8.133185e+02
9.063810e+02,8.126325e+02
9.073453e+02,8.110018e+02
9.083095e+02,8.082354e+02
9.092737e+02,8.030800e+02
9.102380e+02,7.985397e+02
9.112022e+02,7.994791e+02
9.121664e+02,8.036789e+02
9.131307e+02,8.055146e+02
9.140949e+02,8.035507e+02
9.150591e+02,8.006182e+02
9.160234e+02,7.997598e+02
9.169876e+02,8.004105e+02
9.179518e+02,8.019275e+02
9.189161e+02,8.046088e+02
9.198803e+02,8.061134e+02
9.208445e+02,8.035145e+02
9.218088e+02,7.962781e+02
9.227730e+02,7.920646e+02
9.237372e+02,7.919107e+02
9.247015e+02,7.920038e+02
9.256657e+02,7.896464e+02
9.266299e+02,7.846339e+02
9.275942e+02,7.813009e+02
9.285584e+02,7.799228e+02
9.295226e+02,7.795785e+02
9.304869e+02,7.808018e+02
9.314511e+02,7.831008e+02
9.324153e+02,7.844896e+02
9.333796e+02,7.836638e+02
9.343438e+02,7.831801e+02
9.353080e+02,7.845538e+02
9.362723e+02,7.860272e+02
9.372365e+02,7.852436e+02
9.382007e+02,7.800313e+02
9.391650e+02,7.763524e+02
9.401292e+02,7.784659e+02
9.410934e+02,7.827245e+02
9.420577e+02,7.844693e+02
9.430219e+02,7.823192e+02
9.439861e+02,7.799919e+02
9.449504e+02,7.814771e+02
9.459146e+02,7.846036e+02
9.468788e+02,7.857724e+02
9.478431e+02,7.841816e+02
9.488073e+02,7.811484e+02
9.497715e+02,7.772731e+02
9.507358e+02,7.734933e+02
9.517000e+02,7.720504e+02
9.526642e+02,7.730446e+02
9.536285e+02,7.745378e+02
9.545927e+02,7.750448e+02
9.555569e+02,7.750274e+02
9.565212e+02,7.764998e+02
9.574854e+02,7.797990e+02
9.584496e+02,7.822737e+02
9.594139e+02,7.824164e+02
9.603781e+02,7.808422e+02
9.613423e+02,7.797097e+02
9.623066e+02,7.792734e+02
9.632708e+02,7.781142e+02
9.642350e+02,7.756062e+02
9.651993e+02,7.732142e+02
9.661635e+02,7.729831e+02
9.671277e+02,7.765987e+02
9.680920e+02,7.774410e+02
9.690562e+02,7.730984e+02
9.700204e+02,7.683766e+02
9.709847e+02,7.675989e+02
9.719489e+02,7.722449e+02
9.729131e+02,7.743563e+02
9.738774e+02,7.726780e+02
9.748416e+02,7.701877e+02
9.758058e+02,7.663982e+02
9.767701e+02,7.618835e+02
9.777343e+02,7.606737e+02
9.786985e+02,7.672849e+02
9.796628e+02,7.727685e+02
9.806270e+02,7.732626e+02
9.815912e+02,7.708516e+02
9.825555e+02,7.692126e+02
9.835197e+02,7.704941e+02
9.844839e+02,7.717474e+02
9.854482e+02,7.718221e+02
9.864124e+02,7.713364e+02
9.873766e+02,7.707452e+02
9.883409e+02,7.702300e+02
9.893051e+02,7.696508e+02
9.902693e+02,7.684174e+02
9.912336e+02,7.674333e+02
9.921978e+02,7.673426e+02
9.931620e+02,7.680196e+02
9.941263e+02,7.693347e+02
9.950905e+02,7.725163e+02
9.960547e+02,7.756830e+02
9.970190e+02,7.762209e+02
9.979832e+02,7.744007e+02
9.989474e+02,7.717874e+02
9.999117e+02,7.691871e+02
1.000876e+03,7.670374e+02
1.001840e+03,7.663170e+02
1.002804e+03,7.667320e+02
1.003769e+03,7.665125e+02
1.004733e+03,7.646666e+02
1.005697e+03,7.623958e+02
1.006661e+03,7.614623e+02
1.007626e+03,7.618096e+02
1.008590e+03,7.633049e+02
1.009554e+03,7.658255e+02
1.010518e+03,7.678478e+02
1.011482e+03,7.674555e+02
1.012447e+03,7.649998e+02
1.013411e+03,7.636963e+02
1.014375e+03,7.641309e+02
1.015339e+03,7.645074e+02
1.016304e+03,7.629000e+02
1.017268e+03,7.599177e+02
1.018232e+03,7.602902e+02
1.019196e+03,7.645214e+02
1.020161e+03,7.671937e+02
1.021125e+03,7.659341e+02
1.022089e+03,7.625094e+02
1.023053e+03,7.612791e+02
1.024018e+03,7.626796e+02
1.024982e+03,7.622848e+02
1.025946e+03,7.581560e+02
1.026910e+03,7.533209e+02
1.027875e+03,7.526612e+02
1.028839e+03,7.584181e+02
1.029803e+03,7.613132e+02
1.030767e+03,7.598030e+02
1.031731e+03,7.581053e+02
1.032696e+03,7.594272e+02
1.033660e+03,7.639122e+02
1.034624e+03,7.658997e+02
1.035588e+03,7.645824e+02
1.036552e+03,7.626573e+02
1.037517e+03,7.604289e+02
1.038481e+03,7.580648e+02
1.039445e+03,7.570904e+02
1.040409e+03,7.585614e+02
1.041374e+03,7.597433e+02
1.042338e+03,7.604399e+02
1.043302e+03,7.608261e+02
1.044266e+03,7.609540e+02
1.045231e+03,7.609365e+02
1.046195e+03,7.602409e+02
1.047159e+03,7.587103e+02
1.048123e+03,7.569464e+02
1.049088e+03,7.553297e+02
1.050052e+03,7.541300e+02
1.051016e+03,7.528941e+02
1.051980e+03,7.504080e+02
1.052945e+03,7.489556e+02
1.053909e+03,7.494759e+02
1.054873e+03,7.512045e+02
1.055837e+03,7.525683e+02
1.056802e+03,7.552087e+02
1.057766e+03,7.559025e+02
1.058730e+03,7.520435e+02
1.059694e+03,7.469872e+02
1.060658e+03,7.449111e+02
1.061623e+03,7.487767e+02
1.062587e+03,7.510714e+02
1.063551e+03,7.491756e+02
1.064515e+03,7.469008e+02
1.065479e+03,7.475753e+02
1.066444e+03,7.518935e+02
1.067408e+03,7.531475e+02
1.068372e+03,7.467081e+02
1.069336e+03,7.406358e+02
1.070301e+03,7.378148e+02
1.071265e+03,7.378052e+02
1.072229e+03,7.393355e+02
1.073193e+03,7.450927e+02
1.074158e+03,7.488459e+02
1.075122e+03,7.475515e+02
1.076086e+03,7.440607e+02
1.077050e+03,7.418634e+02
1.078015e+03,7.419921e+02
1.078979e+03,7.434134e+02
1.079943e+03,7.465035e+02
1.080907e+03,7.501172e+02
1.081872e+03,7.536026e+02
1.082836e+03,7.566730e+02
1.083800e+03,7.584411e+02
1.084764e+03,7.577477e+02
1.085729e+03,7.571113e+02
1.086693e+03,7.578223e+02
1.087657e+03,7.593029e+02
1.088621e+03,7.601552e+02
1.089585e+03,7.594953e+02
1.090550e+03,7.585546e+02
1.091514e+03,7.583136e+02
1.092478e+03,7.582087e+02
1.093442e+03,7.572918e+02
1.094406e+03,7.549227e+02
1.095371e+03,7.535497e+02
1.096335e+03,7.548264e+02
1.097299e+03,7.559714e+02
1.098263e+03,7.549196e+02
1.099228e+03,7.516241e+02
1.100192e+03,7.487764e+02
1.101156e+03,7.472108e+02
1.102120e+03,7.456481e+02
1.103085e+03,7.436425e+02
1.104049e+03,7.413865e+02
1.105013e+03,7.392897e+02
1.105977e+03,7.366437e+02
1.106942e+03,7.352894e+02
1.107906e+03,7.365401e+02
1.108870e+03,7.386295e+02
1.109834e+03,7.399354e+02
1.110799e+03,7.401664e+02
1.111763e+03,7.403798e+02
1.112727e+03,7.410795e+02
1.113691e+03,7.416428e+02
1.114656e+03,7.412119e+02
1.115620e+03,7.400375e+02
1.116584e+03,7.400336e+02
1.117548e+03,7.429081e+02
1.118512e+03,7.444485e+02
1.119477e+03,7.425644e+02
1.120441e+03,7.392613e+02
1.121405e+03,7.376995e+02
1.122369e+03,7.401134e+02
1.123334e+03,7.409725e+02
1.124298e+03,7.396113e+02
1.125262e+03,7.375316e+02
1.126226e+03,7.357927e+02
1.127191e+03,7.345297e+02
1.128155e+03,7.327651e+02
1.129119e+03,7.282617e+02
1.130083e+03,7.261194e+02
1.131047e+03,7.303400e+02
1.132012e+03,7.378688e+02
1.132976e+03,7.387380e+02
1.133940e+03,7.278455e+02
1.134904e+03,7.205091e+02
1.135869e+03,7.199435e+02
1.136833e+03,7.230725e+02
1.137797e+03,7.268117e+02
1.138761e+03,7.320225e+02
1.139726e+03,7.355051e+02
1.140690e+03,7.370923e+02
1.141654e+03,7.368568e+02
1.142618e+03,7.341407e+02
1.143583e+03,7.295089e+02
1.144547e+03,7.270306e+02
1.145511e+03,7.269061e+02
1.146475e+03,7.282718e+02
1.147439e+03,7.312873e+02
1.148404e+03,7.350010e+02
1.149368e+03,7.380907e+02
1.150332e+03,7.407609e+02
1.151296e+03,7.390254e+02
1.152261e+03,7.313832e+02
1.153225e+03,7.223775e+02
1.154189e+03,7.163538e+02
1.155153e+03,7.133255e+02
1.156118e+03,7.106887e+02
1.157082e+03,7.086579e+02
1.158046e+03,7.078485e+02
1.159010e+03,7.083892e+02
1.159974e+03,7.098420e+02
1.160939e+03,7.118056e+02
1.161903e+03,7.139180e+02
1.162867e+03,7.144069e+02
1.163831e+03,7.127875e+02
1.164796e+03,7.110200e+02
1.165760e+03,7.116812e+02
1.166724e+03,7.140460e+02
1.167688e+03,7.165589e+02
1.168653e+03,7.188792e+02
1.169617e+03,7.194149e+02
1.170581e+03,7.167479e+02
1.171545e+03,7.125154e+02
1.172510e+03,7.077740e+02
1.173474e+03,7.035029e+02
1.174438e+03,7.021856e+02
1.175402e+03,7.047404e+02
1.176366e+03,7.080187e+02
1.177331e+03,7.095264e+02
1.178295e+03,7.101441e+02
1.179259e+03,7.108251e+02
1.180223e+03,7.114766e+02
1.181188e+03,7.116439e+02
1.182152e+03,7.114023e+02
1.183116e+03,7.103503e+02
1.184080e+03,7.076642e+02
1.185045e+03,7.044023e+02
1.186009e+03,7.022667e+02
1.186973e+03,7.026243e+02
1.187937e+03,7.028019e+02
1.188901e+03,7.009555e+02
1.189866e+03,6.988626e+02
1.190830e+03,6.981982e+02
1.191794e+03,6.990201e+02
1.192758e+03,6.987982e+02
1.193723e+03,6.959111e+02
1.194687e+03,6.936610e+02
1.195651e+03,6.932379e+02
1.196615e+03,6.942314e+02
1.197580e+03,6.956237e+02
1.198544e+03,6.988561e+02
1.199508e+03,6.990655e+02
1.200472e+03,6.939486e+02
1.201437e+03,6.884682e+02
1.202401e+03,6.870803e+02
1.203365e+03,6.905434e+02
1.204329e+03,6.935621e+02
1.205293e+03,6.962840e+02
1.206258e+03,6.979238e+02
1.207222e+03,6.979201e+02
1.208186e+03,6.965583e+02
1.209150e+03,6.944391e+02
1.210115e+03,6.911100e+02
1.211079e+03,6.899905e+02
1.212043e+03,6.922063e+02
1.213007e+03,6.947465e+02
1.213972e+03,6.938175e+02
1.214936e+03,6.903347e+02
1.215900e+03,6.892565e+02
1.216864e+03,6.905264e+02
1.217828e+03,6.909676e+02
1.218793e+03,6.882181e+02
1.219757e+03,6.844445e+02
1.220721e+03,6.836974e+02
1.221685e+03,6.849380e+02
1.222650e+03,6.851199e+02
1.223614e+03,6.832034e+02
1.224578e+03,6.804915e+02
1.225542e+03,6.771275e+02
1.226507e+03,6.746760e+02
1.227471e+03,6.754859e+02
1.228435e+03,6.788043e+02
1.229399e+03,6.816599e+02
1.230364e+03,6.839161e+02
1.231328e+03,6.842663e+02
1.232292e+03,6.812582e+02
1.233256e+03,6.768033e+02
1.234220e+03,6.726266e+02
1.235185e+03,6.685947e+02
1.236149e+03,6.669554e+02
1.237113e+03,6.702195e+02
1.238077e+03,6.743132e+02
1.239042e+03,6.762652e+02
1.240006e+03,6.761042e+02
1.240970e+03,6.769997e+02
1.241934e+03,6.800410e+02
1.242899e+03,6.822154e+02
1.243863e+03,6.833893e+02
1.244827e+03,6.833066e+02
1.245791e+03,6.809925e+02
1.246755e+03,6.756481e+02
1.247720e+03,6.730162e+02
1.248684e+03,6.737025e+02
1.249648e+03,6.750385e+02
1.250612e+03,6.750683e+02
1.251577e+03,6.744411e+02
1.252541e+03,6.763953e+02
1.253505e+03,6.803432e+02
1.254469e+03,6.819160e+02
1.255434e+03,6.797840e+02
1.256398e+03,6.768011e+02
1.257362e+03,6.757161e+02
1.258326e+03,6.759446e+02
1.259291e+03,6.771224e+02
1.260255e+03,6.788663e+02
1.261219e+03,6.800244e+02
1.262183e+03,6.805387e+02
1.263147e+03,6.803552e+02
1.264112e+03,6.787778e+02
1.265076e+03,6.765696e+02
1.266040e+03,6.746642e+02
1.267004e+03,6.732733e+02
1.267969e+03,6.724437e+02
1.268933e+03,6.726876e+02
1.269897e+03,6.736345e+02
1.270861e+03,6.744503e+02
1.271826e+03,6.747479e+02
1.272790e+03,6.757882e+02
1.273754e+03,6.787556e+02
1.274718e+03,6.807957e+02
1.275682e+03,6.811695e+02
1.276647e+03,6.812868e+02
1.277611e+03,6.830911e+02
1.278575e+03,6.869852e+02
1.279539e+03,6.880723e+02
1.280504e+03,6.862081e+02
1.281468e+03,6.850555e+02
1.282432e+03,6.867355e+02
1.283396e+03,6.901779e+02
1.284361e+03,6.929756e+02
1.285325e+03,6.950679e+02
1.286289e+03,6.966263e+02
1.287253e+03,6.976025e+02
1.288218e+03,6.990613e+02
1.289182e+03,7.025674e+02
1.290146e+03,7.069739e+02
1.291110e+03,7.121786e+02
1.292074e+03,7.172692e+02
1.293039e+03,7.193032e+02
1.294003e+03,7.141124e+02
1.294967e+03,7.086520e+02
1.295931e+03,7.058602e+02
1.296896e+03,7.047084e+02
1.297860e+03,7.041060e+02
1.298824e+03,7.040046e+02
1.299788e+03,7.034721e+02
1.300753e+03,7.010605e+02
1.301717e+03,7.000273e+02
1.302681e+03,7.018191e+02
1.303645e+03,7.058309e+02
1.304609e+03,7.108223e+02
1.305574e+03,7.168985e+02
1.306538e+03,7.206688e+02
1.307502e+03,7.215645e+02
1.308466e+03,7.228231e+02
1.309431e+03,7.280108e+02
1.310395e+03,7.359037e+02
1.311359e+03,7.422047e+02
1.312323e+03,7.468669e+02
1.313288e+03,7.512545e+02
1.314252e+03,7.566638e+02
1.315216e+03,7.614877e+02
1.316180e+03,7.644049e+02
1.317145e+03,7.653294e+02
1.318109e+03,7.632213e+02
1.319073e+03,7.578903e+02
1.320037e+03,7.526837e+02
1.321001e+03,7.490167e+02
1.321966e+03,7.456724e+02
1.322930e+03,7.428631e+02
1.323894e+03,7.402822e+02
1.324858e+03,7.368867e+02
1.325823e+03,7.316489e+02
1.326787e+03,7.280732e+02
1.327751e+03,7.268326e+02
1.328715e+03,7.251251e+02
1.329680e+03,7.208484e+02
1.330644e+03,7.149261e+02
1.331608e+03,7.117564e+02
1.332572e+03,7.109874e+02
1.333536e+03,7.085391e+02
1.334501e+03,7.028459e+02
1.335465e+03,6.979245e+02
1.336429e+03,7.007921e+02
1.337393e+03,7.063201e+02
1.338358e+03,7.060685e+02
1.339322e+03,7.007699e+02
1.340286e+03,6.959478e+02
1.341250e+03,6.949825e+02
1.342215e+03,6.941821e+02
1.343179e+03,6.919779e+02
1.344143e+03,6.897638e+02
1.345107e+03,6.888510e+02
1.346072e+03,6.896661e+02
1.347036e+03,6.888990e+02
1.348000e+03,6.851616e+02
1.348964e+03,6.820555e+02
1.349928e+03,6.812556e+02
1.350893e+03,6.821299e+02
1.351857e+03,6.825333e+02
1.352821e+03,6.823929e+02
1.353785e+03,6.843226e+02
1.354750e+03,6.885781e+02
1.355714e+03,6.919137e+02
1.356678e+03,6.903563e+02
1.357642e+03,6.876273e+02
1.358607e+03,6.894400e+02
1.359571e+03,6.940356e+02
1.360535e+03,6.978377e+02
1.361499e+03,7.000736e+02
1.362464e+03,7.005466e+02
1.363428e+03,6.979304e+02
1.364392e+03,6.948026e+02
1.365356e+03,6.924474e+02
1.366320e+03,6.906281e+02
1.367285e+03,6.893214e+02
1.368249e+03,6.896106e+02
1.369213e+03,6.884531e+02
1.370177e+03,6.848661e+02
1.371142e+03,6.806201e+02
1.372106e+03,6.779248e+02
1.373070e+03,6.765504e+02
1.374034e+03,6.748434e+02
1.374999e+03,6.729415e+02
1.375963e+03,6.708289e+02
1.376927e+03,6.681754e+02
1.377891e+03,6.658485e+02
1.378855e+03,6.650326e+02
1.379820e+03,6.647706e+02
1.380784e+03,6.638265e+02
1.381748e+03,6.622158e+02
1.382712e+03,6.610609e+02
1.383677e+03,6.617064e+02
1.384641e+03,6.608869e+02
1.385605e+03,6.560902e+02
1.386569e+03,6.500498e+02
1.387534e+03,6.472045e+02
1.388498e+03,6.482474e+02
1.389462e+03,6.492675e+02
1.390426e+03,6.500534e+02
1.391391e+03,6.500198e+02
1.392355e+03,6.487747e+02
1.393319e+03,6.470041e+02
1.394283e+03,6.458217e+02
1.395247e+03,6.448881e+02
1.396212e+03,6.432339e+02
1.397176e+03,6.405692e+02
1.398140e+03,6.392715e+02
1.399104e+03,6.428742e+02
1.400069e+03,6.459408e+02
1.401033e+03,6.446368e+02
1.401997e+03,6.401580e+02
1.402961e+03,6.360544e+02
1.403926e+03,6.313301e+02
1.404890e+03,6.299421e+02
1.405854e+03,6.336895e+02
1.406818e+03,6.369880e+02
1.407782e+03,6.352787e+02
1.408747e+03,6.302938e+02
1.409711e+03,6.270593e+02
1.410675e+03,6.252685e+02
1.411639e+03,6.255198e+02
1.412604e+03,6.283702e+02
1.413568e+03,6.307194e+02
1.414532e+03,6.293644e+02
1.415496e+03,6.273101e+02
1.416461e+03,6.270385e+02
1.417425e+03,6.280253e+02
1.418389e+03,6.283876e+02
1.419353e+03,6.271296e+02
1.420318e+03,6.263890e+02
1.421282e+03,6.269460e+02
1.422246e+03,6.275533e+02
1.423210e+03,6.268892e+02
1.424174e+03,6.253420e+02
1.425139e+03,6.251224e+02
1.426103e+03,6.259125e+02
1.427067e+03,6.264824e+02
1.428031e+03,6.264545e+02
1.428996e+03,6.262965e+02
1.429960e+03,6.255769e+02
1.430924e+03,6.253632e+02
1.431888e+03,6.277766e+02
1.432853e+03,6.320726e+02
1.433817e+03,6.342663e+02
1.434781e+03,6.319882e+02
1.435745e+03,6.298607e+02
1.436709e+03,6.281846e+02
1.437674e+03,6.265125e+02
1.438638e+03,6.246207e+02
1.439602e+03,6.227471e+02
1.440566e+03,6.212369e+02
1.441531e+03,6.200994e+02
1.442495e+03,6.202620e+02
1.443459e+03,6.221149e+02
1.444423e+03,6.245906e+02
1.445388e+03,6.277957e+02
1.446352e+03,6.300104e+02
1.447316e+03,6.290501e+02
1.448280e+03,6.255761e+02
1.449245e+03,6.226901e+02
1.450209e+03,6.211605e+02
1.451173e+03,6.200147e+02
1.452137e+03,6.184462e+02
1.453101e+03,6.175930e+02
1.454066e+03,6.193933e+02
1.455030e+03,6.232839e+02
1.455994e+03,6.242657e+02
1.456958e+03,6.226833e+02
1.457923e+03,6.206467e+02
1.458887e+03,6.183942e+02
1.459851e+03,6.175067e+02
1.460815e+03,6.214299e+02
1.461780e+03,6.255818e+02
1.462744e+03,6.254770e+02
1.463708e+03,6.216915e+02
1.464672e+03,6.193701e+02
1.465636e+03,6.204793e+02
1.466601e+03,6.203034e+02
1.467565e+03,6.176311e+02
1.468529e+03,6.150573e+02
1.469493e+03,6.150500e+02
1.470458e+03,6.168930e+02
1.471422e+03,6.187542e+02
1.472386e+03,6.205878e+02
1.473350e+03,6.216810e+02
1.474315e+03,6.214734e+02
1.475279e+03,6.210950e+02
1.476243e+03,6.213627e+02
1.477207e+03,6.214324e+02
1.478172e+03,6.211929e+02
1.479136e+03,6.205061e+02
1.480100e+03,6.186297e+02
1.481064e+03,6.154575e+02
1.482028e+03,6.111899e+02
1.482993e+03,6.054240e+02
1.483957e+03,6.016033e+02
1.484921e+03,6.040303e+02
1.485885e+03,6.096454e+02
1.486850e+03,6.134932e+02
1.487814e+03,6.154753e+02
1.488778e+03,6.155501e+02
1.489742e+03,6.132532e+02
1.490707e+03,6.110756e+02
1.491671e+03,6.101526e+02
1.492635e+03,6.099205e+02
1.493599e+03,6.103983e+02
1.494563e+03,6.107026e+02
1.495528e+03,6.080180e+02
1.496492e+03,6.024498e+02
1.497456e+03,6.006260e+02
1.498420e+03,6.033990e+02
1.499385e+03,6.063395e+02
1.500349e+03,6.058738e+02
1.501313e+03,6.043168e+02
1.502277e+03,6.028618e+02
1.503242e+03,6.018387e+02
1.504206e+03,6.018876e+02
1.505170e+03,6.035050e+02
1.506134e+03,6.042652e+02
1.507099e+03,6.041523e+02
1.508063e+03,6.033417e+02
1.509027e+03,6.017938e+02
1.509991e+03,5.998126e+02
1.510955e+03,5.976746e+02
1.511920e+03,5.956082e+02
1.512884e+03,5.943992e+02
1.513848e+03,5.942244e+02
1.514812e+03,5.943434e+02
1.515777e+03,5.937542e+02
1.516741e+03,5.933342e+02
1.517705e+03,5.939392e+02
1.518669e+03,5.942239e+02
1.519634e+03,5.928427e+02
1.520598e+03,5.898772e+02
1.521562e+03,5.892607e+02
1.522526e+03,5.906955e+02
1.523490e+03,5.921757e+02
1.524455e+03,5.933497e+02
1.525419e+03,5.929134e+02
1.526383e+03,5.874269e+02
1.527347e+03,5.817428e+02
1.528312e+03,5.807599e+02
1.529276e+03,5.839575e+02
1.530240e+03,5.872273e+02
1.531204e+03,5.910251e+02
1.532169e+03,5.918973e+02
1.533133e+03,5.890444e+02
1.534097e+03,5.857230e+02
1.535061e+03,5.842443e+02
1.536026e+03,5.838948e+02
1.536990e+03,5.843988e+02
1.537954e+03,5.849766e+02
1.538918e+03,5.836738e+02
1.539882e+03,5.796245e+02
1.540847e+03,5.767052e+02
1.541811e+03,5.764714e+02
1.542775e+03,5.765323e+02
1.543739e+03,5.764554e+02
1.544704e+03,5.765857e+02
1.545668e+03,5.776562e+02
1.546632e+03,5.794100e+02
1.547596e+03,5.802386e+02
1.548561e+03,5.801808e+02
1.549525e+03,5.801875e+02
1.550489e+03,5.810174e+02
1.551453e+03,5.812708e+02
1.552417e+03,5.798807e+02
1.553382e+03,5.779315e+02
1.554346e+03,5.764393e+02
1.555310e+03,5.754650e+02
1.556274e+03,5.742110e+02
1.557239e+03,5.726791e+02
1.558203e+03,5.738184e+02
1.559167e+03,5.786219e+02
1.560131e+03,5.817657e+02
1.561096e+03,5.759374e+02
1.562060e+03,5.690574e+02
1.563024e+03,5.680042e+02
1.563988e+03,5.708082e+02
1.564953e+03,5.720311e+02
1.565917e+03,5.700043e+02
1.566881e+03,5.721453e+02
1.567845e+03,5.792902e+02
1.568809e+03,5.834514e+02
1.569774e+03,5.792356e+02
1.570738e+03,5.722166e+02
1.571702e+03,5.703572e+02
1.572666e+03,5.700490e+02
1.573631e+03,5.650127e+02
1.574595e+03,5.550053e+02
1.575559e+03,5.525009e+02
1.576523e+03,5.624470e+02
1.577488e+03,5.697502e+02
1.578452e+03,5.712355e+02
1.579416e+03,5.700018e+02
1.580380e+03,5.683546e+02
1.581344e+03,5.671292e+02
1.582309e+03,5.692351e+02
1.583273e+03,5.729775e+02
1.584237e+03,5.739302e+02
1.585201e+03,5.692301e+02
1.586166e+03,5.660743e+02
1.587130e+03,5.660064e+02
1.588094e+03,5.655682e+02
1.589058e+03,5.630215e+02
1.590023e+03,5.601249e+02
1.590987e+03,5.609258e+02
1.591951e+03,5.639587e+02
1.592915e+03,5.645641e+02
1.593880e+03,5.625199e+02
1.594844e+03,5.622897e+02
1.595808e+03,5.694383e+02
1.596772e+03,5.733281e+02
1.597736e+03,5.704995e+02
1.598701e+03,5.667021e+02
1.599665e+03,5.675685e+02
1.600629e+03,5.713234e+02
1.601593e+03,5.692371e+02
1.602558e+03,5.636453e+02
1.603522e+03,5.625082e+02
1.604486e+03,5.690992e+02
1.605450e+03,5.738187e+02
1.606415e+03,5.706279e+02
1.607379e+03,5.677283e+02
1.608343e+03,5.686635e+02
1.609307e+03,5.708528e+02
1.610271e+03,5.693710e+02
1.611236e+03,5.650498e+02
1.612200e+03,5.617258e+02
1.613164e+03,5.598391e+02
1.614128e+03,5.592240e+02
1.615093e+03,5.613065e+02
1.616057e+03,5.622619e+02
1.617021e+03,5.594651e+02
1.617985e+03,5.561991e+02
1.618950e+03,5.544016e+02
1.619914e+03,5.539774e+02
1.620878e+03,5.555717e+02
1.621842e+03,5.582229e+02
1.622807e+03,5.566089e+02
1.623771e+03,5.497242e+02
1.624735e+03,5.462320e+02
1.625699e+03,5.543095e+02
1.626663e+03,5.616731e+02
1.627628e+03,5.636094e+02
1.628592e+03,5.627086e+02
1.629556e+03,5.627274e+02
1.630520e+03,5.634930e+02
1.631485e+03,5.613430e+02
1.632449e+03,5.571382e+02
1.633413e+03,5.550848e+02
1.634377e+03,5.581738e+02
1.635342e+03,5.602434e+02
1.636306e+03,5.573171e+02
1.637270e+03,5.548470e+02
1.638234e+03,5.555623e+02
1.639198e+03,5.579816e+02
1.640163e+03,5.581399e+02
1.641127e+03,5.568796e+02
1.642091e+03,5.570898e+02
1.643055e+03,5.585256e+02
1.644020e+03,5.580028e+02
1.644984e+03,5.505530e+02
1.645948e+03,5.457808e+02
1.646912e+03,5.468383e+02
1.647877e+03,5.491682e+02
1.648841e+03,5.487079e+02
1.649805e+03,5.467752e+02
1.650769e+03,5.477449e+02
1.651734e+03,5.505236e+02
1.652698e+03,5.526458e+02
1.653662e+03,5.533231e+02
1.654626e+03,5.533225e+02
1.655590e+03,5.529611e+02
1.656555e+03,5.516161e+02
1.657519e+03,5.488936e+02
1.658483e+03,5.464532e+02
1.659447e+03,5.467403e+02
1.660412e+03,5.482508e+02
1.661376e+03,5.487687e+02
1.662340e+03,5.484669e+02
1.663304e+03,5.478530e+02
1.664269e+03,5.460678e+02
1.665233e+03,5.452979e+02
1.666197e+03,5.459285e+02
1.667161e+03,5.456384e+02
1.668125e+03,5.428361e+02
1.669090e+03,5.395142e+02
1.670054e+03,5.391221e+02
1.671018e+03,5.399554e+02
1.671982e+03,5.397355e+02
1.672947e+03,5.383610e+02
1.673911e+03,5.380673e+02
1.674875e+03,5.391894e+02
1.675839e+03,5.388824e+02
1.676804e+03,5.369385e+02
1.677768e+03,5.346526e+02
1.678732e+03,5.329474e+02
1.679696e+03,5.311014e+02
1.680661e+03,5.270164e+02
1.681625e+03,5.229946e+02
1.682589e+03,5.234199e+02
1.683553e+03,5.287389e+02
1.684517e+03,5.304059e+02
1.685482e+03,5.284813e+02
1.686446e+03,5.274036e+02
1.687410e+03,5.286910e+02
1.688374e+03,5.301053e+02
1.689339e+03,5.309490e+02
1.690303e+03,5.301237e+02
1.691267e+03,5.250291e+02
1.692231e+03,5.194225e+02
1.693196e+03,5.210023e+02
1.694160e+03,5.280316e+02
1.695124e+03,5.279562e+02
1.696088e+03,5.217148e+02
1.697052e+03,5.169621e+02
1.698017e+03,5.177299e+02
1.698981e+03,5.186725e+02
1.699945e+03,5.175170e+02
1.700909e+03,5.174214e+02
1.701874e+03,5.212328e+02
1.702838e+03,5.265952e+02
1.703802e+03,5.270512e+02
1.704766e+03,5.246776e+02
1.705731e+03,5.246127e+02
1.706695e+03,5.272497e+02
1.707659e+03,5.267327e+02
1.708623e+03,5.201495e+02
1.709588e+03,5.165446e+02
1.710552e+03,5.171402e+02
1.711516e+03,5.185616e+02
1.712480e+03,5.182607e+02
1.713444e+03,5.170967e+02
1.714409e+03,5.166706e+02
1.715373e+03,5.159906e+02
1.716337e+03,5.127592e+02
1.717301e+03,5.070781e+02
1.718266e+03,5.041232e+02
1.719230e+03,5.037421e+02
1.720194e+03,5.046561e+02
1.721158e+03,5.066489e+02
1.722123e+03,5.078675e+02
1.723087e+03,5.050755e+02
1.724051e+03,5.035402e+02
1.725015e+03,5.070289e+02
1.725979e+03,5.121780e+02
1.726944e+03,5.135128e+02
1.727908e+03,5.122043e+02
1.728872e+03,5.135952e+02
1.729836e+03,5.168336e+02
1.730801e+03,5.190226e+02
1.731765e+03,5.195575e+02
1.732729e+03,5.178219e+02
1.733693e+03,5.129387e+02
1.734658e+03,5.085178e+02
1.735622e+03,5.061269e+02
1.736586e+03,5.049041e+02
1.737550e+03,5.034273e+02
1.738515e+03,5.025661e+02
1.739479e+03,5.041686e+02
1.740443e+03,5.075918e+02
1.741407e+03,5.086935e+02
1.742371e+03,5.071262e+02
1.743336e+03,5.068840e+02
1.744300e+03,5.081870e+02
1.745264e+03,5.083353e+02
1.746228e+03,5.038532e+02
1.747193e+03,5.004655e+02
1.748157e+03,5.022766e+02
1.749121e+03,5.056205e+02
1.750085e+03,5.078036e+02
1.751050e+03,5.085420e+02
1.752014e+03,5.077827e+02
1.752978e+03,5.063903e+02
1.753942e+03,5.065473e+02
1.754906e+03,5.085469e+02
1.755871e+03,5.090370e+02
1.756835e+03,5.067580e+02
1.757799e+03,5.036146e+02
1.758763e+03,5.001623e+02
1.759728e+03,4.978056e+02
1.760692e+03,4.975076e+02
1.761656e+03,4.990775e+02
1.762620e+03,5.047599e+02
1.763585e+03,5.103331e+02
1.764549e+03,5.092014e+02
1.765513e+03,5.013497e+02
1.766477e+03,4.969395e+02
1.767442e+03,4.957259e+02
1.768406e+03,4.953883e+02
1.769370e+03,4.952603e+02
1.770334e+03,4.961120e+02
1.771298e+03,5.000675e+02
1.772263e+03,5.017703e+02
1.773227e+03,4.993089e+02
1.774191e+03,4.955609e+02
1.775155e+03,4.927664e+02
1.776120e+03,4.921262e+02
1.777084e+03,4.985569e+02
1.778048e+03,5.083272e+02
1.779012e+03,5.108221e+02
1.779977e+03,5.039024e+02
1.780941e+03,4.977914e+02
1.781905e+03,4.923169e+02
1.782869e+03,4.900863e+02
1.783833e+03,4.931430e+02
1.784798e+03,4.970596e+02
1.785762e+03,5.008019e+02
1.786726e+03,5.021517e+02
1.787690e+03,4.991206e+02
1.788655e+03,4.949773e+02
1.789619e+03,4.976043e+02
1.790583e+03,5.027944e+02
1.791547e+03,5.005732e+02
1.792512e+03,4.921850e+02
1.793476e+03,4.870779e+02
1.794440e+03,4.865384e+02
1.795404e+03,4.885824e+02
1.796369e+03,4.931180e+02
1.797333e+03,4.962726e+02
1.798297e+03,4.948744e+02
1.799261e+03,4.932846e+02
1.800225e+03,4.958447e+02
1.801190e+03,4.972983e+02
1.802154e+03,4.934669e+02
1.803118e+03,4.872603e+02
1.804082e+03,4.876811e+02
1.805047e+03,4.918338e+02
1.806011e+03,4.918824e+02
1.806975e+03,4.875699e+02
1.807939e+03,4.875725e+02
1.808904e+03,4.952535e+02
1.809868e+03,4.973103e+02
1.810832e+03,4.923134e+02
1.811796e+03,4.870436e+02
1.812760e+03,4.867957e+02
1.813725e+03,4.874258e+02
1.814689e+03,4.866760e+02
1.815653e+03,4.853295e+02
1.816617e+03,4.838731e+02
1.817582e+03,4.824158e+02
1.818546e+03,4.813509e+02
1.819510e+03,4.803864e+02
1.820474e+03,4.789653e+02
1.821439e+03,4.770859e+02
1.822403e+03,4.752578e+02
1.823367e+03,4.735706e+02
1.824331e+03,4.717960e+02
1.825296e+03,4.697454e+02
1.826260e+03,4.678569e+02
1.827224e+03,4.656708e+02
1.828188e+03,4.656109e+02
1.829152e+03,4.701353e+02
1.830117e+03,4.757118e+02
1.831081e+03,4.808083e+02
1.832045e+03,4.838968e+02
1.833009e+03,4.775754e+02
1.833974e+03,4.679044e+02
1.834938e+03,4.673771e+02
1.835902e+03,4.794427e+02
1.836866e+03,4.810824e+02
1.837831e+03,4.712225e+02
1.838795e+03,4.667975e+02
1.839759e+03,4.718076e+02
1.840723e+03,4.764061e+02
1.841688e+03,4.719485e+02
1.842652e+03,4.677007e+02
1.843616e+03,4.669043e+02
1.844580e+03,4.668343e+02
1.845544e+03,4.642407e+02
1.846509e+03,4.612530e+02
1.847473e+03,4.621315e+02
1.848437e+03,4.651264e+02
1.849401e+03,4.676813e+02
1.850366e+03,4.697094e+02
1.851330e+03,4.660565e+02
1.852294e+03,4.578087e+02
1.853258e+03,4.535960e+02
1.854223e+03,4.559153e+02
1.855187e+03,4.585798e+02
1.856151e+03,4.586158e+02
1.857115e+03,4.588549e+02
1.858079e+03,4.600174e+02
1.859044e+03,4.605501e+02
1.860008e+03,4.573502e+02
1.860972e+03,4.545303e+02
1.861936e+03,4.575900e+02
1.862901e+03,4.627367e+02
1.863865e+03,4.643948e+02
1.864829e+03,4.625770e+02
1.865793e+03,4.585972e+02
1.866758e+03,4.538833e+02
1.867722e+03,4.530959e+02
1.868686e+03,4.587797e+02
1.869650e+03,4.580110e+02
1.870615e+03,4.480766e+02
1.871579e+03,4.427775e+02
1.872543e+03,4.463332e+02
1.873507e+03,4.510718e+02
1.874471e+03,4.495466e+02
1.875436e+03,4.479515e+02
1.876400e+03,4.499409e+02
1.877364e+03,4.525847e+02
1.878328e+03,4.524244e+02
1.879293e+03,4.505446e+02
1.880257e+03,4.479865e+02
1.881221e+03,4.455293e+02
1.882185e+03,4.452888e+02
1.883150e+03,4.474239e+02
1.884114e+03,4.488267e+02
1.885078e+03,4.495532e+02
1.886042e+03,4.514109e+02
1.887006e+03,4.554330e+02
1.887971e+03,4.559733e+02
1.888935e+03,4.493856e+02
1.889899e+03,4.445036e+02
1.890863e+03,4.430883e+02
1.891828e+03,4.433282e+02
1.892792e+03,4.447422e+02
1.893756e+03,4.460822e+02
1.894720e+03,4.472475e+02
1.895685e+03,4.477328e+02
1.896649e+03,4.460188e+02
1.897613e+03,4.427176e+02
1.898577e+03,4.399902e+02
1.899542e+03,4.380934e+02
1.900506e+03,4.377075e+02
1.901470e+03,4.390128e+02
1.902434e+03,4.389913e+02
1.903398e+03,4.378250e+02
1.904363e+03,4.399950e+02
1.905327e+03,4.472444e+02
1.906291e+03,4.507522e+02
1.907255e+03,4.412640e+02
1.908220e+03,4.347478e+02
1.909184e+03,4.344973e+02
1.910148e+03,4.360114e+02
1.911112e+03,4.347186e+02
1.912077e+03,4.337268e+02
1.913041e+03,4.363677e+02
1.914005e+03,4.401953e+02
1.914969e+03,4.432593e+02
1.915933e+03,4.451053e+02
1.916898e+03,4.433852e+02
1.917862e+03,4.395038e+02
1.918826e+03,4.351947e+02
1.919790e+03,4.308504e+02
1.920755e+03,4.336704e+02
1.921719e+03,4.429403e+02
1.922683e+03,4.476826e+02
1.923647e+03,4.457340e+02
1.924612e+03,4.422698e+02
1.925576e+03,4.375456e+02
1.926540e+03,4.352883e+02
1.927504e+03,4.360626e+02
1.928469e+03,4.375932e+02
1.929433e+03,4.384473e+02
1.930397e+03,4.385232e+02
1.931361e+03,4.370041e+02
1.932325e+03,4.354852e+02
1.933290e+03,4.356126e+02
1.934254e+03,4.368760e+02
1.935218e+03,4.376682e+02
1.936182e+03,4.375009e+02
1.937147e+03,4.358213e+02
1.938111e+03,4.330159e+02
1.939075e+03,4.303448e+02
1.940039e+03,4.282866e+02
1.941004e+03,4.295254e+02
1.941968e+03,4.338897e+02
1.942932e+03,4.356118e+02
1.943896e+03,4.321242e+02
1.944860e+03,4.294356e+02
1.945825e+03,4.282660e+02
1.946789e+03,4.286438e+02
1.947753e+03,4.323044e+02
1.948717e+03,4.345582e+02
1.949682e+03,4.322861e+02
1.950646e+03,4.303655e+02
1.951610e+03,4.320352e+02
1.952574e+03,4.351154e+02
1.953539e+03,4.380498e+02
1.954503e+03,4.390274e+02
1.955467e+03,4.347064e+02
1.956431e+03,4.284044e+02
1.957396e+03,4.305296e+02
1.958360e+03,4.366675e+02
1.959324e+03,4.347145e+02
1.960288e+03,4.257983e+02
1.961252e+03,4.229708e+02
1.962217e+03,4.272782e+02
1.963181e+03,4.281302e+02
1.964145e+03,4.252657e+02
1.965109e+03,4.224533e+02
1.966074e+03,4.208418e+02
1.967038e+03,4.215289e+02
1.968002e+03,4.245317e+02
1.968966e+03,4.270764e+02
1.969931e+03,4.285376e+02
1.970895e+03,4.273725e+02
1.971859e+03,4.194478e+02
1.972823e+03,4.134200e+02
1.973787e+03,4.128225e+02
1.974752e+03,4.155173e+02
1.975716e+03,4.213412e+02
1.976680e+03,4.263734e+02
1.977644e+03,4.257344e+02
1.978609e+03,4.219770e+02
1.979573e+03,4.178264e+02
1.980537e+03,4.140068e+02
1.981501e+03,4.146592e+02
1.982466e+03,4.180597e+02
1.983430e+03,4.184190e+02
1.984394e+03,4.146924e+02
1.985358e+03,4.149575e+02
1.986323e+03,4.182455e+02
1.987287e+03,4.185357e+02
1.988251e+03,4.131522e+02
1.989215e+03,4.099111e+02
1.990179e+03,4.101741e+02
1.991144e+03,4.109478e+02
1.992108e+03,4.119054e+02
1.993072e+03,4.109148e+02
1.994036e+03,4.019415e+02
1.995001e+03,3.978889e+02
1.995965e+03,4.034893e+02
1.996929e+03,4.097481e+02
1.997893e+03,4.061008e+02
1.998858e+03,4.007020e+02
1.999822e+03,4.008541e+02
2.000786e+03,4.030063e+02
2.001750e+03,4.044938e+02
2.002714e+03,4.060616e+02
2.003679e+03,4.100773e+02
2.004643e+03,4.138877e+02
2.005607e+03,4.129723e+02
2.006571e+03,4.084800e+02
2.007536e+03,4.024925e+02
2.008500e+03,3.966223e+02
2.009464e+03,3.967465e+02
2.010428e+03,4.030766e+02
2.011393e+03,4.085711e+02
2.012357e+03,4.130517e+02
2.013321e+03,4.102739e+02
2.014285e+03,4.003859e+02
2.015250e+03,3.927973e+02
2.016214e+03,3.934605e+02
2.017178e+03,3.947628e+02
2.018142e+03,3.965644e+02
2.019106e+03,3.976760e+02
2.020071e+03,3.970899e+02
2.021035e+03,3.964261e+02
2.021999e+03,3.963157e+02
2.022963e+03,3.964456e+02
2.023928e+03,3.970844e+02
2.024892e+03,3.973634e+02
2.025856e+03,3.951895e+02
2.026820e+03,3.936288e+02
2.027785e+03,3.951380e+02
2.028749e+03,3.969938e+02
2.029713e+03,3.946188e+02
2.030677e+03,3.911628e+02
2.031641e+03,3.906256e+02
2.032606e+03,3.921761e+02
2.033570e+03,3.945361e+02
2.034534e+03,3.971483e+02
2.035498e+03,3.988892e+02
2.036463e+03,3.989148e+02
2.037427e+03,3.933691e+02
2.038391e+03,3.829352e+02
2.039355e+03,3.801486e+02
2.040320e+03,3.836119e+02
2.041284e+03,3.881654e+02
2.042248e+03,3.926771e+02
2.043212e+03,3.919228e+02
2.044177e+03,3.854125e+02
2.045141e+03,3.815739e+02
2.046105e+03,3.815759e+02
2.047069e+03,3.834034e+02
2.048033e+03,3.875918e+02
2.048998e+03,3.901974e+02
2.049962e+03,3.909408e+02
2.050926e+03,3.915866e+02
2.051890e+03,3.957641e+02
2.052854e+03,3.955094e+02
2.053819e+03,3.865903e+02
2.054783e+03,3.784098e+02
2.055747e+03,3.762036e+02
2.056711e+03,3.766653e+02
2.057676e+03,3.779550e+02
2.058640e+03,3.789598e+02
2.059604e+03,3.783456e+02
2.060568e+03,3.779715e+02
2.061533e+03,3.820316e+02
2.062497e+03,3.868642e+02
2.063461e+03,3.888849e+02
2.064425e+03,3.891002e+02
2.065390e+03,3.886038e+02
2.066354e+03,3.873343e+02
2.067318e+03,3.850556e+02
2.068282e+03,3.822230e+02
2.069247e+03,3.795684e+02
2.070211e+03,3.769541e+02
2.071175e+03,3.726002e+02
2.072139e+03,3.685595e+02
2.073104e+03,3.709395e+02
2.074068e+03,3.798177e+02
2.075032e+03,3.854051e+02
2.075996e+03,3.875851e+02
2.076960e+03,3.856707e+02
2.077925e+03,3.794811e+02
2.078889e+03,3.747181e+02
2.079853e+03,3.716508e+02
2.080817e+03,3.726247e+02
2.081782e+03,3.775285e+02
2.082746e+03,3.805633e+02
2.083710e+03,3.797547e+02
2.084674e+03,3.767486e+02
2.085639e+03,3.718614e+02
2.086603e+03,3.689100e+02
2.087567e+03,3.702946e+02
2.088531e+03,3.723502e+02
2.089496e+03,3.747567e+02
2.090460e+03,3.748197e+02
2.091424e+03,3.710735e+02
2.092388e+03,3.680447e+02
2.093353e+03,3.681582e+02
2.094317e+03,3.700135e+02
2.095281e+03,3.732926e+02
2.096245e+03,3.763203e+02
2.097209e+03,3.782906e+02
2.098174e+03,3.781104e+02
2.099138e+03,3.754508e+02
2.100102e+03,3.718394e+02
2.101066e+03,3.671621e+02
2.102031e+03,3.641156e+02
2.102995e+03,3.673719e+02
2.103959e+03,3.712153e+02
2.104923e+03,3.702018e+02
2.105887e+03,3.680132e+02
2.106852e+03,3.708225e+02
2.107816e+03,3.745060e+02
2.108780e+03,3.747256e+02
2.109744e+03,3.729976e+02
2.110708e+03,3.744752e+02
2.111673e+03,3.762350e+02
2.112637e+03,3.716665e+02
2.113601e+03,3.639190e+02
2.114565e+03,3.606853e+02
2.115530e+03,3.608426e+02
2.116494e+03,3.628362e+02
2.117458e+03,3.662462e+02
2.118422e+03,3.686988e+02
2.119387e+03,3.699091e+02
2.120351e+03,3.697912e+02
2.121315e+03,3.685515e+02
2.122279e+03,3.676274e+02
2.123244e+03,3.670743e+02
2.124208e+03,3.671978e+02
2.125172e+03,3.675444e+02
2.126136e+03,3.654705e+02
2.127101e+03,3.600249e+02
2.128065e+03,3.587455e+02
2.129029e+03,3.609029e+02
2.129993e+03,3.616674e+02
2.130958e+03,3.597220e+02
2.131922e+03,3.559001e+02
2.132886e+03,3.500459e+02
2.133850e+03,3.527354e+02
2.134814e+03,3.645953e+02
2.135779e+03,3.705511e+02
2.136743e+03,3.619319e+02
2.137707e+03,3.594812e+02
2.138671e+03,3.639357e+02
2.139636e+03,3.668644e+02
2.140600e+03,3.629823e+02
2.141564e+03,3.595580e+02
2.142528e+03,3.571519e+02
2.143493e+03,3.556292e+02
2.144457e+03,3.550986e+02
2.145421e+03,3.538376e+02
2.146385e+03,3.512021e+02
2.147350e+03,3.491991e+02
2.148314e+03,3.485008e+02
2.149278e+03,3.491616e+02
2.150242e+03,3.522653e+02
2.151207e+03,3.538116e+02
2.152171e+03,3.529303e+02
2.153135e+03,3.514628e+02
2.154099e+03,3.514751e+02
2.155063e+03,3.510488e+02
2.156028e+03,3.498179e+02
2.156992e+03,3.484081e+02
2.157956e+03,3.444787e+02
2.158920e+03,3.446700e+02
2.159885e+03,3.548822e+02
2.160849e+03,3.624043e+02
2.161813e+03,3.611211e+02
2.162777e+03,3.550460e+02
2.163741e+03,3.418503e+02
2.164706e+03,3.340603e+02
2.165670e+03,3.378351e+02
2.166634e+03,3.444364e+02
2.167598e+03,3.443290e+02
2.168563e+03,3.438348e+02
2.169527e+03,3.459570e+02
2.170491e+03,3.476557e+02
2.171455e+03,3.454472e+02
2.172420e+03,3.427944e+02
2.173384e+03,3.420123e+02
2.174348e+03,3.418178e+02
2.175312e+03,3.408123e+02
2.176277e+03,3.399955e+02
2.177241e+03,3.413956e+02
2.178205e+03,3.422321e+02
2.179169e+03,3.403327e+02
2.180134e+03,3.384421e+02
2.181098e+03,3.408915e+02
2.182062e+03,3.437749e+02
2.183026e+03,3.442817e+02
2.183990e+03,3.432381e+02
2.184955e+03,3.416317e+02
2.185919e+03,3.393020e+02
2.186883e+03,3.351503e+02
2.187847e+03,3.315994e+02
2.188812e+03,3.324933e+02
2.189776e+03,3.352806e+02
2.190740e+03,3.390491e+02
2.191704e+03,3.407090e+02
2.192668e+03,3.352759e+02
2.193633e+03,3.282218e+02
2.194597e+03,3.269452e+02
2.195561e+03,3.291472e+02
2.196525e+03,3.335030e+02
2.197490e+03,3.376104e+02
2.198454e+03,3.355141e+02
2.199418e+03,3.328867e+02
2.200382e+03,3.358484e+02
2.201347e+03,3.401415e+02
2.202311e+03,3.366088e+02
2.203275e+03,3.313315e+02
2.204239e+03,3.308827e+02
2.205204e+03,3.317160e+02
2.206168e+03,3.289175e+02
2.207132e+03,3.254205e+02
2.208096e+03,3.244808e+02
2.209061e+03,3.249477e+02
2.210025e+03,3.267881e+02
2.210989e+03,3.286281e+02
2.211953e+03,3.279829e+02
2.212917e+03,3.270331e+02
2.213882e+03,3.269854e+02
2.214846e+03,3.272762e+02
2.215810e+03,3.283741e+02
2.216774e+03,3.280079e+02
2.217739e+03,3.242111e+02
2.218703e+03,3.198516e+02
2.219667e+03,3.202594e+02
2.220631e+03,3.222824e+02
2.221595e+03,3.225508e+02
2.222560e+03,3.224536e+02
2.223524e+03,3.249793e+02
2.224488e+03,3.275630e+02
2.225452e+03,3.261143e+02
2.226417e+03,3.244902e+02
2.227381e+03,3.276735e+02
2.228345e+03,3.318128e+02
2.229309e+03,3.310127e+02
2.230274e+03,3.284018e+02
2.231238e+03,3.263073e+02
2.232202e+03,3.251486e+02
2.233166e+03,3.274844e+02
2.234131e+03,3.292397e+02
2.235095e+03,3.265356e+02
2.236059e+03,3.231393e+02
2.237023e+03,3.258354e+02
2.237988e+03,3.288456e+02
2.238952e+03,3.276508e+02
2.239916e+03,3.252682e+02
2.240880e+03,3.272735e+02
2.241844e+03,3.283659e+02
2.242809e+03,3.240046e+02
2.243773e+03,3.184327e+02
2.244737e+03,3.137054e+02
2.245701e+03,3.119522e+02
2.246666e+03,3.174596e+02
2.247630e+03,3.225883e+02
2.248594e+03,3.211768e+02
2.249558e+03,3.196199e+02
2.250522e+03,3.265249e+02
2.251487e+03,3.314102e+02
2.252451e+03,3.276289e+02
2.253415e+03,3.226593e+02
2.254379e+03,3.266708e+02
2.255344e+03,3.292137e+02
2.256308e+03,3.260397e+02
2.257272e+03,3.210976e+02
2.258236e+03,3.158108e+02
2.259201e+03,3.143582e+02
2.260165e+03,3.185139e+02
2.261129e+03,3.220976e+02
2.262093e+03,3.185889e+02
2.263058e+03,3.144275e+02
2.264022e+03,3.112128e+02
2.264986e+03,3.111365e+02
2.265950e+03,3.190665e+02
2.266915e+03,3.228165e+02
2.267879e+03,3.177146e+02
2.268843e+03,3.132725e+02
2.269807e+03,3.141253e+02
2.270771e+03,3.165818e+02
2.271736e+03,3.206860e+02
2.272700e+03,3.200020e+02
2.273664e+03,3.113145e+02
2.274628e+03,3.062231e+02
2.275593e+03,3.119755e+02
2.276557e+03,3.149311e+02
2.277521e+03,3.133158e+02
2.278485e+03,3.112380e+02
2.279449e+03,3.107146e+02
2.280414e+03,3.089894e+02
2.281378e+03,3.059728e+02
2.282342e+03,3.049652e+02
2.283306e+03,3.102110e+02
2.284271e+03,3.104600e+02
2.285235e+03,3.060840e+02
2.286199e+03,3.029103e+02
2.287163e+03,3.038514e+02
2.288128e+03,3.043443e+02
2.289092e+03,3.040703e+02
2.290056e+03,3.030166e+02
2.291020e+03,3.012991e+02
2.291985e+03,3.051021e+02
2.292949e+03,3.132525e+02
2.293913e+03,3.110032e+02
2.294877e+03,2.984195e+02
2.295842e+03,2.960491e+02
2.296806e+03,3.028294e+02
2.297770e+03,3.065844e+02
2.298734e+03,3.068160e+02
2.299698e+03,3.055171e+02
2.300663e+03,3.032753e+02
2.301627e+03,3.014257e+02
2.302591e+03,3.003458e+02
2.303555e+03,3.019215e+02
2.304520e+03,3.047771e+02
2.305484e+03,3.002972e+02
2.306448e+03,2.939249e+02
2.307412e+03,2.957236e+02
2.308376e+03,3.019219e+02
2.309341e+03,3.045732e+02
2.310305e+03,3.035379e+02
2.311269e+03,2.960882e+02
2.312233e+03,2.887772e+02
2.313198e+03,2.942007e+02
2.314162e+03,3.029937e+02
2.315126e+03,3.061415e+02
2.316090e+03,3.049663e+02
2.317055e+03,2.971259e+02
2.318019e+03,2.902033e+02
2.318983e+03,2.919453e+02
2.319947e+03,2.960383e+02
2.320912e+03,2.993219e+02
2.321876e+03,3.020421e+02
2.322840e+03,3.051393e+02
2.323804e+03,3.056083e+02
2.324769e+03,3.009673e+02
2.325733e+03,2.965020e+02
2.326697e+03,2.956160e+02
2.327661e+03,2.963242e+02
2.328625e+03,2.984299e+02
2.329590e+03,2.986436e+02
2.330554e+03,2.934749e+02
2.331518e+03,2.910708e+02
2.332482e+03,2.927161e+02
2.333447e+03,2.942353e+02
2.334411e+03,2.932002e+02
2.335375e+03,2.932287e+02
2.336339e+03,2.944073e+02
2.337303e+03,2.938691e+02
2.338268e+03,2.883609e+02
2.339232e+03,2.889365e+02
2.340196e+03,2.943794e+02
2.341160e+03,2.951998e+02
2.342125e+03,2.882438e+02
2.343089e+03,2.871945e+02
2.344053e+03,2.901570e+02
2.345017e+03,2.917122e+02
2.345982e+03,2.911214e+02
2.346946e+03,2.883275e+02
2.347910e+03,2.847744e+02
2.348874e+03,2.838604e+02
2.349839e+03,2.848023e+02
2.350803e+03,2.850151e+02
2.351767e+03,2.854078e+02
2.352731e+03,2.893185e+02
2.353696e+03,2.932142e+02
2.354660e+03,2.900491e+02
2.355624e+03,2.840340e+02
2.356588e+03,2.807413e+02
2.357552e+03,2.804092e+02
2.358517e+03,2.847760e+02
2.359481e+03,2.896264e+02
2.360445e+03,2.893480e+02
2.361409e+03,2.878674e+02
2.362374e+03,2.872787e+02
2.363338e+03,2.860635e+02
2.364302e+03,2.817657e+02
2.365266e+03,2.796457e+02
2.366230e+03,2.813322e+02
2.367195e+03,2.829483e+02
2.368159e+03,2.806372e+02
2.369123e+03,2.808816e+02
2.370087e+03,2.849754e+02
2.371052e+03,2.869071e+02
2.372016e+03,2.820599e+02
2.372980e+03,2.814122e+02
2.373944e+03,2.849857e+02
2.374909e+03,2.867924e+02
2.375873e+03,2.843565e+02
2.376837e+03,2.847378e+02
2.377801e+03,2.868412e+02
2.378766e+03,2.841670e+02
2.379730e+03,2.765432e+02
2.380694e+03,2.772819e+02
2.381658e+03,2.828324e+02
2.382623e+03,2.825037e+02
2.383587e+03,2.783246e+02
2.384551e+03,2.792743e+02
2.385515e+03,2.822056e+02
2.386479e+03,2.820671e+02
2.387444e+03,2.805416e+02
2.388408e+03,2.801083e+02
2.389372e+03,2.799273e+02
2.390336e+03,2.788462e+02
2.391301e+03,2.775561e+02
2.392265e+03,2.759903e+02
2.393229e+03,2.753972e+02
2.394193e+03,2.767104e+02
2.395157e+03,2.787079e+02
2.396122e+03,2.808946e+02
2.397086e+03,2.837125e+02
2.398050e+03,2.880416e+02
2.399014e+03,2.889567e+02
2.399979e+03,2.832540e+02
2.400943e+03,2.800151e+02
2.401907e+03,2.805840e+02
2.402871e+03,2.826452e+02
2.403836e+03,2.858470e+02
2.404800e+03,2.843420e+02
2.405764e+03,2.783580e+02
2.406728e+03,2.773596e+02
2.407693e+03,2.807798e+02
2.408657e+03,2.794045e+02
2.409621e+03,2.743510e+02
2.410585e+03,2.709959e+02
2.411550e+03,2.696829e+02
2.412514e+03,2.696837e+02
2.413478e+03,2.709286e+02
2.414442e+03,2.747878e+02
2.415406e+03,2.784070e+02
2.416371e+03,2.787458e+02
2.417335e+03,2.771823e+02
2.418299e+03,2.738149e+02
2.419263e+03,2.721870e+02
2.420228e+03,2.747099e+02
2.421192e+03,2.774043e+02
2.422156e+03,2.761378e+02
2.423120e+03,2.752554e+02
2.424084e+03,2.755935e+02
2.425049e+03,2.753794e+02
2.426013e+03,2.742914e+02
2.426977e+03,2.709436e+02
2.427941e+03,2.655805e+02
2.428906e+03,2.631056e+02
2.429870e+03,2.648635e+02
2.430834e+03,2.671921e+02
2.431798e+03,2.697874e+02
2.432763e+03,2.711413e+02
2.433727e+03,2.712698e+02
2.434691e+03,2.725323e+02
2.435655e+03,2.737928e+02
2.436620e+03,2.719244e+02
2.437584e+03,2.692140e+02
2.438548e+03,2.743172e+02
2.439512e+03,2.790409e+02
2.440477e+03,2.742330e+02
2.441441e+03,2.668689e+02
2.442405e+03,2.659578e+02
2.443369e+03,2.683465e+02
2.444333e+03,2.728128e+02
2.445298e+03,2.764417e+02
2.446262e+03,2.768872e+02
2.447226e+03,2.741479e+02
2.448190e+03,2.683338e+02
2.449155e+03,2.649038e+02
2.450119e+03,2.693358e+02
2.451083e+03,2.723192e+02
2.452047e+03,2.735191e+02
2.453011e+03,2.711167e+02
2.453976e+03,2.645107e+02
2.454940e+03,2.639169e+02
2.455904e+03,2.671883e+02
2.456868e+03,2.660802e+02
2.457833e+03,2.624111e+02
2.458797e+03,2.662164e+02
2.459761e+03,2.718938e+02
2.460725e+03,2.709841e+02
2.461690e+03,2.672788e+02
2.462654e+03,2.666030e+02
2.463618e+03,2.649137e+02
2.464582e+03,2.591264e+02
2.465547e+03,2.549110e+02
2.466511e+03,2.594008e+02
2.467475e+03,2.622533e+02
2.468439e+03,2.610646e+02
2.469404e+03,2.589645e+02
2.470368e+03,2.568817e+02
2.471332e+03,2.575716e+02
2.472296e+03,2.604574e+02
2.473260e+03,2.607572e+02
2.474225e+03,2.570855e+02
2.475189e+03,2.547474e+02
2.476153e+03,2.540952e+02
2.477117e+03,2.560943e+02
2.478082e+03,2.600621e+02
2.479046e+03,2.674793e+02
2.480010e+03,2.729336e+02
2.480974e+03,2.674657e+02
2.481938e+03,2.591797e+02
2.482903e+03,2.588438e+02
2.483867e+03,2.593141e+02
2.484831e+03,2.562072e+02
2.485795e+03,2.536796e+02
2.486760e+03,2.554626e+02
2.487724e+03,2.591800e+02
2.488688e+03,2.644565e+02
2.489652e+03,2.671942e+02
2.490617e+03,2.639256e+02
2.491581e+03,2.593991e+02
2.492545e+03,2.544686e+02
2.493509e+03,2.541230e+02
2.494474e+03,2.582718e+02
2.495438e+03,2.584776e+02
2.496402e+03,2.563254e+02
2.497366e+03,2.548262e+02
2.498331e+03,2.543394e+02
2.499295e+03,2.569442e+02
2.500259e+03,2.584720e+02
2.501223e+03,2.550938e+02
2.502188e+03,2.515090e+02
2.503152e+03,2.541948e+02
2.504116e+03,2.547518e+02
2.505080e+03,2.505152e+02
2.506044e+03,2.471072e+02
2.507009e+03,2.486954e+02
2.507973e+03,2.501691e+02
2.508937e+03,2.514213e+02
2.509901e+03,2.527185e+02
2.510865e+03,2.540519e+02
2.511830e+03,2.548521e+02
2.512794e+03,2.556568e+02
2.513758e+03,2.605373e+02
2.514722e+03,2.660973e+02
2.515687e+03,2.582362e+02
2.516651e+03,2.486737e+02
2.517615e+03,2.504443e+02
2.518579e+03,2.550646e+02
2.519544e+03,2.511080e+02
2.520508e+03,2.477798e+02
2.521472e+03,2.488131e+02
2.522436e+03,2.492728e+02
2.523401e+03,2.445510e+02
2.524365e+03,2.404255e+02
2.525329e+03,2.373096e+02
2.526293e+03,2.407290e+02
2.527258e+03,2.528268e+02
2.528222e+03,2.539238e+02
2.529186e+03,2.476750e+02
2.530150e+03,2.458992e+02
2.531115e+03,2.480080e+02
2.532079e+03,2.512706e+02
2.533043e+03,2.533573e+02
2.534007e+03,2.517684e+02
2.534971e+03,2.487552e+02
2.535936e+03,2.463398e+02
2.536900e+03,2.461349e+02
2.537864e+03,2.490259e+02
2.538828e+03,2.513104e+02
2.539792e+03,2.500153e+02
2.540757e+03,2.517410e+02
2.541721e+03,2.569454e+02
2.542685e+03,2.574637e+02
2.543649e+03,2.534038e+02
2.544614e+03,2.539589e+02
2.545578e+03,2.578325e+02
2.546542e+03,2.607281e+02
2.547506e+03,2.621253e+02
2.548471e+03,2.588666e+02
2.549435e+03,2.556951e+02
2.550399e+03,2.577928e+02
2.551363e+03,2.598269e+02
2.552328e+03,2.569309e+02
2.553292e+03,2.544372e+02
2.554256e+03,2.542854e+02
2.555220e+03,2.535265e+02
2.556185e+03,2.514769e+02
2.557149e+03,2.517261e+02
2.558113e+03,2.545920e+02
2.559077e+03,2.536931e+02
2.560042e+03,2.504905e+02
2.561006e+03,2.527387e+02
2.561970e+03,2.575281e+02
2.562934e+03,2.577139e+02
2.563898e+03,2.550115e+02
2.564863e+03,2.494749e+02
2.565827e+03,2.456161e+02
2.566791e+03,2.507876e+02
2.567755e+03,2.519090e+02
2.568719e+03,2.453572e+02
2.569684e+03,2.406074e+02
2.570648e+03,2.426251e+02
2.571612e+03,2.431302e+02
2.572576e+03,2.428290e+02
2.573541e+03,2.473455e+02
2.574505e+03,2.551414e+02
2.575469e+03,2.562542e+02
2.576433e+03,2.535645e+02
2.577398e+03,2.517950e+02
2.578362e+03,2.497494e+02
2.579326e+03,2.440652e+02
2.580290e+03,2.399418e+02
2.581255e+03,2.394188e+02
2.582219e+03,2.394823e+02
2.583183e+03,2.380715e+02
2.584147e+03,2.376420e+02
2.585112e+03,2.384670e+02
2.586076e+03,2.374606e+02
2.587040e+03,2.341447e+02
2.588004e+03,2.373263e+02
2.588969e+03,2.439263e+02
2.589933e+03,2.482521e+02
2.590897e+03,2.499043e+02
2.591861e+03,2.454290e+02
2.592825e+03,2.422930e+02
2.593790e+03,2.460134e+02
2.594754e+03,2.487522e+02
2.595718e+03,2.446307e+02
2.596682e+03,2.399313e+02
2.597646e+03,2.355910e+02
2.598611e+03,2.340367e+02
2.599575e+03,2.352961e+02
2.600539e+03,2.383653e+02
2.601503e+03,2.419538e+02
2.602468e+03,2.416411e+02
2.603432e+03,2.396372e+02
2.604396e+03,2.420481e+02
2.605360e+03,2.437650e+02
2.606325e+03,2.373900e+02
2.607289e+03,2.326262e+02
2.608253e+03,2.337929e+02
2.609217e+03,2.366093e+02
2.610182e+03,2.401078e+02
2.611146e+03,2.394197e+02
2.612110e+03,2.352443e+02
2.613074e+03,2.325201e+02
2.614039e+03,2.320180e+02
2.615003e+03,2.328647e+02
2.615967e+03,2.349015e+02
2.616931e+03,2.396569e+02
2.617896e+03,2.430137e+02
2.618860e+03,2.362817e+02
2.619824e+03,2.313996e+02
2.620788e+03,2.326559e+02
2.621752e+03,2.358957e+02
2.622717e+03,2.396702e+02
2.623681e+03,2.452911e+02
2.624645e+03,2.512097e+02
2.625609e+03,2.431747e+02
2.626573e+03,2.250750e+02
2.627538e+03,2.298640e+02
2.628502e+03,2.422435e+02
2.629466e+03,2.368752e+02
2.630430e+03,2.266496e+02
2.631395e+03,2.285772e+02
2.632359e+03,2.319741e+02
2.633323e+03,2.337485e+02
2.634287e+03,2.342339e+02
2.635252e+03,2.337864e+02
2.636216e+03,2.341739e+02
2.637180e+03,2.352422e+02
2.638144e+03,2.328773e+02
2.639109e+03,2.286850e+02
2.640073e+03,2.277958e+02
2.641037e+03,2.286648e+02
2.642001e+03,2.287779e+02
2.642966e+03,2.288357e+02
2.643930e+03,2.294682e+02
2.644894e+03,2.289693e+02
2.645858e+03,2.230203e+02
2.646823e+03,2.248854e+02
2.647787e+03,2.337903e+02
2.648751e+03,2.371120e+02
2.649715e+03,2.339055e+02
2.650679e+03,2.365904e+02
2.651644e+03,2.403448e+02
2.652608e+03,2.371945e+02
2.653572e+03,2.319776e+02
2.654536e+03,2.311502e+02
2.655500e+03,2.335132e+02
2.656465e+03,2.399673e+02
2.657429e+03,2.377976e+02
2.658393e+03,2.221156e+02
2.659357e+03,2.157800e+02
2.660322e+03,2.211050e+02
2.661286e+03,2.265109e+02
2.662250e+03,2.310054e+02
2.663214e+03,2.337796e+02
2.664179e+03,2.344788e+02
2.665143e+03,2.311895e+02
2.666107e+03,2.282167e+02
2.667071e+03,2.276078e+02
2.668036e+03,2.289211e+02
2.669000e+03,2.329444e+02
2.669964e+03,2.357180e+02
2.670928e+03,2.369335e+02
2.671893e+03,2.356410e+02
2.672857e+03,2.325679e+02
2.673821e+03,2.292309e+02
2.674785e+03,2.259838e+02
2.675750e+03,2.226542e+02
2.676714e+03,2.216727e+02
2.677678e+03,2.297116e+02
2.678642e+03,2.324848e+02
2.679606e+03,2.267135e+02
2.680571e+03,2.218907e+02
2.681535e+03,2.198268e+02
2.682499e+03,2.200000e+02
2.683463e+03,2.216639e+02
2.684427e+03,2.221197e+02
2.685392e+03,2.226736e+02
2.686356e+03,2.272535e+02
2.687320e+03,2.300287e+02
2.688284e+03,2.239706e+02
2.689249e+03,2.224500e+02
2.690213e+03,2.279057e+02
2.691177e+03,2.301701e+02
2.692141e+03,2.257272e+02
2.693106e+03,2.292658e+02
2.694070e+03,2.362859e+02
2.695034e+03,2.347943e+02
2.695998e+03,2.296204e+02
2.696963e+03,2.278884e+02
2.697927e+03,2.298273e+02
2.698891e+03,2.359483e+02
2.699855e+03,2.369855e+02
2.700820e+03,2.268534e+02
2.701784e+03,2.233537e+02
2.702748e+03,2.266013e+02
2.703712e+03,2.222066e+02
2.704677e+03,2.145138e+02
2.705641e+03,2.248328e+02
2.706605e+03,2.370364e+02
2.707569e+03,2.279793e+02
2.708533e+03,2.206217e+02
2.709498e+03,2.258421e+02
2.710462e+03,2.310492e+02
2.711426e+03,2.314143e+02
2.712390e+03,2.293806e+02
2.713354e+03,2.255225e+02
2.714319e+03,2.206267e+02
2.715283e+03,2.164979e+02
2.716247e+03,2.182017e+02
2.717211e+03,2.225099e+02
2.718176e+03,2.271703e+02
2.719140e+03,2.306621e+02
2.720104e+03,2.315674e+02
2.721068e+03,2.321436e+02
2.722033e+03,2.325220e+02
2.722997e+03,2.310249e+02
2.723961e+03,2.282164e+02
2.724925e+03,2.271895e+02
2.725890e+03,2.264492e+02
2.726854e+03,2.234224e+02
2.727818e+03,2.193681e+02
2.728782e+03,2.139462e+02
2.729747e+03,2.132792e+02
2.730711e+03,2.244029e+02
2.731675e+03,2.294795e+02
2.732639e+03,2.292580e+02
2.733604e+03,2.278210e+02
2.734568e+03,2.258705e+02
2.735532e+03,2.226966e+02
2.736496e+03,2.205388e+02
2.737460e+03,2.215393e+02
2.738425e+03,2.212034e+02
2.739389e+03,2.152507e+02
2.740353e+03,2.169885e+02
2.741317e+03,2.274302e+02
2.742281e+03,2.252354e+02
2.743246e+03,2.149715e+02
2.744210e+03,2.137515e+02
2.745174e+03,2.168005e+02
2.746138e+03,2.193543e+02
2.747103e+03,2.211613e+02
2.748067e+03,2.223409e+02
2.749031e+03,2.235483e+02
2.749995e+03,2.248575e+02
2.750960e+03,2.278812e+02
2.751924e+03,2.304946e+02
2.752888e+03,2.244469e+02
2.753852e+03,2.152851e+02
2.754817e+03,2.162847e+02
2.755781e+03,2.194589e+02
2.756745e+03,2.207258e+02
2.757709e+03,2.196167e+02
2.758674e+03,2.159359e+02
2.759638e+03,2.140191e+02
2.760602e+03,2.150808e+02
2.761566e+03,2.204086e+02
2.762531e+03,2.257497e+02
2.763495e+03,2.227211e+02
2.764459e+03,2.160933e+02
2.765423e+03,2.047226e+02
2.766387e+03,2.058268e+02
2.767352e+03,2.221418e+02
2.768316e+03,2.278572e+02
2.769280e+03,2.180758e+02
2.770244e+03,2.156879e+02
2.771208e+03,2.193139e+02
2.772173e+03,2.246696e+02
2.773137e+03,2.288741e+02
2.774101e+03,2.291908e+02
2.775065e+03,2.267569e+02
2.776030e+03,2.204917e+02
2.776994e+03,2.175785e+02
2.777958e+03,2.174965e+02
2.778922e+03,2.141840e+02
2.779887e+03,2.098573e+02
2.780851e+03,2.135832e+02
2.781815e+03,2.170655e+02
2.782779e+03,2.147542e+02
2.783744e+03,2.115841e+02
2.784708e+03,2.099507e+02
2.785672e+03,2.094495e+02
2.786636e+03,2.101937e+02
2.787601e+03,2.124844e+02
2.788565e+03,2.161042e+02
2.789529e+03,2.227870e+02
2.790493e+03,2.268619e+02
2.791458e+03,2.195078e+02
2.792422e+03,2.151121e+02
2.793386e+03,2.169074e+02
2.794350e+03,2.173267e+02
2.795314e+03,2.144247e+02
2.796279e+03,2.172941e+02
2.797243e+03,2.210330e+02
2.798207e+03,2.174319e+02
2.799171e+03,2.135154e+02
2.800135e+03,2.204282e+02
2.801100e+03,2.227905e+02
2.802064e+03,2.167855e+02
2.803028e+03,2.145818e+02
2.803992e+03,2.164972e+02
2.804957e+03,2.189570e+02
2.805921e+03,2.216365e+02
2.806885e+03,2.257109e+02
2.807849e+03,2.271838e+02
2.808814e+03,2.244828e+02
2.809778e+03,2.210222e+02
2.810742e+03,2.185676e+02
2.811706e+03,2.137515e+02
2.812671e+03,2.083872e+02
2.813635e+03,2.090128e+02
2.814599e+03,2.131198e+02
2.815563e+03,2.185483e+02
2.816528e+03,2.211168e+02
2.817492e+03,2.166947e+02
2.818456e+03,2.178612e+02
2.819420e+03,2.245151e+02
2.820385e+03,2.239246e+02
2.821349e+03,2.176274e+02
2.822313e+03,2.129581e+02
2.823277e+03,2.135471e+02
2.824241e+03,2.225535e+02
2.825206e+03,2.260855e+02
2.826170e+03,2.133770e+02
2.827134e+03,2.102861e+02
2.828098e+03,2.178668e+02
2.829063e+03,2.190615e+02
2.830027e+03,2.170904e+02
2.830991e+03,2.211478e+02
2.831955e+03,2.253208e+02
2.832919e+03,2.239311e+02
2.833884e+03,2.215239e+02
2.834848e+03,2.190579e+02
2.835812e+03,2.186838e+02
2.836776e+03,2.205199e+02
2.837741e+03,2.262270e+02
2.838705e+03,2.312500e+02
2.839669e+03,2.306838e+02
2.840633e+03,2.283266e+02
2.841598e+03,2.263364e+02
2.842562e+03,2.232879e+02
2.843526e+03,2.192977e+02
2.844490e+03,2.230568e+02
2.845455e+03,2.288455e+02
2.846419e+03,2.259129e+02
2.847383e+03,2.213065e+02
2.848347e+03,2.222427e+02
2.849312e+03,2.254086e+02
2.850276e+03,2.299837e+02
2.851240e+03,2.310978e+02
2.852204e+03,2.291509e+02
2.853168e+03,2.277982e+02
2.854133e+03,2.270861e+02
2.855097e+03,2.257378e+02
2.856061e+03,2.284453e+02
2.857025e+03,2.357776e+02
2.857990e+03,2.417971e+02
2.858954e+03,2.448781e+02
2.859918e+03,2.397169e+02
2.860882e+03,2.329858e+02
2.861846e+03,2.355971e+02
2.862811e+03,2.406828e+02
2.863775e+03,2.429802e+02
2.864739e+03,2.399440e+02
2.865703e+03,2.303273e+02
2.866668e+03,2.330113e+02
2.867632e+03,2.435327e+02
2.868596e+03,2.487100e+02
2.869560e+03,2.510605e+02
2.870525e+03,2.557785e+02
2.871489e+03,2.536579e+02
2.872453e+03,2.425964e+02
2.873417e+03,2.393225e+02
2.874382e+03,2.434749e+02
2.875346e+03,2.407781e+02
2.876310e+03,2.363168e+02
2.877274e+03,2.347516e+02
2.878239e+03,2.423945e+02
2.879203e+03,2.606252e+02
2.880167e+03,2.681407e+02
2.881131e+03,2.582611e+02
2.882095e+03,2.543590e+02
2.883060e+03,2.542114e+02
2.884024e+03,2.536844e+02
2.884988e+03,2.525091e+02
2.885952e+03,2.499398e+02
2.886917e+03,2.495704e+02
2.887881e+03,2.525858e+02
2.888845e+03,2.489964e+02
2.889809e+03,2.431044e+02
2.890773e+03,2.440920e+02
2.891738e+03,2.502478e+02
2.892702e+03,2.670885e+02
2.893666e+03,2.749354e+02
2.894630e+03,2.706196e+02
2.895595e+03,2.640136e+02
2.896559e+03,2.578623e+02
2.897523e+03,2.577455e+02
2.898487e+03,2.598327e+02
2.899452e+03,2.604623e+02
2.900416e+03,2.610341e+02
2.901380e+03,2.617927e+02
2.902344e+03,2.619576e+02
2.903309e+03,2.615416e+02
2.904273e+03,2.638549e+02
2.905237e+03,2.634778e+02
2.906201e+03,2.525051e+02
2.907166e+03,2.487236e+02
2.908130e+03,2.597304e+02
2.909094e+03,2.660521e+02
2.910058e+03,2.638097e+02
2.911022e+03,2.560162e+02
2.911987e+03,2.483697e+02
2.912951e+03,2.467093e+02
2.913915e+03,2.475728e+02
2.914879e+03,2.495687e+02
2.915844e+03,2.482234e+02
2.916808e+03,2.447722e+02
2.917772e+03,2.513538e+02
2.918736e+03,2.573463e+02
2.919700e+03,2.422252e+02
2.920665e+03,2.303224e+02
2.921629e+03,2.468792e+02
2.922593e+03,2.447986e+02
2.923557e+03,2.277071e+02
2.924522e+03,2.228009e+02
2.925486e+03,2.282890e+02
2.926450e+03,2.466099e+02
2.927414e+03,2.561129e+02
2.928379e+03,2.428166e+02
2.929343e+03,2.364995e+02
2.930307e+03,2.382217e+02
2.931271e+03,2.347047e+02
2.932236e+03,2.301433e+02
2.933200e+03,2.362020e+02
2.934164e+03,2.386779e+02
2.935128e+03,2.308631e+02
2.936093e+03,2.361868e+02
2.937057e+03,2.530086e+02
2.938021e+03,2.508388e+02
2.938985e+03,2.399604e+02
2.939949e+03,2.374592e+02
2.940914e+03,2.360708e+02
2.941878e+03,2.330865e+02
2.942842e+03,2.321905e+02
2.943806e+03,2.334188e+02
2.944771e+03,2.337767e+02
2.945735e+03,2.338054e+02
2.946699e+03,2.356892e+02
2.947663e+03,2.328218e+02
2.948627e+03,2.233500e+02
2.949592e+03,2.244196e+02
2.950556e+03,2.371496e+02
2.951520e+03,2.327229e+02
2.952484e+03,2.271264e+02
2.953449e+03,2.369953e+02
2.954413e+03,2.495564e+02
2.955377e+03,2.591582e+02
2.956341e+03,2.730531e+02
2.957306e+03,2.867637e+02
2.958270e+03,2.735623e+02
2.959234e+03,2.515221e+02
2.960198e+03,2.363200e+02
2.961163e+03,2.273479e+02
2.962127e+03,2.235314e+02
2.963091e+03,2.292314e+02
2.964055e+03,2.392343e+02
2.965020e+03,2.356835e+02
2.965984e+03,2.314834e+02
2.966948e+03,2.368144e+02
2.967912e+03,2.351720e+02
2.968876e+03,2.158016e+02
2.969841e+03,2.148487e+02
2.970805e+03,2.237480e+02
2.971769e+03,2.251865e+02
2.972733e+03,2.226651e+02
2.973698e+03,2.188168e+02
2.974662e+03,2.140741e+02
2.975626e+03,2.087464e+02
2.976590e+03,2.097387e+02
2.977554e+03,2.153307e+02
2.978519e+03,2.235007e+02
2.979483e+03,2.277156e+02
2.980447e+03,2.232908e+02
2.981411e+03,2.168320e+02
2.982376e+03,2.102310e+02
2.983340e+03,2.094627e+02
2.984304e+03,2.090418e+02
2.985268e+03,2.024814e+02
2.986233e+03,2.016890e+02
2.987197e+03,2.170834e+02
2.988161e+03,2.134284e+02
2.989125e+03,1.990813e+02
2.990090e+03,2.080334e+02
2.991054e+03,2.190243e+02
2.992018e+03,2.146065e+02
2.992982e+03,2.076640e+02
2.993947e+03,2.017526e+02
2.994911e+03,2.122555e+02
2.995875e+03,2.270906e+02
2.996839e+03,2.259315e+02
2.997803e+03,2.188071e+02
2.998768e+03,2.124071e+02
2.999732e+03,2.075924e+02
3.000696e+03,2.051867e+02
3.001660e+03,2.068054e+02
3.002625e+03,2.089001e+02
3.003589e+03,2.076234e+02
3.004553e+03,2.093725e+02
3.005517e+03,2.179069e+02
3.006481e+03,2.152166e+02
3.007446e+03,2.048519e+02
3.008410e+03,2.065268e+02
3.009374e+03,2.136165e+02
3.010338e+03,2.218037e+02
3.011303e+03,2.261084e+02
3.012267e+03,2.246234e+02
3.013231e+03,2.195203e+02
3.014195e+03,2.160520e+02
3.015160e+03,2.273678e+02
3.016124e+03,2.306983e+02
3.017088e+03,2.191807e+02
3.018052e+03,2.125747e+02
3.019017e+03,2.131450e+02
3.019981e+03,2.101598e+02
3.020945e+03,2.070940e+02
3.021909e+03,2.069001e+02
3.022874e+03,2.081434e+02
3.023838e+03,2.096147e+02
3.024802e+03,2.023139e+02
3.025766e+03,1.922877e+02
3.026730e+03,1.960986e+02
3.027695e+03,2.030104e+02
3.028659e+03,2.083507e+02
3.029623e+03,2.101357e+02
3.030587e+03,2.086450e+02
3.031552e+03,1.980127e+02
3.032516e+03,1.909035e+02
3.033480e+03,2.088312e+02
3.034444e+03,2.220144e+02
3.035408e+03,2.250579e+02
3.036373e+03,2.217135e+02
3.037337e+03,2.163978e+02
3.038301e+03,2.219446e+02
3.039265e+03,2.242153e+02
3.040230e+03,2.091077e+02
3.041194e+03,2.114512e+02
3.042158e+03,2.241983e+02
3.043122e+03,2.144367e+02
3.044087e+03,1.998965e+02
3.045051e+03,2.073089e+02
3.046015e+03,2.132534e+02
3.046979e+03,2.114395e+02
3.047944e+03,2.058753e+02
3.048908e+03,2.040481e+02
3.049872e+03,2.179326e+02
3.050836e+03,2.290333e+02
3.051801e+03,2.244885e+02
3.052765e+03,2.172293e+02
3.053729e+03,2.093092e+02
3.054693e+03,2.016940e+02
3.055657e+03,2.020439e+02
3.056622e+03,2.146054e+02
3.057586e+03,2.250585e+02
3.058550e+03,2.290163e+02
3.059514e+03,2.221968e+02
3.060479e+03,2.122946e+02
3.061443e+03,2.112940e+02
3.062407e+03,2.128403e+02
3.063371e+03,2.143769e+02
3.064335e+03,2.102428e+02
3.065300e+03,2.038891e+02
3.066264e+03,2.147561e+02
3.067228e+03,2.250586e+02
3.068192e+03,2.227463e+02
3.069157e+03,2.183467e+02
3.070121e+03,2.159387e+02
3.071085e+03,2.290258e+02
3.072049e+03,2.415198e+02
3.073014e+03,2.219791e+02
3.073978e+03,2.119737e+02
3.074942e+03,2.195728e+02
3.075906e+03,2.160246e+02
3.076871e+03,2.067708e+02
3.077835e+03,2.007015e+02
3.078799e+03,2.032452e+02
3.079763e+03,2.224824e+02
3.080728e+03,2.210320e+02
3.081692e+03,2.039883e+02
3.082656e+03,1.956697e+02
3.083620e+03,2.013774e+02
3.084584e+03,2.221968e+02
3.085549e+03,2.342558e+02
3.086513e+03,2.326200e+02
3.087477e+03,2.200272e+02
3.088441e+03,2.110195e+02
3.089406e+03,2.234474e+02
3.090370e+03,2.399481e+02
3.091334e+03,2.535743e+02
3.092298e+03,2.334778e+02
3.093262e+03,2.023536e+02
3.094227e+03,2.072491e+02
3.095191e+03,2.174628e+02
3.096155e+03,2.236469e+02
3.097119e+03,2.141424e+02
3.098084e+03,2.025663e+02
3.099048e+03,2.171967e+02
3.100012e+03,2.325979e+02
3.100976e+03,2.301782e+02
3.101941e+03,2.128557e+02
3.102905e+03,1.899670e+02
3.103869e+03,2.071500e+02
3.104833e+03,2.247163e+02
3.105798e+03,2.178355e+02
3.106762e+03,2.039760e+02
3.107726e+03,1.908283e+02
3.108690e+03,2.132645e+02
3.109655e+03,2.383423e+02
3.110619e+03,2.178256e+02
3.111583e+03,2.104232e+02
3.112547e+03,2.222081e+02
3.113511e+03,2.205895e+02
3.114476e+03,2.121417e+02
3.115440e+03,2.130172e+02
3.116404e+03,2.231654e+02
3.117368e+03,2.475806e+02
3.118333e+03,2.427395e+02
3.119297e+03,2.286815e+02
3.120261e+03,2.431406e+02
3.121225e+03,2.490246e+02
3.122189e+03,2.250079e+02
3.123154e+03,2.126447e+02
3.124118e+03,2.138511e+02
3.125082e+03,2.193273e+02
3.126046e+03,2.217653e+02
3.127011e+03,2.176944e+02
3.127975e+03,2.160686e+02
3.128939e+03,2.180567e+02
3.129903e+03,2.280951e+02
3.130868e+03,2.354938e+02
3.131832e+03,2.255810e+02
3.132796e+03,2.237320e+02
3.133760e+03,2.296907e+02
3.134725e+03,2.269840e+02
3.135689e+03,2.303697e+02
3.136653e+03,2.561652e+02
3.137617e+03,2.616565e+02
3.138582e+03,2.343452e+02
3.139546e+03,2.420544e+02
3.140510e+03,2.575889e+02
3.141474e+03,2.526870e+02
3.142438e+03,2.414031e+02
3.143403e+03,2.284413e+02
3.144367e+03,2.085330e+02
3.145331e+03,1.926665e+02
3.146295e+03,2.080894e+02
3.147260e+03,2.186909e+02
3.148224e+03,2.163460e+02
3.149188e+03,2.448888e+02
3.150152e+03,2.671962e+02
3.151116e+03,2.328204e+02
3.152081e+03,2.045773e+02
3.153045e+03,2.095961e+02
3.154009e+03,2.199450e+02
3.154973e+03,2.289302e+02
3.155938e+03,2.255002e+02
3.156902e+03,2.214701e+02
3.157866e+03,2.203804e+02
3.158830e+03,2.246701e+02
3.159795e+03,2.307730e+02
3.160759e+03,2.290308e+02
3.161723e+03,2.242254e+02
3.162687e+03,2.168638e+02
3.163652e+03,2.098882e+02
3.164616e+03,2.098773e+02
3.165580e+03,2.301473e+02
3.166544e+03,2.407859e+02
3.167509e+03,2.313056e+02
3.168473e+03,2.338810e+02
3.169437e+03,2.443279e+02
3.170401e+03,2.369932e+02
3.171365e+03,2.242637e+02
3.172330e+03,2.113491e+02
3.173294e+03,2.125767e+02
3.174258e+03,2.238722e+02
3.175222e+03,2.374453e+02
3.176187e+03,2.449074e+02
3.177151e+03,2.408046e+02
3.178115e+03,2.403770e+02
3.179079e+03,2.401672e+02
3.180043e+03,2.191951e+02
3.181008e+03,2.143799e+02
3.181972e+03,2.368158e+02
3.182936e+03,2.485036e+02
3.183900e+03,2.479608e+02
3.184865e+03,2.375882e+02
3.185829e+03,2.339722e+02
3.186793e+03,2.572098e+02
3.187757e+03,2.639520e+02
3.188722e+03,2.561796e+02
3.189686e+03,2.378050e+02
3.190650e+03,2.355860e+02
3.191614e+03,2.560066e+02
3.192579e+03,2.457890e+02
3.193543e+03,2.173508e+02
3.194507e+03,2.227597e+02
3.195471e+03,2.352508e+02
3.196436e+03,2.448159e+02
3.197400e+03,2.444709e+02
3.198364e+03,2.446315e+02
3.199328e+03,2.642548e+02
3.200292e+03,2.732232e+02
3.201257e+03,0.000000e+00
3.202221e+03,0.000000e+00
3.203185e+03,0.000000e+00
3.204149e+03,0.000000e+00
3.205114e+03,0.000000e+00
3.206078e+03,0.000000e+00
3.207042e+03,0.000000e+00
3.208006e+03,0.000000e+00
3.208970e+03,0.000000e+00
3.209935e+03,0.000000e+00
3.210899e+03,0.000000e+00
3.211863e+03,0.000000e+00
3.212827e+03,0.000000e+00
3.213792e+03,0.000000e+00
3.214756e+03,0.000000e+00
3.215720e+03,0.000000e+00
3.216684e+03,0.000000e+00
3.217649e+03,0.000000e+00
3.218613e+03,0.000000e+00
3.219577e+03,0.000000e+00
3.220541e+03,0.000000e+00
3.221506e+03,0.000000e+00
3.222470e+03,0.000000e+00
3.223434e+03,0.000000e+00
3.224398e+03,0.000000e+00
3.225363e+03,0.000000e+00
3.226327e+03,0.000000e+00
3.227291e+03,0.000000e+00
3.228255e+03,0.000000e+00
3.229219e+03,0.000000e+00
3.230184e+03,0.000000e+00
3.231148e+03,0.000000e+00
3.232112e+03,0.000000e+00
3.233076e+03,0.000000e+00
3.234041e+03,0.000000e+00
3.235005e+03,0.000000e+00
3.235969e+03,0.000000e+00
3.236933e+03,0.000000e+00
3.237897e+03,0.000000e+00
3.238862e+03,0.000000e+00
3.239826e+03,0.000000e+00
3.240790e+03,0.000000e+00
3.241754e+03,0.000000e+00
3.242719e+03,0.000000e+00
3.243683e+03,0.000000e+00
3.244647e+03,0.000000e+00
3.245611e+03,0.000000e+00
3.246576e+03,0.000000e+00
3.247540e+03,0.000000e+00
3.248504e+03,0.000000e+00
3.249468e+03,0.000000e+00
3.250433e+03,0.000000e+00
3.251397e+03,0.000000e+00
3.252361e+03,0.000000e+00
3.253325e+03,0.000000e+00
3.254290e+03,0.000000e+00
3.255254e+03,0.000000e+00
3.256218e+03,0.000000e+00
3.257182e+03,0.000000e+00
3.258146e+03,0.000000e+00
3.259111e+03,0.000000e+00
3.260075e+03,0.000000e+00
3.261039e+03,0.000000e+00
3.262003e+03,0.000000e+00
3.262968e+03,0.000000e+00
3.263932e+03,0.000000e+00
3.264896e+03,0.000000e+00
3.265860e+03,0.000000e+00
3.266824e+03,0.000000e+00
3.267789e+03,0.000000e+00
3.268753e+03,0.000000e+00
3.269717e+03,0.000000e+00
3.270681e+03,0.000000e+00
3.271646e+03,0.000000e+00
3.272610e+03,0.000000e+00
3.273574e+03,0.000000e+00
3.274538e+03,0.000000e+00
3.275503e+03,0.000000e+00
3.276467e+03,0.000000e+00
3.277431e+03,0.000000e+00
3.278395e+03,0.000000e+00
3.279360e+03,0.000000e+00
3.280324e+03,0.000000e+00
3.281288e+03,0.000000e+00
3.282252e+03,0.000000e+00
3.283217e+03,0.000000e+00
3.284181e+03,0.000000e+00
3.285145e+03,0.000000e+00
3.286109e+03,0.000000e+00
3.287073e+03,0.000000e+00
3.288038e+03,0.000000e+00
3.289002e+03,0.000000e+00
3.289966e+03,0.000000e+00
3.290930e+03,0.000000e+00
3.291895e+03,0.000000e+00
3.292859e+03,0.000000e+00
3.293823e+03,0.000000e+00
3.294787e+03,0.000000e+00
3.295751e+03,0.000000e+00
3.296716e+03,0.000000e+00
3.297680e+03,0.000000e+00
3.298644e+03,0.000000e+00
3.299608e+03,0.000000e+00
3.300573e+03,0.000000e+00
3.301537e+03,0.000000e+00
3.302501e+03,0.000000e+00
3.303465e+03,0.000000e+00
3.304430e+03,0.000000e+00
3.305394e+03,0.000000e+00
3.306358e+03,0.000000e+00
3.307322e+03,0.000000e+00
3.308287e+03,0.000000e+00
3.309251e+03,0.000000e+00
3.310215e+03,0.000000e+00
3.311179e+03,0.000000e+00
3.312144e+03,0.000000e+00
3.313108e+03,0.000000e+00
3.314072e+03,0.000000e+00
3.315036e+03,0.000000e+00
3.316000e+03,0.000000e+00
3.316965e+03,0.000000e+00
3.317929e+03,0.000000e+00
3.318893e+03,0.000000e+00
3.319857e+03,0.000000e+00
3.320822e+03,0.000000e+00
3.321786e+03,0.000000e+00
3.322750e+03,0.000000e+00
3.323714e+03,0.000000e+00
3.324678e+03,0.000000e+00
3.325643e+03,0.000000e+00
3.326607e+03,0.000000e+00
3.327571e+03,0.000000e+00
3.328535e+03,0.000000e+00
3.329500e+03,0.000000e+00
3.330464e+03,0.000000e+00
3.331428e+03,0.000000e+00
3.332392e+03,0.000000e+00
3.333357e+03,0.000000e+00
3.334321e+03,0.000000e+00
3.335285e+03,0.000000e+00
3.336249e+03,0.000000e+00
3.337214e+03,0.000000e+00
3.338178e+03,0.000000e+00
3.339142e+03,0.000000e+00
3.340106e+03,0.000000e+00
3.341071e+03,0.000000e+00
3.342035e+03,0.000000e+00
3.342999e+03,0.000000e+00
3.343963e+03,0.000000e+00
3.344927e+03,0.000000e+00
3.345892e+03,0.000000e+00
3.346856e+03,0.000000e+00
3.347820e+03,0.000000e+00
3.348784e+03,0.000000e+00
3.349749e+03,0.000000e+00
3.350713e+03,0.000000e+00
3.351677e+03,0.000000e+00
3.352641e+03,0.000000e+00
3.353605e+03,0.000000e+00
3.354570e+03,0.000000e+00
3.355534e+03,0.000000e+00
3.356498e+03,0.000000e+00
3.357462e+03,0.000000e+00
3.358427e+03,0.000000e+00
3.359391e+03,0.000000e+00
3.360355e+03,0.000000e+00
3.361319e+03,0.000000e+00
3.362284e+03,0.000000e+00
3.363248e+03,0.000000e+00
3.364212e+03,0.000000e+00
3.365176e+03,0.000000e+00
3.366141e+03,0.000000e+00
3.367105e+03,0.000000e+00
3.368069e+03,0.000000e+00
3.369033e+03,0.000000e+00
3.369998e+03,0.000000e+00
3.370962e+03,0.000000e+00
3.371926e+03,0.000000e+00
3.372890e+03,0.000000e+00
3.373854e+03,0.000000e+00
3.374819e+03,0.000000e+00
3.375783e+03,0.000000e+00
3.376747e+03,0.000000e+00
3.377711e+03,0.000000e+00
3.378676e+03,0.000000e+00
3.379640e+03,0.000000e+00
3.380604e+03,0.000000e+00
3.381568e+03,0.000000e+00
3.382532e+03,0.000000e+00
3.383497e+03,0.000000e+00
3.384461e+03,0.000000e+00
3.385425e+03,0.000000e+00
3.386389e+03,0.000000e+00
3.387354e+03,0.000000e+00
3.388318e+03,0.000000e+00
3.389282e+03,0.000000e+00
3.390246e+03,0.000000e+00
3.391211e+03,0.000000e+00
3.392175e+03,0.000000e+00
3.393139e+03,0.000000e+00
3.394103e+03,0.000000e+00
3.395068e+03,0.000000e+00
3.396032e+03,0.000000e+00
3.396996e+03,0.000000e+00
3.397960e+03,0.000000e+00
3.398925e+03,0.000000e+00
3.399889e+03,0.000000e+00
3.400853e+03,0.000000e+00
3.401817e+03,0.000000e+00
3.402781e+03,0.000000e+00
3.403746e+03,0.000000e+00
3.404710e+03,0.000000e+00
3.405674e+03,0.000000e+00
3.406638e+03,0.000000e+00
3.407603e+03,0.000000e+00
3.408567e+03,0.000000e+00
3.409531e+03,0.000000e+00
3.410495e+03,0.000000e+00
3.411459e+03,0.000000e+00
3.412424e+03,0.000000e+00
3.413388e+03,0.000000e+00
3.414352e+03,0.000000e+00
3.415316e+03,0.000000e+00
3.416281e+03,0.000000e+00
3.417245e+03,0.000000e+00
3.418209e+03,0.000000e+00
3.419173e+03,0.000000e+00
3.420138e+03,0.000000e+00
3.421102e+03,0.000000e+00
3.422066e+03,0.000000e+00
3.423030e+03,0.000000e+00
3.423995e+03,0.000000e+00
3.424959e+03,0.000000e+00
3.425923e+03,0.000000e+00
3.426887e+03,0.000000e+00
3.427852e+03,0.000000e+00
3.428816e+03,0.000000e+00
3.429780e+03,0.000000e+00
3.430744e+03,0.000000e+00
3.431708e+03,0.000000e+00
3.432673e+03,0.000000e+00
3.433637e+03,0.000000e+00
3.434601e+03,0.000000e+00
3.435565e+03,0.000000e+00
3.436530e+03,0.000000e+00
3.437494e+03,0.000000e+00
3.438458e+03,0.000000e+00
3.439422e+03,0.000000e+00
3.440386e+03,0.000000e+00
3.441351e+03,0.000000e+00
3.442315e+03,0.000000e+00
3.443279e+03,0.000000e+00
3.444243e+03,0.000000e+00
3.445208e+03,0.000000e+00
3.446172e+03,0.000000e+00
3.447136e+03,0.000000e+00
3.448100e+03,0.000000e+00
3.449065e+03,0.000000e+00
3.450029e+03,0.000000e+00
3.450993e+03,0.000000e+00
3.451957e+03,0.000000e+00
3.452922e+03,0.000000e+00
3.453886e+03,0.000000e+00
3.454850e+03,0.000000e+00
3.455814e+03,0.000000e+00
3.456779e+03,0.000000e+00
3.457743e+03,0.000000e+00
3.458707e+03,0.000000e+00
3.459671e+03,0.000000e+00
3.460635e+03,0.000000e+00
3.461600e+03,0.000000e+00
3.462564e+03,0.000000e+00
3.463528e+03,0.000000e+00
3.464492e+03,0.000000e+00
3.465457e+03,0.000000e+00
3.466421e+03,0.000000e+00
3.467385e+03,0.000000e+00
3.468349e+03,0.000000e+00
3.469313e+03,0.000000e+00
3.470278e+03,0.000000e+00
3.471242e+03,0.000000e+00
3.472206e+03,0.000000e+00
3.473170e+03,0.000000e+00
3.474135e+03,0.000000e+00
3.475099e+03,0.000000e+00
3.476063e+03,0.000000e+00
3.477027e+03,0.000000e+00
3.477992e+03,0.000000e+00
3.478956e+03,0.000000e+00
3.479920e+03,0.000000e+00
3.480884e+03,0.000000e+00
3.481849e+03,0.000000e+00
3.482813e+03,0.000000e+00
3.483777e+03,0.000000e+00
3.484741e+03,0.000000e+00
3.485706e+03,0.000000e+00
3.486670e+03,0.000000e+00
3.487634e+03,0.000000e+00
3.488598e+03,0.000000e+00
3.489563e+03,0.000000e+00
3.490527e+03,0.000000e+00
3.491491e+03,0.000000e+00
3.492455e+03,0.000000e+00
3.493419e+03,0.000000e+00
3.494384e+03,0.000000e+00
3.495348e+03,0.000000e+00
3.496312e+03,0.000000e+00
3.497276e+03,0.000000e+00
3.498240e+03,0.000000e+00
3.499205e+03,0.000000e+00
3.500169e+03,0.000000e+00
