9.931763e+01,0.000000e+00
1.002819e+02,0.000000e+00
1.012461e+02,0.000000e+00
1.022103e+02,0.000000e+00
1.031746e+02,0.000000e+00
1.041388e+02,0.000000e+00
1.051030e+02,0.000000e+00
1.060673e+02,0.000000e+00
1.070315e+02,0.000000e+00
1.079957e+02,0.000000e+00
1.089600e+02,0.000000e+00
1.099242e+02,0.000000e+00
1.108884e+02,0.000000e+00
1.118527e+02,0.000000e+00
1.128169e+02,0.000000e+00
1.137811e+02,0.000000e+00
1.147454e+02,0.000000e+00
1.157096e+02,0.000000e+00
1.166738e+02,0.000000e+00
1.176381e+02,0.000000e+00
1.186023e+02,0.000000e+00
1.195665e+02,0.000000e+00
1.205308e+02,0.000000e+00
1.214950e+02,0.000000e+00
1.224592e+02,0.000000e+00
1.234235e+02,0.000000e+00
1.243877e+02,0.000000e+00
1.253519e+02,0.000000e+00
1.263162e+02,0.000000e+00
1.272804e+02,0.000000e+00
1.282446e+02,0.000000e+00
1.292089e+02,0.000000e+00
1.301731e+02,0.000000e+00
1.311373e+02,0.000000e+00
1.321016e+02,0.000000e+00
1.330658e+02,0.000000e+00
1.340300e+02,0.000000e+00
1.349943e+02,0.000000e+00
1.359585e+02,0.000000e+00
1.369227e+02,0.000000e+00
1.378870e+02,0.000000e+00
1.388512e+02,0.000000e+00
1.398154e+02,0.000000e+00
1.407797e+02,0.000000e+00
1.417439e+02,0.000000e+00
1.427081e+02,0.000000e+00
1.436724e+02,0.000000e+00
1.446366e+02,0.000000e+00
1.456008e+02,0.000000e+00
1.465651e+02,0.000000e+00
1.475293e+02,0.000000e+00
1.484935e+02,0.000000e+00
1.494578e+02,0.000000e+00
1.504220e+02,0.000000e+00
1.513862e+02,0.000000e+00
1.523505e+02,0.000000e+00
1.533147e+02,0.000000e+00
1.542789e+02,0.000000e+00
1.552432e+02,0.000000e+00
1.562074e+02,0.000000e+00
1.571716e+02,0.000000e+00
1.581359e+02,0.000000e+00
1.591001e+02,0.000000e+00
1.600643e+02,0.000000e+00
1.610286e+02,0.000000e+00
1.619928e+02,0.000000e+00
1.629570e+02,0.000000e+00
1.639213e+02,0.000000e+00
1.648855e+02,0.000000e+00
1.658497e+02,0.000000e+00
1.668140e+02,0.000000e+00
1.677782e+02,0.000000e+00
1.687424e+02,0.000000e+00
1.697067e+02,0.000000e+00
1.706709e+02,0.000000e+00
1.716351e+02,0.000000e+00
1.725994e+02,0.000000e+00
1.735636e+02,0.000000e+00
1.745278e+02,0.000000e+00
1.754921e+02,0.000000e+00
1.764563e+02,0.000000e+00
1.774205e+02,0.000000e+00
1.783848e+02,0.000000e+00
1.793490e+02,0.000000e+00
1.803132e+02,0.000000e+00
1.812775e+02,0.000000e+00
1.822417e+02,0.000000e+00
1.832059e+02,0.000000e+00
1.841702e+02,0.000000e+00
1.851344e+02,0.000000e+00
1.860986e+02,0.000000e+00
1.870629e+02,0.000000e+00
1.880271e+02,0.000000e+00
1.889913e+02,0.000000e+00
1.899556e+02,0.000000e+00
1.909198e+02,0.000000e+00
1.918840e+02,0.000000e+00
1.928483e+02,0.000000e+00
1.938125e+02,0.000000e+00
1.947767e+02,0.000000e+00
1.957410e+02,0.000000e+00
1.967052e+02,0.000000e+00
1.976694e+02,0.000000e+00
1.986337e+02,0.000000e+00
1.995979e+02,5.185330e+03
2.005621e+02,5.192632e+03
2.015264e+02,5.199551e+03
2.024906e+02,5.205469e+03
2.034548e+02,5.211300e+03
2.044191e+02,5.215400e+03
2.053833e+02,5.217438e+03
2.063475e+02,5.218938e+03
2.073118e+02,5.222431e+03
2.082760e+02,5.229289e+03
2.092402e+02,5.233882e+03
2.102045e+02,5.238776e+03
2.111687e+02,5.243496e+03
2.121329e+02,5.246145e+03
2.130972e+02,5.243880e+03
2.140614e+02,5.238659e+03
2.150256e+02,5.238067e+03
2.159899e+02,5.245110e+03
2.169541e+02,5.254203e+03
2.179183e+02,5.264825e+03
2.188826e+02,5.275897e+03
2.198468e+02,5.285646e+03
2.208110e+02,5.291758e+03
2.217753e+02,5.293673e+03
2.227395e+02,5.294801e+03
2.237037e+02,5.298460e+03
2.246680e+02,5.303479e+03
2.256322e+02,5.307765e+03
2.265964e+02,5.312978e+03
2.275607e+02,5.318699e+03
2.285249e+02,5.322717e+03
2.294892e+02,5.324209e+03
2.304534e+02,5.328826e+03
2.314176e+02,5.339732e+03
2.323819e+02,5.354604e+03
2.333461e+02,5.368608e+03
2.343103e+02,5.381625e+03
2.352746e+02,5.394028e+03
2.362388e+02,5.405111e+03
2.372030e+02,5.413320e+03
2.381673e+02,5.417618e+03
2.391315e+02,5.419653e+03
2.400957e+02,5.419445e+03
2.410600e+02,5.422005e+03
2.420242e+02,5.432043e+03
2.429884e+02,5.449261e+03
2.439527e+02,5.469005e+03
2.449169e+02,5.487097e+03
2.458811e+02,5.502368e+03
2.468454e+02,5.514224e+03
2.478096e+02,5.522730e+03
2.487738e+02,5.528304e+03
2.497381e+02,5.529904e+03
2.507023e+02,5.527635e+03
2.516665e+02,5.524309e+03
2.526308e+02,5.523933e+03
2.535950e+02,5.525850e+03
2.545592e+02,5.527069e+03
2.555235e+02,5.528490e+03
2.564877e+02,5.530494e+03
2.574519e+02,5.534074e+03
2.584161e+02,5.540705e+03
2.593804e+02,5.550909e+03
2.603446e+02,5.561343e+03
2.613088e+02,5.567325e+03
2.622731e+02,5.574541e+03
2.632373e+02,5.584581e+03
2.642015e+02,5.596213e+03
2.651658e+02,5.607899e+03
2.661300e+02,5.620498e+03
2.670942e+02,5.636342e+03
2.680585e+02,5.650687e+03
2.690227e+02,5.661929e+03
2.699869e+02,5.671367e+03
2.709512e+02,5.679167e+03
2.719154e+02,5.686803e+03
2.728796e+02,5.694952e+03
2.738439e+02,5.704530e+03
2.748081e+02,5.717331e+03
2.757723e+02,5.732034e+03
2.767366e+02,5.745066e+03
2.777008e+02,5.753859e+03
2.786650e+02,5.755967e+03
2.796293e+02,5.747548e+03
2.805935e+02,5.734876e+03
2.815577e+02,5.728061e+03
2.825220e+02,5.729776e+03
2.834862e+02,5.734076e+03
2.844504e+02,5.731216e+03
2.854147e+02,5.719755e+03
2.863789e+02,5.707643e+03
2.873431e+02,5.697709e+03
2.883074e+02,5.690657e+03
2.892716e+02,5.685916e+03
2.902358e+02,5.682063e+03
2.912001e+02,5.678362e+03
2.921643e+02,5.675670e+03
2.931285e+02,5.675995e+03
2.940928e+02,5.677728e+03
2.950570e+02,5.678177e+03
2.960212e+02,5.676900e+03
2.969855e+02,5.676560e+03
2.979497e+02,5.682854e+03
2.989139e+02,5.702716e+03
2.998782e+02,5.715262e+03
3.008424e+02,5.717889e+03
3.018066e+02,5.718231e+03
3.027709e+02,5.720096e+03
3.037351e+02,5.724416e+03
3.046993e+02,5.728386e+03
3.056636e+02,5.727081e+03
3.066278e+02,5.718315e+03
3.075920e+02,5.712298e+03
3.085563e+02,5.715423e+03
3.095205e+02,5.725771e+03
3.104847e+02,5.736582e+03
3.114490e+02,5.742640e+03
3.124132e+02,5.745178e+03
3.133774e+02,5.748454e+03
3.143417e+02,5.753047e+03
3.153059e+02,5.756256e+03
3.162701e+02,5.756607e+03
3.172344e+02,5.755053e+03
3.181986e+02,5.754097e+03
3.191628e+02,5.755683e+03
3.201271e+02,5.758806e+03
3.210913e+02,5.760606e+03
3.220555e+02,5.758880e+03
3.230198e+02,5.754232e+03
3.239840e+02,5.753597e+03
3.249482e+02,5.757399e+03
3.259125e+02,5.763635e+03
3.268767e+02,5.774962e+03
3.278409e+02,5.789289e+03
3.288052e+02,5.801061e+03
3.297694e+02,5.804095e+03
3.307336e+02,5.796044e+03
3.316979e+02,5.791243e+03
3.326621e+02,5.792417e+03
3.336263e+02,5.793852e+03
3.345906e+02,5.794053e+03
3.355548e+02,5.794428e+03
3.365190e+02,5.795185e+03
3.374833e+02,5.793077e+03
3.384475e+02,5.786556e+03
3.394117e+02,5.787120e+03
3.403760e+02,5.803965e+03
3.413402e+02,5.827805e+03
3.423044e+02,5.842517e+03
3.432687e+02,5.834075e+03
3.442329e+02,5.821962e+03
3.451971e+02,5.825149e+03
3.461614e+02,5.842616e+03
3.471256e+02,5.859097e+03
3.480898e+02,5.863961e+03
3.490541e+02,5.854512e+03
3.500183e+02,5.847505e+03
3.509825e+02,5.845717e+03
3.519468e+02,5.847553e+03
3.529110e+02,5.850955e+03
3.538752e+02,5.854200e+03
3.548395e+02,5.856192e+03
3.558037e+02,5.856205e+03
3.567680e+02,5.850346e+03
3.577322e+02,5.849731e+03
3.586964e+02,5.860042e+03
3.596607e+02,5.876694e+03
3.606249e+02,5.893417e+03
3.615891e+02,5.906634e+03
3.625534e+02,5.913468e+03
3.635176e+02,5.909982e+03
3.644818e+02,5.894167e+03
3.654461e+02,5.878452e+03
3.664103e+02,5.873320e+03
3.673745e+02,5.879618e+03
3.683388e+02,5.888989e+03
3.693030e+02,5.897033e+03
3.702672e+02,5.902870e+03
3.712315e+02,5.905565e+03
3.721957e+02,5.903849e+03
3.731599e+02,5.900671e+03
3.741242e+02,5.902766e+03
3.750884e+02,5.921882e+03
3.760526e+02,5.937655e+03
3.770169e+02,5.946144e+03
3.779811e+02,5.949891e+03
3.789453e+02,5.952177e+03
3.799096e+02,5.954413e+03
3.808738e+02,5.954873e+03
3.818380e+02,5.947850e+03
3.828023e+02,5.926334e+03
3.837665e+02,5.912359e+03
3.847307e+02,5.913960e+03
3.856950e+02,5.926720e+03
3.866592e+02,5.939951e+03
3.876234e+02,5.945616e+03
3.885877e+02,5.946602e+03
3.895519e+02,5.952978e+03
3.905161e+02,5.967513e+03
3.914804e+02,5.981564e+03
3.924446e+02,5.985297e+03
3.934088e+02,5.978276e+03
3.943731e+02,5.971883e+03
3.953373e+02,5.970942e+03
3.963015e+02,5.971475e+03
3.972658e+02,5.966845e+03
3.982300e+02,5.954872e+03
3.991942e+02,5.941096e+03
4.001585e+02,5.936114e+03
4.011227e+02,5.943343e+03
4.020869e+02,5.951758e+03
4.030512e+02,5.958495e+03
4.040154e+02,5.963275e+03
4.049796e+02,5.967762e+03
4.059439e+02,5.972450e+03
4.069081e+02,5.977403e+03
4.078723e+02,5.984172e+03
4.088366e+02,5.993958e+03
4.098008e+02,5.998785e+03
4.107650e+02,5.993170e+03
4.117293e+02,5.978854e+03
4.126935e+02,5.970472e+03
4.136577e+02,5.978776e+03
4.146220e+02,5.994238e+03
4.155862e+02,6.002735e+03
4.165504e+02,6.001131e+03
4.175147e+02,5.994476e+03
4.184789e+02,5.990357e+03
4.194431e+02,5.991159e+03
4.204074e+02,5.991279e+03
4.213716e+02,5.987660e+03
4.223358e+02,5.984231e+03
4.233001e+02,5.986464e+03
4.242643e+02,5.998577e+03
4.252285e+02,6.015183e+03
4.261928e+02,6.021763e+03
4.271570e+02,6.014024e+03
4.281212e+02,6.007212e+03
4.290855e+02,6.009468e+03
4.300497e+02,6.016195e+03
4.310139e+02,6.018048e+03
4.319782e+02,6.007248e+03
4.329424e+02,5.994023e+03
4.339066e+02,5.989212e+03
4.348709e+02,5.992981e+03
4.358351e+02,6.000994e+03
4.367993e+02,6.010391e+03
4.377636e+02,6.024445e+03
4.387278e+02,6.031625e+03
4.396920e+02,6.028940e+03
4.406563e+02,6.023283e+03
4.416205e+02,6.018151e+03
4.425847e+02,6.014192e+03
4.435490e+02,6.011024e+03
4.445132e+02,6.008370e+03
4.454774e+02,6.006650e+03
4.464417e+02,6.008021e+03
4.474059e+02,6.012063e+03
4.483701e+02,6.018039e+03
4.493344e+02,6.026470e+03
4.502986e+02,6.045054e+03
4.512628e+02,6.061275e+03
4.522271e+02,6.063589e+03
4.531913e+02,6.054471e+03
4.541555e+02,6.045542e+03
4.551198e+02,6.044378e+03
4.560840e+02,6.051338e+03
4.570482e+02,6.047683e+03
4.580125e+02,6.020063e+03
4.589767e+02,5.999945e+03
4.599409e+02,6.000120e+03
4.609052e+02,6.016003e+03
4.618694e+02,6.032862e+03
4.628336e+02,6.039418e+03
4.637979e+02,6.037083e+03
4.647621e+02,6.036545e+03
4.657263e+02,6.041964e+03
4.666906e+02,6.049247e+03
4.676548e+02,6.050244e+03
4.686190e+02,6.040635e+03
4.695833e+02,6.035815e+03
4.705475e+02,6.046745e+03
4.715117e+02,6.063040e+03
4.724760e+02,6.069333e+03
4.734402e+02,6.060447e+03
4.744044e+02,6.043044e+03
4.753687e+02,6.031650e+03
4.763329e+02,6.028648e+03
4.772971e+02,6.028809e+03
4.782614e+02,6.032187e+03
4.792256e+02,6.038113e+03
4.801898e+02,6.045377e+03
4.811541e+02,6.053705e+03
4.821183e+02,6.061437e+03
4.830826e+02,6.066700e+03
4.840468e+02,6.068978e+03
4.850110e+02,6.068012e+03
4.859753e+02,6.063497e+03
4.869395e+02,6.054748e+03
4.879037e+02,6.049158e+03
4.888680e+02,6.052134e+03
4.898322e+02,6.054970e+03
4.907964e+02,6.052283e+03
4.917607e+02,6.044893e+03
4.927249e+02,6.037542e+03
4.936891e+02,6.033583e+03
4.946534e+02,6.032791e+03
4.956176e+02,6.036725e+03
4.965818e+02,6.051057e+03
4.975461e+02,6.065422e+03
4.985103e+02,6.069644e+03
4.994745e+02,6.059781e+03
5.004388e+02,6.049774e+03
5.014030e+02,6.046856e+03
5.023672e+02,6.049523e+03
5.033315e+02,6.055511e+03
5.042957e+02,6.064260e+03
5.052599e+02,6.072171e+03
5.062242e+02,6.072231e+03
5.071884e+02,6.055348e+03
5.081526e+02,6.047210e+03
5.091169e+02,6.059583e+03
5.100811e+02,6.080154e+03
5.110453e+02,6.093206e+03
5.120095e+02,6.090286e+03
5.129738e+02,6.081843e+03
5.139380e+02,6.081905e+03
5.149022e+02,6.090501e+03
5.158665e+02,6.096575e+03
5.168307e+02,6.090687e+03
5.177949e+02,6.070352e+03
5.187592e+02,6.055789e+03
5.197234e+02,6.055021e+03
5.206876e+02,6.060721e+03
5.216519e+02,6.074567e+03
5.226161e+02,6.093638e+03
5.235803e+02,6.109510e+03
5.245446e+02,6.113497e+03
5.255088e+02,6.107228e+03
5.264730e+02,6.102258e+03
5.274373e+02,6.097822e+03
5.284015e+02,6.096029e+03
5.293657e+02,6.099333e+03
5.303300e+02,6.108876e+03
5.312942e+02,6.114783e+03
5.322584e+02,6.112139e+03
5.332227e+02,6.110921e+03
5.341869e+02,6.119479e+03
5.351511e+02,6.138305e+03
5.361154e+02,6.161847e+03
5.370796e+02,6.186086e+03
5.380438e+02,6.214112e+03
5.390081e+02,6.233824e+03
5.399723e+02,6.239062e+03
5.409365e+02,6.238876e+03
5.419008e+02,6.240441e+03
5.428650e+02,6.244963e+03
5.438292e+02,6.245585e+03
5.447935e+02,6.233199e+03
5.457577e+02,6.214743e+03
5.467219e+02,6.205857e+03
5.476862e+02,6.213972e+03
5.486504e+02,6.233119e+03
5.496146e+02,6.245947e+03
5.505789e+02,6.248142e+03
5.515431e+02,6.249788e+03
5.525073e+02,6.260155e+03
5.534716e+02,6.273991e+03
5.544358e+02,6.280150e+03
5.554000e+02,6.266248e+03
5.563643e+02,6.244942e+03
5.573285e+02,6.226240e+03
5.582927e+02,6.209854e+03
5.592570e+02,6.199016e+03
5.602212e+02,6.198464e+03
5.611854e+02,6.207517e+03
5.621497e+02,6.207360e+03
5.631139e+02,6.190158e+03
5.640781e+02,6.167373e+03
5.650424e+02,6.140132e+03
5.660066e+02,6.111435e+03
5.669708e+02,6.088224e+03
5.679351e+02,6.078473e+03
5.688993e+02,6.076931e+03
5.698635e+02,6.074385e+03
5.708278e+02,6.070774e+03
5.717920e+02,6.067087e+03
5.727562e+02,6.062436e+03
5.737205e+02,6.054415e+03
5.746847e+02,6.048421e+03
5.756489e+02,6.039751e+03
5.766132e+02,6.034875e+03
5.775774e+02,6.042809e+03
5.785416e+02,6.063626e+03
5.795059e+02,6.079056e+03
5.804701e+02,6.066308e+03
5.814343e+02,6.035719e+03
5.823986e+02,6.022989e+03
5.833628e+02,6.037900e+03
5.843270e+02,6.063164e+03
5.852913e+02,6.074850e+03
5.862555e+02,6.060009e+03
5.872197e+02,6.050695e+03
5.881840e+02,6.045478e+03
5.891482e+02,6.045048e+03
5.901124e+02,6.051288e+03
5.910767e+02,6.065393e+03
5.920409e+02,6.082084e+03
5.930051e+02,6.098712e+03
5.939694e+02,6.113677e+03
5.949336e+02,6.119197e+03
5.958978e+02,6.111196e+03
5.968621e+02,6.095231e+03
5.978263e+02,6.084596e+03
5.987905e+02,6.089146e+03
5.997548e+02,6.089317e+03
6.007190e+02,6.076672e+03
6.016832e+02,6.062537e+03
6.026475e+02,6.059217e+03
6.036117e+02,6.072307e+03
6.045759e+02,6.092925e+03
6.055402e+02,6.112515e+03
6.065044e+02,6.130173e+03
6.074686e+02,6.146287e+03
6.084329e+02,6.164510e+03
6.093971e+02,6.182128e+03
6.103613e+02,6.182708e+03
6.113256e+02,6.150674e+03
6.122899e+02,6.118115e+03
6.132541e+02,6.086674e+03
6.142183e+02,6.058676e+03
6.151826e+02,6.037962e+03
6.161468e+02,6.031815e+03
6.171110e+02,6.032804e+03
6.180753e+02,6.031831e+03
6.190395e+02,6.028342e+03
6.200037e+02,6.021768e+03
6.209680e+02,6.010453e+03
6.219322e+02,5.995700e+03
6.228964e+02,5.987610e+03
6.238607e+02,5.992047e+03
6.248249e+02,5.996166e+03
6.257891e+02,5.991942e+03
6.267534e+02,5.981215e+03
6.277176e+02,5.974102e+03
6.286818e+02,5.982012e+03
6.296461e+02,5.994820e+03
6.306103e+02,6.000510e+03
6.315745e+02,5.999491e+03
6.325388e+02,5.997111e+03
6.335030e+02,5.996044e+03
6.344672e+02,5.995358e+03
6.354315e+02,5.996131e+03
6.363957e+02,6.001010e+03
6.373599e+02,6.001111e+03
6.383242e+02,5.991617e+03
6.392884e+02,5.974445e+03
6.402526e+02,5.960294e+03
6.412169e+02,5.953506e+03
6.421811e+02,5.950106e+03
6.431453e+02,5.946851e+03
6.441096e+02,5.943366e+03
6.450738e+02,5.940461e+03
6.460380e+02,5.939930e+03
6.470023e+02,5.943084e+03
6.479665e+02,5.948143e+03
6.489307e+02,5.955468e+03
6.498950e+02,5.960806e+03
6.508592e+02,5.958552e+03
6.518234e+02,5.947192e+03
6.527877e+02,5.937826e+03
6.537519e+02,5.934587e+03
6.547161e+02,5.933049e+03
6.556804e+02,5.931037e+03
6.566446e+02,5.928204e+03
6.576088e+02,5.923511e+03
6.585731e+02,5.913101e+03
6.595373e+02,5.898717e+03
6.605015e+02,5.892101e+03
6.614658e+02,5.896408e+03
6.624300e+02,5.903127e+03
6.633942e+02,5.903309e+03
6.643585e+02,5.891179e+03
6.653227e+02,5.886639e+03
6.662869e+02,5.892335e+03
6.672512e+02,5.901573e+03
6.682154e+02,5.913349e+03
6.691796e+02,5.926235e+03
6.701439e+02,5.932276e+03
6.711081e+02,5.919960e+03
6.720723e+02,5.897954e+03
6.730366e+02,5.886000e+03
6.740008e+02,5.888393e+03
6.749650e+02,5.894836e+03
6.759293e+02,5.892534e+03
6.768935e+02,5.877792e+03
6.778577e+02,5.867834e+03
6.788220e+02,5.869662e+03
6.797862e+02,5.874364e+03
6.807504e+02,5.872367e+03
6.817147e+02,5.859676e+03
6.826789e+02,5.850534e+03
6.836431e+02,5.854418e+03
6.846074e+02,5.860164e+03
6.855716e+02,5.856408e+03
6.865358e+02,5.842266e+03
6.875001e+02,5.824985e+03
6.884643e+02,5.810006e+03
6.894285e+02,5.797625e+03
6.903928e+02,5.794796e+03
6.913570e+02,5.805187e+03
6.923212e+02,5.819135e+03
6.932855e+02,5.827517e+03
6.942497e+02,5.832220e+03
6.952139e+02,5.831980e+03
6.961782e+02,5.817024e+03
6.971424e+02,5.802194e+03
6.981066e+02,5.799224e+03
6.990709e+02,5.808162e+03
7.000351e+02,5.814138e+03
7.009993e+02,5.805358e+03
7.019636e+02,5.789936e+03
7.029278e+02,5.784217e+03
7.038920e+02,5.791072e+03
7.048563e+02,5.798546e+03
7.058205e+02,5.791513e+03
7.067847e+02,5.765460e+03
7.077490e+02,5.748756e+03
7.087132e+02,5.749144e+03
7.096774e+02,5.758597e+03
7.106417e+02,5.766616e+03
7.116059e+02,5.772185e+03
7.125701e+02,5.774827e+03
7.135344e+02,5.774795e+03
7.144986e+02,5.773695e+03
7.154628e+02,5.770837e+03
7.164271e+02,5.765811e+03
7.173913e+02,5.761263e+03
7.183555e+02,5.762252e+03
7.193198e+02,5.766638e+03
7.202840e+02,5.763538e+03
7.212482e+02,5.751123e+03
7.222125e+02,5.737282e+03
7.231767e+02,5.729316e+03
7.241409e+02,5.727561e+03
7.251052e+02,5.726022e+03
7.260694e+02,5.727003e+03
7.270336e+02,5.725796e+03
7.279979e+02,5.718884e+03
7.289621e+02,5.705537e+03
7.299263e+02,5.696814e+03
7.308906e+02,5.701874e+03
7.318548e+02,5.710391e+03
7.328190e+02,5.712157e+03
7.337833e+02,5.706147e+03
7.347475e+02,5.696499e+03
7.357117e+02,5.686351e+03
7.366760e+02,5.677110e+03
7.376402e+02,5.674799e+03
7.386044e+02,5.682141e+03
7.395687e+02,5.690250e+03
7.405329e+02,5.689727e+03
7.414971e+02,5.676554e+03
7.424614e+02,5.670283e+03
7.434256e+02,5.681538e+03
7.443898e+02,5.695538e+03
7.453541e+02,5.702692e+03
7.463183e+02,5.700241e+03
7.472825e+02,5.694537e+03
7.482468e+02,5.689461e+03
7.492110e+02,5.682973e+03
7.501752e+02,5.673775e+03
7.511395e+02,5.664488e+03
7.521037e+02,5.658362e+03
7.530679e+02,5.656231e+03
7.540322e+02,5.656326e+03
7.549964e+02,5.656739e+03
7.559606e+02,5.659008e+03
7.569249e+02,5.660911e+03
7.578891e+02,5.660919e+03
7.588533e+02,5.659504e+03
7.598176e+02,5.659914e+03
7.607818e+02,5.659204e+03
7.617460e+02,5.653981e+03
7.627103e+02,5.643912e+03
7.636745e+02,5.632397e+03
7.646387e+02,5.623170e+03
7.656030e+02,5.614876e+03
7.665672e+02,5.611063e+03
7.675314e+02,5.614757e+03
7.684957e+02,5.620860e+03
7.694599e+02,5.622419e+03
7.704241e+02,5.617287e+03
7.713884e+02,5.610244e+03
7.723526e+02,5.610438e+03
7.733168e+02,5.619844e+03
7.742811e+02,5.631352e+03
7.752453e+02,5.639110e+03
7.762095e+02,5.641768e+03
7.771738e+02,5.642650e+03
7.781380e+02,5.638065e+03
7.791022e+02,5.631829e+03
7.800665e+02,5.627427e+03
7.810307e+02,5.624039e+03
7.819949e+02,5.619608e+03
7.829592e+02,5.615156e+03
7.839234e+02,5.611811e+03
7.848876e+02,5.608803e+03
7.858519e+02,5.605642e+03
7.868161e+02,5.602631e+03
7.877803e+02,5.600186e+03
7.887446e+02,5.596849e+03
7.897088e+02,5.592585e+03
7.906730e+02,5.589053e+03
7.916373e+02,5.583204e+03
7.926015e+02,5.570157e+03
7.935657e+02,5.552048e+03
7.945300e+02,5.541628e+03
7.954942e+02,5.547643e+03
7.964584e+02,5.544594e+03
7.974227e+02,5.526761e+03
7.983869e+02,5.508306e+03
7.993511e+02,5.500116e+03
8.003154e+02,5.505288e+03
8.012796e+02,5.504481e+03
8.022438e+02,5.491113e+03
8.032081e+02,5.476933e+03
8.041723e+02,5.472619e+03
8.051365e+02,5.480000e+03
8.061008e+02,5.488377e+03
8.070650e+02,5.489221e+03
8.080292e+02,5.484024e+03
8.089935e+02,5.477569e+03
8.099577e+02,5.472118e+03
8.109219e+02,5.467373e+03
8.118862e+02,5.461594e+03
8.128504e+02,5.454846e+03
8.138146e+02,5.450694e+03
8.147789e+02,5.449583e+03
8.157431e+02,5.446858e+03
8.167073e+02,5.438991e+03
8.176716e+02,5.426810e+03
8.186358e+02,5.421912e+03
8.196000e+02,5.431364e+03
8.205643e+02,5.440804e+03
8.215285e+02,5.441013e+03
8.224927e+02,5.432703e+03
8.234570e+02,5.425396e+03
8.244212e+02,5.421128e+03
8.253854e+02,5.419228e+03
8.263497e+02,5.419309e+03
8.273139e+02,5.419164e+03
8.282781e+02,5.417018e+03
8.292424e+02,5.415481e+03
8.302066e+02,5.413743e+03
8.311708e+02,5.405879e+03
8.321351e+02,5.393616e+03
8.330993e+02,5.386542e+03
8.340635e+02,5.389584e+03
8.350278e+02,5.398418e+03
8.359920e+02,5.401854e+03
8.369562e+02,5.399565e+03
8.379205e+02,5.394430e+03
8.388847e+02,5.386384e+03
8.398489e+02,5.376902e+03
8.408132e+02,5.368724e+03
8.417774e+02,5.360609e+03
8.427416e+02,5.353775e+03
8.437059e+02,5.348417e+03
8.446701e+02,5.344470e+03
8.456343e+02,5.342493e+03
8.465986e+02,5.343303e+03
8.475628e+02,5.343198e+03
8.485270e+02,5.341323e+03
8.494913e+02,5.337563e+03
8.504555e+02,5.331421e+03
8.514197e+02,5.323294e+03
8.523840e+02,5.317872e+03
8.533482e+02,5.320740e+03
8.543124e+02,5.326785e+03
8.552767e+02,5.326591e+03
8.562409e+02,5.318616e+03
8.572051e+02,5.308456e+03
8.581694e+02,5.303264e+03
8.591336e+02,5.303297e+03
8.600978e+02,5.303048e+03
8.610621e+02,5.303358e+03
8.620263e+02,5.303446e+03
8.629905e+02,5.300536e+03
8.639548e+02,5.292331e+03
8.649190e+02,5.288050e+03
8.658832e+02,5.296655e+03
8.668475e+02,5.302331e+03
8.678117e+02,5.292673e+03
8.687759e+02,5.271292e+03
8.697402e+02,5.261365e+03
8.707044e+02,5.272621e+03
8.716686e+02,5.280890e+03
8.726329e+02,5.281248e+03
8.735971e+02,5.276237e+03
8.745613e+02,5.268876e+03
8.755256e+02,5.260267e+03
8.764898e+02,5.252960e+03
8.774540e+02,5.246673e+03
8.784183e+02,5.241185e+03
8.793825e+02,5.236886e+03
8.803467e+02,5.233805e+03
8.813110e+02,5.231820e+03
8.822752e+02,5.233129e+03
8.832394e+02,5.237368e+03
8.842037e+02,5.238526e+03
8.851679e+02,5.233480e+03
8.861321e+02,5.226133e+03
8.870964e+02,5.223969e+03
8.880606e+02,5.227056e+03
8.890248e+02,5.225761e+03
8.899891e+02,5.220885e+03
8.909533e+02,5.214250e+03
8.919175e+02,5.205509e+03
8.928818e+02,5.192939e+03
8.938460e+02,5.185596e+03
8.948102e+02,5.184919e+03
8.957745e+02,5.185286e+03
8.967387e+02,5.185098e+03
8.977029e+02,5.183198e+03
8.986672e+02,5.178508e+03
8.996314e+02,5.173529e+03
9.005956e+02,5.168857e+03
9.015599e+02,5.162471e+03
9.025241e+02,5.154900e+03
9.034883e+02,5.149305e+03
9.044526e+02,5.151016e+03
9.054168e+02,5.148517e+03
9.063810e+02,5.134411e+03
9.073453e+02,5.116879e+03
9.083095e+02,5.106037e+03
9.092737e+02,5.105175e+03
9.102380e+02,5.107948e+03
9.112022e+02,5.109345e+03
9.121664e+02,5.109150e+03
9.131307e+02,5.109085e+03
9.140949e+02,5.111642e+03
9.150591e+02,5.113789e+03
9.160234e+02,5.104339e+03
9.169876e+02,5.082672e+03
9.179518e+02,5.067344e+03
9.189161e+02,5.061833e+03
9.198803e+02,5.059303e+03
9.208445e+02,5.053872e+03
9.218088e+02,5.046502e+03
9.227730e+02,5.043093e+03
9.237372e+02,5.043939e+03
9.247015e+02,5.044585e+03
9.256657e+02,5.042228e+03
9.266299e+02,5.036368e+03
9.275942e+02,5.031252e+03
9.285584e+02,5.025211e+03
9.295226e+02,5.019712e+03
9.304869e+02,5.015983e+03
9.314511e+02,5.014570e+03
9.324153e+02,5.014772e+03
9.333796e+02,5.020474e+03
9.343438e+02,5.022917e+03
9.353080e+02,5.016236e+03
9.362723e+02,5.003492e+03
9.372365e+02,4.991135e+03
9.382007e+02,4.983373e+03
9.391650e+02,4.979259e+03
9.401292e+02,4.978267e+03
9.410934e+02,4.979894e+03
9.420577e+02,4.983818e+03
9.430219e+02,4.989805e+03
9.439861e+02,4.992081e+03
9.449504e+02,4.985481e+03
9.459146e+02,4.977031e+03
9.468788e+02,4.973526e+03
9.478431e+02,4.972727e+03
9.488073e+02,4.969374e+03
9.497715e+02,4.960618e+03
9.507358e+02,4.949528e+03
9.517000e+02,4.942495e+03
9.526642e+02,4.940692e+03
9.536285e+02,4.938681e+03
9.545927e+02,4.931365e+03
9.555569e+02,4.920688e+03
9.565212e+02,4.914512e+03
9.574854e+02,4.914687e+03
9.584496e+02,4.913242e+03
9.594139e+02,4.903533e+03
9.603781e+02,4.889652e+03
9.613423e+02,4.887396e+03
9.623066e+02,4.900609e+03
9.632708e+02,4.908122e+03
9.642350e+02,4.905308e+03
9.651993e+02,4.898805e+03
9.661635e+02,4.896581e+03
9.671277e+02,4.901922e+03
9.680920e+02,4.898758e+03
9.690562e+02,4.879613e+03
9.700204e+02,4.859055e+03
9.709847e+02,4.850955e+03
9.719489e+02,4.860576e+03
9.729131e+02,4.863083e+03
9.738774e+02,4.854187e+03
9.748416e+02,4.845094e+03
9.758058e+02,4.837166e+03
9.767701e+02,4.829542e+03
9.777343e+02,4.824830e+03
9.786985e+02,4.825925e+03
9.796628e+02,4.825991e+03
9.806270e+02,4.823537e+03
9.815912e+02,4.818938e+03
9.825555e+02,4.813459e+03
9.835197e+02,4.812406e+03
9.844839e+02,4.807725e+03
9.854482e+02,4.789060e+03
9.864124e+02,4.769304e+03
9.873766e+02,4.763804e+03
9.883409e+02,4.778499e+03
9.893051e+02,4.793455e+03
9.902693e+02,4.796209e+03
9.912336e+02,4.793475e+03
9.921978e+02,4.789850e+03
9.931620e+02,4.784869e+03
9.941263e+02,4.779005e+03
9.950905e+02,4.772966e+03
9.960547e+02,4.767143e+03
9.970190e+02,4.761821e+03
9.979832e+02,4.756417e+03
9.989474e+02,4.750562e+03
9.999117e+02,4.745979e+03
1.000876e+03,4.742422e+03
1.001840e+03,4.738047e+03
1.002804e+03,4.734563e+03
1.003769e+03,4.734532e+03
1.004733e+03,4.738022e+03
1.005697e+03,4.741360e+03
1.006661e+03,4.738863e+03
1.007626e+03,4.732369e+03
1.008590e+03,4.728534e+03
1.009554e+03,4.727510e+03
1.010518e+03,4.727292e+03
1.011482e+03,4.729458e+03
1.012447e+03,4.732679e+03
1.013411e+03,4.724869e+03
1.014375e+03,4.707038e+03
1.015339e+03,4.691434e+03
1.016304e+03,4.685716e+03
1.017268e+03,4.687585e+03
1.018232e+03,4.686873e+03
1.019196e+03,4.683013e+03
1.020161e+03,4.675057e+03
1.021125e+03,4.661747e+03
1.022089e+03,4.648353e+03
1.023053e+03,4.646682e+03
1.024018e+03,4.657775e+03
1.024982e+03,4.667045e+03
1.025946e+03,4.671917e+03
1.026910e+03,4.670202e+03
1.027875e+03,4.660113e+03
1.028839e+03,4.639747e+03
1.029803e+03,4.628248e+03
1.030767e+03,4.628905e+03
1.031731e+03,4.633595e+03
1.032696e+03,4.636562e+03
1.033660e+03,4.637401e+03
1.034624e+03,4.634617e+03
1.035588e+03,4.627246e+03
1.036552e+03,4.621303e+03
1.037517e+03,4.618376e+03
1.038481e+03,4.616435e+03
1.039445e+03,4.612819e+03
1.040409e+03,4.607595e+03
1.041374e+03,4.600904e+03
1.042338e+03,4.592270e+03
1.043302e+03,4.584512e+03
1.044266e+03,4.580244e+03
1.045231e+03,4.581316e+03
1.046195e+03,4.581292e+03
1.047159e+03,4.582937e+03
1.048123e+03,4.583021e+03
1.049088e+03,4.578287e+03
1.050052e+03,4.569164e+03
1.051016e+03,4.563828e+03
1.051980e+03,4.564986e+03
1.052945e+03,4.566025e+03
1.053909e+03,4.560856e+03
1.054873e+03,4.549853e+03
1.055837e+03,4.542502e+03
1.056802e+03,4.549392e+03
1.057766e+03,4.550796e+03
1.058730e+03,4.538423e+03
1.059694e+03,4.521718e+03
1.060658e+03,4.511616e+03
1.061623e+03,4.513268e+03
1.062587e+03,4.515936e+03
1.063551e+03,4.518321e+03
1.064515e+03,4.521901e+03
1.065479e+03,4.527716e+03
1.066444e+03,4.536975e+03
1.067408e+03,4.544116e+03
1.068372e+03,4.544945e+03
1.069336e+03,4.546811e+03
1.070301e+03,4.551357e+03
1.071265e+03,4.556913e+03
1.072229e+03,4.561751e+03
1.073193e+03,4.569493e+03
1.074158e+03,4.571622e+03
1.075122e+03,4.562720e+03
1.076086e+03,4.548701e+03
1.077050e+03,4.537368e+03
1.078015e+03,4.532846e+03
1.078979e+03,4.531429e+03
1.079943e+03,4.532595e+03
1.080907e+03,4.534917e+03
1.081872e+03,4.536836e+03
1.082836e+03,4.536973e+03
1.083800e+03,4.533854e+03
1.084764e+03,4.526579e+03
1.085729e+03,4.518998e+03
1.086693e+03,4.510890e+03
1.087657e+03,4.502867e+03
1.088621e+03,4.497408e+03
1.089585e+03,4.499555e+03
1.090550e+03,4.496588e+03
1.091514e+03,4.485937e+03
1.092478e+03,4.471877e+03
1.093442e+03,4.457257e+03
1.094406e+03,4.440974e+03
1.095371e+03,4.430104e+03
1.096335e+03,4.427842e+03
1.097299e+03,4.428138e+03
1.098263e+03,4.428134e+03
1.099228e+03,4.427017e+03
1.100192e+03,4.423956e+03
1.101156e+03,4.417283e+03
1.102120e+03,4.409460e+03
1.103085e+03,4.398958e+03
1.104049e+03,4.388902e+03
1.105013e+03,4.385328e+03
1.105977e+03,4.401088e+03
1.106942e+03,4.408520e+03
1.107906e+03,4.397861e+03
1.108870e+03,4.381019e+03
1.109834e+03,4.368387e+03
1.110799e+03,4.361794e+03
1.111763e+03,4.355448e+03
1.112727e+03,4.346014e+03
1.113691e+03,4.340592e+03
1.114656e+03,4.344459e+03
1.115620e+03,4.356015e+03
1.116584e+03,4.363546e+03
1.117548e+03,4.363511e+03
1.118512e+03,4.359069e+03
1.119477e+03,4.347667e+03
1.120441e+03,4.333842e+03
1.121405e+03,4.325116e+03
1.122369e+03,4.328862e+03
1.123334e+03,4.326923e+03
1.124298e+03,4.315745e+03
1.125262e+03,4.303467e+03
1.126226e+03,4.295997e+03
1.127191e+03,4.294209e+03
1.128155e+03,4.292120e+03
1.129119e+03,4.286019e+03
1.130083e+03,4.282672e+03
1.131047e+03,4.285574e+03
1.132012e+03,4.291751e+03
1.132976e+03,4.294729e+03
1.133940e+03,4.293981e+03
1.134904e+03,4.290410e+03
1.135869e+03,4.284089e+03
1.136833e+03,4.277659e+03
1.137797e+03,4.274239e+03
1.138761e+03,4.276804e+03
1.139726e+03,4.275997e+03
1.140690e+03,4.269092e+03
1.141654e+03,4.262706e+03
1.142618e+03,4.260891e+03
1.143583e+03,4.263094e+03
1.144547e+03,4.262376e+03
1.145511e+03,4.257734e+03
1.146475e+03,4.253353e+03
1.147439e+03,4.250116e+03
1.148404e+03,4.248420e+03
1.149368e+03,4.248242e+03
1.150332e+03,4.249501e+03
1.151296e+03,4.247531e+03
1.152261e+03,4.239702e+03
1.153225e+03,4.227032e+03
1.154189e+03,4.212164e+03
1.155153e+03,4.197400e+03
1.156118e+03,4.188244e+03
1.157082e+03,4.186154e+03
1.158046e+03,4.186600e+03
1.159010e+03,4.185835e+03
1.159974e+03,4.185256e+03
1.160939e+03,4.189376e+03
1.161903e+03,4.196314e+03
1.162867e+03,4.199322e+03
1.163831e+03,4.196726e+03
1.164796e+03,4.190752e+03
1.165760e+03,4.183450e+03
1.166724e+03,4.176486e+03
1.167688e+03,4.174881e+03
1.168653e+03,4.177526e+03
1.169617e+03,4.175076e+03
1.170581e+03,4.158138e+03
1.171545e+03,4.138695e+03
1.172510e+03,4.135979e+03
1.173474e+03,4.144366e+03
1.174438e+03,4.149746e+03
1.175402e+03,4.146957e+03
1.176366e+03,4.142150e+03
1.177331e+03,4.142200e+03
1.178295e+03,4.143478e+03
1.179259e+03,4.139872e+03
1.180223e+03,4.130854e+03
1.181188e+03,4.121636e+03
1.182152e+03,4.113719e+03
1.183116e+03,4.108505e+03
1.184080e+03,4.111481e+03
1.185045e+03,4.118354e+03
1.186009e+03,4.119968e+03
1.186973e+03,4.111211e+03
1.187937e+03,4.105142e+03
1.188901e+03,4.108528e+03
1.189866e+03,4.114448e+03
1.190830e+03,4.117322e+03
1.191794e+03,4.115672e+03
1.192758e+03,4.109893e+03
1.193723e+03,4.096785e+03
1.194687e+03,4.086435e+03
1.195651e+03,4.083438e+03
1.196615e+03,4.084996e+03
1.197580e+03,4.084120e+03
1.198544e+03,4.075338e+03
1.199508e+03,4.066490e+03
1.200472e+03,4.060340e+03
1.201437e+03,4.056071e+03
1.202401e+03,4.054050e+03
1.203365e+03,4.055966e+03
1.204329e+03,4.055160e+03
1.205293e+03,4.050453e+03
1.206258e+03,4.044002e+03
1.207222e+03,4.034722e+03
1.208186e+03,4.024716e+03
1.209150e+03,4.022630e+03
1.210115e+03,4.028151e+03
1.211079e+03,4.033094e+03
1.212043e+03,4.036878e+03
1.213007e+03,4.037527e+03
1.213972e+03,4.032407e+03
1.214936e+03,4.023815e+03
1.215900e+03,4.019321e+03
1.216864e+03,4.019085e+03
1.217828e+03,4.020555e+03
1.218793e+03,4.023032e+03
1.219757e+03,4.025451e+03
1.220721e+03,4.024941e+03
1.221685e+03,4.023149e+03
1.222650e+03,4.023415e+03
1.223614e+03,4.025481e+03
1.224578e+03,4.024926e+03
1.225542e+03,4.016229e+03
1.226507e+03,4.006657e+03
1.227471e+03,4.006369e+03
1.228435e+03,4.012101e+03
1.229399e+03,4.011801e+03
1.230364e+03,3.995687e+03
1.231328e+03,3.978478e+03
1.232292e+03,3.970412e+03
1.233256e+03,3.967805e+03
1.234220e+03,3.963699e+03
1.235185e+03,3.957442e+03
1.236149e+03,3.950766e+03
1.237113e+03,3.939817e+03
1.238077e+03,3.933382e+03
1.239042e+03,3.936630e+03
1.240006e+03,3.946405e+03
1.240970e+03,3.950578e+03
1.241934e+03,3.946893e+03
1.242899e+03,3.941226e+03
1.243863e+03,3.935643e+03
1.244827e+03,3.929640e+03
1.245791e+03,3.921270e+03
1.246755e+03,3.909416e+03
1.247720e+03,3.902204e+03
1.248684e+03,3.900911e+03
1.249648e+03,3.901275e+03
1.250612e+03,3.900139e+03
1.251577e+03,3.897610e+03
1.252541e+03,3.897113e+03
1.253505e+03,3.897508e+03
1.254469e+03,3.891708e+03
1.255434e+03,3.877612e+03
1.256398e+03,3.864555e+03
1.257362e+03,3.864922e+03
1.258326e+03,3.871181e+03
1.259291e+03,3.870845e+03
1.260255e+03,3.863242e+03
1.261219e+03,3.853698e+03
1.262183e+03,3.846375e+03
1.263147e+03,3.841868e+03
1.264112e+03,3.843499e+03
1.265076e+03,3.846284e+03
1.266040e+03,3.840919e+03
1.267004e+03,3.821897e+03
1.267969e+03,3.807762e+03
1.268933e+03,3.809615e+03
1.269897e+03,3.816542e+03
1.270861e+03,3.818726e+03
1.271826e+03,3.813992e+03
1.272790e+03,3.812374e+03
1.273754e+03,3.820538e+03
1.274718e+03,3.822766e+03
1.275682e+03,3.816203e+03
1.276647e+03,3.806046e+03
1.277611e+03,3.797116e+03
1.278575e+03,3.788822e+03
1.279539e+03,3.782478e+03
1.280504e+03,3.780267e+03
1.281468e+03,3.779668e+03
1.282432e+03,3.777605e+03
1.283396e+03,3.775843e+03
1.284361e+03,3.780427e+03
1.285325e+03,3.788676e+03
1.286289e+03,3.792622e+03
1.287253e+03,3.789945e+03
1.288218e+03,3.784680e+03
1.289182e+03,3.782142e+03
1.290146e+03,3.779431e+03
1.291110e+03,3.771785e+03
1.292074e+03,3.761069e+03
1.293039e+03,3.752795e+03
1.294003e+03,3.750492e+03
1.294967e+03,3.748497e+03
1.295931e+03,3.745912e+03
1.296896e+03,3.743714e+03
1.297860e+03,3.741988e+03
1.298824e+03,3.739844e+03
1.299788e+03,3.739011e+03
1.300753e+03,3.739513e+03
1.301717e+03,3.740237e+03
1.302681e+03,3.740539e+03
1.303645e+03,3.741077e+03
1.304609e+03,3.744089e+03
1.305574e+03,3.748485e+03
1.306538e+03,3.753861e+03
1.307502e+03,3.763133e+03
1.308466e+03,3.768369e+03
1.309431e+03,3.755379e+03
1.310395e+03,3.731613e+03
1.311359e+03,3.724306e+03
1.312323e+03,3.728793e+03
1.313288e+03,3.729753e+03
1.314252e+03,3.721375e+03
1.315216e+03,3.711993e+03
1.316180e+03,3.707093e+03
1.317145e+03,3.705657e+03
1.318109e+03,3.705789e+03
1.319073e+03,3.705806e+03
1.320037e+03,3.705419e+03
1.321001e+03,3.706823e+03
1.321966e+03,3.705739e+03
1.322930e+03,3.699116e+03
1.323894e+03,3.691640e+03
1.324858e+03,3.689783e+03
1.325823e+03,3.697934e+03
1.326787e+03,3.700783e+03
1.327751e+03,3.695337e+03
1.328715e+03,3.687766e+03
1.329680e+03,3.681852e+03
1.330644e+03,3.678117e+03
1.331608e+03,3.679332e+03
1.332572e+03,3.684642e+03
1.333536e+03,3.687961e+03
1.334501e+03,3.687198e+03
1.335465e+03,3.681758e+03
1.336429e+03,3.670684e+03
1.337393e+03,3.657351e+03
1.338358e+03,3.644371e+03
1.339322e+03,3.632767e+03
1.340286e+03,3.624976e+03
1.341250e+03,3.626654e+03
1.342215e+03,3.626845e+03
1.343179e+03,3.619787e+03
1.344143e+03,3.612934e+03
1.345107e+03,3.612566e+03
1.346072e+03,3.619676e+03
1.347036e+03,3.625272e+03
1.348000e+03,3.629378e+03
1.348964e+03,3.629367e+03
1.349928e+03,3.624081e+03
1.350893e+03,3.617073e+03
1.351857e+03,3.614004e+03
1.352821e+03,3.613977e+03
1.353785e+03,3.614914e+03
1.354750e+03,3.616097e+03
1.355714e+03,3.615880e+03
1.356678e+03,3.614680e+03
1.357642e+03,3.613391e+03
1.358607e+03,3.610512e+03
1.359571e+03,3.606403e+03
1.360535e+03,3.602934e+03
1.361499e+03,3.601663e+03
1.362464e+03,3.600723e+03
1.363428e+03,3.599695e+03
1.364392e+03,3.599563e+03
1.365356e+03,3.600847e+03
1.366320e+03,3.601123e+03
1.367285e+03,3.593893e+03
1.368249e+03,3.576054e+03
1.369213e+03,3.562026e+03
1.370177e+03,3.554833e+03
1.371142e+03,3.551413e+03
1.372106e+03,3.549677e+03
1.373070e+03,3.549050e+03
1.374034e+03,3.544028e+03
1.374999e+03,3.536055e+03
1.375963e+03,3.531178e+03
1.376927e+03,3.533838e+03
1.377891e+03,3.536739e+03
1.378855e+03,3.527923e+03
1.379820e+03,3.516115e+03
1.380784e+03,3.514980e+03
1.381748e+03,3.527221e+03
1.382712e+03,3.535209e+03
1.383677e+03,3.527216e+03
1.384641e+03,3.517865e+03
1.385605e+03,3.511645e+03
1.386569e+03,3.506664e+03
1.387534e+03,3.500138e+03
1.388498e+03,3.491430e+03
1.389462e+03,3.487201e+03
1.390426e+03,3.487043e+03
1.391391e+03,3.488768e+03
1.392355e+03,3.493454e+03
1.393319e+03,3.498659e+03
1.394283e+03,3.496327e+03
1.395247e+03,3.489247e+03
1.396212e+03,3.485165e+03
1.397176e+03,3.486042e+03
1.398140e+03,3.487633e+03
1.399104e+03,3.488935e+03
1.400069e+03,3.487140e+03
1.401033e+03,3.477546e+03
1.401997e+03,3.464006e+03
1.402961e+03,3.457253e+03
1.403926e+03,3.460784e+03
1.404890e+03,3.463112e+03
1.405854e+03,3.464274e+03
1.406818e+03,3.464944e+03
1.407782e+03,3.466610e+03
1.408747e+03,3.468617e+03
1.409711e+03,3.462615e+03
1.410675e+03,3.449196e+03
1.411639e+03,3.440069e+03
1.412604e+03,3.439670e+03
1.413568e+03,3.440514e+03
1.414532e+03,3.439065e+03
1.415496e+03,3.436081e+03
1.416461e+03,3.427604e+03
1.417425e+03,3.415521e+03
1.418389e+03,3.410228e+03
1.419353e+03,3.425778e+03
1.420318e+03,3.428838e+03
1.421282e+03,3.411634e+03
1.422246e+03,3.393781e+03
1.423210e+03,3.391970e+03
1.424174e+03,3.403763e+03
1.425139e+03,3.408813e+03
1.426103e+03,3.406937e+03
1.427067e+03,3.404677e+03
1.428031e+03,3.404662e+03
1.428996e+03,3.404374e+03
1.429960e+03,3.399796e+03
1.430924e+03,3.393511e+03
1.431888e+03,3.387905e+03
1.432853e+03,3.383452e+03
1.433817e+03,3.380146e+03
1.434781e+03,3.376517e+03
1.435745e+03,3.378612e+03
1.436709e+03,3.390366e+03
1.437674e+03,3.399948e+03
1.438638e+03,3.396194e+03
1.439602e+03,3.382039e+03
1.440566e+03,3.377980e+03
1.441531e+03,3.382909e+03
1.442495e+03,3.390405e+03
1.443459e+03,3.398708e+03
1.444423e+03,3.403188e+03
1.445388e+03,3.394592e+03
1.446352e+03,3.382000e+03
1.447316e+03,3.375147e+03
1.448280e+03,3.375787e+03
1.449245e+03,3.380528e+03
1.450209e+03,3.396104e+03
1.451173e+03,3.404210e+03
1.452137e+03,3.397432e+03
1.453101e+03,3.386990e+03
1.454066e+03,3.385841e+03
1.455030e+03,3.392197e+03
1.455994e+03,3.387710e+03
1.456958e+03,3.374570e+03
1.457923e+03,3.369881e+03
1.458887e+03,3.381922e+03
1.459851e+03,3.391145e+03
1.460815e+03,3.373532e+03
1.461780e+03,3.349633e+03
1.462744e+03,3.343070e+03
1.463708e+03,3.352351e+03
1.464672e+03,3.351356e+03
1.465636e+03,3.332242e+03
1.466601e+03,3.318083e+03
1.467565e+03,3.312033e+03
1.468529e+03,3.310082e+03
1.469493e+03,3.307144e+03
1.470458e+03,3.303706e+03
1.471422e+03,3.307337e+03
1.472386e+03,3.316287e+03
1.473350e+03,3.321220e+03
1.474315e+03,3.316968e+03
1.475279e+03,3.312251e+03
1.476243e+03,3.313441e+03
1.477207e+03,3.314361e+03
1.478172e+03,3.310672e+03
1.479136e+03,3.304100e+03
1.480100e+03,3.301803e+03
1.481064e+03,3.306327e+03
1.482028e+03,3.305812e+03
1.482993e+03,3.298487e+03
1.483957e+03,3.290993e+03
1.484921e+03,3.289521e+03
1.485885e+03,3.290614e+03
1.486850e+03,3.285585e+03
1.487814e+03,3.277168e+03
1.488778e+03,3.274653e+03
1.489742e+03,3.284343e+03
1.490707e+03,3.288111e+03
1.491671e+03,3.275839e+03
1.492635e+03,3.265020e+03
1.493599e+03,3.262883e+03
1.494563e+03,3.265167e+03
1.495528e+03,3.261827e+03
1.496492e+03,3.252661e+03
1.497456e+03,3.247978e+03
1.498420e+03,3.249911e+03
1.499385e+03,3.253027e+03
1.500349e+03,3.254255e+03
1.501313e+03,3.253921e+03
1.502277e+03,3.250357e+03
1.503242e+03,3.245219e+03
1.504206e+03,3.240289e+03
1.505170e+03,3.233719e+03
1.506134e+03,3.235271e+03
1.507099e+03,3.250198e+03
1.508063e+03,3.259165e+03
1.509027e+03,3.253252e+03
1.509991e+03,3.241424e+03
1.510955e+03,3.241181e+03
1.511920e+03,3.246375e+03
1.512884e+03,3.241264e+03
1.513848e+03,3.227696e+03
1.514812e+03,3.219063e+03
1.515777e+03,3.222878e+03
1.516741e+03,3.226630e+03
1.517705e+03,3.225709e+03
1.518669e+03,3.222739e+03
1.519634e+03,3.220754e+03
1.520598e+03,3.219060e+03
1.521562e+03,3.213975e+03
1.522526e+03,3.204954e+03
1.523490e+03,3.197673e+03
1.524455e+03,3.194680e+03
1.525419e+03,3.192470e+03
1.526383e+03,3.190642e+03
1.527347e+03,3.186244e+03
1.528312e+03,3.174320e+03
1.529276e+03,3.159298e+03
1.530240e+03,3.154685e+03
1.531204e+03,3.164568e+03
1.532169e+03,3.170385e+03
1.533133e+03,3.170124e+03
1.534097e+03,3.168956e+03
1.535061e+03,3.170865e+03
1.536026e+03,3.173478e+03
1.536990e+03,3.175158e+03
1.537954e+03,3.174852e+03
1.538918e+03,3.168461e+03
1.539882e+03,3.153387e+03
1.540847e+03,3.143399e+03
1.541811e+03,3.145966e+03
1.542775e+03,3.147178e+03
1.543739e+03,3.143668e+03
1.544704e+03,3.139156e+03
1.545668e+03,3.140025e+03
1.546632e+03,3.145148e+03
1.547596e+03,3.147106e+03
1.548561e+03,3.146050e+03
1.549525e+03,3.146216e+03
1.550489e+03,3.149080e+03
1.551453e+03,3.152660e+03
1.552417e+03,3.157436e+03
1.553382e+03,3.161039e+03
1.554346e+03,3.161750e+03
1.555310e+03,3.160730e+03
1.556274e+03,3.162633e+03
1.557239e+03,3.167190e+03
1.558203e+03,3.175852e+03
1.559167e+03,3.189262e+03
1.560131e+03,3.202900e+03
1.561096e+03,3.207393e+03
1.562060e+03,3.216245e+03
1.563024e+03,3.243674e+03
1.563988e+03,3.283118e+03
1.564953e+03,3.318471e+03
1.565917e+03,3.348427e+03
1.566881e+03,3.377448e+03
1.567845e+03,3.405952e+03
1.568809e+03,3.423539e+03
1.569774e+03,3.423724e+03
1.570738e+03,3.413165e+03
1.571702e+03,3.398684e+03
1.572666e+03,3.379974e+03
1.573631e+03,3.354739e+03
1.574595e+03,3.324164e+03
1.575559e+03,3.299574e+03
1.576523e+03,3.282551e+03
1.577488e+03,3.270891e+03
1.578452e+03,3.263448e+03
1.579416e+03,3.256516e+03
1.580380e+03,3.246790e+03
1.581344e+03,3.235972e+03
1.582309e+03,3.231545e+03
1.583273e+03,3.228570e+03
1.584237e+03,3.212933e+03
1.585201e+03,3.172418e+03
1.586166e+03,3.141618e+03
1.587130e+03,3.125995e+03
1.588094e+03,3.114606e+03
1.589058e+03,3.104083e+03
1.590023e+03,3.095316e+03
1.590987e+03,3.090552e+03
1.591951e+03,3.088594e+03
1.592915e+03,3.082853e+03
1.593880e+03,3.071999e+03
1.594844e+03,3.062786e+03
1.595808e+03,3.059194e+03
1.596772e+03,3.057258e+03
1.597736e+03,3.057783e+03
1.598701e+03,3.059265e+03
1.599665e+03,3.060611e+03
1.600629e+03,3.060984e+03
1.601593e+03,3.056096e+03
1.602558e+03,3.047294e+03
1.603522e+03,3.038342e+03
1.604486e+03,3.029802e+03
1.605450e+03,3.023153e+03
1.606415e+03,3.022044e+03
1.607379e+03,3.021815e+03
1.608343e+03,3.020818e+03
1.609307e+03,3.018178e+03
1.610271e+03,3.011355e+03
1.611236e+03,3.001467e+03
1.612200e+03,2.994810e+03
1.613164e+03,2.992762e+03
1.614128e+03,2.995547e+03
1.615093e+03,3.008626e+03
1.616057e+03,3.017583e+03
1.617021e+03,3.012907e+03
1.617985e+03,3.005730e+03
1.618950e+03,3.003756e+03
1.619914e+03,3.005422e+03
1.620878e+03,3.002712e+03
1.621842e+03,2.997886e+03
1.622807e+03,2.999559e+03
1.623771e+03,3.010078e+03
1.624735e+03,3.018981e+03
1.625699e+03,3.018914e+03
1.626663e+03,3.015580e+03
1.627628e+03,3.009451e+03
1.628592e+03,3.001124e+03
1.629556e+03,2.992406e+03
1.630520e+03,2.985427e+03
1.631485e+03,2.987198e+03
1.632449e+03,2.994489e+03
1.633413e+03,2.994380e+03
1.634377e+03,2.978765e+03
1.635342e+03,2.964234e+03
1.636306e+03,2.957449e+03
1.637270e+03,2.953737e+03
1.638234e+03,2.951873e+03
1.639198e+03,2.950786e+03
1.640163e+03,2.944552e+03
1.641127e+03,2.936422e+03
1.642091e+03,2.936263e+03
1.643055e+03,2.943125e+03
1.644020e+03,2.947741e+03
1.644984e+03,2.942403e+03
1.645948e+03,2.937536e+03
1.646912e+03,2.937883e+03
1.647877e+03,2.936908e+03
1.648841e+03,2.928022e+03
1.649805e+03,2.914655e+03
1.650769e+03,2.905898e+03
1.651734e+03,2.901034e+03
1.652698e+03,2.899647e+03
1.653662e+03,2.901095e+03
1.654626e+03,2.902912e+03
1.655590e+03,2.907403e+03
1.656555e+03,2.907018e+03
1.657519e+03,2.899671e+03
1.658483e+03,2.890917e+03
1.659447e+03,2.885609e+03
1.660412e+03,2.882362e+03
1.661376e+03,2.883726e+03
1.662340e+03,2.887973e+03
1.663304e+03,2.887372e+03
1.664269e+03,2.868495e+03
1.665233e+03,2.861833e+03
1.666197e+03,2.869901e+03
1.667161e+03,2.880238e+03
1.668125e+03,2.888480e+03
1.669090e+03,2.892781e+03
1.670054e+03,2.884700e+03
1.671018e+03,2.874474e+03
1.671982e+03,2.879387e+03
1.672947e+03,2.899813e+03
1.673911e+03,2.910234e+03
1.674875e+03,2.905639e+03
1.675839e+03,2.901195e+03
1.676804e+03,2.900590e+03
1.677768e+03,2.900691e+03
1.678732e+03,2.898367e+03
1.679696e+03,2.893146e+03
1.680661e+03,2.881437e+03
1.681625e+03,2.867067e+03
1.682589e+03,2.857813e+03
1.683553e+03,2.854967e+03
1.684517e+03,2.855355e+03
1.685482e+03,2.858365e+03
1.686446e+03,2.857764e+03
1.687410e+03,2.851190e+03
1.688374e+03,2.843302e+03
1.689339e+03,2.835575e+03
1.690303e+03,2.829502e+03
1.691267e+03,2.826529e+03
1.692231e+03,2.825681e+03
1.693196e+03,2.825020e+03
1.694160e+03,2.823432e+03
1.695124e+03,2.817012e+03
1.696088e+03,2.807846e+03
1.697052e+03,2.805002e+03
1.698017e+03,2.814624e+03
1.698981e+03,2.823466e+03
1.699945e+03,2.829901e+03
1.700909e+03,2.828923e+03
1.701874e+03,2.817338e+03
1.702838e+03,2.803469e+03
1.703802e+03,2.804731e+03
1.704766e+03,2.812038e+03
1.705731e+03,2.809854e+03
1.706695e+03,2.797590e+03
1.707659e+03,2.788474e+03
1.708623e+03,2.784990e+03
1.709588e+03,2.787935e+03
1.710552e+03,2.797339e+03
1.711516e+03,2.804237e+03
1.712480e+03,2.800796e+03
1.713444e+03,2.791942e+03
1.714409e+03,2.780969e+03
1.715373e+03,2.771186e+03
1.716337e+03,2.767835e+03
1.717301e+03,2.771741e+03
1.718266e+03,2.768823e+03
1.719230e+03,2.758648e+03
1.720194e+03,2.750519e+03
1.721158e+03,2.746430e+03
1.722123e+03,2.746386e+03
1.723087e+03,2.755941e+03
1.724051e+03,2.763136e+03
1.725015e+03,2.761559e+03
1.725979e+03,2.756129e+03
1.726944e+03,2.751688e+03
1.727908e+03,2.748298e+03
1.728872e+03,2.746136e+03
1.729836e+03,2.744387e+03
1.730801e+03,2.743852e+03
1.731765e+03,2.748056e+03
1.732729e+03,2.746609e+03
1.733693e+03,2.735374e+03
1.734658e+03,2.729083e+03
1.735622e+03,2.736770e+03
1.736586e+03,2.745420e+03
1.737550e+03,2.732475e+03
1.738515e+03,2.712311e+03
1.739479e+03,2.701643e+03
1.740443e+03,2.700969e+03
1.741407e+03,2.702411e+03
1.742371e+03,2.706501e+03
1.743336e+03,2.707059e+03
1.744300e+03,2.703543e+03
1.745264e+03,2.700196e+03
1.746228e+03,2.702458e+03
1.747193e+03,2.705348e+03
1.748157e+03,2.709208e+03
1.749121e+03,2.712164e+03
1.750085e+03,2.709693e+03
1.751050e+03,2.700990e+03
1.752014e+03,2.688187e+03
1.752978e+03,2.675483e+03
1.753942e+03,2.673119e+03
1.754906e+03,2.682424e+03
1.755871e+03,2.688826e+03
1.756835e+03,2.687832e+03
1.757799e+03,2.683914e+03
1.758763e+03,2.680480e+03
1.759728e+03,2.676500e+03
1.760692e+03,2.668845e+03
1.761656e+03,2.661054e+03
1.762620e+03,2.652746e+03
1.763585e+03,2.647306e+03
1.764549e+03,2.649695e+03
1.765513e+03,2.658648e+03
1.766477e+03,2.670773e+03
1.767442e+03,2.684912e+03
1.768406e+03,2.687825e+03
1.769370e+03,2.673383e+03
1.770334e+03,2.663527e+03
1.771298e+03,2.673542e+03
1.772263e+03,2.679397e+03
1.773227e+03,2.675325e+03
1.774191e+03,2.665184e+03
1.775155e+03,2.649101e+03
1.776120e+03,2.632795e+03
1.777084e+03,2.626536e+03
1.778048e+03,2.628057e+03
1.779012e+03,2.629812e+03
1.779977e+03,2.631801e+03
1.780941e+03,2.634200e+03
1.781905e+03,2.635803e+03
1.782869e+03,2.635507e+03
1.783833e+03,2.632593e+03
1.784798e+03,2.629583e+03
1.785762e+03,2.627298e+03
1.786726e+03,2.625915e+03
1.787690e+03,2.627346e+03
1.788655e+03,2.628120e+03
1.789619e+03,2.617220e+03
1.790583e+03,2.601575e+03
1.791547e+03,2.595144e+03
1.792512e+03,2.597446e+03
1.793476e+03,2.599490e+03
1.794440e+03,2.596844e+03
1.795404e+03,2.602171e+03
1.796369e+03,2.615615e+03
1.797333e+03,2.624442e+03
1.798297e+03,2.618513e+03
1.799261e+03,2.611768e+03
1.800225e+03,2.615255e+03
1.801190e+03,2.617967e+03
1.802154e+03,2.613816e+03
1.803118e+03,2.604256e+03
1.804082e+03,2.592349e+03
1.805047e+03,2.580747e+03
1.806011e+03,2.574022e+03
1.806975e+03,2.572156e+03
1.807939e+03,2.571162e+03
1.808904e+03,2.569480e+03
1.809868e+03,2.569257e+03
1.810832e+03,2.571677e+03
1.811796e+03,2.572614e+03
1.812760e+03,2.564012e+03
1.813725e+03,2.557870e+03
1.814689e+03,2.567493e+03
1.815653e+03,2.577638e+03
1.816617e+03,2.576283e+03
1.817582e+03,2.567035e+03
1.818546e+03,2.559702e+03
1.819510e+03,2.553510e+03
1.820474e+03,2.546754e+03
1.821439e+03,2.539772e+03
1.822403e+03,2.537825e+03
1.823367e+03,2.542821e+03
1.824331e+03,2.544834e+03
1.825296e+03,2.541462e+03
1.826260e+03,2.537186e+03
1.827224e+03,2.537702e+03
1.828188e+03,2.540198e+03
1.829152e+03,2.543415e+03
1.830117e+03,2.544244e+03
1.831081e+03,2.539573e+03
1.832045e+03,2.530209e+03
1.833009e+03,2.518223e+03
1.833974e+03,2.508554e+03
1.834938e+03,2.508703e+03
1.835902e+03,2.520410e+03
1.836866e+03,2.519831e+03
1.837831e+03,2.505452e+03
1.838795e+03,2.498843e+03
1.839759e+03,2.505929e+03
1.840723e+03,2.514300e+03
1.841688e+03,2.511230e+03
1.842652e+03,2.511688e+03
1.843616e+03,2.522507e+03
1.844580e+03,2.531363e+03
1.845544e+03,2.524085e+03
1.846509e+03,2.509742e+03
1.847473e+03,2.502436e+03
1.848437e+03,2.500241e+03
1.849401e+03,2.501511e+03
1.850366e+03,2.506163e+03
1.851330e+03,2.500761e+03
1.852294e+03,2.487269e+03
1.853258e+03,2.474861e+03
1.854223e+03,2.465249e+03
1.855187e+03,2.462630e+03
1.856151e+03,2.473373e+03
1.857115e+03,2.483184e+03
1.858079e+03,2.490361e+03
1.859044e+03,2.489910e+03
1.860008e+03,2.468683e+03
1.860972e+03,2.447071e+03
1.861936e+03,2.449736e+03
1.862901e+03,2.462162e+03
1.863865e+03,2.460295e+03
1.864829e+03,2.445319e+03
1.865793e+03,2.441098e+03
1.866758e+03,2.445331e+03
1.867722e+03,2.448612e+03
1.868686e+03,2.447403e+03
1.869650e+03,2.449525e+03
1.870615e+03,2.455808e+03
1.871579e+03,2.457518e+03
1.872543e+03,2.453001e+03
1.873507e+03,2.450865e+03
1.874471e+03,2.462445e+03
1.875436e+03,2.466900e+03
1.876400e+03,2.453547e+03
1.877364e+03,2.434748e+03
1.878328e+03,2.421846e+03
1.879293e+03,2.414554e+03
1.880257e+03,2.415240e+03
1.881221e+03,2.418953e+03
1.882185e+03,2.416223e+03
1.883150e+03,2.407086e+03
1.884114e+03,2.404200e+03
1.885078e+03,2.405940e+03
1.886042e+03,2.405566e+03
1.887006e+03,2.400841e+03
1.887971e+03,2.395764e+03
1.888935e+03,2.391910e+03
1.889899e+03,2.390935e+03
1.890863e+03,2.392247e+03
1.891828e+03,2.393406e+03
1.892792e+03,2.395106e+03
1.893756e+03,2.394706e+03
1.894720e+03,2.391833e+03
1.895685e+03,2.388019e+03
1.896649e+03,2.380229e+03
1.897613e+03,2.370254e+03
1.898577e+03,2.368199e+03
1.899542e+03,2.371734e+03
1.900506e+03,2.375978e+03
1.901470e+03,2.380104e+03
1.902434e+03,2.376541e+03
1.903398e+03,2.366106e+03
1.904363e+03,2.365504e+03
1.905327e+03,2.380336e+03
1.906291e+03,2.391243e+03
1.907255e+03,2.383575e+03
1.908220e+03,2.375573e+03
1.909184e+03,2.370624e+03
1.910148e+03,2.365477e+03
1.911112e+03,2.356557e+03
1.912077e+03,2.348666e+03
1.913041e+03,2.347918e+03
1.914005e+03,2.348237e+03
1.914969e+03,2.341870e+03
1.915933e+03,2.331779e+03
1.916898e+03,2.328971e+03
1.917862e+03,2.330887e+03
1.918826e+03,2.330290e+03
1.919790e+03,2.326590e+03
1.920755e+03,2.332303e+03
1.921719e+03,2.345480e+03
1.922683e+03,2.351174e+03
1.923647e+03,2.347018e+03
1.924612e+03,2.342220e+03
1.925576e+03,2.339195e+03
1.926540e+03,2.340208e+03
1.927504e+03,2.345645e+03
1.928469e+03,2.346398e+03
1.929433e+03,2.327399e+03
1.930397e+03,2.308230e+03
1.931361e+03,2.304232e+03
1.932325e+03,2.306759e+03
1.933290e+03,2.312751e+03
1.934254e+03,2.320300e+03
1.935218e+03,2.318176e+03
1.936182e+03,2.310269e+03
1.937147e+03,2.305977e+03
1.938111e+03,2.306559e+03
1.939075e+03,2.311328e+03
1.940039e+03,2.319525e+03
1.941004e+03,2.316237e+03
1.941968e+03,2.298723e+03
1.942932e+03,2.287165e+03
1.943896e+03,2.289784e+03
1.944860e+03,2.293809e+03
1.945825e+03,2.299295e+03
1.946789e+03,2.302105e+03
1.947753e+03,2.296599e+03
1.948717e+03,2.288970e+03
1.949682e+03,2.279850e+03
1.950646e+03,2.271917e+03
1.951610e+03,2.266143e+03
1.952574e+03,2.263922e+03
1.953539e+03,2.272599e+03
1.954503e+03,2.280973e+03
1.955467e+03,2.276768e+03
1.956431e+03,2.265028e+03
1.957396e+03,2.256390e+03
1.958360e+03,2.249669e+03
1.959324e+03,2.240852e+03
1.960288e+03,2.233094e+03
1.961252e+03,2.241636e+03
1.962217e+03,2.267995e+03
1.963181e+03,2.272847e+03
1.964145e+03,2.256349e+03
1.965109e+03,2.242101e+03
1.966074e+03,2.243310e+03
1.967038e+03,2.246602e+03
1.968002e+03,2.248883e+03
1.968966e+03,2.249680e+03
1.969931e+03,2.249479e+03
1.970895e+03,2.246533e+03
1.971859e+03,2.236998e+03
1.972823e+03,2.233877e+03
1.973787e+03,2.244841e+03
1.974752e+03,2.255396e+03
1.975716e+03,2.240482e+03
1.976680e+03,2.218099e+03
1.977644e+03,2.208499e+03
1.978609e+03,2.208953e+03
1.979573e+03,2.214464e+03
1.980537e+03,2.222219e+03
1.981501e+03,2.224838e+03
1.982466e+03,2.223288e+03
1.983430e+03,2.219828e+03
1.984394e+03,2.214656e+03
1.985358e+03,2.203518e+03
1.986323e+03,2.188039e+03
1.987287e+03,2.180783e+03
1.988251e+03,2.186456e+03
1.989215e+03,2.194450e+03
1.990179e+03,2.205655e+03
1.991144e+03,2.207823e+03
1.992108e+03,2.198119e+03
1.993072e+03,2.187414e+03
1.994036e+03,2.180110e+03
1.995001e+03,2.176839e+03
1.995965e+03,2.178620e+03
1.996929e+03,2.180915e+03
1.997893e+03,2.175877e+03
1.998858e+03,2.170247e+03
1.999822e+03,2.173182e+03
2.000786e+03,2.175428e+03
2.001750e+03,2.168727e+03
2.002714e+03,2.160038e+03
2.003679e+03,2.165810e+03
2.004643e+03,2.174613e+03
2.005607e+03,2.166835e+03
2.006571e+03,2.148049e+03
2.007536e+03,2.139053e+03
2.008500e+03,2.137698e+03
2.009464e+03,2.136317e+03
2.010428e+03,2.134942e+03
2.011393e+03,2.137890e+03
2.012357e+03,2.145328e+03
2.013321e+03,2.155369e+03
2.014285e+03,2.165511e+03
2.015250e+03,2.168372e+03
2.016214e+03,2.151860e+03
2.017178e+03,2.144760e+03
2.018142e+03,2.149713e+03
2.019106e+03,2.154012e+03
2.020071e+03,2.151559e+03
2.021035e+03,2.144397e+03
2.021999e+03,2.126743e+03
2.022963e+03,2.117840e+03
2.023928e+03,2.129180e+03
2.024892e+03,2.141944e+03
2.025856e+03,2.130041e+03
2.026820e+03,2.116857e+03
2.027785e+03,2.118335e+03
2.028749e+03,2.123518e+03
2.029713e+03,2.117122e+03
2.030677e+03,2.106511e+03
2.031641e+03,2.099772e+03
2.032606e+03,2.096156e+03
2.033570e+03,2.092985e+03
2.034534e+03,2.090789e+03
2.035498e+03,2.097715e+03
2.036463e+03,2.107905e+03
2.037427e+03,2.104038e+03
2.038391e+03,2.087384e+03
2.039355e+03,2.082623e+03
2.040320e+03,2.087638e+03
2.041284e+03,2.092517e+03
2.042248e+03,2.094516e+03
2.043212e+03,2.096105e+03
2.044177e+03,2.098546e+03
2.045141e+03,2.094415e+03
2.046105e+03,2.082454e+03
2.047069e+03,2.075638e+03
2.048033e+03,2.081219e+03
2.048998e+03,2.090347e+03
2.049962e+03,2.103724e+03
2.050926e+03,2.112181e+03
2.051890e+03,2.110015e+03
2.052854e+03,2.099524e+03
2.053819e+03,2.078182e+03
2.054783e+03,2.055501e+03
2.055747e+03,2.034816e+03
2.056711e+03,2.023593e+03
2.057676e+03,2.036433e+03
2.058640e+03,2.051732e+03
2.059604e+03,2.056491e+03
2.060568e+03,2.055457e+03
2.061533e+03,2.058096e+03
2.062497e+03,2.058683e+03
2.063461e+03,2.047953e+03
2.064425e+03,2.034414e+03
2.065390e+03,2.029959e+03
2.066354e+03,2.030652e+03
2.067318e+03,2.031700e+03
2.068282e+03,2.032243e+03
2.069247e+03,2.028993e+03
2.070211e+03,2.022863e+03
2.071175e+03,2.025511e+03
2.072139e+03,2.033084e+03
2.073104e+03,2.035722e+03
2.074068e+03,2.032689e+03
2.075032e+03,2.027929e+03
2.075996e+03,2.020765e+03
2.076960e+03,2.009787e+03
2.077925e+03,1.994904e+03
2.078889e+03,1.992402e+03
2.079853e+03,2.003427e+03
2.080817e+03,2.008889e+03
2.081782e+03,2.006167e+03
2.082746e+03,1.994737e+03
2.083710e+03,1.966427e+03
2.084674e+03,1.957958e+03
2.085639e+03,1.972356e+03
2.086603e+03,1.987946e+03
2.087567e+03,1.990459e+03
2.088531e+03,1.988948e+03
2.089496e+03,1.983575e+03
2.090460e+03,1.977247e+03
2.091424e+03,1.974186e+03
2.092388e+03,1.974011e+03
2.093353e+03,1.976474e+03
2.094317e+03,1.979497e+03
2.095281e+03,1.980715e+03
2.096245e+03,1.980095e+03
2.097209e+03,1.976510e+03
2.098174e+03,1.973725e+03
2.099138e+03,1.975285e+03
2.100102e+03,1.975806e+03
2.101066e+03,1.967471e+03
2.102031e+03,1.957009e+03
2.102995e+03,1.947837e+03
2.103959e+03,1.942995e+03
2.104923e+03,1.948195e+03
2.105887e+03,1.957963e+03
2.106852e+03,1.962149e+03
2.107816e+03,1.959504e+03
2.108780e+03,1.950380e+03
2.109744e+03,1.938090e+03
2.110708e+03,1.932341e+03
2.111673e+03,1.930756e+03
2.112637e+03,1.926378e+03
2.113601e+03,1.920564e+03
2.114565e+03,1.922431e+03
2.115530e+03,1.927607e+03
2.116494e+03,1.925531e+03
2.117458e+03,1.919806e+03
2.118422e+03,1.916655e+03
2.119387e+03,1.914922e+03
2.120351e+03,1.922291e+03
2.121315e+03,1.932850e+03
2.122279e+03,1.928537e+03
2.123244e+03,1.908236e+03
2.124208e+03,1.903723e+03
2.125172e+03,1.910690e+03
2.126136e+03,1.911629e+03
2.127101e+03,1.902211e+03
2.128065e+03,1.892067e+03
2.129029e+03,1.881834e+03
2.129993e+03,1.882055e+03
2.130958e+03,1.892997e+03
2.131922e+03,1.898595e+03
2.132886e+03,1.897842e+03
2.133850e+03,1.897723e+03
2.134814e+03,1.900652e+03
2.135779e+03,1.901788e+03
2.136743e+03,1.896877e+03
2.137707e+03,1.894288e+03
2.138671e+03,1.894879e+03
2.139636e+03,1.893453e+03
2.140600e+03,1.885531e+03
2.141564e+03,1.879525e+03
2.142528e+03,1.876482e+03
2.143493e+03,1.872230e+03
2.144457e+03,1.862607e+03
2.145421e+03,1.858096e+03
2.146385e+03,1.863459e+03
2.147350e+03,1.865406e+03
2.148314e+03,1.860678e+03
2.149278e+03,1.859864e+03
2.150242e+03,1.872657e+03
2.151207e+03,1.879943e+03
2.152171e+03,1.878214e+03
2.153135e+03,1.869627e+03
2.154099e+03,1.853781e+03
2.155063e+03,1.839257e+03
2.156028e+03,1.827365e+03
2.156992e+03,1.822857e+03
2.157956e+03,1.830666e+03
2.158920e+03,1.839114e+03
2.159885e+03,1.842993e+03
2.160849e+03,1.846525e+03
2.161813e+03,1.853644e+03
2.162777e+03,1.855382e+03
2.163741e+03,1.838630e+03
2.164706e+03,1.822472e+03
2.165670e+03,1.815182e+03
2.166634e+03,1.814981e+03
2.167598e+03,1.820964e+03
2.168563e+03,1.829458e+03
2.169527e+03,1.838270e+03
2.170491e+03,1.843244e+03
2.171455e+03,1.843395e+03
2.172420e+03,1.837786e+03
2.173384e+03,1.822189e+03
2.174348e+03,1.808701e+03
2.175312e+03,1.809702e+03
2.176277e+03,1.812448e+03
2.177241e+03,1.803478e+03
2.178205e+03,1.792309e+03
2.179169e+03,1.785726e+03
2.180134e+03,1.782094e+03
2.181098e+03,1.775367e+03
2.182062e+03,1.773412e+03
2.183026e+03,1.781877e+03
2.183990e+03,1.790770e+03
2.184955e+03,1.779263e+03
2.185919e+03,1.769470e+03
2.186883e+03,1.782076e+03
2.187847e+03,1.798244e+03
2.188812e+03,1.794473e+03
2.189776e+03,1.783668e+03
2.190740e+03,1.775977e+03
2.191704e+03,1.770984e+03
2.192668e+03,1.770194e+03
2.193633e+03,1.772124e+03
2.194597e+03,1.779059e+03
2.195561e+03,1.781705e+03
2.196525e+03,1.768255e+03
2.197490e+03,1.749732e+03
2.198454e+03,1.743563e+03
2.199418e+03,1.746611e+03
2.200382e+03,1.758416e+03
2.201347e+03,1.771553e+03
2.202311e+03,1.768112e+03
2.203275e+03,1.760666e+03
2.204239e+03,1.762660e+03
2.205204e+03,1.765029e+03
2.206168e+03,1.756337e+03
2.207132e+03,1.744469e+03
2.208096e+03,1.737310e+03
2.209061e+03,1.731457e+03
2.210025e+03,1.724727e+03
2.210989e+03,1.718073e+03
2.211953e+03,1.712189e+03
2.212917e+03,1.711866e+03
2.213882e+03,1.716488e+03
2.214846e+03,1.724166e+03
2.215810e+03,1.740249e+03
2.216774e+03,1.750430e+03
2.217739e+03,1.744214e+03
2.218703e+03,1.731332e+03
2.219667e+03,1.728373e+03
2.220631e+03,1.726620e+03
2.221595e+03,1.715097e+03
2.222560e+03,1.701297e+03
2.223524e+03,1.697081e+03
2.224488e+03,1.696252e+03
2.225452e+03,1.691306e+03
2.226417e+03,1.687880e+03
2.227381e+03,1.692422e+03
2.228345e+03,1.701290e+03
2.229309e+03,1.711460e+03
2.230274e+03,1.717266e+03
2.231238e+03,1.713337e+03
2.232202e+03,1.704718e+03
2.233166e+03,1.699125e+03
2.234131e+03,1.696204e+03
2.235095e+03,1.695695e+03
2.236059e+03,1.694484e+03
2.237023e+03,1.681748e+03
2.237988e+03,1.673465e+03
2.238952e+03,1.682529e+03
2.239916e+03,1.693309e+03
2.240880e+03,1.684780e+03
2.241844e+03,1.673180e+03
2.242809e+03,1.670090e+03
2.243773e+03,1.669725e+03
2.244737e+03,1.663402e+03
2.245701e+03,1.658782e+03
2.246666e+03,1.665107e+03
2.247630e+03,1.670740e+03
2.248594e+03,1.668800e+03
2.249558e+03,1.665875e+03
2.250522e+03,1.667121e+03
2.251487e+03,1.669729e+03
2.252451e+03,1.672402e+03
2.253415e+03,1.668813e+03
2.254379e+03,1.645428e+03
2.255344e+03,1.631259e+03
2.256308e+03,1.640287e+03
2.257272e+03,1.651865e+03
2.258236e+03,1.644103e+03
2.259201e+03,1.634480e+03
2.260165e+03,1.626979e+03
2.261129e+03,1.625618e+03
2.262093e+03,1.642450e+03
2.263058e+03,1.650625e+03
2.264022e+03,1.642962e+03
2.264986e+03,1.636077e+03
2.265950e+03,1.642718e+03
2.266915e+03,1.645366e+03
2.267879e+03,1.637411e+03
2.268843e+03,1.626085e+03
2.269807e+03,1.614795e+03
2.270771e+03,1.608737e+03
2.271736e+03,1.611759e+03
2.272700e+03,1.614213e+03
2.273664e+03,1.611670e+03
2.274628e+03,1.608275e+03
2.275593e+03,1.604854e+03
2.276557e+03,1.602348e+03
2.277521e+03,1.602153e+03
2.278485e+03,1.605072e+03
2.279449e+03,1.615421e+03
2.280414e+03,1.617000e+03
2.281378e+03,1.608828e+03
2.282342e+03,1.599236e+03
2.283306e+03,1.585422e+03
2.284271e+03,1.585552e+03
2.285235e+03,1.597734e+03
2.286199e+03,1.602332e+03
2.287163e+03,1.592007e+03
2.288128e+03,1.586009e+03
2.289092e+03,1.583215e+03
2.290056e+03,1.584967e+03
2.291020e+03,1.592233e+03
2.291985e+03,1.586908e+03
2.292949e+03,1.572341e+03
2.293913e+03,1.569722e+03
2.294877e+03,1.579893e+03
2.295842e+03,1.587919e+03
2.296806e+03,1.591989e+03
2.297770e+03,1.592254e+03
2.298734e+03,1.588029e+03
2.299698e+03,1.576768e+03
2.300663e+03,1.561038e+03
2.301627e+03,1.556020e+03
2.302591e+03,1.557045e+03
2.303555e+03,1.552607e+03
2.304520e+03,1.545165e+03
2.305484e+03,1.549533e+03
2.306448e+03,1.558740e+03
2.307412e+03,1.558410e+03
2.308376e+03,1.553025e+03
2.309341e+03,1.560356e+03
2.310305e+03,1.568264e+03
2.311269e+03,1.558221e+03
2.312233e+03,1.543139e+03
2.313198e+03,1.543704e+03
2.314162e+03,1.547539e+03
2.315126e+03,1.540129e+03
2.316090e+03,1.530780e+03
2.317055e+03,1.529494e+03
2.318019e+03,1.533408e+03
2.318983e+03,1.543711e+03
2.319947e+03,1.548983e+03
2.320912e+03,1.540010e+03
2.321876e+03,1.526500e+03
2.322840e+03,1.509473e+03
2.323804e+03,1.502096e+03
2.324769e+03,1.515352e+03
2.325733e+03,1.529149e+03
2.326697e+03,1.527621e+03
2.327661e+03,1.523953e+03
2.328625e+03,1.520047e+03
2.329590e+03,1.515359e+03
2.330554e+03,1.510574e+03
2.331518e+03,1.507976e+03
2.332482e+03,1.507821e+03
2.333447e+03,1.507453e+03
2.334411e+03,1.505073e+03
2.335375e+03,1.502738e+03
2.336339e+03,1.500691e+03
2.337303e+03,1.500672e+03
2.338268e+03,1.504614e+03
2.339232e+03,1.501627e+03
2.340196e+03,1.493667e+03
2.341160e+03,1.491305e+03
2.342125e+03,1.497647e+03
2.343089e+03,1.503853e+03
2.344053e+03,1.507692e+03
2.345017e+03,1.509333e+03
2.345982e+03,1.508640e+03
2.346946e+03,1.499365e+03
2.347910e+03,1.486256e+03
2.348874e+03,1.477602e+03
2.349839e+03,1.472573e+03
2.350803e+03,1.471102e+03
2.351767e+03,1.472077e+03
2.352731e+03,1.473158e+03
2.353696e+03,1.474031e+03
2.354660e+03,1.472111e+03
2.355624e+03,1.468385e+03
2.356588e+03,1.465696e+03
2.357552e+03,1.464233e+03
2.358517e+03,1.464690e+03
2.359481e+03,1.465180e+03
2.360445e+03,1.462196e+03
2.361409e+03,1.458198e+03
2.362374e+03,1.454678e+03
2.363338e+03,1.450408e+03
2.364302e+03,1.445455e+03
2.365266e+03,1.443278e+03
2.366230e+03,1.444047e+03
2.367195e+03,1.444577e+03
2.368159e+03,1.439560e+03
2.369123e+03,1.440673e+03
2.370087e+03,1.451238e+03
2.371052e+03,1.456377e+03
2.372016e+03,1.446078e+03
2.372980e+03,1.439862e+03
2.373944e+03,1.438066e+03
2.374909e+03,1.438664e+03
2.375873e+03,1.442819e+03
2.376837e+03,1.441077e+03
2.377801e+03,1.435007e+03
2.378766e+03,1.430290e+03
2.379730e+03,1.427646e+03
2.380694e+03,1.423569e+03
2.381658e+03,1.419011e+03
2.382623e+03,1.411536e+03
2.383587e+03,1.403888e+03
2.384551e+03,1.407315e+03
2.385515e+03,1.415727e+03
2.386479e+03,1.422979e+03
2.387444e+03,1.427068e+03
2.388408e+03,1.422523e+03
2.389372e+03,1.416518e+03
2.390336e+03,1.416039e+03
2.391301e+03,1.416089e+03
2.392265e+03,1.410947e+03
2.393229e+03,1.404566e+03
2.394193e+03,1.399249e+03
2.395157e+03,1.395541e+03
2.396122e+03,1.396505e+03
2.397086e+03,1.393302e+03
2.398050e+03,1.382077e+03
2.399014e+03,1.377625e+03
2.399979e+03,1.386967e+03
2.400943e+03,1.395917e+03
2.401907e+03,1.401586e+03
2.402871e+03,1.402392e+03
2.403836e+03,1.398300e+03
2.404800e+03,1.395645e+03
2.405764e+03,1.394544e+03
2.406728e+03,1.392731e+03
2.407693e+03,1.389520e+03
2.408657e+03,1.388621e+03
2.409621e+03,1.389361e+03
2.410585e+03,1.382761e+03
2.411550e+03,1.371619e+03
2.412514e+03,1.361816e+03
2.413478e+03,1.354681e+03
2.414442e+03,1.356172e+03
2.415406e+03,1.361107e+03
2.416371e+03,1.363576e+03
2.417335e+03,1.364813e+03
2.418299e+03,1.364939e+03
2.419263e+03,1.366840e+03
2.420228e+03,1.373488e+03
2.421192e+03,1.376384e+03
2.422156e+03,1.362975e+03
2.423120e+03,1.352676e+03
2.424084e+03,1.348585e+03
2.425049e+03,1.348534e+03
2.426013e+03,1.356367e+03
2.426977e+03,1.357816e+03
2.427941e+03,1.352887e+03
2.428906e+03,1.350012e+03
2.429870e+03,1.350753e+03
2.430834e+03,1.351252e+03
2.431798e+03,1.351811e+03
2.432763e+03,1.353045e+03
2.433727e+03,1.354243e+03
2.434691e+03,1.352376e+03
2.435655e+03,1.347646e+03
2.436620e+03,1.339249e+03
2.437584e+03,1.330770e+03
2.438548e+03,1.335417e+03
2.439512e+03,1.341019e+03
2.440477e+03,1.333589e+03
2.441441e+03,1.322068e+03
2.442405e+03,1.318151e+03
2.443369e+03,1.321566e+03
2.444333e+03,1.334051e+03
2.445298e+03,1.341635e+03
2.446262e+03,1.325401e+03
2.447226e+03,1.311821e+03
2.448190e+03,1.306161e+03
2.449155e+03,1.306014e+03
2.450119e+03,1.315324e+03
2.451083e+03,1.321572e+03
2.452047e+03,1.324292e+03
2.453011e+03,1.323763e+03
2.453976e+03,1.320377e+03
2.454940e+03,1.323023e+03
2.455904e+03,1.328464e+03
2.456868e+03,1.319594e+03
2.457833e+03,1.301708e+03
2.458797e+03,1.298098e+03
2.459761e+03,1.300322e+03
2.460725e+03,1.294350e+03
2.461690e+03,1.286924e+03
2.462654e+03,1.290786e+03
2.463618e+03,1.294835e+03
2.464582e+03,1.292173e+03
2.465547e+03,1.290576e+03
2.466511e+03,1.296119e+03
2.467475e+03,1.302563e+03
2.468439e+03,1.308750e+03
2.469404e+03,1.308611e+03
2.470368e+03,1.295341e+03
2.471332e+03,1.286053e+03
2.472296e+03,1.280120e+03
2.473260e+03,1.273841e+03
2.474225e+03,1.266420e+03
2.475189e+03,1.264360e+03
2.476153e+03,1.267355e+03
2.477117e+03,1.273193e+03
2.478082e+03,1.279137e+03
2.479046e+03,1.278338e+03
2.480010e+03,1.275155e+03
2.480974e+03,1.276798e+03
2.481938e+03,1.279528e+03
2.482903e+03,1.277701e+03
2.483867e+03,1.275375e+03
2.484831e+03,1.274109e+03
2.485795e+03,1.274133e+03
2.486760e+03,1.280998e+03
2.487724e+03,1.279211e+03
2.488688e+03,1.266822e+03
2.489652e+03,1.259457e+03
2.490617e+03,1.268421e+03
2.491581e+03,1.269414e+03
2.492545e+03,1.263715e+03
2.493509e+03,1.253024e+03
2.494474e+03,1.238704e+03
2.495438e+03,1.245592e+03
2.496402e+03,1.262011e+03
2.497366e+03,1.260013e+03
2.498331e+03,1.249546e+03
2.499295e+03,1.253699e+03
2.500259e+03,1.256021e+03
2.501223e+03,1.242335e+03
2.502188e+03,1.227147e+03
2.503152e+03,1.224051e+03
2.504116e+03,1.227574e+03
2.505080e+03,1.236160e+03
2.506044e+03,1.241793e+03
2.507009e+03,1.234390e+03
2.507973e+03,1.232551e+03
2.508937e+03,1.236932e+03
2.509901e+03,1.237905e+03
2.510865e+03,1.232355e+03
2.511830e+03,1.234395e+03
2.512794e+03,1.238768e+03
2.513758e+03,1.229906e+03
2.514722e+03,1.215984e+03
2.515687e+03,1.220703e+03
2.516651e+03,1.231289e+03
2.517615e+03,1.235048e+03
2.518579e+03,1.233302e+03
2.519544e+03,1.222470e+03
2.520508e+03,1.216486e+03
2.521472e+03,1.221340e+03
2.522436e+03,1.224908e+03
2.523401e+03,1.215654e+03
2.524365e+03,1.211439e+03
2.525329e+03,1.212104e+03
2.526293e+03,1.211745e+03
2.527258e+03,1.209852e+03
2.528222e+03,1.209961e+03
2.529186e+03,1.210213e+03
2.530150e+03,1.204176e+03
2.531115e+03,1.195119e+03
2.532079e+03,1.191330e+03
2.533043e+03,1.190489e+03
2.534007e+03,1.188808e+03
2.534971e+03,1.187125e+03
2.535936e+03,1.188694e+03
2.536900e+03,1.191788e+03
2.537864e+03,1.196067e+03
2.538828e+03,1.198872e+03
2.539792e+03,1.196728e+03
2.540757e+03,1.192505e+03
2.541721e+03,1.186764e+03
2.542685e+03,1.189223e+03
2.543649e+03,1.199562e+03
2.544614e+03,1.194184e+03
2.545578e+03,1.178729e+03
2.546542e+03,1.175999e+03
2.547506e+03,1.181789e+03
2.548471e+03,1.187369e+03
2.549435e+03,1.189804e+03
2.550399e+03,1.186274e+03
2.551363e+03,1.180131e+03
2.552328e+03,1.173679e+03
2.553292e+03,1.169562e+03
2.554256e+03,1.169638e+03
2.555220e+03,1.166858e+03
2.556185e+03,1.159625e+03
2.557149e+03,1.157395e+03
2.558113e+03,1.162372e+03
2.559077e+03,1.176804e+03
2.560042e+03,1.194341e+03
2.561006e+03,1.192836e+03
2.561970e+03,1.181740e+03
2.562934e+03,1.178238e+03
2.563898e+03,1.176809e+03
2.564863e+03,1.169538e+03
2.565827e+03,1.162319e+03
2.566791e+03,1.161097e+03
2.567755e+03,1.165213e+03
2.568719e+03,1.172819e+03
2.569684e+03,1.176142e+03
2.570648e+03,1.170962e+03
2.571612e+03,1.165611e+03
2.572576e+03,1.161332e+03
2.573541e+03,1.154650e+03
2.574505e+03,1.146023e+03
2.575469e+03,1.149927e+03
2.576433e+03,1.156242e+03
2.577398e+03,1.149156e+03
2.578362e+03,1.139551e+03
2.579326e+03,1.147379e+03
2.580290e+03,1.147977e+03
2.581255e+03,1.129358e+03
2.582219e+03,1.113650e+03
2.583183e+03,1.121675e+03
2.584147e+03,1.126089e+03
2.585112e+03,1.127199e+03
2.586076e+03,1.127438e+03
2.587040e+03,1.127220e+03
2.588004e+03,1.135526e+03
2.588969e+03,1.145012e+03
2.589933e+03,1.141481e+03
2.590897e+03,1.131591e+03
2.591861e+03,1.126477e+03
2.592825e+03,1.125613e+03
2.593790e+03,1.128847e+03
2.594754e+03,1.131292e+03
2.595718e+03,1.129887e+03
2.596682e+03,1.125717e+03
2.597646e+03,1.118074e+03
2.598611e+03,1.115727e+03
2.599575e+03,1.119683e+03
2.600539e+03,1.120720e+03
2.601503e+03,1.119184e+03
2.602468e+03,1.123438e+03
2.603432e+03,1.128522e+03
2.604396e+03,1.125405e+03
2.605360e+03,1.118828e+03
2.606325e+03,1.107218e+03
2.607289e+03,1.100970e+03
2.608253e+03,1.105069e+03
2.609217e+03,1.110998e+03
2.610182e+03,1.115011e+03
2.611146e+03,1.112884e+03
2.612110e+03,1.105680e+03
2.613074e+03,1.095776e+03
2.614039e+03,1.085997e+03
2.615003e+03,1.087383e+03
2.615967e+03,1.093767e+03
2.616931e+03,1.099325e+03
2.617896e+03,1.103093e+03
2.618860e+03,1.104379e+03
2.619824e+03,1.098975e+03
2.620788e+03,1.084028e+03
2.621752e+03,1.078773e+03
2.622717e+03,1.101445e+03
2.623681e+03,1.112942e+03
2.624645e+03,1.112117e+03
2.625609e+03,1.110284e+03
2.626573e+03,1.108256e+03
2.627538e+03,1.094285e+03
2.628502e+03,1.080351e+03
2.629466e+03,1.083846e+03
2.630430e+03,1.092232e+03
2.631395e+03,1.088350e+03
2.632359e+03,1.084116e+03
2.633323e+03,1.085012e+03
2.634287e+03,1.078237e+03
2.635252e+03,1.061696e+03
2.636216e+03,1.062140e+03
2.637180e+03,1.082612e+03
2.638144e+03,1.091674e+03
2.639109e+03,1.089570e+03
2.640073e+03,1.073071e+03
2.641037e+03,1.055991e+03
2.642001e+03,1.054558e+03
2.642966e+03,1.059551e+03
2.643930e+03,1.065849e+03
2.644894e+03,1.069666e+03
2.645858e+03,1.065450e+03
2.646823e+03,1.066122e+03
2.647787e+03,1.070924e+03
2.648751e+03,1.073338e+03
2.649715e+03,1.072277e+03
2.650679e+03,1.071295e+03
2.651644e+03,1.068204e+03
2.652608e+03,1.058568e+03
2.653572e+03,1.048386e+03
2.654536e+03,1.044346e+03
2.655500e+03,1.051053e+03
2.656465e+03,1.072971e+03
2.657429e+03,1.083421e+03
2.658393e+03,1.072745e+03
2.659357e+03,1.061838e+03
2.660322e+03,1.055429e+03
2.661286e+03,1.056845e+03
2.662250e+03,1.061119e+03
2.663214e+03,1.050407e+03
2.664179e+03,1.038298e+03
2.665143e+03,1.043731e+03
2.666107e+03,1.053629e+03
2.667071e+03,1.062320e+03
2.668036e+03,1.063879e+03
2.669000e+03,1.048403e+03
2.669964e+03,1.038650e+03
2.670928e+03,1.035411e+03
2.671893e+03,1.041833e+03
2.672857e+03,1.054190e+03
2.673821e+03,1.053692e+03
2.674785e+03,1.047544e+03
2.675750e+03,1.044008e+03
2.676714e+03,1.044792e+03
2.677678e+03,1.057309e+03
2.678642e+03,1.060897e+03
2.679606e+03,1.050795e+03
2.680571e+03,1.045125e+03
2.681535e+03,1.046638e+03
2.682499e+03,1.048370e+03
2.683463e+03,1.048070e+03
2.684427e+03,1.044128e+03
2.685392e+03,1.037888e+03
2.686356e+03,1.026460e+03
2.687320e+03,1.019544e+03
2.688284e+03,1.030050e+03
2.689249e+03,1.035555e+03
2.690213e+03,1.031045e+03
2.691177e+03,1.026110e+03
2.692141e+03,1.024813e+03
2.693106e+03,1.020806e+03
2.694070e+03,1.016397e+03
2.695034e+03,1.016976e+03
2.695998e+03,1.019978e+03
2.696963e+03,1.022966e+03
2.697927e+03,1.024566e+03
2.698891e+03,1.023943e+03
2.699855e+03,1.015081e+03
2.700820e+03,9.915842e+02
2.701784e+03,9.911400e+02
2.702748e+03,1.012073e+03
2.703712e+03,1.012997e+03
2.704677e+03,1.001027e+03
2.705641e+03,1.009981e+03
2.706605e+03,1.023232e+03
2.707569e+03,1.018353e+03
2.708533e+03,1.008813e+03
2.709498e+03,1.000198e+03
2.710462e+03,9.950560e+02
2.711426e+03,9.972057e+02
2.712390e+03,9.999335e+02
2.713354e+03,1.002255e+03
2.714319e+03,1.000557e+03
2.715283e+03,9.965020e+02
2.716247e+03,9.907602e+02
2.717211e+03,9.919315e+02
2.718176e+03,1.007167e+03
2.719140e+03,1.018028e+03
2.720104e+03,1.009183e+03
2.721068e+03,1.001884e+03
2.722033e+03,9.987784e+02
2.722997e+03,9.979682e+02
2.723961e+03,9.972598e+02
2.724925e+03,9.894478e+02
2.725890e+03,9.803161e+02
2.726854e+03,9.753251e+02
2.727818e+03,9.773109e+02
2.728782e+03,9.870294e+02
2.729747e+03,9.947321e+02
2.730711e+03,9.972510e+02
2.731675e+03,9.853201e+02
2.732639e+03,9.650934e+02
2.733604e+03,9.678517e+02
2.734568e+03,9.826490e+02
2.735532e+03,9.756218e+02
2.736496e+03,9.684325e+02
2.737460e+03,9.793248e+02
2.738425e+03,9.880192e+02
2.739389e+03,9.805928e+02
2.740353e+03,9.745719e+02
2.741317e+03,9.730712e+02
2.742281e+03,9.723384e+02
2.743246e+03,9.723054e+02
2.744210e+03,9.735300e+02
2.745174e+03,9.715135e+02
2.746138e+03,9.562639e+02
2.747103e+03,9.497450e+02
2.748067e+03,9.604756e+02
2.749031e+03,9.725328e+02
2.749995e+03,9.791807e+02
2.750960e+03,9.787557e+02
2.751924e+03,9.741410e+02
2.752888e+03,9.754413e+02
2.753852e+03,9.781149e+02
2.754817e+03,9.695556e+02
2.755781e+03,9.608918e+02
2.756745e+03,9.578154e+02
2.757709e+03,9.574332e+02
2.758674e+03,9.574177e+02
2.759638e+03,9.627412e+02
2.760602e+03,9.726829e+02
2.761566e+03,9.677410e+02
2.762531e+03,9.568656e+02
2.763495e+03,9.540783e+02
2.764459e+03,9.523173e+02
2.765423e+03,9.432244e+02
2.766387e+03,9.377813e+02
2.767352e+03,9.386707e+02
2.768316e+03,9.428617e+02
2.769280e+03,9.490468e+02
2.770244e+03,9.521041e+02
2.771208e+03,9.535572e+02
2.772173e+03,9.560573e+02
2.773137e+03,9.573538e+02
2.774101e+03,9.568134e+02
2.775065e+03,9.541205e+02
2.776030e+03,9.469974e+02
2.776994e+03,9.459576e+02
2.777958e+03,9.492933e+02
2.778922e+03,9.478135e+02
2.779887e+03,9.430039e+02
2.780851e+03,9.394689e+02
2.781815e+03,9.352103e+02
2.782779e+03,9.292057e+02
2.783744e+03,9.274891e+02
2.784708e+03,9.356768e+02
2.785672e+03,9.333389e+02
2.786636e+03,9.210369e+02
2.787601e+03,9.181943e+02
2.788565e+03,9.234210e+02
2.789529e+03,9.324343e+02
2.790493e+03,9.410361e+02
2.791458e+03,9.492991e+02
2.792422e+03,9.416711e+02
2.793386e+03,9.179754e+02
2.794350e+03,9.153582e+02
2.795314e+03,9.418470e+02
2.796279e+03,9.413305e+02
2.797243e+03,9.275661e+02
2.798207e+03,9.252239e+02
2.799171e+03,9.281849e+02
2.800135e+03,9.310457e+02
2.801100e+03,9.274313e+02
2.802064e+03,9.155910e+02
2.803028e+03,9.118557e+02
2.803992e+03,9.161251e+02
2.804957e+03,9.283994e+02
2.805921e+03,9.400316e+02
2.806885e+03,9.324368e+02
2.807849e+03,9.206596e+02
2.808814e+03,9.124043e+02
2.809778e+03,9.096905e+02
2.810742e+03,9.165819e+02
2.811706e+03,9.122184e+02
2.812671e+03,9.012457e+02
2.813635e+03,9.041624e+02
2.814599e+03,9.144959e+02
2.815563e+03,9.243682e+02
2.816528e+03,9.291669e+02
2.817492e+03,9.255981e+02
2.818456e+03,9.138005e+02
2.819420e+03,8.962545e+02
2.820385e+03,8.959735e+02
2.821349e+03,9.102653e+02
2.822313e+03,9.237368e+02
2.823277e+03,9.283700e+02
2.824241e+03,9.182709e+02
2.825206e+03,9.064820e+02
2.826170e+03,9.006494e+02
2.827134e+03,9.025012e+02
2.828098e+03,9.097429e+02
2.829063e+03,9.080982e+02
2.830027e+03,9.013213e+02
2.830991e+03,8.966130e+02
2.831955e+03,8.979376e+02
2.832919e+03,9.137913e+02
2.833884e+03,9.192228e+02
2.834848e+03,9.115547e+02
2.835812e+03,9.086539e+02
2.836776e+03,9.111417e+02
2.837741e+03,8.965052e+02
2.838705e+03,8.805749e+02
2.839669e+03,8.800551e+02
2.840633e+03,8.859622e+02
2.841598e+03,8.943445e+02
2.842562e+03,8.940883e+02
2.843526e+03,8.829633e+02
2.844490e+03,8.855311e+02
2.845455e+03,8.922920e+02
2.846419e+03,8.850919e+02
2.847383e+03,8.789142e+02
2.848347e+03,8.966433e+02
2.849312e+03,9.057185e+02
2.850276e+03,9.006925e+02
2.851240e+03,9.044316e+02
2.852204e+03,9.138036e+02
2.853168e+03,8.991447e+02
2.854133e+03,8.802230e+02
2.855097e+03,8.866400e+02
2.856061e+03,8.932133e+02
2.857025e+03,8.901822e+02
2.857990e+03,8.892135e+02
2.858954e+03,8.942050e+02
2.859918e+03,8.963486e+02
2.860882e+03,8.946876e+02
2.861846e+03,8.862816e+02
2.862811e+03,8.809720e+02
2.863775e+03,8.908657e+02
2.864739e+03,8.938748e+02
2.865703e+03,8.839241e+02
2.866668e+03,8.875201e+02
2.867632e+03,8.988021e+02
2.868596e+03,8.998076e+02
2.869560e+03,8.941045e+02
2.870525e+03,8.822548e+02
2.871489e+03,8.755148e+02
2.872453e+03,8.759824e+02
2.873417e+03,8.786539e+02
2.874382e+03,8.811296e+02
2.875346e+03,8.782402e+02
2.876310e+03,8.739510e+02
2.877274e+03,8.691553e+02
2.878239e+03,8.722623e+02
2.879203e+03,8.850598e+02
2.880167e+03,8.904825e+02
2.881131e+03,8.840686e+02
2.882095e+03,8.880165e+02
2.883060e+03,8.924936e+02
2.884024e+03,8.791367e+02
2.884988e+03,8.673059e+02
2.885952e+03,8.779799e+02
2.886917e+03,8.766171e+02
2.887881e+03,8.552151e+02
2.888845e+03,8.506593e+02
2.889809e+03,8.570057e+02
2.890773e+03,8.560389e+02
2.891738e+03,8.556547e+02
2.892702e+03,8.727984e+02
2.893666e+03,8.830759e+02
2.894630e+03,8.820972e+02
2.895595e+03,8.733477e+02
2.896559e+03,8.617408e+02
2.897523e+03,8.665837e+02
2.898487e+03,8.741937e+02
2.899452e+03,8.682888e+02
2.900416e+03,8.620432e+02
2.901380e+03,8.585331e+02
2.902344e+03,8.595322e+02
2.903309e+03,8.649771e+02
2.904273e+03,8.840630e+02
2.905237e+03,8.946680e+02
2.906201e+03,8.690235e+02
2.907166e+03,8.539162e+02
2.908130e+03,8.695192e+02
2.909094e+03,8.828278e+02
2.910058e+03,8.870607e+02
2.911022e+03,8.835538e+02
2.911987e+03,8.777813e+02
2.912951e+03,8.753388e+02
2.913915e+03,8.724984e+02
2.914879e+03,8.658546e+02
2.915844e+03,8.599033e+02
2.916808e+03,8.557977e+02
2.917772e+03,8.556426e+02
2.918736e+03,8.544396e+02
2.919700e+03,8.406349e+02
2.920665e+03,8.319097e+02
2.921629e+03,8.480504e+02
2.922593e+03,8.538655e+02
2.923557e+03,8.500980e+02
2.924522e+03,8.473097e+02
2.925486e+03,8.458939e+02
2.926450e+03,8.456418e+02
2.927414e+03,8.433871e+02
2.928379e+03,8.349347e+02
2.929343e+03,8.421664e+02
2.930307e+03,8.611591e+02
2.931271e+03,8.655854e+02
2.932236e+03,8.609865e+02
2.933200e+03,8.510237e+02
2.934164e+03,8.478605e+02
2.935128e+03,8.559716e+02
2.936093e+03,8.571293e+02
2.937057e+03,8.511478e+02
2.938021e+03,8.467365e+02
2.938985e+03,8.451263e+02
2.939949e+03,8.462872e+02
2.940914e+03,8.490056e+02
2.941878e+03,8.530120e+02
2.942842e+03,8.552381e+02
2.943806e+03,8.536993e+02
2.944771e+03,8.424040e+02
2.945735e+03,8.327617e+02
2.946699e+03,8.436116e+02
2.947663e+03,8.507018e+02
2.948627e+03,8.451786e+02
2.949592e+03,8.390764e+02
2.950556e+03,8.358373e+02
2.951520e+03,8.323345e+02
2.952484e+03,8.344373e+02
2.953449e+03,8.490441e+02
2.954413e+03,8.622667e+02
2.955377e+03,8.693228e+02
2.956341e+03,8.627039e+02
2.957306e+03,8.477054e+02
2.958270e+03,8.664031e+02
2.959234e+03,8.790012e+02
2.960198e+03,8.551217e+02
2.961163e+03,8.334318e+02
2.962127e+03,8.299362e+02
2.963091e+03,8.292631e+02
2.964055e+03,8.272989e+02
2.965020e+03,8.173401e+02
2.965984e+03,8.107824e+02
2.966948e+03,8.153243e+02
2.967912e+03,8.147097e+02
2.968876e+03,7.983145e+02
2.969841e+03,8.057031e+02
2.970805e+03,8.245255e+02
2.971769e+03,8.329626e+02
2.972733e+03,8.293773e+02
2.973698e+03,8.108860e+02
2.974662e+03,8.031439e+02
2.975626e+03,8.138622e+02
2.976590e+03,8.218934e+02
2.977554e+03,8.212015e+02
2.978519e+03,8.017162e+02
2.979483e+03,7.878936e+02
2.980447e+03,7.995919e+02
2.981411e+03,8.002745e+02
2.982376e+03,7.891869e+02
2.983340e+03,7.969570e+02
2.984304e+03,8.111639e+02
2.985268e+03,8.198347e+02
2.986233e+03,8.245314e+02
2.987197e+03,8.260956e+02
2.988161e+03,8.239694e+02
2.989125e+03,8.203215e+02
2.990090e+03,8.242984e+02
2.991054e+03,8.212761e+02
2.992018e+03,7.978197e+02
2.992982e+03,7.836444e+02
2.993947e+03,7.926185e+02
2.994911e+03,8.114867e+02
2.995875e+03,8.270393e+02
2.996839e+03,8.170555e+02
2.997803e+03,7.986276e+02
2.998768e+03,7.832306e+02
2.999732e+03,7.757146e+02
3.000696e+03,7.772179e+02
3.001660e+03,7.698690e+02
3.002625e+03,7.624133e+02
3.003589e+03,7.635156e+02
3.004553e+03,7.712531e+02
3.005517e+03,7.859161e+02
3.006481e+03,7.900248e+02
3.007446e+03,7.851249e+02
3.008410e+03,7.885013e+02
3.009374e+03,7.923599e+02
3.010338e+03,7.925344e+02
3.011303e+03,7.941636e+02
3.012267e+03,7.972736e+02
3.013231e+03,8.177509e+02
3.014195e+03,8.363070e+02
3.015160e+03,8.176602e+02
3.016124e+03,7.944144e+02
3.017088e+03,7.788041e+02
3.018052e+03,7.825899e+02
3.019017e+03,8.018141e+02
3.019981e+03,8.038751e+02
3.020945e+03,7.987264e+02
3.021909e+03,7.929981e+02
3.022874e+03,8.004109e+02
3.023838e+03,8.190839e+02
3.024802e+03,8.145459e+02
3.025766e+03,7.968157e+02
3.026730e+03,7.936268e+02
3.027695e+03,7.946632e+02
3.028659e+03,7.955176e+02
3.029623e+03,7.945153e+02
3.030587e+03,7.921338e+02
3.031552e+03,7.926415e+02
3.032516e+03,7.889850e+02
3.033480e+03,7.629319e+02
3.034444e+03,7.640577e+02
3.035408e+03,7.952023e+02
3.036373e+03,7.886185e+02
3.037337e+03,7.614332e+02
3.038301e+03,7.856495e+02
3.039265e+03,8.084650e+02
3.040230e+03,7.944408e+02
3.041194e+03,7.880637e+02
3.042158e+03,7.884639e+02
3.043122e+03,7.798339e+02
3.044087e+03,7.719857e+02
3.045051e+03,7.814091e+02
3.046015e+03,7.853442e+02
3.046979e+03,7.772835e+02
3.047944e+03,7.698690e+02
3.048908e+03,7.639851e+02
3.049872e+03,7.573029e+02
3.050836e+03,7.605836e+02
3.051801e+03,7.838044e+02
3.052765e+03,7.965927e+02
3.053729e+03,7.957159e+02
3.054693e+03,7.961725e+02
3.055657e+03,7.930121e+02
3.056622e+03,7.813521e+02
3.057586e+03,7.811589e+02
3.058550e+03,7.982821e+02
3.059514e+03,7.924295e+02
3.060479e+03,7.783456e+02
3.061443e+03,7.830204e+02
3.062407e+03,7.835411e+02
3.063371e+03,7.739534e+02
3.064335e+03,7.546656e+02
3.065300e+03,7.345164e+02
3.066264e+03,7.508634e+02
3.067228e+03,7.738049e+02
3.068192e+03,7.867899e+02
3.069157e+03,7.789106e+02
3.070121e+03,7.590195e+02
3.071085e+03,7.656418e+02
3.072049e+03,7.778313e+02
3.073014e+03,7.568676e+02
3.073978e+03,7.497468e+02
3.074942e+03,7.659062e+02
3.075906e+03,7.744631e+02
3.076871e+03,7.762964e+02
3.077835e+03,7.755494e+02
3.078799e+03,7.698704e+02
3.079763e+03,7.535812e+02
3.080728e+03,7.590579e+02
3.081692e+03,7.790067e+02
3.082656e+03,7.799545e+02
3.083620e+03,7.664454e+02
3.084584e+03,7.428923e+02
3.085549e+03,7.427238e+02
3.086513e+03,7.707672e+02
3.087477e+03,7.697530e+02
3.088441e+03,7.611830e+02
3.089406e+03,7.721553e+02
3.090370e+03,7.739549e+02
3.091334e+03,7.650238e+02
3.092298e+03,7.780690e+02
3.093262e+03,7.960703e+02
3.094227e+03,7.728028e+02
3.095191e+03,7.546055e+02
3.096155e+03,7.578859e+02
3.097119e+03,7.540291e+02
3.098084e+03,7.507233e+02
3.099048e+03,7.674493e+02
3.100012e+03,7.844855e+02
3.100976e+03,7.885761e+02
3.101941e+03,7.739340e+02
3.102905e+03,7.472267e+02
3.103869e+03,7.440645e+02
3.104833e+03,7.507984e+02
3.105798e+03,7.583359e+02
3.106762e+03,7.503885e+02
3.107726e+03,7.282635e+02
3.108690e+03,7.386254e+02
3.109655e+03,7.578928e+02
3.110619e+03,7.597464e+02
3.111583e+03,7.528884e+02
3.112547e+03,7.409506e+02
3.113511e+03,7.190204e+02
3.114476e+03,7.041461e+02
3.115440e+03,7.492289e+02
3.116404e+03,7.854495e+02
3.117368e+03,7.874086e+02
3.118333e+03,7.909694e+02
3.119297e+03,7.927055e+02
3.120261e+03,7.849615e+02
3.121225e+03,7.777956e+02
3.122189e+03,7.765822e+02
3.123154e+03,7.657973e+02
3.124118e+03,7.508716e+02
3.125082e+03,7.656801e+02
3.126046e+03,7.782764e+02
3.127011e+03,7.727260e+02
3.127975e+03,7.600113e+02
3.128939e+03,7.479901e+02
3.129903e+03,7.718906e+02
3.130868e+03,7.900900e+02
3.131832e+03,7.432770e+02
3.132796e+03,7.478932e+02
3.133760e+03,7.953619e+02
3.134725e+03,7.950394e+02
3.135689e+03,7.788568e+02
3.136653e+03,7.801430e+02
3.137617e+03,7.802570e+02
3.138582e+03,7.742728e+02
3.139546e+03,7.753494e+02
3.140510e+03,7.803596e+02
3.141474e+03,7.894894e+02
3.142438e+03,7.903405e+02
3.143403e+03,7.829023e+02
3.144367e+03,7.738654e+02
3.145331e+03,7.693400e+02
3.146295e+03,7.908475e+02
3.147260e+03,7.912796e+02
3.148224e+03,7.573173e+02
3.149188e+03,7.519533e+02
3.150152e+03,7.597464e+02
3.151116e+03,7.559001e+02
3.152081e+03,7.544714e+02
3.153045e+03,7.603691e+02
3.154009e+03,7.493047e+02
3.154973e+03,7.352860e+02
3.155938e+03,7.542719e+02
3.156902e+03,7.601835e+02
3.157866e+03,7.417263e+02
3.158830e+03,7.379674e+02
3.159795e+03,7.487148e+02
3.160759e+03,7.615276e+02
3.161723e+03,7.813182e+02
3.162687e+03,8.251643e+02
3.163652e+03,8.260469e+02
3.164616e+03,8.006042e+02
3.165580e+03,7.785731e+02
3.166544e+03,7.780934e+02
3.167509e+03,8.025904e+02
3.168473e+03,7.969768e+02
3.169437e+03,7.702479e+02
3.170401e+03,7.616319e+02
3.171365e+03,7.700243e+02
3.172330e+03,7.966604e+02
3.173294e+03,7.932521e+02
3.174258e+03,7.749496e+02
3.175222e+03,7.778741e+02
3.176187e+03,7.841047e+02
3.177151e+03,7.847899e+02
3.178115e+03,7.717416e+02
3.179079e+03,7.540971e+02
3.180043e+03,7.602161e+02
3.181008e+03,7.664584e+02
3.181972e+03,7.649358e+02
3.182936e+03,7.717157e+02
3.183900e+03,7.864053e+02
3.184865e+03,8.133567e+02
3.185829e+03,8.313380e+02
3.186793e+03,8.263941e+02
3.187757e+03,8.059980e+02
3.188722e+03,7.839464e+02
3.189686e+03,7.917683e+02
3.190650e+03,7.963237e+02
3.191614e+03,7.847233e+02
3.192579e+03,7.964486e+02
3.193543e+03,8.208915e+02
3.194507e+03,8.161256e+02
3.195471e+03,8.036747e+02
3.196436e+03,7.898749e+02
3.197400e+03,7.747966e+02
3.198364e+03,7.713788e+02
3.199328e+03,8.039702e+02
3.200292e+03,8.166874e+02
3.201257e+03,0.000000e+00
3.202221e+03,0.000000e+00
3.203185e+03,0.000000e+00
3.204149e+03,0.000000e+00
3.205114e+03,0.000000e+00
3.206078e+03,0.000000e+00
3.207042e+03,0.000000e+00
3.208006e+03,0.000000e+00
3.208970e+03,0.000000e+00
3.209935e+03,0.000000e+00
3.210899e+03,0.000000e+00
3.211863e+03,0.000000e+00
3.212827e+03,0.000000e+00
3.213792e+03,0.000000e+00
3.214756e+03,0.000000e+00
3.215720e+03,0.000000e+00
3.216684e+03,0.000000e+00
3.217649e+03,0.000000e+00
3.218613e+03,0.000000e+00
3.219577e+03,0.000000e+00
3.220541e+03,0.000000e+00
3.221506e+03,0.000000e+00
3.222470e+03,0.000000e+00
3.223434e+03,0.000000e+00
3.224398e+03,0.000000e+00
3.225363e+03,0.000000e+00
3.226327e+03,0.000000e+00
3.227291e+03,0.000000e+00
3.228255e+03,0.000000e+00
3.229219e+03,0.000000e+00
3.230184e+03,0.000000e+00
3.231148e+03,0.000000e+00
3.232112e+03,0.000000e+00
3.233076e+03,0.000000e+00
3.234041e+03,0.000000e+00
3.235005e+03,0.000000e+00
3.235969e+03,0.000000e+00
3.236933e+03,0.000000e+00
3.237897e+03,0.000000e+00
3.238862e+03,0.000000e+00
3.239826e+03,0.000000e+00
3.240790e+03,0.000000e+00
3.241754e+03,0.000000e+00
3.242719e+03,0.000000e+00
3.243683e+03,0.000000e+00
3.244647e+03,0.000000e+00
3.245611e+03,0.000000e+00
3.246576e+03,0.000000e+00
3.247540e+03,0.000000e+00
3.248504e+03,0.000000e+00
3.249468e+03,0.000000e+00
3.250433e+03,0.000000e+00
3.251397e+03,0.000000e+00
3.252361e+03,0.000000e+00
3.253325e+03,0.000000e+00
3.254290e+03,0.000000e+00
3.255254e+03,0.000000e+00
3.256218e+03,0.000000e+00
3.257182e+03,0.000000e+00
3.258146e+03,0.000000e+00
3.259111e+03,0.000000e+00
3.260075e+03,0.000000e+00
3.261039e+03,0.000000e+00
3.262003e+03,0.000000e+00
3.262968e+03,0.000000e+00
3.263932e+03,0.000000e+00
3.264896e+03,0.000000e+00
3.265860e+03,0.000000e+00
3.266824e+03,0.000000e+00
3.267789e+03,0.000000e+00
3.268753e+03,0.000000e+00
3.269717e+03,0.000000e+00
3.270681e+03,0.000000e+00
3.271646e+03,0.000000e+00
3.272610e+03,0.000000e+00
3.273574e+03,0.000000e+00
3.274538e+03,0.000000e+00
3.275503e+03,0.000000e+00
3.276467e+03,0.000000e+00
3.277431e+03,0.000000e+00
3.278395e+03,0.000000e+00
3.279360e+03,0.000000e+00
3.280324e+03,0.000000e+00
3.281288e+03,0.000000e+00
3.282252e+03,0.000000e+00
3.283217e+03,0.000000e+00
3.284181e+03,0.000000e+00
3.285145e+03,0.000000e+00
3.286109e+03,0.000000e+00
3.287073e+03,0.000000e+00
3.288038e+03,0.000000e+00
3.289002e+03,0.000000e+00
3.289966e+03,0.000000e+00
3.290930e+03,0.000000e+00
3.291895e+03,0.000000e+00
3.292859e+03,0.000000e+00
3.293823e+03,0.000000e+00
3.294787e+03,0.000000e+00
3.295751e+03,0.000000e+00
3.296716e+03,0.000000e+00
3.297680e+03,0.000000e+00
3.298644e+03,0.000000e+00
3.299608e+03,0.000000e+00
3.300573e+03,0.000000e+00
3.301537e+03,0.000000e+00
3.302501e+03,0.000000e+00
3.303465e+03,0.000000e+00
3.304430e+03,0.000000e+00
3.305394e+03,0.000000e+00
3.306358e+03,0.000000e+00
3.307322e+03,0.000000e+00
3.308287e+03,0.000000e+00
3.309251e+03,0.000000e+00
3.310215e+03,0.000000e+00
3.311179e+03,0.000000e+00
3.312144e+03,0.000000e+00
3.313108e+03,0.000000e+00
3.314072e+03,0.000000e+00
3.315036e+03,0.000000e+00
3.316000e+03,0.000000e+00
3.316965e+03,0.000000e+00
3.317929e+03,0.000000e+00
3.318893e+03,0.000000e+00
3.319857e+03,0.000000e+00
3.320822e+03,0.000000e+00
3.321786e+03,0.000000e+00
3.322750e+03,0.000000e+00
3.323714e+03,0.000000e+00
3.324678e+03,0.000000e+00
3.325643e+03,0.000000e+00
3.326607e+03,0.000000e+00
3.327571e+03,0.000000e+00
3.328535e+03,0.000000e+00
3.329500e+03,0.000000e+00
3.330464e+03,0.000000e+00
3.331428e+03,0.000000e+00
3.332392e+03,0.000000e+00
3.333357e+03,0.000000e+00
3.334321e+03,0.000000e+00
3.335285e+03,0.000000e+00
3.336249e+03,0.000000e+00
3.337214e+03,0.000000e+00
3.338178e+03,0.000000e+00
3.339142e+03,0.000000e+00
3.340106e+03,0.000000e+00
3.341071e+03,0.000000e+00
3.342035e+03,0.000000e+00
3.342999e+03,0.000000e+00
3.343963e+03,0.000000e+00
3.344927e+03,0.000000e+00
3.345892e+03,0.000000e+00
3.346856e+03,0.000000e+00
3.347820e+03,0.000000e+00
3.348784e+03,0.000000e+00
3.349749e+03,0.000000e+00
3.350713e+03,0.000000e+00
3.351677e+03,0.000000e+00
3.352641e+03,0.000000e+00
3.353605e+03,0.000000e+00
3.354570e+03,0.000000e+00
3.355534e+03,0.000000e+00
3.356498e+03,0.000000e+00
3.357462e+03,0.000000e+00
3.358427e+03,0.000000e+00
3.359391e+03,0.000000e+00
3.360355e+03,0.000000e+00
3.361319e+03,0.000000e+00
3.362284e+03,0.000000e+00
3.363248e+03,0.000000e+00
3.364212e+03,0.000000e+00
3.365176e+03,0.000000e+00
3.366141e+03,0.000000e+00
3.367105e+03,0.000000e+00
3.368069e+03,0.000000e+00
3.369033e+03,0.000000e+00
3.369998e+03,0.000000e+00
3.370962e+03,0.000000e+00
3.371926e+03,0.000000e+00
3.372890e+03,0.000000e+00
3.373854e+03,0.000000e+00
3.374819e+03,0.000000e+00
3.375783e+03,0.000000e+00
3.376747e+03,0.000000e+00
3.377711e+03,0.000000e+00
3.378676e+03,0.000000e+00
3.379640e+03,0.000000e+00
3.380604e+03,0.000000e+00
3.381568e+03,0.000000e+00
3.382532e+03,0.000000e+00
3.383497e+03,0.000000e+00
3.384461e+03,0.000000e+00
3.385425e+03,0.000000e+00
3.386389e+03,0.000000e+00
3.387354e+03,0.000000e+00
3.388318e+03,0.000000e+00
3.389282e+03,0.000000e+00
3.390246e+03,0.000000e+00
3.391211e+03,0.000000e+00
3.392175e+03,0.000000e+00
3.393139e+03,0.000000e+00
3.394103e+03,0.000000e+00
3.395068e+03,0.000000e+00
3.396032e+03,0.000000e+00
3.396996e+03,0.000000e+00
3.397960e+03,0.000000e+00
3.398925e+03,0.000000e+00
3.399889e+03,0.000000e+00
3.400853e+03,0.000000e+00
3.401817e+03,0.000000e+00
3.402781e+03,0.000000e+00
3.403746e+03,0.000000e+00
3.404710e+03,0.000000e+00
3.405674e+03,0.000000e+00
3.406638e+03,0.000000e+00
3.407603e+03,0.000000e+00
3.408567e+03,0.000000e+00
3.409531e+03,0.000000e+00
3.410495e+03,0.000000e+00
3.411459e+03,0.000000e+00
3.412424e+03,0.000000e+00
3.413388e+03,0.000000e+00
3.414352e+03,0.000000e+00
3.415316e+03,0.000000e+00
3.416281e+03,0.000000e+00
3.417245e+03,0.000000e+00
3.418209e+03,0.000000e+00
3.419173e+03,0.000000e+00
3.420138e+03,0.000000e+00
3.421102e+03,0.000000e+00
3.422066e+03,0.000000e+00
3.423030e+03,0.000000e+00
3.423995e+03,0.000000e+00
3.424959e+03,0.000000e+00
3.425923e+03,0.000000e+00
3.426887e+03,0.000000e+00
3.427852e+03,0.000000e+00
3.428816e+03,0.000000e+00
3.429780e+03,0.000000e+00
3.430744e+03,0.000000e+00
3.431708e+03,0.000000e+00
3.432673e+03,0.000000e+00
3.433637e+03,0.000000e+00
3.434601e+03,0.000000e+00
3.435565e+03,0.000000e+00
3.436530e+03,0.000000e+00
3.437494e+03,0.000000e+00
3.438458e+03,0.000000e+00
3.439422e+03,0.000000e+00
3.440386e+03,0.000000e+00
3.441351e+03,0.000000e+00
3.442315e+03,0.000000e+00
3.443279e+03,0.000000e+00
3.444243e+03,0.000000e+00
3.445208e+03,0.000000e+00
3.446172e+03,0.000000e+00
3.447136e+03,0.000000e+00
3.448100e+03,0.000000e+00
3.449065e+03,0.000000e+00
3.450029e+03,0.000000e+00
3.450993e+03,0.000000e+00
3.451957e+03,0.000000e+00
3.452922e+03,0.000000e+00
3.453886e+03,0.000000e+00
3.454850e+03,0.000000e+00
3.455814e+03,0.000000e+00
3.456779e+03,0.000000e+00
3.457743e+03,0.000000e+00
3.458707e+03,0.000000e+00
3.459671e+03,0.000000e+00
3.460635e+03,0.000000e+00
3.461600e+03,0.000000e+00
3.462564e+03,0.000000e+00
3.463528e+03,0.000000e+00
3.464492e+03,0.000000e+00
3.465457e+03,0.000000e+00
3.466421e+03,0.000000e+00
3.467385e+03,0.000000e+00
3.468349e+03,0.000000e+00
3.469313e+03,0.000000e+00
3.470278e+03,0.000000e+00
3.471242e+03,0.000000e+00
3.472206e+03,0.000000e+00
3.473170e+03,0.000000e+00
3.474135e+03,0.000000e+00
3.475099e+03,0.000000e+00
3.476063e+03,0.000000e+00
3.477027e+03,0.000000e+00
3.477992e+03,0.000000e+00
3.478956e+03,0.000000e+00
3.479920e+03,0.000000e+00
3.480884e+03,0.000000e+00
3.481849e+03,0.000000e+00
3.482813e+03,0.000000e+00
3.483777e+03,0.000000e+00
3.484741e+03,0.000000e+00
3.485706e+03,0.000000e+00
3.486670e+03,0.000000e+00
3.487634e+03,0.000000e+00
3.488598e+03,0.000000e+00
3.489563e+03,0.000000e+00
3.490527e+03,0.000000e+00
3.491491e+03,0.000000e+00
3.492455e+03,0.000000e+00
3.493419e+03,0.000000e+00
3.494384e+03,0.000000e+00
3.495348e+03,0.000000e+00
3.496312e+03,0.000000e+00
3.497276e+03,0.000000e+00
3.498240e+03,0.000000e+00
3.499205e+03,0.000000e+00
3.500169e+03,0.000000e+00
