9.931763e+01,0.000000e+00
1.002819e+02,0.000000e+00
1.012461e+02,0.000000e+00
1.022103e+02,0.000000e+00
1.031746e+02,0.000000e+00
1.041388e+02,0.000000e+00
1.051030e+02,0.000000e+00
1.060673e+02,0.000000e+00
1.070315e+02,0.000000e+00
1.079957e+02,0.000000e+00
1.089600e+02,0.000000e+00
1.099242e+02,0.000000e+00
1.108884e+02,0.000000e+00
1.118527e+02,0.000000e+00
1.128169e+02,0.000000e+00
1.137811e+02,0.000000e+00
1.147454e+02,0.000000e+00
1.157096e+02,0.000000e+00
1.166738e+02,0.000000e+00
1.176381e+02,0.000000e+00
1.186023e+02,0.000000e+00
1.195665e+02,0.000000e+00
1.205308e+02,0.000000e+00
1.214950e+02,0.000000e+00
1.224592e+02,0.000000e+00
1.234235e+02,0.000000e+00
1.243877e+02,0.000000e+00
1.253519e+02,0.000000e+00
1.263162e+02,0.000000e+00
1.272804e+02,0.000000e+00
1.282446e+02,0.000000e+00
1.292089e+02,0.000000e+00
1.301731e+02,0.000000e+00
1.311373e+02,0.000000e+00
1.321016e+02,0.000000e+00
1.330658e+02,0.000000e+00
1.340300e+02,0.000000e+00
1.349943e+02,0.000000e+00
1.359585e+02,0.000000e+00
1.369227e+02,0.000000e+00
1.378870e+02,0.000000e+00
1.388512e+02,0.000000e+00
1.398154e+02,0.000000e+00
1.407797e+02,0.000000e+00
1.417439e+02,0.000000e+00
1.427081e+02,0.000000e+00
1.436724e+02,0.000000e+00
1.446366e+02,0.000000e+00
1.456008e+02,0.000000e+00
1.465651e+02,0.000000e+00
1.475293e+02,0.000000e+00
1.484935e+02,0.000000e+00
1.494578e+02,0.000000e+00
1.504220e+02,0.000000e+00
1.513862e+02,0.000000e+00
1.523505e+02,0.000000e+00
1.533147e+02,0.000000e+00
1.542789e+02,0.000000e+00
1.552432e+02,0.000000e+00
1.562074e+02,0.000000e+00
1.571716e+02,0.000000e+00
1.581359e+02,0.000000e+00
1.591001e+02,0.000000e+00
1.600643e+02,0.000000e+00
1.610286e+02,0.000000e+00
1.619928e+02,0.000000e+00
1.629570e+02,0.000000e+00
1.639213e+02,0.000000e+00
1.648855e+02,0.000000e+00
1.658497e+02,0.000000e+00
1.668140e+02,0.000000e+00
1.677782e+02,0.000000e+00
1.687424e+02,0.000000e+00
1.697067e+02,0.000000e+00
1.706709e+02,0.000000e+00
1.716351e+02,0.000000e+00
1.725994e+02,0.000000e+00
1.735636e+02,0.000000e+00
1.745278e+02,0.000000e+00
1.754921e+02,0.000000e+00
1.764563e+02,0.000000e+00
1.774205e+02,0.000000e+00
1.783848e+02,0.000000e+00
1.793490e+02,0.000000e+00
1.803132e+02,0.000000e+00
1.812775e+02,0.000000e+00
1.822417e+02,0.000000e+00
1.832059e+02,0.000000e+00
1.841702e+02,0.000000e+00
1.851344e+02,0.000000e+00
1.860986e+02,0.000000e+00
1.870629e+02,0.000000e+00
1.880271e+02,0.000000e+00
1.889913e+02,0.000000e+00
1.899556e+02,0.000000e+00
1.909198e+02,0.000000e+00
1.918840e+02,0.000000e+00
1.928483e+02,0.000000e+00
1.938125e+02,0.000000e+00
1.947767e+02,0.000000e+00
1.957410e+02,0.000000e+00
1.967052e+02,0.000000e+00
1.976694e+02,0.000000e+00
1.986337e+02,0.000000e+00
1.995979e+02,1.046964e+04
2.005621e+02,1.047981e+04
2.015264e+02,1.049152e+04
2.024906e+02,1.050564e+04
2.034548e+02,1.052034e+04
2.044191e+02,1.053340e+04
2.053833e+02,1.054303e+04
2.063475e+02,1.054905e+04
2.073118e+02,1.055229e+04
2.082760e+02,1.055275e+04
2.092402e+02,1.055023e+04
2.102045e+02,1.054658e+04
2.111687e+02,1.054622e+04
2.121329e+02,1.055114e+04
2.130972e+02,1.056043e+04
2.140614e+02,1.057110e+04
2.150256e+02,1.057994e+04
2.159899e+02,1.058612e+04
2.169541e+02,1.059435e+04
2.179183e+02,1.060919e+04
2.188826e+02,1.062824e+04
2.198468e+02,1.064671e+04
2.208110e+02,1.066058e+04
2.217753e+02,1.066859e+04
2.227395e+02,1.067257e+04
2.237037e+02,1.067718e+04
2.246680e+02,1.068221e+04
2.256322e+02,1.068503e+04
2.265964e+02,1.068749e+04
2.275607e+02,1.069241e+04
2.285249e+02,1.070199e+04
2.294892e+02,1.071674e+04
2.304534e+02,1.073503e+04
2.314176e+02,1.075159e+04
2.323819e+02,1.076485e+04
2.333461e+02,1.077655e+04
2.343103e+02,1.078854e+04
2.352746e+02,1.080180e+04
2.362388e+02,1.081599e+04
2.372030e+02,1.082920e+04
2.381673e+02,1.083688e+04
2.391315e+02,1.083789e+04
2.400957e+02,1.083586e+04
2.410600e+02,1.083374e+04
2.420242e+02,1.083454e+04
2.429884e+02,1.084039e+04
2.439527e+02,1.085114e+04
2.449169e+02,1.086350e+04
2.458811e+02,1.087555e+04
2.468454e+02,1.088743e+04
2.478096e+02,1.089928e+04
2.487738e+02,1.091119e+04
2.497381e+02,1.092293e+04
2.507023e+02,1.093465e+04
2.516665e+02,1.094691e+04
2.526308e+02,1.095972e+04
2.535950e+02,1.096986e+04
2.545592e+02,1.097477e+04
2.555235e+02,1.097477e+04
2.564877e+02,1.097263e+04
2.574519e+02,1.097223e+04
2.584161e+02,1.097703e+04
2.593804e+02,1.098841e+04
2.603446e+02,1.100378e+04
2.613088e+02,1.102010e+04
2.622731e+02,1.103715e+04
2.632373e+02,1.105562e+04
2.642015e+02,1.107264e+04
2.651658e+02,1.108527e+04
2.661300e+02,1.109288e+04
2.670942e+02,1.109793e+04
2.680585e+02,1.110515e+04
2.690227e+02,1.111871e+04
2.699869e+02,1.113241e+04
2.709512e+02,1.114052e+04
2.719154e+02,1.114331e+04
2.728796e+02,1.114520e+04
2.738439e+02,1.115154e+04
2.748081e+02,1.116541e+04
2.757723e+02,1.118599e+04
2.767366e+02,1.120554e+04
2.777008e+02,1.121963e+04
2.786650e+02,1.122956e+04
2.796293e+02,1.123792e+04
2.805935e+02,1.124688e+04
2.815577e+02,1.125743e+04
2.825220e+02,1.126901e+04
2.834862e+02,1.127886e+04
2.844504e+02,1.128402e+04
2.854147e+02,1.128623e+04
2.863789e+02,1.128756e+04
2.873431e+02,1.129060e+04
2.883074e+02,1.129709e+04
2.892716e+02,1.130667e+04
2.902358e+02,1.131700e+04
2.912001e+02,1.132663e+04
2.921643e+02,1.133578e+04
2.931285e+02,1.134644e+04
2.940928e+02,1.135958e+04
2.950570e+02,1.137532e+04
2.960212e+02,1.139113e+04
2.969855e+02,1.140364e+04
2.979497e+02,1.141115e+04
2.989139e+02,1.141448e+04
2.998782e+02,1.141725e+04
3.008424e+02,1.142350e+04
3.018066e+02,1.143413e+04
3.027709e+02,1.144636e+04
3.037351e+02,1.145768e+04
3.046993e+02,1.146692e+04
3.056636e+02,1.147431e+04
3.066278e+02,1.148101e+04
3.075920e+02,1.148884e+04
3.085563e+02,1.149845e+04
3.095205e+02,1.151189e+04
3.104847e+02,1.152890e+04
3.114490e+02,1.154741e+04
3.124132e+02,1.156491e+04
3.133774e+02,1.157925e+04
3.143417e+02,1.158917e+04
3.153059e+02,1.159377e+04
3.162701e+02,1.159601e+04
3.172344e+02,1.159868e+04
3.181986e+02,1.160278e+04
3.191628e+02,1.160888e+04
3.201271e+02,1.161750e+04
3.210913e+02,1.162868e+04
3.220555e+02,1.164175e+04
3.230198e+02,1.165575e+04
3.239840e+02,1.167008e+04
3.249482e+02,1.168424e+04
3.259125e+02,1.169771e+04
3.268767e+02,1.171076e+04
3.278409e+02,1.172364e+04
3.288052e+02,1.173625e+04
3.297694e+02,1.174823e+04
3.307336e+02,1.175929e+04
3.316979e+02,1.176965e+04
3.326621e+02,1.177917e+04
3.336263e+02,1.178546e+04
3.345906e+02,1.178808e+04
3.355548e+02,1.179020e+04
3.365190e+02,1.179593e+04
3.374833e+02,1.180784e+04
3.384475e+02,1.182536e+04
3.394117e+02,1.184477e+04
3.403760e+02,1.186072e+04
3.413402e+02,1.187475e+04
3.423044e+02,1.189110e+04
3.432687e+02,1.191061e+04
3.442329e+02,1.193150e+04
3.451971e+02,1.195065e+04
3.461614e+02,1.196491e+04
3.471256e+02,1.197256e+04
3.480898e+02,1.197636e+04
3.490541e+02,1.197884e+04
3.500183e+02,1.198235e+04
3.509825e+02,1.198931e+04
3.519468e+02,1.200161e+04
3.529110e+02,1.201902e+04
3.538752e+02,1.203903e+04
3.548395e+02,1.205831e+04
3.558037e+02,1.207473e+04
3.567680e+02,1.208796e+04
3.577322e+02,1.209937e+04
3.586964e+02,1.211193e+04
3.596607e+02,1.212734e+04
3.606249e+02,1.214420e+04
3.615891e+02,1.215814e+04
3.625534e+02,1.216518e+04
3.635176e+02,1.216445e+04
3.644818e+02,1.215827e+04
3.654461e+02,1.215143e+04
3.664103e+02,1.215042e+04
3.673745e+02,1.215997e+04
3.683388e+02,1.217766e+04
3.693030e+02,1.219936e+04
3.702672e+02,1.222116e+04
3.712315e+02,1.224066e+04
3.721957e+02,1.225655e+04
3.731599e+02,1.226728e+04
3.741242e+02,1.227460e+04
3.750884e+02,1.228331e+04
3.760526e+02,1.229588e+04
3.770169e+02,1.231209e+04
3.779811e+02,1.232940e+04
3.789453e+02,1.234456e+04
3.799096e+02,1.235504e+04
3.808738e+02,1.236076e+04
3.818380e+02,1.236471e+04
3.828023e+02,1.237077e+04
3.837665e+02,1.238138e+04
3.847307e+02,1.239503e+04
3.856950e+02,1.241141e+04
3.866592e+02,1.242942e+04
3.876234e+02,1.244819e+04
3.885877e+02,1.246715e+04
3.895519e+02,1.248583e+04
3.905161e+02,1.250335e+04
3.914804e+02,1.251785e+04
3.924446e+02,1.252836e+04
3.934088e+02,1.253735e+04
3.943731e+02,1.254654e+04
3.953373e+02,1.255656e+04
3.963015e+02,1.256595e+04
3.972658e+02,1.257221e+04
3.982300e+02,1.257562e+04
3.991942e+02,1.258175e+04
4.001585e+02,1.259571e+04
4.011227e+02,1.261709e+04
4.020869e+02,1.263801e+04
4.030512e+02,1.265208e+04
4.040154e+02,1.266066e+04
4.049796e+02,1.267012e+04
4.059439e+02,1.268439e+04
4.069081e+02,1.270183e+04
4.078723e+02,1.271719e+04
4.088366e+02,1.272684e+04
4.098008e+02,1.273115e+04
4.107650e+02,1.273667e+04
4.117293e+02,1.274472e+04
4.126935e+02,1.275391e+04
4.136577e+02,1.276351e+04
4.146220e+02,1.277363e+04
4.155862e+02,1.278514e+04
4.165504e+02,1.279876e+04
4.175147e+02,1.281375e+04
4.184789e+02,1.282808e+04
4.194431e+02,1.284042e+04
4.204074e+02,1.285257e+04
4.213716e+02,1.286533e+04
4.223358e+02,1.287724e+04
4.233001e+02,1.288676e+04
4.242643e+02,1.289395e+04
4.252285e+02,1.290059e+04
4.261928e+02,1.290905e+04
4.271570e+02,1.292052e+04
4.281212e+02,1.293422e+04
4.290855e+02,1.294774e+04
4.300497e+02,1.296031e+04
4.310139e+02,1.297290e+04
4.319782e+02,1.298699e+04
4.329424e+02,1.300393e+04
4.339066e+02,1.302397e+04
4.348709e+02,1.304558e+04
4.358351e+02,1.306580e+04
4.367993e+02,1.308250e+04
4.377636e+02,1.309523e+04
4.387278e+02,1.310746e+04
4.396920e+02,1.312154e+04
4.406563e+02,1.313692e+04
4.416205e+02,1.315178e+04
4.425847e+02,1.316490e+04
4.435490e+02,1.317664e+04
4.445132e+02,1.318845e+04
4.454774e+02,1.320192e+04
4.464417e+02,1.321787e+04
4.474059e+02,1.323620e+04
4.483701e+02,1.325284e+04
4.493344e+02,1.326524e+04
4.502986e+02,1.327414e+04
4.512628e+02,1.328288e+04
4.522271e+02,1.329400e+04
4.531913e+02,1.330678e+04
4.541555e+02,1.331778e+04
4.551198e+02,1.332378e+04
4.560840e+02,1.332536e+04
4.570482e+02,1.332676e+04
4.580125e+02,1.333318e+04
4.589767e+02,1.334581e+04
4.599409e+02,1.336213e+04
4.609052e+02,1.337773e+04
4.618694e+02,1.338995e+04
4.628336e+02,1.339856e+04
4.637979e+02,1.340457e+04
4.647621e+02,1.340945e+04
4.657263e+02,1.341577e+04
4.666906e+02,1.342731e+04
4.676548e+02,1.344245e+04
4.686190e+02,1.345959e+04
4.695833e+02,1.347626e+04
4.705475e+02,1.349112e+04
4.715117e+02,1.350331e+04
4.724760e+02,1.351270e+04
4.734402e+02,1.352007e+04
4.744044e+02,1.352671e+04
4.753687e+02,1.353410e+04
4.763329e+02,1.354281e+04
4.772971e+02,1.355213e+04
4.782614e+02,1.356131e+04
4.792256e+02,1.357221e+04
4.801898e+02,1.358607e+04
4.811541e+02,1.360236e+04
4.821183e+02,1.361925e+04
4.830826e+02,1.363477e+04
4.840468e+02,1.364771e+04
4.850110e+02,1.365878e+04
4.859753e+02,1.367048e+04
4.869395e+02,1.368210e+04
4.879037e+02,1.369153e+04
4.888680e+02,1.369953e+04
4.898322e+02,1.370779e+04
4.907964e+02,1.371801e+04
4.917607e+02,1.373081e+04
4.927249e+02,1.374528e+04
4.936891e+02,1.376011e+04
4.946534e+02,1.377487e+04
4.956176e+02,1.378946e+04
4.965818e+02,1.380458e+04
4.975461e+02,1.382020e+04
4.985103e+02,1.383496e+04
4.994745e+02,1.384642e+04
5.004388e+02,1.385327e+04
5.014030e+02,1.385635e+04
5.023672e+02,1.385897e+04
5.033315e+02,1.386479e+04
5.042957e+02,1.387435e+04
5.052599e+02,1.388399e+04
5.062242e+02,1.388943e+04
5.071884e+02,1.389094e+04
5.081526e+02,1.389362e+04
5.091169e+02,1.390177e+04
5.100811e+02,1.391389e+04
5.110453e+02,1.392515e+04
5.120095e+02,1.393477e+04
5.129738e+02,1.394534e+04
5.139380e+02,1.395983e+04
5.149022e+02,1.397866e+04
5.158665e+02,1.399864e+04
5.168307e+02,1.401432e+04
5.177949e+02,1.401878e+04
5.187592e+02,1.401324e+04
5.197234e+02,1.400611e+04
5.206876e+02,1.400367e+04
5.216519e+02,1.400965e+04
5.226161e+02,1.402352e+04
5.235803e+02,1.404020e+04
5.245446e+02,1.405543e+04
5.255088e+02,1.406928e+04
5.264730e+02,1.408429e+04
5.274373e+02,1.410163e+04
5.284015e+02,1.411754e+04
5.293657e+02,1.412550e+04
5.303300e+02,1.412588e+04
5.312942e+02,1.412302e+04
5.322584e+02,1.412197e+04
5.332227e+02,1.412560e+04
5.341869e+02,1.413296e+04
5.351511e+02,1.414131e+04
5.361154e+02,1.414876e+04
5.370796e+02,1.415512e+04
5.380438e+02,1.416168e+04
5.390081e+02,1.417050e+04
5.399723e+02,1.418307e+04
5.409365e+02,1.420013e+04
5.419008e+02,1.421884e+04
5.428650e+02,1.423590e+04
5.438292e+02,1.425011e+04
5.447935e+02,1.426149e+04
5.457577e+02,1.427032e+04
5.467219e+02,1.427737e+04
5.476862e+02,1.428333e+04
5.486504e+02,1.428750e+04
5.496146e+02,1.428900e+04
5.505789e+02,1.428684e+04
5.515431e+02,1.428182e+04
5.525073e+02,1.427654e+04
5.534716e+02,1.427754e+04
5.544358e+02,1.428688e+04
5.554000e+02,1.430265e+04
5.563643e+02,1.432018e+04
5.573285e+02,1.433506e+04
5.582927e+02,1.434608e+04
5.592570e+02,1.435616e+04
5.602212e+02,1.436940e+04
5.611854e+02,1.438454e+04
5.621497e+02,1.439771e+04
5.631139e+02,1.440496e+04
5.640781e+02,1.440638e+04
5.650424e+02,1.440605e+04
5.660066e+02,1.440517e+04
5.669708e+02,1.440352e+04
5.679351e+02,1.440203e+04
5.688993e+02,1.440236e+04
5.698635e+02,1.440597e+04
5.708278e+02,1.441442e+04
5.717920e+02,1.442877e+04
5.727562e+02,1.444706e+04
5.737205e+02,1.446703e+04
5.746847e+02,1.448613e+04
5.756489e+02,1.450327e+04
5.766132e+02,1.451686e+04
5.775774e+02,1.452726e+04
5.785416e+02,1.453512e+04
5.795059e+02,1.454171e+04
5.804701e+02,1.454792e+04
5.814343e+02,1.455359e+04
5.823986e+02,1.455829e+04
5.833628e+02,1.456252e+04
5.843270e+02,1.456812e+04
5.852913e+02,1.457644e+04
5.862555e+02,1.458832e+04
5.872197e+02,1.460200e+04
5.881840e+02,1.461572e+04
5.891482e+02,1.462927e+04
5.901124e+02,1.464325e+04
5.910767e+02,1.465786e+04
5.920409e+02,1.467274e+04
5.930051e+02,1.468703e+04
5.939694e+02,1.469935e+04
5.949336e+02,1.470816e+04
5.958978e+02,1.471322e+04
5.968621e+02,1.471511e+04
5.978263e+02,1.471625e+04
5.987905e+02,1.471903e+04
5.997548e+02,1.472276e+04
6.007190e+02,1.472743e+04
6.016832e+02,1.473596e+04
6.026475e+02,1.474913e+04
6.036117e+02,1.476522e+04
6.045759e+02,1.478114e+04
6.055402e+02,1.479394e+04
6.065044e+02,1.480164e+04
6.074686e+02,1.480414e+04
6.084329e+02,1.480400e+04
6.093971e+02,1.480281e+04
6.103613e+02,1.480117e+04
6.113256e+02,1.479959e+04
6.122899e+02,1.479857e+04
6.132541e+02,1.479843e+04
6.142183e+02,1.479833e+04
6.151826e+02,1.479787e+04
6.161468e+02,1.479927e+04
6.171110e+02,1.480506e+04
6.180753e+02,1.481610e+04
6.190395e+02,1.483061e+04
6.200037e+02,1.484453e+04
6.209680e+02,1.485462e+04
6.219322e+02,1.486313e+04
6.228964e+02,1.487450e+04
6.238607e+02,1.488985e+04
6.248249e+02,1.490432e+04
6.257891e+02,1.491219e+04
6.267534e+02,1.491131e+04
6.277176e+02,1.490618e+04
6.286818e+02,1.490214e+04
6.296461e+02,1.490105e+04
6.306103e+02,1.490276e+04
6.315745e+02,1.490820e+04
6.325388e+02,1.491863e+04
6.335030e+02,1.493296e+04
6.344672e+02,1.494905e+04
6.354315e+02,1.496458e+04
6.363957e+02,1.497678e+04
6.373599e+02,1.498393e+04
6.383242e+02,1.498855e+04
6.392884e+02,1.499267e+04
6.402526e+02,1.499711e+04
6.412169e+02,1.500204e+04
6.421811e+02,1.500636e+04
6.431453e+02,1.500872e+04
6.441096e+02,1.500903e+04
6.450738e+02,1.500892e+04
6.460380e+02,1.501161e+04
6.470023e+02,1.502031e+04
6.479665e+02,1.503492e+04
6.489307e+02,1.505329e+04
6.498950e+02,1.507207e+04
6.508592e+02,1.508725e+04
6.518234e+02,1.509699e+04
6.527877e+02,1.510284e+04
6.537519e+02,1.510643e+04
6.547161e+02,1.510748e+04
6.556804e+02,1.510486e+04
6.566446e+02,1.509975e+04
6.576088e+02,1.509536e+04
6.585731e+02,1.509446e+04
6.595373e+02,1.509648e+04
6.605015e+02,1.509805e+04
6.614658e+02,1.509839e+04
6.624300e+02,1.510049e+04
6.633942e+02,1.510734e+04
6.643585e+02,1.511926e+04
6.653227e+02,1.513308e+04
6.662869e+02,1.514652e+04
6.672512e+02,1.515898e+04
6.682154e+02,1.517125e+04
6.691796e+02,1.518144e+04
6.701439e+02,1.518759e+04
6.711081e+02,1.518883e+04
6.720723e+02,1.518572e+04
6.730366e+02,1.518052e+04
6.740008e+02,1.517525e+04
6.749650e+02,1.516938e+04
6.759293e+02,1.516196e+04
6.768935e+02,1.515402e+04
6.778577e+02,1.514802e+04
6.788220e+02,1.514704e+04
6.797862e+02,1.515445e+04
6.807504e+02,1.516739e+04
6.817147e+02,1.518239e+04
6.826789e+02,1.519640e+04
6.836431e+02,1.520608e+04
6.846074e+02,1.520919e+04
6.855716e+02,1.520678e+04
6.865358e+02,1.520188e+04
6.875001e+02,1.519729e+04
6.884643e+02,1.519484e+04
6.894285e+02,1.519513e+04
6.903928e+02,1.519692e+04
6.913570e+02,1.519876e+04
6.923212e+02,1.519975e+04
6.932855e+02,1.520076e+04
6.942497e+02,1.520564e+04
6.952139e+02,1.521645e+04
6.961782e+02,1.523265e+04
6.971424e+02,1.525153e+04
6.981066e+02,1.526940e+04
6.990709e+02,1.527987e+04
7.000351e+02,1.528018e+04
7.009993e+02,1.527333e+04
7.019636e+02,1.526599e+04
7.029278e+02,1.526464e+04
7.038920e+02,1.526940e+04
7.048563e+02,1.527217e+04
7.058205e+02,1.526622e+04
7.067847e+02,1.525439e+04
7.077490e+02,1.524566e+04
7.087132e+02,1.524811e+04
7.096774e+02,1.526092e+04
7.106417e+02,1.527094e+04
7.116059e+02,1.527457e+04
7.125701e+02,1.527581e+04
7.135344e+02,1.527810e+04
7.144986e+02,1.528268e+04
7.154628e+02,1.528784e+04
7.164271e+02,1.529164e+04
7.173913e+02,1.529331e+04
7.183555e+02,1.529253e+04
7.193198e+02,1.528880e+04
7.202840e+02,1.528187e+04
7.212482e+02,1.527303e+04
7.222125e+02,1.526706e+04
7.231767e+02,1.526684e+04
7.241409e+02,1.527056e+04
7.251052e+02,1.527262e+04
7.260694e+02,1.527049e+04
7.270336e+02,1.526713e+04
7.279979e+02,1.526762e+04
7.289621e+02,1.527202e+04
7.299263e+02,1.527675e+04
7.308906e+02,1.527891e+04
7.318548e+02,1.527851e+04
7.328190e+02,1.527825e+04
7.337833e+02,1.527829e+04
7.347475e+02,1.527569e+04
7.357117e+02,1.526930e+04
7.366760e+02,1.526222e+04
7.376402e+02,1.525925e+04
7.386044e+02,1.526215e+04
7.395687e+02,1.526710e+04
7.405329e+02,1.526814e+04
7.414971e+02,1.526360e+04
7.424614e+02,1.525773e+04
7.434256e+02,1.525636e+04
7.443898e+02,1.526421e+04
7.453541e+02,1.527956e+04
7.463183e+02,1.529385e+04
7.472825e+02,1.529960e+04
7.482468e+02,1.529409e+04
7.492110e+02,1.528047e+04
7.501752e+02,1.526551e+04
7.511395e+02,1.525585e+04
7.521037e+02,1.525320e+04
7.530679e+02,1.525431e+04
7.540322e+02,1.525486e+04
7.549964e+02,1.525090e+04
7.559606e+02,1.524391e+04
7.569249e+02,1.523974e+04
7.578891e+02,1.524240e+04
7.588533e+02,1.525382e+04
7.598176e+02,1.526981e+04
7.607818e+02,1.528174e+04
7.617460e+02,1.528184e+04
7.627103e+02,1.526987e+04
7.636745e+02,1.525475e+04
7.646387e+02,1.524558e+04
7.656030e+02,1.524599e+04
7.665672e+02,1.525236e+04
7.675314e+02,1.525678e+04
7.684957e+02,1.525076e+04
7.694599e+02,1.523354e+04
7.704241e+02,1.521191e+04
7.713884e+02,1.519305e+04
7.723526e+02,1.518254e+04
7.733168e+02,1.518383e+04
7.742811e+02,1.519640e+04
7.752453e+02,1.521344e+04
7.762095e+02,1.522938e+04
7.771738e+02,1.524245e+04
7.781380e+02,1.524892e+04
7.791022e+02,1.524479e+04
7.800665e+02,1.523307e+04
7.810307e+02,1.521699e+04
7.819949e+02,1.519989e+04
7.829592e+02,1.518655e+04
7.839234e+02,1.517846e+04
7.848876e+02,1.517437e+04
7.858519e+02,1.517132e+04
7.868161e+02,1.516677e+04
7.877803e+02,1.515950e+04
7.887446e+02,1.515029e+04
7.897088e+02,1.514275e+04
7.906730e+02,1.514235e+04
7.916373e+02,1.515223e+04
7.926015e+02,1.516737e+04
7.935657e+02,1.517511e+04
7.945300e+02,1.516842e+04
7.954942e+02,1.514923e+04
7.964584e+02,1.512699e+04
7.974227e+02,1.511322e+04
7.983869e+02,1.511434e+04
7.993511e+02,1.512025e+04
8.003154e+02,1.512204e+04
8.012796e+02,1.511676e+04
8.022438e+02,1.510734e+04
8.032081e+02,1.510093e+04
8.041723e+02,1.510259e+04
8.051365e+02,1.511129e+04
8.061008e+02,1.512111e+04
8.070650e+02,1.512649e+04
8.080292e+02,1.512501e+04
8.089935e+02,1.511922e+04
8.099577e+02,1.511368e+04
8.109219e+02,1.510991e+04
8.118862e+02,1.510713e+04
8.128504e+02,1.510524e+04
8.138146e+02,1.510410e+04
8.147789e+02,1.510239e+04
8.157431e+02,1.509608e+04
8.167073e+02,1.508447e+04
8.176716e+02,1.507370e+04
8.186358e+02,1.506969e+04
8.196000e+02,1.507412e+04
8.205643e+02,1.508175e+04
8.215285e+02,1.508409e+04
8.224927e+02,1.508079e+04
8.234570e+02,1.507726e+04
8.244212e+02,1.507599e+04
8.253854e+02,1.507502e+04
8.263497e+02,1.507040e+04
8.273139e+02,1.505855e+04
8.282781e+02,1.504107e+04
8.292424e+02,1.502364e+04
8.302066e+02,1.501106e+04
8.311708e+02,1.500484e+04
8.321351e+02,1.500431e+04
8.330993e+02,1.500665e+04
8.340635e+02,1.500798e+04
8.350278e+02,1.500698e+04
8.359920e+02,1.500431e+04
8.369562e+02,1.500045e+04
8.379205e+02,1.499512e+04
8.388847e+02,1.498766e+04
8.398489e+02,1.497962e+04
8.408132e+02,1.497231e+04
8.417774e+02,1.496403e+04
8.427416e+02,1.495380e+04
8.437059e+02,1.494061e+04
8.446701e+02,1.492651e+04
8.456343e+02,1.491493e+04
8.465986e+02,1.490606e+04
8.475628e+02,1.489637e+04
8.485270e+02,1.488333e+04
8.494913e+02,1.486913e+04
8.504555e+02,1.485796e+04
8.514197e+02,1.485256e+04
8.523840e+02,1.485159e+04
8.533482e+02,1.485192e+04
8.543124e+02,1.485149e+04
8.552767e+02,1.484976e+04
8.562409e+02,1.484545e+04
8.572051e+02,1.483683e+04
8.581694e+02,1.482484e+04
8.591336e+02,1.481177e+04
8.600978e+02,1.479960e+04
8.610621e+02,1.479045e+04
8.620263e+02,1.478606e+04
8.629905e+02,1.478422e+04
8.639548e+02,1.477980e+04
8.649190e+02,1.477040e+04
8.658832e+02,1.475915e+04
8.668475e+02,1.475304e+04
8.678117e+02,1.475676e+04
8.687759e+02,1.476681e+04
8.697402e+02,1.477465e+04
8.707044e+02,1.477327e+04
8.716686e+02,1.476069e+04
8.726329e+02,1.474195e+04
8.735971e+02,1.472187e+04
8.745613e+02,1.470286e+04
8.755256e+02,1.468903e+04
8.764898e+02,1.468207e+04
8.774540e+02,1.468101e+04
8.784183e+02,1.468225e+04
8.793825e+02,1.468172e+04
8.803467e+02,1.467744e+04
8.813110e+02,1.467096e+04
8.822752e+02,1.466579e+04
8.832394e+02,1.466477e+04
8.842037e+02,1.466786e+04
8.851679e+02,1.467146e+04
8.861321e+02,1.467148e+04
8.870964e+02,1.466571e+04
8.880606e+02,1.465300e+04
8.890248e+02,1.463441e+04
8.899891e+02,1.461404e+04
8.909533e+02,1.459730e+04
8.919175e+02,1.458591e+04
8.928818e+02,1.458019e+04
8.938460e+02,1.457673e+04
8.948102e+02,1.457230e+04
8.957745e+02,1.456619e+04
8.967387e+02,1.456069e+04
8.977029e+02,1.455250e+04
8.986672e+02,1.453923e+04
8.996314e+02,1.452496e+04
9.005956e+02,1.451730e+04
9.015599e+02,1.451989e+04
9.025241e+02,1.452712e+04
9.034883e+02,1.452976e+04
9.044526e+02,1.452144e+04
9.054168e+02,1.450319e+04
9.063810e+02,1.448216e+04
9.073453e+02,1.446693e+04
9.083095e+02,1.445947e+04
9.092737e+02,1.445627e+04
9.102380e+02,1.445255e+04
9.112022e+02,1.444510e+04
9.121664e+02,1.443397e+04
9.131307e+02,1.442254e+04
9.140949e+02,1.441661e+04
9.150591e+02,1.441934e+04
9.160234e+02,1.442657e+04
9.169876e+02,1.442994e+04
9.179518e+02,1.442280e+04
9.189161e+02,1.440419e+04
9.198803e+02,1.437926e+04
9.208445e+02,1.435686e+04
9.218088e+02,1.434154e+04
9.227730e+02,1.433191e+04
9.237372e+02,1.432475e+04
9.247015e+02,1.432007e+04
9.256657e+02,1.431909e+04
9.266299e+02,1.432090e+04
9.275942e+02,1.432269e+04
9.285584e+02,1.432151e+04
9.295226e+02,1.431743e+04
9.304869e+02,1.431238e+04
9.314511e+02,1.430841e+04
9.324153e+02,1.430501e+04
9.333796e+02,1.430106e+04
9.343438e+02,1.429789e+04
9.353080e+02,1.429450e+04
9.362723e+02,1.428538e+04
9.372365e+02,1.426897e+04
9.382007e+02,1.425009e+04
9.391650e+02,1.423593e+04
9.401292e+02,1.422962e+04
9.410934e+02,1.422755e+04
9.420577e+02,1.422252e+04
9.430219e+02,1.421133e+04
9.439861e+02,1.419716e+04
9.449504e+02,1.418632e+04
9.459146e+02,1.418399e+04
9.468788e+02,1.418974e+04
9.478431e+02,1.419474e+04
9.488073e+02,1.418936e+04
9.497715e+02,1.417138e+04
9.507358e+02,1.414663e+04
9.517000e+02,1.412447e+04
9.526642e+02,1.410908e+04
9.536285e+02,1.409520e+04
9.545927e+02,1.407620e+04
9.555569e+02,1.405368e+04
9.565212e+02,1.403403e+04
9.574854e+02,1.402200e+04
9.584496e+02,1.401745e+04
9.594139e+02,1.401509e+04
9.603781e+02,1.401045e+04
9.613423e+02,1.400254e+04
9.623066e+02,1.399183e+04
9.632708e+02,1.397930e+04
9.642350e+02,1.396746e+04
9.651993e+02,1.395879e+04
9.661635e+02,1.395200e+04
9.671277e+02,1.394430e+04
9.680920e+02,1.393317e+04
9.690562e+02,1.391784e+04
9.700204e+02,1.389770e+04
9.709847e+02,1.387590e+04
9.719489e+02,1.385578e+04
9.729131e+02,1.383936e+04
9.738774e+02,1.382912e+04
9.748416e+02,1.382681e+04
9.758058e+02,1.383007e+04
9.767701e+02,1.383404e+04
9.777343e+02,1.383521e+04
9.786985e+02,1.383164e+04
9.796628e+02,1.382323e+04
9.806270e+02,1.381314e+04
9.815912e+02,1.379938e+04
9.825555e+02,1.377941e+04
9.835197e+02,1.375511e+04
9.844839e+02,1.373304e+04
9.854482e+02,1.371758e+04
9.864124e+02,1.370741e+04
9.873766e+02,1.369705e+04
9.883409e+02,1.368608e+04
9.893051e+02,1.367814e+04
9.902693e+02,1.367584e+04
9.912336e+02,1.367865e+04
9.921978e+02,1.368226e+04
9.931620e+02,1.368204e+04
9.941263e+02,1.367717e+04
9.950905e+02,1.366892e+04
9.960547e+02,1.365794e+04
9.970190e+02,1.364452e+04
9.979832e+02,1.362702e+04
9.989474e+02,1.360420e+04
9.999117e+02,1.357852e+04
1.000876e+03,1.355446e+04
1.001840e+03,1.353603e+04
1.002804e+03,1.352586e+04
1.003769e+03,1.352240e+04
1.004733e+03,1.352163e+04
1.005697e+03,1.352145e+04
1.006661e+03,1.352168e+04
1.007626e+03,1.352325e+04
1.008590e+03,1.352654e+04
1.009554e+03,1.352874e+04
1.010518e+03,1.352471e+04
1.011482e+03,1.351182e+04
1.012447e+03,1.349048e+04
1.013411e+03,1.346525e+04
1.014375e+03,1.344237e+04
1.015339e+03,1.342581e+04
1.016304e+03,1.341451e+04
1.017268e+03,1.340663e+04
1.018232e+03,1.339959e+04
1.019196e+03,1.339172e+04
1.020161e+03,1.338303e+04
1.021125e+03,1.337592e+04
1.022089e+03,1.337375e+04
1.023053e+03,1.337622e+04
1.024018e+03,1.337980e+04
1.024982e+03,1.338008e+04
1.025946e+03,1.337380e+04
1.026910e+03,1.335846e+04
1.027875e+03,1.333784e+04
1.028839e+03,1.331705e+04
1.029803e+03,1.329977e+04
1.030767e+03,1.328700e+04
1.031731e+03,1.327746e+04
1.032696e+03,1.326776e+04
1.033660e+03,1.325654e+04
1.034624e+03,1.324562e+04
1.035588e+03,1.323795e+04
1.036552e+03,1.323509e+04
1.037517e+03,1.323569e+04
1.038481e+03,1.323512e+04
1.039445e+03,1.323010e+04
1.040409e+03,1.321993e+04
1.041374e+03,1.320767e+04
1.042338e+03,1.319751e+04
1.043302e+03,1.318915e+04
1.044266e+03,1.317886e+04
1.045231e+03,1.316458e+04
1.046195e+03,1.314841e+04
1.047159e+03,1.313289e+04
1.048123e+03,1.311863e+04
1.049088e+03,1.310517e+04
1.050052e+03,1.309618e+04
1.051016e+03,1.309315e+04
1.051980e+03,1.309514e+04
1.052945e+03,1.310096e+04
1.053909e+03,1.310733e+04
1.054873e+03,1.310765e+04
1.055837e+03,1.310048e+04
1.056802e+03,1.308790e+04
1.057766e+03,1.307455e+04
1.058730e+03,1.306401e+04
1.059694e+03,1.305507e+04
1.060658e+03,1.304369e+04
1.061623e+03,1.303081e+04
1.062587e+03,1.302000e+04
1.063551e+03,1.301333e+04
1.064515e+03,1.300896e+04
1.065479e+03,1.300263e+04
1.066444e+03,1.299641e+04
1.067408e+03,1.299428e+04
1.068372e+03,1.299774e+04
1.069336e+03,1.300415e+04
1.070301e+03,1.300772e+04
1.071265e+03,1.300558e+04
1.072229e+03,1.300034e+04
1.073193e+03,1.299277e+04
1.074158e+03,1.298119e+04
1.075122e+03,1.296534e+04
1.076086e+03,1.294577e+04
1.077050e+03,1.292508e+04
1.078015e+03,1.290890e+04
1.078979e+03,1.290034e+04
1.079943e+03,1.289903e+04
1.080907e+03,1.290201e+04
1.081872e+03,1.290441e+04
1.082836e+03,1.290236e+04
1.083800e+03,1.289690e+04
1.084764e+03,1.289094e+04
1.085729e+03,1.288571e+04
1.086693e+03,1.288069e+04
1.087657e+03,1.287397e+04
1.088621e+03,1.286404e+04
1.089585e+03,1.284816e+04
1.090550e+03,1.282595e+04
1.091514e+03,1.280080e+04
1.092478e+03,1.277777e+04
1.093442e+03,1.275942e+04
1.094406e+03,1.274735e+04
1.095371e+03,1.274029e+04
1.096335e+03,1.273574e+04
1.097299e+03,1.273295e+04
1.098263e+03,1.273241e+04
1.099228e+03,1.273254e+04
1.100192e+03,1.273119e+04
1.101156e+03,1.272673e+04
1.102120e+03,1.271967e+04
1.103085e+03,1.271147e+04
1.104049e+03,1.270214e+04
1.105013e+03,1.269134e+04
1.105977e+03,1.267960e+04
1.106942e+03,1.266797e+04
1.107906e+03,1.265762e+04
1.108870e+03,1.264821e+04
1.109834e+03,1.263882e+04
1.110799e+03,1.262938e+04
1.111763e+03,1.262101e+04
1.112727e+03,1.261493e+04
1.113691e+03,1.261279e+04
1.114656e+03,1.261395e+04
1.115620e+03,1.261799e+04
1.116584e+03,1.262312e+04
1.117548e+03,1.262586e+04
1.118512e+03,1.262314e+04
1.119477e+03,1.261465e+04
1.120441e+03,1.260149e+04
1.121405e+03,1.258696e+04
1.122369e+03,1.257191e+04
1.123334e+03,1.255537e+04
1.124298e+03,1.253762e+04
1.125262e+03,1.252245e+04
1.126226e+03,1.251300e+04
1.127191e+03,1.251054e+04
1.128155e+03,1.251135e+04
1.129119e+03,1.251258e+04
1.130083e+03,1.251493e+04
1.131047e+03,1.251886e+04
1.132012e+03,1.252052e+04
1.132976e+03,1.251656e+04
1.133940e+03,1.250538e+04
1.134904e+03,1.249040e+04
1.135869e+03,1.247542e+04
1.136833e+03,1.246081e+04
1.137797e+03,1.244569e+04
1.138761e+03,1.243278e+04
1.139726e+03,1.242496e+04
1.140690e+03,1.242165e+04
1.141654e+03,1.241935e+04
1.142618e+03,1.241501e+04
1.143583e+03,1.240975e+04
1.144547e+03,1.240605e+04
1.145511e+03,1.240400e+04
1.146475e+03,1.240131e+04
1.147439e+03,1.239617e+04
1.148404e+03,1.239220e+04
1.149368e+03,1.239221e+04
1.150332e+03,1.239522e+04
1.151296e+03,1.239692e+04
1.152261e+03,1.239153e+04
1.153225e+03,1.237575e+04
1.154189e+03,1.235424e+04
1.155153e+03,1.233257e+04
1.156118e+03,1.231467e+04
1.157082e+03,1.230447e+04
1.158046e+03,1.230259e+04
1.159010e+03,1.230535e+04
1.159974e+03,1.231113e+04
1.160939e+03,1.231853e+04
1.161903e+03,1.232450e+04
1.162867e+03,1.232622e+04
1.163831e+03,1.232244e+04
1.164796e+03,1.231307e+04
1.165760e+03,1.230042e+04
1.166724e+03,1.228697e+04
1.167688e+03,1.227430e+04
1.168653e+03,1.226258e+04
1.169617e+03,1.225057e+04
1.170581e+03,1.223851e+04
1.171545e+03,1.222835e+04
1.172510e+03,1.222180e+04
1.173474e+03,1.221939e+04
1.174438e+03,1.221942e+04
1.175402e+03,1.221976e+04
1.176366e+03,1.221955e+04
1.177331e+03,1.221896e+04
1.178295e+03,1.221964e+04
1.179259e+03,1.222240e+04
1.180223e+03,1.222434e+04
1.181188e+03,1.222203e+04
1.182152e+03,1.221424e+04
1.183116e+03,1.220226e+04
1.184080e+03,1.218908e+04
1.185045e+03,1.217689e+04
1.186009e+03,1.216541e+04
1.186973e+03,1.215668e+04
1.187937e+03,1.215299e+04
1.188901e+03,1.215480e+04
1.189866e+03,1.215900e+04
1.190830e+03,1.216130e+04
1.191794e+03,1.215878e+04
1.192758e+03,1.215399e+04
1.193723e+03,1.215114e+04
1.194687e+03,1.215199e+04
1.195651e+03,1.215549e+04
1.196615e+03,1.216027e+04
1.197580e+03,1.216367e+04
1.198544e+03,1.215996e+04
1.199508e+03,1.214604e+04
1.200472e+03,1.212476e+04
1.201437e+03,1.210229e+04
1.202401e+03,1.208463e+04
1.203365e+03,1.207488e+04
1.204329e+03,1.207045e+04
1.205293e+03,1.206965e+04
1.206258e+03,1.207408e+04
1.207222e+03,1.208390e+04
1.208186e+03,1.209622e+04
1.209150e+03,1.210635e+04
1.210115e+03,1.211086e+04
1.211079e+03,1.211098e+04
1.212043e+03,1.210827e+04
1.213007e+03,1.210106e+04
1.213972e+03,1.208985e+04
1.214936e+03,1.207852e+04
1.215900e+03,1.207097e+04
1.216864e+03,1.206756e+04
1.217828e+03,1.206533e+04
1.218793e+03,1.206245e+04
1.219757e+03,1.206084e+04
1.220721e+03,1.206292e+04
1.221685e+03,1.206958e+04
1.222650e+03,1.207873e+04
1.223614e+03,1.208614e+04
1.224578e+03,1.208925e+04
1.225542e+03,1.208930e+04
1.226507e+03,1.208992e+04
1.227471e+03,1.209407e+04
1.228435e+03,1.209763e+04
1.229399e+03,1.209398e+04
1.230364e+03,1.208161e+04
1.231328e+03,1.206591e+04
1.232292e+03,1.205400e+04
1.233256e+03,1.204761e+04
1.234220e+03,1.204151e+04
1.235185e+03,1.203624e+04
1.236149e+03,1.203647e+04
1.237113e+03,1.204526e+04
1.238077e+03,1.206109e+04
1.239042e+03,1.207756e+04
1.240006e+03,1.208922e+04
1.240970e+03,1.209601e+04
1.241934e+03,1.209733e+04
1.242899e+03,1.209364e+04
1.243863e+03,1.208701e+04
1.244827e+03,1.207964e+04
1.245791e+03,1.207265e+04
1.246755e+03,1.206604e+04
1.247720e+03,1.205952e+04
1.248684e+03,1.205383e+04
1.249648e+03,1.205246e+04
1.250612e+03,1.205655e+04
1.251577e+03,1.206325e+04
1.252541e+03,1.206874e+04
1.253505e+03,1.207197e+04
1.254469e+03,1.207512e+04
1.255434e+03,1.208109e+04
1.256398e+03,1.208948e+04
1.257362e+03,1.209666e+04
1.258326e+03,1.210036e+04
1.259291e+03,1.210071e+04
1.260255e+03,1.209609e+04
1.261219e+03,1.208576e+04
1.262183e+03,1.207357e+04
1.263147e+03,1.206519e+04
1.264112e+03,1.206358e+04
1.265076e+03,1.206637e+04
1.266040e+03,1.206795e+04
1.267004e+03,1.206713e+04
1.267969e+03,1.206765e+04
1.268933e+03,1.207416e+04
1.269897e+03,1.208969e+04
1.270861e+03,1.211051e+04
1.271826e+03,1.212658e+04
1.272790e+03,1.213244e+04
1.273754e+03,1.212878e+04
1.274718e+03,1.212200e+04
1.275682e+03,1.211832e+04
1.276647e+03,1.211686e+04
1.277611e+03,1.211267e+04
1.278575e+03,1.210388e+04
1.279539e+03,1.209201e+04
1.280504e+03,1.208246e+04
1.281468e+03,1.208050e+04
1.282432e+03,1.208648e+04
1.283396e+03,1.209816e+04
1.284361e+03,1.211078e+04
1.285325e+03,1.212164e+04
1.286289e+03,1.213122e+04
1.287253e+03,1.213897e+04
1.288218e+03,1.214276e+04
1.289182e+03,1.214228e+04
1.290146e+03,1.213952e+04
1.291110e+03,1.213736e+04
1.292074e+03,1.213719e+04
1.293039e+03,1.213763e+04
1.294003e+03,1.213659e+04
1.294967e+03,1.213297e+04
1.295931e+03,1.212777e+04
1.296896e+03,1.212598e+04
1.297860e+03,1.213077e+04
1.298824e+03,1.214152e+04
1.299788e+03,1.215301e+04
1.300753e+03,1.216289e+04
1.301717e+03,1.217306e+04
1.302681e+03,1.218566e+04
1.303645e+03,1.219906e+04
1.304609e+03,1.220968e+04
1.305574e+03,1.221313e+04
1.306538e+03,1.220819e+04
1.307502e+03,1.219931e+04
1.308466e+03,1.219353e+04
1.309431e+03,1.219440e+04
1.310395e+03,1.220083e+04
1.311359e+03,1.220751e+04
1.312323e+03,1.220981e+04
1.313288e+03,1.220867e+04
1.314252e+03,1.221000e+04
1.315216e+03,1.221711e+04
1.316180e+03,1.222983e+04
1.317145e+03,1.224658e+04
1.318109e+03,1.226287e+04
1.319073e+03,1.227336e+04
1.320037e+03,1.227777e+04
1.321001e+03,1.227634e+04
1.321966e+03,1.226999e+04
1.322930e+03,1.226070e+04
1.323894e+03,1.225404e+04
1.324858e+03,1.225254e+04
1.325823e+03,1.225626e+04
1.326787e+03,1.226360e+04
1.327751e+03,1.227167e+04
1.328715e+03,1.227983e+04
1.329680e+03,1.228990e+04
1.330644e+03,1.230208e+04
1.331608e+03,1.231475e+04
1.332572e+03,1.232678e+04
1.333536e+03,1.233858e+04
1.334501e+03,1.234862e+04
1.335465e+03,1.235362e+04
1.336429e+03,1.235397e+04
1.337393e+03,1.235368e+04
1.338358e+03,1.235666e+04
1.339322e+03,1.236213e+04
1.340286e+03,1.236559e+04
1.341250e+03,1.236473e+04
1.342215e+03,1.236083e+04
1.343179e+03,1.235840e+04
1.344143e+03,1.236319e+04
1.345107e+03,1.237413e+04
1.346072e+03,1.238830e+04
1.347036e+03,1.240102e+04
1.348000e+03,1.240926e+04
1.348964e+03,1.241407e+04
1.349928e+03,1.241894e+04
1.350893e+03,1.242690e+04
1.351857e+03,1.243669e+04
1.352821e+03,1.244547e+04
1.353785e+03,1.245105e+04
1.354750e+03,1.245151e+04
1.355714e+03,1.244750e+04
1.356678e+03,1.244352e+04
1.357642e+03,1.244433e+04
1.358607e+03,1.245100e+04
1.359571e+03,1.245997e+04
1.360535e+03,1.246664e+04
1.361499e+03,1.247094e+04
1.362464e+03,1.247704e+04
1.363428e+03,1.248835e+04
1.364392e+03,1.250516e+04
1.365356e+03,1.252285e+04
1.366320e+03,1.253539e+04
1.367285e+03,1.254206e+04
1.368249e+03,1.254573e+04
1.369213e+03,1.255059e+04
1.370177e+03,1.255814e+04
1.371142e+03,1.256569e+04
1.372106e+03,1.257047e+04
1.373070e+03,1.257279e+04
1.374034e+03,1.257515e+04
1.374999e+03,1.258062e+04
1.375963e+03,1.258918e+04
1.376927e+03,1.259968e+04
1.377891e+03,1.261267e+04
1.378855e+03,1.262827e+04
1.379820e+03,1.264369e+04
1.380784e+03,1.265576e+04
1.381748e+03,1.266767e+04
1.382712e+03,1.268462e+04
1.383677e+03,1.270505e+04
1.384641e+03,1.272096e+04
1.385605e+03,1.272639e+04
1.386569e+03,1.272591e+04
1.387534e+03,1.272866e+04
1.388498e+03,1.273648e+04
1.389462e+03,1.274506e+04
1.390426e+03,1.275080e+04
1.391391e+03,1.275555e+04
1.392355e+03,1.276392e+04
1.393319e+03,1.277733e+04
1.394283e+03,1.279371e+04
1.395247e+03,1.281108e+04
1.396212e+03,1.282924e+04
1.397176e+03,1.284856e+04
1.398140e+03,1.286587e+04
1.399104e+03,1.288076e+04
1.400069e+03,1.288592e+04
1.401033e+03,1.287162e+04
1.401997e+03,1.284537e+04
1.402961e+03,1.282813e+04
1.403926e+03,1.282421e+04
1.404890e+03,1.281819e+04
1.405854e+03,1.281056e+04
1.406818e+03,1.280578e+04
1.407782e+03,1.280788e+04
1.408747e+03,1.281860e+04
1.409711e+03,1.283186e+04
1.410675e+03,1.284094e+04
1.411639e+03,1.284917e+04
1.412604e+03,1.286034e+04
1.413568e+03,1.286451e+04
1.414532e+03,1.285175e+04
1.415496e+03,1.283774e+04
1.416461e+03,1.282870e+04
1.417425e+03,1.282192e+04
1.418389e+03,1.281835e+04
1.419353e+03,1.282654e+04
1.420318e+03,1.282708e+04
1.421282e+03,1.282482e+04
1.422246e+03,1.281557e+04
1.423210e+03,1.278808e+04
1.424174e+03,1.274975e+04
1.425139e+03,1.274441e+04
1.426103e+03,1.276441e+04
1.427067e+03,1.277344e+04
1.428031e+03,1.275857e+04
1.428996e+03,1.274257e+04
1.429960e+03,1.274796e+04
1.430924e+03,1.275807e+04
1.431888e+03,1.275875e+04
1.432853e+03,1.274975e+04
1.433817e+03,1.273371e+04
1.434781e+03,1.270656e+04
1.435745e+03,1.268512e+04
1.436709e+03,1.266583e+04
1.437674e+03,1.264817e+04
1.438638e+03,1.263738e+04
1.439602e+03,1.263635e+04
1.440566e+03,1.263677e+04
1.441531e+03,1.263728e+04
1.442495e+03,1.263834e+04
1.443459e+03,1.263796e+04
1.444423e+03,1.263781e+04
1.445388e+03,1.264307e+04
1.446352e+03,1.264245e+04
1.447316e+03,1.262534e+04
1.448280e+03,1.259865e+04
1.449245e+03,1.257710e+04
1.450209e+03,1.256225e+04
1.451173e+03,1.255476e+04
1.452137e+03,1.254878e+04
1.453101e+03,1.254381e+04
1.454066e+03,1.254634e+04
1.455030e+03,1.255499e+04
1.455994e+03,1.255237e+04
1.456958e+03,1.253987e+04
1.457923e+03,1.252777e+04
1.458887e+03,1.251552e+04
1.459851e+03,1.250707e+04
1.460815e+03,1.251363e+04
1.461780e+03,1.251619e+04
1.462744e+03,1.250083e+04
1.463708e+03,1.247227e+04
1.464672e+03,1.245073e+04
1.465636e+03,1.244508e+04
1.466601e+03,1.244406e+04
1.467565e+03,1.244777e+04
1.468529e+03,1.245162e+04
1.469493e+03,1.244710e+04
1.470458e+03,1.243359e+04
1.471422e+03,1.241901e+04
1.472386e+03,1.240726e+04
1.473350e+03,1.240597e+04
1.474315e+03,1.241858e+04
1.475279e+03,1.242591e+04
1.476243e+03,1.240967e+04
1.477207e+03,1.238524e+04
1.478172e+03,1.236897e+04
1.479136e+03,1.236029e+04
1.480100e+03,1.234766e+04
1.481064e+03,1.233128e+04
1.482028e+03,1.231432e+04
1.482993e+03,1.229769e+04
1.483957e+03,1.228937e+04
1.484921e+03,1.229729e+04
1.485885e+03,1.231342e+04
1.486850e+03,1.232519e+04
1.487814e+03,1.232825e+04
1.488778e+03,1.231950e+04
1.489742e+03,1.229661e+04
1.490707e+03,1.227369e+04
1.491671e+03,1.226160e+04
1.492635e+03,1.225772e+04
1.493599e+03,1.225694e+04
1.494563e+03,1.225555e+04
1.495528e+03,1.225089e+04
1.496492e+03,1.224123e+04
1.497456e+03,1.223653e+04
1.498420e+03,1.224150e+04
1.499385e+03,1.224085e+04
1.500349e+03,1.221384e+04
1.501313e+03,1.218525e+04
1.502277e+03,1.217055e+04
1.503242e+03,1.216756e+04
1.504206e+03,1.217571e+04
1.505170e+03,1.219870e+04
1.506134e+03,1.220930e+04
1.507099e+03,1.220702e+04
1.508063e+03,1.219633e+04
1.509027e+03,1.217714e+04
1.509991e+03,1.215428e+04
1.510955e+03,1.213668e+04
1.511920e+03,1.212216e+04
1.512884e+03,1.210940e+04
1.513848e+03,1.210206e+04
1.514812e+03,1.209627e+04
1.515777e+03,1.206835e+04
1.516741e+03,1.205128e+04
1.517705e+03,1.206528e+04
1.518669e+03,1.208566e+04
1.519634e+03,1.209655e+04
1.520598e+03,1.209626e+04
1.521562e+03,1.209214e+04
1.522526e+03,1.208115e+04
1.523490e+03,1.206843e+04
1.524455e+03,1.205735e+04
1.525419e+03,1.204463e+04
1.526383e+03,1.202620e+04
1.527347e+03,1.200749e+04
1.528312e+03,1.199928e+04
1.529276e+03,1.200364e+04
1.530240e+03,1.200759e+04
1.531204e+03,1.200406e+04
1.532169e+03,1.200589e+04
1.533133e+03,1.201697e+04
1.534097e+03,1.202029e+04
1.535061e+03,1.199654e+04
1.536026e+03,1.195942e+04
1.536990e+03,1.193385e+04
1.537954e+03,1.192069e+04
1.538918e+03,1.192443e+04
1.539882e+03,1.194865e+04
1.540847e+03,1.195910e+04
1.541811e+03,1.193165e+04
1.542775e+03,1.190008e+04
1.543739e+03,1.187548e+04
1.544704e+03,1.186016e+04
1.545668e+03,1.185979e+04
1.546632e+03,1.187137e+04
1.547596e+03,1.187196e+04
1.548561e+03,1.186269e+04
1.549525e+03,1.186052e+04
1.550489e+03,1.187842e+04
1.551453e+03,1.189181e+04
1.552417e+03,1.188943e+04
1.553382e+03,1.187620e+04
1.554346e+03,1.185784e+04
1.555310e+03,1.183753e+04
1.556274e+03,1.182184e+04
1.557239e+03,1.180988e+04
1.558203e+03,1.181087e+04
1.559167e+03,1.182830e+04
1.560131e+03,1.184256e+04
1.561096e+03,1.183515e+04
1.562060e+03,1.182137e+04
1.563024e+03,1.181081e+04
1.563988e+03,1.180298e+04
1.564953e+03,1.179403e+04
1.565917e+03,1.178046e+04
1.566881e+03,1.177592e+04
1.567845e+03,1.177929e+04
1.568809e+03,1.177955e+04
1.569774e+03,1.177146e+04
1.570738e+03,1.176017e+04
1.571702e+03,1.175564e+04
1.572666e+03,1.174920e+04
1.573631e+03,1.172678e+04
1.574595e+03,1.169098e+04
1.575559e+03,1.166789e+04
1.576523e+03,1.166215e+04
1.577488e+03,1.166742e+04
1.578452e+03,1.167906e+04
1.579416e+03,1.168749e+04
1.580380e+03,1.168526e+04
1.581344e+03,1.167666e+04
1.582309e+03,1.167049e+04
1.583273e+03,1.166671e+04
1.584237e+03,1.166093e+04
1.585201e+03,1.165187e+04
1.586166e+03,1.164208e+04
1.587130e+03,1.162865e+04
1.588094e+03,1.161257e+04
1.589058e+03,1.159764e+04
1.590023e+03,1.158361e+04
1.590987e+03,1.156012e+04
1.591951e+03,1.153920e+04
1.592915e+03,1.154354e+04
1.593880e+03,1.156724e+04
1.594844e+03,1.158685e+04
1.595808e+03,1.160172e+04
1.596772e+03,1.160101e+04
1.597736e+03,1.158254e+04
1.598701e+03,1.155869e+04
1.599665e+03,1.153312e+04
1.600629e+03,1.151003e+04
1.601593e+03,1.151371e+04
1.602558e+03,1.153494e+04
1.603522e+03,1.154533e+04
1.604486e+03,1.153493e+04
1.605450e+03,1.151887e+04
1.606415e+03,1.150111e+04
1.607379e+03,1.149149e+04
1.608343e+03,1.149420e+04
1.609307e+03,1.150093e+04
1.610271e+03,1.149858e+04
1.611236e+03,1.148735e+04
1.612200e+03,1.147148e+04
1.613164e+03,1.145674e+04
1.614128e+03,1.145462e+04
1.615093e+03,1.148608e+04
1.616057e+03,1.150421e+04
1.617021e+03,1.147727e+04
1.617985e+03,1.144222e+04
1.618950e+03,1.142567e+04
1.619914e+03,1.142159e+04
1.620878e+03,1.140129e+04
1.621842e+03,1.137138e+04
1.622807e+03,1.135076e+04
1.623771e+03,1.134544e+04
1.624735e+03,1.135233e+04
1.625699e+03,1.137806e+04
1.626663e+03,1.139517e+04
1.627628e+03,1.138899e+04
1.628592e+03,1.136771e+04
1.629556e+03,1.134742e+04
1.630520e+03,1.133397e+04
1.631485e+03,1.133119e+04
1.632449e+03,1.133533e+04
1.633413e+03,1.133499e+04
1.634377e+03,1.132474e+04
1.635342e+03,1.131600e+04
1.636306e+03,1.132067e+04
1.637270e+03,1.132010e+04
1.638234e+03,1.130245e+04
1.639198e+03,1.127763e+04
1.640163e+03,1.126155e+04
1.641127e+03,1.125608e+04
1.642091e+03,1.126053e+04
1.643055e+03,1.126994e+04
1.644020e+03,1.127714e+04
1.644984e+03,1.127936e+04
1.645948e+03,1.127035e+04
1.646912e+03,1.124931e+04
1.647877e+03,1.122494e+04
1.648841e+03,1.120531e+04
1.649805e+03,1.118976e+04
1.650769e+03,1.116796e+04
1.651734e+03,1.114532e+04
1.652698e+03,1.114073e+04
1.653662e+03,1.115787e+04
1.654626e+03,1.117280e+04
1.655590e+03,1.118354e+04
1.656555e+03,1.118481e+04
1.657519e+03,1.117756e+04
1.658483e+03,1.117074e+04
1.659447e+03,1.117621e+04
1.660412e+03,1.117755e+04
1.661376e+03,1.114144e+04
1.662340e+03,1.108469e+04
1.663304e+03,1.105333e+04
1.664269e+03,1.108200e+04
1.665233e+03,1.108527e+04
1.666197e+03,1.105075e+04
1.667161e+03,1.101798e+04
1.668125e+03,1.101190e+04
1.669090e+03,1.101982e+04
1.670054e+03,1.102944e+04
1.671018e+03,1.103747e+04
1.671982e+03,1.104125e+04
1.672947e+03,1.104116e+04
1.673911e+03,1.104172e+04
1.674875e+03,1.103865e+04
1.675839e+03,1.102637e+04
1.676804e+03,1.100867e+04
1.677768e+03,1.099811e+04
1.678732e+03,1.100547e+04
1.679696e+03,1.101467e+04
1.680661e+03,1.101250e+04
1.681625e+03,1.099673e+04
1.682589e+03,1.097024e+04
1.683553e+03,1.093686e+04
1.684517e+03,1.092237e+04
1.685482e+03,1.092482e+04
1.686446e+03,1.093414e+04
1.687410e+03,1.094915e+04
1.688374e+03,1.095682e+04
1.689339e+03,1.093622e+04
1.690303e+03,1.091587e+04
1.691267e+03,1.091708e+04
1.692231e+03,1.092783e+04
1.693196e+03,1.092271e+04
1.694160e+03,1.090095e+04
1.695124e+03,1.087671e+04
1.696088e+03,1.085546e+04
1.697052e+03,1.085149e+04
1.698017e+03,1.087638e+04
1.698981e+03,1.089362e+04
1.699945e+03,1.088954e+04
1.700909e+03,1.087282e+04
1.701874e+03,1.085380e+04
1.702838e+03,1.083997e+04
1.703802e+03,1.083555e+04
1.704766e+03,1.083180e+04
1.705731e+03,1.082240e+04
1.706695e+03,1.080929e+04
1.707659e+03,1.080052e+04
1.708623e+03,1.080320e+04
1.709588e+03,1.080714e+04
1.710552e+03,1.080528e+04
1.711516e+03,1.080004e+04
1.712480e+03,1.080043e+04
1.713444e+03,1.079661e+04
1.714409e+03,1.077773e+04
1.715373e+03,1.075407e+04
1.716337e+03,1.073572e+04
1.717301e+03,1.072592e+04
1.718266e+03,1.072623e+04
1.719230e+03,1.073380e+04
1.720194e+03,1.073841e+04
1.721158e+03,1.073615e+04
1.722123e+03,1.072545e+04
1.723087e+03,1.069525e+04
1.724051e+03,1.066872e+04
1.725015e+03,1.065906e+04
1.725979e+03,1.066233e+04
1.726944e+03,1.067386e+04
1.727908e+03,1.068918e+04
1.728872e+03,1.068733e+04
1.729836e+03,1.066839e+04
1.730801e+03,1.064778e+04
1.731765e+03,1.062748e+04
1.732729e+03,1.062242e+04
1.733693e+03,1.064040e+04
1.734658e+03,1.065437e+04
1.735622e+03,1.064952e+04
1.736586e+03,1.063771e+04
1.737550e+03,1.063991e+04
1.738515e+03,1.064389e+04
1.739479e+03,1.063241e+04
1.740443e+03,1.060797e+04
1.741407e+03,1.059433e+04
1.742371e+03,1.059290e+04
1.743336e+03,1.059433e+04
1.744300e+03,1.059692e+04
1.745264e+03,1.059285e+04
1.746228e+03,1.058203e+04
1.747193e+03,1.056884e+04
1.748157e+03,1.055900e+04
1.749121e+03,1.055304e+04
1.750085e+03,1.053714e+04
1.751050e+03,1.050983e+04
1.752014e+03,1.049879e+04
1.752978e+03,1.050187e+04
1.753942e+03,1.051032e+04
1.754906e+03,1.052059e+04
1.755871e+03,1.051745e+04
1.756835e+03,1.048553e+04
1.757799e+03,1.045649e+04
1.758763e+03,1.044745e+04
1.759728e+03,1.044235e+04
1.760692e+03,1.041084e+04
1.761656e+03,1.038600e+04
1.762620e+03,1.040967e+04
1.763585e+03,1.044884e+04
1.764549e+03,1.045155e+04
1.765513e+03,1.041433e+04
1.766477e+03,1.040254e+04
1.767442e+03,1.041472e+04
1.768406e+03,1.042643e+04
1.769370e+03,1.043191e+04
1.770334e+03,1.043168e+04
1.771298e+03,1.041275e+04
1.772263e+03,1.039495e+04
1.773227e+03,1.038810e+04
1.774191e+03,1.038363e+04
1.775155e+03,1.036624e+04
1.776120e+03,1.034232e+04
1.777084e+03,1.032196e+04
1.778048e+03,1.030657e+04
1.779012e+03,1.029729e+04
1.779977e+03,1.029986e+04
1.780941e+03,1.028644e+04
1.781905e+03,1.025338e+04
1.782869e+03,1.024517e+04
1.783833e+03,1.029506e+04
1.784798e+03,1.033500e+04
1.785762e+03,1.030844e+04
1.786726e+03,1.027475e+04
1.787690e+03,1.026455e+04
1.788655e+03,1.026729e+04
1.789619e+03,1.026050e+04
1.790583e+03,1.024833e+04
1.791547e+03,1.023394e+04
1.792512e+03,1.022014e+04
1.793476e+03,1.021447e+04
1.794440e+03,1.021379e+04
1.795404e+03,1.021929e+04
1.796369e+03,1.022810e+04
1.797333e+03,1.022951e+04
1.798297e+03,1.021496e+04
1.799261e+03,1.019964e+04
1.800225e+03,1.019459e+04
1.801190e+03,1.018370e+04
1.802154e+03,1.015773e+04
1.803118e+03,1.012382e+04
1.804082e+03,1.010531e+04
1.805047e+03,1.010161e+04
1.806011e+03,1.010706e+04
1.806975e+03,1.011907e+04
1.807939e+03,1.012758e+04
1.808904e+03,1.013013e+04
1.809868e+03,1.011878e+04
1.810832e+03,1.009471e+04
1.811796e+03,1.007826e+04
1.812760e+03,1.009018e+04
1.813725e+03,1.010385e+04
1.814689e+03,1.010487e+04
1.815653e+03,1.009865e+04
1.816617e+03,1.008958e+04
1.817582e+03,1.007712e+04
1.818546e+03,1.005352e+04
1.819510e+03,1.002399e+04
1.820474e+03,1.000261e+04
1.821439e+03,9.993660e+03
1.822403e+03,9.987729e+03
1.823367e+03,9.984670e+03
1.824331e+03,9.984286e+03
1.825296e+03,9.983676e+03
1.826260e+03,9.980611e+03
1.827224e+03,9.983728e+03
1.828188e+03,9.988800e+03
1.829152e+03,9.985830e+03
1.830117e+03,9.979107e+03
1.831081e+03,9.972113e+03
1.832045e+03,9.961610e+03
1.833009e+03,9.944995e+03
1.833974e+03,9.934833e+03
1.834938e+03,9.944314e+03
1.835902e+03,9.974581e+03
1.836866e+03,9.968676e+03
1.837831e+03,9.922128e+03
1.838795e+03,9.895209e+03
1.839759e+03,9.905659e+03
1.840723e+03,9.920960e+03
1.841688e+03,9.917056e+03
1.842652e+03,9.904325e+03
1.843616e+03,9.876373e+03
1.844580e+03,9.849159e+03
1.845544e+03,9.851348e+03
1.846509e+03,9.866872e+03
1.847473e+03,9.864013e+03
1.848437e+03,9.850237e+03
1.849401e+03,9.840765e+03
1.850366e+03,9.837938e+03
1.851330e+03,9.821079e+03
1.852294e+03,9.795069e+03
1.853258e+03,9.775290e+03
1.854223e+03,9.765146e+03
1.855187e+03,9.761528e+03
1.856151e+03,9.759941e+03
1.857115e+03,9.762702e+03
1.858079e+03,9.771348e+03
1.859044e+03,9.773983e+03
1.860008e+03,9.757256e+03
1.860972e+03,9.737915e+03
1.861936e+03,9.726587e+03
1.862901e+03,9.726629e+03
1.863865e+03,9.741548e+03
1.864829e+03,9.760563e+03
1.865793e+03,9.736908e+03
1.866758e+03,9.690795e+03
1.867722e+03,9.676994e+03
1.868686e+03,9.716068e+03
1.869650e+03,9.732251e+03
1.870615e+03,9.714249e+03
1.871579e+03,9.689183e+03
1.872543e+03,9.667451e+03
1.873507e+03,9.657071e+03
1.874471e+03,9.661274e+03
1.875436e+03,9.661888e+03
1.876400e+03,9.655968e+03
1.877364e+03,9.646875e+03
1.878328e+03,9.638675e+03
1.879293e+03,9.628048e+03
1.880257e+03,9.601864e+03
1.881221e+03,9.566349e+03
1.882185e+03,9.539027e+03
1.883150e+03,9.522622e+03
1.884114e+03,9.529934e+03
1.885078e+03,9.553749e+03
1.886042e+03,9.559642e+03
1.887006e+03,9.534516e+03
1.887971e+03,9.515138e+03
1.888935e+03,9.518193e+03
1.889899e+03,9.532252e+03
1.890863e+03,9.552800e+03
1.891828e+03,9.561600e+03
1.892792e+03,9.537621e+03
1.893756e+03,9.506997e+03
1.894720e+03,9.497390e+03
1.895685e+03,9.501896e+03
1.896649e+03,9.507902e+03
1.897613e+03,9.509047e+03
1.898577e+03,9.490074e+03
1.899542e+03,9.463540e+03
1.900506e+03,9.457806e+03
1.901470e+03,9.478426e+03
1.902434e+03,9.472625e+03
1.903398e+03,9.442560e+03
1.904363e+03,9.425522e+03
1.905327e+03,9.433255e+03
1.906291e+03,9.439455e+03
1.907255e+03,9.418536e+03
1.908220e+03,9.405284e+03
1.909184e+03,9.409562e+03
1.910148e+03,9.408196e+03
1.911112e+03,9.374265e+03
1.912077e+03,9.337770e+03
1.913041e+03,9.322338e+03
1.914005e+03,9.319116e+03
1.914969e+03,9.320990e+03
1.915933e+03,9.325144e+03
1.916898e+03,9.320017e+03
1.917862e+03,9.310718e+03
1.918826e+03,9.302261e+03
1.919790e+03,9.298034e+03
1.920755e+03,9.302439e+03
1.921719e+03,9.309779e+03
1.922683e+03,9.310864e+03
1.923647e+03,9.307041e+03
1.924612e+03,9.303299e+03
1.925576e+03,9.307434e+03
1.926540e+03,9.298301e+03
1.927504e+03,9.263769e+03
1.928469e+03,9.232052e+03
1.929433e+03,9.229047e+03
1.930397e+03,9.234443e+03
1.931361e+03,9.249334e+03
1.932325e+03,9.248935e+03
1.933290e+03,9.206802e+03
1.934254e+03,9.153667e+03
1.935218e+03,9.149444e+03
1.936182e+03,9.168877e+03
1.937147e+03,9.189448e+03
1.938111e+03,9.209240e+03
1.939075e+03,9.208434e+03
1.940039e+03,9.194215e+03
1.941004e+03,9.186215e+03
1.941968e+03,9.180706e+03
1.942932e+03,9.160905e+03
1.943896e+03,9.117354e+03
1.944860e+03,9.085942e+03
1.945825e+03,9.074169e+03
1.946789e+03,9.075068e+03
1.947753e+03,9.087840e+03
1.948717e+03,9.097354e+03
1.949682e+03,9.094675e+03
1.950646e+03,9.089692e+03
1.951610e+03,9.088362e+03
1.952574e+03,9.088807e+03
1.953539e+03,9.094342e+03
1.954503e+03,9.093287e+03
1.955467e+03,9.072043e+03
1.956431e+03,9.041870e+03
1.957396e+03,9.024953e+03
1.958360e+03,9.016405e+03
1.959324e+03,9.013611e+03
1.960288e+03,9.017479e+03
1.961252e+03,9.011692e+03
1.962217e+03,8.989016e+03
1.963181e+03,8.977298e+03
1.964145e+03,8.976096e+03
1.965109e+03,8.980236e+03
1.966074e+03,9.005144e+03
1.967038e+03,9.005813e+03
1.968002e+03,8.964068e+03
1.968966e+03,8.931692e+03
1.969931e+03,8.939108e+03
1.970895e+03,8.947396e+03
1.971859e+03,8.935927e+03
1.972823e+03,8.925043e+03
1.973787e+03,8.919578e+03
1.974752e+03,8.913331e+03
1.975716e+03,8.903295e+03
1.976680e+03,8.886112e+03
1.977644e+03,8.854774e+03
1.978609e+03,8.828721e+03
1.979573e+03,8.840781e+03
1.980537e+03,8.872710e+03
1.981501e+03,8.862403e+03
1.982466e+03,8.826667e+03
1.983430e+03,8.817470e+03
1.984394e+03,8.840827e+03
1.985358e+03,8.844327e+03
1.986323e+03,8.830431e+03
1.987287e+03,8.823694e+03
1.988251e+03,8.833616e+03
1.989215e+03,8.828165e+03
1.990179e+03,8.804798e+03
1.991144e+03,8.774104e+03
1.992108e+03,8.739673e+03
1.993072e+03,8.721544e+03
1.994036e+03,8.748967e+03
1.995001e+03,8.763421e+03
1.995965e+03,8.746234e+03
1.996929e+03,8.725685e+03
1.997893e+03,8.724081e+03
1.998858e+03,8.725176e+03
1.999822e+03,8.716896e+03
2.000786e+03,8.702665e+03
2.001750e+03,8.692434e+03
2.002714e+03,8.688496e+03
2.003679e+03,8.677212e+03
2.004643e+03,8.663245e+03
2.005607e+03,8.664960e+03
2.006571e+03,8.678011e+03
2.007536e+03,8.671536e+03
2.008500e+03,8.652056e+03
2.009464e+03,8.635845e+03
2.010428e+03,8.627132e+03
2.011393e+03,8.619010e+03
2.012357e+03,8.610068e+03
2.013321e+03,8.604368e+03
2.014285e+03,8.597172e+03
2.015250e+03,8.596571e+03
2.016214e+03,8.623075e+03
2.017178e+03,8.624676e+03
2.018142e+03,8.599885e+03
2.019106e+03,8.569658e+03
2.020071e+03,8.536910e+03
2.021035e+03,8.516179e+03
2.021999e+03,8.522208e+03
2.022963e+03,8.521778e+03
2.023928e+03,8.503135e+03
2.024892e+03,8.485624e+03
2.025856e+03,8.491738e+03
2.026820e+03,8.505129e+03
2.027785e+03,8.518163e+03
2.028749e+03,8.522223e+03
2.029713e+03,8.500283e+03
2.030677e+03,8.473330e+03
2.031641e+03,8.470323e+03
2.032606e+03,8.478004e+03
2.033570e+03,8.470421e+03
2.034534e+03,8.452012e+03
2.035498e+03,8.456730e+03
2.036463e+03,8.471131e+03
2.037427e+03,8.455185e+03
2.038391e+03,8.413325e+03
2.039355e+03,8.389789e+03
2.040320e+03,8.382544e+03
2.041284e+03,8.378120e+03
2.042248e+03,8.371133e+03
2.043212e+03,8.361499e+03
2.044177e+03,8.351767e+03
2.045141e+03,8.344730e+03
2.046105e+03,8.339246e+03
2.047069e+03,8.344597e+03
2.048033e+03,8.384723e+03
2.048998e+03,8.379686e+03
2.049962e+03,8.322348e+03
2.050926e+03,8.273730e+03
2.051890e+03,8.281295e+03
2.052854e+03,8.295099e+03
2.053819e+03,8.298466e+03
2.054783e+03,8.293972e+03
2.055747e+03,8.288079e+03
2.056711e+03,8.283716e+03
2.057676e+03,8.283717e+03
2.058640e+03,8.282267e+03
2.059604e+03,8.268670e+03
2.060568e+03,8.249434e+03
2.061533e+03,8.238745e+03
2.062497e+03,8.233448e+03
2.063461e+03,8.235736e+03
2.064425e+03,8.235166e+03
2.065390e+03,8.212355e+03
2.066354e+03,8.177867e+03
2.067318e+03,8.149682e+03
2.068282e+03,8.133227e+03
2.069247e+03,8.133048e+03
2.070211e+03,8.142697e+03
2.071175e+03,8.132687e+03
2.072139e+03,8.112670e+03
2.073104e+03,8.103075e+03
2.074068e+03,8.106419e+03
2.075032e+03,8.114753e+03
2.075996e+03,8.124161e+03
2.076960e+03,8.133969e+03
2.077925e+03,8.142548e+03
2.078889e+03,8.135296e+03
2.079853e+03,8.111237e+03
2.080817e+03,8.102491e+03
2.081782e+03,8.110526e+03
2.082746e+03,8.101203e+03
2.083710e+03,8.059118e+03
2.084674e+03,8.022146e+03
2.085639e+03,7.996890e+03
2.086603e+03,7.989602e+03
2.087567e+03,7.998021e+03
2.088531e+03,8.007821e+03
2.089496e+03,8.015061e+03
2.090460e+03,8.007615e+03
2.091424e+03,7.990336e+03
2.092388e+03,7.976589e+03
2.093353e+03,7.964360e+03
2.094317e+03,7.965797e+03
2.095281e+03,7.979596e+03
2.096245e+03,7.991308e+03
2.097209e+03,7.990050e+03
2.098174e+03,7.979636e+03
2.099138e+03,7.966639e+03
2.100102e+03,7.949113e+03
2.101066e+03,7.917069e+03
2.102031e+03,7.885844e+03
2.102995e+03,7.872290e+03
2.103959e+03,7.864456e+03
2.104923e+03,7.851691e+03
2.105887e+03,7.846009e+03
2.106852e+03,7.856607e+03
2.107816e+03,7.869413e+03
2.108780e+03,7.880507e+03
2.109744e+03,7.883314e+03
2.110708e+03,7.863719e+03
2.111673e+03,7.835991e+03
2.112637e+03,7.806119e+03
2.113601e+03,7.775185e+03
2.114565e+03,7.758573e+03
2.115530e+03,7.751121e+03
2.116494e+03,7.737157e+03
2.117458e+03,7.731550e+03
2.118422e+03,7.752992e+03
2.119387e+03,7.788821e+03
2.120351e+03,7.805642e+03
2.121315e+03,7.803487e+03
2.122279e+03,7.807398e+03
2.123244e+03,7.818886e+03
2.124208e+03,7.792871e+03
2.125172e+03,7.744841e+03
2.126136e+03,7.721627e+03
2.127101e+03,7.738150e+03
2.128065e+03,7.718510e+03
2.129029e+03,7.668503e+03
2.129993e+03,7.652125e+03
2.130958e+03,7.674330e+03
2.131922e+03,7.680718e+03
2.132886e+03,7.668270e+03
2.133850e+03,7.653974e+03
2.134814e+03,7.647660e+03
2.135779e+03,7.653860e+03
2.136743e+03,7.679472e+03
2.137707e+03,7.675189e+03
2.138671e+03,7.642807e+03
2.139636e+03,7.609478e+03
2.140600e+03,7.580953e+03
2.141564e+03,7.571828e+03
2.142528e+03,7.584964e+03
2.143493e+03,7.595474e+03
2.144457e+03,7.590846e+03
2.145421e+03,7.572396e+03
2.146385e+03,7.536853e+03
2.147350e+03,7.519711e+03
2.148314e+03,7.537153e+03
2.149278e+03,7.559343e+03
2.150242e+03,7.556793e+03
2.151207e+03,7.551440e+03
2.152171e+03,7.545099e+03
2.153135e+03,7.529026e+03
2.154099e+03,7.493311e+03
2.155063e+03,7.477198e+03
2.156028e+03,7.494740e+03
2.156992e+03,7.512936e+03
2.157956e+03,7.491842e+03
2.158920e+03,7.471708e+03
2.159885e+03,7.474808e+03
2.160849e+03,7.472704e+03
2.161813e+03,7.448438e+03
2.162777e+03,7.421795e+03
2.163741e+03,7.415274e+03
2.164706e+03,7.407586e+03
2.165670e+03,7.398303e+03
2.166634e+03,7.391411e+03
2.167598e+03,7.375825e+03
2.168563e+03,7.373246e+03
2.169527e+03,7.390014e+03
2.170491e+03,7.402995e+03
2.171455e+03,7.396751e+03
2.172420e+03,7.384592e+03
2.173384e+03,7.376146e+03
2.174348e+03,7.367449e+03
2.175312e+03,7.350414e+03
2.176277e+03,7.329171e+03
2.177241e+03,7.307521e+03
2.178205e+03,7.288701e+03
2.179169e+03,7.280458e+03
2.180134e+03,7.279331e+03
2.181098e+03,7.273417e+03
2.182062e+03,7.270081e+03
2.183026e+03,7.270733e+03
2.183990e+03,7.267142e+03
2.184955e+03,7.235357e+03
2.185919e+03,7.211644e+03
2.186883e+03,7.229760e+03
2.187847e+03,7.252641e+03
2.188812e+03,7.236198e+03
2.189776e+03,7.206417e+03
2.190740e+03,7.179197e+03
2.191704e+03,7.159047e+03
2.192668e+03,7.162052e+03
2.193633e+03,7.172030e+03
2.194597e+03,7.160808e+03
2.195561e+03,7.148115e+03
2.196525e+03,7.149702e+03
2.197490e+03,7.155167e+03
2.198454e+03,7.149361e+03
2.199418e+03,7.134195e+03
2.200382e+03,7.110149e+03
2.201347e+03,7.092569e+03
2.202311e+03,7.106885e+03
2.203275e+03,7.128760e+03
2.204239e+03,7.128411e+03
2.205204e+03,7.112161e+03
2.206168e+03,7.100338e+03
2.207132e+03,7.088009e+03
2.208096e+03,7.059476e+03
2.209061e+03,7.021017e+03
2.210025e+03,6.977706e+03
2.210989e+03,6.941195e+03
2.211953e+03,6.937150e+03
2.212917e+03,6.958849e+03
2.213882e+03,6.980333e+03
2.214846e+03,6.996743e+03
2.215810e+03,7.014093e+03
2.216774e+03,7.017078e+03
2.217739e+03,7.005801e+03
2.218703e+03,6.989234e+03
2.219667e+03,6.976546e+03
2.220631e+03,6.966975e+03
2.221595e+03,6.956814e+03
2.222560e+03,6.944949e+03
2.223524e+03,6.933373e+03
2.224488e+03,6.918866e+03
2.225452e+03,6.890961e+03
2.226417e+03,6.872099e+03
2.227381e+03,6.892242e+03
2.228345e+03,6.927721e+03
2.229309e+03,6.947992e+03
2.230274e+03,6.949058e+03
2.231238e+03,6.927874e+03
2.232202e+03,6.893227e+03
2.233166e+03,6.857528e+03
2.234131e+03,6.830003e+03
2.235095e+03,6.813866e+03
2.236059e+03,6.805610e+03
2.237023e+03,6.801553e+03
2.237988e+03,6.796271e+03
2.238952e+03,6.783098e+03
2.239916e+03,6.765760e+03
2.240880e+03,6.757049e+03
2.241844e+03,6.750920e+03
2.242809e+03,6.740866e+03
2.243773e+03,6.732770e+03
2.244737e+03,6.730369e+03
2.245701e+03,6.726539e+03
2.246666e+03,6.707580e+03
2.247630e+03,6.696264e+03
2.248594e+03,6.727477e+03
2.249558e+03,6.762670e+03
2.250522e+03,6.752700e+03
2.251487e+03,6.739744e+03
2.252451e+03,6.738873e+03
2.253415e+03,6.728147e+03
2.254379e+03,6.688536e+03
2.255344e+03,6.647067e+03
2.256308e+03,6.613068e+03
2.257272e+03,6.594029e+03
2.258236e+03,6.607380e+03
2.259201e+03,6.623939e+03
2.260165e+03,6.631097e+03
2.261129e+03,6.631571e+03
2.262093e+03,6.626513e+03
2.263058e+03,6.611693e+03
2.264022e+03,6.590224e+03
2.264986e+03,6.576233e+03
2.265950e+03,6.575733e+03
2.266915e+03,6.577804e+03
2.267879e+03,6.576170e+03
2.268843e+03,6.563331e+03
2.269807e+03,6.541938e+03
2.270771e+03,6.521568e+03
2.271736e+03,6.504633e+03
2.272700e+03,6.505510e+03
2.273664e+03,6.523901e+03
2.274628e+03,6.536116e+03
2.275593e+03,6.528345e+03
2.276557e+03,6.516871e+03
2.277521e+03,6.509121e+03
2.278485e+03,6.502723e+03
2.279449e+03,6.495046e+03
2.280414e+03,6.489433e+03
2.281378e+03,6.485124e+03
2.282342e+03,6.481455e+03
2.283306e+03,6.475049e+03
2.284271e+03,6.458810e+03
2.285235e+03,6.432526e+03
2.286199e+03,6.413045e+03
2.287163e+03,6.418534e+03
2.288128e+03,6.422437e+03
2.289092e+03,6.418511e+03
2.290056e+03,6.407465e+03
2.291020e+03,6.390881e+03
2.291985e+03,6.371125e+03
2.292949e+03,6.355669e+03
2.293913e+03,6.369753e+03
2.294877e+03,6.408692e+03
2.295842e+03,6.423315e+03
2.296806e+03,6.411877e+03
2.297770e+03,6.407759e+03
2.298734e+03,6.407138e+03
2.299698e+03,6.389033e+03
2.300663e+03,6.358206e+03
2.301627e+03,6.336277e+03
2.302591e+03,6.319670e+03
2.303555e+03,6.304381e+03
2.304520e+03,6.291261e+03
2.305484e+03,6.279368e+03
2.306448e+03,6.273167e+03
2.307412e+03,6.278704e+03
2.308376e+03,6.287183e+03
2.309341e+03,6.283937e+03
2.310305e+03,6.272456e+03
2.311269e+03,6.259420e+03
2.312233e+03,6.250520e+03
2.313198e+03,6.247041e+03
2.314162e+03,6.244775e+03
2.315126e+03,6.245511e+03
2.316090e+03,6.240479e+03
2.317055e+03,6.214964e+03
2.318019e+03,6.191052e+03
2.318983e+03,6.185622e+03
2.319947e+03,6.186255e+03
2.320912e+03,6.196756e+03
2.321876e+03,6.203606e+03
2.322840e+03,6.190724e+03
2.323804e+03,6.172542e+03
2.324769e+03,6.153399e+03
2.325733e+03,6.144720e+03
2.326697e+03,6.155690e+03
2.327661e+03,6.167211e+03
2.328625e+03,6.170442e+03
2.329590e+03,6.161412e+03
2.330554e+03,6.140985e+03
2.331518e+03,6.118021e+03
2.332482e+03,6.092529e+03
2.333447e+03,6.074669e+03
2.334411e+03,6.075257e+03
2.335375e+03,6.061235e+03
2.336339e+03,6.032146e+03
2.337303e+03,6.018178e+03
2.338268e+03,6.038891e+03
2.339232e+03,6.030683e+03
2.340196e+03,6.001474e+03
2.341160e+03,5.995771e+03
2.342125e+03,6.027255e+03
2.343089e+03,6.045816e+03
2.344053e+03,6.045576e+03
2.345017e+03,6.033431e+03
2.345982e+03,6.014799e+03
2.346946e+03,6.005916e+03
2.347910e+03,6.006633e+03
2.348874e+03,6.004093e+03
2.349839e+03,5.991472e+03
2.350803e+03,5.962800e+03
2.351767e+03,5.932869e+03
2.352731e+03,5.931981e+03
2.353696e+03,5.947535e+03
2.354660e+03,5.954623e+03
2.355624e+03,5.952162e+03
2.356588e+03,5.941600e+03
2.357552e+03,5.930705e+03
2.358517e+03,5.925460e+03
2.359481e+03,5.923141e+03
2.360445e+03,5.917175e+03
2.361409e+03,5.911031e+03
2.362374e+03,5.909412e+03
2.363338e+03,5.901970e+03
2.364302e+03,5.882889e+03
2.365266e+03,5.871897e+03
2.366230e+03,5.870714e+03
2.367195e+03,5.868116e+03
2.368159e+03,5.852781e+03
2.369123e+03,5.830595e+03
2.370087e+03,5.806876e+03
2.371052e+03,5.802563e+03
2.372016e+03,5.844095e+03
2.372980e+03,5.851561e+03
2.373944e+03,5.821781e+03
2.374909e+03,5.798408e+03
2.375873e+03,5.798535e+03
2.376837e+03,5.793052e+03
2.377801e+03,5.783040e+03
2.378766e+03,5.764330e+03
2.379730e+03,5.738126e+03
2.380694e+03,5.728030e+03
2.381658e+03,5.733265e+03
2.382623e+03,5.746027e+03
2.383587e+03,5.758951e+03
2.384551e+03,5.753571e+03
2.385515e+03,5.736592e+03
2.386479e+03,5.724768e+03
2.387444e+03,5.717139e+03
2.388408e+03,5.716663e+03
2.389372e+03,5.715627e+03
2.390336e+03,5.699696e+03
2.391301e+03,5.679898e+03
2.392265e+03,5.658679e+03
2.393229e+03,5.645683e+03
2.394193e+03,5.651081e+03
2.395157e+03,5.657063e+03
2.396122e+03,5.654552e+03
2.397086e+03,5.650384e+03
2.398050e+03,5.649214e+03
2.399014e+03,5.648776e+03
2.399979e+03,5.649216e+03
2.400943e+03,5.635061e+03
2.401907e+03,5.601733e+03
2.402871e+03,5.586148e+03
2.403836e+03,5.598690e+03
2.404800e+03,5.598146e+03
2.405764e+03,5.581169e+03
2.406728e+03,5.576550e+03
2.407693e+03,5.581137e+03
2.408657e+03,5.576852e+03
2.409621e+03,5.567552e+03
2.410585e+03,5.559278e+03
2.411550e+03,5.550852e+03
2.412514e+03,5.532120e+03
2.413478e+03,5.511609e+03
2.414442e+03,5.521841e+03
2.415406e+03,5.537619e+03
2.416371e+03,5.528382e+03
2.417335e+03,5.510929e+03
2.418299e+03,5.506406e+03
2.419263e+03,5.506104e+03
2.420228e+03,5.505454e+03
2.421192e+03,5.501742e+03
2.422156e+03,5.492802e+03
2.423120e+03,5.484764e+03
2.424084e+03,5.473897e+03
2.425049e+03,5.463021e+03
2.426013e+03,5.465047e+03
2.426977e+03,5.452134e+03
2.427941e+03,5.426671e+03
2.428906e+03,5.409835e+03
2.429870e+03,5.402428e+03
2.430834e+03,5.417227e+03
2.431798e+03,5.447624e+03
2.432763e+03,5.444935e+03
2.433727e+03,5.409573e+03
2.434691e+03,5.400844e+03
2.435655e+03,5.405871e+03
2.436620e+03,5.398007e+03
2.437584e+03,5.383368e+03
2.438548e+03,5.384060e+03
2.439512e+03,5.388295e+03
2.440477e+03,5.382253e+03
2.441441e+03,5.366175e+03
2.442405e+03,5.343716e+03
2.443369e+03,5.321688e+03
2.444333e+03,5.304415e+03
2.445298e+03,5.294393e+03
2.446262e+03,5.293479e+03
2.447226e+03,5.299798e+03
2.448190e+03,5.316042e+03
2.449155e+03,5.322375e+03
2.450119e+03,5.298173e+03
2.451083e+03,5.294073e+03
2.452047e+03,5.306260e+03
2.453011e+03,5.308422e+03
2.453976e+03,5.296115e+03
2.454940e+03,5.290116e+03
2.455904e+03,5.290516e+03
2.456868e+03,5.283639e+03
2.457833e+03,5.267427e+03
2.458797e+03,5.244606e+03
2.459761e+03,5.223347e+03
2.460725e+03,5.210780e+03
2.461690e+03,5.202884e+03
2.462654e+03,5.193568e+03
2.463618e+03,5.190390e+03
2.464582e+03,5.201736e+03
2.465547e+03,5.216516e+03
2.466511e+03,5.218366e+03
2.467475e+03,5.211617e+03
2.468439e+03,5.197173e+03
2.469404e+03,5.184064e+03
2.470368e+03,5.185635e+03
2.471332e+03,5.191335e+03
2.472296e+03,5.196222e+03
2.473260e+03,5.188418e+03
2.474225e+03,5.164788e+03
2.475189e+03,5.145570e+03
2.476153e+03,5.134376e+03
2.477117e+03,5.130917e+03
2.478082e+03,5.131903e+03
2.479046e+03,5.141440e+03
2.480010e+03,5.147719e+03
2.480974e+03,5.135744e+03
2.481938e+03,5.117100e+03
2.482903e+03,5.099714e+03
2.483867e+03,5.092586e+03
2.484831e+03,5.099807e+03
2.485795e+03,5.105181e+03
2.486760e+03,5.100726e+03
2.487724e+03,5.089319e+03
2.488688e+03,5.073647e+03
2.489652e+03,5.062080e+03
2.490617e+03,5.057147e+03
2.491581e+03,5.044489e+03
2.492545e+03,5.029102e+03
2.493509e+03,5.028875e+03
2.494474e+03,5.041024e+03
2.495438e+03,5.037950e+03
2.496402e+03,5.027768e+03
2.497366e+03,5.033438e+03
2.498331e+03,5.043385e+03
2.499295e+03,5.033158e+03
2.500259e+03,5.012195e+03
2.501223e+03,4.993648e+03
2.502188e+03,4.980279e+03
2.503152e+03,4.974432e+03
2.504116e+03,4.974606e+03
2.505080e+03,4.981146e+03
2.506044e+03,4.981756e+03
2.507009e+03,4.957578e+03
2.507973e+03,4.938038e+03
2.508937e+03,4.927757e+03
2.509901e+03,4.938478e+03
2.510865e+03,4.973633e+03
2.511830e+03,4.978062e+03
2.512794e+03,4.956878e+03
2.513758e+03,4.931724e+03
2.514722e+03,4.911106e+03
2.515687e+03,4.900394e+03
2.516651e+03,4.902274e+03
2.517615e+03,4.922713e+03
2.518579e+03,4.940602e+03
2.519544e+03,4.926002e+03
2.520508e+03,4.903935e+03
2.521472e+03,4.884940e+03
2.522436e+03,4.869840e+03
2.523401e+03,4.862035e+03
2.524365e+03,4.853186e+03
2.525329e+03,4.839443e+03
2.526293e+03,4.839411e+03
2.527258e+03,4.862732e+03
2.528222e+03,4.861706e+03
2.529186e+03,4.845779e+03
2.530150e+03,4.849413e+03
2.531115e+03,4.865792e+03
2.532079e+03,4.855813e+03
2.533043e+03,4.836447e+03
2.534007e+03,4.823497e+03
2.534971e+03,4.812992e+03
2.535936e+03,4.812461e+03
2.536900e+03,4.808838e+03
2.537864e+03,4.796749e+03
2.538828e+03,4.782352e+03
2.539792e+03,4.756516e+03
2.540757e+03,4.751985e+03
2.541721e+03,4.770732e+03
2.542685e+03,4.770968e+03
2.543649e+03,4.753485e+03
2.544614e+03,4.756572e+03
2.545578e+03,4.769350e+03
2.546542e+03,4.764910e+03
2.547506e+03,4.750922e+03
2.548471e+03,4.737998e+03
2.549435e+03,4.729603e+03
2.550399e+03,4.731076e+03
2.551363e+03,4.734838e+03
2.552328e+03,4.739871e+03
2.553292e+03,4.742632e+03
2.554256e+03,4.744208e+03
2.555220e+03,4.725266e+03
2.556185e+03,4.682516e+03
2.557149e+03,4.668451e+03
2.558113e+03,4.691301e+03
2.559077e+03,4.710630e+03
2.560042e+03,4.720132e+03
2.561006e+03,4.710563e+03
2.561970e+03,4.696372e+03
2.562934e+03,4.690288e+03
2.563898e+03,4.687357e+03
2.564863e+03,4.678806e+03
2.565827e+03,4.668641e+03
2.566791e+03,4.675958e+03
2.567755e+03,4.671954e+03
2.568719e+03,4.643486e+03
2.569684e+03,4.617328e+03
2.570648e+03,4.604921e+03
2.571612e+03,4.617075e+03
2.572576e+03,4.650057e+03
2.573541e+03,4.653055e+03
2.574505e+03,4.625160e+03
2.575469e+03,4.627322e+03
2.576433e+03,4.636103e+03
2.577398e+03,4.619675e+03
2.578362e+03,4.595360e+03
2.579326e+03,4.583228e+03
2.580290e+03,4.580575e+03
2.581255e+03,4.584173e+03
2.582219e+03,4.580303e+03
2.583183e+03,4.552155e+03
2.584147e+03,4.536652e+03
2.585112e+03,4.540752e+03
2.586076e+03,4.546063e+03
2.587040e+03,4.548594e+03
2.588004e+03,4.546825e+03
2.588969e+03,4.538156e+03
2.589933e+03,4.524644e+03
2.590897e+03,4.511319e+03
2.591861e+03,4.507817e+03
2.592825e+03,4.507018e+03
2.593790e+03,4.501281e+03
2.594754e+03,4.497477e+03
2.595718e+03,4.503275e+03
2.596682e+03,4.504683e+03
2.597646e+03,4.496651e+03
2.598611e+03,4.474606e+03
2.599575e+03,4.446188e+03
2.600539e+03,4.448443e+03
2.601503e+03,4.474197e+03
2.602468e+03,4.483823e+03
2.603432e+03,4.479886e+03
2.604396e+03,4.470394e+03
2.605360e+03,4.457796e+03
2.606325e+03,4.426229e+03
2.607289e+03,4.413544e+03
2.608253e+03,4.439246e+03
2.609217e+03,4.463042e+03
2.610182e+03,4.459362e+03
2.611146e+03,4.453946e+03
2.612110e+03,4.449865e+03
2.613074e+03,4.440249e+03
2.614039e+03,4.428756e+03
2.615003e+03,4.435240e+03
2.615967e+03,4.437660e+03
2.616931e+03,4.407697e+03
2.617896e+03,4.374735e+03
2.618860e+03,4.379210e+03
2.619824e+03,4.385040e+03
2.620788e+03,4.376374e+03
2.621752e+03,4.367190e+03
2.622717e+03,4.368937e+03
2.623681e+03,4.370411e+03
2.624645e+03,4.369847e+03
2.625609e+03,4.373552e+03
2.626573e+03,4.378721e+03
2.627538e+03,4.350178e+03
2.628502e+03,4.317758e+03
2.629466e+03,4.322722e+03
2.630430e+03,4.338195e+03
2.631395e+03,4.326555e+03
2.632359e+03,4.313041e+03
2.633323e+03,4.305757e+03
2.634287e+03,4.305434e+03
2.635252e+03,4.312694e+03
2.636216e+03,4.337737e+03
2.637180e+03,4.374741e+03
2.638144e+03,4.360806e+03
2.639109e+03,4.315782e+03
2.640073e+03,4.303061e+03
2.641037e+03,4.308903e+03
2.642001e+03,4.308010e+03
2.642966e+03,4.294421e+03
2.643930e+03,4.261593e+03
2.644894e+03,4.241646e+03
2.645858e+03,4.269519e+03
2.646823e+03,4.290558e+03
2.647787e+03,4.297867e+03
2.648751e+03,4.286310e+03
2.649715e+03,4.258204e+03
2.650679e+03,4.252147e+03
2.651644e+03,4.252754e+03
2.652608e+03,4.232120e+03
2.653572e+03,4.208760e+03
2.654536e+03,4.214664e+03
2.655500e+03,4.228090e+03
2.656465e+03,4.242388e+03
2.657429e+03,4.252602e+03
2.658393e+03,4.254882e+03
2.659357e+03,4.243343e+03
2.660322e+03,4.222882e+03
2.661286e+03,4.195443e+03
2.662250e+03,4.167128e+03
2.663214e+03,4.152025e+03
2.664179e+03,4.152670e+03
2.665143e+03,4.191600e+03
2.666107e+03,4.217553e+03
2.667071e+03,4.202601e+03
2.668036e+03,4.190306e+03
2.669000e+03,4.200794e+03
2.669964e+03,4.205881e+03
2.670928e+03,4.204024e+03
2.671893e+03,4.199854e+03
2.672857e+03,4.196290e+03
2.673821e+03,4.191180e+03
2.674785e+03,4.180901e+03
2.675750e+03,4.164874e+03
2.676714e+03,4.149982e+03
2.677678e+03,4.134226e+03
2.678642e+03,4.141373e+03
2.679606e+03,4.180292e+03
2.680571e+03,4.177435e+03
2.681535e+03,4.123804e+03
2.682499e+03,4.097426e+03
2.683463e+03,4.098516e+03
2.684427e+03,4.106650e+03
2.685392e+03,4.119681e+03
2.686356e+03,4.135857e+03
2.687320e+03,4.142196e+03
2.688284e+03,4.128279e+03
2.689249e+03,4.105452e+03
2.690213e+03,4.075636e+03
2.691177e+03,4.054087e+03
2.692141e+03,4.051431e+03
2.693106e+03,4.047661e+03
2.694070e+03,4.045751e+03
2.695034e+03,4.053479e+03
2.695998e+03,4.060733e+03
2.696963e+03,4.039803e+03
2.697927e+03,4.033781e+03
2.698891e+03,4.062443e+03
2.699855e+03,4.074977e+03
2.700820e+03,4.045194e+03
2.701784e+03,4.026537e+03
2.702748e+03,4.020835e+03
2.703712e+03,4.016008e+03
2.704677e+03,4.010734e+03
2.705641e+03,4.009798e+03
2.706605e+03,4.015880e+03
2.707569e+03,4.032438e+03
2.708533e+03,4.032832e+03
2.709498e+03,4.001417e+03
2.710462e+03,3.978983e+03
2.711426e+03,3.993073e+03
2.712390e+03,4.003454e+03
2.713354e+03,4.007495e+03
2.714319e+03,3.996588e+03
2.715283e+03,3.977718e+03
2.716247e+03,3.964813e+03
2.717211e+03,3.957351e+03
2.718176e+03,3.953166e+03
2.719140e+03,3.959202e+03
2.720104e+03,3.987688e+03
2.721068e+03,3.990659e+03
2.722033e+03,3.964583e+03
2.722997e+03,3.952145e+03
2.723961e+03,3.950861e+03
2.724925e+03,3.946355e+03
2.725890e+03,3.941038e+03
2.726854e+03,3.934392e+03
2.727818e+03,3.932917e+03
2.728782e+03,3.935868e+03
2.729747e+03,3.933995e+03
2.730711e+03,3.917447e+03
2.731675e+03,3.923570e+03
2.732639e+03,3.947238e+03
2.733604e+03,3.955765e+03
2.734568e+03,3.950198e+03
2.735532e+03,3.928127e+03
2.736496e+03,3.911225e+03
2.737460e+03,3.920126e+03
2.738425e+03,3.925513e+03
2.739389e+03,3.905507e+03
2.740353e+03,3.890095e+03
2.741317e+03,3.885888e+03
2.742281e+03,3.884179e+03
2.743246e+03,3.884616e+03
2.744210e+03,3.876840e+03
2.745174e+03,3.866957e+03
2.746138e+03,3.880454e+03
2.747103e+03,3.883079e+03
2.748067e+03,3.862998e+03
2.749031e+03,3.855374e+03
2.749995e+03,3.888931e+03
2.750960e+03,3.871424e+03
2.751924e+03,3.824425e+03
2.752888e+03,3.818274e+03
2.753852e+03,3.834046e+03
2.754817e+03,3.833175e+03
2.755781e+03,3.822530e+03
2.756745e+03,3.798888e+03
2.757709e+03,3.799968e+03
2.758674e+03,3.832344e+03
2.759638e+03,3.850005e+03
2.760602e+03,3.845765e+03
2.761566e+03,3.840053e+03
2.762531e+03,3.835901e+03
2.763495e+03,3.829092e+03
2.764459e+03,3.823683e+03
2.765423e+03,3.834894e+03
2.766387e+03,3.833241e+03
2.767352e+03,3.815735e+03
2.768316e+03,3.809026e+03
2.769280e+03,3.817283e+03
2.770244e+03,3.806462e+03
2.771208e+03,3.788530e+03
2.772173e+03,3.783866e+03
2.773137e+03,3.781716e+03
2.774101e+03,3.775721e+03
2.775065e+03,3.776656e+03
2.776030e+03,3.789586e+03
2.776994e+03,3.791315e+03
2.777958e+03,3.779199e+03
2.778922e+03,3.766437e+03
2.779887e+03,3.755933e+03
2.780851e+03,3.748163e+03
2.781815e+03,3.737289e+03
2.782779e+03,3.722615e+03
2.783744e+03,3.714309e+03
2.784708e+03,3.716130e+03
2.785672e+03,3.717533e+03
2.786636e+03,3.717040e+03
2.787601e+03,3.716256e+03
2.788565e+03,3.718485e+03
2.789529e+03,3.728855e+03
2.790493e+03,3.738249e+03
2.791458e+03,3.729554e+03
2.792422e+03,3.730440e+03
2.793386e+03,3.749919e+03
2.794350e+03,3.744075e+03
2.795314e+03,3.700348e+03
2.796279e+03,3.697616e+03
2.797243e+03,3.711550e+03
2.798207e+03,3.708593e+03
2.799171e+03,3.703796e+03
2.800135e+03,3.718504e+03
2.801100e+03,3.715157e+03
2.802064e+03,3.685570e+03
2.803028e+03,3.678133e+03
2.803992e+03,3.691366e+03
2.804957e+03,3.713056e+03
2.805921e+03,3.732079e+03
2.806885e+03,3.724804e+03
2.807849e+03,3.704972e+03
2.808814e+03,3.679433e+03
2.809778e+03,3.672898e+03
2.810742e+03,3.710682e+03
2.811706e+03,3.695662e+03
2.812671e+03,3.641851e+03
2.813635e+03,3.619754e+03
2.814599e+03,3.616900e+03
2.815563e+03,3.611427e+03
2.816528e+03,3.613325e+03
2.817492e+03,3.632149e+03
2.818456e+03,3.639185e+03
2.819420e+03,3.629305e+03
2.820385e+03,3.612321e+03
2.821349e+03,3.598817e+03
2.822313e+03,3.610197e+03
2.823277e+03,3.628888e+03
2.824241e+03,3.638355e+03
2.825206e+03,3.639827e+03
2.826170e+03,3.635999e+03
2.827134e+03,3.633135e+03
2.828098e+03,3.630063e+03
2.829063e+03,3.637503e+03
2.830027e+03,3.643413e+03
2.830991e+03,3.619223e+03
2.831955e+03,3.600009e+03
2.832919e+03,3.609438e+03
2.833884e+03,3.618778e+03
2.834848e+03,3.621177e+03
2.835812e+03,3.608311e+03
2.836776e+03,3.584446e+03
2.837741e+03,3.569289e+03
2.838705e+03,3.559464e+03
2.839669e+03,3.547365e+03
2.840633e+03,3.545696e+03
2.841598e+03,3.563159e+03
2.842562e+03,3.570762e+03
2.843526e+03,3.564059e+03
2.844490e+03,3.554690e+03
2.845455e+03,3.547585e+03
2.846419e+03,3.561850e+03
2.847383e+03,3.575087e+03
2.848347e+03,3.551600e+03
2.849312e+03,3.543117e+03
2.850276e+03,3.557150e+03
2.851240e+03,3.555272e+03
2.852204e+03,3.537500e+03
2.853168e+03,3.545614e+03
2.854133e+03,3.556700e+03
2.855097e+03,3.532565e+03
2.856061e+03,3.525331e+03
2.857025e+03,3.544774e+03
2.857990e+03,3.562000e+03
2.858954e+03,3.570282e+03
2.859918e+03,3.554466e+03
2.860882e+03,3.530331e+03
2.861846e+03,3.519492e+03
2.862811e+03,3.524005e+03
2.863775e+03,3.556680e+03
2.864739e+03,3.557260e+03
2.865703e+03,3.507175e+03
2.866668e+03,3.505269e+03
2.867632e+03,3.535405e+03
2.868596e+03,3.548448e+03
2.869560e+03,3.547059e+03
2.870525e+03,3.537695e+03
2.871489e+03,3.517302e+03
2.872453e+03,3.483797e+03
2.873417e+03,3.485192e+03
2.874382e+03,3.513061e+03
2.875346e+03,3.495520e+03
2.876310e+03,3.467447e+03
2.877274e+03,3.477209e+03
2.878239e+03,3.490014e+03
2.879203e+03,3.489204e+03
2.880167e+03,3.492216e+03
2.881131e+03,3.509146e+03
2.882095e+03,3.505768e+03
2.883060e+03,3.492380e+03
2.884024e+03,3.483313e+03
2.884988e+03,3.475340e+03
2.885952e+03,3.461407e+03
2.886917e+03,3.465102e+03
2.887881e+03,3.496858e+03
2.888845e+03,3.501597e+03
2.889809e+03,3.489513e+03
2.890773e+03,3.479427e+03
2.891738e+03,3.472114e+03
2.892702e+03,3.484934e+03
2.893666e+03,3.478156e+03
2.894630e+03,3.447291e+03
2.895595e+03,3.461293e+03
2.896559e+03,3.502009e+03
2.897523e+03,3.463107e+03
2.898487e+03,3.412446e+03
2.899452e+03,3.430572e+03
2.900416e+03,3.447575e+03
2.901380e+03,3.444675e+03
2.902344e+03,3.425327e+03
2.903309e+03,3.395357e+03
2.904273e+03,3.395993e+03
2.905237e+03,3.409449e+03
2.906201e+03,3.414959e+03
2.907166e+03,3.422435e+03
2.908130e+03,3.436800e+03
2.909094e+03,3.434611e+03
2.910058e+03,3.413506e+03
2.911022e+03,3.405297e+03
2.911987e+03,3.404821e+03
2.912951e+03,3.402914e+03
2.913915e+03,3.397949e+03
2.914879e+03,3.384910e+03
2.915844e+03,3.383565e+03
2.916808e+03,3.394399e+03
2.917772e+03,3.393004e+03
2.918736e+03,3.389207e+03
2.919700e+03,3.398243e+03
2.920665e+03,3.404864e+03
2.921629e+03,3.401255e+03
2.922593e+03,3.383056e+03
2.923557e+03,3.355984e+03
2.924522e+03,3.330045e+03
2.925486e+03,3.316762e+03
2.926450e+03,3.361546e+03
2.927414e+03,3.398060e+03
2.928379e+03,3.393531e+03
2.929343e+03,3.378606e+03
2.930307e+03,3.359070e+03
2.931271e+03,3.339926e+03
2.932236e+03,3.330770e+03
2.933200e+03,3.363684e+03
2.934164e+03,3.369538e+03
2.935128e+03,3.314304e+03
2.936093e+03,3.301940e+03
2.937057e+03,3.334911e+03
2.938021e+03,3.311339e+03
2.938985e+03,3.277170e+03
2.939949e+03,3.327191e+03
2.940914e+03,3.353155e+03
2.941878e+03,3.321373e+03
2.942842e+03,3.309807e+03
2.943806e+03,3.325634e+03
2.944771e+03,3.310195e+03
2.945735e+03,3.288357e+03
2.946699e+03,3.295497e+03
2.947663e+03,3.305321e+03
2.948627e+03,3.303528e+03
2.949592e+03,3.316984e+03
2.950556e+03,3.348628e+03
2.951520e+03,3.342880e+03
2.952484e+03,3.316998e+03
2.953449e+03,3.293923e+03
2.954413e+03,3.274532e+03
2.955377e+03,3.261722e+03
2.956341e+03,3.274121e+03
2.957306e+03,3.304319e+03
2.958270e+03,3.303026e+03
2.959234e+03,3.290123e+03
2.960198e+03,3.290661e+03
2.961163e+03,3.298983e+03
2.962127e+03,3.305380e+03
2.963091e+03,3.290819e+03
2.964055e+03,3.265186e+03
2.965020e+03,3.287660e+03
2.965984e+03,3.313071e+03
2.966948e+03,3.302548e+03
2.967912e+03,3.285296e+03
2.968876e+03,3.271926e+03
2.969841e+03,3.259259e+03
2.970805e+03,3.249685e+03
2.971769e+03,3.255226e+03
2.972733e+03,3.250305e+03
2.973698e+03,3.212196e+03
2.974662e+03,3.199875e+03
2.975626e+03,3.231855e+03
2.976590e+03,3.269831e+03
2.977554e+03,3.295039e+03
2.978519e+03,3.281063e+03
2.979483e+03,3.253272e+03
2.980447e+03,3.227643e+03
2.981411e+03,3.230622e+03
2.982376e+03,3.257783e+03
2.983340e+03,3.223614e+03
2.984304e+03,3.187214e+03
2.985268e+03,3.209796e+03
2.986233e+03,3.242198e+03
2.987197e+03,3.265320e+03
2.988161e+03,3.257931e+03
2.989125e+03,3.232605e+03
2.990090e+03,3.228958e+03
2.991054e+03,3.231705e+03
2.992018e+03,3.229113e+03
2.992982e+03,3.213426e+03
2.993947e+03,3.182259e+03
2.994911e+03,3.169868e+03
2.995875e+03,3.174353e+03
2.996839e+03,3.183001e+03
2.997803e+03,3.190492e+03
2.998768e+03,3.198810e+03
2.999732e+03,3.185485e+03
3.000696e+03,3.154282e+03
3.001660e+03,3.168269e+03
3.002625e+03,3.183607e+03
3.003589e+03,3.157846e+03
3.004553e+03,3.140685e+03
3.005517e+03,3.160319e+03
3.006481e+03,3.144927e+03
3.007446e+03,3.109364e+03
3.008410e+03,3.153483e+03
3.009374e+03,3.203015e+03
3.010338e+03,3.217065e+03
3.011303e+03,3.202158e+03
3.012267e+03,3.154828e+03
3.013231e+03,3.167548e+03
3.014195e+03,3.197933e+03
3.015160e+03,3.164073e+03
3.016124e+03,3.134085e+03
3.017088e+03,3.130422e+03
3.018052e+03,3.145350e+03
3.019017e+03,3.169087e+03
3.019981e+03,3.173254e+03
3.020945e+03,3.173510e+03
3.021909e+03,3.186615e+03
3.022874e+03,3.179766e+03
3.023838e+03,3.151037e+03
3.024802e+03,3.157093e+03
3.025766e+03,3.181389e+03
3.026730e+03,3.164995e+03
3.027695e+03,3.150759e+03
3.028659e+03,3.158996e+03
3.029623e+03,3.164131e+03
3.030587e+03,3.162935e+03
3.031552e+03,3.164282e+03
3.032516e+03,3.152122e+03
3.033480e+03,3.096516e+03
3.034444e+03,3.061903e+03
3.035408e+03,3.060203e+03
3.036373e+03,3.072985e+03
3.037337e+03,3.091317e+03
3.038301e+03,3.117148e+03
3.039265e+03,3.133956e+03
3.040230e+03,3.119240e+03
3.041194e+03,3.119123e+03
3.042158e+03,3.127899e+03
3.043122e+03,3.116145e+03
3.044087e+03,3.099688e+03
3.045051e+03,3.095669e+03
3.046015e+03,3.094000e+03
3.046979e+03,3.095105e+03
3.047944e+03,3.078066e+03
3.048908e+03,3.063829e+03
3.049872e+03,3.080635e+03
3.050836e+03,3.105644e+03
3.051801e+03,3.126565e+03
3.052765e+03,3.108317e+03
3.053729e+03,3.065512e+03
3.054693e+03,3.126771e+03
3.055657e+03,3.181553e+03
3.056622e+03,3.149755e+03
3.057586e+03,3.112259e+03
3.058550e+03,3.098058e+03
3.059514e+03,3.068364e+03
3.060479e+03,3.046375e+03
3.061443e+03,3.074383e+03
3.062407e+03,3.091360e+03
3.063371e+03,3.081401e+03
3.064335e+03,3.059198e+03
3.065300e+03,3.037442e+03
3.066264e+03,3.046116e+03
3.067228e+03,3.071251e+03
3.068192e+03,3.110465e+03
3.069157e+03,3.096733e+03
3.070121e+03,3.048932e+03
3.071085e+03,3.078202e+03
3.072049e+03,3.126081e+03
3.073014e+03,3.100173e+03
3.073978e+03,3.076403e+03
3.074942e+03,3.068430e+03
3.075906e+03,3.056607e+03
3.076871e+03,3.048453e+03
3.077835e+03,3.057258e+03
3.078799e+03,3.058661e+03
3.079763e+03,3.028015e+03
3.080728e+03,3.055812e+03
3.081692e+03,3.118408e+03
3.082656e+03,3.092579e+03
3.083620e+03,3.075203e+03
3.084584e+03,3.123073e+03
3.085549e+03,3.128438e+03
3.086513e+03,3.072740e+03
3.087477e+03,3.023129e+03
3.088441e+03,2.996242e+03
3.089406e+03,3.023358e+03
3.090370e+03,3.052883e+03
3.091334e+03,3.072578e+03
3.092298e+03,3.059122e+03
3.093262e+03,3.038356e+03
3.094227e+03,3.075131e+03
3.095191e+03,3.096099e+03
3.096155e+03,3.074237e+03
3.097119e+03,3.028929e+03
3.098084e+03,2.991007e+03
3.099048e+03,3.009427e+03
3.100012e+03,3.044997e+03
3.100976e+03,3.077050e+03
3.101941e+03,3.072047e+03
3.102905e+03,3.035866e+03
3.103869e+03,3.020233e+03
3.104833e+03,3.011460e+03
3.105798e+03,3.001192e+03
3.106762e+03,2.999210e+03
3.107726e+03,3.009531e+03
3.108690e+03,3.018440e+03
3.109655e+03,3.031463e+03
3.110619e+03,3.067925e+03
3.111583e+03,3.084580e+03
3.112547e+03,3.078173e+03
3.113511e+03,3.052653e+03
3.114476e+03,3.020572e+03
3.115440e+03,2.993139e+03
3.116404e+03,2.994773e+03
3.117368e+03,3.052420e+03
3.118333e+03,3.066069e+03
3.119297e+03,3.055292e+03
3.120261e+03,3.060027e+03
3.121225e+03,3.060733e+03
3.122189e+03,3.044556e+03
3.123154e+03,3.018148e+03
3.124118e+03,2.989237e+03
3.125082e+03,2.999532e+03
3.126046e+03,3.011600e+03
3.127011e+03,3.003983e+03
3.127975e+03,3.012833e+03
3.128939e+03,3.033583e+03
3.129903e+03,3.028193e+03
3.130868e+03,3.015063e+03
3.131832e+03,3.006728e+03
3.132796e+03,2.986303e+03
3.133760e+03,2.961127e+03
3.134725e+03,2.962771e+03
3.135689e+03,2.987556e+03
3.136653e+03,3.032968e+03
3.137617e+03,3.056525e+03
3.138582e+03,3.046603e+03
3.139546e+03,3.019499e+03
3.140510e+03,2.999320e+03
3.141474e+03,3.024583e+03
3.142438e+03,3.029201e+03
3.143403e+03,3.006292e+03
3.144367e+03,2.987726e+03
3.145331e+03,2.984523e+03
3.146295e+03,3.041825e+03
3.147260e+03,3.048486e+03
3.148224e+03,2.972817e+03
3.149188e+03,3.007529e+03
3.150152e+03,3.068373e+03
3.151116e+03,3.033760e+03
3.152081e+03,3.001049e+03
3.153045e+03,3.007437e+03
3.154009e+03,3.000944e+03
3.154973e+03,2.994235e+03
3.155938e+03,3.019138e+03
3.156902e+03,3.031028e+03
3.157866e+03,3.015072e+03
3.158830e+03,3.009104e+03
3.159795e+03,3.016907e+03
3.160759e+03,3.022225e+03
3.161723e+03,3.021477e+03
3.162687e+03,3.014472e+03
3.163652e+03,3.010779e+03
3.164616e+03,3.009307e+03
3.165580e+03,2.994195e+03
3.166544e+03,2.994698e+03
3.167509e+03,3.022014e+03
3.168473e+03,3.019194e+03
3.169437e+03,2.996860e+03
3.170401e+03,3.004863e+03
3.171365e+03,3.017855e+03
3.172330e+03,3.027266e+03
3.173294e+03,3.059244e+03
3.174258e+03,3.092161e+03
3.175222e+03,3.078702e+03
3.176187e+03,3.050450e+03
3.177151e+03,3.031385e+03
3.178115e+03,3.019926e+03
3.179079e+03,3.020479e+03
3.180043e+03,3.052165e+03
3.181008e+03,3.059210e+03
3.181972e+03,3.029492e+03
3.182936e+03,2.996832e+03
3.183900e+03,2.974768e+03
3.184865e+03,3.012474e+03
3.185829e+03,3.042113e+03
3.186793e+03,3.015613e+03
3.187757e+03,3.038792e+03
3.188722e+03,3.083166e+03
3.189686e+03,3.091625e+03
3.190650e+03,3.068714e+03
3.191614e+03,3.022024e+03
3.192579e+03,3.006269e+03
3.193543e+03,3.016960e+03
3.194507e+03,3.043565e+03
3.195471e+03,3.055300e+03
3.196436e+03,3.032811e+03
3.197400e+03,3.041798e+03
3.198364e+03,3.058050e+03
3.199328e+03,3.038373e+03
3.200292e+03,3.034258e+03
3.201257e+03,0.000000e+00
3.202221e+03,0.000000e+00
3.203185e+03,0.000000e+00
3.204149e+03,0.000000e+00
3.205114e+03,0.000000e+00
3.206078e+03,0.000000e+00
3.207042e+03,0.000000e+00
3.208006e+03,0.000000e+00
3.208970e+03,0.000000e+00
3.209935e+03,0.000000e+00
3.210899e+03,0.000000e+00
3.211863e+03,0.000000e+00
3.212827e+03,0.000000e+00
3.213792e+03,0.000000e+00
3.214756e+03,0.000000e+00
3.215720e+03,0.000000e+00
3.216684e+03,0.000000e+00
3.217649e+03,0.000000e+00
3.218613e+03,0.000000e+00
3.219577e+03,0.000000e+00
3.220541e+03,0.000000e+00
3.221506e+03,0.000000e+00
3.222470e+03,0.000000e+00
3.223434e+03,0.000000e+00
3.224398e+03,0.000000e+00
3.225363e+03,0.000000e+00
3.226327e+03,0.000000e+00
3.227291e+03,0.000000e+00
3.228255e+03,0.000000e+00
3.229219e+03,0.000000e+00
3.230184e+03,0.000000e+00
3.231148e+03,0.000000e+00
3.232112e+03,0.000000e+00
3.233076e+03,0.000000e+00
3.234041e+03,0.000000e+00
3.235005e+03,0.000000e+00
3.235969e+03,0.000000e+00
3.236933e+03,0.000000e+00
3.237897e+03,0.000000e+00
3.238862e+03,0.000000e+00
3.239826e+03,0.000000e+00
3.240790e+03,0.000000e+00
3.241754e+03,0.000000e+00
3.242719e+03,0.000000e+00
3.243683e+03,0.000000e+00
3.244647e+03,0.000000e+00
3.245611e+03,0.000000e+00
3.246576e+03,0.000000e+00
3.247540e+03,0.000000e+00
3.248504e+03,0.000000e+00
3.249468e+03,0.000000e+00
3.250433e+03,0.000000e+00
3.251397e+03,0.000000e+00
3.252361e+03,0.000000e+00
3.253325e+03,0.000000e+00
3.254290e+03,0.000000e+00
3.255254e+03,0.000000e+00
3.256218e+03,0.000000e+00
3.257182e+03,0.000000e+00
3.258146e+03,0.000000e+00
3.259111e+03,0.000000e+00
3.260075e+03,0.000000e+00
3.261039e+03,0.000000e+00
3.262003e+03,0.000000e+00
3.262968e+03,0.000000e+00
3.263932e+03,0.000000e+00
3.264896e+03,0.000000e+00
3.265860e+03,0.000000e+00
3.266824e+03,0.000000e+00
3.267789e+03,0.000000e+00
3.268753e+03,0.000000e+00
3.269717e+03,0.000000e+00
3.270681e+03,0.000000e+00
3.271646e+03,0.000000e+00
3.272610e+03,0.000000e+00
3.273574e+03,0.000000e+00
3.274538e+03,0.000000e+00
3.275503e+03,0.000000e+00
3.276467e+03,0.000000e+00
3.277431e+03,0.000000e+00
3.278395e+03,0.000000e+00
3.279360e+03,0.000000e+00
3.280324e+03,0.000000e+00
3.281288e+03,0.000000e+00
3.282252e+03,0.000000e+00
3.283217e+03,0.000000e+00
3.284181e+03,0.000000e+00
3.285145e+03,0.000000e+00
3.286109e+03,0.000000e+00
3.287073e+03,0.000000e+00
3.288038e+03,0.000000e+00
3.289002e+03,0.000000e+00
3.289966e+03,0.000000e+00
3.290930e+03,0.000000e+00
3.291895e+03,0.000000e+00
3.292859e+03,0.000000e+00
3.293823e+03,0.000000e+00
3.294787e+03,0.000000e+00
3.295751e+03,0.000000e+00
3.296716e+03,0.000000e+00
3.297680e+03,0.000000e+00
3.298644e+03,0.000000e+00
3.299608e+03,0.000000e+00
3.300573e+03,0.000000e+00
3.301537e+03,0.000000e+00
3.302501e+03,0.000000e+00
3.303465e+03,0.000000e+00
3.304430e+03,0.000000e+00
3.305394e+03,0.000000e+00
3.306358e+03,0.000000e+00
3.307322e+03,0.000000e+00
3.308287e+03,0.000000e+00
3.309251e+03,0.000000e+00
3.310215e+03,0.000000e+00
3.311179e+03,0.000000e+00
3.312144e+03,0.000000e+00
3.313108e+03,0.000000e+00
3.314072e+03,0.000000e+00
3.315036e+03,0.000000e+00
3.316000e+03,0.000000e+00
3.316965e+03,0.000000e+00
3.317929e+03,0.000000e+00
3.318893e+03,0.000000e+00
3.319857e+03,0.000000e+00
3.320822e+03,0.000000e+00
3.321786e+03,0.000000e+00
3.322750e+03,0.000000e+00
3.323714e+03,0.000000e+00
3.324678e+03,0.000000e+00
3.325643e+03,0.000000e+00
3.326607e+03,0.000000e+00
3.327571e+03,0.000000e+00
3.328535e+03,0.000000e+00
3.329500e+03,0.000000e+00
3.330464e+03,0.000000e+00
3.331428e+03,0.000000e+00
3.332392e+03,0.000000e+00
3.333357e+03,0.000000e+00
3.334321e+03,0.000000e+00
3.335285e+03,0.000000e+00
3.336249e+03,0.000000e+00
3.337214e+03,0.000000e+00
3.338178e+03,0.000000e+00
3.339142e+03,0.000000e+00
3.340106e+03,0.000000e+00
3.341071e+03,0.000000e+00
3.342035e+03,0.000000e+00
3.342999e+03,0.000000e+00
3.343963e+03,0.000000e+00
3.344927e+03,0.000000e+00
3.345892e+03,0.000000e+00
3.346856e+03,0.000000e+00
3.347820e+03,0.000000e+00
3.348784e+03,0.000000e+00
3.349749e+03,0.000000e+00
3.350713e+03,0.000000e+00
3.351677e+03,0.000000e+00
3.352641e+03,0.000000e+00
3.353605e+03,0.000000e+00
3.354570e+03,0.000000e+00
3.355534e+03,0.000000e+00
3.356498e+03,0.000000e+00
3.357462e+03,0.000000e+00
3.358427e+03,0.000000e+00
3.359391e+03,0.000000e+00
3.360355e+03,0.000000e+00
3.361319e+03,0.000000e+00
3.362284e+03,0.000000e+00
3.363248e+03,0.000000e+00
3.364212e+03,0.000000e+00
3.365176e+03,0.000000e+00
3.366141e+03,0.000000e+00
3.367105e+03,0.000000e+00
3.368069e+03,0.000000e+00
3.369033e+03,0.000000e+00
3.369998e+03,0.000000e+00
3.370962e+03,0.000000e+00
3.371926e+03,0.000000e+00
3.372890e+03,0.000000e+00
3.373854e+03,0.000000e+00
3.374819e+03,0.000000e+00
3.375783e+03,0.000000e+00
3.376747e+03,0.000000e+00
3.377711e+03,0.000000e+00
3.378676e+03,0.000000e+00
3.379640e+03,0.000000e+00
3.380604e+03,0.000000e+00
3.381568e+03,0.000000e+00
3.382532e+03,0.000000e+00
3.383497e+03,0.000000e+00
3.384461e+03,0.000000e+00
3.385425e+03,0.000000e+00
3.386389e+03,0.000000e+00
3.387354e+03,0.000000e+00
3.388318e+03,0.000000e+00
3.389282e+03,0.000000e+00
3.390246e+03,0.000000e+00
3.391211e+03,0.000000e+00
3.392175e+03,0.000000e+00
3.393139e+03,0.000000e+00
3.394103e+03,0.000000e+00
3.395068e+03,0.000000e+00
3.396032e+03,0.000000e+00
3.396996e+03,0.000000e+00
3.397960e+03,0.000000e+00
3.398925e+03,0.000000e+00
3.399889e+03,0.000000e+00
3.400853e+03,0.000000e+00
3.401817e+03,0.000000e+00
3.402781e+03,0.000000e+00
3.403746e+03,0.000000e+00
3.404710e+03,0.000000e+00
3.405674e+03,0.000000e+00
3.406638e+03,0.000000e+00
3.407603e+03,0.000000e+00
3.408567e+03,0.000000e+00
3.409531e+03,0.000000e+00
3.410495e+03,0.000000e+00
3.411459e+03,0.000000e+00
3.412424e+03,0.000000e+00
3.413388e+03,0.000000e+00
3.414352e+03,0.000000e+00
3.415316e+03,0.000000e+00
3.416281e+03,0.000000e+00
3.417245e+03,0.000000e+00
3.418209e+03,0.000000e+00
3.419173e+03,0.000000e+00
3.420138e+03,0.000000e+00
3.421102e+03,0.000000e+00
3.422066e+03,0.000000e+00
3.423030e+03,0.000000e+00
3.423995e+03,0.000000e+00
3.424959e+03,0.000000e+00
3.425923e+03,0.000000e+00
3.426887e+03,0.000000e+00
3.427852e+03,0.000000e+00
3.428816e+03,0.000000e+00
3.429780e+03,0.000000e+00
3.430744e+03,0.000000e+00
3.431708e+03,0.000000e+00
3.432673e+03,0.000000e+00
3.433637e+03,0.000000e+00
3.434601e+03,0.000000e+00
3.435565e+03,0.000000e+00
3.436530e+03,0.000000e+00
3.437494e+03,0.000000e+00
3.438458e+03,0.000000e+00
3.439422e+03,0.000000e+00
3.440386e+03,0.000000e+00
3.441351e+03,0.000000e+00
3.442315e+03,0.000000e+00
3.443279e+03,0.000000e+00
3.444243e+03,0.000000e+00
3.445208e+03,0.000000e+00
3.446172e+03,0.000000e+00
3.447136e+03,0.000000e+00
3.448100e+03,0.000000e+00
3.449065e+03,0.000000e+00
3.450029e+03,0.000000e+00
3.450993e+03,0.000000e+00
3.451957e+03,0.000000e+00
3.452922e+03,0.000000e+00
3.453886e+03,0.000000e+00
3.454850e+03,0.000000e+00
3.455814e+03,0.000000e+00
3.456779e+03,0.000000e+00
3.457743e+03,0.000000e+00
3.458707e+03,0.000000e+00
3.459671e+03,0.000000e+00
3.460635e+03,0.000000e+00
3.461600e+03,0.000000e+00
3.462564e+03,0.000000e+00
3.463528e+03,0.000000e+00
3.464492e+03,0.000000e+00
3.465457e+03,0.000000e+00
3.466421e+03,0.000000e+00
3.467385e+03,0.000000e+00
3.468349e+03,0.000000e+00
3.469313e+03,0.000000e+00
3.470278e+03,0.000000e+00
3.471242e+03,0.000000e+00
3.472206e+03,0.000000e+00
3.473170e+03,0.000000e+00
3.474135e+03,0.000000e+00
3.475099e+03,0.000000e+00
3.476063e+03,0.000000e+00
3.477027e+03,0.000000e+00
3.477992e+03,0.000000e+00
3.478956e+03,0.000000e+00
3.479920e+03,0.000000e+00
3.480884e+03,0.000000e+00
3.481849e+03,0.000000e+00
3.482813e+03,0.000000e+00
3.483777e+03,0.000000e+00
3.484741e+03,0.000000e+00
3.485706e+03,0.000000e+00
3.486670e+03,0.000000e+00
3.487634e+03,0.000000e+00
3.488598e+03,0.000000e+00
3.489563e+03,0.000000e+00
3.490527e+03,0.000000e+00
3.491491e+03,0.000000e+00
3.492455e+03,0.000000e+00
3.493419e+03,0.000000e+00
3.494384e+03,0.000000e+00
3.495348e+03,0.000000e+00
3.496312e+03,0.000000e+00
3.497276e+03,0.000000e+00
3.498240e+03,0.000000e+00
3.499205e+03,0.000000e+00
3.500169e+03,0.000000e+00
