9.931763e+01,0.000000e+00
1.002819e+02,0.000000e+00
1.012461e+02,0.000000e+00
1.022103e+02,0.000000e+00
1.031746e+02,0.000000e+00
1.041388e+02,0.000000e+00
1.051030e+02,0.000000e+00
1.060673e+02,0.000000e+00
1.070315e+02,0.000000e+00
1.079957e+02,0.000000e+00
1.089600e+02,0.000000e+00
1.099242e+02,0.000000e+00
1.108884e+02,0.000000e+00
1.118527e+02,0.000000e+00
1.128169e+02,0.000000e+00
1.137811e+02,0.000000e+00
1.147454e+02,0.000000e+00
1.157096e+02,0.000000e+00
1.166738e+02,0.000000e+00
1.176381e+02,0.000000e+00
1.186023e+02,0.000000e+00
1.195665e+02,0.000000e+00
1.205308e+02,0.000000e+00
1.214950e+02,0.000000e+00
1.224592e+02,0.000000e+00
1.234235e+02,0.000000e+00
1.243877e+02,0.000000e+00
1.253519e+02,0.000000e+00
1.263162e+02,0.000000e+00
1.272804e+02,0.000000e+00
1.282446e+02,0.000000e+00
1.292089e+02,0.000000e+00
1.301731e+02,0.000000e+00
1.311373e+02,0.000000e+00
1.321016e+02,0.000000e+00
1.330658e+02,0.000000e+00
1.340300e+02,0.000000e+00
1.349943e+02,0.000000e+00
1.359585e+02,0.000000e+00
1.369227e+02,0.000000e+00
1.378870e+02,0.000000e+00
1.388512e+02,0.000000e+00
1.398154e+02,0.000000e+00
1.407797e+02,0.000000e+00
1.417439e+02,0.000000e+00
1.427081e+02,0.000000e+00
1.436724e+02,0.000000e+00
1.446366e+02,0.000000e+00
1.456008e+02,0.000000e+00
1.465651e+02,0.000000e+00
1.475293e+02,0.000000e+00
1.484935e+02,0.000000e+00
1.494578e+02,0.000000e+00
1.504220e+02,0.000000e+00
1.513862e+02,0.000000e+00
1.523505e+02,0.000000e+00
1.533147e+02,0.000000e+00
1.542789e+02,0.000000e+00
1.552432e+02,0.000000e+00
1.562074e+02,0.000000e+00
1.571716e+02,0.000000e+00
1.581359e+02,0.000000e+00
1.591001e+02,0.000000e+00
1.600643e+02,0.000000e+00
1.610286e+02,0.000000e+00
1.619928e+02,0.000000e+00
1.629570e+02,0.000000e+00
1.639213e+02,0.000000e+00
1.648855e+02,0.000000e+00
1.658497e+02,0.000000e+00
1.668140e+02,0.000000e+00
1.677782e+02,0.000000e+00
1.687424e+02,0.000000e+00
1.697067e+02,0.000000e+00
1.706709e+02,0.000000e+00
1.716351e+02,0.000000e+00
1.725994e+02,0.000000e+00
1.735636e+02,0.000000e+00
1.745278e+02,0.000000e+00
1.754921e+02,0.000000e+00
1.764563e+02,0.000000e+00
1.774205e+02,0.000000e+00
1.783848e+02,0.000000e+00
1.793490e+02,0.000000e+00
1.803132e+02,0.000000e+00
1.812775e+02,0.000000e+00
1.822417e+02,0.000000e+00
1.832059e+02,0.000000e+00
1.841702e+02,0.000000e+00
1.851344e+02,0.000000e+00
1.860986e+02,0.000000e+00
1.870629e+02,0.000000e+00
1.880271e+02,0.000000e+00
1.889913e+02,0.000000e+00
1.899556e+02,0.000000e+00
1.909198e+02,0.000000e+00
1.918840e+02,0.000000e+00
1.928483e+02,0.000000e+00
1.938125e+02,0.000000e+00
1.947767e+02,0.000000e+00
1.957410e+02,0.000000e+00
1.967052e+02,0.000000e+00
1.976694e+02,0.000000e+00
1.986337e+02,0.000000e+00
1.995979e+02,1.657076e+03
2.005621e+02,1.657874e+03
2.015264e+02,1.659279e+03
2.024906e+02,1.661216e+03
2.034548e+02,1.663877e+03
2.044191e+02,1.667986e+03
2.053833e+02,1.672686e+03
2.063475e+02,1.676061e+03
2.073118e+02,1.675486e+03
2.082760e+02,1.668858e+03
2.092402e+02,1.664843e+03
2.102045e+02,1.667386e+03
2.111687e+02,1.672012e+03
2.121329e+02,1.675125e+03
2.130972e+02,1.674549e+03
2.140614e+02,1.671552e+03
2.150256e+02,1.670123e+03
2.159899e+02,1.671115e+03
2.169541e+02,1.673057e+03
2.179183e+02,1.676019e+03
2.188826e+02,1.679536e+03
2.198468e+02,1.682595e+03
2.208110e+02,1.684106e+03
2.217753e+02,1.683902e+03
2.227395e+02,1.683489e+03
2.237037e+02,1.684302e+03
2.246680e+02,1.685411e+03
2.256322e+02,1.685621e+03
2.265964e+02,1.685191e+03
2.275607e+02,1.684464e+03
2.285249e+02,1.683049e+03
2.294892e+02,1.680573e+03
2.304534e+02,1.679489e+03
2.314176e+02,1.681455e+03
2.323819e+02,1.685538e+03
2.333461e+02,1.689555e+03
2.343103e+02,1.693924e+03
2.352746e+02,1.698124e+03
2.362388e+02,1.700792e+03
2.372030e+02,1.701194e+03
2.381673e+02,1.699074e+03
2.391315e+02,1.694977e+03
2.400957e+02,1.686988e+03
2.410600e+02,1.681060e+03
2.420242e+02,1.681223e+03
2.429884e+02,1.686574e+03
2.439527e+02,1.692729e+03
2.449169e+02,1.696365e+03
2.458811e+02,1.696770e+03
2.468454e+02,1.697450e+03
2.478096e+02,1.698124e+03
2.487738e+02,1.699260e+03
2.497381e+02,1.701495e+03
2.507023e+02,1.704916e+03
2.516665e+02,1.708692e+03
2.526308e+02,1.711386e+03
2.535950e+02,1.711867e+03
2.545592e+02,1.710935e+03
2.555235e+02,1.706972e+03
2.564877e+02,1.702500e+03
2.574519e+02,1.700981e+03
2.584161e+02,1.705106e+03
2.593804e+02,1.714412e+03
2.603446e+02,1.721221e+03
2.613088e+02,1.722005e+03
2.622731e+02,1.722117e+03
2.632373e+02,1.722996e+03
2.642015e+02,1.724269e+03
2.651658e+02,1.724965e+03
2.661300e+02,1.724297e+03
2.670942e+02,1.722418e+03
2.680585e+02,1.721571e+03
2.690227e+02,1.723315e+03
2.699869e+02,1.725575e+03
2.709512e+02,1.726761e+03
2.719154e+02,1.726795e+03
2.728796e+02,1.726308e+03
2.738439e+02,1.725776e+03
2.748081e+02,1.725347e+03
2.757723e+02,1.726344e+03
2.767366e+02,1.728252e+03
2.777008e+02,1.730302e+03
2.786650e+02,1.733122e+03
2.796293e+02,1.739427e+03
2.805935e+02,1.746999e+03
2.815577e+02,1.751096e+03
2.825220e+02,1.749963e+03
2.834862e+02,1.745953e+03
2.844504e+02,1.743518e+03
2.854147e+02,1.743689e+03
2.863789e+02,1.744300e+03
2.873431e+02,1.745469e+03
2.883074e+02,1.747277e+03
2.892716e+02,1.749334e+03
2.902358e+02,1.751203e+03
2.912001e+02,1.752661e+03
2.921643e+02,1.752610e+03
2.931285e+02,1.749822e+03
2.940928e+02,1.747537e+03
2.950570e+02,1.747209e+03
2.960212e+02,1.748445e+03
2.969855e+02,1.749809e+03
2.979497e+02,1.749929e+03
2.989139e+02,1.748457e+03
2.998782e+02,1.747622e+03
3.008424e+02,1.748542e+03
3.018066e+02,1.750559e+03
3.027709e+02,1.752718e+03
3.037351e+02,1.754450e+03
3.046993e+02,1.755659e+03
3.056636e+02,1.756705e+03
3.066278e+02,1.758168e+03
3.075920e+02,1.758941e+03
3.085563e+02,1.757774e+03
3.095205e+02,1.755837e+03
3.104847e+02,1.755035e+03
3.114490e+02,1.755494e+03
3.124132e+02,1.756973e+03
3.133774e+02,1.760046e+03
3.143417e+02,1.765494e+03
3.153059e+02,1.770468e+03
3.162701e+02,1.771391e+03
3.172344e+02,1.767186e+03
3.181986e+02,1.764132e+03
3.191628e+02,1.764613e+03
3.201271e+02,1.767664e+03
3.210913e+02,1.771426e+03
3.220555e+02,1.775045e+03
3.230198e+02,1.778402e+03
3.239840e+02,1.781587e+03
3.249482e+02,1.785773e+03
3.259125e+02,1.788473e+03
3.268767e+02,1.788436e+03
3.278409e+02,1.786199e+03
3.288052e+02,1.783180e+03
3.297694e+02,1.780225e+03
3.307336e+02,1.777058e+03
3.316979e+02,1.775271e+03
3.326621e+02,1.775781e+03
3.336263e+02,1.776720e+03
3.345906e+02,1.777495e+03
3.355548e+02,1.778492e+03
3.365190e+02,1.780134e+03
3.374833e+02,1.782799e+03
3.384475e+02,1.786484e+03
3.394117e+02,1.789806e+03
3.403760e+02,1.791699e+03
3.413402e+02,1.792400e+03
3.423044e+02,1.792589e+03
3.432687e+02,1.791415e+03
3.442329e+02,1.790158e+03
3.451971e+02,1.789592e+03
3.461614e+02,1.789281e+03
3.471256e+02,1.788905e+03
3.480898e+02,1.789034e+03
3.490541e+02,1.790665e+03
3.500183e+02,1.791411e+03
3.509825e+02,1.790922e+03
3.519468e+02,1.790604e+03
3.529110e+02,1.791200e+03
3.538752e+02,1.792555e+03
3.548395e+02,1.794117e+03
3.558037e+02,1.795421e+03
3.567680e+02,1.796135e+03
3.577322e+02,1.797296e+03
3.586964e+02,1.800311e+03
3.596607e+02,1.804153e+03
3.606249e+02,1.807099e+03
3.615891e+02,1.807322e+03
3.625534e+02,1.805279e+03
3.635176e+02,1.803539e+03
3.644818e+02,1.803178e+03
3.654461e+02,1.802544e+03
3.664103e+02,1.800523e+03
3.673745e+02,1.798294e+03
3.683388e+02,1.798284e+03
3.693030e+02,1.800827e+03
3.702672e+02,1.804927e+03
3.712315e+02,1.810096e+03
3.721957e+02,1.816372e+03
3.731599e+02,1.822119e+03
3.741242e+02,1.825419e+03
3.750884e+02,1.825703e+03
3.760526e+02,1.826229e+03
3.770169e+02,1.825740e+03
3.779811e+02,1.825546e+03
3.789453e+02,1.828383e+03
3.799096e+02,1.836325e+03
3.808738e+02,1.846092e+03
3.818380e+02,1.844941e+03
3.828023e+02,1.823037e+03
3.837665e+02,1.804755e+03
3.847307e+02,1.797685e+03
3.856950e+02,1.799179e+03
3.866592e+02,1.802741e+03
3.876234e+02,1.806128e+03
3.885877e+02,1.808796e+03
3.895519e+02,1.808768e+03
3.905161e+02,1.804661e+03
3.914804e+02,1.799546e+03
3.924446e+02,1.797240e+03
3.934088e+02,1.798667e+03
3.943731e+02,1.800151e+03
3.953373e+02,1.800638e+03
3.963015e+02,1.800488e+03
3.972658e+02,1.799812e+03
3.982300e+02,1.798680e+03
3.991942e+02,1.798526e+03
4.001585e+02,1.801989e+03
4.011227e+02,1.815413e+03
4.020869e+02,1.823801e+03
4.030512e+02,1.820499e+03
4.040154e+02,1.810925e+03
4.049796e+02,1.803877e+03
4.059439e+02,1.805598e+03
4.069081e+02,1.813530e+03
4.078723e+02,1.818439e+03
4.088366e+02,1.819003e+03
4.098008e+02,1.817393e+03
4.107650e+02,1.815840e+03
4.117293e+02,1.814527e+03
4.126935e+02,1.812708e+03
4.136577e+02,1.809285e+03
4.146220e+02,1.805364e+03
4.155862e+02,1.802042e+03
4.165504e+02,1.799421e+03
4.175147e+02,1.798820e+03
4.184789e+02,1.802300e+03
4.194431e+02,1.818118e+03
4.204074e+02,1.827801e+03
4.213716e+02,1.828142e+03
4.223358e+02,1.823304e+03
4.233001e+02,1.817003e+03
4.242643e+02,1.810486e+03
4.252285e+02,1.804911e+03
4.261928e+02,1.802941e+03
4.271570e+02,1.805760e+03
4.281212e+02,1.810056e+03
4.290855e+02,1.814368e+03
4.300497e+02,1.818712e+03
4.310139e+02,1.823609e+03
4.319782e+02,1.831108e+03
4.329424e+02,1.838801e+03
4.339066e+02,1.843221e+03
4.348709e+02,1.843852e+03
4.358351e+02,1.842957e+03
4.367993e+02,1.842818e+03
4.377636e+02,1.844303e+03
4.387278e+02,1.844519e+03
4.396920e+02,1.843710e+03
4.406563e+02,1.842045e+03
4.416205e+02,1.838675e+03
4.425847e+02,1.833396e+03
4.435490e+02,1.828305e+03
4.445132e+02,1.826899e+03
4.454774e+02,1.830251e+03
4.464417e+02,1.833526e+03
4.474059e+02,1.835136e+03
4.483701e+02,1.835609e+03
4.493344e+02,1.836008e+03
4.502986e+02,1.837850e+03
4.512628e+02,1.839072e+03
4.522271e+02,1.836958e+03
4.531913e+02,1.832364e+03
4.541555e+02,1.829402e+03
4.551198e+02,1.831049e+03
4.560840e+02,1.837416e+03
4.570482e+02,1.839355e+03
4.580125e+02,1.832968e+03
4.589767e+02,1.827601e+03
4.599409e+02,1.826938e+03
4.609052e+02,1.829653e+03
4.618694e+02,1.831556e+03
4.628336e+02,1.828104e+03
4.637979e+02,1.820249e+03
4.647621e+02,1.816581e+03
4.657263e+02,1.820436e+03
4.666906e+02,1.826505e+03
4.676548e+02,1.828428e+03
4.686190e+02,1.824817e+03
4.695833e+02,1.821202e+03
4.705475e+02,1.818369e+03
4.715117e+02,1.816537e+03
4.724760e+02,1.816643e+03
4.734402e+02,1.819263e+03
4.744044e+02,1.823200e+03
4.753687e+02,1.825595e+03
4.763329e+02,1.826608e+03
4.772971e+02,1.825701e+03
4.782614e+02,1.820559e+03
4.792256e+02,1.814436e+03
4.801898e+02,1.811341e+03
4.811541e+02,1.813995e+03
4.821183e+02,1.819159e+03
4.830826e+02,1.822761e+03
4.840468e+02,1.824633e+03
4.850110e+02,1.824813e+03
4.859753e+02,1.822824e+03
4.869395e+02,1.818360e+03
4.879037e+02,1.816846e+03
4.888680e+02,1.821760e+03
4.898322e+02,1.827010e+03
4.907964e+02,1.829145e+03
4.917607e+02,1.828384e+03
4.927249e+02,1.827105e+03
4.936891e+02,1.827744e+03
4.946534e+02,1.830429e+03
4.956176e+02,1.831664e+03
4.965818e+02,1.829963e+03
4.975461e+02,1.828237e+03
4.985103e+02,1.829006e+03
4.994745e+02,1.832722e+03
5.004388e+02,1.835292e+03
5.014030e+02,1.834574e+03
5.023672e+02,1.832264e+03
5.033315e+02,1.830973e+03
5.042957e+02,1.831462e+03
5.052599e+02,1.832685e+03
5.062242e+02,1.832881e+03
5.071884e+02,1.831815e+03
5.081526e+02,1.830805e+03
5.091169e+02,1.830023e+03
5.100811e+02,1.829872e+03
5.110453e+02,1.830430e+03
5.120095e+02,1.832015e+03
5.129738e+02,1.834481e+03
5.139380e+02,1.837575e+03
5.149022e+02,1.841357e+03
5.158665e+02,1.846051e+03
5.168307e+02,1.852022e+03
5.177949e+02,1.858182e+03
5.187592e+02,1.858836e+03
5.197234e+02,1.852183e+03
5.206876e+02,1.845325e+03
5.216519e+02,1.839998e+03
5.226161e+02,1.836828e+03
5.235803e+02,1.836379e+03
5.245446e+02,1.841324e+03
5.255088e+02,1.850363e+03
5.264730e+02,1.853789e+03
5.274373e+02,1.849194e+03
5.284015e+02,1.842771e+03
5.293657e+02,1.840101e+03
5.303300e+02,1.841970e+03
5.312942e+02,1.841186e+03
5.322584e+02,1.834165e+03
5.332227e+02,1.826374e+03
5.341869e+02,1.822690e+03
5.351511e+02,1.823719e+03
5.361154e+02,1.826845e+03
5.370796e+02,1.828921e+03
5.380438e+02,1.829701e+03
5.390081e+02,1.831635e+03
5.399723e+02,1.837438e+03
5.409365e+02,1.843415e+03
5.419008e+02,1.845387e+03
5.428650e+02,1.840638e+03
5.438292e+02,1.834995e+03
5.447935e+02,1.830953e+03
5.457577e+02,1.828379e+03
5.467219e+02,1.827413e+03
5.476862e+02,1.828430e+03
5.486504e+02,1.830364e+03
5.496146e+02,1.830074e+03
5.505789e+02,1.826001e+03
5.515431e+02,1.821862e+03
5.525073e+02,1.819265e+03
5.534716e+02,1.818117e+03
5.544358e+02,1.817301e+03
5.554000e+02,1.814357e+03
5.563643e+02,1.811887e+03
5.573285e+02,1.812552e+03
5.582927e+02,1.815992e+03
5.592570e+02,1.821396e+03
5.602212e+02,1.829318e+03
5.611854e+02,1.839536e+03
5.621497e+02,1.845521e+03
5.631139e+02,1.844431e+03
5.640781e+02,1.840514e+03
5.650424e+02,1.833102e+03
5.660066e+02,1.823967e+03
5.669708e+02,1.817983e+03
5.679351e+02,1.821538e+03
5.688993e+02,1.829442e+03
5.698635e+02,1.831216e+03
5.708278e+02,1.825901e+03
5.717920e+02,1.820420e+03
5.727562e+02,1.821095e+03
5.737205e+02,1.830699e+03
5.746847e+02,1.835382e+03
5.756489e+02,1.830467e+03
5.766132e+02,1.824426e+03
5.775774e+02,1.822508e+03
5.785416e+02,1.825315e+03
5.795059e+02,1.828505e+03
5.804701e+02,1.829222e+03
5.814343e+02,1.827688e+03
5.823986e+02,1.823946e+03
5.833628e+02,1.817427e+03
5.843270e+02,1.810988e+03
5.852913e+02,1.808299e+03
5.862555e+02,1.811283e+03
5.872197e+02,1.815441e+03
5.881840e+02,1.822654e+03
5.891482e+02,1.829581e+03
5.901124e+02,1.833391e+03
5.910767e+02,1.833051e+03
5.920409e+02,1.830985e+03
5.930051e+02,1.829210e+03
5.939694e+02,1.827478e+03
5.949336e+02,1.825195e+03
5.958978e+02,1.822146e+03
5.968621e+02,1.818603e+03
5.978263e+02,1.815288e+03
5.987905e+02,1.811558e+03
5.997548e+02,1.809477e+03
6.007190e+02,1.809450e+03
6.016832e+02,1.811429e+03
6.026475e+02,1.815244e+03
6.036117e+02,1.821199e+03
6.045759e+02,1.827337e+03
6.055402e+02,1.831583e+03
6.065044e+02,1.833746e+03
6.074686e+02,1.834129e+03
6.084329e+02,1.832879e+03
6.093971e+02,1.830588e+03
6.103613e+02,1.829287e+03
6.113256e+02,1.830453e+03
6.122899e+02,1.831250e+03
6.132541e+02,1.832084e+03
6.142183e+02,1.832037e+03
6.151826e+02,1.829682e+03
6.161468e+02,1.821713e+03
6.171110e+02,1.813623e+03
6.180753e+02,1.812948e+03
6.190395e+02,1.818820e+03
6.200037e+02,1.824681e+03
6.209680e+02,1.826617e+03
6.219322e+02,1.825039e+03
6.228964e+02,1.823255e+03
6.238607e+02,1.819400e+03
6.248249e+02,1.817097e+03
6.257891e+02,1.818418e+03
6.267534e+02,1.821576e+03
6.277176e+02,1.822506e+03
6.286818e+02,1.816685e+03
6.296461e+02,1.810410e+03
6.306103e+02,1.812516e+03
6.315745e+02,1.822288e+03
6.325388e+02,1.830752e+03
6.335030e+02,1.830020e+03
6.344672e+02,1.819416e+03
6.354315e+02,1.811632e+03
6.363957e+02,1.806064e+03
6.373599e+02,1.803385e+03
6.383242e+02,1.805464e+03
6.392884e+02,1.811955e+03
6.402526e+02,1.817500e+03
6.412169e+02,1.820264e+03
6.421811e+02,1.821342e+03
6.431453e+02,1.820980e+03
6.441096e+02,1.819517e+03
6.450738e+02,1.818511e+03
6.460380e+02,1.820340e+03
6.470023e+02,1.825503e+03
6.479665e+02,1.828872e+03
6.489307e+02,1.829850e+03
6.498950e+02,1.828801e+03
6.508592e+02,1.824325e+03
6.518234e+02,1.815526e+03
6.527877e+02,1.810238e+03
6.537519e+02,1.812844e+03
6.547161e+02,1.817403e+03
6.556804e+02,1.820274e+03
6.566446e+02,1.820889e+03
6.576088e+02,1.819520e+03
6.585731e+02,1.815057e+03
6.595373e+02,1.808253e+03
6.605015e+02,1.803588e+03
6.614658e+02,1.801561e+03
6.624300e+02,1.801579e+03
6.633942e+02,1.803309e+03
6.643585e+02,1.807623e+03
6.653227e+02,1.811157e+03
6.662869e+02,1.813242e+03
6.672512e+02,1.814542e+03
6.682154e+02,1.815596e+03
6.691796e+02,1.816243e+03
6.701439e+02,1.815985e+03
6.711081e+02,1.813979e+03
6.720723e+02,1.810990e+03
6.730366e+02,1.809221e+03
6.740008e+02,1.809339e+03
6.749650e+02,1.809130e+03
6.759293e+02,1.804947e+03
6.768935e+02,1.793489e+03
6.778577e+02,1.788707e+03
6.788220e+02,1.797315e+03
6.797862e+02,1.808676e+03
6.807504e+02,1.815179e+03
6.817147e+02,1.815372e+03
6.826789e+02,1.813750e+03
6.836431e+02,1.810113e+03
6.846074e+02,1.805666e+03
6.855716e+02,1.801996e+03
6.865358e+02,1.799773e+03
6.875001e+02,1.799068e+03
6.884643e+02,1.800422e+03
6.894285e+02,1.803880e+03
6.903928e+02,1.806629e+03
6.913570e+02,1.808360e+03
6.923212e+02,1.808787e+03
6.932855e+02,1.807736e+03
6.942497e+02,1.804988e+03
6.952139e+02,1.802746e+03
6.961782e+02,1.799935e+03
6.971424e+02,1.797929e+03
6.981066e+02,1.797444e+03
6.990709e+02,1.797961e+03
7.000351e+02,1.798644e+03
7.009993e+02,1.801370e+03
7.019636e+02,1.804902e+03
7.029278e+02,1.804586e+03
7.038920e+02,1.799273e+03
7.048563e+02,1.792530e+03
7.058205e+02,1.789278e+03
7.067847e+02,1.791105e+03
7.077490e+02,1.793562e+03
7.087132e+02,1.797976e+03
7.096774e+02,1.803413e+03
7.106417e+02,1.808204e+03
7.116059e+02,1.812521e+03
7.125701e+02,1.813574e+03
7.135344e+02,1.808033e+03
7.144986e+02,1.801083e+03
7.154628e+02,1.797095e+03
7.164271e+02,1.796576e+03
7.173913e+02,1.797364e+03
7.183555e+02,1.798148e+03
7.193198e+02,1.798612e+03
7.202840e+02,1.797128e+03
7.212482e+02,1.793351e+03
7.222125e+02,1.789473e+03
7.231767e+02,1.787572e+03
7.241409e+02,1.788028e+03
7.251052e+02,1.787921e+03
7.260694e+02,1.787160e+03
7.270336e+02,1.785725e+03
7.279979e+02,1.783505e+03
7.289621e+02,1.780389e+03
7.299263e+02,1.778353e+03
7.308906e+02,1.779319e+03
7.318548e+02,1.780857e+03
7.328190e+02,1.779787e+03
7.337833e+02,1.776126e+03
7.347475e+02,1.773206e+03
7.357117e+02,1.776342e+03
7.366760e+02,1.784940e+03
7.376402e+02,1.788304e+03
7.386044e+02,1.784818e+03
7.395687e+02,1.779546e+03
7.405329e+02,1.776080e+03
7.414971e+02,1.774530e+03
7.424614e+02,1.773829e+03
7.434256e+02,1.775290e+03
7.443898e+02,1.778174e+03
7.453541e+02,1.781532e+03
7.463183e+02,1.784428e+03
7.472825e+02,1.786869e+03
7.482468e+02,1.790832e+03
7.492110e+02,1.793478e+03
7.501752e+02,1.791047e+03
7.511395e+02,1.784849e+03
7.521037e+02,1.779817e+03
7.530679e+02,1.780899e+03
7.540322e+02,1.786262e+03
7.549964e+02,1.784299e+03
7.559606e+02,1.773037e+03
7.569249e+02,1.762703e+03
7.578891e+02,1.760084e+03
7.588533e+02,1.765803e+03
7.598176e+02,1.770860e+03
7.607818e+02,1.773379e+03
7.617460e+02,1.774256e+03
7.627103e+02,1.774323e+03
7.636745e+02,1.774307e+03
7.646387e+02,1.774186e+03
7.656030e+02,1.773226e+03
7.665672e+02,1.772564e+03
7.675314e+02,1.772474e+03
7.684957e+02,1.771896e+03
7.694599e+02,1.770331e+03
7.704241e+02,1.768244e+03
7.713884e+02,1.766660e+03
7.723526e+02,1.767253e+03
7.733168e+02,1.770691e+03
7.742811e+02,1.774277e+03
7.752453e+02,1.775933e+03
7.762095e+02,1.775295e+03
7.771738e+02,1.773632e+03
7.781380e+02,1.766774e+03
7.791022e+02,1.762837e+03
7.800665e+02,1.767887e+03
7.810307e+02,1.776728e+03
7.819949e+02,1.780656e+03
7.829592e+02,1.773632e+03
7.839234e+02,1.766569e+03
7.848876e+02,1.764604e+03
7.858519e+02,1.765628e+03
7.868161e+02,1.766524e+03
7.877803e+02,1.765965e+03
7.887446e+02,1.764776e+03
7.897088e+02,1.764477e+03
7.906730e+02,1.765605e+03
7.916373e+02,1.767739e+03
7.926015e+02,1.770017e+03
7.935657e+02,1.771222e+03
7.945300e+02,1.771116e+03
7.954942e+02,1.770193e+03
7.964584e+02,1.768631e+03
7.974227e+02,1.768168e+03
7.983869e+02,1.768771e+03
7.993511e+02,1.768053e+03
8.003154e+02,1.762287e+03
8.012796e+02,1.758854e+03
8.022438e+02,1.763674e+03
8.032081e+02,1.769968e+03
8.041723e+02,1.770660e+03
8.051365e+02,1.763668e+03
8.061008e+02,1.756782e+03
8.070650e+02,1.756326e+03
8.080292e+02,1.759011e+03
8.089935e+02,1.760114e+03
8.099577e+02,1.759373e+03
8.109219e+02,1.758469e+03
8.118862e+02,1.759156e+03
8.128504e+02,1.761349e+03
8.138146e+02,1.762690e+03
8.147789e+02,1.762810e+03
8.157431e+02,1.761715e+03
8.167073e+02,1.759435e+03
8.176716e+02,1.756335e+03
8.186358e+02,1.755502e+03
8.196000e+02,1.759430e+03
8.205643e+02,1.763065e+03
8.215285e+02,1.763622e+03
8.224927e+02,1.761168e+03
8.234570e+02,1.757636e+03
8.244212e+02,1.750912e+03
8.253854e+02,1.745629e+03
8.263497e+02,1.744993e+03
8.273139e+02,1.747560e+03
8.282781e+02,1.750238e+03
8.292424e+02,1.752808e+03
8.302066e+02,1.754988e+03
8.311708e+02,1.755453e+03
8.321351e+02,1.754407e+03
8.330993e+02,1.752614e+03
8.340635e+02,1.749678e+03
8.350278e+02,1.746502e+03
8.359920e+02,1.746896e+03
8.369562e+02,1.751680e+03
8.379205e+02,1.756156e+03
8.388847e+02,1.759148e+03
8.398489e+02,1.760739e+03
8.408132e+02,1.760780e+03
8.417774e+02,1.757272e+03
8.427416e+02,1.754464e+03
8.437059e+02,1.753508e+03
8.446701e+02,1.753138e+03
8.456343e+02,1.752039e+03
8.465986e+02,1.749097e+03
8.475628e+02,1.746855e+03
8.485270e+02,1.746838e+03
8.494913e+02,1.747523e+03
8.504555e+02,1.747591e+03
8.514197e+02,1.746925e+03
8.523840e+02,1.746227e+03
8.533482e+02,1.745400e+03
8.543124e+02,1.744530e+03
8.552767e+02,1.744472e+03
8.562409e+02,1.745146e+03
8.572051e+02,1.745140e+03
8.581694e+02,1.742374e+03
8.591336e+02,1.737547e+03
8.600978e+02,1.737193e+03
8.610621e+02,1.742964e+03
8.620263e+02,1.748225e+03
8.629905e+02,1.747019e+03
8.639548e+02,1.738217e+03
8.649190e+02,1.732374e+03
8.658832e+02,1.732052e+03
8.668475e+02,1.732958e+03
8.678117e+02,1.733066e+03
8.687759e+02,1.732485e+03
8.697402e+02,1.733003e+03
8.707044e+02,1.733644e+03
8.716686e+02,1.734678e+03
8.726329e+02,1.738617e+03
8.735971e+02,1.743950e+03
8.745613e+02,1.747202e+03
8.755256e+02,1.746046e+03
8.764898e+02,1.744796e+03
8.774540e+02,1.745882e+03
8.784183e+02,1.748261e+03
8.793825e+02,1.750613e+03
8.803467e+02,1.752586e+03
8.813110e+02,1.753492e+03
8.822752e+02,1.751848e+03
8.832394e+02,1.748857e+03
8.842037e+02,1.747856e+03
8.851679e+02,1.749327e+03
8.861321e+02,1.751013e+03
8.870964e+02,1.750572e+03
8.880606e+02,1.747888e+03
8.890248e+02,1.741664e+03
8.899891e+02,1.730411e+03
8.909533e+02,1.721325e+03
8.919175e+02,1.721771e+03
8.928818e+02,1.734915e+03
8.938460e+02,1.742979e+03
8.948102e+02,1.743236e+03
8.957745e+02,1.740449e+03
8.967387e+02,1.735997e+03
8.977029e+02,1.729647e+03
8.986672e+02,1.726074e+03
8.996314e+02,1.731105e+03
9.005956e+02,1.735398e+03
9.015599e+02,1.733060e+03
9.025241e+02,1.726254e+03
9.034883e+02,1.721668e+03
9.044526e+02,1.723388e+03
9.054168e+02,1.725626e+03
9.063810e+02,1.726403e+03
9.073453e+02,1.726805e+03
9.083095e+02,1.727149e+03
9.092737e+02,1.726716e+03
9.102380e+02,1.726057e+03
9.112022e+02,1.726711e+03
9.121664e+02,1.727715e+03
9.131307e+02,1.726813e+03
9.140949e+02,1.723859e+03
9.150591e+02,1.720889e+03
9.160234e+02,1.718834e+03
9.169876e+02,1.716926e+03
9.179518e+02,1.716898e+03
9.189161e+02,1.719408e+03
9.198803e+02,1.721901e+03
9.208445e+02,1.722462e+03
9.218088e+02,1.721665e+03
9.227730e+02,1.718458e+03
9.237372e+02,1.710492e+03
9.247015e+02,1.703883e+03
9.256657e+02,1.703172e+03
9.266299e+02,1.708498e+03
9.275942e+02,1.712529e+03
9.285584e+02,1.715024e+03
9.295226e+02,1.715704e+03
9.304869e+02,1.714102e+03
9.314511e+02,1.711026e+03
9.324153e+02,1.708198e+03
9.333796e+02,1.703746e+03
9.343438e+02,1.701722e+03
9.353080e+02,1.705115e+03
9.362723e+02,1.710124e+03
9.372365e+02,1.712083e+03
9.382007e+02,1.709227e+03
9.391650e+02,1.706627e+03
9.401292e+02,1.707218e+03
9.410934e+02,1.708751e+03
9.420577e+02,1.707830e+03
9.430219e+02,1.703293e+03
9.439861e+02,1.698774e+03
9.449504e+02,1.697328e+03
9.459146e+02,1.698821e+03
9.468788e+02,1.703173e+03
9.478431e+02,1.708896e+03
9.488073e+02,1.712020e+03
9.497715e+02,1.708771e+03
9.507358e+02,1.701902e+03
9.517000e+02,1.696147e+03
9.526642e+02,1.692357e+03
9.536285e+02,1.692208e+03
9.545927e+02,1.697806e+03
9.555569e+02,1.706556e+03
9.565212e+02,1.709475e+03
9.574854e+02,1.707000e+03
9.584496e+02,1.705343e+03
9.594139e+02,1.706492e+03
9.603781e+02,1.708461e+03
9.613423e+02,1.706662e+03
9.623066e+02,1.699677e+03
9.632708e+02,1.696861e+03
9.642350e+02,1.702809e+03
9.651993e+02,1.710719e+03
9.661635e+02,1.709744e+03
9.671277e+02,1.692878e+03
9.680920e+02,1.682808e+03
9.690562e+02,1.683359e+03
9.700204e+02,1.686633e+03
9.709847e+02,1.687160e+03
9.719489e+02,1.684490e+03
9.729131e+02,1.684221e+03
9.738774e+02,1.690217e+03
9.748416e+02,1.695562e+03
9.758058e+02,1.695501e+03
9.767701e+02,1.690802e+03
9.777343e+02,1.688409e+03
9.786985e+02,1.691370e+03
9.796628e+02,1.694087e+03
9.806270e+02,1.695661e+03
9.815912e+02,1.695682e+03
9.825555e+02,1.693597e+03
9.835197e+02,1.687795e+03
9.844839e+02,1.683461e+03
9.854482e+02,1.683963e+03
9.864124e+02,1.686755e+03
9.873766e+02,1.688609e+03
9.883409e+02,1.688842e+03
9.893051e+02,1.688639e+03
9.902693e+02,1.688563e+03
9.912336e+02,1.688674e+03
9.921978e+02,1.687856e+03
9.931620e+02,1.685841e+03
9.941263e+02,1.684827e+03
9.950905e+02,1.688210e+03
9.960547e+02,1.692734e+03
9.970190e+02,1.694551e+03
9.979832e+02,1.693546e+03
9.989474e+02,1.690541e+03
9.999117e+02,1.686228e+03
1.000876e+03,1.681320e+03
1.001840e+03,1.675023e+03
1.002804e+03,1.668931e+03
1.003769e+03,1.667982e+03
1.004733e+03,1.674203e+03
1.005697e+03,1.682083e+03
1.006661e+03,1.683328e+03
1.007626e+03,1.679411e+03
1.008590e+03,1.676246e+03
1.009554e+03,1.674503e+03
1.010518e+03,1.673333e+03
1.011482e+03,1.672607e+03
1.012447e+03,1.672159e+03
1.013411e+03,1.670808e+03
1.014375e+03,1.669239e+03
1.015339e+03,1.668305e+03
1.016304e+03,1.667939e+03
1.017268e+03,1.668080e+03
1.018232e+03,1.669698e+03
1.019196e+03,1.672819e+03
1.020161e+03,1.675553e+03
1.021125e+03,1.677812e+03
1.022089e+03,1.679436e+03
1.023053e+03,1.677963e+03
1.024018e+03,1.671665e+03
1.024982e+03,1.668101e+03
1.025946e+03,1.669527e+03
1.026910e+03,1.671544e+03
1.027875e+03,1.668588e+03
1.028839e+03,1.658715e+03
1.029803e+03,1.654935e+03
1.030767e+03,1.659705e+03
1.031731e+03,1.666717e+03
1.032696e+03,1.671750e+03
1.033660e+03,1.674646e+03
1.034624e+03,1.674852e+03
1.035588e+03,1.670327e+03
1.036552e+03,1.668078e+03
1.037517e+03,1.672394e+03
1.038481e+03,1.680161e+03
1.039445e+03,1.680998e+03
1.040409e+03,1.668615e+03
1.041374e+03,1.659968e+03
1.042338e+03,1.659936e+03
1.043302e+03,1.664411e+03
1.044266e+03,1.667735e+03
1.045231e+03,1.670094e+03
1.046195e+03,1.670465e+03
1.047159e+03,1.667361e+03
1.048123e+03,1.664221e+03
1.049088e+03,1.664051e+03
1.050052e+03,1.668162e+03
1.051016e+03,1.669132e+03
1.051980e+03,1.661480e+03
1.052945e+03,1.655963e+03
1.053909e+03,1.657879e+03
1.054873e+03,1.664187e+03
1.055837e+03,1.666327e+03
1.056802e+03,1.660005e+03
1.057766e+03,1.655417e+03
1.058730e+03,1.656365e+03
1.059694e+03,1.659616e+03
1.060658e+03,1.660870e+03
1.061623e+03,1.659476e+03
1.062587e+03,1.657494e+03
1.063551e+03,1.652709e+03
1.064515e+03,1.649475e+03
1.065479e+03,1.651945e+03
1.066444e+03,1.661225e+03
1.067408e+03,1.666805e+03
1.068372e+03,1.662079e+03
1.069336e+03,1.658396e+03
1.070301e+03,1.661655e+03
1.071265e+03,1.669193e+03
1.072229e+03,1.673557e+03
1.073193e+03,1.670947e+03
1.074158e+03,1.668002e+03
1.075122e+03,1.666690e+03
1.076086e+03,1.665956e+03
1.077050e+03,1.664795e+03
1.078015e+03,1.663750e+03
1.078979e+03,1.663364e+03
1.079943e+03,1.662674e+03
1.080907e+03,1.662965e+03
1.081872e+03,1.665203e+03
1.082836e+03,1.669000e+03
1.083800e+03,1.671579e+03
1.084764e+03,1.670675e+03
1.085729e+03,1.671036e+03
1.086693e+03,1.675714e+03
1.087657e+03,1.682929e+03
1.088621e+03,1.688374e+03
1.089585e+03,1.688144e+03
1.090550e+03,1.688972e+03
1.091514e+03,1.696887e+03
1.092478e+03,1.705804e+03
1.093442e+03,1.708391e+03
1.094406e+03,1.701832e+03
1.095371e+03,1.695114e+03
1.096335e+03,1.688430e+03
1.097299e+03,1.682777e+03
1.098263e+03,1.679203e+03
1.099228e+03,1.677434e+03
1.100192e+03,1.675439e+03
1.101156e+03,1.672520e+03
1.102120e+03,1.669360e+03
1.103085e+03,1.666373e+03
1.104049e+03,1.663505e+03
1.105013e+03,1.660601e+03
1.105977e+03,1.656370e+03
1.106942e+03,1.654048e+03
1.107906e+03,1.655246e+03
1.108870e+03,1.658040e+03
1.109834e+03,1.660921e+03
1.110799e+03,1.664151e+03
1.111763e+03,1.666084e+03
1.112727e+03,1.666433e+03
1.113691e+03,1.666063e+03
1.114656e+03,1.663822e+03
1.115620e+03,1.660368e+03
1.116584e+03,1.660431e+03
1.117548e+03,1.668291e+03
1.118512e+03,1.673551e+03
1.119477e+03,1.672699e+03
1.120441e+03,1.668451e+03
1.121405e+03,1.665142e+03
1.122369e+03,1.663820e+03
1.123334e+03,1.662111e+03
1.124298e+03,1.662269e+03
1.125262e+03,1.660610e+03
1.126226e+03,1.652809e+03
1.127191e+03,1.637393e+03
1.128155e+03,1.630523e+03
1.129119e+03,1.638314e+03
1.130083e+03,1.645504e+03
1.131047e+03,1.646171e+03
1.132012e+03,1.641638e+03
1.132976e+03,1.637283e+03
1.133940e+03,1.632467e+03
1.134904e+03,1.629121e+03
1.135869e+03,1.629081e+03
1.136833e+03,1.629910e+03
1.137797e+03,1.628463e+03
1.138761e+03,1.624015e+03
1.139726e+03,1.622418e+03
1.140690e+03,1.624892e+03
1.141654e+03,1.626882e+03
1.142618e+03,1.624865e+03
1.143583e+03,1.619838e+03
1.144547e+03,1.619439e+03
1.145511e+03,1.625104e+03
1.146475e+03,1.629698e+03
1.147439e+03,1.630976e+03
1.148404e+03,1.630447e+03
1.149368e+03,1.629944e+03
1.150332e+03,1.629182e+03
1.151296e+03,1.629965e+03
1.152261e+03,1.632406e+03
1.153225e+03,1.632252e+03
1.154189e+03,1.626007e+03
1.155153e+03,1.615232e+03
1.156118e+03,1.607194e+03
1.157082e+03,1.602401e+03
1.158046e+03,1.601416e+03
1.159010e+03,1.604388e+03
1.159974e+03,1.609750e+03
1.160939e+03,1.615380e+03
1.161903e+03,1.620548e+03
1.162867e+03,1.622256e+03
1.163831e+03,1.619701e+03
1.164796e+03,1.615321e+03
1.165760e+03,1.612309e+03
1.166724e+03,1.610099e+03
1.167688e+03,1.605292e+03
1.168653e+03,1.598519e+03
1.169617e+03,1.594660e+03
1.170581e+03,1.598893e+03
1.171545e+03,1.605548e+03
1.172510e+03,1.606499e+03
1.173474e+03,1.603290e+03
1.174438e+03,1.597716e+03
1.175402e+03,1.589453e+03
1.176366e+03,1.584503e+03
1.177331e+03,1.592645e+03
1.178295e+03,1.604995e+03
1.179259e+03,1.610183e+03
1.180223e+03,1.607479e+03
1.181188e+03,1.602474e+03
1.182152e+03,1.595698e+03
1.183116e+03,1.590442e+03
1.184080e+03,1.590875e+03
1.185045e+03,1.594630e+03
1.186009e+03,1.597178e+03
1.186973e+03,1.597633e+03
1.187937e+03,1.596813e+03
1.188901e+03,1.591599e+03
1.189866e+03,1.587282e+03
1.190830e+03,1.589788e+03
1.191794e+03,1.599482e+03
1.192758e+03,1.604339e+03
1.193723e+03,1.597739e+03
1.194687e+03,1.591736e+03
1.195651e+03,1.591203e+03
1.196615e+03,1.594309e+03
1.197580e+03,1.596279e+03
1.198544e+03,1.594681e+03
1.199508e+03,1.593288e+03
1.200472e+03,1.593989e+03
1.201437e+03,1.594868e+03
1.202401e+03,1.594383e+03
1.203365e+03,1.592708e+03
1.204329e+03,1.591563e+03
1.205293e+03,1.590384e+03
1.206258e+03,1.590725e+03
1.207222e+03,1.593707e+03
1.208186e+03,1.597862e+03
1.209150e+03,1.598799e+03
1.210115e+03,1.595665e+03
1.211079e+03,1.593093e+03
1.212043e+03,1.592117e+03
1.213007e+03,1.591793e+03
1.213972e+03,1.591589e+03
1.214936e+03,1.591936e+03
1.215900e+03,1.593271e+03
1.216864e+03,1.595532e+03
1.217828e+03,1.596750e+03
1.218793e+03,1.595532e+03
1.219757e+03,1.593119e+03
1.220721e+03,1.590988e+03
1.221685e+03,1.589493e+03
1.222650e+03,1.588520e+03
1.223614e+03,1.587450e+03
1.224578e+03,1.588054e+03
1.225542e+03,1.595509e+03
1.226507e+03,1.604199e+03
1.227471e+03,1.606462e+03
1.228435e+03,1.602747e+03
1.229399e+03,1.598590e+03
1.230364e+03,1.598013e+03
1.231328e+03,1.597136e+03
1.232292e+03,1.593648e+03
1.233256e+03,1.589940e+03
1.234220e+03,1.588373e+03
1.235185e+03,1.590518e+03
1.236149e+03,1.592449e+03
1.237113e+03,1.592998e+03
1.238077e+03,1.593844e+03
1.239042e+03,1.595835e+03
1.240006e+03,1.597842e+03
1.240970e+03,1.596144e+03
1.241934e+03,1.586785e+03
1.242899e+03,1.580683e+03
1.243863e+03,1.581082e+03
1.244827e+03,1.585249e+03
1.245791e+03,1.590305e+03
1.246755e+03,1.597385e+03
1.247720e+03,1.597572e+03
1.248684e+03,1.589321e+03
1.249648e+03,1.581991e+03
1.250612e+03,1.581595e+03
1.251577e+03,1.585984e+03
1.252541e+03,1.589485e+03
1.253505e+03,1.591883e+03
1.254469e+03,1.592489e+03
1.255434e+03,1.591212e+03
1.256398e+03,1.590060e+03
1.257362e+03,1.591740e+03
1.258326e+03,1.594135e+03
1.259291e+03,1.593205e+03
1.260255e+03,1.589126e+03
1.261219e+03,1.585543e+03
1.262183e+03,1.587558e+03
1.263147e+03,1.589879e+03
1.264112e+03,1.586694e+03
1.265076e+03,1.581541e+03
1.266040e+03,1.579768e+03
1.267004e+03,1.584020e+03
1.267969e+03,1.587134e+03
1.268933e+03,1.587299e+03
1.269897e+03,1.586672e+03
1.270861e+03,1.584453e+03
1.271826e+03,1.579967e+03
1.272790e+03,1.577531e+03
1.273754e+03,1.578884e+03
1.274718e+03,1.580468e+03
1.275682e+03,1.582528e+03
1.276647e+03,1.584938e+03
1.277611e+03,1.587215e+03
1.278575e+03,1.589286e+03
1.279539e+03,1.589962e+03
1.280504e+03,1.590037e+03
1.281468e+03,1.589198e+03
1.282432e+03,1.586158e+03
1.283396e+03,1.582475e+03
1.284361e+03,1.582245e+03
1.285325e+03,1.584506e+03
1.286289e+03,1.586761e+03
1.287253e+03,1.588293e+03
1.288218e+03,1.589585e+03
1.289182e+03,1.592756e+03
1.290146e+03,1.595372e+03
1.291110e+03,1.593852e+03
1.292074e+03,1.589160e+03
1.293039e+03,1.584634e+03
1.294003e+03,1.580372e+03
1.294967e+03,1.577680e+03
1.295931e+03,1.579453e+03
1.296896e+03,1.582619e+03
1.297860e+03,1.583114e+03
1.298824e+03,1.578974e+03
1.299788e+03,1.577636e+03
1.300753e+03,1.582169e+03
1.301717e+03,1.584976e+03
1.302681e+03,1.582117e+03
1.303645e+03,1.576034e+03
1.304609e+03,1.573817e+03
1.305574e+03,1.575298e+03
1.306538e+03,1.578016e+03
1.307502e+03,1.582785e+03
1.308466e+03,1.587138e+03
1.309431e+03,1.588188e+03
1.310395e+03,1.586471e+03
1.311359e+03,1.582071e+03
1.312323e+03,1.575357e+03
1.313288e+03,1.571125e+03
1.314252e+03,1.573038e+03
1.315216e+03,1.576973e+03
1.316180e+03,1.578371e+03
1.317145e+03,1.579097e+03
1.318109e+03,1.581302e+03
1.319073e+03,1.584563e+03
1.320037e+03,1.586406e+03
1.321001e+03,1.583812e+03
1.321966e+03,1.582157e+03
1.322930e+03,1.586339e+03
1.323894e+03,1.593043e+03
1.324858e+03,1.595056e+03
1.325823e+03,1.587708e+03
1.326787e+03,1.586822e+03
1.327751e+03,1.594812e+03
1.328715e+03,1.602842e+03
1.329680e+03,1.605271e+03
1.330644e+03,1.603460e+03
1.331608e+03,1.602525e+03
1.332572e+03,1.602364e+03
1.333536e+03,1.604287e+03
1.334501e+03,1.608770e+03
1.335465e+03,1.611829e+03
1.336429e+03,1.607083e+03
1.337393e+03,1.600380e+03
1.338358e+03,1.601717e+03
1.339322e+03,1.609531e+03
1.340286e+03,1.614820e+03
1.341250e+03,1.612797e+03
1.342215e+03,1.607733e+03
1.343179e+03,1.598127e+03
1.344143e+03,1.590018e+03
1.345107e+03,1.590221e+03
1.346072e+03,1.601736e+03
1.347036e+03,1.606987e+03
1.348000e+03,1.602130e+03
1.348964e+03,1.597303e+03
1.349928e+03,1.597160e+03
1.350893e+03,1.599791e+03
1.351857e+03,1.598989e+03
1.352821e+03,1.594629e+03
1.353785e+03,1.593216e+03
1.354750e+03,1.595374e+03
1.355714e+03,1.597732e+03
1.356678e+03,1.597232e+03
1.357642e+03,1.596792e+03
1.358607e+03,1.601685e+03
1.359571e+03,1.608843e+03
1.360535e+03,1.611255e+03
1.361499e+03,1.604859e+03
1.362464e+03,1.600137e+03
1.363428e+03,1.602557e+03
1.364392e+03,1.608303e+03
1.365356e+03,1.615410e+03
1.366320e+03,1.622499e+03
1.367285e+03,1.625529e+03
1.368249e+03,1.623813e+03
1.369213e+03,1.621086e+03
1.370177e+03,1.617287e+03
1.371142e+03,1.614307e+03
1.372106e+03,1.615217e+03
1.373070e+03,1.619326e+03
1.374034e+03,1.621571e+03
1.374999e+03,1.622355e+03
1.375963e+03,1.622588e+03
1.376927e+03,1.622521e+03
1.377891e+03,1.622119e+03
1.378855e+03,1.621031e+03
1.379820e+03,1.619333e+03
1.380784e+03,1.617267e+03
1.381748e+03,1.615323e+03
1.382712e+03,1.613465e+03
1.383677e+03,1.610552e+03
1.384641e+03,1.607350e+03
1.385605e+03,1.604026e+03
1.386569e+03,1.600390e+03
1.387534e+03,1.596253e+03
1.388498e+03,1.591486e+03
1.389462e+03,1.587938e+03
1.390426e+03,1.585283e+03
1.391391e+03,1.583419e+03
1.392355e+03,1.583128e+03
1.393319e+03,1.583710e+03
1.394283e+03,1.581799e+03
1.395247e+03,1.579135e+03
1.396212e+03,1.581719e+03
1.397176e+03,1.591287e+03
1.398140e+03,1.597839e+03
1.399104e+03,1.590877e+03
1.400069e+03,1.582764e+03
1.401033e+03,1.582577e+03
1.401997e+03,1.587411e+03
1.402961e+03,1.588200e+03
1.403926e+03,1.581579e+03
1.404890e+03,1.577796e+03
1.405854e+03,1.578259e+03
1.406818e+03,1.580418e+03
1.407782e+03,1.583440e+03
1.408747e+03,1.586604e+03
1.409711e+03,1.583781e+03
1.410675e+03,1.575993e+03
1.411639e+03,1.572506e+03
1.412604e+03,1.576833e+03
1.413568e+03,1.581034e+03
1.414532e+03,1.578371e+03
1.415496e+03,1.573840e+03
1.416461e+03,1.571245e+03
1.417425e+03,1.569669e+03
1.418389e+03,1.566397e+03
1.419353e+03,1.557406e+03
1.420318e+03,1.552640e+03
1.421282e+03,1.554941e+03
1.422246e+03,1.559510e+03
1.423210e+03,1.562511e+03
1.424174e+03,1.564320e+03
1.425139e+03,1.566680e+03
1.426103e+03,1.568775e+03
1.427067e+03,1.566429e+03
1.428031e+03,1.557444e+03
1.428996e+03,1.549519e+03
1.429960e+03,1.552058e+03
1.430924e+03,1.557418e+03
1.431888e+03,1.557204e+03
1.432853e+03,1.552271e+03
1.433817e+03,1.549407e+03
1.434781e+03,1.553574e+03
1.435745e+03,1.555604e+03
1.436709e+03,1.552170e+03
1.437674e+03,1.548177e+03
1.438638e+03,1.549667e+03
1.439602e+03,1.556046e+03
1.440566e+03,1.554989e+03
1.441531e+03,1.547224e+03
1.442495e+03,1.541838e+03
1.443459e+03,1.541879e+03
1.444423e+03,1.545175e+03
1.445388e+03,1.553103e+03
1.446352e+03,1.560066e+03
1.447316e+03,1.559596e+03
1.448280e+03,1.553114e+03
1.449245e+03,1.547921e+03
1.450209e+03,1.545281e+03
1.451173e+03,1.544640e+03
1.452137e+03,1.546365e+03
1.453101e+03,1.547464e+03
1.454066e+03,1.545520e+03
1.455030e+03,1.540965e+03
1.455994e+03,1.535591e+03
1.456958e+03,1.529898e+03
1.457923e+03,1.527821e+03
1.458887e+03,1.530952e+03
1.459851e+03,1.535508e+03
1.460815e+03,1.540499e+03
1.461780e+03,1.543129e+03
1.462744e+03,1.540152e+03
1.463708e+03,1.532858e+03
1.464672e+03,1.528621e+03
1.465636e+03,1.530588e+03
1.466601e+03,1.531795e+03
1.467565e+03,1.531320e+03
1.468529e+03,1.530054e+03
1.469493e+03,1.527960e+03
1.470458e+03,1.525147e+03
1.471422e+03,1.523417e+03
1.472386e+03,1.523101e+03
1.473350e+03,1.524948e+03
1.474315e+03,1.529896e+03
1.475279e+03,1.532609e+03
1.476243e+03,1.527265e+03
1.477207e+03,1.520139e+03
1.478172e+03,1.516138e+03
1.479136e+03,1.515138e+03
1.480100e+03,1.515133e+03
1.481064e+03,1.517268e+03
1.482028e+03,1.516184e+03
1.482993e+03,1.511065e+03
1.483957e+03,1.504991e+03
1.484921e+03,1.498249e+03
1.485885e+03,1.493254e+03
1.486850e+03,1.497364e+03
1.487814e+03,1.505906e+03
1.488778e+03,1.508974e+03
1.489742e+03,1.502008e+03
1.490707e+03,1.496486e+03
1.491671e+03,1.497937e+03
1.492635e+03,1.501415e+03
1.493599e+03,1.504740e+03
1.494563e+03,1.507262e+03
1.495528e+03,1.508089e+03
1.496492e+03,1.507019e+03
1.497456e+03,1.505552e+03
1.498420e+03,1.504338e+03
1.499385e+03,1.502655e+03
1.500349e+03,1.499289e+03
1.501313e+03,1.495895e+03
1.502277e+03,1.491873e+03
1.503242e+03,1.489220e+03
1.504206e+03,1.491790e+03
1.505170e+03,1.502688e+03
1.506134e+03,1.507670e+03
1.507099e+03,1.504911e+03
1.508063e+03,1.501569e+03
1.509027e+03,1.500281e+03
1.509991e+03,1.499865e+03
1.510955e+03,1.498881e+03
1.511920e+03,1.497098e+03
1.512884e+03,1.493106e+03
1.513848e+03,1.488126e+03
1.514812e+03,1.486511e+03
1.515777e+03,1.492718e+03
1.516741e+03,1.497483e+03
1.517705e+03,1.497003e+03
1.518669e+03,1.493924e+03
1.519634e+03,1.489908e+03
1.520598e+03,1.484903e+03
1.521562e+03,1.483154e+03
1.522526e+03,1.484129e+03
1.523490e+03,1.486107e+03
1.524455e+03,1.489143e+03
1.525419e+03,1.490347e+03
1.526383e+03,1.484749e+03
1.527347e+03,1.478238e+03
1.528312e+03,1.478462e+03
1.529276e+03,1.483704e+03
1.530240e+03,1.482692e+03
1.531204e+03,1.469454e+03
1.532169e+03,1.464645e+03
1.533133e+03,1.471257e+03
1.534097e+03,1.479902e+03
1.535061e+03,1.483792e+03
1.536026e+03,1.484393e+03
1.536990e+03,1.484181e+03
1.537954e+03,1.483575e+03
1.538918e+03,1.483051e+03
1.539882e+03,1.482531e+03
1.540847e+03,1.482430e+03
1.541811e+03,1.483928e+03
1.542775e+03,1.483210e+03
1.543739e+03,1.478695e+03
1.544704e+03,1.473494e+03
1.545668e+03,1.473851e+03
1.546632e+03,1.478089e+03
1.547596e+03,1.476022e+03
1.548561e+03,1.468467e+03
1.549525e+03,1.464067e+03
1.550489e+03,1.469360e+03
1.551453e+03,1.475188e+03
1.552417e+03,1.479052e+03
1.553382e+03,1.479885e+03
1.554346e+03,1.476410e+03
1.555310e+03,1.469702e+03
1.556274e+03,1.466904e+03
1.557239e+03,1.467820e+03
1.558203e+03,1.469406e+03
1.559167e+03,1.471062e+03
1.560131e+03,1.471884e+03
1.561096e+03,1.470767e+03
1.562060e+03,1.469127e+03
1.563024e+03,1.468424e+03
1.563988e+03,1.467847e+03
1.564953e+03,1.464843e+03
1.565917e+03,1.456597e+03
1.566881e+03,1.456467e+03
1.567845e+03,1.465697e+03
1.568809e+03,1.471626e+03
1.569774e+03,1.465962e+03
1.570738e+03,1.456981e+03
1.571702e+03,1.455980e+03
1.572666e+03,1.458366e+03
1.573631e+03,1.457773e+03
1.574595e+03,1.453996e+03
1.575559e+03,1.453934e+03
1.576523e+03,1.461141e+03
1.577488e+03,1.464666e+03
1.578452e+03,1.461031e+03
1.579416e+03,1.455307e+03
1.580380e+03,1.453443e+03
1.581344e+03,1.453680e+03
1.582309e+03,1.452339e+03
1.583273e+03,1.450561e+03
1.584237e+03,1.451024e+03
1.585201e+03,1.456443e+03
1.586166e+03,1.459032e+03
1.587130e+03,1.457440e+03
1.588094e+03,1.452571e+03
1.589058e+03,1.443531e+03
1.590023e+03,1.434755e+03
1.590987e+03,1.436601e+03
1.591951e+03,1.445167e+03
1.592915e+03,1.450111e+03
1.593880e+03,1.449900e+03
1.594844e+03,1.448381e+03
1.595808e+03,1.446027e+03
1.596772e+03,1.444795e+03
1.597736e+03,1.446671e+03
1.598701e+03,1.448214e+03
1.599665e+03,1.445262e+03
1.600629e+03,1.439415e+03
1.601593e+03,1.438074e+03
1.602558e+03,1.439645e+03
1.603522e+03,1.438939e+03
1.604486e+03,1.433925e+03
1.605450e+03,1.429307e+03
1.606415e+03,1.426227e+03
1.607379e+03,1.426595e+03
1.608343e+03,1.432822e+03
1.609307e+03,1.440045e+03
1.610271e+03,1.438105e+03
1.611236e+03,1.429401e+03
1.612200e+03,1.426382e+03
1.613164e+03,1.429246e+03
1.614128e+03,1.432059e+03
1.615093e+03,1.430122e+03
1.616057e+03,1.429239e+03
1.617021e+03,1.432941e+03
1.617985e+03,1.435583e+03
1.618950e+03,1.433428e+03
1.619914e+03,1.428248e+03
1.620878e+03,1.427930e+03
1.621842e+03,1.430859e+03
1.622807e+03,1.428824e+03
1.623771e+03,1.420387e+03
1.624735e+03,1.414970e+03
1.625699e+03,1.421078e+03
1.626663e+03,1.425301e+03
1.627628e+03,1.421049e+03
1.628592e+03,1.413799e+03
1.629556e+03,1.411925e+03
1.630520e+03,1.414942e+03
1.631485e+03,1.414953e+03
1.632449e+03,1.412785e+03
1.633413e+03,1.413361e+03
1.634377e+03,1.421053e+03
1.635342e+03,1.425743e+03
1.636306e+03,1.422252e+03
1.637270e+03,1.415972e+03
1.638234e+03,1.407464e+03
1.639198e+03,1.399670e+03
1.640163e+03,1.400719e+03
1.641127e+03,1.407967e+03
1.642091e+03,1.411396e+03
1.643055e+03,1.409790e+03
1.644020e+03,1.407765e+03
1.644984e+03,1.405588e+03
1.645948e+03,1.405345e+03
1.646912e+03,1.409107e+03
1.647877e+03,1.412659e+03
1.648841e+03,1.411597e+03
1.649805e+03,1.408271e+03
1.650769e+03,1.411304e+03
1.651734e+03,1.417593e+03
1.652698e+03,1.419618e+03
1.653662e+03,1.414586e+03
1.654626e+03,1.408601e+03
1.655590e+03,1.402069e+03
1.656555e+03,1.396965e+03
1.657519e+03,1.394543e+03
1.658483e+03,1.394197e+03
1.659447e+03,1.394498e+03
1.660412e+03,1.394829e+03
1.661376e+03,1.395953e+03
1.662340e+03,1.397585e+03
1.663304e+03,1.397637e+03
1.664269e+03,1.391329e+03
1.665233e+03,1.389793e+03
1.666197e+03,1.394627e+03
1.667161e+03,1.397344e+03
1.668125e+03,1.392245e+03
1.669090e+03,1.385830e+03
1.670054e+03,1.390972e+03
1.671018e+03,1.399431e+03
1.671982e+03,1.399090e+03
1.672947e+03,1.389566e+03
1.673911e+03,1.385547e+03
1.674875e+03,1.388401e+03
1.675839e+03,1.389858e+03
1.676804e+03,1.389383e+03
1.677768e+03,1.388889e+03
1.678732e+03,1.389696e+03
1.679696e+03,1.390248e+03
1.680661e+03,1.386905e+03
1.681625e+03,1.383108e+03
1.682589e+03,1.386660e+03
1.683553e+03,1.398707e+03
1.684517e+03,1.398086e+03
1.685482e+03,1.385109e+03
1.686446e+03,1.375883e+03
1.687410e+03,1.375602e+03
1.688374e+03,1.378648e+03
1.689339e+03,1.384158e+03
1.690303e+03,1.387766e+03
1.691267e+03,1.385305e+03
1.692231e+03,1.380651e+03
1.693196e+03,1.380561e+03
1.694160e+03,1.383572e+03
1.695124e+03,1.380931e+03
1.696088e+03,1.373813e+03
1.697052e+03,1.369282e+03
1.698017e+03,1.370739e+03
1.698981e+03,1.372903e+03
1.699945e+03,1.374810e+03
1.700909e+03,1.375249e+03
1.701874e+03,1.374515e+03
1.702838e+03,1.373570e+03
1.703802e+03,1.372096e+03
1.704766e+03,1.370218e+03
1.705731e+03,1.370031e+03
1.706695e+03,1.371876e+03
1.707659e+03,1.372694e+03
1.708623e+03,1.371221e+03
1.709588e+03,1.372982e+03
1.710552e+03,1.378738e+03
1.711516e+03,1.382723e+03
1.712480e+03,1.378899e+03
1.713444e+03,1.372186e+03
1.714409e+03,1.367232e+03
1.715373e+03,1.364365e+03
1.716337e+03,1.364305e+03
1.717301e+03,1.367354e+03
1.718266e+03,1.366550e+03
1.719230e+03,1.361777e+03
1.720194e+03,1.362415e+03
1.721158e+03,1.371691e+03
1.722123e+03,1.378741e+03
1.723087e+03,1.372225e+03
1.724051e+03,1.365602e+03
1.725015e+03,1.366400e+03
1.725979e+03,1.370721e+03
1.726944e+03,1.373341e+03
1.727908e+03,1.374094e+03
1.728872e+03,1.370607e+03
1.729836e+03,1.364110e+03
1.730801e+03,1.360910e+03
1.731765e+03,1.366820e+03
1.732729e+03,1.368378e+03
1.733693e+03,1.362501e+03
1.734658e+03,1.357853e+03
1.735622e+03,1.358616e+03
1.736586e+03,1.361225e+03
1.737550e+03,1.361820e+03
1.738515e+03,1.360432e+03
1.739479e+03,1.355867e+03
1.740443e+03,1.349147e+03
1.741407e+03,1.345992e+03
1.742371e+03,1.346860e+03
1.743336e+03,1.348192e+03
1.744300e+03,1.349484e+03
1.745264e+03,1.348034e+03
1.746228e+03,1.338388e+03
1.747193e+03,1.331701e+03
1.748157e+03,1.337998e+03
1.749121e+03,1.346087e+03
1.750085e+03,1.345923e+03
1.751050e+03,1.340141e+03
1.752014e+03,1.342724e+03
1.752978e+03,1.350492e+03
1.753942e+03,1.354712e+03
1.754906e+03,1.353574e+03
1.755871e+03,1.351733e+03
1.756835e+03,1.349370e+03
1.757799e+03,1.345555e+03
1.758763e+03,1.341175e+03
1.759728e+03,1.338248e+03
1.760692e+03,1.339060e+03
1.761656e+03,1.341295e+03
1.762620e+03,1.342228e+03
1.763585e+03,1.342480e+03
1.764549e+03,1.343235e+03
1.765513e+03,1.343941e+03
1.766477e+03,1.344805e+03
1.767442e+03,1.345723e+03
1.768406e+03,1.343306e+03
1.769370e+03,1.335914e+03
1.770334e+03,1.330008e+03
1.771298e+03,1.328314e+03
1.772263e+03,1.327548e+03
1.773227e+03,1.327238e+03
1.774191e+03,1.327815e+03
1.775155e+03,1.330745e+03
1.776120e+03,1.333807e+03
1.777084e+03,1.332644e+03
1.778048e+03,1.329360e+03
1.779012e+03,1.330422e+03
1.779977e+03,1.339033e+03
1.780941e+03,1.338450e+03
1.781905e+03,1.328350e+03
1.782869e+03,1.321235e+03
1.783833e+03,1.323766e+03
1.784798e+03,1.327099e+03
1.785762e+03,1.325570e+03
1.786726e+03,1.323359e+03
1.787690e+03,1.323118e+03
1.788655e+03,1.323167e+03
1.789619e+03,1.317839e+03
1.790583e+03,1.310959e+03
1.791547e+03,1.310689e+03
1.792512e+03,1.316420e+03
1.793476e+03,1.322059e+03
1.794440e+03,1.327601e+03
1.795404e+03,1.326646e+03
1.796369e+03,1.318125e+03
1.797333e+03,1.312515e+03
1.798297e+03,1.319098e+03
1.799261e+03,1.325234e+03
1.800225e+03,1.319143e+03
1.801190e+03,1.311570e+03
1.802154e+03,1.310301e+03
1.803118e+03,1.312786e+03
1.804082e+03,1.313952e+03
1.805047e+03,1.314148e+03
1.806011e+03,1.312074e+03
1.806975e+03,1.308040e+03
1.807939e+03,1.307798e+03
1.808904e+03,1.312605e+03
1.809868e+03,1.317678e+03
1.810832e+03,1.323172e+03
1.811796e+03,1.325358e+03
1.812760e+03,1.316256e+03
1.813725e+03,1.308639e+03
1.814689e+03,1.315460e+03
1.815653e+03,1.322565e+03
1.816617e+03,1.317888e+03
1.817582e+03,1.306303e+03
1.818546e+03,1.303014e+03
1.819510e+03,1.305041e+03
1.820474e+03,1.307037e+03
1.821439e+03,1.308260e+03
1.822403e+03,1.305903e+03
1.823367e+03,1.297797e+03
1.824331e+03,1.298561e+03
1.825296e+03,1.310502e+03
1.826260e+03,1.320541e+03
1.827224e+03,1.318371e+03
1.828188e+03,1.313584e+03
1.829152e+03,1.308450e+03
1.830117e+03,1.304568e+03
1.831081e+03,1.304052e+03
1.832045e+03,1.305065e+03
1.833009e+03,1.304142e+03
1.833974e+03,1.302471e+03
1.834938e+03,1.299852e+03
1.835902e+03,1.295496e+03
1.836866e+03,1.291796e+03
1.837831e+03,1.288499e+03
1.838795e+03,1.289051e+03
1.839759e+03,1.294983e+03
1.840723e+03,1.299642e+03
1.841688e+03,1.296509e+03
1.842652e+03,1.292176e+03
1.843616e+03,1.287504e+03
1.844580e+03,1.283828e+03
1.845544e+03,1.284312e+03
1.846509e+03,1.286783e+03
1.847473e+03,1.286764e+03
1.848437e+03,1.285549e+03
1.849401e+03,1.286263e+03
1.850366e+03,1.289198e+03
1.851330e+03,1.286186e+03
1.852294e+03,1.278739e+03
1.853258e+03,1.277457e+03
1.854223e+03,1.285602e+03
1.855187e+03,1.292764e+03
1.856151e+03,1.294820e+03
1.857115e+03,1.292122e+03
1.858079e+03,1.282811e+03
1.859044e+03,1.274950e+03
1.860008e+03,1.281490e+03
1.860972e+03,1.290652e+03
1.861936e+03,1.290340e+03
1.862901e+03,1.284756e+03
1.863865e+03,1.278733e+03
1.864829e+03,1.272122e+03
1.865793e+03,1.272736e+03
1.866758e+03,1.278030e+03
1.867722e+03,1.278296e+03
1.868686e+03,1.269032e+03
1.869650e+03,1.265900e+03
1.870615e+03,1.270529e+03
1.871579e+03,1.274952e+03
1.872543e+03,1.277958e+03
1.873507e+03,1.279738e+03
1.874471e+03,1.278117e+03
1.875436e+03,1.275312e+03
1.876400e+03,1.273119e+03
1.877364e+03,1.270913e+03
1.878328e+03,1.267191e+03
1.879293e+03,1.263187e+03
1.880257e+03,1.260070e+03
1.881221e+03,1.258427e+03
1.882185e+03,1.261455e+03
1.883150e+03,1.269588e+03
1.884114e+03,1.271887e+03
1.885078e+03,1.268791e+03
1.886042e+03,1.265342e+03
1.887006e+03,1.262531e+03
1.887971e+03,1.262650e+03
1.888935e+03,1.270969e+03
1.889899e+03,1.272399e+03
1.890863e+03,1.261368e+03
1.891828e+03,1.249618e+03
1.892792e+03,1.250076e+03
1.893756e+03,1.254710e+03
1.894720e+03,1.261983e+03
1.895685e+03,1.268047e+03
1.896649e+03,1.266803e+03
1.897613e+03,1.259697e+03
1.898577e+03,1.250209e+03
1.899542e+03,1.241434e+03
1.900506e+03,1.241105e+03
1.901470e+03,1.251105e+03
1.902434e+03,1.255492e+03
1.903398e+03,1.254557e+03
1.904363e+03,1.253038e+03
1.905327e+03,1.252123e+03
1.906291e+03,1.252607e+03
1.907255e+03,1.257056e+03
1.908220e+03,1.257116e+03
1.909184e+03,1.250183e+03
1.910148e+03,1.243312e+03
1.911112e+03,1.246385e+03
1.912077e+03,1.250782e+03
1.913041e+03,1.248157e+03
1.914005e+03,1.243404e+03
1.914969e+03,1.242162e+03
1.915933e+03,1.242815e+03
1.916898e+03,1.236932e+03
1.917862e+03,1.229426e+03
1.918826e+03,1.231466e+03
1.919790e+03,1.245525e+03
1.920755e+03,1.253366e+03
1.921719e+03,1.254371e+03
1.922683e+03,1.249369e+03
1.923647e+03,1.238813e+03
1.924612e+03,1.231483e+03
1.925576e+03,1.234768e+03
1.926540e+03,1.235322e+03
1.927504e+03,1.229629e+03
1.928469e+03,1.225925e+03
1.929433e+03,1.236507e+03
1.930397e+03,1.245633e+03
1.931361e+03,1.237254e+03
1.932325e+03,1.226807e+03
1.933290e+03,1.228209e+03
1.934254e+03,1.236356e+03
1.935218e+03,1.235662e+03
1.936182e+03,1.230336e+03
1.937147e+03,1.229998e+03
1.938111e+03,1.234650e+03
1.939075e+03,1.234184e+03
1.940039e+03,1.230061e+03
1.941004e+03,1.228530e+03
1.941968e+03,1.229479e+03
1.942932e+03,1.227118e+03
1.943896e+03,1.217704e+03
1.944860e+03,1.213861e+03
1.945825e+03,1.217606e+03
1.946789e+03,1.221236e+03
1.947753e+03,1.215865e+03
1.948717e+03,1.213104e+03
1.949682e+03,1.220070e+03
1.950646e+03,1.225631e+03
1.951610e+03,1.221781e+03
1.952574e+03,1.215405e+03
1.953539e+03,1.218299e+03
1.954503e+03,1.222345e+03
1.955467e+03,1.217387e+03
1.956431e+03,1.208781e+03
1.957396e+03,1.213187e+03
1.958360e+03,1.223796e+03
1.959324e+03,1.222960e+03
1.960288e+03,1.212102e+03
1.961252e+03,1.207362e+03
1.962217e+03,1.209386e+03
1.963181e+03,1.211164e+03
1.964145e+03,1.211949e+03
1.965109e+03,1.211026e+03
1.966074e+03,1.205094e+03
1.967038e+03,1.205649e+03
1.968002e+03,1.213543e+03
1.968966e+03,1.218936e+03
1.969931e+03,1.217145e+03
1.970895e+03,1.212368e+03
1.971859e+03,1.205932e+03
1.972823e+03,1.202702e+03
1.973787e+03,1.204649e+03
1.974752e+03,1.208650e+03
1.975716e+03,1.213217e+03
1.976680e+03,1.215187e+03
1.977644e+03,1.210050e+03
1.978609e+03,1.201987e+03
1.979573e+03,1.195297e+03
1.980537e+03,1.190482e+03
1.981501e+03,1.192156e+03
1.982466e+03,1.198128e+03
1.983430e+03,1.200985e+03
1.984394e+03,1.199270e+03
1.985358e+03,1.203199e+03
1.986323e+03,1.210986e+03
1.987287e+03,1.211929e+03
1.988251e+03,1.201215e+03
1.989215e+03,1.191920e+03
1.990179e+03,1.185743e+03
1.991144e+03,1.182719e+03
1.992108e+03,1.183490e+03
1.993072e+03,1.185403e+03
1.994036e+03,1.186220e+03
1.995001e+03,1.187539e+03
1.995965e+03,1.190411e+03
1.996929e+03,1.192020e+03
1.997893e+03,1.186991e+03
1.998858e+03,1.180775e+03
1.999822e+03,1.174999e+03
2.000786e+03,1.174695e+03
2.001750e+03,1.189553e+03
2.002714e+03,1.209902e+03
2.003679e+03,1.209930e+03
2.004643e+03,1.198618e+03
2.005607e+03,1.189235e+03
2.006571e+03,1.182658e+03
2.007536e+03,1.177620e+03
2.008500e+03,1.174276e+03
2.009464e+03,1.173105e+03
2.010428e+03,1.174254e+03
2.011393e+03,1.174970e+03
2.012357e+03,1.174937e+03
2.013321e+03,1.174850e+03
2.014285e+03,1.174218e+03
2.015250e+03,1.175460e+03
2.016214e+03,1.184178e+03
2.017178e+03,1.185838e+03
2.018142e+03,1.179565e+03
2.019106e+03,1.173319e+03
2.020071e+03,1.170211e+03
2.021035e+03,1.169906e+03
2.021999e+03,1.174121e+03
2.022963e+03,1.177143e+03
2.023928e+03,1.177592e+03
2.024892e+03,1.175587e+03
2.025856e+03,1.168407e+03
2.026820e+03,1.161840e+03
2.027785e+03,1.159101e+03
2.028749e+03,1.158808e+03
2.029713e+03,1.161781e+03
2.030677e+03,1.164812e+03
2.031641e+03,1.160685e+03
2.032606e+03,1.154609e+03
2.033570e+03,1.157562e+03
2.034534e+03,1.165716e+03
2.035498e+03,1.160619e+03
2.036463e+03,1.148719e+03
2.037427e+03,1.145681e+03
2.038391e+03,1.152676e+03
2.039355e+03,1.156086e+03
2.040320e+03,1.156465e+03
2.041284e+03,1.154539e+03
2.042248e+03,1.149937e+03
2.043212e+03,1.147927e+03
2.044177e+03,1.149222e+03
2.045141e+03,1.153252e+03
2.046105e+03,1.159506e+03
2.047069e+03,1.161875e+03
2.048033e+03,1.153015e+03
2.048998e+03,1.146577e+03
2.049962e+03,1.144060e+03
2.050926e+03,1.143476e+03
2.051890e+03,1.145332e+03
2.052854e+03,1.145564e+03
2.053819e+03,1.141399e+03
2.054783e+03,1.138163e+03
2.055747e+03,1.139848e+03
2.056711e+03,1.143538e+03
2.057676e+03,1.148186e+03
2.058640e+03,1.151033e+03
2.059604e+03,1.149535e+03
2.060568e+03,1.145585e+03
2.061533e+03,1.140267e+03
2.062497e+03,1.137102e+03
2.063461e+03,1.142012e+03
2.064425e+03,1.149059e+03
2.065390e+03,1.150411e+03
2.066354e+03,1.147733e+03
2.067318e+03,1.143576e+03
2.068282e+03,1.138944e+03
2.069247e+03,1.135124e+03
2.070211e+03,1.131509e+03
2.071175e+03,1.122977e+03
2.072139e+03,1.114102e+03
2.073104e+03,1.118461e+03
2.074068e+03,1.136247e+03
2.075032e+03,1.141909e+03
2.075996e+03,1.137668e+03
2.076960e+03,1.135550e+03
2.077925e+03,1.137518e+03
2.078889e+03,1.135241e+03
2.079853e+03,1.128155e+03
2.080817e+03,1.122915e+03
2.081782e+03,1.120129e+03
2.082746e+03,1.116840e+03
2.083710e+03,1.112385e+03
2.084674e+03,1.107558e+03
2.085639e+03,1.103062e+03
2.086603e+03,1.104827e+03
2.087567e+03,1.119291e+03
2.088531e+03,1.130989e+03
2.089496e+03,1.138533e+03
2.090460e+03,1.135215e+03
2.091424e+03,1.114938e+03
2.092388e+03,1.100780e+03
2.093353e+03,1.111747e+03
2.094317e+03,1.122875e+03
2.095281e+03,1.126186e+03
2.096245e+03,1.125499e+03
2.097209e+03,1.122604e+03
2.098174e+03,1.119970e+03
2.099138e+03,1.118871e+03
2.100102e+03,1.119397e+03
2.101066e+03,1.125790e+03
2.102031e+03,1.129040e+03
2.102995e+03,1.114338e+03
2.103959e+03,1.099576e+03
2.104923e+03,1.101516e+03
2.105887e+03,1.111221e+03
2.106852e+03,1.115735e+03
2.107816e+03,1.113646e+03
2.108780e+03,1.103566e+03
2.109744e+03,1.090664e+03
2.110708e+03,1.090029e+03
2.111673e+03,1.095159e+03
2.112637e+03,1.093680e+03
2.113601e+03,1.088798e+03
2.114565e+03,1.092929e+03
2.115530e+03,1.100964e+03
2.116494e+03,1.100947e+03
2.117458e+03,1.095423e+03
2.118422e+03,1.092405e+03
2.119387e+03,1.090747e+03
2.120351e+03,1.089198e+03
2.121315e+03,1.087862e+03
2.122279e+03,1.090818e+03
2.123244e+03,1.098045e+03
2.124208e+03,1.097158e+03
2.125172e+03,1.091103e+03
2.126136e+03,1.088846e+03
2.127101e+03,1.092994e+03
2.128065e+03,1.095149e+03
2.129029e+03,1.095143e+03
2.129993e+03,1.092383e+03
2.130958e+03,1.085734e+03
2.131922e+03,1.085742e+03
2.132886e+03,1.094093e+03
2.133850e+03,1.096107e+03
2.134814e+03,1.091624e+03
2.135779e+03,1.089183e+03
2.136743e+03,1.092546e+03
2.137707e+03,1.090259e+03
2.138671e+03,1.082678e+03
2.139636e+03,1.080067e+03
2.140600e+03,1.094284e+03
2.141564e+03,1.096560e+03
2.142528e+03,1.084759e+03
2.143493e+03,1.075841e+03
2.144457e+03,1.077225e+03
2.145421e+03,1.075679e+03
2.146385e+03,1.066319e+03
2.147350e+03,1.062001e+03
2.148314e+03,1.067166e+03
2.149278e+03,1.075024e+03
2.150242e+03,1.082307e+03
2.151207e+03,1.086565e+03
2.152171e+03,1.086965e+03
2.153135e+03,1.084787e+03
2.154099e+03,1.081814e+03
2.155063e+03,1.077884e+03
2.156028e+03,1.072986e+03
2.156992e+03,1.069382e+03
2.157956e+03,1.067144e+03
2.158920e+03,1.066306e+03
2.159885e+03,1.068157e+03
2.160849e+03,1.067819e+03
2.161813e+03,1.061314e+03
2.162777e+03,1.055885e+03
2.163741e+03,1.060488e+03
2.164706e+03,1.064736e+03
2.165670e+03,1.065836e+03
2.166634e+03,1.066156e+03
2.167598e+03,1.065854e+03
2.168563e+03,1.067179e+03
2.169527e+03,1.071041e+03
2.170491e+03,1.072971e+03
2.171455e+03,1.068411e+03
2.172420e+03,1.062498e+03
2.173384e+03,1.057737e+03
2.174348e+03,1.055198e+03
2.175312e+03,1.055578e+03
2.176277e+03,1.057821e+03
2.177241e+03,1.065690e+03
2.178205e+03,1.068755e+03
2.179169e+03,1.057831e+03
2.180134e+03,1.045849e+03
2.181098e+03,1.053025e+03
2.182062e+03,1.061881e+03
2.183026e+03,1.058747e+03
2.183990e+03,1.051958e+03
2.184955e+03,1.056743e+03
2.185919e+03,1.060353e+03
2.186883e+03,1.049085e+03
2.187847e+03,1.035977e+03
2.188812e+03,1.041792e+03
2.189776e+03,1.051500e+03
2.190740e+03,1.045898e+03
2.191704e+03,1.036665e+03
2.192668e+03,1.034359e+03
2.193633e+03,1.036485e+03
2.194597e+03,1.041852e+03
2.195561e+03,1.047156e+03
2.196525e+03,1.049412e+03
2.197490e+03,1.048574e+03
2.198454e+03,1.042895e+03
2.199418e+03,1.035866e+03
2.200382e+03,1.030851e+03
2.201347e+03,1.027793e+03
2.202311e+03,1.024781e+03
2.203275e+03,1.023377e+03
2.204239e+03,1.025088e+03
2.205204e+03,1.027559e+03
2.206168e+03,1.029922e+03
2.207132e+03,1.032274e+03
2.208096e+03,1.034802e+03
2.209061e+03,1.035069e+03
2.210025e+03,1.029325e+03
2.210989e+03,1.022138e+03
2.211953e+03,1.020300e+03
2.212917e+03,1.024162e+03
2.213882e+03,1.032573e+03
2.214846e+03,1.040550e+03
2.215810e+03,1.039286e+03
2.216774e+03,1.033261e+03
2.217739e+03,1.028509e+03
2.218703e+03,1.025726e+03
2.219667e+03,1.027918e+03
2.220631e+03,1.029659e+03
2.221595e+03,1.024701e+03
2.222560e+03,1.016485e+03
2.223524e+03,1.006259e+03
2.224488e+03,9.992267e+02
2.225452e+03,1.006828e+03
2.226417e+03,1.016795e+03
2.227381e+03,1.015262e+03
2.228345e+03,1.010800e+03
2.229309e+03,1.013803e+03
2.230274e+03,1.018898e+03
2.231238e+03,1.023439e+03
2.232202e+03,1.024774e+03
2.233166e+03,1.016078e+03
2.234131e+03,1.007601e+03
2.235095e+03,1.006786e+03
2.236059e+03,1.009758e+03
2.237023e+03,1.012702e+03
2.237988e+03,1.013314e+03
2.238952e+03,1.009355e+03
2.239916e+03,1.003717e+03
2.240880e+03,9.995312e+02
2.241844e+03,9.985112e+02
2.242809e+03,1.002691e+03
2.243773e+03,1.008038e+03
2.244737e+03,1.011966e+03
2.245701e+03,1.012249e+03
2.246666e+03,1.003961e+03
2.247630e+03,9.957727e+02
2.248594e+03,9.952998e+02
2.249558e+03,9.975699e+02
2.250522e+03,9.973531e+02
2.251487e+03,9.974915e+02
2.252451e+03,9.982064e+02
2.253415e+03,9.987129e+02
2.254379e+03,1.001814e+03
2.255344e+03,1.001895e+03
2.256308e+03,9.964210e+02
2.257272e+03,9.903463e+02
2.258236e+03,9.887249e+02
2.259201e+03,9.871196e+02
2.260165e+03,9.827609e+02
2.261129e+03,9.810861e+02
2.262093e+03,9.922695e+02
2.263058e+03,9.973307e+02
2.264022e+03,9.914138e+02
2.264986e+03,9.842323e+02
2.265950e+03,9.796005e+02
2.266915e+03,9.783136e+02
2.267879e+03,9.802096e+02
2.268843e+03,9.819254e+02
2.269807e+03,9.841486e+02
2.270771e+03,9.830715e+02
2.271736e+03,9.760125e+02
2.272700e+03,9.730148e+02
2.273664e+03,9.763951e+02
2.274628e+03,9.781224e+02
2.275593e+03,9.722057e+02
2.276557e+03,9.723052e+02
2.277521e+03,9.814435e+02
2.278485e+03,9.869649e+02
2.279449e+03,9.795904e+02
2.280414e+03,9.757041e+02
2.281378e+03,9.760816e+02
2.282342e+03,9.772435e+02
2.283306e+03,9.768951e+02
2.284271e+03,9.769990e+02
2.285235e+03,9.771977e+02
2.286199e+03,9.755782e+02
2.287163e+03,9.718647e+02
2.288128e+03,9.729039e+02
2.289092e+03,9.770746e+02
2.290056e+03,9.759820e+02
2.291020e+03,9.677054e+02
2.291985e+03,9.646788e+02
2.292949e+03,9.669865e+02
2.293913e+03,9.642428e+02
2.294877e+03,9.564734e+02
2.295842e+03,9.601471e+02
2.296806e+03,9.728389e+02
2.297770e+03,9.760560e+02
2.298734e+03,9.707321e+02
2.299698e+03,9.660071e+02
2.300663e+03,9.630173e+02
2.301627e+03,9.656036e+02
2.302591e+03,9.700456e+02
2.303555e+03,9.670935e+02
2.304520e+03,9.596070e+02
2.305484e+03,9.624762e+02
2.306448e+03,9.695242e+02
2.307412e+03,9.689666e+02
2.308376e+03,9.635735e+02
2.309341e+03,9.623594e+02
2.310305e+03,9.616994e+02
2.311269e+03,9.560984e+02
2.312233e+03,9.501710e+02
2.313198e+03,9.515938e+02
2.314162e+03,9.546718e+02
2.315126e+03,9.537810e+02
2.316090e+03,9.507543e+02
2.317055e+03,9.471418e+02
2.318019e+03,9.436457e+02
2.318983e+03,9.379081e+02
2.319947e+03,9.362921e+02
2.320912e+03,9.498175e+02
2.321876e+03,9.617278e+02
2.322840e+03,9.554041e+02
2.323804e+03,9.481035e+02
2.324769e+03,9.462551e+02
2.325733e+03,9.508708e+02
2.326697e+03,9.697357e+02
2.327661e+03,9.770046e+02
2.328625e+03,9.621006e+02
2.329590e+03,9.485207e+02
2.330554e+03,9.552773e+02
2.331518e+03,9.551094e+02
2.332482e+03,9.434647e+02
2.333447e+03,9.354246e+02
2.334411e+03,9.404143e+02
2.335375e+03,9.446717e+02
2.336339e+03,9.471917e+02
2.337303e+03,9.455411e+02
2.338268e+03,9.353586e+02
2.339232e+03,9.299895e+02
2.340196e+03,9.292450e+02
2.341160e+03,9.297208e+02
2.342125e+03,9.304974e+02
2.343089e+03,9.344030e+02
2.344053e+03,9.392389e+02
2.345017e+03,9.419046e+02
2.345982e+03,9.420647e+02
2.346946e+03,9.374910e+02
2.347910e+03,9.314818e+02
2.348874e+03,9.312817e+02
2.349839e+03,9.346790e+02
2.350803e+03,9.374371e+02
2.351767e+03,9.386943e+02
2.352731e+03,9.346744e+02
2.353696e+03,9.285959e+02
2.354660e+03,9.224094e+02
2.355624e+03,9.181758e+02
2.356588e+03,9.229209e+02
2.357552e+03,9.297283e+02
2.358517e+03,9.324900e+02
2.359481e+03,9.336029e+02
2.360445e+03,9.357935e+02
2.361409e+03,9.360461e+02
2.362374e+03,9.323918e+02
2.363338e+03,9.276681e+02
2.364302e+03,9.275016e+02
2.365266e+03,9.239818e+02
2.366230e+03,9.126797e+02
2.367195e+03,9.054580e+02
2.368159e+03,9.133181e+02
2.369123e+03,9.201414e+02
2.370087e+03,9.247493e+02
2.371052e+03,9.247040e+02
2.372016e+03,9.150408e+02
2.372980e+03,9.142000e+02
2.373944e+03,9.219542e+02
2.374909e+03,9.273486e+02
2.375873e+03,9.271702e+02
2.376837e+03,9.251210e+02
2.377801e+03,9.213378e+02
2.378766e+03,9.143102e+02
2.379730e+03,9.044807e+02
2.380694e+03,8.994324e+02
2.381658e+03,9.000209e+02
2.382623e+03,9.118471e+02
2.383587e+03,9.277571e+02
2.384551e+03,9.230343e+02
2.385515e+03,9.094359e+02
2.386479e+03,9.086261e+02
2.387444e+03,9.132832e+02
2.388408e+03,9.120551e+02
2.389372e+03,9.105746e+02
2.390336e+03,9.155081e+02
2.391301e+03,9.199393e+02
2.392265e+03,9.150244e+02
2.393229e+03,9.092338e+02
2.394193e+03,9.075468e+02
2.395157e+03,9.082230e+02
2.396122e+03,9.137896e+02
2.397086e+03,9.135530e+02
2.398050e+03,9.035029e+02
2.399014e+03,8.957612e+02
2.399979e+03,8.948166e+02
2.400943e+03,8.957684e+02
2.401907e+03,8.970258e+02
2.402871e+03,9.017838e+02
2.403836e+03,9.110727e+02
2.404800e+03,9.081601e+02
2.405764e+03,8.932721e+02
2.406728e+03,8.858173e+02
2.407693e+03,8.867162e+02
2.408657e+03,8.894238e+02
2.409621e+03,8.933801e+02
2.410585e+03,8.975486e+02
2.411550e+03,8.993787e+02
2.412514e+03,8.914022e+02
2.413478e+03,8.796195e+02
2.414442e+03,8.826237e+02
2.415406e+03,8.894193e+02
2.416371e+03,8.872227e+02
2.417335e+03,8.816877e+02
2.418299e+03,8.788664e+02
2.419263e+03,8.791517e+02
2.420228e+03,8.831165e+02
2.421192e+03,8.876466e+02
2.422156e+03,8.928954e+02
2.423120e+03,8.917358e+02
2.424084e+03,8.804348e+02
2.425049e+03,8.735637e+02
2.426013e+03,8.832564e+02
2.426977e+03,8.899510e+02
2.427941e+03,8.924432e+02
2.428906e+03,8.885400e+02
2.429870e+03,8.756295e+02
2.430834e+03,8.703126e+02
2.431798e+03,8.721627e+02
2.432763e+03,8.762758e+02
2.433727e+03,8.811271e+02
2.434691e+03,8.848420e+02
2.435655e+03,8.858400e+02
2.436620e+03,8.798718e+02
2.437584e+03,8.708010e+02
2.438548e+03,8.666696e+02
2.439512e+03,8.680289e+02
2.440477e+03,8.768317e+02
2.441441e+03,8.832767e+02
2.442405e+03,8.681170e+02
2.443369e+03,8.579485e+02
2.444333e+03,8.660612e+02
2.445298e+03,8.771631e+02
2.446262e+03,8.793342e+02
2.447226e+03,8.779935e+02
2.448190e+03,8.746440e+02
2.449155e+03,8.719403e+02
2.450119e+03,8.719742e+02
2.451083e+03,8.740154e+02
2.452047e+03,8.771362e+02
2.453011e+03,8.747382e+02
2.453976e+03,8.652584e+02
2.454940e+03,8.615794e+02
2.455904e+03,8.630660e+02
2.456868e+03,8.675978e+02
2.457833e+03,8.721976e+02
2.458797e+03,8.692824e+02
2.459761e+03,8.634778e+02
2.460725e+03,8.602213e+02
2.461690e+03,8.584952e+02
2.462654e+03,8.575750e+02
2.463618e+03,8.563781e+02
2.464582e+03,8.545037e+02
2.465547e+03,8.535801e+02
2.466511e+03,8.525677e+02
2.467475e+03,8.555001e+02
2.468439e+03,8.633405e+02
2.469404e+03,8.683344e+02
2.470368e+03,8.659671e+02
2.471332e+03,8.613552e+02
2.472296e+03,8.547473e+02
2.473260e+03,8.524810e+02
2.474225e+03,8.567173e+02
2.475189e+03,8.561329e+02
2.476153e+03,8.531824e+02
2.477117e+03,8.533856e+02
2.478082e+03,8.558732e+02
2.479046e+03,8.592340e+02
2.480010e+03,8.613809e+02
2.480974e+03,8.580759e+02
2.481938e+03,8.557793e+02
2.482903e+03,8.681500e+02
2.483867e+03,8.769850e+02
2.484831e+03,8.721246e+02
2.485795e+03,8.639028e+02
2.486760e+03,8.609742e+02
2.487724e+03,8.559669e+02
2.488688e+03,8.478610e+02
2.489652e+03,8.432942e+02
2.490617e+03,8.467703e+02
2.491581e+03,8.497452e+02
2.492545e+03,8.522991e+02
2.493509e+03,8.518938e+02
2.494474e+03,8.481611e+02
2.495438e+03,8.493295e+02
2.496402e+03,8.523826e+02
2.497366e+03,8.493215e+02
2.498331e+03,8.444611e+02
2.499295e+03,8.490644e+02
2.500259e+03,8.529715e+02
2.501223e+03,8.479720e+02
2.502188e+03,8.410586e+02
2.503152e+03,8.384418e+02
2.504116e+03,8.378903e+02
2.505080e+03,8.388863e+02
2.506044e+03,8.380735e+02
2.507009e+03,8.282585e+02
2.507973e+03,8.273303e+02
2.508937e+03,8.355395e+02
2.509901e+03,8.432165e+02
2.510865e+03,8.478852e+02
2.511830e+03,8.497902e+02
2.512794e+03,8.474966e+02
2.513758e+03,8.344083e+02
2.514722e+03,8.190804e+02
2.515687e+03,8.297196e+02
2.516651e+03,8.440709e+02
2.517615e+03,8.373292e+02
2.518579e+03,8.253006e+02
2.519544e+03,8.285932e+02
2.520508e+03,8.326507e+02
2.521472e+03,8.321302e+02
2.522436e+03,8.312475e+02
2.523401e+03,8.335284e+02
2.524365e+03,8.350909e+02
2.525329e+03,8.349055e+02
2.526293e+03,8.316783e+02
2.527258e+03,8.256329e+02
2.528222e+03,8.203405e+02
2.529186e+03,8.174223e+02
2.530150e+03,8.230090e+02
2.531115e+03,8.334765e+02
2.532079e+03,8.370887e+02
2.533043e+03,8.350893e+02
2.534007e+03,8.278550e+02
2.534971e+03,8.213618e+02
2.535936e+03,8.277892e+02
2.536900e+03,8.331531e+02
2.537864e+03,8.325997e+02
2.538828e+03,8.290401e+02
2.539792e+03,8.208539e+02
2.540757e+03,8.181332e+02
2.541721e+03,8.216755e+02
2.542685e+03,8.216338e+02
2.543649e+03,8.179318e+02
2.544614e+03,8.203069e+02
2.545578e+03,8.257129e+02
2.546542e+03,8.248665e+02
2.547506e+03,8.213930e+02
2.548471e+03,8.247545e+02
2.549435e+03,8.289243e+02
2.550399e+03,8.286838e+02
2.551363e+03,8.266848e+02
2.552328e+03,8.255425e+02
2.553292e+03,8.232943e+02
2.554256e+03,8.179540e+02
2.555220e+03,8.201425e+02
2.556185e+03,8.311711e+02
2.557149e+03,8.344996e+02
2.558113e+03,8.274025e+02
2.559077e+03,8.244222e+02
2.560042e+03,8.242855e+02
2.561006e+03,8.225771e+02
2.561970e+03,8.206341e+02
2.562934e+03,8.186923e+02
2.563898e+03,8.171024e+02
2.564863e+03,8.169881e+02
2.565827e+03,8.144733e+02
2.566791e+03,8.026819e+02
2.567755e+03,7.995698e+02
2.568719e+03,8.080896e+02
2.569684e+03,8.161376e+02
2.570648e+03,8.200261e+02
2.571612e+03,8.142514e+02
2.572576e+03,8.023978e+02
2.573541e+03,7.998564e+02
2.574505e+03,8.056213e+02
2.575469e+03,8.118625e+02
2.576433e+03,8.144785e+02
2.577398e+03,8.055868e+02
2.578362e+03,7.959968e+02
2.579326e+03,8.035930e+02
2.580290e+03,8.103914e+02
2.581255e+03,8.084072e+02
2.582219e+03,8.026387e+02
2.583183e+03,7.924498e+02
2.584147e+03,7.902111e+02
2.585112e+03,7.967570e+02
2.586076e+03,7.998309e+02
2.587040e+03,7.973473e+02
2.588004e+03,7.992924e+02
2.588969e+03,8.031340e+02
2.589933e+03,8.051134e+02
2.590897e+03,8.054124e+02
2.591861e+03,8.029512e+02
2.592825e+03,8.007678e+02
2.593790e+03,8.001113e+02
2.594754e+03,8.014680e+02
2.595718e+03,8.081017e+02
2.596682e+03,8.045458e+02
2.597646e+03,7.863193e+02
2.598611e+03,7.851035e+02
2.599575e+03,8.020709e+02
2.600539e+03,8.073246e+02
2.601503e+03,8.007888e+02
2.602468e+03,7.989916e+02
2.603432e+03,7.990862e+02
2.604396e+03,7.957500e+02
2.605360e+03,7.928978e+02
2.606325e+03,7.934114e+02
2.607289e+03,7.953487e+02
2.608253e+03,7.982385e+02
2.609217e+03,8.004167e+02
2.610182e+03,8.001732e+02
2.611146e+03,7.955793e+02
2.612110e+03,7.883768e+02
2.613074e+03,7.900024e+02
2.614039e+03,7.994076e+02
2.615003e+03,7.983220e+02
2.615967e+03,7.911583e+02
2.616931e+03,7.862726e+02
2.617896e+03,7.825430e+02
2.618860e+03,7.746590e+02
2.619824e+03,7.735930e+02
2.620788e+03,7.830594e+02
2.621752e+03,7.926893e+02
2.622717e+03,7.982155e+02
2.623681e+03,7.990887e+02
2.624645e+03,7.959444e+02
2.625609e+03,7.971899e+02
2.626573e+03,8.017832e+02
2.627538e+03,7.967761e+02
2.628502e+03,7.870117e+02
2.629466e+03,7.770680e+02
2.630430e+03,7.716131e+02
2.631395e+03,7.832264e+02
2.632359e+03,7.910341e+02
2.633323e+03,7.867268e+02
2.634287e+03,7.817025e+02
2.635252e+03,7.792273e+02
2.636216e+03,7.770616e+02
2.637180e+03,7.747158e+02
2.638144e+03,7.766235e+02
2.639109e+03,7.805381e+02
2.640073e+03,7.812174e+02
2.641037e+03,7.815307e+02
2.642001e+03,7.863160e+02
2.642966e+03,7.862006e+02
2.643930e+03,7.748609e+02
2.644894e+03,7.665240e+02
2.645858e+03,7.769344e+02
2.646823e+03,7.752260e+02
2.647787e+03,7.614696e+02
2.648751e+03,7.602332e+02
2.649715e+03,7.726562e+02
2.650679e+03,7.745922e+02
2.651644e+03,7.721388e+02
2.652608e+03,7.750947e+02
2.653572e+03,7.798576e+02
2.654536e+03,7.823956e+02
2.655500e+03,7.828160e+02
2.656465e+03,7.811019e+02
2.657429e+03,7.773624e+02
2.658393e+03,7.707691e+02
2.659357e+03,7.702728e+02
2.660322e+03,7.764109e+02
2.661286e+03,7.751404e+02
2.662250e+03,7.689955e+02
2.663214e+03,7.640762e+02
2.664179e+03,7.629894e+02
2.665143e+03,7.745069e+02
2.666107e+03,7.813699e+02
2.667071e+03,7.742968e+02
2.668036e+03,7.666763e+02
2.669000e+03,7.623262e+02
2.669964e+03,7.690813e+02
2.670928e+03,7.829407e+02
2.671893e+03,7.763839e+02
2.672857e+03,7.557294e+02
2.673821e+03,7.593291e+02
2.674785e+03,7.699217e+02
2.675750e+03,7.682294e+02
2.676714e+03,7.638201e+02
2.677678e+03,7.679951e+02
2.678642e+03,7.690787e+02
2.679606e+03,7.644860e+02
2.680571e+03,7.640183e+02
2.681535e+03,7.687443e+02
2.682499e+03,7.684725e+02
2.683463e+03,7.635577e+02
2.684427e+03,7.602130e+02
2.685392e+03,7.591299e+02
2.686356e+03,7.633249e+02
2.687320e+03,7.659738e+02
2.688284e+03,7.607784e+02
2.689249e+03,7.575441e+02
2.690213e+03,7.579608e+02
2.691177e+03,7.571053e+02
2.692141e+03,7.539905e+02
2.693106e+03,7.586151e+02
2.694070e+03,7.658937e+02
2.695034e+03,7.614867e+02
2.695998e+03,7.522247e+02
2.696963e+03,7.482320e+02
2.697927e+03,7.486838e+02
2.698891e+03,7.523878e+02
2.699855e+03,7.557324e+02
2.700820e+03,7.577672e+02
2.701784e+03,7.569975e+02
2.702748e+03,7.539885e+02
2.703712e+03,7.588915e+02
2.704677e+03,7.670886e+02
2.705641e+03,7.613744e+02
2.706605e+03,7.528186e+02
2.707569e+03,7.529406e+02
2.708533e+03,7.540505e+02
2.709498e+03,7.521191e+02
2.710462e+03,7.497987e+02
2.711426e+03,7.486505e+02
2.712390e+03,7.513281e+02
2.713354e+03,7.559296e+02
2.714319e+03,7.527418e+02
2.715283e+03,7.462839e+02
2.716247e+03,7.490535e+02
2.717211e+03,7.541200e+02
2.718176e+03,7.561754e+02
2.719140e+03,7.589867e+02
2.720104e+03,7.665486e+02
2.721068e+03,7.694855e+02
2.722033e+03,7.660176e+02
2.722997e+03,7.496756e+02
2.723961e+03,7.276529e+02
2.724925e+03,7.337368e+02
2.725890e+03,7.502405e+02
2.726854e+03,7.514423e+02
2.727818e+03,7.484089e+02
2.728782e+03,7.466461e+02
2.729747e+03,7.436301e+02
2.730711e+03,7.364498e+02
2.731675e+03,7.358091e+02
2.732639e+03,7.402151e+02
2.733604e+03,7.396217e+02
2.734568e+03,7.366322e+02
2.735532e+03,7.413301e+02
2.736496e+03,7.474893e+02
2.737460e+03,7.521968e+02
2.738425e+03,7.498346e+02
2.739389e+03,7.336862e+02
2.740353e+03,7.256512e+02
2.741317e+03,7.295237e+02
2.742281e+03,7.351722e+02
2.743246e+03,7.417680e+02
2.744210e+03,7.503912e+02
2.745174e+03,7.556618e+02
2.746138e+03,7.506862e+02
2.747103e+03,7.426014e+02
2.748067e+03,7.347050e+02
2.749031e+03,7.319579e+02
2.749995e+03,7.386937e+02
2.750960e+03,7.445071e+02
2.751924e+03,7.485826e+02
2.752888e+03,7.486767e+02
2.753852e+03,7.447990e+02
2.754817e+03,7.315634e+02
2.755781e+03,7.235786e+02
2.756745e+03,7.306578e+02
2.757709e+03,7.348485e+02
2.758674e+03,7.297252e+02
2.759638e+03,7.266399e+02
2.760602e+03,7.278275e+02
2.761566e+03,7.287357e+02
2.762531e+03,7.314531e+02
2.763495e+03,7.416271e+02
2.764459e+03,7.468082e+02
2.765423e+03,7.256379e+02
2.766387e+03,7.160740e+02
2.767352e+03,7.259074e+02
2.768316e+03,7.250914e+02
2.769280e+03,7.077084e+02
2.770244e+03,7.116385e+02
2.771208e+03,7.267371e+02
2.772173e+03,7.278695e+02
2.773137e+03,7.255956e+02
2.774101e+03,7.347473e+02
2.775065e+03,7.403585e+02
2.776030e+03,7.348865e+02
2.776994e+03,7.310645e+02
2.777958e+03,7.288528e+02
2.778922e+03,7.227469e+02
2.779887e+03,7.151588e+02
2.780851e+03,7.104158e+02
2.781815e+03,7.131467e+02
2.782779e+03,7.278187e+02
2.783744e+03,7.360207e+02
2.784708e+03,7.227332e+02
2.785672e+03,7.121754e+02
2.786636e+03,7.064268e+02
2.787601e+03,7.018777e+02
2.788565e+03,7.001161e+02
2.789529e+03,7.094631e+02
2.790493e+03,7.188297e+02
2.791458e+03,7.142751e+02
2.792422e+03,7.150372e+02
2.793386e+03,7.256416e+02
2.794350e+03,7.307386e+02
2.795314e+03,7.260901e+02
2.796279e+03,7.226160e+02
2.797243e+03,7.205871e+02
2.798207e+03,7.212638e+02
2.799171e+03,7.245322e+02
2.800135e+03,7.319637e+02
2.801100e+03,7.365560e+02
2.802064e+03,7.370045e+02
2.803028e+03,7.363583e+02
2.803992e+03,7.342610e+02
2.804957e+03,7.222042e+02
2.805921e+03,7.113328e+02
2.806885e+03,7.300012e+02
2.807849e+03,7.418270e+02
2.808814e+03,7.288474e+02
2.809778e+03,7.193928e+02
2.810742e+03,7.302899e+02
2.811706e+03,7.259791e+02
2.812671e+03,7.108028e+02
2.813635e+03,7.047890e+02
2.814599e+03,7.056645e+02
2.815563e+03,7.137055e+02
2.816528e+03,7.184301e+02
2.817492e+03,7.132781e+02
2.818456e+03,7.076823e+02
2.819420e+03,7.030850e+02
2.820385e+03,7.057667e+02
2.821349e+03,7.133753e+02
2.822313e+03,7.157233e+02
2.823277e+03,7.096158e+02
2.824241e+03,6.908138e+02
2.825206e+03,6.836137e+02
2.826170e+03,7.075377e+02
2.827134e+03,7.212248e+02
2.828098e+03,7.204428e+02
2.829063e+03,7.191543e+02
2.830027e+03,7.189154e+02
2.830991e+03,7.258691e+02
2.831955e+03,7.296840e+02
2.832919e+03,7.139508e+02
2.833884e+03,7.063678e+02
2.834848e+03,7.097722e+02
2.835812e+03,7.077052e+02
2.836776e+03,6.999686e+02
2.837741e+03,7.039105e+02
2.838705e+03,7.086102e+02
2.839669e+03,6.995569e+02
2.840633e+03,6.957820e+02
2.841598e+03,7.083414e+02
2.842562e+03,7.170574e+02
2.843526e+03,7.173324e+02
2.844490e+03,7.132125e+02
2.845455e+03,7.090449e+02
2.846419e+03,7.153194e+02
2.847383e+03,7.224440e+02
2.848347e+03,7.167272e+02
2.849312e+03,7.164607e+02
2.850276e+03,7.243278e+02
2.851240e+03,7.238314e+02
2.852204e+03,7.162689e+02
2.853168e+03,7.201505e+02
2.854133e+03,7.273609e+02
2.855097e+03,7.291442e+02
2.856061e+03,7.261027e+02
2.857025e+03,7.182807e+02
2.857990e+03,7.133314e+02
2.858954e+03,7.139562e+02
2.859918e+03,7.099628e+02
2.860882e+03,7.074237e+02
2.861846e+03,7.168034e+02
2.862811e+03,7.259836e+02
2.863775e+03,7.226436e+02
2.864739e+03,7.187165e+02
2.865703e+03,7.169567e+02
2.866668e+03,7.204705e+02
2.867632e+03,7.262712e+02
2.868596e+03,7.268956e+02
2.869560e+03,7.238419e+02
2.870525e+03,7.168741e+02
2.871489e+03,7.126013e+02
2.872453e+03,7.121440e+02
2.873417e+03,7.180004e+02
2.874382e+03,7.273537e+02
2.875346e+03,7.256799e+02
2.876310e+03,7.208326e+02
2.877274e+03,7.248981e+02
2.878239e+03,7.261147e+02
2.879203e+03,7.197157e+02
2.880167e+03,7.158184e+02
2.881131e+03,7.185583e+02
2.882095e+03,7.142169e+02
2.883060e+03,7.076459e+02
2.884024e+03,7.037537e+02
2.884988e+03,7.087845e+02
2.885952e+03,7.334734e+02
2.886917e+03,7.445427e+02
2.887881e+03,7.334166e+02
2.888845e+03,7.276600e+02
2.889809e+03,7.263646e+02
2.890773e+03,7.238480e+02
2.891738e+03,7.209764e+02
2.892702e+03,7.205020e+02
2.893666e+03,7.220248e+02
2.894630e+03,7.252179e+02
2.895595e+03,7.261531e+02
2.896559e+03,7.244616e+02
2.897523e+03,7.174852e+02
2.898487e+03,7.124430e+02
2.899452e+03,7.207075e+02
2.900416e+03,7.244631e+02
2.901380e+03,7.198964e+02
2.902344e+03,7.193503e+02
2.903309e+03,7.233937e+02
2.904273e+03,7.135863e+02
2.905237e+03,7.030463e+02
2.906201e+03,7.054403e+02
2.907166e+03,7.120361e+02
2.908130e+03,7.185372e+02
2.909094e+03,7.268076e+02
2.910058e+03,7.356695e+02
2.911022e+03,7.336768e+02
2.911987e+03,7.266943e+02
2.912951e+03,7.204437e+02
2.913915e+03,7.165028e+02
2.914879e+03,7.177612e+02
2.915844e+03,7.103958e+02
2.916808e+03,6.964114e+02
2.917772e+03,6.942818e+02
2.918736e+03,7.001790e+02
2.919700e+03,7.105500e+02
2.920665e+03,7.142476e+02
2.921629e+03,6.941846e+02
2.922593e+03,6.914869e+02
2.923557e+03,7.033625e+02
2.924522e+03,7.044940e+02
2.925486e+03,6.978340e+02
2.926450e+03,6.890421e+02
2.927414e+03,6.824543e+02
2.928379e+03,6.795391e+02
2.929343e+03,6.867525e+02
2.930307e+03,7.002396e+02
2.931271e+03,7.003264e+02
2.932236e+03,6.945168e+02
2.933200e+03,6.969987e+02
2.934164e+03,6.944024e+02
2.935128e+03,6.796688e+02
2.936093e+03,6.821204e+02
2.937057e+03,6.999598e+02
2.938021e+03,6.946495e+02
2.938985e+03,6.816357e+02
2.939949e+03,6.889641e+02
2.940914e+03,6.960434e+02
2.941878e+03,6.958703e+02
2.942842e+03,6.939078e+02
2.943806e+03,6.913441e+02
2.944771e+03,7.064211e+02
2.945735e+03,7.223514e+02
2.946699e+03,7.152039e+02
2.947663e+03,7.018601e+02
2.948627e+03,6.882914e+02
2.949592e+03,6.856448e+02
2.950556e+03,6.945464e+02
2.951520e+03,6.968826e+02
2.952484e+03,6.875153e+02
2.953449e+03,6.585848e+02
2.954413e+03,6.518333e+02
2.955377e+03,6.847776e+02
2.956341e+03,7.063798e+02
2.957306e+03,7.113454e+02
2.958270e+03,7.224319e+02
2.959234e+03,7.202211e+02
2.960198e+03,6.905943e+02
2.961163e+03,6.706371e+02
2.962127e+03,6.766149e+02
2.963091e+03,6.860194e+02
2.964055e+03,6.918016e+02
2.965020e+03,6.767833e+02
2.965984e+03,6.700021e+02
2.966948e+03,6.932800e+02
2.967912e+03,7.059196e+02
2.968876e+03,6.863201e+02
2.969841e+03,6.854777e+02
2.970805e+03,6.916822e+02
2.971769e+03,6.817031e+02
2.972733e+03,6.684559e+02
2.973698e+03,6.611330e+02
2.974662e+03,6.586561e+02
2.975626e+03,6.612077e+02
2.976590e+03,6.547457e+02
2.977554e+03,6.492242e+02
2.978519e+03,6.581972e+02
2.979483e+03,6.643093e+02
2.980447e+03,6.550480e+02
2.981411e+03,6.512341e+02
2.982376e+03,6.551728e+02
2.983340e+03,6.560352e+02
2.984304e+03,6.555330e+02
2.985268e+03,6.564741e+02
2.986233e+03,6.530263e+02
2.987197e+03,6.402745e+02
2.988161e+03,6.325807e+02
2.989125e+03,6.323688e+02
2.990090e+03,6.437164e+02
2.991054e+03,6.534804e+02
2.992018e+03,6.521078e+02
2.992982e+03,6.390879e+02
2.993947e+03,6.104407e+02
2.994911e+03,6.155842e+02
2.995875e+03,6.355767e+02
2.996839e+03,6.330729e+02
2.997803e+03,6.354594e+02
2.998768e+03,6.634543e+02
2.999732e+03,6.680625e+02
3.000696e+03,6.423112e+02
3.001660e+03,6.266218e+02
3.002625e+03,6.239179e+02
3.003589e+03,6.370090e+02
3.004553e+03,6.449842e+02
3.005517e+03,6.382400e+02
3.006481e+03,6.372688e+02
3.007446e+03,6.405115e+02
3.008410e+03,6.372210e+02
3.009374e+03,6.334426e+02
3.010338e+03,6.331081e+02
3.011303e+03,6.414811e+02
3.012267e+03,6.589473e+02
3.013231e+03,6.591311e+02
3.014195e+03,6.458118e+02
3.015160e+03,6.244205e+02
3.016124e+03,6.067302e+02
3.017088e+03,5.957516e+02
3.018052e+03,6.047078e+02
3.019017e+03,6.304440e+02
3.019981e+03,6.480475e+02
3.020945e+03,6.513108e+02
3.021909e+03,6.320474e+02
3.022874e+03,6.246396e+02
3.023838e+03,6.338217e+02
3.024802e+03,6.456116e+02
3.025766e+03,6.527236e+02
3.026730e+03,6.351817e+02
3.027695e+03,6.184413e+02
3.028659e+03,6.134766e+02
3.029623e+03,6.223063e+02
3.030587e+03,6.381019e+02
3.031552e+03,6.285793e+02
3.032516e+03,6.165201e+02
3.033480e+03,6.406569e+02
3.034444e+03,6.419858e+02
3.035408e+03,6.150318e+02
3.036373e+03,6.127684e+02
3.037337e+03,6.279606e+02
3.038301e+03,6.362302e+02
3.039265e+03,6.370265e+02
3.040230e+03,6.229921e+02
3.041194e+03,6.171951e+02
3.042158e+03,6.184075e+02
3.043122e+03,6.166340e+02
3.044087e+03,6.157535e+02
3.045051e+03,6.218910e+02
3.046015e+03,6.293141e+02
3.046979e+03,6.370458e+02
3.047944e+03,6.279352e+02
3.048908e+03,6.159559e+02
3.049872e+03,6.235828e+02
3.050836e+03,6.272186e+02
3.051801e+03,6.076979e+02
3.052765e+03,6.091480e+02
3.053729e+03,6.271052e+02
3.054693e+03,6.108500e+02
3.055657e+03,5.941383e+02
3.056622e+03,5.993994e+02
3.057586e+03,6.124191e+02
3.058550e+03,6.282018e+02
3.059514e+03,6.271105e+02
3.060479e+03,6.222247e+02
3.061443e+03,6.411005e+02
3.062407e+03,6.446653e+02
3.063371e+03,6.252186e+02
3.064335e+03,6.201525e+02
3.065300e+03,6.280357e+02
3.066264e+03,6.200135e+02
3.067228e+03,6.131666e+02
3.068192e+03,6.184222e+02
3.069157e+03,6.251609e+02
3.070121e+03,6.299564e+02
3.071085e+03,6.252902e+02
3.072049e+03,6.178072e+02
3.073014e+03,6.164404e+02
3.073978e+03,6.179481e+02
3.074942e+03,6.210483e+02
3.075906e+03,6.137855e+02
3.076871e+03,6.053766e+02
3.077835e+03,6.102827e+02
3.078799e+03,6.175856e+02
3.079763e+03,6.228089e+02
3.080728e+03,6.051018e+02
3.081692e+03,5.799565e+02
3.082656e+03,6.053152e+02
3.083620e+03,6.315229e+02
3.084584e+03,6.312921e+02
3.085549e+03,6.190216e+02
3.086513e+03,6.010207e+02
3.087477e+03,6.023074e+02
3.088441e+03,6.097554e+02
3.089406e+03,6.100706e+02
3.090370e+03,6.154211e+02
3.091334e+03,6.259194e+02
3.092298e+03,6.194150e+02
3.093262e+03,6.084681e+02
3.094227e+03,6.265378e+02
3.095191e+03,6.389846e+02
3.096155e+03,6.333232e+02
3.097119e+03,6.170026e+02
3.098084e+03,6.001896e+02
3.099048e+03,5.968013e+02
3.100012e+03,6.081617e+02
3.100976e+03,6.443840e+02
3.101941e+03,6.437747e+02
3.102905e+03,6.117924e+02
3.103869e+03,6.183876e+02
3.104833e+03,6.308245e+02
3.105798e+03,6.281242e+02
3.106762e+03,6.175469e+02
3.107726e+03,6.039340e+02
3.108690e+03,6.061761e+02
3.109655e+03,6.122369e+02
3.110619e+03,6.046279e+02
3.111583e+03,6.077325e+02
3.112547e+03,6.209362e+02
3.113511e+03,6.053622e+02
3.114476e+03,5.813748e+02
3.115440e+03,6.009897e+02
3.116404e+03,6.216239e+02
3.117368e+03,6.312354e+02
3.118333e+03,6.128915e+02
3.119297e+03,5.925061e+02
3.120261e+03,6.148948e+02
3.121225e+03,6.327790e+02
3.122189e+03,6.191573e+02
3.123154e+03,6.114133e+02
3.124118e+03,6.134715e+02
3.125082e+03,6.293547e+02
3.126046e+03,6.381090e+02
3.127011e+03,6.298779e+02
3.127975e+03,6.200585e+02
3.128939e+03,6.134736e+02
3.129903e+03,6.269025e+02
3.130868e+03,6.363887e+02
3.131832e+03,6.095909e+02
3.132796e+03,6.049636e+02
3.133760e+03,6.176818e+02
3.134725e+03,5.961318e+02
3.135689e+03,5.740656e+02
3.136653e+03,5.839948e+02
3.137617e+03,6.061398e+02
3.138582e+03,6.351451e+02
3.139546e+03,6.190586e+02
3.140510e+03,5.961107e+02
3.141474e+03,6.116819e+02
3.142438e+03,6.229564e+02
3.143403e+03,6.207120e+02
3.144367e+03,5.977259e+02
3.145331e+03,5.742331e+02
3.146295e+03,5.864972e+02
3.147260e+03,6.061595e+02
3.148224e+03,6.246439e+02
3.149188e+03,6.222531e+02
3.150152e+03,6.108649e+02
3.151116e+03,6.048333e+02
3.152081e+03,6.099450e+02
3.153045e+03,6.272067e+02
3.154009e+03,6.300869e+02
3.154973e+03,6.242988e+02
3.155938e+03,6.226619e+02
3.156902e+03,6.216062e+02
3.157866e+03,6.183194e+02
3.158830e+03,5.999157e+02
3.159795e+03,5.799866e+02
3.160759e+03,5.929798e+02
3.161723e+03,6.114879e+02
3.162687e+03,6.295099e+02
3.163652e+03,6.213489e+02
3.164616e+03,6.029960e+02
3.165580e+03,6.028542e+02
3.166544e+03,6.161356e+02
3.167509e+03,6.380331e+02
3.168473e+03,6.214699e+02
3.169437e+03,5.824110e+02
3.170401e+03,5.805720e+02
3.171365e+03,5.895837e+02
3.172330e+03,5.991046e+02
3.173294e+03,5.939684e+02
3.174258e+03,5.801042e+02
3.175222e+03,5.678290e+02
3.176187e+03,5.664371e+02
3.177151e+03,5.852701e+02
3.178115e+03,5.918924e+02
3.179079e+03,5.894326e+02
3.180043e+03,5.936514e+02
3.181008e+03,6.011776e+02
3.181972e+03,6.107920e+02
3.182936e+03,6.172415e+02
3.183900e+03,6.184850e+02
3.184865e+03,6.019260e+02
3.185829e+03,5.954434e+02
3.186793e+03,6.321284e+02
3.187757e+03,6.399726e+02
3.188722e+03,6.317745e+02
3.189686e+03,6.466376e+02
3.190650e+03,6.389098e+02
3.191614e+03,5.952712e+02
3.192579e+03,5.851192e+02
3.193543e+03,6.008857e+02
3.194507e+03,6.106031e+02
3.195471e+03,6.004694e+02
3.196436e+03,5.604664e+02
3.197400e+03,5.581937e+02
3.198364e+03,5.794702e+02
3.199328e+03,5.955635e+02
3.200292e+03,6.087726e+02
3.201257e+03,0.000000e+00
3.202221e+03,0.000000e+00
3.203185e+03,0.000000e+00
3.204149e+03,0.000000e+00
3.205114e+03,0.000000e+00
3.206078e+03,0.000000e+00
3.207042e+03,0.000000e+00
3.208006e+03,0.000000e+00
3.208970e+03,0.000000e+00
3.209935e+03,0.000000e+00
3.210899e+03,0.000000e+00
3.211863e+03,0.000000e+00
3.212827e+03,0.000000e+00
3.213792e+03,0.000000e+00
3.214756e+03,0.000000e+00
3.215720e+03,0.000000e+00
3.216684e+03,0.000000e+00
3.217649e+03,0.000000e+00
3.218613e+03,0.000000e+00
3.219577e+03,0.000000e+00
3.220541e+03,0.000000e+00
3.221506e+03,0.000000e+00
3.222470e+03,0.000000e+00
3.223434e+03,0.000000e+00
3.224398e+03,0.000000e+00
3.225363e+03,0.000000e+00
3.226327e+03,0.000000e+00
3.227291e+03,0.000000e+00
3.228255e+03,0.000000e+00
3.229219e+03,0.000000e+00
3.230184e+03,0.000000e+00
3.231148e+03,0.000000e+00
3.232112e+03,0.000000e+00
3.233076e+03,0.000000e+00
3.234041e+03,0.000000e+00
3.235005e+03,0.000000e+00
3.235969e+03,0.000000e+00
3.236933e+03,0.000000e+00
3.237897e+03,0.000000e+00
3.238862e+03,0.000000e+00
3.239826e+03,0.000000e+00
3.240790e+03,0.000000e+00
3.241754e+03,0.000000e+00
3.242719e+03,0.000000e+00
3.243683e+03,0.000000e+00
3.244647e+03,0.000000e+00
3.245611e+03,0.000000e+00
3.246576e+03,0.000000e+00
3.247540e+03,0.000000e+00
3.248504e+03,0.000000e+00
3.249468e+03,0.000000e+00
3.250433e+03,0.000000e+00
3.251397e+03,0.000000e+00
3.252361e+03,0.000000e+00
3.253325e+03,0.000000e+00
3.254290e+03,0.000000e+00
3.255254e+03,0.000000e+00
3.256218e+03,0.000000e+00
3.257182e+03,0.000000e+00
3.258146e+03,0.000000e+00
3.259111e+03,0.000000e+00
3.260075e+03,0.000000e+00
3.261039e+03,0.000000e+00
3.262003e+03,0.000000e+00
3.262968e+03,0.000000e+00
3.263932e+03,0.000000e+00
3.264896e+03,0.000000e+00
3.265860e+03,0.000000e+00
3.266824e+03,0.000000e+00
3.267789e+03,0.000000e+00
3.268753e+03,0.000000e+00
3.269717e+03,0.000000e+00
3.270681e+03,0.000000e+00
3.271646e+03,0.000000e+00
3.272610e+03,0.000000e+00
3.273574e+03,0.000000e+00
3.274538e+03,0.000000e+00
3.275503e+03,0.000000e+00
3.276467e+03,0.000000e+00
3.277431e+03,0.000000e+00
3.278395e+03,0.000000e+00
3.279360e+03,0.000000e+00
3.280324e+03,0.000000e+00
3.281288e+03,0.000000e+00
3.282252e+03,0.000000e+00
3.283217e+03,0.000000e+00
3.284181e+03,0.000000e+00
3.285145e+03,0.000000e+00
3.286109e+03,0.000000e+00
3.287073e+03,0.000000e+00
3.288038e+03,0.000000e+00
3.289002e+03,0.000000e+00
3.289966e+03,0.000000e+00
3.290930e+03,0.000000e+00
3.291895e+03,0.000000e+00
3.292859e+03,0.000000e+00
3.293823e+03,0.000000e+00
3.294787e+03,0.000000e+00
3.295751e+03,0.000000e+00
3.296716e+03,0.000000e+00
3.297680e+03,0.000000e+00
3.298644e+03,0.000000e+00
3.299608e+03,0.000000e+00
3.300573e+03,0.000000e+00
3.301537e+03,0.000000e+00
3.302501e+03,0.000000e+00
3.303465e+03,0.000000e+00
3.304430e+03,0.000000e+00
3.305394e+03,0.000000e+00
3.306358e+03,0.000000e+00
3.307322e+03,0.000000e+00
3.308287e+03,0.000000e+00
3.309251e+03,0.000000e+00
3.310215e+03,0.000000e+00
3.311179e+03,0.000000e+00
3.312144e+03,0.000000e+00
3.313108e+03,0.000000e+00
3.314072e+03,0.000000e+00
3.315036e+03,0.000000e+00
3.316000e+03,0.000000e+00
3.316965e+03,0.000000e+00
3.317929e+03,0.000000e+00
3.318893e+03,0.000000e+00
3.319857e+03,0.000000e+00
3.320822e+03,0.000000e+00
3.321786e+03,0.000000e+00
3.322750e+03,0.000000e+00
3.323714e+03,0.000000e+00
3.324678e+03,0.000000e+00
3.325643e+03,0.000000e+00
3.326607e+03,0.000000e+00
3.327571e+03,0.000000e+00
3.328535e+03,0.000000e+00
3.329500e+03,0.000000e+00
3.330464e+03,0.000000e+00
3.331428e+03,0.000000e+00
3.332392e+03,0.000000e+00
3.333357e+03,0.000000e+00
3.334321e+03,0.000000e+00
3.335285e+03,0.000000e+00
3.336249e+03,0.000000e+00
3.337214e+03,0.000000e+00
3.338178e+03,0.000000e+00
3.339142e+03,0.000000e+00
3.340106e+03,0.000000e+00
3.341071e+03,0.000000e+00
3.342035e+03,0.000000e+00
3.342999e+03,0.000000e+00
3.343963e+03,0.000000e+00
3.344927e+03,0.000000e+00
3.345892e+03,0.000000e+00
3.346856e+03,0.000000e+00
3.347820e+03,0.000000e+00
3.348784e+03,0.000000e+00
3.349749e+03,0.000000e+00
3.350713e+03,0.000000e+00
3.351677e+03,0.000000e+00
3.352641e+03,0.000000e+00
3.353605e+03,0.000000e+00
3.354570e+03,0.000000e+00
3.355534e+03,0.000000e+00
3.356498e+03,0.000000e+00
3.357462e+03,0.000000e+00
3.358427e+03,0.000000e+00
3.359391e+03,0.000000e+00
3.360355e+03,0.000000e+00
3.361319e+03,0.000000e+00
3.362284e+03,0.000000e+00
3.363248e+03,0.000000e+00
3.364212e+03,0.000000e+00
3.365176e+03,0.000000e+00
3.366141e+03,0.000000e+00
3.367105e+03,0.000000e+00
3.368069e+03,0.000000e+00
3.369033e+03,0.000000e+00
3.369998e+03,0.000000e+00
3.370962e+03,0.000000e+00
3.371926e+03,0.000000e+00
3.372890e+03,0.000000e+00
3.373854e+03,0.000000e+00
3.374819e+03,0.000000e+00
3.375783e+03,0.000000e+00
3.376747e+03,0.000000e+00
3.377711e+03,0.000000e+00
3.378676e+03,0.000000e+00
3.379640e+03,0.000000e+00
3.380604e+03,0.000000e+00
3.381568e+03,0.000000e+00
3.382532e+03,0.000000e+00
3.383497e+03,0.000000e+00
3.384461e+03,0.000000e+00
3.385425e+03,0.000000e+00
3.386389e+03,0.000000e+00
3.387354e+03,0.000000e+00
3.388318e+03,0.000000e+00
3.389282e+03,0.000000e+00
3.390246e+03,0.000000e+00
3.391211e+03,0.000000e+00
3.392175e+03,0.000000e+00
3.393139e+03,0.000000e+00
3.394103e+03,0.000000e+00
3.395068e+03,0.000000e+00
3.396032e+03,0.000000e+00
3.396996e+03,0.000000e+00
3.397960e+03,0.000000e+00
3.398925e+03,0.000000e+00
3.399889e+03,0.000000e+00
3.400853e+03,0.000000e+00
3.401817e+03,0.000000e+00
3.402781e+03,0.000000e+00
3.403746e+03,0.000000e+00
3.404710e+03,0.000000e+00
3.405674e+03,0.000000e+00
3.406638e+03,0.000000e+00
3.407603e+03,0.000000e+00
3.408567e+03,0.000000e+00
3.409531e+03,0.000000e+00
3.410495e+03,0.000000e+00
3.411459e+03,0.000000e+00
3.412424e+03,0.000000e+00
3.413388e+03,0.000000e+00
3.414352e+03,0.000000e+00
3.415316e+03,0.000000e+00
3.416281e+03,0.000000e+00
3.417245e+03,0.000000e+00
3.418209e+03,0.000000e+00
3.419173e+03,0.000000e+00
3.420138e+03,0.000000e+00
3.421102e+03,0.000000e+00
3.422066e+03,0.000000e+00
3.423030e+03,0.000000e+00
3.423995e+03,0.000000e+00
3.424959e+03,0.000000e+00
3.425923e+03,0.000000e+00
3.426887e+03,0.000000e+00
3.427852e+03,0.000000e+00
3.428816e+03,0.000000e+00
3.429780e+03,0.000000e+00
3.430744e+03,0.000000e+00
3.431708e+03,0.000000e+00
3.432673e+03,0.000000e+00
3.433637e+03,0.000000e+00
3.434601e+03,0.000000e+00
3.435565e+03,0.000000e+00
3.436530e+03,0.000000e+00
3.437494e+03,0.000000e+00
3.438458e+03,0.000000e+00
3.439422e+03,0.000000e+00
3.440386e+03,0.000000e+00
3.441351e+03,0.000000e+00
3.442315e+03,0.000000e+00
3.443279e+03,0.000000e+00
3.444243e+03,0.000000e+00
3.445208e+03,0.000000e+00
3.446172e+03,0.000000e+00
3.447136e+03,0.000000e+00
3.448100e+03,0.000000e+00
3.449065e+03,0.000000e+00
3.450029e+03,0.000000e+00
3.450993e+03,0.000000e+00
3.451957e+03,0.000000e+00
3.452922e+03,0.000000e+00
3.453886e+03,0.000000e+00
3.454850e+03,0.000000e+00
3.455814e+03,0.000000e+00
3.456779e+03,0.000000e+00
3.457743e+03,0.000000e+00
3.458707e+03,0.000000e+00
3.459671e+03,0.000000e+00
3.460635e+03,0.000000e+00
3.461600e+03,0.000000e+00
3.462564e+03,0.000000e+00
3.463528e+03,0.000000e+00
3.464492e+03,0.000000e+00
3.465457e+03,0.000000e+00
3.466421e+03,0.000000e+00
3.467385e+03,0.000000e+00
3.468349e+03,0.000000e+00
3.469313e+03,0.000000e+00
3.470278e+03,0.000000e+00
3.471242e+03,0.000000e+00
3.472206e+03,0.000000e+00
3.473170e+03,0.000000e+00
3.474135e+03,0.000000e+00
3.475099e+03,0.000000e+00
3.476063e+03,0.000000e+00
3.477027e+03,0.000000e+00
3.477992e+03,0.000000e+00
3.478956e+03,0.000000e+00
3.479920e+03,0.000000e+00
3.480884e+03,0.000000e+00
3.481849e+03,0.000000e+00
3.482813e+03,0.000000e+00
3.483777e+03,0.000000e+00
3.484741e+03,0.000000e+00
3.485706e+03,0.000000e+00
3.486670e+03,0.000000e+00
3.487634e+03,0.000000e+00
3.488598e+03,0.000000e+00
3.489563e+03,0.000000e+00
3.490527e+03,0.000000e+00
3.491491e+03,0.000000e+00
3.492455e+03,0.000000e+00
3.493419e+03,0.000000e+00
3.494384e+03,0.000000e+00
3.495348e+03,0.000000e+00
3.496312e+03,0.000000e+00
3.497276e+03,0.000000e+00
3.498240e+03,0.000000e+00
3.499205e+03,0.000000e+00
3.500169e+03,0.000000e+00
