9.931763e+01,0.000000e+00
1.002819e+02,0.000000e+00
1.012461e+02,0.000000e+00
1.022103e+02,0.000000e+00
1.031746e+02,0.000000e+00
1.041388e+02,0.000000e+00
1.051030e+02,0.000000e+00
1.060673e+02,0.000000e+00
1.070315e+02,0.000000e+00
1.079957e+02,0.000000e+00
1.089600e+02,0.000000e+00
1.099242e+02,0.000000e+00
1.108884e+02,0.000000e+00
1.118527e+02,0.000000e+00
1.128169e+02,0.000000e+00
1.137811e+02,0.000000e+00
1.147454e+02,0.000000e+00
1.157096e+02,0.000000e+00
1.166738e+02,0.000000e+00
1.176381e+02,0.000000e+00
1.186023e+02,0.000000e+00
1.195665e+02,0.000000e+00
1.205308e+02,0.000000e+00
1.214950e+02,0.000000e+00
1.224592e+02,0.000000e+00
1.234235e+02,0.000000e+00
1.243877e+02,0.000000e+00
1.253519e+02,0.000000e+00
1.263162e+02,0.000000e+00
1.272804e+02,0.000000e+00
1.282446e+02,0.000000e+00
1.292089e+02,0.000000e+00
1.301731e+02,0.000000e+00
1.311373e+02,0.000000e+00
1.321016e+02,0.000000e+00
1.330658e+02,0.000000e+00
1.340300e+02,0.000000e+00
1.349943e+02,0.000000e+00
1.359585e+02,0.000000e+00
1.369227e+02,0.000000e+00
1.378870e+02,0.000000e+00
1.388512e+02,0.000000e+00
1.398154e+02,0.000000e+00
1.407797e+02,0.000000e+00
1.417439e+02,0.000000e+00
1.427081e+02,0.000000e+00
1.436724e+02,0.000000e+00
1.446366e+02,0.000000e+00
1.456008e+02,0.000000e+00
1.465651e+02,0.000000e+00
1.475293e+02,0.000000e+00
1.484935e+02,0.000000e+00
1.494578e+02,0.000000e+00
1.504220e+02,0.000000e+00
1.513862e+02,0.000000e+00
1.523505e+02,0.000000e+00
1.533147e+02,0.000000e+00
1.542789e+02,0.000000e+00
1.552432e+02,0.000000e+00
1.562074e+02,0.000000e+00
1.571716e+02,0.000000e+00
1.581359e+02,0.000000e+00
1.591001e+02,0.000000e+00
1.600643e+02,0.000000e+00
1.610286e+02,0.000000e+00
1.619928e+02,0.000000e+00
1.629570e+02,0.000000e+00
1.639213e+02,0.000000e+00
1.648855e+02,0.000000e+00
1.658497e+02,0.000000e+00
1.668140e+02,0.000000e+00
1.677782e+02,0.000000e+00
1.687424e+02,0.000000e+00
1.697067e+02,0.000000e+00
1.706709e+02,0.000000e+00
1.716351e+02,0.000000e+00
1.725994e+02,0.000000e+00
1.735636e+02,0.000000e+00
1.745278e+02,0.000000e+00
1.754921e+02,0.000000e+00
1.764563e+02,0.000000e+00
1.774205e+02,0.000000e+00
1.783848e+02,0.000000e+00
1.793490e+02,0.000000e+00
1.803132e+02,0.000000e+00
1.812775e+02,0.000000e+00
1.822417e+02,0.000000e+00
1.832059e+02,0.000000e+00
1.841702e+02,0.000000e+00
1.851344e+02,0.000000e+00
1.860986e+02,0.000000e+00
1.870629e+02,0.000000e+00
1.880271e+02,0.000000e+00
1.889913e+02,0.000000e+00
1.899556e+02,0.000000e+00
1.909198e+02,0.000000e+00
1.918840e+02,0.000000e+00
1.928483e+02,0.000000e+00
1.938125e+02,0.000000e+00
1.947767e+02,0.000000e+00
1.957410e+02,0.000000e+00
1.967052e+02,0.000000e+00
1.976694e+02,0.000000e+00
1.986337e+02,0.000000e+00
1.995979e+02,1.364755e+03
2.005621e+02,1.362896e+03
2.015264e+02,1.362420e+03
2.024906e+02,1.364291e+03
2.034548e+02,1.366840e+03
2.044191e+02,1.370200e+03
2.053833e+02,1.373711e+03
2.063475e+02,1.376145e+03
2.073118e+02,1.376046e+03
2.082760e+02,1.372459e+03
2.092402e+02,1.369239e+03
2.102045e+02,1.366215e+03
2.111687e+02,1.364718e+03
2.121329e+02,1.366180e+03
2.130972e+02,1.371736e+03
2.140614e+02,1.378912e+03
2.150256e+02,1.381584e+03
2.159899e+02,1.376672e+03
2.169541e+02,1.371812e+03
2.179183e+02,1.370405e+03
2.188826e+02,1.371747e+03
2.198468e+02,1.373650e+03
2.208110e+02,1.374787e+03
2.217753e+02,1.374989e+03
2.227395e+02,1.374172e+03
2.237037e+02,1.372116e+03
2.246680e+02,1.370047e+03
2.256322e+02,1.368870e+03
2.265964e+02,1.369641e+03
2.275607e+02,1.371204e+03
2.285249e+02,1.371876e+03
2.294892e+02,1.371374e+03
2.304534e+02,1.371569e+03
2.314176e+02,1.373836e+03
2.323819e+02,1.377403e+03
2.333461e+02,1.379969e+03
2.343103e+02,1.380777e+03
2.352746e+02,1.380482e+03
2.362388e+02,1.379837e+03
2.372030e+02,1.378549e+03
2.381673e+02,1.376503e+03
2.391315e+02,1.374411e+03
2.400957e+02,1.372558e+03
2.410600e+02,1.371505e+03
2.420242e+02,1.372591e+03
2.429884e+02,1.375511e+03
2.439527e+02,1.378196e+03
2.449169e+02,1.378831e+03
2.458811e+02,1.376850e+03
2.468454e+02,1.374660e+03
2.478096e+02,1.370852e+03
2.487738e+02,1.367756e+03
2.497381e+02,1.367338e+03
2.507023e+02,1.369925e+03
2.516665e+02,1.374060e+03
2.526308e+02,1.377372e+03
2.535950e+02,1.379889e+03
2.545592e+02,1.380071e+03
2.555235e+02,1.376807e+03
2.564877e+02,1.371896e+03
2.574519e+02,1.367477e+03
2.584161e+02,1.364871e+03
2.593804e+02,1.364183e+03
2.603446e+02,1.364456e+03
2.613088e+02,1.365217e+03
2.622731e+02,1.366703e+03
2.632373e+02,1.369423e+03
2.642015e+02,1.372859e+03
2.651658e+02,1.375874e+03
2.661300e+02,1.377961e+03
2.670942e+02,1.379607e+03
2.680585e+02,1.380162e+03
2.690227e+02,1.377815e+03
2.699869e+02,1.374982e+03
2.709512e+02,1.373496e+03
2.719154e+02,1.375087e+03
2.728796e+02,1.377637e+03
2.738439e+02,1.377631e+03
2.748081e+02,1.374526e+03
2.757723e+02,1.372328e+03
2.767366e+02,1.372975e+03
2.777008e+02,1.375236e+03
2.786650e+02,1.377263e+03
2.796293e+02,1.379342e+03
2.805935e+02,1.381287e+03
2.815577e+02,1.382270e+03
2.825220e+02,1.381813e+03
2.834862e+02,1.380369e+03
2.844504e+02,1.378998e+03
2.854147e+02,1.378473e+03
2.863789e+02,1.377547e+03
2.873431e+02,1.375610e+03
2.883074e+02,1.373441e+03
2.892716e+02,1.372311e+03
2.902358e+02,1.372836e+03
2.912001e+02,1.374848e+03
2.921643e+02,1.375731e+03
2.931285e+02,1.375533e+03
2.940928e+02,1.374945e+03
2.950570e+02,1.373198e+03
2.960212e+02,1.370465e+03
2.969855e+02,1.368327e+03
2.979497e+02,1.369480e+03
2.989139e+02,1.376700e+03
2.998782e+02,1.381139e+03
3.008424e+02,1.381452e+03
3.018066e+02,1.380579e+03
3.027709e+02,1.380182e+03
3.037351e+02,1.380750e+03
3.046993e+02,1.381468e+03
3.056636e+02,1.381323e+03
3.066278e+02,1.380714e+03
3.075920e+02,1.378909e+03
3.085563e+02,1.373519e+03
3.095205e+02,1.366732e+03
3.104847e+02,1.363250e+03
3.114490e+02,1.367531e+03
3.124132e+02,1.375662e+03
3.133774e+02,1.379672e+03
3.143417e+02,1.377600e+03
3.153059e+02,1.372765e+03
3.162701e+02,1.369938e+03
3.172344e+02,1.370114e+03
3.181986e+02,1.370471e+03
3.191628e+02,1.370185e+03
3.201271e+02,1.369615e+03
3.210913e+02,1.369241e+03
3.220555e+02,1.369109e+03
3.230198e+02,1.369198e+03
3.239840e+02,1.370089e+03
3.249482e+02,1.373004e+03
3.259125e+02,1.375300e+03
3.268767e+02,1.375726e+03
3.278409e+02,1.374782e+03
3.288052e+02,1.373899e+03
3.297694e+02,1.374740e+03
3.307336e+02,1.378020e+03
3.316979e+02,1.378903e+03
3.326621e+02,1.373925e+03
3.336263e+02,1.368554e+03
3.345906e+02,1.365876e+03
3.355548e+02,1.367031e+03
3.365190e+02,1.369868e+03
3.374833e+02,1.371883e+03
3.384475e+02,1.372860e+03
3.394117e+02,1.373856e+03
3.403760e+02,1.374944e+03
3.413402e+02,1.375879e+03
3.423044e+02,1.376391e+03
3.432687e+02,1.375356e+03
3.442329e+02,1.374400e+03
3.451971e+02,1.375198e+03
3.461614e+02,1.377432e+03
3.471256e+02,1.379056e+03
3.480898e+02,1.378919e+03
3.490541e+02,1.376958e+03
3.500183e+02,1.374588e+03
3.509825e+02,1.370524e+03
3.519468e+02,1.367398e+03
3.529110e+02,1.367881e+03
3.538752e+02,1.372301e+03
3.548395e+02,1.377726e+03
3.558037e+02,1.379139e+03
3.567680e+02,1.373188e+03
3.577322e+02,1.368719e+03
3.586964e+02,1.367809e+03
3.596607e+02,1.368985e+03
3.606249e+02,1.370265e+03
3.615891e+02,1.370235e+03
3.625534e+02,1.368877e+03
3.635176e+02,1.367128e+03
3.644818e+02,1.365384e+03
3.654461e+02,1.363757e+03
3.664103e+02,1.362890e+03
3.673745e+02,1.363263e+03
3.683388e+02,1.364211e+03
3.693030e+02,1.363368e+03
3.702672e+02,1.362564e+03
3.712315e+02,1.365426e+03
3.721957e+02,1.372922e+03
3.731599e+02,1.382355e+03
3.741242e+02,1.390160e+03
3.750884e+02,1.398703e+03
3.760526e+02,1.403999e+03
3.770169e+02,1.404659e+03
3.779811e+02,1.401877e+03
3.789453e+02,1.396446e+03
3.799096e+02,1.388215e+03
3.808738e+02,1.378293e+03
3.818380e+02,1.371459e+03
3.828023e+02,1.370696e+03
3.837665e+02,1.370491e+03
3.847307e+02,1.368716e+03
3.856950e+02,1.365953e+03
3.866592e+02,1.363626e+03
3.876234e+02,1.362446e+03
3.885877e+02,1.362186e+03
3.895519e+02,1.362537e+03
3.905161e+02,1.363800e+03
3.914804e+02,1.364595e+03
3.924446e+02,1.363008e+03
3.934088e+02,1.358464e+03
3.943731e+02,1.355531e+03
3.953373e+02,1.357641e+03
3.963015e+02,1.361463e+03
3.972658e+02,1.361322e+03
3.982300e+02,1.354894e+03
3.991942e+02,1.345920e+03
4.001585e+02,1.343851e+03
4.011227e+02,1.357970e+03
4.020869e+02,1.367600e+03
4.030512e+02,1.367268e+03
4.040154e+02,1.360662e+03
4.049796e+02,1.353804e+03
4.059439e+02,1.350035e+03
4.069081e+02,1.348638e+03
4.078723e+02,1.347112e+03
4.088366e+02,1.344727e+03
4.098008e+02,1.342510e+03
4.107650e+02,1.342206e+03
4.117293e+02,1.343782e+03
4.126935e+02,1.345189e+03
4.136577e+02,1.345693e+03
4.146220e+02,1.345581e+03
4.155862e+02,1.345113e+03
4.165504e+02,1.344320e+03
4.175147e+02,1.343718e+03
4.184789e+02,1.344070e+03
4.194431e+02,1.347373e+03
4.204074e+02,1.349066e+03
4.213716e+02,1.347735e+03
4.223358e+02,1.345227e+03
4.233001e+02,1.343682e+03
4.242643e+02,1.344371e+03
4.252285e+02,1.346158e+03
4.261928e+02,1.345529e+03
4.271570e+02,1.340526e+03
4.281212e+02,1.337888e+03
4.290855e+02,1.341845e+03
4.300497e+02,1.349976e+03
4.310139e+02,1.357417e+03
4.319782e+02,1.363724e+03
4.329424e+02,1.368475e+03
4.339066e+02,1.370607e+03
4.348709e+02,1.369853e+03
4.358351e+02,1.367442e+03
4.367993e+02,1.364563e+03
4.377636e+02,1.361369e+03
4.387278e+02,1.357420e+03
4.396920e+02,1.350779e+03
4.406563e+02,1.344987e+03
4.416205e+02,1.343224e+03
4.425847e+02,1.346114e+03
4.435490e+02,1.350070e+03
4.445132e+02,1.349690e+03
4.454774e+02,1.343905e+03
4.464417e+02,1.339982e+03
4.474059e+02,1.340530e+03
4.483701e+02,1.343155e+03
4.493344e+02,1.345123e+03
4.502986e+02,1.345781e+03
4.512628e+02,1.346490e+03
4.522271e+02,1.348853e+03
4.531913e+02,1.352350e+03
4.541555e+02,1.354644e+03
4.551198e+02,1.354209e+03
4.560840e+02,1.351104e+03
4.570482e+02,1.347142e+03
4.580125e+02,1.340068e+03
4.589767e+02,1.335404e+03
4.599409e+02,1.336487e+03
4.609052e+02,1.341660e+03
4.618694e+02,1.345731e+03
4.628336e+02,1.343513e+03
4.637979e+02,1.335891e+03
4.647621e+02,1.331074e+03
4.657263e+02,1.331804e+03
4.666906e+02,1.333680e+03
4.676548e+02,1.330799e+03
4.686190e+02,1.320726e+03
4.695833e+02,1.313672e+03
4.705475e+02,1.314792e+03
4.715117e+02,1.320193e+03
4.724760e+02,1.324941e+03
4.734402e+02,1.327605e+03
4.744044e+02,1.328189e+03
4.753687e+02,1.326178e+03
4.763329e+02,1.318292e+03
4.772971e+02,1.312994e+03
4.782614e+02,1.312488e+03
4.792256e+02,1.314838e+03
4.801898e+02,1.317597e+03
4.811541e+02,1.319976e+03
4.821183e+02,1.321778e+03
4.830826e+02,1.322813e+03
4.840468e+02,1.322969e+03
4.850110e+02,1.322156e+03
4.859753e+02,1.320294e+03
4.869395e+02,1.317211e+03
4.879037e+02,1.314489e+03
4.888680e+02,1.311496e+03
4.898322e+02,1.309610e+03
4.907964e+02,1.310135e+03
4.917607e+02,1.312871e+03
4.927249e+02,1.316257e+03
4.936891e+02,1.319100e+03
4.946534e+02,1.321387e+03
4.956176e+02,1.322667e+03
4.965818e+02,1.323777e+03
4.975461e+02,1.322990e+03
4.985103e+02,1.317684e+03
4.994745e+02,1.305583e+03
5.004388e+02,1.296869e+03
5.014030e+02,1.298838e+03
5.023672e+02,1.306967e+03
5.033315e+02,1.313932e+03
5.042957e+02,1.317520e+03
5.052599e+02,1.318001e+03
5.062242e+02,1.315886e+03
5.071884e+02,1.307451e+03
5.081526e+02,1.302756e+03
5.091169e+02,1.305651e+03
5.100811e+02,1.311990e+03
5.110453e+02,1.316709e+03
5.120095e+02,1.317295e+03
5.129738e+02,1.316500e+03
5.139380e+02,1.318025e+03
5.149022e+02,1.321868e+03
5.158665e+02,1.325299e+03
5.168307e+02,1.326414e+03
5.177949e+02,1.324597e+03
5.187592e+02,1.322013e+03
5.197234e+02,1.321682e+03
5.206876e+02,1.319898e+03
5.216519e+02,1.312602e+03
5.226161e+02,1.302017e+03
5.235803e+02,1.294415e+03
5.245446e+02,1.297091e+03
5.255088e+02,1.308176e+03
5.264730e+02,1.314482e+03
5.274373e+02,1.315074e+03
5.284015e+02,1.312100e+03
5.293657e+02,1.305369e+03
5.303300e+02,1.294108e+03
5.312942e+02,1.286176e+03
5.322584e+02,1.286256e+03
5.332227e+02,1.289519e+03
5.341869e+02,1.291059e+03
5.351511e+02,1.289666e+03
5.361154e+02,1.287107e+03
5.370796e+02,1.286324e+03
5.380438e+02,1.288366e+03
5.390081e+02,1.288587e+03
5.399723e+02,1.284044e+03
5.409365e+02,1.279063e+03
5.419008e+02,1.277654e+03
5.428650e+02,1.281842e+03
5.438292e+02,1.285514e+03
5.447935e+02,1.284454e+03
5.457577e+02,1.280616e+03
5.467219e+02,1.278314e+03
5.476862e+02,1.279534e+03
5.486504e+02,1.282830e+03
5.496146e+02,1.283893e+03
5.505789e+02,1.281016e+03
5.515431e+02,1.278358e+03
5.525073e+02,1.277581e+03
5.534716e+02,1.278221e+03
5.544358e+02,1.278920e+03
5.554000e+02,1.278375e+03
5.563643e+02,1.277476e+03
5.573285e+02,1.276961e+03
5.582927e+02,1.276714e+03
5.592570e+02,1.276940e+03
5.602212e+02,1.278076e+03
5.611854e+02,1.280003e+03
5.621497e+02,1.281469e+03
5.631139e+02,1.283892e+03
5.640781e+02,1.283757e+03
5.650424e+02,1.278079e+03
5.660066e+02,1.268807e+03
5.669708e+02,1.262176e+03
5.679351e+02,1.265148e+03
5.688993e+02,1.272377e+03
5.698635e+02,1.273190e+03
5.708278e+02,1.266557e+03
5.717920e+02,1.259286e+03
5.727562e+02,1.257478e+03
5.737205e+02,1.263266e+03
5.746847e+02,1.266224e+03
5.756489e+02,1.263068e+03
5.766132e+02,1.259669e+03
5.775774e+02,1.260348e+03
5.785416e+02,1.265428e+03
5.795059e+02,1.269667e+03
5.804701e+02,1.267389e+03
5.814343e+02,1.260809e+03
5.823986e+02,1.257103e+03
5.833628e+02,1.257828e+03
5.843270e+02,1.261229e+03
5.852913e+02,1.265052e+03
5.862555e+02,1.272156e+03
5.872197e+02,1.275116e+03
5.881840e+02,1.270351e+03
5.891482e+02,1.263421e+03
5.901124e+02,1.258787e+03
5.910767e+02,1.257814e+03
5.920409e+02,1.258614e+03
5.930051e+02,1.259925e+03
5.939694e+02,1.261459e+03
5.949336e+02,1.262143e+03
5.958978e+02,1.261682e+03
5.968621e+02,1.260226e+03
5.978263e+02,1.258207e+03
5.987905e+02,1.254332e+03
5.997548e+02,1.251847e+03
6.007190e+02,1.252752e+03
6.016832e+02,1.254809e+03
6.026475e+02,1.254856e+03
6.036117e+02,1.250217e+03
6.045759e+02,1.244908e+03
6.055402e+02,1.244319e+03
6.065044e+02,1.247764e+03
6.074686e+02,1.250801e+03
6.084329e+02,1.251846e+03
6.093971e+02,1.251244e+03
6.103613e+02,1.250092e+03
6.113256e+02,1.247761e+03
6.122899e+02,1.245672e+03
6.132541e+02,1.243834e+03
6.142183e+02,1.242385e+03
6.151826e+02,1.241654e+03
6.161468e+02,1.243387e+03
6.171110e+02,1.245411e+03
6.180753e+02,1.243544e+03
6.190395e+02,1.238211e+03
6.200037e+02,1.234692e+03
6.209680e+02,1.236610e+03
6.219322e+02,1.243771e+03
6.228964e+02,1.248580e+03
6.238607e+02,1.249676e+03
6.248249e+02,1.249472e+03
6.257891e+02,1.247513e+03
6.267534e+02,1.244162e+03
6.277176e+02,1.241281e+03
6.286818e+02,1.241589e+03
6.296461e+02,1.242332e+03
6.306103e+02,1.239874e+03
6.315745e+02,1.234455e+03
6.325388e+02,1.228631e+03
6.335030e+02,1.223905e+03
6.344672e+02,1.220069e+03
6.354315e+02,1.217547e+03
6.363957e+02,1.215065e+03
6.373599e+02,1.214950e+03
6.383242e+02,1.220552e+03
6.392884e+02,1.231108e+03
6.402526e+02,1.238058e+03
6.412169e+02,1.236322e+03
6.421811e+02,1.231235e+03
6.431453e+02,1.226658e+03
6.441096e+02,1.223230e+03
6.450738e+02,1.221506e+03
6.460380e+02,1.222836e+03
6.470023e+02,1.227570e+03
6.479665e+02,1.231757e+03
6.489307e+02,1.235770e+03
6.498950e+02,1.237987e+03
6.508592e+02,1.235968e+03
6.518234e+02,1.229146e+03
6.527877e+02,1.223567e+03
6.537519e+02,1.220708e+03
6.547161e+02,1.219164e+03
6.556804e+02,1.218306e+03
6.566446e+02,1.217967e+03
6.576088e+02,1.217651e+03
6.585731e+02,1.216892e+03
6.595373e+02,1.215723e+03
6.605015e+02,1.214051e+03
6.614658e+02,1.211460e+03
6.624300e+02,1.209590e+03
6.633942e+02,1.210384e+03
6.643585e+02,1.215848e+03
6.653227e+02,1.218568e+03
6.662869e+02,1.215771e+03
6.672512e+02,1.212051e+03
6.682154e+02,1.210368e+03
6.691796e+02,1.210977e+03
6.701439e+02,1.211861e+03
6.711081e+02,1.211791e+03
6.720723e+02,1.211018e+03
6.730366e+02,1.209909e+03
6.740008e+02,1.208620e+03
6.749650e+02,1.207757e+03
6.759293e+02,1.208530e+03
6.768935e+02,1.212698e+03
6.778577e+02,1.213789e+03
6.788220e+02,1.209372e+03
6.797862e+02,1.204334e+03
6.807504e+02,1.201259e+03
6.817147e+02,1.200077e+03
6.826789e+02,1.199994e+03
6.836431e+02,1.201632e+03
6.846074e+02,1.203309e+03
6.855716e+02,1.203660e+03
6.865358e+02,1.202610e+03
6.875001e+02,1.200462e+03
6.884643e+02,1.196428e+03
6.894285e+02,1.190601e+03
6.903928e+02,1.188047e+03
6.913570e+02,1.190279e+03
6.923212e+02,1.194063e+03
6.932855e+02,1.195945e+03
6.942497e+02,1.194344e+03
6.952139e+02,1.195141e+03
6.961782e+02,1.201714e+03
6.971424e+02,1.208211e+03
6.981066e+02,1.209119e+03
6.990709e+02,1.202979e+03
7.000351e+02,1.196629e+03
7.009993e+02,1.198174e+03
7.019636e+02,1.203876e+03
7.029278e+02,1.203366e+03
7.038920e+02,1.194404e+03
7.048563e+02,1.183968e+03
7.058205e+02,1.182182e+03
7.067847e+02,1.193740e+03
7.077490e+02,1.199247e+03
7.087132e+02,1.193831e+03
7.096774e+02,1.186906e+03
7.106417e+02,1.185468e+03
7.116059e+02,1.190918e+03
7.125701e+02,1.194574e+03
7.135344e+02,1.193156e+03
7.144986e+02,1.189978e+03
7.154628e+02,1.187599e+03
7.164271e+02,1.186375e+03
7.173913e+02,1.185622e+03
7.183555e+02,1.184394e+03
7.193198e+02,1.182941e+03
7.202840e+02,1.183357e+03
7.212482e+02,1.186628e+03
7.222125e+02,1.189782e+03
7.231767e+02,1.189011e+03
7.241409e+02,1.181050e+03
7.251052e+02,1.177347e+03
7.260694e+02,1.182982e+03
7.270336e+02,1.188709e+03
7.279979e+02,1.189235e+03
7.289621e+02,1.183923e+03
7.299263e+02,1.178698e+03
7.308906e+02,1.175603e+03
7.318548e+02,1.173870e+03
7.328190e+02,1.172830e+03
7.337833e+02,1.172424e+03
7.347475e+02,1.172899e+03
7.357117e+02,1.176331e+03
7.366760e+02,1.182272e+03
7.376402e+02,1.182462e+03
7.386044e+02,1.174907e+03
7.395687e+02,1.166275e+03
7.405329e+02,1.161647e+03
7.414971e+02,1.161533e+03
7.424614e+02,1.163009e+03
7.434256e+02,1.168832e+03
7.443898e+02,1.174876e+03
7.453541e+02,1.179201e+03
7.463183e+02,1.181010e+03
7.472825e+02,1.180134e+03
7.482468e+02,1.174656e+03
7.492110e+02,1.167748e+03
7.501752e+02,1.163079e+03
7.511395e+02,1.161166e+03
7.521037e+02,1.160606e+03
7.530679e+02,1.159548e+03
7.540322e+02,1.158017e+03
7.549964e+02,1.159133e+03
7.559606e+02,1.164162e+03
7.569249e+02,1.168409e+03
7.578891e+02,1.168693e+03
7.588533e+02,1.164905e+03
7.598176e+02,1.161970e+03
7.607818e+02,1.157699e+03
7.617460e+02,1.154537e+03
7.627103e+02,1.155346e+03
7.636745e+02,1.159098e+03
7.646387e+02,1.161080e+03
7.656030e+02,1.157923e+03
7.665672e+02,1.153352e+03
7.675314e+02,1.149375e+03
7.684957e+02,1.145532e+03
7.694599e+02,1.141833e+03
7.704241e+02,1.138612e+03
7.713884e+02,1.136749e+03
7.723526e+02,1.138820e+03
7.733168e+02,1.145720e+03
7.742811e+02,1.150866e+03
7.752453e+02,1.149854e+03
7.762095e+02,1.143712e+03
7.771738e+02,1.140524e+03
7.781380e+02,1.141879e+03
7.791022e+02,1.143411e+03
7.800665e+02,1.146360e+03
7.810307e+02,1.148979e+03
7.819949e+02,1.148294e+03
7.829592e+02,1.139492e+03
7.839234e+02,1.132211e+03
7.848876e+02,1.132767e+03
7.858519e+02,1.137314e+03
7.868161e+02,1.139319e+03
7.877803e+02,1.135313e+03
7.887446e+02,1.129932e+03
7.897088e+02,1.131672e+03
7.906730e+02,1.139634e+03
7.916373e+02,1.143949e+03
7.926015e+02,1.140437e+03
7.935657e+02,1.132235e+03
7.945300e+02,1.127283e+03
7.954942e+02,1.127883e+03
7.964584e+02,1.127014e+03
7.974227e+02,1.123200e+03
7.983869e+02,1.119574e+03
7.993511e+02,1.118576e+03
8.003154e+02,1.120538e+03
8.012796e+02,1.122363e+03
8.022438e+02,1.124993e+03
8.032081e+02,1.127328e+03
8.041723e+02,1.127526e+03
8.051365e+02,1.124866e+03
8.061008e+02,1.123352e+03
8.070650e+02,1.127506e+03
8.080292e+02,1.133915e+03
8.089935e+02,1.137719e+03
8.099577e+02,1.138409e+03
8.109219e+02,1.136556e+03
8.118862e+02,1.130846e+03
8.128504e+02,1.121532e+03
8.138146e+02,1.117680e+03
8.147789e+02,1.121255e+03
8.157431e+02,1.125194e+03
8.167073e+02,1.123802e+03
8.176716e+02,1.116475e+03
8.186358e+02,1.110823e+03
8.196000e+02,1.106045e+03
8.205643e+02,1.103603e+03
8.215285e+02,1.104568e+03
8.224927e+02,1.108424e+03
8.234570e+02,1.111744e+03
8.244212e+02,1.114098e+03
8.253854e+02,1.115386e+03
8.263497e+02,1.114661e+03
8.273139e+02,1.112268e+03
8.282781e+02,1.109919e+03
8.292424e+02,1.109392e+03
8.302066e+02,1.109934e+03
8.311708e+02,1.110229e+03
8.321351e+02,1.110262e+03
8.330993e+02,1.109828e+03
8.340635e+02,1.108373e+03
8.350278e+02,1.106453e+03
8.359920e+02,1.106391e+03
8.369562e+02,1.108661e+03
8.379205e+02,1.110556e+03
8.388847e+02,1.111361e+03
8.398489e+02,1.111186e+03
8.408132e+02,1.110103e+03
8.417774e+02,1.107465e+03
8.427416e+02,1.104441e+03
8.437059e+02,1.100069e+03
8.446701e+02,1.095955e+03
8.456343e+02,1.093999e+03
8.465986e+02,1.095368e+03
8.475628e+02,1.096776e+03
8.485270e+02,1.097535e+03
8.494913e+02,1.097552e+03
8.504555e+02,1.096345e+03
8.514197e+02,1.093878e+03
8.523840e+02,1.092505e+03
8.533482e+02,1.095374e+03
8.543124e+02,1.100013e+03
8.552767e+02,1.101963e+03
8.562409e+02,1.100525e+03
8.572051e+02,1.097344e+03
8.581694e+02,1.093456e+03
8.591336e+02,1.089235e+03
8.600978e+02,1.087810e+03
8.610621e+02,1.089926e+03
8.620263e+02,1.092979e+03
8.629905e+02,1.095011e+03
8.639548e+02,1.095644e+03
8.649190e+02,1.094573e+03
8.658832e+02,1.090551e+03
8.668475e+02,1.087552e+03
8.678117e+02,1.088328e+03
8.687759e+02,1.091852e+03
8.697402e+02,1.093415e+03
8.707044e+02,1.089057e+03
8.716686e+02,1.085459e+03
8.726329e+02,1.086935e+03
8.735971e+02,1.091298e+03
8.745613e+02,1.093985e+03
8.755256e+02,1.092814e+03
8.764898e+02,1.090799e+03
8.774540e+02,1.089537e+03
8.784183e+02,1.088467e+03
8.793825e+02,1.086271e+03
8.803467e+02,1.081964e+03
8.813110e+02,1.078510e+03
8.822752e+02,1.081438e+03
8.832394e+02,1.088944e+03
8.842037e+02,1.093854e+03
8.851679e+02,1.094146e+03
8.861321e+02,1.091256e+03
8.870964e+02,1.085979e+03
8.880606e+02,1.077934e+03
8.890248e+02,1.074769e+03
8.899891e+02,1.079233e+03
8.909533e+02,1.085091e+03
8.919175e+02,1.086022e+03
8.928818e+02,1.080569e+03
8.938460e+02,1.076695e+03
8.948102e+02,1.074381e+03
8.957745e+02,1.073131e+03
8.967387e+02,1.073469e+03
8.977029e+02,1.075051e+03
8.986672e+02,1.075272e+03
8.996314e+02,1.073331e+03
9.005956e+02,1.071781e+03
9.015599e+02,1.071218e+03
9.025241e+02,1.071552e+03
9.034883e+02,1.072763e+03
9.044526e+02,1.076689e+03
9.054168e+02,1.079198e+03
9.063810e+02,1.077368e+03
9.073453e+02,1.073577e+03
9.083095e+02,1.071258e+03
9.092737e+02,1.071946e+03
9.102380e+02,1.072932e+03
9.112022e+02,1.070869e+03
9.121664e+02,1.066831e+03
9.131307e+02,1.063977e+03
9.140949e+02,1.063640e+03
9.150591e+02,1.064345e+03
9.160234e+02,1.062859e+03
9.169876e+02,1.059018e+03
9.179518e+02,1.056302e+03
9.189161e+02,1.055319e+03
9.198803e+02,1.055127e+03
9.208445e+02,1.055499e+03
9.218088e+02,1.057089e+03
9.227730e+02,1.056366e+03
9.237372e+02,1.051699e+03
9.247015e+02,1.047431e+03
9.256657e+02,1.046674e+03
9.266299e+02,1.049514e+03
9.275942e+02,1.051515e+03
9.285584e+02,1.052856e+03
9.295226e+02,1.052650e+03
9.304869e+02,1.048563e+03
9.314511e+02,1.042714e+03
9.324153e+02,1.041517e+03
9.333796e+02,1.051866e+03
9.343438e+02,1.059485e+03
9.353080e+02,1.058311e+03
9.362723e+02,1.052239e+03
9.372365e+02,1.047286e+03
9.382007e+02,1.045987e+03
9.391650e+02,1.045912e+03
9.401292e+02,1.046332e+03
9.410934e+02,1.047009e+03
9.420577e+02,1.047653e+03
9.430219e+02,1.048140e+03
9.439861e+02,1.047675e+03
9.449504e+02,1.044414e+03
9.459146e+02,1.041250e+03
9.468788e+02,1.042554e+03
9.478431e+02,1.047766e+03
9.488073e+02,1.051935e+03
9.497715e+02,1.050791e+03
9.507358e+02,1.046395e+03
9.517000e+02,1.042693e+03
9.526642e+02,1.040141e+03
9.536285e+02,1.038586e+03
9.545927e+02,1.037636e+03
9.555569e+02,1.037458e+03
9.565212e+02,1.039808e+03
9.574854e+02,1.045192e+03
9.584496e+02,1.047758e+03
9.594139e+02,1.044048e+03
9.603781e+02,1.036656e+03
9.613423e+02,1.032938e+03
9.623066e+02,1.033550e+03
9.632708e+02,1.035248e+03
9.642350e+02,1.038406e+03
9.651993e+02,1.041603e+03
9.661635e+02,1.042211e+03
9.671277e+02,1.037976e+03
9.680920e+02,1.035887e+03
9.690562e+02,1.038296e+03
9.700204e+02,1.040236e+03
9.709847e+02,1.037681e+03
9.719489e+02,1.029510e+03
9.729131e+02,1.024417e+03
9.738774e+02,1.024707e+03
9.748416e+02,1.026191e+03
9.758058e+02,1.026888e+03
9.767701e+02,1.026684e+03
9.777343e+02,1.026815e+03
9.786985e+02,1.027706e+03
9.796628e+02,1.028418e+03
9.806270e+02,1.028948e+03
9.815912e+02,1.029146e+03
9.825555e+02,1.028851e+03
9.835197e+02,1.028436e+03
9.844839e+02,1.027840e+03
9.854482e+02,1.026918e+03
9.864124e+02,1.026048e+03
9.873766e+02,1.025526e+03
9.883409e+02,1.025615e+03
9.893051e+02,1.025322e+03
9.902693e+02,1.022695e+03
9.912336e+02,1.020242e+03
9.921978e+02,1.020821e+03
9.931620e+02,1.024145e+03
9.941263e+02,1.027434e+03
9.950905e+02,1.028778e+03
9.960547e+02,1.029250e+03
9.970190e+02,1.031003e+03
9.979832e+02,1.033176e+03
9.989474e+02,1.032602e+03
9.999117e+02,1.026475e+03
1.000876e+03,1.018601e+03
1.001840e+03,1.014281e+03
1.002804e+03,1.013235e+03
1.003769e+03,1.014030e+03
1.004733e+03,1.016064e+03
1.005697e+03,1.018378e+03
1.006661e+03,1.020372e+03
1.007626e+03,1.021809e+03
1.008590e+03,1.020419e+03
1.009554e+03,1.015397e+03
1.010518e+03,1.010384e+03
1.011482e+03,1.011184e+03
1.012447e+03,1.016628e+03
1.013411e+03,1.016394e+03
1.014375e+03,1.010151e+03
1.015339e+03,1.004768e+03
1.016304e+03,1.005240e+03
1.017268e+03,1.010190e+03
1.018232e+03,1.011744e+03
1.019196e+03,1.009265e+03
1.020161e+03,1.007437e+03
1.021125e+03,1.008730e+03
1.022089e+03,1.011751e+03
1.023053e+03,1.011780e+03
1.024018e+03,1.007743e+03
1.024982e+03,1.003893e+03
1.025946e+03,1.000330e+03
1.026910e+03,9.977662e+02
1.027875e+03,9.979398e+02
1.028839e+03,1.002095e+03
1.029803e+03,1.006822e+03
1.030767e+03,1.013558e+03
1.031731e+03,1.018200e+03
1.032696e+03,1.016737e+03
1.033660e+03,1.008683e+03
1.034624e+03,1.004274e+03
1.035588e+03,1.005948e+03
1.036552e+03,1.007765e+03
1.037517e+03,1.007230e+03
1.038481e+03,1.004580e+03
1.039445e+03,1.001669e+03
1.040409e+03,9.972448e+02
1.041374e+03,9.947838e+02
1.042338e+03,9.959884e+02
1.043302e+03,9.991778e+02
1.044266e+03,1.002043e+03
1.045231e+03,1.005671e+03
1.046195e+03,1.006686e+03
1.047159e+03,1.002929e+03
1.048123e+03,9.988176e+02
1.049088e+03,9.977041e+02
1.050052e+03,1.000512e+03
1.051016e+03,1.001534e+03
1.051980e+03,9.981365e+02
1.052945e+03,9.954368e+02
1.053909e+03,9.954402e+02
1.054873e+03,9.969871e+02
1.055837e+03,9.974231e+02
1.056802e+03,9.953835e+02
1.057766e+03,9.944436e+02
1.058730e+03,9.974323e+02
1.059694e+03,1.001160e+03
1.060658e+03,1.001390e+03
1.061623e+03,9.960887e+02
1.062587e+03,9.910020e+02
1.063551e+03,9.846285e+02
1.064515e+03,9.804295e+02
1.065479e+03,9.817835e+02
1.066444e+03,9.895193e+02
1.067408e+03,9.951667e+02
1.068372e+03,9.957227e+02
1.069336e+03,9.957032e+02
1.070301e+03,9.961102e+02
1.071265e+03,9.969368e+02
1.072229e+03,9.986887e+02
1.073193e+03,1.004181e+03
1.074158e+03,1.007296e+03
1.075122e+03,1.004516e+03
1.076086e+03,9.994307e+02
1.077050e+03,9.967139e+02
1.078015e+03,9.990453e+02
1.078979e+03,1.000695e+03
1.079943e+03,9.991371e+02
1.080907e+03,9.972410e+02
1.081872e+03,9.966531e+02
1.082836e+03,9.972660e+02
1.083800e+03,9.982734e+02
1.084764e+03,9.982365e+02
1.085729e+03,1.000379e+03
1.086693e+03,1.007558e+03
1.087657e+03,1.017791e+03
1.088621e+03,1.026172e+03
1.089585e+03,1.030919e+03
1.090550e+03,1.034200e+03
1.091514e+03,1.038228e+03
1.092478e+03,1.041057e+03
1.093442e+03,1.039806e+03
1.094406e+03,1.032291e+03
1.095371e+03,1.026527e+03
1.096335e+03,1.026360e+03
1.097299e+03,1.026123e+03
1.098263e+03,1.020765e+03
1.099228e+03,1.010456e+03
1.100192e+03,1.004221e+03
1.101156e+03,1.007630e+03
1.102120e+03,1.010906e+03
1.103085e+03,1.010737e+03
1.104049e+03,1.007918e+03
1.105013e+03,1.004294e+03
1.105977e+03,9.987109e+02
1.106942e+03,9.943741e+02
1.107906e+03,9.916008e+02
1.108870e+03,9.904924e+02
1.109834e+03,9.915551e+02
1.110799e+03,9.956740e+02
1.111763e+03,9.985383e+02
1.112727e+03,9.990350e+02
1.113691e+03,9.991016e+02
1.114656e+03,9.987235e+02
1.115620e+03,9.982571e+02
1.116584e+03,1.000089e+03
1.117548e+03,1.007025e+03
1.118512e+03,1.012262e+03
1.119477e+03,1.014043e+03
1.120441e+03,1.013401e+03
1.121405e+03,1.012001e+03
1.122369e+03,1.008813e+03
1.123334e+03,1.006610e+03
1.124298e+03,1.007996e+03
1.125262e+03,1.008439e+03
1.126226e+03,1.004164e+03
1.127191e+03,9.944875e+02
1.128155e+03,9.869974e+02
1.129119e+03,9.820908e+02
1.130083e+03,9.783310e+02
1.131047e+03,9.749426e+02
1.132012e+03,9.720740e+02
1.132976e+03,9.712142e+02
1.133940e+03,9.745197e+02
1.134904e+03,9.752480e+02
1.135869e+03,9.714674e+02
1.136833e+03,9.663924e+02
1.137797e+03,9.634166e+02
1.138761e+03,9.629332e+02
1.139726e+03,9.646572e+02
1.140690e+03,9.699539e+02
1.141654e+03,9.741325e+02
1.142618e+03,9.738162e+02
1.143583e+03,9.698203e+02
1.144547e+03,9.680646e+02
1.145511e+03,9.688049e+02
1.146475e+03,9.709720e+02
1.147439e+03,9.748732e+02
1.148404e+03,9.790414e+02
1.149368e+03,9.801133e+02
1.150332e+03,9.775679e+02
1.151296e+03,9.764068e+02
1.152261e+03,9.770950e+02
1.153225e+03,9.765567e+02
1.154189e+03,9.720100e+02
1.155153e+03,9.645773e+02
1.156118e+03,9.610080e+02
1.157082e+03,9.617086e+02
1.158046e+03,9.628619e+02
1.159010e+03,9.624153e+02
1.159974e+03,9.609874e+02
1.160939e+03,9.598935e+02
1.161903e+03,9.588597e+02
1.162867e+03,9.573381e+02
1.163831e+03,9.551469e+02
1.164796e+03,9.527292e+02
1.165760e+03,9.506183e+02
1.166724e+03,9.490419e+02
1.167688e+03,9.485750e+02
1.168653e+03,9.490428e+02
1.169617e+03,9.490876e+02
1.170581e+03,9.478267e+02
1.171545e+03,9.460406e+02
1.172510e+03,9.443143e+02
1.173474e+03,9.430143e+02
1.174438e+03,9.429719e+02
1.175402e+03,9.444430e+02
1.176366e+03,9.458712e+02
1.177331e+03,9.463030e+02
1.178295e+03,9.458666e+02
1.179259e+03,9.438102e+02
1.180223e+03,9.403642e+02
1.181188e+03,9.379268e+02
1.182152e+03,9.396827e+02
1.183116e+03,9.412859e+02
1.184080e+03,9.398244e+02
1.185045e+03,9.363736e+02
1.186009e+03,9.324345e+02
1.186973e+03,9.279060e+02
1.187937e+03,9.248896e+02
1.188901e+03,9.241827e+02
1.189866e+03,9.250917e+02
1.190830e+03,9.278188e+02
1.191794e+03,9.321953e+02
1.192758e+03,9.339936e+02
1.193723e+03,9.302664e+02
1.194687e+03,9.268430e+02
1.195651e+03,9.250206e+02
1.196615e+03,9.250201e+02
1.197580e+03,9.273793e+02
1.198544e+03,9.359935e+02
1.199508e+03,9.393913e+02
1.200472e+03,9.342415e+02
1.201437e+03,9.272961e+02
1.202401e+03,9.245349e+02
1.203365e+03,9.268919e+02
1.204329e+03,9.277371e+02
1.205293e+03,9.263395e+02
1.206258e+03,9.248738e+02
1.207222e+03,9.240753e+02
1.208186e+03,9.237579e+02
1.209150e+03,9.233220e+02
1.210115e+03,9.222972e+02
1.211079e+03,9.238528e+02
1.212043e+03,9.293085e+02
1.213007e+03,9.344235e+02
1.213972e+03,9.339625e+02
1.214936e+03,9.291162e+02
1.215900e+03,9.252210e+02
1.216864e+03,9.224736e+02
1.217828e+03,9.211752e+02
1.218793e+03,9.219143e+02
1.219757e+03,9.236392e+02
1.220721e+03,9.245268e+02
1.221685e+03,9.249867e+02
1.222650e+03,9.256565e+02
1.223614e+03,9.264017e+02
1.224578e+03,9.272112e+02
1.225542e+03,9.291964e+02
1.226507e+03,9.311501e+02
1.227471e+03,9.313781e+02
1.228435e+03,9.297733e+02
1.229399e+03,9.272774e+02
1.230364e+03,9.234588e+02
1.231328e+03,9.203542e+02
1.232292e+03,9.205172e+02
1.233256e+03,9.220544e+02
1.234220e+03,9.219241e+02
1.235185e+03,9.192831e+02
1.236149e+03,9.166148e+02
1.237113e+03,9.126610e+02
1.238077e+03,9.106697e+02
1.239042e+03,9.135209e+02
1.240006e+03,9.199178e+02
1.240970e+03,9.223150e+02
1.241934e+03,9.179358e+02
1.242899e+03,9.144333e+02
1.243863e+03,9.139440e+02
1.244827e+03,9.147440e+02
1.245791e+03,9.142233e+02
1.246755e+03,9.119429e+02
1.247720e+03,9.113000e+02
1.248684e+03,9.129359e+02
1.249648e+03,9.138382e+02
1.250612e+03,9.113577e+02
1.251577e+03,9.069449e+02
1.252541e+03,9.063340e+02
1.253505e+03,9.089301e+02
1.254469e+03,9.107529e+02
1.255434e+03,9.107471e+02
1.256398e+03,9.105399e+02
1.257362e+03,9.126417e+02
1.258326e+03,9.151014e+02
1.259291e+03,9.135715e+02
1.260255e+03,9.085421e+02
1.261219e+03,9.048385e+02
1.262183e+03,9.075300e+02
1.263147e+03,9.115805e+02
1.264112e+03,9.145177e+02
1.265076e+03,9.156116e+02
1.266040e+03,9.125505e+02
1.267004e+03,9.024327e+02
1.267969e+03,8.971000e+02
1.268933e+03,9.056915e+02
1.269897e+03,9.160538e+02
1.270861e+03,9.198933e+02
1.271826e+03,9.169151e+02
1.272790e+03,9.142532e+02
1.273754e+03,9.120815e+02
1.274718e+03,9.108007e+02
1.275682e+03,9.114772e+02
1.276647e+03,9.127218e+02
1.277611e+03,9.122280e+02
1.278575e+03,9.094669e+02
1.279539e+03,9.082708e+02
1.280504e+03,9.093436e+02
1.281468e+03,9.108937e+02
1.282432e+03,9.116466e+02
1.283396e+03,9.119163e+02
1.284361e+03,9.122771e+02
1.285325e+03,9.126190e+02
1.286289e+03,9.132637e+02
1.287253e+03,9.142262e+02
1.288218e+03,9.156813e+02
1.289182e+03,9.189530e+02
1.290146e+03,9.223457e+02
1.291110e+03,9.242490e+02
1.292074e+03,9.245466e+02
1.293039e+03,9.230302e+02
1.294003e+03,9.180521e+02
1.294967e+03,9.127246e+02
1.295931e+03,9.085197e+02
1.296896e+03,9.050664e+02
1.297860e+03,9.013030e+02
1.298824e+03,8.960869e+02
1.299788e+03,8.945600e+02
1.300753e+03,8.995256e+02
1.301717e+03,9.040851e+02
1.302681e+03,9.051106e+02
1.303645e+03,9.041285e+02
1.304609e+03,9.063327e+02
1.305574e+03,9.123901e+02
1.306538e+03,9.138657e+02
1.307502e+03,9.094744e+02
1.308466e+03,9.037480e+02
1.309431e+03,9.002191e+02
1.310395e+03,8.987705e+02
1.311359e+03,8.990641e+02
1.312323e+03,9.006506e+02
1.313288e+03,9.034480e+02
1.314252e+03,9.085704e+02
1.315216e+03,9.134082e+02
1.316180e+03,9.142465e+02
1.317145e+03,9.135818e+02
1.318109e+03,9.149442e+02
1.319073e+03,9.181959e+02
1.320037e+03,9.184239e+02
1.321001e+03,9.089682e+02
1.321966e+03,9.016362e+02
1.322930e+03,9.043596e+02
1.323894e+03,9.120201e+02
1.324858e+03,9.145605e+02
1.325823e+03,9.087132e+02
1.326787e+03,9.050213e+02
1.327751e+03,9.034467e+02
1.328715e+03,9.038084e+02
1.329680e+03,9.069404e+02
1.330644e+03,9.117775e+02
1.331608e+03,9.128130e+02
1.332572e+03,9.103099e+02
1.333536e+03,9.089591e+02
1.334501e+03,9.100858e+02
1.335465e+03,9.109103e+02
1.336429e+03,9.078507e+02
1.337393e+03,9.034800e+02
1.338358e+03,9.018330e+02
1.339322e+03,9.024623e+02
1.340286e+03,9.023563e+02
1.341250e+03,8.992443e+02
1.342215e+03,8.959973e+02
1.343179e+03,8.942180e+02
1.344143e+03,8.936353e+02
1.345107e+03,8.934266e+02
1.346072e+03,8.932440e+02
1.347036e+03,8.933368e+02
1.348000e+03,8.941995e+02
1.348964e+03,8.936932e+02
1.349928e+03,8.906478e+02
1.350893e+03,8.868234e+02
1.351857e+03,8.859791e+02
1.352821e+03,8.877972e+02
1.353785e+03,8.892558e+02
1.354750e+03,8.898645e+02
1.355714e+03,8.893971e+02
1.356678e+03,8.873871e+02
1.357642e+03,8.851819e+02
1.358607e+03,8.840152e+02
1.359571e+03,8.837414e+02
1.360535e+03,8.844578e+02
1.361499e+03,8.868669e+02
1.362464e+03,8.887699e+02
1.363428e+03,8.881801e+02
1.364392e+03,8.878773e+02
1.365356e+03,8.898694e+02
1.366320e+03,8.934968e+02
1.367285e+03,8.956462e+02
1.368249e+03,8.967228e+02
1.369213e+03,8.960805e+02
1.370177e+03,8.929859e+02
1.371142e+03,8.894877e+02
1.372106e+03,8.881140e+02
1.373070e+03,8.886155e+02
1.374034e+03,8.892105e+02
1.374999e+03,8.900916e+02
1.375963e+03,8.913908e+02
1.376927e+03,8.931648e+02
1.377891e+03,8.951846e+02
1.378855e+03,8.985315e+02
1.379820e+03,9.010204e+02
1.380784e+03,8.991625e+02
1.381748e+03,8.927975e+02
1.382712e+03,8.874114e+02
1.383677e+03,8.843905e+02
1.384641e+03,8.820204e+02
1.385605e+03,8.795745e+02
1.386569e+03,8.773853e+02
1.387534e+03,8.763819e+02
1.388498e+03,8.771166e+02
1.389462e+03,8.763173e+02
1.390426e+03,8.734687e+02
1.391391e+03,8.702865e+02
1.392355e+03,8.678308e+02
1.393319e+03,8.664163e+02
1.394283e+03,8.672230e+02
1.395247e+03,8.690022e+02
1.396212e+03,8.686371e+02
1.397176e+03,8.653077e+02
1.398140e+03,8.628040e+02
1.399104e+03,8.641467e+02
1.400069e+03,8.659036e+02
1.401033e+03,8.654055e+02
1.401997e+03,8.637436e+02
1.402961e+03,8.643668e+02
1.403926e+03,8.700174e+02
1.404890e+03,8.711910e+02
1.405854e+03,8.658514e+02
1.406818e+03,8.606238e+02
1.407782e+03,8.606799e+02
1.408747e+03,8.647652e+02
1.409711e+03,8.678068e+02
1.410675e+03,8.695173e+02
1.411639e+03,8.712182e+02
1.412604e+03,8.736494e+02
1.413568e+03,8.740922e+02
1.414532e+03,8.681629e+02
1.415496e+03,8.615715e+02
1.416461e+03,8.591630e+02
1.417425e+03,8.600448e+02
1.418389e+03,8.606505e+02
1.419353e+03,8.603145e+02
1.420318e+03,8.599036e+02
1.421282e+03,8.601169e+02
1.422246e+03,8.599323e+02
1.423210e+03,8.578008e+02
1.424174e+03,8.544601e+02
1.425139e+03,8.552631e+02
1.426103e+03,8.592705e+02
1.427067e+03,8.599854e+02
1.428031e+03,8.547037e+02
1.428996e+03,8.493250e+02
1.429960e+03,8.502018e+02
1.430924e+03,8.530975e+02
1.431888e+03,8.534371e+02
1.432853e+03,8.516348e+02
1.433817e+03,8.511809e+02
1.434781e+03,8.557819e+02
1.435745e+03,8.579069e+02
1.436709e+03,8.554645e+02
1.437674e+03,8.512715e+02
1.438638e+03,8.478364e+02
1.439602e+03,8.454045e+02
1.440566e+03,8.438884e+02
1.441531e+03,8.432177e+02
1.442495e+03,8.438885e+02
1.443459e+03,8.462349e+02
1.444423e+03,8.485059e+02
1.445388e+03,8.485925e+02
1.446352e+03,8.476793e+02
1.447316e+03,8.477153e+02
1.448280e+03,8.487173e+02
1.449245e+03,8.481953e+02
1.450209e+03,8.421563e+02
1.451173e+03,8.398539e+02
1.452137e+03,8.435055e+02
1.453101e+03,8.481671e+02
1.454066e+03,8.493142e+02
1.455030e+03,8.475556e+02
1.455994e+03,8.478305e+02
1.456958e+03,8.497286e+02
1.457923e+03,8.502532e+02
1.458887e+03,8.475358e+02
1.459851e+03,8.453045e+02
1.460815e+03,8.483538e+02
1.461780e+03,8.519847e+02
1.462744e+03,8.520408e+02
1.463708e+03,8.489464e+02
1.464672e+03,8.465182e+02
1.465636e+03,8.459306e+02
1.466601e+03,8.450085e+02
1.467565e+03,8.431567e+02
1.468529e+03,8.416397e+02
1.469493e+03,8.411920e+02
1.470458e+03,8.417336e+02
1.471422e+03,8.447097e+02
1.472386e+03,8.494382e+02
1.473350e+03,8.527153e+02
1.474315e+03,8.529876e+02
1.475279e+03,8.523987e+02
1.476243e+03,8.532110e+02
1.477207e+03,8.525768e+02
1.478172e+03,8.468784e+02
1.479136e+03,8.380559e+02
1.480100e+03,8.347032e+02
1.481064e+03,8.389230e+02
1.482028e+03,8.404393e+02
1.482993e+03,8.377753e+02
1.483957e+03,8.343424e+02
1.484921e+03,8.330657e+02
1.485885e+03,8.328859e+02
1.486850e+03,8.316414e+02
1.487814e+03,8.296295e+02
1.488778e+03,8.279533e+02
1.489742e+03,8.269637e+02
1.490707e+03,8.266616e+02
1.491671e+03,8.282726e+02
1.492635e+03,8.301827e+02
1.493599e+03,8.314854e+02
1.494563e+03,8.320190e+02
1.495528e+03,8.318904e+02
1.496492e+03,8.309661e+02
1.497456e+03,8.289679e+02
1.498420e+03,8.261927e+02
1.499385e+03,8.243430e+02
1.500349e+03,8.257468e+02
1.501313e+03,8.276667e+02
1.502277e+03,8.266835e+02
1.503242e+03,8.248049e+02
1.504206e+03,8.254805e+02
1.505170e+03,8.306305e+02
1.506134e+03,8.318875e+02
1.507099e+03,8.277007e+02
1.508063e+03,8.242133e+02
1.509027e+03,8.240580e+02
1.509991e+03,8.250079e+02
1.510955e+03,8.231732e+02
1.511920e+03,8.195546e+02
1.512884e+03,8.163186e+02
1.513848e+03,8.140605e+02
1.514812e+03,8.129027e+02
1.515777e+03,8.127354e+02
1.516741e+03,8.126922e+02
1.517705e+03,8.118290e+02
1.518669e+03,8.114476e+02
1.519634e+03,8.132429e+02
1.520598e+03,8.168850e+02
1.521562e+03,8.181625e+02
1.522526e+03,8.170441e+02
1.523490e+03,8.171706e+02
1.524455e+03,8.201718e+02
1.525419e+03,8.227277e+02
1.526383e+03,8.216601e+02
1.527347e+03,8.189517e+02
1.528312e+03,8.161191e+02
1.529276e+03,8.137377e+02
1.530240e+03,8.120046e+02
1.531204e+03,8.093839e+02
1.532169e+03,8.114710e+02
1.533133e+03,8.198217e+02
1.534097e+03,8.278102e+02
1.535061e+03,8.306120e+02
1.536026e+03,8.293484e+02
1.536990e+03,8.246533e+02
1.537954e+03,8.183575e+02
1.538918e+03,8.137357e+02
1.539882e+03,8.115018e+02
1.540847e+03,8.103718e+02
1.541811e+03,8.107695e+02
1.542775e+03,8.106701e+02
1.543739e+03,8.095182e+02
1.544704e+03,8.083361e+02
1.545668e+03,8.090706e+02
1.546632e+03,8.112405e+02
1.547596e+03,8.121480e+02
1.548561e+03,8.117593e+02
1.549525e+03,8.111015e+02
1.550489e+03,8.101755e+02
1.551453e+03,8.093235e+02
1.552417e+03,8.087185e+02
1.553382e+03,8.082037e+02
1.554346e+03,8.078582e+02
1.555310e+03,8.078139e+02
1.556274e+03,8.081050e+02
1.557239e+03,8.086318e+02
1.558203e+03,8.081465e+02
1.559167e+03,8.062841e+02
1.560131e+03,8.046928e+02
1.561096e+03,8.060206e+02
1.562060e+03,8.073174e+02
1.563024e+03,8.054778e+02
1.563988e+03,8.018004e+02
1.564953e+03,7.992792e+02
1.565917e+03,7.977040e+02
1.566881e+03,7.988520e+02
1.567845e+03,8.031164e+02
1.568809e+03,8.056533e+02
1.569774e+03,8.033926e+02
1.570738e+03,7.992761e+02
1.571702e+03,7.967552e+02
1.572666e+03,7.950671e+02
1.573631e+03,7.930720e+02
1.574595e+03,7.909232e+02
1.575559e+03,7.904529e+02
1.576523e+03,7.927787e+02
1.577488e+03,7.942816e+02
1.578452e+03,7.934988e+02
1.579416e+03,7.928391e+02
1.580380e+03,7.965398e+02
1.581344e+03,8.016378e+02
1.582309e+03,8.026849e+02
1.583273e+03,8.004828e+02
1.584237e+03,7.966415e+02
1.585201e+03,7.902454e+02
1.586166e+03,7.860783e+02
1.587130e+03,7.844627e+02
1.588094e+03,7.849323e+02
1.589058e+03,7.882689e+02
1.590023e+03,7.925242e+02
1.590987e+03,7.929742e+02
1.591951e+03,7.914766e+02
1.592915e+03,7.924051e+02
1.593880e+03,7.953522e+02
1.594844e+03,7.962002e+02
1.595808e+03,7.906923e+02
1.596772e+03,7.867643e+02
1.597736e+03,7.866288e+02
1.598701e+03,7.880507e+02
1.599665e+03,7.897458e+02
1.600629e+03,7.910042e+02
1.601593e+03,7.873107e+02
1.602558e+03,7.806771e+02
1.603522e+03,7.777280e+02
1.604486e+03,7.809532e+02
1.605450e+03,7.839775e+02
1.606415e+03,7.841719e+02
1.607379e+03,7.841458e+02
1.608343e+03,7.845364e+02
1.609307e+03,7.853565e+02
1.610271e+03,7.872709e+02
1.611236e+03,7.896827e+02
1.612200e+03,7.897040e+02
1.613164e+03,7.879422e+02
1.614128e+03,7.875140e+02
1.615093e+03,7.918561e+02
1.616057e+03,7.948241e+02
1.617021e+03,7.931827e+02
1.617985e+03,7.902783e+02
1.618950e+03,7.883607e+02
1.619914e+03,7.869733e+02
1.620878e+03,7.832297e+02
1.621842e+03,7.783016e+02
1.622807e+03,7.774826e+02
1.623771e+03,7.820189e+02
1.624735e+03,7.840624e+02
1.625699e+03,7.738967e+02
1.626663e+03,7.670372e+02
1.627628e+03,7.704404e+02
1.628592e+03,7.772387e+02
1.629556e+03,7.799113e+02
1.630520e+03,7.792552e+02
1.631485e+03,7.763996e+02
1.632449e+03,7.722092e+02
1.633413e+03,7.705487e+02
1.634377e+03,7.741571e+02
1.635342e+03,7.775067e+02
1.636306e+03,7.793065e+02
1.637270e+03,7.792841e+02
1.638234e+03,7.766492e+02
1.639198e+03,7.727936e+02
1.640163e+03,7.701531e+02
1.641127e+03,7.689901e+02
1.642091e+03,7.704592e+02
1.643055e+03,7.739307e+02
1.644020e+03,7.756380e+02
1.644984e+03,7.715787e+02
1.645948e+03,7.683006e+02
1.646912e+03,7.678152e+02
1.647877e+03,7.678344e+02
1.648841e+03,7.662213e+02
1.649805e+03,7.638769e+02
1.650769e+03,7.637779e+02
1.651734e+03,7.650387e+02
1.652698e+03,7.658958e+02
1.653662e+03,7.657834e+02
1.654626e+03,7.641818e+02
1.655590e+03,7.594174e+02
1.656555e+03,7.559430e+02
1.657519e+03,7.553498e+02
1.658483e+03,7.567494e+02
1.659447e+03,7.594968e+02
1.660412e+03,7.621013e+02
1.661376e+03,7.615656e+02
1.662340e+03,7.590909e+02
1.663304e+03,7.581229e+02
1.664269e+03,7.620463e+02
1.665233e+03,7.618749e+02
1.666197e+03,7.557955e+02
1.667161e+03,7.506029e+02
1.668125e+03,7.500970e+02
1.669090e+03,7.527249e+02
1.670054e+03,7.589727e+02
1.671018e+03,7.651846e+02
1.671982e+03,7.653130e+02
1.672947e+03,7.593946e+02
1.673911e+03,7.577776e+02
1.674875e+03,7.621453e+02
1.675839e+03,7.632213e+02
1.676804e+03,7.599100e+02
1.677768e+03,7.554431e+02
1.678732e+03,7.512672e+02
1.679696e+03,7.478345e+02
1.680661e+03,7.457576e+02
1.681625e+03,7.443229e+02
1.682589e+03,7.430824e+02
1.683553e+03,7.422718e+02
1.684517e+03,7.418665e+02
1.685482e+03,7.417953e+02
1.686446e+03,7.433265e+02
1.687410e+03,7.471429e+02
1.688374e+03,7.506740e+02
1.689339e+03,7.529772e+02
1.690303e+03,7.530527e+02
1.691267e+03,7.479705e+02
1.692231e+03,7.421931e+02
1.693196e+03,7.442579e+02
1.694160e+03,7.524544e+02
1.695124e+03,7.556808e+02
1.696088e+03,7.543527e+02
1.697052e+03,7.530775e+02
1.698017e+03,7.547474e+02
1.698981e+03,7.539626e+02
1.699945e+03,7.472479e+02
1.700909e+03,7.405325e+02
1.701874e+03,7.372748e+02
1.702838e+03,7.370349e+02
1.703802e+03,7.386621e+02
1.704766e+03,7.411956e+02
1.705731e+03,7.441185e+02
1.706695e+03,7.473122e+02
1.707659e+03,7.484055e+02
1.708623e+03,7.461376e+02
1.709588e+03,7.454845e+02
1.710552e+03,7.471244e+02
1.711516e+03,7.475352e+02
1.712480e+03,7.422170e+02
1.713444e+03,7.356909e+02
1.714409e+03,7.324730e+02
1.715373e+03,7.321707e+02
1.716337e+03,7.348499e+02
1.717301e+03,7.405887e+02
1.718266e+03,7.429792e+02
1.719230e+03,7.419055e+02
1.720194e+03,7.399460e+02
1.721158e+03,7.375107e+02
1.722123e+03,7.361279e+02
1.723087e+03,7.381676e+02
1.724051e+03,7.401285e+02
1.725015e+03,7.402303e+02
1.725979e+03,7.396163e+02
1.726944e+03,7.398824e+02
1.727908e+03,7.405235e+02
1.728872e+03,7.393633e+02
1.729836e+03,7.363658e+02
1.730801e+03,7.324103e+02
1.731765e+03,7.263517e+02
1.732729e+03,7.233986e+02
1.733693e+03,7.245393e+02
1.734658e+03,7.272510e+02
1.735622e+03,7.309498e+02
1.736586e+03,7.340401e+02
1.737550e+03,7.341146e+02
1.738515e+03,7.323683e+02
1.739479e+03,7.291962e+02
1.740443e+03,7.254786e+02
1.741407e+03,7.254562e+02
1.742371e+03,7.299080e+02
1.743336e+03,7.301199e+02
1.744300e+03,7.254810e+02
1.745264e+03,7.213741e+02
1.746228e+03,7.219423e+02
1.747193e+03,7.240584e+02
1.748157e+03,7.275983e+02
1.749121e+03,7.314030e+02
1.750085e+03,7.343541e+02
1.751050e+03,7.354239e+02
1.752014e+03,7.320397e+02
1.752978e+03,7.263676e+02
1.753942e+03,7.234477e+02
1.754906e+03,7.240429e+02
1.755871e+03,7.245449e+02
1.756835e+03,7.240510e+02
1.757799e+03,7.228041e+02
1.758763e+03,7.216342e+02
1.759728e+03,7.199297e+02
1.760692e+03,7.159188e+02
1.761656e+03,7.119191e+02
1.762620e+03,7.094423e+02
1.763585e+03,7.085209e+02
1.764549e+03,7.091064e+02
1.765513e+03,7.108588e+02
1.766477e+03,7.139119e+02
1.767442e+03,7.177890e+02
1.768406e+03,7.175230e+02
1.769370e+03,7.106042e+02
1.770334e+03,7.067672e+02
1.771298e+03,7.150298e+02
1.772263e+03,7.195933e+02
1.773227e+03,7.155090e+02
1.774191e+03,7.082673e+02
1.775155e+03,7.037509e+02
1.776120e+03,7.016306e+02
1.777084e+03,7.029753e+02
1.778048e+03,7.062744e+02
1.779012e+03,7.073215e+02
1.779977e+03,7.054061e+02
1.780941e+03,7.041417e+02
1.781905e+03,7.032464e+02
1.782869e+03,7.044547e+02
1.783833e+03,7.101153e+02
1.784798e+03,7.133832e+02
1.785762e+03,7.068597e+02
1.786726e+03,7.003578e+02
1.787690e+03,6.987691e+02
1.788655e+03,7.001317e+02
1.789619e+03,7.006042e+02
1.790583e+03,7.009916e+02
1.791547e+03,7.034166e+02
1.792512e+03,7.073704e+02
1.793476e+03,7.094628e+02
1.794440e+03,7.089545e+02
1.795404e+03,7.062076e+02
1.796369e+03,7.008597e+02
1.797333e+03,6.970164e+02
1.798297e+03,6.984993e+02
1.799261e+03,6.999060e+02
1.800225e+03,6.957970e+02
1.801190e+03,6.916105e+02
1.802154e+03,6.916062e+02
1.803118e+03,6.937757e+02
1.804082e+03,6.937115e+02
1.805047e+03,6.919327e+02
1.806011e+03,6.880348e+02
1.806975e+03,6.824190e+02
1.807939e+03,6.803015e+02
1.808904e+03,6.833998e+02
1.809868e+03,6.843101e+02
1.810832e+03,6.823760e+02
1.811796e+03,6.811250e+02
1.812760e+03,6.843576e+02
1.813725e+03,6.874314e+02
1.814689e+03,6.862305e+02
1.815653e+03,6.849237e+02
1.816617e+03,6.874254e+02
1.817582e+03,6.917297e+02
1.818546e+03,6.902682e+02
1.819510e+03,6.856298e+02
1.820474e+03,6.840066e+02
1.821439e+03,6.865000e+02
1.822403e+03,6.874977e+02
1.823367e+03,6.864891e+02
1.824331e+03,6.846343e+02
1.825296e+03,6.818644e+02
1.826260e+03,6.790233e+02
1.827224e+03,6.769193e+02
1.828188e+03,6.759805e+02
1.829152e+03,6.762259e+02
1.830117e+03,6.772052e+02
1.831081e+03,6.794320e+02
1.832045e+03,6.814893e+02
1.833009e+03,6.789888e+02
1.833974e+03,6.745818e+02
1.834938e+03,6.722102e+02
1.835902e+03,6.725402e+02
1.836866e+03,6.733295e+02
1.837831e+03,6.746617e+02
1.838795e+03,6.737451e+02
1.839759e+03,6.701198e+02
1.840723e+03,6.685263e+02
1.841688e+03,6.758961e+02
1.842652e+03,6.800953e+02
1.843616e+03,6.759661e+02
1.844580e+03,6.688961e+02
1.845544e+03,6.631107e+02
1.846509e+03,6.597112e+02
1.847473e+03,6.619234e+02
1.848437e+03,6.672275e+02
1.849401e+03,6.717361e+02
1.850366e+03,6.753077e+02
1.851330e+03,6.735882e+02
1.852294e+03,6.675136e+02
1.853258e+03,6.637524e+02
1.854223e+03,6.642186e+02
1.855187e+03,6.640770e+02
1.856151e+03,6.589424e+02
1.857115e+03,6.565018e+02
1.858079e+03,6.589821e+02
1.859044e+03,6.614703e+02
1.860008e+03,6.576578e+02
1.860972e+03,6.529193e+02
1.861936e+03,6.531526e+02
1.862901e+03,6.554871e+02
1.863865e+03,6.545013e+02
1.864829e+03,6.507304e+02
1.865793e+03,6.540018e+02
1.866758e+03,6.616334e+02
1.867722e+03,6.645832e+02
1.868686e+03,6.592365e+02
1.869650e+03,6.559834e+02
1.870615e+03,6.558915e+02
1.871579e+03,6.539713e+02
1.872543e+03,6.488315e+02
1.873507e+03,6.459666e+02
1.874471e+03,6.522585e+02
1.875436e+03,6.576299e+02
1.876400e+03,6.571290e+02
1.877364e+03,6.549388e+02
1.878328e+03,6.569574e+02
1.879293e+03,6.598170e+02
1.880257e+03,6.548445e+02
1.881221e+03,6.461304e+02
1.882185e+03,6.433520e+02
1.883150e+03,6.471860e+02
1.884114e+03,6.485834e+02
1.885078e+03,6.475538e+02
1.886042e+03,6.447657e+02
1.887006e+03,6.397746e+02
1.887971e+03,6.380473e+02
1.888935e+03,6.441020e+02
1.889899e+03,6.471118e+02
1.890863e+03,6.434565e+02
1.891828e+03,6.403336e+02
1.892792e+03,6.497551e+02
1.893756e+03,6.581877e+02
1.894720e+03,6.526765e+02
1.895685e+03,6.433464e+02
1.896649e+03,6.401231e+02
1.897613e+03,6.408192e+02
1.898577e+03,6.379833e+02
1.899542e+03,6.342097e+02
1.900506e+03,6.364666e+02
1.901470e+03,6.466483e+02
1.902434e+03,6.465555e+02
1.903398e+03,6.368625e+02
1.904363e+03,6.323033e+02
1.905327e+03,6.371588e+02
1.906291e+03,6.409677e+02
1.907255e+03,6.357143e+02
1.908220e+03,6.331719e+02
1.909184e+03,6.363066e+02
1.910148e+03,6.389654e+02
1.911112e+03,6.326430e+02
1.912077e+03,6.262961e+02
1.913041e+03,6.290624e+02
1.914005e+03,6.347499e+02
1.914969e+03,6.373742e+02
1.915933e+03,6.372511e+02
1.916898e+03,6.340979e+02
1.917862e+03,6.297063e+02
1.918826e+03,6.276168e+02
1.919790e+03,6.286569e+02
1.920755e+03,6.295780e+02
1.921719e+03,6.300095e+02
1.922683e+03,6.293683e+02
1.923647e+03,6.277203e+02
1.924612e+03,6.272646e+02
1.925576e+03,6.312172e+02
1.926540e+03,6.321598e+02
1.927504e+03,6.280719e+02
1.928469e+03,6.240205e+02
1.929433e+03,6.252555e+02
1.930397e+03,6.271224e+02
1.931361e+03,6.259866e+02
1.932325e+03,6.242292e+02
1.933290e+03,6.242084e+02
1.934254e+03,6.253369e+02
1.935218e+03,6.239750e+02
1.936182e+03,6.219055e+02
1.937147e+03,6.243480e+02
1.938111e+03,6.306545e+02
1.939075e+03,6.308392e+02
1.940039e+03,6.262137e+02
1.941004e+03,6.226423e+02
1.941968e+03,6.207233e+02
1.942932e+03,6.220148e+02
1.943896e+03,6.299793e+02
1.944860e+03,6.322969e+02
1.945825e+03,6.278502e+02
1.946789e+03,6.227744e+02
1.947753e+03,6.199554e+02
1.948717e+03,6.190364e+02
1.949682e+03,6.207457e+02
1.950646e+03,6.224277e+02
1.951610e+03,6.225363e+02
1.952574e+03,6.218076e+02
1.953539e+03,6.209467e+02
1.954503e+03,6.200541e+02
1.955467e+03,6.191283e+02
1.956431e+03,6.186964e+02
1.957396e+03,6.210624e+02
1.958360e+03,6.241842e+02
1.959324e+03,6.220945e+02
1.960288e+03,6.159799e+02
1.961252e+03,6.147941e+02
1.962217e+03,6.191658e+02
1.963181e+03,6.201118e+02
1.964145e+03,6.173538e+02
1.965109e+03,6.139647e+02
1.966074e+03,6.094407e+02
1.967038e+03,6.098664e+02
1.968002e+03,6.161229e+02
1.968966e+03,6.196083e+02
1.969931e+03,6.154202e+02
1.970895e+03,6.102545e+02
1.971859e+03,6.091238e+02
1.972823e+03,6.100770e+02
1.973787e+03,6.124304e+02
1.974752e+03,6.146979e+02
1.975716e+03,6.149776e+02
1.976680e+03,6.140066e+02
1.977644e+03,6.123645e+02
1.978609e+03,6.110765e+02
1.979573e+03,6.118743e+02
1.980537e+03,6.135039e+02
1.981501e+03,6.108711e+02
1.982466e+03,6.060958e+02
1.983430e+03,6.058930e+02
1.984394e+03,6.111304e+02
1.985358e+03,6.145994e+02
1.986323e+03,6.161263e+02
1.987287e+03,6.148306e+02
1.988251e+03,6.098314e+02
1.989215e+03,6.045898e+02
1.990179e+03,5.990911e+02
1.991144e+03,5.974001e+02
1.992108e+03,6.011083e+02
1.993072e+03,6.044003e+02
1.994036e+03,6.007953e+02
1.995001e+03,5.991483e+02
1.995965e+03,6.022169e+02
1.996929e+03,6.064747e+02
1.997893e+03,6.101943e+02
1.998858e+03,6.109103e+02
1.999822e+03,6.032445e+02
2.000786e+03,5.945634e+02
2.001750e+03,5.914838e+02
2.002714e+03,5.927411e+02
2.003679e+03,5.971647e+02
2.004643e+03,6.012171e+02
2.005607e+03,5.983344e+02
2.006571e+03,5.907032e+02
2.007536e+03,5.852879e+02
2.008500e+03,5.822667e+02
2.009464e+03,5.825053e+02
2.010428e+03,5.860326e+02
2.011393e+03,5.899460e+02
2.012357e+03,5.940359e+02
2.013321e+03,5.978973e+02
2.014285e+03,6.008867e+02
2.015250e+03,6.013510e+02
2.016214e+03,5.970385e+02
2.017178e+03,5.920775e+02
2.018142e+03,5.865699e+02
2.019106e+03,5.835710e+02
2.020071e+03,5.859561e+02
2.021035e+03,5.875839e+02
2.021999e+03,5.840170e+02
2.022963e+03,5.819481e+02
2.023928e+03,5.847061e+02
2.024892e+03,5.881513e+02
2.025856e+03,5.865604e+02
2.026820e+03,5.851512e+02
2.027785e+03,5.880701e+02
2.028749e+03,5.910953e+02
2.029713e+03,5.870953e+02
2.030677e+03,5.809518e+02
2.031641e+03,5.792287e+02
2.032606e+03,5.799438e+02
2.033570e+03,5.785917e+02
2.034534e+03,5.762938e+02
2.035498e+03,5.816692e+02
2.036463e+03,5.895807e+02
2.037427e+03,5.852308e+02
2.038391e+03,5.690955e+02
2.039355e+03,5.635329e+02
2.040320e+03,5.667050e+02
2.041284e+03,5.716924e+02
2.042248e+03,5.769842e+02
2.043212e+03,5.765713e+02
2.044177e+03,5.698784e+02
2.045141e+03,5.677057e+02
2.046105e+03,5.714298e+02
2.047069e+03,5.747222e+02
2.048033e+03,5.721058e+02
2.048998e+03,5.742919e+02
2.049962e+03,5.829202e+02
2.050926e+03,5.878206e+02
2.051890e+03,5.771643e+02
2.052854e+03,5.697560e+02
2.053819e+03,5.728865e+02
2.054783e+03,5.734620e+02
2.055747e+03,5.629124e+02
2.056711e+03,5.529003e+02
2.057676e+03,5.564273e+02
2.058640e+03,5.621316e+02
2.059604e+03,5.636550e+02
2.060568e+03,5.629527e+02
2.061533e+03,5.626537e+02
2.062497e+03,5.625828e+02
2.063461e+03,5.623581e+02
2.064425e+03,5.623857e+02
2.065390e+03,5.644323e+02
2.066354e+03,5.663218e+02
2.067318e+03,5.621217e+02
2.068282e+03,5.560552e+02
2.069247e+03,5.571768e+02
2.070211e+03,5.635963e+02
2.071175e+03,5.627871e+02
2.072139e+03,5.579587e+02
2.073104e+03,5.573312e+02
2.074068e+03,5.614570e+02
2.075032e+03,5.607602e+02
2.075996e+03,5.561981e+02
2.076960e+03,5.527897e+02
2.077925e+03,5.514529e+02
2.078889e+03,5.508660e+02
2.079853e+03,5.509007e+02
2.080817e+03,5.518307e+02
2.081782e+03,5.534269e+02
2.082746e+03,5.520633e+02
2.083710e+03,5.442687e+02
2.084674e+03,5.406921e+02
2.085639e+03,5.422136e+02
2.086603e+03,5.460167e+02
2.087567e+03,5.520256e+02
2.088531e+03,5.550135e+02
2.089496e+03,5.540304e+02
2.090460e+03,5.507019e+02
2.091424e+03,5.455312e+02
2.092388e+03,5.425681e+02
2.093353e+03,5.467786e+02
2.094317e+03,5.486979e+02
2.095281e+03,5.446438e+02
2.096245e+03,5.384662e+02
2.097209e+03,5.309928e+02
2.098174e+03,5.277019e+02
2.099138e+03,5.319207e+02
2.100102e+03,5.373109e+02
2.101066e+03,5.360269e+02
2.102031e+03,5.336539e+02
2.102995e+03,5.374998e+02
2.103959e+03,5.402010e+02
2.104923e+03,5.339672e+02
2.105887e+03,5.247598e+02
2.106852e+03,5.189182e+02
2.107816e+03,5.177078e+02
2.108780e+03,5.240560e+02
2.109744e+03,5.328872e+02
2.110708e+03,5.302229e+02
2.111673e+03,5.234667e+02
2.112637e+03,5.236956e+02
2.113601e+03,5.278112e+02
2.114565e+03,5.295452e+02
2.115530e+03,5.290889e+02
2.116494e+03,5.245920e+02
2.117458e+03,5.193868e+02
2.118422e+03,5.227937e+02
2.119387e+03,5.322794e+02
2.120351e+03,5.354831e+02
2.121315e+03,5.336015e+02
2.122279e+03,5.337584e+02
2.123244e+03,5.365430e+02
2.124208e+03,5.343239e+02
2.125172e+03,5.286565e+02
2.126136e+03,5.238290e+02
2.127101e+03,5.208370e+02
2.128065e+03,5.206740e+02
2.129029e+03,5.227766e+02
2.129993e+03,5.235197e+02
2.130958e+03,5.216987e+02
2.131922e+03,5.211141e+02
2.132886e+03,5.223863e+02
2.133850e+03,5.224987e+02
2.134814e+03,5.217321e+02
2.135779e+03,5.222267e+02
2.136743e+03,5.250170e+02
2.137707e+03,5.268869e+02
2.138671e+03,5.278072e+02
2.139636e+03,5.264890e+02
2.140600e+03,5.196644e+02
2.141564e+03,5.169828e+02
2.142528e+03,5.193879e+02
2.143493e+03,5.198969e+02
2.144457e+03,5.146027e+02
2.145421e+03,5.105113e+02
2.146385e+03,5.091305e+02
2.147350e+03,5.115252e+02
2.148314e+03,5.191256e+02
2.149278e+03,5.243641e+02
2.150242e+03,5.182553e+02
2.151207e+03,5.147795e+02
2.152171e+03,5.164117e+02
2.153135e+03,5.170051e+02
2.154099e+03,5.113291e+02
2.155063e+03,5.056049e+02
2.156028e+03,5.007592e+02
2.156992e+03,4.996986e+02
2.157956e+03,5.069131e+02
2.158920e+03,5.129780e+02
2.159885e+03,5.132505e+02
2.160849e+03,5.125028e+02
2.161813e+03,5.133214e+02
2.162777e+03,5.127421e+02
2.163741e+03,5.052460e+02
2.164706e+03,5.006441e+02
2.165670e+03,5.037109e+02
2.166634e+03,5.090214e+02
2.167598e+03,5.120523e+02
2.168563e+03,5.122750e+02
2.169527e+03,5.086145e+02
2.170491e+03,5.046427e+02
2.171455e+03,5.061705e+02
2.172420e+03,5.074767e+02
2.173384e+03,5.042411e+02
2.174348e+03,5.005519e+02
2.175312e+03,4.998443e+02
2.176277e+03,4.995385e+02
2.177241e+03,4.957940e+02
2.178205e+03,4.934448e+02
2.179169e+03,4.966667e+02
2.180134e+03,5.016418e+02
2.181098e+03,5.018740e+02
2.182062e+03,5.026388e+02
2.183026e+03,5.078850e+02
2.183990e+03,5.132974e+02
2.184955e+03,5.133889e+02
2.185919e+03,5.092997e+02
2.186883e+03,4.994848e+02
2.187847e+03,4.904327e+02
2.188812e+03,4.927386e+02
2.189776e+03,4.982458e+02
2.190740e+03,4.979078e+02
2.191704e+03,4.953725e+02
2.192668e+03,4.938799e+02
2.193633e+03,4.929439e+02
2.194597e+03,4.918380e+02
2.195561e+03,4.907621e+02
2.196525e+03,4.887646e+02
2.197490e+03,4.880006e+02
2.198454e+03,4.956917e+02
2.199418e+03,5.029474e+02
2.200382e+03,5.013864e+02
2.201347e+03,4.962233e+02
2.202311e+03,4.958175e+02
2.203275e+03,4.963302e+02
2.204239e+03,4.923047e+02
2.205204e+03,4.877810e+02
2.206168e+03,4.915439e+02
2.207132e+03,4.967373e+02
2.208096e+03,4.923532e+02
2.209061e+03,4.853956e+02
2.210025e+03,4.839870e+02
2.210989e+03,4.852831e+02
2.211953e+03,4.850378e+02
2.212917e+03,4.858829e+02
2.213882e+03,4.894547e+02
2.214846e+03,4.936591e+02
2.215810e+03,4.959568e+02
2.216774e+03,4.958924e+02
2.217739e+03,4.940501e+02
2.218703e+03,4.915596e+02
2.219667e+03,4.895399e+02
2.220631e+03,4.883460e+02
2.221595e+03,4.882278e+02
2.222560e+03,4.885668e+02
2.223524e+03,4.890519e+02
2.224488e+03,4.892693e+02
2.225452e+03,4.886245e+02
2.226417e+03,4.880084e+02
2.227381e+03,4.885202e+02
2.228345e+03,4.892935e+02
2.229309e+03,4.887079e+02
2.230274e+03,4.870817e+02
2.231238e+03,4.847617e+02
2.232202e+03,4.820199e+02
2.233166e+03,4.793946e+02
2.234131e+03,4.772189e+02
2.235095e+03,4.746465e+02
2.236059e+03,4.741322e+02
2.237023e+03,4.829294e+02
2.237988e+03,4.906632e+02
2.238952e+03,4.894593e+02
2.239916e+03,4.849584e+02
2.240880e+03,4.854650e+02
2.241844e+03,4.854604e+02
2.242809e+03,4.790457e+02
2.243773e+03,4.740297e+02
2.244737e+03,4.809668e+02
2.245701e+03,4.890599e+02
2.246666e+03,4.893935e+02
2.247630e+03,4.866105e+02
2.248594e+03,4.835278e+02
2.249558e+03,4.801860e+02
2.250522e+03,4.750946e+02
2.251487e+03,4.714053e+02
2.252451e+03,4.705927e+02
2.253415e+03,4.700206e+02
2.254379e+03,4.670030e+02
2.255344e+03,4.650923e+02
2.256308e+03,4.659083e+02
2.257272e+03,4.676781e+02
2.258236e+03,4.686660e+02
2.259201e+03,4.704565e+02
2.260165e+03,4.737546e+02
2.261129e+03,4.756141e+02
2.262093e+03,4.707921e+02
2.263058e+03,4.682749e+02
2.264022e+03,4.712281e+02
2.264986e+03,4.749434e+02
2.265950e+03,4.775293e+02
2.266915e+03,4.759651e+02
2.267879e+03,4.677501e+02
2.268843e+03,4.629496e+02
2.269807e+03,4.680452e+02
2.270771e+03,4.724371e+02
2.271736e+03,4.723173e+02
2.272700e+03,4.709305e+02
2.273664e+03,4.683195e+02
2.274628e+03,4.663993e+02
2.275593e+03,4.663625e+02
2.276557e+03,4.653709e+02
2.277521e+03,4.633371e+02
2.278485e+03,4.624501e+02
2.279449e+03,4.641574e+02
2.280414e+03,4.661430e+02
2.281378e+03,4.681771e+02
2.282342e+03,4.698422e+02
2.283306e+03,4.713589e+02
2.284271e+03,4.695233e+02
2.285235e+03,4.645744e+02
2.286199e+03,4.608124e+02
2.287163e+03,4.605406e+02
2.288128e+03,4.623612e+02
2.289092e+03,4.654625e+02
2.290056e+03,4.668530e+02
2.291020e+03,4.658384e+02
2.291985e+03,4.633274e+02
2.292949e+03,4.601723e+02
2.293913e+03,4.602983e+02
2.294877e+03,4.634123e+02
2.295842e+03,4.636102e+02
2.296806e+03,4.609164e+02
2.297770e+03,4.599624e+02
2.298734e+03,4.600160e+02
2.299698e+03,4.566851e+02
2.300663e+03,4.509325e+02
2.301627e+03,4.501191e+02
2.302591e+03,4.527042e+02
2.303555e+03,4.559898e+02
2.304520e+03,4.588373e+02
2.305484e+03,4.545136e+02
2.306448e+03,4.478285e+02
2.307412e+03,4.471089e+02
2.308376e+03,4.499017e+02
2.309341e+03,4.500075e+02
2.310305e+03,4.496620e+02
2.311269e+03,4.533271e+02
2.312233e+03,4.576023e+02
2.313198e+03,4.535512e+02
2.314162e+03,4.492619e+02
2.315126e+03,4.567023e+02
2.316090e+03,4.648554e+02
2.317055e+03,4.606245e+02
2.318019e+03,4.528970e+02
2.318983e+03,4.479455e+02
2.319947e+03,4.455273e+02
2.320912e+03,4.487074e+02
2.321876e+03,4.503641e+02
2.322840e+03,4.419550e+02
2.323804e+03,4.352072e+02
2.324769e+03,4.357420e+02
2.325733e+03,4.394181e+02
2.326697e+03,4.457896e+02
2.327661e+03,4.481109e+02
2.328625e+03,4.431227e+02
2.329590e+03,4.392310e+02
2.330554e+03,4.444101e+02
2.331518e+03,4.449253e+02
2.332482e+03,4.384350e+02
2.333447e+03,4.333755e+02
2.334411e+03,4.344498e+02
2.335375e+03,4.360209e+02
2.336339e+03,4.376703e+02
2.337303e+03,4.382636e+02
2.338268e+03,4.369957e+02
2.339232e+03,4.340927e+02
2.340196e+03,4.301688e+02
2.341160e+03,4.284448e+02
2.342125e+03,4.298643e+02
2.343089e+03,4.324250e+02
2.344053e+03,4.352313e+02
2.345017e+03,4.375823e+02
2.345982e+03,4.391551e+02
2.346946e+03,4.371786e+02
2.347910e+03,4.331666e+02
2.348874e+03,4.287969e+02
2.349839e+03,4.253687e+02
2.350803e+03,4.281426e+02
2.351767e+03,4.338906e+02
2.352731e+03,4.366046e+02
2.353696e+03,4.367170e+02
2.354660e+03,4.336683e+02
2.355624e+03,4.294856e+02
2.356588e+03,4.273701e+02
2.357552e+03,4.271270e+02
2.358517e+03,4.293926e+02
2.359481e+03,4.319857e+02
2.360445e+03,4.314383e+02
2.361409e+03,4.310525e+02
2.362374e+03,4.333059e+02
2.363338e+03,4.342840e+02
2.364302e+03,4.296556e+02
2.365266e+03,4.252884e+02
2.366230e+03,4.222135e+02
2.367195e+03,4.205120e+02
2.368159e+03,4.209673e+02
2.369123e+03,4.208192e+02
2.370087e+03,4.200646e+02
2.371052e+03,4.193954e+02
2.372016e+03,4.191400e+02
2.372980e+03,4.188568e+02
2.373944e+03,4.185031e+02
2.374909e+03,4.200980e+02
2.375873e+03,4.257687e+02
2.376837e+03,4.250605e+02
2.377801e+03,4.196242e+02
2.378766e+03,4.164650e+02
2.379730e+03,4.164779e+02
2.380694e+03,4.174523e+02
2.381658e+03,4.184055e+02
2.382623e+03,4.134156e+02
2.383587e+03,4.062042e+02
2.384551e+03,4.116201e+02
2.385515e+03,4.219080e+02
2.386479e+03,4.246122e+02
2.387444e+03,4.231715e+02
2.388408e+03,4.221939e+02
2.389372e+03,4.205735e+02
2.390336e+03,4.155998e+02
2.391301e+03,4.114923e+02
2.392265e+03,4.139435e+02
2.393229e+03,4.163568e+02
2.394193e+03,4.151244e+02
2.395157e+03,4.118085e+02
2.396122e+03,4.046022e+02
2.397086e+03,4.026110e+02
2.398050e+03,4.099025e+02
2.399014e+03,4.140562e+02
2.399979e+03,4.091097e+02
2.400943e+03,4.070353e+02
2.401907e+03,4.098302e+02
2.402871e+03,4.102766e+02
2.403836e+03,4.069640e+02
2.404800e+03,4.086277e+02
2.405764e+03,4.151082e+02
2.406728e+03,4.159790e+02
2.407693e+03,4.111163e+02
2.408657e+03,4.096279e+02
2.409621e+03,4.109142e+02
2.410585e+03,4.090018e+02
2.411550e+03,4.047007e+02
2.412514e+03,3.992251e+02
2.413478e+03,3.949093e+02
2.414442e+03,4.011893e+02
2.415406e+03,4.093077e+02
2.416371e+03,4.095436e+02
2.417335e+03,4.059429e+02
2.418299e+03,4.024096e+02
2.419263e+03,3.999066e+02
2.420228e+03,3.986810e+02
2.421192e+03,3.990314e+02
2.422156e+03,4.044456e+02
2.423120e+03,4.053693e+02
2.424084e+03,3.984144e+02
2.425049e+03,3.940941e+02
2.426013e+03,4.011571e+02
2.426977e+03,4.027283e+02
2.427941e+03,3.978920e+02
2.428906e+03,3.977350e+02
2.429870e+03,4.065646e+02
2.430834e+03,4.039298e+02
2.431798e+03,3.924060e+02
2.432763e+03,3.875220e+02
2.433727e+03,3.897791e+02
2.434691e+03,3.957197e+02
2.435655e+03,4.027887e+02
2.436620e+03,4.062585e+02
2.437584e+03,4.063501e+02
2.438548e+03,4.011539e+02
2.439512e+03,3.959724e+02
2.440477e+03,3.965819e+02
2.441441e+03,3.980001e+02
2.442405e+03,3.918858e+02
2.443369e+03,3.881045e+02
2.444333e+03,3.919308e+02
2.445298e+03,3.955182e+02
2.446262e+03,3.891482e+02
2.447226e+03,3.869751e+02
2.448190e+03,3.917175e+02
2.449155e+03,3.963688e+02
2.450119e+03,3.976297e+02
2.451083e+03,3.970574e+02
2.452047e+03,3.947881e+02
2.453011e+03,3.927349e+02
2.453976e+03,3.914859e+02
2.454940e+03,3.920206e+02
2.455904e+03,3.937168e+02
2.456868e+03,3.933718e+02
2.457833e+03,3.913426e+02
2.458797e+03,3.898312e+02
2.459761e+03,3.888618e+02
2.460725e+03,3.881810e+02
2.461690e+03,3.876422e+02
2.462654e+03,3.857631e+02
2.463618e+03,3.866271e+02
2.464582e+03,3.938499e+02
2.465547e+03,3.998078e+02
2.466511e+03,3.946095e+02
2.467475e+03,3.899655e+02
2.468439e+03,3.885272e+02
2.469404e+03,3.889919e+02
2.470368e+03,3.953431e+02
2.471332e+03,3.913376e+02
2.472296e+03,3.780861e+02
2.473260e+03,3.742873e+02
2.474225e+03,3.855644e+02
2.475189e+03,3.896022e+02
2.476153e+03,3.884854e+02
2.477117e+03,3.863687e+02
2.478082e+03,3.843402e+02
2.479046e+03,3.839010e+02
2.480010e+03,3.856985e+02
2.480974e+03,3.928842e+02
2.481938e+03,3.990464e+02
2.482903e+03,3.922977e+02
2.483867e+03,3.863614e+02
2.484831e+03,3.892475e+02
2.485795e+03,3.915941e+02
2.486760e+03,3.830997e+02
2.487724e+03,3.788986e+02
2.488688e+03,3.815304e+02
2.489652e+03,3.860777e+02
2.490617e+03,3.925657e+02
2.491581e+03,3.915268e+02
2.492545e+03,3.844958e+02
2.493509e+03,3.789875e+02
2.494474e+03,3.762298e+02
2.495438e+03,3.795947e+02
2.496402e+03,3.851746e+02
2.497366e+03,3.829462e+02
2.498331e+03,3.775287e+02
2.499295e+03,3.782085e+02
2.500259e+03,3.805553e+02
2.501223e+03,3.809674e+02
2.502188e+03,3.814481e+02
2.503152e+03,3.862235e+02
2.504116e+03,3.865279e+02
2.505080e+03,3.792884e+02
2.506044e+03,3.762424e+02
2.507009e+03,3.918237e+02
2.507973e+03,3.949867e+02
2.508937e+03,3.860240e+02
2.509901e+03,3.808484e+02
2.510865e+03,3.833568e+02
2.511830e+03,3.878108e+02
2.512794e+03,3.919601e+02
2.513758e+03,3.884325e+02
2.514722e+03,3.813098e+02
2.515687e+03,3.816192e+02
2.516651e+03,3.842812e+02
2.517615e+03,3.836968e+02
2.518579e+03,3.822622e+02
2.519544e+03,3.832417e+02
2.520508e+03,3.843702e+02
2.521472e+03,3.850599e+02
2.522436e+03,3.845379e+02
2.523401e+03,3.809806e+02
2.524365e+03,3.787730e+02
2.525329e+03,3.778627e+02
2.526293e+03,3.777802e+02
2.527258e+03,3.785482e+02
2.528222e+03,3.833033e+02
2.529186e+03,3.892238e+02
2.530150e+03,3.862653e+02
2.531115e+03,3.787549e+02
2.532079e+03,3.827803e+02
2.533043e+03,3.888085e+02
2.534007e+03,3.854547e+02
2.534971e+03,3.804426e+02
2.535936e+03,3.877052e+02
2.536900e+03,3.897944e+02
2.537864e+03,3.794158e+02
2.538828e+03,3.715546e+02
2.539792e+03,3.737318e+02
2.540757e+03,3.772128e+02
2.541721e+03,3.808964e+02
2.542685e+03,3.839716e+02
2.543649e+03,3.865771e+02
2.544614e+03,3.875055e+02
2.545578e+03,3.872861e+02
2.546542e+03,3.892665e+02
2.547506e+03,3.917198e+02
2.548471e+03,3.879590e+02
2.549435e+03,3.845196e+02
2.550399e+03,3.888342e+02
2.551363e+03,3.925506e+02
2.552328e+03,3.871965e+02
2.553292e+03,3.847687e+02
2.554256e+03,3.908803e+02
2.555220e+03,3.910948e+02
2.556185e+03,3.828607e+02
2.557149e+03,3.787764e+02
2.558113e+03,3.811705e+02
2.559077e+03,3.863788e+02
2.560042e+03,3.916483e+02
2.561006e+03,3.864520e+02
2.561970e+03,3.769697e+02
2.562934e+03,3.750659e+02
2.563898e+03,3.766824e+02
2.564863e+03,3.778127e+02
2.565827e+03,3.780577e+02
2.566791e+03,3.775630e+02
2.567755e+03,3.770179e+02
2.568719e+03,3.761909e+02
2.569684e+03,3.743749e+02
2.570648e+03,3.703797e+02
2.571612e+03,3.717950e+02
2.572576e+03,3.775342e+02
2.573541e+03,3.775280e+02
2.574505e+03,3.721837e+02
2.575469e+03,3.738128e+02
2.576433e+03,3.769690e+02
2.577398e+03,3.726247e+02
2.578362e+03,3.673119e+02
2.579326e+03,3.726644e+02
2.580290e+03,3.753099e+02
2.581255e+03,3.689894e+02
2.582219e+03,3.633215e+02
2.583183e+03,3.674037e+02
2.584147e+03,3.681116e+02
2.585112e+03,3.656510e+02
2.586076e+03,3.657257e+02
2.587040e+03,3.691850e+02
2.588004e+03,3.665218e+02
2.588969e+03,3.604920e+02
2.589933e+03,3.578723e+02
2.590897e+03,3.573846e+02
2.591861e+03,3.558816e+02
2.592825e+03,3.552937e+02
2.593790e+03,3.566855e+02
2.594754e+03,3.590970e+02
2.595718e+03,3.636067e+02
2.596682e+03,3.613824e+02
2.597646e+03,3.497897e+02
2.598611e+03,3.502358e+02
2.599575e+03,3.632740e+02
2.600539e+03,3.696978e+02
2.601503e+03,3.684139e+02
2.602468e+03,3.660484e+02
2.603432e+03,3.630417e+02
2.604396e+03,3.604142e+02
2.605360e+03,3.585585e+02
2.606325e+03,3.584614e+02
2.607289e+03,3.570361e+02
2.608253e+03,3.526439e+02
2.609217e+03,3.502201e+02
2.610182e+03,3.525859e+02
2.611146e+03,3.526156e+02
2.612110e+03,3.505340e+02
2.613074e+03,3.498600e+02
2.614039e+03,3.513561e+02
2.615003e+03,3.573594e+02
2.615967e+03,3.623335e+02
2.616931e+03,3.570466e+02
2.617896e+03,3.504059e+02
2.618860e+03,3.556664e+02
2.619824e+03,3.603678e+02
2.620788e+03,3.597010e+02
2.621752e+03,3.573231e+02
2.622717e+03,3.548041e+02
2.623681e+03,3.529152e+02
2.624645e+03,3.516212e+02
2.625609e+03,3.515990e+02
2.626573e+03,3.524089e+02
2.627538e+03,3.514232e+02
2.628502e+03,3.491563e+02
2.629466e+03,3.451270e+02
2.630430e+03,3.423347e+02
2.631395e+03,3.471226e+02
2.632359e+03,3.510486e+02
2.633323e+03,3.519033e+02
2.634287e+03,3.459197e+02
2.635252e+03,3.329540e+02
2.636216e+03,3.326918e+02
2.637180e+03,3.475578e+02
2.638144e+03,3.507419e+02
2.639109e+03,3.462517e+02
2.640073e+03,3.466173e+02
2.641037e+03,3.487255e+02
2.642001e+03,3.467352e+02
2.642966e+03,3.428121e+02
2.643930e+03,3.376441e+02
2.644894e+03,3.354112e+02
2.645858e+03,3.423326e+02
2.646823e+03,3.457677e+02
2.647787e+03,3.449002e+02
2.648751e+03,3.398233e+02
2.649715e+03,3.319896e+02
2.650679e+03,3.399606e+02
2.651644e+03,3.512086e+02
2.652608e+03,3.450803e+02
2.653572e+03,3.337396e+02
2.654536e+03,3.364731e+02
2.655500e+03,3.380601e+02
2.656465e+03,3.321286e+02
2.657429e+03,3.301797e+02
2.658393e+03,3.359395e+02
2.659357e+03,3.389686e+02
2.660322e+03,3.388621e+02
2.661286e+03,3.418773e+02
2.662250e+03,3.449886e+02
2.663214e+03,3.342612e+02
2.664179e+03,3.225435e+02
2.665143e+03,3.280833e+02
2.666107e+03,3.359502e+02
2.667071e+03,3.388504e+02
2.668036e+03,3.373511e+02
2.669000e+03,3.267578e+02
2.669964e+03,3.271602e+02
2.670928e+03,3.364542e+02
2.671893e+03,3.368451e+02
2.672857e+03,3.303380e+02
2.673821e+03,3.342471e+02
2.674785e+03,3.408322e+02
2.675750e+03,3.422137e+02
2.676714e+03,3.402228e+02
2.677678e+03,3.344415e+02
2.678642e+03,3.291398e+02
2.679606e+03,3.252246e+02
2.680571e+03,3.225100e+02
2.681535e+03,3.207446e+02
2.682499e+03,3.294033e+02
2.683463e+03,3.427492e+02
2.684427e+03,3.376888e+02
2.685392e+03,3.264211e+02
2.686356e+03,3.322723e+02
2.687320e+03,3.394908e+02
2.688284e+03,3.369137e+02
2.689249e+03,3.354967e+02
2.690213e+03,3.375289e+02
2.691177e+03,3.386727e+02
2.692141e+03,3.378886e+02
2.693106e+03,3.343610e+02
2.694070e+03,3.306051e+02
2.695034e+03,3.343857e+02
2.695998e+03,3.393768e+02
2.696963e+03,3.313112e+02
2.697927e+03,3.255028e+02
2.698891e+03,3.295689e+02
2.699855e+03,3.326322e+02
2.700820e+03,3.291193e+02
2.701784e+03,3.276454e+02
2.702748e+03,3.282622e+02
2.703712e+03,3.253083e+02
2.704677e+03,3.209701e+02
2.705641e+03,3.253204e+02
2.706605e+03,3.318719e+02
2.707569e+03,3.328917e+02
2.708533e+03,3.313400e+02
2.709498e+03,3.282701e+02
2.710462e+03,3.270475e+02
2.711426e+03,3.304777e+02
2.712390e+03,3.328401e+02
2.713354e+03,3.341923e+02
2.714319e+03,3.352831e+02
2.715283e+03,3.363784e+02
2.716247e+03,3.394574e+02
2.717211e+03,3.402027e+02
2.718176e+03,3.350935e+02
2.719140e+03,3.323384e+02
2.720104e+03,3.399510e+02
2.721068e+03,3.410080e+02
2.722033e+03,3.336277e+02
2.722997e+03,3.240945e+02
2.723961e+03,3.149863e+02
2.724925e+03,3.150229e+02
2.725890e+03,3.201984e+02
2.726854e+03,3.256016e+02
2.727818e+03,3.311624e+02
2.728782e+03,3.371054e+02
2.729747e+03,3.386505e+02
2.730711e+03,3.296491e+02
2.731675e+03,3.284768e+02
2.732639e+03,3.335301e+02
2.733604e+03,3.362749e+02
2.734568e+03,3.355700e+02
2.735532e+03,3.246978e+02
2.736496e+03,3.174149e+02
2.737460e+03,3.250461e+02
2.738425e+03,3.313317e+02
2.739389e+03,3.254395e+02
2.740353e+03,3.198544e+02
2.741317e+03,3.171280e+02
2.742281e+03,3.216179e+02
2.743246e+03,3.300675e+02
2.744210e+03,3.322249e+02
2.745174e+03,3.292416e+02
2.746138e+03,3.187760e+02
2.747103e+03,3.134120e+02
2.748067e+03,3.176418e+02
2.749031e+03,3.250234e+02
2.749995e+03,3.356309e+02
2.750960e+03,3.350763e+02
2.751924e+03,3.266551e+02
2.752888e+03,3.207286e+02
2.753852e+03,3.171148e+02
2.754817e+03,3.131330e+02
2.755781e+03,3.138630e+02
2.756745e+03,3.241688e+02
2.757709e+03,3.278112e+02
2.758674e+03,3.196439e+02
2.759638e+03,3.159286e+02
2.760602e+03,3.197391e+02
2.761566e+03,3.253892e+02
2.762531e+03,3.310160e+02
2.763495e+03,3.320327e+02
2.764459e+03,3.320627e+02
2.765423e+03,3.387805e+02
2.766387e+03,3.344538e+02
2.767352e+03,3.164234e+02
2.768316e+03,3.119926e+02
2.769280e+03,3.259376e+02
2.770244e+03,3.281113e+02
2.771208e+03,3.231837e+02
2.772173e+03,3.218058e+02
2.773137e+03,3.228284e+02
2.774101e+03,3.284949e+02
2.775065e+03,3.263792e+02
2.776030e+03,3.066883e+02
2.776994e+03,3.047995e+02
2.777958e+03,3.190790e+02
2.778922e+03,3.286116e+02
2.779887e+03,3.321835e+02
2.780851e+03,3.294737e+02
2.781815e+03,3.267884e+02
2.782779e+03,3.297513e+02
2.783744e+03,3.288033e+02
2.784708e+03,3.151866e+02
2.785672e+03,3.066122e+02
2.786636e+03,3.052232e+02
2.787601e+03,3.118648e+02
2.788565e+03,3.223280e+02
2.789529e+03,3.241733e+02
2.790493e+03,3.265567e+02
2.791458e+03,3.439760e+02
2.792422e+03,3.485850e+02
2.793386e+03,3.361613e+02
2.794350e+03,3.248821e+02
2.795314e+03,3.192183e+02
2.796279e+03,3.236692e+02
2.797243e+03,3.305809e+02
2.798207e+03,3.275541e+02
2.799171e+03,3.230697e+02
2.800135e+03,3.290936e+02
2.801100e+03,3.319393e+02
2.802064e+03,3.284742e+02
2.803028e+03,3.263467e+02
2.803992e+03,3.260224e+02
2.804957e+03,3.258429e+02
2.805921e+03,3.264405e+02
2.806885e+03,3.313506e+02
2.807849e+03,3.320481e+02
2.808814e+03,3.243407e+02
2.809778e+03,3.207954e+02
2.810742e+03,3.296988e+02
2.811706e+03,3.312022e+02
2.812671e+03,3.261158e+02
2.813635e+03,3.199384e+02
2.814599e+03,3.152015e+02
2.815563e+03,3.188364e+02
2.816528e+03,3.222255e+02
2.817492e+03,3.214973e+02
2.818456e+03,3.174537e+02
2.819420e+03,3.115727e+02
2.820385e+03,3.185295e+02
2.821349e+03,3.333504e+02
2.822313e+03,3.317845e+02
2.823277e+03,3.234848e+02
2.824241e+03,3.156491e+02
2.825206e+03,3.152169e+02
2.826170e+03,3.295284e+02
2.827134e+03,3.352045e+02
2.828098e+03,3.303020e+02
2.829063e+03,3.265164e+02
2.830027e+03,3.244266e+02
2.830991e+03,3.254349e+02
2.831955e+03,3.272592e+02
2.832919e+03,3.273301e+02
2.833884e+03,3.285501e+02
2.834848e+03,3.308495e+02
2.835812e+03,3.260781e+02
2.836776e+03,3.166746e+02
2.837741e+03,3.334881e+02
2.838705e+03,3.512358e+02
2.839669e+03,3.400131e+02
2.840633e+03,3.292193e+02
2.841598e+03,3.356291e+02
2.842562e+03,3.359145e+02
2.843526e+03,3.247346e+02
2.844490e+03,3.234673e+02
2.845455e+03,3.272272e+02
2.846419e+03,3.278611e+02
2.847383e+03,3.270645e+02
2.848347e+03,3.253687e+02
2.849312e+03,3.263261e+02
2.850276e+03,3.303294e+02
2.851240e+03,3.312121e+02
2.852204e+03,3.294882e+02
2.853168e+03,3.324210e+02
2.854133e+03,3.371405e+02
2.855097e+03,3.413347e+02
2.856061e+03,3.427831e+02
2.857025e+03,3.407461e+02
2.857990e+03,3.402830e+02
2.858954e+03,3.431224e+02
2.859918e+03,3.387935e+02
2.860882e+03,3.355966e+02
2.861846e+03,3.498943e+02
2.862811e+03,3.586482e+02
2.863775e+03,3.340774e+02
2.864739e+03,3.210930e+02
2.865703e+03,3.320973e+02
2.866668e+03,3.469242e+02
2.867632e+03,3.566938e+02
2.868596e+03,3.308716e+02
2.869560e+03,3.040911e+02
2.870525e+03,3.273772e+02
2.871489e+03,3.470140e+02
2.872453e+03,3.494314e+02
2.873417e+03,3.478900e+02
2.874382e+03,3.453683e+02
2.875346e+03,3.402569e+02
2.876310e+03,3.353798e+02
2.877274e+03,3.325022e+02
2.878239e+03,3.350319e+02
2.879203e+03,3.433933e+02
2.880167e+03,3.482017e+02
2.881131e+03,3.468773e+02
2.882095e+03,3.477408e+02
2.883060e+03,3.504877e+02
2.884024e+03,3.544199e+02
2.884988e+03,3.575248e+02
2.885952e+03,3.574966e+02
2.886917e+03,3.585199e+02
2.887881e+03,3.617838e+02
2.888845e+03,3.555402e+02
2.889809e+03,3.477282e+02
2.890773e+03,3.586606e+02
2.891738e+03,3.729107e+02
2.892702e+03,3.778081e+02
2.893666e+03,3.698799e+02
2.894630e+03,3.501690e+02
2.895595e+03,3.521637e+02
2.896559e+03,3.693464e+02
2.897523e+03,3.634146e+02
2.898487e+03,3.529881e+02
2.899452e+03,3.601851e+02
2.900416e+03,3.666859e+02
2.901380e+03,3.678805e+02
2.902344e+03,3.671123e+02
2.903309e+03,3.650156e+02
2.904273e+03,3.576158e+02
2.905237e+03,3.507690e+02
2.906201e+03,3.511172e+02
2.907166e+03,3.510260e+02
2.908130e+03,3.469955e+02
2.909094e+03,3.465128e+02
2.910058e+03,3.491752e+02
2.911022e+03,3.345944e+02
2.911987e+03,3.222409e+02
2.912951e+03,3.349000e+02
2.913915e+03,3.452993e+02
2.914879e+03,3.309560e+02
2.915844e+03,3.250285e+02
2.916808e+03,3.288166e+02
2.917772e+03,3.246518e+02
2.918736e+03,3.193797e+02
2.919700e+03,3.259120e+02
2.920665e+03,3.307822e+02
2.921629e+03,3.214002e+02
2.922593e+03,3.169143e+02
2.923557e+03,3.180423e+02
2.924522e+03,3.229275e+02
2.925486e+03,3.276960e+02
2.926450e+03,3.229550e+02
2.927414e+03,3.169180e+02
2.928379e+03,3.118139e+02
2.929343e+03,3.159703e+02
2.930307e+03,3.263827e+02
2.931271e+03,3.259055e+02
2.932236e+03,3.196578e+02
2.933200e+03,3.160545e+02
2.934164e+03,3.101493e+02
2.935128e+03,2.988315e+02
2.936093e+03,3.023448e+02
2.937057e+03,3.184377e+02
2.938021e+03,3.218329e+02
2.938985e+03,3.161133e+02
2.939949e+03,3.004480e+02
2.940914e+03,2.976071e+02
2.941878e+03,3.139432e+02
2.942842e+03,3.219672e+02
2.943806e+03,3.167227e+02
2.944771e+03,3.119275e+02
2.945735e+03,3.105275e+02
2.946699e+03,3.197318e+02
2.947663e+03,3.216471e+02
2.948627e+03,3.109630e+02
2.949592e+03,3.034567e+02
2.950556e+03,3.022599e+02
2.951520e+03,3.017772e+02
2.952484e+03,3.007414e+02
2.953449e+03,2.962573e+02
2.954413e+03,3.016804e+02
2.955377e+03,3.226568e+02
2.956341e+03,3.322198e+02
2.957306e+03,3.301817e+02
2.958270e+03,3.440285e+02
2.959234e+03,3.507051e+02
2.960198e+03,3.328896e+02
2.961163e+03,3.140081e+02
2.962127e+03,3.031977e+02
2.963091e+03,3.053551e+02
2.964055e+03,3.169640e+02
2.965020e+03,3.311100e+02
2.965984e+03,3.301424e+02
2.966948e+03,2.987884e+02
2.967912e+03,2.833863e+02
2.968876e+03,3.102970e+02
2.969841e+03,3.121939e+02
2.970805e+03,2.995099e+02
2.971769e+03,2.943855e+02
2.972733e+03,2.945711e+02
2.973698e+03,2.989478e+02
2.974662e+03,2.990135e+02
2.975626e+03,2.920277e+02
2.976590e+03,2.806523e+02
2.977554e+03,2.742254e+02
2.978519e+03,2.849457e+02
2.979483e+03,2.965985e+02
2.980447e+03,2.996952e+02
2.981411e+03,2.906913e+02
2.982376e+03,2.724771e+02
2.983340e+03,2.710042e+02
2.984304e+03,2.770441e+02
2.985268e+03,2.815345e+02
2.986233e+03,2.823445e+02
2.987197e+03,2.767837e+02
2.988161e+03,2.780366e+02
2.989125e+03,2.839682e+02
2.990090e+03,2.851615e+02
2.991054e+03,2.840526e+02
2.992018e+03,2.829491e+02
2.992982e+03,2.790128e+02
2.993947e+03,2.702229e+02
2.994911e+03,2.744651e+02
2.995875e+03,2.826992e+02
2.996839e+03,2.773758e+02
2.997803e+03,2.750426e+02
2.998768e+03,2.879494e+02
2.999732e+03,2.869525e+02
3.000696e+03,2.687851e+02
3.001660e+03,2.694862e+02
3.002625e+03,2.741866e+02
3.003589e+03,2.660337e+02
3.004553e+03,2.679022e+02
3.005517e+03,2.918123e+02
3.006481e+03,3.020932e+02
3.007446e+03,2.978730e+02
3.008410e+03,2.943896e+02
3.009374e+03,2.860172e+02
3.010338e+03,2.691147e+02
3.011303e+03,2.674638e+02
3.012267e+03,2.880655e+02
3.013231e+03,2.842210e+02
3.014195e+03,2.702986e+02
3.015160e+03,2.778727e+02
3.016124e+03,2.762958e+02
3.017088e+03,2.558321e+02
3.018052e+03,2.576007e+02
3.019017e+03,2.822213e+02
3.019981e+03,2.810899e+02
3.020945e+03,2.699299e+02
3.021909e+03,2.614965e+02
3.022874e+03,2.588390e+02
3.023838e+03,2.610219e+02
3.024802e+03,2.645140e+02
3.025766e+03,2.685748e+02
3.026730e+03,2.735679e+02
3.027695e+03,2.767794e+02
3.028659e+03,2.774224e+02
3.029623e+03,2.727842e+02
3.030587e+03,2.654784e+02
3.031552e+03,2.699421e+02
3.032516e+03,2.761220e+02
3.033480e+03,2.735719e+02
3.034444e+03,2.647930e+02
3.035408e+03,2.525195e+02
3.036373e+03,2.534017e+02
3.037337e+03,2.630024e+02
3.038301e+03,2.728022e+02
3.039265e+03,2.763966e+02
3.040230e+03,2.627561e+02
3.041194e+03,2.653516e+02
3.042158e+03,2.784985e+02
3.043122e+03,2.771421e+02
3.044087e+03,2.662399e+02
3.045051e+03,2.450222e+02
3.046015e+03,2.434626e+02
3.046979e+03,2.737292e+02
3.047944e+03,2.809421e+02
3.048908e+03,2.746101e+02
3.049872e+03,2.714576e+02
3.050836e+03,2.682362e+02
3.051801e+03,2.610080e+02
3.052765e+03,2.661141e+02
3.053729e+03,2.801052e+02
3.054693e+03,2.753331e+02
3.055657e+03,2.683580e+02
3.056622e+03,2.707722e+02
3.057586e+03,2.743947e+02
3.058550e+03,2.765489e+02
3.059514e+03,2.638206e+02
3.060479e+03,2.520796e+02
3.061443e+03,2.756509e+02
3.062407e+03,2.848562e+02
3.063371e+03,2.685929e+02
3.064335e+03,2.566877e+02
3.065300e+03,2.534866e+02
3.066264e+03,2.620620e+02
3.067228e+03,2.725517e+02
3.068192e+03,2.798959e+02
3.069157e+03,2.759674e+02
3.070121e+03,2.658456e+02
3.071085e+03,2.757736e+02
3.072049e+03,2.858371e+02
3.073014e+03,2.526582e+02
3.073978e+03,2.414673e+02
3.074942e+03,2.656564e+02
3.075906e+03,2.739995e+02
3.076871e+03,2.728119e+02
3.077835e+03,2.755370e+02
3.078799e+03,2.799959e+02
3.079763e+03,2.859826e+02
3.080728e+03,2.817384e+02
3.081692e+03,2.719703e+02
3.082656e+03,2.769267e+02
3.083620e+03,2.803784e+02
3.084584e+03,2.735755e+02
3.085549e+03,2.668373e+02
3.086513e+03,2.630320e+02
3.087477e+03,2.609608e+02
3.088441e+03,2.618077e+02
3.089406e+03,2.675158e+02
3.090370e+03,2.790329e+02
3.091334e+03,2.928510e+02
3.092298e+03,2.737451e+02
3.093262e+03,2.471379e+02
3.094227e+03,2.790192e+02
3.095191e+03,2.976803e+02
3.096155e+03,2.768586e+02
3.097119e+03,2.772325e+02
3.098084e+03,2.854272e+02
3.099048e+03,2.633280e+02
3.100012e+03,2.456507e+02
3.100976e+03,2.630216e+02
3.101941e+03,2.715152e+02
3.102905e+03,2.681805e+02
3.103869e+03,2.657527e+02
3.104833e+03,2.646660e+02
3.105798e+03,2.649548e+02
3.106762e+03,2.686275e+02
3.107726e+03,2.752972e+02
3.108690e+03,2.712567e+02
3.109655e+03,2.655700e+02
3.110619e+03,2.721377e+02
3.111583e+03,2.734449e+02
3.112547e+03,2.680923e+02
3.113511e+03,2.660907e+02
3.114476e+03,2.653575e+02
3.115440e+03,2.561640e+02
3.116404e+03,2.548694e+02
3.117368e+03,2.708880e+02
3.118333e+03,2.771791e+02
3.119297e+03,2.796454e+02
3.120261e+03,2.910894e+02
3.121225e+03,2.960302e+02
3.122189e+03,2.856193e+02
3.123154e+03,2.771500e+02
3.124118e+03,2.738576e+02
3.125082e+03,2.846599e+02
3.126046e+03,2.870929e+02
3.127011e+03,2.702431e+02
3.127975e+03,2.767491e+02
3.128939e+03,3.008893e+02
3.129903e+03,2.971837e+02
3.130868e+03,2.864263e+02
3.131832e+03,2.842697e+02
3.132796e+03,2.849259e+02
3.133760e+03,2.853607e+02
3.134725e+03,2.743423e+02
3.135689e+03,2.635356e+02
3.136653e+03,2.635898e+02
3.137617e+03,2.699812e+02
3.138582e+03,2.816556e+02
3.139546e+03,2.805989e+02
3.140510e+03,2.745580e+02
3.141474e+03,2.713441e+02
3.142438e+03,2.773188e+02
3.143403e+03,2.895675e+02
3.144367e+03,2.835697e+02
3.145331e+03,2.679393e+02
3.146295e+03,2.457972e+02
3.147260e+03,2.467601e+02
3.148224e+03,2.783946e+02
3.149188e+03,2.879904e+02
3.150152e+03,2.819170e+02
3.151116e+03,2.701369e+02
3.152081e+03,2.727964e+02
3.153045e+03,2.979542e+02
3.154009e+03,2.919598e+02
3.154973e+03,2.708833e+02
3.155938e+03,2.732692e+02
3.156902e+03,2.774832e+02
3.157866e+03,2.761382e+02
3.158830e+03,2.703411e+02
3.159795e+03,2.646707e+02
3.160759e+03,2.681964e+02
3.161723e+03,2.736195e+02
3.162687e+03,2.805546e+02
3.163652e+03,2.740555e+02
3.164616e+03,2.668081e+02
3.165580e+03,2.842255e+02
3.166544e+03,2.973757e+02
3.167509e+03,2.949243e+02
3.168473e+03,2.869027e+02
3.169437e+03,2.798023e+02
3.170401e+03,2.953094e+02
3.171365e+03,2.990198e+02
3.172330e+03,2.753446e+02
3.173294e+03,2.691662e+02
3.174258e+03,2.716609e+02
3.175222e+03,2.545773e+02
3.176187e+03,2.488370e+02
3.177151e+03,2.786243e+02
3.178115e+03,2.804881e+02
3.179079e+03,2.621928e+02
3.180043e+03,2.605624e+02
3.181008e+03,2.673277e+02
3.181972e+03,2.776393e+02
3.182936e+03,2.695962e+02
3.183900e+03,2.535745e+02
3.184865e+03,2.689663e+02
3.185829e+03,2.846534e+02
3.186793e+03,2.849534e+02
3.187757e+03,2.685619e+02
3.188722e+03,2.502651e+02
3.189686e+03,2.636778e+02
3.190650e+03,2.745169e+02
3.191614e+03,2.693869e+02
3.192579e+03,2.705094e+02
3.193543e+03,2.774880e+02
3.194507e+03,2.857546e+02
3.195471e+03,2.842830e+02
3.196436e+03,2.664851e+02
3.197400e+03,2.563907e+02
3.198364e+03,2.625816e+02
3.199328e+03,2.996249e+02
3.200292e+03,3.130280e+02
3.201257e+03,0.000000e+00
3.202221e+03,0.000000e+00
3.203185e+03,0.000000e+00
3.204149e+03,0.000000e+00
3.205114e+03,0.000000e+00
3.206078e+03,0.000000e+00
3.207042e+03,0.000000e+00
3.208006e+03,0.000000e+00
3.208970e+03,0.000000e+00
3.209935e+03,0.000000e+00
3.210899e+03,0.000000e+00
3.211863e+03,0.000000e+00
3.212827e+03,0.000000e+00
3.213792e+03,0.000000e+00
3.214756e+03,0.000000e+00
3.215720e+03,0.000000e+00
3.216684e+03,0.000000e+00
3.217649e+03,0.000000e+00
3.218613e+03,0.000000e+00
3.219577e+03,0.000000e+00
3.220541e+03,0.000000e+00
3.221506e+03,0.000000e+00
3.222470e+03,0.000000e+00
3.223434e+03,0.000000e+00
3.224398e+03,0.000000e+00
3.225363e+03,0.000000e+00
3.226327e+03,0.000000e+00
3.227291e+03,0.000000e+00
3.228255e+03,0.000000e+00
3.229219e+03,0.000000e+00
3.230184e+03,0.000000e+00
3.231148e+03,0.000000e+00
3.232112e+03,0.000000e+00
3.233076e+03,0.000000e+00
3.234041e+03,0.000000e+00
3.235005e+03,0.000000e+00
3.235969e+03,0.000000e+00
3.236933e+03,0.000000e+00
3.237897e+03,0.000000e+00
3.238862e+03,0.000000e+00
3.239826e+03,0.000000e+00
3.240790e+03,0.000000e+00
3.241754e+03,0.000000e+00
3.242719e+03,0.000000e+00
3.243683e+03,0.000000e+00
3.244647e+03,0.000000e+00
3.245611e+03,0.000000e+00
3.246576e+03,0.000000e+00
3.247540e+03,0.000000e+00
3.248504e+03,0.000000e+00
3.249468e+03,0.000000e+00
3.250433e+03,0.000000e+00
3.251397e+03,0.000000e+00
3.252361e+03,0.000000e+00
3.253325e+03,0.000000e+00
3.254290e+03,0.000000e+00
3.255254e+03,0.000000e+00
3.256218e+03,0.000000e+00
3.257182e+03,0.000000e+00
3.258146e+03,0.000000e+00
3.259111e+03,0.000000e+00
3.260075e+03,0.000000e+00
3.261039e+03,0.000000e+00
3.262003e+03,0.000000e+00
3.262968e+03,0.000000e+00
3.263932e+03,0.000000e+00
3.264896e+03,0.000000e+00
3.265860e+03,0.000000e+00
3.266824e+03,0.000000e+00
3.267789e+03,0.000000e+00
3.268753e+03,0.000000e+00
3.269717e+03,0.000000e+00
3.270681e+03,0.000000e+00
3.271646e+03,0.000000e+00
3.272610e+03,0.000000e+00
3.273574e+03,0.000000e+00
3.274538e+03,0.000000e+00
3.275503e+03,0.000000e+00
3.276467e+03,0.000000e+00
3.277431e+03,0.000000e+00
3.278395e+03,0.000000e+00
3.279360e+03,0.000000e+00
3.280324e+03,0.000000e+00
3.281288e+03,0.000000e+00
3.282252e+03,0.000000e+00
3.283217e+03,0.000000e+00
3.284181e+03,0.000000e+00
3.285145e+03,0.000000e+00
3.286109e+03,0.000000e+00
3.287073e+03,0.000000e+00
3.288038e+03,0.000000e+00
3.289002e+03,0.000000e+00
3.289966e+03,0.000000e+00
3.290930e+03,0.000000e+00
3.291895e+03,0.000000e+00
3.292859e+03,0.000000e+00
3.293823e+03,0.000000e+00
3.294787e+03,0.000000e+00
3.295751e+03,0.000000e+00
3.296716e+03,0.000000e+00
3.297680e+03,0.000000e+00
3.298644e+03,0.000000e+00
3.299608e+03,0.000000e+00
3.300573e+03,0.000000e+00
3.301537e+03,0.000000e+00
3.302501e+03,0.000000e+00
3.303465e+03,0.000000e+00
3.304430e+03,0.000000e+00
3.305394e+03,0.000000e+00
3.306358e+03,0.000000e+00
3.307322e+03,0.000000e+00
3.308287e+03,0.000000e+00
3.309251e+03,0.000000e+00
3.310215e+03,0.000000e+00
3.311179e+03,0.000000e+00
3.312144e+03,0.000000e+00
3.313108e+03,0.000000e+00
3.314072e+03,0.000000e+00
3.315036e+03,0.000000e+00
3.316000e+03,0.000000e+00
3.316965e+03,0.000000e+00
3.317929e+03,0.000000e+00
3.318893e+03,0.000000e+00
3.319857e+03,0.000000e+00
3.320822e+03,0.000000e+00
3.321786e+03,0.000000e+00
3.322750e+03,0.000000e+00
3.323714e+03,0.000000e+00
3.324678e+03,0.000000e+00
3.325643e+03,0.000000e+00
3.326607e+03,0.000000e+00
3.327571e+03,0.000000e+00
3.328535e+03,0.000000e+00
3.329500e+03,0.000000e+00
3.330464e+03,0.000000e+00
3.331428e+03,0.000000e+00
3.332392e+03,0.000000e+00
3.333357e+03,0.000000e+00
3.334321e+03,0.000000e+00
3.335285e+03,0.000000e+00
3.336249e+03,0.000000e+00
3.337214e+03,0.000000e+00
3.338178e+03,0.000000e+00
3.339142e+03,0.000000e+00
3.340106e+03,0.000000e+00
3.341071e+03,0.000000e+00
3.342035e+03,0.000000e+00
3.342999e+03,0.000000e+00
3.343963e+03,0.000000e+00
3.344927e+03,0.000000e+00
3.345892e+03,0.000000e+00
3.346856e+03,0.000000e+00
3.347820e+03,0.000000e+00
3.348784e+03,0.000000e+00
3.349749e+03,0.000000e+00
3.350713e+03,0.000000e+00
3.351677e+03,0.000000e+00
3.352641e+03,0.000000e+00
3.353605e+03,0.000000e+00
3.354570e+03,0.000000e+00
3.355534e+03,0.000000e+00
3.356498e+03,0.000000e+00
3.357462e+03,0.000000e+00
3.358427e+03,0.000000e+00
3.359391e+03,0.000000e+00
3.360355e+03,0.000000e+00
3.361319e+03,0.000000e+00
3.362284e+03,0.000000e+00
3.363248e+03,0.000000e+00
3.364212e+03,0.000000e+00
3.365176e+03,0.000000e+00
3.366141e+03,0.000000e+00
3.367105e+03,0.000000e+00
3.368069e+03,0.000000e+00
3.369033e+03,0.000000e+00
3.369998e+03,0.000000e+00
3.370962e+03,0.000000e+00
3.371926e+03,0.000000e+00
3.372890e+03,0.000000e+00
3.373854e+03,0.000000e+00
3.374819e+03,0.000000e+00
3.375783e+03,0.000000e+00
3.376747e+03,0.000000e+00
3.377711e+03,0.000000e+00
3.378676e+03,0.000000e+00
3.379640e+03,0.000000e+00
3.380604e+03,0.000000e+00
3.381568e+03,0.000000e+00
3.382532e+03,0.000000e+00
3.383497e+03,0.000000e+00
3.384461e+03,0.000000e+00
3.385425e+03,0.000000e+00
3.386389e+03,0.000000e+00
3.387354e+03,0.000000e+00
3.388318e+03,0.000000e+00
3.389282e+03,0.000000e+00
3.390246e+03,0.000000e+00
3.391211e+03,0.000000e+00
3.392175e+03,0.000000e+00
3.393139e+03,0.000000e+00
3.394103e+03,0.000000e+00
3.395068e+03,0.000000e+00
3.396032e+03,0.000000e+00
3.396996e+03,0.000000e+00
3.397960e+03,0.000000e+00
3.398925e+03,0.000000e+00
3.399889e+03,0.000000e+00
3.400853e+03,0.000000e+00
3.401817e+03,0.000000e+00
3.402781e+03,0.000000e+00
3.403746e+03,0.000000e+00
3.404710e+03,0.000000e+00
3.405674e+03,0.000000e+00
3.406638e+03,0.000000e+00
3.407603e+03,0.000000e+00
3.408567e+03,0.000000e+00
3.409531e+03,0.000000e+00
3.410495e+03,0.000000e+00
3.411459e+03,0.000000e+00
3.412424e+03,0.000000e+00
3.413388e+03,0.000000e+00
3.414352e+03,0.000000e+00
3.415316e+03,0.000000e+00
3.416281e+03,0.000000e+00
3.417245e+03,0.000000e+00
3.418209e+03,0.000000e+00
3.419173e+03,0.000000e+00
3.420138e+03,0.000000e+00
3.421102e+03,0.000000e+00
3.422066e+03,0.000000e+00
3.423030e+03,0.000000e+00
3.423995e+03,0.000000e+00
3.424959e+03,0.000000e+00
3.425923e+03,0.000000e+00
3.426887e+03,0.000000e+00
3.427852e+03,0.000000e+00
3.428816e+03,0.000000e+00
3.429780e+03,0.000000e+00
3.430744e+03,0.000000e+00
3.431708e+03,0.000000e+00
3.432673e+03,0.000000e+00
3.433637e+03,0.000000e+00
3.434601e+03,0.000000e+00
3.435565e+03,0.000000e+00
3.436530e+03,0.000000e+00
3.437494e+03,0.000000e+00
3.438458e+03,0.000000e+00
3.439422e+03,0.000000e+00
3.440386e+03,0.000000e+00
3.441351e+03,0.000000e+00
3.442315e+03,0.000000e+00
3.443279e+03,0.000000e+00
3.444243e+03,0.000000e+00
3.445208e+03,0.000000e+00
3.446172e+03,0.000000e+00
3.447136e+03,0.000000e+00
3.448100e+03,0.000000e+00
3.449065e+03,0.000000e+00
3.450029e+03,0.000000e+00
3.450993e+03,0.000000e+00
3.451957e+03,0.000000e+00
3.452922e+03,0.000000e+00
3.453886e+03,0.000000e+00
3.454850e+03,0.000000e+00
3.455814e+03,0.000000e+00
3.456779e+03,0.000000e+00
3.457743e+03,0.000000e+00
3.458707e+03,0.000000e+00
3.459671e+03,0.000000e+00
3.460635e+03,0.000000e+00
3.461600e+03,0.000000e+00
3.462564e+03,0.000000e+00
3.463528e+03,0.000000e+00
3.464492e+03,0.000000e+00
3.465457e+03,0.000000e+00
3.466421e+03,0.000000e+00
3.467385e+03,0.000000e+00
3.468349e+03,0.000000e+00
3.469313e+03,0.000000e+00
3.470278e+03,0.000000e+00
3.471242e+03,0.000000e+00
3.472206e+03,0.000000e+00
3.473170e+03,0.000000e+00
3.474135e+03,0.000000e+00
3.475099e+03,0.000000e+00
3.476063e+03,0.000000e+00
3.477027e+03,0.000000e+00
3.477992e+03,0.000000e+00
3.478956e+03,0.000000e+00
3.479920e+03,0.000000e+00
3.480884e+03,0.000000e+00
3.481849e+03,0.000000e+00
3.482813e+03,0.000000e+00
3.483777e+03,0.000000e+00
3.484741e+03,0.000000e+00
3.485706e+03,0.000000e+00
3.486670e+03,0.000000e+00
3.487634e+03,0.000000e+00
3.488598e+03,0.000000e+00
3.489563e+03,0.000000e+00
3.490527e+03,0.000000e+00
3.491491e+03,0.000000e+00
3.492455e+03,0.000000e+00
3.493419e+03,0.000000e+00
3.494384e+03,0.000000e+00
3.495348e+03,0.000000e+00
3.496312e+03,0.000000e+00
3.497276e+03,0.000000e+00
3.498240e+03,0.000000e+00
3.499205e+03,0.000000e+00
3.500169e+03,0.000000e+00
