9.931763e+01,0.000000e+00
1.002819e+02,0.000000e+00
1.012461e+02,0.000000e+00
1.022103e+02,0.000000e+00
1.031746e+02,0.000000e+00
1.041388e+02,0.000000e+00
1.051030e+02,0.000000e+00
1.060673e+02,0.000000e+00
1.070315e+02,0.000000e+00
1.079957e+02,0.000000e+00
1.089600e+02,0.000000e+00
1.099242e+02,0.000000e+00
1.108884e+02,0.000000e+00
1.118527e+02,0.000000e+00
1.128169e+02,0.000000e+00
1.137811e+02,0.000000e+00
1.147454e+02,0.000000e+00
1.157096e+02,0.000000e+00
1.166738e+02,0.000000e+00
1.176381e+02,0.000000e+00
1.186023e+02,0.000000e+00
1.195665e+02,0.000000e+00
1.205308e+02,0.000000e+00
1.214950e+02,0.000000e+00
1.224592e+02,0.000000e+00
1.234235e+02,0.000000e+00
1.243877e+02,0.000000e+00
1.253519e+02,0.000000e+00
1.263162e+02,0.000000e+00
1.272804e+02,0.000000e+00
1.282446e+02,0.000000e+00
1.292089e+02,0.000000e+00
1.301731e+02,0.000000e+00
1.311373e+02,0.000000e+00
1.321016e+02,0.000000e+00
1.330658e+02,0.000000e+00
1.340300e+02,0.000000e+00
1.349943e+02,0.000000e+00
1.359585e+02,0.000000e+00
1.369227e+02,0.000000e+00
1.378870e+02,0.000000e+00
1.388512e+02,0.000000e+00
1.398154e+02,0.000000e+00
1.407797e+02,0.000000e+00
1.417439e+02,0.000000e+00
1.427081e+02,0.000000e+00
1.436724e+02,0.000000e+00
1.446366e+02,0.000000e+00
1.456008e+02,0.000000e+00
1.465651e+02,0.000000e+00
1.475293e+02,0.000000e+00
1.484935e+02,0.000000e+00
1.494578e+02,0.000000e+00
1.504220e+02,0.000000e+00
1.513862e+02,0.000000e+00
1.523505e+02,0.000000e+00
1.533147e+02,0.000000e+00
1.542789e+02,0.000000e+00
1.552432e+02,0.000000e+00
1.562074e+02,0.000000e+00
1.571716e+02,0.000000e+00
1.581359e+02,0.000000e+00
1.591001e+02,0.000000e+00
1.600643e+02,0.000000e+00
1.610286e+02,0.000000e+00
1.619928e+02,0.000000e+00
1.629570e+02,0.000000e+00
1.639213e+02,0.000000e+00
1.648855e+02,0.000000e+00
1.658497e+02,0.000000e+00
1.668140e+02,0.000000e+00
1.677782e+02,0.000000e+00
1.687424e+02,0.000000e+00
1.697067e+02,0.000000e+00
1.706709e+02,0.000000e+00
1.716351e+02,0.000000e+00
1.725994e+02,0.000000e+00
1.735636e+02,0.000000e+00
1.745278e+02,0.000000e+00
1.754921e+02,0.000000e+00
1.764563e+02,0.000000e+00
1.774205e+02,0.000000e+00
1.783848e+02,0.000000e+00
1.793490e+02,0.000000e+00
1.803132e+02,0.000000e+00
1.812775e+02,0.000000e+00
1.822417e+02,0.000000e+00
1.832059e+02,0.000000e+00
1.841702e+02,0.000000e+00
1.851344e+02,0.000000e+00
1.860986e+02,0.000000e+00
1.870629e+02,0.000000e+00
1.880271e+02,0.000000e+00
1.889913e+02,0.000000e+00
1.899556e+02,0.000000e+00
1.909198e+02,0.000000e+00
1.918840e+02,0.000000e+00
1.928483e+02,0.000000e+00
1.938125e+02,0.000000e+00
1.947767e+02,0.000000e+00
1.957410e+02,0.000000e+00
1.967052e+02,0.000000e+00
1.976694e+02,0.000000e+00
1.986337e+02,0.000000e+00
1.995979e+02,2.862647e+03
2.005621e+02,2.864029e+03
2.015264e+02,2.866138e+03
2.024906e+02,2.869340e+03
2.034548e+02,2.872941e+03
2.044191e+02,2.876962e+03
2.053833e+02,2.880512e+03
2.063475e+02,2.882308e+03
2.073118e+02,2.880911e+03
2.082760e+02,2.875270e+03
2.092402e+02,2.869651e+03
2.102045e+02,2.864296e+03
2.111687e+02,2.860969e+03
2.121329e+02,2.860841e+03
2.130972e+02,2.864143e+03
2.140614e+02,2.869414e+03
2.150256e+02,2.874555e+03
2.159899e+02,2.881069e+03
2.169541e+02,2.885696e+03
2.179183e+02,2.885888e+03
2.188826e+02,2.882775e+03
2.198468e+02,2.881507e+03
2.208110e+02,2.887782e+03
2.217753e+02,2.900907e+03
2.227395e+02,2.909249e+03
2.237037e+02,2.909598e+03
2.246680e+02,2.906646e+03
2.256322e+02,2.904124e+03
2.265964e+02,2.903710e+03
2.275607e+02,2.904573e+03
2.285249e+02,2.905267e+03
2.294892e+02,2.905580e+03
2.304534e+02,2.907156e+03
2.314176e+02,2.910787e+03
2.323819e+02,2.915398e+03
2.333461e+02,2.918418e+03
2.343103e+02,2.918243e+03
2.352746e+02,2.916772e+03
2.362388e+02,2.917229e+03
2.372030e+02,2.920433e+03
2.381673e+02,2.923238e+03
2.391315e+02,2.921656e+03
2.400957e+02,2.914528e+03
2.410600e+02,2.907796e+03
2.420242e+02,2.904306e+03
2.429884e+02,2.904304e+03
2.439527e+02,2.906601e+03
2.449169e+02,2.909696e+03
2.458811e+02,2.913130e+03
2.468454e+02,2.916644e+03
2.478096e+02,2.920930e+03
2.487738e+02,2.924941e+03
2.497381e+02,2.927409e+03
2.507023e+02,2.928228e+03
2.516665e+02,2.928900e+03
2.526308e+02,2.931584e+03
2.535950e+02,2.936494e+03
2.545592e+02,2.940840e+03
2.555235e+02,2.947778e+03
2.564877e+02,2.954223e+03
2.574519e+02,2.955860e+03
2.584161e+02,2.949448e+03
2.593804e+02,2.936761e+03
2.603446e+02,2.932134e+03
2.613088e+02,2.942935e+03
2.622731e+02,2.954464e+03
2.632373e+02,2.963386e+03
2.642015e+02,2.968636e+03
2.651658e+02,2.970525e+03
2.661300e+02,2.969381e+03
2.670942e+02,2.965473e+03
2.680585e+02,2.962613e+03
2.690227e+02,2.963459e+03
2.699869e+02,2.964397e+03
2.709512e+02,2.962169e+03
2.719154e+02,2.955257e+03
2.728796e+02,2.947629e+03
2.738439e+02,2.945073e+03
2.748081e+02,2.949364e+03
2.757723e+02,2.955945e+03
2.767366e+02,2.959336e+03
2.777008e+02,2.959250e+03
2.786650e+02,2.959540e+03
2.796293e+02,2.963848e+03
2.805935e+02,2.970194e+03
2.815577e+02,2.973805e+03
2.825220e+02,2.972684e+03
2.834862e+02,2.969361e+03
2.844504e+02,2.969290e+03
2.854147e+02,2.977000e+03
2.863789e+02,2.982219e+03
2.873431e+02,2.980653e+03
2.883074e+02,2.975344e+03
2.892716e+02,2.972062e+03
2.902358e+02,2.974043e+03
2.912001e+02,2.980941e+03
2.921643e+02,2.982570e+03
2.931285e+02,2.972684e+03
2.940928e+02,2.964914e+03
2.950570e+02,2.966468e+03
2.960212e+02,2.976238e+03
2.969855e+02,2.987375e+03
2.979497e+02,2.992781e+03
2.989139e+02,2.991343e+03
2.998782e+02,2.988301e+03
3.008424e+02,2.982509e+03
3.018066e+02,2.977817e+03
3.027709e+02,2.976574e+03
3.037351e+02,2.979698e+03
3.046993e+02,2.984516e+03
3.056636e+02,2.986740e+03
3.066278e+02,2.986037e+03
3.075920e+02,2.984936e+03
3.085563e+02,2.984662e+03
3.095205e+02,2.985432e+03
3.104847e+02,2.986319e+03
3.114490e+02,2.985708e+03
3.124132e+02,2.983860e+03
3.133774e+02,2.981467e+03
3.143417e+02,2.977545e+03
3.153059e+02,2.974239e+03
3.162701e+02,2.976711e+03
3.172344e+02,2.988659e+03
3.181986e+02,2.998529e+03
3.191628e+02,3.002677e+03
3.201271e+02,3.002600e+03
3.210913e+02,3.000180e+03
3.220555e+02,2.995385e+03
3.230198e+02,2.988834e+03
3.239840e+02,2.986204e+03
3.249482e+02,2.990524e+03
3.259125e+02,2.995072e+03
3.268767e+02,2.998138e+03
3.278409e+02,2.999878e+03
3.288052e+02,3.001055e+03
3.297694e+02,3.002286e+03
3.307336e+02,3.003634e+03
3.316979e+02,3.004271e+03
3.326621e+02,3.003382e+03
3.336263e+02,3.001662e+03
3.345906e+02,2.999574e+03
3.355548e+02,2.998056e+03
3.365190e+02,2.997997e+03
3.374833e+02,2.999860e+03
3.384475e+02,3.003489e+03
3.394117e+02,3.008228e+03
3.403760e+02,3.014728e+03
3.413402e+02,3.021014e+03
3.423044e+02,3.023929e+03
3.432687e+02,3.018385e+03
3.442329e+02,3.011737e+03
3.451971e+02,3.011339e+03
3.461614e+02,3.016588e+03
3.471256e+02,3.020626e+03
3.480898e+02,3.018539e+03
3.490541e+02,3.008551e+03
3.500183e+02,3.001407e+03
3.509825e+02,2.998347e+03
3.519468e+02,2.998793e+03
3.529110e+02,3.002427e+03
3.538752e+02,3.008494e+03
3.548395e+02,3.015068e+03
3.558037e+02,3.019721e+03
3.567680e+02,3.022030e+03
3.577322e+02,3.023086e+03
3.586964e+02,3.023521e+03
3.596607e+02,3.024094e+03
3.606249e+02,3.024697e+03
3.615891e+02,3.023898e+03
3.625534e+02,3.021435e+03
3.635176e+02,3.018857e+03
3.644818e+02,3.017042e+03
3.654461e+02,3.016258e+03
3.664103e+02,3.019025e+03
3.673745e+02,3.025915e+03
3.683388e+02,3.032151e+03
3.693030e+02,3.034205e+03
3.702672e+02,3.033059e+03
3.712315e+02,3.030115e+03
3.721957e+02,3.024985e+03
3.731599e+02,3.019447e+03
3.741242e+02,3.017340e+03
3.750884e+02,3.023517e+03
3.760526e+02,3.030268e+03
3.770169e+02,3.039415e+03
3.779811e+02,3.047548e+03
3.789453e+02,3.049958e+03
3.799096e+02,3.043689e+03
3.808738e+02,3.030742e+03
3.818380e+02,3.019261e+03
3.828023e+02,3.009448e+03
3.837665e+02,3.004037e+03
3.847307e+02,3.004528e+03
3.856950e+02,3.009287e+03
3.866592e+02,3.014436e+03
3.876234e+02,3.017777e+03
3.885877e+02,3.019622e+03
3.895519e+02,3.020938e+03
3.905161e+02,3.021240e+03
3.914804e+02,3.021012e+03
3.924446e+02,3.021224e+03
3.934088e+02,3.022657e+03
3.943731e+02,3.024297e+03
3.953373e+02,3.026281e+03
3.963015e+02,3.027975e+03
3.972658e+02,3.028469e+03
3.982300e+02,3.027761e+03
3.991942e+02,3.027043e+03
4.001585e+02,3.027094e+03
4.011227e+02,3.025188e+03
4.020869e+02,3.025075e+03
4.030512e+02,3.026937e+03
4.040154e+02,3.029681e+03
4.049796e+02,3.032831e+03
4.059439e+02,3.036949e+03
4.069081e+02,3.041033e+03
4.078723e+02,3.041102e+03
4.088366e+02,3.034567e+03
4.098008e+02,3.026195e+03
4.107650e+02,3.019758e+03
4.117293e+02,3.015457e+03
4.126935e+02,3.014208e+03
4.136577e+02,3.019516e+03
4.146220e+02,3.027110e+03
4.155862e+02,3.030167e+03
4.165504e+02,3.027005e+03
4.175147e+02,3.021381e+03
4.184789e+02,3.019057e+03
4.194431e+02,3.024003e+03
4.204074e+02,3.027369e+03
4.213716e+02,3.027673e+03
4.223358e+02,3.026765e+03
4.233001e+02,3.026810e+03
4.242643e+02,3.029217e+03
4.252285e+02,3.032937e+03
4.261928e+02,3.035256e+03
4.271570e+02,3.036429e+03
4.281212e+02,3.036270e+03
4.290855e+02,3.032158e+03
4.300497e+02,3.025858e+03
4.310139e+02,3.022033e+03
4.319782e+02,3.024896e+03
4.329424e+02,3.030390e+03
4.339066e+02,3.033506e+03
4.348709e+02,3.033465e+03
4.358351e+02,3.031621e+03
4.367993e+02,3.029159e+03
4.377636e+02,3.025425e+03
4.387278e+02,3.023520e+03
4.396920e+02,3.026207e+03
4.406563e+02,3.029622e+03
4.416205e+02,3.030626e+03
4.425847e+02,3.028283e+03
4.435490e+02,3.024156e+03
4.445132e+02,3.019703e+03
4.454774e+02,3.014584e+03
4.464417e+02,3.013310e+03
4.474059e+02,3.020425e+03
4.483701e+02,3.029720e+03
4.493344e+02,3.033980e+03
4.502986e+02,3.029840e+03
4.512628e+02,3.023837e+03
4.522271e+02,3.018667e+03
4.531913e+02,3.014800e+03
4.541555e+02,3.014766e+03
4.551198e+02,3.021043e+03
4.560840e+02,3.033796e+03
4.570482e+02,3.039942e+03
4.580125e+02,3.035431e+03
4.589767e+02,3.031071e+03
4.599409e+02,3.030259e+03
4.609052e+02,3.031579e+03
4.618694e+02,3.031434e+03
4.628336e+02,3.025493e+03
4.637979e+02,3.014930e+03
4.647621e+02,3.009647e+03
4.657263e+02,3.013546e+03
4.666906e+02,3.021061e+03
4.676548e+02,3.025581e+03
4.686190e+02,3.026450e+03
4.695833e+02,3.025240e+03
4.705475e+02,3.019143e+03
4.715117e+02,3.011616e+03
4.724760e+02,3.008710e+03
4.734402e+02,3.012919e+03
4.744044e+02,3.021055e+03
4.753687e+02,3.025082e+03
4.763329e+02,3.020248e+03
4.772971e+02,3.018824e+03
4.782614e+02,3.024662e+03
4.792256e+02,3.034257e+03
4.801898e+02,3.042876e+03
4.811541e+02,3.047061e+03
4.821183e+02,3.049791e+03
4.830826e+02,3.055976e+03
4.840468e+02,3.065591e+03
4.850110e+02,3.074586e+03
4.859753e+02,3.080995e+03
4.869395e+02,3.084443e+03
4.879037e+02,3.087175e+03
4.888680e+02,3.091585e+03
4.898322e+02,3.094076e+03
4.907964e+02,3.092567e+03
4.917607e+02,3.087358e+03
4.927249e+02,3.080135e+03
4.936891e+02,3.072041e+03
4.946534e+02,3.062957e+03
4.956176e+02,3.052749e+03
4.965818e+02,3.038016e+03
4.975461e+02,3.025921e+03
4.985103e+02,3.022954e+03
4.994745e+02,3.031271e+03
5.004388e+02,3.036963e+03
5.014030e+02,3.032406e+03
5.023672e+02,3.022659e+03
5.033315e+02,3.015666e+03
5.042957e+02,3.013770e+03
5.052599e+02,3.014809e+03
5.062242e+02,3.014956e+03
5.071884e+02,3.013714e+03
5.081526e+02,3.013642e+03
5.091169e+02,3.017107e+03
5.100811e+02,3.021921e+03
5.110453e+02,3.024743e+03
5.120095e+02,3.023417e+03
5.129738e+02,3.021390e+03
5.139380e+02,3.024188e+03
5.149022e+02,3.031795e+03
5.158665e+02,3.037074e+03
5.168307e+02,3.034509e+03
5.177949e+02,3.022841e+03
5.187592e+02,3.012570e+03
5.197234e+02,3.007840e+03
5.206876e+02,3.004961e+03
5.216519e+02,3.002189e+03
5.226161e+02,3.000052e+03
5.235803e+02,2.999845e+03
5.245446e+02,3.004593e+03
5.255088e+02,3.013003e+03
5.264730e+02,3.015220e+03
5.274373e+02,3.008095e+03
5.284015e+02,2.999787e+03
5.293657e+02,2.998072e+03
5.303300e+02,3.004201e+03
5.312942e+02,3.006295e+03
5.322584e+02,3.000648e+03
5.332227e+02,2.992903e+03
5.341869e+02,2.986316e+03
5.351511e+02,2.981268e+03
5.361154e+02,2.979041e+03
5.370796e+02,2.983775e+03
5.380438e+02,2.998992e+03
5.390081e+02,3.008588e+03
5.399723e+02,3.007684e+03
5.409365e+02,3.002308e+03
5.419008e+02,2.996656e+03
5.428650e+02,2.988375e+03
5.438292e+02,2.982927e+03
5.447935e+02,2.986758e+03
5.457577e+02,2.995640e+03
5.467219e+02,3.000319e+03
5.476862e+02,2.996678e+03
5.486504e+02,2.987633e+03
5.496146e+02,2.982167e+03
5.505789e+02,2.982278e+03
5.515431e+02,2.982714e+03
5.525073e+02,2.983748e+03
5.534716e+02,2.986019e+03
5.544358e+02,2.988874e+03
5.554000e+02,2.990629e+03
5.563643e+02,2.992043e+03
5.573285e+02,2.994300e+03
5.582927e+02,2.996882e+03
5.592570e+02,2.998542e+03
5.602212e+02,2.998994e+03
5.611854e+02,2.997988e+03
5.621497e+02,2.995819e+03
5.631139e+02,2.988230e+03
5.640781e+02,2.981997e+03
5.650424e+02,2.982083e+03
5.660066e+02,2.986913e+03
5.669708e+02,2.989965e+03
5.679351e+02,2.986021e+03
5.688993e+02,2.978962e+03
5.698635e+02,2.975560e+03
5.708278e+02,2.976705e+03
5.717920e+02,2.980214e+03
5.727562e+02,2.983625e+03
5.737205e+02,2.986285e+03
5.746847e+02,2.988424e+03
5.756489e+02,2.990050e+03
5.766132e+02,2.990467e+03
5.775774e+02,2.989047e+03
5.785416e+02,2.985973e+03
5.795059e+02,2.983225e+03
5.804701e+02,2.983114e+03
5.814343e+02,2.984651e+03
5.823986e+02,2.984290e+03
5.833628e+02,2.981081e+03
5.843270e+02,2.977660e+03
5.852913e+02,2.977503e+03
5.862555e+02,2.985374e+03
5.872197e+02,2.989273e+03
5.881840e+02,2.986561e+03
5.891482e+02,2.980989e+03
5.901124e+02,2.975047e+03
5.910767e+02,2.969155e+03
5.920409e+02,2.964876e+03
5.930051e+02,2.963694e+03
5.939694e+02,2.965154e+03
5.949336e+02,2.968798e+03
5.958978e+02,2.975778e+03
5.968621e+02,2.983246e+03
5.978263e+02,2.984844e+03
5.987905e+02,2.973062e+03
5.997548e+02,2.965065e+03
6.007190e+02,2.963610e+03
6.016832e+02,2.966696e+03
6.026475e+02,2.971871e+03
6.036117e+02,2.978964e+03
6.045759e+02,2.984868e+03
6.055402e+02,2.985177e+03
6.065044e+02,2.979995e+03
6.074686e+02,2.973532e+03
6.084329e+02,2.967777e+03
6.093971e+02,2.963185e+03
6.103613e+02,2.960566e+03
6.113256e+02,2.963201e+03
6.122899e+02,2.964638e+03
6.132541e+02,2.962971e+03
6.142183e+02,2.959343e+03
6.151826e+02,2.955969e+03
6.161468e+02,2.954734e+03
6.171110e+02,2.954930e+03
6.180753e+02,2.954840e+03
6.190395e+02,2.954309e+03
6.200037e+02,2.954643e+03
6.209680e+02,2.956965e+03
6.219322e+02,2.961455e+03
6.228964e+02,2.963349e+03
6.238607e+02,2.959270e+03
6.248249e+02,2.955589e+03
6.257891e+02,2.953191e+03
6.267534e+02,2.951376e+03
6.277176e+02,2.949959e+03
6.286818e+02,2.951017e+03
6.296461e+02,2.952841e+03
6.306103e+02,2.952656e+03
6.315745e+02,2.950823e+03
6.325388e+02,2.949989e+03
6.335030e+02,2.952279e+03
6.344672e+02,2.957448e+03
6.354315e+02,2.958813e+03
6.363957e+02,2.952997e+03
6.373599e+02,2.945617e+03
6.383242e+02,2.939524e+03
6.392884e+02,2.935123e+03
6.402526e+02,2.932726e+03
6.412169e+02,2.934388e+03
6.421811e+02,2.936677e+03
6.431453e+02,2.936045e+03
6.441096e+02,2.932499e+03
6.450738e+02,2.928520e+03
6.460380e+02,2.926305e+03
6.470023e+02,2.926461e+03
6.479665e+02,2.930386e+03
6.489307e+02,2.940048e+03
6.498950e+02,2.949074e+03
6.508592e+02,2.950921e+03
6.518234e+02,2.944555e+03
6.527877e+02,2.939895e+03
6.537519e+02,2.943218e+03
6.547161e+02,2.945840e+03
6.556804e+02,2.939405e+03
6.566446e+02,2.924235e+03
6.576088e+02,2.909085e+03
6.585731e+02,2.902070e+03
6.595373e+02,2.902168e+03
6.605015e+02,2.903776e+03
6.614658e+02,2.906926e+03
6.624300e+02,2.910323e+03
6.633942e+02,2.912877e+03
6.643585e+02,2.914744e+03
6.653227e+02,2.914689e+03
6.662869e+02,2.909399e+03
6.672512e+02,2.903875e+03
6.682154e+02,2.901578e+03
6.691796e+02,2.902591e+03
6.701439e+02,2.904103e+03
6.711081e+02,2.904047e+03
6.720723e+02,2.903241e+03
6.730366e+02,2.904042e+03
6.740008e+02,2.907248e+03
6.749650e+02,2.910766e+03
6.759293e+02,2.912280e+03
6.768935e+02,2.912053e+03
6.778577e+02,2.910225e+03
6.788220e+02,2.905598e+03
6.797862e+02,2.901929e+03
6.807504e+02,2.900832e+03
6.817147e+02,2.902036e+03
6.826789e+02,2.902920e+03
6.836431e+02,2.903360e+03
6.846074e+02,2.901428e+03
6.855716e+02,2.894541e+03
6.865358e+02,2.883043e+03
6.875001e+02,2.871558e+03
6.884643e+02,2.864797e+03
6.894285e+02,2.862864e+03
6.903928e+02,2.864450e+03
6.913570e+02,2.870764e+03
6.923212e+02,2.877625e+03
6.932855e+02,2.880905e+03
6.942497e+02,2.879929e+03
6.952139e+02,2.879059e+03
6.961782e+02,2.875075e+03
6.971424e+02,2.872691e+03
6.981066e+02,2.876434e+03
6.990709e+02,2.886036e+03
7.000351e+02,2.892947e+03
7.009993e+02,2.890289e+03
7.019636e+02,2.882493e+03
7.029278e+02,2.877962e+03
7.038920e+02,2.878060e+03
7.048563e+02,2.878697e+03
7.058205e+02,2.875066e+03
7.067847e+02,2.866279e+03
7.077490e+02,2.860404e+03
7.087132e+02,2.860378e+03
7.096774e+02,2.863665e+03
7.106417e+02,2.865750e+03
7.116059e+02,2.865586e+03
7.125701e+02,2.865909e+03
7.135344e+02,2.870652e+03
7.144986e+02,2.875384e+03
7.154628e+02,2.873994e+03
7.164271e+02,2.865662e+03
7.173913e+02,2.857077e+03
7.183555e+02,2.855122e+03
7.193198e+02,2.858658e+03
7.202840e+02,2.863657e+03
7.212482e+02,2.871001e+03
7.222125e+02,2.876554e+03
7.231767e+02,2.874583e+03
7.241409e+02,2.859174e+03
7.251052e+02,2.850449e+03
7.260694e+02,2.854815e+03
7.270336e+02,2.860458e+03
7.279979e+02,2.861336e+03
7.289621e+02,2.856690e+03
7.299263e+02,2.852147e+03
7.308906e+02,2.850314e+03
7.318548e+02,2.849105e+03
7.328190e+02,2.846489e+03
7.337833e+02,2.842351e+03
7.347475e+02,2.837937e+03
7.357117e+02,2.834752e+03
7.366760e+02,2.833267e+03
7.376402e+02,2.833802e+03
7.386044e+02,2.837396e+03
7.395687e+02,2.840562e+03
7.405329e+02,2.839739e+03
7.414971e+02,2.833812e+03
7.424614e+02,2.827719e+03
7.434256e+02,2.819753e+03
7.443898e+02,2.815987e+03
7.453541e+02,2.819965e+03
7.463183e+02,2.829548e+03
7.472825e+02,2.837066e+03
7.482468e+02,2.839292e+03
7.492110e+02,2.838003e+03
7.501752e+02,2.836214e+03
7.511395e+02,2.834933e+03
7.521037e+02,2.832437e+03
7.530679e+02,2.824564e+03
7.540322e+02,2.811868e+03
7.549964e+02,2.804293e+03
7.559606e+02,2.803072e+03
7.569249e+02,2.805183e+03
7.578891e+02,2.809531e+03
7.588533e+02,2.816622e+03
7.598176e+02,2.822774e+03
7.607818e+02,2.827540e+03
7.617460e+02,2.827270e+03
7.627103e+02,2.817750e+03
7.636745e+02,2.803605e+03
7.646387e+02,2.795758e+03
7.656030e+02,2.804266e+03
7.665672e+02,2.816079e+03
7.675314e+02,2.818990e+03
7.684957e+02,2.813012e+03
7.694599e+02,2.804051e+03
7.704241e+02,2.796544e+03
7.713884e+02,2.791645e+03
7.723526e+02,2.790436e+03
7.733168e+02,2.793820e+03
7.742811e+02,2.799336e+03
7.752453e+02,2.805534e+03
7.762095e+02,2.810644e+03
7.771738e+02,2.809884e+03
7.781380e+02,2.794029e+03
7.791022e+02,2.781676e+03
7.800665e+02,2.780337e+03
7.810307e+02,2.785396e+03
7.819949e+02,2.788929e+03
7.829592e+02,2.788460e+03
7.839234e+02,2.788612e+03
7.848876e+02,2.792700e+03
7.858519e+02,2.797770e+03
7.868161e+02,2.799083e+03
7.877803e+02,2.794081e+03
7.887446e+02,2.786223e+03
7.897088e+02,2.779659e+03
7.906730e+02,2.775640e+03
7.916373e+02,2.777658e+03
7.926015e+02,2.786953e+03
7.935657e+02,2.796254e+03
7.945300e+02,2.792841e+03
7.954942e+02,2.770375e+03
7.964584e+02,2.754867e+03
7.974227e+02,2.757356e+03
7.983869e+02,2.768103e+03
7.993511e+02,2.771709e+03
8.003154e+02,2.760382e+03
8.012796e+02,2.751381e+03
8.022438e+02,2.750804e+03
8.032081e+02,2.754034e+03
8.041723e+02,2.757232e+03
8.051365e+02,2.759150e+03
8.061008e+02,2.759841e+03
8.070650e+02,2.757821e+03
8.080292e+02,2.754037e+03
8.089935e+02,2.751714e+03
8.099577e+02,2.752033e+03
8.109219e+02,2.753144e+03
8.118862e+02,2.752475e+03
8.128504e+02,2.750081e+03
8.138146e+02,2.748017e+03
8.147789e+02,2.745731e+03
8.157431e+02,2.744039e+03
8.167073e+02,2.744740e+03
8.176716e+02,2.750160e+03
8.186358e+02,2.753173e+03
8.196000e+02,2.749799e+03
8.205643e+02,2.747339e+03
8.215285e+02,2.749031e+03
8.224927e+02,2.753906e+03
8.234570e+02,2.755471e+03
8.244212e+02,2.748649e+03
8.253854e+02,2.741264e+03
8.263497e+02,2.736880e+03
8.273139e+02,2.734810e+03
8.282781e+02,2.734257e+03
8.292424e+02,2.738319e+03
8.302066e+02,2.743731e+03
8.311708e+02,2.744424e+03
8.321351e+02,2.741020e+03
8.330993e+02,2.736076e+03
8.340635e+02,2.729393e+03
8.350278e+02,2.722841e+03
8.359920e+02,2.724899e+03
8.369562e+02,2.738167e+03
8.379205e+02,2.746600e+03
8.388847e+02,2.743690e+03
8.398489e+02,2.733581e+03
8.408132e+02,2.726350e+03
8.417774e+02,2.723208e+03
8.427416e+02,2.720323e+03
8.437059e+02,2.717753e+03
8.446701e+02,2.715113e+03
8.456343e+02,2.711704e+03
8.465986e+02,2.704567e+03
8.475628e+02,2.701710e+03
8.485270e+02,2.712018e+03
8.494913e+02,2.724566e+03
8.504555e+02,2.727325e+03
8.514197e+02,2.717572e+03
8.523840e+02,2.706214e+03
8.533482e+02,2.701308e+03
8.543124e+02,2.700342e+03
8.552767e+02,2.699284e+03
8.562409e+02,2.697337e+03
8.572051e+02,2.695237e+03
8.581694e+02,2.694197e+03
8.591336e+02,2.694578e+03
8.600978e+02,2.696665e+03
8.610621e+02,2.701415e+03
8.620263e+02,2.706112e+03
8.629905e+02,2.708241e+03
8.639548e+02,2.706824e+03
8.649190e+02,2.702026e+03
8.658832e+02,2.691065e+03
8.668475e+02,2.683064e+03
8.678117e+02,2.683716e+03
8.687759e+02,2.691023e+03
8.697402e+02,2.696437e+03
8.707044e+02,2.695497e+03
8.716686e+02,2.693923e+03
8.726329e+02,2.697937e+03
8.735971e+02,2.704083e+03
8.745613e+02,2.704786e+03
8.755256e+02,2.694131e+03
8.764898e+02,2.682584e+03
8.774540e+02,2.673972e+03
8.784183e+02,2.668854e+03
8.793825e+02,2.670024e+03
8.803467e+02,2.679738e+03
8.813110e+02,2.690114e+03
8.822752e+02,2.690810e+03
8.832394e+02,2.684642e+03
8.842037e+02,2.678885e+03
8.851679e+02,2.674351e+03
8.861321e+02,2.671768e+03
8.870964e+02,2.674106e+03
8.880606e+02,2.681572e+03
8.890248e+02,2.685190e+03
8.899891e+02,2.684819e+03
8.909533e+02,2.682358e+03
8.919175e+02,2.678649e+03
8.928818e+02,2.673218e+03
8.938460e+02,2.668259e+03
8.948102e+02,2.661381e+03
8.957745e+02,2.656218e+03
8.967387e+02,2.656668e+03
8.977029e+02,2.661800e+03
8.986672e+02,2.663499e+03
8.996314e+02,2.661356e+03
9.005956e+02,2.658417e+03
9.015599e+02,2.654016e+03
9.025241e+02,2.648944e+03
9.034883e+02,2.645907e+03
9.044526e+02,2.647729e+03
9.054168e+02,2.648822e+03
9.063810e+02,2.646634e+03
9.073453e+02,2.644080e+03
9.083095e+02,2.644350e+03
9.092737e+02,2.648806e+03
9.102380e+02,2.652970e+03
9.112022e+02,2.651653e+03
9.121664e+02,2.646328e+03
9.131307e+02,2.640681e+03
9.140949e+02,2.636503e+03
9.150591e+02,2.635656e+03
9.160234e+02,2.640848e+03
9.169876e+02,2.649597e+03
9.179518e+02,2.652507e+03
9.189161e+02,2.648122e+03
9.198803e+02,2.639307e+03
9.208445e+02,2.628145e+03
9.218088e+02,2.614297e+03
9.227730e+02,2.609711e+03
9.237372e+02,2.618049e+03
9.247015e+02,2.626058e+03
9.256657e+02,2.624592e+03
9.266299e+02,2.613000e+03
9.275942e+02,2.604660e+03
9.285584e+02,2.598639e+03
9.295226e+02,2.595914e+03
9.304869e+02,2.599331e+03
9.314511e+02,2.607255e+03
9.324153e+02,2.613124e+03
9.333796e+02,2.615433e+03
9.343438e+02,2.616613e+03
9.353080e+02,2.617874e+03
9.362723e+02,2.616916e+03
9.372365e+02,2.611284e+03
9.382007e+02,2.598572e+03
9.391650e+02,2.588063e+03
9.401292e+02,2.584563e+03
9.410934e+02,2.584843e+03
9.420577e+02,2.584875e+03
9.430219e+02,2.583416e+03
9.439861e+02,2.581396e+03
9.449504e+02,2.579058e+03
9.459146e+02,2.578918e+03
9.468788e+02,2.584838e+03
9.478431e+02,2.594899e+03
9.488073e+02,2.600978e+03
9.497715e+02,2.595615e+03
9.507358e+02,2.583430e+03
9.517000e+02,2.573353e+03
9.526642e+02,2.566410e+03
9.536285e+02,2.561742e+03
9.545927e+02,2.558265e+03
9.555569e+02,2.556139e+03
9.565212e+02,2.556719e+03
9.574854e+02,2.560952e+03
9.584496e+02,2.566022e+03
9.594139e+02,2.569912e+03
9.603781e+02,2.572095e+03
9.613423e+02,2.573252e+03
9.623066e+02,2.573746e+03
9.632708e+02,2.572038e+03
9.642350e+02,2.567876e+03
9.651993e+02,2.562845e+03
9.661635e+02,2.557836e+03
9.671277e+02,2.550339e+03
9.680920e+02,2.546930e+03
9.690562e+02,2.550399e+03
9.700204e+02,2.554650e+03
9.709847e+02,2.555880e+03
9.719489e+02,2.554191e+03
9.729131e+02,2.553182e+03
9.738774e+02,2.555613e+03
9.748416e+02,2.557254e+03
9.758058e+02,2.553288e+03
9.767701e+02,2.544672e+03
9.777343e+02,2.540586e+03
9.786985e+02,2.548065e+03
9.796628e+02,2.553340e+03
9.806270e+02,2.550399e+03
9.815912e+02,2.542731e+03
9.825555e+02,2.536544e+03
9.835197e+02,2.535970e+03
9.844839e+02,2.535888e+03
9.854482e+02,2.535101e+03
9.864124e+02,2.533697e+03
9.873766e+02,2.530803e+03
9.883409e+02,2.526244e+03
9.893051e+02,2.521861e+03
9.902693e+02,2.515573e+03
9.912336e+02,2.512122e+03
9.921978e+02,2.518982e+03
9.931620e+02,2.534515e+03
9.941263e+02,2.546206e+03
9.950905e+02,2.542379e+03
9.960547e+02,2.532275e+03
9.970190e+02,2.527884e+03
9.979832e+02,2.527677e+03
9.989474e+02,2.524662e+03
9.999117e+02,2.513003e+03
1.000876e+03,2.500455e+03
1.001840e+03,2.500414e+03
1.002804e+03,2.510132e+03
1.003769e+03,2.518160e+03
1.004733e+03,2.519358e+03
1.005697e+03,2.517889e+03
1.006661e+03,2.520707e+03
1.007626e+03,2.526940e+03
1.008590e+03,2.532640e+03
1.009554e+03,2.536670e+03
1.010518e+03,2.536503e+03
1.011482e+03,2.527723e+03
1.012447e+03,2.511762e+03
1.013411e+03,2.500564e+03
1.014375e+03,2.495921e+03
1.015339e+03,2.495053e+03
1.016304e+03,2.495937e+03
1.017268e+03,2.497916e+03
1.018232e+03,2.498848e+03
1.019196e+03,2.498485e+03
1.020161e+03,2.496096e+03
1.021125e+03,2.491478e+03
1.022089e+03,2.486191e+03
1.023053e+03,2.481928e+03
1.024018e+03,2.477270e+03
1.024982e+03,2.476582e+03
1.025946e+03,2.481739e+03
1.026910e+03,2.487507e+03
1.027875e+03,2.488255e+03
1.028839e+03,2.483685e+03
1.029803e+03,2.480251e+03
1.030767e+03,2.478069e+03
1.031731e+03,2.477254e+03
1.032696e+03,2.477603e+03
1.033660e+03,2.478920e+03
1.034624e+03,2.480042e+03
1.035588e+03,2.482066e+03
1.036552e+03,2.483740e+03
1.037517e+03,2.483883e+03
1.038481e+03,2.482115e+03
1.039445e+03,2.479587e+03
1.040409e+03,2.475303e+03
1.041374e+03,2.472219e+03
1.042338e+03,2.472952e+03
1.043302e+03,2.474924e+03
1.044266e+03,2.474061e+03
1.045231e+03,2.467974e+03
1.046195e+03,2.462684e+03
1.047159e+03,2.458454e+03
1.048123e+03,2.455773e+03
1.049088e+03,2.455589e+03
1.050052e+03,2.459215e+03
1.051016e+03,2.461286e+03
1.051980e+03,2.458040e+03
1.052945e+03,2.456558e+03
1.053909e+03,2.460576e+03
1.054873e+03,2.466942e+03
1.055837e+03,2.468175e+03
1.056802e+03,2.459350e+03
1.057766e+03,2.452723e+03
1.058730e+03,2.452589e+03
1.059694e+03,2.455569e+03
1.060658e+03,2.457057e+03
1.061623e+03,2.456787e+03
1.062587e+03,2.456076e+03
1.063551e+03,2.454902e+03
1.064515e+03,2.453735e+03
1.065479e+03,2.452079e+03
1.066444e+03,2.450301e+03
1.067408e+03,2.450189e+03
1.068372e+03,2.454191e+03
1.069336e+03,2.457661e+03
1.070301e+03,2.456815e+03
1.071265e+03,2.452237e+03
1.072229e+03,2.448121e+03
1.073193e+03,2.444772e+03
1.074158e+03,2.442344e+03
1.075122e+03,2.443634e+03
1.076086e+03,2.444705e+03
1.077050e+03,2.440633e+03
1.078015e+03,2.428182e+03
1.078979e+03,2.420495e+03
1.079943e+03,2.421783e+03
1.080907e+03,2.426696e+03
1.081872e+03,2.431392e+03
1.082836e+03,2.434851e+03
1.083800e+03,2.437644e+03
1.084764e+03,2.441365e+03
1.085729e+03,2.444250e+03
1.086693e+03,2.444324e+03
1.087657e+03,2.442433e+03
1.088621e+03,2.441419e+03
1.089585e+03,2.442070e+03
1.090550e+03,2.442229e+03
1.091514e+03,2.442887e+03
1.092478e+03,2.443941e+03
1.093442e+03,2.445260e+03
1.094406e+03,2.448375e+03
1.095371e+03,2.447886e+03
1.096335e+03,2.437439e+03
1.097299e+03,2.426510e+03
1.098263e+03,2.421176e+03
1.099228e+03,2.421316e+03
1.100192e+03,2.422508e+03
1.101156e+03,2.426161e+03
1.102120e+03,2.427894e+03
1.103085e+03,2.425307e+03
1.104049e+03,2.420074e+03
1.105013e+03,2.415575e+03
1.105977e+03,2.413067e+03
1.106942e+03,2.410753e+03
1.107906e+03,2.408176e+03
1.108870e+03,2.406049e+03
1.109834e+03,2.404462e+03
1.110799e+03,2.402722e+03
1.111763e+03,2.404607e+03
1.112727e+03,2.415650e+03
1.113691e+03,2.426289e+03
1.114656e+03,2.431351e+03
1.115620e+03,2.431230e+03
1.116584e+03,2.429915e+03
1.117548e+03,2.424323e+03
1.118512e+03,2.419521e+03
1.119477e+03,2.417396e+03
1.120441e+03,2.416736e+03
1.121405e+03,2.416023e+03
1.122369e+03,2.414022e+03
1.123334e+03,2.414058e+03
1.124298e+03,2.419121e+03
1.125262e+03,2.424448e+03
1.126226e+03,2.426652e+03
1.127191e+03,2.425548e+03
1.128155e+03,2.424808e+03
1.129119e+03,2.422730e+03
1.130083e+03,2.422233e+03
1.131047e+03,2.425340e+03
1.132012e+03,2.430028e+03
1.132976e+03,2.431481e+03
1.133940e+03,2.428920e+03
1.134904e+03,2.424160e+03
1.135869e+03,2.416496e+03
1.136833e+03,2.409264e+03
1.137797e+03,2.406562e+03
1.138761e+03,2.411094e+03
1.139726e+03,2.412902e+03
1.140690e+03,2.411185e+03
1.141654e+03,2.407152e+03
1.142618e+03,2.400197e+03
1.143583e+03,2.391324e+03
1.144547e+03,2.387569e+03
1.145511e+03,2.389960e+03
1.146475e+03,2.393448e+03
1.147439e+03,2.396886e+03
1.148404e+03,2.400194e+03
1.149368e+03,2.401946e+03
1.150332e+03,2.401518e+03
1.151296e+03,2.403414e+03
1.152261e+03,2.407520e+03
1.153225e+03,2.409985e+03
1.154189e+03,2.409301e+03
1.155153e+03,2.406542e+03
1.156118e+03,2.402344e+03
1.157082e+03,2.397468e+03
1.158046e+03,2.392523e+03
1.159010e+03,2.386836e+03
1.159974e+03,2.380554e+03
1.160939e+03,2.373623e+03
1.161903e+03,2.365834e+03
1.162867e+03,2.359227e+03
1.163831e+03,2.354122e+03
1.164796e+03,2.349571e+03
1.165760e+03,2.345303e+03
1.166724e+03,2.341661e+03
1.167688e+03,2.338595e+03
1.168653e+03,2.336130e+03
1.169617e+03,2.334047e+03
1.170581e+03,2.332169e+03
1.171545e+03,2.331385e+03
1.172510e+03,2.333249e+03
1.173474e+03,2.337175e+03
1.174438e+03,2.341483e+03
1.175402e+03,2.345429e+03
1.176366e+03,2.348285e+03
1.177331e+03,2.348733e+03
1.178295e+03,2.348610e+03
1.179259e+03,2.350405e+03
1.180223e+03,2.353385e+03
1.181188e+03,2.354508e+03
1.182152e+03,2.350537e+03
1.183116e+03,2.345818e+03
1.184080e+03,2.344679e+03
1.185045e+03,2.345614e+03
1.186009e+03,2.345292e+03
1.186973e+03,2.343506e+03
1.187937e+03,2.340289e+03
1.188901e+03,2.333267e+03
1.189866e+03,2.325880e+03
1.190830e+03,2.320168e+03
1.191794e+03,2.315926e+03
1.192758e+03,2.313787e+03
1.193723e+03,2.317358e+03
1.194687e+03,2.321183e+03
1.195651e+03,2.323036e+03
1.196615e+03,2.322999e+03
1.197580e+03,2.321548e+03
1.198544e+03,2.317264e+03
1.199508e+03,2.310362e+03
1.200472e+03,2.299759e+03
1.201437e+03,2.289979e+03
1.202401e+03,2.285164e+03
1.203365e+03,2.286341e+03
1.204329e+03,2.289173e+03
1.205293e+03,2.293908e+03
1.206258e+03,2.299021e+03
1.207222e+03,2.304089e+03
1.208186e+03,2.308202e+03
1.209150e+03,2.308341e+03
1.210115e+03,2.303201e+03
1.211079e+03,2.300765e+03
1.212043e+03,2.303181e+03
1.213007e+03,2.306480e+03
1.213972e+03,2.307734e+03
1.214936e+03,2.307293e+03
1.215900e+03,2.301654e+03
1.216864e+03,2.291332e+03
1.217828e+03,2.283747e+03
1.218793e+03,2.284163e+03
1.219757e+03,2.288468e+03
1.220721e+03,2.288984e+03
1.221685e+03,2.287835e+03
1.222650e+03,2.290757e+03
1.223614e+03,2.298788e+03
1.224578e+03,2.304596e+03
1.225542e+03,2.301970e+03
1.226507e+03,2.295164e+03
1.227471e+03,2.286589e+03
1.228435e+03,2.277077e+03
1.229399e+03,2.270248e+03
1.230364e+03,2.272909e+03
1.231328e+03,2.274402e+03
1.232292e+03,2.267353e+03
1.233256e+03,2.258245e+03
1.234220e+03,2.255004e+03
1.235185e+03,2.262651e+03
1.236149e+03,2.266479e+03
1.237113e+03,2.257777e+03
1.238077e+03,2.250139e+03
1.239042e+03,2.251624e+03
1.240006e+03,2.259977e+03
1.240970e+03,2.263756e+03
1.241934e+03,2.261699e+03
1.242899e+03,2.256817e+03
1.243863e+03,2.248748e+03
1.244827e+03,2.240345e+03
1.245791e+03,2.235008e+03
1.246755e+03,2.232874e+03
1.247720e+03,2.233639e+03
1.248684e+03,2.238261e+03
1.249648e+03,2.242486e+03
1.250612e+03,2.242916e+03
1.251577e+03,2.240672e+03
1.252541e+03,2.241222e+03
1.253505e+03,2.243740e+03
1.254469e+03,2.242977e+03
1.255434e+03,2.237469e+03
1.256398e+03,2.232017e+03
1.257362e+03,2.231626e+03
1.258326e+03,2.234176e+03
1.259291e+03,2.238261e+03
1.260255e+03,2.242506e+03
1.261219e+03,2.242700e+03
1.262183e+03,2.234070e+03
1.263147e+03,2.225212e+03
1.264112e+03,2.221327e+03
1.265076e+03,2.221462e+03
1.266040e+03,2.224354e+03
1.267004e+03,2.230806e+03
1.267969e+03,2.236444e+03
1.268933e+03,2.241968e+03
1.269897e+03,2.246386e+03
1.270861e+03,2.246364e+03
1.271826e+03,2.240870e+03
1.272790e+03,2.236541e+03
1.273754e+03,2.233112e+03
1.274718e+03,2.233255e+03
1.275682e+03,2.240040e+03
1.276647e+03,2.249533e+03
1.277611e+03,2.256358e+03
1.278575e+03,2.260093e+03
1.279539e+03,2.261363e+03
1.280504e+03,2.261048e+03
1.281468e+03,2.261273e+03
1.282432e+03,2.263036e+03
1.283396e+03,2.265115e+03
1.284361e+03,2.264346e+03
1.285325e+03,2.260687e+03
1.286289e+03,2.255529e+03
1.287253e+03,2.248984e+03
1.288218e+03,2.243040e+03
1.289182e+03,2.240845e+03
1.290146e+03,2.240229e+03
1.291110e+03,2.239392e+03
1.292074e+03,2.238121e+03
1.293039e+03,2.235431e+03
1.294003e+03,2.229646e+03
1.294967e+03,2.222939e+03
1.295931e+03,2.216307e+03
1.296896e+03,2.210460e+03
1.297860e+03,2.205506e+03
1.298824e+03,2.200861e+03
1.299788e+03,2.198023e+03
1.300753e+03,2.198396e+03
1.301717e+03,2.197843e+03
1.302681e+03,2.193673e+03
1.303645e+03,2.188101e+03
1.304609e+03,2.188495e+03
1.305574e+03,2.195363e+03
1.306538e+03,2.198229e+03
1.307502e+03,2.196285e+03
1.308466e+03,2.193245e+03
1.309431e+03,2.192035e+03
1.310395e+03,2.192118e+03
1.311359e+03,2.191187e+03
1.312323e+03,2.188621e+03
1.313288e+03,2.185574e+03
1.314252e+03,2.183523e+03
1.315216e+03,2.182849e+03
1.316180e+03,2.184239e+03
1.317145e+03,2.186058e+03
1.318109e+03,2.184633e+03
1.319073e+03,2.179045e+03
1.320037e+03,2.175565e+03
1.321001e+03,2.180238e+03
1.321966e+03,2.183661e+03
1.322930e+03,2.181696e+03
1.323894e+03,2.177373e+03
1.324858e+03,2.174951e+03
1.325823e+03,2.174130e+03
1.326787e+03,2.176090e+03
1.327751e+03,2.181782e+03
1.328715e+03,2.186232e+03
1.329680e+03,2.186087e+03
1.330644e+03,2.182698e+03
1.331608e+03,2.180649e+03
1.332572e+03,2.179917e+03
1.333536e+03,2.183928e+03
1.334501e+03,2.193915e+03
1.335465e+03,2.202856e+03
1.336429e+03,2.203266e+03
1.337393e+03,2.199173e+03
1.338358e+03,2.195302e+03
1.339322e+03,2.192088e+03
1.340286e+03,2.189285e+03
1.341250e+03,2.185781e+03
1.342215e+03,2.183707e+03
1.343179e+03,2.188037e+03
1.344143e+03,2.194073e+03
1.345107e+03,2.195330e+03
1.346072e+03,2.189789e+03
1.347036e+03,2.181506e+03
1.348000e+03,2.165341e+03
1.348964e+03,2.155424e+03
1.349928e+03,2.160089e+03
1.350893e+03,2.172750e+03
1.351857e+03,2.175854e+03
1.352821e+03,2.169366e+03
1.353785e+03,2.165297e+03
1.354750e+03,2.164887e+03
1.355714e+03,2.164732e+03
1.356678e+03,2.163487e+03
1.357642e+03,2.161733e+03
1.358607e+03,2.158671e+03
1.359571e+03,2.154465e+03
1.360535e+03,2.149898e+03
1.361499e+03,2.145191e+03
1.362464e+03,2.141835e+03
1.363428e+03,2.140710e+03
1.364392e+03,2.141740e+03
1.365356e+03,2.145251e+03
1.366320e+03,2.149606e+03
1.367285e+03,2.149325e+03
1.368249e+03,2.142966e+03
1.369213e+03,2.137755e+03
1.370177e+03,2.135261e+03
1.371142e+03,2.133779e+03
1.372106e+03,2.131009e+03
1.373070e+03,2.127373e+03
1.374034e+03,2.126506e+03
1.374999e+03,2.128651e+03
1.375963e+03,2.131534e+03
1.376927e+03,2.135160e+03
1.377891e+03,2.135962e+03
1.378855e+03,2.125394e+03
1.379820e+03,2.111792e+03
1.380784e+03,2.107258e+03
1.381748e+03,2.113993e+03
1.382712e+03,2.119443e+03
1.383677e+03,2.118426e+03
1.384641e+03,2.114795e+03
1.385605e+03,2.108530e+03
1.386569e+03,2.101005e+03
1.387534e+03,2.094276e+03
1.388498e+03,2.088154e+03
1.389462e+03,2.086017e+03
1.390426e+03,2.088019e+03
1.391391e+03,2.089055e+03
1.392355e+03,2.086559e+03
1.393319e+03,2.081836e+03
1.394283e+03,2.074352e+03
1.395247e+03,2.066109e+03
1.396212e+03,2.063536e+03
1.397176e+03,2.068412e+03
1.398140e+03,2.072421e+03
1.399104e+03,2.067502e+03
1.400069e+03,2.062306e+03
1.401033e+03,2.064419e+03
1.401997e+03,2.070536e+03
1.402961e+03,2.070548e+03
1.403926e+03,2.057805e+03
1.404890e+03,2.054059e+03
1.405854e+03,2.063892e+03
1.406818e+03,2.075020e+03
1.407782e+03,2.078268e+03
1.408747e+03,2.076359e+03
1.409711e+03,2.077359e+03
1.410675e+03,2.079286e+03
1.411639e+03,2.077924e+03
1.412604e+03,2.072050e+03
1.413568e+03,2.065972e+03
1.414532e+03,2.063907e+03
1.415496e+03,2.063918e+03
1.416461e+03,2.064150e+03
1.417425e+03,2.063645e+03
1.418389e+03,2.061751e+03
1.419353e+03,2.056837e+03
1.420318e+03,2.053176e+03
1.421282e+03,2.052322e+03
1.422246e+03,2.052643e+03
1.423210e+03,2.053104e+03
1.424174e+03,2.053582e+03
1.425139e+03,2.049409e+03
1.426103e+03,2.041017e+03
1.427067e+03,2.037588e+03
1.428031e+03,2.043166e+03
1.428996e+03,2.049960e+03
1.429960e+03,2.050275e+03
1.430924e+03,2.047233e+03
1.431888e+03,2.044094e+03
1.432853e+03,2.040927e+03
1.433817e+03,2.036090e+03
1.434781e+03,2.027958e+03
1.435745e+03,2.020758e+03
1.436709e+03,2.013382e+03
1.437674e+03,2.007297e+03
1.438638e+03,2.004477e+03
1.439602e+03,2.005433e+03
1.440566e+03,2.011419e+03
1.441531e+03,2.021332e+03
1.442495e+03,2.025291e+03
1.443459e+03,2.018227e+03
1.444423e+03,2.009625e+03
1.445388e+03,2.010557e+03
1.446352e+03,2.012936e+03
1.447316e+03,2.007490e+03
1.448280e+03,1.996078e+03
1.449245e+03,1.988610e+03
1.450209e+03,1.988335e+03
1.451173e+03,1.990936e+03
1.452137e+03,1.996866e+03
1.453101e+03,2.001627e+03
1.454066e+03,2.001281e+03
1.455030e+03,1.996617e+03
1.455994e+03,1.992566e+03
1.456958e+03,1.989256e+03
1.457923e+03,1.988227e+03
1.458887e+03,1.990054e+03
1.459851e+03,1.991610e+03
1.460815e+03,1.988596e+03
1.461780e+03,1.984729e+03
1.462744e+03,1.985982e+03
1.463708e+03,1.991755e+03
1.464672e+03,1.993003e+03
1.465636e+03,1.987932e+03
1.466601e+03,1.982050e+03
1.467565e+03,1.974347e+03
1.468529e+03,1.969753e+03
1.469493e+03,1.975545e+03
1.470458e+03,1.987054e+03
1.471422e+03,1.984715e+03
1.472386e+03,1.972977e+03
1.473350e+03,1.967463e+03
1.474315e+03,1.974885e+03
1.475279e+03,1.982694e+03
1.476243e+03,1.983198e+03
1.477207e+03,1.980347e+03
1.478172e+03,1.976900e+03
1.479136e+03,1.973462e+03
1.480100e+03,1.971182e+03
1.481064e+03,1.971152e+03
1.482028e+03,1.967859e+03
1.482993e+03,1.959988e+03
1.483957e+03,1.954373e+03
1.484921e+03,1.958807e+03
1.485885e+03,1.968081e+03
1.486850e+03,1.972809e+03
1.487814e+03,1.973641e+03
1.488778e+03,1.973305e+03
1.489742e+03,1.973036e+03
1.490707e+03,1.970965e+03
1.491671e+03,1.965213e+03
1.492635e+03,1.961263e+03
1.493599e+03,1.960935e+03
1.494563e+03,1.962787e+03
1.495528e+03,1.964859e+03
1.496492e+03,1.966764e+03
1.497456e+03,1.966398e+03
1.498420e+03,1.964186e+03
1.499385e+03,1.961312e+03
1.500349e+03,1.958791e+03
1.501313e+03,1.955928e+03
1.502277e+03,1.950190e+03
1.503242e+03,1.943914e+03
1.504206e+03,1.940899e+03
1.505170e+03,1.942665e+03
1.506134e+03,1.942773e+03
1.507099e+03,1.940782e+03
1.508063e+03,1.938639e+03
1.509027e+03,1.936531e+03
1.509991e+03,1.935917e+03
1.510955e+03,1.942350e+03
1.511920e+03,1.951380e+03
1.512884e+03,1.951949e+03
1.513848e+03,1.944979e+03
1.514812e+03,1.938527e+03
1.515777e+03,1.934269e+03
1.516741e+03,1.931085e+03
1.517705e+03,1.929286e+03
1.518669e+03,1.927516e+03
1.519634e+03,1.924711e+03
1.520598e+03,1.920753e+03
1.521562e+03,1.920761e+03
1.522526e+03,1.923862e+03
1.523490e+03,1.924020e+03
1.524455e+03,1.918984e+03
1.525419e+03,1.913609e+03
1.526383e+03,1.914446e+03
1.527347e+03,1.915543e+03
1.528312e+03,1.910616e+03
1.529276e+03,1.902317e+03
1.530240e+03,1.899779e+03
1.531204e+03,1.905310e+03
1.532169e+03,1.909045e+03
1.533133e+03,1.910516e+03
1.534097e+03,1.908888e+03
1.535061e+03,1.900984e+03
1.536026e+03,1.891449e+03
1.536990e+03,1.891198e+03
1.537954e+03,1.896188e+03
1.538918e+03,1.897874e+03
1.539882e+03,1.893381e+03
1.540847e+03,1.892014e+03
1.541811e+03,1.900319e+03
1.542775e+03,1.905431e+03
1.543739e+03,1.903986e+03
1.544704e+03,1.898969e+03
1.545668e+03,1.893791e+03
1.546632e+03,1.889159e+03
1.547596e+03,1.888067e+03
1.548561e+03,1.890052e+03
1.549525e+03,1.891707e+03
1.550489e+03,1.889132e+03
1.551453e+03,1.887449e+03
1.552417e+03,1.890857e+03
1.553382e+03,1.894405e+03
1.554346e+03,1.893986e+03
1.555310e+03,1.890650e+03
1.556274e+03,1.890885e+03
1.557239e+03,1.894430e+03
1.558203e+03,1.897987e+03
1.559167e+03,1.900996e+03
1.560131e+03,1.900864e+03
1.561096e+03,1.890130e+03
1.562060e+03,1.880590e+03
1.563024e+03,1.884709e+03
1.563988e+03,1.896735e+03
1.564953e+03,1.902146e+03
1.565917e+03,1.897006e+03
1.566881e+03,1.897437e+03
1.567845e+03,1.904215e+03
1.568809e+03,1.908122e+03
1.569774e+03,1.903187e+03
1.570738e+03,1.895543e+03
1.571702e+03,1.892331e+03
1.572666e+03,1.892021e+03
1.573631e+03,1.893547e+03
1.574595e+03,1.897211e+03
1.575559e+03,1.899970e+03
1.576523e+03,1.902109e+03
1.577488e+03,1.902404e+03
1.578452e+03,1.898902e+03
1.579416e+03,1.895230e+03
1.580380e+03,1.895650e+03
1.581344e+03,1.899303e+03
1.582309e+03,1.908779e+03
1.583273e+03,1.919733e+03
1.584237e+03,1.920598e+03
1.585201e+03,1.901795e+03
1.586166e+03,1.889942e+03
1.587130e+03,1.889871e+03
1.588094e+03,1.892029e+03
1.589058e+03,1.893865e+03
1.590023e+03,1.894384e+03
1.590987e+03,1.889230e+03
1.591951e+03,1.881745e+03
1.592915e+03,1.879636e+03
1.593880e+03,1.881826e+03
1.594844e+03,1.880183e+03
1.595808e+03,1.868005e+03
1.596772e+03,1.856471e+03
1.597736e+03,1.846092e+03
1.598701e+03,1.841218e+03
1.599665e+03,1.848814e+03
1.600629e+03,1.863786e+03
1.601593e+03,1.863182e+03
1.602558e+03,1.851540e+03
1.603522e+03,1.843088e+03
1.604486e+03,1.842461e+03
1.605450e+03,1.841009e+03
1.606415e+03,1.831725e+03
1.607379e+03,1.827090e+03
1.608343e+03,1.833795e+03
1.609307e+03,1.844344e+03
1.610271e+03,1.845311e+03
1.611236e+03,1.838295e+03
1.612200e+03,1.829365e+03
1.613164e+03,1.820776e+03
1.614128e+03,1.818628e+03
1.615093e+03,1.834138e+03
1.616057e+03,1.844425e+03
1.617021e+03,1.837033e+03
1.617985e+03,1.825879e+03
1.618950e+03,1.819277e+03
1.619914e+03,1.816300e+03
1.620878e+03,1.812747e+03
1.621842e+03,1.809388e+03
1.622807e+03,1.808949e+03
1.623771e+03,1.812334e+03
1.624735e+03,1.815185e+03
1.625699e+03,1.814015e+03
1.626663e+03,1.811794e+03
1.627628e+03,1.809930e+03
1.628592e+03,1.805965e+03
1.629556e+03,1.795880e+03
1.630520e+03,1.782602e+03
1.631485e+03,1.779910e+03
1.632449e+03,1.785683e+03
1.633413e+03,1.791239e+03
1.634377e+03,1.793739e+03
1.635342e+03,1.794756e+03
1.636306e+03,1.795814e+03
1.637270e+03,1.794241e+03
1.638234e+03,1.787307e+03
1.639198e+03,1.778575e+03
1.640163e+03,1.775578e+03
1.641127e+03,1.777633e+03
1.642091e+03,1.782080e+03
1.643055e+03,1.787581e+03
1.644020e+03,1.791468e+03
1.644984e+03,1.792412e+03
1.645948e+03,1.790236e+03
1.646912e+03,1.784127e+03
1.647877e+03,1.777936e+03
1.648841e+03,1.775553e+03
1.649805e+03,1.775609e+03
1.650769e+03,1.772213e+03
1.651734e+03,1.767127e+03
1.652698e+03,1.765948e+03
1.653662e+03,1.770302e+03
1.654626e+03,1.772135e+03
1.655590e+03,1.768161e+03
1.656555e+03,1.763685e+03
1.657519e+03,1.760500e+03
1.658483e+03,1.759070e+03
1.659447e+03,1.760205e+03
1.660412e+03,1.761292e+03
1.661376e+03,1.757214e+03
1.662340e+03,1.750432e+03
1.663304e+03,1.747651e+03
1.664269e+03,1.754547e+03
1.665233e+03,1.756805e+03
1.666197e+03,1.752612e+03
1.667161e+03,1.747419e+03
1.668125e+03,1.744425e+03
1.669090e+03,1.742743e+03
1.670054e+03,1.741436e+03
1.671018e+03,1.740501e+03
1.671982e+03,1.739953e+03
1.672947e+03,1.740078e+03
1.673911e+03,1.742998e+03
1.674875e+03,1.749412e+03
1.675839e+03,1.751573e+03
1.676804e+03,1.749214e+03
1.677768e+03,1.743880e+03
1.678732e+03,1.731370e+03
1.679696e+03,1.720298e+03
1.680661e+03,1.721082e+03
1.681625e+03,1.726470e+03
1.682589e+03,1.726572e+03
1.683553e+03,1.721477e+03
1.684517e+03,1.723178e+03
1.685482e+03,1.731093e+03
1.686446e+03,1.734402e+03
1.687410e+03,1.728975e+03
1.688374e+03,1.723445e+03
1.689339e+03,1.724838e+03
1.690303e+03,1.727442e+03
1.691267e+03,1.728465e+03
1.692231e+03,1.728185e+03
1.693196e+03,1.725554e+03
1.694160e+03,1.720688e+03
1.695124e+03,1.719881e+03
1.696088e+03,1.722307e+03
1.697052e+03,1.720579e+03
1.698017e+03,1.703029e+03
1.698981e+03,1.693528e+03
1.699945e+03,1.701650e+03
1.700909e+03,1.712098e+03
1.701874e+03,1.720163e+03
1.702838e+03,1.724895e+03
1.703802e+03,1.719176e+03
1.704766e+03,1.707152e+03
1.705731e+03,1.697328e+03
1.706695e+03,1.691416e+03
1.707659e+03,1.691108e+03
1.708623e+03,1.701566e+03
1.709588e+03,1.705182e+03
1.710552e+03,1.697388e+03
1.711516e+03,1.689941e+03
1.712480e+03,1.696270e+03
1.713444e+03,1.706063e+03
1.714409e+03,1.709676e+03
1.715373e+03,1.709177e+03
1.716337e+03,1.705978e+03
1.717301e+03,1.700769e+03
1.718266e+03,1.700213e+03
1.719230e+03,1.703683e+03
1.720194e+03,1.701684e+03
1.721158e+03,1.690596e+03
1.722123e+03,1.680728e+03
1.723087e+03,1.681541e+03
1.724051e+03,1.683355e+03
1.725015e+03,1.681281e+03
1.725979e+03,1.678127e+03
1.726944e+03,1.677309e+03
1.727908e+03,1.678230e+03
1.728872e+03,1.678399e+03
1.729836e+03,1.677425e+03
1.730801e+03,1.676343e+03
1.731765e+03,1.675634e+03
1.732729e+03,1.675977e+03
1.733693e+03,1.679075e+03
1.734658e+03,1.678250e+03
1.735622e+03,1.668701e+03
1.736586e+03,1.657721e+03
1.737550e+03,1.656401e+03
1.738515e+03,1.659723e+03
1.739479e+03,1.663051e+03
1.740443e+03,1.665393e+03
1.741407e+03,1.664910e+03
1.742371e+03,1.661093e+03
1.743336e+03,1.660048e+03
1.744300e+03,1.662102e+03
1.745264e+03,1.664010e+03
1.746228e+03,1.666721e+03
1.747193e+03,1.666691e+03
1.748157e+03,1.658805e+03
1.749121e+03,1.652484e+03
1.750085e+03,1.653020e+03
1.751050e+03,1.656898e+03
1.752014e+03,1.657958e+03
1.752978e+03,1.657152e+03
1.753942e+03,1.655110e+03
1.754906e+03,1.651639e+03
1.755871e+03,1.650057e+03
1.756835e+03,1.650569e+03
1.757799e+03,1.651130e+03
1.758763e+03,1.653341e+03
1.759728e+03,1.655359e+03
1.760692e+03,1.655208e+03
1.761656e+03,1.653534e+03
1.762620e+03,1.647392e+03
1.763585e+03,1.641259e+03
1.764549e+03,1.642845e+03
1.765513e+03,1.651188e+03
1.766477e+03,1.650540e+03
1.767442e+03,1.642883e+03
1.768406e+03,1.637847e+03
1.769370e+03,1.638814e+03
1.770334e+03,1.639807e+03
1.771298e+03,1.639157e+03
1.772263e+03,1.633742e+03
1.773227e+03,1.620840e+03
1.774191e+03,1.608839e+03
1.775155e+03,1.610077e+03
1.776120e+03,1.618165e+03
1.777084e+03,1.627974e+03
1.778048e+03,1.636162e+03
1.779012e+03,1.633641e+03
1.779977e+03,1.616782e+03
1.780941e+03,1.608654e+03
1.781905e+03,1.608389e+03
1.782869e+03,1.610010e+03
1.783833e+03,1.611804e+03
1.784798e+03,1.612951e+03
1.785762e+03,1.612635e+03
1.786726e+03,1.611361e+03
1.787690e+03,1.609407e+03
1.788655e+03,1.607464e+03
1.789619e+03,1.606411e+03
1.790583e+03,1.605855e+03
1.791547e+03,1.604522e+03
1.792512e+03,1.602615e+03
1.793476e+03,1.601030e+03
1.794440e+03,1.599314e+03
1.795404e+03,1.596645e+03
1.796369e+03,1.592330e+03
1.797333e+03,1.590821e+03
1.798297e+03,1.597978e+03
1.799261e+03,1.603458e+03
1.800225e+03,1.595844e+03
1.801190e+03,1.587366e+03
1.802154e+03,1.587869e+03
1.803118e+03,1.592433e+03
1.804082e+03,1.587092e+03
1.805047e+03,1.577281e+03
1.806011e+03,1.574400e+03
1.806975e+03,1.579170e+03
1.807939e+03,1.585504e+03
1.808904e+03,1.594562e+03
1.809868e+03,1.594102e+03
1.810832e+03,1.582795e+03
1.811796e+03,1.573288e+03
1.812760e+03,1.577305e+03
1.813725e+03,1.582789e+03
1.814689e+03,1.582455e+03
1.815653e+03,1.579917e+03
1.816617e+03,1.577376e+03
1.817582e+03,1.575338e+03
1.818546e+03,1.576766e+03
1.819510e+03,1.579034e+03
1.820474e+03,1.574949e+03
1.821439e+03,1.563866e+03
1.822403e+03,1.561569e+03
1.823367e+03,1.572223e+03
1.824331e+03,1.575378e+03
1.825296e+03,1.567179e+03
1.826260e+03,1.556859e+03
1.827224e+03,1.551710e+03
1.828188e+03,1.549242e+03
1.829152e+03,1.546840e+03
1.830117e+03,1.546056e+03
1.831081e+03,1.549243e+03
1.832045e+03,1.554194e+03
1.833009e+03,1.556629e+03
1.833974e+03,1.558111e+03
1.834938e+03,1.558962e+03
1.835902e+03,1.558460e+03
1.836866e+03,1.557230e+03
1.837831e+03,1.555160e+03
1.838795e+03,1.551419e+03
1.839759e+03,1.546343e+03
1.840723e+03,1.544221e+03
1.841688e+03,1.552405e+03
1.842652e+03,1.556121e+03
1.843616e+03,1.547453e+03
1.844580e+03,1.536849e+03
1.845544e+03,1.537575e+03
1.846509e+03,1.543471e+03
1.847473e+03,1.542840e+03
1.848437e+03,1.538745e+03
1.849401e+03,1.537471e+03
1.850366e+03,1.539528e+03
1.851330e+03,1.537910e+03
1.852294e+03,1.533292e+03
1.853258e+03,1.526567e+03
1.854223e+03,1.517463e+03
1.855187e+03,1.511103e+03
1.856151e+03,1.509063e+03
1.857115e+03,1.510339e+03
1.858079e+03,1.514964e+03
1.859044e+03,1.521296e+03
1.860008e+03,1.532591e+03
1.860972e+03,1.541314e+03
1.861936e+03,1.536979e+03
1.862901e+03,1.526474e+03
1.863865e+03,1.518371e+03
1.864829e+03,1.511856e+03
1.865793e+03,1.508796e+03
1.866758e+03,1.509085e+03
1.867722e+03,1.511981e+03
1.868686e+03,1.518315e+03
1.869650e+03,1.516538e+03
1.870615e+03,1.503341e+03
1.871579e+03,1.495618e+03
1.872543e+03,1.499033e+03
1.873507e+03,1.504092e+03
1.874471e+03,1.501242e+03
1.875436e+03,1.496552e+03
1.876400e+03,1.492957e+03
1.877364e+03,1.490966e+03
1.878328e+03,1.491986e+03
1.879293e+03,1.494227e+03
1.880257e+03,1.494137e+03
1.881221e+03,1.491923e+03
1.882185e+03,1.488553e+03
1.883150e+03,1.484465e+03
1.884114e+03,1.483737e+03
1.885078e+03,1.485445e+03
1.886042e+03,1.486434e+03
1.887006e+03,1.486070e+03
1.887971e+03,1.482010e+03
1.888935e+03,1.470365e+03
1.889899e+03,1.465430e+03
1.890863e+03,1.470531e+03
1.891828e+03,1.477452e+03
1.892792e+03,1.482082e+03
1.893756e+03,1.482210e+03
1.894720e+03,1.471436e+03
1.895685e+03,1.461604e+03
1.896649e+03,1.466313e+03
1.897613e+03,1.479490e+03
1.898577e+03,1.484203e+03
1.899542e+03,1.482272e+03
1.900506e+03,1.475512e+03
1.901470e+03,1.463168e+03
1.902434e+03,1.460204e+03
1.903398e+03,1.466219e+03
1.904363e+03,1.470282e+03
1.905327e+03,1.469642e+03
1.906291e+03,1.469402e+03
1.907255e+03,1.473149e+03
1.908220e+03,1.473589e+03
1.909184e+03,1.469049e+03
1.910148e+03,1.462516e+03
1.911112e+03,1.455711e+03
1.912077e+03,1.450977e+03
1.913041e+03,1.451903e+03
1.914005e+03,1.454450e+03
1.914969e+03,1.453603e+03
1.915933e+03,1.451159e+03
1.916898e+03,1.455565e+03
1.917862e+03,1.462897e+03
1.918826e+03,1.463469e+03
1.919790e+03,1.455885e+03
1.920755e+03,1.452972e+03
1.921719e+03,1.453614e+03
1.922683e+03,1.450348e+03
1.923647e+03,1.442033e+03
1.924612e+03,1.437496e+03
1.925576e+03,1.444735e+03
1.926540e+03,1.449567e+03
1.927504e+03,1.449034e+03
1.928469e+03,1.446314e+03
1.929433e+03,1.442864e+03
1.930397e+03,1.439448e+03
1.931361e+03,1.437452e+03
1.932325e+03,1.435077e+03
1.933290e+03,1.431408e+03
1.934254e+03,1.427805e+03
1.935218e+03,1.422978e+03
1.936182e+03,1.418617e+03
1.937147e+03,1.421833e+03
1.938111e+03,1.431668e+03
1.939075e+03,1.433280e+03
1.940039e+03,1.428559e+03
1.941004e+03,1.424394e+03
1.941968e+03,1.421069e+03
1.942932e+03,1.420799e+03
1.943896e+03,1.426772e+03
1.944860e+03,1.430073e+03
1.945825e+03,1.430503e+03
1.946789e+03,1.428416e+03
1.947753e+03,1.419034e+03
1.948717e+03,1.413188e+03
1.949682e+03,1.418374e+03
1.950646e+03,1.421566e+03
1.951610e+03,1.413258e+03
1.952574e+03,1.401864e+03
1.953539e+03,1.398129e+03
1.954503e+03,1.399503e+03
1.955467e+03,1.406234e+03
1.956431e+03,1.414385e+03
1.957396e+03,1.410832e+03
1.958360e+03,1.400300e+03
1.959324e+03,1.395337e+03
1.960288e+03,1.396795e+03
1.961252e+03,1.397170e+03
1.962217e+03,1.394838e+03
1.963181e+03,1.397128e+03
1.964145e+03,1.403401e+03
1.965109e+03,1.406968e+03
1.966074e+03,1.402651e+03
1.967038e+03,1.401401e+03
1.968002e+03,1.403467e+03
1.968966e+03,1.402464e+03
1.969931e+03,1.394686e+03
1.970895e+03,1.385744e+03
1.971859e+03,1.379818e+03
1.972823e+03,1.377502e+03
1.973787e+03,1.379308e+03
1.974752e+03,1.381331e+03
1.975716e+03,1.377708e+03
1.976680e+03,1.371953e+03
1.977644e+03,1.368524e+03
1.978609e+03,1.367391e+03
1.979573e+03,1.367285e+03
1.980537e+03,1.367641e+03
1.981501e+03,1.367685e+03
1.982466e+03,1.367820e+03
1.983430e+03,1.368612e+03
1.984394e+03,1.369739e+03
1.985358e+03,1.373569e+03
1.986323e+03,1.378901e+03
1.987287e+03,1.378645e+03
1.988251e+03,1.368958e+03
1.989215e+03,1.363565e+03
1.990179e+03,1.365858e+03
1.991144e+03,1.363620e+03
1.992108e+03,1.353886e+03
1.993072e+03,1.345618e+03
1.994036e+03,1.344286e+03
1.995001e+03,1.346519e+03
1.995965e+03,1.352143e+03
1.996929e+03,1.357707e+03
1.997893e+03,1.358853e+03
1.998858e+03,1.357715e+03
1.999822e+03,1.355541e+03
2.000786e+03,1.352736e+03
2.001750e+03,1.350873e+03
2.002714e+03,1.349988e+03
2.003679e+03,1.347424e+03
2.004643e+03,1.343791e+03
2.005607e+03,1.341209e+03
2.006571e+03,1.339645e+03
2.007536e+03,1.337071e+03
2.008500e+03,1.333830e+03
2.009464e+03,1.330283e+03
2.010428e+03,1.326920e+03
2.011393e+03,1.323915e+03
2.012357e+03,1.321039e+03
2.013321e+03,1.320609e+03
2.014285e+03,1.321799e+03
2.015250e+03,1.323481e+03
2.016214e+03,1.325886e+03
2.017178e+03,1.327729e+03
2.018142e+03,1.329336e+03
2.019106e+03,1.330146e+03
2.020071e+03,1.330205e+03
2.021035e+03,1.327632e+03
2.021999e+03,1.318762e+03
2.022963e+03,1.312024e+03
2.023928e+03,1.311905e+03
2.024892e+03,1.312910e+03
2.025856e+03,1.305427e+03
2.026820e+03,1.300984e+03
2.027785e+03,1.308498e+03
2.028749e+03,1.318435e+03
2.029713e+03,1.315357e+03
2.030677e+03,1.309192e+03
2.031641e+03,1.317310e+03
2.032606e+03,1.328726e+03
2.033570e+03,1.321319e+03
2.034534e+03,1.301578e+03
2.035498e+03,1.301066e+03
2.036463e+03,1.312009e+03
2.037427e+03,1.315654e+03
2.038391e+03,1.311527e+03
2.039355e+03,1.307828e+03
2.040320e+03,1.304227e+03
2.041284e+03,1.296651e+03
2.042248e+03,1.283611e+03
2.043212e+03,1.280929e+03
2.044177e+03,1.290402e+03
2.045141e+03,1.300186e+03
2.046105e+03,1.308078e+03
2.047069e+03,1.311149e+03
2.048033e+03,1.304522e+03
2.048998e+03,1.296993e+03
2.049962e+03,1.289646e+03
2.050926e+03,1.282016e+03
2.051890e+03,1.270262e+03
2.052854e+03,1.264219e+03
2.053819e+03,1.267613e+03
2.054783e+03,1.271372e+03
2.055747e+03,1.271878e+03
2.056711e+03,1.271766e+03
2.057676e+03,1.271927e+03
2.058640e+03,1.274394e+03
2.059604e+03,1.280358e+03
2.060568e+03,1.285229e+03
2.061533e+03,1.282240e+03
2.062497e+03,1.276091e+03
2.063461e+03,1.270507e+03
2.064425e+03,1.265608e+03
2.065390e+03,1.259776e+03
2.066354e+03,1.255502e+03
2.067318e+03,1.260864e+03
2.068282e+03,1.270672e+03
2.069247e+03,1.273949e+03
2.070211e+03,1.270912e+03
2.071175e+03,1.262895e+03
2.072139e+03,1.253118e+03
2.073104e+03,1.249411e+03
2.074068e+03,1.252351e+03
2.075032e+03,1.257018e+03
2.075996e+03,1.261824e+03
2.076960e+03,1.261514e+03
2.077925e+03,1.254867e+03
2.078889e+03,1.248005e+03
2.079853e+03,1.241341e+03
2.080817e+03,1.235676e+03
2.081782e+03,1.231202e+03
2.082746e+03,1.230729e+03
2.083710e+03,1.239478e+03
2.084674e+03,1.243055e+03
2.085639e+03,1.241383e+03
2.086603e+03,1.238687e+03
2.087567e+03,1.232193e+03
2.088531e+03,1.231063e+03
2.089496e+03,1.236820e+03
2.090460e+03,1.240411e+03
2.091424e+03,1.239420e+03
2.092388e+03,1.238273e+03
2.093353e+03,1.237657e+03
2.094317e+03,1.239819e+03
2.095281e+03,1.245284e+03
2.096245e+03,1.248551e+03
2.097209e+03,1.242668e+03
2.098174e+03,1.234792e+03
2.099138e+03,1.227930e+03
2.100102e+03,1.223729e+03
2.101066e+03,1.225483e+03
2.102031e+03,1.228739e+03
2.102995e+03,1.230903e+03
2.103959e+03,1.230974e+03
2.104923e+03,1.227106e+03
2.105887e+03,1.222361e+03
2.106852e+03,1.217150e+03
2.107816e+03,1.214613e+03
2.108780e+03,1.221096e+03
2.109744e+03,1.229946e+03
2.110708e+03,1.223255e+03
2.111673e+03,1.210772e+03
2.112637e+03,1.205189e+03
2.113601e+03,1.204018e+03
2.114565e+03,1.203085e+03
2.115530e+03,1.202478e+03
2.116494e+03,1.202932e+03
2.117458e+03,1.204947e+03
2.118422e+03,1.203557e+03
2.119387e+03,1.199358e+03
2.120351e+03,1.205143e+03
2.121315e+03,1.216179e+03
2.122279e+03,1.217262e+03
2.123244e+03,1.207417e+03
2.124208e+03,1.203713e+03
2.125172e+03,1.204342e+03
2.126136e+03,1.200441e+03
2.127101e+03,1.189418e+03
2.128065e+03,1.186637e+03
2.129029e+03,1.190920e+03
2.129993e+03,1.196280e+03
2.130958e+03,1.200382e+03
2.131922e+03,1.201313e+03
2.132886e+03,1.199687e+03
2.133850e+03,1.192229e+03
2.134814e+03,1.180269e+03
2.135779e+03,1.172035e+03
2.136743e+03,1.169825e+03
2.137707e+03,1.169880e+03
2.138671e+03,1.172325e+03
2.139636e+03,1.174690e+03
2.140600e+03,1.176353e+03
2.141564e+03,1.176291e+03
2.142528e+03,1.174791e+03
2.143493e+03,1.170516e+03
2.144457e+03,1.160625e+03
2.145421e+03,1.154666e+03
2.146385e+03,1.155762e+03
2.147350e+03,1.158691e+03
2.148314e+03,1.163095e+03
2.149278e+03,1.167364e+03
2.150242e+03,1.169164e+03
2.151207e+03,1.168707e+03
2.152171e+03,1.165414e+03
2.153135e+03,1.161765e+03
2.154099e+03,1.163247e+03
2.155063e+03,1.161715e+03
2.156028e+03,1.155133e+03
2.156992e+03,1.149265e+03
2.157956e+03,1.146039e+03
2.158920e+03,1.145031e+03
2.159885e+03,1.146931e+03
2.160849e+03,1.148705e+03
2.161813e+03,1.149038e+03
2.162777e+03,1.148170e+03
2.163741e+03,1.146132e+03
2.164706e+03,1.143605e+03
2.165670e+03,1.141688e+03
2.166634e+03,1.141523e+03
2.167598e+03,1.144438e+03
2.168563e+03,1.147019e+03
2.169527e+03,1.146401e+03
2.170491e+03,1.145287e+03
2.171455e+03,1.151372e+03
2.172420e+03,1.154495e+03
2.173384e+03,1.145816e+03
2.174348e+03,1.136311e+03
2.175312e+03,1.135467e+03
2.176277e+03,1.135966e+03
2.177241e+03,1.129438e+03
2.178205e+03,1.122979e+03
2.179169e+03,1.121501e+03
2.180134e+03,1.123786e+03
2.181098e+03,1.130543e+03
2.182062e+03,1.135323e+03
2.183026e+03,1.132216e+03
2.183990e+03,1.126787e+03
2.184955e+03,1.125787e+03
2.185919e+03,1.129073e+03
2.186883e+03,1.138577e+03
2.187847e+03,1.146410e+03
2.188812e+03,1.140030e+03
2.189776e+03,1.130776e+03
2.190740e+03,1.131537e+03
2.191704e+03,1.134501e+03
2.192668e+03,1.134248e+03
2.193633e+03,1.131367e+03
2.194597e+03,1.124495e+03
2.195561e+03,1.117330e+03
2.196525e+03,1.111678e+03
2.197490e+03,1.108768e+03
2.198454e+03,1.114522e+03
2.199418e+03,1.120203e+03
2.200382e+03,1.116767e+03
2.201347e+03,1.112044e+03
2.202311e+03,1.123215e+03
2.203275e+03,1.134537e+03
2.204239e+03,1.126245e+03
2.205204e+03,1.110477e+03
2.206168e+03,1.104721e+03
2.207132e+03,1.103534e+03
2.208096e+03,1.099334e+03
2.209061e+03,1.094241e+03
2.210025e+03,1.093235e+03
2.210989e+03,1.092458e+03
2.211953e+03,1.082885e+03
2.212917e+03,1.075477e+03
2.213882e+03,1.078473e+03
2.214846e+03,1.086410e+03
2.215810e+03,1.092350e+03
2.216774e+03,1.096185e+03
2.217739e+03,1.101127e+03
2.218703e+03,1.104726e+03
2.219667e+03,1.100068e+03
2.220631e+03,1.093131e+03
2.221595e+03,1.089387e+03
2.222560e+03,1.086334e+03
2.223524e+03,1.078316e+03
2.224488e+03,1.071275e+03
2.225452e+03,1.076932e+03
2.226417e+03,1.083634e+03
2.227381e+03,1.076158e+03
2.228345e+03,1.066309e+03
2.229309e+03,1.069587e+03
2.230274e+03,1.076976e+03
2.231238e+03,1.082415e+03
2.232202e+03,1.084901e+03
2.233166e+03,1.081741e+03
2.234131e+03,1.078622e+03
2.235095e+03,1.080412e+03
2.236059e+03,1.082208e+03
2.237023e+03,1.075044e+03
2.237988e+03,1.065118e+03
2.238952e+03,1.055579e+03
2.239916e+03,1.048320e+03
2.240880e+03,1.047399e+03
2.241844e+03,1.050538e+03
2.242809e+03,1.057008e+03
2.243773e+03,1.063758e+03
2.244737e+03,1.070845e+03
2.245701e+03,1.071499e+03
2.246666e+03,1.052990e+03
2.247630e+03,1.036847e+03
2.248594e+03,1.042752e+03
2.249558e+03,1.052570e+03
2.250522e+03,1.046266e+03
2.251487e+03,1.039093e+03
2.252451e+03,1.036419e+03
2.253415e+03,1.036570e+03
2.254379e+03,1.041625e+03
2.255344e+03,1.047754e+03
2.256308e+03,1.054862e+03
2.257272e+03,1.057770e+03
2.258236e+03,1.046053e+03
2.259201e+03,1.036543e+03
2.260165e+03,1.034177e+03
2.261129e+03,1.035471e+03
2.262093e+03,1.041449e+03
2.263058e+03,1.042634e+03
2.264022e+03,1.036578e+03
2.264986e+03,1.032184e+03
2.265950e+03,1.036835e+03
2.266915e+03,1.039235e+03
2.267879e+03,1.035111e+03
2.268843e+03,1.029201e+03
2.269807e+03,1.024189e+03
2.270771e+03,1.021172e+03
2.271736e+03,1.021717e+03
2.272700e+03,1.020194e+03
2.273664e+03,1.013070e+03
2.274628e+03,1.010833e+03
2.275593e+03,1.021636e+03
2.276557e+03,1.024662e+03
2.277521e+03,1.017448e+03
2.278485e+03,1.013052e+03
2.279449e+03,1.020390e+03
2.280414e+03,1.023160e+03
2.281378e+03,1.020424e+03
2.282342e+03,1.018864e+03
2.283306e+03,1.023931e+03
2.284271e+03,1.021380e+03
2.285235e+03,1.011828e+03
2.286199e+03,1.006872e+03
2.287163e+03,1.014582e+03
2.288128e+03,1.013937e+03
2.289092e+03,1.004925e+03
2.290056e+03,9.992166e+02
2.291020e+03,1.000006e+03
2.291985e+03,9.998065e+02
2.292949e+03,9.994155e+02
2.293913e+03,1.001631e+03
2.294877e+03,1.006219e+03
2.295842e+03,1.011830e+03
2.296806e+03,1.016977e+03
2.297770e+03,1.014097e+03
2.298734e+03,1.005143e+03
2.299698e+03,9.996239e+02
2.300663e+03,9.981357e+02
2.301627e+03,1.002443e+03
2.302591e+03,1.008092e+03
2.303555e+03,1.005218e+03
2.304520e+03,9.958135e+02
2.305484e+03,9.850771e+02
2.306448e+03,9.767254e+02
2.307412e+03,9.774794e+02
2.308376e+03,9.833672e+02
2.309341e+03,9.879017e+02
2.310305e+03,9.899919e+02
2.311269e+03,9.879289e+02
2.312233e+03,9.846459e+02
2.313198e+03,9.814661e+02
2.314162e+03,9.805663e+02
2.315126e+03,9.878984e+02
2.316090e+03,9.944108e+02
2.317055e+03,9.890551e+02
2.318019e+03,9.803515e+02
2.318983e+03,9.728517e+02
2.319947e+03,9.693703e+02
2.320912e+03,9.765912e+02
2.321876e+03,9.838531e+02
2.322840e+03,9.804405e+02
2.323804e+03,9.780754e+02
2.324769e+03,9.839595e+02
2.325733e+03,9.880229e+02
2.326697e+03,9.797593e+02
2.327661e+03,9.736317e+02
2.328625e+03,9.732525e+02
2.329590e+03,9.722762e+02
2.330554e+03,9.665394e+02
2.331518e+03,9.648897e+02
2.332482e+03,9.688046e+02
2.333447e+03,9.696622e+02
2.334411e+03,9.596638e+02
2.335375e+03,9.568046e+02
2.336339e+03,9.617464e+02
2.337303e+03,9.648785e+02
2.338268e+03,9.613174e+02
2.339232e+03,9.560900e+02
2.340196e+03,9.504183e+02
2.341160e+03,9.508757e+02
2.342125e+03,9.597563e+02
2.343089e+03,9.684579e+02
2.344053e+03,9.746113e+02
2.345017e+03,9.726550e+02
2.345982e+03,9.635782e+02
2.346946e+03,9.593324e+02
2.347910e+03,9.588723e+02
2.348874e+03,9.562584e+02
2.349839e+03,9.525560e+02
2.350803e+03,9.582042e+02
2.351767e+03,9.658736e+02
2.352731e+03,9.554209e+02
2.353696e+03,9.397361e+02
2.354660e+03,9.382924e+02
2.355624e+03,9.442614e+02
2.356588e+03,9.525740e+02
2.357552e+03,9.583287e+02
2.358517e+03,9.560204e+02
2.359481e+03,9.506387e+02
2.360445e+03,9.452270e+02
2.361409e+03,9.423534e+02
2.362374e+03,9.446622e+02
2.363338e+03,9.466439e+02
2.364302e+03,9.458771e+02
2.365266e+03,9.413031e+02
2.366230e+03,9.304686e+02
2.367195e+03,9.225319e+02
2.368159e+03,9.239898e+02
2.369123e+03,9.297089e+02
2.370087e+03,9.402626e+02
2.371052e+03,9.448111e+02
2.372016e+03,9.347982e+02
2.372980e+03,9.303065e+02
2.373944e+03,9.314619e+02
2.374909e+03,9.302353e+02
2.375873e+03,9.225308e+02
2.376837e+03,9.239915e+02
2.377801e+03,9.320495e+02
2.378766e+03,9.333930e+02
2.379730e+03,9.267604e+02
2.380694e+03,9.221879e+02
2.381658e+03,9.203488e+02
2.382623e+03,9.239982e+02
2.383587e+03,9.290873e+02
2.384551e+03,9.192031e+02
2.385515e+03,9.052380e+02
2.386479e+03,9.101404e+02
2.387444e+03,9.218477e+02
2.388408e+03,9.238008e+02
2.389372e+03,9.214573e+02
2.390336e+03,9.187252e+02
2.391301e+03,9.161174e+02
2.392265e+03,9.127072e+02
2.393229e+03,9.109319e+02
2.394193e+03,9.129413e+02
2.395157e+03,9.155089e+02
2.396122e+03,9.173460e+02
2.397086e+03,9.188743e+02
2.398050e+03,9.213885e+02
2.399014e+03,9.189789e+02
2.399979e+03,9.066912e+02
2.400943e+03,9.022900e+02
2.401907e+03,9.083195e+02
2.402871e+03,9.105844e+02
2.403836e+03,9.063204e+02
2.404800e+03,9.040490e+02
2.405764e+03,9.042471e+02
2.406728e+03,9.072355e+02
2.407693e+03,9.108243e+02
2.408657e+03,9.054948e+02
2.409621e+03,8.943828e+02
2.410585e+03,8.904763e+02
2.411550e+03,8.923292e+02
2.412514e+03,8.939503e+02
2.413478e+03,8.950280e+02
2.414442e+03,8.943748e+02
2.415406e+03,8.941708e+02
2.416371e+03,8.980512e+02
2.417335e+03,9.009916e+02
2.418299e+03,8.917128e+02
2.419263e+03,8.834538e+02
2.420228e+03,8.831168e+02
2.421192e+03,8.863929e+02
2.422156e+03,8.940590e+02
2.423120e+03,8.964481e+02
2.424084e+03,8.899113e+02
2.425049e+03,8.825577e+02
2.426013e+03,8.789457e+02
2.426977e+03,8.793485e+02
2.427941e+03,8.842106e+02
2.428906e+03,8.852234e+02
2.429870e+03,8.789395e+02
2.430834e+03,8.742558e+02
2.431798e+03,8.717643e+02
2.432763e+03,8.727496e+02
2.433727e+03,8.761254e+02
2.434691e+03,8.754456e+02
2.435655e+03,8.721359e+02
2.436620e+03,8.693294e+02
2.437584e+03,8.668947e+02
2.438548e+03,8.624073e+02
2.439512e+03,8.607096e+02
2.440477e+03,8.679690e+02
2.441441e+03,8.741179e+02
2.442405e+03,8.606193e+02
2.443369e+03,8.514892e+02
2.444333e+03,8.589970e+02
2.445298e+03,8.681675e+02
2.446262e+03,8.642341e+02
2.447226e+03,8.621572e+02
2.448190e+03,8.650438e+02
2.449155e+03,8.691922e+02
2.450119e+03,8.768890e+02
2.451083e+03,8.744138e+02
2.452047e+03,8.629021e+02
2.453011e+03,8.562679e+02
2.453976e+03,8.582810e+02
2.454940e+03,8.627715e+02
2.455904e+03,8.691599e+02
2.456868e+03,8.748622e+02
2.457833e+03,8.775860e+02
2.458797e+03,8.679860e+02
2.459761e+03,8.556025e+02
2.460725e+03,8.533429e+02
2.461690e+03,8.559473e+02
2.462654e+03,8.590184e+02
2.463618e+03,8.587875e+02
2.464582e+03,8.532274e+02
2.465547e+03,8.472552e+02
2.466511e+03,8.436171e+02
2.467475e+03,8.402010e+02
2.468439e+03,8.362404e+02
2.469404e+03,8.342902e+02
2.470368e+03,8.380258e+02
2.471332e+03,8.430186e+02
2.472296e+03,8.482820e+02
2.473260e+03,8.520659e+02
2.474225e+03,8.541097e+02
2.475189e+03,8.445488e+02
2.476153e+03,8.295746e+02
2.477117e+03,8.275780e+02
2.478082e+03,8.351842e+02
2.479046e+03,8.444673e+02
2.480010e+03,8.502472e+02
2.480974e+03,8.438397e+02
2.481938e+03,8.344055e+02
2.482903e+03,8.318974e+02
2.483867e+03,8.347072e+02
2.484831e+03,8.424986e+02
2.485795e+03,8.472186e+02
2.486760e+03,8.382576e+02
2.487724e+03,8.359464e+02
2.488688e+03,8.440822e+02
2.489652e+03,8.453104e+02
2.490617e+03,8.225770e+02
2.491581e+03,8.152718e+02
2.492545e+03,8.215687e+02
2.493509e+03,8.279592e+02
2.494474e+03,8.313305e+02
2.495438e+03,8.310018e+02
2.496402e+03,8.283425e+02
2.497366e+03,8.263613e+02
2.498331e+03,8.247754e+02
2.499295e+03,8.217687e+02
2.500259e+03,8.197813e+02
2.501223e+03,8.223411e+02
2.502188e+03,8.255451e+02
2.503152e+03,8.253613e+02
2.504116e+03,8.233912e+02
2.505080e+03,8.199459e+02
2.506044e+03,8.192882e+02
2.507009e+03,8.282377e+02
2.507973e+03,8.287974e+02
2.508937e+03,8.215084e+02
2.509901e+03,8.157549e+02
2.510865e+03,8.135071e+02
2.511830e+03,8.146322e+02
2.512794e+03,8.172338e+02
2.513758e+03,8.182015e+02
2.514722e+03,8.178224e+02
2.515687e+03,8.132595e+02
2.516651e+03,8.094053e+02
2.517615e+03,8.120159e+02
2.518579e+03,8.154689e+02
2.519544e+03,8.107403e+02
2.520508e+03,8.085629e+02
2.521472e+03,8.137010e+02
2.522436e+03,8.164916e+02
2.523401e+03,8.068459e+02
2.524365e+03,8.008891e+02
2.525329e+03,7.988952e+02
2.526293e+03,7.997261e+02
2.527258e+03,8.043665e+02
2.528222e+03,7.959922e+02
2.529186e+03,7.815405e+02
2.530150e+03,7.838424e+02
2.531115e+03,7.979134e+02
2.532079e+03,8.079904e+02
2.533043e+03,8.123356e+02
2.534007e+03,8.093605e+02
2.534971e+03,8.032557e+02
2.535936e+03,7.996059e+02
2.536900e+03,7.965720e+02
2.537864e+03,7.929891e+02
2.538828e+03,7.929700e+02
2.539792e+03,7.984996e+02
2.540757e+03,8.030204e+02
2.541721e+03,8.055958e+02
2.542685e+03,8.055178e+02
2.543649e+03,8.035541e+02
2.544614e+03,7.999026e+02
2.545578e+03,7.949459e+02
2.546542e+03,7.908539e+02
2.547506e+03,7.884669e+02
2.548471e+03,7.890950e+02
2.549435e+03,7.926205e+02
2.550399e+03,8.013826e+02
2.551363e+03,8.072471e+02
2.552328e+03,8.014423e+02
2.553292e+03,7.983380e+02
2.554256e+03,8.043632e+02
2.555220e+03,8.044561e+02
2.556185e+03,7.959842e+02
2.557149e+03,7.870589e+02
2.558113e+03,7.795479e+02
2.559077e+03,7.769224e+02
2.560042e+03,7.783860e+02
2.561006e+03,7.875026e+02
2.561970e+03,7.975427e+02
2.562934e+03,7.890768e+02
2.563898e+03,7.766508e+02
2.564863e+03,7.780019e+02
2.565827e+03,7.807816e+02
2.566791e+03,7.758933e+02
2.567755e+03,7.737675e+02
2.568719e+03,7.759209e+02
2.569684e+03,7.777479e+02
2.570648e+03,7.770215e+02
2.571612e+03,7.808063e+02
2.572576e+03,7.882315e+02
2.573541e+03,7.877575e+02
2.574505e+03,7.793793e+02
2.575469e+03,7.744178e+02
2.576433e+03,7.715858e+02
2.577398e+03,7.699592e+02
2.578362e+03,7.693474e+02
2.579326e+03,7.709720e+02
2.580290e+03,7.722930e+02
2.581255e+03,7.723918e+02
2.582219e+03,7.682831e+02
2.583183e+03,7.517010e+02
2.584147e+03,7.464697e+02
2.585112e+03,7.537355e+02
2.586076e+03,7.580881e+02
2.587040e+03,7.567780e+02
2.588004e+03,7.630017e+02
2.588969e+03,7.694675e+02
2.589933e+03,7.605276e+02
2.590897e+03,7.456104e+02
2.591861e+03,7.431509e+02
2.592825e+03,7.464749e+02
2.593790e+03,7.519630e+02
2.594754e+03,7.551340e+02
2.595718e+03,7.516582e+02
2.596682e+03,7.503203e+02
2.597646e+03,7.526251e+02
2.598611e+03,7.505992e+02
2.599575e+03,7.450555e+02
2.600539e+03,7.492701e+02
2.601503e+03,7.604612e+02
2.602468e+03,7.643301e+02
2.603432e+03,7.613000e+02
2.604396e+03,7.473426e+02
2.605360e+03,7.346777e+02
2.606325e+03,7.359703e+02
2.607289e+03,7.375547e+02
2.608253e+03,7.328240e+02
2.609217e+03,7.321399e+02
2.610182e+03,7.426037e+02
2.611146e+03,7.406722e+02
2.612110e+03,7.282162e+02
2.613074e+03,7.249306e+02
2.614039e+03,7.321768e+02
2.615003e+03,7.400748e+02
2.615967e+03,7.456418e+02
2.616931e+03,7.463437e+02
2.617896e+03,7.436094e+02
2.618860e+03,7.353097e+02
2.619824e+03,7.290720e+02
2.620788e+03,7.273402e+02
2.621752e+03,7.271315e+02
2.622717e+03,7.278464e+02
2.623681e+03,7.281945e+02
2.624645e+03,7.283480e+02
2.625609e+03,7.330671e+02
2.626573e+03,7.409952e+02
2.627538e+03,7.405136e+02
2.628502e+03,7.370327e+02
2.629466e+03,7.382957e+02
2.630430e+03,7.409233e+02
2.631395e+03,7.411248e+02
2.632359e+03,7.389265e+02
2.633323e+03,7.333285e+02
2.634287e+03,7.308212e+02
2.635252e+03,7.330076e+02
2.636216e+03,7.298643e+02
2.637180e+03,7.202465e+02
2.638144e+03,7.234822e+02
2.639109e+03,7.336881e+02
2.640073e+03,7.360287e+02
2.641037e+03,7.341110e+02
2.642001e+03,7.297639e+02
2.642966e+03,7.251312e+02
2.643930e+03,7.209195e+02
2.644894e+03,7.193810e+02
2.645858e+03,7.242415e+02
2.646823e+03,7.289457e+02
2.647787e+03,7.321678e+02
2.648751e+03,7.300426e+02
2.649715e+03,7.226824e+02
2.650679e+03,7.155082e+02
2.651644e+03,7.095831e+02
2.652608e+03,7.051922e+02
2.653572e+03,7.041305e+02
2.654536e+03,7.145799e+02
2.655500e+03,7.208879e+02
2.656465e+03,7.166516e+02
2.657429e+03,7.116345e+02
2.658393e+03,7.082203e+02
2.659357e+03,7.125742e+02
2.660322e+03,7.241789e+02
2.661286e+03,7.244935e+02
2.662250e+03,7.177292e+02
2.663214e+03,7.186092e+02
2.664179e+03,7.196868e+02
2.665143e+03,7.077314e+02
2.666107e+03,6.994969e+02
2.667071e+03,7.040062e+02
2.668036e+03,7.099587e+02
2.669000e+03,7.119300e+02
2.669964e+03,7.095316e+02
2.670928e+03,7.038110e+02
2.671893e+03,7.002793e+02
2.672857e+03,7.003515e+02
2.673821e+03,7.105661e+02
2.674785e+03,7.189384e+02
2.675750e+03,7.123618e+02
2.676714e+03,7.030250e+02
2.677678e+03,7.053174e+02
2.678642e+03,7.046986e+02
2.679606e+03,6.979403e+02
2.680571e+03,6.956934e+02
2.681535e+03,6.992322e+02
2.682499e+03,7.058895e+02
2.683463e+03,7.116934e+02
2.684427e+03,7.053613e+02
2.685392e+03,6.954591e+02
2.686356e+03,6.991446e+02
2.687320e+03,7.020699e+02
2.688284e+03,6.920816e+02
2.689249e+03,6.862171e+02
2.690213e+03,6.877125e+02
2.691177e+03,6.822220e+02
2.692141e+03,6.644816e+02
2.693106e+03,6.731044e+02
2.694070e+03,6.945639e+02
2.695034e+03,6.935402e+02
2.695998e+03,6.824000e+02
2.696963e+03,6.799388e+02
2.697927e+03,6.856764e+02
2.698891e+03,6.994736e+02
2.699855e+03,7.067208e+02
2.700820e+03,6.993636e+02
2.701784e+03,6.935457e+02
2.702748e+03,6.906959e+02
2.703712e+03,6.920278e+02
2.704677e+03,6.948824e+02
2.705641e+03,6.909365e+02
2.706605e+03,6.862495e+02
2.707569e+03,6.856212e+02
2.708533e+03,6.883821e+02
2.709498e+03,6.944658e+02
2.710462e+03,6.955478e+02
2.711426e+03,6.863873e+02
2.712390e+03,6.793157e+02
2.713354e+03,6.752342e+02
2.714319e+03,6.807714e+02
2.715283e+03,6.893065e+02
2.716247e+03,6.838259e+02
2.717211e+03,6.766442e+02
2.718176e+03,6.769633e+02
2.719140e+03,6.778557e+02
2.720104e+03,6.725778e+02
2.721068e+03,6.768431e+02
2.722033e+03,6.911127e+02
2.722997e+03,6.912618e+02
2.723961e+03,6.800170e+02
2.724925e+03,6.721251e+02
2.725890e+03,6.685861e+02
2.726854e+03,6.710633e+02
2.727818e+03,6.742214e+02
2.728782e+03,6.740684e+02
2.729747e+03,6.742503e+02
2.730711e+03,6.778966e+02
2.731675e+03,6.768759e+02
2.732639e+03,6.733508e+02
2.733604e+03,6.800888e+02
2.734568e+03,6.902812e+02
2.735532e+03,6.815631e+02
2.736496e+03,6.694384e+02
2.737460e+03,6.655399e+02
2.738425e+03,6.670405e+02
2.739389e+03,6.740656e+02
2.740353e+03,6.732080e+02
2.741317e+03,6.636433e+02
2.742281e+03,6.629139e+02
2.743246e+03,6.691026e+02
2.744210e+03,6.733775e+02
2.745174e+03,6.748503e+02
2.746138e+03,6.750091e+02
2.747103e+03,6.713713e+02
2.748067e+03,6.637369e+02
2.749031e+03,6.563947e+02
2.749995e+03,6.489356e+02
2.750960e+03,6.529988e+02
2.751924e+03,6.644050e+02
2.752888e+03,6.699171e+02
2.753852e+03,6.698464e+02
2.754817e+03,6.631077e+02
2.755781e+03,6.569078e+02
2.756745e+03,6.550079e+02
2.757709e+03,6.549222e+02
2.758674e+03,6.549066e+02
2.759638e+03,6.576296e+02
2.760602e+03,6.631386e+02
2.761566e+03,6.653085e+02
2.762531e+03,6.638146e+02
2.763495e+03,6.529202e+02
2.764459e+03,6.453605e+02
2.765423e+03,6.616666e+02
2.766387e+03,6.720488e+02
2.767352e+03,6.708036e+02
2.768316e+03,6.646635e+02
2.769280e+03,6.556530e+02
2.770244e+03,6.502806e+02
2.771208e+03,6.490147e+02
2.772173e+03,6.508556e+02
2.773137e+03,6.533616e+02
2.774101e+03,6.569656e+02
2.775065e+03,6.541297e+02
2.776030e+03,6.378389e+02
2.776994e+03,6.327355e+02
2.777958e+03,6.382548e+02
2.778922e+03,6.461937e+02
2.779887e+03,6.532279e+02
2.780851e+03,6.501778e+02
2.781815e+03,6.471683e+02
2.782779e+03,6.521783e+02
2.783744e+03,6.579280e+02
2.784708e+03,6.604434e+02
2.785672e+03,6.549880e+02
2.786636e+03,6.430745e+02
2.787601e+03,6.405010e+02
2.788565e+03,6.440195e+02
2.789529e+03,6.414587e+02
2.790493e+03,6.396532e+02
2.791458e+03,6.484172e+02
2.792422e+03,6.495515e+02
2.793386e+03,6.405828e+02
2.794350e+03,6.341910e+02
2.795314e+03,6.332078e+02
2.796279e+03,6.394036e+02
2.797243e+03,6.466940e+02
2.798207e+03,6.465558e+02
2.799171e+03,6.443650e+02
2.800135e+03,6.463455e+02
2.801100e+03,6.463759e+02
2.802064e+03,6.434124e+02
2.803028e+03,6.365658e+02
2.803992e+03,6.277277e+02
2.804957e+03,6.274375e+02
2.805921e+03,6.319500e+02
2.806885e+03,6.330241e+02
2.807849e+03,6.348079e+02
2.808814e+03,6.393949e+02
2.809778e+03,6.434201e+02
2.810742e+03,6.464050e+02
2.811706e+03,6.428068e+02
2.812671e+03,6.339853e+02
2.813635e+03,6.267550e+02
2.814599e+03,6.219904e+02
2.815563e+03,6.253912e+02
2.816528e+03,6.250070e+02
2.817492e+03,6.118848e+02
2.818456e+03,6.062548e+02
2.819420e+03,6.092244e+02
2.820385e+03,6.161985e+02
2.821349e+03,6.248094e+02
2.822313e+03,6.288967e+02
2.823277e+03,6.280974e+02
2.824241e+03,6.220817e+02
2.825206e+03,6.168376e+02
2.826170e+03,6.161400e+02
2.827134e+03,6.210615e+02
2.828098e+03,6.296617e+02
2.829063e+03,6.311429e+02
2.830027e+03,6.269905e+02
2.830991e+03,6.181223e+02
2.831955e+03,6.127004e+02
2.832919e+03,6.173851e+02
2.833884e+03,6.257354e+02
2.834848e+03,6.353477e+02
2.835812e+03,6.349495e+02
2.836776e+03,6.255713e+02
2.837741e+03,6.152424e+02
2.838705e+03,6.099912e+02
2.839669e+03,6.161012e+02
2.840633e+03,6.252080e+02
2.841598e+03,6.330623e+02
2.842562e+03,6.397402e+02
2.843526e+03,6.449258e+02
2.844490e+03,6.335773e+02
2.845455e+03,6.174135e+02
2.846419e+03,6.196932e+02
2.847383e+03,6.276908e+02
2.848347e+03,6.285165e+02
2.849312e+03,6.292852e+02
2.850276e+03,6.312383e+02
2.851240e+03,6.371658e+02
2.852204e+03,6.440558e+02
2.853168e+03,6.373223e+02
2.854133e+03,6.259176e+02
2.855097e+03,6.199152e+02
2.856061e+03,6.196308e+02
2.857025e+03,6.233748e+02
2.857990e+03,6.243494e+02
2.858954e+03,6.207236e+02
2.859918e+03,6.177609e+02
2.860882e+03,6.195266e+02
2.861846e+03,6.331185e+02
2.862811e+03,6.461825e+02
2.863775e+03,6.489072e+02
2.864739e+03,6.375336e+02
2.865703e+03,6.093436e+02
2.866668e+03,6.076112e+02
2.867632e+03,6.234805e+02
2.868596e+03,6.312244e+02
2.869560e+03,6.331711e+02
2.870525e+03,6.304387e+02
2.871489e+03,6.316185e+02
2.872453e+03,6.384407e+02
2.873417e+03,6.294143e+02
2.874382e+03,6.081870e+02
2.875346e+03,6.215724e+02
2.876310e+03,6.426631e+02
2.877274e+03,6.222340e+02
2.878239e+03,6.068822e+02
2.879203e+03,6.135908e+02
2.880167e+03,6.199801e+02
2.881131e+03,6.201484e+02
2.882095e+03,6.248900e+02
2.883060e+03,6.299869e+02
2.884024e+03,6.281483e+02
2.884988e+03,6.243184e+02
2.885952e+03,6.222147e+02
2.886917e+03,6.222960e+02
2.887881e+03,6.254452e+02
2.888845e+03,6.219793e+02
2.889809e+03,6.171935e+02
2.890773e+03,6.235455e+02
2.891738e+03,6.330217e+02
2.892702e+03,6.431438e+02
2.893666e+03,6.412670e+02
2.894630e+03,6.264067e+02
2.895595e+03,6.272206e+02
2.896559e+03,6.388234e+02
2.897523e+03,6.274459e+02
2.898487e+03,6.143635e+02
2.899452e+03,6.289874e+02
2.900416e+03,6.348180e+02
2.901380e+03,6.242966e+02
2.902344e+03,6.196390e+02
2.903309e+03,6.236291e+02
2.904273e+03,6.250918e+02
2.905237e+03,6.244327e+02
2.906201e+03,6.216752e+02
2.907166e+03,6.206564e+02
2.908130e+03,6.230800e+02
2.909094e+03,6.217805e+02
2.910058e+03,6.162194e+02
2.911022e+03,6.170290e+02
2.911987e+03,6.191535e+02
2.912951e+03,6.167318e+02
2.913915e+03,6.110370e+02
2.914879e+03,6.014943e+02
2.915844e+03,5.912650e+02
2.916808e+03,5.841926e+02
2.917772e+03,5.981603e+02
2.918736e+03,6.167611e+02
2.919700e+03,6.123854e+02
2.920665e+03,6.066052e+02
2.921629e+03,6.199943e+02
2.922593e+03,6.133220e+02
2.923557e+03,5.919386e+02
2.924522e+03,5.904537e+02
2.925486e+03,5.985941e+02
2.926450e+03,5.886161e+02
2.927414e+03,5.794872e+02
2.928379e+03,5.796413e+02
2.929343e+03,5.859584e+02
2.930307e+03,5.942242e+02
2.931271e+03,5.828077e+02
2.932236e+03,5.679276e+02
2.933200e+03,5.862189e+02
2.934164e+03,5.985732e+02
2.935128e+03,5.881757e+02
2.936093e+03,5.807831e+02
2.937057e+03,5.806751e+02
2.938021e+03,5.874211e+02
2.938985e+03,5.925620e+02
2.939949e+03,5.750231e+02
2.940914e+03,5.662735e+02
2.941878e+03,5.765936e+02
2.942842e+03,5.749352e+02
2.943806e+03,5.571443e+02
2.944771e+03,5.680484e+02
2.945735e+03,5.899643e+02
2.946699e+03,6.011205e+02
2.947663e+03,6.009916e+02
2.948627e+03,5.906716e+02
2.949592e+03,5.859742e+02
2.950556e+03,5.899286e+02
2.951520e+03,5.949687e+02
2.952484e+03,5.982239e+02
2.953449e+03,5.982167e+02
2.954413e+03,5.938096e+02
2.955377e+03,5.851611e+02
2.956341e+03,5.875543e+02
2.957306e+03,6.015151e+02
2.958270e+03,6.231515e+02
2.959234e+03,6.317949e+02
2.960198e+03,6.132109e+02
2.961163e+03,5.963958e+02
2.962127e+03,5.936472e+02
2.963091e+03,5.859831e+02
2.964055e+03,5.770221e+02
2.965020e+03,5.886378e+02
2.965984e+03,5.970071e+02
2.966948e+03,5.828170e+02
2.967912e+03,5.724107e+02
2.968876e+03,5.790126e+02
2.969841e+03,5.742992e+02
2.970805e+03,5.653954e+02
2.971769e+03,5.708779e+02
2.972733e+03,5.684631e+02
2.973698e+03,5.390095e+02
2.974662e+03,5.259213e+02
2.975626e+03,5.420261e+02
2.976590e+03,5.504801e+02
2.977554e+03,5.549768e+02
2.978519e+03,5.617426e+02
2.979483e+03,5.610793e+02
2.980447e+03,5.431839e+02
2.981411e+03,5.451154e+02
2.982376e+03,5.691796e+02
2.983340e+03,5.848349e+02
2.984304e+03,5.854283e+02
2.985268e+03,5.635953e+02
2.986233e+03,5.490740e+02
2.987197e+03,5.622388e+02
2.988161e+03,5.586885e+02
2.989125e+03,5.463259e+02
2.990090e+03,5.590640e+02
2.991054e+03,5.714720e+02
2.992018e+03,5.624661e+02
2.992982e+03,5.525519e+02
2.993947e+03,5.494730e+02
2.994911e+03,5.534612e+02
2.995875e+03,5.597657e+02
2.996839e+03,5.577399e+02
2.997803e+03,5.592169e+02
2.998768e+03,5.740399e+02
2.999732e+03,5.695078e+02
3.000696e+03,5.431531e+02
3.001660e+03,5.485190e+02
3.002625e+03,5.579481e+02
3.003589e+03,5.423953e+02
3.004553e+03,5.339044e+02
3.005517e+03,5.490496e+02
3.006481e+03,5.505668e+02
3.007446e+03,5.409232e+02
3.008410e+03,5.476495e+02
3.009374e+03,5.536840e+02
3.010338e+03,5.487354e+02
3.011303e+03,5.502354e+02
3.012267e+03,5.628320e+02
3.013231e+03,5.550087e+02
3.014195e+03,5.392746e+02
3.015160e+03,5.388071e+02
3.016124e+03,5.419818e+02
3.017088e+03,5.435034e+02
3.018052e+03,5.520631e+02
3.019017e+03,5.651279e+02
3.019981e+03,5.515972e+02
3.020945e+03,5.375012e+02
3.021909e+03,5.466453e+02
3.022874e+03,5.539781e+02
3.023838e+03,5.532546e+02
3.024802e+03,5.422936e+02
3.025766e+03,5.291567e+02
3.026730e+03,5.324453e+02
3.027695e+03,5.406871e+02
3.028659e+03,5.489890e+02
3.029623e+03,5.500494e+02
3.030587e+03,5.464767e+02
3.031552e+03,5.566238e+02
3.032516e+03,5.659137e+02
3.033480e+03,5.603577e+02
3.034444e+03,5.349960e+02
3.035408e+03,4.958271e+02
3.036373e+03,4.988216e+02
3.037337e+03,5.291031e+02
3.038301e+03,5.482764e+02
3.039265e+03,5.586277e+02
3.040230e+03,5.563073e+02
3.041194e+03,5.538400e+02
3.042158e+03,5.485274e+02
3.043122e+03,5.237839e+02
3.044087e+03,5.019490e+02
3.045051e+03,5.174857e+02
3.046015e+03,5.339299e+02
3.046979e+03,5.422158e+02
3.047944e+03,5.403811e+02
3.048908e+03,5.363678e+02
3.049872e+03,5.420981e+02
3.050836e+03,5.468729e+02
3.051801e+03,5.422723e+02
3.052765e+03,5.453857e+02
3.053729e+03,5.529510e+02
3.054693e+03,5.391946e+02
3.055657e+03,5.295354e+02
3.056622e+03,5.410585e+02
3.057586e+03,5.477420e+02
3.058550e+03,5.419472e+02
3.059514e+03,5.324984e+02
3.060479e+03,5.259762e+02
3.061443e+03,5.336954e+02
3.062407e+03,5.396383e+02
3.063371e+03,5.393671e+02
3.064335e+03,5.340048e+02
3.065300e+03,5.264705e+02
3.066264e+03,5.212734e+02
3.067228e+03,5.236263e+02
3.068192e+03,5.410977e+02
3.069157e+03,5.338481e+02
3.070121e+03,5.091754e+02
3.071085e+03,5.152377e+02
3.072049e+03,5.330090e+02
3.073014e+03,5.370768e+02
3.073978e+03,5.364365e+02
3.074942e+03,5.328107e+02
3.075906e+03,5.410094e+02
3.076871e+03,5.467908e+02
3.077835e+03,5.242706e+02
3.078799e+03,5.107024e+02
3.079763e+03,5.335262e+02
3.080728e+03,5.507363e+02
3.081692e+03,5.553408e+02
3.082656e+03,5.338069e+02
3.083620e+03,5.169274e+02
3.084584e+03,5.216042e+02
3.085549e+03,5.235345e+02
3.086513e+03,5.179896e+02
3.087477e+03,5.294698e+02
3.088441e+03,5.420796e+02
3.089406e+03,5.391994e+02
3.090370e+03,5.352791e+02
3.091334e+03,5.336802e+02
3.092298e+03,5.317506e+02
3.093262e+03,5.303438e+02
3.094227e+03,5.329799e+02
3.095191e+03,5.363723e+02
3.096155e+03,5.396076e+02
3.097119e+03,5.298513e+02
3.098084e+03,5.143118e+02
3.099048e+03,5.045322e+02
3.100012e+03,5.063335e+02
3.100976e+03,5.295575e+02
3.101941e+03,5.374154e+02
3.102905e+03,5.301556e+02
3.103869e+03,5.360955e+02
3.104833e+03,5.371796e+02
3.105798e+03,5.225256e+02
3.106762e+03,5.195916e+02
3.107726e+03,5.327832e+02
3.108690e+03,5.276868e+02
3.109655e+03,5.203866e+02
3.110619e+03,5.403389e+02
3.111583e+03,5.358779e+02
3.112547e+03,5.073676e+02
3.113511e+03,5.135656e+02
3.114476e+03,5.330341e+02
3.115440e+03,5.051509e+02
3.116404e+03,4.911551e+02
3.117368e+03,5.192975e+02
3.118333e+03,5.196779e+02
3.119297e+03,5.101772e+02
3.120261e+03,5.246750e+02
3.121225e+03,5.393604e+02
3.122189e+03,5.404287e+02
3.123154e+03,5.400487e+02
3.124118e+03,5.392389e+02
3.125082e+03,5.375203e+02
3.126046e+03,5.380715e+02
3.127011e+03,5.418074e+02
3.127975e+03,5.446396e+02
3.128939e+03,5.459324e+02
3.129903e+03,5.500271e+02
3.130868e+03,5.458147e+02
3.131832e+03,5.052940e+02
3.132796e+03,5.055428e+02
3.133760e+03,5.373358e+02
3.134725e+03,5.234706e+02
3.135689e+03,4.998924e+02
3.136653e+03,5.020938e+02
3.137617e+03,5.163841e+02
3.138582e+03,5.392215e+02
3.139546e+03,5.327806e+02
3.140510e+03,5.150446e+02
3.141474e+03,5.061079e+02
3.142438e+03,5.017021e+02
3.143403e+03,5.002458e+02
3.144367e+03,5.082951e+02
3.145331e+03,5.188476e+02
3.146295e+03,5.198376e+02
3.147260e+03,5.208002e+02
3.148224e+03,5.238314e+02
3.149188e+03,5.438699e+02
3.150152e+03,5.609299e+02
3.151116e+03,5.478956e+02
3.152081e+03,5.410974e+02
3.153045e+03,5.553826e+02
3.154009e+03,5.628727e+02
3.154973e+03,5.601508e+02
3.155938e+03,5.368410e+02
3.156902e+03,5.219955e+02
3.157866e+03,5.213289e+02
3.158830e+03,5.093057e+02
3.159795e+03,4.960755e+02
3.160759e+03,5.190458e+02
3.161723e+03,5.332573e+02
3.162687e+03,5.064391e+02
3.163652e+03,4.889839e+02
3.164616e+03,4.876427e+02
3.165580e+03,5.143639e+02
3.166544e+03,5.289593e+02
3.167509e+03,5.172098e+02
3.168473e+03,5.039492e+02
3.169437e+03,4.948844e+02
3.170401e+03,4.963603e+02
3.171365e+03,5.031979e+02
3.172330e+03,5.138623e+02
3.173294e+03,5.156953e+02
3.174258e+03,5.125720e+02
3.175222e+03,5.133591e+02
3.176187e+03,5.145307e+02
3.177151e+03,5.152082e+02
3.178115e+03,5.082579e+02
3.179079e+03,5.017397e+02
3.180043e+03,5.212265e+02
3.181008e+03,5.441259e+02
3.181972e+03,5.611295e+02
3.182936e+03,5.436887e+02
3.183900e+03,5.111212e+02
3.184865e+03,5.278186e+02
3.185829e+03,5.459479e+02
3.186793e+03,5.406311e+02
3.187757e+03,5.170961e+02
3.188722e+03,4.957577e+02
3.189686e+03,5.259385e+02
3.190650e+03,5.377701e+02
3.191614e+03,5.073485e+02
3.192579e+03,5.166878e+02
3.193543e+03,5.502606e+02
3.194507e+03,5.343618e+02
3.195471e+03,5.132784e+02
3.196436e+03,5.034024e+02
3.197400e+03,5.018267e+02
3.198364e+03,5.070063e+02
3.199328e+03,5.174846e+02
3.200292e+03,5.313133e+02
3.201257e+03,0.000000e+00
3.202221e+03,0.000000e+00
3.203185e+03,0.000000e+00
3.204149e+03,0.000000e+00
3.205114e+03,0.000000e+00
3.206078e+03,0.000000e+00
3.207042e+03,0.000000e+00
3.208006e+03,0.000000e+00
3.208970e+03,0.000000e+00
3.209935e+03,0.000000e+00
3.210899e+03,0.000000e+00
3.211863e+03,0.000000e+00
3.212827e+03,0.000000e+00
3.213792e+03,0.000000e+00
3.214756e+03,0.000000e+00
3.215720e+03,0.000000e+00
3.216684e+03,0.000000e+00
3.217649e+03,0.000000e+00
3.218613e+03,0.000000e+00
3.219577e+03,0.000000e+00
3.220541e+03,0.000000e+00
3.221506e+03,0.000000e+00
3.222470e+03,0.000000e+00
3.223434e+03,0.000000e+00
3.224398e+03,0.000000e+00
3.225363e+03,0.000000e+00
3.226327e+03,0.000000e+00
3.227291e+03,0.000000e+00
3.228255e+03,0.000000e+00
3.229219e+03,0.000000e+00
3.230184e+03,0.000000e+00
3.231148e+03,0.000000e+00
3.232112e+03,0.000000e+00
3.233076e+03,0.000000e+00
3.234041e+03,0.000000e+00
3.235005e+03,0.000000e+00
3.235969e+03,0.000000e+00
3.236933e+03,0.000000e+00
3.237897e+03,0.000000e+00
3.238862e+03,0.000000e+00
3.239826e+03,0.000000e+00
3.240790e+03,0.000000e+00
3.241754e+03,0.000000e+00
3.242719e+03,0.000000e+00
3.243683e+03,0.000000e+00
3.244647e+03,0.000000e+00
3.245611e+03,0.000000e+00
3.246576e+03,0.000000e+00
3.247540e+03,0.000000e+00
3.248504e+03,0.000000e+00
3.249468e+03,0.000000e+00
3.250433e+03,0.000000e+00
3.251397e+03,0.000000e+00
3.252361e+03,0.000000e+00
3.253325e+03,0.000000e+00
3.254290e+03,0.000000e+00
3.255254e+03,0.000000e+00
3.256218e+03,0.000000e+00
3.257182e+03,0.000000e+00
3.258146e+03,0.000000e+00
3.259111e+03,0.000000e+00
3.260075e+03,0.000000e+00
3.261039e+03,0.000000e+00
3.262003e+03,0.000000e+00
3.262968e+03,0.000000e+00
3.263932e+03,0.000000e+00
3.264896e+03,0.000000e+00
3.265860e+03,0.000000e+00
3.266824e+03,0.000000e+00
3.267789e+03,0.000000e+00
3.268753e+03,0.000000e+00
3.269717e+03,0.000000e+00
3.270681e+03,0.000000e+00
3.271646e+03,0.000000e+00
3.272610e+03,0.000000e+00
3.273574e+03,0.000000e+00
3.274538e+03,0.000000e+00
3.275503e+03,0.000000e+00
3.276467e+03,0.000000e+00
3.277431e+03,0.000000e+00
3.278395e+03,0.000000e+00
3.279360e+03,0.000000e+00
3.280324e+03,0.000000e+00
3.281288e+03,0.000000e+00
3.282252e+03,0.000000e+00
3.283217e+03,0.000000e+00
3.284181e+03,0.000000e+00
3.285145e+03,0.000000e+00
3.286109e+03,0.000000e+00
3.287073e+03,0.000000e+00
3.288038e+03,0.000000e+00
3.289002e+03,0.000000e+00
3.289966e+03,0.000000e+00
3.290930e+03,0.000000e+00
3.291895e+03,0.000000e+00
3.292859e+03,0.000000e+00
3.293823e+03,0.000000e+00
3.294787e+03,0.000000e+00
3.295751e+03,0.000000e+00
3.296716e+03,0.000000e+00
3.297680e+03,0.000000e+00
3.298644e+03,0.000000e+00
3.299608e+03,0.000000e+00
3.300573e+03,0.000000e+00
3.301537e+03,0.000000e+00
3.302501e+03,0.000000e+00
3.303465e+03,0.000000e+00
3.304430e+03,0.000000e+00
3.305394e+03,0.000000e+00
3.306358e+03,0.000000e+00
3.307322e+03,0.000000e+00
3.308287e+03,0.000000e+00
3.309251e+03,0.000000e+00
3.310215e+03,0.000000e+00
3.311179e+03,0.000000e+00
3.312144e+03,0.000000e+00
3.313108e+03,0.000000e+00
3.314072e+03,0.000000e+00
3.315036e+03,0.000000e+00
3.316000e+03,0.000000e+00
3.316965e+03,0.000000e+00
3.317929e+03,0.000000e+00
3.318893e+03,0.000000e+00
3.319857e+03,0.000000e+00
3.320822e+03,0.000000e+00
3.321786e+03,0.000000e+00
3.322750e+03,0.000000e+00
3.323714e+03,0.000000e+00
3.324678e+03,0.000000e+00
3.325643e+03,0.000000e+00
3.326607e+03,0.000000e+00
3.327571e+03,0.000000e+00
3.328535e+03,0.000000e+00
3.329500e+03,0.000000e+00
3.330464e+03,0.000000e+00
3.331428e+03,0.000000e+00
3.332392e+03,0.000000e+00
3.333357e+03,0.000000e+00
3.334321e+03,0.000000e+00
3.335285e+03,0.000000e+00
3.336249e+03,0.000000e+00
3.337214e+03,0.000000e+00
3.338178e+03,0.000000e+00
3.339142e+03,0.000000e+00
3.340106e+03,0.000000e+00
3.341071e+03,0.000000e+00
3.342035e+03,0.000000e+00
3.342999e+03,0.000000e+00
3.343963e+03,0.000000e+00
3.344927e+03,0.000000e+00
3.345892e+03,0.000000e+00
3.346856e+03,0.000000e+00
3.347820e+03,0.000000e+00
3.348784e+03,0.000000e+00
3.349749e+03,0.000000e+00
3.350713e+03,0.000000e+00
3.351677e+03,0.000000e+00
3.352641e+03,0.000000e+00
3.353605e+03,0.000000e+00
3.354570e+03,0.000000e+00
3.355534e+03,0.000000e+00
3.356498e+03,0.000000e+00
3.357462e+03,0.000000e+00
3.358427e+03,0.000000e+00
3.359391e+03,0.000000e+00
3.360355e+03,0.000000e+00
3.361319e+03,0.000000e+00
3.362284e+03,0.000000e+00
3.363248e+03,0.000000e+00
3.364212e+03,0.000000e+00
3.365176e+03,0.000000e+00
3.366141e+03,0.000000e+00
3.367105e+03,0.000000e+00
3.368069e+03,0.000000e+00
3.369033e+03,0.000000e+00
3.369998e+03,0.000000e+00
3.370962e+03,0.000000e+00
3.371926e+03,0.000000e+00
3.372890e+03,0.000000e+00
3.373854e+03,0.000000e+00
3.374819e+03,0.000000e+00
3.375783e+03,0.000000e+00
3.376747e+03,0.000000e+00
3.377711e+03,0.000000e+00
3.378676e+03,0.000000e+00
3.379640e+03,0.000000e+00
3.380604e+03,0.000000e+00
3.381568e+03,0.000000e+00
3.382532e+03,0.000000e+00
3.383497e+03,0.000000e+00
3.384461e+03,0.000000e+00
3.385425e+03,0.000000e+00
3.386389e+03,0.000000e+00
3.387354e+03,0.000000e+00
3.388318e+03,0.000000e+00
3.389282e+03,0.000000e+00
3.390246e+03,0.000000e+00
3.391211e+03,0.000000e+00
3.392175e+03,0.000000e+00
3.393139e+03,0.000000e+00
3.394103e+03,0.000000e+00
3.395068e+03,0.000000e+00
3.396032e+03,0.000000e+00
3.396996e+03,0.000000e+00
3.397960e+03,0.000000e+00
3.398925e+03,0.000000e+00
3.399889e+03,0.000000e+00
3.400853e+03,0.000000e+00
3.401817e+03,0.000000e+00
3.402781e+03,0.000000e+00
3.403746e+03,0.000000e+00
3.404710e+03,0.000000e+00
3.405674e+03,0.000000e+00
3.406638e+03,0.000000e+00
3.407603e+03,0.000000e+00
3.408567e+03,0.000000e+00
3.409531e+03,0.000000e+00
3.410495e+03,0.000000e+00
3.411459e+03,0.000000e+00
3.412424e+03,0.000000e+00
3.413388e+03,0.000000e+00
3.414352e+03,0.000000e+00
3.415316e+03,0.000000e+00
3.416281e+03,0.000000e+00
3.417245e+03,0.000000e+00
3.418209e+03,0.000000e+00
3.419173e+03,0.000000e+00
3.420138e+03,0.000000e+00
3.421102e+03,0.000000e+00
3.422066e+03,0.000000e+00
3.423030e+03,0.000000e+00
3.423995e+03,0.000000e+00
3.424959e+03,0.000000e+00
3.425923e+03,0.000000e+00
3.426887e+03,0.000000e+00
3.427852e+03,0.000000e+00
3.428816e+03,0.000000e+00
3.429780e+03,0.000000e+00
3.430744e+03,0.000000e+00
3.431708e+03,0.000000e+00
3.432673e+03,0.000000e+00
3.433637e+03,0.000000e+00
3.434601e+03,0.000000e+00
3.435565e+03,0.000000e+00
3.436530e+03,0.000000e+00
3.437494e+03,0.000000e+00
3.438458e+03,0.000000e+00
3.439422e+03,0.000000e+00
3.440386e+03,0.000000e+00
3.441351e+03,0.000000e+00
3.442315e+03,0.000000e+00
3.443279e+03,0.000000e+00
3.444243e+03,0.000000e+00
3.445208e+03,0.000000e+00
3.446172e+03,0.000000e+00
3.447136e+03,0.000000e+00
3.448100e+03,0.000000e+00
3.449065e+03,0.000000e+00
3.450029e+03,0.000000e+00
3.450993e+03,0.000000e+00
3.451957e+03,0.000000e+00
3.452922e+03,0.000000e+00
3.453886e+03,0.000000e+00
3.454850e+03,0.000000e+00
3.455814e+03,0.000000e+00
3.456779e+03,0.000000e+00
3.457743e+03,0.000000e+00
3.458707e+03,0.000000e+00
3.459671e+03,0.000000e+00
3.460635e+03,0.000000e+00
3.461600e+03,0.000000e+00
3.462564e+03,0.000000e+00
3.463528e+03,0.000000e+00
3.464492e+03,0.000000e+00
3.465457e+03,0.000000e+00
3.466421e+03,0.000000e+00
3.467385e+03,0.000000e+00
3.468349e+03,0.000000e+00
3.469313e+03,0.000000e+00
3.470278e+03,0.000000e+00
3.471242e+03,0.000000e+00
3.472206e+03,0.000000e+00
3.473170e+03,0.000000e+00
3.474135e+03,0.000000e+00
3.475099e+03,0.000000e+00
3.476063e+03,0.000000e+00
3.477027e+03,0.000000e+00
3.477992e+03,0.000000e+00
3.478956e+03,0.000000e+00
3.479920e+03,0.000000e+00
3.480884e+03,0.000000e+00
3.481849e+03,0.000000e+00
3.482813e+03,0.000000e+00
3.483777e+03,0.000000e+00
3.484741e+03,0.000000e+00
3.485706e+03,0.000000e+00
3.486670e+03,0.000000e+00
3.487634e+03,0.000000e+00
3.488598e+03,0.000000e+00
3.489563e+03,0.000000e+00
3.490527e+03,0.000000e+00
3.491491e+03,0.000000e+00
3.492455e+03,0.000000e+00
3.493419e+03,0.000000e+00
3.494384e+03,0.000000e+00
3.495348e+03,0.000000e+00
3.496312e+03,0.000000e+00
3.497276e+03,0.000000e+00
3.498240e+03,0.000000e+00
3.499205e+03,0.000000e+00
3.500169e+03,0.000000e+00
