9.931763e+01,0.000000e+00
1.002819e+02,0.000000e+00
1.012461e+02,0.000000e+00
1.022103e+02,0.000000e+00
1.031746e+02,0.000000e+00
1.041388e+02,0.000000e+00
1.051030e+02,0.000000e+00
1.060673e+02,0.000000e+00
1.070315e+02,0.000000e+00
1.079957e+02,0.000000e+00
1.089600e+02,0.000000e+00
1.099242e+02,0.000000e+00
1.108884e+02,0.000000e+00
1.118527e+02,0.000000e+00
1.128169e+02,0.000000e+00
1.137811e+02,0.000000e+00
1.147454e+02,0.000000e+00
1.157096e+02,0.000000e+00
1.166738e+02,0.000000e+00
1.176381e+02,0.000000e+00
1.186023e+02,0.000000e+00
1.195665e+02,0.000000e+00
1.205308e+02,0.000000e+00
1.214950e+02,0.000000e+00
1.224592e+02,0.000000e+00
1.234235e+02,0.000000e+00
1.243877e+02,0.000000e+00
1.253519e+02,0.000000e+00
1.263162e+02,0.000000e+00
1.272804e+02,0.000000e+00
1.282446e+02,0.000000e+00
1.292089e+02,0.000000e+00
1.301731e+02,0.000000e+00
1.311373e+02,0.000000e+00
1.321016e+02,0.000000e+00
1.330658e+02,0.000000e+00
1.340300e+02,0.000000e+00
1.349943e+02,0.000000e+00
1.359585e+02,0.000000e+00
1.369227e+02,0.000000e+00
1.378870e+02,0.000000e+00
1.388512e+02,0.000000e+00
1.398154e+02,0.000000e+00
1.407797e+02,0.000000e+00
1.417439e+02,0.000000e+00
1.427081e+02,0.000000e+00
1.436724e+02,0.000000e+00
1.446366e+02,0.000000e+00
1.456008e+02,0.000000e+00
1.465651e+02,0.000000e+00
1.475293e+02,0.000000e+00
1.484935e+02,0.000000e+00
1.494578e+02,0.000000e+00
1.504220e+02,0.000000e+00
1.513862e+02,0.000000e+00
1.523505e+02,0.000000e+00
1.533147e+02,0.000000e+00
1.542789e+02,0.000000e+00
1.552432e+02,0.000000e+00
1.562074e+02,0.000000e+00
1.571716e+02,0.000000e+00
1.581359e+02,0.000000e+00
1.591001e+02,0.000000e+00
1.600643e+02,0.000000e+00
1.610286e+02,0.000000e+00
1.619928e+02,0.000000e+00
1.629570e+02,0.000000e+00
1.639213e+02,0.000000e+00
1.648855e+02,0.000000e+00
1.658497e+02,0.000000e+00
1.668140e+02,0.000000e+00
1.677782e+02,0.000000e+00
1.687424e+02,0.000000e+00
1.697067e+02,0.000000e+00
1.706709e+02,0.000000e+00
1.716351e+02,0.000000e+00
1.725994e+02,0.000000e+00
1.735636e+02,0.000000e+00
1.745278e+02,0.000000e+00
1.754921e+02,0.000000e+00
1.764563e+02,0.000000e+00
1.774205e+02,0.000000e+00
1.783848e+02,0.000000e+00
1.793490e+02,0.000000e+00
1.803132e+02,0.000000e+00
1.812775e+02,0.000000e+00
1.822417e+02,0.000000e+00
1.832059e+02,0.000000e+00
1.841702e+02,0.000000e+00
1.851344e+02,0.000000e+00
1.860986e+02,0.000000e+00
1.870629e+02,0.000000e+00
1.880271e+02,0.000000e+00
1.889913e+02,0.000000e+00
1.899556e+02,0.000000e+00
1.909198e+02,0.000000e+00
1.918840e+02,0.000000e+00
1.928483e+02,0.000000e+00
1.938125e+02,0.000000e+00
1.947767e+02,0.000000e+00
1.957410e+02,0.000000e+00
1.967052e+02,0.000000e+00
1.976694e+02,0.000000e+00
1.986337e+02,0.000000e+00
1.995979e+02,3.352862e+03
2.005621e+02,3.361920e+03
2.015264e+02,3.370586e+03
2.024906e+02,3.379319e+03
2.034548e+02,3.387028e+03
2.044191e+02,3.392159e+03
2.053833e+02,3.394541e+03
2.063475e+02,3.395514e+03
2.073118e+02,3.397263e+03
2.082760e+02,3.401115e+03
2.092402e+02,3.401484e+03
2.102045e+02,3.396373e+03
2.111687e+02,3.390961e+03
2.121329e+02,3.388676e+03
2.130972e+02,3.390625e+03
2.140614e+02,3.394716e+03
2.150256e+02,3.396789e+03
2.159899e+02,3.394821e+03
2.169541e+02,3.394705e+03
2.179183e+02,3.401153e+03
2.188826e+02,3.412060e+03
2.198468e+02,3.421067e+03
2.208110e+02,3.422539e+03
2.217753e+02,3.416245e+03
2.227395e+02,3.408766e+03
2.237037e+02,3.400699e+03
2.246680e+02,3.394628e+03
2.256322e+02,3.392272e+03
2.265964e+02,3.396284e+03
2.275607e+02,3.403665e+03
2.285249e+02,3.411544e+03
2.294892e+02,3.420244e+03
2.304534e+02,3.428288e+03
2.314176e+02,3.431736e+03
2.323819e+02,3.431083e+03
2.333461e+02,3.431211e+03
2.343103e+02,3.435375e+03
2.352746e+02,3.441927e+03
2.362388e+02,3.446905e+03
2.372030e+02,3.448347e+03
2.381673e+02,3.446529e+03
2.391315e+02,3.444453e+03
2.400957e+02,3.445870e+03
2.410600e+02,3.445782e+03
2.420242e+02,3.440282e+03
2.429884e+02,3.432026e+03
2.439527e+02,3.428150e+03
2.449169e+02,3.432881e+03
2.458811e+02,3.446917e+03
2.468454e+02,3.458198e+03
2.478096e+02,3.467065e+03
2.487738e+02,3.473369e+03
2.497381e+02,3.475593e+03
2.507023e+02,3.473749e+03
2.516665e+02,3.470994e+03
2.526308e+02,3.472113e+03
2.535950e+02,3.479559e+03
2.545592e+02,3.485192e+03
2.555235e+02,3.490465e+03
2.564877e+02,3.494449e+03
2.574519e+02,3.496157e+03
2.584161e+02,3.495266e+03
2.593804e+02,3.492516e+03
2.603446e+02,3.490313e+03
2.613088e+02,3.484233e+03
2.622731e+02,3.480736e+03
2.632373e+02,3.482948e+03
2.642015e+02,3.489462e+03
2.651658e+02,3.496130e+03
2.661300e+02,3.499939e+03
2.670942e+02,3.501575e+03
2.680585e+02,3.503113e+03
2.690227e+02,3.505623e+03
2.699869e+02,3.507515e+03
2.709512e+02,3.507074e+03
2.719154e+02,3.504091e+03
2.728796e+02,3.500662e+03
2.738439e+02,3.499013e+03
2.748081e+02,3.499725e+03
2.757723e+02,3.504245e+03
2.767366e+02,3.513647e+03
2.777008e+02,3.524892e+03
2.786650e+02,3.531688e+03
2.796293e+02,3.530537e+03
2.805935e+02,3.525444e+03
2.815577e+02,3.522597e+03
2.825220e+02,3.523323e+03
2.834862e+02,3.524915e+03
2.844504e+02,3.523020e+03
2.854147e+02,3.516049e+03
2.863789e+02,3.510214e+03
2.873431e+02,3.507778e+03
2.883074e+02,3.508949e+03
2.892716e+02,3.513432e+03
2.902358e+02,3.521150e+03
2.912001e+02,3.531690e+03
2.921643e+02,3.536550e+03
2.931285e+02,3.530381e+03
2.940928e+02,3.525496e+03
2.950570e+02,3.527879e+03
2.960212e+02,3.536569e+03
2.969855e+02,3.546162e+03
2.979497e+02,3.551215e+03
2.989139e+02,3.550845e+03
2.998782e+02,3.549958e+03
3.008424e+02,3.550917e+03
3.018066e+02,3.552482e+03
3.027709e+02,3.552257e+03
3.037351e+02,3.548445e+03
3.046993e+02,3.542659e+03
3.056636e+02,3.538368e+03
3.066278e+02,3.535948e+03
3.075920e+02,3.536069e+03
3.085563e+02,3.541625e+03
3.095205e+02,3.550839e+03
3.104847e+02,3.557756e+03
3.114490e+02,3.555767e+03
3.124132e+02,3.548748e+03
3.133774e+02,3.545970e+03
3.143417e+02,3.549329e+03
3.153059e+02,3.554305e+03
3.162701e+02,3.556299e+03
3.172344e+02,3.554972e+03
3.181986e+02,3.555231e+03
3.191628e+02,3.560218e+03
3.201271e+02,3.568046e+03
3.210913e+02,3.574720e+03
3.220555e+02,3.578040e+03
3.230198e+02,3.578321e+03
3.239840e+02,3.579373e+03
3.249482e+02,3.580289e+03
3.259125e+02,3.582306e+03
3.268767e+02,3.588476e+03
3.278409e+02,3.596904e+03
3.288052e+02,3.602332e+03
3.297694e+02,3.598149e+03
3.307336e+02,3.581186e+03
3.316979e+02,3.571497e+03
3.326621e+02,3.575969e+03
3.336263e+02,3.582523e+03
3.345906e+02,3.586893e+03
3.355548e+02,3.589290e+03
3.365190e+02,3.589499e+03
3.374833e+02,3.583901e+03
3.384475e+02,3.570945e+03
3.394117e+02,3.563573e+03
3.403760e+02,3.568359e+03
3.413402e+02,3.580401e+03
3.423044e+02,3.591109e+03
3.432687e+02,3.599703e+03
3.442329e+02,3.605890e+03
3.451971e+02,3.608215e+03
3.461614e+02,3.605719e+03
3.471256e+02,3.599907e+03
3.480898e+02,3.592570e+03
3.490541e+02,3.583323e+03
3.500183e+02,3.579122e+03
3.509825e+02,3.585845e+03
3.519468e+02,3.595995e+03
3.529110e+02,3.602961e+03
3.538752e+02,3.604301e+03
3.548395e+02,3.601612e+03
3.558037e+02,3.598210e+03
3.567680e+02,3.591324e+03
3.577322e+02,3.588947e+03
3.586964e+02,3.596107e+03
3.596607e+02,3.607910e+03
3.606249e+02,3.617994e+03
3.615891e+02,3.622000e+03
3.625534e+02,3.620250e+03
3.635176e+02,3.615603e+03
3.644818e+02,3.608112e+03
3.654461e+02,3.601280e+03
3.664103e+02,3.598739e+03
3.673745e+02,3.601447e+03
3.683388e+02,3.606675e+03
3.693030e+02,3.612957e+03
3.702672e+02,3.618877e+03
3.712315e+02,3.622865e+03
3.721957e+02,3.624090e+03
3.731599e+02,3.623716e+03
3.741242e+02,3.624824e+03
3.750884e+02,3.632787e+03
3.760526e+02,3.639287e+03
3.770169e+02,3.642219e+03
3.779811e+02,3.642950e+03
3.789453e+02,3.642858e+03
3.799096e+02,3.642214e+03
3.808738e+02,3.640960e+03
3.818380e+02,3.640289e+03
3.828023e+02,3.644703e+03
3.837665e+02,3.646788e+03
3.847307e+02,3.641243e+03
3.856950e+02,3.631055e+03
3.866592e+02,3.623202e+03
3.876234e+02,3.623202e+03
3.885877e+02,3.628330e+03
3.895519e+02,3.630340e+03
3.905161e+02,3.626950e+03
3.914804e+02,3.622364e+03
3.924446e+02,3.622505e+03
3.934088e+02,3.629751e+03
3.943731e+02,3.634991e+03
3.953373e+02,3.633283e+03
3.963015e+02,3.628425e+03
3.972658e+02,3.626406e+03
3.982300e+02,3.630060e+03
3.991942e+02,3.637965e+03
4.001585e+02,3.643091e+03
4.011227e+02,3.639355e+03
4.020869e+02,3.636942e+03
4.030512e+02,3.636894e+03
4.040154e+02,3.637540e+03
4.049796e+02,3.637457e+03
4.059439e+02,3.635240e+03
4.069081e+02,3.631583e+03
4.078723e+02,3.629561e+03
4.088366e+02,3.629086e+03
4.098008e+02,3.627682e+03
4.107650e+02,3.625672e+03
4.117293e+02,3.623509e+03
4.126935e+02,3.621311e+03
4.136577e+02,3.617611e+03
4.146220e+02,3.614177e+03
4.155862e+02,3.614618e+03
4.165504e+02,3.620184e+03
4.175147e+02,3.627571e+03
4.184789e+02,3.631296e+03
4.194431e+02,3.624810e+03
4.204074e+02,3.622241e+03
4.213716e+02,3.627327e+03
4.223358e+02,3.635006e+03
4.233001e+02,3.639970e+03
4.242643e+02,3.639972e+03
4.252285e+02,3.636919e+03
4.261928e+02,3.634352e+03
4.271570e+02,3.632102e+03
4.281212e+02,3.631658e+03
4.290855e+02,3.634111e+03
4.300497e+02,3.638059e+03
4.310139e+02,3.641125e+03
4.319782e+02,3.642249e+03
4.329424e+02,3.643212e+03
4.339066e+02,3.646035e+03
4.348709e+02,3.650449e+03
4.358351e+02,3.653938e+03
4.367993e+02,3.654150e+03
4.377636e+02,3.649717e+03
4.387278e+02,3.645974e+03
4.396920e+02,3.644640e+03
4.406563e+02,3.643790e+03
4.416205e+02,3.641505e+03
4.425847e+02,3.637138e+03
4.435490e+02,3.631792e+03
4.445132e+02,3.626253e+03
4.454774e+02,3.620083e+03
4.464417e+02,3.618823e+03
4.474059e+02,3.627020e+03
4.483701e+02,3.638582e+03
4.493344e+02,3.646705e+03
4.502986e+02,3.651927e+03
4.512628e+02,3.653505e+03
4.522271e+02,3.646950e+03
4.531913e+02,3.634514e+03
4.541555e+02,3.627208e+03
4.551198e+02,3.633471e+03
4.560840e+02,3.653552e+03
4.570482e+02,3.659282e+03
4.580125e+02,3.635289e+03
4.589767e+02,3.615186e+03
4.599409e+02,3.612022e+03
4.609052e+02,3.622594e+03
4.618694e+02,3.634337e+03
4.628336e+02,3.638365e+03
4.637979e+02,3.635412e+03
4.647621e+02,3.630096e+03
4.657263e+02,3.621983e+03
4.666906e+02,3.615004e+03
4.676548e+02,3.611619e+03
4.686190e+02,3.611743e+03
4.695833e+02,3.612664e+03
4.705475e+02,3.613012e+03
4.715117e+02,3.613260e+03
4.724760e+02,3.614901e+03
4.734402e+02,3.618823e+03
4.744044e+02,3.623765e+03
4.753687e+02,3.626039e+03
4.763329e+02,3.621649e+03
4.772971e+02,3.621077e+03
4.782614e+02,3.625942e+03
4.792256e+02,3.635339e+03
4.801898e+02,3.648171e+03
4.811541e+02,3.666380e+03
4.821183e+02,3.685023e+03
4.830826e+02,3.696471e+03
4.840468e+02,3.700054e+03
4.850110e+02,3.701852e+03
4.859753e+02,3.705880e+03
4.869395e+02,3.712124e+03
4.879037e+02,3.717505e+03
4.888680e+02,3.726920e+03
4.898322e+02,3.732418e+03
4.907964e+02,3.728689e+03
4.917607e+02,3.716546e+03
4.927249e+02,3.701037e+03
4.936891e+02,3.684603e+03
4.946534e+02,3.666721e+03
4.956176e+02,3.655382e+03
4.965818e+02,3.655008e+03
4.975461e+02,3.658056e+03
4.985103e+02,3.657599e+03
4.994745e+02,3.652165e+03
5.004388e+02,3.645567e+03
5.014030e+02,3.639886e+03
5.023672e+02,3.635258e+03
5.033315e+02,3.631157e+03
5.042957e+02,3.627172e+03
5.052599e+02,3.623228e+03
5.062242e+02,3.620150e+03
5.071884e+02,3.618332e+03
5.081526e+02,3.618477e+03
5.091169e+02,3.624649e+03
5.100811e+02,3.632280e+03
5.110453e+02,3.634921e+03
5.120095e+02,3.627709e+03
5.129738e+02,3.618200e+03
5.139380e+02,3.616572e+03
5.149022e+02,3.622819e+03
5.158665e+02,3.629460e+03
5.168307e+02,3.631912e+03
5.177949e+02,3.628365e+03
5.187592e+02,3.620320e+03
5.197234e+02,3.606469e+03
5.206876e+02,3.595429e+03
5.216519e+02,3.592176e+03
5.226161e+02,3.595322e+03
5.235803e+02,3.599422e+03
5.245446e+02,3.598984e+03
5.255088e+02,3.595024e+03
5.264730e+02,3.595522e+03
5.274373e+02,3.602147e+03
5.284015e+02,3.610445e+03
5.293657e+02,3.616911e+03
5.303300e+02,3.622266e+03
5.312942e+02,3.623131e+03
5.322584e+02,3.617554e+03
5.332227e+02,3.610395e+03
5.341869e+02,3.604488e+03
5.351511e+02,3.599917e+03
5.361154e+02,3.596922e+03
5.370796e+02,3.598210e+03
5.380438e+02,3.606934e+03
5.390081e+02,3.608961e+03
5.399723e+02,3.595307e+03
5.409365e+02,3.579021e+03
5.419008e+02,3.571397e+03
5.428650e+02,3.575016e+03
5.438292e+02,3.581843e+03
5.447935e+02,3.590183e+03
5.457577e+02,3.598800e+03
5.467219e+02,3.605168e+03
5.476862e+02,3.608344e+03
5.486504e+02,3.608610e+03
5.496146e+02,3.607101e+03
5.505789e+02,3.603755e+03
5.515431e+02,3.598177e+03
5.525073e+02,3.589362e+03
5.534716e+02,3.581019e+03
5.544358e+02,3.576703e+03
5.554000e+02,3.578208e+03
5.563643e+02,3.581712e+03
5.573285e+02,3.583860e+03
5.582927e+02,3.584371e+03
5.592570e+02,3.583952e+03
5.602212e+02,3.583261e+03
5.611854e+02,3.582020e+03
5.621497e+02,3.582406e+03
5.631139e+02,3.586683e+03
5.640781e+02,3.588662e+03
5.650424e+02,3.588325e+03
5.660066e+02,3.585618e+03
5.669708e+02,3.579835e+03
5.679351e+02,3.567011e+03
5.688993e+02,3.552483e+03
5.698635e+02,3.546211e+03
5.708278e+02,3.549548e+03
5.717920e+02,3.557401e+03
5.727562e+02,3.565017e+03
5.737205e+02,3.572366e+03
5.746847e+02,3.576222e+03
5.756489e+02,3.571074e+03
5.766132e+02,3.566225e+03
5.775774e+02,3.569875e+03
5.785416e+02,3.582447e+03
5.795059e+02,3.591703e+03
5.804701e+02,3.584095e+03
5.814343e+02,3.565043e+03
5.823986e+02,3.551926e+03
5.833628e+02,3.548346e+03
5.843270e+02,3.550804e+03
5.852913e+02,3.554348e+03
5.862555e+02,3.558890e+03
5.872197e+02,3.564829e+03
5.881840e+02,3.574956e+03
5.891482e+02,3.584161e+03
5.901124e+02,3.587688e+03
5.910767e+02,3.583571e+03
5.920409e+02,3.577640e+03
5.930051e+02,3.575340e+03
5.939694e+02,3.575847e+03
5.949336e+02,3.576507e+03
5.958978e+02,3.577135e+03
5.968621e+02,3.576824e+03
5.978263e+02,3.573706e+03
5.987905e+02,3.562159e+03
5.997548e+02,3.555651e+03
6.007190e+02,3.559278e+03
6.016832e+02,3.567755e+03
6.026475e+02,3.574181e+03
6.036117e+02,3.574483e+03
6.045759e+02,3.572226e+03
6.055402e+02,3.571360e+03
6.065044e+02,3.571267e+03
6.074686e+02,3.570910e+03
6.084329e+02,3.570747e+03
6.093971e+02,3.570857e+03
6.103613e+02,3.569885e+03
6.113256e+02,3.568885e+03
6.122899e+02,3.565899e+03
6.132541e+02,3.558234e+03
6.142183e+02,3.548508e+03
6.151826e+02,3.541373e+03
6.161468e+02,3.541117e+03
6.171110e+02,3.544573e+03
6.180753e+02,3.547908e+03
6.190395e+02,3.550715e+03
6.200037e+02,3.552108e+03
6.209680e+02,3.551171e+03
6.219322e+02,3.548520e+03
6.228964e+02,3.546858e+03
6.238607e+02,3.546594e+03
6.248249e+02,3.546321e+03
6.257891e+02,3.543221e+03
6.267534e+02,3.537959e+03
6.277176e+02,3.535046e+03
6.286818e+02,3.542610e+03
6.296461e+02,3.551861e+03
6.306103e+02,3.551583e+03
6.315745e+02,3.542408e+03
6.325388e+02,3.531463e+03
6.335030e+02,3.522609e+03
6.344672e+02,3.515176e+03
6.354315e+02,3.513865e+03
6.363957e+02,3.524138e+03
6.373599e+02,3.532582e+03
6.383242e+02,3.531868e+03
6.392884e+02,3.523586e+03
6.402526e+02,3.518223e+03
6.412169e+02,3.522194e+03
6.421811e+02,3.528293e+03
6.431453e+02,3.529242e+03
6.441096e+02,3.525007e+03
6.450738e+02,3.520325e+03
6.460380e+02,3.520762e+03
6.470023e+02,3.527236e+03
6.479665e+02,3.532077e+03
6.489307e+02,3.534330e+03
6.498950e+02,3.534246e+03
6.508592e+02,3.530364e+03
6.518234e+02,3.521737e+03
6.527877e+02,3.515015e+03
6.537519e+02,3.513500e+03
6.547161e+02,3.513157e+03
6.556804e+02,3.511585e+03
6.566446e+02,3.508512e+03
6.576088e+02,3.504046e+03
6.585731e+02,3.496385e+03
6.595373e+02,3.486597e+03
6.605015e+02,3.481306e+03
6.614658e+02,3.481635e+03
6.624300e+02,3.485378e+03
6.633942e+02,3.491116e+03
6.643585e+02,3.501231e+03
6.653227e+02,3.506353e+03
6.662869e+02,3.502357e+03
6.672512e+02,3.495630e+03
6.682154e+02,3.489103e+03
6.691796e+02,3.482978e+03
6.701439e+02,3.478970e+03
6.711081e+02,3.480900e+03
6.720723e+02,3.485637e+03
6.730366e+02,3.486850e+03
6.740008e+02,3.483819e+03
6.749650e+02,3.478712e+03
6.759293e+02,3.473508e+03
6.768935e+02,3.467609e+03
6.778577e+02,3.465018e+03
6.788220e+02,3.470503e+03
6.797862e+02,3.477675e+03
6.807504e+02,3.480652e+03
6.817147e+02,3.477447e+03
6.826789e+02,3.473840e+03
6.836431e+02,3.469646e+03
6.846074e+02,3.465870e+03
6.855716e+02,3.465983e+03
6.865358e+02,3.470902e+03
6.875001e+02,3.475779e+03
6.884643e+02,3.473336e+03
6.894285e+02,3.463807e+03
6.903928e+02,3.458116e+03
6.913570e+02,3.457992e+03
6.923212e+02,3.460179e+03
6.932855e+02,3.461818e+03
6.942497e+02,3.464356e+03
6.952139e+02,3.466383e+03
6.961782e+02,3.465374e+03
6.971424e+02,3.464686e+03
6.981066e+02,3.466741e+03
6.990709e+02,3.470700e+03
7.000351e+02,3.472600e+03
7.009993e+02,3.470735e+03
7.019636e+02,3.467152e+03
7.029278e+02,3.464732e+03
7.038920e+02,3.463807e+03
7.048563e+02,3.461378e+03
7.058205e+02,3.452816e+03
7.067847e+02,3.434689e+03
7.077490e+02,3.427777e+03
7.087132e+02,3.445164e+03
7.096774e+02,3.466519e+03
7.106417e+02,3.471906e+03
7.116059e+02,3.456625e+03
7.125701e+02,3.442363e+03
7.135344e+02,3.434386e+03
7.144986e+02,3.431391e+03
7.154628e+02,3.432625e+03
7.164271e+02,3.437254e+03
7.173913e+02,3.442494e+03
7.183555e+02,3.446115e+03
7.193198e+02,3.448057e+03
7.202840e+02,3.448583e+03
7.212482e+02,3.448085e+03
7.222125e+02,3.447316e+03
7.231767e+02,3.446906e+03
7.241409e+02,3.447618e+03
7.251052e+02,3.443642e+03
7.260694e+02,3.426969e+03
7.270336e+02,3.411606e+03
7.279979e+02,3.408364e+03
7.289621e+02,3.418433e+03
7.299263e+02,3.424956e+03
7.308906e+02,3.414462e+03
7.318548e+02,3.399608e+03
7.328190e+02,3.395443e+03
7.337833e+02,3.403128e+03
7.347475e+02,3.413522e+03
7.357117e+02,3.419736e+03
7.366760e+02,3.422389e+03
7.376402e+02,3.420581e+03
7.386044e+02,3.413261e+03
7.395687e+02,3.404722e+03
7.405329e+02,3.397419e+03
7.414971e+02,3.390743e+03
7.424614e+02,3.386974e+03
7.434256e+02,3.391847e+03
7.443898e+02,3.397792e+03
7.453541e+02,3.398863e+03
7.463183e+02,3.393748e+03
7.472825e+02,3.388529e+03
7.482468e+02,3.387175e+03
7.492110e+02,3.386976e+03
7.501752e+02,3.387466e+03
7.511395e+02,3.389265e+03
7.521037e+02,3.389764e+03
7.530679e+02,3.383672e+03
7.540322e+02,3.371621e+03
7.549964e+02,3.365453e+03
7.559606e+02,3.367021e+03
7.569249e+02,3.371030e+03
7.578891e+02,3.375027e+03
7.588533e+02,3.379526e+03
7.598176e+02,3.381813e+03
7.607818e+02,3.376440e+03
7.617460e+02,3.368886e+03
7.627103e+02,3.360828e+03
7.636745e+02,3.354451e+03
7.646387e+02,3.351972e+03
7.656030e+02,3.356024e+03
7.665672e+02,3.362679e+03
7.675314e+02,3.368890e+03
7.684957e+02,3.372050e+03
7.694599e+02,3.369798e+03
7.704241e+02,3.361153e+03
7.713884e+02,3.350075e+03
7.723526e+02,3.344531e+03
7.733168e+02,3.345482e+03
7.742811e+02,3.351153e+03
7.752453e+02,3.360429e+03
7.762095e+02,3.371018e+03
7.771738e+02,3.376486e+03
7.781380e+02,3.372155e+03
7.791022e+02,3.365691e+03
7.800665e+02,3.359762e+03
7.810307e+02,3.354188e+03
7.819949e+02,3.348220e+03
7.829592e+02,3.339482e+03
7.839234e+02,3.334796e+03
7.848876e+02,3.340017e+03
7.858519e+02,3.349915e+03
7.868161e+02,3.356723e+03
7.877803e+02,3.357265e+03
7.887446e+02,3.353064e+03
7.897088e+02,3.344454e+03
7.906730e+02,3.333656e+03
7.916373e+02,3.329189e+03
7.926015e+02,3.332938e+03
7.935657e+02,3.338788e+03
7.945300e+02,3.338370e+03
7.954942e+02,3.330629e+03
7.964584e+02,3.322942e+03
7.974227e+02,3.318973e+03
7.983869e+02,3.319062e+03
7.993511e+02,3.319589e+03
8.003154e+02,3.317690e+03
8.012796e+02,3.315340e+03
8.022438e+02,3.315055e+03
8.032081e+02,3.315852e+03
8.041723e+02,3.316544e+03
8.051365e+02,3.316346e+03
8.061008e+02,3.315593e+03
8.070650e+02,3.314502e+03
8.080292e+02,3.311836e+03
8.089935e+02,3.305862e+03
8.099577e+02,3.297397e+03
8.109219e+02,3.290748e+03
8.118862e+02,3.291694e+03
8.128504e+02,3.299848e+03
8.138146e+02,3.303185e+03
8.147789e+02,3.299734e+03
8.157431e+02,3.293419e+03
8.167073e+02,3.287325e+03
8.176716e+02,3.282392e+03
8.186358e+02,3.282674e+03
8.196000e+02,3.293196e+03
8.205643e+02,3.303851e+03
8.215285e+02,3.309353e+03
8.224927e+02,3.309741e+03
8.234570e+02,3.308202e+03
8.244212e+02,3.304222e+03
8.253854e+02,3.299915e+03
8.263497e+02,3.295088e+03
8.273139e+02,3.289533e+03
8.282781e+02,3.284805e+03
8.292424e+02,3.284475e+03
8.302066e+02,3.286616e+03
8.311708e+02,3.287351e+03
8.321351e+02,3.286857e+03
8.330993e+02,3.286289e+03
8.340635e+02,3.285974e+03
8.350278e+02,3.284685e+03
8.359920e+02,3.277907e+03
8.369562e+02,3.263621e+03
8.379205e+02,3.255532e+03
8.388847e+02,3.259941e+03
8.398489e+02,3.272350e+03
8.408132e+02,3.280848e+03
8.417774e+02,3.285070e+03
8.427416e+02,3.284649e+03
8.437059e+02,3.275663e+03
8.446701e+02,3.264307e+03
8.456343e+02,3.257399e+03
8.465986e+02,3.256943e+03
8.475628e+02,3.257902e+03
8.485270e+02,3.260076e+03
8.494913e+02,3.261961e+03
8.504555e+02,3.262687e+03
8.514197e+02,3.262437e+03
8.523840e+02,3.260969e+03
8.533482e+02,3.255035e+03
8.543124e+02,3.247420e+03
8.552767e+02,3.244749e+03
8.562409e+02,3.247549e+03
8.572051e+02,3.251012e+03
8.581694e+02,3.251144e+03
8.591336e+02,3.248594e+03
8.600978e+02,3.245366e+03
8.610621e+02,3.241861e+03
8.620263e+02,3.238968e+03
8.629905e+02,3.236349e+03
8.639548e+02,3.232800e+03
8.649190e+02,3.229450e+03
8.658832e+02,3.227329e+03
8.668475e+02,3.227169e+03
8.678117e+02,3.230872e+03
8.687759e+02,3.236965e+03
8.697402e+02,3.239632e+03
8.707044e+02,3.232811e+03
8.716686e+02,3.225146e+03
8.726329e+02,3.222585e+03
8.735971e+02,3.223264e+03
8.745613e+02,3.222193e+03
8.755256e+02,3.216469e+03
8.764898e+02,3.211754e+03
8.774540e+02,3.211261e+03
8.784183e+02,3.213235e+03
8.793825e+02,3.215429e+03
8.803467e+02,3.217167e+03
8.813110e+02,3.217661e+03
8.822752e+02,3.216042e+03
8.832394e+02,3.213354e+03
8.842037e+02,3.210277e+03
8.851679e+02,3.205916e+03
8.861321e+02,3.202105e+03
8.870964e+02,3.202930e+03
8.880606e+02,3.208474e+03
8.890248e+02,3.212638e+03
8.899891e+02,3.217492e+03
8.909533e+02,3.218612e+03
8.919175e+02,3.209497e+03
8.928818e+02,3.185942e+03
8.938460e+02,3.170828e+03
8.948102e+02,3.165313e+03
8.957745e+02,3.165426e+03
8.967387e+02,3.172361e+03
8.977029e+02,3.184969e+03
8.986672e+02,3.192013e+03
8.996314e+02,3.192435e+03
9.005956e+02,3.190883e+03
9.015599e+02,3.187081e+03
9.025241e+02,3.181790e+03
9.034883e+02,3.177725e+03
9.044526e+02,3.174829e+03
9.054168e+02,3.172879e+03
9.063810e+02,3.176089e+03
9.073453e+02,3.182970e+03
9.083095e+02,3.187921e+03
9.092737e+02,3.187137e+03
9.102380e+02,3.182945e+03
9.112022e+02,3.175943e+03
9.121664e+02,3.167863e+03
9.131307e+02,3.164664e+03
9.140949e+02,3.169364e+03
9.150591e+02,3.177879e+03
9.160234e+02,3.183909e+03
9.169876e+02,3.185540e+03
9.179518e+02,3.179282e+03
9.189161e+02,3.163654e+03
9.198803e+02,3.146796e+03
9.208445e+02,3.138883e+03
9.218088e+02,3.142252e+03
9.227730e+02,3.143699e+03
9.237372e+02,3.141491e+03
9.247015e+02,3.138793e+03
9.256657e+02,3.137694e+03
9.266299e+02,3.138008e+03
9.275942e+02,3.138943e+03
9.285584e+02,3.141631e+03
9.295226e+02,3.142161e+03
9.304869e+02,3.138223e+03
9.314511e+02,3.131763e+03
9.324153e+02,3.127500e+03
9.333796e+02,3.125222e+03
9.343438e+02,3.125591e+03
9.353080e+02,3.130944e+03
9.362723e+02,3.136769e+03
9.372365e+02,3.138203e+03
9.382007e+02,3.134758e+03
9.391650e+02,3.130021e+03
9.401292e+02,3.123426e+03
9.410934e+02,3.116960e+03
9.420577e+02,3.112421e+03
9.430219e+02,3.110052e+03
9.439861e+02,3.107927e+03
9.449504e+02,3.106113e+03
9.459146e+02,3.105563e+03
9.468788e+02,3.104969e+03
9.478431e+02,3.102675e+03
9.488073e+02,3.099759e+03
9.497715e+02,3.101005e+03
9.507358e+02,3.103741e+03
9.517000e+02,3.099771e+03
9.526642e+02,3.090493e+03
9.536285e+02,3.082384e+03
9.545927e+02,3.079266e+03
9.555569e+02,3.079603e+03
9.565212e+02,3.078843e+03
9.574854e+02,3.078012e+03
9.584496e+02,3.077701e+03
9.594139e+02,3.076219e+03
9.603781e+02,3.074535e+03
9.613423e+02,3.079644e+03
9.623066e+02,3.095259e+03
9.632708e+02,3.099737e+03
9.642350e+02,3.085602e+03
9.651993e+02,3.065138e+03
9.661635e+02,3.053899e+03
9.671277e+02,3.052672e+03
9.680920e+02,3.056716e+03
9.690562e+02,3.072401e+03
9.700204e+02,3.085927e+03
9.709847e+02,3.086538e+03
9.719489e+02,3.071716e+03
9.729131e+02,3.062266e+03
9.738774e+02,3.061391e+03
9.748416e+02,3.064030e+03
9.758058e+02,3.069441e+03
9.767701e+02,3.075529e+03
9.777343e+02,3.076490e+03
9.786985e+02,3.066734e+03
9.796628e+02,3.056179e+03
9.806270e+02,3.048083e+03
9.815912e+02,3.041963e+03
9.825555e+02,3.037053e+03
9.835197e+02,3.035395e+03
9.844839e+02,3.034363e+03
9.854482e+02,3.034045e+03
9.864124e+02,3.033758e+03
9.873766e+02,3.031125e+03
9.883409e+02,3.025306e+03
9.893051e+02,3.021584e+03
9.902693e+02,3.023372e+03
9.912336e+02,3.029088e+03
9.921978e+02,3.038249e+03
9.931620e+02,3.048866e+03
9.941263e+02,3.054809e+03
9.950905e+02,3.048926e+03
9.960547e+02,3.038478e+03
9.970190e+02,3.032027e+03
9.979832e+02,3.028872e+03
9.989474e+02,3.026033e+03
9.999117e+02,3.022795e+03
1.000876e+03,3.020185e+03
1.001840e+03,3.019263e+03
1.002804e+03,3.020503e+03
1.003769e+03,3.023060e+03
1.004733e+03,3.025755e+03
1.005697e+03,3.028813e+03
1.006661e+03,3.034979e+03
1.007626e+03,3.042987e+03
1.008590e+03,3.045381e+03
1.009554e+03,3.039969e+03
1.010518e+03,3.030881e+03
1.011482e+03,3.022324e+03
1.012447e+03,3.014510e+03
1.013411e+03,3.010694e+03
1.014375e+03,3.012786e+03
1.015339e+03,3.015019e+03
1.016304e+03,3.011953e+03
1.017268e+03,3.004497e+03
1.018232e+03,2.999634e+03
1.019196e+03,2.997147e+03
1.020161e+03,2.995885e+03
1.021125e+03,2.996389e+03
1.022089e+03,2.998510e+03
1.023053e+03,2.999117e+03
1.024018e+03,2.996328e+03
1.024982e+03,2.996236e+03
1.025946e+03,3.000880e+03
1.026910e+03,3.004873e+03
1.027875e+03,3.002290e+03
1.028839e+03,2.992122e+03
1.029803e+03,2.985562e+03
1.030767e+03,2.984249e+03
1.031731e+03,2.984131e+03
1.032696e+03,2.981326e+03
1.033660e+03,2.975289e+03
1.034624e+03,2.972757e+03
1.035588e+03,2.976057e+03
1.036552e+03,2.981125e+03
1.037517e+03,2.987324e+03
1.038481e+03,2.992548e+03
1.039445e+03,2.991569e+03
1.040409e+03,2.977663e+03
1.041374e+03,2.969235e+03
1.042338e+03,2.974874e+03
1.043302e+03,2.985366e+03
1.044266e+03,2.987796e+03
1.045231e+03,2.976814e+03
1.046195e+03,2.966569e+03
1.047159e+03,2.954672e+03
1.048123e+03,2.946694e+03
1.049088e+03,2.948363e+03
1.050052e+03,2.962547e+03
1.051016e+03,2.971141e+03
1.051980e+03,2.967432e+03
1.052945e+03,2.964394e+03
1.053909e+03,2.967493e+03
1.054873e+03,2.973167e+03
1.055837e+03,2.973182e+03
1.056802e+03,2.963069e+03
1.057766e+03,2.954378e+03
1.058730e+03,2.950690e+03
1.059694e+03,2.949643e+03
1.060658e+03,2.947786e+03
1.061623e+03,2.945333e+03
1.062587e+03,2.942675e+03
1.063551e+03,2.938502e+03
1.064515e+03,2.935500e+03
1.065479e+03,2.935236e+03
1.066444e+03,2.938539e+03
1.067408e+03,2.942469e+03
1.068372e+03,2.947642e+03
1.069336e+03,2.952255e+03
1.070301e+03,2.954320e+03
1.071265e+03,2.953415e+03
1.072229e+03,2.950910e+03
1.073193e+03,2.945669e+03
1.074158e+03,2.940373e+03
1.075122e+03,2.935505e+03
1.076086e+03,2.931198e+03
1.077050e+03,2.928081e+03
1.078015e+03,2.927683e+03
1.078979e+03,2.929868e+03
1.079943e+03,2.935191e+03
1.080907e+03,2.941677e+03
1.081872e+03,2.947377e+03
1.082836e+03,2.951315e+03
1.083800e+03,2.954162e+03
1.084764e+03,2.956833e+03
1.085729e+03,2.959233e+03
1.086693e+03,2.961326e+03
1.087657e+03,2.962457e+03
1.088621e+03,2.961765e+03
1.089585e+03,2.956012e+03
1.090550e+03,2.950775e+03
1.091514e+03,2.950377e+03
1.092478e+03,2.952028e+03
1.093442e+03,2.951770e+03
1.094406e+03,2.948088e+03
1.095371e+03,2.946465e+03
1.096335e+03,2.949933e+03
1.097299e+03,2.953007e+03
1.098263e+03,2.951880e+03
1.099228e+03,2.946245e+03
1.100192e+03,2.940468e+03
1.101156e+03,2.933180e+03
1.102120e+03,2.927658e+03
1.103085e+03,2.927908e+03
1.104049e+03,2.930673e+03
1.105013e+03,2.929368e+03
1.105977e+03,2.918254e+03
1.106942e+03,2.909790e+03
1.107906e+03,2.906975e+03
1.108870e+03,2.907267e+03
1.109834e+03,2.908559e+03
1.110799e+03,2.911027e+03
1.111763e+03,2.913334e+03
1.112727e+03,2.913350e+03
1.113691e+03,2.915945e+03
1.114656e+03,2.925297e+03
1.115620e+03,2.940031e+03
1.116584e+03,2.949962e+03
1.117548e+03,2.947434e+03
1.118512e+03,2.945957e+03
1.119477e+03,2.950700e+03
1.120441e+03,2.957811e+03
1.121405e+03,2.961823e+03
1.122369e+03,2.960898e+03
1.123334e+03,2.959804e+03
1.124298e+03,2.958395e+03
1.125262e+03,2.957976e+03
1.126226e+03,2.960371e+03
1.127191e+03,2.966517e+03
1.128155e+03,2.969100e+03
1.129119e+03,2.964476e+03
1.130083e+03,2.959831e+03
1.131047e+03,2.958097e+03
1.132012e+03,2.957436e+03
1.132976e+03,2.953651e+03
1.133940e+03,2.943211e+03
1.134904e+03,2.936724e+03
1.135869e+03,2.938723e+03
1.136833e+03,2.943759e+03
1.137797e+03,2.946031e+03
1.138761e+03,2.946999e+03
1.139726e+03,2.942135e+03
1.140690e+03,2.926184e+03
1.141654e+03,2.914313e+03
1.142618e+03,2.916985e+03
1.143583e+03,2.931948e+03
1.144547e+03,2.939312e+03
1.145511e+03,2.936899e+03
1.146475e+03,2.934221e+03
1.147439e+03,2.932644e+03
1.148404e+03,2.934575e+03
1.149368e+03,2.945907e+03
1.150332e+03,2.968064e+03
1.151296e+03,2.980366e+03
1.152261e+03,2.978374e+03
1.153225e+03,2.969699e+03
1.154189e+03,2.963993e+03
1.155153e+03,2.961196e+03
1.156118e+03,2.946950e+03
1.157082e+03,2.921794e+03
1.158046e+03,2.902982e+03
1.159010e+03,2.898372e+03
1.159974e+03,2.901420e+03
1.160939e+03,2.898559e+03
1.161903e+03,2.890226e+03
1.162867e+03,2.884017e+03
1.163831e+03,2.881479e+03
1.164796e+03,2.878071e+03
1.165760e+03,2.867835e+03
1.166724e+03,2.854360e+03
1.167688e+03,2.845513e+03
1.168653e+03,2.841618e+03
1.169617e+03,2.841775e+03
1.170581e+03,2.848245e+03
1.171545e+03,2.855950e+03
1.172510e+03,2.854387e+03
1.173474e+03,2.848494e+03
1.174438e+03,2.849714e+03
1.175402e+03,2.861725e+03
1.176366e+03,2.875663e+03
1.177331e+03,2.887207e+03
1.178295e+03,2.894761e+03
1.179259e+03,2.893700e+03
1.180223e+03,2.884551e+03
1.181188e+03,2.875386e+03
1.182152e+03,2.871673e+03
1.183116e+03,2.869035e+03
1.184080e+03,2.866086e+03
1.185045e+03,2.862724e+03
1.186009e+03,2.857596e+03
1.186973e+03,2.848758e+03
1.187937e+03,2.843671e+03
1.188901e+03,2.847854e+03
1.189866e+03,2.854368e+03
1.190830e+03,2.857546e+03
1.191794e+03,2.856150e+03
1.192758e+03,2.851810e+03
1.193723e+03,2.841066e+03
1.194687e+03,2.833832e+03
1.195651e+03,2.836122e+03
1.196615e+03,2.843874e+03
1.197580e+03,2.846876e+03
1.198544e+03,2.838971e+03
1.199508e+03,2.831610e+03
1.200472e+03,2.829338e+03
1.201437e+03,2.826678e+03
1.202401e+03,2.818085e+03
1.203365e+03,2.802551e+03
1.204329e+03,2.795359e+03
1.205293e+03,2.798332e+03
1.206258e+03,2.804147e+03
1.207222e+03,2.809532e+03
1.208186e+03,2.814767e+03
1.209150e+03,2.823108e+03
1.210115e+03,2.834750e+03
1.211079e+03,2.837067e+03
1.212043e+03,2.826511e+03
1.213007e+03,2.813452e+03
1.213972e+03,2.812499e+03
1.214936e+03,2.821723e+03
1.215900e+03,2.824028e+03
1.216864e+03,2.819474e+03
1.217828e+03,2.813835e+03
1.218793e+03,2.810308e+03
1.219757e+03,2.808030e+03
1.220721e+03,2.805156e+03
1.221685e+03,2.802470e+03
1.222650e+03,2.801155e+03
1.223614e+03,2.800682e+03
1.224578e+03,2.799245e+03
1.225542e+03,2.795147e+03
1.226507e+03,2.791209e+03
1.227471e+03,2.790779e+03
1.228435e+03,2.792540e+03
1.229399e+03,2.792744e+03
1.230364e+03,2.791074e+03
1.231328e+03,2.787239e+03
1.232292e+03,2.779830e+03
1.233256e+03,2.772839e+03
1.234220e+03,2.770432e+03
1.235185e+03,2.776168e+03
1.236149e+03,2.779691e+03
1.237113e+03,2.777616e+03
1.238077e+03,2.774568e+03
1.239042e+03,2.769858e+03
1.240006e+03,2.763114e+03
1.240970e+03,2.760934e+03
1.241934e+03,2.767813e+03
1.242899e+03,2.770919e+03
1.243863e+03,2.767219e+03
1.244827e+03,2.760727e+03
1.245791e+03,2.756411e+03
1.246755e+03,2.754672e+03
1.247720e+03,2.752764e+03
1.248684e+03,2.750851e+03
1.249648e+03,2.749506e+03
1.250612e+03,2.748669e+03
1.251577e+03,2.748038e+03
1.252541e+03,2.748566e+03
1.253505e+03,2.749612e+03
1.254469e+03,2.747761e+03
1.255434e+03,2.742153e+03
1.256398e+03,2.737406e+03
1.257362e+03,2.739428e+03
1.258326e+03,2.744324e+03
1.259291e+03,2.745479e+03
1.260255e+03,2.742696e+03
1.261219e+03,2.739861e+03
1.262183e+03,2.742212e+03
1.263147e+03,2.745719e+03
1.264112e+03,2.747096e+03
1.265076e+03,2.747110e+03
1.266040e+03,2.746385e+03
1.267004e+03,2.745195e+03
1.267969e+03,2.743540e+03
1.268933e+03,2.739303e+03
1.269897e+03,2.738868e+03
1.270861e+03,2.746232e+03
1.271826e+03,2.758369e+03
1.272790e+03,2.765641e+03
1.273754e+03,2.765625e+03
1.274718e+03,2.766912e+03
1.275682e+03,2.773716e+03
1.276647e+03,2.781767e+03
1.277611e+03,2.784012e+03
1.278575e+03,2.778853e+03
1.279539e+03,2.777510e+03
1.280504e+03,2.781931e+03
1.281468e+03,2.788507e+03
1.282432e+03,2.795332e+03
1.283396e+03,2.801020e+03
1.284361e+03,2.801144e+03
1.285325e+03,2.796305e+03
1.286289e+03,2.791320e+03
1.287253e+03,2.787187e+03
1.288218e+03,2.783675e+03
1.289182e+03,2.784615e+03
1.290146e+03,2.784340e+03
1.291110e+03,2.773629e+03
1.292074e+03,2.755336e+03
1.293039e+03,2.739641e+03
1.294003e+03,2.731810e+03
1.294967e+03,2.725776e+03
1.295931e+03,2.720683e+03
1.296896e+03,2.716634e+03
1.297860e+03,2.712814e+03
1.298824e+03,2.708019e+03
1.299788e+03,2.706191e+03
1.300753e+03,2.708053e+03
1.301717e+03,2.711489e+03
1.302681e+03,2.717657e+03
1.303645e+03,2.724029e+03
1.304609e+03,2.722415e+03
1.305574e+03,2.710288e+03
1.306538e+03,2.699663e+03
1.307502e+03,2.693313e+03
1.308466e+03,2.690740e+03
1.309431e+03,2.692373e+03
1.310395e+03,2.696515e+03
1.311359e+03,2.696217e+03
1.312323e+03,2.691338e+03
1.313288e+03,2.686141e+03
1.314252e+03,2.683585e+03
1.315216e+03,2.683757e+03
1.316180e+03,2.686411e+03
1.317145e+03,2.690835e+03
1.318109e+03,2.696168e+03
1.319073e+03,2.701082e+03
1.320037e+03,2.703254e+03
1.321001e+03,2.701474e+03
1.321966e+03,2.697509e+03
1.322930e+03,2.692006e+03
1.323894e+03,2.686533e+03
1.324858e+03,2.681999e+03
1.325823e+03,2.676779e+03
1.326787e+03,2.676589e+03
1.327751e+03,2.683267e+03
1.328715e+03,2.688438e+03
1.329680e+03,2.685657e+03
1.330644e+03,2.678058e+03
1.331608e+03,2.680274e+03
1.332572e+03,2.691208e+03
1.333536e+03,2.699702e+03
1.334501e+03,2.702046e+03
1.335465e+03,2.702667e+03
1.336429e+03,2.708529e+03
1.337393e+03,2.716593e+03
1.338358e+03,2.722958e+03
1.339322e+03,2.726811e+03
1.340286e+03,2.726706e+03
1.341250e+03,2.718334e+03
1.342215e+03,2.709981e+03
1.343179e+03,2.707133e+03
1.344143e+03,2.707764e+03
1.345107e+03,2.707973e+03
1.346072e+03,2.706228e+03
1.347036e+03,2.705174e+03
1.348000e+03,2.705032e+03
1.348964e+03,2.703460e+03
1.349928e+03,2.700134e+03
1.350893e+03,2.696321e+03
1.351857e+03,2.692830e+03
1.352821e+03,2.689089e+03
1.353785e+03,2.686134e+03
1.354750e+03,2.683763e+03
1.355714e+03,2.680369e+03
1.356678e+03,2.675106e+03
1.357642e+03,2.670127e+03
1.358607e+03,2.667323e+03
1.359571e+03,2.665624e+03
1.360535e+03,2.663337e+03
1.361499e+03,2.660102e+03
1.362464e+03,2.657487e+03
1.363428e+03,2.656923e+03
1.364392e+03,2.657528e+03
1.365356e+03,2.657715e+03
1.366320e+03,2.656176e+03
1.367285e+03,2.652986e+03
1.368249e+03,2.648238e+03
1.369213e+03,2.644862e+03
1.370177e+03,2.644341e+03
1.371142e+03,2.643342e+03
1.372106e+03,2.636583e+03
1.373070e+03,2.625361e+03
1.374034e+03,2.619636e+03
1.374999e+03,2.619779e+03
1.375963e+03,2.622437e+03
1.376927e+03,2.626633e+03
1.377891e+03,2.630443e+03
1.378855e+03,2.631065e+03
1.379820e+03,2.629812e+03
1.380784e+03,2.628500e+03
1.381748e+03,2.628147e+03
1.382712e+03,2.628156e+03
1.383677e+03,2.629263e+03
1.384641e+03,2.626641e+03
1.385605e+03,2.615580e+03
1.386569e+03,2.601551e+03
1.387534e+03,2.593707e+03
1.388498e+03,2.593677e+03
1.389462e+03,2.593117e+03
1.390426e+03,2.591411e+03
1.391391e+03,2.585692e+03
1.392355e+03,2.572525e+03
1.393319e+03,2.558312e+03
1.394283e+03,2.554867e+03
1.395247e+03,2.559313e+03
1.396212e+03,2.567514e+03
1.397176e+03,2.578838e+03
1.398140e+03,2.586307e+03
1.399104e+03,2.580077e+03
1.400069e+03,2.573102e+03
1.401033e+03,2.576369e+03
1.401997e+03,2.585283e+03
1.402961e+03,2.586155e+03
1.403926e+03,2.573795e+03
1.404890e+03,2.563455e+03
1.405854e+03,2.555356e+03
1.406818e+03,2.552698e+03
1.407782e+03,2.560342e+03
1.408747e+03,2.574757e+03
1.409711e+03,2.578943e+03
1.410675e+03,2.574063e+03
1.411639e+03,2.572645e+03
1.412604e+03,2.579327e+03
1.413568e+03,2.585021e+03
1.414532e+03,2.582570e+03
1.415496e+03,2.577147e+03
1.416461e+03,2.570476e+03
1.417425e+03,2.562970e+03
1.418389e+03,2.557744e+03
1.419353e+03,2.556579e+03
1.420318e+03,2.556590e+03
1.421282e+03,2.560115e+03
1.422246e+03,2.562912e+03
1.423210e+03,2.560589e+03
1.424174e+03,2.554365e+03
1.425139e+03,2.549784e+03
1.426103e+03,2.546112e+03
1.427067e+03,2.543233e+03
1.428031e+03,2.541397e+03
1.428996e+03,2.540228e+03
1.429960e+03,2.540191e+03
1.430924e+03,2.539009e+03
1.431888e+03,2.532708e+03
1.432853e+03,2.522883e+03
1.433817e+03,2.516961e+03
1.434781e+03,2.522022e+03
1.435745e+03,2.524608e+03
1.436709e+03,2.521321e+03
1.437674e+03,2.515366e+03
1.438638e+03,2.510067e+03
1.439602e+03,2.506198e+03
1.440566e+03,2.504260e+03
1.441531e+03,2.503912e+03
1.442495e+03,2.504968e+03
1.443459e+03,2.507426e+03
1.444423e+03,2.508776e+03
1.445388e+03,2.505113e+03
1.446352e+03,2.499211e+03
1.447316e+03,2.494410e+03
1.448280e+03,2.491880e+03
1.449245e+03,2.490651e+03
1.450209e+03,2.491554e+03
1.451173e+03,2.492041e+03
1.452137e+03,2.489746e+03
1.453101e+03,2.487148e+03
1.454066e+03,2.488266e+03
1.455030e+03,2.492364e+03
1.455994e+03,2.490917e+03
1.456958e+03,2.485160e+03
1.457923e+03,2.484700e+03
1.458887e+03,2.493919e+03
1.459851e+03,2.502529e+03
1.460815e+03,2.501262e+03
1.461780e+03,2.494714e+03
1.462744e+03,2.486932e+03
1.463708e+03,2.479284e+03
1.464672e+03,2.474297e+03
1.465636e+03,2.475506e+03
1.466601e+03,2.474235e+03
1.467565e+03,2.467757e+03
1.468529e+03,2.462448e+03
1.469493e+03,2.464983e+03
1.470458e+03,2.472456e+03
1.471422e+03,2.476158e+03
1.472386e+03,2.477030e+03
1.473350e+03,2.476392e+03
1.474315e+03,2.473653e+03
1.475279e+03,2.471287e+03
1.476243e+03,2.471322e+03
1.477207e+03,2.471101e+03
1.478172e+03,2.469344e+03
1.479136e+03,2.466712e+03
1.480100e+03,2.465600e+03
1.481064e+03,2.467609e+03
1.482028e+03,2.464781e+03
1.482993e+03,2.455414e+03
1.483957e+03,2.447682e+03
1.484921e+03,2.450427e+03
1.485885e+03,2.458115e+03
1.486850e+03,2.459002e+03
1.487814e+03,2.455783e+03
1.488778e+03,2.457042e+03
1.489742e+03,2.468446e+03
1.490707e+03,2.473680e+03
1.491671e+03,2.462426e+03
1.492635e+03,2.452396e+03
1.493599e+03,2.450856e+03
1.494563e+03,2.454295e+03
1.495528e+03,2.455590e+03
1.496492e+03,2.454352e+03
1.497456e+03,2.450189e+03
1.498420e+03,2.443977e+03
1.499385e+03,2.439198e+03
1.500349e+03,2.440492e+03
1.501313e+03,2.442515e+03
1.502277e+03,2.439641e+03
1.503242e+03,2.433992e+03
1.504206e+03,2.428369e+03
1.505170e+03,2.421985e+03
1.506134e+03,2.419185e+03
1.507099e+03,2.421470e+03
1.508063e+03,2.424225e+03
1.509027e+03,2.426173e+03
1.509991e+03,2.426547e+03
1.510955e+03,2.421899e+03
1.511920e+03,2.415375e+03
1.512884e+03,2.417977e+03
1.513848e+03,2.429091e+03
1.514812e+03,2.433728e+03
1.515777e+03,2.411564e+03
1.516741e+03,2.394578e+03
1.517705e+03,2.399296e+03
1.518669e+03,2.408625e+03
1.519634e+03,2.408853e+03
1.520598e+03,2.400291e+03
1.521562e+03,2.398184e+03
1.522526e+03,2.401507e+03
1.523490e+03,2.404092e+03
1.524455e+03,2.404173e+03
1.525419e+03,2.403210e+03
1.526383e+03,2.403975e+03
1.527347e+03,2.403453e+03
1.528312e+03,2.398127e+03
1.529276e+03,2.390562e+03
1.530240e+03,2.387800e+03
1.531204e+03,2.390604e+03
1.532169e+03,2.394866e+03
1.533133e+03,2.401546e+03
1.534097e+03,2.403742e+03
1.535061e+03,2.392138e+03
1.536026e+03,2.375854e+03
1.536990e+03,2.373060e+03
1.537954e+03,2.379437e+03
1.538918e+03,2.388390e+03
1.539882e+03,2.399417e+03
1.540847e+03,2.403055e+03
1.541811e+03,2.385992e+03
1.542775e+03,2.374426e+03
1.543739e+03,2.379221e+03
1.544704e+03,2.390567e+03
1.545668e+03,2.390527e+03
1.546632e+03,2.382229e+03
1.547596e+03,2.378516e+03
1.548561e+03,2.379829e+03
1.549525e+03,2.383741e+03
1.550489e+03,2.391064e+03
1.551453e+03,2.396043e+03
1.552417e+03,2.394408e+03
1.553382e+03,2.390350e+03
1.554346e+03,2.387659e+03
1.555310e+03,2.386727e+03
1.556274e+03,2.387785e+03
1.557239e+03,2.390518e+03
1.558203e+03,2.390091e+03
1.559167e+03,2.385114e+03
1.560131e+03,2.381356e+03
1.561096e+03,2.385247e+03
1.562060e+03,2.391850e+03
1.563024e+03,2.398090e+03
1.563988e+03,2.403434e+03
1.564953e+03,2.406953e+03
1.565917e+03,2.407978e+03
1.566881e+03,2.408993e+03
1.567845e+03,2.409500e+03
1.568809e+03,2.409395e+03
1.569774e+03,2.408523e+03
1.570738e+03,2.408112e+03
1.571702e+03,2.411417e+03
1.572666e+03,2.414996e+03
1.573631e+03,2.413183e+03
1.574595e+03,2.406294e+03
1.575559e+03,2.404918e+03
1.576523e+03,2.413227e+03
1.577488e+03,2.419583e+03
1.578452e+03,2.420792e+03
1.579416e+03,2.418087e+03
1.580380e+03,2.410894e+03
1.581344e+03,2.402890e+03
1.582309e+03,2.401620e+03
1.583273e+03,2.405742e+03
1.584237e+03,2.411684e+03
1.585201e+03,2.421728e+03
1.586166e+03,2.424201e+03
1.587130e+03,2.413358e+03
1.588094e+03,2.402515e+03
1.589058e+03,2.398159e+03
1.590023e+03,2.397680e+03
1.590987e+03,2.395742e+03
1.591951e+03,2.393447e+03
1.592915e+03,2.392120e+03
1.593880e+03,2.390301e+03
1.594844e+03,2.384755e+03
1.595808e+03,2.369749e+03
1.596772e+03,2.357975e+03
1.597736e+03,2.353732e+03
1.598701e+03,2.352160e+03
1.599665e+03,2.349335e+03
1.600629e+03,2.344979e+03
1.601593e+03,2.334781e+03
1.602558e+03,2.322204e+03
1.603522e+03,2.319832e+03
1.604486e+03,2.333470e+03
1.605450e+03,2.342724e+03
1.606415e+03,2.335885e+03
1.607379e+03,2.328413e+03
1.608343e+03,2.325280e+03
1.609307e+03,2.324859e+03
1.610271e+03,2.325013e+03
1.611236e+03,2.325369e+03
1.612200e+03,2.326444e+03
1.613164e+03,2.328340e+03
1.614128e+03,2.328346e+03
1.615093e+03,2.321877e+03
1.616057e+03,2.316544e+03
1.617021e+03,2.316031e+03
1.617985e+03,2.314794e+03
1.618950e+03,2.310115e+03
1.619914e+03,2.302766e+03
1.620878e+03,2.294176e+03
1.621842e+03,2.285471e+03
1.622807e+03,2.280324e+03
1.623771e+03,2.279926e+03
1.624735e+03,2.280510e+03
1.625699e+03,2.277676e+03
1.626663e+03,2.276805e+03
1.627628e+03,2.281142e+03
1.628592e+03,2.284917e+03
1.629556e+03,2.281298e+03
1.630520e+03,2.273053e+03
1.631485e+03,2.270062e+03
1.632449e+03,2.271460e+03
1.633413e+03,2.274301e+03
1.634377e+03,2.279442e+03
1.635342e+03,2.281354e+03
1.636306e+03,2.275399e+03
1.637270e+03,2.268991e+03
1.638234e+03,2.266028e+03
1.639198e+03,2.264041e+03
1.640163e+03,2.252224e+03
1.641127e+03,2.236184e+03
1.642091e+03,2.234800e+03
1.643055e+03,2.247751e+03
1.644020e+03,2.259591e+03
1.644984e+03,2.261910e+03
1.645948e+03,2.262673e+03
1.646912e+03,2.265343e+03
1.647877e+03,2.265674e+03
1.648841e+03,2.257990e+03
1.649805e+03,2.246683e+03
1.650769e+03,2.247725e+03
1.651734e+03,2.255701e+03
1.652698e+03,2.257182e+03
1.653662e+03,2.247039e+03
1.654626e+03,2.238310e+03
1.655590e+03,2.234802e+03
1.656555e+03,2.232487e+03
1.657519e+03,2.231177e+03
1.658483e+03,2.231935e+03
1.659447e+03,2.237983e+03
1.660412e+03,2.243509e+03
1.661376e+03,2.236107e+03
1.662340e+03,2.220398e+03
1.663304e+03,2.210275e+03
1.664269e+03,2.209337e+03
1.665233e+03,2.214540e+03
1.666197e+03,2.228222e+03
1.667161e+03,2.237177e+03
1.668125e+03,2.233580e+03
1.669090e+03,2.224419e+03
1.670054e+03,2.219081e+03
1.671018e+03,2.215917e+03
1.671982e+03,2.213051e+03
1.672947e+03,2.210583e+03
1.673911e+03,2.210679e+03
1.674875e+03,2.212819e+03
1.675839e+03,2.215184e+03
1.676804e+03,2.218947e+03
1.677768e+03,2.220515e+03
1.678732e+03,2.212825e+03
1.679696e+03,2.203268e+03
1.680661e+03,2.196769e+03
1.681625e+03,2.193085e+03
1.682589e+03,2.194628e+03
1.683553e+03,2.202453e+03
1.684517e+03,2.204007e+03
1.685482e+03,2.199188e+03
1.686446e+03,2.194849e+03
1.687410e+03,2.193001e+03
1.688374e+03,2.192692e+03
1.689339e+03,2.194583e+03
1.690303e+03,2.195995e+03
1.691267e+03,2.194798e+03
1.692231e+03,2.192770e+03
1.693196e+03,2.192295e+03
1.694160e+03,2.192378e+03
1.695124e+03,2.190052e+03
1.696088e+03,2.186197e+03
1.697052e+03,2.184257e+03
1.698017e+03,2.186136e+03
1.698981e+03,2.186061e+03
1.699945e+03,2.180815e+03
1.700909e+03,2.174018e+03
1.701874e+03,2.168350e+03
1.702838e+03,2.165903e+03
1.703802e+03,2.171322e+03
1.704766e+03,2.179013e+03
1.705731e+03,2.179481e+03
1.706695e+03,2.172597e+03
1.707659e+03,2.168304e+03
1.708623e+03,2.170432e+03
1.709588e+03,2.171589e+03
1.710552e+03,2.169430e+03
1.711516e+03,2.166778e+03
1.712480e+03,2.167387e+03
1.713444e+03,2.168483e+03
1.714409e+03,2.169005e+03
1.715373e+03,2.168229e+03
1.716337e+03,2.163077e+03
1.717301e+03,2.154136e+03
1.718266e+03,2.150915e+03
1.719230e+03,2.152750e+03
1.720194e+03,2.152869e+03
1.721158e+03,2.148668e+03
1.722123e+03,2.146509e+03
1.723087e+03,2.155980e+03
1.724051e+03,2.162831e+03
1.725015e+03,2.159108e+03
1.725979e+03,2.150800e+03
1.726944e+03,2.144000e+03
1.727908e+03,2.139095e+03
1.728872e+03,2.139625e+03
1.729836e+03,2.142955e+03
1.730801e+03,2.141980e+03
1.731765e+03,2.130227e+03
1.732729e+03,2.125052e+03
1.733693e+03,2.131262e+03
1.734658e+03,2.134321e+03
1.735622e+03,2.125571e+03
1.736586e+03,2.115172e+03
1.737550e+03,2.121445e+03
1.738515e+03,2.132456e+03
1.739479e+03,2.133395e+03
1.740443e+03,2.124777e+03
1.741407e+03,2.118285e+03
1.742371e+03,2.113887e+03
1.743336e+03,2.114366e+03
1.744300e+03,2.119585e+03
1.745264e+03,2.122591e+03
1.746228e+03,2.118991e+03
1.747193e+03,2.114115e+03
1.748157e+03,2.111286e+03
1.749121e+03,2.109332e+03
1.750085e+03,2.104888e+03
1.751050e+03,2.097387e+03
1.752014e+03,2.089789e+03
1.752978e+03,2.083917e+03
1.753942e+03,2.083281e+03
1.754906e+03,2.088132e+03
1.755871e+03,2.095131e+03
1.756835e+03,2.106433e+03
1.757799e+03,2.107369e+03
1.758763e+03,2.096060e+03
1.759728e+03,2.084842e+03
1.760692e+03,2.086756e+03
1.761656e+03,2.092124e+03
1.762620e+03,2.089927e+03
1.763585e+03,2.084474e+03
1.764549e+03,2.083061e+03
1.765513e+03,2.084778e+03
1.766477e+03,2.083319e+03
1.767442e+03,2.079482e+03
1.768406e+03,2.073906e+03
1.769370e+03,2.066048e+03
1.770334e+03,2.062398e+03
1.771298e+03,2.068004e+03
1.772263e+03,2.073813e+03
1.773227e+03,2.079112e+03
1.774191e+03,2.081423e+03
1.775155e+03,2.074517e+03
1.776120e+03,2.063669e+03
1.777084e+03,2.057294e+03
1.778048e+03,2.054361e+03
1.779012e+03,2.050029e+03
1.779977e+03,2.042606e+03
1.780941e+03,2.043928e+03
1.781905e+03,2.052848e+03
1.782869e+03,2.058947e+03
1.783833e+03,2.056917e+03
1.784798e+03,2.054549e+03
1.785762e+03,2.056941e+03
1.786726e+03,2.059426e+03
1.787690e+03,2.060038e+03
1.788655e+03,2.059890e+03
1.789619e+03,2.061630e+03
1.790583e+03,2.063032e+03
1.791547e+03,2.057093e+03
1.792512e+03,2.045617e+03
1.793476e+03,2.038827e+03
1.794440e+03,2.037934e+03
1.795404e+03,2.039018e+03
1.796369e+03,2.041421e+03
1.797333e+03,2.040767e+03
1.798297e+03,2.032433e+03
1.799261e+03,2.024916e+03
1.800225e+03,2.023487e+03
1.801190e+03,2.024610e+03
1.802154e+03,2.027711e+03
1.803118e+03,2.030741e+03
1.804082e+03,2.028482e+03
1.805047e+03,2.023617e+03
1.806011e+03,2.020706e+03
1.806975e+03,2.019983e+03
1.807939e+03,2.019023e+03
1.808904e+03,2.016156e+03
1.809868e+03,2.015800e+03
1.810832e+03,2.019197e+03
1.811796e+03,2.021954e+03
1.812760e+03,2.018764e+03
1.813725e+03,2.015483e+03
1.814689e+03,2.015188e+03
1.815653e+03,2.017928e+03
1.816617e+03,2.026644e+03
1.817582e+03,2.036219e+03
1.818546e+03,2.024291e+03
1.819510e+03,2.001456e+03
1.820474e+03,1.993480e+03
1.821439e+03,2.004754e+03
1.822403e+03,2.007881e+03
1.823367e+03,1.998666e+03
1.824331e+03,1.993613e+03
1.825296e+03,1.994811e+03
1.826260e+03,1.995975e+03
1.827224e+03,1.992224e+03
1.828188e+03,1.990554e+03
1.829152e+03,1.997172e+03
1.830117e+03,2.002140e+03
1.831081e+03,1.994325e+03
1.832045e+03,1.980045e+03
1.833009e+03,1.983511e+03
1.833974e+03,1.996551e+03
1.834938e+03,1.998746e+03
1.835902e+03,1.983875e+03
1.836866e+03,1.979038e+03
1.837831e+03,1.985024e+03
1.838795e+03,1.987171e+03
1.839759e+03,1.983207e+03
1.840723e+03,1.978113e+03
1.841688e+03,1.972432e+03
1.842652e+03,1.968457e+03
1.843616e+03,1.965808e+03
1.844580e+03,1.964212e+03
1.845544e+03,1.967313e+03
1.846509e+03,1.970547e+03
1.847473e+03,1.961191e+03
1.848437e+03,1.946958e+03
1.849401e+03,1.943383e+03
1.850366e+03,1.951056e+03
1.851330e+03,1.957287e+03
1.852294e+03,1.962283e+03
1.853258e+03,1.961381e+03
1.854223e+03,1.952624e+03
1.855187e+03,1.945703e+03
1.856151e+03,1.944992e+03
1.857115e+03,1.944842e+03
1.858079e+03,1.944038e+03
1.859044e+03,1.942735e+03
1.860008e+03,1.941249e+03
1.860972e+03,1.940982e+03
1.861936e+03,1.943739e+03
1.862901e+03,1.948106e+03
1.863865e+03,1.952195e+03
1.864829e+03,1.954051e+03
1.865793e+03,1.946237e+03
1.866758e+03,1.932437e+03
1.867722e+03,1.920460e+03
1.868686e+03,1.910830e+03
1.869650e+03,1.913252e+03
1.870615e+03,1.930751e+03
1.871579e+03,1.938991e+03
1.872543e+03,1.931688e+03
1.873507e+03,1.924682e+03
1.874471e+03,1.933389e+03
1.875436e+03,1.938327e+03
1.876400e+03,1.929573e+03
1.877364e+03,1.917420e+03
1.878328e+03,1.912720e+03
1.879293e+03,1.913047e+03
1.880257e+03,1.916831e+03
1.881221e+03,1.919970e+03
1.882185e+03,1.912924e+03
1.883150e+03,1.895599e+03
1.884114e+03,1.894178e+03
1.885078e+03,1.905550e+03
1.886042e+03,1.910765e+03
1.887006e+03,1.903241e+03
1.887971e+03,1.899303e+03
1.888935e+03,1.908237e+03
1.889899e+03,1.913616e+03
1.890863e+03,1.910244e+03
1.891828e+03,1.903872e+03
1.892792e+03,1.901832e+03
1.893756e+03,1.899430e+03
1.894720e+03,1.892537e+03
1.895685e+03,1.886850e+03
1.896649e+03,1.888399e+03
1.897613e+03,1.893173e+03
1.898577e+03,1.888345e+03
1.899542e+03,1.878853e+03
1.900506e+03,1.875939e+03
1.901470e+03,1.881863e+03
1.902434e+03,1.880261e+03
1.903398e+03,1.871755e+03
1.904363e+03,1.868522e+03
1.905327e+03,1.874430e+03
1.906291e+03,1.878513e+03
1.907255e+03,1.870387e+03
1.908220e+03,1.866008e+03
1.909184e+03,1.869262e+03
1.910148e+03,1.872688e+03
1.911112e+03,1.869991e+03
1.912077e+03,1.864805e+03
1.913041e+03,1.856990e+03
1.914005e+03,1.850996e+03
1.914969e+03,1.852836e+03
1.915933e+03,1.859362e+03
1.916898e+03,1.857942e+03
1.917862e+03,1.852976e+03
1.918826e+03,1.853729e+03
1.919790e+03,1.862388e+03
1.920755e+03,1.864483e+03
1.921719e+03,1.859265e+03
1.922683e+03,1.853615e+03
1.923647e+03,1.849577e+03
1.924612e+03,1.847643e+03
1.925576e+03,1.850663e+03
1.926540e+03,1.850809e+03
1.927504e+03,1.845247e+03
1.928469e+03,1.839598e+03
1.929433e+03,1.839262e+03
1.930397e+03,1.839671e+03
1.931361e+03,1.838055e+03
1.932325e+03,1.835224e+03
1.933290e+03,1.832200e+03
1.934254e+03,1.830547e+03
1.935218e+03,1.832520e+03
1.936182e+03,1.833767e+03
1.937147e+03,1.826959e+03
1.938111e+03,1.814484e+03
1.939075e+03,1.816691e+03
1.940039e+03,1.830783e+03
1.941004e+03,1.830029e+03
1.941968e+03,1.810436e+03
1.942932e+03,1.798061e+03
1.943896e+03,1.804745e+03
1.944860e+03,1.805323e+03
1.945825e+03,1.797799e+03
1.946789e+03,1.793874e+03
1.947753e+03,1.806099e+03
1.948717e+03,1.815852e+03
1.949682e+03,1.814323e+03
1.950646e+03,1.810420e+03
1.951610e+03,1.809626e+03
1.952574e+03,1.808995e+03
1.953539e+03,1.801147e+03
1.954503e+03,1.793792e+03
1.955467e+03,1.797933e+03
1.956431e+03,1.807823e+03
1.957396e+03,1.806992e+03
1.958360e+03,1.798102e+03
1.959324e+03,1.786901e+03
1.960288e+03,1.775757e+03
1.961252e+03,1.768205e+03
1.962217e+03,1.762988e+03
1.963181e+03,1.767206e+03
1.964145e+03,1.779426e+03
1.965109e+03,1.787467e+03
1.966074e+03,1.781953e+03
1.967038e+03,1.781675e+03
1.968002e+03,1.787488e+03
1.968966e+03,1.789755e+03
1.969931e+03,1.783560e+03
1.970895e+03,1.774555e+03
1.971859e+03,1.766183e+03
1.972823e+03,1.761250e+03
1.973787e+03,1.760067e+03
1.974752e+03,1.761550e+03
1.975716e+03,1.768408e+03
1.976680e+03,1.774065e+03
1.977644e+03,1.772111e+03
1.978609e+03,1.765413e+03
1.979573e+03,1.753031e+03
1.980537e+03,1.739152e+03
1.981501e+03,1.745637e+03
1.982466e+03,1.764105e+03
1.983430e+03,1.766101e+03
1.984394e+03,1.746690e+03
1.985358e+03,1.743015e+03
1.986323e+03,1.752209e+03
1.987287e+03,1.758475e+03
1.988251e+03,1.756820e+03
1.989215e+03,1.751538e+03
1.990179e+03,1.742401e+03
1.991144e+03,1.739705e+03
1.992108e+03,1.747374e+03
1.993072e+03,1.752849e+03
1.994036e+03,1.741057e+03
1.995001e+03,1.733624e+03
1.995965e+03,1.738103e+03
1.996929e+03,1.742572e+03
1.997893e+03,1.729334e+03
1.998858e+03,1.715345e+03
1.999822e+03,1.719812e+03
2.000786e+03,1.727318e+03
2.001750e+03,1.724265e+03
2.002714e+03,1.718194e+03
2.003679e+03,1.727798e+03
2.004643e+03,1.741067e+03
2.005607e+03,1.736548e+03
2.006571e+03,1.720458e+03
2.007536e+03,1.719674e+03
2.008500e+03,1.728570e+03
2.009464e+03,1.728076e+03
2.010428e+03,1.717191e+03
2.011393e+03,1.708326e+03
2.012357e+03,1.701953e+03
2.013321e+03,1.702505e+03
2.014285e+03,1.708452e+03
2.015250e+03,1.712823e+03
2.016214e+03,1.711820e+03
2.017178e+03,1.709832e+03
2.018142e+03,1.707461e+03
2.019106e+03,1.704731e+03
2.020071e+03,1.700516e+03
2.021035e+03,1.698018e+03
2.021999e+03,1.701872e+03
2.022963e+03,1.700203e+03
2.023928e+03,1.687355e+03
2.024892e+03,1.673769e+03
2.025856e+03,1.669454e+03
2.026820e+03,1.671194e+03
2.027785e+03,1.678240e+03
2.028749e+03,1.685391e+03
2.029713e+03,1.684426e+03
2.030677e+03,1.681357e+03
2.031641e+03,1.684503e+03
2.032606e+03,1.690470e+03
2.033570e+03,1.693901e+03
2.034534e+03,1.694372e+03
2.035498e+03,1.691601e+03
2.036463e+03,1.685744e+03
2.037427e+03,1.674263e+03
2.038391e+03,1.658783e+03
2.039355e+03,1.654597e+03
2.040320e+03,1.659307e+03
2.041284e+03,1.661450e+03
2.042248e+03,1.657966e+03
2.043212e+03,1.656214e+03
2.044177e+03,1.657260e+03
2.045141e+03,1.660769e+03
2.046105e+03,1.666192e+03
2.047069e+03,1.668707e+03
2.048033e+03,1.662352e+03
2.048998e+03,1.657615e+03
2.049962e+03,1.655985e+03
2.050926e+03,1.654729e+03
2.051890e+03,1.650875e+03
2.052854e+03,1.649022e+03
2.053819e+03,1.651103e+03
2.054783e+03,1.650322e+03
2.055747e+03,1.643145e+03
2.056711e+03,1.635961e+03
2.057676e+03,1.635950e+03
2.058640e+03,1.635698e+03
2.059604e+03,1.628864e+03
2.060568e+03,1.621236e+03
2.061533e+03,1.625822e+03
2.062497e+03,1.631799e+03
2.063461e+03,1.625617e+03
2.064425e+03,1.616023e+03
2.065390e+03,1.615679e+03
2.066354e+03,1.620175e+03
2.067318e+03,1.624653e+03
2.068282e+03,1.626655e+03
2.069247e+03,1.619742e+03
2.070211e+03,1.606291e+03
2.071175e+03,1.606346e+03
2.072139e+03,1.614941e+03
2.073104e+03,1.619395e+03
2.074068e+03,1.618737e+03
2.075032e+03,1.623996e+03
2.075996e+03,1.632116e+03
2.076960e+03,1.631991e+03
2.077925e+03,1.621180e+03
2.078889e+03,1.608317e+03
2.079853e+03,1.593791e+03
2.080817e+03,1.589518e+03
2.081782e+03,1.596054e+03
2.082746e+03,1.600191e+03
2.083710e+03,1.599206e+03
2.084674e+03,1.591178e+03
2.085639e+03,1.576957e+03
2.086603e+03,1.569650e+03
2.087567e+03,1.576992e+03
2.088531e+03,1.586732e+03
2.089496e+03,1.597606e+03
2.090460e+03,1.601269e+03
2.091424e+03,1.595578e+03
2.092388e+03,1.587230e+03
2.093353e+03,1.574732e+03
2.094317e+03,1.567796e+03
2.095281e+03,1.568400e+03
2.096245e+03,1.572036e+03
2.097209e+03,1.579293e+03
2.098174e+03,1.581154e+03
2.099138e+03,1.573929e+03
2.100102e+03,1.564180e+03
2.101066e+03,1.557851e+03
2.102031e+03,1.553107e+03
2.102995e+03,1.547153e+03
2.103959e+03,1.543657e+03
2.104923e+03,1.547809e+03
2.105887e+03,1.555645e+03
2.106852e+03,1.557969e+03
2.107816e+03,1.557419e+03
2.108780e+03,1.559384e+03
2.109744e+03,1.561395e+03
2.110708e+03,1.556291e+03
2.111673e+03,1.550237e+03
2.112637e+03,1.553000e+03
2.113601e+03,1.558686e+03
2.114565e+03,1.554813e+03
2.115530e+03,1.544866e+03
2.116494e+03,1.534224e+03
2.117458e+03,1.526720e+03
2.118422e+03,1.524684e+03
2.119387e+03,1.526514e+03
2.120351e+03,1.532045e+03
2.121315e+03,1.539526e+03
2.122279e+03,1.548088e+03
2.123244e+03,1.557469e+03
2.124208e+03,1.557803e+03
2.125172e+03,1.551277e+03
2.126136e+03,1.542483e+03
2.127101e+03,1.532198e+03
2.128065e+03,1.523467e+03
2.129029e+03,1.516358e+03
2.129993e+03,1.515810e+03
2.130958e+03,1.521322e+03
2.131922e+03,1.521983e+03
2.132886e+03,1.516975e+03
2.133850e+03,1.516514e+03
2.134814e+03,1.522880e+03
2.135779e+03,1.529579e+03
2.136743e+03,1.535156e+03
2.137707e+03,1.533302e+03
2.138671e+03,1.524697e+03
2.139636e+03,1.517635e+03
2.140600e+03,1.516719e+03
2.141564e+03,1.516743e+03
2.142528e+03,1.517704e+03
2.143493e+03,1.517306e+03
2.144457e+03,1.513411e+03
2.145421e+03,1.509058e+03
2.146385e+03,1.504781e+03
2.147350e+03,1.503779e+03
2.148314e+03,1.508301e+03
2.149278e+03,1.512998e+03
2.150242e+03,1.511137e+03
2.151207e+03,1.510813e+03
2.152171e+03,1.513532e+03
2.153135e+03,1.511627e+03
2.154099e+03,1.495293e+03
2.155063e+03,1.484553e+03
2.156028e+03,1.484901e+03
2.156992e+03,1.487727e+03
2.157956e+03,1.483867e+03
2.158920e+03,1.482256e+03
2.159885e+03,1.489593e+03
2.160849e+03,1.492902e+03
2.161813e+03,1.483661e+03
2.162777e+03,1.474002e+03
2.163741e+03,1.477655e+03
2.164706e+03,1.479700e+03
2.165670e+03,1.475703e+03
2.166634e+03,1.470799e+03
2.167598e+03,1.467257e+03
2.168563e+03,1.466556e+03
2.169527e+03,1.468492e+03
2.170491e+03,1.469753e+03
2.171455e+03,1.469255e+03
2.172420e+03,1.467344e+03
2.173384e+03,1.464163e+03
2.174348e+03,1.460565e+03
2.175312e+03,1.455036e+03
2.176277e+03,1.450424e+03
2.177241e+03,1.452339e+03
2.178205e+03,1.453952e+03
2.179169e+03,1.451744e+03
2.180134e+03,1.448312e+03
2.181098e+03,1.443798e+03
2.182062e+03,1.441657e+03
2.183026e+03,1.443580e+03
2.183990e+03,1.446094e+03
2.184955e+03,1.442785e+03
2.185919e+03,1.439807e+03
2.186883e+03,1.441797e+03
2.187847e+03,1.445356e+03
2.188812e+03,1.448683e+03
2.189776e+03,1.450678e+03
2.190740e+03,1.449098e+03
2.191704e+03,1.444544e+03
2.192668e+03,1.435663e+03
2.193633e+03,1.427301e+03
2.194597e+03,1.427060e+03
2.195561e+03,1.430697e+03
2.196525e+03,1.434905e+03
2.197490e+03,1.437123e+03
2.198454e+03,1.429922e+03
2.199418e+03,1.421669e+03
2.200382e+03,1.420752e+03
2.201347e+03,1.423827e+03
2.202311e+03,1.424807e+03
2.203275e+03,1.423740e+03
2.204239e+03,1.418413e+03
2.205204e+03,1.411560e+03
2.206168e+03,1.408924e+03
2.207132e+03,1.409152e+03
2.208096e+03,1.410643e+03
2.209061e+03,1.411127e+03
2.210025e+03,1.410527e+03
2.210989e+03,1.407569e+03
2.211953e+03,1.395974e+03
2.212917e+03,1.388408e+03
2.213882e+03,1.394504e+03
2.214846e+03,1.406249e+03
2.215810e+03,1.414966e+03
2.216774e+03,1.415908e+03
2.217739e+03,1.405902e+03
2.218703e+03,1.394437e+03
2.219667e+03,1.401382e+03
2.220631e+03,1.410996e+03
2.221595e+03,1.404919e+03
2.222560e+03,1.395009e+03
2.223524e+03,1.403187e+03
2.224488e+03,1.412906e+03
2.225452e+03,1.402329e+03
2.226417e+03,1.385935e+03
2.227381e+03,1.372863e+03
2.228345e+03,1.366665e+03
2.229309e+03,1.377633e+03
2.230274e+03,1.389025e+03
2.231238e+03,1.385303e+03
2.232202e+03,1.375809e+03
2.233166e+03,1.374720e+03
2.234131e+03,1.377957e+03
2.235095e+03,1.382343e+03
2.236059e+03,1.385923e+03
2.237023e+03,1.384203e+03
2.237988e+03,1.381221e+03
2.238952e+03,1.380296e+03
2.239916e+03,1.377457e+03
2.240880e+03,1.364258e+03
2.241844e+03,1.353998e+03
2.242809e+03,1.356927e+03
2.243773e+03,1.364924e+03
2.244737e+03,1.372445e+03
2.245701e+03,1.377015e+03
2.246666e+03,1.376451e+03
2.247630e+03,1.371267e+03
2.248594e+03,1.360234e+03
2.249558e+03,1.350460e+03
2.250522e+03,1.346980e+03
2.251487e+03,1.349661e+03
2.252451e+03,1.360381e+03
2.253415e+03,1.366794e+03
2.254379e+03,1.352194e+03
2.255344e+03,1.339494e+03
2.256308e+03,1.338208e+03
2.257272e+03,1.341259e+03
2.258236e+03,1.344963e+03
2.259201e+03,1.345282e+03
2.260165e+03,1.339497e+03
2.261129e+03,1.334756e+03
2.262093e+03,1.341080e+03
2.263058e+03,1.342208e+03
2.264022e+03,1.333648e+03
2.264986e+03,1.327721e+03
2.265950e+03,1.336278e+03
2.266915e+03,1.338368e+03
2.267879e+03,1.325143e+03
2.268843e+03,1.314245e+03
2.269807e+03,1.316346e+03
2.270771e+03,1.318275e+03
2.271736e+03,1.314710e+03
2.272700e+03,1.313531e+03
2.273664e+03,1.315397e+03
2.274628e+03,1.319833e+03
2.275593e+03,1.328822e+03
2.276557e+03,1.331995e+03
2.277521e+03,1.328823e+03
2.278485e+03,1.322344e+03
2.279449e+03,1.309417e+03
2.280414e+03,1.305933e+03
2.281378e+03,1.312307e+03
2.282342e+03,1.317447e+03
2.283306e+03,1.313040e+03
2.284271e+03,1.311706e+03
2.285235e+03,1.312587e+03
2.286199e+03,1.307351e+03
2.287163e+03,1.290885e+03
2.288128e+03,1.292347e+03
2.289092e+03,1.308492e+03
2.290056e+03,1.316192e+03
2.291020e+03,1.310055e+03
2.291985e+03,1.309971e+03
2.292949e+03,1.315639e+03
2.293913e+03,1.306371e+03
2.294877e+03,1.282311e+03
2.295842e+03,1.275265e+03
2.296806e+03,1.283028e+03
2.297770e+03,1.286206e+03
2.298734e+03,1.284772e+03
2.299698e+03,1.286115e+03
2.300663e+03,1.289826e+03
2.301627e+03,1.283542e+03
2.302591e+03,1.272653e+03
2.303555e+03,1.272854e+03
2.304520e+03,1.280912e+03
2.305484e+03,1.277761e+03
2.306448e+03,1.270862e+03
2.307412e+03,1.272282e+03
2.308376e+03,1.279016e+03
2.309341e+03,1.287672e+03
2.310305e+03,1.293899e+03
2.311269e+03,1.291220e+03
2.312233e+03,1.285387e+03
2.313198e+03,1.284060e+03
2.314162e+03,1.282706e+03
2.315126e+03,1.276158e+03
2.316090e+03,1.268067e+03
2.317055e+03,1.262546e+03
2.318019e+03,1.258322e+03
2.318983e+03,1.250993e+03
2.319947e+03,1.248118e+03
2.320912e+03,1.263493e+03
2.321876e+03,1.275548e+03
2.322840e+03,1.261374e+03
2.323804e+03,1.248015e+03
2.324769e+03,1.248290e+03
2.325733e+03,1.252649e+03
2.326697e+03,1.255635e+03
2.327661e+03,1.255697e+03
2.328625e+03,1.250206e+03
2.329590e+03,1.247740e+03
2.330554e+03,1.259195e+03
2.331518e+03,1.264688e+03
2.332482e+03,1.261027e+03
2.333447e+03,1.253295e+03
2.334411e+03,1.239828e+03
2.335375e+03,1.234722e+03
2.336339e+03,1.238289e+03
2.337303e+03,1.238792e+03
2.338268e+03,1.227174e+03
2.339232e+03,1.227076e+03
2.340196e+03,1.236582e+03
2.341160e+03,1.239006e+03
2.342125e+03,1.228835e+03
2.343089e+03,1.229026e+03
2.344053e+03,1.235784e+03
2.345017e+03,1.242642e+03
2.345982e+03,1.248117e+03
2.346946e+03,1.245230e+03
2.347910e+03,1.238107e+03
2.348874e+03,1.235151e+03
2.349839e+03,1.233934e+03
2.350803e+03,1.227844e+03
2.351767e+03,1.220184e+03
2.352731e+03,1.216646e+03
2.353696e+03,1.216398e+03
2.354660e+03,1.216887e+03
2.355624e+03,1.217109e+03
2.356588e+03,1.216254e+03
2.357552e+03,1.216554e+03
2.358517e+03,1.221653e+03
2.359481e+03,1.226176e+03
2.360445e+03,1.221437e+03
2.361409e+03,1.214689e+03
2.362374e+03,1.208970e+03
2.363338e+03,1.204855e+03
2.364302e+03,1.207606e+03
2.365266e+03,1.208418e+03
2.366230e+03,1.203209e+03
2.367195e+03,1.198683e+03
2.368159e+03,1.199939e+03
2.369123e+03,1.199794e+03
2.370087e+03,1.198392e+03
2.371052e+03,1.195512e+03
2.372016e+03,1.189443e+03
2.372980e+03,1.188493e+03
2.373944e+03,1.192043e+03
2.374909e+03,1.192335e+03
2.375873e+03,1.185885e+03
2.376837e+03,1.184386e+03
2.377801e+03,1.186461e+03
2.378766e+03,1.183854e+03
2.379730e+03,1.175985e+03
2.380694e+03,1.173667e+03
2.381658e+03,1.174725e+03
2.382623e+03,1.168232e+03
2.383587e+03,1.158830e+03
2.384551e+03,1.166987e+03
2.385515e+03,1.181634e+03
2.386479e+03,1.184793e+03
2.387444e+03,1.183179e+03
2.388408e+03,1.189226e+03
2.389372e+03,1.193878e+03
2.390336e+03,1.184158e+03
2.391301e+03,1.172543e+03
2.392265e+03,1.171352e+03
2.393229e+03,1.171265e+03
2.394193e+03,1.167012e+03
2.395157e+03,1.161946e+03
2.396122e+03,1.156410e+03
2.397086e+03,1.155953e+03
2.398050e+03,1.163496e+03
2.399014e+03,1.169493e+03
2.399979e+03,1.169900e+03
2.400943e+03,1.169416e+03
2.401907e+03,1.168693e+03
2.402871e+03,1.166929e+03
2.403836e+03,1.164329e+03
2.404800e+03,1.161975e+03
2.405764e+03,1.159525e+03
2.406728e+03,1.152358e+03
2.407693e+03,1.141652e+03
2.408657e+03,1.141184e+03
2.409621e+03,1.149177e+03
2.410585e+03,1.153794e+03
2.411550e+03,1.154729e+03
2.412514e+03,1.152734e+03
2.413478e+03,1.148864e+03
2.414442e+03,1.145628e+03
2.415406e+03,1.143069e+03
2.416371e+03,1.140333e+03
2.417335e+03,1.139013e+03
2.418299e+03,1.142000e+03
2.419263e+03,1.146904e+03
2.420228e+03,1.154035e+03
2.421192e+03,1.155982e+03
2.422156e+03,1.140348e+03
2.423120e+03,1.127327e+03
2.424084e+03,1.120152e+03
2.425049e+03,1.118938e+03
2.426013e+03,1.129701e+03
2.426977e+03,1.131599e+03
2.427941e+03,1.124088e+03
2.428906e+03,1.123449e+03
2.429870e+03,1.135117e+03
2.430834e+03,1.135629e+03
2.431798e+03,1.127114e+03
2.432763e+03,1.122267e+03
2.433727e+03,1.121410e+03
2.434691e+03,1.116408e+03
2.435655e+03,1.112033e+03
2.436620e+03,1.121095e+03
2.437584e+03,1.135470e+03
2.438548e+03,1.133266e+03
2.439512e+03,1.125090e+03
2.440477e+03,1.121434e+03
2.441441e+03,1.118820e+03
2.442405e+03,1.114363e+03
2.443369e+03,1.109035e+03
2.444333e+03,1.103365e+03
2.445298e+03,1.099759e+03
2.446262e+03,1.101212e+03
2.447226e+03,1.103036e+03
2.448190e+03,1.104997e+03
2.449155e+03,1.105589e+03
2.450119e+03,1.102619e+03
2.451083e+03,1.103026e+03
2.452047e+03,1.106245e+03
2.453011e+03,1.110044e+03
2.453976e+03,1.114592e+03
2.454940e+03,1.111816e+03
2.455904e+03,1.104651e+03
2.456868e+03,1.098722e+03
2.457833e+03,1.093452e+03
2.458797e+03,1.084391e+03
2.459761e+03,1.078893e+03
2.460725e+03,1.089060e+03
2.461690e+03,1.103304e+03
2.462654e+03,1.107670e+03
2.463618e+03,1.103843e+03
2.464582e+03,1.092346e+03
2.465547e+03,1.083959e+03
2.466511e+03,1.092416e+03
2.467475e+03,1.093441e+03
2.468439e+03,1.080930e+03
2.469404e+03,1.073337e+03
2.470368e+03,1.090510e+03
2.471332e+03,1.095303e+03
2.472296e+03,1.087355e+03
2.473260e+03,1.081809e+03
2.474225e+03,1.082919e+03
2.475189e+03,1.077763e+03
2.476153e+03,1.070296e+03
2.477117e+03,1.070275e+03
2.478082e+03,1.076461e+03
2.479046e+03,1.090753e+03
2.480010e+03,1.102662e+03
2.480974e+03,1.096521e+03
2.481938e+03,1.083981e+03
2.482903e+03,1.076120e+03
2.483867e+03,1.074342e+03
2.484831e+03,1.079691e+03
2.485795e+03,1.083167e+03
2.486760e+03,1.076520e+03
2.487724e+03,1.069980e+03
2.488688e+03,1.065764e+03
2.489652e+03,1.062122e+03
2.490617e+03,1.055781e+03
2.491581e+03,1.056440e+03
2.492545e+03,1.062953e+03
2.493509e+03,1.064302e+03
2.494474e+03,1.058794e+03
2.495438e+03,1.057390e+03
2.496402e+03,1.058612e+03
2.497366e+03,1.059710e+03
2.498331e+03,1.060788e+03
2.499295e+03,1.061550e+03
2.500259e+03,1.064169e+03
2.501223e+03,1.073509e+03
2.502188e+03,1.080459e+03
2.503152e+03,1.073716e+03
2.504116e+03,1.061754e+03
2.505080e+03,1.046746e+03
2.506044e+03,1.038457e+03
2.507009e+03,1.047935e+03
2.507973e+03,1.055313e+03
2.508937e+03,1.059896e+03
2.509901e+03,1.057432e+03
2.510865e+03,1.045898e+03
2.511830e+03,1.044288e+03
2.512794e+03,1.047632e+03
2.513758e+03,1.042521e+03
2.514722e+03,1.033878e+03
2.515687e+03,1.036626e+03
2.516651e+03,1.041780e+03
2.517615e+03,1.038728e+03
2.518579e+03,1.035194e+03
2.519544e+03,1.048788e+03
2.520508e+03,1.049043e+03
2.521472e+03,1.023279e+03
2.522436e+03,1.004893e+03
2.523401e+03,1.026093e+03
2.524365e+03,1.042916e+03
2.525329e+03,1.051452e+03
2.526293e+03,1.047684e+03
2.527258e+03,1.030835e+03
2.528222e+03,1.025042e+03
2.529186e+03,1.027589e+03
2.530150e+03,1.029543e+03
2.531115e+03,1.031012e+03
2.532079e+03,1.033744e+03
2.533043e+03,1.035274e+03
2.534007e+03,1.031998e+03
2.534971e+03,1.027947e+03
2.535936e+03,1.034005e+03
2.536900e+03,1.033122e+03
2.537864e+03,1.017392e+03
2.538828e+03,1.007852e+03
2.539792e+03,1.016097e+03
2.540757e+03,1.019765e+03
2.541721e+03,1.016452e+03
2.542685e+03,1.015769e+03
2.543649e+03,1.019129e+03
2.544614e+03,1.027631e+03
2.545578e+03,1.035949e+03
2.546542e+03,1.030822e+03
2.547506e+03,1.019132e+03
2.548471e+03,1.018273e+03
2.549435e+03,1.017554e+03
2.550399e+03,1.004053e+03
2.551363e+03,9.943907e+02
2.552328e+03,1.006301e+03
2.553292e+03,1.018848e+03
2.554256e+03,1.026652e+03
2.555220e+03,1.025366e+03
2.556185e+03,1.014991e+03
2.557149e+03,1.008207e+03
2.558113e+03,1.007577e+03
2.559077e+03,1.012808e+03
2.560042e+03,1.020196e+03
2.561006e+03,1.019322e+03
2.561970e+03,1.013507e+03
2.562934e+03,1.005359e+03
2.563898e+03,9.978659e+02
2.564863e+03,9.939573e+02
2.565827e+03,9.920155e+02
2.566791e+03,9.933741e+02
2.567755e+03,9.978062e+02
2.568719e+03,1.004046e+03
2.569684e+03,1.005944e+03
2.570648e+03,9.995579e+02
2.571612e+03,9.941867e+02
2.572576e+03,9.913410e+02
2.573541e+03,9.933811e+02
2.574505e+03,9.973152e+02
2.575469e+03,9.893580e+02
2.576433e+03,9.798619e+02
2.577398e+03,9.890012e+02
2.578362e+03,1.000700e+03
2.579326e+03,9.914336e+02
2.580290e+03,9.785477e+02
2.581255e+03,9.684672e+02
2.582219e+03,9.647158e+02
2.583183e+03,9.768333e+02
2.584147e+03,9.832763e+02
2.585112e+03,9.843363e+02
2.586076e+03,9.799592e+02
2.587040e+03,9.705504e+02
2.588004e+03,9.688542e+02
2.588969e+03,9.697883e+02
2.589933e+03,9.621881e+02
2.590897e+03,9.533898e+02
2.591861e+03,9.619702e+02
2.592825e+03,9.725589e+02
2.593790e+03,9.744561e+02
2.594754e+03,9.755304e+02
2.595718e+03,9.830422e+02
2.596682e+03,9.832781e+02
2.597646e+03,9.724602e+02
2.598611e+03,9.674864e+02
2.599575e+03,9.701268e+02
2.600539e+03,9.639690e+02
2.601503e+03,9.522043e+02
2.602468e+03,9.566462e+02
2.603432e+03,9.676153e+02
2.604396e+03,9.669153e+02
2.605360e+03,9.624909e+02
2.606325e+03,9.585969e+02
2.607289e+03,9.560833e+02
2.608253e+03,9.556416e+02
2.609217e+03,9.552789e+02
2.610182e+03,9.521077e+02
2.611146e+03,9.523703e+02
2.612110e+03,9.557469e+02
2.613074e+03,9.543885e+02
2.614039e+03,9.496267e+02
2.615003e+03,9.550260e+02
2.615967e+03,9.623087e+02
2.616931e+03,9.607786e+02
2.617896e+03,9.560429e+02
2.618860e+03,9.525214e+02
2.619824e+03,9.529368e+02
2.620788e+03,9.582089e+02
2.621752e+03,9.597568e+02
2.622717e+03,9.499588e+02
2.623681e+03,9.500582e+02
2.624645e+03,9.589336e+02
2.625609e+03,9.619316e+02
2.626573e+03,9.587422e+02
2.627538e+03,9.529146e+02
2.628502e+03,9.475207e+02
2.629466e+03,9.467571e+02
2.630430e+03,9.457228e+02
2.631395e+03,9.332009e+02
2.632359e+03,9.260452e+02
2.633323e+03,9.319412e+02
2.634287e+03,9.396282e+02
2.635252e+03,9.465656e+02
2.636216e+03,9.485449e+02
2.637180e+03,9.442277e+02
2.638144e+03,9.423715e+02
2.639109e+03,9.413676e+02
2.640073e+03,9.373308e+02
2.641037e+03,9.333929e+02
2.642001e+03,9.311402e+02
2.642966e+03,9.307371e+02
2.643930e+03,9.321898e+02
2.644894e+03,9.337509e+02
2.645858e+03,9.361072e+02
2.646823e+03,9.331082e+02
2.647787e+03,9.246976e+02
2.648751e+03,9.192463e+02
2.649715e+03,9.174473e+02
2.650679e+03,9.143631e+02
2.651644e+03,9.148182e+02
2.652608e+03,9.279073e+02
2.653572e+03,9.415674e+02
2.654536e+03,9.352184e+02
2.655500e+03,9.287361e+02
2.656465e+03,9.300005e+02
2.657429e+03,9.280525e+02
2.658393e+03,9.183154e+02
2.659357e+03,9.121192e+02
2.660322e+03,9.119170e+02
2.661286e+03,9.136876e+02
2.662250e+03,9.156299e+02
2.663214e+03,9.120479e+02
2.664179e+03,9.075032e+02
2.665143e+03,9.085471e+02
2.666107e+03,9.109959e+02
2.667071e+03,9.134327e+02
2.668036e+03,9.113444e+02
2.669000e+03,8.937228e+02
2.669964e+03,8.997135e+02
2.670928e+03,9.245325e+02
2.671893e+03,9.328235e+02
2.672857e+03,9.254984e+02
2.673821e+03,9.166424e+02
2.674785e+03,9.078796e+02
2.675750e+03,9.008787e+02
2.676714e+03,8.975023e+02
2.677678e+03,9.024042e+02
2.678642e+03,9.056627e+02
2.679606e+03,9.052811e+02
2.680571e+03,9.071342e+02
2.681535e+03,9.116744e+02
2.682499e+03,9.018990e+02
2.683463e+03,8.841423e+02
2.684427e+03,8.885786e+02
2.685392e+03,9.023092e+02
2.686356e+03,9.012404e+02
2.687320e+03,8.978407e+02
2.688284e+03,9.017871e+02
2.689249e+03,9.031017e+02
2.690213e+03,8.994670e+02
2.691177e+03,8.925098e+02
2.692141e+03,8.828320e+02
2.693106e+03,8.926878e+02
2.694070e+03,9.100499e+02
2.695034e+03,9.019282e+02
2.695998e+03,8.834172e+02
2.696963e+03,8.771038e+02
2.697927e+03,8.813417e+02
2.698891e+03,8.951546e+02
2.699855e+03,9.026226e+02
2.700820e+03,8.954044e+02
2.701784e+03,8.878893e+02
2.702748e+03,8.820557e+02
2.703712e+03,8.857816e+02
2.704677e+03,8.937444e+02
2.705641e+03,8.879669e+02
2.706605e+03,8.794867e+02
2.707569e+03,8.777245e+02
2.708533e+03,8.812675e+02
2.709498e+03,8.896553e+02
2.710462e+03,8.920957e+02
2.711426e+03,8.811412e+02
2.712390e+03,8.823574e+02
2.713354e+03,8.912930e+02
2.714319e+03,8.839711e+02
2.715283e+03,8.692296e+02
2.716247e+03,8.719138e+02
2.717211e+03,8.787741e+02
2.718176e+03,8.804932e+02
2.719140e+03,8.788907e+02
2.720104e+03,8.727841e+02
2.721068e+03,8.720389e+02
2.722033e+03,8.775250e+02
2.722997e+03,8.813197e+02
2.723961e+03,8.818259e+02
2.724925e+03,8.738503e+02
2.725890e+03,8.645946e+02
2.726854e+03,8.614363e+02
2.727818e+03,8.666706e+02
2.728782e+03,8.819249e+02
2.729747e+03,8.884589e+02
2.730711e+03,8.701827e+02
2.731675e+03,8.639614e+02
2.732639e+03,8.672097e+02
2.733604e+03,8.599327e+02
2.734568e+03,8.483799e+02
2.735532e+03,8.576089e+02
2.736496e+03,8.667781e+02
2.737460e+03,8.594781e+02
2.738425e+03,8.556495e+02
2.739389e+03,8.700932e+02
2.740353e+03,8.724728e+02
2.741317e+03,8.591141e+02
2.742281e+03,8.470246e+02
2.743246e+03,8.397343e+02
2.744210e+03,8.473571e+02
2.745174e+03,8.584240e+02
2.746138e+03,8.633728e+02
2.747103e+03,8.606716e+02
2.748067e+03,8.507916e+02
2.749031e+03,8.445808e+02
2.749995e+03,8.480123e+02
2.750960e+03,8.530073e+02
2.751924e+03,8.585594e+02
2.752888e+03,8.611943e+02
2.753852e+03,8.613223e+02
2.754817e+03,8.610586e+02
2.755781e+03,8.566196e+02
2.756745e+03,8.425060e+02
2.757709e+03,8.415791e+02
2.758674e+03,8.596008e+02
2.759638e+03,8.644623e+02
2.760602e+03,8.514884e+02
2.761566e+03,8.419600e+02
2.762531e+03,8.382153e+02
2.763495e+03,8.454812e+02
2.764459e+03,8.528138e+02
2.765423e+03,8.478640e+02
2.766387e+03,8.460164e+02
2.767352e+03,8.509232e+02
2.768316e+03,8.492638e+02
2.769280e+03,8.385245e+02
2.770244e+03,8.405520e+02
2.771208e+03,8.484529e+02
2.772173e+03,8.452842e+02
2.773137e+03,8.386957e+02
2.774101e+03,8.390510e+02
2.775065e+03,8.394267e+02
2.776030e+03,8.372275e+02
2.776994e+03,8.286229e+02
2.777958e+03,8.152520e+02
2.778922e+03,8.102076e+02
2.779887e+03,8.131863e+02
2.780851e+03,8.235388e+02
2.781815e+03,8.340641e+02
2.782779e+03,8.411453e+02
2.783744e+03,8.454871e+02
2.784708e+03,8.475046e+02
2.785672e+03,8.376483e+02
2.786636e+03,8.189810e+02
2.787601e+03,8.217192e+02
2.788565e+03,8.366608e+02
2.789529e+03,8.342285e+02
2.790493e+03,8.287548e+02
2.791458e+03,8.331061e+02
2.792422e+03,8.365170e+02
2.793386e+03,8.374252e+02
2.794350e+03,8.280607e+02
2.795314e+03,8.064232e+02
2.796279e+03,8.073147e+02
2.797243e+03,8.208068e+02
2.798207e+03,8.337400e+02
2.799171e+03,8.411450e+02
2.800135e+03,8.302601e+02
2.801100e+03,8.240330e+02
2.802064e+03,8.287996e+02
2.803028e+03,8.217498e+02
2.803992e+03,8.046778e+02
2.804957e+03,7.971610e+02
2.805921e+03,7.965646e+02
2.806885e+03,7.910290e+02
2.807849e+03,7.987597e+02
2.808814e+03,8.289422e+02
2.809778e+03,8.422298e+02
2.810742e+03,8.129460e+02
2.811706e+03,8.092330e+02
2.812671e+03,8.214420e+02
2.813635e+03,8.104243e+02
2.814599e+03,7.906417e+02
2.815563e+03,7.929515e+02
2.816528e+03,8.000664e+02
2.817492e+03,8.062158e+02
2.818456e+03,8.094267e+02
2.819420e+03,8.094882e+02
2.820385e+03,8.122889e+02
2.821349e+03,8.163923e+02
2.822313e+03,8.088227e+02
2.823277e+03,7.993639e+02
2.824241e+03,7.948907e+02
2.825206e+03,7.948751e+02
2.826170e+03,8.009290e+02
2.827134e+03,8.048744e+02
2.828098e+03,8.058867e+02
2.829063e+03,8.117606e+02
2.830027e+03,8.177645e+02
2.830991e+03,8.128802e+02
2.831955e+03,8.066932e+02
2.832919e+03,8.017949e+02
2.833884e+03,8.048969e+02
2.834848e+03,8.149120e+02
2.835812e+03,8.109328e+02
2.836776e+03,7.947342e+02
2.837741e+03,7.953704e+02
2.838705e+03,8.007822e+02
2.839669e+03,7.960342e+02
2.840633e+03,7.935477e+02
2.841598e+03,8.004953e+02
2.842562e+03,8.064100e+02
2.843526e+03,8.090319e+02
2.844490e+03,7.980606e+02
2.845455e+03,7.866226e+02
2.846419e+03,8.027985e+02
2.847383e+03,8.237809e+02
2.848347e+03,8.248644e+02
2.849312e+03,8.222191e+02
2.850276e+03,8.186416e+02
2.851240e+03,8.133067e+02
2.852204e+03,8.068831e+02
2.853168e+03,8.077597e+02
2.854133e+03,8.110811e+02
2.855097e+03,8.132591e+02
2.856061e+03,8.103300e+02
2.857025e+03,8.006869e+02
2.857990e+03,7.944833e+02
2.858954e+03,7.950685e+02
2.859918e+03,8.103627e+02
2.860882e+03,8.255234e+02
2.861846e+03,8.149774e+02
2.862811e+03,8.020955e+02
2.863775e+03,8.117991e+02
2.864739e+03,8.119951e+02
2.865703e+03,7.938209e+02
2.866668e+03,7.848813e+02
2.867632e+03,7.854877e+02
2.868596e+03,7.981631e+02
2.869560e+03,8.099765e+02
2.870525e+03,8.034414e+02
2.871489e+03,7.994080e+02
2.872453e+03,8.026583e+02
2.873417e+03,8.023078e+02
2.874382e+03,7.972665e+02
2.875346e+03,7.895466e+02
2.876310e+03,7.856984e+02
2.877274e+03,7.967210e+02
2.878239e+03,8.059049e+02
2.879203e+03,8.065275e+02
2.880167e+03,8.053431e+02
2.881131e+03,8.052943e+02
2.882095e+03,8.013002e+02
2.883060e+03,7.987380e+02
2.884024e+03,8.058756e+02
2.884988e+03,8.136979e+02
2.885952e+03,8.142822e+02
2.886917e+03,8.105920e+02
2.887881e+03,8.037501e+02
2.888845e+03,8.043251e+02
2.889809e+03,8.097878e+02
2.890773e+03,8.140289e+02
2.891738e+03,8.147513e+02
2.892702e+03,8.082086e+02
2.893666e+03,8.034933e+02
2.894630e+03,8.025480e+02
2.895595e+03,8.120959e+02
2.896559e+03,8.259425e+02
2.897523e+03,8.140134e+02
2.898487e+03,7.992947e+02
2.899452e+03,8.109936e+02
2.900416e+03,8.184764e+02
2.901380e+03,8.145546e+02
2.902344e+03,8.072344e+02
2.903309e+03,7.989513e+02
2.904273e+03,7.947022e+02
2.905237e+03,7.930797e+02
2.906201e+03,7.917746e+02
2.907166e+03,7.926920e+02
2.908130e+03,7.964316e+02
2.909094e+03,8.023082e+02
2.910058e+03,8.087598e+02
2.911022e+03,8.068066e+02
2.911987e+03,7.966967e+02
2.912951e+03,7.762186e+02
2.913915e+03,7.643529e+02
2.914879e+03,7.797614e+02
2.915844e+03,7.814219e+02
2.916808e+03,7.697375e+02
2.917772e+03,7.760870e+02
2.918736e+03,7.857363e+02
2.919700e+03,7.702521e+02
2.920665e+03,7.586440e+02
2.921629e+03,7.794276e+02
2.922593e+03,7.852055e+02
2.923557e+03,7.782694e+02
2.924522e+03,7.820331e+02
2.925486e+03,7.890948e+02
2.926450e+03,7.753868e+02
2.927414e+03,7.630734e+02
2.928379e+03,7.622234e+02
2.929343e+03,7.665607e+02
2.930307e+03,7.725910e+02
2.931271e+03,7.678127e+02
2.932236e+03,7.617425e+02
2.933200e+03,7.747201e+02
2.934164e+03,7.885372e+02
2.935128e+03,7.961931e+02
2.936093e+03,7.780797e+02
2.937057e+03,7.426998e+02
2.938021e+03,7.426312e+02
2.938985e+03,7.607936e+02
2.939949e+03,7.733045e+02
2.940914e+03,7.704648e+02
2.941878e+03,7.516032e+02
2.942842e+03,7.333852e+02
2.943806e+03,7.195067e+02
2.944771e+03,7.308973e+02
2.945735e+03,7.511533e+02
2.946699e+03,7.568995e+02
2.947663e+03,7.639461e+02
2.948627e+03,7.768199e+02
2.949592e+03,7.710080e+02
2.950556e+03,7.459796e+02
2.951520e+03,7.380296e+02
2.952484e+03,7.363172e+02
2.953449e+03,7.270007e+02
2.954413e+03,7.301675e+02
2.955377e+03,7.546179e+02
2.956341e+03,7.691261e+02
2.957306e+03,7.724196e+02
2.958270e+03,7.935840e+02
2.959234e+03,8.000205e+02
2.960198e+03,7.672148e+02
2.961163e+03,7.436701e+02
2.962127e+03,7.515789e+02
2.963091e+03,7.497822e+02
2.964055e+03,7.371967e+02
2.965020e+03,7.221346e+02
2.965984e+03,7.171316e+02
2.966948e+03,7.304625e+02
2.967912e+03,7.412795e+02
2.968876e+03,7.405811e+02
2.969841e+03,7.371115e+02
2.970805e+03,7.329639e+02
2.971769e+03,7.321274e+02
2.972733e+03,7.358239e+02
2.973698e+03,7.464457e+02
2.974662e+03,7.459843e+02
2.975626e+03,7.288820e+02
2.976590e+03,7.177772e+02
2.977554e+03,7.176198e+02
2.978519e+03,7.352687e+02
2.979483e+03,7.457252e+02
2.980447e+03,7.307886e+02
2.981411e+03,7.212256e+02
2.982376e+03,7.201965e+02
2.983340e+03,7.131283e+02
2.984304e+03,7.040119e+02
2.985268e+03,6.964632e+02
2.986233e+03,6.941363e+02
2.987197e+03,7.011248e+02
2.988161e+03,7.057509e+02
2.989125e+03,7.085974e+02
2.990090e+03,7.136591e+02
2.991054e+03,7.165513e+02
2.992018e+03,7.142396e+02
2.992982e+03,7.047272e+02
2.993947e+03,6.845225e+02
2.994911e+03,7.012980e+02
2.995875e+03,7.313683e+02
2.996839e+03,7.333126e+02
2.997803e+03,7.251588e+02
2.998768e+03,7.202373e+02
2.999732e+03,7.058878e+02
3.000696e+03,6.836754e+02
3.001660e+03,6.929578e+02
3.002625e+03,7.076649e+02
3.003589e+03,7.006597e+02
3.004553e+03,6.992288e+02
3.005517e+03,7.180997e+02
3.006481e+03,7.175882e+02
3.007446e+03,7.012991e+02
3.008410e+03,7.017123e+02
3.009374e+03,7.057579e+02
3.010338e+03,7.058652e+02
3.011303e+03,7.023916e+02
3.012267e+03,6.941584e+02
3.013231e+03,6.947368e+02
3.014195e+03,6.988975e+02
3.015160e+03,6.966877e+02
3.016124e+03,6.954362e+02
3.017088e+03,6.972935e+02
3.018052e+03,7.009862e+02
3.019017e+03,7.049033e+02
3.019981e+03,7.052313e+02
3.020945e+03,7.046492e+02
3.021909e+03,7.073644e+02
3.022874e+03,6.970681e+02
3.023838e+03,6.746977e+02
3.024802e+03,6.835430e+02
3.025766e+03,7.077523e+02
3.026730e+03,7.012792e+02
3.027695e+03,6.847455e+02
3.028659e+03,6.673066e+02
3.029623e+03,6.750153e+02
3.030587e+03,6.997630e+02
3.031552e+03,6.874067e+02
3.032516e+03,6.699523e+02
3.033480e+03,6.974600e+02
3.034444e+03,7.032028e+02
3.035408e+03,6.807989e+02
3.036373e+03,6.960692e+02
3.037337e+03,7.300423e+02
3.038301e+03,7.097814e+02
3.039265e+03,6.864302e+02
3.040230e+03,6.867308e+02
3.041194e+03,6.928311e+02
3.042158e+03,7.018159e+02
3.043122e+03,7.126552e+02
3.044087e+03,7.183381e+02
3.045051e+03,7.013509e+02
3.046015e+03,6.979767e+02
3.046979e+03,7.209857e+02
3.047944e+03,7.189828e+02
3.048908e+03,7.058210e+02
3.049872e+03,7.038127e+02
3.050836e+03,7.039525e+02
3.051801e+03,6.986220e+02
3.052765e+03,7.058245e+02
3.053729e+03,7.213074e+02
3.054693e+03,7.178751e+02
3.055657e+03,7.083336e+02
3.056622e+03,7.017473e+02
3.057586e+03,6.936531e+02
3.058550e+03,6.833590e+02
3.059514e+03,6.849936e+02
3.060479e+03,6.940134e+02
3.061443e+03,7.074804e+02
3.062407e+03,7.021481e+02
3.063371e+03,6.758740e+02
3.064335e+03,6.699091e+02
3.065300e+03,6.826038e+02
3.066264e+03,6.907206e+02
3.067228e+03,6.979027e+02
3.068192e+03,7.069717e+02
3.069157e+03,7.070024e+02
3.070121e+03,6.990549e+02
3.071085e+03,6.899059e+02
3.072049e+03,6.808721e+02
3.073014e+03,6.694554e+02
3.073978e+03,6.709503e+02
3.074942e+03,6.879286e+02
3.075906e+03,6.873449e+02
3.076871e+03,6.792377e+02
3.077835e+03,6.812438e+02
3.078799e+03,6.819210e+02
3.079763e+03,6.715463e+02
3.080728e+03,6.743665e+02
3.081692e+03,6.878332e+02
3.082656e+03,6.973578e+02
3.083620e+03,6.946614e+02
3.084584e+03,6.770043e+02
3.085549e+03,6.723940e+02
3.086513e+03,6.857288e+02
3.087477e+03,6.724132e+02
3.088441e+03,6.568574e+02
3.089406e+03,6.684714e+02
3.090370e+03,6.836437e+02
3.091334e+03,6.945230e+02
3.092298e+03,6.704742e+02
3.093262e+03,6.382804e+02
3.094227e+03,6.615121e+02
3.095191e+03,6.794512e+02
3.096155e+03,6.708792e+02
3.097119e+03,6.757742e+02
3.098084e+03,6.858543e+02
3.099048e+03,6.776658e+02
3.100012e+03,6.656645e+02
3.100976e+03,6.599983e+02
3.101941e+03,6.568493e+02
3.102905e+03,6.579484e+02
3.103869e+03,6.734457e+02
3.104833e+03,6.788994e+02
3.105798e+03,6.600001e+02
3.106762e+03,6.594554e+02
3.107726e+03,6.840638e+02
3.108690e+03,6.903652e+02
3.109655e+03,6.818030e+02
3.110619e+03,6.546491e+02
3.111583e+03,6.389003e+02
3.112547e+03,6.398494e+02
3.113511e+03,6.642476e+02
3.114476e+03,6.938534e+02
3.115440e+03,6.904151e+02
3.116404e+03,6.852615e+02
3.117368e+03,6.907138e+02
3.118333e+03,6.749174e+02
3.119297e+03,6.554959e+02
3.120261e+03,6.630941e+02
3.121225e+03,6.720598e+02
3.122189e+03,6.671212e+02
3.123154e+03,6.779086e+02
3.124118e+03,6.964171e+02
3.125082e+03,6.795328e+02
3.126046e+03,6.661694e+02
3.127011e+03,6.744321e+02
3.127975e+03,6.927052e+02
3.128939e+03,7.100543e+02
3.129903e+03,6.799388e+02
3.130868e+03,6.504443e+02
3.131832e+03,6.741135e+02
3.132796e+03,6.797740e+02
3.133760e+03,6.642285e+02
3.134725e+03,6.424753e+02
3.135689e+03,6.340244e+02
3.136653e+03,6.559904e+02
3.137617e+03,6.817032e+02
3.138582e+03,7.035924e+02
3.139546e+03,6.851293e+02
3.140510e+03,6.582613e+02
3.141474e+03,6.597271e+02
3.142438e+03,6.658910e+02
3.143403e+03,6.685577e+02
3.144367e+03,6.475559e+02
3.145331e+03,6.213203e+02
3.146295e+03,6.152029e+02
3.147260e+03,6.331226e+02
3.148224e+03,6.745243e+02
3.149188e+03,6.706328e+02
3.150152e+03,6.504500e+02
3.151116e+03,6.529591e+02
3.152081e+03,6.705109e+02
3.153045e+03,6.980408e+02
3.154009e+03,6.856893e+02
3.154973e+03,6.570898e+02
3.155938e+03,6.638682e+02
3.156902e+03,6.792700e+02
3.157866e+03,6.906700e+02
3.158830e+03,6.628250e+02
3.159795e+03,6.250848e+02
3.160759e+03,6.583558e+02
3.161723e+03,6.895629e+02
3.162687e+03,6.763551e+02
3.163652e+03,6.679410e+02
3.164616e+03,6.706840e+02
3.165580e+03,6.958214e+02
3.166544e+03,7.108994e+02
3.167509e+03,7.045682e+02
3.168473e+03,6.871364e+02
3.169437e+03,6.672297e+02
3.170401e+03,6.675625e+02
3.171365e+03,6.614275e+02
3.172330e+03,6.371843e+02
3.173294e+03,6.539887e+02
3.174258e+03,6.868267e+02
3.175222e+03,6.782266e+02
3.176187e+03,6.606400e+02
3.177151e+03,6.546044e+02
3.178115e+03,6.612380e+02
3.179079e+03,6.738649e+02
3.180043e+03,6.694831e+02
3.181008e+03,6.688572e+02
3.181972e+03,6.802321e+02
3.182936e+03,6.933170e+02
3.183900e+03,7.026706e+02
3.184865e+03,6.948593e+02
3.185829e+03,6.856354e+02
3.186793e+03,6.852371e+02
3.187757e+03,6.900779e+02
3.188722e+03,6.966846e+02
3.189686e+03,7.010854e+02
3.190650e+03,6.936367e+02
3.191614e+03,6.728743e+02
3.192579e+03,6.646110e+02
3.193543e+03,6.654598e+02
3.194507e+03,6.579479e+02
3.195471e+03,6.516088e+02
3.196436e+03,6.495291e+02
3.197400e+03,6.608158e+02
3.198364e+03,6.791369e+02
3.199328e+03,6.966988e+02
3.200292e+03,7.027979e+02
3.201257e+03,0.000000e+00
3.202221e+03,0.000000e+00
3.203185e+03,0.000000e+00
3.204149e+03,0.000000e+00
3.205114e+03,0.000000e+00
3.206078e+03,0.000000e+00
3.207042e+03,0.000000e+00
3.208006e+03,0.000000e+00
3.208970e+03,0.000000e+00
3.209935e+03,0.000000e+00
3.210899e+03,0.000000e+00
3.211863e+03,0.000000e+00
3.212827e+03,0.000000e+00
3.213792e+03,0.000000e+00
3.214756e+03,0.000000e+00
3.215720e+03,0.000000e+00
3.216684e+03,0.000000e+00
3.217649e+03,0.000000e+00
3.218613e+03,0.000000e+00
3.219577e+03,0.000000e+00
3.220541e+03,0.000000e+00
3.221506e+03,0.000000e+00
3.222470e+03,0.000000e+00
3.223434e+03,0.000000e+00
3.224398e+03,0.000000e+00
3.225363e+03,0.000000e+00
3.226327e+03,0.000000e+00
3.227291e+03,0.000000e+00
3.228255e+03,0.000000e+00
3.229219e+03,0.000000e+00
3.230184e+03,0.000000e+00
3.231148e+03,0.000000e+00
3.232112e+03,0.000000e+00
3.233076e+03,0.000000e+00
3.234041e+03,0.000000e+00
3.235005e+03,0.000000e+00
3.235969e+03,0.000000e+00
3.236933e+03,0.000000e+00
3.237897e+03,0.000000e+00
3.238862e+03,0.000000e+00
3.239826e+03,0.000000e+00
3.240790e+03,0.000000e+00
3.241754e+03,0.000000e+00
3.242719e+03,0.000000e+00
3.243683e+03,0.000000e+00
3.244647e+03,0.000000e+00
3.245611e+03,0.000000e+00
3.246576e+03,0.000000e+00
3.247540e+03,0.000000e+00
3.248504e+03,0.000000e+00
3.249468e+03,0.000000e+00
3.250433e+03,0.000000e+00
3.251397e+03,0.000000e+00
3.252361e+03,0.000000e+00
3.253325e+03,0.000000e+00
3.254290e+03,0.000000e+00
3.255254e+03,0.000000e+00
3.256218e+03,0.000000e+00
3.257182e+03,0.000000e+00
3.258146e+03,0.000000e+00
3.259111e+03,0.000000e+00
3.260075e+03,0.000000e+00
3.261039e+03,0.000000e+00
3.262003e+03,0.000000e+00
3.262968e+03,0.000000e+00
3.263932e+03,0.000000e+00
3.264896e+03,0.000000e+00
3.265860e+03,0.000000e+00
3.266824e+03,0.000000e+00
3.267789e+03,0.000000e+00
3.268753e+03,0.000000e+00
3.269717e+03,0.000000e+00
3.270681e+03,0.000000e+00
3.271646e+03,0.000000e+00
3.272610e+03,0.000000e+00
3.273574e+03,0.000000e+00
3.274538e+03,0.000000e+00
3.275503e+03,0.000000e+00
3.276467e+03,0.000000e+00
3.277431e+03,0.000000e+00
3.278395e+03,0.000000e+00
3.279360e+03,0.000000e+00
3.280324e+03,0.000000e+00
3.281288e+03,0.000000e+00
3.282252e+03,0.000000e+00
3.283217e+03,0.000000e+00
3.284181e+03,0.000000e+00
3.285145e+03,0.000000e+00
3.286109e+03,0.000000e+00
3.287073e+03,0.000000e+00
3.288038e+03,0.000000e+00
3.289002e+03,0.000000e+00
3.289966e+03,0.000000e+00
3.290930e+03,0.000000e+00
3.291895e+03,0.000000e+00
3.292859e+03,0.000000e+00
3.293823e+03,0.000000e+00
3.294787e+03,0.000000e+00
3.295751e+03,0.000000e+00
3.296716e+03,0.000000e+00
3.297680e+03,0.000000e+00
3.298644e+03,0.000000e+00
3.299608e+03,0.000000e+00
3.300573e+03,0.000000e+00
3.301537e+03,0.000000e+00
3.302501e+03,0.000000e+00
3.303465e+03,0.000000e+00
3.304430e+03,0.000000e+00
3.305394e+03,0.000000e+00
3.306358e+03,0.000000e+00
3.307322e+03,0.000000e+00
3.308287e+03,0.000000e+00
3.309251e+03,0.000000e+00
3.310215e+03,0.000000e+00
3.311179e+03,0.000000e+00
3.312144e+03,0.000000e+00
3.313108e+03,0.000000e+00
3.314072e+03,0.000000e+00
3.315036e+03,0.000000e+00
3.316000e+03,0.000000e+00
3.316965e+03,0.000000e+00
3.317929e+03,0.000000e+00
3.318893e+03,0.000000e+00
3.319857e+03,0.000000e+00
3.320822e+03,0.000000e+00
3.321786e+03,0.000000e+00
3.322750e+03,0.000000e+00
3.323714e+03,0.000000e+00
3.324678e+03,0.000000e+00
3.325643e+03,0.000000e+00
3.326607e+03,0.000000e+00
3.327571e+03,0.000000e+00
3.328535e+03,0.000000e+00
3.329500e+03,0.000000e+00
3.330464e+03,0.000000e+00
3.331428e+03,0.000000e+00
3.332392e+03,0.000000e+00
3.333357e+03,0.000000e+00
3.334321e+03,0.000000e+00
3.335285e+03,0.000000e+00
3.336249e+03,0.000000e+00
3.337214e+03,0.000000e+00
3.338178e+03,0.000000e+00
3.339142e+03,0.000000e+00
3.340106e+03,0.000000e+00
3.341071e+03,0.000000e+00
3.342035e+03,0.000000e+00
3.342999e+03,0.000000e+00
3.343963e+03,0.000000e+00
3.344927e+03,0.000000e+00
3.345892e+03,0.000000e+00
3.346856e+03,0.000000e+00
3.347820e+03,0.000000e+00
3.348784e+03,0.000000e+00
3.349749e+03,0.000000e+00
3.350713e+03,0.000000e+00
3.351677e+03,0.000000e+00
3.352641e+03,0.000000e+00
3.353605e+03,0.000000e+00
3.354570e+03,0.000000e+00
3.355534e+03,0.000000e+00
3.356498e+03,0.000000e+00
3.357462e+03,0.000000e+00
3.358427e+03,0.000000e+00
3.359391e+03,0.000000e+00
3.360355e+03,0.000000e+00
3.361319e+03,0.000000e+00
3.362284e+03,0.000000e+00
3.363248e+03,0.000000e+00
3.364212e+03,0.000000e+00
3.365176e+03,0.000000e+00
3.366141e+03,0.000000e+00
3.367105e+03,0.000000e+00
3.368069e+03,0.000000e+00
3.369033e+03,0.000000e+00
3.369998e+03,0.000000e+00
3.370962e+03,0.000000e+00
3.371926e+03,0.000000e+00
3.372890e+03,0.000000e+00
3.373854e+03,0.000000e+00
3.374819e+03,0.000000e+00
3.375783e+03,0.000000e+00
3.376747e+03,0.000000e+00
3.377711e+03,0.000000e+00
3.378676e+03,0.000000e+00
3.379640e+03,0.000000e+00
3.380604e+03,0.000000e+00
3.381568e+03,0.000000e+00
3.382532e+03,0.000000e+00
3.383497e+03,0.000000e+00
3.384461e+03,0.000000e+00
3.385425e+03,0.000000e+00
3.386389e+03,0.000000e+00
3.387354e+03,0.000000e+00
3.388318e+03,0.000000e+00
3.389282e+03,0.000000e+00
3.390246e+03,0.000000e+00
3.391211e+03,0.000000e+00
3.392175e+03,0.000000e+00
3.393139e+03,0.000000e+00
3.394103e+03,0.000000e+00
3.395068e+03,0.000000e+00
3.396032e+03,0.000000e+00
3.396996e+03,0.000000e+00
3.397960e+03,0.000000e+00
3.398925e+03,0.000000e+00
3.399889e+03,0.000000e+00
3.400853e+03,0.000000e+00
3.401817e+03,0.000000e+00
3.402781e+03,0.000000e+00
3.403746e+03,0.000000e+00
3.404710e+03,0.000000e+00
3.405674e+03,0.000000e+00
3.406638e+03,0.000000e+00
3.407603e+03,0.000000e+00
3.408567e+03,0.000000e+00
3.409531e+03,0.000000e+00
3.410495e+03,0.000000e+00
3.411459e+03,0.000000e+00
3.412424e+03,0.000000e+00
3.413388e+03,0.000000e+00
3.414352e+03,0.000000e+00
3.415316e+03,0.000000e+00
3.416281e+03,0.000000e+00
3.417245e+03,0.000000e+00
3.418209e+03,0.000000e+00
3.419173e+03,0.000000e+00
3.420138e+03,0.000000e+00
3.421102e+03,0.000000e+00
3.422066e+03,0.000000e+00
3.423030e+03,0.000000e+00
3.423995e+03,0.000000e+00
3.424959e+03,0.000000e+00
3.425923e+03,0.000000e+00
3.426887e+03,0.000000e+00
3.427852e+03,0.000000e+00
3.428816e+03,0.000000e+00
3.429780e+03,0.000000e+00
3.430744e+03,0.000000e+00
3.431708e+03,0.000000e+00
3.432673e+03,0.000000e+00
3.433637e+03,0.000000e+00
3.434601e+03,0.000000e+00
3.435565e+03,0.000000e+00
3.436530e+03,0.000000e+00
3.437494e+03,0.000000e+00
3.438458e+03,0.000000e+00
3.439422e+03,0.000000e+00
3.440386e+03,0.000000e+00
3.441351e+03,0.000000e+00
3.442315e+03,0.000000e+00
3.443279e+03,0.000000e+00
3.444243e+03,0.000000e+00
3.445208e+03,0.000000e+00
3.446172e+03,0.000000e+00
3.447136e+03,0.000000e+00
3.448100e+03,0.000000e+00
3.449065e+03,0.000000e+00
3.450029e+03,0.000000e+00
3.450993e+03,0.000000e+00
3.451957e+03,0.000000e+00
3.452922e+03,0.000000e+00
3.453886e+03,0.000000e+00
3.454850e+03,0.000000e+00
3.455814e+03,0.000000e+00
3.456779e+03,0.000000e+00
3.457743e+03,0.000000e+00
3.458707e+03,0.000000e+00
3.459671e+03,0.000000e+00
3.460635e+03,0.000000e+00
3.461600e+03,0.000000e+00
3.462564e+03,0.000000e+00
3.463528e+03,0.000000e+00
3.464492e+03,0.000000e+00
3.465457e+03,0.000000e+00
3.466421e+03,0.000000e+00
3.467385e+03,0.000000e+00
3.468349e+03,0.000000e+00
3.469313e+03,0.000000e+00
3.470278e+03,0.000000e+00
3.471242e+03,0.000000e+00
3.472206e+03,0.000000e+00
3.473170e+03,0.000000e+00
3.474135e+03,0.000000e+00
3.475099e+03,0.000000e+00
3.476063e+03,0.000000e+00
3.477027e+03,0.000000e+00
3.477992e+03,0.000000e+00
3.478956e+03,0.000000e+00
3.479920e+03,0.000000e+00
3.480884e+03,0.000000e+00
3.481849e+03,0.000000e+00
3.482813e+03,0.000000e+00
3.483777e+03,0.000000e+00
3.484741e+03,0.000000e+00
3.485706e+03,0.000000e+00
3.486670e+03,0.000000e+00
3.487634e+03,0.000000e+00
3.488598e+03,0.000000e+00
3.489563e+03,0.000000e+00
3.490527e+03,0.000000e+00
3.491491e+03,0.000000e+00
3.492455e+03,0.000000e+00
3.493419e+03,0.000000e+00
3.494384e+03,0.000000e+00
3.495348e+03,0.000000e+00
3.496312e+03,0.000000e+00
3.497276e+03,0.000000e+00
3.498240e+03,0.000000e+00
3.499205e+03,0.000000e+00
3.500169e+03,0.000000e+00
