9.931763e+01,0.000000e+00
1.002819e+02,0.000000e+00
1.012461e+02,0.000000e+00
1.022103e+02,0.000000e+00
1.031746e+02,0.000000e+00
1.041388e+02,0.000000e+00
1.051030e+02,0.000000e+00
1.060673e+02,0.000000e+00
1.070315e+02,0.000000e+00
1.079957e+02,0.000000e+00
1.089600e+02,0.000000e+00
1.099242e+02,0.000000e+00
1.108884e+02,0.000000e+00
1.118527e+02,0.000000e+00
1.128169e+02,0.000000e+00
1.137811e+02,0.000000e+00
1.147454e+02,0.000000e+00
1.157096e+02,0.000000e+00
1.166738e+02,0.000000e+00
1.176381e+02,0.000000e+00
1.186023e+02,0.000000e+00
1.195665e+02,0.000000e+00
1.205308e+02,0.000000e+00
1.214950e+02,0.000000e+00
1.224592e+02,0.000000e+00
1.234235e+02,0.000000e+00
1.243877e+02,0.000000e+00
1.253519e+02,0.000000e+00
1.263162e+02,0.000000e+00
1.272804e+02,0.000000e+00
1.282446e+02,0.000000e+00
1.292089e+02,0.000000e+00
1.301731e+02,0.000000e+00
1.311373e+02,0.000000e+00
1.321016e+02,0.000000e+00
1.330658e+02,0.000000e+00
1.340300e+02,0.000000e+00
1.349943e+02,0.000000e+00
1.359585e+02,0.000000e+00
1.369227e+02,0.000000e+00
1.378870e+02,0.000000e+00
1.388512e+02,0.000000e+00
1.398154e+02,0.000000e+00
1.407797e+02,0.000000e+00
1.417439e+02,0.000000e+00
1.427081e+02,0.000000e+00
1.436724e+02,0.000000e+00
1.446366e+02,0.000000e+00
1.456008e+02,0.000000e+00
1.465651e+02,0.000000e+00
1.475293e+02,0.000000e+00
1.484935e+02,0.000000e+00
1.494578e+02,0.000000e+00
1.504220e+02,0.000000e+00
1.513862e+02,0.000000e+00
1.523505e+02,0.000000e+00
1.533147e+02,0.000000e+00
1.542789e+02,0.000000e+00
1.552432e+02,0.000000e+00
1.562074e+02,0.000000e+00
1.571716e+02,0.000000e+00
1.581359e+02,0.000000e+00
1.591001e+02,0.000000e+00
1.600643e+02,0.000000e+00
1.610286e+02,0.000000e+00
1.619928e+02,0.000000e+00
1.629570e+02,0.000000e+00
1.639213e+02,0.000000e+00
1.648855e+02,0.000000e+00
1.658497e+02,0.000000e+00
1.668140e+02,0.000000e+00
1.677782e+02,0.000000e+00
1.687424e+02,0.000000e+00
1.697067e+02,0.000000e+00
1.706709e+02,0.000000e+00
1.716351e+02,0.000000e+00
1.725994e+02,0.000000e+00
1.735636e+02,0.000000e+00
1.745278e+02,0.000000e+00
1.754921e+02,0.000000e+00
1.764563e+02,0.000000e+00
1.774205e+02,0.000000e+00
1.783848e+02,0.000000e+00
1.793490e+02,0.000000e+00
1.803132e+02,0.000000e+00
1.812775e+02,0.000000e+00
1.822417e+02,0.000000e+00
1.832059e+02,0.000000e+00
1.841702e+02,0.000000e+00
1.851344e+02,0.000000e+00
1.860986e+02,0.000000e+00
1.870629e+02,0.000000e+00
1.880271e+02,0.000000e+00
1.889913e+02,0.000000e+00
1.899556e+02,0.000000e+00
1.909198e+02,0.000000e+00
1.918840e+02,0.000000e+00
1.928483e+02,0.000000e+00
1.938125e+02,0.000000e+00
1.947767e+02,0.000000e+00
1.957410e+02,0.000000e+00
1.967052e+02,0.000000e+00
1.976694e+02,0.000000e+00
1.986337e+02,0.000000e+00
1.995979e+02,2.314979e+03
2.005621e+02,2.317336e+03
2.015264e+02,2.319986e+03
2.024906e+02,2.321501e+03
2.034548e+02,2.324615e+03
2.044191e+02,2.331142e+03
2.053833e+02,2.339734e+03
2.063475e+02,2.346948e+03
2.073118e+02,2.349310e+03
2.082760e+02,2.345677e+03
2.092402e+02,2.340453e+03
2.102045e+02,2.331413e+03
2.111687e+02,2.323776e+03
2.121329e+02,2.321641e+03
2.130972e+02,2.327125e+03
2.140614e+02,2.336927e+03
2.150256e+02,2.343670e+03
2.159899e+02,2.346275e+03
2.169541e+02,2.347590e+03
2.179183e+02,2.348886e+03
2.188826e+02,2.350009e+03
2.198468e+02,2.351221e+03
2.208110e+02,2.352634e+03
2.217753e+02,2.353945e+03
2.227395e+02,2.354594e+03
2.237037e+02,2.355138e+03
2.246680e+02,2.356185e+03
2.256322e+02,2.357947e+03
2.265964e+02,2.361985e+03
2.275607e+02,2.366561e+03
2.285249e+02,2.368956e+03
2.294892e+02,2.368641e+03
2.304534e+02,2.369090e+03
2.314176e+02,2.371918e+03
2.323819e+02,2.376233e+03
2.333461e+02,2.380586e+03
2.343103e+02,2.385896e+03
2.352746e+02,2.391426e+03
2.362388e+02,2.395112e+03
2.372030e+02,2.395677e+03
2.381673e+02,2.393353e+03
2.391315e+02,2.390172e+03
2.400957e+02,2.386411e+03
2.410600e+02,2.383692e+03
2.420242e+02,2.382611e+03
2.429884e+02,2.383865e+03
2.439527e+02,2.388495e+03
2.449169e+02,2.397212e+03
2.458811e+02,2.410302e+03
2.468454e+02,2.419599e+03
2.478096e+02,2.421719e+03
2.487738e+02,2.422610e+03
2.497381e+02,2.427237e+03
2.507023e+02,2.436419e+03
2.516665e+02,2.446552e+03
2.526308e+02,2.451638e+03
2.535950e+02,2.445016e+03
2.545592e+02,2.438869e+03
2.555235e+02,2.433259e+03
2.564877e+02,2.429044e+03
2.574519e+02,2.427464e+03
2.584161e+02,2.429671e+03
2.593804e+02,2.435789e+03
2.603446e+02,2.443281e+03
2.613088e+02,2.454476e+03
2.622731e+02,2.463625e+03
2.632373e+02,2.467607e+03
2.642015e+02,2.466581e+03
2.651658e+02,2.464342e+03
2.661300e+02,2.466143e+03
2.670942e+02,2.473983e+03
2.680585e+02,2.479298e+03
2.690227e+02,2.477554e+03
2.699869e+02,2.474014e+03
2.709512e+02,2.472319e+03
2.719154e+02,2.475103e+03
2.728796e+02,2.479803e+03
2.738439e+02,2.482260e+03
2.748081e+02,2.482185e+03
2.757723e+02,2.483774e+03
2.767366e+02,2.488898e+03
2.777008e+02,2.495562e+03
2.786650e+02,2.500494e+03
2.796293e+02,2.501750e+03
2.805935e+02,2.501852e+03
2.815577e+02,2.505222e+03
2.825220e+02,2.513473e+03
2.834862e+02,2.522708e+03
2.844504e+02,2.526115e+03
2.854147e+02,2.522646e+03
2.863789e+02,2.517610e+03
2.873431e+02,2.511782e+03
2.883074e+02,2.506228e+03
2.892716e+02,2.502336e+03
2.902358e+02,2.500455e+03
2.912001e+02,2.500268e+03
2.921643e+02,2.500553e+03
2.931285e+02,2.501547e+03
2.940928e+02,2.503721e+03
2.950570e+02,2.508009e+03
2.960212e+02,2.513491e+03
2.969855e+02,2.517728e+03
2.979497e+02,2.517953e+03
2.989139e+02,2.512378e+03
2.998782e+02,2.508633e+03
3.008424e+02,2.508524e+03
3.018066e+02,2.510818e+03
3.027709e+02,2.514221e+03
3.037351e+02,2.518171e+03
3.046993e+02,2.521667e+03
3.056636e+02,2.523056e+03
3.066278e+02,2.521634e+03
3.075920e+02,2.521013e+03
3.085563e+02,2.523106e+03
3.095205e+02,2.527639e+03
3.104847e+02,2.532982e+03
3.114490e+02,2.538779e+03
3.124132e+02,2.543875e+03
3.133774e+02,2.546077e+03
3.143417e+02,2.544112e+03
3.153059e+02,2.540327e+03
3.162701e+02,2.538921e+03
3.172344e+02,2.541347e+03
3.181986e+02,2.544080e+03
3.191628e+02,2.546030e+03
3.201271e+02,2.547765e+03
3.210913e+02,2.550065e+03
3.220555e+02,2.553054e+03
3.230198e+02,2.556568e+03
3.239840e+02,2.560827e+03
3.249482e+02,2.568267e+03
3.259125e+02,2.573734e+03
3.268767e+02,2.575034e+03
3.278409e+02,2.572935e+03
3.288052e+02,2.569586e+03
3.297694e+02,2.566130e+03
3.307336e+02,2.561975e+03
3.316979e+02,2.560698e+03
3.326621e+02,2.566577e+03
3.336263e+02,2.571929e+03
3.345906e+02,2.572840e+03
3.355548e+02,2.569083e+03
3.365190e+02,2.564499e+03
3.374833e+02,2.562265e+03
3.384475e+02,2.562197e+03
3.394117e+02,2.564227e+03
3.403760e+02,2.568244e+03
3.413402e+02,2.573664e+03
3.423044e+02,2.579697e+03
3.432687e+02,2.587784e+03
3.442329e+02,2.595292e+03
3.451971e+02,2.598703e+03
3.461614e+02,2.597271e+03
3.471256e+02,2.594004e+03
3.480898e+02,2.592325e+03
3.490541e+02,2.593793e+03
3.500183e+02,2.594903e+03
3.509825e+02,2.597133e+03
3.519468e+02,2.599441e+03
3.529110e+02,2.599890e+03
3.538752e+02,2.597535e+03
3.548395e+02,2.593799e+03
3.558037e+02,2.591766e+03
3.567680e+02,2.591167e+03
3.577322e+02,2.593291e+03
3.586964e+02,2.602513e+03
3.596607e+02,2.613978e+03
3.606249e+02,2.621196e+03
3.615891e+02,2.618393e+03
3.625534e+02,2.609036e+03
3.635176e+02,2.603808e+03
3.644818e+02,2.605709e+03
3.654461e+02,2.607733e+03
3.664103e+02,2.604637e+03
3.673745e+02,2.598833e+03
3.683388e+02,2.598067e+03
3.693030e+02,2.605465e+03
3.702672e+02,2.617458e+03
3.712315e+02,2.630512e+03
3.721957e+02,2.644256e+03
3.731599e+02,2.656063e+03
3.741242e+02,2.662756e+03
3.750884e+02,2.664640e+03
3.760526e+02,2.663761e+03
3.770169e+02,2.655870e+03
3.779811e+02,2.645767e+03
3.789453e+02,2.639730e+03
3.799096e+02,2.641104e+03
3.808738e+02,2.647175e+03
3.818380e+02,2.648163e+03
3.828023e+02,2.640309e+03
3.837665e+02,2.634719e+03
3.847307e+02,2.636126e+03
3.856950e+02,2.641890e+03
3.866592e+02,2.645679e+03
3.876234e+02,2.640617e+03
3.885877e+02,2.630416e+03
3.895519e+02,2.627136e+03
3.905161e+02,2.633771e+03
3.914804e+02,2.642458e+03
3.924446e+02,2.644553e+03
3.934088e+02,2.639490e+03
3.943731e+02,2.634781e+03
3.953373e+02,2.631140e+03
3.963015e+02,2.629072e+03
3.972658e+02,2.630082e+03
3.982300e+02,2.635337e+03
3.991942e+02,2.643681e+03
4.001585e+02,2.649636e+03
4.011227e+02,2.647814e+03
4.020869e+02,2.647738e+03
4.030512e+02,2.651651e+03
4.040154e+02,2.656847e+03
4.049796e+02,2.659983e+03
4.059439e+02,2.657895e+03
4.069081e+02,2.652309e+03
4.078723e+02,2.649931e+03
4.088366e+02,2.651116e+03
4.098008e+02,2.652980e+03
4.107650e+02,2.655856e+03
4.117293e+02,2.659926e+03
4.126935e+02,2.662728e+03
4.136577e+02,2.662049e+03
4.146220e+02,2.659888e+03
4.155862e+02,2.659465e+03
4.165504e+02,2.661667e+03
4.175147e+02,2.665128e+03
4.184789e+02,2.667538e+03
4.194431e+02,2.668424e+03
4.204074e+02,2.668451e+03
4.213716e+02,2.665660e+03
4.223358e+02,2.662648e+03
4.233001e+02,2.662641e+03
4.242643e+02,2.667795e+03
4.252285e+02,2.675792e+03
4.261928e+02,2.680586e+03
4.271570e+02,2.680842e+03
4.281212e+02,2.681470e+03
4.290855e+02,2.684380e+03
4.300497e+02,2.688572e+03
4.310139e+02,2.692423e+03
4.319782e+02,2.695303e+03
4.329424e+02,2.698345e+03
4.339066e+02,2.703287e+03
4.348709e+02,2.709961e+03
4.358351e+02,2.715124e+03
4.367993e+02,2.715496e+03
4.377636e+02,2.708603e+03
4.387278e+02,2.703619e+03
4.396920e+02,2.703068e+03
4.406563e+02,2.703394e+03
4.416205e+02,2.700869e+03
4.425847e+02,2.694544e+03
4.435490e+02,2.688267e+03
4.445132e+02,2.688657e+03
4.454774e+02,2.697887e+03
4.464417e+02,2.705322e+03
4.474059e+02,2.706512e+03
4.483701e+02,2.704309e+03
4.493344e+02,2.702777e+03
4.502986e+02,2.702813e+03
4.512628e+02,2.704389e+03
4.522271e+02,2.708281e+03
4.531913e+02,2.713970e+03
4.541555e+02,2.719130e+03
4.551198e+02,2.722229e+03
4.560840e+02,2.723378e+03
4.570482e+02,2.723636e+03
4.580125e+02,2.725769e+03
4.589767e+02,2.726837e+03
4.599409e+02,2.723401e+03
4.609052e+02,2.715802e+03
4.618694e+02,2.708101e+03
4.628336e+02,2.703769e+03
4.637979e+02,2.702823e+03
4.647621e+02,2.703892e+03
4.657263e+02,2.709053e+03
4.666906e+02,2.715418e+03
4.676548e+02,2.718825e+03
4.686190e+02,2.718241e+03
4.695833e+02,2.716939e+03
4.705475e+02,2.714872e+03
4.715117e+02,2.712571e+03
4.724760e+02,2.711164e+03
4.734402e+02,2.711235e+03
4.744044e+02,2.712450e+03
4.753687e+02,2.713947e+03
4.763329e+02,2.717367e+03
4.772971e+02,2.718522e+03
4.782614e+02,2.714927e+03
4.792256e+02,2.709697e+03
4.801898e+02,2.706400e+03
4.811541e+02,2.705937e+03
4.821183e+02,2.707878e+03
4.830826e+02,2.713176e+03
4.840468e+02,2.721911e+03
4.850110e+02,2.728407e+03
4.859753e+02,2.728690e+03
4.869395e+02,2.722062e+03
4.879037e+02,2.719053e+03
4.888680e+02,2.723315e+03
4.898322e+02,2.728576e+03
4.907964e+02,2.732015e+03
4.917607e+02,2.733521e+03
4.927249e+02,2.733951e+03
4.936891e+02,2.733391e+03
4.946534e+02,2.731614e+03
4.956176e+02,2.731346e+03
4.965818e+02,2.734337e+03
4.975461e+02,2.737591e+03
4.985103e+02,2.737926e+03
4.994745e+02,2.733883e+03
5.004388e+02,2.730129e+03
5.014030e+02,2.729402e+03
5.023672e+02,2.731068e+03
5.033315e+02,2.734183e+03
5.042957e+02,2.738519e+03
5.052599e+02,2.742434e+03
5.062242e+02,2.742727e+03
5.071884e+02,2.735346e+03
5.081526e+02,2.731738e+03
5.091169e+02,2.737741e+03
5.100811e+02,2.747101e+03
5.110453e+02,2.751586e+03
5.120095e+02,2.745150e+03
5.129738e+02,2.736608e+03
5.139380e+02,2.738610e+03
5.149022e+02,2.751056e+03
5.158665e+02,2.762396e+03
5.168307e+02,2.764844e+03
5.177949e+02,2.757356e+03
5.187592e+02,2.752946e+03
5.197234e+02,2.757398e+03
5.206876e+02,2.763205e+03
5.216519e+02,2.768634e+03
5.226161e+02,2.773176e+03
5.235803e+02,2.775704e+03
5.245446e+02,2.773768e+03
5.255088e+02,2.768198e+03
5.264730e+02,2.765297e+03
5.274373e+02,2.765996e+03
5.284015e+02,2.767843e+03
5.293657e+02,2.768282e+03
5.303300e+02,2.767309e+03
5.312942e+02,2.766231e+03
5.322584e+02,2.767270e+03
5.332227e+02,2.769199e+03
5.341869e+02,2.768871e+03
5.351511e+02,2.765425e+03
5.361154e+02,2.762612e+03
5.370796e+02,2.767127e+03
5.380438e+02,2.781904e+03
5.390081e+02,2.793804e+03
5.399723e+02,2.800285e+03
5.409365e+02,2.804129e+03
5.419008e+02,2.807251e+03
5.428650e+02,2.809362e+03
5.438292e+02,2.809561e+03
5.447935e+02,2.805709e+03
5.457577e+02,2.799791e+03
5.467219e+02,2.796247e+03
5.476862e+02,2.797187e+03
5.486504e+02,2.800986e+03
5.496146e+02,2.803140e+03
5.505789e+02,2.803435e+03
5.515431e+02,2.801961e+03
5.525073e+02,2.798232e+03
5.534716e+02,2.794848e+03
5.544358e+02,2.794154e+03
5.554000e+02,2.797381e+03
5.563643e+02,2.801663e+03
5.573285e+02,2.803563e+03
5.582927e+02,2.803234e+03
5.592570e+02,2.804413e+03
5.602212e+02,2.810883e+03
5.611854e+02,2.822293e+03
5.621497e+02,2.826516e+03
5.631139e+02,2.815525e+03
5.640781e+02,2.803057e+03
5.650424e+02,2.792774e+03
5.660066e+02,2.785225e+03
5.669708e+02,2.780257e+03
5.679351e+02,2.780002e+03
5.688993e+02,2.782288e+03
5.698635e+02,2.782684e+03
5.708278e+02,2.781015e+03
5.717920e+02,2.779867e+03
5.727562e+02,2.781099e+03
5.737205e+02,2.785167e+03
5.746847e+02,2.787645e+03
5.756489e+02,2.787431e+03
5.766132e+02,2.785989e+03
5.775774e+02,2.784078e+03
5.785416e+02,2.781983e+03
5.795059e+02,2.780210e+03
5.804701e+02,2.779426e+03
5.814343e+02,2.779308e+03
5.823986e+02,2.778575e+03
5.833628e+02,2.776859e+03
5.843270e+02,2.775699e+03
5.852913e+02,2.777034e+03
5.862555e+02,2.783461e+03
5.872197e+02,2.788544e+03
5.881840e+02,2.791696e+03
5.891482e+02,2.793367e+03
5.901124e+02,2.793653e+03
5.910767e+02,2.792349e+03
5.920409e+02,2.791148e+03
5.930051e+02,2.791013e+03
5.939694e+02,2.791855e+03
5.949336e+02,2.795033e+03
5.958978e+02,2.802029e+03
5.968621e+02,2.810272e+03
5.978263e+02,2.814056e+03
5.987905e+02,2.810410e+03
5.997548e+02,2.806411e+03
6.007190e+02,2.801591e+03
6.016832e+02,2.797608e+03
6.026475e+02,2.795829e+03
6.036117e+02,2.796467e+03
6.045759e+02,2.798414e+03
6.055402e+02,2.799752e+03
6.065044e+02,2.800423e+03
6.074686e+02,2.803682e+03
6.084329e+02,2.812482e+03
6.093971e+02,2.825384e+03
6.103613e+02,2.833921e+03
6.113256e+02,2.837583e+03
6.122899e+02,2.837328e+03
6.132541e+02,2.830716e+03
6.142183e+02,2.820499e+03
6.151826e+02,2.811425e+03
6.161468e+02,2.807073e+03
6.171110e+02,2.805177e+03
6.180753e+02,2.802116e+03
6.190395e+02,2.797846e+03
6.200037e+02,2.794330e+03
6.209680e+02,2.792670e+03
6.219322e+02,2.793185e+03
6.228964e+02,2.794538e+03
6.238607e+02,2.796187e+03
6.248249e+02,2.798857e+03
6.257891e+02,2.803305e+03
6.267534e+02,2.807888e+03
6.277176e+02,2.809776e+03
6.286818e+02,2.808628e+03
6.296461e+02,2.805292e+03
6.306103e+02,2.798269e+03
6.315745e+02,2.788481e+03
6.325388e+02,2.781805e+03
6.335030e+02,2.782986e+03
6.344672e+02,2.791915e+03
6.354315e+02,2.798686e+03
6.363957e+02,2.800948e+03
6.373599e+02,2.802267e+03
6.383242e+02,2.805847e+03
6.392884e+02,2.811607e+03
6.402526e+02,2.815414e+03
6.412169e+02,2.815303e+03
6.421811e+02,2.812903e+03
6.431453e+02,2.809094e+03
6.441096e+02,2.804174e+03
6.450738e+02,2.799117e+03
6.460380e+02,2.794957e+03
6.470023e+02,2.792282e+03
6.479665e+02,2.791740e+03
6.489307e+02,2.793145e+03
6.498950e+02,2.795380e+03
6.508592e+02,2.797341e+03
6.518234e+02,2.798606e+03
6.527877e+02,2.799926e+03
6.537519e+02,2.803082e+03
6.547161e+02,2.805599e+03
6.556804e+02,2.805086e+03
6.566446e+02,2.801745e+03
6.576088e+02,2.798147e+03
6.585731e+02,2.797156e+03
6.595373e+02,2.798137e+03
6.605015e+02,2.796124e+03
6.614658e+02,2.788868e+03
6.624300e+02,2.783798e+03
6.633942e+02,2.789224e+03
6.643585e+02,2.812064e+03
6.653227e+02,2.827160e+03
6.662869e+02,2.829082e+03
6.672512e+02,2.826791e+03
6.682154e+02,2.826200e+03
6.691796e+02,2.827741e+03
6.701439e+02,2.826957e+03
6.711081e+02,2.817377e+03
6.720723e+02,2.803885e+03
6.730366e+02,2.797805e+03
6.740008e+02,2.801584e+03
6.749650e+02,2.808581e+03
6.759293e+02,2.810991e+03
6.768935e+02,2.807524e+03
6.778577e+02,2.804421e+03
6.788220e+02,2.802284e+03
6.797862e+02,2.801692e+03
6.807504e+02,2.801920e+03
6.817147e+02,2.802160e+03
6.826789e+02,2.802905e+03
6.836431e+02,2.803684e+03
6.846074e+02,2.804256e+03
6.855716e+02,2.806448e+03
6.865358e+02,2.810773e+03
6.875001e+02,2.813298e+03
6.884643e+02,2.807185e+03
6.894285e+02,2.792664e+03
6.903928e+02,2.782839e+03
6.913570e+02,2.779276e+03
6.923212e+02,2.779775e+03
6.932855e+02,2.782801e+03
6.942497e+02,2.791818e+03
6.952139e+02,2.798776e+03
6.961782e+02,2.802022e+03
6.971424e+02,2.803556e+03
6.981066e+02,2.803920e+03
6.990709e+02,2.802200e+03
7.000351e+02,2.799060e+03
7.009993e+02,2.796964e+03
7.019636e+02,2.795747e+03
7.029278e+02,2.792127e+03
7.038920e+02,2.785060e+03
7.048563e+02,2.778673e+03
7.058205e+02,2.780168e+03
7.067847e+02,2.794710e+03
7.077490e+02,2.803269e+03
7.087132e+02,2.804436e+03
7.096774e+02,2.802556e+03
7.106417e+02,2.797713e+03
7.116059e+02,2.787798e+03
7.125701e+02,2.781452e+03
7.135344e+02,2.784678e+03
7.144986e+02,2.791304e+03
7.154628e+02,2.795369e+03
7.164271e+02,2.795555e+03
7.173913e+02,2.793920e+03
7.183555e+02,2.791860e+03
7.193198e+02,2.789480e+03
7.202840e+02,2.788220e+03
7.212482e+02,2.788948e+03
7.222125e+02,2.790123e+03
7.231767e+02,2.789365e+03
7.241409e+02,2.784090e+03
7.251052e+02,2.781843e+03
7.260694e+02,2.786551e+03
7.270336e+02,2.790875e+03
7.279979e+02,2.790760e+03
7.289621e+02,2.785632e+03
7.299263e+02,2.781139e+03
7.308906e+02,2.779759e+03
7.318548e+02,2.779625e+03
7.328190e+02,2.779579e+03
7.337833e+02,2.779339e+03
7.347475e+02,2.778197e+03
7.357117e+02,2.774827e+03
7.366760e+02,2.770173e+03
7.376402e+02,2.769931e+03
7.386044e+02,2.775691e+03
7.395687e+02,2.782591e+03
7.405329e+02,2.786328e+03
7.414971e+02,2.786441e+03
7.424614e+02,2.784444e+03
7.434256e+02,2.779449e+03
7.443898e+02,2.776145e+03
7.453541e+02,2.775358e+03
7.463183e+02,2.775813e+03
7.472825e+02,2.777135e+03
7.482468e+02,2.781749e+03
7.492110e+02,2.786066e+03
7.501752e+02,2.787136e+03
7.511395e+02,2.786009e+03
7.521037e+02,2.784235e+03
7.530679e+02,2.780580e+03
7.540322e+02,2.775186e+03
7.549964e+02,2.775877e+03
7.559606e+02,2.785372e+03
7.569249e+02,2.793812e+03
7.578891e+02,2.794393e+03
7.588533e+02,2.786882e+03
7.598176e+02,2.782640e+03
7.607818e+02,2.781084e+03
7.617460e+02,2.778718e+03
7.627103e+02,2.774035e+03
7.636745e+02,2.769418e+03
7.646387e+02,2.768994e+03
7.656030e+02,2.777663e+03
7.665672e+02,2.788426e+03
7.675314e+02,2.795125e+03
7.684957e+02,2.796377e+03
7.694599e+02,2.793041e+03
7.704241e+02,2.786165e+03
7.713884e+02,2.778302e+03
7.723526e+02,2.774430e+03
7.733168e+02,2.775517e+03
7.742811e+02,2.777839e+03
7.752453e+02,2.777625e+03
7.762095e+02,2.775056e+03
7.771738e+02,2.776779e+03
7.781380e+02,2.788462e+03
7.791022e+02,2.795072e+03
7.800665e+02,2.791401e+03
7.810307e+02,2.782590e+03
7.819949e+02,2.776701e+03
7.829592e+02,2.779360e+03
7.839234e+02,2.783364e+03
7.848876e+02,2.784281e+03
7.858519e+02,2.783422e+03
7.868161e+02,2.783503e+03
7.877803e+02,2.785913e+03
7.887446e+02,2.788814e+03
7.897088e+02,2.791910e+03
7.906730e+02,2.795521e+03
7.916373e+02,2.793727e+03
7.926015e+02,2.781938e+03
7.935657e+02,2.764762e+03
7.945300e+02,2.755367e+03
7.954942e+02,2.758232e+03
7.964584e+02,2.760561e+03
7.974227e+02,2.763769e+03
7.983869e+02,2.768050e+03
7.993511e+02,2.770314e+03
8.003154e+02,2.766986e+03
8.012796e+02,2.763149e+03
8.022438e+02,2.759517e+03
8.032081e+02,2.758045e+03
8.041723e+02,2.761101e+03
8.051365e+02,2.768962e+03
8.061008e+02,2.776272e+03
8.070650e+02,2.779017e+03
8.080292e+02,2.777578e+03
8.089935e+02,2.772585e+03
8.099577e+02,2.765101e+03
8.109219e+02,2.758919e+03
8.118862e+02,2.759019e+03
8.128504e+02,2.765081e+03
8.138146e+02,2.766809e+03
8.147789e+02,2.761973e+03
8.157431e+02,2.756207e+03
8.167073e+02,2.755148e+03
8.176716e+02,2.761619e+03
8.186358e+02,2.765208e+03
8.196000e+02,2.760522e+03
8.205643e+02,2.757613e+03
8.215285e+02,2.761407e+03
8.224927e+02,2.770587e+03
8.234570e+02,2.775842e+03
8.244212e+02,2.769730e+03
8.253854e+02,2.763684e+03
8.263497e+02,2.766289e+03
8.273139e+02,2.774025e+03
8.282781e+02,2.778118e+03
8.292424e+02,2.770952e+03
8.302066e+02,2.761265e+03
8.311708e+02,2.763010e+03
8.321351e+02,2.773724e+03
8.330993e+02,2.780388e+03
8.340635e+02,2.774887e+03
8.350278e+02,2.761407e+03
8.359920e+02,2.753228e+03
8.369562e+02,2.750990e+03
8.379205e+02,2.751651e+03
8.388847e+02,2.756049e+03
8.398489e+02,2.761728e+03
8.408132e+02,2.761762e+03
8.417774e+02,2.749555e+03
8.427416e+02,2.740148e+03
8.437059e+02,2.734298e+03
8.446701e+02,2.732285e+03
8.456343e+02,2.735211e+03
8.465986e+02,2.746295e+03
8.475628e+02,2.755431e+03
8.485270e+02,2.759207e+03
8.494913e+02,2.759339e+03
8.504555e+02,2.757143e+03
8.514197e+02,2.753189e+03
8.523840e+02,2.750145e+03
8.533482e+02,2.750915e+03
8.543124e+02,2.753025e+03
8.552767e+02,2.752124e+03
8.562409e+02,2.747451e+03
8.572051e+02,2.741124e+03
8.581694e+02,2.734958e+03
8.591336e+02,2.729543e+03
8.600978e+02,2.728031e+03
8.610621e+02,2.731623e+03
8.620263e+02,2.736568e+03
8.629905e+02,2.739000e+03
8.639548e+02,2.737640e+03
8.649190e+02,2.739536e+03
8.658832e+02,2.751316e+03
8.668475e+02,2.760142e+03
8.678117e+02,2.757208e+03
8.687759e+02,2.744894e+03
8.697402e+02,2.737634e+03
8.707044e+02,2.738063e+03
8.716686e+02,2.738785e+03
8.726329e+02,2.740965e+03
8.735971e+02,2.743135e+03
8.745613e+02,2.741612e+03
8.755256e+02,2.731226e+03
8.764898e+02,2.722866e+03
8.774540e+02,2.723637e+03
8.784183e+02,2.730427e+03
8.793825e+02,2.739474e+03
8.803467e+02,2.750291e+03
8.813110e+02,2.758272e+03
8.822752e+02,2.755297e+03
8.832394e+02,2.745130e+03
8.842037e+02,2.739349e+03
8.851679e+02,2.740152e+03
8.861321e+02,2.743621e+03
8.870964e+02,2.745654e+03
8.880606e+02,2.746062e+03
8.890248e+02,2.744066e+03
8.899891e+02,2.740056e+03
8.909533e+02,2.736127e+03
8.919175e+02,2.733646e+03
8.928818e+02,2.732908e+03
8.938460e+02,2.731828e+03
8.948102e+02,2.727448e+03
8.957745e+02,2.724543e+03
8.967387e+02,2.728468e+03
8.977029e+02,2.738144e+03
8.986672e+02,2.741272e+03
8.996314e+02,2.733614e+03
9.005956e+02,2.725585e+03
9.015599e+02,2.719462e+03
9.025241e+02,2.715536e+03
9.034883e+02,2.714762e+03
9.044526e+02,2.721868e+03
9.054168e+02,2.726710e+03
9.063810e+02,2.721519e+03
9.073453e+02,2.712911e+03
9.083095e+02,2.711242e+03
9.092737e+02,2.722502e+03
9.102380e+02,2.734571e+03
9.112022e+02,2.732343e+03
9.121664e+02,2.720580e+03
9.131307e+02,2.711646e+03
9.140949e+02,2.709991e+03
9.150591e+02,2.713354e+03
9.160234e+02,2.717665e+03
9.169876e+02,2.721343e+03
9.179518e+02,2.723313e+03
9.189161e+02,2.723573e+03
9.198803e+02,2.722004e+03
9.208445e+02,2.719139e+03
9.218088e+02,2.715738e+03
9.227730e+02,2.712233e+03
9.237372e+02,2.707243e+03
9.247015e+02,2.703135e+03
9.256657e+02,2.701522e+03
9.266299e+02,2.702248e+03
9.275942e+02,2.704541e+03
9.285584e+02,2.710650e+03
9.295226e+02,2.714398e+03
9.304869e+02,2.713047e+03
9.314511e+02,2.708289e+03
9.324153e+02,2.704192e+03
9.333796e+02,2.699881e+03
9.343438e+02,2.697410e+03
9.353080e+02,2.697009e+03
9.362723e+02,2.697542e+03
9.372365e+02,2.698917e+03
9.382007e+02,2.704604e+03
9.391650e+02,2.709028e+03
9.401292e+02,2.707970e+03
9.410934e+02,2.704642e+03
9.420577e+02,2.702159e+03
9.430219e+02,2.701099e+03
9.439861e+02,2.699695e+03
9.449504e+02,2.696563e+03
9.459146e+02,2.694531e+03
9.468788e+02,2.696983e+03
9.478431e+02,2.702232e+03
9.488073e+02,2.704604e+03
9.497715e+02,2.698297e+03
9.507358e+02,2.687956e+03
9.517000e+02,2.684914e+03
9.526642e+02,2.689410e+03
9.536285e+02,2.692089e+03
9.545927e+02,2.684927e+03
9.555569e+02,2.671975e+03
9.565212e+02,2.666996e+03
9.574854e+02,2.671028e+03
9.584496e+02,2.678964e+03
9.594139e+02,2.688767e+03
9.603781e+02,2.697771e+03
9.613423e+02,2.700130e+03
9.623066e+02,2.694144e+03
9.632708e+02,2.690799e+03
9.642350e+02,2.694391e+03
9.651993e+02,2.699984e+03
9.661635e+02,2.699422e+03
9.671277e+02,2.688347e+03
9.680920e+02,2.679215e+03
9.690562e+02,2.671711e+03
9.700204e+02,2.666253e+03
9.709847e+02,2.664636e+03
9.719489e+02,2.668706e+03
9.729131e+02,2.671361e+03
9.738774e+02,2.673492e+03
9.748416e+02,2.674725e+03
9.758058e+02,2.673024e+03
9.767701e+02,2.668313e+03
9.777343e+02,2.664390e+03
9.786985e+02,2.659325e+03
9.796628e+02,2.657146e+03
9.806270e+02,2.663897e+03
9.815912e+02,2.673705e+03
9.825555e+02,2.676889e+03
9.835197e+02,2.667474e+03
9.844839e+02,2.658209e+03
9.854482e+02,2.654970e+03
9.864124e+02,2.654840e+03
9.873766e+02,2.653369e+03
9.883409e+02,2.649291e+03
9.893051e+02,2.647347e+03
9.902693e+02,2.652476e+03
9.912336e+02,2.660291e+03
9.921978e+02,2.665165e+03
9.931620e+02,2.665875e+03
9.941263e+02,2.664985e+03
9.950905e+02,2.664494e+03
9.960547e+02,2.663921e+03
9.970190e+02,2.662616e+03
9.979832e+02,2.660279e+03
9.989474e+02,2.656920e+03
9.999117e+02,2.653661e+03
1.000876e+03,2.650260e+03
1.001840e+03,2.644523e+03
1.002804e+03,2.638281e+03
1.003769e+03,2.636015e+03
1.004733e+03,2.638980e+03
1.005697e+03,2.643804e+03
1.006661e+03,2.645918e+03
1.007626e+03,2.646167e+03
1.008590e+03,2.647623e+03
1.009554e+03,2.650279e+03
1.010518e+03,2.652561e+03
1.011482e+03,2.653825e+03
1.012447e+03,2.653922e+03
1.013411e+03,2.651548e+03
1.014375e+03,2.647708e+03
1.015339e+03,2.645532e+03
1.016304e+03,2.647081e+03
1.017268e+03,2.651054e+03
1.018232e+03,2.650440e+03
1.019196e+03,2.644084e+03
1.020161e+03,2.639483e+03
1.021125e+03,2.640683e+03
1.022089e+03,2.645926e+03
1.023053e+03,2.648632e+03
1.024018e+03,2.647425e+03
1.024982e+03,2.644982e+03
1.025946e+03,2.640146e+03
1.026910e+03,2.635240e+03
1.027875e+03,2.635833e+03
1.028839e+03,2.646328e+03
1.029803e+03,2.650764e+03
1.030767e+03,2.645808e+03
1.031731e+03,2.640758e+03
1.032696e+03,2.642351e+03
1.033660e+03,2.650760e+03
1.034624e+03,2.655042e+03
1.035588e+03,2.655300e+03
1.036552e+03,2.652946e+03
1.037517e+03,2.646097e+03
1.038481e+03,2.635889e+03
1.039445e+03,2.629485e+03
1.040409e+03,2.628265e+03
1.041374e+03,2.628985e+03
1.042338e+03,2.634644e+03
1.043302e+03,2.641032e+03
1.044266e+03,2.641631e+03
1.045231e+03,2.629765e+03
1.046195e+03,2.623531e+03
1.047159e+03,2.628776e+03
1.048123e+03,2.635720e+03
1.049088e+03,2.637201e+03
1.050052e+03,2.632954e+03
1.051016e+03,2.632351e+03
1.051980e+03,2.638828e+03
1.052945e+03,2.644792e+03
1.053909e+03,2.645531e+03
1.054873e+03,2.641374e+03
1.055837e+03,2.638306e+03
1.056802e+03,2.641227e+03
1.057766e+03,2.641515e+03
1.058730e+03,2.634659e+03
1.059694e+03,2.626222e+03
1.060658e+03,2.622940e+03
1.061623e+03,2.630443e+03
1.062587e+03,2.634888e+03
1.063551e+03,2.632085e+03
1.064515e+03,2.628068e+03
1.065479e+03,2.626490e+03
1.066444e+03,2.628274e+03
1.067408e+03,2.630356e+03
1.068372e+03,2.630544e+03
1.069336e+03,2.632628e+03
1.070301e+03,2.639158e+03
1.071265e+03,2.647537e+03
1.072229e+03,2.651878e+03
1.073193e+03,2.648208e+03
1.074158e+03,2.643861e+03
1.075122e+03,2.639914e+03
1.076086e+03,2.636841e+03
1.077050e+03,2.635987e+03
1.078015e+03,2.640682e+03
1.078979e+03,2.644515e+03
1.079943e+03,2.644822e+03
1.080907e+03,2.644031e+03
1.081872e+03,2.642360e+03
1.082836e+03,2.639187e+03
1.083800e+03,2.637577e+03
1.084764e+03,2.639719e+03
1.085729e+03,2.643386e+03
1.086693e+03,2.648438e+03
1.087657e+03,2.653621e+03
1.088621e+03,2.656620e+03
1.089585e+03,2.654074e+03
1.090550e+03,2.651586e+03
1.091514e+03,2.652424e+03
1.092478e+03,2.655184e+03
1.093442e+03,2.658198e+03
1.094406e+03,2.662467e+03
1.095371e+03,2.664161e+03
1.096335e+03,2.659299e+03
1.097299e+03,2.653281e+03
1.098263e+03,2.650187e+03
1.099228e+03,2.649658e+03
1.100192e+03,2.646724e+03
1.101156e+03,2.636685e+03
1.102120e+03,2.627715e+03
1.103085e+03,2.623776e+03
1.104049e+03,2.623228e+03
1.105013e+03,2.622554e+03
1.105977e+03,2.621413e+03
1.106942e+03,2.620358e+03
1.107906e+03,2.618956e+03
1.108870e+03,2.618296e+03
1.109834e+03,2.620032e+03
1.110799e+03,2.625895e+03
1.111763e+03,2.627788e+03
1.112727e+03,2.620770e+03
1.113691e+03,2.614261e+03
1.114656e+03,2.612425e+03
1.115620e+03,2.614927e+03
1.116584e+03,2.618633e+03
1.117548e+03,2.624671e+03
1.118512e+03,2.628118e+03
1.119477e+03,2.627091e+03
1.120441e+03,2.623355e+03
1.121405e+03,2.619958e+03
1.122369e+03,2.619843e+03
1.123334e+03,2.615812e+03
1.124298e+03,2.603537e+03
1.125262e+03,2.592037e+03
1.126226e+03,2.588812e+03
1.127191e+03,2.595432e+03
1.128155e+03,2.597687e+03
1.129119e+03,2.590917e+03
1.130083e+03,2.584853e+03
1.131047e+03,2.582897e+03
1.132012e+03,2.583593e+03
1.132976e+03,2.584339e+03
1.133940e+03,2.586453e+03
1.134904e+03,2.585354e+03
1.135869e+03,2.578757e+03
1.136833e+03,2.572051e+03
1.137797e+03,2.571798e+03
1.138761e+03,2.581538e+03
1.139726e+03,2.587338e+03
1.140690e+03,2.587605e+03
1.141654e+03,2.586012e+03
1.142618e+03,2.584010e+03
1.143583e+03,2.581933e+03
1.144547e+03,2.581094e+03
1.145511e+03,2.581556e+03
1.146475e+03,2.582790e+03
1.147439e+03,2.584787e+03
1.148404e+03,2.587286e+03
1.149368e+03,2.589227e+03
1.150332e+03,2.590418e+03
1.151296e+03,2.589813e+03
1.152261e+03,2.586199e+03
1.153225e+03,2.578778e+03
1.154189e+03,2.567371e+03
1.155153e+03,2.553869e+03
1.156118e+03,2.545542e+03
1.157082e+03,2.543262e+03
1.158046e+03,2.545178e+03
1.159010e+03,2.550303e+03
1.159974e+03,2.556565e+03
1.160939e+03,2.559319e+03
1.161903e+03,2.558618e+03
1.162867e+03,2.558333e+03
1.163831e+03,2.559105e+03
1.164796e+03,2.560237e+03
1.165760e+03,2.563840e+03
1.166724e+03,2.567831e+03
1.167688e+03,2.563858e+03
1.168653e+03,2.552847e+03
1.169617e+03,2.542734e+03
1.170581e+03,2.539431e+03
1.171545e+03,2.539260e+03
1.172510e+03,2.534754e+03
1.173474e+03,2.529366e+03
1.174438e+03,2.532094e+03
1.175402e+03,2.546335e+03
1.176366e+03,2.559701e+03
1.177331e+03,2.559996e+03
1.178295e+03,2.554346e+03
1.179259e+03,2.550288e+03
1.180223e+03,2.548136e+03
1.181188e+03,2.546528e+03
1.182152e+03,2.546113e+03
1.183116e+03,2.544903e+03
1.184080e+03,2.541114e+03
1.185045e+03,2.536683e+03
1.186009e+03,2.534679e+03
1.186973e+03,2.539185e+03
1.187937e+03,2.541092e+03
1.188901e+03,2.530638e+03
1.189866e+03,2.519826e+03
1.190830e+03,2.519174e+03
1.191794e+03,2.529417e+03
1.192758e+03,2.539033e+03
1.193723e+03,2.548885e+03
1.194687e+03,2.556378e+03
1.195651e+03,2.559645e+03
1.196615e+03,2.559229e+03
1.197580e+03,2.556599e+03
1.198544e+03,2.547112e+03
1.199508e+03,2.539155e+03
1.200472e+03,2.536258e+03
1.201437e+03,2.534505e+03
1.202401e+03,2.530425e+03
1.203365e+03,2.523920e+03
1.204329e+03,2.521649e+03
1.205293e+03,2.525198e+03
1.206258e+03,2.527786e+03
1.207222e+03,2.524989e+03
1.208186e+03,2.519573e+03
1.209150e+03,2.522236e+03
1.210115e+03,2.533487e+03
1.211079e+03,2.539515e+03
1.212043e+03,2.537664e+03
1.213007e+03,2.532003e+03
1.213972e+03,2.527336e+03
1.214936e+03,2.524202e+03
1.215900e+03,2.521017e+03
1.216864e+03,2.518030e+03
1.217828e+03,2.518375e+03
1.218793e+03,2.525415e+03
1.219757e+03,2.534622e+03
1.220721e+03,2.538789e+03
1.221685e+03,2.538924e+03
1.222650e+03,2.535465e+03
1.223614e+03,2.527461e+03
1.224578e+03,2.520172e+03
1.225542e+03,2.519962e+03
1.226507e+03,2.523465e+03
1.227471e+03,2.526898e+03
1.228435e+03,2.529257e+03
1.229399e+03,2.530323e+03
1.230364e+03,2.531288e+03
1.231328e+03,2.530908e+03
1.232292e+03,2.528728e+03
1.233256e+03,2.526631e+03
1.234220e+03,2.525825e+03
1.235185e+03,2.527941e+03
1.236149e+03,2.528868e+03
1.237113e+03,2.525198e+03
1.238077e+03,2.523084e+03
1.239042e+03,2.525558e+03
1.240006e+03,2.530872e+03
1.240970e+03,2.533350e+03
1.241934e+03,2.531321e+03
1.242899e+03,2.529378e+03
1.243863e+03,2.530154e+03
1.244827e+03,2.530824e+03
1.245791e+03,2.526238e+03
1.246755e+03,2.514637e+03
1.247720e+03,2.508414e+03
1.248684e+03,2.508671e+03
1.249648e+03,2.511749e+03
1.250612e+03,2.515537e+03
1.251577e+03,2.519368e+03
1.252541e+03,2.522701e+03
1.253505e+03,2.525047e+03
1.254469e+03,2.524083e+03
1.255434e+03,2.519269e+03
1.256398e+03,2.514498e+03
1.257362e+03,2.514469e+03
1.258326e+03,2.516174e+03
1.259291e+03,2.514215e+03
1.260255e+03,2.508667e+03
1.261219e+03,2.503905e+03
1.262183e+03,2.506820e+03
1.263147e+03,2.510236e+03
1.264112e+03,2.506879e+03
1.265076e+03,2.500625e+03
1.266040e+03,2.496516e+03
1.267004e+03,2.495853e+03
1.267969e+03,2.497777e+03
1.268933e+03,2.506031e+03
1.269897e+03,2.515386e+03
1.270861e+03,2.520743e+03
1.271826e+03,2.520476e+03
1.272790e+03,2.519199e+03
1.273754e+03,2.516978e+03
1.274718e+03,2.515632e+03
1.275682e+03,2.517544e+03
1.276647e+03,2.520300e+03
1.277611e+03,2.519728e+03
1.278575e+03,2.514903e+03
1.279539e+03,2.511279e+03
1.280504e+03,2.510386e+03
1.281468e+03,2.510253e+03
1.282432e+03,2.508892e+03
1.283396e+03,2.507017e+03
1.284361e+03,2.506137e+03
1.285325e+03,2.505734e+03
1.286289e+03,2.506309e+03
1.287253e+03,2.507909e+03
1.288218e+03,2.508750e+03
1.289182e+03,2.505746e+03
1.290146e+03,2.502767e+03
1.291110e+03,2.507278e+03
1.292074e+03,2.517019e+03
1.293039e+03,2.522049e+03
1.294003e+03,2.512428e+03
1.294967e+03,2.502566e+03
1.295931e+03,2.499385e+03
1.296896e+03,2.500044e+03
1.297860e+03,2.501372e+03
1.298824e+03,2.502968e+03
1.299788e+03,2.503217e+03
1.300753e+03,2.500011e+03
1.301717e+03,2.497645e+03
1.302681e+03,2.497725e+03
1.303645e+03,2.499985e+03
1.304609e+03,2.504591e+03
1.305574e+03,2.511418e+03
1.306538e+03,2.513812e+03
1.307502e+03,2.511515e+03
1.308466e+03,2.508612e+03
1.309431e+03,2.508651e+03
1.310395e+03,2.510652e+03
1.311359e+03,2.511147e+03
1.312323e+03,2.509191e+03
1.313288e+03,2.504598e+03
1.314252e+03,2.497321e+03
1.315216e+03,2.492391e+03
1.316180e+03,2.494866e+03
1.317145e+03,2.501306e+03
1.318109e+03,2.507523e+03
1.319073e+03,2.511878e+03
1.320037e+03,2.514250e+03
1.321001e+03,2.513534e+03
1.321966e+03,2.512324e+03
1.322930e+03,2.513160e+03
1.323894e+03,2.515317e+03
1.324858e+03,2.516161e+03
1.325823e+03,2.516263e+03
1.326787e+03,2.512398e+03
1.327751e+03,2.500400e+03
1.328715e+03,2.492062e+03
1.329680e+03,2.496971e+03
1.330644e+03,2.511659e+03
1.331608e+03,2.520039e+03
1.332572e+03,2.522383e+03
1.333536e+03,2.525302e+03
1.334501e+03,2.530484e+03
1.335465e+03,2.533940e+03
1.336429e+03,2.531526e+03
1.337393e+03,2.526290e+03
1.338358e+03,2.521013e+03
1.339322e+03,2.516477e+03
1.340286e+03,2.514295e+03
1.341250e+03,2.517226e+03
1.342215e+03,2.520174e+03
1.343179e+03,2.523098e+03
1.344143e+03,2.526113e+03
1.345107e+03,2.527551e+03
1.346072e+03,2.525995e+03
1.347036e+03,2.524343e+03
1.348000e+03,2.521363e+03
1.348964e+03,2.519180e+03
1.349928e+03,2.519731e+03
1.350893e+03,2.522307e+03
1.351857e+03,2.523480e+03
1.352821e+03,2.522750e+03
1.353785e+03,2.521604e+03
1.354750e+03,2.519902e+03
1.355714e+03,2.517790e+03
1.356678e+03,2.515785e+03
1.357642e+03,2.515526e+03
1.358607e+03,2.520123e+03
1.359571e+03,2.526491e+03
1.360535e+03,2.527907e+03
1.361499e+03,2.520603e+03
1.362464e+03,2.514804e+03
1.363428e+03,2.517146e+03
1.364392e+03,2.521812e+03
1.365356e+03,2.523219e+03
1.366320e+03,2.520511e+03
1.367285e+03,2.518797e+03
1.368249e+03,2.518475e+03
1.369213e+03,2.521496e+03
1.370177e+03,2.529620e+03
1.371142e+03,2.538198e+03
1.372106e+03,2.541919e+03
1.373070e+03,2.541193e+03
1.374034e+03,2.538934e+03
1.374999e+03,2.535806e+03
1.375963e+03,2.531364e+03
1.376927e+03,2.523646e+03
1.377891e+03,2.517740e+03
1.378855e+03,2.520776e+03
1.379820e+03,2.527236e+03
1.380784e+03,2.530087e+03
1.381748e+03,2.529043e+03
1.382712e+03,2.529333e+03
1.383677e+03,2.533720e+03
1.384641e+03,2.535537e+03
1.385605e+03,2.531276e+03
1.386569e+03,2.523676e+03
1.387534e+03,2.517137e+03
1.388498e+03,2.511994e+03
1.389462e+03,2.507487e+03
1.390426e+03,2.502823e+03
1.391391e+03,2.499380e+03
1.392355e+03,2.499273e+03
1.393319e+03,2.501245e+03
1.394283e+03,2.502200e+03
1.395247e+03,2.501964e+03
1.396212e+03,2.500405e+03
1.397176e+03,2.497452e+03
1.398140e+03,2.495629e+03
1.399104e+03,2.496156e+03
1.400069e+03,2.497476e+03
1.401033e+03,2.501507e+03
1.401997e+03,2.505470e+03
1.402961e+03,2.501435e+03
1.403926e+03,2.481083e+03
1.404890e+03,2.471933e+03
1.405854e+03,2.479137e+03
1.406818e+03,2.489495e+03
1.407782e+03,2.493691e+03
1.408747e+03,2.493919e+03
1.409711e+03,2.495326e+03
1.410675e+03,2.496361e+03
1.411639e+03,2.496355e+03
1.412604e+03,2.495541e+03
1.413568e+03,2.493644e+03
1.414532e+03,2.490334e+03
1.415496e+03,2.487459e+03
1.416461e+03,2.485553e+03
1.417425e+03,2.483878e+03
1.418389e+03,2.482150e+03
1.419353e+03,2.481912e+03
1.420318e+03,2.479049e+03
1.421282e+03,2.471783e+03
1.422246e+03,2.466786e+03
1.423210e+03,2.471317e+03
1.424174e+03,2.483116e+03
1.425139e+03,2.480855e+03
1.426103e+03,2.466119e+03
1.427067e+03,2.459297e+03
1.428031e+03,2.468744e+03
1.428996e+03,2.480209e+03
1.429960e+03,2.478575e+03
1.430924e+03,2.471871e+03
1.431888e+03,2.468353e+03
1.432853e+03,2.467994e+03
1.433817e+03,2.466429e+03
1.434781e+03,2.463307e+03
1.435745e+03,2.458703e+03
1.436709e+03,2.448702e+03
1.437674e+03,2.440565e+03
1.438638e+03,2.443661e+03
1.439602e+03,2.456925e+03
1.440566e+03,2.460855e+03
1.441531e+03,2.456077e+03
1.442495e+03,2.451264e+03
1.443459e+03,2.448774e+03
1.444423e+03,2.448932e+03
1.445388e+03,2.453891e+03
1.446352e+03,2.459492e+03
1.447316e+03,2.463052e+03
1.448280e+03,2.464974e+03
1.449245e+03,2.464278e+03
1.450209e+03,2.455345e+03
1.451173e+03,2.451821e+03
1.452137e+03,2.455763e+03
1.453101e+03,2.461530e+03
1.454066e+03,2.465540e+03
1.455030e+03,2.467758e+03
1.455994e+03,2.465640e+03
1.456958e+03,2.460033e+03
1.457923e+03,2.457438e+03
1.458887e+03,2.460350e+03
1.459851e+03,2.463308e+03
1.460815e+03,2.460040e+03
1.461780e+03,2.455105e+03
1.462744e+03,2.456114e+03
1.463708e+03,2.462171e+03
1.464672e+03,2.460925e+03
1.465636e+03,2.448152e+03
1.466601e+03,2.437155e+03
1.467565e+03,2.428834e+03
1.468529e+03,2.423926e+03
1.469493e+03,2.423761e+03
1.470458e+03,2.426339e+03
1.471422e+03,2.425543e+03
1.472386e+03,2.422885e+03
1.473350e+03,2.422150e+03
1.474315e+03,2.424238e+03
1.475279e+03,2.427856e+03
1.476243e+03,2.433415e+03
1.477207e+03,2.438354e+03
1.478172e+03,2.442655e+03
1.479136e+03,2.445852e+03
1.480100e+03,2.445283e+03
1.481064e+03,2.440727e+03
1.482028e+03,2.433664e+03
1.482993e+03,2.424042e+03
1.483957e+03,2.415547e+03
1.484921e+03,2.410594e+03
1.485885e+03,2.408633e+03
1.486850e+03,2.409894e+03
1.487814e+03,2.412282e+03
1.488778e+03,2.412492e+03
1.489742e+03,2.409187e+03
1.490707e+03,2.406297e+03
1.491671e+03,2.407962e+03
1.492635e+03,2.409754e+03
1.493599e+03,2.408255e+03
1.494563e+03,2.404414e+03
1.495528e+03,2.402360e+03
1.496492e+03,2.401649e+03
1.497456e+03,2.400999e+03
1.498420e+03,2.400993e+03
1.499385e+03,2.400345e+03
1.500349e+03,2.397073e+03
1.501313e+03,2.393756e+03
1.502277e+03,2.391719e+03
1.503242e+03,2.390777e+03
1.504206e+03,2.390707e+03
1.505170e+03,2.390980e+03
1.506134e+03,2.392861e+03
1.507099e+03,2.397747e+03
1.508063e+03,2.400912e+03
1.509027e+03,2.400059e+03
1.509991e+03,2.397724e+03
1.510955e+03,2.400042e+03
1.511920e+03,2.403781e+03
1.512884e+03,2.399702e+03
1.513848e+03,2.389662e+03
1.514812e+03,2.384557e+03
1.515777e+03,2.391312e+03
1.516741e+03,2.398280e+03
1.517705e+03,2.402168e+03
1.518669e+03,2.403595e+03
1.519634e+03,2.403068e+03
1.520598e+03,2.400339e+03
1.521562e+03,2.399394e+03
1.522526e+03,2.399352e+03
1.523490e+03,2.395956e+03
1.524455e+03,2.387340e+03
1.525419e+03,2.379833e+03
1.526383e+03,2.382656e+03
1.527347e+03,2.386802e+03
1.528312e+03,2.384163e+03
1.529276e+03,2.377142e+03
1.530240e+03,2.373823e+03
1.531204e+03,2.375364e+03
1.532169e+03,2.375169e+03
1.533133e+03,2.372278e+03
1.534097e+03,2.370085e+03
1.535061e+03,2.371881e+03
1.536026e+03,2.374741e+03
1.536990e+03,2.374623e+03
1.537954e+03,2.372134e+03
1.538918e+03,2.366821e+03
1.539882e+03,2.357414e+03
1.540847e+03,2.352894e+03
1.541811e+03,2.359556e+03
1.542775e+03,2.364863e+03
1.543739e+03,2.365715e+03
1.544704e+03,2.365155e+03
1.545668e+03,2.368731e+03
1.546632e+03,2.375234e+03
1.547596e+03,2.377032e+03
1.548561e+03,2.374455e+03
1.549525e+03,2.372695e+03
1.550489e+03,2.375477e+03
1.551453e+03,2.376738e+03
1.552417e+03,2.371317e+03
1.553382e+03,2.365114e+03
1.554346e+03,2.364287e+03
1.555310e+03,2.368283e+03
1.556274e+03,2.367731e+03
1.557239e+03,2.362557e+03
1.558203e+03,2.358991e+03
1.559167e+03,2.358490e+03
1.560131e+03,2.360985e+03
1.561096e+03,2.369948e+03
1.562060e+03,2.379181e+03
1.563024e+03,2.382191e+03
1.563988e+03,2.381585e+03
1.564953e+03,2.383845e+03
1.565917e+03,2.390690e+03
1.566881e+03,2.394229e+03
1.567845e+03,2.393207e+03
1.568809e+03,2.393904e+03
1.569774e+03,2.401919e+03
1.570738e+03,2.409834e+03
1.571702e+03,2.404829e+03
1.572666e+03,2.394906e+03
1.573631e+03,2.392202e+03
1.574595e+03,2.398573e+03
1.575559e+03,2.397826e+03
1.576523e+03,2.384489e+03
1.577488e+03,2.375656e+03
1.578452e+03,2.373572e+03
1.579416e+03,2.373974e+03
1.580380e+03,2.374026e+03
1.581344e+03,2.373562e+03
1.582309e+03,2.372041e+03
1.583273e+03,2.370174e+03
1.584237e+03,2.369271e+03
1.585201e+03,2.371991e+03
1.586166e+03,2.369130e+03
1.587130e+03,2.354812e+03
1.588094e+03,2.343294e+03
1.589058e+03,2.342357e+03
1.590023e+03,2.346798e+03
1.590987e+03,2.346265e+03
1.591951e+03,2.342766e+03
1.592915e+03,2.337194e+03
1.593880e+03,2.329545e+03
1.594844e+03,2.326087e+03
1.595808e+03,2.337094e+03
1.596772e+03,2.342181e+03
1.597736e+03,2.335321e+03
1.598701e+03,2.326807e+03
1.599665e+03,2.325530e+03
1.600629e+03,2.329489e+03
1.601593e+03,2.332007e+03
1.602558e+03,2.332466e+03
1.603522e+03,2.327873e+03
1.604486e+03,2.315984e+03
1.605450e+03,2.306684e+03
1.606415e+03,2.306269e+03
1.607379e+03,2.308969e+03
1.608343e+03,2.313888e+03
1.609307e+03,2.317942e+03
1.610271e+03,2.312450e+03
1.611236e+03,2.301046e+03
1.612200e+03,2.306471e+03
1.613164e+03,2.326514e+03
1.614128e+03,2.338362e+03
1.615093e+03,2.320731e+03
1.616057e+03,2.305037e+03
1.617021e+03,2.302662e+03
1.617985e+03,2.303114e+03
1.618950e+03,2.301175e+03
1.619914e+03,2.297714e+03
1.620878e+03,2.295348e+03
1.621842e+03,2.294407e+03
1.622807e+03,2.296175e+03
1.623771e+03,2.301350e+03
1.624735e+03,2.303507e+03
1.625699e+03,2.291406e+03
1.626663e+03,2.283852e+03
1.627628e+03,2.289103e+03
1.628592e+03,2.298122e+03
1.629556e+03,2.302056e+03
1.630520e+03,2.302416e+03
1.631485e+03,2.300257e+03
1.632449e+03,2.296072e+03
1.633413e+03,2.292676e+03
1.634377e+03,2.291984e+03
1.635342e+03,2.290869e+03
1.636306e+03,2.288019e+03
1.637270e+03,2.284868e+03
1.638234e+03,2.281631e+03
1.639198e+03,2.278924e+03
1.640163e+03,2.277225e+03
1.641127e+03,2.276784e+03
1.642091e+03,2.276560e+03
1.643055e+03,2.275719e+03
1.644020e+03,2.274925e+03
1.644984e+03,2.273392e+03
1.645948e+03,2.272282e+03
1.646912e+03,2.273226e+03
1.647877e+03,2.273660e+03
1.648841e+03,2.270969e+03
1.649805e+03,2.266753e+03
1.650769e+03,2.266089e+03
1.651734e+03,2.267270e+03
1.652698e+03,2.266488e+03
1.653662e+03,2.261703e+03
1.654626e+03,2.257443e+03
1.655590e+03,2.254804e+03
1.656555e+03,2.253355e+03
1.657519e+03,2.254303e+03
1.658483e+03,2.256632e+03
1.659447e+03,2.257514e+03
1.660412e+03,2.256618e+03
1.661376e+03,2.254629e+03
1.662340e+03,2.252797e+03
1.663304e+03,2.252784e+03
1.664269e+03,2.254836e+03
1.665233e+03,2.256479e+03
1.666197e+03,2.256568e+03
1.667161e+03,2.258012e+03
1.668125e+03,2.264452e+03
1.669090e+03,2.270578e+03
1.670054e+03,2.267429e+03
1.671018e+03,2.259477e+03
1.671982e+03,2.252121e+03
1.672947e+03,2.246358e+03
1.673911e+03,2.243316e+03
1.674875e+03,2.242296e+03
1.675839e+03,2.241324e+03
1.676804e+03,2.241198e+03
1.677768e+03,2.242911e+03
1.678732e+03,2.248621e+03
1.679696e+03,2.253149e+03
1.680661e+03,2.249804e+03
1.681625e+03,2.242221e+03
1.682589e+03,2.237637e+03
1.683553e+03,2.237220e+03
1.684517e+03,2.235804e+03
1.685482e+03,2.233134e+03
1.686446e+03,2.231409e+03
1.687410e+03,2.231356e+03
1.688374e+03,2.231964e+03
1.689339e+03,2.234124e+03
1.690303e+03,2.234480e+03
1.691267e+03,2.228547e+03
1.692231e+03,2.221707e+03
1.693196e+03,2.223684e+03
1.694160e+03,2.232128e+03
1.695124e+03,2.233270e+03
1.696088e+03,2.228769e+03
1.697052e+03,2.228975e+03
1.698017e+03,2.242683e+03
1.698981e+03,2.250703e+03
1.699945e+03,2.244415e+03
1.700909e+03,2.235492e+03
1.701874e+03,2.231309e+03
1.702838e+03,2.231201e+03
1.703802e+03,2.231620e+03
1.704766e+03,2.231419e+03
1.705731e+03,2.231263e+03
1.706695e+03,2.231474e+03
1.707659e+03,2.229078e+03
1.708623e+03,2.222482e+03
1.709588e+03,2.219082e+03
1.710552e+03,2.218927e+03
1.711516e+03,2.219410e+03
1.712480e+03,2.219195e+03
1.713444e+03,2.218481e+03
1.714409e+03,2.219305e+03
1.715373e+03,2.220198e+03
1.716337e+03,2.216922e+03
1.717301e+03,2.209973e+03
1.718266e+03,2.210491e+03
1.719230e+03,2.217702e+03
1.720194e+03,2.220804e+03
1.721158e+03,2.215994e+03
1.722123e+03,2.211390e+03
1.723087e+03,2.215571e+03
1.724051e+03,2.218424e+03
1.725015e+03,2.215302e+03
1.725979e+03,2.208662e+03
1.726944e+03,2.198509e+03
1.727908e+03,2.187005e+03
1.728872e+03,2.184541e+03
1.729836e+03,2.188559e+03
1.730801e+03,2.191599e+03
1.731765e+03,2.190646e+03
1.732729e+03,2.190543e+03
1.733693e+03,2.191737e+03
1.734658e+03,2.194285e+03
1.735622e+03,2.198557e+03
1.736586e+03,2.202552e+03
1.737550e+03,2.204739e+03
1.738515e+03,2.204220e+03
1.739479e+03,2.197619e+03
1.740443e+03,2.186891e+03
1.741407e+03,2.183351e+03
1.742371e+03,2.187873e+03
1.743336e+03,2.193147e+03
1.744300e+03,2.198290e+03
1.745264e+03,2.200469e+03
1.746228e+03,2.200089e+03
1.747193e+03,2.195852e+03
1.748157e+03,2.181129e+03
1.749121e+03,2.170673e+03
1.750085e+03,2.173723e+03
1.751050e+03,2.184228e+03
1.752014e+03,2.189878e+03
1.752978e+03,2.192005e+03
1.753942e+03,2.192046e+03
1.754906e+03,2.189847e+03
1.755871e+03,2.186841e+03
1.756835e+03,2.181184e+03
1.757799e+03,2.176388e+03
1.758763e+03,2.175275e+03
1.759728e+03,2.176618e+03
1.760692e+03,2.180449e+03
1.761656e+03,2.184084e+03
1.762620e+03,2.181162e+03
1.763585e+03,2.177210e+03
1.764549e+03,2.182353e+03
1.765513e+03,2.195298e+03
1.766477e+03,2.192859e+03
1.767442e+03,2.178384e+03
1.768406e+03,2.169034e+03
1.769370e+03,2.170763e+03
1.770334e+03,2.173174e+03
1.771298e+03,2.168439e+03
1.772263e+03,2.166173e+03
1.773227e+03,2.170717e+03
1.774191e+03,2.176675e+03
1.775155e+03,2.175707e+03
1.776120e+03,2.171360e+03
1.777084e+03,2.169009e+03
1.778048e+03,2.168543e+03
1.779012e+03,2.168642e+03
1.779977e+03,2.170207e+03
1.780941e+03,2.169487e+03
1.781905e+03,2.165614e+03
1.782869e+03,2.163695e+03
1.783833e+03,2.168108e+03
1.784798e+03,2.169144e+03
1.785762e+03,2.154577e+03
1.786726e+03,2.142201e+03
1.787690e+03,2.141884e+03
1.788655e+03,2.147689e+03
1.789619e+03,2.147278e+03
1.790583e+03,2.144084e+03
1.791547e+03,2.144998e+03
1.792512e+03,2.149680e+03
1.793476e+03,2.152908e+03
1.794440e+03,2.152531e+03
1.795404e+03,2.152667e+03
1.796369e+03,2.152842e+03
1.797333e+03,2.151403e+03
1.798297e+03,2.146107e+03
1.799261e+03,2.142159e+03
1.800225e+03,2.143553e+03
1.801190e+03,2.145605e+03
1.802154e+03,2.145128e+03
1.803118e+03,2.144343e+03
1.804082e+03,2.155297e+03
1.805047e+03,2.170403e+03
1.806011e+03,2.167426e+03
1.806975e+03,2.145917e+03
1.807939e+03,2.132005e+03
1.808904e+03,2.129649e+03
1.809868e+03,2.129767e+03
1.810832e+03,2.132319e+03
1.811796e+03,2.134876e+03
1.812760e+03,2.135223e+03
1.813725e+03,2.134578e+03
1.814689e+03,2.132750e+03
1.815653e+03,2.131671e+03
1.816617e+03,2.133771e+03
1.817582e+03,2.137107e+03
1.818546e+03,2.133895e+03
1.819510e+03,2.126780e+03
1.820474e+03,2.121669e+03
1.821439e+03,2.120013e+03
1.822403e+03,2.121516e+03
1.823367e+03,2.128019e+03
1.824331e+03,2.126423e+03
1.825296e+03,2.113535e+03
1.826260e+03,2.104517e+03
1.827224e+03,2.122027e+03
1.828188e+03,2.137444e+03
1.829152e+03,2.129865e+03
1.830117e+03,2.115885e+03
1.831081e+03,2.107010e+03
1.832045e+03,2.102337e+03
1.833009e+03,2.103723e+03
1.833974e+03,2.109707e+03
1.834938e+03,2.114207e+03
1.835902e+03,2.114999e+03
1.836866e+03,2.115392e+03
1.837831e+03,2.115466e+03
1.838795e+03,2.109458e+03
1.839759e+03,2.096596e+03
1.840723e+03,2.089916e+03
1.841688e+03,2.104110e+03
1.842652e+03,2.116756e+03
1.843616e+03,2.118609e+03
1.844580e+03,2.116264e+03
1.845544e+03,2.119534e+03
1.846509e+03,2.123189e+03
1.847473e+03,2.112481e+03
1.848437e+03,2.096536e+03
1.849401e+03,2.094956e+03
1.850366e+03,2.108404e+03
1.851330e+03,2.110339e+03
1.852294e+03,2.102533e+03
1.853258e+03,2.093218e+03
1.854223e+03,2.083682e+03
1.855187e+03,2.080941e+03
1.856151e+03,2.094135e+03
1.857115e+03,2.102849e+03
1.858079e+03,2.102142e+03
1.859044e+03,2.097940e+03
1.860008e+03,2.096675e+03
1.860972e+03,2.096855e+03
1.861936e+03,2.098142e+03
1.862901e+03,2.098627e+03
1.863865e+03,2.093841e+03
1.864829e+03,2.083611e+03
1.865793e+03,2.076923e+03
1.866758e+03,2.074536e+03
1.867722e+03,2.078044e+03
1.868686e+03,2.089450e+03
1.869650e+03,2.092644e+03
1.870615e+03,2.084468e+03
1.871579e+03,2.076489e+03
1.872543e+03,2.072351e+03
1.873507e+03,2.073010e+03
1.874471e+03,2.080733e+03
1.875436e+03,2.087206e+03
1.876400e+03,2.090617e+03
1.877364e+03,2.090647e+03
1.878328e+03,2.084058e+03
1.879293e+03,2.075182e+03
1.880257e+03,2.072631e+03
1.881221e+03,2.073302e+03
1.882185e+03,2.072227e+03
1.883150e+03,2.069663e+03
1.884114e+03,2.064191e+03
1.885078e+03,2.055978e+03
1.886042e+03,2.049937e+03
1.887006e+03,2.047128e+03
1.887971e+03,2.048798e+03
1.888935e+03,2.059947e+03
1.889899e+03,2.067294e+03
1.890863e+03,2.065933e+03
1.891828e+03,2.063134e+03
1.892792e+03,2.073140e+03
1.893756e+03,2.079350e+03
1.894720e+03,2.064562e+03
1.895685e+03,2.045634e+03
1.896649e+03,2.036300e+03
1.897613e+03,2.035027e+03
1.898577e+03,2.043439e+03
1.899542e+03,2.057150e+03
1.900506e+03,2.066355e+03
1.901470e+03,2.069072e+03
1.902434e+03,2.065847e+03
1.903398e+03,2.057298e+03
1.904363e+03,2.055573e+03
1.905327e+03,2.064744e+03
1.906291e+03,2.071340e+03
1.907255e+03,2.064460e+03
1.908220e+03,2.058309e+03
1.909184e+03,2.055704e+03
1.910148e+03,2.053269e+03
1.911112e+03,2.049921e+03
1.912077e+03,2.044833e+03
1.913041e+03,2.034141e+03
1.914005e+03,2.023700e+03
1.914969e+03,2.019880e+03
1.915933e+03,2.020914e+03
1.916898e+03,2.020611e+03
1.917862e+03,2.020247e+03
1.918826e+03,2.021810e+03
1.919790e+03,2.026240e+03
1.920755e+03,2.030138e+03
1.921719e+03,2.032297e+03
1.922683e+03,2.030751e+03
1.923647e+03,2.025714e+03
1.924612e+03,2.023243e+03
1.925576e+03,2.030734e+03
1.926540e+03,2.031513e+03
1.927504e+03,2.020186e+03
1.928469e+03,2.011549e+03
1.929433e+03,2.026055e+03
1.930397e+03,2.039015e+03
1.931361e+03,2.026515e+03
1.932325e+03,2.010131e+03
1.933290e+03,2.008695e+03
1.934254e+03,2.016605e+03
1.935218e+03,2.016411e+03
1.936182e+03,2.011216e+03
1.937147e+03,2.009819e+03
1.938111e+03,2.012529e+03
1.939075e+03,2.008652e+03
1.940039e+03,2.000902e+03
1.941004e+03,2.002318e+03
1.941968e+03,2.012903e+03
1.942932e+03,2.018911e+03
1.943896e+03,2.016115e+03
1.944860e+03,2.012570e+03
1.945825e+03,2.009800e+03
1.946789e+03,2.009000e+03
1.947753e+03,2.011295e+03
1.948717e+03,2.013455e+03
1.949682e+03,2.014729e+03
1.950646e+03,2.013754e+03
1.951610e+03,2.008724e+03
1.952574e+03,2.002794e+03
1.953539e+03,2.002029e+03
1.954503e+03,2.001269e+03
1.955467e+03,1.994186e+03
1.956431e+03,1.984785e+03
1.957396e+03,1.983441e+03
1.958360e+03,1.986706e+03
1.959324e+03,1.987807e+03
1.960288e+03,1.987086e+03
1.961252e+03,1.986214e+03
1.962217e+03,1.984318e+03
1.963181e+03,1.978963e+03
1.964145e+03,1.970877e+03
1.965109e+03,1.969455e+03
1.966074e+03,1.986986e+03
1.967038e+03,1.998609e+03
1.968002e+03,1.999942e+03
1.968966e+03,1.997657e+03
1.969931e+03,1.994690e+03
1.970895e+03,1.990259e+03
1.971859e+03,1.983511e+03
1.972823e+03,1.980392e+03
1.973787e+03,1.983783e+03
1.974752e+03,1.987426e+03
1.975716e+03,1.981394e+03
1.976680e+03,1.972218e+03
1.977644e+03,1.969327e+03
1.978609e+03,1.969905e+03
1.979573e+03,1.966766e+03
1.980537e+03,1.960758e+03
1.981501e+03,1.954495e+03
1.982466e+03,1.950204e+03
1.983430e+03,1.954656e+03
1.984394e+03,1.968756e+03
1.985358e+03,1.976973e+03
1.986323e+03,1.979567e+03
1.987287e+03,1.979320e+03
1.988251e+03,1.976193e+03
1.989215e+03,1.974115e+03
1.990179e+03,1.975318e+03
1.991144e+03,1.969527e+03
1.992108e+03,1.953890e+03
1.993072e+03,1.943414e+03
1.994036e+03,1.953246e+03
1.995001e+03,1.962606e+03
1.995965e+03,1.966908e+03
1.996929e+03,1.965767e+03
1.997893e+03,1.950498e+03
1.998858e+03,1.936047e+03
1.999822e+03,1.940348e+03
2.000786e+03,1.948012e+03
2.001750e+03,1.945848e+03
2.002714e+03,1.941102e+03
2.003679e+03,1.951346e+03
2.004643e+03,1.964871e+03
2.005607e+03,1.960916e+03
2.006571e+03,1.945629e+03
2.007536e+03,1.944287e+03
2.008500e+03,1.952460e+03
2.009464e+03,1.956700e+03
2.010428e+03,1.955446e+03
2.011393e+03,1.947375e+03
2.012357e+03,1.931461e+03
2.013321e+03,1.929293e+03
2.014285e+03,1.939900e+03
2.015250e+03,1.948038e+03
2.016214e+03,1.946119e+03
2.017178e+03,1.940777e+03
2.018142e+03,1.932333e+03
2.019106e+03,1.926859e+03
2.020071e+03,1.928168e+03
2.021035e+03,1.930540e+03
2.021999e+03,1.933638e+03
2.022963e+03,1.930555e+03
2.023928e+03,1.916687e+03
2.024892e+03,1.904904e+03
2.025856e+03,1.913669e+03
2.026820e+03,1.925139e+03
2.027785e+03,1.928718e+03
2.028749e+03,1.926303e+03
2.029713e+03,1.918206e+03
2.030677e+03,1.909409e+03
2.031641e+03,1.904930e+03
2.032606e+03,1.905005e+03
2.033570e+03,1.911894e+03
2.034534e+03,1.921915e+03
2.035498e+03,1.918379e+03
2.036463e+03,1.907021e+03
2.037427e+03,1.900824e+03
2.038391e+03,1.901569e+03
2.039355e+03,1.897928e+03
2.040320e+03,1.892073e+03
2.041284e+03,1.893807e+03
2.042248e+03,1.904951e+03
2.043212e+03,1.904660e+03
2.044177e+03,1.891352e+03
2.045141e+03,1.886275e+03
2.046105e+03,1.892004e+03
2.047069e+03,1.897485e+03
2.048033e+03,1.895643e+03
2.048998e+03,1.894525e+03
2.049962e+03,1.895551e+03
2.050926e+03,1.895366e+03
2.051890e+03,1.892264e+03
2.052854e+03,1.885552e+03
2.053819e+03,1.871389e+03
2.054783e+03,1.861560e+03
2.055747e+03,1.865496e+03
2.056711e+03,1.873149e+03
2.057676e+03,1.876399e+03
2.058640e+03,1.876968e+03
2.059604e+03,1.873334e+03
2.060568e+03,1.869172e+03
2.061533e+03,1.872519e+03
2.062497e+03,1.878036e+03
2.063461e+03,1.880981e+03
2.064425e+03,1.881743e+03
2.065390e+03,1.879338e+03
2.066354e+03,1.875790e+03
2.067318e+03,1.879100e+03
2.068282e+03,1.883090e+03
2.069247e+03,1.871574e+03
2.070211e+03,1.848804e+03
2.071175e+03,1.850482e+03
2.072139e+03,1.866187e+03
2.073104e+03,1.868941e+03
2.074068e+03,1.856904e+03
2.075032e+03,1.853586e+03
2.075996e+03,1.856272e+03
2.076960e+03,1.854441e+03
2.077925e+03,1.846389e+03
2.078889e+03,1.853633e+03
2.079853e+03,1.878011e+03
2.080817e+03,1.883790e+03
2.081782e+03,1.867790e+03
2.082746e+03,1.854100e+03
2.083710e+03,1.853272e+03
2.084674e+03,1.853519e+03
2.085639e+03,1.855267e+03
2.086603e+03,1.860958e+03
2.087567e+03,1.874269e+03
2.088531e+03,1.878889e+03
2.089496e+03,1.870977e+03
2.090460e+03,1.860848e+03
2.091424e+03,1.855532e+03
2.092388e+03,1.853409e+03
2.093353e+03,1.853604e+03
2.094317e+03,1.854551e+03
2.095281e+03,1.854336e+03
2.096245e+03,1.851881e+03
2.097209e+03,1.845320e+03
2.098174e+03,1.837764e+03
2.099138e+03,1.830999e+03
2.100102e+03,1.825909e+03
2.101066e+03,1.824494e+03
2.102031e+03,1.823539e+03
2.102995e+03,1.818219e+03
2.103959e+03,1.814326e+03
2.104923e+03,1.818471e+03
2.105887e+03,1.826722e+03
2.106852e+03,1.830893e+03
2.107816e+03,1.830415e+03
2.108780e+03,1.825837e+03
2.109744e+03,1.820081e+03
2.110708e+03,1.824650e+03
2.111673e+03,1.832790e+03
2.112637e+03,1.829230e+03
2.113601e+03,1.819175e+03
2.114565e+03,1.820928e+03
2.115530e+03,1.827458e+03
2.116494e+03,1.819700e+03
2.117458e+03,1.804964e+03
2.118422e+03,1.805750e+03
2.119387e+03,1.817437e+03
2.120351e+03,1.824243e+03
2.121315e+03,1.825151e+03
2.122279e+03,1.822164e+03
2.123244e+03,1.815461e+03
2.124208e+03,1.815103e+03
2.125172e+03,1.819026e+03
2.126136e+03,1.816969e+03
2.127101e+03,1.806078e+03
2.128065e+03,1.798323e+03
2.129029e+03,1.793190e+03
2.129993e+03,1.789986e+03
2.130958e+03,1.786925e+03
2.131922e+03,1.788567e+03
2.132886e+03,1.796234e+03
2.133850e+03,1.797195e+03
2.134814e+03,1.792268e+03
2.135779e+03,1.790506e+03
2.136743e+03,1.794532e+03
2.137707e+03,1.798353e+03
2.138671e+03,1.802267e+03
2.139636e+03,1.804877e+03
2.140600e+03,1.805825e+03
2.141564e+03,1.803591e+03
2.142528e+03,1.798425e+03
2.143493e+03,1.792656e+03
2.144457e+03,1.785697e+03
2.145421e+03,1.779885e+03
2.146385e+03,1.776121e+03
2.147350e+03,1.774383e+03
2.148314e+03,1.776006e+03
2.149278e+03,1.778303e+03
2.150242e+03,1.775245e+03
2.151207e+03,1.775240e+03
2.152171e+03,1.779552e+03
2.153135e+03,1.782869e+03
2.154099e+03,1.784674e+03
2.155063e+03,1.783354e+03
2.156028e+03,1.778438e+03
2.156992e+03,1.775754e+03
2.157956e+03,1.780060e+03
2.158920e+03,1.780991e+03
2.159885e+03,1.771285e+03
2.160849e+03,1.764094e+03
2.161813e+03,1.766733e+03
2.162777e+03,1.770893e+03
2.163741e+03,1.772199e+03
2.164706e+03,1.769112e+03
2.165670e+03,1.761466e+03
2.166634e+03,1.756022e+03
2.167598e+03,1.758526e+03
2.168563e+03,1.765032e+03
2.169527e+03,1.773004e+03
2.170491e+03,1.778464e+03
2.171455e+03,1.780756e+03
2.172420e+03,1.778468e+03
2.173384e+03,1.767822e+03
2.174348e+03,1.758787e+03
2.175312e+03,1.761358e+03
2.176277e+03,1.765181e+03
2.177241e+03,1.757701e+03
2.178205e+03,1.751077e+03
2.179169e+03,1.756108e+03
2.180134e+03,1.763351e+03
2.181098e+03,1.755321e+03
2.182062e+03,1.746428e+03
2.183026e+03,1.744749e+03
2.183990e+03,1.747528e+03
2.184955e+03,1.754841e+03
2.185919e+03,1.760541e+03
2.186883e+03,1.757717e+03
2.187847e+03,1.752027e+03
2.188812e+03,1.752557e+03
2.189776e+03,1.754055e+03
2.190740e+03,1.747794e+03
2.191704e+03,1.740374e+03
2.192668e+03,1.739453e+03
2.193633e+03,1.741729e+03
2.194597e+03,1.742932e+03
2.195561e+03,1.744244e+03
2.196525e+03,1.747639e+03
2.197490e+03,1.748260e+03
2.198454e+03,1.729600e+03
2.199418e+03,1.713091e+03
2.200382e+03,1.720709e+03
2.201347e+03,1.738033e+03
2.202311e+03,1.737928e+03
2.203275e+03,1.732328e+03
2.204239e+03,1.733200e+03
2.205204e+03,1.733750e+03
2.206168e+03,1.724949e+03
2.207132e+03,1.714514e+03
2.208096e+03,1.709812e+03
2.209061e+03,1.708480e+03
2.210025e+03,1.712338e+03
2.210989e+03,1.716622e+03
2.211953e+03,1.714274e+03
2.212917e+03,1.710487e+03
2.213882e+03,1.703099e+03
2.214846e+03,1.696831e+03
2.215810e+03,1.709300e+03
2.216774e+03,1.721778e+03
2.217739e+03,1.719794e+03
2.218703e+03,1.711153e+03
2.219667e+03,1.706913e+03
2.220631e+03,1.704705e+03
2.221595e+03,1.700949e+03
2.222560e+03,1.697435e+03
2.223524e+03,1.699730e+03
2.224488e+03,1.701779e+03
2.225452e+03,1.696140e+03
2.226417e+03,1.688035e+03
2.227381e+03,1.678303e+03
2.228345e+03,1.672756e+03
2.229309e+03,1.682502e+03
2.230274e+03,1.693311e+03
2.231238e+03,1.693033e+03
2.232202e+03,1.687309e+03
2.233166e+03,1.684332e+03
2.234131e+03,1.684117e+03
2.235095e+03,1.686065e+03
2.236059e+03,1.688794e+03
2.237023e+03,1.689186e+03
2.237988e+03,1.689864e+03
2.238952e+03,1.693760e+03
2.239916e+03,1.694227e+03
2.240880e+03,1.678609e+03
2.241844e+03,1.664360e+03
2.242809e+03,1.665112e+03
2.243773e+03,1.670191e+03
2.244737e+03,1.669886e+03
2.245701e+03,1.665961e+03
2.246666e+03,1.656544e+03
2.247630e+03,1.649020e+03
2.248594e+03,1.651165e+03
2.249558e+03,1.657993e+03
2.250522e+03,1.666748e+03
2.251487e+03,1.673266e+03
2.252451e+03,1.673000e+03
2.253415e+03,1.669321e+03
2.254379e+03,1.669646e+03
2.255344e+03,1.666516e+03
2.256308e+03,1.656408e+03
2.257272e+03,1.646811e+03
2.258236e+03,1.643625e+03
2.259201e+03,1.646748e+03
2.260165e+03,1.656262e+03
2.261129e+03,1.663344e+03
2.262093e+03,1.655404e+03
2.263058e+03,1.650833e+03
2.264022e+03,1.657093e+03
2.264986e+03,1.663210e+03
2.265950e+03,1.658265e+03
2.266915e+03,1.655456e+03
2.267879e+03,1.659141e+03
2.268843e+03,1.656567e+03
2.269807e+03,1.642714e+03
2.270771e+03,1.627644e+03
2.271736e+03,1.612808e+03
2.272700e+03,1.609966e+03
2.273664e+03,1.622352e+03
2.274628e+03,1.633384e+03
2.275593e+03,1.634980e+03
2.276557e+03,1.634735e+03
2.277521e+03,1.634996e+03
2.278485e+03,1.635101e+03
2.279449e+03,1.632695e+03
2.280414e+03,1.636302e+03
2.281378e+03,1.645846e+03
2.282342e+03,1.651330e+03
2.283306e+03,1.642087e+03
2.284271e+03,1.638030e+03
2.285235e+03,1.638225e+03
2.286199e+03,1.635004e+03
2.287163e+03,1.626596e+03
2.288128e+03,1.621936e+03
2.289092e+03,1.619574e+03
2.290056e+03,1.619463e+03
2.291020e+03,1.622187e+03
2.291985e+03,1.618774e+03
2.292949e+03,1.611378e+03
2.293913e+03,1.608450e+03
2.294877e+03,1.610392e+03
2.295842e+03,1.614827e+03
2.296806e+03,1.620008e+03
2.297770e+03,1.622180e+03
2.298734e+03,1.621262e+03
2.299698e+03,1.619906e+03
2.300663e+03,1.618326e+03
2.301627e+03,1.609615e+03
2.302591e+03,1.597464e+03
2.303555e+03,1.592405e+03
2.304520e+03,1.593330e+03
2.305484e+03,1.593583e+03
2.306448e+03,1.594332e+03
2.307412e+03,1.596893e+03
2.308376e+03,1.599689e+03
2.309341e+03,1.599439e+03
2.310305e+03,1.598690e+03
2.311269e+03,1.603899e+03
2.312233e+03,1.610033e+03
2.313198e+03,1.604140e+03
2.314162e+03,1.595012e+03
2.315126e+03,1.594232e+03
2.316090e+03,1.594347e+03
2.317055e+03,1.583793e+03
2.318019e+03,1.576019e+03
2.318983e+03,1.586809e+03
2.319947e+03,1.597492e+03
2.320912e+03,1.595505e+03
2.321876e+03,1.589895e+03
2.322840e+03,1.584273e+03
2.323804e+03,1.582470e+03
2.324769e+03,1.588669e+03
2.325733e+03,1.594943e+03
2.326697e+03,1.594205e+03
2.327661e+03,1.592526e+03
2.328625e+03,1.590293e+03
2.329590e+03,1.585563e+03
2.330554e+03,1.575785e+03
2.331518e+03,1.573620e+03
2.332482e+03,1.581246e+03
2.333447e+03,1.584935e+03
2.334411e+03,1.573347e+03
2.335375e+03,1.571442e+03
2.336339e+03,1.579954e+03
2.337303e+03,1.582007e+03
2.338268e+03,1.564799e+03
2.339232e+03,1.558994e+03
2.340196e+03,1.563584e+03
2.341160e+03,1.568253e+03
2.342125e+03,1.570273e+03
2.343089e+03,1.573773e+03
2.344053e+03,1.576328e+03
2.345017e+03,1.576751e+03
2.345982e+03,1.575817e+03
2.346946e+03,1.576907e+03
2.347910e+03,1.579957e+03
2.348874e+03,1.581293e+03
2.349839e+03,1.579405e+03
2.350803e+03,1.575178e+03
2.351767e+03,1.569647e+03
2.352731e+03,1.562905e+03
2.353696e+03,1.556729e+03
2.354660e+03,1.550504e+03
2.355624e+03,1.545663e+03
2.356588e+03,1.547974e+03
2.357552e+03,1.553177e+03
2.358517e+03,1.558276e+03
2.359481e+03,1.562518e+03
2.360445e+03,1.567344e+03
2.361409e+03,1.564017e+03
2.362374e+03,1.545083e+03
2.363338e+03,1.525007e+03
2.364302e+03,1.519552e+03
2.365266e+03,1.518405e+03
2.366230e+03,1.517669e+03
2.367195e+03,1.519691e+03
2.368159e+03,1.526996e+03
2.369123e+03,1.533587e+03
2.370087e+03,1.540064e+03
2.371052e+03,1.546736e+03
2.372016e+03,1.555038e+03
2.372980e+03,1.560406e+03
2.373944e+03,1.561933e+03
2.374909e+03,1.558822e+03
2.375873e+03,1.549820e+03
2.376837e+03,1.543209e+03
2.377801e+03,1.538771e+03
2.378766e+03,1.534318e+03
2.379730e+03,1.529461e+03
2.380694e+03,1.521588e+03
2.381658e+03,1.514066e+03
2.382623e+03,1.512930e+03
2.383587e+03,1.517356e+03
2.384551e+03,1.531503e+03
2.385515e+03,1.544609e+03
2.386479e+03,1.534529e+03
2.387444e+03,1.517569e+03
2.388408e+03,1.519232e+03
2.389372e+03,1.525747e+03
2.390336e+03,1.520419e+03
2.391301e+03,1.514090e+03
2.392265e+03,1.518143e+03
2.393229e+03,1.522768e+03
2.394193e+03,1.521761e+03
2.395157e+03,1.522030e+03
2.396122e+03,1.532775e+03
2.397086e+03,1.534518e+03
2.398050e+03,1.520260e+03
2.399014e+03,1.508766e+03
2.399979e+03,1.506943e+03
2.400943e+03,1.507711e+03
2.401907e+03,1.509136e+03
2.402871e+03,1.505600e+03
2.403836e+03,1.496372e+03
2.404800e+03,1.500367e+03
2.405764e+03,1.516531e+03
2.406728e+03,1.516032e+03
2.407693e+03,1.499076e+03
2.408657e+03,1.493933e+03
2.409621e+03,1.499533e+03
2.410585e+03,1.503425e+03
2.411550e+03,1.504098e+03
2.412514e+03,1.498632e+03
2.413478e+03,1.490277e+03
2.414442e+03,1.488203e+03
2.415406e+03,1.488846e+03
2.416371e+03,1.486253e+03
2.417335e+03,1.485870e+03
2.418299e+03,1.500326e+03
2.419263e+03,1.512987e+03
2.420228e+03,1.514804e+03
2.421192e+03,1.511031e+03
2.422156e+03,1.501908e+03
2.423120e+03,1.498814e+03
2.424084e+03,1.504033e+03
2.425049e+03,1.505677e+03
2.426013e+03,1.498360e+03
2.426977e+03,1.488656e+03
2.427941e+03,1.478475e+03
2.428906e+03,1.471742e+03
2.429870e+03,1.468428e+03
2.430834e+03,1.468614e+03
2.431798e+03,1.471642e+03
2.432763e+03,1.471339e+03
2.433727e+03,1.467416e+03
2.434691e+03,1.469591e+03
2.435655e+03,1.474654e+03
2.436620e+03,1.475444e+03
2.437584e+03,1.474714e+03
2.438548e+03,1.483341e+03
2.439512e+03,1.492586e+03
2.440477e+03,1.494016e+03
2.441441e+03,1.487929e+03
2.442405e+03,1.466877e+03
2.443369e+03,1.456197e+03
2.444333e+03,1.468743e+03
2.445298e+03,1.485001e+03
2.446262e+03,1.490805e+03
2.447226e+03,1.488518e+03
2.448190e+03,1.479376e+03
2.449155e+03,1.473781e+03
2.450119e+03,1.482682e+03
2.451083e+03,1.486871e+03
2.452047e+03,1.485843e+03
2.453011e+03,1.480739e+03
2.453976e+03,1.472224e+03
2.454940e+03,1.466021e+03
2.455904e+03,1.463211e+03
2.456868e+03,1.466066e+03
2.457833e+03,1.469918e+03
2.458797e+03,1.461257e+03
2.459761e+03,1.447702e+03
2.460725e+03,1.437119e+03
2.461690e+03,1.430669e+03
2.462654e+03,1.431660e+03
2.463618e+03,1.436490e+03
2.464582e+03,1.444145e+03
2.465547e+03,1.451371e+03
2.466511e+03,1.451574e+03
2.467475e+03,1.452207e+03
2.468439e+03,1.455233e+03
2.469404e+03,1.454860e+03
2.470368e+03,1.445577e+03
2.471332e+03,1.442681e+03
2.472296e+03,1.445067e+03
2.473260e+03,1.447562e+03
2.474225e+03,1.449241e+03
2.475189e+03,1.443623e+03
2.476153e+03,1.434901e+03
2.477117e+03,1.432084e+03
2.478082e+03,1.434542e+03
2.479046e+03,1.444682e+03
2.480010e+03,1.454738e+03
2.480974e+03,1.454653e+03
2.481938e+03,1.449453e+03
2.482903e+03,1.441281e+03
2.483867e+03,1.437172e+03
2.484831e+03,1.441107e+03
2.485795e+03,1.443810e+03
2.486760e+03,1.436397e+03
2.487724e+03,1.431361e+03
2.488688e+03,1.431225e+03
2.489652e+03,1.434410e+03
2.490617e+03,1.443603e+03
2.491581e+03,1.439922e+03
2.492545e+03,1.426304e+03
2.493509e+03,1.415158e+03
2.494474e+03,1.408067e+03
2.495438e+03,1.410050e+03
2.496402e+03,1.417246e+03
2.497366e+03,1.422081e+03
2.498331e+03,1.425005e+03
2.499295e+03,1.427311e+03
2.500259e+03,1.428403e+03
2.501223e+03,1.430052e+03
2.502188e+03,1.430492e+03
2.503152e+03,1.427514e+03
2.504116e+03,1.420811e+03
2.505080e+03,1.409929e+03
2.506044e+03,1.404132e+03
2.507009e+03,1.414404e+03
2.507973e+03,1.416617e+03
2.508937e+03,1.411323e+03
2.509901e+03,1.408233e+03
2.510865e+03,1.409219e+03
2.511830e+03,1.414880e+03
2.512794e+03,1.421780e+03
2.513758e+03,1.423350e+03
2.514722e+03,1.421436e+03
2.515687e+03,1.417578e+03
2.516651e+03,1.411379e+03
2.517615e+03,1.401251e+03
2.518579e+03,1.392743e+03
2.519544e+03,1.394961e+03
2.520508e+03,1.398902e+03
2.521472e+03,1.402061e+03
2.522436e+03,1.401342e+03
2.523401e+03,1.386619e+03
2.524365e+03,1.389607e+03
2.525329e+03,1.409705e+03
2.526293e+03,1.415387e+03
2.527258e+03,1.399422e+03
2.528222e+03,1.397515e+03
2.529186e+03,1.404927e+03
2.530150e+03,1.406063e+03
2.531115e+03,1.402694e+03
2.532079e+03,1.397595e+03
2.533043e+03,1.395873e+03
2.534007e+03,1.403530e+03
2.534971e+03,1.409604e+03
2.535936e+03,1.398487e+03
2.536900e+03,1.388604e+03
2.537864e+03,1.386371e+03
2.538828e+03,1.385327e+03
2.539792e+03,1.378782e+03
2.540757e+03,1.379528e+03
2.541721e+03,1.388466e+03
2.542685e+03,1.391688e+03
2.543649e+03,1.389266e+03
2.544614e+03,1.394230e+03
2.545578e+03,1.401553e+03
2.546542e+03,1.396827e+03
2.547506e+03,1.386962e+03
2.548471e+03,1.388691e+03
2.549435e+03,1.393542e+03
2.550399e+03,1.395279e+03
2.551363e+03,1.393641e+03
2.552328e+03,1.387335e+03
2.553292e+03,1.383809e+03
2.554256e+03,1.386816e+03
2.555220e+03,1.386326e+03
2.556185e+03,1.380280e+03
2.557149e+03,1.376210e+03
2.558113e+03,1.375082e+03
2.559077e+03,1.371623e+03
2.560042e+03,1.366171e+03
2.561006e+03,1.364614e+03
2.561970e+03,1.366680e+03
2.562934e+03,1.366928e+03
2.563898e+03,1.365727e+03
2.564863e+03,1.361026e+03
2.565827e+03,1.357837e+03
2.566791e+03,1.368130e+03
2.567755e+03,1.370506e+03
2.568719e+03,1.357499e+03
2.569684e+03,1.352114e+03
2.570648e+03,1.369828e+03
2.571612e+03,1.372971e+03
2.572576e+03,1.364598e+03
2.573541e+03,1.357911e+03
2.574505e+03,1.354477e+03
2.575469e+03,1.362226e+03
2.576433e+03,1.374043e+03
2.577398e+03,1.383111e+03
2.578362e+03,1.385873e+03
2.579326e+03,1.372337e+03
2.580290e+03,1.357760e+03
2.581255e+03,1.347452e+03
2.582219e+03,1.342315e+03
2.583183e+03,1.348928e+03
2.584147e+03,1.349879e+03
2.585112e+03,1.346724e+03
2.586076e+03,1.347010e+03
2.587040e+03,1.351702e+03
2.588004e+03,1.358965e+03
2.588969e+03,1.364629e+03
2.589933e+03,1.361357e+03
2.590897e+03,1.355104e+03
2.591861e+03,1.360901e+03
2.592825e+03,1.363576e+03
2.593790e+03,1.350168e+03
2.594754e+03,1.341455e+03
2.595718e+03,1.356500e+03
2.596682e+03,1.361824e+03
2.597646e+03,1.349577e+03
2.598611e+03,1.341529e+03
2.599575e+03,1.341447e+03
2.600539e+03,1.348317e+03
2.601503e+03,1.357111e+03
2.602468e+03,1.349292e+03
2.603432e+03,1.335294e+03
2.604396e+03,1.342007e+03
2.605360e+03,1.351170e+03
2.606325e+03,1.342850e+03
2.607289e+03,1.333031e+03
2.608253e+03,1.329103e+03
2.609217e+03,1.326765e+03
2.610182e+03,1.320910e+03
2.611146e+03,1.326177e+03
2.612110e+03,1.340625e+03
2.613074e+03,1.342255e+03
2.614039e+03,1.332154e+03
2.615003e+03,1.330281e+03
2.615967e+03,1.333726e+03
2.616931e+03,1.344550e+03
2.617896e+03,1.352109e+03
2.618860e+03,1.335891e+03
2.619824e+03,1.319660e+03
2.620788e+03,1.311279e+03
2.621752e+03,1.311250e+03
2.622717e+03,1.324691e+03
2.623681e+03,1.338350e+03
2.624645e+03,1.349047e+03
2.625609e+03,1.338450e+03
2.626573e+03,1.312283e+03
2.627538e+03,1.310008e+03
2.628502e+03,1.321514e+03
2.629466e+03,1.329232e+03
2.630430e+03,1.332774e+03
2.631395e+03,1.327422e+03
2.632359e+03,1.323511e+03
2.633323e+03,1.326358e+03
2.634287e+03,1.322905e+03
2.635252e+03,1.310945e+03
2.636216e+03,1.315052e+03
2.637180e+03,1.337056e+03
2.638144e+03,1.340185e+03
2.639109e+03,1.329418e+03
2.640073e+03,1.316415e+03
2.641037e+03,1.308921e+03
2.642001e+03,1.321765e+03
2.642966e+03,1.327995e+03
2.643930e+03,1.310773e+03
2.644894e+03,1.295919e+03
2.645858e+03,1.307051e+03
2.646823e+03,1.307860e+03
2.647787e+03,1.296746e+03
2.648751e+03,1.287459e+03
2.649715e+03,1.282254e+03
2.650679e+03,1.287601e+03
2.651644e+03,1.297834e+03
2.652608e+03,1.304640e+03
2.653572e+03,1.307445e+03
2.654536e+03,1.304241e+03
2.655500e+03,1.299332e+03
2.656465e+03,1.293980e+03
2.657429e+03,1.289589e+03
2.658393e+03,1.285326e+03
2.659357e+03,1.285668e+03
2.660322e+03,1.292618e+03
2.661286e+03,1.303590e+03
2.662250e+03,1.313181e+03
2.663214e+03,1.300758e+03
2.664179e+03,1.283401e+03
2.665143e+03,1.280855e+03
2.666107e+03,1.287493e+03
2.667071e+03,1.302196e+03
2.668036e+03,1.307375e+03
2.669000e+03,1.283560e+03
2.669964e+03,1.273570e+03
2.670928e+03,1.277065e+03
2.671893e+03,1.285884e+03
2.672857e+03,1.296339e+03
2.673821e+03,1.294422e+03
2.674785e+03,1.286025e+03
2.675750e+03,1.277688e+03
2.676714e+03,1.274565e+03
2.677678e+03,1.289194e+03
2.678642e+03,1.294357e+03
2.679606e+03,1.283955e+03
2.680571e+03,1.277405e+03
2.681535e+03,1.277821e+03
2.682499e+03,1.285001e+03
2.683463e+03,1.291578e+03
2.684427e+03,1.273040e+03
2.685392e+03,1.249395e+03
2.686356e+03,1.260050e+03
2.687320e+03,1.275553e+03
2.688284e+03,1.277660e+03
2.689249e+03,1.281260e+03
2.690213e+03,1.289262e+03
2.691177e+03,1.289602e+03
2.692141e+03,1.278774e+03
2.693106e+03,1.268067e+03
2.694070e+03,1.260890e+03
2.695034e+03,1.268622e+03
2.695998e+03,1.278765e+03
2.696963e+03,1.264292e+03
2.697927e+03,1.253677e+03
2.698891e+03,1.259911e+03
2.699855e+03,1.268289e+03
2.700820e+03,1.274148e+03
2.701784e+03,1.269909e+03
2.702748e+03,1.256136e+03
2.703712e+03,1.248674e+03
2.704677e+03,1.247812e+03
2.705641e+03,1.260335e+03
2.706605e+03,1.272655e+03
2.707569e+03,1.259808e+03
2.708533e+03,1.253240e+03
2.709498e+03,1.268162e+03
2.710462e+03,1.275806e+03
2.711426e+03,1.259303e+03
2.712390e+03,1.266517e+03
2.713354e+03,1.289397e+03
2.714319e+03,1.287226e+03
2.715283e+03,1.271009e+03
2.716247e+03,1.271936e+03
2.717211e+03,1.273364e+03
2.718176e+03,1.263100e+03
2.719140e+03,1.252146e+03
2.720104e+03,1.246731e+03
2.721068e+03,1.245821e+03
2.722033e+03,1.249283e+03
2.722997e+03,1.253015e+03
2.723961e+03,1.255337e+03
2.724925e+03,1.249938e+03
2.725890e+03,1.246088e+03
2.726854e+03,1.263156e+03
2.727818e+03,1.274027e+03
2.728782e+03,1.262036e+03
2.729747e+03,1.245915e+03
2.730711e+03,1.231313e+03
2.731675e+03,1.230166e+03
2.732639e+03,1.239049e+03
2.733604e+03,1.238031e+03
2.734568e+03,1.231732e+03
2.735532e+03,1.237946e+03
2.736496e+03,1.245149e+03
2.737460e+03,1.245800e+03
2.738425e+03,1.243355e+03
2.739389e+03,1.237966e+03
2.740353e+03,1.237958e+03
2.741317e+03,1.244680e+03
2.742281e+03,1.244002e+03
2.743246e+03,1.239939e+03
2.744210e+03,1.248544e+03
2.745174e+03,1.257383e+03
2.746138e+03,1.249693e+03
2.747103e+03,1.244208e+03
2.748067e+03,1.249508e+03
2.749031e+03,1.252198e+03
2.749995e+03,1.243495e+03
2.750960e+03,1.233633e+03
2.751924e+03,1.226150e+03
2.752888e+03,1.235215e+03
2.753852e+03,1.247831e+03
2.754817e+03,1.226703e+03
2.755781e+03,1.212322e+03
2.756745e+03,1.230755e+03
2.757709e+03,1.243268e+03
2.758674e+03,1.236686e+03
2.759638e+03,1.222222e+03
2.760602e+03,1.204320e+03
2.761566e+03,1.202346e+03
2.762531e+03,1.211566e+03
2.763495e+03,1.224134e+03
2.764459e+03,1.234024e+03
2.765423e+03,1.234395e+03
2.766387e+03,1.234957e+03
2.767352e+03,1.238625e+03
2.768316e+03,1.241690e+03
2.769280e+03,1.243059e+03
2.770244e+03,1.240736e+03
2.771208e+03,1.236692e+03
2.772173e+03,1.234824e+03
2.773137e+03,1.229914e+03
2.774101e+03,1.215953e+03
2.775065e+03,1.204653e+03
2.776030e+03,1.199446e+03
2.776994e+03,1.202018e+03
2.777958e+03,1.209287e+03
2.778922e+03,1.214500e+03
2.779887e+03,1.216043e+03
2.780851e+03,1.205389e+03
2.781815e+03,1.195553e+03
2.782779e+03,1.196292e+03
2.783744e+03,1.202145e+03
2.784708e+03,1.210832e+03
2.785672e+03,1.211681e+03
2.786636e+03,1.205444e+03
2.787601e+03,1.207939e+03
2.788565e+03,1.216046e+03
2.789529e+03,1.218341e+03
2.790493e+03,1.217476e+03
2.791458e+03,1.209645e+03
2.792422e+03,1.210821e+03
2.793386e+03,1.224615e+03
2.794350e+03,1.228867e+03
2.795314e+03,1.217392e+03
2.796279e+03,1.210193e+03
2.797243e+03,1.206002e+03
2.798207e+03,1.205306e+03
2.799171e+03,1.205372e+03
2.800135e+03,1.199327e+03
2.801100e+03,1.198605e+03
2.802064e+03,1.207465e+03
2.803028e+03,1.206316e+03
2.803992e+03,1.195967e+03
2.804957e+03,1.188307e+03
2.805921e+03,1.186109e+03
2.806885e+03,1.196894e+03
2.807849e+03,1.202260e+03
2.808814e+03,1.192872e+03
2.809778e+03,1.189939e+03
2.810742e+03,1.207334e+03
2.811706e+03,1.217867e+03
2.812671e+03,1.216410e+03
2.813635e+03,1.190416e+03
2.814599e+03,1.160226e+03
2.815563e+03,1.170747e+03
2.816528e+03,1.186483e+03
2.817492e+03,1.193947e+03
2.818456e+03,1.194298e+03
2.819420e+03,1.188555e+03
2.820385e+03,1.185226e+03
2.821349e+03,1.186114e+03
2.822313e+03,1.193215e+03
2.823277e+03,1.195869e+03
2.824241e+03,1.184763e+03
2.825206e+03,1.174603e+03
2.826170e+03,1.175014e+03
2.827134e+03,1.181168e+03
2.828098e+03,1.191035e+03
2.829063e+03,1.202287e+03
2.830027e+03,1.208446e+03
2.830991e+03,1.188031e+03
2.831955e+03,1.174428e+03
2.832919e+03,1.203903e+03
2.833884e+03,1.217700e+03
2.834848e+03,1.207928e+03
2.835812e+03,1.193130e+03
2.836776e+03,1.179709e+03
2.837741e+03,1.191200e+03
2.838705e+03,1.206577e+03
2.839669e+03,1.201236e+03
2.840633e+03,1.194864e+03
2.841598e+03,1.198905e+03
2.842562e+03,1.198344e+03
2.843526e+03,1.190503e+03
2.844490e+03,1.185413e+03
2.845455e+03,1.183576e+03
2.846419e+03,1.189871e+03
2.847383e+03,1.194938e+03
2.848347e+03,1.182045e+03
2.849312e+03,1.180023e+03
2.850276e+03,1.193061e+03
2.851240e+03,1.196050e+03
2.852204e+03,1.188329e+03
2.853168e+03,1.181958e+03
2.854133e+03,1.178014e+03
2.855097e+03,1.177405e+03
2.856061e+03,1.182817e+03
2.857025e+03,1.192667e+03
2.857990e+03,1.196960e+03
2.858954e+03,1.193130e+03
2.859918e+03,1.181605e+03
2.860882e+03,1.175213e+03
2.861846e+03,1.198770e+03
2.862811e+03,1.214029e+03
2.863775e+03,1.175561e+03
2.864739e+03,1.154602e+03
2.865703e+03,1.170686e+03
2.866668e+03,1.190294e+03
2.867632e+03,1.205561e+03
2.868596e+03,1.198657e+03
2.869560e+03,1.182771e+03
2.870525e+03,1.167056e+03
2.871489e+03,1.164811e+03
2.872453e+03,1.178080e+03
2.873417e+03,1.181203e+03
2.874382e+03,1.173179e+03
2.875346e+03,1.172842e+03
2.876310e+03,1.176698e+03
2.877274e+03,1.174394e+03
2.878239e+03,1.175547e+03
2.879203e+03,1.182504e+03
2.880167e+03,1.191047e+03
2.881131e+03,1.201785e+03
2.882095e+03,1.189869e+03
2.883060e+03,1.174135e+03
2.884024e+03,1.184491e+03
2.884988e+03,1.200562e+03
2.885952e+03,1.206428e+03
2.886917e+03,1.198069e+03
2.887881e+03,1.174411e+03
2.888845e+03,1.171057e+03
2.889809e+03,1.180453e+03
2.890773e+03,1.182432e+03
2.891738e+03,1.180593e+03
2.892702e+03,1.182089e+03
2.893666e+03,1.181277e+03
2.894630e+03,1.177413e+03
2.895595e+03,1.177332e+03
2.896559e+03,1.180047e+03
2.897523e+03,1.180880e+03
2.898487e+03,1.182441e+03
2.899452e+03,1.191030e+03
2.900416e+03,1.190943e+03
2.901380e+03,1.179639e+03
2.902344e+03,1.181667e+03
2.903309e+03,1.197568e+03
2.904273e+03,1.198549e+03
2.905237e+03,1.187146e+03
2.906201e+03,1.163837e+03
2.907166e+03,1.149434e+03
2.908130e+03,1.152439e+03
2.909094e+03,1.155718e+03
2.910058e+03,1.156109e+03
2.911022e+03,1.156516e+03
2.911987e+03,1.157270e+03
2.912951e+03,1.158377e+03
2.913915e+03,1.155417e+03
2.914879e+03,1.141872e+03
2.915844e+03,1.137087e+03
2.916808e+03,1.142132e+03
2.917772e+03,1.146096e+03
2.918736e+03,1.146024e+03
2.919700e+03,1.133460e+03
2.920665e+03,1.126266e+03
2.921629e+03,1.143781e+03
2.922593e+03,1.155640e+03
2.923557e+03,1.159594e+03
2.924522e+03,1.148360e+03
2.925486e+03,1.132789e+03
2.926450e+03,1.136487e+03
2.927414e+03,1.145467e+03
2.928379e+03,1.155798e+03
2.929343e+03,1.161565e+03
2.930307e+03,1.160837e+03
2.931271e+03,1.139402e+03
2.932236e+03,1.115392e+03
2.933200e+03,1.123551e+03
2.934164e+03,1.133885e+03
2.935128e+03,1.132829e+03
2.936093e+03,1.134358e+03
2.937057e+03,1.140392e+03
2.938021e+03,1.142141e+03
2.938985e+03,1.141703e+03
2.939949e+03,1.140610e+03
2.940914e+03,1.139158e+03
2.941878e+03,1.138167e+03
2.942842e+03,1.127351e+03
2.943806e+03,1.106351e+03
2.944771e+03,1.126244e+03
2.945735e+03,1.155128e+03
2.946699e+03,1.148401e+03
2.947663e+03,1.130141e+03
2.948627e+03,1.109080e+03
2.949592e+03,1.112080e+03
2.950556e+03,1.140390e+03
2.951520e+03,1.146221e+03
2.952484e+03,1.135999e+03
2.953449e+03,1.116041e+03
2.954413e+03,1.113424e+03
2.955377e+03,1.140117e+03
2.956341e+03,1.154516e+03
2.957306e+03,1.153577e+03
2.958270e+03,1.162543e+03
2.959234e+03,1.164636e+03
2.960198e+03,1.149720e+03
2.961163e+03,1.134087e+03
2.962127e+03,1.121747e+03
2.963091e+03,1.117262e+03
2.964055e+03,1.117517e+03
2.965020e+03,1.113427e+03
2.965984e+03,1.115274e+03
2.966948e+03,1.129855e+03
2.967912e+03,1.135625e+03
2.968876e+03,1.120395e+03
2.969841e+03,1.115830e+03
2.970805e+03,1.114288e+03
2.971769e+03,1.100378e+03
2.972733e+03,1.088390e+03
2.973698e+03,1.089860e+03
2.974662e+03,1.085297e+03
2.975626e+03,1.069770e+03
2.976590e+03,1.070903e+03
2.977554e+03,1.077882e+03
2.978519e+03,1.073785e+03
2.979483e+03,1.069979e+03
2.980447e+03,1.075162e+03
2.981411e+03,1.086210e+03
2.982376e+03,1.101435e+03
2.983340e+03,1.108511e+03
2.984304e+03,1.109338e+03
2.985268e+03,1.108106e+03
2.986233e+03,1.096801e+03
2.987197e+03,1.065324e+03
2.988161e+03,1.063212e+03
2.989125e+03,1.081118e+03
2.990090e+03,1.074403e+03
2.991054e+03,1.067477e+03
2.992018e+03,1.081509e+03
2.992982e+03,1.087839e+03
2.993947e+03,1.075432e+03
2.994911e+03,1.066650e+03
2.995875e+03,1.065178e+03
2.996839e+03,1.076440e+03
2.997803e+03,1.077958e+03
2.998768e+03,1.055141e+03
2.999732e+03,1.047836e+03
3.000696e+03,1.063446e+03
3.001660e+03,1.064349e+03
3.002625e+03,1.062449e+03
3.003589e+03,1.071421e+03
3.004553e+03,1.080968e+03
3.005517e+03,1.088080e+03
3.006481e+03,1.070574e+03
3.007446e+03,1.039485e+03
3.008410e+03,1.047274e+03
3.009374e+03,1.065026e+03
3.010338e+03,1.075119e+03
3.011303e+03,1.078544e+03
3.012267e+03,1.073794e+03
3.013231e+03,1.074899e+03
3.014195e+03,1.074579e+03
3.015160e+03,1.055265e+03
3.016124e+03,1.045780e+03
3.017088e+03,1.054172e+03
3.018052e+03,1.064342e+03
3.019017e+03,1.071063e+03
3.019981e+03,1.066794e+03
3.020945e+03,1.064381e+03
3.021909e+03,1.077344e+03
3.022874e+03,1.079600e+03
3.023838e+03,1.067371e+03
3.024802e+03,1.051776e+03
3.025766e+03,1.039247e+03
3.026730e+03,1.043118e+03
3.027695e+03,1.047997e+03
3.028659e+03,1.047047e+03
3.029623e+03,1.060307e+03
3.030587e+03,1.082612e+03
3.031552e+03,1.072855e+03
3.032516e+03,1.052521e+03
3.033480e+03,1.044332e+03
3.034444e+03,1.047352e+03
3.035408e+03,1.059661e+03
3.036373e+03,1.070535e+03
3.037337e+03,1.073615e+03
3.038301e+03,1.037628e+03
3.039265e+03,1.016794e+03
3.040230e+03,1.057498e+03
3.041194e+03,1.071905e+03
3.042158e+03,1.058365e+03
3.043122e+03,1.027776e+03
3.044087e+03,1.005824e+03
3.045051e+03,1.031408e+03
3.046015e+03,1.054786e+03
3.046979e+03,1.062906e+03
3.047944e+03,1.048657e+03
3.048908e+03,1.029702e+03
3.049872e+03,1.031897e+03
3.050836e+03,1.036433e+03
3.051801e+03,1.029303e+03
3.052765e+03,1.032170e+03
3.053729e+03,1.041689e+03
3.054693e+03,1.029187e+03
3.055657e+03,1.026269e+03
3.056622e+03,1.054113e+03
3.057586e+03,1.065056e+03
3.058550e+03,1.045866e+03
3.059514e+03,1.018549e+03
3.060479e+03,1.001859e+03
3.061443e+03,1.032569e+03
3.062407e+03,1.049357e+03
3.063371e+03,1.037630e+03
3.064335e+03,1.041363e+03
3.065300e+03,1.058269e+03
3.066264e+03,1.051383e+03
3.067228e+03,1.034947e+03
3.068192e+03,1.012049e+03
3.069157e+03,1.010668e+03
3.070121e+03,1.028973e+03
3.071085e+03,1.061882e+03
3.072049e+03,1.082420e+03
3.073014e+03,1.030145e+03
3.073978e+03,9.982013e+02
3.074942e+03,1.005981e+03
3.075906e+03,1.010318e+03
3.076871e+03,1.013110e+03
3.077835e+03,1.021997e+03
3.078799e+03,1.025746e+03
3.079763e+03,1.012746e+03
3.080728e+03,1.023450e+03
3.081692e+03,1.049882e+03
3.082656e+03,1.055570e+03
3.083620e+03,1.041290e+03
3.084584e+03,1.010230e+03
3.085549e+03,1.007068e+03
3.086513e+03,1.038865e+03
3.087477e+03,1.036320e+03
3.088441e+03,1.025758e+03
3.089406e+03,1.044050e+03
3.090370e+03,1.039435e+03
3.091334e+03,1.009377e+03
3.092298e+03,9.905653e+02
3.093262e+03,9.866638e+02
3.094227e+03,1.017425e+03
3.095191e+03,1.033169e+03
3.096155e+03,1.014762e+03
3.097119e+03,1.007377e+03
3.098084e+03,1.012031e+03
3.099048e+03,1.023252e+03
3.100012e+03,1.032953e+03
3.100976e+03,1.036839e+03
3.101941e+03,1.023832e+03
3.102905e+03,1.000765e+03
3.103869e+03,1.005852e+03
3.104833e+03,1.017302e+03
3.105798e+03,1.020500e+03
3.106762e+03,1.027967e+03
3.107726e+03,1.042898e+03
3.108690e+03,1.061965e+03
3.109655e+03,1.065877e+03
3.110619e+03,1.014975e+03
3.111583e+03,9.906445e+02
3.112547e+03,1.000659e+03
3.113511e+03,1.000357e+03
3.114476e+03,9.946686e+02
3.115440e+03,1.007206e+03
3.116404e+03,1.012628e+03
3.117368e+03,1.000547e+03
3.118333e+03,1.016056e+03
3.119297e+03,1.037309e+03
3.120261e+03,1.024605e+03
3.121225e+03,1.015352e+03
3.122189e+03,1.030224e+03
3.123154e+03,1.038370e+03
3.124118e+03,1.038855e+03
3.125082e+03,1.055801e+03
3.126046e+03,1.053836e+03
3.127011e+03,1.016385e+03
3.127975e+03,1.001365e+03
3.128939e+03,1.010144e+03
3.129903e+03,1.028499e+03
3.130868e+03,1.045109e+03
3.131832e+03,1.052627e+03
3.132796e+03,1.043340e+03
3.133760e+03,1.020586e+03
3.134725e+03,9.951360e+02
3.135689e+03,9.895223e+02
3.136653e+03,1.025830e+03
3.137617e+03,1.046409e+03
3.138582e+03,1.034655e+03
3.139546e+03,1.019716e+03
3.140510e+03,1.006434e+03
3.141474e+03,1.003021e+03
3.142438e+03,9.960265e+02
3.143403e+03,9.853439e+02
3.144367e+03,9.992993e+02
3.145331e+03,1.017121e+03
3.146295e+03,9.935724e+02
3.147260e+03,9.820477e+02
3.148224e+03,9.945219e+02
3.149188e+03,1.005143e+03
3.150152e+03,1.011913e+03
3.151116e+03,1.013600e+03
3.152081e+03,1.015002e+03
3.153045e+03,1.015879e+03
3.154009e+03,1.036210e+03
3.154973e+03,1.055876e+03
3.155938e+03,1.020732e+03
3.156902e+03,9.951006e+02
3.157866e+03,9.941200e+02
3.158830e+03,9.758730e+02
3.159795e+03,9.600947e+02
3.160759e+03,1.020548e+03
3.161723e+03,1.065110e+03
3.162687e+03,1.031843e+03
3.163652e+03,1.008430e+03
3.164616e+03,9.991229e+02
3.165580e+03,1.006271e+03
3.166544e+03,1.013902e+03
3.167509e+03,1.015870e+03
3.168473e+03,1.010860e+03
3.169437e+03,1.004294e+03
3.170401e+03,1.017545e+03
3.171365e+03,1.020254e+03
3.172330e+03,9.991902e+02
3.173294e+03,1.004137e+03
3.174258e+03,1.024921e+03
3.175222e+03,1.035887e+03
3.176187e+03,1.031753e+03
3.177151e+03,1.009498e+03
3.178115e+03,9.842720e+02
3.179079e+03,9.718195e+02
3.180043e+03,1.025534e+03
3.181008e+03,1.051549e+03
3.181972e+03,1.020971e+03
3.182936e+03,1.012211e+03
3.183900e+03,1.018078e+03
3.184865e+03,9.789492e+02
3.185829e+03,9.519996e+02
3.186793e+03,9.919813e+02
3.187757e+03,1.004219e+03
3.188722e+03,9.969511e+02
3.189686e+03,9.909705e+02
3.190650e+03,9.962650e+02
3.191614e+03,1.013474e+03
3.192579e+03,1.028522e+03
3.193543e+03,1.037449e+03
3.194507e+03,1.031560e+03
3.195471e+03,1.021989e+03
3.196436e+03,1.011173e+03
3.197400e+03,1.005661e+03
3.198364e+03,1.007172e+03
3.199328e+03,1.019457e+03
3.200292e+03,1.032193e+03
3.201257e+03,0.000000e+00
3.202221e+03,0.000000e+00
3.203185e+03,0.000000e+00
3.204149e+03,0.000000e+00
3.205114e+03,0.000000e+00
3.206078e+03,0.000000e+00
3.207042e+03,0.000000e+00
3.208006e+03,0.000000e+00
3.208970e+03,0.000000e+00
3.209935e+03,0.000000e+00
3.210899e+03,0.000000e+00
3.211863e+03,0.000000e+00
3.212827e+03,0.000000e+00
3.213792e+03,0.000000e+00
3.214756e+03,0.000000e+00
3.215720e+03,0.000000e+00
3.216684e+03,0.000000e+00
3.217649e+03,0.000000e+00
3.218613e+03,0.000000e+00
3.219577e+03,0.000000e+00
3.220541e+03,0.000000e+00
3.221506e+03,0.000000e+00
3.222470e+03,0.000000e+00
3.223434e+03,0.000000e+00
3.224398e+03,0.000000e+00
3.225363e+03,0.000000e+00
3.226327e+03,0.000000e+00
3.227291e+03,0.000000e+00
3.228255e+03,0.000000e+00
3.229219e+03,0.000000e+00
3.230184e+03,0.000000e+00
3.231148e+03,0.000000e+00
3.232112e+03,0.000000e+00
3.233076e+03,0.000000e+00
3.234041e+03,0.000000e+00
3.235005e+03,0.000000e+00
3.235969e+03,0.000000e+00
3.236933e+03,0.000000e+00
3.237897e+03,0.000000e+00
3.238862e+03,0.000000e+00
3.239826e+03,0.000000e+00
3.240790e+03,0.000000e+00
3.241754e+03,0.000000e+00
3.242719e+03,0.000000e+00
3.243683e+03,0.000000e+00
3.244647e+03,0.000000e+00
3.245611e+03,0.000000e+00
3.246576e+03,0.000000e+00
3.247540e+03,0.000000e+00
3.248504e+03,0.000000e+00
3.249468e+03,0.000000e+00
3.250433e+03,0.000000e+00
3.251397e+03,0.000000e+00
3.252361e+03,0.000000e+00
3.253325e+03,0.000000e+00
3.254290e+03,0.000000e+00
3.255254e+03,0.000000e+00
3.256218e+03,0.000000e+00
3.257182e+03,0.000000e+00
3.258146e+03,0.000000e+00
3.259111e+03,0.000000e+00
3.260075e+03,0.000000e+00
3.261039e+03,0.000000e+00
3.262003e+03,0.000000e+00
3.262968e+03,0.000000e+00
3.263932e+03,0.000000e+00
3.264896e+03,0.000000e+00
3.265860e+03,0.000000e+00
3.266824e+03,0.000000e+00
3.267789e+03,0.000000e+00
3.268753e+03,0.000000e+00
3.269717e+03,0.000000e+00
3.270681e+03,0.000000e+00
3.271646e+03,0.000000e+00
3.272610e+03,0.000000e+00
3.273574e+03,0.000000e+00
3.274538e+03,0.000000e+00
3.275503e+03,0.000000e+00
3.276467e+03,0.000000e+00
3.277431e+03,0.000000e+00
3.278395e+03,0.000000e+00
3.279360e+03,0.000000e+00
3.280324e+03,0.000000e+00
3.281288e+03,0.000000e+00
3.282252e+03,0.000000e+00
3.283217e+03,0.000000e+00
3.284181e+03,0.000000e+00
3.285145e+03,0.000000e+00
3.286109e+03,0.000000e+00
3.287073e+03,0.000000e+00
3.288038e+03,0.000000e+00
3.289002e+03,0.000000e+00
3.289966e+03,0.000000e+00
3.290930e+03,0.000000e+00
3.291895e+03,0.000000e+00
3.292859e+03,0.000000e+00
3.293823e+03,0.000000e+00
3.294787e+03,0.000000e+00
3.295751e+03,0.000000e+00
3.296716e+03,0.000000e+00
3.297680e+03,0.000000e+00
3.298644e+03,0.000000e+00
3.299608e+03,0.000000e+00
3.300573e+03,0.000000e+00
3.301537e+03,0.000000e+00
3.302501e+03,0.000000e+00
3.303465e+03,0.000000e+00
3.304430e+03,0.000000e+00
3.305394e+03,0.000000e+00
3.306358e+03,0.000000e+00
3.307322e+03,0.000000e+00
3.308287e+03,0.000000e+00
3.309251e+03,0.000000e+00
3.310215e+03,0.000000e+00
3.311179e+03,0.000000e+00
3.312144e+03,0.000000e+00
3.313108e+03,0.000000e+00
3.314072e+03,0.000000e+00
3.315036e+03,0.000000e+00
3.316000e+03,0.000000e+00
3.316965e+03,0.000000e+00
3.317929e+03,0.000000e+00
3.318893e+03,0.000000e+00
3.319857e+03,0.000000e+00
3.320822e+03,0.000000e+00
3.321786e+03,0.000000e+00
3.322750e+03,0.000000e+00
3.323714e+03,0.000000e+00
3.324678e+03,0.000000e+00
3.325643e+03,0.000000e+00
3.326607e+03,0.000000e+00
3.327571e+03,0.000000e+00
3.328535e+03,0.000000e+00
3.329500e+03,0.000000e+00
3.330464e+03,0.000000e+00
3.331428e+03,0.000000e+00
3.332392e+03,0.000000e+00
3.333357e+03,0.000000e+00
3.334321e+03,0.000000e+00
3.335285e+03,0.000000e+00
3.336249e+03,0.000000e+00
3.337214e+03,0.000000e+00
3.338178e+03,0.000000e+00
3.339142e+03,0.000000e+00
3.340106e+03,0.000000e+00
3.341071e+03,0.000000e+00
3.342035e+03,0.000000e+00
3.342999e+03,0.000000e+00
3.343963e+03,0.000000e+00
3.344927e+03,0.000000e+00
3.345892e+03,0.000000e+00
3.346856e+03,0.000000e+00
3.347820e+03,0.000000e+00
3.348784e+03,0.000000e+00
3.349749e+03,0.000000e+00
3.350713e+03,0.000000e+00
3.351677e+03,0.000000e+00
3.352641e+03,0.000000e+00
3.353605e+03,0.000000e+00
3.354570e+03,0.000000e+00
3.355534e+03,0.000000e+00
3.356498e+03,0.000000e+00
3.357462e+03,0.000000e+00
3.358427e+03,0.000000e+00
3.359391e+03,0.000000e+00
3.360355e+03,0.000000e+00
3.361319e+03,0.000000e+00
3.362284e+03,0.000000e+00
3.363248e+03,0.000000e+00
3.364212e+03,0.000000e+00
3.365176e+03,0.000000e+00
3.366141e+03,0.000000e+00
3.367105e+03,0.000000e+00
3.368069e+03,0.000000e+00
3.369033e+03,0.000000e+00
3.369998e+03,0.000000e+00
3.370962e+03,0.000000e+00
3.371926e+03,0.000000e+00
3.372890e+03,0.000000e+00
3.373854e+03,0.000000e+00
3.374819e+03,0.000000e+00
3.375783e+03,0.000000e+00
3.376747e+03,0.000000e+00
3.377711e+03,0.000000e+00
3.378676e+03,0.000000e+00
3.379640e+03,0.000000e+00
3.380604e+03,0.000000e+00
3.381568e+03,0.000000e+00
3.382532e+03,0.000000e+00
3.383497e+03,0.000000e+00
3.384461e+03,0.000000e+00
3.385425e+03,0.000000e+00
3.386389e+03,0.000000e+00
3.387354e+03,0.000000e+00
3.388318e+03,0.000000e+00
3.389282e+03,0.000000e+00
3.390246e+03,0.000000e+00
3.391211e+03,0.000000e+00
3.392175e+03,0.000000e+00
3.393139e+03,0.000000e+00
3.394103e+03,0.000000e+00
3.395068e+03,0.000000e+00
3.396032e+03,0.000000e+00
3.396996e+03,0.000000e+00
3.397960e+03,0.000000e+00
3.398925e+03,0.000000e+00
3.399889e+03,0.000000e+00
3.400853e+03,0.000000e+00
3.401817e+03,0.000000e+00
3.402781e+03,0.000000e+00
3.403746e+03,0.000000e+00
3.404710e+03,0.000000e+00
3.405674e+03,0.000000e+00
3.406638e+03,0.000000e+00
3.407603e+03,0.000000e+00
3.408567e+03,0.000000e+00
3.409531e+03,0.000000e+00
3.410495e+03,0.000000e+00
3.411459e+03,0.000000e+00
3.412424e+03,0.000000e+00
3.413388e+03,0.000000e+00
3.414352e+03,0.000000e+00
3.415316e+03,0.000000e+00
3.416281e+03,0.000000e+00
3.417245e+03,0.000000e+00
3.418209e+03,0.000000e+00
3.419173e+03,0.000000e+00
3.420138e+03,0.000000e+00
3.421102e+03,0.000000e+00
3.422066e+03,0.000000e+00
3.423030e+03,0.000000e+00
3.423995e+03,0.000000e+00
3.424959e+03,0.000000e+00
3.425923e+03,0.000000e+00
3.426887e+03,0.000000e+00
3.427852e+03,0.000000e+00
3.428816e+03,0.000000e+00
3.429780e+03,0.000000e+00
3.430744e+03,0.000000e+00
3.431708e+03,0.000000e+00
3.432673e+03,0.000000e+00
3.433637e+03,0.000000e+00
3.434601e+03,0.000000e+00
3.435565e+03,0.000000e+00
3.436530e+03,0.000000e+00
3.437494e+03,0.000000e+00
3.438458e+03,0.000000e+00
3.439422e+03,0.000000e+00
3.440386e+03,0.000000e+00
3.441351e+03,0.000000e+00
3.442315e+03,0.000000e+00
3.443279e+03,0.000000e+00
3.444243e+03,0.000000e+00
3.445208e+03,0.000000e+00
3.446172e+03,0.000000e+00
3.447136e+03,0.000000e+00
3.448100e+03,0.000000e+00
3.449065e+03,0.000000e+00
3.450029e+03,0.000000e+00
3.450993e+03,0.000000e+00
3.451957e+03,0.000000e+00
3.452922e+03,0.000000e+00
3.453886e+03,0.000000e+00
3.454850e+03,0.000000e+00
3.455814e+03,0.000000e+00
3.456779e+03,0.000000e+00
3.457743e+03,0.000000e+00
3.458707e+03,0.000000e+00
3.459671e+03,0.000000e+00
3.460635e+03,0.000000e+00
3.461600e+03,0.000000e+00
3.462564e+03,0.000000e+00
3.463528e+03,0.000000e+00
3.464492e+03,0.000000e+00
3.465457e+03,0.000000e+00
3.466421e+03,0.000000e+00
3.467385e+03,0.000000e+00
3.468349e+03,0.000000e+00
3.469313e+03,0.000000e+00
3.470278e+03,0.000000e+00
3.471242e+03,0.000000e+00
3.472206e+03,0.000000e+00
3.473170e+03,0.000000e+00
3.474135e+03,0.000000e+00
3.475099e+03,0.000000e+00
3.476063e+03,0.000000e+00
3.477027e+03,0.000000e+00
3.477992e+03,0.000000e+00
3.478956e+03,0.000000e+00
3.479920e+03,0.000000e+00
3.480884e+03,0.000000e+00
3.481849e+03,0.000000e+00
3.482813e+03,0.000000e+00
3.483777e+03,0.000000e+00
3.484741e+03,0.000000e+00
3.485706e+03,0.000000e+00
3.486670e+03,0.000000e+00
3.487634e+03,0.000000e+00
3.488598e+03,0.000000e+00
3.489563e+03,0.000000e+00
3.490527e+03,0.000000e+00
3.491491e+03,0.000000e+00
3.492455e+03,0.000000e+00
3.493419e+03,0.000000e+00
3.494384e+03,0.000000e+00
3.495348e+03,0.000000e+00
3.496312e+03,0.000000e+00
3.497276e+03,0.000000e+00
3.498240e+03,0.000000e+00
3.499205e+03,0.000000e+00
3.500169e+03,0.000000e+00
