9.931763e+01,0.000000e+00
1.002819e+02,0.000000e+00
1.012461e+02,0.000000e+00
1.022103e+02,0.000000e+00
1.031746e+02,0.000000e+00
1.041388e+02,0.000000e+00
1.051030e+02,0.000000e+00
1.060673e+02,0.000000e+00
1.070315e+02,0.000000e+00
1.079957e+02,0.000000e+00
1.089600e+02,0.000000e+00
1.099242e+02,0.000000e+00
1.108884e+02,0.000000e+00
1.118527e+02,0.000000e+00
1.128169e+02,0.000000e+00
1.137811e+02,0.000000e+00
1.147454e+02,0.000000e+00
1.157096e+02,0.000000e+00
1.166738e+02,0.000000e+00
1.176381e+02,0.000000e+00
1.186023e+02,0.000000e+00
1.195665e+02,0.000000e+00
1.205308e+02,0.000000e+00
1.214950e+02,0.000000e+00
1.224592e+02,0.000000e+00
1.234235e+02,0.000000e+00
1.243877e+02,0.000000e+00
1.253519e+02,0.000000e+00
1.263162e+02,0.000000e+00
1.272804e+02,0.000000e+00
1.282446e+02,0.000000e+00
1.292089e+02,0.000000e+00
1.301731e+02,0.000000e+00
1.311373e+02,0.000000e+00
1.321016e+02,0.000000e+00
1.330658e+02,0.000000e+00
1.340300e+02,0.000000e+00
1.349943e+02,0.000000e+00
1.359585e+02,0.000000e+00
1.369227e+02,0.000000e+00
1.378870e+02,0.000000e+00
1.388512e+02,0.000000e+00
1.398154e+02,0.000000e+00
1.407797e+02,0.000000e+00
1.417439e+02,0.000000e+00
1.427081e+02,0.000000e+00
1.436724e+02,0.000000e+00
1.446366e+02,0.000000e+00
1.456008e+02,0.000000e+00
1.465651e+02,0.000000e+00
1.475293e+02,0.000000e+00
1.484935e+02,0.000000e+00
1.494578e+02,0.000000e+00
1.504220e+02,0.000000e+00
1.513862e+02,0.000000e+00
1.523505e+02,0.000000e+00
1.533147e+02,0.000000e+00
1.542789e+02,0.000000e+00
1.552432e+02,0.000000e+00
1.562074e+02,0.000000e+00
1.571716e+02,0.000000e+00
1.581359e+02,0.000000e+00
1.591001e+02,0.000000e+00
1.600643e+02,0.000000e+00
1.610286e+02,0.000000e+00
1.619928e+02,0.000000e+00
1.629570e+02,0.000000e+00
1.639213e+02,0.000000e+00
1.648855e+02,0.000000e+00
1.658497e+02,0.000000e+00
1.668140e+02,0.000000e+00
1.677782e+02,0.000000e+00
1.687424e+02,0.000000e+00
1.697067e+02,0.000000e+00
1.706709e+02,0.000000e+00
1.716351e+02,0.000000e+00
1.725994e+02,0.000000e+00
1.735636e+02,0.000000e+00
1.745278e+02,0.000000e+00
1.754921e+02,0.000000e+00
1.764563e+02,0.000000e+00
1.774205e+02,0.000000e+00
1.783848e+02,0.000000e+00
1.793490e+02,0.000000e+00
1.803132e+02,0.000000e+00
1.812775e+02,0.000000e+00
1.822417e+02,0.000000e+00
1.832059e+02,0.000000e+00
1.841702e+02,0.000000e+00
1.851344e+02,0.000000e+00
1.860986e+02,0.000000e+00
1.870629e+02,0.000000e+00
1.880271e+02,0.000000e+00
1.889913e+02,0.000000e+00
1.899556e+02,0.000000e+00
1.909198e+02,0.000000e+00
1.918840e+02,0.000000e+00
1.928483e+02,0.000000e+00
1.938125e+02,0.000000e+00
1.947767e+02,0.000000e+00
1.957410e+02,0.000000e+00
1.967052e+02,0.000000e+00
1.976694e+02,0.000000e+00
1.986337e+02,0.000000e+00
1.995979e+02,1.022719e+03
2.005621e+02,1.026916e+03
2.015264e+02,1.028351e+03
2.024906e+02,1.022583e+03
2.034548e+02,1.017672e+03
2.044191e+02,1.015810e+03
2.053833e+02,1.016465e+03
2.063475e+02,1.017547e+03
2.073118e+02,1.016636e+03
2.082760e+02,1.012530e+03
2.092402e+02,1.010225e+03
2.102045e+02,1.012138e+03
2.111687e+02,1.015483e+03
2.121329e+02,1.018150e+03
2.130972e+02,1.018995e+03
2.140614e+02,1.018416e+03
2.150256e+02,1.017709e+03
2.159899e+02,1.016342e+03
2.169541e+02,1.015991e+03
2.179183e+02,1.018138e+03
2.188826e+02,1.022039e+03
2.198468e+02,1.025389e+03
2.208110e+02,1.026203e+03
2.217753e+02,1.024418e+03
2.227395e+02,1.022334e+03
2.237037e+02,1.020874e+03
2.246680e+02,1.019623e+03
2.256322e+02,1.017854e+03
2.265964e+02,1.015235e+03
2.275607e+02,1.013068e+03
2.285249e+02,1.013117e+03
2.294892e+02,1.015822e+03
2.304534e+02,1.018682e+03
2.314176e+02,1.019088e+03
2.323819e+02,1.017435e+03
2.333461e+02,1.016124e+03
2.343103e+02,1.016497e+03
2.352746e+02,1.017864e+03
2.362388e+02,1.018665e+03
2.372030e+02,1.018204e+03
2.381673e+02,1.016693e+03
2.391315e+02,1.015215e+03
2.400957e+02,1.014043e+03
2.410600e+02,1.013446e+03
2.420242e+02,1.014124e+03
2.429884e+02,1.016010e+03
2.439527e+02,1.018166e+03
2.449169e+02,1.019716e+03
2.458811e+02,1.020387e+03
2.468454e+02,1.020652e+03
2.478096e+02,1.020690e+03
2.487738e+02,1.020280e+03
2.497381e+02,1.018694e+03
2.507023e+02,1.015908e+03
2.516665e+02,1.013254e+03
2.526308e+02,1.012801e+03
2.535950e+02,1.016510e+03
2.545592e+02,1.019325e+03
2.555235e+02,1.021270e+03
2.564877e+02,1.022517e+03
2.574519e+02,1.023461e+03
2.584161e+02,1.024600e+03
2.593804e+02,1.025920e+03
2.603446e+02,1.025627e+03
2.613088e+02,1.019395e+03
2.622731e+02,1.014672e+03
2.632373e+02,1.014386e+03
2.642015e+02,1.017914e+03
2.651658e+02,1.022211e+03
2.661300e+02,1.024672e+03
2.670942e+02,1.025340e+03
2.680585e+02,1.025867e+03
2.690227e+02,1.026965e+03
2.699869e+02,1.027702e+03
2.709512e+02,1.027172e+03
2.719154e+02,1.025049e+03
2.728796e+02,1.022363e+03
2.738439e+02,1.020272e+03
2.748081e+02,1.018922e+03
2.757723e+02,1.018827e+03
2.767366e+02,1.019961e+03
2.777008e+02,1.021633e+03
2.786650e+02,1.023199e+03
2.796293e+02,1.025272e+03
2.805935e+02,1.027433e+03
2.815577e+02,1.028613e+03
2.825220e+02,1.028385e+03
2.834862e+02,1.027092e+03
2.844504e+02,1.025422e+03
2.854147e+02,1.023321e+03
2.863789e+02,1.021454e+03
2.873431e+02,1.019907e+03
2.883074e+02,1.019054e+03
2.892716e+02,1.019587e+03
2.902358e+02,1.022075e+03
2.912001e+02,1.026407e+03
2.921643e+02,1.027800e+03
2.931285e+02,1.023758e+03
2.940928e+02,1.019834e+03
2.950570e+02,1.018258e+03
2.960212e+02,1.018945e+03
2.969855e+02,1.020625e+03
2.979497e+02,1.022244e+03
2.989139e+02,1.024246e+03
2.998782e+02,1.025651e+03
3.008424e+02,1.027057e+03
3.018066e+02,1.028220e+03
3.027709e+02,1.028651e+03
3.037351e+02,1.028056e+03
3.046993e+02,1.026307e+03
3.056636e+02,1.022799e+03
3.066278e+02,1.016311e+03
3.075920e+02,1.011493e+03
3.085563e+02,1.011617e+03
3.095205e+02,1.015166e+03
3.104847e+02,1.018294e+03
3.114490e+02,1.018388e+03
3.124132e+02,1.016677e+03
3.133774e+02,1.016131e+03
3.143417e+02,1.017453e+03
3.153059e+02,1.018943e+03
3.162701e+02,1.018549e+03
3.172344e+02,1.015684e+03
3.181986e+02,1.013690e+03
3.191628e+02,1.013938e+03
3.201271e+02,1.015819e+03
3.210913e+02,1.018241e+03
3.220555e+02,1.020777e+03
3.230198e+02,1.023250e+03
3.239840e+02,1.024934e+03
3.249482e+02,1.024556e+03
3.259125e+02,1.024562e+03
3.268767e+02,1.026834e+03
3.278409e+02,1.030467e+03
3.288052e+02,1.032840e+03
3.297694e+02,1.030850e+03
3.307336e+02,1.023146e+03
3.316979e+02,1.018337e+03
3.326621e+02,1.018832e+03
3.336263e+02,1.020481e+03
3.345906e+02,1.021687e+03
3.355548e+02,1.022414e+03
3.365190e+02,1.023008e+03
3.374833e+02,1.023507e+03
3.384475e+02,1.023782e+03
3.394117e+02,1.024380e+03
3.403760e+02,1.026081e+03
3.413402e+02,1.027746e+03
3.423044e+02,1.027470e+03
3.432687e+02,1.021446e+03
3.442329e+02,1.015364e+03
3.451971e+02,1.015485e+03
3.461614e+02,1.021690e+03
3.471256e+02,1.027687e+03
3.480898e+02,1.028404e+03
3.490541e+02,1.021825e+03
3.500183e+02,1.017380e+03
3.509825e+02,1.016892e+03
3.519468e+02,1.017971e+03
3.529110e+02,1.018485e+03
3.538752e+02,1.017685e+03
3.548395e+02,1.016198e+03
3.558037e+02,1.015429e+03
3.567680e+02,1.015816e+03
3.577322e+02,1.016338e+03
3.586964e+02,1.017194e+03
3.596607e+02,1.018437e+03
3.606249e+02,1.019948e+03
3.615891e+02,1.021713e+03
3.625534e+02,1.022807e+03
3.635176e+02,1.021287e+03
3.644818e+02,1.016166e+03
3.654461e+02,1.011677e+03
3.664103e+02,1.011180e+03
3.673745e+02,1.014469e+03
3.683388e+02,1.018613e+03
3.693030e+02,1.022585e+03
3.702672e+02,1.026168e+03
3.712315e+02,1.029637e+03
3.721957e+02,1.033140e+03
3.731599e+02,1.035512e+03
3.741242e+02,1.035220e+03
3.750884e+02,1.029359e+03
3.760526e+02,1.025696e+03
3.770169e+02,1.025490e+03
3.779811e+02,1.027294e+03
3.789453e+02,1.029778e+03
3.799096e+02,1.032533e+03
3.808738e+02,1.034802e+03
3.818380e+02,1.033768e+03
3.828023e+02,1.026986e+03
3.837665e+02,1.020995e+03
3.847307e+02,1.017879e+03
3.856950e+02,1.016825e+03
3.866592e+02,1.015855e+03
3.876234e+02,1.013426e+03
3.885877e+02,1.010120e+03
3.895519e+02,1.007704e+03
3.905161e+02,1.006276e+03
3.914804e+02,1.005452e+03
3.924446e+02,1.005150e+03
3.934088e+02,1.005729e+03
3.943731e+02,1.006276e+03
3.953373e+02,1.006571e+03
3.963015e+02,1.006606e+03
3.972658e+02,1.006348e+03
3.982300e+02,1.005882e+03
3.991942e+02,1.005599e+03
4.001585e+02,1.005768e+03
4.011227e+02,1.006614e+03
4.020869e+02,1.006892e+03
4.030512e+02,1.004875e+03
4.040154e+02,1.002002e+03
4.049796e+02,1.000845e+03
4.059439e+02,1.003771e+03
4.069081e+02,1.009405e+03
4.078723e+02,1.012724e+03
4.088366e+02,1.012947e+03
4.098008e+02,1.011374e+03
4.107650e+02,1.008938e+03
4.117293e+02,1.005828e+03
4.126935e+02,1.002975e+03
4.136577e+02,9.994269e+02
4.146220e+02,9.966238e+02
4.155862e+02,9.978284e+02
4.165504e+02,1.004203e+03
4.175147e+02,1.011880e+03
4.184789e+02,1.014632e+03
4.194431e+02,1.004813e+03
4.204074e+02,9.990921e+02
4.213716e+02,1.000955e+03
4.223358e+02,1.005779e+03
4.233001e+02,1.008673e+03
4.242643e+02,1.007369e+03
4.252285e+02,1.003559e+03
4.261928e+02,1.000731e+03
4.271570e+02,9.987302e+02
4.281212e+02,9.983901e+02
4.290855e+02,1.001211e+03
4.300497e+02,1.005788e+03
4.310139e+02,1.009189e+03
4.319782e+02,1.010515e+03
4.329424e+02,1.010484e+03
4.339066e+02,1.009141e+03
4.348709e+02,1.006352e+03
4.358351e+02,1.003699e+03
4.367993e+02,1.002825e+03
4.377636e+02,1.004674e+03
4.387278e+02,1.006164e+03
4.396920e+02,1.008731e+03
4.406563e+02,1.010333e+03
4.416205e+02,1.008525e+03
4.425847e+02,1.002760e+03
4.435490e+02,9.962682e+02
4.445132e+02,9.938479e+02
4.454774e+02,9.964775e+02
4.464417e+02,9.992927e+02
4.474059e+02,1.001368e+03
4.483701e+02,1.002589e+03
4.493344e+02,1.002962e+03
4.502986e+02,1.001417e+03
4.512628e+02,1.000420e+03
4.522271e+02,1.002883e+03
4.531913e+02,1.007898e+03
4.541555e+02,1.011249e+03
4.551198e+02,1.010072e+03
4.560840e+02,1.004399e+03
4.570482e+02,9.997080e+02
4.580125e+02,9.973688e+02
4.589767e+02,9.955345e+02
4.599409e+02,9.930928e+02
4.609052e+02,9.899197e+02
4.618694e+02,9.867527e+02
4.628336e+02,9.839409e+02
4.637979e+02,9.816663e+02
4.647621e+02,9.812673e+02
4.657263e+02,9.842884e+02
4.666906e+02,9.881021e+02
4.676548e+02,9.895847e+02
4.686190e+02,9.881409e+02
4.695833e+02,9.861541e+02
4.705475e+02,9.834598e+02
4.715117e+02,9.807444e+02
4.724760e+02,9.792264e+02
4.734402e+02,9.794235e+02
4.744044e+02,9.807745e+02
4.753687e+02,9.818259e+02
4.763329e+02,9.818416e+02
4.772971e+02,9.827947e+02
4.782614e+02,9.865389e+02
4.792256e+02,9.909346e+02
4.801898e+02,9.931191e+02
4.811541e+02,9.906305e+02
4.821183e+02,9.861328e+02
4.830826e+02,9.830655e+02
4.840468e+02,9.813661e+02
4.850110e+02,9.809092e+02
4.859753e+02,9.823328e+02
4.869395e+02,9.857516e+02
4.879037e+02,9.870443e+02
4.888680e+02,9.831523e+02
4.898322e+02,9.799455e+02
4.907964e+02,9.821789e+02
4.917607e+02,9.890724e+02
4.927249e+02,9.953448e+02
4.936891e+02,9.951178e+02
4.946534e+02,9.878714e+02
4.956176e+02,9.822931e+02
4.965818e+02,9.791671e+02
4.975461e+02,9.775834e+02
4.985103e+02,9.765915e+02
4.994745e+02,9.760780e+02
5.004388e+02,9.756442e+02
5.014030e+02,9.750187e+02
5.023672e+02,9.747101e+02
5.033315e+02,9.758319e+02
5.042957e+02,9.788485e+02
5.052599e+02,9.822745e+02
5.062242e+02,9.830004e+02
5.071884e+02,9.788730e+02
5.081526e+02,9.756622e+02
5.091169e+02,9.741873e+02
5.100811e+02,9.741230e+02
5.110453e+02,9.750173e+02
5.120095e+02,9.773978e+02
5.129738e+02,9.801334e+02
5.139380e+02,9.817470e+02
5.149022e+02,9.822820e+02
5.158665e+02,9.823688e+02
5.168307e+02,9.819275e+02
5.177949e+02,9.804888e+02
5.187592e+02,9.787271e+02
5.197234e+02,9.777990e+02
5.206876e+02,9.769916e+02
5.216519e+02,9.755590e+02
5.226161e+02,9.739384e+02
5.235803e+02,9.732193e+02
5.245446e+02,9.755189e+02
5.255088e+02,9.800341e+02
5.264730e+02,9.807377e+02
5.274373e+02,9.761773e+02
5.284015e+02,9.700927e+02
5.293657e+02,9.649295e+02
5.303300e+02,9.604620e+02
5.312942e+02,9.579611e+02
5.322584e+02,9.597869e+02
5.332227e+02,9.632615e+02
5.341869e+02,9.656705e+02
5.351511e+02,9.662867e+02
5.361154e+02,9.658648e+02
5.370796e+02,9.654300e+02
5.380438e+02,9.650256e+02
5.390081e+02,9.650394e+02
5.399723e+02,9.661204e+02
5.409365e+02,9.674734e+02
5.419008e+02,9.679240e+02
5.428650e+02,9.662368e+02
5.438292e+02,9.651163e+02
5.447935e+02,9.676888e+02
5.457577e+02,9.718891e+02
5.467219e+02,9.728481e+02
5.476862e+02,9.681605e+02
5.486504e+02,9.602039e+02
5.496146e+02,9.564117e+02
5.505789e+02,9.602179e+02
5.515431e+02,9.628328e+02
5.525073e+02,9.623304e+02
5.534716e+02,9.602359e+02
5.544358e+02,9.582345e+02
5.554000e+02,9.555637e+02
5.563643e+02,9.535662e+02
5.573285e+02,9.538605e+02
5.582927e+02,9.561606e+02
5.592570e+02,9.594371e+02
5.602212e+02,9.637842e+02
5.611854e+02,9.690730e+02
5.621497e+02,9.706653e+02
5.631139e+02,9.634235e+02
5.640781e+02,9.566636e+02
5.650424e+02,9.537798e+02
5.660066e+02,9.542015e+02
5.669708e+02,9.550458e+02
5.679351e+02,9.550730e+02
5.688993e+02,9.545915e+02
5.698635e+02,9.540292e+02
5.708278e+02,9.535059e+02
5.717920e+02,9.530704e+02
5.727562e+02,9.524905e+02
5.737205e+02,9.513723e+02
5.746847e+02,9.506389e+02
5.756489e+02,9.501289e+02
5.766132e+02,9.498298e+02
5.775774e+02,9.499699e+02
5.785416e+02,9.505780e+02
5.795059e+02,9.511835e+02
5.804701e+02,9.511714e+02
5.814343e+02,9.508305e+02
5.823986e+02,9.516075e+02
5.833628e+02,9.543104e+02
5.843270e+02,9.567239e+02
5.852913e+02,9.555367e+02
5.862555e+02,9.448165e+02
5.872197e+02,9.396045e+02
5.881840e+02,9.439152e+02
5.891482e+02,9.509932e+02
5.901124e+02,9.553322e+02
5.910767e+02,9.551506e+02
5.920409e+02,9.536014e+02
5.930051e+02,9.540275e+02
5.939694e+02,9.558710e+02
5.949336e+02,9.560889e+02
5.958978e+02,9.532643e+02
5.968621e+02,9.490526e+02
5.978263e+02,9.473535e+02
5.987905e+02,9.524437e+02
5.997548e+02,9.553083e+02
6.007190e+02,9.539764e+02
6.016832e+02,9.507094e+02
6.026475e+02,9.480303e+02
6.036117e+02,9.470653e+02
6.045759e+02,9.461801e+02
6.055402e+02,9.421771e+02
6.065044e+02,9.355222e+02
6.074686e+02,9.318878e+02
6.084329e+02,9.348787e+02
6.093971e+02,9.427473e+02
6.103613e+02,9.463846e+02
6.113256e+02,9.412981e+02
6.122899e+02,9.367235e+02
6.132541e+02,9.339791e+02
6.142183e+02,9.328151e+02
6.151826e+02,9.327668e+02
6.161468e+02,9.352220e+02
6.171110e+02,9.380657e+02
6.180753e+02,9.377507e+02
6.190395e+02,9.345626e+02
6.200037e+02,9.320293e+02
6.209680e+02,9.323525e+02
6.219322e+02,9.355061e+02
6.228964e+02,9.382630e+02
6.238607e+02,9.400569e+02
6.248249e+02,9.418717e+02
6.257891e+02,9.450504e+02
6.267534e+02,9.482717e+02
6.277176e+02,9.483221e+02
6.286818e+02,9.411281e+02
6.296461e+02,9.321762e+02
6.306103e+02,9.276565e+02
6.315745e+02,9.274979e+02
6.325388e+02,9.284359e+02
6.335030e+02,9.277207e+02
6.344672e+02,9.251070e+02
6.354315e+02,9.239857e+02
6.363957e+02,9.246600e+02
6.373599e+02,9.261139e+02
6.383242e+02,9.290106e+02
6.392884e+02,9.331111e+02
6.402526e+02,9.350765e+02
6.412169e+02,9.322181e+02
6.421811e+02,9.277254e+02
6.431453e+02,9.241502e+02
6.441096e+02,9.217737e+02
6.450738e+02,9.203055e+02
6.460380e+02,9.195267e+02
6.470023e+02,9.196181e+02
6.479665e+02,9.216638e+02
6.489307e+02,9.271894e+02
6.498950e+02,9.320137e+02
6.508592e+02,9.320192e+02
6.518234e+02,9.267349e+02
6.527877e+02,9.220433e+02
6.537519e+02,9.187118e+02
6.547161e+02,9.164532e+02
6.556804e+02,9.156352e+02
6.566446e+02,9.160842e+02
6.576088e+02,9.163923e+02
6.585731e+02,9.145084e+02
6.595373e+02,9.110215e+02
6.605015e+02,9.095546e+02
6.614658e+02,9.106787e+02
6.624300e+02,9.132951e+02
6.633942e+02,9.168206e+02
6.643585e+02,9.229969e+02
6.653227e+02,9.251685e+02
6.662869e+02,9.191152e+02
6.672512e+02,9.120935e+02
6.682154e+02,9.087640e+02
6.691796e+02,9.096478e+02
6.701439e+02,9.115023e+02
6.711081e+02,9.124335e+02
6.720723e+02,9.126936e+02
6.730366e+02,9.127579e+02
6.740008e+02,9.127849e+02
6.749650e+02,9.130027e+02
6.759293e+02,9.139828e+02
6.768935e+02,9.167795e+02
6.778577e+02,9.176013e+02
6.788220e+02,9.153401e+02
6.797862e+02,9.123939e+02
6.807504e+02,9.093430e+02
6.817147e+02,9.055103e+02
6.826789e+02,9.041176e+02
6.836431e+02,9.090609e+02
6.846074e+02,9.153857e+02
6.855716e+02,9.176520e+02
6.865358e+02,9.150759e+02
6.875001e+02,9.107431e+02
6.884643e+02,9.077756e+02
6.894285e+02,9.062048e+02
6.903928e+02,9.053815e+02
6.913570e+02,9.055174e+02
6.923212e+02,9.056686e+02
6.932855e+02,9.048521e+02
6.942497e+02,9.025038e+02
6.952139e+02,9.011367e+02
6.961782e+02,9.003496e+02
6.971424e+02,9.006191e+02
6.981066e+02,9.028370e+02
6.990709e+02,9.068044e+02
7.000351e+02,9.095338e+02
7.009993e+02,9.087412e+02
7.019636e+02,9.057656e+02
7.029278e+02,9.026377e+02
7.038920e+02,8.995853e+02
7.048563e+02,8.970297e+02
7.058205e+02,8.959534e+02
7.067847e+02,8.973143e+02
7.077490e+02,8.981329e+02
7.087132e+02,8.985768e+02
7.096774e+02,8.990382e+02
7.106417e+02,8.990504e+02
7.116059e+02,8.983285e+02
7.125701e+02,8.975062e+02
7.135344e+02,8.974879e+02
7.144986e+02,8.973401e+02
7.154628e+02,8.953281e+02
7.164271e+02,8.912959e+02
7.173913e+02,8.878810e+02
7.183555e+02,8.886304e+02
7.193198e+02,8.925322e+02
7.202840e+02,8.944823e+02
7.212482e+02,8.937472e+02
7.222125e+02,8.921573e+02
7.231767e+02,8.916487e+02
7.241409e+02,8.931198e+02
7.251052e+02,8.923955e+02
7.260694e+02,8.867645e+02
7.270336e+02,8.810027e+02
7.279979e+02,8.780270e+02
7.289621e+02,8.781185e+02
7.299263e+02,8.787133e+02
7.308906e+02,8.784393e+02
7.318548e+02,8.781076e+02
7.328190e+02,8.790220e+02
7.337833e+02,8.812001e+02
7.347475e+02,8.832936e+02
7.357117e+02,8.840218e+02
7.366760e+02,8.836687e+02
7.376402e+02,8.835453e+02
7.386044e+02,8.837309e+02
7.395687e+02,8.842391e+02
7.405329e+02,8.850461e+02
7.414971e+02,8.863793e+02
7.424614e+02,8.867666e+02
7.434256e+02,8.866699e+02
7.443898e+02,8.862166e+02
7.453541e+02,8.847787e+02
7.463183e+02,8.820403e+02
7.472825e+02,8.791289e+02
7.482468e+02,8.765654e+02
7.492110e+02,8.742313e+02
7.501752e+02,8.718633e+02
7.511395e+02,8.699979e+02
7.521037e+02,8.698381e+02
7.530679e+02,8.730988e+02
7.540322e+02,8.788150e+02
7.549964e+02,8.811160e+02
7.559606e+02,8.795539e+02
7.569249e+02,8.766987e+02
7.578891e+02,8.734924e+02
7.588533e+02,8.698510e+02
7.598176e+02,8.693903e+02
7.607818e+02,8.745607e+02
7.617460e+02,8.789246e+02
7.627103e+02,8.803828e+02
7.636745e+02,8.798127e+02
7.646387e+02,8.792364e+02
7.656030e+02,8.804573e+02
7.665672e+02,8.811408e+02
7.675314e+02,8.774908e+02
7.684957e+02,8.704850e+02
7.694599e+02,8.650028e+02
7.704241e+02,8.652574e+02
7.713884e+02,8.693756e+02
7.723526e+02,8.710828e+02
7.733168e+02,8.703356e+02
7.742811e+02,8.694637e+02
7.752453e+02,8.689814e+02
7.762095e+02,8.685644e+02
7.771738e+02,8.680560e+02
7.781380e+02,8.668776e+02
7.791022e+02,8.656577e+02
7.800665e+02,8.652029e+02
7.810307e+02,8.650596e+02
7.819949e+02,8.643777e+02
7.829592e+02,8.626036e+02
7.839234e+02,8.611931e+02
7.848876e+02,8.607685e+02
7.858519e+02,8.609132e+02
7.868161e+02,8.610972e+02
7.877803e+02,8.611018e+02
7.887446e+02,8.610165e+02
7.897088e+02,8.615613e+02
7.906730e+02,8.628254e+02
7.916373e+02,8.631758e+02
7.926015e+02,8.615436e+02
7.935657e+02,8.582966e+02
7.945300e+02,8.549406e+02
7.954942e+02,8.509987e+02
7.964584e+02,8.492510e+02
7.974227e+02,8.524387e+02
7.983869e+02,8.578934e+02
7.993511e+02,8.615471e+02
8.003154e+02,8.629440e+02
8.012796e+02,8.618037e+02
8.022438e+02,8.556804e+02
8.032081e+02,8.491304e+02
8.041723e+02,8.463069e+02
8.051365e+02,8.481020e+02
8.061008e+02,8.509155e+02
8.070650e+02,8.523925e+02
8.080292e+02,8.527334e+02
8.089935e+02,8.526973e+02
8.099577e+02,8.526284e+02
8.109219e+02,8.522574e+02
8.118862e+02,8.504688e+02
8.128504e+02,8.473736e+02
8.138146e+02,8.473268e+02
8.147789e+02,8.516960e+02
8.157431e+02,8.552186e+02
8.167073e+02,8.532280e+02
8.176716e+02,8.446295e+02
8.186358e+02,8.395050e+02
8.196000e+02,8.400843e+02
8.205643e+02,8.420082e+02
8.215285e+02,8.434251e+02
8.224927e+02,8.442937e+02
8.234570e+02,8.452032e+02
8.244212e+02,8.468724e+02
8.253854e+02,8.481906e+02
8.263497e+02,8.482048e+02
8.273139e+02,8.469040e+02
8.282781e+02,8.450204e+02
8.292424e+02,8.437137e+02
8.302066e+02,8.423286e+02
8.311708e+02,8.381477e+02
8.321351e+02,8.321030e+02
8.330993e+02,8.295214e+02
8.340635e+02,8.338260e+02
8.350278e+02,8.420477e+02
8.359920e+02,8.449757e+02
8.369562e+02,8.415729e+02
8.379205e+02,8.385836e+02
8.388847e+02,8.384464e+02
8.398489e+02,8.399826e+02
8.408132e+02,8.399772e+02
8.417774e+02,8.362534e+02
8.427416e+02,8.338130e+02
8.437059e+02,8.342894e+02
8.446701e+02,8.357080e+02
8.456343e+02,8.359261e+02
8.465986e+02,8.335854e+02
8.475628e+02,8.319738e+02
8.485270e+02,8.333840e+02
8.494913e+02,8.354055e+02
8.504555e+02,8.353262e+02
8.514197e+02,8.325506e+02
8.523840e+02,8.298496e+02
8.533482e+02,8.292806e+02
8.543124e+02,8.301451e+02
8.552767e+02,8.317974e+02
8.562409e+02,8.339857e+02
8.572051e+02,8.354102e+02
8.581694e+02,8.341505e+02
8.591336e+02,8.306873e+02
8.600978e+02,8.302084e+02
8.610621e+02,8.339288e+02
8.620263e+02,8.365652e+02
8.629905e+02,8.331675e+02
8.639548e+02,8.228812e+02
8.649190e+02,8.172365e+02
8.658832e+02,8.190020e+02
8.668475e+02,8.225266e+02
8.678117e+02,8.267005e+02
8.687759e+02,8.309157e+02
8.697402e+02,8.321967e+02
8.707044e+02,8.258588e+02
8.716686e+02,8.204822e+02
8.726329e+02,8.207991e+02
8.735971e+02,8.245009e+02
8.745613e+02,8.268645e+02
8.755256e+02,8.256436e+02
8.764898e+02,8.237319e+02
8.774540e+02,8.219590e+02
8.784183e+02,8.207161e+02
8.793825e+02,8.212466e+02
8.803467e+02,8.244059e+02
8.813110e+02,8.275709e+02
8.822752e+02,8.269275e+02
8.832394e+02,8.237061e+02
8.842037e+02,8.217697e+02
8.851679e+02,8.218809e+02
8.861321e+02,8.226756e+02
8.870964e+02,8.224996e+02
8.880606e+02,8.212478e+02
8.890248e+02,8.199719e+02
8.899891e+02,8.192626e+02
8.909533e+02,8.184010e+02
8.919175e+02,8.162957e+02
8.928818e+02,8.123160e+02
8.938460e+02,8.099294e+02
8.948102e+02,8.104216e+02
8.957745e+02,8.107063e+02
8.967387e+02,8.082950e+02
8.977029e+02,8.032055e+02
8.986672e+02,8.007550e+02
8.996314e+02,8.044733e+02
9.005956e+02,8.086427e+02
9.015599e+02,8.108287e+02
9.025241e+02,8.112980e+02
9.034883e+02,8.114288e+02
9.044526e+02,8.119384e+02
9.054168e+02,8.116458e+02
9.063810e+02,8.101350e+02
9.073453e+02,8.081647e+02
9.083095e+02,8.062598e+02
9.092737e+02,8.041954e+02
9.102380e+02,8.022794e+02
9.112022e+02,8.008966e+02
9.121664e+02,7.999952e+02
9.131307e+02,8.000276e+02
9.140949e+02,8.014965e+02
9.150591e+02,8.030569e+02
9.160234e+02,8.012047e+02
9.169876e+02,7.961992e+02
9.179518e+02,7.946674e+02
9.189161e+02,7.981457e+02
9.198803e+02,8.018723e+02
9.208445e+02,8.004462e+02
9.218088e+02,7.931916e+02
9.227730e+02,7.888831e+02
9.237372e+02,7.879545e+02
9.247015e+02,7.885354e+02
9.256657e+02,7.897617e+02
9.266299e+02,7.916152e+02
9.275942e+02,7.930490e+02
9.285584e+02,7.945982e+02
9.295226e+02,7.947109e+02
9.304869e+02,7.918066e+02
9.314511e+02,7.871295e+02
9.324153e+02,7.843103e+02
9.333796e+02,7.850416e+02
9.343438e+02,7.859733e+02
9.353080e+02,7.858086e+02
9.362723e+02,7.850250e+02
9.372365e+02,7.848563e+02
9.382007e+02,7.873807e+02
9.391650e+02,7.886670e+02
9.401292e+02,7.854579e+02
9.410934e+02,7.806077e+02
9.420577e+02,7.771057e+02
9.430219e+02,7.756492e+02
9.439861e+02,7.751418e+02
9.449504e+02,7.754990e+02
9.459146e+02,7.766182e+02
9.468788e+02,7.779287e+02
9.478431e+02,7.788939e+02
9.488073e+02,7.792411e+02
9.497715e+02,7.790339e+02
9.507358e+02,7.785670e+02
9.517000e+02,7.785027e+02
9.526642e+02,7.790025e+02
9.536285e+02,7.790342e+02
9.545927e+02,7.774685e+02
9.555569e+02,7.750028e+02
9.565212e+02,7.743049e+02
9.574854e+02,7.756960e+02
9.584496e+02,7.767279e+02
9.594139e+02,7.758088e+02
9.603781e+02,7.739635e+02
9.613423e+02,7.749795e+02
9.623066e+02,7.800324e+02
9.632708e+02,7.824506e+02
9.642350e+02,7.805939e+02
9.651993e+02,7.765539e+02
9.661635e+02,7.726522e+02
9.671277e+02,7.677119e+02
9.680920e+02,7.652141e+02
9.690562e+02,7.669186e+02
9.700204e+02,7.690966e+02
9.709847e+02,7.689986e+02
9.719489e+02,7.661760e+02
9.729131e+02,7.646977e+02
9.738774e+02,7.664650e+02
9.748416e+02,7.680345e+02
9.758058e+02,7.666055e+02
9.767701e+02,7.628784e+02
9.777343e+02,7.618505e+02
9.786985e+02,7.687077e+02
9.796628e+02,7.732700e+02
9.806270e+02,7.702831e+02
9.815912e+02,7.631769e+02
9.825555e+02,7.577457e+02
9.835197e+02,7.553527e+02
9.844839e+02,7.558338e+02
9.854482e+02,7.625237e+02
9.864124e+02,7.705172e+02
9.873766e+02,7.732867e+02
9.883409e+02,7.686338e+02
9.893051e+02,7.642831e+02
9.902693e+02,7.669413e+02
9.912336e+02,7.712659e+02
9.921978e+02,7.703024e+02
9.931620e+02,7.637024e+02
9.941263e+02,7.573585e+02
9.950905e+02,7.559459e+02
9.960547e+02,7.569016e+02
9.970190e+02,7.570302e+02
9.979832e+02,7.564359e+02
9.989474e+02,7.565094e+02
9.999117e+02,7.593920e+02
1.000876e+03,7.624485e+02
1.001840e+03,7.610164e+02
1.002804e+03,7.562641e+02
1.003769e+03,7.510538e+02
1.004733e+03,7.459378e+02
1.005697e+03,7.419774e+02
1.006661e+03,7.413524e+02
1.007626e+03,7.435554e+02
1.008590e+03,7.464564e+02
1.009554e+03,7.495776e+02
1.010518e+03,7.517244e+02
1.011482e+03,7.510623e+02
1.012447e+03,7.480651e+02
1.013411e+03,7.471780e+02
1.014375e+03,7.491088e+02
1.015339e+03,7.507784e+02
1.016304e+03,7.494871e+02
1.017268e+03,7.458552e+02
1.018232e+03,7.439745e+02
1.019196e+03,7.438978e+02
1.020161e+03,7.444799e+02
1.021125e+03,7.456526e+02
1.022089e+03,7.471793e+02
1.023053e+03,7.478596e+02
1.024018e+03,7.473331e+02
1.024982e+03,7.462473e+02
1.025946e+03,7.444008e+02
1.026910e+03,7.420695e+02
1.027875e+03,7.399053e+02
1.028839e+03,7.380258e+02
1.029803e+03,7.374886e+02
1.030767e+03,7.387165e+02
1.031731e+03,7.406939e+02
1.032696e+03,7.430383e+02
1.033660e+03,7.457976e+02
1.034624e+03,7.456418e+02
1.035588e+03,7.408206e+02
1.036552e+03,7.367048e+02
1.037517e+03,7.355145e+02
1.038481e+03,7.362609e+02
1.039445e+03,7.359150e+02
1.040409e+03,7.331677e+02
1.041374e+03,7.315756e+02
1.042338e+03,7.321570e+02
1.043302e+03,7.342299e+02
1.044266e+03,7.368779e+02
1.045231e+03,7.418594e+02
1.046195e+03,7.439902e+02
1.047159e+03,7.412702e+02
1.048123e+03,7.377177e+02
1.049088e+03,7.358157e+02
1.050052e+03,7.359119e+02
1.051016e+03,7.367909e+02
1.051980e+03,7.401846e+02
1.052945e+03,7.423873e+02
1.053909e+03,7.411430e+02
1.054873e+03,7.369521e+02
1.055837e+03,7.330475e+02
1.056802e+03,7.287942e+02
1.057766e+03,7.263467e+02
1.058730e+03,7.276953e+02
1.059694e+03,7.305243e+02
1.060658e+03,7.318181e+02
1.061623e+03,7.306277e+02
1.062587e+03,7.295974e+02
1.063551e+03,7.282863e+02
1.064515e+03,7.278755e+02
1.065479e+03,7.298505e+02
1.066444e+03,7.346957e+02
1.067408e+03,7.372640e+02
1.068372e+03,7.347143e+02
1.069336e+03,7.318167e+02
1.070301e+03,7.298346e+02
1.071265e+03,7.287512e+02
1.072229e+03,7.288041e+02
1.073193e+03,7.330051e+02
1.074158e+03,7.347468e+02
1.075122e+03,7.306321e+02
1.076086e+03,7.239357e+02
1.077050e+03,7.184891e+02
1.078015e+03,7.147023e+02
1.078979e+03,7.136990e+02
1.079943e+03,7.167584e+02
1.080907e+03,7.216113e+02
1.081872e+03,7.276964e+02
1.082836e+03,7.346818e+02
1.083800e+03,7.380387e+02
1.084764e+03,7.326763e+02
1.085729e+03,7.280997e+02
1.086693e+03,7.290950e+02
1.087657e+03,7.340398e+02
1.088621e+03,7.384957e+02
1.089585e+03,7.414670e+02
1.090550e+03,7.436181e+02
1.091514e+03,7.456900e+02
1.092478e+03,7.473404e+02
1.093442e+03,7.480928e+02
1.094406e+03,7.480277e+02
1.095371e+03,7.468984e+02
1.096335e+03,7.433955e+02
1.097299e+03,7.395690e+02
1.098263e+03,7.369481e+02
1.099228e+03,7.354261e+02
1.100192e+03,7.331630e+02
1.101156e+03,7.279018e+02
1.102120e+03,7.237879e+02
1.103085e+03,7.234354e+02
1.104049e+03,7.252292e+02
1.105013e+03,7.258472e+02
1.105977e+03,7.234442e+02
1.106942e+03,7.217447e+02
1.107906e+03,7.222165e+02
1.108870e+03,7.231545e+02
1.109834e+03,7.229710e+02
1.110799e+03,7.213350e+02
1.111763e+03,7.195012e+02
1.112727e+03,7.163328e+02
1.113691e+03,7.144163e+02
1.114656e+03,7.153018e+02
1.115620e+03,7.186848e+02
1.116584e+03,7.221758e+02
1.117548e+03,7.271090e+02
1.118512e+03,7.297523e+02
1.119477e+03,7.272485e+02
1.120441e+03,7.227178e+02
1.121405e+03,7.210396e+02
1.122369e+03,7.274031e+02
1.123334e+03,7.288013e+02
1.124298e+03,7.212766e+02
1.125262e+03,7.124778e+02
1.126226e+03,7.076183e+02
1.127191e+03,7.070852e+02
1.128155e+03,7.074705e+02
1.129119e+03,7.106376e+02
1.130083e+03,7.117019e+02
1.131047e+03,7.071429e+02
1.132012e+03,6.991428e+02
1.132976e+03,6.956994e+02
1.133940e+03,7.002195e+02
1.134904e+03,7.022491e+02
1.135869e+03,6.991708e+02
1.136833e+03,6.947061e+02
1.137797e+03,6.932003e+02
1.138761e+03,6.960656e+02
1.139726e+03,6.971798e+02
1.140690e+03,6.953818e+02
1.141654e+03,6.940024e+02
1.142618e+03,6.953486e+02
1.143583e+03,6.989141e+02
1.144547e+03,7.001055e+02
1.145511e+03,6.982461e+02
1.146475e+03,6.964401e+02
1.147439e+03,6.954578e+02
1.148404e+03,6.952231e+02
1.149368e+03,6.956122e+02
1.150332e+03,6.966822e+02
1.151296e+03,6.967816e+02
1.152261e+03,6.952920e+02
1.153225e+03,6.930482e+02
1.154189e+03,6.913252e+02
1.155153e+03,6.902778e+02
1.156118e+03,6.886718e+02
1.157082e+03,6.867140e+02
1.158046e+03,6.848653e+02
1.159010e+03,6.827846e+02
1.159974e+03,6.813363e+02
1.160939e+03,6.832850e+02
1.161903e+03,6.878154e+02
1.162867e+03,6.904069e+02
1.163831e+03,6.900657e+02
1.164796e+03,6.881954e+02
1.165760e+03,6.863106e+02
1.166724e+03,6.843660e+02
1.167688e+03,6.817587e+02
1.168653e+03,6.785954e+02
1.169617e+03,6.755470e+02
1.170581e+03,6.728831e+02
1.171545e+03,6.709564e+02
1.172510e+03,6.705544e+02
1.173474e+03,6.712684e+02
1.174438e+03,6.720850e+02
1.175402e+03,6.726360e+02
1.176366e+03,6.728018e+02
1.177331e+03,6.720390e+02
1.178295e+03,6.712288e+02
1.179259e+03,6.715133e+02
1.180223e+03,6.727067e+02
1.181188e+03,6.737570e+02
1.182152e+03,6.749474e+02
1.183116e+03,6.750217e+02
1.184080e+03,6.722988e+02
1.185045e+03,6.683221e+02
1.186009e+03,6.655533e+02
1.186973e+03,6.651446e+02
1.187937e+03,6.656311e+02
1.188901e+03,6.675046e+02
1.189866e+03,6.690800e+02
1.190830e+03,6.679857e+02
1.191794e+03,6.638193e+02
1.192758e+03,6.621172e+02
1.193723e+03,6.677268e+02
1.194687e+03,6.725029e+02
1.195651e+03,6.717148e+02
1.196615e+03,6.677133e+02
1.197580e+03,6.666348e+02
1.198544e+03,6.720999e+02
1.199508e+03,6.740078e+02
1.200472e+03,6.701172e+02
1.201437e+03,6.648162e+02
1.202401e+03,6.618160e+02
1.203365e+03,6.615399e+02
1.204329e+03,6.616613e+02
1.205293e+03,6.625919e+02
1.206258e+03,6.624778e+02
1.207222e+03,6.598030e+02
1.208186e+03,6.558743e+02
1.209150e+03,6.552675e+02
1.210115e+03,6.581800e+02
1.211079e+03,6.604557e+02
1.212043e+03,6.614177e+02
1.213007e+03,6.615380e+02
1.213972e+03,6.619993e+02
1.214936e+03,6.625822e+02
1.215900e+03,6.598183e+02
1.216864e+03,6.539626e+02
1.217828e+03,6.496097e+02
1.218793e+03,6.499040e+02
1.219757e+03,6.525351e+02
1.220721e+03,6.540017e+02
1.221685e+03,6.545984e+02
1.222650e+03,6.548863e+02
1.223614e+03,6.548171e+02
1.224578e+03,6.539214e+02
1.225542e+03,6.506408e+02
1.226507e+03,6.475012e+02
1.227471e+03,6.479752e+02
1.228435e+03,6.512787e+02
1.229399e+03,6.538900e+02
1.230364e+03,6.547308e+02
1.231328e+03,6.540873e+02
1.232292e+03,6.510630e+02
1.233256e+03,6.476246e+02
1.234220e+03,6.461443e+02
1.235185e+03,6.480693e+02
1.236149e+03,6.492133e+02
1.237113e+03,6.476049e+02
1.238077e+03,6.461446e+02
1.239042e+03,6.464211e+02
1.240006e+03,6.479052e+02
1.240970e+03,6.483153e+02
1.241934e+03,6.468645e+02
1.242899e+03,6.456689e+02
1.243863e+03,6.452914e+02
1.244827e+03,6.455201e+02
1.245791e+03,6.463082e+02
1.246755e+03,6.481002e+02
1.247720e+03,6.473672e+02
1.248684e+03,6.434767e+02
1.249648e+03,6.402581e+02
1.250612e+03,6.401715e+02
1.251577e+03,6.423418e+02
1.252541e+03,6.449294e+02
1.253505e+03,6.476036e+02
1.254469e+03,6.479903e+02
1.255434e+03,6.453486e+02
1.256398e+03,6.419183e+02
1.257362e+03,6.393722e+02
1.258326e+03,6.378704e+02
1.259291e+03,6.384490e+02
1.260255e+03,6.407281e+02
1.261219e+03,6.428588e+02
1.262183e+03,6.450816e+02
1.263147e+03,6.461266e+02
1.264112e+03,6.440430e+02
1.265076e+03,6.403813e+02
1.266040e+03,6.370261e+02
1.267004e+03,6.340759e+02
1.267969e+03,6.329805e+02
1.268933e+03,6.367376e+02
1.269897e+03,6.407567e+02
1.270861e+03,6.413449e+02
1.271826e+03,6.383522e+02
1.272790e+03,6.361412e+02
1.273754e+03,6.350355e+02
1.274718e+03,6.346981e+02
1.275682e+03,6.354841e+02
1.276647e+03,6.370947e+02
1.277611e+03,6.393380e+02
1.278575e+03,6.424700e+02
1.279539e+03,6.429768e+02
1.280504e+03,6.407520e+02
1.281468e+03,6.391444e+02
1.282432e+03,6.403890e+02
1.283396e+03,6.428281e+02
1.284361e+03,6.419100e+02
1.285325e+03,6.383134e+02
1.286289e+03,6.352496e+02
1.287253e+03,6.334581e+02
1.288218e+03,6.328295e+02
1.289182e+03,6.341486e+02
1.290146e+03,6.362018e+02
1.291110e+03,6.379310e+02
1.292074e+03,6.391668e+02
1.293039e+03,6.394825e+02
1.294003e+03,6.381511e+02
1.294967e+03,6.362369e+02
1.295931e+03,6.341245e+02
1.296896e+03,6.320660e+02
1.297860e+03,6.301165e+02
1.298824e+03,6.280671e+02
1.299788e+03,6.265543e+02
1.300753e+03,6.255934e+02
1.301717e+03,6.249785e+02
1.302681e+03,6.245762e+02
1.303645e+03,6.245278e+02
1.304609e+03,6.257318e+02
1.305574e+03,6.284579e+02
1.306538e+03,6.282374e+02
1.307502e+03,6.242546e+02
1.308466e+03,6.202257e+02
1.309431e+03,6.198178e+02
1.310395e+03,6.221271e+02
1.311359e+03,6.246367e+02
1.312323e+03,6.268199e+02
1.313288e+03,6.272601e+02
1.314252e+03,6.250797e+02
1.315216e+03,6.229225e+02
1.316180e+03,6.230970e+02
1.317145e+03,6.246417e+02
1.318109e+03,6.266276e+02
1.319073e+03,6.285877e+02
1.320037e+03,6.295013e+02
1.321001e+03,6.284730e+02
1.321966e+03,6.269730e+02
1.322930e+03,6.253832e+02
1.323894e+03,6.242047e+02
1.324858e+03,6.239645e+02
1.325823e+03,6.255678e+02
1.326787e+03,6.257002e+02
1.327751e+03,6.232101e+02
1.328715e+03,6.213795e+02
1.329680e+03,6.229875e+02
1.330644e+03,6.268922e+02
1.331608e+03,6.272587e+02
1.332572e+03,6.244003e+02
1.333536e+03,6.231583e+02
1.334501e+03,6.248789e+02
1.335465e+03,6.274456e+02
1.336429e+03,6.299388e+02
1.337393e+03,6.314706e+02
1.338358e+03,6.298937e+02
1.339322e+03,6.257902e+02
1.340286e+03,6.219247e+02
1.341250e+03,6.187228e+02
1.342215e+03,6.170925e+02
1.343179e+03,6.194136e+02
1.344143e+03,6.229576e+02
1.345107e+03,6.243517e+02
1.346072e+03,6.226775e+02
1.347036e+03,6.205317e+02
1.348000e+03,6.172490e+02
1.348964e+03,6.143801e+02
1.349928e+03,6.127340e+02
1.350893e+03,6.121060e+02
1.351857e+03,6.115814e+02
1.352821e+03,6.110436e+02
1.353785e+03,6.110252e+02
1.354750e+03,6.115150e+02
1.355714e+03,6.121787e+02
1.356678e+03,6.135966e+02
1.357642e+03,6.150215e+02
1.358607e+03,6.145613e+02
1.359571e+03,6.128824e+02
1.360535e+03,6.117820e+02
1.361499e+03,6.124245e+02
1.362464e+03,6.123442e+02
1.363428e+03,6.087797e+02
1.364392e+03,6.057022e+02
1.365356e+03,6.062905e+02
1.366320e+03,6.099080e+02
1.367285e+03,6.117585e+02
1.368249e+03,6.111718e+02
1.369213e+03,6.112468e+02
1.370177e+03,6.130847e+02
1.371142e+03,6.145828e+02
1.372106e+03,6.123836e+02
1.373070e+03,6.072870e+02
1.374034e+03,6.057050e+02
1.374999e+03,6.075121e+02
1.375963e+03,6.096159e+02
1.376927e+03,6.105875e+02
1.377891e+03,6.108144e+02
1.378855e+03,6.101760e+02
1.379820e+03,6.091691e+02
1.380784e+03,6.087084e+02
1.381748e+03,6.090687e+02
1.382712e+03,6.087486e+02
1.383677e+03,6.060397e+02
1.384641e+03,6.034039e+02
1.385605e+03,6.014578e+02
1.386569e+03,6.000950e+02
1.387534e+03,5.994153e+02
1.388498e+03,5.997213e+02
1.389462e+03,5.993703e+02
1.390426e+03,5.981066e+02
1.391391e+03,5.964323e+02
1.392355e+03,5.947985e+02
1.393319e+03,5.932336e+02
1.394283e+03,5.907797e+02
1.395247e+03,5.883019e+02
1.396212e+03,5.886059e+02
1.397176e+03,5.924868e+02
1.398140e+03,5.956884e+02
1.399104e+03,5.949683e+02
1.400069e+03,5.932006e+02
1.401033e+03,5.916228e+02
1.401997e+03,5.905283e+02
1.402961e+03,5.905686e+02
1.403926e+03,5.930997e+02
1.404890e+03,5.932575e+02
1.405854e+03,5.899714e+02
1.406818e+03,5.868725e+02
1.407782e+03,5.870862e+02
1.408747e+03,5.895206e+02
1.409711e+03,5.894130e+02
1.410675e+03,5.869879e+02
1.411639e+03,5.846266e+02
1.412604e+03,5.830969e+02
1.413568e+03,5.821006e+02
1.414532e+03,5.814744e+02
1.415496e+03,5.815663e+02
1.416461e+03,5.829947e+02
1.417425e+03,5.850934e+02
1.418389e+03,5.860569e+02
1.419353e+03,5.849928e+02
1.420318e+03,5.836275e+02
1.421282e+03,5.820068e+02
1.422246e+03,5.807450e+02
1.423210e+03,5.801841e+02
1.424174e+03,5.804124e+02
1.425139e+03,5.820673e+02
1.426103e+03,5.846838e+02
1.427067e+03,5.854727e+02
1.428031e+03,5.833059e+02
1.428996e+03,5.806145e+02
1.429960e+03,5.793383e+02
1.430924e+03,5.788192e+02
1.431888e+03,5.794544e+02
1.432853e+03,5.805207e+02
1.433817e+03,5.788821e+02
1.434781e+03,5.691645e+02
1.435745e+03,5.638760e+02
1.436709e+03,5.658919e+02
1.437674e+03,5.700370e+02
1.438638e+03,5.722640e+02
1.439602e+03,5.728570e+02
1.440566e+03,5.722491e+02
1.441531e+03,5.706689e+02
1.442495e+03,5.715511e+02
1.443459e+03,5.766545e+02
1.444423e+03,5.816063e+02
1.445388e+03,5.819929e+02
1.446352e+03,5.798281e+02
1.447316e+03,5.768928e+02
1.448280e+03,5.737325e+02
1.449245e+03,5.708113e+02
1.450209e+03,5.665219e+02
1.451173e+03,5.652833e+02
1.452137e+03,5.688834e+02
1.453101e+03,5.728875e+02
1.454066e+03,5.731216e+02
1.455030e+03,5.701585e+02
1.455994e+03,5.681605e+02
1.456958e+03,5.670775e+02
1.457923e+03,5.669492e+02
1.458887e+03,5.680272e+02
1.459851e+03,5.682261e+02
1.460815e+03,5.637245e+02
1.461780e+03,5.589081e+02
1.462744e+03,5.590819e+02
1.463708e+03,5.636777e+02
1.464672e+03,5.658621e+02
1.465636e+03,5.644340e+02
1.466601e+03,5.623079e+02
1.467565e+03,5.592368e+02
1.468529e+03,5.568737e+02
1.469493e+03,5.572253e+02
1.470458e+03,5.592644e+02
1.471422e+03,5.586363e+02
1.472386e+03,5.564831e+02
1.473350e+03,5.572830e+02
1.474315e+03,5.637357e+02
1.475279e+03,5.681956e+02
1.476243e+03,5.632323e+02
1.477207e+03,5.566313e+02
1.478172e+03,5.539357e+02
1.479136e+03,5.549260e+02
1.480100e+03,5.575264e+02
1.481064e+03,5.630847e+02
1.482028e+03,5.646390e+02
1.482993e+03,5.608831e+02
1.483957e+03,5.561892e+02
1.484921e+03,5.543798e+02
1.485885e+03,5.541755e+02
1.486850e+03,5.534785e+02
1.487814e+03,5.521855e+02
1.488778e+03,5.502906e+02
1.489742e+03,5.475771e+02
1.490707e+03,5.453694e+02
1.491671e+03,5.447441e+02
1.492635e+03,5.446019e+02
1.493599e+03,5.440065e+02
1.494563e+03,5.433588e+02
1.495528e+03,5.447792e+02
1.496492e+03,5.480227e+02
1.497456e+03,5.478470e+02
1.498420e+03,5.439369e+02
1.499385e+03,5.404631e+02
1.500349e+03,5.410346e+02
1.501313e+03,5.430241e+02
1.502277e+03,5.442530e+02
1.503242e+03,5.451409e+02
1.504206e+03,5.466000e+02
1.505170e+03,5.493340e+02
1.506134e+03,5.495605e+02
1.507099e+03,5.461201e+02
1.508063e+03,5.435805e+02
1.509027e+03,5.438792e+02
1.509991e+03,5.454374e+02
1.510955e+03,5.460723e+02
1.511920e+03,5.457430e+02
1.512884e+03,5.441756e+02
1.513848e+03,5.417327e+02
1.514812e+03,5.394205e+02
1.515777e+03,5.351169e+02
1.516741e+03,5.335197e+02
1.517705e+03,5.394000e+02
1.518669e+03,5.459051e+02
1.519634e+03,5.470775e+02
1.520598e+03,5.432286e+02
1.521562e+03,5.432354e+02
1.522526e+03,5.466273e+02
1.523490e+03,5.477994e+02
1.524455e+03,5.445998e+02
1.525419e+03,5.409742e+02
1.526383e+03,5.412547e+02
1.527347e+03,5.422771e+02
1.528312e+03,5.411994e+02
1.529276e+03,5.386680e+02
1.530240e+03,5.372523e+02
1.531204e+03,5.375302e+02
1.532169e+03,5.367672e+02
1.533133e+03,5.344638e+02
1.534097e+03,5.325304e+02
1.535061e+03,5.324995e+02
1.536026e+03,5.335641e+02
1.536990e+03,5.348192e+02
1.537954e+03,5.360963e+02
1.538918e+03,5.371472e+02
1.539882e+03,5.379786e+02
1.540847e+03,5.376446e+02
1.541811e+03,5.342114e+02
1.542775e+03,5.314631e+02
1.543739e+03,5.307529e+02
1.544704e+03,5.313618e+02
1.545668e+03,5.322800e+02
1.546632e+03,5.334317e+02
1.547596e+03,5.343539e+02
1.548561e+03,5.349266e+02
1.549525e+03,5.347768e+02
1.550489e+03,5.328355e+02
1.551453e+03,5.309832e+02
1.552417e+03,5.299229e+02
1.553382e+03,5.294916e+02
1.554346e+03,5.300269e+02
1.555310e+03,5.313428e+02
1.556274e+03,5.307554e+02
1.557239e+03,5.282585e+02
1.558203e+03,5.256635e+02
1.559167e+03,5.233652e+02
1.560131e+03,5.217961e+02
1.561096e+03,5.214137e+02
1.562060e+03,5.219948e+02
1.563024e+03,5.240118e+02
1.563988e+03,5.266547e+02
1.564953e+03,5.281591e+02
1.565917e+03,5.284395e+02
1.566881e+03,5.271833e+02
1.567845e+03,5.239329e+02
1.568809e+03,5.218290e+02
1.569774e+03,5.233685e+02
1.570738e+03,5.254951e+02
1.571702e+03,5.229128e+02
1.572666e+03,5.189920e+02
1.573631e+03,5.189491e+02
1.574595e+03,5.234056e+02
1.575559e+03,5.248343e+02
1.576523e+03,5.206832e+02
1.577488e+03,5.189153e+02
1.578452e+03,5.213022e+02
1.579416e+03,5.239408e+02
1.580380e+03,5.217432e+02
1.581344e+03,5.176266e+02
1.582309e+03,5.178126e+02
1.583273e+03,5.207402e+02
1.584237e+03,5.222099e+02
1.585201e+03,5.201467e+02
1.586166e+03,5.189742e+02
1.587130e+03,5.193167e+02
1.588094e+03,5.198806e+02
1.589058e+03,5.200515e+02
1.590023e+03,5.206368e+02
1.590987e+03,5.249855e+02
1.591951e+03,5.305094e+02
1.592915e+03,5.292000e+02
1.593880e+03,5.209825e+02
1.594844e+03,5.142531e+02
1.595808e+03,5.135052e+02
1.596772e+03,5.135296e+02
1.597736e+03,5.132205e+02
1.598701e+03,5.136855e+02
1.599665e+03,5.165459e+02
1.600629e+03,5.206839e+02
1.601593e+03,5.210845e+02
1.602558e+03,5.187253e+02
1.603522e+03,5.164437e+02
1.604486e+03,5.149210e+02
1.605450e+03,5.141541e+02
1.606415e+03,5.151219e+02
1.607379e+03,5.161580e+02
1.608343e+03,5.170520e+02
1.609307e+03,5.169409e+02
1.610271e+03,5.131411e+02
1.611236e+03,5.069052e+02
1.612200e+03,5.048451e+02
1.613164e+03,5.068183e+02
1.614128e+03,5.087914e+02
1.615093e+03,5.090909e+02
1.616057e+03,5.082195e+02
1.617021e+03,5.042089e+02
1.617985e+03,5.011469e+02
1.618950e+03,5.023435e+02
1.619914e+03,5.063470e+02
1.620878e+03,5.074940e+02
1.621842e+03,5.062974e+02
1.622807e+03,5.041552e+02
1.623771e+03,5.014434e+02
1.624735e+03,4.992281e+02
1.625699e+03,4.961008e+02
1.626663e+03,4.959718e+02
1.627628e+03,5.020756e+02
1.628592e+03,5.089610e+02
1.629556e+03,5.095922e+02
1.630520e+03,5.053665e+02
1.631485e+03,5.029325e+02
1.632449e+03,5.020478e+02
1.633413e+03,5.014772e+02
1.634377e+03,5.009859e+02
1.635342e+03,5.002589e+02
1.636306e+03,4.984329e+02
1.637270e+03,4.973345e+02
1.638234e+03,4.978147e+02
1.639198e+03,4.995177e+02
1.640163e+03,5.028909e+02
1.641127e+03,5.065079e+02
1.642091e+03,5.036465e+02
1.643055e+03,4.944070e+02
1.644020e+03,4.874584e+02
1.644984e+03,4.886215e+02
1.645948e+03,4.897808e+02
1.646912e+03,4.889685e+02
1.647877e+03,4.883298e+02
1.648841e+03,4.904286e+02
1.649805e+03,4.938059e+02
1.650769e+03,4.927538e+02
1.651734e+03,4.890275e+02
1.652698e+03,4.871794e+02
1.653662e+03,4.883882e+02
1.654626e+03,4.898498e+02
1.655590e+03,4.911668e+02
1.656555e+03,4.922473e+02
1.657519e+03,4.934284e+02
1.658483e+03,4.941994e+02
1.659447e+03,4.929219e+02
1.660412e+03,4.905542e+02
1.661376e+03,4.895150e+02
1.662340e+03,4.896357e+02
1.663304e+03,4.895711e+02
1.664269e+03,4.885560e+02
1.665233e+03,4.873117e+02
1.666197e+03,4.855771e+02
1.667161e+03,4.839445e+02
1.668125e+03,4.825919e+02
1.669090e+03,4.821523e+02
1.670054e+03,4.852794e+02
1.671018e+03,4.889564e+02
1.671982e+03,4.886032e+02
1.672947e+03,4.840947e+02
1.673911e+03,4.813292e+02
1.674875e+03,4.804621e+02
1.675839e+03,4.810878e+02
1.676804e+03,4.836809e+02
1.677768e+03,4.848536e+02
1.678732e+03,4.784819e+02
1.679696e+03,4.720203e+02
1.680661e+03,4.737062e+02
1.681625e+03,4.788583e+02
1.682589e+03,4.807195e+02
1.683553e+03,4.791330e+02
1.684517e+03,4.805372e+02
1.685482e+03,4.846710e+02
1.686446e+03,4.852250e+02
1.687410e+03,4.796038e+02
1.688374e+03,4.743014e+02
1.689339e+03,4.750036e+02
1.690303e+03,4.766586e+02
1.691267e+03,4.758090e+02
1.692231e+03,4.743056e+02
1.693196e+03,4.760704e+02
1.694160e+03,4.800878e+02
1.695124e+03,4.790316e+02
1.696088e+03,4.737550e+02
1.697052e+03,4.700869e+02
1.698017e+03,4.715843e+02
1.698981e+03,4.726779e+02
1.699945e+03,4.711039e+02
1.700909e+03,4.698582e+02
1.701874e+03,4.712233e+02
1.702838e+03,4.739009e+02
1.703802e+03,4.743401e+02
1.704766e+03,4.733065e+02
1.705731e+03,4.731530e+02
1.706695e+03,4.740641e+02
1.707659e+03,4.726629e+02
1.708623e+03,4.661237e+02
1.709588e+03,4.645659e+02
1.710552e+03,4.699373e+02
1.711516e+03,4.750563e+02
1.712480e+03,4.721001e+02
1.713444e+03,4.672652e+02
1.714409e+03,4.682696e+02
1.715373e+03,4.718607e+02
1.716337e+03,4.729798e+02
1.717301e+03,4.715698e+02
1.718266e+03,4.701610e+02
1.719230e+03,4.686476e+02
1.720194e+03,4.674969e+02
1.721158e+03,4.668607e+02
1.722123e+03,4.656879e+02
1.723087e+03,4.626525e+02
1.724051e+03,4.595219e+02
1.725015e+03,4.566606e+02
1.725979e+03,4.549691e+02
1.726944e+03,4.563178e+02
1.727908e+03,4.597564e+02
1.728872e+03,4.614041e+02
1.729836e+03,4.612709e+02
1.730801e+03,4.604329e+02
1.731765e+03,4.585240e+02
1.732729e+03,4.581135e+02
1.733693e+03,4.601237e+02
1.734658e+03,4.614995e+02
1.735622e+03,4.604636e+02
1.736586e+03,4.590020e+02
1.737550e+03,4.612002e+02
1.738515e+03,4.638656e+02
1.739479e+03,4.621859e+02
1.740443e+03,4.570197e+02
1.741407e+03,4.552982e+02
1.742371e+03,4.574385e+02
1.743336e+03,4.602291e+02
1.744300e+03,4.632451e+02
1.745264e+03,4.636300e+02
1.746228e+03,4.568307e+02
1.747193e+03,4.507999e+02
1.748157e+03,4.490516e+02
1.749121e+03,4.508919e+02
1.750085e+03,4.568296e+02
1.751050e+03,4.643083e+02
1.752014e+03,4.661492e+02
1.752978e+03,4.637546e+02
1.753942e+03,4.590549e+02
1.754906e+03,4.523108e+02
1.755871e+03,4.498172e+02
1.756835e+03,4.555991e+02
1.757799e+03,4.562780e+02
1.758763e+03,4.492193e+02
1.759728e+03,4.423090e+02
1.760692e+03,4.441355e+02
1.761656e+03,4.484061e+02
1.762620e+03,4.491216e+02
1.763585e+03,4.477983e+02
1.764549e+03,4.465800e+02
1.765513e+03,4.453847e+02
1.766477e+03,4.478809e+02
1.767442e+03,4.532944e+02
1.768406e+03,4.559120e+02
1.769370e+03,4.536244e+02
1.770334e+03,4.514308e+02
1.771298e+03,4.519184e+02
1.772263e+03,4.517047e+02
1.773227e+03,4.495521e+02
1.774191e+03,4.475432e+02
1.775155e+03,4.500235e+02
1.776120e+03,4.532234e+02
1.777084e+03,4.500218e+02
1.778048e+03,4.430755e+02
1.779012e+03,4.403807e+02
1.779977e+03,4.438781e+02
1.780941e+03,4.447648e+02
1.781905e+03,4.429061e+02
1.782869e+03,4.411969e+02
1.783833e+03,4.410805e+02
1.784798e+03,4.409714e+02
1.785762e+03,4.395566e+02
1.786726e+03,4.382012e+02
1.787690e+03,4.377306e+02
1.788655e+03,4.376631e+02
1.789619e+03,4.366342e+02
1.790583e+03,4.353376e+02
1.791547e+03,4.349655e+02
1.792512e+03,4.356133e+02
1.793476e+03,4.372652e+02
1.794440e+03,4.405316e+02
1.795404e+03,4.416076e+02
1.796369e+03,4.401153e+02
1.797333e+03,4.381211e+02
1.798297e+03,4.368423e+02
1.799261e+03,4.355895e+02
1.800225e+03,4.325407e+02
1.801190e+03,4.306476e+02
1.802154e+03,4.324989e+02
1.803118e+03,4.362995e+02
1.804082e+03,4.381021e+02
1.805047e+03,4.382021e+02
1.806011e+03,4.360629e+02
1.806975e+03,4.320059e+02
1.807939e+03,4.302845e+02
1.808904e+03,4.321163e+02
1.809868e+03,4.330153e+02
1.810832e+03,4.326904e+02
1.811796e+03,4.313790e+02
1.812760e+03,4.264342e+02
1.813725e+03,4.237896e+02
1.814689e+03,4.312940e+02
1.815653e+03,4.387271e+02
1.816617e+03,4.377993e+02
1.817582e+03,4.312792e+02
1.818546e+03,4.263329e+02
1.819510e+03,4.233380e+02
1.820474e+03,4.237132e+02
1.821439e+03,4.277744e+02
1.822403e+03,4.326655e+02
1.823367e+03,4.395412e+02
1.824331e+03,4.390374e+02
1.825296e+03,4.291927e+02
1.826260e+03,4.207950e+02
1.827224e+03,4.248020e+02
1.828188e+03,4.304964e+02
1.829152e+03,4.326566e+02
1.830117e+03,4.326203e+02
1.831081e+03,4.311794e+02
1.832045e+03,4.283033e+02
1.833009e+03,4.225845e+02
1.833974e+03,4.167299e+02
1.834938e+03,4.160522e+02
1.835902e+03,4.220800e+02
1.836866e+03,4.246001e+02
1.837831e+03,4.233233e+02
1.838795e+03,4.219533e+02
1.839759e+03,4.213979e+02
1.840723e+03,4.220927e+02
1.841688e+03,4.267783e+02
1.842652e+03,4.287199e+02
1.843616e+03,4.244892e+02
1.844580e+03,4.189298e+02
1.845544e+03,4.175030e+02
1.846509e+03,4.182180e+02
1.847473e+03,4.177829e+02
1.848437e+03,4.165258e+02
1.849401e+03,4.149260e+02
1.850366e+03,4.131137e+02
1.851330e+03,4.115588e+02
1.852294e+03,4.104869e+02
1.853258e+03,4.111348e+02
1.854223e+03,4.140285e+02
1.855187e+03,4.159633e+02
1.856151e+03,4.141336e+02
1.857115e+03,4.130692e+02
1.858079e+03,4.137587e+02
1.859044e+03,4.147940e+02
1.860008e+03,4.148092e+02
1.860972e+03,4.146837e+02
1.861936e+03,4.153578e+02
1.862901e+03,4.163433e+02
1.863865e+03,4.168492e+02
1.864829e+03,4.165753e+02
1.865793e+03,4.151066e+02
1.866758e+03,4.128858e+02
1.867722e+03,4.104605e+02
1.868686e+03,4.074648e+02
1.869650e+03,4.078820e+02
1.870615e+03,4.128999e+02
1.871579e+03,4.139091e+02
1.872543e+03,4.083498e+02
1.873507e+03,4.037080e+02
1.874471e+03,4.081431e+02
1.875436e+03,4.117294e+02
1.876400e+03,4.095309e+02
1.877364e+03,4.055187e+02
1.878328e+03,4.040760e+02
1.879293e+03,4.040121e+02
1.880257e+03,4.033237e+02
1.881221e+03,4.019244e+02
1.882185e+03,3.996463e+02
1.883150e+03,3.965748e+02
1.884114e+03,3.952748e+02
1.885078e+03,3.955443e+02
1.886042e+03,3.971676e+02
1.887006e+03,4.004545e+02
1.887971e+03,4.018973e+02
1.888935e+03,3.991865e+02
1.889899e+03,3.986317e+02
1.890863e+03,4.020404e+02
1.891828e+03,4.044171e+02
1.892792e+03,3.986787e+02
1.893756e+03,3.924789e+02
1.894720e+03,3.929701e+02
1.895685e+03,3.959751e+02
1.896649e+03,3.963704e+02
1.897613e+03,3.953592e+02
1.898577e+03,3.989919e+02
1.899542e+03,4.045917e+02
1.900506e+03,4.058043e+02
1.901470e+03,4.012189e+02
1.902434e+03,3.966670e+02
1.903398e+03,3.922960e+02
1.904363e+03,3.912688e+02
1.905327e+03,3.947862e+02
1.906291e+03,3.972361e+02
1.907255e+03,3.936953e+02
1.908220e+03,3.918101e+02
1.909184e+03,3.931743e+02
1.910148e+03,3.955929e+02
1.911112e+03,3.984394e+02
1.912077e+03,4.000998e+02
1.913041e+03,3.983148e+02
1.914005e+03,3.951436e+02
1.914969e+03,3.920798e+02
1.915933e+03,3.896468e+02
1.916898e+03,3.909229e+02
1.917862e+03,3.938883e+02
1.918826e+03,3.937818e+02
1.919790e+03,3.898385e+02
1.920755e+03,3.874063e+02
1.921719e+03,3.863307e+02
1.922683e+03,3.894439e+02
1.923647e+03,3.976182e+02
1.924612e+03,4.015879e+02
1.925576e+03,3.929374e+02
1.926540e+03,3.862422e+02
1.927504e+03,3.831859e+02
1.928469e+03,3.824594e+02
1.929433e+03,3.839770e+02
1.930397e+03,3.860372e+02
1.931361e+03,3.881688e+02
1.932325e+03,3.894339e+02
1.933290e+03,3.887462e+02
1.934254e+03,3.874932e+02
1.935218e+03,3.891087e+02
1.936182e+03,3.914104e+02
1.937147e+03,3.907794e+02
1.938111e+03,3.876503e+02
1.939075e+03,3.868802e+02
1.940039e+03,3.880693e+02
1.941004e+03,3.869500e+02
1.941968e+03,3.828271e+02
1.942932e+03,3.799311e+02
1.943896e+03,3.801956e+02
1.944860e+03,3.796869e+02
1.945825e+03,3.781593e+02
1.946789e+03,3.769570e+02
1.947753e+03,3.763834e+02
1.948717e+03,3.770262e+02
1.949682e+03,3.800900e+02
1.950646e+03,3.824308e+02
1.951610e+03,3.818837e+02
1.952574e+03,3.801061e+02
1.953539e+03,3.795753e+02
1.954503e+03,3.789684e+02
1.955467e+03,3.762452e+02
1.956431e+03,3.730582e+02
1.957396e+03,3.746592e+02
1.958360e+03,3.787774e+02
1.959324e+03,3.797613e+02
1.960288e+03,3.778796e+02
1.961252e+03,3.778072e+02
1.962217e+03,3.800160e+02
1.963181e+03,3.766842e+02
1.964145e+03,3.683759e+02
1.965109e+03,3.637751e+02
1.966074e+03,3.709276e+02
1.967038e+03,3.747076e+02
1.968002e+03,3.731036e+02
1.968966e+03,3.709200e+02
1.969931e+03,3.701521e+02
1.970895e+03,3.702846e+02
1.971859e+03,3.719193e+02
1.972823e+03,3.740596e+02
1.973787e+03,3.764994e+02
1.974752e+03,3.779826e+02
1.975716e+03,3.761812e+02
1.976680e+03,3.730068e+02
1.977644e+03,3.699029e+02
1.978609e+03,3.679461e+02
1.979573e+03,3.693571e+02
1.980537e+03,3.726344e+02
1.981501e+03,3.724950e+02
1.982466e+03,3.701157e+02
1.983430e+03,3.690705e+02
1.984394e+03,3.696592e+02
1.985358e+03,3.717027e+02
1.986323e+03,3.745666e+02
1.987287e+03,3.744047e+02
1.988251e+03,3.694947e+02
1.989215e+03,3.639793e+02
1.990179e+03,3.576291e+02
1.991144e+03,3.563224e+02
1.992108e+03,3.621042e+02
1.993072e+03,3.675160e+02
1.994036e+03,3.652562e+02
1.995001e+03,3.644962e+02
1.995965e+03,3.682255e+02
1.996929e+03,3.723226e+02
1.997893e+03,3.729853e+02
1.998858e+03,3.715176e+02
1.999822e+03,3.678930e+02
2.000786e+03,3.637998e+02
2.001750e+03,3.603451e+02
2.002714e+03,3.584306e+02
2.003679e+03,3.611766e+02
2.004643e+03,3.653133e+02
2.005607e+03,3.652232e+02
2.006571e+03,3.622403e+02
2.007536e+03,3.616433e+02
2.008500e+03,3.629738e+02
2.009464e+03,3.655398e+02
2.010428e+03,3.688435e+02
2.011393e+03,3.685274e+02
2.012357e+03,3.641729e+02
2.013321e+03,3.601172e+02
2.014285e+03,3.566729e+02
2.015250e+03,3.552376e+02
2.016214e+03,3.590456e+02
2.017178e+03,3.600727e+02
2.018142e+03,3.578367e+02
2.019106e+03,3.557010e+02
2.020071e+03,3.552996e+02
2.021035e+03,3.554249e+02
2.021999e+03,3.559248e+02
2.022963e+03,3.556606e+02
2.023928e+03,3.538613e+02
2.024892e+03,3.527957e+02
2.025856e+03,3.571905e+02
2.026820e+03,3.604423e+02
2.027785e+03,3.579338e+02
2.028749e+03,3.530863e+02
2.029713e+03,3.505220e+02
2.030677e+03,3.490563e+02
2.031641e+03,3.464536e+02
2.032606e+03,3.440570e+02
2.033570e+03,3.443373e+02
2.034534e+03,3.466281e+02
2.035498e+03,3.494455e+02
2.036463e+03,3.517834e+02
2.037427e+03,3.501405e+02
2.038391e+03,3.449258e+02
2.039355e+03,3.447856e+02
2.040320e+03,3.482616e+02
2.041284e+03,3.485650e+02
2.042248e+03,3.439973e+02
2.043212e+03,3.406158e+02
2.044177e+03,3.388549e+02
2.045141e+03,3.402664e+02
2.046105e+03,3.449045e+02
2.047069e+03,3.485835e+02
2.048033e+03,3.482509e+02
2.048998e+03,3.483452e+02
2.049962e+03,3.493817e+02
2.050926e+03,3.500158e+02
2.051890e+03,3.500639e+02
2.052854e+03,3.478897e+02
2.053819e+03,3.413460e+02
2.054783e+03,3.373206e+02
2.055747e+03,3.412286e+02
2.056711e+03,3.455767e+02
2.057676e+03,3.414529e+02
2.058640e+03,3.374391e+02
2.059604e+03,3.381849e+02
2.060568e+03,3.403874e+02
2.061533e+03,3.391061e+02
2.062497e+03,3.371826e+02
2.063461e+03,3.371760e+02
2.064425e+03,3.386662e+02
2.065390e+03,3.430268e+02
2.066354e+03,3.472160e+02
2.067318e+03,3.438691e+02
2.068282e+03,3.369696e+02
2.069247e+03,3.350963e+02
2.070211e+03,3.371562e+02
2.071175e+03,3.356336e+02
2.072139e+03,3.324801e+02
2.073104e+03,3.330907e+02
2.074068e+03,3.376840e+02
2.075032e+03,3.377851e+02
2.075996e+03,3.343014e+02
2.076960e+03,3.312826e+02
2.077925e+03,3.295675e+02
2.078889e+03,3.315742e+02
2.079853e+03,3.375947e+02
2.080817e+03,3.364079e+02
2.081782e+03,3.273454e+02
2.082746e+03,3.228742e+02
2.083710e+03,3.306404e+02
2.084674e+03,3.352663e+02
2.085639e+03,3.361087e+02
2.086603e+03,3.352983e+02
2.087567e+03,3.326887e+02
2.088531e+03,3.292201e+02
2.089496e+03,3.242487e+02
2.090460e+03,3.223553e+02
2.091424e+03,3.273759e+02
2.092388e+03,3.322314e+02
2.093353e+03,3.323901e+02
2.094317e+03,3.310544e+02
2.095281e+03,3.283710e+02
2.096245e+03,3.258235e+02
2.097209e+03,3.253234e+02
2.098174e+03,3.250412e+02
2.099138e+03,3.242334e+02
2.100102e+03,3.234409e+02
2.101066e+03,3.236090e+02
2.102031e+03,3.235818e+02
2.102995e+03,3.207801e+02
2.103959e+03,3.190918e+02
2.104923e+03,3.237838e+02
2.105887e+03,3.298577e+02
2.106852e+03,3.268863e+02
2.107816e+03,3.214781e+02
2.108780e+03,3.216386e+02
2.109744e+03,3.247015e+02
2.110708e+03,3.245590e+02
2.111673e+03,3.229369e+02
2.112637e+03,3.214718e+02
2.113601e+03,3.203696e+02
2.114565e+03,3.214402e+02
2.115530e+03,3.229886e+02
2.116494e+03,3.203268e+02
2.117458e+03,3.151207e+02
2.118422e+03,3.122109e+02
2.119387e+03,3.116178e+02
2.120351e+03,3.176865e+02
2.121315e+03,3.272318e+02
2.122279e+03,3.294339e+02
2.123244e+03,3.237121e+02
2.124208e+03,3.226400e+02
2.125172e+03,3.247133e+02
2.126136e+03,3.239096e+02
2.127101e+03,3.185132e+02
2.128065e+03,3.159916e+02
2.129029e+03,3.160543e+02
2.129993e+03,3.173897e+02
2.130958e+03,3.194641e+02
2.131922e+03,3.215974e+02
2.132886e+03,3.239810e+02
2.133850e+03,3.234195e+02
2.134814e+03,3.201064e+02
2.135779e+03,3.179229e+02
2.136743e+03,3.184259e+02
2.137707e+03,3.182737e+02
2.138671e+03,3.174394e+02
2.139636e+03,3.162989e+02
2.140600e+03,3.142520e+02
2.141564e+03,3.138517e+02
2.142528e+03,3.153450e+02
2.143493e+03,3.174365e+02
2.144457e+03,3.206528e+02
2.145421e+03,3.185891e+02
2.146385e+03,3.080624e+02
2.147350e+03,3.007795e+02
2.148314e+03,3.000918e+02
2.149278e+03,3.024086e+02
2.150242e+03,3.074134e+02
2.151207e+03,3.111154e+02
2.152171e+03,3.127220e+02
2.153135e+03,3.133998e+02
2.154099e+03,3.142296e+02
2.155063e+03,3.150176e+02
2.156028e+03,3.161475e+02
2.156992e+03,3.158082e+02
2.157956e+03,3.104635e+02
2.158920e+03,3.061402e+02
2.159885e+03,3.055644e+02
2.160849e+03,3.068266e+02
2.161813e+03,3.100745e+02
2.162777e+03,3.121729e+02
2.163741e+03,3.083122e+02
2.164706e+03,3.059402e+02
2.165670e+03,3.084702e+02
2.166634e+03,3.124811e+02
2.167598e+03,3.168181e+02
2.168563e+03,3.164048e+02
2.169527e+03,3.074406e+02
2.170491e+03,2.991087e+02
2.171455e+03,3.052446e+02
2.172420e+03,3.110930e+02
2.173384e+03,3.053776e+02
2.174348e+03,2.985683e+02
2.175312e+03,2.996459e+02
2.176277e+03,3.026938e+02
2.177241e+03,3.017098e+02
2.178205e+03,3.004609e+02
2.179169e+03,3.019070e+02
2.180134e+03,3.037811e+02
2.181098e+03,3.020436e+02
2.182062e+03,3.000042e+02
2.183026e+03,2.996822e+02
2.183990e+03,3.002035e+02
2.184955e+03,3.011590e+02
2.185919e+03,3.013595e+02
2.186883e+03,2.990747e+02
2.187847e+03,2.966190e+02
2.188812e+03,2.983179e+02
2.189776e+03,3.003346e+02
2.190740e+03,2.970392e+02
2.191704e+03,2.928290e+02
2.192668e+03,2.920819e+02
2.193633e+03,2.929552e+02
2.194597e+03,2.927577e+02
2.195561e+03,2.928632e+02
2.196525e+03,2.944556e+02
2.197490e+03,2.967213e+02
2.198454e+03,2.996279e+02
2.199418e+03,3.006425e+02
2.200382e+03,2.967371e+02
2.201347e+03,2.921230e+02
2.202311e+03,2.951587e+02
2.203275e+03,2.998103e+02
2.204239e+03,2.994513e+02
2.205204e+03,2.966719e+02
2.206168e+03,2.945067e+02
2.207132e+03,2.934063e+02
2.208096e+03,2.946894e+02
2.209061e+03,2.961191e+02
2.210025e+03,2.956425e+02
2.210989e+03,2.939403e+02
2.211953e+03,2.913271e+02
2.212917e+03,2.894928e+02
2.213882e+03,2.895291e+02
2.214846e+03,2.900526e+02
2.215810e+03,2.882989e+02
2.216774e+03,2.864668e+02
2.217739e+03,2.875995e+02
2.218703e+03,2.895595e+02
2.219667e+03,2.879892e+02
2.220631e+03,2.854563e+02
2.221595e+03,2.841196e+02
2.222560e+03,2.836067e+02
2.223524e+03,2.838961e+02
2.224488e+03,2.843174e+02
2.225452e+03,2.830849e+02
2.226417e+03,2.829719e+02
2.227381e+03,2.891362e+02
2.228345e+03,2.959162e+02
2.229309e+03,2.949440e+02
2.230274e+03,2.904493e+02
2.231238e+03,2.850329e+02
2.232202e+03,2.806046e+02
2.233166e+03,2.811921e+02
2.234131e+03,2.836486e+02
2.235095e+03,2.856457e+02
2.236059e+03,2.868858e+02
2.237023e+03,2.869491e+02
2.237988e+03,2.854601e+02
2.238952e+03,2.814519e+02
2.239916e+03,2.778349e+02
2.240880e+03,2.802697e+02
2.241844e+03,2.830265e+02
2.242809e+03,2.814888e+02
2.243773e+03,2.791372e+02
2.244737e+03,2.796585e+02
2.245701e+03,2.802516e+02
2.246666e+03,2.776743e+02
2.247630e+03,2.756286e+02
2.248594e+03,2.775096e+02
2.249558e+03,2.804965e+02
2.250522e+03,2.827269e+02
2.251487e+03,2.832004e+02
2.252451e+03,2.804832e+02
2.253415e+03,2.770520e+02
2.254379e+03,2.754957e+02
2.255344e+03,2.752727e+02
2.256308e+03,2.766131e+02
2.257272e+03,2.773436e+02
2.258236e+03,2.734869e+02
2.259201e+03,2.715697e+02
2.260165e+03,2.739382e+02
2.261129e+03,2.764911e+02
2.262093e+03,2.750139e+02
2.263058e+03,2.738806e+02
2.264022e+03,2.747986e+02
2.264986e+03,2.754034e+02
2.265950e+03,2.730778e+02
2.266915e+03,2.715753e+02
2.267879e+03,2.720299e+02
2.268843e+03,2.718767e+02
2.269807e+03,2.697774e+02
2.270771e+03,2.693995e+02
2.271736e+03,2.730154e+02
2.272700e+03,2.749247e+02
2.273664e+03,2.729454e+02
2.274628e+03,2.718803e+02
2.275593e+03,2.749810e+02
2.276557e+03,2.749761e+02
2.277521e+03,2.709225e+02
2.278485e+03,2.678484e+02
2.279449e+03,2.691640e+02
2.280414e+03,2.682743e+02
2.281378e+03,2.649170e+02
2.282342e+03,2.640822e+02
2.283306e+03,2.714649e+02
2.284271e+03,2.732573e+02
2.285235e+03,2.698311e+02
2.286199e+03,2.669685e+02
2.287163e+03,2.673719e+02
2.288128e+03,2.662990e+02
2.289092e+03,2.638721e+02
2.290056e+03,2.653924e+02
2.291020e+03,2.723110e+02
2.291985e+03,2.712182e+02
2.292949e+03,2.633878e+02
2.293913e+03,2.602028e+02
2.294877e+03,2.626075e+02
2.295842e+03,2.646036e+02
2.296806e+03,2.656620e+02
2.297770e+03,2.657974e+02
2.298734e+03,2.648041e+02
2.299698e+03,2.616085e+02
2.300663e+03,2.570457e+02
2.301627e+03,2.573874e+02
2.302591e+03,2.604167e+02
2.303555e+03,2.605428e+02
2.304520e+03,2.586355e+02
2.305484e+03,2.596284e+02
2.306448e+03,2.620511e+02
2.307412e+03,2.635338e+02
2.308376e+03,2.638125e+02
2.309341e+03,2.617550e+02
2.310305e+03,2.590787e+02
2.311269e+03,2.585685e+02
2.312233e+03,2.589111e+02
2.313198e+03,2.572220e+02
2.314162e+03,2.552433e+02
2.315126e+03,2.554838e+02
2.316090e+03,2.558816e+02
2.317055e+03,2.529480e+02
2.318019e+03,2.508879e+02
2.318983e+03,2.548459e+02
2.319947e+03,2.588562e+02
2.320912e+03,2.588969e+02
2.321876e+03,2.573787e+02
2.322840e+03,2.555736e+02
2.323804e+03,2.533163e+02
2.324769e+03,2.495014e+02
2.325733e+03,2.486666e+02
2.326697e+03,2.567670e+02
2.327661e+03,2.622816e+02
2.328625e+03,2.614799e+02
2.329590e+03,2.593821e+02
2.330554e+03,2.600229e+02
2.331518e+03,2.569154e+02
2.332482e+03,2.487589e+02
2.333447e+03,2.438403e+02
2.334411e+03,2.480197e+02
2.335375e+03,2.511938e+02
2.336339e+03,2.527475e+02
2.337303e+03,2.532990e+02
2.338268e+03,2.528028e+02
2.339232e+03,2.503431e+02
2.340196e+03,2.468636e+02
2.341160e+03,2.492179e+02
2.342125e+03,2.601765e+02
2.343089e+03,2.616552e+02
2.344053e+03,2.556941e+02
2.345017e+03,2.511720e+02
2.345982e+03,2.494309e+02
2.346946e+03,2.485451e+02
2.347910e+03,2.485161e+02
2.348874e+03,2.488607e+02
2.349839e+03,2.493186e+02
2.350803e+03,2.498013e+02
2.351767e+03,2.506359e+02
2.352731e+03,2.535766e+02
2.353696e+03,2.561872e+02
2.354660e+03,2.528091e+02
2.355624e+03,2.478466e+02
2.356588e+03,2.492375e+02
2.357552e+03,2.524746e+02
2.358517e+03,2.542462e+02
2.359481e+03,2.544195e+02
2.360445e+03,2.524550e+02
2.361409e+03,2.482755e+02
2.362374e+03,2.403404e+02
2.363338e+03,2.344220e+02
2.364302e+03,2.388067e+02
2.365266e+03,2.428433e+02
2.366230e+03,2.433760e+02
2.367195e+03,2.434380e+02
2.368159e+03,2.454950e+02
2.369123e+03,2.452837e+02
2.370087e+03,2.422916e+02
2.371052e+03,2.418679e+02
2.372016e+03,2.485707e+02
2.372980e+03,2.514418e+02
2.373944e+03,2.500507e+02
2.374909e+03,2.476010e+02
2.375873e+03,2.442878e+02
2.376837e+03,2.454521e+02
2.377801e+03,2.495984e+02
2.378766e+03,2.489168e+02
2.379730e+03,2.428394e+02
2.380694e+03,2.399541e+02
2.381658e+03,2.395266e+02
2.382623e+03,2.395879e+02
2.383587e+03,2.398063e+02
2.384551e+03,2.398270e+02
2.385515e+03,2.400640e+02
2.386479e+03,2.427296e+02
2.387444e+03,2.451335e+02
2.388408e+03,2.418011e+02
2.389372e+03,2.375310e+02
2.390336e+03,2.371436e+02
2.391301e+03,2.382402e+02
2.392265e+03,2.399329e+02
2.393229e+03,2.399062e+02
2.394193e+03,2.358780e+02
2.395157e+03,2.330595e+02
2.396122e+03,2.356043e+02
2.397086e+03,2.384146e+02
2.398050e+03,2.400456e+02
2.399014e+03,2.404480e+02
2.399979e+03,2.388120e+02
2.400943e+03,2.402353e+02
2.401907e+03,2.456488e+02
2.402871e+03,2.450865e+02
2.403836e+03,2.363555e+02
2.404800e+03,2.340949e+02
2.405764e+03,2.386642e+02
2.406728e+03,2.388940e+02
2.407693e+03,2.345132e+02
2.408657e+03,2.328875e+02
2.409621e+03,2.338472e+02
2.410585e+03,2.359523e+02
2.411550e+03,2.371187e+02
2.412514e+03,2.313053e+02
2.413478e+03,2.231733e+02
2.414442e+03,2.267429e+02
2.415406e+03,2.343449e+02
2.416371e+03,2.379369e+02
2.417335e+03,2.385908e+02
2.418299e+03,2.354467e+02
2.419263e+03,2.333122e+02
2.420228e+03,2.351457e+02
2.421192e+03,2.373379e+02
2.422156e+03,2.369479e+02
2.423120e+03,2.349680e+02
2.424084e+03,2.309478e+02
2.425049e+03,2.294286e+02
2.426013e+03,2.351464e+02
2.426977e+03,2.376724e+02
2.427941e+03,2.362925e+02
2.428906e+03,2.333585e+02
2.429870e+03,2.288961e+02
2.430834e+03,2.275958e+02
2.431798e+03,2.289687e+02
2.432763e+03,2.298463e+02
2.433727e+03,2.297632e+02
2.434691e+03,2.266597e+02
2.435655e+03,2.229143e+02
2.436620e+03,2.240806e+02
2.437584e+03,2.278401e+02
2.438548e+03,2.285990e+02
2.439512e+03,2.278186e+02
2.440477e+03,2.269106e+02
2.441441e+03,2.258096e+02
2.442405e+03,2.236349e+02
2.443369e+03,2.236213e+02
2.444333e+03,2.278789e+02
2.445298e+03,2.306989e+02
2.446262e+03,2.249392e+02
2.447226e+03,2.199355e+02
2.448190e+03,2.173568e+02
2.449155e+03,2.182181e+02
2.450119e+03,2.275295e+02
2.451083e+03,2.299298e+02
2.452047e+03,2.261227e+02
2.453011e+03,2.253521e+02
2.453976e+03,2.302153e+02
2.454940e+03,2.267377e+02
2.455904e+03,2.184143e+02
2.456868e+03,2.152949e+02
2.457833e+03,2.165730e+02
2.458797e+03,2.196319e+02
2.459761e+03,2.231411e+02
2.460725e+03,2.255801e+02
2.461690e+03,2.262444e+02
2.462654e+03,2.220777e+02
2.463618e+03,2.183759e+02
2.464582e+03,2.185743e+02
2.465547e+03,2.200125e+02
2.466511e+03,2.210076e+02
2.467475e+03,2.199758e+02
2.468439e+03,2.163780e+02
2.469404e+03,2.154707e+02
2.470368e+03,2.248801e+02
2.471332e+03,2.267343e+02
2.472296e+03,2.212658e+02
2.473260e+03,2.172635e+02
2.474225e+03,2.170935e+02
2.475189e+03,2.167663e+02
2.476153e+03,2.161529e+02
2.477117e+03,2.127122e+02
2.478082e+03,2.087760e+02
2.479046e+03,2.140705e+02
2.480010e+03,2.222311e+02
2.480974e+03,2.249949e+02
2.481938e+03,2.246839e+02
2.482903e+03,2.233518e+02
2.483867e+03,2.215014e+02
2.484831e+03,2.194470e+02
2.485795e+03,2.169389e+02
2.486760e+03,2.123947e+02
2.487724e+03,2.109678e+02
2.488688e+03,2.134762e+02
2.489652e+03,2.155893e+02
2.490617e+03,2.139834e+02
2.491581e+03,2.155575e+02
2.492545e+03,2.197227e+02
2.493509e+03,2.223051e+02
2.494474e+03,2.224458e+02
2.495438e+03,2.204652e+02
2.496402e+03,2.168013e+02
2.497366e+03,2.109506e+02
2.498331e+03,2.056766e+02
2.499295e+03,2.071263e+02
2.500259e+03,2.115395e+02
2.501223e+03,2.168092e+02
2.502188e+03,2.197254e+02
2.503152e+03,2.139925e+02
2.504116e+03,2.095606e+02
2.505080e+03,2.092952e+02
2.506044e+03,2.112338e+02
2.507009e+03,2.157006e+02
2.507973e+03,2.195055e+02
2.508937e+03,2.223648e+02
2.509901e+03,2.208479e+02
2.510865e+03,2.137015e+02
2.511830e+03,2.104699e+02
2.512794e+03,2.099496e+02
2.513758e+03,2.091953e+02
2.514722e+03,2.086915e+02
2.515687e+03,2.107841e+02
2.516651e+03,2.139010e+02
2.517615e+03,2.169016e+02
2.518579e+03,2.183073e+02
2.519544e+03,2.139077e+02
2.520508e+03,2.115821e+02
2.521472e+03,2.146339e+02
2.522436e+03,2.165256e+02
2.523401e+03,2.102171e+02
2.524365e+03,2.083900e+02
2.525329e+03,2.112844e+02
2.526293e+03,2.102760e+02
2.527258e+03,2.031293e+02
2.528222e+03,2.014825e+02
2.529186e+03,2.038284e+02
2.530150e+03,2.049682e+02
2.531115e+03,2.054060e+02
2.532079e+03,2.088409e+02
2.533043e+03,2.117296e+02
2.534007e+03,2.104046e+02
2.534971e+03,2.070120e+02
2.535936e+03,2.030000e+02
2.536900e+03,2.006338e+02
2.537864e+03,2.006065e+02
2.538828e+03,2.028538e+02
2.539792e+03,2.083444e+02
2.540757e+03,2.092736e+02
2.541721e+03,2.050811e+02
2.542685e+03,2.066902e+02
2.543649e+03,2.143706e+02
2.544614e+03,2.175880e+02
2.545578e+03,2.167848e+02
2.546542e+03,2.162443e+02
2.547506e+03,2.156062e+02
2.548471e+03,2.121412e+02
2.549435e+03,2.095025e+02
2.550399e+03,2.116664e+02
2.551363e+03,2.144818e+02
2.552328e+03,2.147763e+02
2.553292e+03,2.143280e+02
2.554256e+03,2.134380e+02
2.555220e+03,2.132214e+02
2.556185e+03,2.137929e+02
2.557149e+03,2.140187e+02
2.558113e+03,2.136089e+02
2.559077e+03,2.123932e+02
2.560042e+03,2.107399e+02
2.561006e+03,2.112085e+02
2.561970e+03,2.123254e+02
2.562934e+03,2.100696e+02
2.563898e+03,2.061313e+02
2.564863e+03,2.008929e+02
2.565827e+03,1.979522e+02
2.566791e+03,2.027215e+02
2.567755e+03,2.071429e+02
2.568719e+03,2.089473e+02
2.569684e+03,2.094002e+02
2.570648e+03,2.086990e+02
2.571612e+03,2.075988e+02
2.572576e+03,2.065598e+02
2.573541e+03,2.069726e+02
2.574505e+03,2.083573e+02
2.575469e+03,2.090295e+02
2.576433e+03,2.087324e+02
2.577398e+03,2.069848e+02
2.578362e+03,2.050951e+02
2.579326e+03,2.058035e+02
2.580290e+03,2.049691e+02
2.581255e+03,2.006364e+02
2.582219e+03,1.964907e+02
2.583183e+03,1.949307e+02
2.584147e+03,1.952878e+02
2.585112e+03,1.976389e+02
2.586076e+03,2.004448e+02
2.587040e+03,2.033835e+02
2.588004e+03,2.030267e+02
2.588969e+03,2.004113e+02
2.589933e+03,1.979851e+02
2.590897e+03,1.962901e+02
2.591861e+03,1.969463e+02
2.592825e+03,1.976156e+02
2.593790e+03,1.964444e+02
2.594754e+03,1.957542e+02
2.595718e+03,1.977176e+02
2.596682e+03,1.983013e+02
2.597646e+03,1.965078e+02
2.598611e+03,1.960095e+02
2.599575e+03,1.972807e+02
2.600539e+03,1.998361e+02
2.601503e+03,2.024247e+02
2.602468e+03,2.009496e+02
2.603432e+03,1.974568e+02
2.604396e+03,1.962027e+02
2.605360e+03,1.956484e+02
2.606325e+03,1.945021e+02
2.607289e+03,1.927110e+02
2.608253e+03,1.901461e+02
2.609217e+03,1.884412e+02
2.610182e+03,1.880733e+02
2.611146e+03,1.893848e+02
2.612110e+03,1.921098e+02
2.613074e+03,1.949708e+02
2.614039e+03,1.974834e+02
2.615003e+03,1.974771e+02
2.615967e+03,1.955867e+02
2.616931e+03,1.923687e+02
2.617896e+03,1.904523e+02
2.618860e+03,1.963272e+02
2.619824e+03,1.987672e+02
2.620788e+03,1.935010e+02
2.621752e+03,1.875358e+02
2.622717e+03,1.837582e+02
2.623681e+03,1.847046e+02
2.624645e+03,1.896441e+02
2.625609e+03,1.923083e+02
2.626573e+03,1.926243e+02
2.627538e+03,1.941830e+02
2.628502e+03,1.952879e+02
2.629466e+03,1.928430e+02
2.630430e+03,1.896599e+02
2.631395e+03,1.891132e+02
2.632359e+03,1.901538e+02
2.633323e+03,1.934064e+02
2.634287e+03,1.938722e+02
2.635252e+03,1.907473e+02
2.636216e+03,1.887923e+02
2.637180e+03,1.889182e+02
2.638144e+03,1.908501e+02
2.639109e+03,1.934146e+02
2.640073e+03,1.934606e+02
2.641037e+03,1.926424e+02
2.642001e+03,1.935749e+02
2.642966e+03,1.927934e+02
2.643930e+03,1.879554e+02
2.644894e+03,1.843174e+02
2.645858e+03,1.874246e+02
2.646823e+03,1.871153e+02
2.647787e+03,1.833307e+02
2.648751e+03,1.827641e+02
2.649715e+03,1.859117e+02
2.650679e+03,1.898243e+02
2.651644e+03,1.921932e+02
2.652608e+03,1.891883e+02
2.653572e+03,1.846212e+02
2.654536e+03,1.830705e+02
2.655500e+03,1.845385e+02
2.656465e+03,1.897282e+02
2.657429e+03,1.925561e+02
2.658393e+03,1.911480e+02
2.659357e+03,1.841799e+02
2.660322e+03,1.736775e+02
2.661286e+03,1.733761e+02
2.662250e+03,1.801514e+02
2.663214e+03,1.872460e+02
2.664179e+03,1.918166e+02
2.665143e+03,1.886064e+02
2.666107e+03,1.856418e+02
2.667071e+03,1.871860e+02
2.668036e+03,1.894109e+02
2.669000e+03,1.899722e+02
2.669964e+03,1.930353e+02
2.670928e+03,1.975197e+02
2.671893e+03,1.943665e+02
2.672857e+03,1.862390e+02
2.673821e+03,1.895000e+02
2.674785e+03,1.945793e+02
2.675750e+03,1.905200e+02
2.676714e+03,1.848049e+02
2.677678e+03,1.862663e+02
2.678642e+03,1.869872e+02
2.679606e+03,1.852596e+02
2.680571e+03,1.852441e+02
2.681535e+03,1.874364e+02
2.682499e+03,1.868002e+02
2.683463e+03,1.841386e+02
2.684427e+03,1.843584e+02
2.685392e+03,1.860768e+02
2.686356e+03,1.873625e+02
2.687320e+03,1.876715e+02
2.688284e+03,1.863129e+02
2.689249e+03,1.842088e+02
2.690213e+03,1.815695e+02
2.691177e+03,1.806001e+02
2.692141e+03,1.825617e+02
2.693106e+03,1.780431e+02
2.694070e+03,1.719457e+02
2.695034e+03,1.779819e+02
2.695998e+03,1.882387e+02
2.696963e+03,1.892726e+02
2.697927e+03,1.880776e+02
2.698891e+03,1.883419e+02
2.699855e+03,1.861801e+02
2.700820e+03,1.787304e+02
2.701784e+03,1.767290e+02
2.702748e+03,1.799442e+02
2.703712e+03,1.773948e+02
2.704677e+03,1.720495e+02
2.705641e+03,1.784934e+02
2.706605e+03,1.860027e+02
2.707569e+03,1.783684e+02
2.708533e+03,1.731961e+02
2.709498e+03,1.789178e+02
2.710462e+03,1.835768e+02
2.711426e+03,1.812207e+02
2.712390e+03,1.837582e+02
2.713354e+03,1.890661e+02
2.714319e+03,1.849246e+02
2.715283e+03,1.765009e+02
2.716247e+03,1.764471e+02
2.717211e+03,1.804964e+02
2.718176e+03,1.856026e+02
2.719140e+03,1.892811e+02
2.720104e+03,1.897297e+02
2.721068e+03,1.880403e+02
2.722033e+03,1.843403e+02
2.722997e+03,1.793038e+02
2.723961e+03,1.741640e+02
2.724925e+03,1.744203e+02
2.725890e+03,1.772075e+02
2.726854e+03,1.790651e+02
2.727818e+03,1.795771e+02
2.728782e+03,1.781982e+02
2.729747e+03,1.771750e+02
2.730711e+03,1.779237e+02
2.731675e+03,1.782997e+02
2.732639e+03,1.787790e+02
2.733604e+03,1.828936e+02
2.734568e+03,1.880169e+02
2.735532e+03,1.869363e+02
2.736496e+03,1.820655e+02
2.737460e+03,1.747012e+02
2.738425e+03,1.710807e+02
2.739389e+03,1.765001e+02
2.740353e+03,1.771057e+02
2.741317e+03,1.714273e+02
2.742281e+03,1.710272e+02
2.743246e+03,1.744381e+02
2.744210e+03,1.743894e+02
2.745174e+03,1.732544e+02
2.746138e+03,1.750422e+02
2.747103e+03,1.770423e+02
2.748067e+03,1.783116e+02
2.749031e+03,1.785098e+02
2.749995e+03,1.769366e+02
2.750960e+03,1.752508e+02
2.751924e+03,1.734842e+02
2.752888e+03,1.713006e+02
2.753852e+03,1.694421e+02
2.754817e+03,1.704327e+02
2.755781e+03,1.716977e+02
2.756745e+03,1.715925e+02
2.757709e+03,1.721332e+02
2.758674e+03,1.737963e+02
2.759638e+03,1.740455e+02
2.760602e+03,1.724659e+02
2.761566e+03,1.704582e+02
2.762531e+03,1.689235e+02
2.763495e+03,1.692248e+02
2.764459e+03,1.702790e+02
2.765423e+03,1.720625e+02
2.766387e+03,1.722021e+02
2.767352e+03,1.704410e+02
2.768316e+03,1.730459e+02
2.769280e+03,1.809099e+02
2.770244e+03,1.784035e+02
2.771208e+03,1.712471e+02
2.772173e+03,1.711341e+02
2.773137e+03,1.749815e+02
2.774101e+03,1.830740e+02
2.775065e+03,1.829610e+02
2.776030e+03,1.653980e+02
2.776994e+03,1.613513e+02
2.777958e+03,1.696958e+02
2.778922e+03,1.696403e+02
2.779887e+03,1.642862e+02
2.780851e+03,1.682965e+02
2.781815e+03,1.723825e+02
2.782779e+03,1.699555e+02
2.783744e+03,1.679172e+02
2.784708e+03,1.704160e+02
2.785672e+03,1.748198e+02
2.786636e+03,1.796323e+02
2.787601e+03,1.763848e+02
2.788565e+03,1.695059e+02
2.789529e+03,1.721866e+02
2.790493e+03,1.764468e+02
2.791458e+03,1.751085e+02
2.792422e+03,1.727311e+02
2.793386e+03,1.707703e+02
2.794350e+03,1.723070e+02
2.795314e+03,1.778346e+02
2.796279e+03,1.752548e+02
2.797243e+03,1.697602e+02
2.798207e+03,1.706259e+02
2.799171e+03,1.726690e+02
2.800135e+03,1.675263e+02
2.801100e+03,1.659963e+02
2.802064e+03,1.710641e+02
2.803028e+03,1.740252e+02
2.803992e+03,1.737277e+02
2.804957e+03,1.657361e+02
2.805921e+03,1.575201e+02
2.806885e+03,1.651448e+02
2.807849e+03,1.738825e+02
2.808814e+03,1.763480e+02
2.809778e+03,1.759669e+02
2.810742e+03,1.734986e+02
2.811706e+03,1.745601e+02
2.812671e+03,1.763664e+02
2.813635e+03,1.686785e+02
2.814599e+03,1.583724e+02
2.815563e+03,1.597791e+02
2.816528e+03,1.639039e+02
2.817492e+03,1.685992e+02
2.818456e+03,1.677744e+02
2.819420e+03,1.619133e+02
2.820385e+03,1.594632e+02
2.821349e+03,1.607049e+02
2.822313e+03,1.628866e+02
2.823277e+03,1.656511e+02
2.824241e+03,1.684571e+02
2.825206e+03,1.716426e+02
2.826170e+03,1.763022e+02
2.827134e+03,1.761091e+02
2.828098e+03,1.714426e+02
2.829063e+03,1.731736e+02
2.830027e+03,1.775278e+02
2.830991e+03,1.763646e+02
2.831955e+03,1.731313e+02
2.832919e+03,1.668032e+02
2.833884e+03,1.671214e+02
2.834848e+03,1.742299e+02
2.835812e+03,1.728750e+02
2.836776e+03,1.640214e+02
2.837741e+03,1.715146e+02
2.838705e+03,1.807736e+02
2.839669e+03,1.744514e+02
2.840633e+03,1.685542e+02
2.841598e+03,1.718836e+02
2.842562e+03,1.758500e+02
2.843526e+03,1.786127e+02
2.844490e+03,1.779199e+02
2.845455e+03,1.761650e+02
2.846419e+03,1.784986e+02
2.847383e+03,1.811321e+02
2.848347e+03,1.780416e+02
2.849312e+03,1.792063e+02
2.850276e+03,1.859383e+02
2.851240e+03,1.834644e+02
2.852204e+03,1.738150e+02
2.853168e+03,1.730074e+02
2.854133e+03,1.766341e+02
2.855097e+03,1.812807e+02
2.856061e+03,1.818881e+02
2.857025e+03,1.772686e+02
2.857990e+03,1.727685e+02
2.858954e+03,1.700227e+02
2.859918e+03,1.684398e+02
2.860882e+03,1.691641e+02
2.861846e+03,1.747310e+02
2.862811e+03,1.782944e+02
2.863775e+03,1.712721e+02
2.864739e+03,1.686960e+02
2.865703e+03,1.748474e+02
2.866668e+03,1.846235e+02
2.867632e+03,1.934585e+02
2.868596e+03,1.871892e+02
2.869560e+03,1.775710e+02
2.870525e+03,1.781098e+02
2.871489e+03,1.824339e+02
2.872453e+03,1.886590e+02
2.873417e+03,1.857541e+02
2.874382e+03,1.758086e+02
2.875346e+03,1.807992e+02
2.876310e+03,1.901108e+02
2.877274e+03,1.852791e+02
2.878239e+03,1.811549e+02
2.879203e+03,1.832700e+02
2.880167e+03,1.856048e+02
2.881131e+03,1.865740e+02
2.882095e+03,1.919356e+02
2.883060e+03,1.984970e+02
2.884024e+03,2.023108e+02
2.884988e+03,2.005385e+02
2.885952e+03,1.875278e+02
2.886917e+03,1.819081e+02
2.887881e+03,1.890460e+02
2.888845e+03,1.936674e+02
2.889809e+03,1.952129e+02
2.890773e+03,1.924578e+02
2.891738e+03,1.897209e+02
2.892702e+03,1.934525e+02
2.893666e+03,1.957218e+02
2.894630e+03,1.951176e+02
2.895595e+03,1.936858e+02
2.896559e+03,1.921894e+02
2.897523e+03,1.919849e+02
2.898487e+03,1.936765e+02
2.899452e+03,2.013834e+02
2.900416e+03,2.026651e+02
2.901380e+03,1.956122e+02
2.902344e+03,1.906802e+02
2.903309e+03,1.894058e+02
2.904273e+03,1.872244e+02
2.905237e+03,1.859076e+02
2.906201e+03,1.883403e+02
2.907166e+03,1.864434e+02
2.908130e+03,1.765103e+02
2.909094e+03,1.771410e+02
2.910058e+03,1.897711e+02
2.911022e+03,1.911557e+02
2.911987e+03,1.852161e+02
2.912951e+03,1.759407e+02
2.913915e+03,1.689734e+02
2.914879e+03,1.681838e+02
2.915844e+03,1.730139e+02
2.916808e+03,1.815521e+02
2.917772e+03,1.817919e+02
2.918736e+03,1.773545e+02
2.919700e+03,1.726539e+02
2.920665e+03,1.703917e+02
2.921629e+03,1.746017e+02
2.922593e+03,1.771132e+02
2.923557e+03,1.781454e+02
2.924522e+03,1.814899e+02
2.925486e+03,1.845595e+02
2.926450e+03,1.794861e+02
2.927414e+03,1.731607e+02
2.928379e+03,1.678035e+02
2.929343e+03,1.663710e+02
2.930307e+03,1.679164e+02
2.931271e+03,1.669256e+02
2.932236e+03,1.664206e+02
2.933200e+03,1.772761e+02
2.934164e+03,1.808234e+02
2.935128e+03,1.689089e+02
2.936093e+03,1.617519e+02
2.937057e+03,1.622001e+02
2.938021e+03,1.730438e+02
2.938985e+03,1.839216e+02
2.939949e+03,1.745202e+02
2.940914e+03,1.665516e+02
2.941878e+03,1.676549e+02
2.942842e+03,1.662155e+02
2.943806e+03,1.604642e+02
2.944771e+03,1.677091e+02
2.945735e+03,1.784175e+02
2.946699e+03,1.805239e+02
2.947663e+03,1.764277e+02
2.948627e+03,1.678326e+02
2.949592e+03,1.653307e+02
2.950556e+03,1.699163e+02
2.951520e+03,1.681420e+02
2.952484e+03,1.633788e+02
2.953449e+03,1.579516e+02
2.954413e+03,1.608192e+02
2.955377e+03,1.754043e+02
2.956341e+03,1.906080e+02
2.957306e+03,2.023814e+02
2.958270e+03,2.013027e+02
2.959234e+03,1.934409e+02
2.960198e+03,1.849919e+02
2.961163e+03,1.768599e+02
2.962127e+03,1.683286e+02
2.963091e+03,1.698894e+02
2.964055e+03,1.771218e+02
2.965020e+03,1.730393e+02
2.965984e+03,1.668260e+02
2.966948e+03,1.651194e+02
2.967912e+03,1.641976e+02
2.968876e+03,1.628904e+02
2.969841e+03,1.597225e+02
2.970805e+03,1.560831e+02
2.971769e+03,1.549456e+02
2.972733e+03,1.540835e+02
2.973698e+03,1.515593e+02
2.974662e+03,1.515614e+02
2.975626e+03,1.553717e+02
2.976590e+03,1.562302e+02
2.977554e+03,1.558691e+02
2.978519e+03,1.573934e+02
2.979483e+03,1.549456e+02
2.980447e+03,1.427022e+02
2.981411e+03,1.401160e+02
2.982376e+03,1.495877e+02
2.983340e+03,1.631049e+02
2.984304e+03,1.687415e+02
2.985268e+03,1.540401e+02
2.986233e+03,1.417379e+02
2.987197e+03,1.452042e+02
2.988161e+03,1.469254e+02
2.989125e+03,1.479757e+02
2.990090e+03,1.556191e+02
2.991054e+03,1.612817e+02
2.992018e+03,1.585259e+02
2.992982e+03,1.497397e+02
2.993947e+03,1.336482e+02
2.994911e+03,1.333929e+02
2.995875e+03,1.404036e+02
2.996839e+03,1.371043e+02
2.997803e+03,1.395504e+02
2.998768e+03,1.597040e+02
2.999732e+03,1.641195e+02
3.000696e+03,1.485889e+02
3.001660e+03,1.520413e+02
3.002625e+03,1.606866e+02
3.003589e+03,1.605961e+02
3.004553e+03,1.569932e+02
3.005517e+03,1.523485e+02
3.006481e+03,1.544587e+02
3.007446e+03,1.591663e+02
3.008410e+03,1.464660e+02
3.009374e+03,1.382788e+02
3.010338e+03,1.479180e+02
3.011303e+03,1.547679e+02
3.012267e+03,1.517855e+02
3.013231e+03,1.553253e+02
3.014195e+03,1.599011e+02
3.015160e+03,1.559213e+02
3.016124e+03,1.473269e+02
3.017088e+03,1.362447e+02
3.018052e+03,1.399505e+02
3.019017e+03,1.569100e+02
3.019981e+03,1.550630e+02
3.020945e+03,1.478010e+02
3.021909e+03,1.465552e+02
3.022874e+03,1.484353e+02
3.023838e+03,1.514851e+02
3.024802e+03,1.482518e+02
3.025766e+03,1.419631e+02
3.026730e+03,1.400024e+02
3.027695e+03,1.427090e+02
3.028659e+03,1.502212e+02
3.029623e+03,1.519548e+02
3.030587e+03,1.485660e+02
3.031552e+03,1.488093e+02
3.032516e+03,1.493962e+02
3.033480e+03,1.467516e+02
3.034444e+03,1.400009e+02
3.035408e+03,1.311535e+02
3.036373e+03,1.430910e+02
3.037337e+03,1.628608e+02
3.038301e+03,1.420697e+02
3.039265e+03,1.250263e+02
3.040230e+03,1.435825e+02
3.041194e+03,1.476432e+02
3.042158e+03,1.391021e+02
3.043122e+03,1.366156e+02
3.044087e+03,1.372634e+02
3.045051e+03,1.349170e+02
3.046015e+03,1.368932e+02
3.046979e+03,1.460414e+02
3.047944e+03,1.451713e+02
3.048908e+03,1.424702e+02
3.049872e+03,1.523822e+02
3.050836e+03,1.570784e+02
3.051801e+03,1.421274e+02
3.052765e+03,1.391026e+02
3.053729e+03,1.477965e+02
3.054693e+03,1.437724e+02
3.055657e+03,1.419526e+02
3.056622e+03,1.528817e+02
3.057586e+03,1.581245e+02
3.058550e+03,1.522974e+02
3.059514e+03,1.456288e+02
3.060479e+03,1.401957e+02
3.061443e+03,1.382227e+02
3.062407e+03,1.373198e+02
3.063371e+03,1.366544e+02
3.064335e+03,1.451158e+02
3.065300e+03,1.580800e+02
3.066264e+03,1.475549e+02
3.067228e+03,1.415636e+02
3.068192e+03,1.620886e+02
3.069157e+03,1.632580e+02
3.070121e+03,1.466611e+02
3.071085e+03,1.398345e+02
3.072049e+03,1.388181e+02
3.073014e+03,1.376025e+02
3.073978e+03,1.379307e+02
3.074942e+03,1.404007e+02
3.075906e+03,1.466664e+02
3.076871e+03,1.516491e+02
3.077835e+03,1.468592e+02
3.078799e+03,1.435492e+02
3.079763e+03,1.500824e+02
3.080728e+03,1.495799e+02
3.081692e+03,1.444597e+02
3.082656e+03,1.481372e+02
3.083620e+03,1.510699e+02
3.084584e+03,1.479978e+02
3.085549e+03,1.468762e+02
3.086513e+03,1.494255e+02
3.087477e+03,1.481987e+02
3.088441e+03,1.469026e+02
3.089406e+03,1.503401e+02
3.090370e+03,1.535220e+02
3.091334e+03,1.553205e+02
3.092298e+03,1.529424e+02
3.093262e+03,1.503613e+02
3.094227e+03,1.611147e+02
3.095191e+03,1.618978e+02
3.096155e+03,1.432077e+02
3.097119e+03,1.358180e+02
3.098084e+03,1.365889e+02
3.099048e+03,1.343910e+02
3.100012e+03,1.345713e+02
3.100976e+03,1.429597e+02
3.101941e+03,1.476777e+02
3.102905e+03,1.486022e+02
3.103869e+03,1.559754e+02
3.104833e+03,1.553698e+02
3.105798e+03,1.384314e+02
3.106762e+03,1.339334e+02
3.107726e+03,1.464733e+02
3.108690e+03,1.514811e+02
3.109655e+03,1.513817e+02
3.110619e+03,1.479784e+02
3.111583e+03,1.455156e+02
3.112547e+03,1.452171e+02
3.113511e+03,1.523092e+02
3.114476e+03,1.593645e+02
3.115440e+03,1.435515e+02
3.116404e+03,1.381132e+02
3.117368e+03,1.593797e+02
3.118333e+03,1.641980e+02
3.119297e+03,1.557685e+02
3.120261e+03,1.416461e+02
3.121225e+03,1.297433e+02
3.122189e+03,1.234332e+02
3.123154e+03,1.382194e+02
3.124118e+03,1.640463e+02
3.125082e+03,1.576711e+02
3.126046e+03,1.489540e+02
3.127011e+03,1.528714e+02
3.127975e+03,1.585228e+02
3.128939e+03,1.625013e+02
3.129903e+03,1.587508e+02
3.130868e+03,1.522312e+02
3.131832e+03,1.412872e+02
3.132796e+03,1.477013e+02
3.133760e+03,1.658748e+02
3.134725e+03,1.611335e+02
3.135689e+03,1.518995e+02
3.136653e+03,1.565431e+02
3.137617e+03,1.621327e+02
3.138582e+03,1.650079e+02
3.139546e+03,1.618408e+02
3.140510e+03,1.566866e+02
3.141474e+03,1.542409e+02
3.142438e+03,1.552298e+02
3.143403e+03,1.569444e+02
3.144367e+03,1.299916e+02
3.145331e+03,1.014737e+02
3.146295e+03,1.279165e+02
3.147260e+03,1.514617e+02
3.148224e+03,1.573914e+02
3.149188e+03,1.617693e+02
3.150152e+03,1.611123e+02
3.151116e+03,1.482127e+02
3.152081e+03,1.472442e+02
3.153045e+03,1.684658e+02
3.154009e+03,1.690533e+02
3.154973e+03,1.556946e+02
3.155938e+03,1.419923e+02
3.156902e+03,1.391340e+02
3.157866e+03,1.476706e+02
3.158830e+03,1.461711e+02
3.159795e+03,1.423386e+02
3.160759e+03,1.673221e+02
3.161723e+03,1.816824e+02
3.162687e+03,1.534681e+02
3.163652e+03,1.418815e+02
3.164616e+03,1.439065e+02
3.165580e+03,1.479348e+02
3.166544e+03,1.639502e+02
3.167509e+03,1.936014e+02
3.168473e+03,1.860972e+02
3.169437e+03,1.548642e+02
3.170401e+03,1.549711e+02
3.171365e+03,1.580209e+02
3.172330e+03,1.519387e+02
3.173294e+03,1.432646e+02
3.174258e+03,1.377892e+02
3.175222e+03,1.460091e+02
3.176187e+03,1.522160e+02
3.177151e+03,1.459005e+02
3.178115e+03,1.505841e+02
3.179079e+03,1.609884e+02
3.180043e+03,1.513374e+02
3.181008e+03,1.506742e+02
3.181972e+03,1.684737e+02
3.182936e+03,1.798746e+02
3.183900e+03,1.818514e+02
3.184865e+03,1.682025e+02
3.185829e+03,1.567156e+02
3.186793e+03,1.654098e+02
3.187757e+03,1.473432e+02
3.188722e+03,1.237523e+02
3.189686e+03,1.443438e+02
3.190650e+03,1.607292e+02
3.191614e+03,1.541675e+02
3.192579e+03,1.516155e+02
3.193543e+03,1.521638e+02
3.194507e+03,1.382200e+02
3.195471e+03,1.269706e+02
3.196436e+03,1.256212e+02
3.197400e+03,1.274566e+02
3.198364e+03,1.354194e+02
3.199328e+03,1.566888e+02
3.200292e+03,1.699076e+02
3.201257e+03,0.000000e+00
3.202221e+03,0.000000e+00
3.203185e+03,0.000000e+00
3.204149e+03,0.000000e+00
3.205114e+03,0.000000e+00
3.206078e+03,0.000000e+00
3.207042e+03,0.000000e+00
3.208006e+03,0.000000e+00
3.208970e+03,0.000000e+00
3.209935e+03,0.000000e+00
3.210899e+03,0.000000e+00
3.211863e+03,0.000000e+00
3.212827e+03,0.000000e+00
3.213792e+03,0.000000e+00
3.214756e+03,0.000000e+00
3.215720e+03,0.000000e+00
3.216684e+03,0.000000e+00
3.217649e+03,0.000000e+00
3.218613e+03,0.000000e+00
3.219577e+03,0.000000e+00
3.220541e+03,0.000000e+00
3.221506e+03,0.000000e+00
3.222470e+03,0.000000e+00
3.223434e+03,0.000000e+00
3.224398e+03,0.000000e+00
3.225363e+03,0.000000e+00
3.226327e+03,0.000000e+00
3.227291e+03,0.000000e+00
3.228255e+03,0.000000e+00
3.229219e+03,0.000000e+00
3.230184e+03,0.000000e+00
3.231148e+03,0.000000e+00
3.232112e+03,0.000000e+00
3.233076e+03,0.000000e+00
3.234041e+03,0.000000e+00
3.235005e+03,0.000000e+00
3.235969e+03,0.000000e+00
3.236933e+03,0.000000e+00
3.237897e+03,0.000000e+00
3.238862e+03,0.000000e+00
3.239826e+03,0.000000e+00
3.240790e+03,0.000000e+00
3.241754e+03,0.000000e+00
3.242719e+03,0.000000e+00
3.243683e+03,0.000000e+00
3.244647e+03,0.000000e+00
3.245611e+03,0.000000e+00
3.246576e+03,0.000000e+00
3.247540e+03,0.000000e+00
3.248504e+03,0.000000e+00
3.249468e+03,0.000000e+00
3.250433e+03,0.000000e+00
3.251397e+03,0.000000e+00
3.252361e+03,0.000000e+00
3.253325e+03,0.000000e+00
3.254290e+03,0.000000e+00
3.255254e+03,0.000000e+00
3.256218e+03,0.000000e+00
3.257182e+03,0.000000e+00
3.258146e+03,0.000000e+00
3.259111e+03,0.000000e+00
3.260075e+03,0.000000e+00
3.261039e+03,0.000000e+00
3.262003e+03,0.000000e+00
3.262968e+03,0.000000e+00
3.263932e+03,0.000000e+00
3.264896e+03,0.000000e+00
3.265860e+03,0.000000e+00
3.266824e+03,0.000000e+00
3.267789e+03,0.000000e+00
3.268753e+03,0.000000e+00
3.269717e+03,0.000000e+00
3.270681e+03,0.000000e+00
3.271646e+03,0.000000e+00
3.272610e+03,0.000000e+00
3.273574e+03,0.000000e+00
3.274538e+03,0.000000e+00
3.275503e+03,0.000000e+00
3.276467e+03,0.000000e+00
3.277431e+03,0.000000e+00
3.278395e+03,0.000000e+00
3.279360e+03,0.000000e+00
3.280324e+03,0.000000e+00
3.281288e+03,0.000000e+00
3.282252e+03,0.000000e+00
3.283217e+03,0.000000e+00
3.284181e+03,0.000000e+00
3.285145e+03,0.000000e+00
3.286109e+03,0.000000e+00
3.287073e+03,0.000000e+00
3.288038e+03,0.000000e+00
3.289002e+03,0.000000e+00
3.289966e+03,0.000000e+00
3.290930e+03,0.000000e+00
3.291895e+03,0.000000e+00
3.292859e+03,0.000000e+00
3.293823e+03,0.000000e+00
3.294787e+03,0.000000e+00
3.295751e+03,0.000000e+00
3.296716e+03,0.000000e+00
3.297680e+03,0.000000e+00
3.298644e+03,0.000000e+00
3.299608e+03,0.000000e+00
3.300573e+03,0.000000e+00
3.301537e+03,0.000000e+00
3.302501e+03,0.000000e+00
3.303465e+03,0.000000e+00
3.304430e+03,0.000000e+00
3.305394e+03,0.000000e+00
3.306358e+03,0.000000e+00
3.307322e+03,0.000000e+00
3.308287e+03,0.000000e+00
3.309251e+03,0.000000e+00
3.310215e+03,0.000000e+00
3.311179e+03,0.000000e+00
3.312144e+03,0.000000e+00
3.313108e+03,0.000000e+00
3.314072e+03,0.000000e+00
3.315036e+03,0.000000e+00
3.316000e+03,0.000000e+00
3.316965e+03,0.000000e+00
3.317929e+03,0.000000e+00
3.318893e+03,0.000000e+00
3.319857e+03,0.000000e+00
3.320822e+03,0.000000e+00
3.321786e+03,0.000000e+00
3.322750e+03,0.000000e+00
3.323714e+03,0.000000e+00
3.324678e+03,0.000000e+00
3.325643e+03,0.000000e+00
3.326607e+03,0.000000e+00
3.327571e+03,0.000000e+00
3.328535e+03,0.000000e+00
3.329500e+03,0.000000e+00
3.330464e+03,0.000000e+00
3.331428e+03,0.000000e+00
3.332392e+03,0.000000e+00
3.333357e+03,0.000000e+00
3.334321e+03,0.000000e+00
3.335285e+03,0.000000e+00
3.336249e+03,0.000000e+00
3.337214e+03,0.000000e+00
3.338178e+03,0.000000e+00
3.339142e+03,0.000000e+00
3.340106e+03,0.000000e+00
3.341071e+03,0.000000e+00
3.342035e+03,0.000000e+00
3.342999e+03,0.000000e+00
3.343963e+03,0.000000e+00
3.344927e+03,0.000000e+00
3.345892e+03,0.000000e+00
3.346856e+03,0.000000e+00
3.347820e+03,0.000000e+00
3.348784e+03,0.000000e+00
3.349749e+03,0.000000e+00
3.350713e+03,0.000000e+00
3.351677e+03,0.000000e+00
3.352641e+03,0.000000e+00
3.353605e+03,0.000000e+00
3.354570e+03,0.000000e+00
3.355534e+03,0.000000e+00
3.356498e+03,0.000000e+00
3.357462e+03,0.000000e+00
3.358427e+03,0.000000e+00
3.359391e+03,0.000000e+00
3.360355e+03,0.000000e+00
3.361319e+03,0.000000e+00
3.362284e+03,0.000000e+00
3.363248e+03,0.000000e+00
3.364212e+03,0.000000e+00
3.365176e+03,0.000000e+00
3.366141e+03,0.000000e+00
3.367105e+03,0.000000e+00
3.368069e+03,0.000000e+00
3.369033e+03,0.000000e+00
3.369998e+03,0.000000e+00
3.370962e+03,0.000000e+00
3.371926e+03,0.000000e+00
3.372890e+03,0.000000e+00
3.373854e+03,0.000000e+00
3.374819e+03,0.000000e+00
3.375783e+03,0.000000e+00
3.376747e+03,0.000000e+00
3.377711e+03,0.000000e+00
3.378676e+03,0.000000e+00
3.379640e+03,0.000000e+00
3.380604e+03,0.000000e+00
3.381568e+03,0.000000e+00
3.382532e+03,0.000000e+00
3.383497e+03,0.000000e+00
3.384461e+03,0.000000e+00
3.385425e+03,0.000000e+00
3.386389e+03,0.000000e+00
3.387354e+03,0.000000e+00
3.388318e+03,0.000000e+00
3.389282e+03,0.000000e+00
3.390246e+03,0.000000e+00
3.391211e+03,0.000000e+00
3.392175e+03,0.000000e+00
3.393139e+03,0.000000e+00
3.394103e+03,0.000000e+00
3.395068e+03,0.000000e+00
3.396032e+03,0.000000e+00
3.396996e+03,0.000000e+00
3.397960e+03,0.000000e+00
3.398925e+03,0.000000e+00
3.399889e+03,0.000000e+00
3.400853e+03,0.000000e+00
3.401817e+03,0.000000e+00
3.402781e+03,0.000000e+00
3.403746e+03,0.000000e+00
3.404710e+03,0.000000e+00
3.405674e+03,0.000000e+00
3.406638e+03,0.000000e+00
3.407603e+03,0.000000e+00
3.408567e+03,0.000000e+00
3.409531e+03,0.000000e+00
3.410495e+03,0.000000e+00
3.411459e+03,0.000000e+00
3.412424e+03,0.000000e+00
3.413388e+03,0.000000e+00
3.414352e+03,0.000000e+00
3.415316e+03,0.000000e+00
3.416281e+03,0.000000e+00
3.417245e+03,0.000000e+00
3.418209e+03,0.000000e+00
3.419173e+03,0.000000e+00
3.420138e+03,0.000000e+00
3.421102e+03,0.000000e+00
3.422066e+03,0.000000e+00
3.423030e+03,0.000000e+00
3.423995e+03,0.000000e+00
3.424959e+03,0.000000e+00
3.425923e+03,0.000000e+00
3.426887e+03,0.000000e+00
3.427852e+03,0.000000e+00
3.428816e+03,0.000000e+00
3.429780e+03,0.000000e+00
3.430744e+03,0.000000e+00
3.431708e+03,0.000000e+00
3.432673e+03,0.000000e+00
3.433637e+03,0.000000e+00
3.434601e+03,0.000000e+00
3.435565e+03,0.000000e+00
3.436530e+03,0.000000e+00
3.437494e+03,0.000000e+00
3.438458e+03,0.000000e+00
3.439422e+03,0.000000e+00
3.440386e+03,0.000000e+00
3.441351e+03,0.000000e+00
3.442315e+03,0.000000e+00
3.443279e+03,0.000000e+00
3.444243e+03,0.000000e+00
3.445208e+03,0.000000e+00
3.446172e+03,0.000000e+00
3.447136e+03,0.000000e+00
3.448100e+03,0.000000e+00
3.449065e+03,0.000000e+00
3.450029e+03,0.000000e+00
3.450993e+03,0.000000e+00
3.451957e+03,0.000000e+00
3.452922e+03,0.000000e+00
3.453886e+03,0.000000e+00
3.454850e+03,0.000000e+00
3.455814e+03,0.000000e+00
3.456779e+03,0.000000e+00
3.457743e+03,0.000000e+00
3.458707e+03,0.000000e+00
3.459671e+03,0.000000e+00
3.460635e+03,0.000000e+00
3.461600e+03,0.000000e+00
3.462564e+03,0.000000e+00
3.463528e+03,0.000000e+00
3.464492e+03,0.000000e+00
3.465457e+03,0.000000e+00
3.466421e+03,0.000000e+00
3.467385e+03,0.000000e+00
3.468349e+03,0.000000e+00
3.469313e+03,0.000000e+00
3.470278e+03,0.000000e+00
3.471242e+03,0.000000e+00
3.472206e+03,0.000000e+00
3.473170e+03,0.000000e+00
3.474135e+03,0.000000e+00
3.475099e+03,0.000000e+00
3.476063e+03,0.000000e+00
3.477027e+03,0.000000e+00
3.477992e+03,0.000000e+00
3.478956e+03,0.000000e+00
3.479920e+03,0.000000e+00
3.480884e+03,0.000000e+00
3.481849e+03,0.000000e+00
3.482813e+03,0.000000e+00
3.483777e+03,0.000000e+00
3.484741e+03,0.000000e+00
3.485706e+03,0.000000e+00
3.486670e+03,0.000000e+00
3.487634e+03,0.000000e+00
3.488598e+03,0.000000e+00
3.489563e+03,0.000000e+00
3.490527e+03,0.000000e+00
3.491491e+03,0.000000e+00
3.492455e+03,0.000000e+00
3.493419e+03,0.000000e+00
3.494384e+03,0.000000e+00
3.495348e+03,0.000000e+00
3.496312e+03,0.000000e+00
3.497276e+03,0.000000e+00
3.498240e+03,0.000000e+00
3.499205e+03,0.000000e+00
3.500169e+03,0.000000e+00
