9.931763e+01,0.000000e+00
1.002819e+02,0.000000e+00
1.012461e+02,0.000000e+00
1.022103e+02,0.000000e+00
1.031746e+02,0.000000e+00
1.041388e+02,0.000000e+00
1.051030e+02,0.000000e+00
1.060673e+02,0.000000e+00
1.070315e+02,0.000000e+00
1.079957e+02,0.000000e+00
1.089600e+02,0.000000e+00
1.099242e+02,0.000000e+00
1.108884e+02,0.000000e+00
1.118527e+02,0.000000e+00
1.128169e+02,0.000000e+00
1.137811e+02,0.000000e+00
1.147454e+02,0.000000e+00
1.157096e+02,0.000000e+00
1.166738e+02,0.000000e+00
1.176381e+02,0.000000e+00
1.186023e+02,0.000000e+00
1.195665e+02,0.000000e+00
1.205308e+02,0.000000e+00
1.214950e+02,0.000000e+00
1.224592e+02,0.000000e+00
1.234235e+02,0.000000e+00
1.243877e+02,0.000000e+00
1.253519e+02,0.000000e+00
1.263162e+02,0.000000e+00
1.272804e+02,0.000000e+00
1.282446e+02,0.000000e+00
1.292089e+02,0.000000e+00
1.301731e+02,0.000000e+00
1.311373e+02,0.000000e+00
1.321016e+02,0.000000e+00
1.330658e+02,0.000000e+00
1.340300e+02,0.000000e+00
1.349943e+02,0.000000e+00
1.359585e+02,0.000000e+00
1.369227e+02,0.000000e+00
1.378870e+02,0.000000e+00
1.388512e+02,0.000000e+00
1.398154e+02,0.000000e+00
1.407797e+02,0.000000e+00
1.417439e+02,0.000000e+00
1.427081e+02,0.000000e+00
1.436724e+02,0.000000e+00
1.446366e+02,0.000000e+00
1.456008e+02,0.000000e+00
1.465651e+02,0.000000e+00
1.475293e+02,0.000000e+00
1.484935e+02,0.000000e+00
1.494578e+02,0.000000e+00
1.504220e+02,0.000000e+00
1.513862e+02,0.000000e+00
1.523505e+02,0.000000e+00
1.533147e+02,0.000000e+00
1.542789e+02,0.000000e+00
1.552432e+02,0.000000e+00
1.562074e+02,0.000000e+00
1.571716e+02,0.000000e+00
1.581359e+02,0.000000e+00
1.591001e+02,0.000000e+00
1.600643e+02,0.000000e+00
1.610286e+02,0.000000e+00
1.619928e+02,0.000000e+00
1.629570e+02,0.000000e+00
1.639213e+02,0.000000e+00
1.648855e+02,0.000000e+00
1.658497e+02,0.000000e+00
1.668140e+02,0.000000e+00
1.677782e+02,0.000000e+00
1.687424e+02,0.000000e+00
1.697067e+02,0.000000e+00
1.706709e+02,0.000000e+00
1.716351e+02,0.000000e+00
1.725994e+02,0.000000e+00
1.735636e+02,0.000000e+00
1.745278e+02,0.000000e+00
1.754921e+02,0.000000e+00
1.764563e+02,0.000000e+00
1.774205e+02,0.000000e+00
1.783848e+02,0.000000e+00
1.793490e+02,0.000000e+00
1.803132e+02,0.000000e+00
1.812775e+02,0.000000e+00
1.822417e+02,0.000000e+00
1.832059e+02,0.000000e+00
1.841702e+02,0.000000e+00
1.851344e+02,0.000000e+00
1.860986e+02,0.000000e+00
1.870629e+02,0.000000e+00
1.880271e+02,0.000000e+00
1.889913e+02,0.000000e+00
1.899556e+02,0.000000e+00
1.909198e+02,0.000000e+00
1.918840e+02,0.000000e+00
1.928483e+02,0.000000e+00
1.938125e+02,0.000000e+00
1.947767e+02,0.000000e+00
1.957410e+02,0.000000e+00
1.967052e+02,0.000000e+00
1.976694e+02,0.000000e+00
1.986337e+02,0.000000e+00
1.995979e+02,9.277789e+02
2.005621e+02,9.316501e+02
2.015264e+02,9.336524e+02
2.024906e+02,9.307237e+02
2.034548e+02,9.284197e+02
2.044191e+02,9.277358e+02
2.053833e+02,9.285575e+02
2.063475e+02,9.303533e+02
2.073118e+02,9.335724e+02
2.082760e+02,9.399315e+02
2.092402e+02,9.421652e+02
2.102045e+02,9.363995e+02
2.111687e+02,9.289409e+02
2.121329e+02,9.241945e+02
2.130972e+02,9.239972e+02
2.140614e+02,9.268815e+02
2.150256e+02,9.297040e+02
2.159899e+02,9.329742e+02
2.169541e+02,9.355618e+02
2.179183e+02,9.374992e+02
2.188826e+02,9.386066e+02
2.198468e+02,9.386252e+02
2.208110e+02,9.365646e+02
2.217753e+02,9.324002e+02
2.227395e+02,9.291348e+02
2.237037e+02,9.285126e+02
2.246680e+02,9.289776e+02
2.256322e+02,9.288446e+02
2.265964e+02,9.278652e+02
2.275607e+02,9.268740e+02
2.285249e+02,9.266811e+02
2.294892e+02,9.273632e+02
2.304534e+02,9.285832e+02
2.314176e+02,9.297744e+02
2.323819e+02,9.307986e+02
2.333461e+02,9.319124e+02
2.343103e+02,9.339280e+02
2.352746e+02,9.362412e+02
2.362388e+02,9.372309e+02
2.372030e+02,9.358466e+02
2.381673e+02,9.332307e+02
2.391315e+02,9.322688e+02
2.400957e+02,9.354995e+02
2.410600e+02,9.379379e+02
2.420242e+02,9.367060e+02
2.429884e+02,9.329998e+02
2.439527e+02,9.304164e+02
2.449169e+02,9.311308e+02
2.458811e+02,9.354654e+02
2.468454e+02,9.392243e+02
2.478096e+02,9.431873e+02
2.487738e+02,9.461854e+02
2.497381e+02,9.466109e+02
2.507023e+02,9.443139e+02
2.516665e+02,9.413992e+02
2.526308e+02,9.412289e+02
2.535950e+02,9.480040e+02
2.545592e+02,9.516025e+02
2.555235e+02,9.505512e+02
2.564877e+02,9.468064e+02
2.574519e+02,9.424550e+02
2.584161e+02,9.384399e+02
2.593804e+02,9.350848e+02
2.603446e+02,9.344781e+02
2.613088e+02,9.394163e+02
2.622731e+02,9.443837e+02
2.632373e+02,9.479866e+02
2.642015e+02,9.499307e+02
2.651658e+02,9.506412e+02
2.661300e+02,9.504872e+02
2.670942e+02,9.495473e+02
2.680585e+02,9.490993e+02
2.690227e+02,9.503133e+02
2.699869e+02,9.515812e+02
2.709512e+02,9.516121e+02
2.719154e+02,9.500648e+02
2.728796e+02,9.477659e+02
2.738439e+02,9.455858e+02
2.748081e+02,9.436038e+02
2.757723e+02,9.425237e+02
2.767366e+02,9.420277e+02
2.777008e+02,9.417023e+02
2.786650e+02,9.420158e+02
2.796293e+02,9.441871e+02
2.805935e+02,9.473369e+02
2.815577e+02,9.496348e+02
2.825220e+02,9.505052e+02
2.834862e+02,9.504340e+02
2.844504e+02,9.504505e+02
2.854147e+02,9.513372e+02
2.863789e+02,9.516500e+02
2.873431e+02,9.502697e+02
2.883074e+02,9.482665e+02
2.892716e+02,9.478618e+02
2.902358e+02,9.505394e+02
2.912001e+02,9.562022e+02
2.921643e+02,9.586309e+02
2.931285e+02,9.563074e+02
2.940928e+02,9.530413e+02
2.950570e+02,9.494586e+02
2.960212e+02,9.458503e+02
2.969855e+02,9.431093e+02
2.979497e+02,9.426924e+02
2.989139e+02,9.458922e+02
2.998782e+02,9.488816e+02
3.008424e+02,9.530021e+02
3.018066e+02,9.567189e+02
3.027709e+02,9.582126e+02
3.037351e+02,9.563030e+02
3.046993e+02,9.526859e+02
3.056636e+02,9.507630e+02
3.066278e+02,9.513156e+02
3.075920e+02,9.522548e+02
3.085563e+02,9.526770e+02
3.095205e+02,9.529724e+02
3.104847e+02,9.535965e+02
3.114490e+02,9.544738e+02
3.124132e+02,9.554441e+02
3.133774e+02,9.565426e+02
3.143417e+02,9.578505e+02
3.153059e+02,9.587873e+02
3.162701e+02,9.589382e+02
3.172344e+02,9.585427e+02
3.181986e+02,9.578837e+02
3.191628e+02,9.569890e+02
3.201271e+02,9.559615e+02
3.210913e+02,9.547326e+02
3.220555e+02,9.530119e+02
3.230198e+02,9.510244e+02
3.239840e+02,9.508091e+02
3.249482e+02,9.546057e+02
3.259125e+02,9.577280e+02
3.268767e+02,9.582512e+02
3.278409e+02,9.567724e+02
3.288052e+02,9.551471e+02
3.297694e+02,9.551791e+02
3.307336e+02,9.573520e+02
3.316979e+02,9.584099e+02
3.326621e+02,9.560649e+02
3.336263e+02,9.539435e+02
3.345906e+02,9.546496e+02
3.355548e+02,9.591602e+02
3.365190e+02,9.642335e+02
3.374833e+02,9.659200e+02
3.384475e+02,9.638078e+02
3.394117e+02,9.611437e+02
3.403760e+02,9.578842e+02
3.413402e+02,9.547104e+02
3.423044e+02,9.529498e+02
3.432687e+02,9.538027e+02
3.442329e+02,9.554720e+02
3.451971e+02,9.561100e+02
3.461614e+02,9.554218e+02
3.471256e+02,9.542512e+02
3.480898e+02,9.536019e+02
3.490541e+02,9.539102e+02
3.500183e+02,9.545997e+02
3.509825e+02,9.568117e+02
3.519468e+02,9.592308e+02
3.529110e+02,9.605475e+02
3.538752e+02,9.602377e+02
3.548395e+02,9.587492e+02
3.558037e+02,9.570791e+02
3.567680e+02,9.550150e+02
3.577322e+02,9.532066e+02
3.586964e+02,9.512426e+02
3.596607e+02,9.500845e+02
3.606249e+02,9.507567e+02
3.615891e+02,9.543264e+02
3.625534e+02,9.588162e+02
3.635176e+02,9.600839e+02
3.644818e+02,9.575582e+02
3.654461e+02,9.540057e+02
3.664103e+02,9.507140e+02
3.673745e+02,9.481820e+02
3.683388e+02,9.474025e+02
3.693030e+02,9.484118e+02
3.702672e+02,9.507850e+02
3.712315e+02,9.543148e+02
3.721957e+02,9.589855e+02
3.731599e+02,9.642133e+02
3.741242e+02,9.695187e+02
3.750884e+02,9.785358e+02
3.760526e+02,9.839463e+02
3.770169e+02,9.828489e+02
3.779811e+02,9.782927e+02
3.789453e+02,9.737472e+02
3.799096e+02,9.707297e+02
3.808738e+02,9.688695e+02
3.818380e+02,9.671768e+02
3.828023e+02,9.667502e+02
3.837665e+02,9.658615e+02
3.847307e+02,9.634011e+02
3.856950e+02,9.599280e+02
3.866592e+02,9.567619e+02
3.876234e+02,9.546732e+02
3.885877e+02,9.533711e+02
3.895519e+02,9.520964e+02
3.905161e+02,9.507039e+02
3.914804e+02,9.491790e+02
3.924446e+02,9.476342e+02
3.934088e+02,9.462858e+02
3.943731e+02,9.450061e+02
3.953373e+02,9.441574e+02
3.963015e+02,9.431929e+02
3.972658e+02,9.409708e+02
3.982300e+02,9.370277e+02
3.991942e+02,9.327097e+02
4.001585e+02,9.310402e+02
4.011227e+02,9.342654e+02
4.020869e+02,9.370453e+02
4.030512e+02,9.381292e+02
4.040154e+02,9.380357e+02
4.049796e+02,9.379012e+02
4.059439e+02,9.384085e+02
4.069081e+02,9.393371e+02
4.078723e+02,9.399067e+02
4.088366e+02,9.396802e+02
4.098008e+02,9.391500e+02
4.107650e+02,9.390258e+02
4.117293e+02,9.393839e+02
4.126935e+02,9.402140e+02
4.136577e+02,9.422629e+02
4.146220e+02,9.445538e+02
4.155862e+02,9.454641e+02
4.165504e+02,9.445801e+02
4.175147e+02,9.429641e+02
4.184789e+02,9.422553e+02
4.194431e+02,9.446527e+02
4.204074e+02,9.451578e+02
4.213716e+02,9.412902e+02
4.223358e+02,9.363546e+02
4.233001e+02,9.342070e+02
4.242643e+02,9.370799e+02
4.252285e+02,9.426705e+02
4.261928e+02,9.450598e+02
4.271570e+02,9.424930e+02
4.281212e+02,9.408747e+02
4.290855e+02,9.436021e+02
4.300497e+02,9.489245e+02
4.310139e+02,9.532095e+02
4.319782e+02,9.551008e+02
4.329424e+02,9.557737e+02
4.339066e+02,9.565257e+02
4.348709e+02,9.573463e+02
4.358351e+02,9.573314e+02
4.367993e+02,9.554224e+02
4.377636e+02,9.502371e+02
4.387278e+02,9.470068e+02
4.396920e+02,9.487168e+02
4.406563e+02,9.506218e+02
4.416205e+02,9.483050e+02
4.425847e+02,9.407443e+02
4.435490e+02,9.322964e+02
4.445132e+02,9.295350e+02
4.454774e+02,9.338713e+02
4.464417e+02,9.378398e+02
4.474059e+02,9.389353e+02
4.483701e+02,9.386910e+02
4.493344e+02,9.392269e+02
4.502986e+02,9.418305e+02
4.512628e+02,9.447082e+02
4.522271e+02,9.465876e+02
4.531913e+02,9.476024e+02
4.541555e+02,9.485103e+02
4.551198e+02,9.499855e+02
4.560840e+02,9.520803e+02
4.570482e+02,9.513688e+02
4.580125e+02,9.447966e+02
4.589767e+02,9.392324e+02
4.599409e+02,9.378692e+02
4.609052e+02,9.396060e+02
4.618694e+02,9.405540e+02
4.628336e+02,9.366717e+02
4.637979e+02,9.286834e+02
4.647621e+02,9.231718e+02
4.657263e+02,9.218035e+02
4.666906e+02,9.221832e+02
4.676548e+02,9.213895e+02
4.686190e+02,9.187803e+02
4.695833e+02,9.166847e+02
4.705475e+02,9.154313e+02
4.715117e+02,9.150944e+02
4.724760e+02,9.164795e+02
4.734402e+02,9.201109e+02
4.744044e+02,9.243729e+02
4.753687e+02,9.250883e+02
4.763329e+02,9.183171e+02
4.772971e+02,9.141331e+02
4.782614e+02,9.147669e+02
4.792256e+02,9.184261e+02
4.801898e+02,9.230225e+02
4.811541e+02,9.292211e+02
4.821183e+02,9.345057e+02
4.830826e+02,9.342197e+02
4.840468e+02,9.279421e+02
4.850110e+02,9.216288e+02
4.859753e+02,9.190461e+02
4.869395e+02,9.204456e+02
4.879037e+02,9.214807e+02
4.888680e+02,9.233044e+02
4.898322e+02,9.240648e+02
4.907964e+02,9.217794e+02
4.917607e+02,9.170516e+02
4.927249e+02,9.127697e+02
4.936891e+02,9.120198e+02
4.946534e+02,9.150222e+02
4.956176e+02,9.174375e+02
4.965818e+02,9.194287e+02
4.975461e+02,9.204885e+02
4.985103e+02,9.197460e+02
4.994745e+02,9.162889e+02
5.004388e+02,9.138168e+02
5.014030e+02,9.149562e+02
5.023672e+02,9.182457e+02
5.033315e+02,9.214021e+02
5.042957e+02,9.237733e+02
5.052599e+02,9.249374e+02
5.062242e+02,9.239814e+02
5.071884e+02,9.184189e+02
5.081526e+02,9.149377e+02
5.091169e+02,9.156959e+02
5.100811e+02,9.185309e+02
5.110453e+02,9.207266e+02
5.120095e+02,9.208445e+02
5.129738e+02,9.206122e+02
5.139380e+02,9.231752e+02
5.149022e+02,9.284841e+02
5.158665e+02,9.316576e+02
5.168307e+02,9.290618e+02
5.177949e+02,9.204378e+02
5.187592e+02,9.141846e+02
5.197234e+02,9.129797e+02
5.206876e+02,9.126691e+02
5.216519e+02,9.116552e+02
5.226161e+02,9.101230e+02
5.235803e+02,9.088883e+02
5.245446e+02,9.087142e+02
5.255088e+02,9.094299e+02
5.264730e+02,9.099542e+02
5.274373e+02,9.103758e+02
5.284015e+02,9.103966e+02
5.293657e+02,9.093202e+02
5.303300e+02,9.070443e+02
5.312942e+02,9.050877e+02
5.322584e+02,9.041119e+02
5.332227e+02,9.040068e+02
5.341869e+02,9.046455e+02
5.351511e+02,9.057973e+02
5.361154e+02,9.068828e+02
5.370796e+02,9.073131e+02
5.380438e+02,9.071215e+02
5.390081e+02,9.066557e+02
5.399723e+02,9.055977e+02
5.409365e+02,9.046639e+02
5.419008e+02,9.042897e+02
5.428650e+02,9.044147e+02
5.438292e+02,9.046465e+02
5.447935e+02,9.054021e+02
5.457577e+02,9.061519e+02
5.467219e+02,9.055784e+02
5.476862e+02,9.029990e+02
5.486504e+02,8.992148e+02
5.496146e+02,8.967359e+02
5.505789e+02,8.964182e+02
5.515431e+02,8.960323e+02
5.525073e+02,8.954064e+02
5.534716e+02,8.949418e+02
5.544358e+02,8.947533e+02
5.554000e+02,8.948609e+02
5.563643e+02,8.947264e+02
5.573285e+02,8.935812e+02
5.582927e+02,8.914727e+02
5.592570e+02,8.893161e+02
5.602212e+02,8.876035e+02
5.611854e+02,8.862757e+02
5.621497e+02,8.865441e+02
5.631139e+02,8.895587e+02
5.640781e+02,8.927277e+02
5.650424e+02,8.965543e+02
5.660066e+02,9.004647e+02
5.669708e+02,9.025663e+02
5.679351e+02,9.010170e+02
5.688993e+02,8.973529e+02
5.698635e+02,8.938855e+02
5.708278e+02,8.908060e+02
5.717920e+02,8.886785e+02
5.727562e+02,8.879427e+02
5.737205e+02,8.889716e+02
5.746847e+02,8.893688e+02
5.756489e+02,8.881249e+02
5.766132e+02,8.868824e+02
5.775774e+02,8.869427e+02
5.785416e+02,8.884183e+02
5.795059e+02,8.897048e+02
5.804701e+02,8.894283e+02
5.814343e+02,8.879474e+02
5.823986e+02,8.861857e+02
5.833628e+02,8.841483e+02
5.843270e+02,8.826179e+02
5.852913e+02,8.827140e+02
5.862555e+02,8.875558e+02
5.872197e+02,8.892068e+02
5.881840e+02,8.845623e+02
5.891482e+02,8.784611e+02
5.901124e+02,8.750656e+02
5.910767e+02,8.758133e+02
5.920409e+02,8.777079e+02
5.930051e+02,8.776075e+02
5.939694e+02,8.758157e+02
5.949336e+02,8.744332e+02
5.958978e+02,8.741302e+02
5.968621e+02,8.745975e+02
5.978263e+02,8.751818e+02
5.987905e+02,8.763840e+02
5.997548e+02,8.773753e+02
6.007190e+02,8.781496e+02
6.016832e+02,8.788368e+02
6.026475e+02,8.793158e+02
6.036117e+02,8.790394e+02
6.045759e+02,8.788868e+02
6.055402e+02,8.802382e+02
6.065044e+02,8.827892e+02
6.074686e+02,8.851874e+02
6.084329e+02,8.875295e+02
6.093971e+02,8.892957e+02
6.103613e+02,8.874642e+02
6.113256e+02,8.759698e+02
6.122899e+02,8.674506e+02
6.132541e+02,8.655287e+02
6.142183e+02,8.678429e+02
6.151826e+02,8.703621e+02
6.161468e+02,8.723083e+02
6.171110e+02,8.732886e+02
6.180753e+02,8.718135e+02
6.190395e+02,8.681002e+02
6.200037e+02,8.650471e+02
6.209680e+02,8.646537e+02
6.219322e+02,8.668337e+02
6.228964e+02,8.672688e+02
6.238607e+02,8.636696e+02
6.248249e+02,8.605684e+02
6.257891e+02,8.585162e+02
6.267534e+02,8.575779e+02
6.277176e+02,8.583695e+02
6.286818e+02,8.643109e+02
6.296461e+02,8.707969e+02
6.306103e+02,8.716645e+02
6.315745e+02,8.673458e+02
6.325388e+02,8.629023e+02
6.335030e+02,8.623770e+02
6.344672e+02,8.658283e+02
6.354315e+02,8.669296e+02
6.363957e+02,8.632781e+02
6.373599e+02,8.595483e+02
6.383242e+02,8.586586e+02
6.392884e+02,8.603702e+02
6.402526e+02,8.614647e+02
6.412169e+02,8.599641e+02
6.421811e+02,8.579545e+02
6.431453e+02,8.578336e+02
6.441096e+02,8.594662e+02
6.450738e+02,8.607751e+02
6.460380e+02,8.596072e+02
6.470023e+02,8.560693e+02
6.479665e+02,8.534736e+02
6.489307e+02,8.511735e+02
6.498950e+02,8.502601e+02
6.508592e+02,8.528160e+02
6.518234e+02,8.593544e+02
6.527877e+02,8.624439e+02
6.537519e+02,8.580807e+02
6.547161e+02,8.520419e+02
6.556804e+02,8.480853e+02
6.566446e+02,8.468359e+02
6.576088e+02,8.475593e+02
6.585731e+02,8.511539e+02
6.595373e+02,8.567283e+02
6.605015e+02,8.585061e+02
6.614658e+02,8.551223e+02
6.624300e+02,8.502435e+02
6.633942e+02,8.473179e+02
6.643585e+02,8.469130e+02
6.653227e+02,8.470495e+02
6.662869e+02,8.480690e+02
6.672512e+02,8.491034e+02
6.682154e+02,8.497039e+02
6.691796e+02,8.496910e+02
6.701439e+02,8.491898e+02
6.711081e+02,8.480996e+02
6.720723e+02,8.466594e+02
6.730366e+02,8.454901e+02
6.740008e+02,8.448053e+02
6.749650e+02,8.441926e+02
6.759293e+02,8.430110e+02
6.768935e+02,8.408382e+02
6.778577e+02,8.397060e+02
6.788220e+02,8.399611e+02
6.797862e+02,8.415414e+02
6.807504e+02,8.449390e+02
6.817147e+02,8.507256e+02
6.826789e+02,8.537302e+02
6.836431e+02,8.489427e+02
6.846074e+02,8.415552e+02
6.855716e+02,8.381194e+02
6.865358e+02,8.398489e+02
6.875001e+02,8.423911e+02
6.884643e+02,8.394308e+02
6.894285e+02,8.310869e+02
6.903928e+02,8.273354e+02
6.913570e+02,8.309460e+02
6.923212e+02,8.365441e+02
6.932855e+02,8.384088e+02
6.942497e+02,8.346610e+02
6.952139e+02,8.315531e+02
6.961782e+02,8.278506e+02
6.971424e+02,8.254705e+02
6.981066e+02,8.266102e+02
6.990709e+02,8.313436e+02
7.000351e+02,8.350309e+02
7.009993e+02,8.336141e+02
7.019636e+02,8.292955e+02
7.029278e+02,8.261241e+02
7.038920e+02,8.247150e+02
7.048563e+02,8.247288e+02
7.058205e+02,8.264730e+02
7.067847e+02,8.313743e+02
7.077490e+02,8.342848e+02
7.087132e+02,8.352221e+02
7.096774e+02,8.346517e+02
7.106417e+02,8.317708e+02
7.116059e+02,8.255276e+02
7.125701e+02,8.207800e+02
7.135344e+02,8.194688e+02
7.144986e+02,8.201132e+02
7.154628e+02,8.216114e+02
7.164271e+02,8.235723e+02
7.173913e+02,8.253830e+02
7.183555e+02,8.269836e+02
7.193198e+02,8.280677e+02
7.202840e+02,8.265092e+02
7.212482e+02,8.214515e+02
7.222125e+02,8.166540e+02
7.231767e+02,8.162902e+02
7.241409e+02,8.226967e+02
7.251052e+02,8.263222e+02
7.260694e+02,8.247278e+02
7.270336e+02,8.222155e+02
7.279979e+02,8.214256e+02
7.289621e+02,8.226207e+02
7.299263e+02,8.233605e+02
7.308906e+02,8.216297e+02
7.318548e+02,8.192968e+02
7.328190e+02,8.190673e+02
7.337833e+02,8.209898e+02
7.347475e+02,8.224279e+02
7.357117e+02,8.201974e+02
7.366760e+02,8.148975e+02
7.376402e+02,8.116643e+02
7.386044e+02,8.110666e+02
7.395687e+02,8.116924e+02
7.405329e+02,8.123285e+02
7.414971e+02,8.129083e+02
7.424614e+02,8.135552e+02
7.434256e+02,8.156820e+02
7.443898e+02,8.174670e+02
7.453541e+02,8.171539e+02
7.463183e+02,8.145579e+02
7.472825e+02,8.122064e+02
7.482468e+02,8.122914e+02
7.492110e+02,8.127244e+02
7.501752e+02,8.114000e+02
7.511395e+02,8.086782e+02
7.521037e+02,8.059047e+02
7.530679e+02,8.036602e+02
7.540322e+02,8.017758e+02
7.549964e+02,8.006717e+02
7.559606e+02,8.006212e+02
7.569249e+02,8.010643e+02
7.578891e+02,8.016354e+02
7.588533e+02,8.023995e+02
7.598176e+02,8.039514e+02
7.607818e+02,8.070569e+02
7.617460e+02,8.088488e+02
7.627103e+02,8.082004e+02
7.636745e+02,8.059472e+02
7.646387e+02,8.038403e+02
7.656030e+02,8.033640e+02
7.665672e+02,8.026207e+02
7.675314e+02,7.980233e+02
7.684957e+02,7.906999e+02
7.694599e+02,7.859182e+02
7.704241e+02,7.884898e+02
7.713884e+02,7.957444e+02
7.723526e+02,7.991570e+02
7.733168e+02,7.985700e+02
7.742811e+02,7.972303e+02
7.752453e+02,7.958754e+02
7.762095e+02,7.943724e+02
7.771738e+02,7.935013e+02
7.781380e+02,7.930291e+02
7.791022e+02,7.928990e+02
7.800665e+02,7.950847e+02
7.810307e+02,7.975490e+02
7.819949e+02,7.968759e+02
7.829592e+02,7.878268e+02
7.839234e+02,7.805325e+02
7.848876e+02,7.817111e+02
7.858519e+02,7.873640e+02
7.868161e+02,7.910770e+02
7.877803e+02,7.899609e+02
7.887446e+02,7.864515e+02
7.897088e+02,7.831900e+02
7.906730e+02,7.806693e+02
7.916373e+02,7.805361e+02
7.926015e+02,7.829734e+02
7.935657e+02,7.871563e+02
7.945300e+02,7.935721e+02
7.954942e+02,8.063014e+02
7.964584e+02,8.111893e+02
7.974227e+02,8.012693e+02
7.983869e+02,7.869504e+02
7.993511e+02,7.799222e+02
8.003154e+02,7.835679e+02
8.012796e+02,7.866182e+02
8.022438e+02,7.858942e+02
8.032081e+02,7.852210e+02
8.041723e+02,7.892223e+02
8.051365e+02,7.990624e+02
8.061008e+02,8.066891e+02
8.070650e+02,8.038226e+02
8.080292e+02,7.951500e+02
8.089935e+02,7.883538e+02
8.099577e+02,7.849358e+02
8.109219e+02,7.841901e+02
8.118862e+02,7.870271e+02
8.128504e+02,7.931776e+02
8.138146e+02,7.935944e+02
8.147789e+02,7.862936e+02
8.157431e+02,7.771633e+02
8.167073e+02,7.706821e+02
8.176716e+02,7.672924e+02
8.186358e+02,7.665530e+02
8.196000e+02,7.720579e+02
8.205643e+02,7.767592e+02
8.215285e+02,7.765784e+02
8.224927e+02,7.720953e+02
8.234570e+02,7.687281e+02
8.244212e+02,7.675248e+02
8.253854e+02,7.681418e+02
8.263497e+02,7.718816e+02
8.273139e+02,7.770965e+02
8.282781e+02,7.800604e+02
8.292424e+02,7.775810e+02
8.302066e+02,7.729661e+02
8.311708e+02,7.702448e+02
8.321351e+02,7.692753e+02
8.330993e+02,7.695007e+02
8.340635e+02,7.706440e+02
8.350278e+02,7.723811e+02
8.359920e+02,7.744619e+02
8.369562e+02,7.773815e+02
8.379205e+02,7.779464e+02
8.388847e+02,7.741058e+02
8.398489e+02,7.679070e+02
8.408132e+02,7.645251e+02
8.417774e+02,7.672791e+02
8.427416e+02,7.678441e+02
8.437059e+02,7.627933e+02
8.446701e+02,7.565401e+02
8.456343e+02,7.540667e+02
8.465986e+02,7.582264e+02
8.475628e+02,7.615838e+02
8.485270e+02,7.605914e+02
8.494913e+02,7.581202e+02
8.504555e+02,7.576931e+02
8.514197e+02,7.602974e+02
8.523840e+02,7.623749e+02
8.533482e+02,7.591872e+02
8.543124e+02,7.536434e+02
8.552767e+02,7.522416e+02
8.562409e+02,7.556580e+02
8.572051e+02,7.589381e+02
8.581694e+02,7.557239e+02
8.591336e+02,7.469674e+02
8.600978e+02,7.433781e+02
8.610621e+02,7.461529e+02
8.620263e+02,7.509392e+02
8.629905e+02,7.546279e+02
8.639548e+02,7.569266e+02
8.649190e+02,7.584532e+02
8.658832e+02,7.590010e+02
8.668475e+02,7.597836e+02
8.678117e+02,7.619355e+02
8.687759e+02,7.649067e+02
8.697402e+02,7.661658e+02
8.707044e+02,7.638959e+02
8.716686e+02,7.608557e+02
8.726329e+02,7.581718e+02
8.735971e+02,7.559407e+02
8.745613e+02,7.539202e+02
8.755256e+02,7.519990e+02
8.764898e+02,7.507524e+02
8.774540e+02,7.507152e+02
8.784183e+02,7.512961e+02
8.793825e+02,7.514066e+02
8.803467e+02,7.504478e+02
8.813110e+02,7.496733e+02
8.822752e+02,7.513731e+02
8.832394e+02,7.549141e+02
8.842037e+02,7.573802e+02
8.851679e+02,7.578212e+02
8.861321e+02,7.572700e+02
8.870964e+02,7.574880e+02
8.880606e+02,7.585113e+02
8.890248e+02,7.583854e+02
8.899891e+02,7.572338e+02
8.909533e+02,7.551181e+02
8.919175e+02,7.513299e+02
8.928818e+02,7.445767e+02
8.938460e+02,7.420792e+02
8.948102e+02,7.472396e+02
8.957745e+02,7.526050e+02
8.967387e+02,7.538250e+02
8.977029e+02,7.509525e+02
8.986672e+02,7.485268e+02
8.996314e+02,7.478538e+02
9.005956e+02,7.475356e+02
9.015599e+02,7.474174e+02
9.025241e+02,7.469625e+02
9.034883e+02,7.452136e+02
9.044526e+02,7.399103e+02
9.054168e+02,7.346682e+02
9.063810e+02,7.323079e+02
9.073453e+02,7.323389e+02
9.083095e+02,7.332330e+02
9.092737e+02,7.342006e+02
9.102380e+02,7.352022e+02
9.112022e+02,7.369824e+02
9.121664e+02,7.387873e+02
9.131307e+02,7.387380e+02
9.140949e+02,7.364913e+02
9.150591e+02,7.333917e+02
9.160234e+02,7.302634e+02
9.169876e+02,7.268365e+02
9.179518e+02,7.241105e+02
9.189161e+02,7.222718e+02
9.198803e+02,7.210938e+02
9.208445e+02,7.202695e+02
9.218088e+02,7.197801e+02
9.227730e+02,7.224814e+02
9.237372e+02,7.302224e+02
9.247015e+02,7.367496e+02
9.256657e+02,7.376727e+02
9.266299e+02,7.327045e+02
9.275942e+02,7.285813e+02
9.285584e+02,7.255611e+02
9.295226e+02,7.227799e+02
9.304869e+02,7.196901e+02
9.314511e+02,7.167538e+02
9.324153e+02,7.151198e+02
9.333796e+02,7.156063e+02
9.343438e+02,7.165173e+02
9.353080e+02,7.182457e+02
9.362723e+02,7.194767e+02
9.372365e+02,7.185237e+02
9.382007e+02,7.135890e+02
9.391650e+02,7.098401e+02
9.401292e+02,7.105880e+02
9.410934e+02,7.132249e+02
9.420577e+02,7.144781e+02
9.430219e+02,7.133841e+02
9.439861e+02,7.121621e+02
9.449504e+02,7.138918e+02
9.459146e+02,7.164781e+02
9.468788e+02,7.154020e+02
9.478431e+02,7.102521e+02
9.488073e+02,7.057115e+02
9.497715e+02,7.076760e+02
9.507358e+02,7.131970e+02
9.517000e+02,7.154581e+02
9.526642e+02,7.146720e+02
9.536285e+02,7.128088e+02
9.545927e+02,7.105907e+02
9.555569e+02,7.083757e+02
9.565212e+02,7.077328e+02
9.574854e+02,7.089525e+02
9.584496e+02,7.099890e+02
9.594139e+02,7.095814e+02
9.603781e+02,7.083215e+02
9.613423e+02,7.084831e+02
9.623066e+02,7.106251e+02
9.632708e+02,7.116773e+02
9.642350e+02,7.109865e+02
9.651993e+02,7.094753e+02
9.661635e+02,7.081068e+02
9.671277e+02,7.066090e+02
9.680920e+02,7.053141e+02
9.690562e+02,7.044470e+02
9.700204e+02,7.034341e+02
9.709847e+02,7.019855e+02
9.719489e+02,7.001510e+02
9.729131e+02,6.987764e+02
9.738774e+02,6.980072e+02
9.748416e+02,6.978810e+02
9.758058e+02,6.984167e+02
9.767701e+02,6.992701e+02
9.777343e+02,6.997483e+02
9.786985e+02,6.992744e+02
9.796628e+02,6.987565e+02
9.806270e+02,6.989514e+02
9.815912e+02,6.993040e+02
9.825555e+02,6.989279e+02
9.835197e+02,6.976727e+02
9.844839e+02,6.961453e+02
9.854482e+02,6.941563e+02
9.864124e+02,6.923664e+02
9.873766e+02,6.911954e+02
9.883409e+02,6.907384e+02
9.893051e+02,6.914701e+02
9.902693e+02,6.945936e+02
9.912336e+02,6.985876e+02
9.921978e+02,7.017730e+02
9.931620e+02,7.037145e+02
9.941263e+02,7.046157e+02
9.950905e+02,7.045206e+02
9.960547e+02,7.036982e+02
9.970190e+02,7.025766e+02
9.979832e+02,7.009616e+02
9.989474e+02,6.982627e+02
9.999117e+02,6.937390e+02
1.000876e+03,6.889719e+02
1.001840e+03,6.863957e+02
1.002804e+03,6.857159e+02
1.003769e+03,6.852571e+02
1.004733e+03,6.841013e+02
1.005697e+03,6.833392e+02
1.006661e+03,6.858145e+02
1.007626e+03,6.905267e+02
1.008590e+03,6.924421e+02
1.009554e+03,6.904258e+02
1.010518e+03,6.866669e+02
1.011482e+03,6.832090e+02
1.012447e+03,6.801543e+02
1.013411e+03,6.785978e+02
1.014375e+03,6.789750e+02
1.015339e+03,6.801255e+02
1.016304e+03,6.811224e+02
1.017268e+03,6.819344e+02
1.018232e+03,6.828426e+02
1.019196e+03,6.838029e+02
1.020161e+03,6.845060e+02
1.021125e+03,6.850800e+02
1.022089e+03,6.854409e+02
1.023053e+03,6.845062e+02
1.024018e+03,6.815265e+02
1.024982e+03,6.798047e+02
1.025946e+03,6.801887e+02
1.026910e+03,6.811730e+02
1.027875e+03,6.811072e+02
1.028839e+03,6.798541e+02
1.029803e+03,6.795514e+02
1.030767e+03,6.807061e+02
1.031731e+03,6.820201e+02
1.032696e+03,6.824103e+02
1.033660e+03,6.817635e+02
1.034624e+03,6.813370e+02
1.035588e+03,6.817597e+02
1.036552e+03,6.817620e+02
1.037517e+03,6.803475e+02
1.038481e+03,6.778264e+02
1.039445e+03,6.760792e+02
1.040409e+03,6.750781e+02
1.041374e+03,6.749953e+02
1.042338e+03,6.766046e+02
1.043302e+03,6.789954e+02
1.044266e+03,6.808440e+02
1.045231e+03,6.821541e+02
1.046195e+03,6.827197e+02
1.047159e+03,6.826368e+02
1.048123e+03,6.820134e+02
1.049088e+03,6.805446e+02
1.050052e+03,6.781691e+02
1.051016e+03,6.772238e+02
1.051980e+03,6.796882e+02
1.052945e+03,6.813679e+02
1.053909e+03,6.792356e+02
1.054873e+03,6.743641e+02
1.055837e+03,6.719808e+02
1.056802e+03,6.758593e+02
1.057766e+03,6.784133e+02
1.058730e+03,6.776572e+02
1.059694e+03,6.752351e+02
1.060658e+03,6.729984e+02
1.061623e+03,6.709869e+02
1.062587e+03,6.697546e+02
1.063551e+03,6.694822e+02
1.064515e+03,6.699857e+02
1.065479e+03,6.712773e+02
1.066444e+03,6.735519e+02
1.067408e+03,6.754258e+02
1.068372e+03,6.772891e+02
1.069336e+03,6.781102e+02
1.070301e+03,6.765071e+02
1.071265e+03,6.730343e+02
1.072229e+03,6.700282e+02
1.073193e+03,6.676198e+02
1.074158e+03,6.660040e+02
1.075122e+03,6.659174e+02
1.076086e+03,6.663605e+02
1.077050e+03,6.660580e+02
1.078015e+03,6.640642e+02
1.078979e+03,6.641931e+02
1.079943e+03,6.692947e+02
1.080907e+03,6.749459e+02
1.081872e+03,6.774225e+02
1.082836e+03,6.762382e+02
1.083800e+03,6.760428e+02
1.084764e+03,6.773928e+02
1.085729e+03,6.807233e+02
1.086693e+03,6.878598e+02
1.087657e+03,6.969358e+02
1.088621e+03,7.034344e+02
1.089585e+03,7.049196e+02
1.090550e+03,7.052784e+02
1.091514e+03,7.050715e+02
1.092478e+03,7.050379e+02
1.093442e+03,7.062171e+02
1.094406e+03,7.100585e+02
1.095371e+03,7.113776e+02
1.096335e+03,7.072778e+02
1.097299e+03,7.016243e+02
1.098263e+03,6.962986e+02
1.099228e+03,6.914332e+02
1.100192e+03,6.877646e+02
1.101156e+03,6.864777e+02
1.102120e+03,6.851324e+02
1.103085e+03,6.831692e+02
1.104049e+03,6.805269e+02
1.105013e+03,6.771525e+02
1.105977e+03,6.701337e+02
1.106942e+03,6.662868e+02
1.107906e+03,6.687570e+02
1.108870e+03,6.735867e+02
1.109834e+03,6.773635e+02
1.110799e+03,6.797574e+02
1.111763e+03,6.814615e+02
1.112727e+03,6.826404e+02
1.113691e+03,6.832689e+02
1.114656e+03,6.826381e+02
1.115620e+03,6.810584e+02
1.116584e+03,6.807981e+02
1.117548e+03,6.825627e+02
1.118512e+03,6.844208e+02
1.119477e+03,6.870774e+02
1.120441e+03,6.892527e+02
1.121405e+03,6.890853e+02
1.122369e+03,6.851404e+02
1.123334e+03,6.810837e+02
1.124298e+03,6.769260e+02
1.125262e+03,6.728776e+02
1.126226e+03,6.689196e+02
1.127191e+03,6.649594e+02
1.128155e+03,6.623978e+02
1.129119e+03,6.625295e+02
1.130083e+03,6.618839e+02
1.131047e+03,6.580591e+02
1.132012e+03,6.524554e+02
1.132976e+03,6.504886e+02
1.133940e+03,6.553375e+02
1.134904e+03,6.572275e+02
1.135869e+03,6.536273e+02
1.136833e+03,6.481922e+02
1.137797e+03,6.450779e+02
1.138761e+03,6.453475e+02
1.139726e+03,6.444075e+02
1.140690e+03,6.408471e+02
1.141654e+03,6.388358e+02
1.142618e+03,6.414470e+02
1.143583e+03,6.478965e+02
1.144547e+03,6.514389e+02
1.145511e+03,6.512800e+02
1.146475e+03,6.512469e+02
1.147439e+03,6.526843e+02
1.148404e+03,6.544423e+02
1.149368e+03,6.537519e+02
1.150332e+03,6.501166e+02
1.151296e+03,6.486732e+02
1.152261e+03,6.500452e+02
1.153225e+03,6.512903e+02
1.154189e+03,6.503531e+02
1.155153e+03,6.476631e+02
1.156118e+03,6.442535e+02
1.157082e+03,6.402984e+02
1.158046e+03,6.372350e+02
1.159010e+03,6.355469e+02
1.159974e+03,6.347783e+02
1.160939e+03,6.338817e+02
1.161903e+03,6.328759e+02
1.162867e+03,6.332713e+02
1.163831e+03,6.354474e+02
1.164796e+03,6.369528e+02
1.165760e+03,6.345438e+02
1.166724e+03,6.298090e+02
1.167688e+03,6.264069e+02
1.168653e+03,6.245251e+02
1.169617e+03,6.240145e+02
1.170581e+03,6.257430e+02
1.171545e+03,6.278329e+02
1.172510e+03,6.272458e+02
1.173474e+03,6.248760e+02
1.174438e+03,6.223542e+02
1.175402e+03,6.199886e+02
1.176366e+03,6.184131e+02
1.177331e+03,6.190429e+02
1.178295e+03,6.204507e+02
1.179259e+03,6.205081e+02
1.180223e+03,6.191572e+02
1.181188e+03,6.180898e+02
1.182152e+03,6.191563e+02
1.183116e+03,6.200593e+02
1.184080e+03,6.187974e+02
1.185045e+03,6.165725e+02
1.186009e+03,6.154326e+02
1.186973e+03,6.168517e+02
1.187937e+03,6.179901e+02
1.188901e+03,6.170681e+02
1.189866e+03,6.157051e+02
1.190830e+03,6.151074e+02
1.191794e+03,6.152961e+02
1.192758e+03,6.156303e+02
1.193723e+03,6.166689e+02
1.194687e+03,6.175919e+02
1.195651e+03,6.173436e+02
1.196615e+03,6.166490e+02
1.197580e+03,6.174218e+02
1.198544e+03,6.225573e+02
1.199508e+03,6.236674e+02
1.200472e+03,6.175934e+02
1.201437e+03,6.106806e+02
1.202401e+03,6.087095e+02
1.203365e+03,6.126984e+02
1.204329e+03,6.146581e+02
1.205293e+03,6.140176e+02
1.206258e+03,6.124136e+02
1.207222e+03,6.100223e+02
1.208186e+03,6.074003e+02
1.209150e+03,6.066564e+02
1.210115e+03,6.078134e+02
1.211079e+03,6.087225e+02
1.212043e+03,6.089970e+02
1.213007e+03,6.092220e+02
1.213972e+03,6.107672e+02
1.214936e+03,6.133353e+02
1.215900e+03,6.137723e+02
1.216864e+03,6.121476e+02
1.217828e+03,6.102224e+02
1.218793e+03,6.088672e+02
1.219757e+03,6.080695e+02
1.220721e+03,6.082774e+02
1.221685e+03,6.090190e+02
1.222650e+03,6.082145e+02
1.223614e+03,6.049913e+02
1.224578e+03,6.028352e+02
1.225542e+03,6.076029e+02
1.226507e+03,6.136484e+02
1.227471e+03,6.130162e+02
1.228435e+03,6.067548e+02
1.229399e+03,6.018802e+02
1.230364e+03,6.035338e+02
1.231328e+03,6.059133e+02
1.232292e+03,6.065905e+02
1.233256e+03,6.063058e+02
1.234220e+03,6.056271e+02
1.235185e+03,6.046923e+02
1.236149e+03,6.037878e+02
1.237113e+03,6.025951e+02
1.238077e+03,6.019453e+02
1.239042e+03,6.022145e+02
1.240006e+03,6.030021e+02
1.240970e+03,6.031102e+02
1.241934e+03,6.016352e+02
1.242899e+03,6.011334e+02
1.243863e+03,6.028816e+02
1.244827e+03,6.052748e+02
1.245791e+03,6.059429e+02
1.246755e+03,6.045201e+02
1.247720e+03,6.035291e+02
1.248684e+03,6.031165e+02
1.249648e+03,6.030672e+02
1.250612e+03,6.033110e+02
1.251577e+03,6.035555e+02
1.252541e+03,6.025726e+02
1.253505e+03,6.006105e+02
1.254469e+03,6.005866e+02
1.255434e+03,6.036935e+02
1.256398e+03,6.070040e+02
1.257362e+03,6.064703e+02
1.258326e+03,6.036669e+02
1.259291e+03,6.014141e+02
1.260255e+03,5.998566e+02
1.261219e+03,5.985734e+02
1.262183e+03,5.981592e+02
1.263147e+03,5.977729e+02
1.264112e+03,5.962700e+02
1.265076e+03,5.944412e+02
1.266040e+03,5.933827e+02
1.267004e+03,5.935515e+02
1.267969e+03,5.939574e+02
1.268933e+03,5.947465e+02
1.269897e+03,5.957926e+02
1.270861e+03,5.966503e+02
1.271826e+03,5.968731e+02
1.272790e+03,5.966999e+02
1.273754e+03,5.961121e+02
1.274718e+03,5.955687e+02
1.275682e+03,5.953455e+02
1.276647e+03,5.955075e+02
1.277611e+03,5.962018e+02
1.278575e+03,5.975959e+02
1.279539e+03,5.971521e+02
1.280504e+03,5.948484e+02
1.281468e+03,5.930820e+02
1.282432e+03,5.930399e+02
1.283396e+03,5.943729e+02
1.284361e+03,5.970187e+02
1.285325e+03,6.002770e+02
1.286289e+03,6.016295e+02
1.287253e+03,6.003602e+02
1.288218e+03,5.981327e+02
1.289182e+03,5.954898e+02
1.290146e+03,5.936432e+02
1.291110e+03,5.953213e+02
1.292074e+03,5.994484e+02
1.293039e+03,6.017592e+02
1.294003e+03,5.984014e+02
1.294967e+03,5.948443e+02
1.295931e+03,5.934012e+02
1.296896e+03,5.932840e+02
1.297860e+03,5.937352e+02
1.298824e+03,5.948713e+02
1.299788e+03,5.951432e+02
1.300753e+03,5.937188e+02
1.301717e+03,5.923428e+02
1.302681e+03,5.915361e+02
1.303645e+03,5.913600e+02
1.304609e+03,5.923976e+02
1.305574e+03,5.948372e+02
1.306538e+03,5.951205e+02
1.307502e+03,5.926839e+02
1.308466e+03,5.902120e+02
1.309431e+03,5.903592e+02
1.310395e+03,5.924282e+02
1.311359e+03,5.944229e+02
1.312323e+03,5.959188e+02
1.313288e+03,5.958983e+02
1.314252e+03,5.936705e+02
1.315216e+03,5.916638e+02
1.316180e+03,5.922654e+02
1.317145e+03,5.941661e+02
1.318109e+03,5.958213e+02
1.319073e+03,5.967608e+02
1.320037e+03,5.970890e+02
1.321001e+03,5.966156e+02
1.321966e+03,5.958688e+02
1.322930e+03,5.952360e+02
1.323894e+03,5.947957e+02
1.324858e+03,5.942136e+02
1.325823e+03,5.924943e+02
1.326787e+03,5.932530e+02
1.327751e+03,5.978397e+02
1.328715e+03,6.013205e+02
1.329680e+03,6.000250e+02
1.330644e+03,5.953609e+02
1.331608e+03,5.933954e+02
1.332572e+03,5.939177e+02
1.333536e+03,5.952232e+02
1.334501e+03,5.968661e+02
1.335465e+03,5.980099e+02
1.336429e+03,5.980380e+02
1.337393e+03,5.972490e+02
1.338358e+03,5.953555e+02
1.339322e+03,5.928105e+02
1.340286e+03,5.912589e+02
1.341250e+03,5.927773e+02
1.342215e+03,5.938990e+02
1.343179e+03,5.931135e+02
1.344143e+03,5.917354e+02
1.345107e+03,5.909376e+02
1.346072e+03,5.909597e+02
1.347036e+03,5.895925e+02
1.348000e+03,5.850554e+02
1.348964e+03,5.822953e+02
1.349928e+03,5.840125e+02
1.350893e+03,5.882229e+02
1.351857e+03,5.895433e+02
1.352821e+03,5.880078e+02
1.353785e+03,5.886164e+02
1.354750e+03,5.919414e+02
1.355714e+03,5.939221e+02
1.356678e+03,5.896049e+02
1.357642e+03,5.833610e+02
1.358607e+03,5.814412e+02
1.359571e+03,5.824623e+02
1.360535e+03,5.835141e+02
1.361499e+03,5.837610e+02
1.362464e+03,5.839288e+02
1.363428e+03,5.838625e+02
1.364392e+03,5.844496e+02
1.365356e+03,5.863546e+02
1.366320e+03,5.891634e+02
1.367285e+03,5.912662e+02
1.368249e+03,5.928137e+02
1.369213e+03,5.938478e+02
1.370177e+03,5.941730e+02
1.371142e+03,5.944364e+02
1.372106e+03,5.958463e+02
1.373070e+03,5.980609e+02
1.374034e+03,5.979043e+02
1.374999e+03,5.958427e+02
1.375963e+03,5.951437e+02
1.376927e+03,5.981613e+02
1.377891e+03,6.014473e+02
1.378855e+03,6.012679e+02
1.379820e+03,5.990593e+02
1.380784e+03,5.965315e+02
1.381748e+03,5.941225e+02
1.382712e+03,5.916010e+02
1.383677e+03,5.876479e+02
1.384641e+03,5.844435e+02
1.385605e+03,5.827838e+02
1.386569e+03,5.821334e+02
1.387534e+03,5.821686e+02
1.388498e+03,5.834949e+02
1.389462e+03,5.819479e+02
1.390426e+03,5.768148e+02
1.391391e+03,5.720735e+02
1.392355e+03,5.705430e+02
1.393319e+03,5.710112e+02
1.394283e+03,5.713439e+02
1.395247e+03,5.714041e+02
1.396212e+03,5.709125e+02
1.397176e+03,5.697881e+02
1.398140e+03,5.688379e+02
1.399104e+03,5.679668e+02
1.400069e+03,5.677393e+02
1.401033e+03,5.695905e+02
1.401997e+03,5.723157e+02
1.402961e+03,5.724802e+02
1.403926e+03,5.677840e+02
1.404890e+03,5.656760e+02
1.405854e+03,5.673104e+02
1.406818e+03,5.699666e+02
1.407782e+03,5.721565e+02
1.408747e+03,5.737009e+02
1.409711e+03,5.726813e+02
1.410675e+03,5.694348e+02
1.411639e+03,5.669283e+02
1.412604e+03,5.661834e+02
1.413568e+03,5.658760e+02
1.414532e+03,5.658320e+02
1.415496e+03,5.653331e+02
1.416461e+03,5.624890e+02
1.417425e+03,5.581277e+02
1.418389e+03,5.560022e+02
1.419353e+03,5.593643e+02
1.420318e+03,5.610130e+02
1.421282e+03,5.597620e+02
1.422246e+03,5.584160e+02
1.423210e+03,5.597068e+02
1.424174e+03,5.629718e+02
1.425139e+03,5.621736e+02
1.426103e+03,5.577917e+02
1.427067e+03,5.556290e+02
1.428031e+03,5.581270e+02
1.428996e+03,5.606763e+02
1.429960e+03,5.572377e+02
1.430924e+03,5.525089e+02
1.431888e+03,5.516925e+02
1.432853e+03,5.543927e+02
1.433817e+03,5.565836e+02
1.434781e+03,5.586934e+02
1.435745e+03,5.582656e+02
1.436709e+03,5.532213e+02
1.437674e+03,5.476370e+02
1.438638e+03,5.454370e+02
1.439602e+03,5.464421e+02
1.440566e+03,5.472679e+02
1.441531e+03,5.478890e+02
1.442495e+03,5.487000e+02
1.443459e+03,5.498260e+02
1.444423e+03,5.508035e+02
1.445388e+03,5.512493e+02
1.446352e+03,5.510613e+02
1.447316e+03,5.500951e+02
1.448280e+03,5.487088e+02
1.449245e+03,5.476321e+02
1.450209e+03,5.461263e+02
1.451173e+03,5.465482e+02
1.452137e+03,5.504577e+02
1.453101e+03,5.535823e+02
1.454066e+03,5.511631e+02
1.455030e+03,5.443016e+02
1.455994e+03,5.415314e+02
1.456958e+03,5.425283e+02
1.457923e+03,5.458528e+02
1.458887e+03,5.517372e+02
1.459851e+03,5.556400e+02
1.460815e+03,5.508455e+02
1.461780e+03,5.442132e+02
1.462744e+03,5.427053e+02
1.463708e+03,5.460932e+02
1.464672e+03,5.485751e+02
1.465636e+03,5.504339e+02
1.466601e+03,5.500377e+02
1.467565e+03,5.463176e+02
1.468529e+03,5.423054e+02
1.469493e+03,5.407336e+02
1.470458e+03,5.410172e+02
1.471422e+03,5.418631e+02
1.472386e+03,5.430878e+02
1.473350e+03,5.435129e+02
1.474315e+03,5.423816e+02
1.475279e+03,5.412023e+02
1.476243e+03,5.408632e+02
1.477207e+03,5.407103e+02
1.478172e+03,5.407324e+02
1.479136e+03,5.407903e+02
1.480100e+03,5.401155e+02
1.481064e+03,5.385955e+02
1.482028e+03,5.369835e+02
1.482993e+03,5.354180e+02
1.483957e+03,5.340038e+02
1.484921e+03,5.325247e+02
1.485885e+03,5.312321e+02
1.486850e+03,5.310449e+02
1.487814e+03,5.311720e+02
1.488778e+03,5.300047e+02
1.489742e+03,5.266113e+02
1.490707e+03,5.239319e+02
1.491671e+03,5.236296e+02
1.492635e+03,5.240916e+02
1.493599e+03,5.245734e+02
1.494563e+03,5.248812e+02
1.495528e+03,5.245602e+02
1.496492e+03,5.235873e+02
1.497456e+03,5.244532e+02
1.498420e+03,5.275057e+02
1.499385e+03,5.290887e+02
1.500349e+03,5.241169e+02
1.501313e+03,5.186962e+02
1.502277e+03,5.190516e+02
1.503242e+03,5.219651e+02
1.504206e+03,5.223507e+02
1.505170e+03,5.178489e+02
1.506134e+03,5.169547e+02
1.507099e+03,5.212264e+02
1.508063e+03,5.251537e+02
1.509027e+03,5.268884e+02
1.509991e+03,5.266511e+02
1.510955e+03,5.236938e+02
1.511920e+03,5.194022e+02
1.512884e+03,5.172123e+02
1.513848e+03,5.173984e+02
1.514812e+03,5.181810e+02
1.515777e+03,5.184633e+02
1.516741e+03,5.187377e+02
1.517705e+03,5.184767e+02
1.518669e+03,5.188804e+02
1.519634e+03,5.220671e+02
1.520598e+03,5.275432e+02
1.521562e+03,5.255382e+02
1.522526e+03,5.165865e+02
1.523490e+03,5.126355e+02
1.524455e+03,5.186358e+02
1.525419e+03,5.249456e+02
1.526383e+03,5.212562e+02
1.527347e+03,5.150720e+02
1.528312e+03,5.130587e+02
1.529276e+03,5.149300e+02
1.530240e+03,5.169061e+02
1.531204e+03,5.192713e+02
1.532169e+03,5.193065e+02
1.533133e+03,5.162350e+02
1.534097e+03,5.135128e+02
1.535061e+03,5.142863e+02
1.536026e+03,5.164789e+02
1.536990e+03,5.164321e+02
1.537954e+03,5.150336e+02
1.538918e+03,5.136451e+02
1.539882e+03,5.124012e+02
1.540847e+03,5.121730e+02
1.541811e+03,5.145624e+02
1.542775e+03,5.158714e+02
1.543739e+03,5.152815e+02
1.544704e+03,5.132532e+02
1.545668e+03,5.091343e+02
1.546632e+03,5.040952e+02
1.547596e+03,5.044586e+02
1.548561e+03,5.095719e+02
1.549525e+03,5.135046e+02
1.550489e+03,5.116953e+02
1.551453e+03,5.095690e+02
1.552417e+03,5.100715e+02
1.553382e+03,5.108661e+02
1.554346e+03,5.101289e+02
1.555310e+03,5.081338e+02
1.556274e+03,5.060891e+02
1.557239e+03,5.039883e+02
1.558203e+03,5.035748e+02
1.559167e+03,5.053878e+02
1.560131e+03,5.071856e+02
1.561096e+03,5.072478e+02
1.562060e+03,5.063474e+02
1.563024e+03,5.037897e+02
1.563988e+03,5.010347e+02
1.564953e+03,5.013702e+02
1.565917e+03,5.061118e+02
1.566881e+03,5.096970e+02
1.567845e+03,5.119303e+02
1.568809e+03,5.130331e+02
1.569774e+03,5.131104e+02
1.570738e+03,5.123429e+02
1.571702e+03,5.103338e+02
1.572666e+03,5.079569e+02
1.573631e+03,5.068092e+02
1.574595e+03,5.071524e+02
1.575559e+03,5.055196e+02
1.576523e+03,4.993804e+02
1.577488e+03,4.976621e+02
1.578452e+03,5.028646e+02
1.579416e+03,5.085399e+02
1.580380e+03,5.067109e+02
1.581344e+03,5.013686e+02
1.582309e+03,5.002442e+02
1.583273e+03,5.020816e+02
1.584237e+03,5.033463e+02
1.585201e+03,5.026195e+02
1.586166e+03,5.025139e+02
1.587130e+03,5.039891e+02
1.588094e+03,5.042912e+02
1.589058e+03,5.018115e+02
1.590023e+03,4.985901e+02
1.590987e+03,4.987984e+02
1.591951e+03,5.014190e+02
1.592915e+03,5.043311e+02
1.593880e+03,5.067412e+02
1.594844e+03,5.070048e+02
1.595808e+03,5.022561e+02
1.596772e+03,4.984213e+02
1.597736e+03,4.964683e+02
1.598701e+03,4.964559e+02
1.599665e+03,4.994652e+02
1.600629e+03,5.040674e+02
1.601593e+03,5.033403e+02
1.602558e+03,4.990604e+02
1.603522e+03,4.969659e+02
1.604486e+03,4.991137e+02
1.605450e+03,5.007612e+02
1.606415e+03,5.000333e+02
1.607379e+03,4.985201e+02
1.608343e+03,4.962325e+02
1.609307e+03,4.940287e+02
1.610271e+03,4.939899e+02
1.611236e+03,4.954258e+02
1.612200e+03,4.952216e+02
1.613164e+03,4.936358e+02
1.614128e+03,4.925223e+02
1.615093e+03,4.921481e+02
1.616057e+03,4.931413e+02
1.617021e+03,4.984104e+02
1.617985e+03,5.017575e+02
1.618950e+03,4.985341e+02
1.619914e+03,4.909499e+02
1.620878e+03,4.874560e+02
1.621842e+03,4.873834e+02
1.622807e+03,4.883109e+02
1.623771e+03,4.898368e+02
1.624735e+03,4.908905e+02
1.625699e+03,4.895096e+02
1.626663e+03,4.890017e+02
1.627628e+03,4.913643e+02
1.628592e+03,4.937675e+02
1.629556e+03,4.926606e+02
1.630520e+03,4.889153e+02
1.631485e+03,4.857558e+02
1.632449e+03,4.833856e+02
1.633413e+03,4.827130e+02
1.634377e+03,4.848453e+02
1.635342e+03,4.868974e+02
1.636306e+03,4.885298e+02
1.637270e+03,4.888438e+02
1.638234e+03,4.869489e+02
1.639198e+03,4.839749e+02
1.640163e+03,4.821967e+02
1.641127e+03,4.815403e+02
1.642091e+03,4.811989e+02
1.643055e+03,4.810404e+02
1.644020e+03,4.820756e+02
1.644984e+03,4.880876e+02
1.645948e+03,4.899669e+02
1.646912e+03,4.843825e+02
1.647877e+03,4.774539e+02
1.648841e+03,4.739178e+02
1.649805e+03,4.733259e+02
1.650769e+03,4.752568e+02
1.651734e+03,4.785770e+02
1.652698e+03,4.805724e+02
1.653662e+03,4.802968e+02
1.654626e+03,4.795907e+02
1.655590e+03,4.793448e+02
1.656555e+03,4.777613e+02
1.657519e+03,4.738414e+02
1.658483e+03,4.703100e+02
1.659447e+03,4.715692e+02
1.660412e+03,4.751027e+02
1.661376e+03,4.768651e+02
1.662340e+03,4.769843e+02
1.663304e+03,4.762573e+02
1.664269e+03,4.730016e+02
1.665233e+03,4.720269e+02
1.666197e+03,4.741087e+02
1.667161e+03,4.753600e+02
1.668125e+03,4.732208e+02
1.669090e+03,4.703998e+02
1.670054e+03,4.717217e+02
1.671018e+03,4.746156e+02
1.671982e+03,4.756996e+02
1.672947e+03,4.747247e+02
1.673911e+03,4.740775e+02
1.674875e+03,4.734797e+02
1.675839e+03,4.740536e+02
1.676804e+03,4.763936e+02
1.677768e+03,4.779870e+02
1.678732e+03,4.751084e+02
1.679696e+03,4.715486e+02
1.680661e+03,4.713778e+02
1.681625e+03,4.722734e+02
1.682589e+03,4.709684e+02
1.683553e+03,4.674678e+02
1.684517e+03,4.656752e+02
1.685482e+03,4.654639e+02
1.686446e+03,4.645785e+02
1.687410e+03,4.619438e+02
1.688374e+03,4.610594e+02
1.689339e+03,4.682039e+02
1.690303e+03,4.738545e+02
1.691267e+03,4.707355e+02
1.692231e+03,4.637160e+02
1.693196e+03,4.605964e+02
1.694160e+03,4.607329e+02
1.695124e+03,4.606679e+02
1.696088e+03,4.603456e+02
1.697052e+03,4.600851e+02
1.698017e+03,4.590558e+02
1.698981e+03,4.592679e+02
1.699945e+03,4.622272e+02
1.700909e+03,4.644691e+02
1.701874e+03,4.644926e+02
1.702838e+03,4.632438e+02
1.703802e+03,4.617848e+02
1.704766e+03,4.600826e+02
1.705731e+03,4.583666e+02
1.706695e+03,4.568339e+02
1.707659e+03,4.562891e+02
1.708623e+03,4.569815e+02
1.709588e+03,4.591755e+02
1.710552e+03,4.631373e+02
1.711516e+03,4.657512e+02
1.712480e+03,4.637015e+02
1.713444e+03,4.596299e+02
1.714409e+03,4.546507e+02
1.715373e+03,4.508917e+02
1.716337e+03,4.524911e+02
1.717301e+03,4.595927e+02
1.718266e+03,4.620720e+02
1.719230e+03,4.599127e+02
1.720194e+03,4.572552e+02
1.721158e+03,4.550953e+02
1.722123e+03,4.533260e+02
1.723087e+03,4.523920e+02
1.724051e+03,4.511830e+02
1.725015e+03,4.483494e+02
1.725979e+03,4.459848e+02
1.726944e+03,4.478712e+02
1.727908e+03,4.526080e+02
1.728872e+03,4.539975e+02
1.729836e+03,4.525739e+02
1.730801e+03,4.515737e+02
1.731765e+03,4.524756e+02
1.732729e+03,4.536334e+02
1.733693e+03,4.557186e+02
1.734658e+03,4.553446e+02
1.735622e+03,4.497500e+02
1.736586e+03,4.439397e+02
1.737550e+03,4.471909e+02
1.738515e+03,4.531193e+02
1.739479e+03,4.533567e+02
1.740443e+03,4.485872e+02
1.741407e+03,4.476040e+02
1.742371e+03,4.512535e+02
1.743336e+03,4.498748e+02
1.744300e+03,4.428684e+02
1.745264e+03,4.376513e+02
1.746228e+03,4.417959e+02
1.747193e+03,4.461390e+02
1.748157e+03,4.449087e+02
1.749121e+03,4.439068e+02
1.750085e+03,4.475680e+02
1.751050e+03,4.531052e+02
1.752014e+03,4.512736e+02
1.752978e+03,4.452020e+02
1.753942e+03,4.429277e+02
1.754906e+03,4.457957e+02
1.755871e+03,4.457589e+02
1.756835e+03,4.387230e+02
1.757799e+03,4.355094e+02
1.758763e+03,4.390380e+02
1.759728e+03,4.429326e+02
1.760692e+03,4.392591e+02
1.761656e+03,4.346971e+02
1.762620e+03,4.371004e+02
1.763585e+03,4.418166e+02
1.764549e+03,4.411151e+02
1.765513e+03,4.349691e+02
1.766477e+03,4.348125e+02
1.767442e+03,4.396807e+02
1.768406e+03,4.429602e+02
1.769370e+03,4.425398e+02
1.770334e+03,4.416398e+02
1.771298e+03,4.422586e+02
1.772263e+03,4.408724e+02
1.773227e+03,4.356671e+02
1.774191e+03,4.305434e+02
1.775155e+03,4.318704e+02
1.776120e+03,4.357362e+02
1.777084e+03,4.365110e+02
1.778048e+03,4.348853e+02
1.779012e+03,4.332915e+02
1.779977e+03,4.319361e+02
1.780941e+03,4.310115e+02
1.781905e+03,4.303542e+02
1.782869e+03,4.312861e+02
1.783833e+03,4.351735e+02
1.784798e+03,4.385067e+02
1.785762e+03,4.397847e+02
1.786726e+03,4.386624e+02
1.787690e+03,4.343484e+02
1.788655e+03,4.290078e+02
1.789619e+03,4.265101e+02
1.790583e+03,4.260064e+02
1.791547e+03,4.256919e+02
1.792512e+03,4.256305e+02
1.793476e+03,4.270578e+02
1.794440e+03,4.311582e+02
1.795404e+03,4.317196e+02
1.796369e+03,4.281661e+02
1.797333e+03,4.253794e+02
1.798297e+03,4.265099e+02
1.799261e+03,4.289188e+02
1.800225e+03,4.320767e+02
1.801190e+03,4.340267e+02
1.802154e+03,4.333348e+02
1.803118e+03,4.310957e+02
1.804082e+03,4.303022e+02
1.805047e+03,4.306170e+02
1.806011e+03,4.314478e+02
1.806975e+03,4.324877e+02
1.807939e+03,4.317008e+02
1.808904e+03,4.281263e+02
1.809868e+03,4.251396e+02
1.810832e+03,4.232138e+02
1.811796e+03,4.216603e+02
1.812760e+03,4.191928e+02
1.813725e+03,4.177082e+02
1.814689e+03,4.191281e+02
1.815653e+03,4.215962e+02
1.816617e+03,4.243520e+02
1.817582e+03,4.265646e+02
1.818546e+03,4.243741e+02
1.819510e+03,4.197873e+02
1.820474e+03,4.172657e+02
1.821439e+03,4.176469e+02
1.822403e+03,4.188886e+02
1.823367e+03,4.214238e+02
1.824331e+03,4.214252e+02
1.825296e+03,4.180793e+02
1.826260e+03,4.143810e+02
1.827224e+03,4.128672e+02
1.828188e+03,4.121862e+02
1.829152e+03,4.105655e+02
1.830117e+03,4.102280e+02
1.831081e+03,4.147436e+02
1.832045e+03,4.208507e+02
1.833009e+03,4.170318e+02
1.833974e+03,4.090386e+02
1.834938e+03,4.083454e+02
1.835902e+03,4.179472e+02
1.836866e+03,4.199862e+02
1.837831e+03,4.136910e+02
1.838795e+03,4.109300e+02
1.839759e+03,4.144977e+02
1.840723e+03,4.186395e+02
1.841688e+03,4.208884e+02
1.842652e+03,4.199527e+02
1.843616e+03,4.140448e+02
1.844580e+03,4.077119e+02
1.845544e+03,4.062931e+02
1.846509e+03,4.075864e+02
1.847473e+03,4.076024e+02
1.848437e+03,4.072183e+02
1.849401e+03,4.085540e+02
1.850366e+03,4.116954e+02
1.851330e+03,4.130102e+02
1.852294e+03,4.125981e+02
1.853258e+03,4.093280e+02
1.854223e+03,4.024033e+02
1.855187e+03,3.982773e+02
1.856151e+03,4.014924e+02
1.857115e+03,4.050204e+02
1.858079e+03,4.074877e+02
1.859044e+03,4.097351e+02
1.860008e+03,4.150632e+02
1.860972e+03,4.186756e+02
1.861936e+03,4.126342e+02
1.862901e+03,4.037214e+02
1.863865e+03,4.018604e+02
1.864829e+03,4.057051e+02
1.865793e+03,4.061460e+02
1.866758e+03,4.044532e+02
1.867722e+03,4.042282e+02
1.868686e+03,4.067477e+02
1.869650e+03,4.078238e+02
1.870615e+03,4.068771e+02
1.871579e+03,4.053310e+02
1.872543e+03,4.036091e+02
1.873507e+03,4.028018e+02
1.874471e+03,4.049902e+02
1.875436e+03,4.057787e+02
1.876400e+03,4.023969e+02
1.877364e+03,3.986063e+02
1.878328e+03,3.991166e+02
1.879293e+03,4.018973e+02
1.880257e+03,4.039669e+02
1.881221e+03,4.047159e+02
1.882185e+03,4.026887e+02
1.883150e+03,3.979786e+02
1.884114e+03,3.958725e+02
1.885078e+03,3.958204e+02
1.886042e+03,3.941720e+02
1.887006e+03,3.892634e+02
1.887971e+03,3.880333e+02
1.888935e+03,3.954977e+02
1.889899e+03,4.004218e+02
1.890863e+03,3.998903e+02
1.891828e+03,3.970158e+02
1.892792e+03,3.932348e+02
1.893756e+03,3.906099e+02
1.894720e+03,3.924781e+02
1.895685e+03,3.956219e+02
1.896649e+03,3.962372e+02
1.897613e+03,3.949484e+02
1.898577e+03,3.943945e+02
1.899542e+03,3.941747e+02
1.900506e+03,3.931866e+02
1.901470e+03,3.911223e+02
1.902434e+03,3.892356e+02
1.903398e+03,3.875606e+02
1.904363e+03,3.863404e+02
1.905327e+03,3.857173e+02
1.906291e+03,3.851669e+02
1.907255e+03,3.830032e+02
1.908220e+03,3.831179e+02
1.909184e+03,3.867124e+02
1.910148e+03,3.907243e+02
1.911112e+03,3.934071e+02
1.912077e+03,3.941568e+02
1.913041e+03,3.905374e+02
1.914005e+03,3.862290e+02
1.914969e+03,3.851201e+02
1.915933e+03,3.863553e+02
1.916898e+03,3.870568e+02
1.917862e+03,3.876324e+02
1.918826e+03,3.893096e+02
1.919790e+03,3.924236e+02
1.920755e+03,3.910428e+02
1.921719e+03,3.852536e+02
1.922683e+03,3.827476e+02
1.923647e+03,3.853268e+02
1.924612e+03,3.869812e+02
1.925576e+03,3.837715e+02
1.926540e+03,3.811259e+02
1.927504e+03,3.793932e+02
1.928469e+03,3.790353e+02
1.929433e+03,3.819166e+02
1.930397e+03,3.845306e+02
1.931361e+03,3.840872e+02
1.932325e+03,3.822938e+02
1.933290e+03,3.799111e+02
1.934254e+03,3.781474e+02
1.935218e+03,3.799741e+02
1.936182e+03,3.834205e+02
1.937147e+03,3.865217e+02
1.938111e+03,3.888020e+02
1.939075e+03,3.866075e+02
1.940039e+03,3.809022e+02
1.941004e+03,3.764835e+02
1.941968e+03,3.738451e+02
1.942932e+03,3.726102e+02
1.943896e+03,3.734165e+02
1.944860e+03,3.736967e+02
1.945825e+03,3.733255e+02
1.946789e+03,3.735722e+02
1.947753e+03,3.767736e+02
1.948717e+03,3.781938e+02
1.949682e+03,3.742151e+02
1.950646e+03,3.711884e+02
1.951610e+03,3.736404e+02
1.952574e+03,3.779160e+02
1.953539e+03,3.794427e+02
1.954503e+03,3.790817e+02
1.955467e+03,3.771726e+02
1.956431e+03,3.748624e+02
1.957396e+03,3.751764e+02
1.958360e+03,3.769660e+02
1.959324e+03,3.781508e+02
1.960288e+03,3.784068e+02
1.961252e+03,3.765167e+02
1.962217e+03,3.720960e+02
1.963181e+03,3.674217e+02
1.964145e+03,3.630663e+02
1.965109e+03,3.627957e+02
1.966074e+03,3.735385e+02
1.967038e+03,3.784405e+02
1.968002e+03,3.750153e+02
1.968966e+03,3.712736e+02
1.969931e+03,3.709693e+02
1.970895e+03,3.714528e+02
1.971859e+03,3.714505e+02
1.972823e+03,3.715073e+02
1.973787e+03,3.714761e+02
1.974752e+03,3.718979e+02
1.975716e+03,3.751147e+02
1.976680e+03,3.779978e+02
1.977644e+03,3.770033e+02
1.978609e+03,3.736519e+02
1.979573e+03,3.691189e+02
1.980537e+03,3.642808e+02
1.981501e+03,3.629611e+02
1.982466e+03,3.642987e+02
1.983430e+03,3.656765e+02
1.984394e+03,3.667859e+02
1.985358e+03,3.664103e+02
1.986323e+03,3.649243e+02
1.987287e+03,3.655042e+02
1.988251e+03,3.699639e+02
1.989215e+03,3.703733e+02
1.990179e+03,3.652944e+02
1.991144e+03,3.604592e+02
1.992108e+03,3.571995e+02
1.993072e+03,3.559416e+02
1.994036e+03,3.584496e+02
1.995001e+03,3.606151e+02
1.995965e+03,3.613123e+02
1.996929e+03,3.614821e+02
1.997893e+03,3.628552e+02
1.998858e+03,3.627141e+02
1.999822e+03,3.561428e+02
2.000786e+03,3.493593e+02
2.001750e+03,3.478367e+02
2.002714e+03,3.504423e+02
2.003679e+03,3.572620e+02
2.004643e+03,3.638283e+02
2.005607e+03,3.614113e+02
2.006571e+03,3.528611e+02
2.007536e+03,3.483705e+02
2.008500e+03,3.474826e+02
2.009464e+03,3.500117e+02
2.010428e+03,3.552738e+02
2.011393e+03,3.559608e+02
2.012357e+03,3.512510e+02
2.013321e+03,3.502288e+02
2.014285e+03,3.530765e+02
2.015250e+03,3.558536e+02
2.016214e+03,3.579262e+02
2.017178e+03,3.566320e+02
2.018142e+03,3.515201e+02
2.019106e+03,3.487270e+02
2.020071e+03,3.531653e+02
2.021035e+03,3.559487e+02
2.021999e+03,3.510377e+02
2.022963e+03,3.470142e+02
2.023928e+03,3.475733e+02
2.024892e+03,3.490432e+02
2.025856e+03,3.463727e+02
2.026820e+03,3.441730e+02
2.027785e+03,3.458357e+02
2.028749e+03,3.483405e+02
2.029713e+03,3.473176e+02
2.030677e+03,3.448889e+02
2.031641e+03,3.433494e+02
2.032606e+03,3.426992e+02
2.033570e+03,3.431404e+02
2.034534e+03,3.440579e+02
2.035498e+03,3.426829e+02
2.036463e+03,3.399652e+02
2.037427e+03,3.375766e+02
2.038391e+03,3.359277e+02
2.039355e+03,3.377738e+02
2.040320e+03,3.421570e+02
2.041284e+03,3.448098e+02
2.042248e+03,3.446339e+02
2.043212e+03,3.432931e+02
2.044177e+03,3.408890e+02
2.045141e+03,3.412692e+02
2.046105e+03,3.448316e+02
2.047069e+03,3.470224e+02
2.048033e+03,3.434632e+02
2.048998e+03,3.425300e+02
2.049962e+03,3.452197e+02
2.050926e+03,3.473354e+02
2.051890e+03,3.459946e+02
2.052854e+03,3.433422e+02
2.053819e+03,3.391300e+02
2.054783e+03,3.358829e+02
2.055747e+03,3.350909e+02
2.056711e+03,3.362268e+02
2.057676e+03,3.416269e+02
2.058640e+03,3.447345e+02
2.059604e+03,3.412134e+02
2.060568e+03,3.352731e+02
2.061533e+03,3.319752e+02
2.062497e+03,3.311181e+02
2.063461e+03,3.339726e+02
2.064425e+03,3.377516e+02
2.065390e+03,3.393846e+02
2.066354e+03,3.388135e+02
2.067318e+03,3.351432e+02
2.068282e+03,3.297373e+02
2.069247e+03,3.242222e+02
2.070211e+03,3.193236e+02
2.071175e+03,3.227888e+02
2.072139e+03,3.304891e+02
2.073104e+03,3.313390e+02
2.074068e+03,3.247528e+02
2.075032e+03,3.236434e+02
2.075996e+03,3.265699e+02
2.076960e+03,3.275644e+02
2.077925e+03,3.255225e+02
2.078889e+03,3.254263e+02
2.079853e+03,3.276642e+02
2.080817e+03,3.279809e+02
2.081782e+03,3.259850e+02
2.082746e+03,3.245345e+02
2.083710e+03,3.256964e+02
2.084674e+03,3.248062e+02
2.085639e+03,3.218067e+02
2.086603e+03,3.199618e+02
2.087567e+03,3.210159e+02
2.088531e+03,3.226225e+02
2.089496e+03,3.245246e+02
2.090460e+03,3.250462e+02
2.091424e+03,3.236058e+02
2.092388e+03,3.222279e+02
2.093353e+03,3.220695e+02
2.094317e+03,3.217179e+02
2.095281e+03,3.201060e+02
2.096245e+03,3.193671e+02
2.097209e+03,3.224484e+02
2.098174e+03,3.265213e+02
2.099138e+03,3.313865e+02
2.100102e+03,3.338748e+02
2.101066e+03,3.286881e+02
2.102031e+03,3.214768e+02
2.102995e+03,3.155555e+02
2.103959e+03,3.123112e+02
2.104923e+03,3.146406e+02
2.105887e+03,3.190767e+02
2.106852e+03,3.192410e+02
2.107816e+03,3.177968e+02
2.108780e+03,3.184192e+02
2.109744e+03,3.196870e+02
2.110708e+03,3.173378e+02
2.111673e+03,3.142220e+02
2.112637e+03,3.148723e+02
2.113601e+03,3.174705e+02
2.114565e+03,3.185827e+02
2.115530e+03,3.183423e+02
2.116494e+03,3.161592e+02
2.117458e+03,3.133658e+02
2.118422e+03,3.129700e+02
2.119387e+03,3.143436e+02
2.120351e+03,3.158292e+02
2.121315e+03,3.170856e+02
2.122279e+03,3.181231e+02
2.123244e+03,3.189502e+02
2.124208e+03,3.179901e+02
2.125172e+03,3.158070e+02
2.126136e+03,3.137618e+02
2.127101e+03,3.121632e+02
2.128065e+03,3.115942e+02
2.129029e+03,3.118872e+02
2.129993e+03,3.125168e+02
2.130958e+03,3.130688e+02
2.131922e+03,3.124664e+02
2.132886e+03,3.106039e+02
2.133850e+03,3.112063e+02
2.134814e+03,3.147473e+02
2.135779e+03,3.170822e+02
2.136743e+03,3.168896e+02
2.137707e+03,3.134184e+02
2.138671e+03,3.070515e+02
2.139636e+03,3.037421e+02
2.140600e+03,3.091862e+02
2.141564e+03,3.116407e+02
2.142528e+03,3.103221e+02
2.143493e+03,3.085331e+02
2.144457e+03,3.077498e+02
2.145421e+03,3.045073e+02
2.146385e+03,2.967897e+02
2.147350e+03,2.926253e+02
2.148314e+03,2.946152e+02
2.149278e+03,2.981607e+02
2.150242e+03,3.009566e+02
2.151207e+03,3.029471e+02
2.152171e+03,3.039294e+02
2.153135e+03,3.048031e+02
2.154099e+03,3.088090e+02
2.155063e+03,3.088044e+02
2.156028e+03,3.026967e+02
2.156992e+03,2.969511e+02
2.157956e+03,2.954943e+02
2.158920e+03,2.959964e+02
2.159885e+03,2.982407e+02
2.160849e+03,2.998482e+02
2.161813e+03,2.992471e+02
2.162777e+03,2.986953e+02
2.163741e+03,3.015192e+02
2.164706e+03,3.026564e+02
2.165670e+03,2.997882e+02
2.166634e+03,2.975834e+02
2.167598e+03,3.032726e+02
2.168563e+03,3.073749e+02
2.169527e+03,3.053820e+02
2.170491e+03,3.007269e+02
2.171455e+03,2.954651e+02
2.172420e+03,2.918594e+02
2.173384e+03,2.921016e+02
2.174348e+03,2.932441e+02
2.175312e+03,2.927857e+02
2.176277e+03,2.920211e+02
2.177241e+03,2.923480e+02
2.178205e+03,2.931364e+02
2.179169e+03,2.948010e+02
2.180134e+03,2.957169e+02
2.181098e+03,2.906089e+02
2.182062e+03,2.873823e+02
2.183026e+03,2.918539e+02
2.183990e+03,2.983290e+02
2.184955e+03,2.993464e+02
2.185919e+03,2.971001e+02
2.186883e+03,2.920340e+02
2.187847e+03,2.872051e+02
2.188812e+03,2.867823e+02
2.189776e+03,2.885490e+02
2.190740e+03,2.909376e+02
2.191704e+03,2.930512e+02
2.192668e+03,2.951715e+02
2.193633e+03,2.958457e+02
2.194597e+03,2.901095e+02
2.195561e+03,2.848944e+02
2.196525e+03,2.866874e+02
2.197490e+03,2.918664e+02
2.198454e+03,2.966607e+02
2.199418e+03,2.982173e+02
2.200382e+03,2.933415e+02
2.201347e+03,2.866787e+02
2.202311e+03,2.854133e+02
2.203275e+03,2.870738e+02
2.204239e+03,2.901366e+02
2.205204e+03,2.924383e+02
2.206168e+03,2.908668e+02
2.207132e+03,2.879770e+02
2.208096e+03,2.861630e+02
2.209061e+03,2.852250e+02
2.210025e+03,2.863606e+02
2.210989e+03,2.873406e+02
2.211953e+03,2.837951e+02
2.212917e+03,2.793505e+02
2.213882e+03,2.761717e+02
2.214846e+03,2.747520e+02
2.215810e+03,2.782610e+02
2.216774e+03,2.823151e+02
2.217739e+03,2.833764e+02
2.218703e+03,2.828071e+02
2.219667e+03,2.821804e+02
2.220631e+03,2.818755e+02
2.221595e+03,2.823609e+02
2.222560e+03,2.828469e+02
2.223524e+03,2.818236e+02
2.224488e+03,2.806778e+02
2.225452e+03,2.821182e+02
2.226417e+03,2.834624e+02
2.227381e+03,2.806628e+02
2.228345e+03,2.774234e+02
2.229309e+03,2.793868e+02
2.230274e+03,2.821537e+02
2.231238e+03,2.821519e+02
2.232202e+03,2.803824e+02
2.233166e+03,2.772556e+02
2.234131e+03,2.751028e+02
2.235095e+03,2.758482e+02
2.236059e+03,2.773949e+02
2.237023e+03,2.761793e+02
2.237988e+03,2.745463e+02
2.238952e+03,2.739213e+02
2.239916e+03,2.740608e+02
2.240880e+03,2.756869e+02
2.241844e+03,2.772379e+02
2.242809e+03,2.775200e+02
2.243773e+03,2.772544e+02
2.244737e+03,2.775255e+02
2.245701e+03,2.766517e+02
2.246666e+03,2.720009e+02
2.247630e+03,2.674495e+02
2.248594e+03,2.654200e+02
2.249558e+03,2.657467e+02
2.250522e+03,2.708743e+02
2.251487e+03,2.742241e+02
2.252451e+03,2.715921e+02
2.253415e+03,2.674632e+02
2.254379e+03,2.667076e+02
2.255344e+03,2.664027e+02
2.256308e+03,2.652143e+02
2.257272e+03,2.648821e+02
2.258236e+03,2.688658e+02
2.259201e+03,2.712481e+02
2.260165e+03,2.697202e+02
2.261129e+03,2.676109e+02
2.262093e+03,2.673484e+02
2.263058e+03,2.679492e+02
2.264022e+03,2.693171e+02
2.264986e+03,2.710514e+02
2.265950e+03,2.737226e+02
2.266915e+03,2.742847e+02
2.267879e+03,2.714713e+02
2.268843e+03,2.681161e+02
2.269807e+03,2.657627e+02
2.270771e+03,2.631276e+02
2.271736e+03,2.589718e+02
2.272700e+03,2.581364e+02
2.273664e+03,2.622183e+02
2.274628e+03,2.653294e+02
2.275593e+03,2.640735e+02
2.276557e+03,2.640450e+02
2.277521e+03,2.663249e+02
2.278485e+03,2.673315e+02
2.279449e+03,2.634937e+02
2.280414e+03,2.637794e+02
2.281378e+03,2.684777e+02
2.282342e+03,2.711654e+02
2.283306e+03,2.666603e+02
2.284271e+03,2.635138e+02
2.285235e+03,2.616171e+02
2.286199e+03,2.601102e+02
2.287163e+03,2.590673e+02
2.288128e+03,2.590357e+02
2.289092e+03,2.597068e+02
2.290056e+03,2.606918e+02
2.291020e+03,2.619790e+02
2.291985e+03,2.613767e+02
2.292949e+03,2.594300e+02
2.293913e+03,2.597617e+02
2.294877e+03,2.621417e+02
2.295842e+03,2.603822e+02
2.296806e+03,2.553496e+02
2.297770e+03,2.584632e+02
2.298734e+03,2.673089e+02
2.299698e+03,2.700875e+02
2.300663e+03,2.671319e+02
2.301627e+03,2.614520e+02
2.302591e+03,2.551199e+02
2.303555e+03,2.532882e+02
2.304520e+03,2.549323e+02
2.305484e+03,2.557078e+02
2.306448e+03,2.558123e+02
2.307412e+03,2.551072e+02
2.308376e+03,2.541344e+02
2.309341e+03,2.549067e+02
2.310305e+03,2.560242e+02
2.311269e+03,2.557408e+02
2.312233e+03,2.547826e+02
2.313198e+03,2.540545e+02
2.314162e+03,2.528808e+02
2.315126e+03,2.496684e+02
2.316090e+03,2.470816e+02
2.317055e+03,2.495755e+02
2.318019e+03,2.525904e+02
2.318983e+03,2.511347e+02
2.319947e+03,2.492746e+02
2.320912e+03,2.507238e+02
2.321876e+03,2.521672e+02
2.322840e+03,2.504798e+02
2.323804e+03,2.485060e+02
2.324769e+03,2.471424e+02
2.325733e+03,2.473112e+02
2.326697e+03,2.509313e+02
2.327661e+03,2.529364e+02
2.328625e+03,2.513440e+02
2.329590e+03,2.499515e+02
2.330554e+03,2.522827e+02
2.331518e+03,2.522999e+02
2.332482e+03,2.488969e+02
2.333447e+03,2.476404e+02
2.334411e+03,2.528235e+02
2.335375e+03,2.563041e+02
2.336339e+03,2.575670e+02
2.337303e+03,2.567781e+02
2.338268e+03,2.526446e+02
2.339232e+03,2.500206e+02
2.340196e+03,2.489334e+02
2.341160e+03,2.493190e+02
2.342125e+03,2.514483e+02
2.343089e+03,2.497708e+02
2.344053e+03,2.455287e+02
2.345017e+03,2.455834e+02
2.345982e+03,2.502132e+02
2.346946e+03,2.527716e+02
2.347910e+03,2.534340e+02
2.348874e+03,2.505643e+02
2.349839e+03,2.459841e+02
2.350803e+03,2.460407e+02
2.351767e+03,2.486358e+02
2.352731e+03,2.500340e+02
2.353696e+03,2.503047e+02
2.354660e+03,2.492595e+02
2.355624e+03,2.474195e+02
2.356588e+03,2.459223e+02
2.357552e+03,2.441792e+02
2.358517e+03,2.401344e+02
2.359481e+03,2.377262e+02
2.360445e+03,2.452293e+02
2.361409e+03,2.507877e+02
2.362374e+03,2.475773e+02
2.363338e+03,2.423051e+02
2.364302e+03,2.404915e+02
2.365266e+03,2.402376e+02
2.366230e+03,2.411330e+02
2.367195e+03,2.418434e+02
2.368159e+03,2.419153e+02
2.369123e+03,2.393044e+02
2.370087e+03,2.337333e+02
2.371052e+03,2.316635e+02
2.372016e+03,2.378567e+02
2.372980e+03,2.427276e+02
2.373944e+03,2.457284e+02
2.374909e+03,2.478404e+02
2.375873e+03,2.496175e+02
2.376837e+03,2.495011e+02
2.377801e+03,2.476509e+02
2.378766e+03,2.439621e+02
2.379730e+03,2.387219e+02
2.380694e+03,2.348089e+02
2.381658e+03,2.326200e+02
2.382623e+03,2.340812e+02
2.383587e+03,2.373292e+02
2.384551e+03,2.360662e+02
2.385515e+03,2.332551e+02
2.386479e+03,2.354953e+02
2.387444e+03,2.386608e+02
2.388408e+03,2.345915e+02
2.389372e+03,2.302192e+02
2.390336e+03,2.339019e+02
2.391301e+03,2.384044e+02
2.392265e+03,2.358432e+02
2.393229e+03,2.326110e+02
2.394193e+03,2.324916e+02
2.395157e+03,2.335248e+02
2.396122e+03,2.356856e+02
2.397086e+03,2.360865e+02
2.398050e+03,2.334227e+02
2.399014e+03,2.326833e+02
2.399979e+03,2.363760e+02
2.400943e+03,2.391401e+02
2.401907e+03,2.401674e+02
2.402871e+03,2.372533e+02
2.403836e+03,2.298912e+02
2.404800e+03,2.271792e+02
2.405764e+03,2.293079e+02
2.406728e+03,2.308076e+02
2.407693e+03,2.311600e+02
2.408657e+03,2.327171e+02
2.409621e+03,2.347991e+02
2.410585e+03,2.320433e+02
2.411550e+03,2.264950e+02
2.412514e+03,2.226280e+02
2.413478e+03,2.211886e+02
2.414442e+03,2.270592e+02
2.415406e+03,2.335153e+02
2.416371e+03,2.325043e+02
2.417335e+03,2.291619e+02
2.418299e+03,2.313120e+02
2.419263e+03,2.335714e+02
2.420228e+03,2.330409e+02
2.421192e+03,2.313064e+02
2.422156e+03,2.296064e+02
2.423120e+03,2.269622e+02
2.424084e+03,2.224905e+02
2.425049e+03,2.211583e+02
2.426013e+03,2.278925e+02
2.426977e+03,2.330465e+02
2.427941e+03,2.357985e+02
2.428906e+03,2.330607e+02
2.429870e+03,2.227064e+02
2.430834e+03,2.184967e+02
2.431798e+03,2.197575e+02
2.432763e+03,2.209781e+02
2.433727e+03,2.214373e+02
2.434691e+03,2.227840e+02
2.435655e+03,2.243545e+02
2.436620e+03,2.252420e+02
2.437584e+03,2.249359e+02
2.438548e+03,2.197044e+02
2.439512e+03,2.154681e+02
2.440477e+03,2.188884e+02
2.441441e+03,2.235415e+02
2.442405e+03,2.191772e+02
2.443369e+03,2.159260e+02
2.444333e+03,2.189134e+02
2.445298e+03,2.224792e+02
2.446262e+03,2.218924e+02
2.447226e+03,2.199585e+02
2.448190e+03,2.172946e+02
2.449155e+03,2.156352e+02
2.450119e+03,2.165270e+02
2.451083e+03,2.184071e+02
2.452047e+03,2.208900e+02
2.453011e+03,2.209883e+02
2.453976e+03,2.179241e+02
2.454940e+03,2.179183e+02
2.455904e+03,2.198731e+02
2.456868e+03,2.197201e+02
2.457833e+03,2.178192e+02
2.458797e+03,2.154166e+02
2.459761e+03,2.143065e+02
2.460725e+03,2.177511e+02
2.461690e+03,2.221304e+02
2.462654e+03,2.225263e+02
2.463618e+03,2.207847e+02
2.464582e+03,2.177700e+02
2.465547e+03,2.161841e+02
2.466511e+03,2.206031e+02
2.467475e+03,2.220943e+02
2.468439e+03,2.186280e+02
2.469404e+03,2.146929e+02
2.470368e+03,2.120192e+02
2.471332e+03,2.125543e+02
2.472296e+03,2.157478e+02
2.473260e+03,2.174448e+02
2.474225e+03,2.165072e+02
2.475189e+03,2.169308e+02
2.476153e+03,2.179846e+02
2.477117e+03,2.155818e+02
2.478082e+03,2.117145e+02
2.479046e+03,2.143702e+02
2.480010e+03,2.194614e+02
2.480974e+03,2.222188e+02
2.481938e+03,2.226699e+02
2.482903e+03,2.194336e+02
2.483867e+03,2.157889e+02
2.484831e+03,2.134340e+02
2.485795e+03,2.115668e+02
2.486760e+03,2.081584e+02
2.487724e+03,2.094871e+02
2.488688e+03,2.165425e+02
2.489652e+03,2.211764e+02
2.490617e+03,2.180439e+02
2.491581e+03,2.137490e+02
2.492545e+03,2.089780e+02
2.493509e+03,2.071545e+02
2.494474e+03,2.084304e+02
2.495438e+03,2.098588e+02
2.496402e+03,2.115173e+02
2.497366e+03,2.146099e+02
2.498331e+03,2.171463e+02
2.499295e+03,2.134770e+02
2.500259e+03,2.089328e+02
2.501223e+03,2.085074e+02
2.502188e+03,2.093142e+02
2.503152e+03,2.072903e+02
2.504116e+03,2.080079e+02
2.505080e+03,2.132384e+02
2.506044e+03,2.176997e+02
2.507009e+03,2.174702e+02
2.507973e+03,2.163399e+02
2.508937e+03,2.146794e+02
2.509901e+03,2.128981e+02
2.510865e+03,2.109619e+02
2.511830e+03,2.108394e+02
2.512794e+03,2.114522e+02
2.513758e+03,2.094828e+02
2.514722e+03,2.066305e+02
2.515687e+03,2.083819e+02
2.516651e+03,2.112483e+02
2.517615e+03,2.117940e+02
2.518579e+03,2.106033e+02
2.519544e+03,2.064522e+02
2.520508e+03,2.043271e+02
2.521472e+03,2.061672e+02
2.522436e+03,2.084954e+02
2.523401e+03,2.086789e+02
2.524365e+03,2.101185e+02
2.525329e+03,2.127117e+02
2.526293e+03,2.135905e+02
2.527258e+03,2.123731e+02
2.528222e+03,2.085533e+02
2.529186e+03,2.034699e+02
2.530150e+03,2.010658e+02
2.531115e+03,2.010895e+02
2.532079e+03,2.032510e+02
2.533043e+03,2.056355e+02
2.534007e+03,2.061975e+02
2.534971e+03,2.056377e+02
2.535936e+03,2.048865e+02
2.536900e+03,2.035917e+02
2.537864e+03,2.013102e+02
2.538828e+03,2.006992e+02
2.539792e+03,2.033297e+02
2.540757e+03,2.054659e+02
2.541721e+03,2.066476e+02
2.542685e+03,2.070251e+02
2.543649e+03,2.069850e+02
2.544614e+03,2.102522e+02
2.545578e+03,2.146942e+02
2.546542e+03,2.134681e+02
2.547506e+03,2.098776e+02
2.548471e+03,2.134985e+02
2.549435e+03,2.173599e+02
2.550399e+03,2.149027e+02
2.551363e+03,2.105247e+02
2.552328e+03,2.063596e+02
2.553292e+03,2.064805e+02
2.554256e+03,2.138902e+02
2.555220e+03,2.182860e+02
2.556185e+03,2.178798e+02
2.557149e+03,2.148356e+02
2.558113e+03,2.097336e+02
2.559077e+03,2.074757e+02
2.560042e+03,2.072343e+02
2.561006e+03,2.052486e+02
2.561970e+03,2.038686e+02
2.562934e+03,2.100100e+02
2.563898e+03,2.159144e+02
2.564863e+03,2.106316e+02
2.565827e+03,2.041402e+02
2.566791e+03,2.038477e+02
2.567755e+03,2.058171e+02
2.568719e+03,2.086848e+02
2.569684e+03,2.092728e+02
2.570648e+03,2.049492e+02
2.571612e+03,2.045683e+02
2.572576e+03,2.075810e+02
2.573541e+03,2.080839e+02
2.574505e+03,2.059270e+02
2.575469e+03,2.064033e+02
2.576433e+03,2.069881e+02
2.577398e+03,2.033471e+02
2.578362e+03,1.991788e+02
2.579326e+03,2.007746e+02
2.580290e+03,2.011775e+02
2.581255e+03,1.969517e+02
2.582219e+03,1.940844e+02
2.583183e+03,1.991204e+02
2.584147e+03,2.011977e+02
2.585112e+03,2.003228e+02
2.586076e+03,2.009494e+02
2.587040e+03,2.038038e+02
2.588004e+03,2.011719e+02
2.588969e+03,1.959130e+02
2.589933e+03,1.949990e+02
2.590897e+03,1.960832e+02
2.591861e+03,1.933256e+02
2.592825e+03,1.910423e+02
2.593790e+03,1.918681e+02
2.594754e+03,1.939948e+02
2.595718e+03,1.966734e+02
2.596682e+03,1.994333e+02
2.597646e+03,2.021878e+02
2.598611e+03,1.995151e+02
2.599575e+03,1.922691e+02
2.600539e+03,1.915914e+02
2.601503e+03,1.966632e+02
2.602468e+03,1.994288e+02
2.603432e+03,1.996871e+02
2.604396e+03,1.937209e+02
2.605360e+03,1.896868e+02
2.606325e+03,1.985765e+02
2.607289e+03,2.056600e+02
2.608253e+03,2.047213e+02
2.609217e+03,2.005288e+02
2.610182e+03,1.933053e+02
2.611146e+03,1.873463e+02
2.612110e+03,1.833327e+02
2.613074e+03,1.846003e+02
2.614039e+03,1.904938e+02
2.615003e+03,1.958286e+02
2.615967e+03,1.986616e+02
2.616931e+03,1.957587e+02
2.617896e+03,1.913002e+02
2.618860e+03,1.888342e+02
2.619824e+03,1.903204e+02
2.620788e+03,1.967323e+02
2.621752e+03,1.989918e+02
2.622717e+03,1.887941e+02
2.623681e+03,1.866270e+02
2.624645e+03,1.919439e+02
2.625609e+03,1.917377e+02
2.626573e+03,1.866076e+02
2.627538e+03,1.898397e+02
2.628502e+03,1.954007e+02
2.629466e+03,1.933304e+02
2.630430e+03,1.888991e+02
2.631395e+03,1.887945e+02
2.632359e+03,1.893178e+02
2.633323e+03,1.897547e+02
2.634287e+03,1.876786e+02
2.635252e+03,1.828109e+02
2.636216e+03,1.818451e+02
2.637180e+03,1.859226e+02
2.638144e+03,1.900846e+02
2.639109e+03,1.934714e+02
2.640073e+03,1.944800e+02
2.641037e+03,1.932348e+02
2.642001e+03,1.859298e+02
2.642966e+03,1.817309e+02
2.643930e+03,1.861532e+02
2.644894e+03,1.906156e+02
2.645858e+03,1.895086e+02
2.646823e+03,1.869097e+02
2.647787e+03,1.832192e+02
2.648751e+03,1.796770e+02
2.649715e+03,1.768144e+02
2.650679e+03,1.805428e+02
2.651644e+03,1.874975e+02
2.652608e+03,1.930214e+02
2.653572e+03,1.960162e+02
2.654536e+03,1.926161e+02
2.655500e+03,1.902105e+02
2.656465e+03,1.919601e+02
2.657429e+03,1.917177e+02
2.658393e+03,1.872575e+02
2.659357e+03,1.832537e+02
2.660322e+03,1.808069e+02
2.661286e+03,1.795611e+02
2.662250e+03,1.803263e+02
2.663214e+03,1.896749e+02
2.664179e+03,1.983997e+02
2.665143e+03,1.927529e+02
2.666107e+03,1.863138e+02
2.667071e+03,1.861936e+02
2.668036e+03,1.876735e+02
2.669000e+03,1.890172e+02
2.669964e+03,1.895866e+02
2.670928e+03,1.891689e+02
2.671893e+03,1.854502e+02
2.672857e+03,1.801802e+02
2.673821e+03,1.834484e+02
2.674785e+03,1.866738e+02
2.675750e+03,1.797023e+02
2.676714e+03,1.720235e+02
2.677678e+03,1.764292e+02
2.678642e+03,1.779480e+02
2.679606e+03,1.731324e+02
2.680571e+03,1.737097e+02
2.681535e+03,1.811008e+02
2.682499e+03,1.834651e+02
2.683463e+03,1.814299e+02
2.684427e+03,1.820515e+02
2.685392e+03,1.839213e+02
2.686356e+03,1.846931e+02
2.687320e+03,1.846558e+02
2.688284e+03,1.827490e+02
2.689249e+03,1.835908e+02
2.690213e+03,1.878609e+02
2.691177e+03,1.883951e+02
2.692141e+03,1.825175e+02
2.693106e+03,1.808211e+02
2.694070e+03,1.821928e+02
2.695034e+03,1.850600e+02
2.695998e+03,1.866358e+02
2.696963e+03,1.789818e+02
2.697927e+03,1.736343e+02
2.698891e+03,1.759498e+02
2.699855e+03,1.811100e+02
2.700820e+03,1.878633e+02
2.701784e+03,1.905654e+02
2.702748e+03,1.890379e+02
2.703712e+03,1.889806e+02
2.704677e+03,1.893815e+02
2.705641e+03,1.838288e+02
2.706605e+03,1.787338e+02
2.707569e+03,1.830228e+02
2.708533e+03,1.868042e+02
2.709498e+03,1.852377e+02
2.710462e+03,1.838969e+02
2.711426e+03,1.860435e+02
2.712390e+03,1.845120e+02
2.713354e+03,1.803799e+02
2.714319e+03,1.788931e+02
2.715283e+03,1.792748e+02
2.716247e+03,1.794946e+02
2.717211e+03,1.803552e+02
2.718176e+03,1.825311e+02
2.719140e+03,1.843577e+02
2.720104e+03,1.845874e+02
2.721068e+03,1.850476e+02
2.722033e+03,1.854413e+02
2.722997e+03,1.783077e+02
2.723961e+03,1.673204e+02
2.724925e+03,1.705567e+02
2.725890e+03,1.791590e+02
2.726854e+03,1.801736e+02
2.727818e+03,1.796197e+02
2.728782e+03,1.810513e+02
2.729747e+03,1.801630e+02
2.730711e+03,1.717762e+02
2.731675e+03,1.724560e+02
2.732639e+03,1.801108e+02
2.733604e+03,1.843937e+02
2.734568e+03,1.847290e+02
2.735532e+03,1.787324e+02
2.736496e+03,1.716048e+02
2.737460e+03,1.667953e+02
2.738425e+03,1.656508e+02
2.739389e+03,1.698873e+02
2.740353e+03,1.727617e+02
2.741317e+03,1.733713e+02
2.742281e+03,1.737379e+02
2.743246e+03,1.742967e+02
2.744210e+03,1.760231e+02
2.745174e+03,1.773943e+02
2.746138e+03,1.760926e+02
2.747103e+03,1.757032e+02
2.748067e+03,1.779913e+02
2.749031e+03,1.775335e+02
2.749995e+03,1.691112e+02
2.750960e+03,1.668458e+02
2.751924e+03,1.695884e+02
2.752888e+03,1.747624e+02
2.753852e+03,1.787414e+02
2.754817e+03,1.703177e+02
2.755781e+03,1.636519e+02
2.756745e+03,1.672245e+02
2.757709e+03,1.720724e+02
2.758674e+03,1.750125e+02
2.759638e+03,1.751345e+02
2.760602e+03,1.728494e+02
2.761566e+03,1.767660e+02
2.762531e+03,1.808946e+02
2.763495e+03,1.714868e+02
2.764459e+03,1.622061e+02
2.765423e+03,1.716462e+02
2.766387e+03,1.751458e+02
2.767352e+03,1.678665e+02
2.768316e+03,1.633315e+02
2.769280e+03,1.643959e+02
2.770244e+03,1.671339e+02
2.771208e+03,1.716234e+02
2.772173e+03,1.793232e+02
2.773137e+03,1.843781e+02
2.774101e+03,1.790367e+02
2.775065e+03,1.725165e+02
2.776030e+03,1.668436e+02
2.776994e+03,1.691659e+02
2.777958e+03,1.772688e+02
2.778922e+03,1.774456e+02
2.779887e+03,1.725941e+02
2.780851e+03,1.723918e+02
2.781815e+03,1.747946e+02
2.782779e+03,1.787117e+02
2.783744e+03,1.799683e+02
2.784708e+03,1.748106e+02
2.785672e+03,1.701297e+02
2.786636e+03,1.667020e+02
2.787601e+03,1.637356e+02
2.788565e+03,1.627547e+02
2.789529e+03,1.705815e+02
2.790493e+03,1.798281e+02
2.791458e+03,1.868929e+02
2.792422e+03,1.858412e+02
2.793386e+03,1.768228e+02
2.794350e+03,1.704616e+02
2.795314e+03,1.692654e+02
2.796279e+03,1.672838e+02
2.797243e+03,1.657542e+02
2.798207e+03,1.665288e+02
2.799171e+03,1.692729e+02
2.800135e+03,1.754055e+02
2.801100e+03,1.795113e+02
2.802064e+03,1.803374e+02
2.803028e+03,1.777908e+02
2.803992e+03,1.732402e+02
2.804957e+03,1.735455e+02
2.805921e+03,1.746305e+02
2.806885e+03,1.637121e+02
2.807849e+03,1.589645e+02
2.808814e+03,1.689664e+02
2.809778e+03,1.773239e+02
2.810742e+03,1.760038e+02
2.811706e+03,1.740611e+02
2.812671e+03,1.713951e+02
2.813635e+03,1.666238e+02
2.814599e+03,1.622146e+02
2.815563e+03,1.639839e+02
2.816528e+03,1.673635e+02
2.817492e+03,1.715784e+02
2.818456e+03,1.711038e+02
2.819420e+03,1.666085e+02
2.820385e+03,1.710280e+02
2.821349e+03,1.808441e+02
2.822313e+03,1.762857e+02
2.823277e+03,1.686573e+02
2.824241e+03,1.670040e+02
2.825206e+03,1.680046e+02
2.826170e+03,1.700216e+02
2.827134e+03,1.748497e+02
2.828098e+03,1.811249e+02
2.829063e+03,1.788836e+02
2.830027e+03,1.727498e+02
2.830991e+03,1.730470e+02
2.831955e+03,1.749965e+02
2.832919e+03,1.730883e+02
2.833884e+03,1.779773e+02
2.834848e+03,1.895866e+02
2.835812e+03,1.860543e+02
2.836776e+03,1.689187e+02
2.837741e+03,1.643226e+02
2.838705e+03,1.667502e+02
2.839669e+03,1.692779e+02
2.840633e+03,1.741346e+02
2.841598e+03,1.830916e+02
2.842562e+03,1.869993e+02
2.843526e+03,1.831822e+02
2.844490e+03,1.790540e+02
2.845455e+03,1.746098e+02
2.846419e+03,1.688371e+02
2.847383e+03,1.661882e+02
2.848347e+03,1.737699e+02
2.849312e+03,1.848130e+02
2.850276e+03,1.975753e+02
2.851240e+03,1.978879e+02
2.852204e+03,1.886127e+02
2.853168e+03,1.856720e+02
2.854133e+03,1.865898e+02
2.855097e+03,1.892150e+02
2.856061e+03,1.909292e+02
2.857025e+03,1.908106e+02
2.857990e+03,1.896437e+02
2.858954e+03,1.877039e+02
2.859918e+03,1.855626e+02
2.860882e+03,1.841124e+02
2.861846e+03,1.839406e+02
2.862811e+03,1.864195e+02
2.863775e+03,1.951660e+02
2.864739e+03,1.972169e+02
2.865703e+03,1.885911e+02
2.866668e+03,1.904217e+02
2.867632e+03,1.968659e+02
2.868596e+03,1.858182e+02
2.869560e+03,1.731043e+02
2.870525e+03,1.819187e+02
2.871489e+03,1.888794e+02
2.872453e+03,1.880611e+02
2.873417e+03,1.872036e+02
2.874382e+03,1.875290e+02
2.875346e+03,1.882185e+02
2.876310e+03,1.900443e+02
2.877274e+03,1.953392e+02
2.878239e+03,1.984895e+02
2.879203e+03,1.976052e+02
2.880167e+03,1.938263e+02
2.881131e+03,1.874143e+02
2.882095e+03,1.925237e+02
2.883060e+03,2.025624e+02
2.884024e+03,2.062837e+02
2.884988e+03,2.080914e+02
2.885952e+03,2.116650e+02
2.886917e+03,2.161262e+02
2.887881e+03,2.213939e+02
2.888845e+03,2.204080e+02
2.889809e+03,2.162494e+02
2.890773e+03,2.162706e+02
2.891738e+03,2.163372e+02
2.892702e+03,2.098908e+02
2.893666e+03,2.078451e+02
2.894630e+03,2.119163e+02
2.895595e+03,2.153727e+02
2.896559e+03,2.172824e+02
2.897523e+03,2.168318e+02
2.898487e+03,2.163365e+02
2.899452e+03,2.203054e+02
2.900416e+03,2.192293e+02
2.901380e+03,2.116930e+02
2.902344e+03,2.089974e+02
2.903309e+03,2.119175e+02
2.904273e+03,2.076026e+02
2.905237e+03,2.042591e+02
2.906201e+03,2.114721e+02
2.907166e+03,2.175268e+02
2.908130e+03,2.173142e+02
2.909094e+03,2.173008e+02
2.910058e+03,2.175086e+02
2.911022e+03,2.068304e+02
2.911987e+03,1.959962e+02
2.912951e+03,1.971921e+02
2.913915e+03,1.987537e+02
2.914879e+03,1.907664e+02
2.915844e+03,1.902840e+02
2.916808e+03,1.974792e+02
2.917772e+03,2.006447e+02
2.918736e+03,2.002269e+02
2.919700e+03,1.972519e+02
2.920665e+03,1.918703e+02
2.921629e+03,1.804526e+02
2.922593e+03,1.745604e+02
2.923557e+03,1.755067e+02
2.924522e+03,1.878244e+02
2.925486e+03,2.028272e+02
2.926450e+03,2.023840e+02
2.927414e+03,1.942851e+02
2.928379e+03,1.772920e+02
2.929343e+03,1.789987e+02
2.930307e+03,1.949608e+02
2.931271e+03,1.892703e+02
2.932236e+03,1.730618e+02
2.933200e+03,1.630584e+02
2.934164e+03,1.620172e+02
2.935128e+03,1.712383e+02
2.936093e+03,1.743786e+02
2.937057e+03,1.711438e+02
2.938021e+03,1.739867e+02
2.938985e+03,1.793024e+02
2.939949e+03,1.797567e+02
2.940914e+03,1.803829e+02
2.941878e+03,1.831255e+02
2.942842e+03,1.799333e+02
2.943806e+03,1.707188e+02
2.944771e+03,1.804399e+02
2.945735e+03,1.956499e+02
2.946699e+03,2.003194e+02
2.947663e+03,1.939122e+02
2.948627e+03,1.779843e+02
2.949592e+03,1.697048e+02
2.950556e+03,1.721799e+02
2.951520e+03,1.820473e+02
2.952484e+03,1.882176e+02
2.953449e+03,1.776998e+02
2.954413e+03,1.763336e+02
2.955377e+03,1.950394e+02
2.956341e+03,2.097869e+02
2.957306e+03,2.163832e+02
2.958270e+03,2.174890e+02
2.959234e+03,2.088977e+02
2.960198e+03,1.879975e+02
2.961163e+03,1.725672e+02
2.962127e+03,1.707742e+02
2.963091e+03,1.698907e+02
2.964055e+03,1.688734e+02
2.965020e+03,1.672289e+02
2.965984e+03,1.676040e+02
2.966948e+03,1.719351e+02
2.967912e+03,1.738144e+02
2.968876e+03,1.692024e+02
2.969841e+03,1.722202e+02
2.970805e+03,1.776149e+02
2.971769e+03,1.756848e+02
2.972733e+03,1.700575e+02
2.973698e+03,1.628451e+02
2.974662e+03,1.599296e+02
2.975626e+03,1.632231e+02
2.976590e+03,1.629407e+02
2.977554e+03,1.599097e+02
2.978519e+03,1.544131e+02
2.979483e+03,1.527669e+02
2.980447e+03,1.607363e+02
2.981411e+03,1.640808e+02
2.982376e+03,1.608825e+02
2.983340e+03,1.555082e+02
2.984304e+03,1.509089e+02
2.985268e+03,1.499542e+02
2.986233e+03,1.503007e+02
2.987197e+03,1.510103e+02
2.988161e+03,1.520616e+02
2.989125e+03,1.538732e+02
2.990090e+03,1.601290e+02
2.991054e+03,1.605374e+02
2.992018e+03,1.459762e+02
2.992982e+03,1.363716e+02
2.993947e+03,1.407586e+02
2.994911e+03,1.378306e+02
2.995875e+03,1.335587e+02
2.996839e+03,1.369864e+02
2.997803e+03,1.446904e+02
2.998768e+03,1.551052e+02
2.999732e+03,1.587541e+02
3.000696e+03,1.546530e+02
3.001660e+03,1.568847e+02
3.002625e+03,1.604316e+02
3.003589e+03,1.601063e+02
3.004553e+03,1.605282e+02
3.005517e+03,1.642126e+02
3.006481e+03,1.660625e+02
3.007446e+03,1.647877e+02
3.008410e+03,1.595994e+02
3.009374e+03,1.521308e+02
3.010338e+03,1.434355e+02
3.011303e+03,1.398560e+02
3.012267e+03,1.429967e+02
3.013231e+03,1.517897e+02
3.014195e+03,1.597620e+02
3.015160e+03,1.550912e+02
3.016124e+03,1.496960e+02
3.017088e+03,1.479683e+02
3.018052e+03,1.493240e+02
3.019017e+03,1.527477e+02
3.019981e+03,1.573863e+02
3.020945e+03,1.549511e+02
3.021909e+03,1.351556e+02
3.022874e+03,1.301398e+02
3.023838e+03,1.430157e+02
3.024802e+03,1.467088e+02
3.025766e+03,1.437229e+02
3.026730e+03,1.468649e+02
3.027695e+03,1.479621e+02
3.028659e+03,1.434211e+02
3.029623e+03,1.439435e+02
3.030587e+03,1.488201e+02
3.031552e+03,1.467882e+02
3.032516e+03,1.436704e+02
3.033480e+03,1.518377e+02
3.034444e+03,1.444378e+02
3.035408e+03,1.211034e+02
3.036373e+03,1.267725e+02
3.037337e+03,1.494087e+02
3.038301e+03,1.473422e+02
3.039265e+03,1.431970e+02
3.040230e+03,1.512809e+02
3.041194e+03,1.489434e+02
3.042158e+03,1.402307e+02
3.043122e+03,1.461122e+02
3.044087e+03,1.523915e+02
3.045051e+03,1.342518e+02
3.046015e+03,1.230124e+02
3.046979e+03,1.285343e+02
3.047944e+03,1.283021e+02
3.048908e+03,1.283177e+02
3.049872e+03,1.392056e+02
3.050836e+03,1.482968e+02
3.051801e+03,1.459620e+02
3.052765e+03,1.510424e+02
3.053729e+03,1.609952e+02
3.054693e+03,1.497810e+02
3.055657e+03,1.428143e+02
3.056622e+03,1.578907e+02
3.057586e+03,1.652250e+02
3.058550e+03,1.559604e+02
3.059514e+03,1.479407e+02
3.060479e+03,1.430794e+02
3.061443e+03,1.451447e+02
3.062407e+03,1.425725e+02
3.063371e+03,1.333126e+02
3.064335e+03,1.401232e+02
3.065300e+03,1.578365e+02
3.066264e+03,1.525088e+02
3.067228e+03,1.502221e+02
3.068192e+03,1.720281e+02
3.069157e+03,1.696281e+02
3.070121e+03,1.456245e+02
3.071085e+03,1.288005e+02
3.072049e+03,1.207529e+02
3.073014e+03,1.285469e+02
3.073978e+03,1.332126e+02
3.074942e+03,1.311831e+02
3.075906e+03,1.367571e+02
3.076871e+03,1.435445e+02
3.077835e+03,1.401769e+02
3.078799e+03,1.374756e+02
3.079763e+03,1.431832e+02
3.080728e+03,1.430183e+02
3.081692e+03,1.398749e+02
3.082656e+03,1.500799e+02
3.083620e+03,1.539718e+02
3.084584e+03,1.414210e+02
3.085549e+03,1.332441e+02
3.086513e+03,1.343300e+02
3.087477e+03,1.403880e+02
3.088441e+03,1.465109e+02
3.089406e+03,1.474958e+02
3.090370e+03,1.495065e+02
3.091334e+03,1.526568e+02
3.092298e+03,1.420677e+02
3.093262e+03,1.290326e+02
3.094227e+03,1.438987e+02
3.095191e+03,1.522643e+02
3.096155e+03,1.415019e+02
3.097119e+03,1.387974e+02
3.098084e+03,1.439447e+02
3.099048e+03,1.536163e+02
3.100012e+03,1.604456e+02
3.100976e+03,1.592248e+02
3.101941e+03,1.481085e+02
3.102905e+03,1.318856e+02
3.103869e+03,1.357655e+02
3.104833e+03,1.415543e+02
3.105798e+03,1.371700e+02
3.106762e+03,1.368875e+02
3.107726e+03,1.435270e+02
3.108690e+03,1.487843e+02
3.109655e+03,1.496638e+02
3.110619e+03,1.390196e+02
3.111583e+03,1.337572e+02
3.112547e+03,1.357017e+02
3.113511e+03,1.376323e+02
3.114476e+03,1.392305e+02
3.115440e+03,1.424749e+02
3.116404e+03,1.439787e+02
3.117368e+03,1.419707e+02
3.118333e+03,1.467668e+02
3.119297e+03,1.523439e+02
3.120261e+03,1.477856e+02
3.121225e+03,1.444289e+02
3.122189e+03,1.484363e+02
3.123154e+03,1.571741e+02
3.124118e+03,1.660706e+02
3.125082e+03,1.608825e+02
3.126046e+03,1.518250e+02
3.127011e+03,1.439534e+02
3.127975e+03,1.479453e+02
3.128939e+03,1.602497e+02
3.129903e+03,1.677947e+02
3.130868e+03,1.716069e+02
3.131832e+03,1.686094e+02
3.132796e+03,1.764687e+02
3.133760e+03,1.868318e+02
3.134725e+03,1.546174e+02
3.135689e+03,1.179410e+02
3.136653e+03,1.118883e+02
3.137617e+03,1.270856e+02
3.138582e+03,1.613510e+02
3.139546e+03,1.586458e+02
3.140510e+03,1.465995e+02
3.141474e+03,1.576774e+02
3.142438e+03,1.634090e+02
3.143403e+03,1.584122e+02
3.144367e+03,1.397394e+02
3.145331e+03,1.212434e+02
3.146295e+03,1.288350e+02
3.147260e+03,1.379069e+02
3.148224e+03,1.423045e+02
3.149188e+03,1.453760e+02
3.150152e+03,1.454604e+02
3.151116e+03,1.388352e+02
3.152081e+03,1.417400e+02
3.153045e+03,1.609137e+02
3.154009e+03,1.705965e+02
3.154973e+03,1.701448e+02
3.155938e+03,1.580851e+02
3.156902e+03,1.481400e+02
3.157866e+03,1.439808e+02
3.158830e+03,1.432642e+02
3.159795e+03,1.445370e+02
3.160759e+03,1.459034e+02
3.161723e+03,1.474806e+02
3.162687e+03,1.501723e+02
3.163652e+03,1.482675e+02
3.164616e+03,1.488385e+02
3.165580e+03,1.663913e+02
3.166544e+03,1.804083e+02
3.167509e+03,1.826904e+02
3.168473e+03,1.541084e+02
3.169437e+03,1.151131e+02
3.170401e+03,1.410540e+02
3.171365e+03,1.626051e+02
3.172330e+03,1.493054e+02
3.173294e+03,1.500193e+02
3.174258e+03,1.574447e+02
3.175222e+03,1.464928e+02
3.176187e+03,1.377409e+02
3.177151e+03,1.452946e+02
3.178115e+03,1.506766e+02
3.179079e+03,1.537947e+02
3.180043e+03,1.581858e+02
3.181008e+03,1.657894e+02
3.181972e+03,1.766809e+02
3.182936e+03,1.748279e+02
3.183900e+03,1.649079e+02
3.184865e+03,1.617930e+02
3.185829e+03,1.617097e+02
3.186793e+03,1.712599e+02
3.187757e+03,1.454953e+02
3.188722e+03,1.126939e+02
3.189686e+03,1.379152e+02
3.190650e+03,1.593704e+02
3.191614e+03,1.528914e+02
3.192579e+03,1.589390e+02
3.193543e+03,1.716239e+02
3.194507e+03,1.536701e+02
3.195471e+03,1.347650e+02
3.196436e+03,1.265632e+02
3.197400e+03,1.237027e+02
3.198364e+03,1.283316e+02
3.199328e+03,1.462086e+02
3.200292e+03,1.548789e+02
3.201257e+03,0.000000e+00
3.202221e+03,0.000000e+00
3.203185e+03,0.000000e+00
3.204149e+03,0.000000e+00
3.205114e+03,0.000000e+00
3.206078e+03,0.000000e+00
3.207042e+03,0.000000e+00
3.208006e+03,0.000000e+00
3.208970e+03,0.000000e+00
3.209935e+03,0.000000e+00
3.210899e+03,0.000000e+00
3.211863e+03,0.000000e+00
3.212827e+03,0.000000e+00
3.213792e+03,0.000000e+00
3.214756e+03,0.000000e+00
3.215720e+03,0.000000e+00
3.216684e+03,0.000000e+00
3.217649e+03,0.000000e+00
3.218613e+03,0.000000e+00
3.219577e+03,0.000000e+00
3.220541e+03,0.000000e+00
3.221506e+03,0.000000e+00
3.222470e+03,0.000000e+00
3.223434e+03,0.000000e+00
3.224398e+03,0.000000e+00
3.225363e+03,0.000000e+00
3.226327e+03,0.000000e+00
3.227291e+03,0.000000e+00
3.228255e+03,0.000000e+00
3.229219e+03,0.000000e+00
3.230184e+03,0.000000e+00
3.231148e+03,0.000000e+00
3.232112e+03,0.000000e+00
3.233076e+03,0.000000e+00
3.234041e+03,0.000000e+00
3.235005e+03,0.000000e+00
3.235969e+03,0.000000e+00
3.236933e+03,0.000000e+00
3.237897e+03,0.000000e+00
3.238862e+03,0.000000e+00
3.239826e+03,0.000000e+00
3.240790e+03,0.000000e+00
3.241754e+03,0.000000e+00
3.242719e+03,0.000000e+00
3.243683e+03,0.000000e+00
3.244647e+03,0.000000e+00
3.245611e+03,0.000000e+00
3.246576e+03,0.000000e+00
3.247540e+03,0.000000e+00
3.248504e+03,0.000000e+00
3.249468e+03,0.000000e+00
3.250433e+03,0.000000e+00
3.251397e+03,0.000000e+00
3.252361e+03,0.000000e+00
3.253325e+03,0.000000e+00
3.254290e+03,0.000000e+00
3.255254e+03,0.000000e+00
3.256218e+03,0.000000e+00
3.257182e+03,0.000000e+00
3.258146e+03,0.000000e+00
3.259111e+03,0.000000e+00
3.260075e+03,0.000000e+00
3.261039e+03,0.000000e+00
3.262003e+03,0.000000e+00
3.262968e+03,0.000000e+00
3.263932e+03,0.000000e+00
3.264896e+03,0.000000e+00
3.265860e+03,0.000000e+00
3.266824e+03,0.000000e+00
3.267789e+03,0.000000e+00
3.268753e+03,0.000000e+00
3.269717e+03,0.000000e+00
3.270681e+03,0.000000e+00
3.271646e+03,0.000000e+00
3.272610e+03,0.000000e+00
3.273574e+03,0.000000e+00
3.274538e+03,0.000000e+00
3.275503e+03,0.000000e+00
3.276467e+03,0.000000e+00
3.277431e+03,0.000000e+00
3.278395e+03,0.000000e+00
3.279360e+03,0.000000e+00
3.280324e+03,0.000000e+00
3.281288e+03,0.000000e+00
3.282252e+03,0.000000e+00
3.283217e+03,0.000000e+00
3.284181e+03,0.000000e+00
3.285145e+03,0.000000e+00
3.286109e+03,0.000000e+00
3.287073e+03,0.000000e+00
3.288038e+03,0.000000e+00
3.289002e+03,0.000000e+00
3.289966e+03,0.000000e+00
3.290930e+03,0.000000e+00
3.291895e+03,0.000000e+00
3.292859e+03,0.000000e+00
3.293823e+03,0.000000e+00
3.294787e+03,0.000000e+00
3.295751e+03,0.000000e+00
3.296716e+03,0.000000e+00
3.297680e+03,0.000000e+00
3.298644e+03,0.000000e+00
3.299608e+03,0.000000e+00
3.300573e+03,0.000000e+00
3.301537e+03,0.000000e+00
3.302501e+03,0.000000e+00
3.303465e+03,0.000000e+00
3.304430e+03,0.000000e+00
3.305394e+03,0.000000e+00
3.306358e+03,0.000000e+00
3.307322e+03,0.000000e+00
3.308287e+03,0.000000e+00
3.309251e+03,0.000000e+00
3.310215e+03,0.000000e+00
3.311179e+03,0.000000e+00
3.312144e+03,0.000000e+00
3.313108e+03,0.000000e+00
3.314072e+03,0.000000e+00
3.315036e+03,0.000000e+00
3.316000e+03,0.000000e+00
3.316965e+03,0.000000e+00
3.317929e+03,0.000000e+00
3.318893e+03,0.000000e+00
3.319857e+03,0.000000e+00
3.320822e+03,0.000000e+00
3.321786e+03,0.000000e+00
3.322750e+03,0.000000e+00
3.323714e+03,0.000000e+00
3.324678e+03,0.000000e+00
3.325643e+03,0.000000e+00
3.326607e+03,0.000000e+00
3.327571e+03,0.000000e+00
3.328535e+03,0.000000e+00
3.329500e+03,0.000000e+00
3.330464e+03,0.000000e+00
3.331428e+03,0.000000e+00
3.332392e+03,0.000000e+00
3.333357e+03,0.000000e+00
3.334321e+03,0.000000e+00
3.335285e+03,0.000000e+00
3.336249e+03,0.000000e+00
3.337214e+03,0.000000e+00
3.338178e+03,0.000000e+00
3.339142e+03,0.000000e+00
3.340106e+03,0.000000e+00
3.341071e+03,0.000000e+00
3.342035e+03,0.000000e+00
3.342999e+03,0.000000e+00
3.343963e+03,0.000000e+00
3.344927e+03,0.000000e+00
3.345892e+03,0.000000e+00
3.346856e+03,0.000000e+00
3.347820e+03,0.000000e+00
3.348784e+03,0.000000e+00
3.349749e+03,0.000000e+00
3.350713e+03,0.000000e+00
3.351677e+03,0.000000e+00
3.352641e+03,0.000000e+00
3.353605e+03,0.000000e+00
3.354570e+03,0.000000e+00
3.355534e+03,0.000000e+00
3.356498e+03,0.000000e+00
3.357462e+03,0.000000e+00
3.358427e+03,0.000000e+00
3.359391e+03,0.000000e+00
3.360355e+03,0.000000e+00
3.361319e+03,0.000000e+00
3.362284e+03,0.000000e+00
3.363248e+03,0.000000e+00
3.364212e+03,0.000000e+00
3.365176e+03,0.000000e+00
3.366141e+03,0.000000e+00
3.367105e+03,0.000000e+00
3.368069e+03,0.000000e+00
3.369033e+03,0.000000e+00
3.369998e+03,0.000000e+00
3.370962e+03,0.000000e+00
3.371926e+03,0.000000e+00
3.372890e+03,0.000000e+00
3.373854e+03,0.000000e+00
3.374819e+03,0.000000e+00
3.375783e+03,0.000000e+00
3.376747e+03,0.000000e+00
3.377711e+03,0.000000e+00
3.378676e+03,0.000000e+00
3.379640e+03,0.000000e+00
3.380604e+03,0.000000e+00
3.381568e+03,0.000000e+00
3.382532e+03,0.000000e+00
3.383497e+03,0.000000e+00
3.384461e+03,0.000000e+00
3.385425e+03,0.000000e+00
3.386389e+03,0.000000e+00
3.387354e+03,0.000000e+00
3.388318e+03,0.000000e+00
3.389282e+03,0.000000e+00
3.390246e+03,0.000000e+00
3.391211e+03,0.000000e+00
3.392175e+03,0.000000e+00
3.393139e+03,0.000000e+00
3.394103e+03,0.000000e+00
3.395068e+03,0.000000e+00
3.396032e+03,0.000000e+00
3.396996e+03,0.000000e+00
3.397960e+03,0.000000e+00
3.398925e+03,0.000000e+00
3.399889e+03,0.000000e+00
3.400853e+03,0.000000e+00
3.401817e+03,0.000000e+00
3.402781e+03,0.000000e+00
3.403746e+03,0.000000e+00
3.404710e+03,0.000000e+00
3.405674e+03,0.000000e+00
3.406638e+03,0.000000e+00
3.407603e+03,0.000000e+00
3.408567e+03,0.000000e+00
3.409531e+03,0.000000e+00
3.410495e+03,0.000000e+00
3.411459e+03,0.000000e+00
3.412424e+03,0.000000e+00
3.413388e+03,0.000000e+00
3.414352e+03,0.000000e+00
3.415316e+03,0.000000e+00
3.416281e+03,0.000000e+00
3.417245e+03,0.000000e+00
3.418209e+03,0.000000e+00
3.419173e+03,0.000000e+00
3.420138e+03,0.000000e+00
3.421102e+03,0.000000e+00
3.422066e+03,0.000000e+00
3.423030e+03,0.000000e+00
3.423995e+03,0.000000e+00
3.424959e+03,0.000000e+00
3.425923e+03,0.000000e+00
3.426887e+03,0.000000e+00
3.427852e+03,0.000000e+00
3.428816e+03,0.000000e+00
3.429780e+03,0.000000e+00
3.430744e+03,0.000000e+00
3.431708e+03,0.000000e+00
3.432673e+03,0.000000e+00
3.433637e+03,0.000000e+00
3.434601e+03,0.000000e+00
3.435565e+03,0.000000e+00
3.436530e+03,0.000000e+00
3.437494e+03,0.000000e+00
3.438458e+03,0.000000e+00
3.439422e+03,0.000000e+00
3.440386e+03,0.000000e+00
3.441351e+03,0.000000e+00
3.442315e+03,0.000000e+00
3.443279e+03,0.000000e+00
3.444243e+03,0.000000e+00
3.445208e+03,0.000000e+00
3.446172e+03,0.000000e+00
3.447136e+03,0.000000e+00
3.448100e+03,0.000000e+00
3.449065e+03,0.000000e+00
3.450029e+03,0.000000e+00
3.450993e+03,0.000000e+00
3.451957e+03,0.000000e+00
3.452922e+03,0.000000e+00
3.453886e+03,0.000000e+00
3.454850e+03,0.000000e+00
3.455814e+03,0.000000e+00
3.456779e+03,0.000000e+00
3.457743e+03,0.000000e+00
3.458707e+03,0.000000e+00
3.459671e+03,0.000000e+00
3.460635e+03,0.000000e+00
3.461600e+03,0.000000e+00
3.462564e+03,0.000000e+00
3.463528e+03,0.000000e+00
3.464492e+03,0.000000e+00
3.465457e+03,0.000000e+00
3.466421e+03,0.000000e+00
3.467385e+03,0.000000e+00
3.468349e+03,0.000000e+00
3.469313e+03,0.000000e+00
3.470278e+03,0.000000e+00
3.471242e+03,0.000000e+00
3.472206e+03,0.000000e+00
3.473170e+03,0.000000e+00
3.474135e+03,0.000000e+00
3.475099e+03,0.000000e+00
3.476063e+03,0.000000e+00
3.477027e+03,0.000000e+00
3.477992e+03,0.000000e+00
3.478956e+03,0.000000e+00
3.479920e+03,0.000000e+00
3.480884e+03,0.000000e+00
3.481849e+03,0.000000e+00
3.482813e+03,0.000000e+00
3.483777e+03,0.000000e+00
3.484741e+03,0.000000e+00
3.485706e+03,0.000000e+00
3.486670e+03,0.000000e+00
3.487634e+03,0.000000e+00
3.488598e+03,0.000000e+00
3.489563e+03,0.000000e+00
3.490527e+03,0.000000e+00
3.491491e+03,0.000000e+00
3.492455e+03,0.000000e+00
3.493419e+03,0.000000e+00
3.494384e+03,0.000000e+00
3.495348e+03,0.000000e+00
3.496312e+03,0.000000e+00
3.497276e+03,0.000000e+00
3.498240e+03,0.000000e+00
3.499205e+03,0.000000e+00
3.500169e+03,0.000000e+00
