9.931763e+01,0.000000e+00
1.002819e+02,0.000000e+00
1.012461e+02,0.000000e+00
1.022103e+02,0.000000e+00
1.031746e+02,0.000000e+00
1.041388e+02,0.000000e+00
1.051030e+02,0.000000e+00
1.060673e+02,0.000000e+00
1.070315e+02,0.000000e+00
1.079957e+02,0.000000e+00
1.089600e+02,0.000000e+00
1.099242e+02,0.000000e+00
1.108884e+02,0.000000e+00
1.118527e+02,0.000000e+00
1.128169e+02,0.000000e+00
1.137811e+02,0.000000e+00
1.147454e+02,0.000000e+00
1.157096e+02,0.000000e+00
1.166738e+02,0.000000e+00
1.176381e+02,0.000000e+00
1.186023e+02,0.000000e+00
1.195665e+02,0.000000e+00
1.205308e+02,0.000000e+00
1.214950e+02,0.000000e+00
1.224592e+02,0.000000e+00
1.234235e+02,0.000000e+00
1.243877e+02,0.000000e+00
1.253519e+02,0.000000e+00
1.263162e+02,0.000000e+00
1.272804e+02,0.000000e+00
1.282446e+02,0.000000e+00
1.292089e+02,0.000000e+00
1.301731e+02,0.000000e+00
1.311373e+02,0.000000e+00
1.321016e+02,0.000000e+00
1.330658e+02,0.000000e+00
1.340300e+02,0.000000e+00
1.349943e+02,0.000000e+00
1.359585e+02,0.000000e+00
1.369227e+02,0.000000e+00
1.378870e+02,0.000000e+00
1.388512e+02,0.000000e+00
1.398154e+02,0.000000e+00
1.407797e+02,0.000000e+00
1.417439e+02,0.000000e+00
1.427081e+02,0.000000e+00
1.436724e+02,0.000000e+00
1.446366e+02,0.000000e+00
1.456008e+02,0.000000e+00
1.465651e+02,0.000000e+00
1.475293e+02,0.000000e+00
1.484935e+02,0.000000e+00
1.494578e+02,0.000000e+00
1.504220e+02,0.000000e+00
1.513862e+02,0.000000e+00
1.523505e+02,0.000000e+00
1.533147e+02,0.000000e+00
1.542789e+02,0.000000e+00
1.552432e+02,0.000000e+00
1.562074e+02,0.000000e+00
1.571716e+02,0.000000e+00
1.581359e+02,0.000000e+00
1.591001e+02,0.000000e+00
1.600643e+02,0.000000e+00
1.610286e+02,0.000000e+00
1.619928e+02,0.000000e+00
1.629570e+02,0.000000e+00
1.639213e+02,0.000000e+00
1.648855e+02,0.000000e+00
1.658497e+02,0.000000e+00
1.668140e+02,0.000000e+00
1.677782e+02,0.000000e+00
1.687424e+02,0.000000e+00
1.697067e+02,0.000000e+00
1.706709e+02,0.000000e+00
1.716351e+02,0.000000e+00
1.725994e+02,0.000000e+00
1.735636e+02,0.000000e+00
1.745278e+02,0.000000e+00
1.754921e+02,0.000000e+00
1.764563e+02,0.000000e+00
1.774205e+02,0.000000e+00
1.783848e+02,0.000000e+00
1.793490e+02,0.000000e+00
1.803132e+02,0.000000e+00
1.812775e+02,0.000000e+00
1.822417e+02,0.000000e+00
1.832059e+02,0.000000e+00
1.841702e+02,0.000000e+00
1.851344e+02,0.000000e+00
1.860986e+02,0.000000e+00
1.870629e+02,0.000000e+00
1.880271e+02,0.000000e+00
1.889913e+02,0.000000e+00
1.899556e+02,0.000000e+00
1.909198e+02,0.000000e+00
1.918840e+02,0.000000e+00
1.928483e+02,0.000000e+00
1.938125e+02,0.000000e+00
1.947767e+02,0.000000e+00
1.957410e+02,0.000000e+00
1.967052e+02,0.000000e+00
1.976694e+02,0.000000e+00
1.986337e+02,0.000000e+00
1.995979e+02,3.766050e+03
2.005621e+02,3.762002e+03
2.015264e+02,3.761400e+03
2.024906e+02,3.767031e+03
2.034548e+02,3.773966e+03
2.044191e+02,3.781372e+03
2.053833e+02,3.788095e+03
2.063475e+02,3.792931e+03
2.073118e+02,3.794724e+03
2.082760e+02,3.792652e+03
2.092402e+02,3.789977e+03
2.102045e+02,3.788374e+03
2.111687e+02,3.788098e+03
2.121329e+02,3.788639e+03
2.130972e+02,3.788774e+03
2.140614e+02,3.788599e+03
2.150256e+02,3.790450e+03
2.159899e+02,3.796978e+03
2.169541e+02,3.802588e+03
2.179183e+02,3.804900e+03
2.188826e+02,3.804364e+03
2.198468e+02,3.804083e+03
2.208110e+02,3.807313e+03
2.217753e+02,3.813391e+03
2.227395e+02,3.815253e+03
2.237037e+02,3.810520e+03
2.246680e+02,3.804107e+03
2.256322e+02,3.799739e+03
2.265964e+02,3.799795e+03
2.275607e+02,3.802574e+03
2.285249e+02,3.805917e+03
2.294892e+02,3.809785e+03
2.304534e+02,3.814917e+03
2.314176e+02,3.820311e+03
2.323819e+02,3.825258e+03
2.333461e+02,3.829989e+03
2.343103e+02,3.835943e+03
2.352746e+02,3.842529e+03
2.362388e+02,3.847788e+03
2.372030e+02,3.850414e+03
2.381673e+02,3.849521e+03
2.391315e+02,3.846026e+03
2.400957e+02,3.840082e+03
2.410600e+02,3.835207e+03
2.420242e+02,3.834234e+03
2.429884e+02,3.837259e+03
2.439527e+02,3.841836e+03
2.449169e+02,3.845156e+03
2.458811e+02,3.846245e+03
2.468454e+02,3.848073e+03
2.478096e+02,3.850663e+03
2.487738e+02,3.854000e+03
2.497381e+02,3.858609e+03
2.507023e+02,3.864542e+03
2.516665e+02,3.870612e+03
2.526308e+02,3.874607e+03
2.535950e+02,3.872822e+03
2.545592e+02,3.869837e+03
2.555235e+02,3.864212e+03
2.564877e+02,3.858926e+03
2.574519e+02,3.858304e+03
2.584161e+02,3.866048e+03
2.593804e+02,3.881711e+03
2.603446e+02,3.894351e+03
2.613088e+02,3.900676e+03
2.622731e+02,3.904157e+03
2.632373e+02,3.903710e+03
2.642015e+02,3.899425e+03
2.651658e+02,3.894632e+03
2.661300e+02,3.894683e+03
2.670942e+02,3.902118e+03
2.680585e+02,3.907492e+03
2.690227e+02,3.907412e+03
2.699869e+02,3.905263e+03
2.709512e+02,3.903220e+03
2.719154e+02,3.903923e+03
2.728796e+02,3.905090e+03
2.738439e+02,3.901929e+03
2.748081e+02,3.893434e+03
2.757723e+02,3.888552e+03
2.767366e+02,3.891658e+03
2.777008e+02,3.899281e+03
2.786650e+02,3.906168e+03
2.796293e+02,3.911942e+03
2.805935e+02,3.917454e+03
2.815577e+02,3.923593e+03
2.825220e+02,3.930713e+03
2.834862e+02,3.936464e+03
2.844504e+02,3.936919e+03
2.854147e+02,3.931503e+03
2.863789e+02,3.924841e+03
2.873431e+02,3.917584e+03
2.883074e+02,3.911246e+03
2.892716e+02,3.907678e+03
2.902358e+02,3.907245e+03
2.912001e+02,3.909454e+03
2.921643e+02,3.912641e+03
2.931285e+02,3.919015e+03
2.940928e+02,3.925922e+03
2.950570e+02,3.931803e+03
2.960212e+02,3.935881e+03
2.969855e+02,3.938325e+03
2.979497e+02,3.940473e+03
2.989139e+02,3.944347e+03
2.998782e+02,3.945035e+03
3.008424e+02,3.941647e+03
3.018066e+02,3.938119e+03
3.027709e+02,3.935745e+03
3.037351e+02,3.934184e+03
3.046993e+02,3.933585e+03
3.056636e+02,3.936121e+03
3.066278e+02,3.944786e+03
3.075920e+02,3.951460e+03
3.085563e+02,3.950530e+03
3.095205e+02,3.945601e+03
3.104847e+02,3.943047e+03
3.114490e+02,3.945358e+03
3.124132e+02,3.950237e+03
3.133774e+02,3.955042e+03
3.143417e+02,3.960383e+03
3.153059e+02,3.962285e+03
3.162701e+02,3.955210e+03
3.172344e+02,3.935590e+03
3.181986e+02,3.921111e+03
3.191628e+02,3.919559e+03
3.201271e+02,3.927063e+03
3.210913e+02,3.936495e+03
3.220555e+02,3.944803e+03
3.230198e+02,3.951682e+03
3.239840e+02,3.956944e+03
3.249482e+02,3.959902e+03
3.259125e+02,3.961594e+03
3.268767e+02,3.962001e+03
3.278409e+02,3.961511e+03
3.288052e+02,3.960711e+03
3.297694e+02,3.959569e+03
3.307336e+02,3.957526e+03
3.316979e+02,3.957726e+03
3.326621e+02,3.963400e+03
3.336263e+02,3.968304e+03
3.345906e+02,3.970130e+03
3.355548e+02,3.969533e+03
3.365190e+02,3.967584e+03
3.374833e+02,3.962941e+03
3.384475e+02,3.954544e+03
3.394117e+02,3.950004e+03
3.403760e+02,3.952281e+03
3.413402e+02,3.959031e+03
3.423044e+02,3.966385e+03
3.432687e+02,3.975650e+03
3.442329e+02,3.983849e+03
3.451971e+02,3.986597e+03
3.461614e+02,3.982773e+03
3.471256e+02,3.976476e+03
3.480898e+02,3.972725e+03
3.490541e+02,3.974282e+03
3.500183e+02,3.973797e+03
3.509825e+02,3.967789e+03
3.519468e+02,3.963542e+03
3.529110e+02,3.968123e+03
3.538752e+02,3.982343e+03
3.548395e+02,3.998803e+03
3.558037e+02,4.004923e+03
3.567680e+02,3.991656e+03
3.577322e+02,3.982964e+03
3.586964e+02,3.985406e+03
3.596607e+02,3.993818e+03
3.606249e+02,4.001499e+03
3.615891e+02,4.004044e+03
3.625534e+02,4.001313e+03
3.635176e+02,3.995302e+03
3.644818e+02,3.985997e+03
3.654461e+02,3.977508e+03
3.664103e+02,3.973563e+03
3.673745e+02,3.975361e+03
3.683388e+02,3.981191e+03
3.693030e+02,3.991105e+03
3.702672e+02,4.001818e+03
3.712315e+02,4.009061e+03
3.721957e+02,4.011391e+03
3.731599e+02,4.010650e+03
3.741242e+02,4.011096e+03
3.750884e+02,4.020418e+03
3.760526e+02,4.025343e+03
3.770169e+02,4.019019e+03
3.779811e+02,4.008461e+03
3.789453e+02,4.002499e+03
3.799096e+02,4.005563e+03
3.808738e+02,4.014554e+03
3.818380e+02,4.018903e+03
3.828023e+02,4.017591e+03
3.837665e+02,4.016391e+03
3.847307e+02,4.017431e+03
3.856950e+02,4.019368e+03
3.866592e+02,4.018930e+03
3.876234e+02,4.010979e+03
3.885877e+02,3.998667e+03
3.895519e+02,3.992156e+03
3.905161e+02,3.993410e+03
3.914804e+02,3.996797e+03
3.924446e+02,3.996872e+03
3.934088e+02,3.994206e+03
3.943731e+02,3.991175e+03
3.953373e+02,3.986816e+03
3.963015e+02,3.982481e+03
3.972658e+02,3.980397e+03
3.982300e+02,3.981936e+03
3.991942e+02,3.987282e+03
4.001585e+02,3.993722e+03
4.011227e+02,4.001973e+03
4.020869e+02,4.007410e+03
4.030512e+02,4.005724e+03
4.040154e+02,3.999774e+03
4.049796e+02,3.995130e+03
4.059439e+02,3.995350e+03
4.069081e+02,3.999140e+03
4.078723e+02,4.002337e+03
4.088366e+02,4.004229e+03
4.098008e+02,4.003696e+03
4.107650e+02,4.001221e+03
4.117293e+02,3.997453e+03
4.126935e+02,3.995306e+03
4.136577e+02,3.997496e+03
4.146220e+02,4.001304e+03
4.155862e+02,4.002645e+03
4.165504e+02,4.000640e+03
4.175147e+02,3.997155e+03
4.184789e+02,3.994854e+03
4.194431e+02,3.991640e+03
4.204074e+02,3.992194e+03
4.213716e+02,4.001353e+03
4.223358e+02,4.012456e+03
4.233001e+02,4.017899e+03
4.242643e+02,4.013796e+03
4.252285e+02,4.004772e+03
4.261928e+02,4.001755e+03
4.271570e+02,4.008306e+03
4.281212e+02,4.013854e+03
4.290855e+02,4.010241e+03
4.300497e+02,4.001291e+03
4.310139e+02,3.996445e+03
4.319782e+02,4.004338e+03
4.329424e+02,4.016039e+03
4.339066e+02,4.019844e+03
4.348709e+02,4.014283e+03
4.358351e+02,4.005696e+03
4.367993e+02,3.999953e+03
4.377636e+02,3.997555e+03
4.387278e+02,3.998152e+03
4.396920e+02,4.007733e+03
4.406563e+02,4.017357e+03
4.416205e+02,4.018734e+03
4.425847e+02,4.009770e+03
4.435490e+02,3.997952e+03
4.445132e+02,3.994729e+03
4.454774e+02,4.002778e+03
4.464417e+02,4.009573e+03
4.474059e+02,4.010106e+03
4.483701e+02,4.007191e+03
4.493344e+02,4.005166e+03
4.502986e+02,4.006582e+03
4.512628e+02,4.008749e+03
4.522271e+02,4.009812e+03
4.531913e+02,4.009878e+03
4.541555e+02,4.009399e+03
4.551198e+02,4.008407e+03
4.560840e+02,4.007098e+03
4.570482e+02,4.004606e+03
4.580125e+02,4.003999e+03
4.589767e+02,4.002862e+03
4.599409e+02,3.997018e+03
4.609052e+02,3.986806e+03
4.618694e+02,3.977333e+03
4.628336e+02,3.974297e+03
4.637979e+02,3.977264e+03
4.647621e+02,3.979281e+03
4.657263e+02,3.980831e+03
4.666906e+02,3.982884e+03
4.676548e+02,3.984366e+03
4.686190e+02,3.983978e+03
4.695833e+02,3.984723e+03
4.705475e+02,3.989118e+03
4.715117e+02,3.994272e+03
4.724760e+02,3.996296e+03
4.734402e+02,3.994078e+03
4.744044e+02,3.989137e+03
4.753687e+02,3.984131e+03
4.763329e+02,3.976461e+03
4.772971e+02,3.973253e+03
4.782614e+02,3.978788e+03
4.792256e+02,3.988296e+03
4.801898e+02,3.995231e+03
4.811541e+02,3.993738e+03
4.821183e+02,3.989900e+03
4.830826e+02,3.993432e+03
4.840468e+02,4.004432e+03
4.850110e+02,4.015551e+03
4.859753e+02,4.023621e+03
4.869395e+02,4.028192e+03
4.879037e+02,4.028994e+03
4.888680e+02,4.025113e+03
4.898322e+02,4.019314e+03
4.907964e+02,4.012483e+03
4.917607e+02,4.005260e+03
4.927249e+02,3.998578e+03
4.936891e+02,3.992104e+03
4.946534e+02,3.985458e+03
4.956176e+02,3.983979e+03
4.965818e+02,3.992403e+03
4.975461e+02,4.002298e+03
4.985103e+02,4.005315e+03
4.994745e+02,3.998528e+03
5.004388e+02,3.992781e+03
5.014030e+02,3.997335e+03
5.023672e+02,4.006532e+03
5.033315e+02,4.009380e+03
5.042957e+02,4.001839e+03
5.052599e+02,3.988074e+03
5.062242e+02,3.978201e+03
5.071884e+02,3.975076e+03
5.081526e+02,3.973436e+03
5.091169e+02,3.973759e+03
5.100811e+02,3.975760e+03
5.110453e+02,3.978691e+03
5.120095e+02,3.984734e+03
5.129738e+02,3.989830e+03
5.139380e+02,3.985739e+03
5.149022e+02,3.972813e+03
5.158665e+02,3.964320e+03
5.168307e+02,3.967979e+03
5.177949e+02,3.981329e+03
5.187592e+02,3.984332e+03
5.197234e+02,3.973555e+03
5.206876e+02,3.963161e+03
5.216519e+02,3.959661e+03
5.226161e+02,3.961946e+03
5.235803e+02,3.964615e+03
5.245446e+02,3.962296e+03
5.255088e+02,3.955946e+03
5.264730e+02,3.952748e+03
5.274373e+02,3.953422e+03
5.284015e+02,3.956077e+03
5.293657e+02,3.959940e+03
5.303300e+02,3.966114e+03
5.312942e+02,3.966923e+03
5.322584e+02,3.957531e+03
5.332227e+02,3.946671e+03
5.341869e+02,3.942413e+03
5.351511e+02,3.945483e+03
5.361154e+02,3.950143e+03
5.370796e+02,3.948961e+03
5.380438e+02,3.940596e+03
5.390081e+02,3.934120e+03
5.399723e+02,3.930365e+03
5.409365e+02,3.930052e+03
5.419008e+02,3.933139e+03
5.428650e+02,3.940195e+03
5.438292e+02,3.946739e+03
5.447935e+02,3.951147e+03
5.457577e+02,3.953519e+03
5.467219e+02,3.953993e+03
5.476862e+02,3.952658e+03
5.486504e+02,3.949618e+03
5.496146e+02,3.945492e+03
5.505789e+02,3.940140e+03
5.515431e+02,3.933415e+03
5.525073e+02,3.925094e+03
5.534716e+02,3.918112e+03
5.544358e+02,3.914694e+03
5.554000e+02,3.914052e+03
5.563643e+02,3.915991e+03
5.573285e+02,3.922181e+03
5.582927e+02,3.931488e+03
5.592570e+02,3.938926e+03
5.602212e+02,3.941607e+03
5.611854e+02,3.939254e+03
5.621497e+02,3.938518e+03
5.631139e+02,3.941422e+03
5.640781e+02,3.942078e+03
5.650424e+02,3.939604e+03
5.660066e+02,3.934756e+03
5.669708e+02,3.929325e+03
5.679351e+02,3.924552e+03
5.688993e+02,3.920573e+03
5.698635e+02,3.916837e+03
5.708278e+02,3.913564e+03
5.717920e+02,3.912780e+03
5.727562e+02,3.915875e+03
5.737205e+02,3.923836e+03
5.746847e+02,3.928878e+03
5.756489e+02,3.927114e+03
5.766132e+02,3.924815e+03
5.775774e+02,3.926729e+03
5.785416e+02,3.933345e+03
5.795059e+02,3.939444e+03
5.804701e+02,3.942492e+03
5.814343e+02,3.941949e+03
5.823986e+02,3.934248e+03
5.833628e+02,3.917057e+03
5.843270e+02,3.898898e+03
5.852913e+02,3.891073e+03
5.862555e+02,3.902731e+03
5.872197e+02,3.911376e+03
5.881840e+02,3.914891e+03
5.891482e+02,3.915990e+03
5.901124e+02,3.917171e+03
5.910767e+02,3.919265e+03
5.920409e+02,3.920633e+03
5.930051e+02,3.917708e+03
5.939694e+02,3.911292e+03
5.949336e+02,3.908337e+03
5.958978e+02,3.912131e+03
5.968621e+02,3.919151e+03
5.978263e+02,3.921536e+03
5.987905e+02,3.914717e+03
5.997548e+02,3.909699e+03
6.007190e+02,3.908230e+03
6.016832e+02,3.909454e+03
6.026475e+02,3.911663e+03
6.036117e+02,3.913577e+03
6.045759e+02,3.915094e+03
6.055402e+02,3.916288e+03
6.065044e+02,3.916581e+03
6.074686e+02,3.915407e+03
6.084329e+02,3.913019e+03
6.093971e+02,3.910146e+03
6.103613e+02,3.908495e+03
6.113256e+02,3.910212e+03
6.122899e+02,3.911290e+03
6.132541e+02,3.910491e+03
6.142183e+02,3.908509e+03
6.151826e+02,3.906901e+03
6.161468e+02,3.909615e+03
6.171110e+02,3.912630e+03
6.180753e+02,3.907725e+03
6.190395e+02,3.895592e+03
6.200037e+02,3.886311e+03
6.209680e+02,3.886449e+03
6.219322e+02,3.895973e+03
6.228964e+02,3.903118e+03
6.238607e+02,3.907073e+03
6.248249e+02,3.908586e+03
6.257891e+02,3.905959e+03
6.267534e+02,3.899218e+03
6.277176e+02,3.891210e+03
6.286818e+02,3.884054e+03
6.296461e+02,3.877815e+03
6.306103e+02,3.871521e+03
6.315745e+02,3.865584e+03
6.325388e+02,3.861794e+03
6.335030e+02,3.860841e+03
6.344672e+02,3.862154e+03
6.354315e+02,3.865895e+03
6.363957e+02,3.875817e+03
6.373599e+02,3.881773e+03
6.383242e+02,3.877641e+03
6.392884e+02,3.865181e+03
6.402526e+02,3.856096e+03
6.412169e+02,3.856558e+03
6.421811e+02,3.860122e+03
6.431453e+02,3.861809e+03
6.441096e+02,3.860931e+03
6.450738e+02,3.857741e+03
6.460380e+02,3.850418e+03
6.470023e+02,3.839474e+03
6.479665e+02,3.840638e+03
6.489307e+02,3.860700e+03
6.498950e+02,3.881267e+03
6.508592e+02,3.885487e+03
6.518234e+02,3.871619e+03
6.527877e+02,3.860047e+03
6.537519e+02,3.856517e+03
6.547161e+02,3.854914e+03
6.556804e+02,3.849876e+03
6.566446e+02,3.841549e+03
6.576088e+02,3.834797e+03
6.585731e+02,3.835572e+03
6.595373e+02,3.842381e+03
6.605015e+02,3.846582e+03
6.614658e+02,3.847400e+03
6.624300e+02,3.845732e+03
6.633942e+02,3.841866e+03
6.643585e+02,3.833293e+03
6.653227e+02,3.828569e+03
6.662869e+02,3.828496e+03
6.672512e+02,3.830379e+03
6.682154e+02,3.834156e+03
6.691796e+02,3.839070e+03
6.701439e+02,3.840917e+03
6.711081e+02,3.835353e+03
6.720723e+02,3.825014e+03
6.730366e+02,3.814705e+03
6.740008e+02,3.805522e+03
6.749650e+02,3.798757e+03
6.759293e+02,3.796036e+03
6.768935e+02,3.798617e+03
6.778577e+02,3.803386e+03
6.788220e+02,3.816606e+03
6.797862e+02,3.829274e+03
6.807504e+02,3.832401e+03
6.817147e+02,3.822394e+03
6.826789e+02,3.814366e+03
6.836431e+02,3.816939e+03
6.846074e+02,3.821331e+03
6.855716e+02,3.817385e+03
6.865358e+02,3.804280e+03
6.875001e+02,3.790761e+03
6.884643e+02,3.787969e+03
6.894285e+02,3.795937e+03
6.903928e+02,3.800902e+03
6.913570e+02,3.800195e+03
6.923212e+02,3.796863e+03
6.932855e+02,3.794896e+03
6.942497e+02,3.798028e+03
6.952139e+02,3.798172e+03
6.961782e+02,3.789414e+03
6.971424e+02,3.780596e+03
6.981066e+02,3.778029e+03
6.990709e+02,3.781529e+03
7.000351e+02,3.784654e+03
7.009993e+02,3.785636e+03
7.019636e+02,3.785256e+03
7.029278e+02,3.782562e+03
7.038920e+02,3.777002e+03
7.048563e+02,3.769288e+03
7.058205e+02,3.760380e+03
7.067847e+02,3.749853e+03
7.077490e+02,3.745139e+03
7.087132e+02,3.752064e+03
7.096774e+02,3.763623e+03
7.106417e+02,3.771626e+03
7.116059e+02,3.775113e+03
7.125701e+02,3.775368e+03
7.135344e+02,3.770296e+03
7.144986e+02,3.764943e+03
7.154628e+02,3.764094e+03
7.164271e+02,3.767826e+03
7.173913e+02,3.771195e+03
7.183555e+02,3.768281e+03
7.193198e+02,3.760361e+03
7.202840e+02,3.754681e+03
7.212482e+02,3.752747e+03
7.222125e+02,3.753428e+03
7.231767e+02,3.755521e+03
7.241409e+02,3.759978e+03
7.251052e+02,3.760055e+03
7.260694e+02,3.750165e+03
7.270336e+02,3.739949e+03
7.279979e+02,3.736815e+03
7.289621e+02,3.741506e+03
7.299263e+02,3.743690e+03
7.308906e+02,3.733277e+03
7.318548e+02,3.720520e+03
7.328190e+02,3.718238e+03
7.337833e+02,3.727245e+03
7.347475e+02,3.738614e+03
7.357117e+02,3.746721e+03
7.366760e+02,3.751840e+03
7.376402e+02,3.746814e+03
7.386044e+02,3.727448e+03
7.395687e+02,3.709524e+03
7.405329e+02,3.707225e+03
7.414971e+02,3.726782e+03
7.424614e+02,3.734205e+03
7.434256e+02,3.719086e+03
7.443898e+02,3.705844e+03
7.453541e+02,3.706118e+03
7.463183e+02,3.717425e+03
7.472825e+02,3.726849e+03
7.482468e+02,3.728770e+03
7.492110e+02,3.726297e+03
7.501752e+02,3.724651e+03
7.511395e+02,3.724951e+03
7.521037e+02,3.723366e+03
7.530679e+02,3.712983e+03
7.540322e+02,3.694770e+03
7.549964e+02,3.684567e+03
7.559606e+02,3.685461e+03
7.569249e+02,3.686530e+03
7.578891e+02,3.679226e+03
7.588533e+02,3.662949e+03
7.598176e+02,3.658443e+03
7.607818e+02,3.672458e+03
7.617460e+02,3.685083e+03
7.627103e+02,3.692285e+03
7.636745e+02,3.695391e+03
7.646387e+02,3.695229e+03
7.656030e+02,3.686923e+03
7.665672e+02,3.679126e+03
7.675314e+02,3.678974e+03
7.684957e+02,3.682581e+03
7.694599e+02,3.683042e+03
7.704241e+02,3.677509e+03
7.713884e+02,3.669527e+03
7.723526e+02,3.665830e+03
7.733168e+02,3.667533e+03
7.742811e+02,3.671878e+03
7.752453e+02,3.676499e+03
7.762095e+02,3.679750e+03
7.771738e+02,3.679401e+03
7.781380e+02,3.670883e+03
7.791022e+02,3.661504e+03
7.800665e+02,3.653907e+03
7.810307e+02,3.647969e+03
7.819949e+02,3.643003e+03
7.829592e+02,3.639974e+03
7.839234e+02,3.639183e+03
7.848876e+02,3.641602e+03
7.858519e+02,3.644971e+03
7.868161e+02,3.645870e+03
7.877803e+02,3.642387e+03
7.887446e+02,3.637221e+03
7.897088e+02,3.635154e+03
7.906730e+02,3.637072e+03
7.916373e+02,3.640067e+03
7.926015e+02,3.641222e+03
7.935657e+02,3.640179e+03
7.945300e+02,3.642038e+03
7.954942e+02,3.652847e+03
7.964584e+02,3.654547e+03
7.974227e+02,3.641563e+03
7.983869e+02,3.625926e+03
7.993511e+02,3.617664e+03
8.003154e+02,3.616299e+03
8.012796e+02,3.616301e+03
8.022438e+02,3.620606e+03
8.032081e+02,3.626549e+03
8.041723e+02,3.631809e+03
8.051365e+02,3.635334e+03
8.061008e+02,3.636734e+03
8.070650e+02,3.634140e+03
8.080292e+02,3.628358e+03
8.089935e+02,3.622551e+03
8.099577e+02,3.618159e+03
8.109219e+02,3.614144e+03
8.118862e+02,3.607255e+03
8.128504e+02,3.597745e+03
8.138146e+02,3.595003e+03
8.147789e+02,3.600732e+03
8.157431e+02,3.607466e+03
8.167073e+02,3.609906e+03
8.176716e+02,3.608914e+03
8.186358e+02,3.609930e+03
8.196000e+02,3.616707e+03
8.205643e+02,3.621438e+03
8.215285e+02,3.616601e+03
8.224927e+02,3.603625e+03
8.234570e+02,3.595609e+03
8.244212e+02,3.602004e+03
8.253854e+02,3.609184e+03
8.263497e+02,3.606049e+03
8.273139e+02,3.594726e+03
8.282781e+02,3.585163e+03
8.292424e+02,3.588270e+03
8.302066e+02,3.596251e+03
8.311708e+02,3.594682e+03
8.321351e+02,3.585616e+03
8.330993e+02,3.580142e+03
8.340635e+02,3.584271e+03
8.350278e+02,3.593585e+03
8.359920e+02,3.595472e+03
8.369562e+02,3.588894e+03
8.379205e+02,3.580516e+03
8.388847e+02,3.570381e+03
8.398489e+02,3.561238e+03
8.408132e+02,3.559783e+03
8.417774e+02,3.575263e+03
8.427416e+02,3.584000e+03
8.437059e+02,3.578550e+03
8.446701e+02,3.568145e+03
8.456343e+02,3.563303e+03
8.465986e+02,3.569376e+03
8.475628e+02,3.572198e+03
8.485270e+02,3.563952e+03
8.494913e+02,3.551654e+03
8.504555e+02,3.542383e+03
8.514197e+02,3.538221e+03
8.523840e+02,3.537930e+03
8.533482e+02,3.541575e+03
8.543124e+02,3.546933e+03
8.552767e+02,3.550807e+03
8.562409e+02,3.552426e+03
8.572051e+02,3.551989e+03
8.581694e+02,3.550038e+03
8.591336e+02,3.547197e+03
8.600978e+02,3.545422e+03
8.610621e+02,3.545862e+03
8.620263e+02,3.545540e+03
8.629905e+02,3.540576e+03
8.639548e+02,3.529249e+03
8.649190e+02,3.521228e+03
8.658832e+02,3.520636e+03
8.668475e+02,3.521274e+03
8.678117e+02,3.519604e+03
8.687759e+02,3.516017e+03
8.697402e+02,3.515108e+03
8.707044e+02,3.518183e+03
8.716686e+02,3.519078e+03
8.726329e+02,3.517792e+03
8.735971e+02,3.515175e+03
8.745613e+02,3.511284e+03
8.755256e+02,3.503238e+03
8.764898e+02,3.499434e+03
8.774540e+02,3.507938e+03
8.784183e+02,3.522713e+03
8.793825e+02,3.534510e+03
8.803467e+02,3.540223e+03
8.813110e+02,3.539724e+03
8.822752e+02,3.529445e+03
8.832394e+02,3.513383e+03
8.842037e+02,3.503403e+03
8.851679e+02,3.501605e+03
8.861321e+02,3.503649e+03
8.870964e+02,3.505071e+03
8.880606e+02,3.505629e+03
8.890248e+02,3.505278e+03
8.899891e+02,3.506194e+03
8.909533e+02,3.505442e+03
8.919175e+02,3.498538e+03
8.928818e+02,3.482936e+03
8.938460e+02,3.472237e+03
8.948102e+02,3.465640e+03
8.957745e+02,3.463083e+03
8.967387e+02,3.467102e+03
8.977029e+02,3.476541e+03
8.986672e+02,3.482361e+03
8.996314e+02,3.487043e+03
9.005956e+02,3.488678e+03
9.015599e+02,3.482175e+03
9.025241e+02,3.470760e+03
9.034883e+02,3.463859e+03
9.044526e+02,3.468986e+03
9.054168e+02,3.474046e+03
9.063810e+02,3.473943e+03
9.073453e+02,3.471930e+03
9.083095e+02,3.470862e+03
9.092737e+02,3.471038e+03
9.102380e+02,3.470135e+03
9.112022e+02,3.465720e+03
9.121664e+02,3.458453e+03
9.131307e+02,3.450152e+03
9.140949e+02,3.442318e+03
9.150591e+02,3.437698e+03
9.160234e+02,3.438556e+03
9.169876e+02,3.442435e+03
9.179518e+02,3.444051e+03
9.189161e+02,3.442805e+03
9.198803e+02,3.439389e+03
9.208445e+02,3.435240e+03
9.218088e+02,3.431284e+03
9.227730e+02,3.428759e+03
9.237372e+02,3.427168e+03
9.247015e+02,3.425662e+03
9.256657e+02,3.423869e+03
9.266299e+02,3.421531e+03
9.275942e+02,3.419294e+03
9.285584e+02,3.416656e+03
9.295226e+02,3.413202e+03
9.304869e+02,3.407507e+03
9.314511e+02,3.401601e+03
9.324153e+02,3.400439e+03
9.333796e+02,3.410854e+03
9.343438e+02,3.418395e+03
9.353080e+02,3.415674e+03
9.362723e+02,3.407121e+03
9.372365e+02,3.400692e+03
9.382007e+02,3.401955e+03
9.391650e+02,3.404604e+03
9.401292e+02,3.406080e+03
9.410934e+02,3.406669e+03
9.420577e+02,3.406238e+03
9.430219e+02,3.404500e+03
9.439861e+02,3.400218e+03
9.449504e+02,3.389997e+03
9.459146e+02,3.380561e+03
9.468788e+02,3.379849e+03
9.478431e+02,3.386440e+03
9.488073e+02,3.393728e+03
9.497715e+02,3.400742e+03
9.507358e+02,3.405879e+03
9.517000e+02,3.403401e+03
9.526642e+02,3.394779e+03
9.536285e+02,3.385095e+03
9.545927e+02,3.376140e+03
9.555569e+02,3.368433e+03
9.565212e+02,3.363878e+03
9.574854e+02,3.363600e+03
9.584496e+02,3.368401e+03
9.594139e+02,3.378397e+03
9.603781e+02,3.389559e+03
9.613423e+02,3.394338e+03
9.623066e+02,3.392552e+03
9.632708e+02,3.385368e+03
9.642350e+02,3.371152e+03
9.651993e+02,3.356227e+03
9.661635e+02,3.348323e+03
9.671277e+02,3.348864e+03
9.680920e+02,3.350313e+03
9.690562e+02,3.354902e+03
9.700204e+02,3.357366e+03
9.709847e+02,3.354358e+03
9.719489e+02,3.345737e+03
9.729131e+02,3.337927e+03
9.738774e+02,3.329811e+03
9.748416e+02,3.325216e+03
9.758058e+02,3.326101e+03
9.767701e+02,3.330396e+03
9.777343e+02,3.332437e+03
9.786985e+02,3.329928e+03
9.796628e+02,3.325835e+03
9.806270e+02,3.321011e+03
9.815912e+02,3.315805e+03
9.825555e+02,3.310918e+03
9.835197e+02,3.308060e+03
9.844839e+02,3.306299e+03
9.854482e+02,3.305468e+03
9.864124e+02,3.306018e+03
9.873766e+02,3.307795e+03
9.883409e+02,3.311212e+03
9.893051e+02,3.314866e+03
9.902693e+02,3.317047e+03
9.912336e+02,3.319812e+03
9.921978e+02,3.325438e+03
9.931620e+02,3.332606e+03
9.941263e+02,3.336832e+03
9.950905e+02,3.334771e+03
9.960547e+02,3.328981e+03
9.970190e+02,3.320915e+03
9.979832e+02,3.311208e+03
9.989474e+02,3.302926e+03
9.999117e+02,3.300003e+03
1.000876e+03,3.299590e+03
1.001840e+03,3.296465e+03
1.002804e+03,3.292242e+03
1.003769e+03,3.289302e+03
1.004733e+03,3.287339e+03
1.005697e+03,3.287251e+03
1.006661e+03,3.293229e+03
1.007626e+03,3.303598e+03
1.008590e+03,3.309933e+03
1.009554e+03,3.309980e+03
1.010518e+03,3.304495e+03
1.011482e+03,3.292603e+03
1.012447e+03,3.275590e+03
1.013411e+03,3.264768e+03
1.014375e+03,3.262390e+03
1.015339e+03,3.263771e+03
1.016304e+03,3.265190e+03
1.017268e+03,3.266277e+03
1.018232e+03,3.266137e+03
1.019196e+03,3.263896e+03
1.020161e+03,3.264292e+03
1.021125e+03,3.271239e+03
1.022089e+03,3.281550e+03
1.023053e+03,3.283008e+03
1.024018e+03,3.271851e+03
1.024982e+03,3.264564e+03
1.025946e+03,3.264517e+03
1.026910e+03,3.266643e+03
1.027875e+03,3.266812e+03
1.028839e+03,3.267255e+03
1.029803e+03,3.263675e+03
1.030767e+03,3.253817e+03
1.031731e+03,3.244292e+03
1.032696e+03,3.239573e+03
1.033660e+03,3.239635e+03
1.034624e+03,3.237054e+03
1.035588e+03,3.230709e+03
1.036552e+03,3.225933e+03
1.037517e+03,3.223404e+03
1.038481e+03,3.222523e+03
1.039445e+03,3.224935e+03
1.040409e+03,3.235667e+03
1.041374e+03,3.241483e+03
1.042338e+03,3.238752e+03
1.043302e+03,3.232428e+03
1.044266e+03,3.228169e+03
1.045231e+03,3.227240e+03
1.046195e+03,3.225187e+03
1.047159e+03,3.222083e+03
1.048123e+03,3.219105e+03
1.049088e+03,3.216628e+03
1.050052e+03,3.215462e+03
1.051016e+03,3.216760e+03
1.051980e+03,3.221698e+03
1.052945e+03,3.227127e+03
1.053909e+03,3.231394e+03
1.054873e+03,3.232917e+03
1.055837e+03,3.231570e+03
1.056802e+03,3.227776e+03
1.057766e+03,3.222914e+03
1.058730e+03,3.214698e+03
1.059694e+03,3.207435e+03
1.060658e+03,3.206625e+03
1.061623e+03,3.221590e+03
1.062587e+03,3.227863e+03
1.063551e+03,3.214625e+03
1.064515e+03,3.198433e+03
1.065479e+03,3.190175e+03
1.066444e+03,3.191704e+03
1.067408e+03,3.193838e+03
1.068372e+03,3.193805e+03
1.069336e+03,3.195441e+03
1.070301e+03,3.200086e+03
1.071265e+03,3.205959e+03
1.072229e+03,3.210101e+03
1.073193e+03,3.212424e+03
1.074158e+03,3.212346e+03
1.075122e+03,3.209920e+03
1.076086e+03,3.205075e+03
1.077050e+03,3.197863e+03
1.078015e+03,3.187968e+03
1.078979e+03,3.181701e+03
1.079943e+03,3.180225e+03
1.080907e+03,3.181814e+03
1.081872e+03,3.185062e+03
1.082836e+03,3.188961e+03
1.083800e+03,3.191875e+03
1.084764e+03,3.193494e+03
1.085729e+03,3.195724e+03
1.086693e+03,3.199478e+03
1.087657e+03,3.203801e+03
1.088621e+03,3.207019e+03
1.089585e+03,3.207667e+03
1.090550e+03,3.207030e+03
1.091514e+03,3.208191e+03
1.092478e+03,3.209380e+03
1.093442e+03,3.207838e+03
1.094406e+03,3.202724e+03
1.095371e+03,3.197396e+03
1.096335e+03,3.190715e+03
1.097299e+03,3.184251e+03
1.098263e+03,3.178404e+03
1.099228e+03,3.173016e+03
1.100192e+03,3.170292e+03
1.101156e+03,3.174152e+03
1.102120e+03,3.176330e+03
1.103085e+03,3.172539e+03
1.104049e+03,3.165479e+03
1.105013e+03,3.160658e+03
1.105977e+03,3.162373e+03
1.106942e+03,3.162373e+03
1.107906e+03,3.157201e+03
1.108870e+03,3.151497e+03
1.109834e+03,3.149692e+03
1.110799e+03,3.153374e+03
1.111763e+03,3.156067e+03
1.112727e+03,3.157827e+03
1.113691e+03,3.158709e+03
1.114656e+03,3.156520e+03
1.115620e+03,3.152156e+03
1.116584e+03,3.152266e+03
1.117548e+03,3.161116e+03
1.118512e+03,3.167245e+03
1.119477e+03,3.166066e+03
1.120441e+03,3.161667e+03
1.121405e+03,3.160754e+03
1.122369e+03,3.170064e+03
1.123334e+03,3.172895e+03
1.124298e+03,3.164335e+03
1.125262e+03,3.154686e+03
1.126226e+03,3.152094e+03
1.127191e+03,3.158069e+03
1.128155e+03,3.159357e+03
1.129119e+03,3.148922e+03
1.130083e+03,3.142083e+03
1.131047e+03,3.147372e+03
1.132012e+03,3.159219e+03
1.132976e+03,3.161324e+03
1.133940e+03,3.148415e+03
1.134904e+03,3.135801e+03
1.135869e+03,3.125664e+03
1.136833e+03,3.118564e+03
1.137797e+03,3.115465e+03
1.138761e+03,3.118903e+03
1.139726e+03,3.120390e+03
1.140690e+03,3.118272e+03
1.141654e+03,3.116404e+03
1.142618e+03,3.117434e+03
1.143583e+03,3.120804e+03
1.144547e+03,3.119363e+03
1.145511e+03,3.110688e+03
1.146475e+03,3.106428e+03
1.147439e+03,3.110903e+03
1.148404e+03,3.120054e+03
1.149368e+03,3.125498e+03
1.150332e+03,3.126410e+03
1.151296e+03,3.128732e+03
1.152261e+03,3.132290e+03
1.153225e+03,3.132166e+03
1.154189e+03,3.125546e+03
1.155153e+03,3.114455e+03
1.156118e+03,3.105427e+03
1.157082e+03,3.099520e+03
1.158046e+03,3.094491e+03
1.159010e+03,3.087966e+03
1.159974e+03,3.081103e+03
1.160939e+03,3.076399e+03
1.161903e+03,3.073112e+03
1.162867e+03,3.071149e+03
1.163831e+03,3.070431e+03
1.164796e+03,3.068755e+03
1.165760e+03,3.064583e+03
1.166724e+03,3.058792e+03
1.167688e+03,3.050770e+03
1.168653e+03,3.041430e+03
1.169617e+03,3.036285e+03
1.170581e+03,3.042447e+03
1.171545e+03,3.051120e+03
1.172510e+03,3.047622e+03
1.173474e+03,3.036650e+03
1.174438e+03,3.027033e+03
1.175402e+03,3.020593e+03
1.176366e+03,3.019624e+03
1.177331e+03,3.031659e+03
1.178295e+03,3.047915e+03
1.179259e+03,3.057786e+03
1.180223e+03,3.059754e+03
1.181188e+03,3.056478e+03
1.182152e+03,3.044442e+03
1.183116e+03,3.032852e+03
1.184080e+03,3.030075e+03
1.185045e+03,3.033105e+03
1.186009e+03,3.035840e+03
1.186973e+03,3.037959e+03
1.187937e+03,3.038395e+03
1.188901e+03,3.033437e+03
1.189866e+03,3.028158e+03
1.190830e+03,3.026780e+03
1.191794e+03,3.029196e+03
1.192758e+03,3.030405e+03
1.193723e+03,3.031179e+03
1.194687e+03,3.031129e+03
1.195651e+03,3.028740e+03
1.196615e+03,3.024751e+03
1.197580e+03,3.021135e+03
1.198544e+03,3.014814e+03
1.199508e+03,3.009444e+03
1.200472e+03,3.008271e+03
1.201437e+03,3.008077e+03
1.202401e+03,3.006531e+03
1.203365e+03,3.004255e+03
1.204329e+03,3.001759e+03
1.205293e+03,2.997681e+03
1.206258e+03,2.995730e+03
1.207222e+03,2.997507e+03
1.208186e+03,3.001649e+03
1.209150e+03,3.005201e+03
1.210115e+03,3.007337e+03
1.211079e+03,3.008199e+03
1.212043e+03,3.008298e+03
1.213007e+03,3.006358e+03
1.213972e+03,3.000979e+03
1.214936e+03,2.993612e+03
1.215900e+03,2.988202e+03
1.216864e+03,2.984874e+03
1.217828e+03,2.982318e+03
1.218793e+03,2.979902e+03
1.219757e+03,2.977850e+03
1.220721e+03,2.975797e+03
1.221685e+03,2.974598e+03
1.222650e+03,2.975630e+03
1.223614e+03,2.978384e+03
1.224578e+03,2.980609e+03
1.225542e+03,2.982775e+03
1.226507e+03,2.983818e+03
1.227471e+03,2.980629e+03
1.228435e+03,2.973465e+03
1.229399e+03,2.966536e+03
1.230364e+03,2.964921e+03
1.231328e+03,2.962372e+03
1.232292e+03,2.953979e+03
1.233256e+03,2.945617e+03
1.234220e+03,2.944122e+03
1.235185e+03,2.954651e+03
1.236149e+03,2.961797e+03
1.237113e+03,2.958751e+03
1.238077e+03,2.955500e+03
1.239042e+03,2.956517e+03
1.240006e+03,2.959990e+03
1.240970e+03,2.960665e+03
1.241934e+03,2.955591e+03
1.242899e+03,2.953068e+03
1.243863e+03,2.957659e+03
1.244827e+03,2.963806e+03
1.245791e+03,2.963081e+03
1.246755e+03,2.954058e+03
1.247720e+03,2.946494e+03
1.248684e+03,2.940986e+03
1.249648e+03,2.936716e+03
1.250612e+03,2.932570e+03
1.251577e+03,2.928701e+03
1.252541e+03,2.928430e+03
1.253505e+03,2.930647e+03
1.254469e+03,2.927696e+03
1.255434e+03,2.917135e+03
1.256398e+03,2.908324e+03
1.257362e+03,2.915636e+03
1.258326e+03,2.929318e+03
1.259291e+03,2.930643e+03
1.260255e+03,2.920083e+03
1.261219e+03,2.910594e+03
1.262183e+03,2.915125e+03
1.263147e+03,2.922036e+03
1.264112e+03,2.921916e+03
1.265076e+03,2.918016e+03
1.266040e+03,2.914493e+03
1.267004e+03,2.912531e+03
1.267969e+03,2.911132e+03
1.268933e+03,2.910069e+03
1.269897e+03,2.911919e+03
1.270861e+03,2.917841e+03
1.271826e+03,2.924922e+03
1.272790e+03,2.926976e+03
1.273754e+03,2.921301e+03
1.274718e+03,2.917506e+03
1.275682e+03,2.920250e+03
1.276647e+03,2.924730e+03
1.277611e+03,2.923397e+03
1.278575e+03,2.914819e+03
1.279539e+03,2.907961e+03
1.280504e+03,2.904254e+03
1.281468e+03,2.904633e+03
1.282432e+03,2.909698e+03
1.283396e+03,2.917409e+03
1.284361e+03,2.923810e+03
1.285325e+03,2.927914e+03
1.286289e+03,2.927650e+03
1.287253e+03,2.922162e+03
1.288218e+03,2.915564e+03
1.289182e+03,2.913341e+03
1.290146e+03,2.912121e+03
1.291110e+03,2.907136e+03
1.292074e+03,2.899657e+03
1.293039e+03,2.893761e+03
1.294003e+03,2.892140e+03
1.294967e+03,2.890376e+03
1.295931e+03,2.889068e+03
1.296896e+03,2.886905e+03
1.297860e+03,2.880834e+03
1.298824e+03,2.867902e+03
1.299788e+03,2.860256e+03
1.300753e+03,2.860001e+03
1.301717e+03,2.861925e+03
1.302681e+03,2.864716e+03
1.303645e+03,2.868106e+03
1.304609e+03,2.871827e+03
1.305574e+03,2.875140e+03
1.306538e+03,2.875586e+03
1.307502e+03,2.874003e+03
1.308466e+03,2.871714e+03
1.309431e+03,2.868305e+03
1.310395e+03,2.864586e+03
1.311359e+03,2.863507e+03
1.312323e+03,2.863370e+03
1.313288e+03,2.861534e+03
1.314252e+03,2.858064e+03
1.315216e+03,2.854797e+03
1.316180e+03,2.850453e+03
1.317145e+03,2.847800e+03
1.318109e+03,2.851419e+03
1.319073e+03,2.860224e+03
1.320037e+03,2.863901e+03
1.321001e+03,2.854448e+03
1.321966e+03,2.844111e+03
1.322930e+03,2.838774e+03
1.323894e+03,2.837464e+03
1.324858e+03,2.836309e+03
1.325823e+03,2.834636e+03
1.326787e+03,2.834431e+03
1.327751e+03,2.835471e+03
1.328715e+03,2.836161e+03
1.329680e+03,2.835749e+03
1.330644e+03,2.834773e+03
1.331608e+03,2.834981e+03
1.332572e+03,2.836063e+03
1.333536e+03,2.836980e+03
1.334501e+03,2.836792e+03
1.335465e+03,2.837720e+03
1.336429e+03,2.847231e+03
1.337393e+03,2.858708e+03
1.338358e+03,2.860726e+03
1.339322e+03,2.854335e+03
1.340286e+03,2.847194e+03
1.341250e+03,2.843086e+03
1.342215e+03,2.838763e+03
1.343179e+03,2.833237e+03
1.344143e+03,2.829321e+03
1.345107e+03,2.828389e+03
1.346072e+03,2.830097e+03
1.347036e+03,2.832655e+03
1.348000e+03,2.837961e+03
1.348964e+03,2.838361e+03
1.349928e+03,2.830127e+03
1.350893e+03,2.818309e+03
1.351857e+03,2.812846e+03
1.352821e+03,2.812902e+03
1.353785e+03,2.813274e+03
1.354750e+03,2.812960e+03
1.355714e+03,2.810921e+03
1.356678e+03,2.806690e+03
1.357642e+03,2.802523e+03
1.358607e+03,2.798620e+03
1.359571e+03,2.795923e+03
1.360535e+03,2.798272e+03
1.361499e+03,2.810288e+03
1.362464e+03,2.818844e+03
1.363428e+03,2.817715e+03
1.364392e+03,2.812171e+03
1.365356e+03,2.801110e+03
1.366320e+03,2.784952e+03
1.367285e+03,2.777699e+03
1.368249e+03,2.784593e+03
1.369213e+03,2.791675e+03
1.370177e+03,2.797699e+03
1.371142e+03,2.800447e+03
1.372106e+03,2.795384e+03
1.373070e+03,2.784055e+03
1.374034e+03,2.778727e+03
1.374999e+03,2.779587e+03
1.375963e+03,2.780819e+03
1.376927e+03,2.778843e+03
1.377891e+03,2.776847e+03
1.378855e+03,2.779215e+03
1.379820e+03,2.782305e+03
1.380784e+03,2.780918e+03
1.381748e+03,2.775179e+03
1.382712e+03,2.771815e+03
1.383677e+03,2.773517e+03
1.384641e+03,2.774229e+03
1.385605e+03,2.771785e+03
1.386569e+03,2.766891e+03
1.387534e+03,2.760588e+03
1.388498e+03,2.752465e+03
1.389462e+03,2.747624e+03
1.390426e+03,2.746028e+03
1.391391e+03,2.742906e+03
1.392355e+03,2.734690e+03
1.393319e+03,2.725910e+03
1.394283e+03,2.724847e+03
1.395247e+03,2.729041e+03
1.396212e+03,2.734431e+03
1.397176e+03,2.740239e+03
1.398140e+03,2.744169e+03
1.399104e+03,2.743309e+03
1.400069e+03,2.740441e+03
1.401033e+03,2.736975e+03
1.401997e+03,2.733129e+03
1.402961e+03,2.729390e+03
1.403926e+03,2.726866e+03
1.404890e+03,2.720614e+03
1.405854e+03,2.708446e+03
1.406818e+03,2.699466e+03
1.407782e+03,2.701731e+03
1.408747e+03,2.712530e+03
1.409711e+03,2.720555e+03
1.410675e+03,2.724398e+03
1.411639e+03,2.723635e+03
1.412604e+03,2.717998e+03
1.413568e+03,2.713501e+03
1.414532e+03,2.718446e+03
1.415496e+03,2.725606e+03
1.416461e+03,2.728712e+03
1.417425e+03,2.726655e+03
1.418389e+03,2.720212e+03
1.419353e+03,2.703033e+03
1.420318e+03,2.691999e+03
1.421282e+03,2.691039e+03
1.422246e+03,2.694532e+03
1.423210e+03,2.698998e+03
1.424174e+03,2.703960e+03
1.425139e+03,2.702293e+03
1.426103e+03,2.694051e+03
1.427067e+03,2.685948e+03
1.428031e+03,2.680401e+03
1.428996e+03,2.676281e+03
1.429960e+03,2.668637e+03
1.430924e+03,2.663670e+03
1.431888e+03,2.673154e+03
1.432853e+03,2.693070e+03
1.433817e+03,2.701860e+03
1.434781e+03,2.685726e+03
1.435745e+03,2.671574e+03
1.436709e+03,2.660265e+03
1.437674e+03,2.652310e+03
1.438638e+03,2.649853e+03
1.439602e+03,2.653150e+03
1.440566e+03,2.657935e+03
1.441531e+03,2.663553e+03
1.442495e+03,2.665884e+03
1.443459e+03,2.662465e+03
1.444423e+03,2.657735e+03
1.445388e+03,2.655379e+03
1.446352e+03,2.653606e+03
1.447316e+03,2.652151e+03
1.448280e+03,2.651547e+03
1.449245e+03,2.649632e+03
1.450209e+03,2.643229e+03
1.451173e+03,2.639461e+03
1.452137e+03,2.638705e+03
1.453101e+03,2.638000e+03
1.454066e+03,2.634519e+03
1.455030e+03,2.629354e+03
1.455994e+03,2.631746e+03
1.456958e+03,2.640416e+03
1.457923e+03,2.647161e+03
1.458887e+03,2.648185e+03
1.459851e+03,2.646031e+03
1.460815e+03,2.640221e+03
1.461780e+03,2.633686e+03
1.462744e+03,2.631670e+03
1.463708e+03,2.633930e+03
1.464672e+03,2.632992e+03
1.465636e+03,2.626435e+03
1.466601e+03,2.623445e+03
1.467565e+03,2.626482e+03
1.468529e+03,2.629812e+03
1.469493e+03,2.625903e+03
1.470458e+03,2.616750e+03
1.471422e+03,2.613262e+03
1.472386e+03,2.614898e+03
1.473350e+03,2.618429e+03
1.474315e+03,2.622990e+03
1.475279e+03,2.625237e+03
1.476243e+03,2.621708e+03
1.477207e+03,2.615449e+03
1.478172e+03,2.608041e+03
1.479136e+03,2.600929e+03
1.480100e+03,2.598451e+03
1.481064e+03,2.602102e+03
1.482028e+03,2.606457e+03
1.482993e+03,2.611824e+03
1.483957e+03,2.614750e+03
1.484921e+03,2.608967e+03
1.485885e+03,2.599365e+03
1.486850e+03,2.594236e+03
1.487814e+03,2.592126e+03
1.488778e+03,2.592125e+03
1.489742e+03,2.595773e+03
1.490707e+03,2.595970e+03
1.491671e+03,2.588890e+03
1.492635e+03,2.582373e+03
1.493599e+03,2.577704e+03
1.494563e+03,2.575184e+03
1.495528e+03,2.579422e+03
1.496492e+03,2.589563e+03
1.497456e+03,2.592065e+03
1.498420e+03,2.586334e+03
1.499385e+03,2.578479e+03
1.500349e+03,2.570804e+03
1.501313e+03,2.565353e+03
1.502277e+03,2.565268e+03
1.503242e+03,2.567175e+03
1.504206e+03,2.565675e+03
1.505170e+03,2.557338e+03
1.506134e+03,2.554379e+03
1.507099e+03,2.559260e+03
1.508063e+03,2.563754e+03
1.509027e+03,2.565039e+03
1.509991e+03,2.563633e+03
1.510955e+03,2.558672e+03
1.511920e+03,2.552310e+03
1.512884e+03,2.550974e+03
1.513848e+03,2.555331e+03
1.514812e+03,2.559720e+03
1.515777e+03,2.560814e+03
1.516741e+03,2.558437e+03
1.517705e+03,2.546995e+03
1.518669e+03,2.536374e+03
1.519634e+03,2.536632e+03
1.520598e+03,2.546545e+03
1.521562e+03,2.549109e+03
1.522526e+03,2.544199e+03
1.523490e+03,2.542391e+03
1.524455e+03,2.548286e+03
1.525419e+03,2.553372e+03
1.526383e+03,2.551158e+03
1.527347e+03,2.543755e+03
1.528312e+03,2.529656e+03
1.529276e+03,2.513374e+03
1.530240e+03,2.508687e+03
1.531204e+03,2.521222e+03
1.532169e+03,2.526507e+03
1.533133e+03,2.521057e+03
1.534097e+03,2.516348e+03
1.535061e+03,2.523232e+03
1.536026e+03,2.533774e+03
1.536990e+03,2.532935e+03
1.537954e+03,2.525772e+03
1.538918e+03,2.522202e+03
1.539882e+03,2.525160e+03
1.540847e+03,2.523736e+03
1.541811e+03,2.505776e+03
1.542775e+03,2.494567e+03
1.543739e+03,2.501208e+03
1.544704e+03,2.513957e+03
1.545668e+03,2.508774e+03
1.546632e+03,2.491779e+03
1.547596e+03,2.493559e+03
1.548561e+03,2.512365e+03
1.549525e+03,2.527038e+03
1.550489e+03,2.522028e+03
1.551453e+03,2.514438e+03
1.552417e+03,2.511104e+03
1.553382e+03,2.509173e+03
1.554346e+03,2.506648e+03
1.555310e+03,2.504274e+03
1.556274e+03,2.505151e+03
1.557239e+03,2.508945e+03
1.558203e+03,2.511209e+03
1.559167e+03,2.510932e+03
1.560131e+03,2.509016e+03
1.561096e+03,2.505021e+03
1.562060e+03,2.501500e+03
1.563024e+03,2.501146e+03
1.563988e+03,2.502504e+03
1.564953e+03,2.501654e+03
1.565917e+03,2.496763e+03
1.566881e+03,2.494887e+03
1.567845e+03,2.495681e+03
1.568809e+03,2.498755e+03
1.569774e+03,2.506069e+03
1.570738e+03,2.512104e+03
1.571702e+03,2.506197e+03
1.572666e+03,2.496015e+03
1.573631e+03,2.492770e+03
1.574595e+03,2.498341e+03
1.575559e+03,2.499766e+03
1.576523e+03,2.493044e+03
1.577488e+03,2.490869e+03
1.578452e+03,2.495206e+03
1.579416e+03,2.499952e+03
1.580380e+03,2.497771e+03
1.581344e+03,2.493070e+03
1.582309e+03,2.496520e+03
1.583273e+03,2.504579e+03
1.584237e+03,2.507498e+03
1.585201e+03,2.500239e+03
1.586166e+03,2.493791e+03
1.587130e+03,2.488471e+03
1.588094e+03,2.484350e+03
1.589058e+03,2.482659e+03
1.590023e+03,2.482085e+03
1.590987e+03,2.479396e+03
1.591951e+03,2.475777e+03
1.592915e+03,2.470608e+03
1.593880e+03,2.463409e+03
1.594844e+03,2.459153e+03
1.595808e+03,2.466044e+03
1.596772e+03,2.468104e+03
1.597736e+03,2.461861e+03
1.598701e+03,2.452612e+03
1.599665e+03,2.443015e+03
1.600629e+03,2.434126e+03
1.601593e+03,2.430893e+03
1.602558e+03,2.432207e+03
1.603522e+03,2.435760e+03
1.604486e+03,2.441773e+03
1.605450e+03,2.443242e+03
1.606415e+03,2.431167e+03
1.607379e+03,2.423741e+03
1.608343e+03,2.429362e+03
1.609307e+03,2.440313e+03
1.610271e+03,2.443331e+03
1.611236e+03,2.439548e+03
1.612200e+03,2.434987e+03
1.613164e+03,2.430888e+03
1.614128e+03,2.427656e+03
1.615093e+03,2.424005e+03
1.616057e+03,2.422155e+03
1.617021e+03,2.424315e+03
1.617985e+03,2.425529e+03
1.618950e+03,2.423563e+03
1.619914e+03,2.418958e+03
1.620878e+03,2.411563e+03
1.621842e+03,2.403253e+03
1.622807e+03,2.400844e+03
1.623771e+03,2.406205e+03
1.624735e+03,2.412757e+03
1.625699e+03,2.420376e+03
1.626663e+03,2.421622e+03
1.627628e+03,2.409903e+03
1.628592e+03,2.394145e+03
1.629556e+03,2.387988e+03
1.630520e+03,2.390716e+03
1.631485e+03,2.391347e+03
1.632449e+03,2.389786e+03
1.633413e+03,2.387267e+03
1.634377e+03,2.383877e+03
1.635342e+03,2.381488e+03
1.636306e+03,2.382299e+03
1.637270e+03,2.383022e+03
1.638234e+03,2.382320e+03
1.639198e+03,2.380383e+03
1.640163e+03,2.375476e+03
1.641127e+03,2.369275e+03
1.642091e+03,2.364833e+03
1.643055e+03,2.361899e+03
1.644020e+03,2.361544e+03
1.644984e+03,2.368204e+03
1.645948e+03,2.370078e+03
1.646912e+03,2.363297e+03
1.647877e+03,2.355620e+03
1.648841e+03,2.354362e+03
1.649805e+03,2.357306e+03
1.650769e+03,2.356834e+03
1.651734e+03,2.353728e+03
1.652698e+03,2.350253e+03
1.653662e+03,2.345955e+03
1.654626e+03,2.342928e+03
1.655590e+03,2.341780e+03
1.656555e+03,2.342451e+03
1.657519e+03,2.346685e+03
1.658483e+03,2.352065e+03
1.659447e+03,2.354467e+03
1.660412e+03,2.352976e+03
1.661376e+03,2.345466e+03
1.662340e+03,2.335068e+03
1.663304e+03,2.329298e+03
1.664269e+03,2.331640e+03
1.665233e+03,2.334923e+03
1.666197e+03,2.339903e+03
1.667161e+03,2.339998e+03
1.668125e+03,2.330710e+03
1.669090e+03,2.318177e+03
1.670054e+03,2.310807e+03
1.671018e+03,2.306970e+03
1.671982e+03,2.305710e+03
1.672947e+03,2.306850e+03
1.673911e+03,2.307934e+03
1.674875e+03,2.307691e+03
1.675839e+03,2.306443e+03
1.676804e+03,2.305293e+03
1.677768e+03,2.305461e+03
1.678732e+03,2.307931e+03
1.679696e+03,2.310082e+03
1.680661e+03,2.307073e+03
1.681625e+03,2.302625e+03
1.682589e+03,2.305681e+03
1.683553e+03,2.317785e+03
1.684517e+03,2.317219e+03
1.685482e+03,2.304177e+03
1.686446e+03,2.295282e+03
1.687410e+03,2.295985e+03
1.688374e+03,2.299741e+03
1.689339e+03,2.306276e+03
1.690303e+03,2.308777e+03
1.691267e+03,2.300091e+03
1.692231e+03,2.287461e+03
1.693196e+03,2.282142e+03
1.694160e+03,2.282539e+03
1.695124e+03,2.281992e+03
1.696088e+03,2.281044e+03
1.697052e+03,2.282628e+03
1.698017e+03,2.290537e+03
1.698981e+03,2.292785e+03
1.699945e+03,2.281081e+03
1.700909e+03,2.269769e+03
1.701874e+03,2.268712e+03
1.702838e+03,2.274271e+03
1.703802e+03,2.276833e+03
1.704766e+03,2.276167e+03
1.705731e+03,2.273572e+03
1.706695e+03,2.269888e+03
1.707659e+03,2.267365e+03
1.708623e+03,2.268621e+03
1.709588e+03,2.267196e+03
1.710552e+03,2.260410e+03
1.711516e+03,2.253565e+03
1.712480e+03,2.251102e+03
1.713444e+03,2.252102e+03
1.714409e+03,2.261032e+03
1.715373e+03,2.271244e+03
1.716337e+03,2.270578e+03
1.717301e+03,2.259459e+03
1.718266e+03,2.252024e+03
1.719230e+03,2.247753e+03
1.720194e+03,2.247569e+03
1.721158e+03,2.251888e+03
1.722123e+03,2.255639e+03
1.723087e+03,2.256040e+03
1.724051e+03,2.253915e+03
1.725015e+03,2.250154e+03
1.725979e+03,2.244888e+03
1.726944e+03,2.235074e+03
1.727908e+03,2.223007e+03
1.728872e+03,2.218630e+03
1.729836e+03,2.220293e+03
1.730801e+03,2.223912e+03
1.731765e+03,2.230625e+03
1.732729e+03,2.234567e+03
1.733693e+03,2.235656e+03
1.734658e+03,2.232901e+03
1.735622e+03,2.224243e+03
1.736586e+03,2.214765e+03
1.737550e+03,2.211554e+03
1.738515e+03,2.212335e+03
1.739479e+03,2.216330e+03
1.740443e+03,2.222083e+03
1.741407e+03,2.223627e+03
1.742371e+03,2.220534e+03
1.743336e+03,2.217835e+03
1.744300e+03,2.215742e+03
1.745264e+03,2.211562e+03
1.746228e+03,2.200754e+03
1.747193e+03,2.193403e+03
1.748157e+03,2.200142e+03
1.749121e+03,2.208507e+03
1.750085e+03,2.206322e+03
1.751050e+03,2.196465e+03
1.752014e+03,2.197399e+03
1.752978e+03,2.204328e+03
1.753942e+03,2.202361e+03
1.754906e+03,2.188430e+03
1.755871e+03,2.179968e+03
1.756835e+03,2.181928e+03
1.757799e+03,2.180162e+03
1.758763e+03,2.173975e+03
1.759728e+03,2.168843e+03
1.760692e+03,2.171255e+03
1.761656e+03,2.174992e+03
1.762620e+03,2.169553e+03
1.763585e+03,2.162820e+03
1.764549e+03,2.168787e+03
1.765513e+03,2.186062e+03
1.766477e+03,2.185535e+03
1.767442e+03,2.170916e+03
1.768406e+03,2.161506e+03
1.769370e+03,2.163852e+03
1.770334e+03,2.167287e+03
1.771298e+03,2.167926e+03
1.772263e+03,2.164427e+03
1.773227e+03,2.155343e+03
1.774191e+03,2.146565e+03
1.775155e+03,2.147638e+03
1.776120e+03,2.152199e+03
1.777084e+03,2.150410e+03
1.778048e+03,2.144672e+03
1.779012e+03,2.142523e+03
1.779977e+03,2.146458e+03
1.780941e+03,2.145568e+03
1.781905e+03,2.139134e+03
1.782869e+03,2.138166e+03
1.783833e+03,2.150990e+03
1.784798e+03,2.160167e+03
1.785762e+03,2.150061e+03
1.786726e+03,2.138472e+03
1.787690e+03,2.134370e+03
1.788655e+03,2.134573e+03
1.789619e+03,2.132471e+03
1.790583e+03,2.129491e+03
1.791547e+03,2.128886e+03
1.792512e+03,2.130060e+03
1.793476e+03,2.127643e+03
1.794440e+03,2.116965e+03
1.795404e+03,2.114096e+03
1.796369e+03,2.119287e+03
1.797333e+03,2.125672e+03
1.798297e+03,2.130788e+03
1.799261e+03,2.133970e+03
1.800225e+03,2.133273e+03
1.801190e+03,2.130270e+03
1.802154e+03,2.127135e+03
1.803118e+03,2.122854e+03
1.804082e+03,2.113193e+03
1.805047e+03,2.102751e+03
1.806011e+03,2.102226e+03
1.806975e+03,2.111524e+03
1.807939e+03,2.117513e+03
1.808904e+03,2.117959e+03
1.809868e+03,2.114127e+03
1.810832e+03,2.106513e+03
1.811796e+03,2.099566e+03
1.812760e+03,2.095269e+03
1.813725e+03,2.093494e+03
1.814689e+03,2.097284e+03
1.815653e+03,2.100811e+03
1.816617e+03,2.099695e+03
1.817582e+03,2.095025e+03
1.818546e+03,2.086950e+03
1.819510e+03,2.078559e+03
1.820474e+03,2.079821e+03
1.821439e+03,2.092430e+03
1.822403e+03,2.094173e+03
1.823367e+03,2.080922e+03
1.824331e+03,2.071680e+03
1.825296e+03,2.068837e+03
1.826260e+03,2.067237e+03
1.827224e+03,2.065294e+03
1.828188e+03,2.064102e+03
1.829152e+03,2.062942e+03
1.830117e+03,2.061571e+03
1.831081e+03,2.060159e+03
1.832045e+03,2.057710e+03
1.833009e+03,2.051733e+03
1.833974e+03,2.046421e+03
1.834938e+03,2.047373e+03
1.835902e+03,2.055590e+03
1.836866e+03,2.060187e+03
1.837831e+03,2.060975e+03
1.838795e+03,2.057018e+03
1.839759e+03,2.048686e+03
1.840723e+03,2.044173e+03
1.841688e+03,2.052134e+03
1.842652e+03,2.059144e+03
1.843616e+03,2.059273e+03
1.844580e+03,2.056554e+03
1.845544e+03,2.057375e+03
1.846509e+03,2.058643e+03
1.847473e+03,2.053884e+03
1.848437e+03,2.044999e+03
1.849401e+03,2.033962e+03
1.850366e+03,2.021389e+03
1.851330e+03,2.017994e+03
1.852294e+03,2.023154e+03
1.853258e+03,2.025323e+03
1.854223e+03,2.021058e+03
1.855187e+03,2.018545e+03
1.856151e+03,2.023807e+03
1.857115e+03,2.024648e+03
1.858079e+03,2.017160e+03
1.859044e+03,2.008895e+03
1.860008e+03,2.009698e+03
1.860972e+03,2.013790e+03
1.861936e+03,2.016390e+03
1.862901e+03,2.017423e+03
1.863865e+03,2.015105e+03
1.864829e+03,2.009164e+03
1.865793e+03,2.010228e+03
1.866758e+03,2.016009e+03
1.867722e+03,2.016985e+03
1.868686e+03,2.008686e+03
1.869650e+03,2.005976e+03
1.870615e+03,2.010920e+03
1.871579e+03,2.009497e+03
1.872543e+03,1.998100e+03
1.873507e+03,1.990101e+03
1.874471e+03,2.001171e+03
1.875436e+03,2.007927e+03
1.876400e+03,1.997756e+03
1.877364e+03,1.984348e+03
1.878328e+03,1.985060e+03
1.879293e+03,1.992049e+03
1.880257e+03,1.989693e+03
1.881221e+03,1.981057e+03
1.882185e+03,1.973805e+03
1.883150e+03,1.968936e+03
1.884114e+03,1.966161e+03
1.885078e+03,1.964750e+03
1.886042e+03,1.963335e+03
1.887006e+03,1.961304e+03
1.887971e+03,1.960713e+03
1.888935e+03,1.966032e+03
1.889899e+03,1.965574e+03
1.890863e+03,1.953914e+03
1.891828e+03,1.943697e+03
1.892792e+03,1.954961e+03
1.893756e+03,1.966978e+03
1.894720e+03,1.964042e+03
1.895685e+03,1.955582e+03
1.896649e+03,1.946706e+03
1.897613e+03,1.938533e+03
1.898577e+03,1.940003e+03
1.899542e+03,1.947020e+03
1.900506e+03,1.949610e+03
1.901470e+03,1.945396e+03
1.902434e+03,1.944314e+03
1.903398e+03,1.946267e+03
1.904363e+03,1.946840e+03
1.905327e+03,1.945168e+03
1.906291e+03,1.942057e+03
1.907255e+03,1.931859e+03
1.908220e+03,1.928747e+03
1.909184e+03,1.937094e+03
1.910148e+03,1.945710e+03
1.911112e+03,1.944239e+03
1.912077e+03,1.939188e+03
1.913041e+03,1.934224e+03
1.914005e+03,1.929985e+03
1.914969e+03,1.927959e+03
1.915933e+03,1.926515e+03
1.916898e+03,1.917852e+03
1.917862e+03,1.906034e+03
1.918826e+03,1.898267e+03
1.919790e+03,1.896392e+03
1.920755e+03,1.898101e+03
1.921719e+03,1.902129e+03
1.922683e+03,1.904149e+03
1.923647e+03,1.903916e+03
1.924612e+03,1.903665e+03
1.925576e+03,1.903573e+03
1.926540e+03,1.905261e+03
1.927504e+03,1.908158e+03
1.928469e+03,1.910409e+03
1.929433e+03,1.912725e+03
1.930397e+03,1.910555e+03
1.931361e+03,1.893348e+03
1.932325e+03,1.878045e+03
1.933290e+03,1.881706e+03
1.934254e+03,1.896098e+03
1.935218e+03,1.897401e+03
1.936182e+03,1.890684e+03
1.937147e+03,1.887828e+03
1.938111e+03,1.889157e+03
1.939075e+03,1.881534e+03
1.940039e+03,1.867966e+03
1.941004e+03,1.862403e+03
1.941968e+03,1.865486e+03
1.942932e+03,1.871103e+03
1.943896e+03,1.881073e+03
1.944860e+03,1.885743e+03
1.945825e+03,1.884978e+03
1.946789e+03,1.880341e+03
1.947753e+03,1.866860e+03
1.948717e+03,1.856534e+03
1.949682e+03,1.855125e+03
1.950646e+03,1.855683e+03
1.951610e+03,1.854424e+03
1.952574e+03,1.852794e+03
1.953539e+03,1.852302e+03
1.954503e+03,1.853013e+03
1.955467e+03,1.856956e+03
1.956431e+03,1.861823e+03
1.957396e+03,1.859103e+03
1.958360e+03,1.851350e+03
1.959324e+03,1.845511e+03
1.960288e+03,1.842925e+03
1.961252e+03,1.841595e+03
1.962217e+03,1.840335e+03
1.963181e+03,1.839515e+03
1.964145e+03,1.838771e+03
1.965109e+03,1.837496e+03
1.966074e+03,1.834383e+03
1.967038e+03,1.835704e+03
1.968002e+03,1.841023e+03
1.968966e+03,1.843247e+03
1.969931e+03,1.838842e+03
1.970895e+03,1.831841e+03
1.971859e+03,1.824526e+03
1.972823e+03,1.820817e+03
1.973787e+03,1.822241e+03
1.974752e+03,1.824867e+03
1.975716e+03,1.822049e+03
1.976680e+03,1.818915e+03
1.977644e+03,1.825694e+03
1.978609e+03,1.835957e+03
1.979573e+03,1.837090e+03
1.980537e+03,1.830632e+03
1.981501e+03,1.820035e+03
1.982466e+03,1.808851e+03
1.983430e+03,1.807668e+03
1.984394e+03,1.818106e+03
1.985358e+03,1.818320e+03
1.986323e+03,1.810026e+03
1.987287e+03,1.806051e+03
1.988251e+03,1.811413e+03
1.989215e+03,1.811448e+03
1.990179e+03,1.803747e+03
1.991144e+03,1.798065e+03
1.992108e+03,1.797403e+03
1.993072e+03,1.798747e+03
1.994036e+03,1.802238e+03
1.995001e+03,1.801286e+03
1.995965e+03,1.792802e+03
1.996929e+03,1.785387e+03
1.997893e+03,1.788977e+03
1.998858e+03,1.793217e+03
1.999822e+03,1.786646e+03
2.000786e+03,1.778695e+03
2.001750e+03,1.780326e+03
2.002714e+03,1.787133e+03
2.003679e+03,1.783981e+03
2.004643e+03,1.776944e+03
2.005607e+03,1.778471e+03
2.006571e+03,1.786236e+03
2.007536e+03,1.788426e+03
2.008500e+03,1.785577e+03
2.009464e+03,1.776202e+03
2.010428e+03,1.761994e+03
2.011393e+03,1.755852e+03
2.012357e+03,1.758742e+03
2.013321e+03,1.760611e+03
2.014285e+03,1.759569e+03
2.015250e+03,1.758219e+03
2.016214e+03,1.758343e+03
2.017178e+03,1.757658e+03
2.018142e+03,1.756609e+03
2.019106e+03,1.753806e+03
2.020071e+03,1.746976e+03
2.021035e+03,1.741120e+03
2.021999e+03,1.738664e+03
2.022963e+03,1.736867e+03
2.023928e+03,1.735607e+03
2.024892e+03,1.734728e+03
2.025856e+03,1.733588e+03
2.026820e+03,1.732776e+03
2.027785e+03,1.731983e+03
2.028749e+03,1.731887e+03
2.029713e+03,1.736505e+03
2.030677e+03,1.741461e+03
2.031641e+03,1.738947e+03
2.032606e+03,1.732408e+03
2.033570e+03,1.728428e+03
2.034534e+03,1.725929e+03
2.035498e+03,1.720649e+03
2.036463e+03,1.714622e+03
2.037427e+03,1.712295e+03
2.038391e+03,1.714653e+03
2.039355e+03,1.717587e+03
2.040320e+03,1.721184e+03
2.041284e+03,1.725678e+03
2.042248e+03,1.730578e+03
2.043212e+03,1.726680e+03
2.044177e+03,1.713504e+03
2.045141e+03,1.705198e+03
2.046105e+03,1.703414e+03
2.047069e+03,1.702021e+03
2.048033e+03,1.696806e+03
2.048998e+03,1.691847e+03
2.049962e+03,1.687899e+03
2.050926e+03,1.686681e+03
2.051890e+03,1.692653e+03
2.052854e+03,1.695732e+03
2.053819e+03,1.690615e+03
2.054783e+03,1.686422e+03
2.055747e+03,1.690471e+03
2.056711e+03,1.695439e+03
2.057676e+03,1.692890e+03
2.058640e+03,1.689813e+03
2.059604e+03,1.688337e+03
2.060568e+03,1.687906e+03
2.061533e+03,1.692141e+03
2.062497e+03,1.694727e+03
2.063461e+03,1.686840e+03
2.064425e+03,1.675185e+03
2.065390e+03,1.667514e+03
2.066354e+03,1.663199e+03
2.067318e+03,1.662927e+03
2.068282e+03,1.665523e+03
2.069247e+03,1.668057e+03
2.070211e+03,1.669633e+03
2.071175e+03,1.667433e+03
2.072139e+03,1.662475e+03
2.073104e+03,1.654678e+03
2.074068e+03,1.644874e+03
2.075032e+03,1.648927e+03
2.075996e+03,1.662271e+03
2.076960e+03,1.667195e+03
2.077925e+03,1.660140e+03
2.078889e+03,1.653734e+03
2.079853e+03,1.648651e+03
2.080817e+03,1.654407e+03
2.081782e+03,1.670692e+03
2.082746e+03,1.675480e+03
2.083710e+03,1.656082e+03
2.084674e+03,1.640563e+03
2.085639e+03,1.631371e+03
2.086603e+03,1.627833e+03
2.087567e+03,1.628135e+03
2.088531e+03,1.631890e+03
2.089496e+03,1.638944e+03
2.090460e+03,1.643092e+03
2.091424e+03,1.644428e+03
2.092388e+03,1.643733e+03
2.093353e+03,1.636614e+03
2.094317e+03,1.634326e+03
2.095281e+03,1.640218e+03
2.096245e+03,1.644101e+03
2.097209e+03,1.630168e+03
2.098174e+03,1.620075e+03
2.099138e+03,1.625334e+03
2.100102e+03,1.633576e+03
2.101066e+03,1.629700e+03
2.102031e+03,1.623995e+03
2.102995e+03,1.628596e+03
2.103959e+03,1.633000e+03
2.104923e+03,1.627645e+03
2.105887e+03,1.618731e+03
2.106852e+03,1.610277e+03
2.107816e+03,1.604690e+03
2.108780e+03,1.607335e+03
2.109744e+03,1.612803e+03
2.110708e+03,1.607571e+03
2.111673e+03,1.598758e+03
2.112637e+03,1.595250e+03
2.113601e+03,1.594155e+03
2.114565e+03,1.590210e+03
2.115530e+03,1.584966e+03
2.116494e+03,1.580130e+03
2.117458e+03,1.579477e+03
2.118422e+03,1.588621e+03
2.119387e+03,1.602923e+03
2.120351e+03,1.600930e+03
2.121315e+03,1.586714e+03
2.122279e+03,1.580378e+03
2.123244e+03,1.583172e+03
2.124208e+03,1.579581e+03
2.125172e+03,1.572074e+03
2.126136e+03,1.566997e+03
2.127101e+03,1.566176e+03
2.128065e+03,1.566226e+03
2.129029e+03,1.566549e+03
2.129993e+03,1.564304e+03
2.130958e+03,1.557467e+03
2.131922e+03,1.556733e+03
2.132886e+03,1.563809e+03
2.133850e+03,1.568048e+03
2.134814e+03,1.569787e+03
2.135779e+03,1.570747e+03
2.136743e+03,1.571278e+03
2.137707e+03,1.566457e+03
2.138671e+03,1.556933e+03
2.139636e+03,1.548744e+03
2.140600e+03,1.545246e+03
2.141564e+03,1.542091e+03
2.142528e+03,1.539110e+03
2.143493e+03,1.539245e+03
2.144457e+03,1.545181e+03
2.145421e+03,1.542981e+03
2.146385e+03,1.526373e+03
2.147350e+03,1.517903e+03
2.148314e+03,1.525391e+03
2.149278e+03,1.534749e+03
2.150242e+03,1.535123e+03
2.151207e+03,1.534734e+03
2.152171e+03,1.534519e+03
2.153135e+03,1.532172e+03
2.154099e+03,1.526970e+03
2.155063e+03,1.521287e+03
2.156028e+03,1.514953e+03
2.156992e+03,1.514617e+03
2.157956e+03,1.531372e+03
2.158920e+03,1.539224e+03
2.159885e+03,1.519922e+03
2.160849e+03,1.506796e+03
2.161813e+03,1.519732e+03
2.162777e+03,1.533313e+03
2.163741e+03,1.521056e+03
2.164706e+03,1.511456e+03
2.165670e+03,1.517760e+03
2.166634e+03,1.527779e+03
2.167598e+03,1.527463e+03
2.168563e+03,1.524814e+03
2.169527e+03,1.521963e+03
2.170491e+03,1.519326e+03
2.171455e+03,1.521608e+03
2.172420e+03,1.522763e+03
2.173384e+03,1.519721e+03
2.174348e+03,1.512924e+03
2.175312e+03,1.495530e+03
2.176277e+03,1.481309e+03
2.177241e+03,1.492903e+03
2.178205e+03,1.503686e+03
2.179169e+03,1.495866e+03
2.180134e+03,1.483383e+03
2.181098e+03,1.481181e+03
2.182062e+03,1.485949e+03
2.183026e+03,1.495089e+03
2.183990e+03,1.503841e+03
2.184955e+03,1.506828e+03
2.185919e+03,1.504223e+03
2.186883e+03,1.493306e+03
2.187847e+03,1.480982e+03
2.188812e+03,1.477018e+03
2.189776e+03,1.476748e+03
2.190740e+03,1.477246e+03
2.191704e+03,1.474518e+03
2.192668e+03,1.461238e+03
2.193633e+03,1.447466e+03
2.194597e+03,1.450220e+03
2.195561e+03,1.457614e+03
2.196525e+03,1.457567e+03
2.197490e+03,1.454780e+03
2.198454e+03,1.459599e+03
2.199418e+03,1.463981e+03
2.200382e+03,1.460409e+03
2.201347e+03,1.454637e+03
2.202311e+03,1.453815e+03
2.203275e+03,1.456250e+03
2.204239e+03,1.460422e+03
2.205204e+03,1.463497e+03
2.206168e+03,1.464233e+03
2.207132e+03,1.463760e+03
2.208096e+03,1.462336e+03
2.209061e+03,1.458524e+03
2.210025e+03,1.450528e+03
2.210989e+03,1.441473e+03
2.211953e+03,1.436942e+03
2.212917e+03,1.436465e+03
2.213882e+03,1.434706e+03
2.214846e+03,1.432742e+03
2.215810e+03,1.438355e+03
2.216774e+03,1.441143e+03
2.217739e+03,1.433607e+03
2.218703e+03,1.422487e+03
2.219667e+03,1.416637e+03
2.220631e+03,1.415764e+03
2.221595e+03,1.420688e+03
2.222560e+03,1.426275e+03
2.223524e+03,1.425222e+03
2.224488e+03,1.421771e+03
2.225452e+03,1.422559e+03
2.226417e+03,1.423159e+03
2.227381e+03,1.414902e+03
2.228345e+03,1.407508e+03
2.229309e+03,1.416397e+03
2.230274e+03,1.427352e+03
2.231238e+03,1.429182e+03
2.232202e+03,1.424779e+03
2.233166e+03,1.416477e+03
2.234131e+03,1.409452e+03
2.235095e+03,1.407533e+03
2.236059e+03,1.406962e+03
2.237023e+03,1.399882e+03
2.237988e+03,1.393451e+03
2.238952e+03,1.392637e+03
2.239916e+03,1.393017e+03
2.240880e+03,1.390298e+03
2.241844e+03,1.387365e+03
2.242809e+03,1.386048e+03
2.243773e+03,1.385557e+03
2.244737e+03,1.384484e+03
2.245701e+03,1.382818e+03
2.246666e+03,1.378727e+03
2.247630e+03,1.376802e+03
2.248594e+03,1.384160e+03
2.249558e+03,1.392976e+03
2.250522e+03,1.395310e+03
2.251487e+03,1.394493e+03
2.252451e+03,1.390301e+03
2.253415e+03,1.382343e+03
2.254379e+03,1.366764e+03
2.255344e+03,1.358319e+03
2.256308e+03,1.364469e+03
2.257272e+03,1.372788e+03
2.258236e+03,1.371139e+03
2.259201e+03,1.367326e+03
2.260165e+03,1.362740e+03
2.261129e+03,1.360596e+03
2.262093e+03,1.367031e+03
2.263058e+03,1.369789e+03
2.264022e+03,1.365404e+03
2.264986e+03,1.365032e+03
2.265950e+03,1.382643e+03
2.266915e+03,1.389170e+03
2.267879e+03,1.373473e+03
2.268843e+03,1.356421e+03
2.269807e+03,1.347875e+03
2.270771e+03,1.343902e+03
2.271736e+03,1.343412e+03
2.272700e+03,1.347770e+03
2.273664e+03,1.357255e+03
2.274628e+03,1.360260e+03
2.275593e+03,1.348111e+03
2.276557e+03,1.338626e+03
2.277521e+03,1.335463e+03
2.278485e+03,1.334502e+03
2.279449e+03,1.332955e+03
2.280414e+03,1.336687e+03
2.281378e+03,1.345567e+03
2.282342e+03,1.351297e+03
2.283306e+03,1.347084e+03
2.284271e+03,1.341174e+03
2.285235e+03,1.333484e+03
2.286199e+03,1.326575e+03
2.287163e+03,1.323396e+03
2.288128e+03,1.322110e+03
2.289092e+03,1.321135e+03
2.290056e+03,1.316636e+03
2.291020e+03,1.308037e+03
2.291985e+03,1.307711e+03
2.292949e+03,1.315460e+03
2.293913e+03,1.318199e+03
2.294877e+03,1.314750e+03
2.295842e+03,1.316689e+03
2.296806e+03,1.322701e+03
2.297770e+03,1.326135e+03
2.298734e+03,1.325996e+03
2.299698e+03,1.321092e+03
2.300663e+03,1.313031e+03
2.301627e+03,1.309401e+03
2.302591e+03,1.308190e+03
2.303555e+03,1.304543e+03
2.304520e+03,1.300126e+03
2.305484e+03,1.304542e+03
2.306448e+03,1.312962e+03
2.307412e+03,1.317245e+03
2.308376e+03,1.316632e+03
2.309341e+03,1.306546e+03
2.310305e+03,1.295110e+03
2.311269e+03,1.295386e+03
2.312233e+03,1.301456e+03
2.313198e+03,1.304246e+03
2.314162e+03,1.303540e+03
2.315126e+03,1.297201e+03
2.316090e+03,1.291171e+03
2.317055e+03,1.295075e+03
2.318019e+03,1.299852e+03
2.318983e+03,1.295253e+03
2.319947e+03,1.288770e+03
2.320912e+03,1.287242e+03
2.321876e+03,1.286048e+03
2.322840e+03,1.278910e+03
2.323804e+03,1.274880e+03
2.324769e+03,1.279918e+03
2.325733e+03,1.286077e+03
2.326697e+03,1.287627e+03
2.327661e+03,1.286379e+03
2.328625e+03,1.280928e+03
2.329590e+03,1.276451e+03
2.330554e+03,1.278682e+03
2.331518e+03,1.280966e+03
2.332482e+03,1.282326e+03
2.333447e+03,1.280037e+03
2.334411e+03,1.269862e+03
2.335375e+03,1.262949e+03
2.336339e+03,1.259972e+03
2.337303e+03,1.259715e+03
2.338268e+03,1.262459e+03
2.339232e+03,1.263093e+03
2.340196e+03,1.262138e+03
2.341160e+03,1.260296e+03
2.342125e+03,1.257312e+03
2.343089e+03,1.258537e+03
2.344053e+03,1.261374e+03
2.345017e+03,1.263956e+03
2.345982e+03,1.265353e+03
2.346946e+03,1.254861e+03
2.347910e+03,1.239919e+03
2.348874e+03,1.240026e+03
2.349839e+03,1.249058e+03
2.350803e+03,1.246793e+03
2.351767e+03,1.240287e+03
2.352731e+03,1.244843e+03
2.353696e+03,1.253710e+03
2.354660e+03,1.254001e+03
2.355624e+03,1.249381e+03
2.356588e+03,1.245600e+03
2.357552e+03,1.242928e+03
2.358517e+03,1.241086e+03
2.359481e+03,1.240674e+03
2.360445e+03,1.243865e+03
2.361409e+03,1.244978e+03
2.362374e+03,1.240523e+03
2.363338e+03,1.234889e+03
2.364302e+03,1.235540e+03
2.365266e+03,1.234177e+03
2.366230e+03,1.226753e+03
2.367195e+03,1.220273e+03
2.368159e+03,1.217931e+03
2.369123e+03,1.221421e+03
2.370087e+03,1.232618e+03
2.371052e+03,1.235487e+03
2.372016e+03,1.216534e+03
2.372980e+03,1.209273e+03
2.373944e+03,1.213997e+03
2.374909e+03,1.217077e+03
2.375873e+03,1.213555e+03
2.376837e+03,1.216189e+03
2.377801e+03,1.222532e+03
2.378766e+03,1.217537e+03
2.379730e+03,1.200718e+03
2.380694e+03,1.198848e+03
2.381658e+03,1.207198e+03
2.382623e+03,1.212067e+03
2.383587e+03,1.213232e+03
2.384551e+03,1.214033e+03
2.385515e+03,1.213446e+03
2.386479e+03,1.210346e+03
2.387444e+03,1.206778e+03
2.388408e+03,1.206974e+03
2.389372e+03,1.207244e+03
2.390336e+03,1.202440e+03
2.391301e+03,1.195879e+03
2.392265e+03,1.187266e+03
2.393229e+03,1.182583e+03
2.394193e+03,1.187428e+03
2.395157e+03,1.191564e+03
2.396122e+03,1.188762e+03
2.397086e+03,1.184167e+03
2.398050e+03,1.179563e+03
2.399014e+03,1.177098e+03
2.399979e+03,1.177889e+03
2.400943e+03,1.178308e+03
2.401907e+03,1.177289e+03
2.402871e+03,1.175663e+03
2.403836e+03,1.174030e+03
2.404800e+03,1.175199e+03
2.405764e+03,1.178799e+03
2.406728e+03,1.185033e+03
2.407693e+03,1.191305e+03
2.408657e+03,1.187090e+03
2.409621e+03,1.176119e+03
2.410585e+03,1.174263e+03
2.411550e+03,1.178269e+03
2.412514e+03,1.176817e+03
2.413478e+03,1.172554e+03
2.414442e+03,1.173206e+03
2.415406e+03,1.175971e+03
2.416371e+03,1.178513e+03
2.417335e+03,1.178913e+03
2.418299e+03,1.169627e+03
2.419263e+03,1.163765e+03
2.420228e+03,1.169649e+03
2.421192e+03,1.175780e+03
2.422156e+03,1.172634e+03
2.423120e+03,1.164322e+03
2.424084e+03,1.149483e+03
2.425049e+03,1.139709e+03
2.426013e+03,1.145773e+03
2.426977e+03,1.149142e+03
2.427941e+03,1.149079e+03
2.428906e+03,1.148433e+03
2.429870e+03,1.146959e+03
2.430834e+03,1.147878e+03
2.431798e+03,1.150548e+03
2.432763e+03,1.148237e+03
2.433727e+03,1.141175e+03
2.434691e+03,1.143283e+03
2.435655e+03,1.149504e+03
2.436620e+03,1.150156e+03
2.437584e+03,1.145992e+03
2.438548e+03,1.136041e+03
2.439512e+03,1.127233e+03
2.440477e+03,1.125531e+03
2.441441e+03,1.127655e+03
2.442405e+03,1.133898e+03
2.443369e+03,1.138747e+03
2.444333e+03,1.140270e+03
2.445298e+03,1.140417e+03
2.446262e+03,1.140885e+03
2.447226e+03,1.137416e+03
2.448190e+03,1.129710e+03
2.449155e+03,1.126553e+03
2.450119e+03,1.138150e+03
2.451083e+03,1.146441e+03
2.452047e+03,1.150444e+03
2.453011e+03,1.145273e+03
2.453976e+03,1.129676e+03
2.454940e+03,1.122938e+03
2.455904e+03,1.123153e+03
2.456868e+03,1.122846e+03
2.457833e+03,1.120296e+03
2.458797e+03,1.112561e+03
2.459761e+03,1.104418e+03
2.460725e+03,1.100861e+03
2.461690e+03,1.101579e+03
2.462654e+03,1.111864e+03
2.463618e+03,1.118325e+03
2.464582e+03,1.112216e+03
2.465547e+03,1.106820e+03
2.466511e+03,1.116818e+03
2.467475e+03,1.120102e+03
2.468439e+03,1.111338e+03
2.469404e+03,1.104173e+03
2.470368e+03,1.112234e+03
2.471332e+03,1.111092e+03
2.472296e+03,1.100850e+03
2.473260e+03,1.098424e+03
2.474225e+03,1.109028e+03
2.475189e+03,1.109323e+03
2.476153e+03,1.103094e+03
2.477117e+03,1.096939e+03
2.478082e+03,1.092965e+03
2.479046e+03,1.099542e+03
2.480010e+03,1.109515e+03
2.480974e+03,1.115339e+03
2.481938e+03,1.116027e+03
2.482903e+03,1.104744e+03
2.483867e+03,1.095800e+03
2.484831e+03,1.097083e+03
2.485795e+03,1.098786e+03
2.486760e+03,1.091313e+03
2.487724e+03,1.089786e+03
2.488688e+03,1.097139e+03
2.489652e+03,1.099097e+03
2.490617e+03,1.081394e+03
2.491581e+03,1.076715e+03
2.492545e+03,1.083394e+03
2.493509e+03,1.087038e+03
2.494474e+03,1.085105e+03
2.495438e+03,1.087403e+03
2.496402e+03,1.091802e+03
2.497366e+03,1.095504e+03
2.498331e+03,1.096073e+03
2.499295e+03,1.083904e+03
2.500259e+03,1.071430e+03
2.501223e+03,1.071315e+03
2.502188e+03,1.074319e+03
2.503152e+03,1.071035e+03
2.504116e+03,1.066772e+03
2.505080e+03,1.063145e+03
2.506044e+03,1.061075e+03
2.507009e+03,1.060925e+03
2.507973e+03,1.062680e+03
2.508937e+03,1.066247e+03
2.509901e+03,1.063297e+03
2.510865e+03,1.050566e+03
2.511830e+03,1.055959e+03
2.512794e+03,1.070389e+03
2.513758e+03,1.067905e+03
2.514722e+03,1.056148e+03
2.515687e+03,1.056758e+03
2.516651e+03,1.060982e+03
2.517615e+03,1.058756e+03
2.518579e+03,1.055851e+03
2.519544e+03,1.061689e+03
2.520508e+03,1.066934e+03
2.521472e+03,1.069220e+03
2.522436e+03,1.064978e+03
2.523401e+03,1.043971e+03
2.524365e+03,1.032277e+03
2.525329e+03,1.030467e+03
2.526293e+03,1.033704e+03
2.527258e+03,1.041839e+03
2.528222e+03,1.047336e+03
2.529186e+03,1.049742e+03
2.530150e+03,1.046736e+03
2.531115e+03,1.042206e+03
2.532079e+03,1.051311e+03
2.533043e+03,1.058769e+03
2.534007e+03,1.046192e+03
2.534971e+03,1.030203e+03
2.535936e+03,1.036716e+03
2.536900e+03,1.042646e+03
2.537864e+03,1.039667e+03
2.538828e+03,1.035405e+03
2.539792e+03,1.031232e+03
2.540757e+03,1.030507e+03
2.541721e+03,1.033197e+03
2.542685e+03,1.030273e+03
2.543649e+03,1.022301e+03
2.544614e+03,1.018265e+03
2.545578e+03,1.019069e+03
2.546542e+03,1.028396e+03
2.547506e+03,1.041083e+03
2.548471e+03,1.043924e+03
2.549435e+03,1.041534e+03
2.550399e+03,1.036912e+03
2.551363e+03,1.032884e+03
2.552328e+03,1.031638e+03
2.553292e+03,1.036061e+03
2.554256e+03,1.050901e+03
2.555220e+03,1.050458e+03
2.556185e+03,1.030790e+03
2.557149e+03,1.019496e+03
2.558113e+03,1.021314e+03
2.559077e+03,1.022454e+03
2.560042e+03,1.022256e+03
2.561006e+03,1.024169e+03
2.561970e+03,1.027496e+03
2.562934e+03,1.026639e+03
2.563898e+03,1.024215e+03
2.564863e+03,1.022811e+03
2.565827e+03,1.020444e+03
2.566791e+03,1.015065e+03
2.567755e+03,1.015270e+03
2.568719e+03,1.022056e+03
2.569684e+03,1.022233e+03
2.570648e+03,1.006400e+03
2.571612e+03,1.003215e+03
2.572576e+03,1.011653e+03
2.573541e+03,1.015992e+03
2.574505e+03,1.014232e+03
2.575469e+03,1.013888e+03
2.576433e+03,1.013245e+03
2.577398e+03,1.011246e+03
2.578362e+03,1.007798e+03
2.579326e+03,9.977595e+02
2.580290e+03,9.959924e+02
2.581255e+03,1.008314e+03
2.582219e+03,1.020126e+03
2.583183e+03,1.023312e+03
2.584147e+03,1.018289e+03
2.585112e+03,1.007180e+03
2.586076e+03,9.965245e+02
2.587040e+03,9.873183e+02
2.588004e+03,9.910345e+02
2.588969e+03,9.983383e+02
2.589933e+03,9.887655e+02
2.590897e+03,9.736595e+02
2.591861e+03,9.786979e+02
2.592825e+03,9.872373e+02
2.593790e+03,9.874304e+02
2.594754e+03,9.887621e+02
2.595718e+03,1.000760e+03
2.596682e+03,1.004348e+03
2.597646e+03,9.947663e+02
2.598611e+03,9.834034e+02
2.599575e+03,9.734928e+02
2.600539e+03,9.680375e+02
2.601503e+03,9.675487e+02
2.602468e+03,9.727831e+02
2.603432e+03,9.795037e+02
2.604396e+03,9.793331e+02
2.605360e+03,9.781982e+02
2.606325e+03,9.807996e+02
2.607289e+03,9.834542e+02
2.608253e+03,9.857158e+02
2.609217e+03,9.819859e+02
2.610182e+03,9.647051e+02
2.611146e+03,9.530823e+02
2.612110e+03,9.482737e+02
2.613074e+03,9.489472e+02
2.614039e+03,9.538858e+02
2.615003e+03,9.547303e+02
2.615967e+03,9.539310e+02
2.616931e+03,9.574219e+02
2.617896e+03,9.634247e+02
2.618860e+03,9.743709e+02
2.619824e+03,9.756266e+02
2.620788e+03,9.610450e+02
2.621752e+03,9.504150e+02
2.622717e+03,9.586039e+02
2.623681e+03,9.610107e+02
2.624645e+03,9.571411e+02
2.625609e+03,9.567120e+02
2.626573e+03,9.594561e+02
2.627538e+03,9.569895e+02
2.628502e+03,9.517076e+02
2.629466e+03,9.459166e+02
2.630430e+03,9.406837e+02
2.631395e+03,9.340973e+02
2.632359e+03,9.363268e+02
2.633323e+03,9.562744e+02
2.634287e+03,9.627356e+02
2.635252e+03,9.501881e+02
2.636216e+03,9.394121e+02
2.637180e+03,9.343836e+02
2.638144e+03,9.393912e+02
2.639109e+03,9.481879e+02
2.640073e+03,9.412072e+02
2.641037e+03,9.324166e+02
2.642001e+03,9.462726e+02
2.642966e+03,9.538282e+02
2.643930e+03,9.370948e+02
2.644894e+03,9.226354e+02
2.645858e+03,9.343930e+02
2.646823e+03,9.355749e+02
2.647787e+03,9.251073e+02
2.648751e+03,9.212167e+02
2.649715e+03,9.252792e+02
2.650679e+03,9.220870e+02
2.651644e+03,9.199202e+02
2.652608e+03,9.347015e+02
2.653572e+03,9.487898e+02
2.654536e+03,9.259078e+02
2.655500e+03,9.125577e+02
2.656465e+03,9.279685e+02
2.657429e+03,9.402582e+02
2.658393e+03,9.382674e+02
2.659357e+03,9.301722e+02
2.660322e+03,9.196608e+02
2.661286e+03,9.156542e+02
2.662250e+03,9.174591e+02
2.663214e+03,9.282169e+02
2.664179e+03,9.372875e+02
2.665143e+03,9.311540e+02
2.666107e+03,9.194026e+02
2.667071e+03,9.061604e+02
2.668036e+03,8.993362e+02
2.669000e+03,9.052154e+02
2.669964e+03,9.106741e+02
2.670928e+03,9.147323e+02
2.671893e+03,9.169421e+02
2.672857e+03,9.183112e+02
2.673821e+03,9.221340e+02
2.674785e+03,9.224286e+02
2.675750e+03,9.121614e+02
2.676714e+03,9.032725e+02
2.677678e+03,9.135778e+02
2.678642e+03,9.185063e+02
2.679606e+03,9.128182e+02
2.680571e+03,9.073502e+02
2.681535e+03,9.041437e+02
2.682499e+03,9.046472e+02
2.683463e+03,9.066815e+02
2.684427e+03,9.032076e+02
2.685392e+03,8.992028e+02
2.686356e+03,9.057810e+02
2.687320e+03,9.106551e+02
2.688284e+03,9.005492e+02
2.689249e+03,9.010686e+02
2.690213e+03,9.165182e+02
2.691177e+03,9.204678e+02
2.692141e+03,9.038045e+02
2.693106e+03,8.963526e+02
2.694070e+03,8.968101e+02
2.695034e+03,9.051961e+02
2.695998e+03,9.119394e+02
2.696963e+03,8.911346e+02
2.697927e+03,8.810560e+02
2.698891e+03,9.013598e+02
2.699855e+03,9.135803e+02
2.700820e+03,8.962095e+02
2.701784e+03,8.919432e+02
2.702748e+03,9.017576e+02
2.703712e+03,9.024576e+02
2.704677e+03,8.961517e+02
2.705641e+03,8.920671e+02
2.706605e+03,8.934189e+02
2.707569e+03,9.097716e+02
2.708533e+03,9.152042e+02
2.709498e+03,8.966215e+02
2.710462e+03,8.810127e+02
2.711426e+03,8.821492e+02
2.712390e+03,8.862816e+02
2.713354e+03,8.916663e+02
2.714319e+03,8.948965e+02
2.715283e+03,8.938132e+02
2.716247e+03,8.761640e+02
2.717211e+03,8.614235e+02
2.718176e+03,8.623894e+02
2.719140e+03,8.717903e+02
2.720104e+03,8.898428e+02
2.721068e+03,8.941011e+02
2.722033e+03,8.825320e+02
2.722997e+03,8.733196e+02
2.723961e+03,8.672476e+02
2.724925e+03,8.618460e+02
2.725890e+03,8.584766e+02
2.726854e+03,8.555013e+02
2.727818e+03,8.629011e+02
2.728782e+03,8.875762e+02
2.729747e+03,8.981633e+02
2.730711e+03,8.666145e+02
2.731675e+03,8.584545e+02
2.732639e+03,8.701544e+02
2.733604e+03,8.808832e+02
2.734568e+03,8.868643e+02
2.735532e+03,8.797321e+02
2.736496e+03,8.702902e+02
2.737460e+03,8.677301e+02
2.738425e+03,8.646316e+02
2.739389e+03,8.542198e+02
2.740353e+03,8.539919e+02
2.741317e+03,8.662158e+02
2.742281e+03,8.702687e+02
2.743246e+03,8.678138e+02
2.744210e+03,8.650692e+02
2.745174e+03,8.605096e+02
2.746138e+03,8.474835e+02
2.747103e+03,8.462988e+02
2.748067e+03,8.648292e+02
2.749031e+03,8.798085e+02
2.749995e+03,8.787696e+02
2.750960e+03,8.715136e+02
2.751924e+03,8.610886e+02
2.752888e+03,8.572239e+02
2.753852e+03,8.568215e+02
2.754817e+03,8.517410e+02
2.755781e+03,8.503499e+02
2.756745e+03,8.585123e+02
2.757709e+03,8.641729e+02
2.758674e+03,8.629271e+02
2.759638e+03,8.559008e+02
2.760602e+03,8.447596e+02
2.761566e+03,8.429563e+02
2.762531e+03,8.473320e+02
2.763495e+03,8.518110e+02
2.764459e+03,8.548576e+02
2.765423e+03,8.545654e+02
2.766387e+03,8.564489e+02
2.767352e+03,8.620385e+02
2.768316e+03,8.593660e+02
2.769280e+03,8.464470e+02
2.770244e+03,8.508259e+02
2.771208e+03,8.636257e+02
2.772173e+03,8.654113e+02
2.773137e+03,8.591862e+02
2.774101e+03,8.460327e+02
2.775065e+03,8.381463e+02
2.776030e+03,8.412432e+02
2.776994e+03,8.446297e+02
2.777958e+03,8.463380e+02
2.778922e+03,8.486155e+02
2.779887e+03,8.490385e+02
2.780851e+03,8.314542e+02
2.781815e+03,8.210070e+02
2.782779e+03,8.360299e+02
2.783744e+03,8.506077e+02
2.784708e+03,8.477059e+02
2.785672e+03,8.402656e+02
2.786636e+03,8.306211e+02
2.787601e+03,8.265921e+02
2.788565e+03,8.281684e+02
2.789529e+03,8.375486e+02
2.790493e+03,8.461381e+02
2.791458e+03,8.454946e+02
2.792422e+03,8.405194e+02
2.793386e+03,8.340203e+02
2.794350e+03,8.297708e+02
2.795314e+03,8.281143e+02
2.796279e+03,8.233287e+02
2.797243e+03,8.203983e+02
2.798207e+03,8.302426e+02
2.799171e+03,8.408486e+02
2.800135e+03,8.332289e+02
2.801100e+03,8.292659e+02
2.802064e+03,8.349235e+02
2.803028e+03,8.280516e+02
2.803992e+03,8.116926e+02
2.804957e+03,8.145972e+02
2.805921e+03,8.261536e+02
2.806885e+03,8.197777e+02
2.807849e+03,8.190381e+02
2.808814e+03,8.356487e+02
2.809778e+03,8.479854e+02
2.810742e+03,8.457473e+02
2.811706e+03,8.393993e+02
2.812671e+03,8.292921e+02
2.813635e+03,8.166959e+02
2.814599e+03,8.064118e+02
2.815563e+03,8.154899e+02
2.816528e+03,8.183613e+02
2.817492e+03,7.981838e+02
2.818456e+03,7.869454e+02
2.819420e+03,7.873759e+02
2.820385e+03,7.967712e+02
2.821349e+03,8.100947e+02
2.822313e+03,8.070287e+02
2.823277e+03,8.029971e+02
2.824241e+03,8.107161e+02
2.825206e+03,8.154700e+02
2.826170e+03,8.069545e+02
2.827134e+03,8.099189e+02
2.828098e+03,8.234564e+02
2.829063e+03,8.235016e+02
2.830027e+03,8.148963e+02
2.830991e+03,8.076687e+02
2.831955e+03,8.038264e+02
2.832919e+03,8.032576e+02
2.833884e+03,8.077675e+02
2.834848e+03,8.161188e+02
2.835812e+03,8.154459e+02
2.836776e+03,8.068705e+02
2.837741e+03,8.056087e+02
2.838705e+03,8.086784e+02
2.839669e+03,8.132883e+02
2.840633e+03,8.153412e+02
2.841598e+03,8.128897e+02
2.842562e+03,8.077884e+02
2.843526e+03,8.012540e+02
2.844490e+03,8.002641e+02
2.845455e+03,8.040880e+02
2.846419e+03,8.150867e+02
2.847383e+03,8.235048e+02
2.848347e+03,8.125096e+02
2.849312e+03,8.082157e+02
2.850276e+03,8.149022e+02
2.851240e+03,8.239904e+02
2.852204e+03,8.307573e+02
2.853168e+03,8.167281e+02
2.854133e+03,7.991282e+02
2.855097e+03,8.049999e+02
2.856061e+03,8.060333e+02
2.857025e+03,7.921116e+02
2.857990e+03,7.900574e+02
2.858954e+03,8.086060e+02
2.859918e+03,8.126739e+02
2.860882e+03,8.086426e+02
2.861846e+03,8.086812e+02
2.862811e+03,8.059957e+02
2.863775e+03,7.907574e+02
2.864739e+03,7.823912e+02
2.865703e+03,7.867470e+02
2.866668e+03,8.016091e+02
2.867632e+03,8.195832e+02
2.868596e+03,8.207129e+02
2.869560e+03,8.154100e+02
2.870525e+03,8.159199e+02
2.871489e+03,8.155904e+02
2.872453e+03,8.123506e+02
2.873417e+03,8.127054e+02
2.874382e+03,8.159734e+02
2.875346e+03,8.185055e+02
2.876310e+03,8.188793e+02
2.877274e+03,8.119864e+02
2.878239e+03,8.043565e+02
2.879203e+03,7.978210e+02
2.880167e+03,7.971823e+02
2.881131e+03,8.053318e+02
2.882095e+03,8.041743e+02
2.883060e+03,8.006246e+02
2.884024e+03,8.058983e+02
2.884988e+03,8.111725e+02
2.885952e+03,8.059836e+02
2.886917e+03,8.100677e+02
2.887881e+03,8.296129e+02
2.888845e+03,8.403315e+02
2.889809e+03,8.408179e+02
2.890773e+03,8.232493e+02
2.891738e+03,8.071689e+02
2.892702e+03,8.244454e+02
2.893666e+03,8.301163e+02
2.894630e+03,8.167936e+02
2.895595e+03,8.093452e+02
2.896559e+03,8.082064e+02
2.897523e+03,8.023583e+02
2.898487e+03,7.997755e+02
2.899452e+03,8.165204e+02
2.900416e+03,8.223499e+02
2.901380e+03,8.115233e+02
2.902344e+03,8.005629e+02
2.903309e+03,7.936955e+02
2.904273e+03,8.048909e+02
2.905237e+03,8.156807e+02
2.906201e+03,8.046160e+02
2.907166e+03,7.950848e+02
2.908130e+03,7.973054e+02
2.909094e+03,8.035419e+02
2.910058e+03,8.098052e+02
2.911022e+03,7.926607e+02
2.911987e+03,7.738163e+02
2.912951e+03,7.774509e+02
2.913915e+03,7.825001e+02
2.914879e+03,7.719161e+02
2.915844e+03,7.680720e+02
2.916808e+03,7.747571e+02
2.917772e+03,7.979813e+02
2.918736e+03,8.188469e+02
2.919700e+03,8.059511e+02
2.920665e+03,7.849710e+02
2.921629e+03,7.634561e+02
2.922593e+03,7.640853e+02
2.923557e+03,7.818978e+02
2.924522e+03,7.864884e+02
2.925486e+03,7.833336e+02
2.926450e+03,7.890433e+02
2.927414e+03,7.916172e+02
2.928379e+03,7.837510e+02
2.929343e+03,7.797498e+02
2.930307e+03,7.799545e+02
2.931271e+03,7.811469e+02
2.932236e+03,7.814261e+02
2.933200e+03,7.750429e+02
2.934164e+03,7.675279e+02
2.935128e+03,7.599908e+02
2.936093e+03,7.592907e+02
2.937057e+03,7.642549e+02
2.938021e+03,7.601129e+02
2.938985e+03,7.535829e+02
2.939949e+03,7.560090e+02
2.940914e+03,7.580698e+02
2.941878e+03,7.567790e+02
2.942842e+03,7.576475e+02
2.943806e+03,7.603190e+02
2.944771e+03,7.617575e+02
2.945735e+03,7.640547e+02
2.946699e+03,7.734324e+02
2.947663e+03,7.741795e+02
2.948627e+03,7.613456e+02
2.949592e+03,7.545795e+02
2.950556e+03,7.580714e+02
2.951520e+03,7.664589e+02
2.952484e+03,7.732712e+02
2.953449e+03,7.725414e+02
2.954413e+03,7.726515e+02
2.955377e+03,7.781832e+02
2.956341e+03,7.768121e+02
2.957306e+03,7.705114e+02
2.958270e+03,7.842993e+02
2.959234e+03,7.956039e+02
2.960198e+03,7.887634e+02
2.961163e+03,7.761920e+02
2.962127e+03,7.605738e+02
2.963091e+03,7.543154e+02
2.964055e+03,7.545858e+02
2.965020e+03,7.529231e+02
2.965984e+03,7.469034e+02
2.966948e+03,7.318210e+02
2.967912e+03,7.322900e+02
2.968876e+03,7.670385e+02
2.969841e+03,7.618229e+02
2.970805e+03,7.373409e+02
2.971769e+03,7.371101e+02
2.972733e+03,7.454641e+02
2.973698e+03,7.517875e+02
2.974662e+03,7.484420e+02
2.975626e+03,7.327590e+02
2.976590e+03,7.282487e+02
2.977554e+03,7.308497e+02
2.978519e+03,7.335902e+02
2.979483e+03,7.361067e+02
2.980447e+03,7.393925e+02
2.981411e+03,7.397921e+02
2.982376e+03,7.377738e+02
2.983340e+03,7.386085e+02
2.984304e+03,7.415477e+02
2.985268e+03,7.479594e+02
2.986233e+03,7.421794e+02
2.987197e+03,7.084549e+02
2.988161e+03,7.092764e+02
2.989125e+03,7.351907e+02
2.990090e+03,7.466434e+02
2.991054e+03,7.412494e+02
2.992018e+03,7.163242e+02
2.992982e+03,6.973166e+02
2.993947e+03,6.948318e+02
2.994911e+03,7.162307e+02
2.995875e+03,7.372452e+02
2.996839e+03,7.117856e+02
2.997803e+03,6.943668e+02
2.998768e+03,7.227449e+02
2.999732e+03,7.370573e+02
3.000696e+03,7.267269e+02
3.001660e+03,7.109825e+02
3.002625e+03,7.013929e+02
3.003589e+03,7.094786e+02
3.004553e+03,7.189698e+02
3.005517e+03,7.230027e+02
3.006481e+03,7.222390e+02
3.007446e+03,7.168179e+02
3.008410e+03,7.098950e+02
3.009374e+03,7.068396e+02
3.010338e+03,7.118525e+02
3.011303e+03,7.082016e+02
3.012267e+03,6.890850e+02
3.013231e+03,6.978451e+02
3.014195e+03,7.131002e+02
3.015160e+03,6.921296e+02
3.016124e+03,6.745939e+02
3.017088e+03,6.739034e+02
3.018052e+03,6.769881e+02
3.019017e+03,6.815742e+02
3.019981e+03,7.091160e+02
3.020945e+03,7.258174e+02
3.021909e+03,6.986936e+02
3.022874e+03,6.831008e+02
3.023838e+03,6.892786e+02
3.024802e+03,7.028991e+02
3.025766e+03,7.160042e+02
3.026730e+03,7.121384e+02
3.027695e+03,7.054344e+02
3.028659e+03,7.025848e+02
3.029623e+03,6.997903e+02
3.030587e+03,6.974016e+02
3.031552e+03,7.038382e+02
3.032516e+03,7.111279e+02
3.033480e+03,7.125400e+02
3.034444e+03,7.088091e+02
3.035408e+03,7.017501e+02
3.036373e+03,7.022916e+02
3.037337e+03,7.056257e+02
3.038301e+03,6.940554e+02
3.039265e+03,6.845859e+02
3.040230e+03,6.858394e+02
3.041194e+03,7.004293e+02
3.042158e+03,7.166423e+02
3.043122e+03,6.925944e+02
3.044087e+03,6.625029e+02
3.045051e+03,6.745409e+02
3.046015e+03,6.911643e+02
3.046979e+03,7.038858e+02
3.047944e+03,6.976331e+02
3.048908e+03,6.874103e+02
3.049872e+03,6.976313e+02
3.050836e+03,7.007558e+02
3.051801e+03,6.725997e+02
3.052765e+03,6.836465e+02
3.053729e+03,7.253327e+02
3.054693e+03,7.065566e+02
3.055657e+03,6.865986e+02
3.056622e+03,7.073142e+02
3.057586e+03,7.195565e+02
3.058550e+03,7.085468e+02
3.059514e+03,6.883547e+02
3.060479e+03,6.714579e+02
3.061443e+03,6.769097e+02
3.062407e+03,6.848864e+02
3.063371e+03,6.890590e+02
3.064335e+03,7.044597e+02
3.065300e+03,7.256271e+02
3.066264e+03,7.220289e+02
3.067228e+03,7.031632e+02
3.068192e+03,6.666153e+02
3.069157e+03,6.654447e+02
3.070121e+03,6.916526e+02
3.071085e+03,6.933177e+02
3.072049e+03,6.836970e+02
3.073014e+03,6.819733e+02
3.073978e+03,6.817833e+02
3.074942e+03,6.820039e+02
3.075906e+03,6.873890e+02
3.076871e+03,6.921484e+02
3.077835e+03,6.863187e+02
3.078799e+03,6.806066e+02
3.079763e+03,6.814871e+02
3.080728e+03,6.858536e+02
3.081692e+03,6.907968e+02
3.082656e+03,6.880187e+02
3.083620e+03,6.768900e+02
3.084584e+03,6.580327e+02
3.085549e+03,6.568326e+02
3.086513e+03,6.773044e+02
3.087477e+03,6.831414e+02
3.088441e+03,6.841985e+02
3.089406e+03,6.951763e+02
3.090370e+03,6.957519e+02
3.091334e+03,6.852576e+02
3.092298e+03,6.775476e+02
3.093262e+03,6.745593e+02
3.094227e+03,6.877963e+02
3.095191e+03,6.842504e+02
3.096155e+03,6.500120e+02
3.097119e+03,6.362762e+02
3.098084e+03,6.433404e+02
3.099048e+03,6.687260e+02
3.100012e+03,6.805134e+02
3.100976e+03,6.471254e+02
3.101941e+03,6.350033e+02
3.102905e+03,6.494662e+02
3.103869e+03,6.702138e+02
3.104833e+03,6.837249e+02
3.105798e+03,6.831830e+02
3.106762e+03,6.837904e+02
3.107726e+03,6.893018e+02
3.108690e+03,6.807850e+02
3.109655e+03,6.730130e+02
3.110619e+03,6.967980e+02
3.111583e+03,6.869391e+02
3.112547e+03,6.453910e+02
3.113511e+03,6.521805e+02
3.114476e+03,6.834767e+02
3.115440e+03,6.844255e+02
3.116404e+03,6.815303e+02
3.117368e+03,6.840234e+02
3.118333e+03,6.854304e+02
3.119297e+03,6.799217e+02
3.120261e+03,6.546183e+02
3.121225e+03,6.486260e+02
3.122189e+03,6.836805e+02
3.123154e+03,6.909310e+02
3.124118e+03,6.738820e+02
3.125082e+03,6.831624e+02
3.126046e+03,6.868392e+02
3.127011e+03,6.687650e+02
3.127975e+03,6.681864e+02
3.128939e+03,6.830310e+02
3.129903e+03,6.882377e+02
3.130868e+03,6.869622e+02
3.131832e+03,6.752849e+02
3.132796e+03,6.743322e+02
3.133760e+03,6.806073e+02
3.134725e+03,6.651843e+02
3.135689e+03,6.548904e+02
3.136653e+03,6.764976e+02
3.137617e+03,6.906715e+02
3.138582e+03,6.862820e+02
3.139546e+03,6.875757e+02
3.140510e+03,6.900255e+02
3.141474e+03,6.917967e+02
3.142438e+03,6.869310e+02
3.143403e+03,6.757450e+02
3.144367e+03,6.538164e+02
3.145331e+03,6.370870e+02
3.146295e+03,6.633767e+02
3.147260e+03,6.862874e+02
3.148224e+03,6.923952e+02
3.149188e+03,6.947673e+02
3.150152e+03,6.850040e+02
3.151116e+03,6.475662e+02
3.152081e+03,6.365760e+02
3.153045e+03,6.740918e+02
3.154009e+03,6.910040e+02
3.154973e+03,6.902910e+02
3.155938e+03,6.862679e+02
3.156902e+03,6.705533e+02
3.157866e+03,6.434496e+02
3.158830e+03,6.366613e+02
3.159795e+03,6.513624e+02
3.160759e+03,7.035169e+02
3.161723e+03,7.268184e+02
3.162687e+03,6.579473e+02
3.163652e+03,6.347092e+02
3.164616e+03,6.481478e+02
3.165580e+03,6.770231e+02
3.166544e+03,6.850056e+02
3.167509e+03,6.617657e+02
3.168473e+03,6.536129e+02
3.169437e+03,6.622537e+02
3.170401e+03,6.857427e+02
3.171365e+03,6.960451e+02
3.172330e+03,6.805629e+02
3.173294e+03,6.654171e+02
3.174258e+03,6.557225e+02
3.175222e+03,6.530740e+02
3.176187e+03,6.631124e+02
3.177151e+03,6.941561e+02
3.178115e+03,7.120598e+02
3.179079e+03,7.145787e+02
3.180043e+03,7.049580e+02
3.181008e+03,6.848759e+02
3.181972e+03,6.587437e+02
3.182936e+03,6.650709e+02
3.183900e+03,6.892062e+02
3.184865e+03,6.824656e+02
3.185829e+03,6.754187e+02
3.186793e+03,6.965646e+02
3.187757e+03,6.848344e+02
3.188722e+03,6.596786e+02
3.189686e+03,6.647576e+02
3.190650e+03,6.810814e+02
3.191614e+03,6.976328e+02
3.192579e+03,6.989879e+02
3.193543e+03,6.909554e+02
3.194507e+03,6.957322e+02
3.195471e+03,6.931557e+02
3.196436e+03,6.727086e+02
3.197400e+03,6.629301e+02
3.198364e+03,6.644918e+02
3.199328e+03,6.769841e+02
3.200292e+03,6.836238e+02
3.201257e+03,0.000000e+00
3.202221e+03,0.000000e+00
3.203185e+03,0.000000e+00
3.204149e+03,0.000000e+00
3.205114e+03,0.000000e+00
3.206078e+03,0.000000e+00
3.207042e+03,0.000000e+00
3.208006e+03,0.000000e+00
3.208970e+03,0.000000e+00
3.209935e+03,0.000000e+00
3.210899e+03,0.000000e+00
3.211863e+03,0.000000e+00
3.212827e+03,0.000000e+00
3.213792e+03,0.000000e+00
3.214756e+03,0.000000e+00
3.215720e+03,0.000000e+00
3.216684e+03,0.000000e+00
3.217649e+03,0.000000e+00
3.218613e+03,0.000000e+00
3.219577e+03,0.000000e+00
3.220541e+03,0.000000e+00
3.221506e+03,0.000000e+00
3.222470e+03,0.000000e+00
3.223434e+03,0.000000e+00
3.224398e+03,0.000000e+00
3.225363e+03,0.000000e+00
3.226327e+03,0.000000e+00
3.227291e+03,0.000000e+00
3.228255e+03,0.000000e+00
3.229219e+03,0.000000e+00
3.230184e+03,0.000000e+00
3.231148e+03,0.000000e+00
3.232112e+03,0.000000e+00
3.233076e+03,0.000000e+00
3.234041e+03,0.000000e+00
3.235005e+03,0.000000e+00
3.235969e+03,0.000000e+00
3.236933e+03,0.000000e+00
3.237897e+03,0.000000e+00
3.238862e+03,0.000000e+00
3.239826e+03,0.000000e+00
3.240790e+03,0.000000e+00
3.241754e+03,0.000000e+00
3.242719e+03,0.000000e+00
3.243683e+03,0.000000e+00
3.244647e+03,0.000000e+00
3.245611e+03,0.000000e+00
3.246576e+03,0.000000e+00
3.247540e+03,0.000000e+00
3.248504e+03,0.000000e+00
3.249468e+03,0.000000e+00
3.250433e+03,0.000000e+00
3.251397e+03,0.000000e+00
3.252361e+03,0.000000e+00
3.253325e+03,0.000000e+00
3.254290e+03,0.000000e+00
3.255254e+03,0.000000e+00
3.256218e+03,0.000000e+00
3.257182e+03,0.000000e+00
3.258146e+03,0.000000e+00
3.259111e+03,0.000000e+00
3.260075e+03,0.000000e+00
3.261039e+03,0.000000e+00
3.262003e+03,0.000000e+00
3.262968e+03,0.000000e+00
3.263932e+03,0.000000e+00
3.264896e+03,0.000000e+00
3.265860e+03,0.000000e+00
3.266824e+03,0.000000e+00
3.267789e+03,0.000000e+00
3.268753e+03,0.000000e+00
3.269717e+03,0.000000e+00
3.270681e+03,0.000000e+00
3.271646e+03,0.000000e+00
3.272610e+03,0.000000e+00
3.273574e+03,0.000000e+00
3.274538e+03,0.000000e+00
3.275503e+03,0.000000e+00
3.276467e+03,0.000000e+00
3.277431e+03,0.000000e+00
3.278395e+03,0.000000e+00
3.279360e+03,0.000000e+00
3.280324e+03,0.000000e+00
3.281288e+03,0.000000e+00
3.282252e+03,0.000000e+00
3.283217e+03,0.000000e+00
3.284181e+03,0.000000e+00
3.285145e+03,0.000000e+00
3.286109e+03,0.000000e+00
3.287073e+03,0.000000e+00
3.288038e+03,0.000000e+00
3.289002e+03,0.000000e+00
3.289966e+03,0.000000e+00
3.290930e+03,0.000000e+00
3.291895e+03,0.000000e+00
3.292859e+03,0.000000e+00
3.293823e+03,0.000000e+00
3.294787e+03,0.000000e+00
3.295751e+03,0.000000e+00
3.296716e+03,0.000000e+00
3.297680e+03,0.000000e+00
3.298644e+03,0.000000e+00
3.299608e+03,0.000000e+00
3.300573e+03,0.000000e+00
3.301537e+03,0.000000e+00
3.302501e+03,0.000000e+00
3.303465e+03,0.000000e+00
3.304430e+03,0.000000e+00
3.305394e+03,0.000000e+00
3.306358e+03,0.000000e+00
3.307322e+03,0.000000e+00
3.308287e+03,0.000000e+00
3.309251e+03,0.000000e+00
3.310215e+03,0.000000e+00
3.311179e+03,0.000000e+00
3.312144e+03,0.000000e+00
3.313108e+03,0.000000e+00
3.314072e+03,0.000000e+00
3.315036e+03,0.000000e+00
3.316000e+03,0.000000e+00
3.316965e+03,0.000000e+00
3.317929e+03,0.000000e+00
3.318893e+03,0.000000e+00
3.319857e+03,0.000000e+00
3.320822e+03,0.000000e+00
3.321786e+03,0.000000e+00
3.322750e+03,0.000000e+00
3.323714e+03,0.000000e+00
3.324678e+03,0.000000e+00
3.325643e+03,0.000000e+00
3.326607e+03,0.000000e+00
3.327571e+03,0.000000e+00
3.328535e+03,0.000000e+00
3.329500e+03,0.000000e+00
3.330464e+03,0.000000e+00
3.331428e+03,0.000000e+00
3.332392e+03,0.000000e+00
3.333357e+03,0.000000e+00
3.334321e+03,0.000000e+00
3.335285e+03,0.000000e+00
3.336249e+03,0.000000e+00
3.337214e+03,0.000000e+00
3.338178e+03,0.000000e+00
3.339142e+03,0.000000e+00
3.340106e+03,0.000000e+00
3.341071e+03,0.000000e+00
3.342035e+03,0.000000e+00
3.342999e+03,0.000000e+00
3.343963e+03,0.000000e+00
3.344927e+03,0.000000e+00
3.345892e+03,0.000000e+00
3.346856e+03,0.000000e+00
3.347820e+03,0.000000e+00
3.348784e+03,0.000000e+00
3.349749e+03,0.000000e+00
3.350713e+03,0.000000e+00
3.351677e+03,0.000000e+00
3.352641e+03,0.000000e+00
3.353605e+03,0.000000e+00
3.354570e+03,0.000000e+00
3.355534e+03,0.000000e+00
3.356498e+03,0.000000e+00
3.357462e+03,0.000000e+00
3.358427e+03,0.000000e+00
3.359391e+03,0.000000e+00
3.360355e+03,0.000000e+00
3.361319e+03,0.000000e+00
3.362284e+03,0.000000e+00
3.363248e+03,0.000000e+00
3.364212e+03,0.000000e+00
3.365176e+03,0.000000e+00
3.366141e+03,0.000000e+00
3.367105e+03,0.000000e+00
3.368069e+03,0.000000e+00
3.369033e+03,0.000000e+00
3.369998e+03,0.000000e+00
3.370962e+03,0.000000e+00
3.371926e+03,0.000000e+00
3.372890e+03,0.000000e+00
3.373854e+03,0.000000e+00
3.374819e+03,0.000000e+00
3.375783e+03,0.000000e+00
3.376747e+03,0.000000e+00
3.377711e+03,0.000000e+00
3.378676e+03,0.000000e+00
3.379640e+03,0.000000e+00
3.380604e+03,0.000000e+00
3.381568e+03,0.000000e+00
3.382532e+03,0.000000e+00
3.383497e+03,0.000000e+00
3.384461e+03,0.000000e+00
3.385425e+03,0.000000e+00
3.386389e+03,0.000000e+00
3.387354e+03,0.000000e+00
3.388318e+03,0.000000e+00
3.389282e+03,0.000000e+00
3.390246e+03,0.000000e+00
3.391211e+03,0.000000e+00
3.392175e+03,0.000000e+00
3.393139e+03,0.000000e+00
3.394103e+03,0.000000e+00
3.395068e+03,0.000000e+00
3.396032e+03,0.000000e+00
3.396996e+03,0.000000e+00
3.397960e+03,0.000000e+00
3.398925e+03,0.000000e+00
3.399889e+03,0.000000e+00
3.400853e+03,0.000000e+00
3.401817e+03,0.000000e+00
3.402781e+03,0.000000e+00
3.403746e+03,0.000000e+00
3.404710e+03,0.000000e+00
3.405674e+03,0.000000e+00
3.406638e+03,0.000000e+00
3.407603e+03,0.000000e+00
3.408567e+03,0.000000e+00
3.409531e+03,0.000000e+00
3.410495e+03,0.000000e+00
3.411459e+03,0.000000e+00
3.412424e+03,0.000000e+00
3.413388e+03,0.000000e+00
3.414352e+03,0.000000e+00
3.415316e+03,0.000000e+00
3.416281e+03,0.000000e+00
3.417245e+03,0.000000e+00
3.418209e+03,0.000000e+00
3.419173e+03,0.000000e+00
3.420138e+03,0.000000e+00
3.421102e+03,0.000000e+00
3.422066e+03,0.000000e+00
3.423030e+03,0.000000e+00
3.423995e+03,0.000000e+00
3.424959e+03,0.000000e+00
3.425923e+03,0.000000e+00
3.426887e+03,0.000000e+00
3.427852e+03,0.000000e+00
3.428816e+03,0.000000e+00
3.429780e+03,0.000000e+00
3.430744e+03,0.000000e+00
3.431708e+03,0.000000e+00
3.432673e+03,0.000000e+00
3.433637e+03,0.000000e+00
3.434601e+03,0.000000e+00
3.435565e+03,0.000000e+00
3.436530e+03,0.000000e+00
3.437494e+03,0.000000e+00
3.438458e+03,0.000000e+00
3.439422e+03,0.000000e+00
3.440386e+03,0.000000e+00
3.441351e+03,0.000000e+00
3.442315e+03,0.000000e+00
3.443279e+03,0.000000e+00
3.444243e+03,0.000000e+00
3.445208e+03,0.000000e+00
3.446172e+03,0.000000e+00
3.447136e+03,0.000000e+00
3.448100e+03,0.000000e+00
3.449065e+03,0.000000e+00
3.450029e+03,0.000000e+00
3.450993e+03,0.000000e+00
3.451957e+03,0.000000e+00
3.452922e+03,0.000000e+00
3.453886e+03,0.000000e+00
3.454850e+03,0.000000e+00
3.455814e+03,0.000000e+00
3.456779e+03,0.000000e+00
3.457743e+03,0.000000e+00
3.458707e+03,0.000000e+00
3.459671e+03,0.000000e+00
3.460635e+03,0.000000e+00
3.461600e+03,0.000000e+00
3.462564e+03,0.000000e+00
3.463528e+03,0.000000e+00
3.464492e+03,0.000000e+00
3.465457e+03,0.000000e+00
3.466421e+03,0.000000e+00
3.467385e+03,0.000000e+00
3.468349e+03,0.000000e+00
3.469313e+03,0.000000e+00
3.470278e+03,0.000000e+00
3.471242e+03,0.000000e+00
3.472206e+03,0.000000e+00
3.473170e+03,0.000000e+00
3.474135e+03,0.000000e+00
3.475099e+03,0.000000e+00
3.476063e+03,0.000000e+00
3.477027e+03,0.000000e+00
3.477992e+03,0.000000e+00
3.478956e+03,0.000000e+00
3.479920e+03,0.000000e+00
3.480884e+03,0.000000e+00
3.481849e+03,0.000000e+00
3.482813e+03,0.000000e+00
3.483777e+03,0.000000e+00
3.484741e+03,0.000000e+00
3.485706e+03,0.000000e+00
3.486670e+03,0.000000e+00
3.487634e+03,0.000000e+00
3.488598e+03,0.000000e+00
3.489563e+03,0.000000e+00
3.490527e+03,0.000000e+00
3.491491e+03,0.000000e+00
3.492455e+03,0.000000e+00
3.493419e+03,0.000000e+00
3.494384e+03,0.000000e+00
3.495348e+03,0.000000e+00
3.496312e+03,0.000000e+00
3.497276e+03,0.000000e+00
3.498240e+03,0.000000e+00
3.499205e+03,0.000000e+00
3.500169e+03,0.000000e+00
