9.931763e+01,0.000000e+00
1.002819e+02,0.000000e+00
1.012461e+02,0.000000e+00
1.022103e+02,0.000000e+00
1.031746e+02,0.000000e+00
1.041388e+02,0.000000e+00
1.051030e+02,0.000000e+00
1.060673e+02,0.000000e+00
1.070315e+02,0.000000e+00
1.079957e+02,0.000000e+00
1.089600e+02,0.000000e+00
1.099242e+02,0.000000e+00
1.108884e+02,0.000000e+00
1.118527e+02,0.000000e+00
1.128169e+02,0.000000e+00
1.137811e+02,0.000000e+00
1.147454e+02,0.000000e+00
1.157096e+02,0.000000e+00
1.166738e+02,0.000000e+00
1.176381e+02,0.000000e+00
1.186023e+02,0.000000e+00
1.195665e+02,0.000000e+00
1.205308e+02,0.000000e+00
1.214950e+02,0.000000e+00
1.224592e+02,0.000000e+00
1.234235e+02,0.000000e+00
1.243877e+02,0.000000e+00
1.253519e+02,0.000000e+00
1.263162e+02,0.000000e+00
1.272804e+02,0.000000e+00
1.282446e+02,0.000000e+00
1.292089e+02,0.000000e+00
1.301731e+02,0.000000e+00
1.311373e+02,0.000000e+00
1.321016e+02,0.000000e+00
1.330658e+02,0.000000e+00
1.340300e+02,0.000000e+00
1.349943e+02,0.000000e+00
1.359585e+02,0.000000e+00
1.369227e+02,0.000000e+00
1.378870e+02,0.000000e+00
1.388512e+02,0.000000e+00
1.398154e+02,0.000000e+00
1.407797e+02,0.000000e+00
1.417439e+02,0.000000e+00
1.427081e+02,0.000000e+00
1.436724e+02,0.000000e+00
1.446366e+02,0.000000e+00
1.456008e+02,0.000000e+00
1.465651e+02,0.000000e+00
1.475293e+02,0.000000e+00
1.484935e+02,0.000000e+00
1.494578e+02,0.000000e+00
1.504220e+02,0.000000e+00
1.513862e+02,0.000000e+00
1.523505e+02,0.000000e+00
1.533147e+02,0.000000e+00
1.542789e+02,0.000000e+00
1.552432e+02,0.000000e+00
1.562074e+02,0.000000e+00
1.571716e+02,0.000000e+00
1.581359e+02,0.000000e+00
1.591001e+02,0.000000e+00
1.600643e+02,0.000000e+00
1.610286e+02,0.000000e+00
1.619928e+02,0.000000e+00
1.629570e+02,0.000000e+00
1.639213e+02,0.000000e+00
1.648855e+02,0.000000e+00
1.658497e+02,0.000000e+00
1.668140e+02,0.000000e+00
1.677782e+02,0.000000e+00
1.687424e+02,0.000000e+00
1.697067e+02,0.000000e+00
1.706709e+02,0.000000e+00
1.716351e+02,0.000000e+00
1.725994e+02,0.000000e+00
1.735636e+02,0.000000e+00
1.745278e+02,0.000000e+00
1.754921e+02,0.000000e+00
1.764563e+02,0.000000e+00
1.774205e+02,0.000000e+00
1.783848e+02,0.000000e+00
1.793490e+02,0.000000e+00
1.803132e+02,0.000000e+00
1.812775e+02,0.000000e+00
1.822417e+02,0.000000e+00
1.832059e+02,0.000000e+00
1.841702e+02,0.000000e+00
1.851344e+02,0.000000e+00
1.860986e+02,0.000000e+00
1.870629e+02,0.000000e+00
1.880271e+02,0.000000e+00
1.889913e+02,0.000000e+00
1.899556e+02,0.000000e+00
1.909198e+02,0.000000e+00
1.918840e+02,0.000000e+00
1.928483e+02,0.000000e+00
1.938125e+02,0.000000e+00
1.947767e+02,0.000000e+00
1.957410e+02,0.000000e+00
1.967052e+02,0.000000e+00
1.976694e+02,0.000000e+00
1.986337e+02,0.000000e+00
1.995979e+02,2.036960e+03
2.005621e+02,2.030773e+03
2.015264e+02,2.027500e+03
2.024906e+02,2.029471e+03
2.034548e+02,2.032616e+03
2.044191e+02,2.036189e+03
2.053833e+02,2.039580e+03
2.063475e+02,2.042319e+03
2.073118e+02,2.044220e+03
2.082760e+02,2.045388e+03
2.092402e+02,2.045293e+03
2.102045e+02,2.044606e+03
2.111687e+02,2.043768e+03
2.121329e+02,2.042356e+03
2.130972e+02,2.039231e+03
2.140614e+02,2.035493e+03
2.150256e+02,2.035187e+03
2.159899e+02,2.040835e+03
2.169541e+02,2.047007e+03
2.179183e+02,2.052377e+03
2.188826e+02,2.056637e+03
2.198468e+02,2.059572e+03
2.208110e+02,2.060600e+03
2.217753e+02,2.059500e+03
2.227395e+02,2.057321e+03
2.237037e+02,2.054457e+03
2.246680e+02,2.051809e+03
2.256322e+02,2.049791e+03
2.265964e+02,2.049426e+03
2.275607e+02,2.050017e+03
2.285249e+02,2.050501e+03
2.294892e+02,2.050775e+03
2.304534e+02,2.051718e+03
2.314176e+02,2.052821e+03
2.323819e+02,2.053790e+03
2.333461e+02,2.055497e+03
2.343103e+02,2.059756e+03
2.352746e+02,2.065285e+03
2.362388e+02,2.069317e+03
2.372030e+02,2.070780e+03
2.381673e+02,2.069355e+03
2.391315e+02,2.065731e+03
2.400957e+02,2.058146e+03
2.410600e+02,2.052588e+03
2.420242e+02,2.052971e+03
2.429884e+02,2.058594e+03
2.439527e+02,2.065696e+03
2.449169e+02,2.071681e+03
2.458811e+02,2.076101e+03
2.468454e+02,2.077652e+03
2.478096e+02,2.072805e+03
2.487738e+02,2.067624e+03
2.497381e+02,2.066588e+03
2.507023e+02,2.070525e+03
2.516665e+02,2.077049e+03
2.526308e+02,2.082245e+03
2.535950e+02,2.084989e+03
2.545592e+02,2.085669e+03
2.555235e+02,2.082544e+03
2.564877e+02,2.078411e+03
2.574519e+02,2.077158e+03
2.584161e+02,2.081874e+03
2.593804e+02,2.092024e+03
2.603446e+02,2.098564e+03
2.613088e+02,2.095126e+03
2.622731e+02,2.092129e+03
2.632373e+02,2.093374e+03
2.642015e+02,2.097951e+03
2.651658e+02,2.102049e+03
2.661300e+02,2.101788e+03
2.670942e+02,2.096734e+03
2.680585e+02,2.093739e+03
2.690227e+02,2.096141e+03
2.699869e+02,2.099862e+03
2.709512e+02,2.101939e+03
2.719154e+02,2.101978e+03
2.728796e+02,2.100946e+03
2.738439e+02,2.099916e+03
2.748081e+02,2.099330e+03
2.757723e+02,2.099597e+03
2.767366e+02,2.098726e+03
2.777008e+02,2.096325e+03
2.786650e+02,2.094860e+03
2.796293e+02,2.096790e+03
2.805935e+02,2.100790e+03
2.815577e+02,2.103926e+03
2.825220e+02,2.105231e+03
2.834862e+02,2.105360e+03
2.844504e+02,2.106032e+03
2.854147e+02,2.109958e+03
2.863789e+02,2.111572e+03
2.873431e+02,2.106706e+03
2.883074e+02,2.098840e+03
2.892716e+02,2.095346e+03
2.902358e+02,2.101033e+03
2.912001e+02,2.115699e+03
2.921643e+02,2.122398e+03
2.931285e+02,2.115760e+03
2.940928e+02,2.108042e+03
2.950570e+02,2.103132e+03
2.960212e+02,2.101345e+03
2.969855e+02,2.102023e+03
2.979497e+02,2.105782e+03
2.989139e+02,2.115917e+03
2.998782e+02,2.122113e+03
3.008424e+02,2.123015e+03
3.018066e+02,2.122119e+03
3.027709e+02,2.120956e+03
3.037351e+02,2.119606e+03
3.046993e+02,2.118128e+03
3.056636e+02,2.117244e+03
3.066278e+02,2.117638e+03
3.075920e+02,2.118088e+03
3.085563e+02,2.117537e+03
3.095205e+02,2.116975e+03
3.104847e+02,2.117802e+03
3.114490e+02,2.120860e+03
3.124132e+02,2.124818e+03
3.133774e+02,2.127500e+03
3.143417e+02,2.128336e+03
3.153059e+02,2.127704e+03
3.162701e+02,2.126702e+03
3.172344e+02,2.125563e+03
3.181986e+02,2.125329e+03
3.191628e+02,2.127321e+03
3.201271e+02,2.130584e+03
3.210913e+02,2.132967e+03
3.220555e+02,2.133161e+03
3.230198e+02,2.131481e+03
3.239840e+02,2.131060e+03
3.249482e+02,2.132767e+03
3.259125e+02,2.134505e+03
3.268767e+02,2.135478e+03
3.278409e+02,2.135992e+03
3.288052e+02,2.136906e+03
3.297694e+02,2.139522e+03
3.307336e+02,2.144660e+03
3.316979e+02,2.146683e+03
3.326621e+02,2.142699e+03
3.336263e+02,2.136985e+03
3.345906e+02,2.131288e+03
3.355548e+02,2.126548e+03
3.365190e+02,2.123705e+03
3.374833e+02,2.123891e+03
3.384475e+02,2.127231e+03
3.394117e+02,2.130837e+03
3.403760e+02,2.133318e+03
3.413402e+02,2.134784e+03
3.423044e+02,2.135728e+03
3.432687e+02,2.135024e+03
3.442329e+02,2.134332e+03
3.451971e+02,2.134707e+03
3.461614e+02,2.135638e+03
3.471256e+02,2.136704e+03
3.480898e+02,2.138853e+03
3.490541e+02,2.143964e+03
3.500183e+02,2.145663e+03
3.509825e+02,2.141748e+03
3.519468e+02,2.136708e+03
3.529110e+02,2.133305e+03
3.538752e+02,2.131893e+03
3.548395e+02,2.131849e+03
3.558037e+02,2.132918e+03
3.567680e+02,2.136387e+03
3.577322e+02,2.139011e+03
3.586964e+02,2.141616e+03
3.596607e+02,2.143848e+03
3.606249e+02,2.144484e+03
3.615891e+02,2.141264e+03
3.625534e+02,2.135383e+03
3.635176e+02,2.131195e+03
3.644818e+02,2.129683e+03
3.654461e+02,2.129907e+03
3.664103e+02,2.132874e+03
3.673745e+02,2.139045e+03
3.683388e+02,2.145863e+03
3.693030e+02,2.152442e+03
3.702672e+02,2.157705e+03
3.712315e+02,2.159873e+03
3.721957e+02,2.158011e+03
3.731599e+02,2.154464e+03
3.741242e+02,2.153620e+03
3.750884e+02,2.160524e+03
3.760526e+02,2.166025e+03
3.770169e+02,2.168737e+03
3.779811e+02,2.169434e+03
3.789453e+02,2.168916e+03
3.799096e+02,2.167350e+03
3.808738e+02,2.164653e+03
3.818380e+02,2.161049e+03
3.828023e+02,2.156486e+03
3.837665e+02,2.153093e+03
3.847307e+02,2.151030e+03
3.856950e+02,2.150153e+03
3.866592e+02,2.150069e+03
3.876234e+02,2.151278e+03
3.885877e+02,2.152996e+03
3.895519e+02,2.152610e+03
3.905161e+02,2.148740e+03
3.914804e+02,2.144259e+03
3.924446e+02,2.142744e+03
3.934088e+02,2.144927e+03
3.943731e+02,2.148118e+03
3.953373e+02,2.153216e+03
3.963015e+02,2.158372e+03
3.972658e+02,2.160764e+03
3.982300e+02,2.159510e+03
3.991942e+02,2.156349e+03
4.001585e+02,2.154298e+03
4.011227e+02,2.151443e+03
4.020869e+02,2.150471e+03
4.030512e+02,2.152706e+03
4.040154e+02,2.156009e+03
4.049796e+02,2.157871e+03
4.059439e+02,2.156182e+03
4.069081e+02,2.151930e+03
4.078723e+02,2.148967e+03
4.088366e+02,2.147173e+03
4.098008e+02,2.145290e+03
4.107650e+02,2.143408e+03
4.117293e+02,2.141783e+03
4.126935e+02,2.141281e+03
4.136577e+02,2.143505e+03
4.146220e+02,2.146606e+03
4.155862e+02,2.147508e+03
4.165504e+02,2.145428e+03
4.175147e+02,2.142448e+03
4.184789e+02,2.141747e+03
4.194431e+02,2.146907e+03
4.204074e+02,2.149875e+03
4.213716e+02,2.147865e+03
4.223358e+02,2.144530e+03
4.233001e+02,2.144281e+03
4.242643e+02,2.149861e+03
4.252285e+02,2.158319e+03
4.261928e+02,2.161911e+03
4.271570e+02,2.158341e+03
4.281212e+02,2.155531e+03
4.290855e+02,2.157329e+03
4.300497e+02,2.161872e+03
4.310139e+02,2.165541e+03
4.319782e+02,2.166727e+03
4.329424e+02,2.167289e+03
4.339066e+02,2.169865e+03
4.348709e+02,2.174424e+03
4.358351e+02,2.177468e+03
4.367993e+02,2.175508e+03
4.377636e+02,2.166208e+03
4.387278e+02,2.158019e+03
4.396920e+02,2.149990e+03
4.406563e+02,2.144118e+03
4.416205e+02,2.141795e+03
4.425847e+02,2.143243e+03
4.435490e+02,2.147131e+03
4.445132e+02,2.153003e+03
4.454774e+02,2.162147e+03
4.464417e+02,2.168508e+03
4.474059e+02,2.167295e+03
4.483701e+02,2.162995e+03
4.493344e+02,2.161746e+03
4.502986e+02,2.168320e+03
4.512628e+02,2.175285e+03
4.522271e+02,2.177212e+03
4.531913e+02,2.174787e+03
4.541555e+02,2.170764e+03
4.551198e+02,2.165943e+03
4.560840e+02,2.160425e+03
4.570482e+02,2.158971e+03
4.580125e+02,2.169657e+03
4.589767e+02,2.178515e+03
4.599409e+02,2.178780e+03
4.609052e+02,2.170899e+03
4.618694e+02,2.160517e+03
4.628336e+02,2.151167e+03
4.637979e+02,2.143180e+03
4.647621e+02,2.138225e+03
4.657263e+02,2.137729e+03
4.666906e+02,2.140250e+03
4.676548e+02,2.143978e+03
4.686190e+02,2.149409e+03
4.695833e+02,2.152956e+03
4.705475e+02,2.152025e+03
4.715117e+02,2.148582e+03
4.724760e+02,2.145391e+03
4.734402e+02,2.143441e+03
4.744044e+02,2.142866e+03
4.753687e+02,2.143911e+03
4.763329e+02,2.148198e+03
4.772971e+02,2.151738e+03
4.782614e+02,2.152426e+03
4.792256e+02,2.152686e+03
4.801898e+02,2.155542e+03
4.811541e+02,2.163866e+03
4.821183e+02,2.173558e+03
4.830826e+02,2.178848e+03
4.840468e+02,2.179388e+03
4.850110e+02,2.177734e+03
4.859753e+02,2.174987e+03
4.869395e+02,2.170910e+03
4.879037e+02,2.169130e+03
4.888680e+02,2.173039e+03
4.898322e+02,2.176817e+03
4.907964e+02,2.177073e+03
4.917607e+02,2.174098e+03
4.927249e+02,2.170417e+03
4.936891e+02,2.167936e+03
4.946534e+02,2.166591e+03
4.956176e+02,2.166632e+03
4.965818e+02,2.169854e+03
4.975461e+02,2.172975e+03
4.985103e+02,2.172774e+03
4.994745e+02,2.167963e+03
5.004388e+02,2.162901e+03
5.014030e+02,2.161951e+03
5.023672e+02,2.162270e+03
5.033315e+02,2.157323e+03
5.042957e+02,2.144379e+03
5.052599e+02,2.128238e+03
5.062242e+02,2.120264e+03
5.071884e+02,2.126844e+03
5.081526e+02,2.133137e+03
5.091169e+02,2.138281e+03
5.100811e+02,2.142478e+03
5.110453e+02,2.145315e+03
5.120095e+02,2.145978e+03
5.129738e+02,2.146535e+03
5.139380e+02,2.150715e+03
5.149022e+02,2.158493e+03
5.158665e+02,2.164023e+03
5.168307e+02,2.162941e+03
5.177949e+02,2.154353e+03
5.187592e+02,2.146286e+03
5.197234e+02,2.140348e+03
5.206876e+02,2.136569e+03
5.216519e+02,2.136167e+03
5.226161e+02,2.138317e+03
5.235803e+02,2.140354e+03
5.245446e+02,2.140130e+03
5.255088e+02,2.137844e+03
5.264730e+02,2.134611e+03
5.274373e+02,2.129359e+03
5.284015e+02,2.124958e+03
5.293657e+02,2.124891e+03
5.303300e+02,2.130165e+03
5.312942e+02,2.131706e+03
5.322584e+02,2.124550e+03
5.332227e+02,2.116125e+03
5.341869e+02,2.113657e+03
5.351511e+02,2.118052e+03
5.361154e+02,2.124378e+03
5.370796e+02,2.126411e+03
5.380438e+02,2.123411e+03
5.390081e+02,2.120310e+03
5.399723e+02,2.116904e+03
5.409365e+02,2.114557e+03
5.419008e+02,2.113989e+03
5.428650e+02,2.115058e+03
5.438292e+02,2.116812e+03
5.447935e+02,2.120202e+03
5.457577e+02,2.124004e+03
5.467219e+02,2.125343e+03
5.476862e+02,2.122842e+03
5.486504e+02,2.117847e+03
5.496146e+02,2.114761e+03
5.505789e+02,2.115915e+03
5.515431e+02,2.115094e+03
5.525073e+02,2.108787e+03
5.534716e+02,2.101696e+03
5.544358e+02,2.099650e+03
5.554000e+02,2.107937e+03
5.563643e+02,2.118640e+03
5.573285e+02,2.123591e+03
5.582927e+02,2.123197e+03
5.592570e+02,2.122126e+03
5.602212e+02,2.123712e+03
5.611854e+02,2.127738e+03
5.621497e+02,2.129816e+03
5.631139e+02,2.128176e+03
5.640781e+02,2.125028e+03
5.650424e+02,2.121373e+03
5.660066e+02,2.117476e+03
5.669708e+02,2.113402e+03
5.679351e+02,2.109039e+03
5.688993e+02,2.104993e+03
5.698635e+02,2.101973e+03
5.708278e+02,2.100190e+03
5.717920e+02,2.100337e+03
5.727562e+02,2.103079e+03
5.737205e+02,2.109716e+03
5.746847e+02,2.112542e+03
5.756489e+02,2.107354e+03
5.766132e+02,2.101558e+03
5.775774e+02,2.100154e+03
5.785416e+02,2.103644e+03
5.795059e+02,2.107036e+03
5.804701e+02,2.105033e+03
5.814343e+02,2.099651e+03
5.823986e+02,2.098064e+03
5.833628e+02,2.102459e+03
5.843270e+02,2.108700e+03
5.852913e+02,2.110897e+03
5.862555e+02,2.103794e+03
5.872197e+02,2.100605e+03
5.881840e+02,2.103472e+03
5.891482e+02,2.108417e+03
5.901124e+02,2.112544e+03
5.910767e+02,2.115068e+03
5.920409e+02,2.116536e+03
5.930051e+02,2.117513e+03
5.939694e+02,2.117680e+03
5.949336e+02,2.115842e+03
5.958978e+02,2.111165e+03
5.968621e+02,2.105065e+03
5.978263e+02,2.100928e+03
5.987905e+02,2.098783e+03
5.997548e+02,2.099469e+03
6.007190e+02,2.106772e+03
6.016832e+02,2.116057e+03
6.026475e+02,2.121286e+03
6.036117e+02,2.118336e+03
6.045759e+02,2.112390e+03
6.055402e+02,2.108763e+03
6.065044e+02,2.107123e+03
6.074686e+02,2.107589e+03
6.084329e+02,2.111592e+03
6.093971e+02,2.117948e+03
6.103613e+02,2.119758e+03
6.113256e+02,2.112421e+03
6.122899e+02,2.105501e+03
6.132541e+02,2.100170e+03
6.142183e+02,2.096344e+03
6.151826e+02,2.093903e+03
6.161468e+02,2.094451e+03
6.171110e+02,2.096192e+03
6.180753e+02,2.096413e+03
6.190395e+02,2.095050e+03
6.200037e+02,2.093191e+03
6.209680e+02,2.091200e+03
6.219322e+02,2.089419e+03
6.228964e+02,2.089075e+03
6.238607e+02,2.091634e+03
6.248249e+02,2.093747e+03
6.257891e+02,2.093569e+03
6.267534e+02,2.091160e+03
6.277176e+02,2.088321e+03
6.286818e+02,2.085979e+03
6.296461e+02,2.084618e+03
6.306103e+02,2.085253e+03
6.315745e+02,2.087718e+03
6.325388e+02,2.089797e+03
6.335030e+02,2.089305e+03
6.344672e+02,2.085826e+03
6.354315e+02,2.082229e+03
6.363957e+02,2.075305e+03
6.373599e+02,2.071104e+03
6.383242e+02,2.074977e+03
6.392884e+02,2.086112e+03
6.402526e+02,2.094490e+03
6.412169e+02,2.096082e+03
6.421811e+02,2.093990e+03
6.431453e+02,2.089773e+03
6.441096e+02,2.084078e+03
6.450738e+02,2.079015e+03
6.460380e+02,2.077729e+03
6.470023e+02,2.080818e+03
6.479665e+02,2.081153e+03
6.489307e+02,2.076497e+03
6.498950e+02,2.071018e+03
6.508592e+02,2.067536e+03
6.518234e+02,2.065726e+03
6.527877e+02,2.065014e+03
6.537519e+02,2.066855e+03
6.547161e+02,2.069036e+03
6.556804e+02,2.070005e+03
6.566446e+02,2.069700e+03
6.576088e+02,2.068805e+03
6.585731e+02,2.067211e+03
6.595373e+02,2.065245e+03
6.605015e+02,2.065707e+03
6.614658e+02,2.070052e+03
6.624300e+02,2.073606e+03
6.633942e+02,2.071045e+03
6.643585e+02,2.057396e+03
6.653227e+02,2.050251e+03
6.662869e+02,2.054227e+03
6.672512e+02,2.060395e+03
6.682154e+02,2.063745e+03
6.691796e+02,2.063232e+03
6.701439e+02,2.060713e+03
6.711081e+02,2.055933e+03
6.720723e+02,2.050427e+03
6.730366e+02,2.048371e+03
6.740008e+02,2.050868e+03
6.749650e+02,2.053946e+03
6.759293e+02,2.052376e+03
6.768935e+02,2.043829e+03
6.778577e+02,2.038384e+03
6.788220e+02,2.038253e+03
6.797862e+02,2.040851e+03
6.807504e+02,2.044299e+03
6.817147e+02,2.048348e+03
6.826789e+02,2.050671e+03
6.836431e+02,2.048350e+03
6.846074e+02,2.044034e+03
6.855716e+02,2.041265e+03
6.865358e+02,2.041042e+03
6.875001e+02,2.041843e+03
6.884643e+02,2.041276e+03
6.894285e+02,2.039456e+03
6.903928e+02,2.040538e+03
6.913570e+02,2.046563e+03
6.923212e+02,2.052517e+03
6.932855e+02,2.052991e+03
6.942497e+02,2.045004e+03
6.952139e+02,2.039224e+03
6.961782e+02,2.035038e+03
6.971424e+02,2.033078e+03
6.981066e+02,2.034238e+03
6.990709e+02,2.037907e+03
7.000351e+02,2.040626e+03
7.009993e+02,2.041408e+03
7.019636e+02,2.040721e+03
7.029278e+02,2.037519e+03
7.038920e+02,2.031292e+03
7.048563e+02,2.024565e+03
7.058205e+02,2.021268e+03
7.067847e+02,2.023383e+03
7.077490e+02,2.024953e+03
7.087132e+02,2.026064e+03
7.096774e+02,2.028219e+03
7.106417e+02,2.031376e+03
7.116059e+02,2.035816e+03
7.125701e+02,2.037975e+03
7.135344e+02,2.035861e+03
7.144986e+02,2.032428e+03
7.154628e+02,2.029442e+03
7.164271e+02,2.027132e+03
7.173913e+02,2.025922e+03
7.183555e+02,2.027380e+03
7.193198e+02,2.030622e+03
7.202840e+02,2.031285e+03
7.212482e+02,2.028768e+03
7.222125e+02,2.025385e+03
7.231767e+02,2.023066e+03
7.241409e+02,2.021172e+03
7.251052e+02,2.020480e+03
7.260694e+02,2.022090e+03
7.270336e+02,2.023817e+03
7.279979e+02,2.025428e+03
7.289621e+02,2.026866e+03
7.299263e+02,2.026485e+03
7.308906e+02,2.020299e+03
7.318548e+02,2.013326e+03
7.328190e+02,2.012912e+03
7.337833e+02,2.019148e+03
7.347475e+02,2.024648e+03
7.357117e+02,2.020918e+03
7.366760e+02,2.009408e+03
7.376402e+02,2.002293e+03
7.386044e+02,2.000720e+03
7.395687e+02,2.002157e+03
7.405329e+02,2.004638e+03
7.414971e+02,2.008691e+03
7.424614e+02,2.010942e+03
7.434256e+02,2.011425e+03
7.443898e+02,2.012291e+03
7.453541e+02,2.014269e+03
7.463183e+02,2.016132e+03
7.472825e+02,2.015595e+03
7.482468e+02,2.009834e+03
7.492110e+02,2.002545e+03
7.501752e+02,1.998274e+03
7.511395e+02,1.997837e+03
7.521037e+02,1.999457e+03
7.530679e+02,2.001959e+03
7.540322e+02,2.004397e+03
7.549964e+02,2.002638e+03
7.559606e+02,1.995738e+03
7.569249e+02,1.989560e+03
7.578891e+02,1.988211e+03
7.588533e+02,1.992227e+03
7.598176e+02,1.994927e+03
7.607818e+02,1.991535e+03
7.617460e+02,1.988401e+03
7.627103e+02,1.989868e+03
7.636745e+02,1.995137e+03
7.646387e+02,1.998901e+03
7.656030e+02,1.997249e+03
7.665672e+02,1.994530e+03
7.675314e+02,1.993885e+03
7.684957e+02,1.993588e+03
7.694599e+02,1.990981e+03
7.704241e+02,1.984771e+03
7.713884e+02,1.977398e+03
7.723526e+02,1.974326e+03
7.733168e+02,1.976380e+03
7.742811e+02,1.979833e+03
7.752453e+02,1.982307e+03
7.762095e+02,1.983173e+03
7.771738e+02,1.982691e+03
7.781380e+02,1.978628e+03
7.791022e+02,1.974434e+03
7.800665e+02,1.971373e+03
7.810307e+02,1.969465e+03
7.819949e+02,1.968479e+03
7.829592e+02,1.970344e+03
7.839234e+02,1.972426e+03
7.848876e+02,1.972348e+03
7.858519e+02,1.971167e+03
7.868161e+02,1.971123e+03
7.877803e+02,1.973473e+03
7.887446e+02,1.976251e+03
7.897088e+02,1.977540e+03
7.906730e+02,1.978007e+03
7.916373e+02,1.977107e+03
7.926015e+02,1.973237e+03
7.935657e+02,1.967222e+03
7.945300e+02,1.963486e+03
7.954942e+02,1.964370e+03
7.964584e+02,1.963630e+03
7.974227e+02,1.960881e+03
7.983869e+02,1.958911e+03
7.993511e+02,1.958889e+03
8.003154e+02,1.961102e+03
8.012796e+02,1.961027e+03
8.022438e+02,1.956730e+03
8.032081e+02,1.952138e+03
8.041723e+02,1.950068e+03
8.051365e+02,1.950830e+03
8.061008e+02,1.954153e+03
8.070650e+02,1.963341e+03
8.080292e+02,1.973242e+03
8.089935e+02,1.974760e+03
8.099577e+02,1.967238e+03
8.109219e+02,1.957602e+03
8.118862e+02,1.952801e+03
8.128504e+02,1.952682e+03
8.138146e+02,1.952895e+03
8.147789e+02,1.953312e+03
8.157431e+02,1.952681e+03
8.167073e+02,1.950176e+03
8.176716e+02,1.946293e+03
8.186358e+02,1.943834e+03
8.196000e+02,1.943081e+03
8.205643e+02,1.943249e+03
8.215285e+02,1.942724e+03
8.224927e+02,1.941692e+03
8.234570e+02,1.942543e+03
8.244212e+02,1.948188e+03
8.253854e+02,1.954020e+03
8.263497e+02,1.957712e+03
8.273139e+02,1.958402e+03
8.282781e+02,1.955771e+03
8.292424e+02,1.947938e+03
8.302066e+02,1.939453e+03
8.311708e+02,1.936721e+03
8.321351e+02,1.938839e+03
8.330993e+02,1.941312e+03
8.340635e+02,1.941416e+03
8.350278e+02,1.939900e+03
8.359920e+02,1.939919e+03
8.369562e+02,1.942003e+03
8.379205e+02,1.943151e+03
8.388847e+02,1.942131e+03
8.398489e+02,1.939798e+03
8.408132e+02,1.938055e+03
8.417774e+02,1.938415e+03
8.427416e+02,1.936507e+03
8.437059e+02,1.929362e+03
8.446701e+02,1.921160e+03
8.456343e+02,1.916544e+03
8.465986e+02,1.917289e+03
8.475628e+02,1.918811e+03
8.485270e+02,1.920829e+03
8.494913e+02,1.922159e+03
8.504555e+02,1.920998e+03
8.514197e+02,1.917055e+03
8.523840e+02,1.914588e+03
8.533482e+02,1.918680e+03
8.543124e+02,1.925642e+03
8.552767e+02,1.928951e+03
8.562409e+02,1.927550e+03
8.572051e+02,1.923630e+03
8.581694e+02,1.918989e+03
8.591336e+02,1.914072e+03
8.600978e+02,1.911348e+03
8.610621e+02,1.911569e+03
8.620263e+02,1.912738e+03
8.629905e+02,1.913178e+03
8.639548e+02,1.912257e+03
8.649190e+02,1.908836e+03
8.658832e+02,1.900790e+03
8.668475e+02,1.894936e+03
8.678117e+02,1.894931e+03
8.687759e+02,1.899669e+03
8.697402e+02,1.904840e+03
8.707044e+02,1.912479e+03
8.716686e+02,1.916036e+03
8.726329e+02,1.911968e+03
8.735971e+02,1.903900e+03
8.745613e+02,1.897627e+03
8.755256e+02,1.895699e+03
8.764898e+02,1.896832e+03
8.774540e+02,1.901871e+03
8.784183e+02,1.908310e+03
8.793825e+02,1.912052e+03
8.803467e+02,1.911430e+03
8.813110e+02,1.907990e+03
8.822752e+02,1.901968e+03
8.832394e+02,1.895074e+03
8.842037e+02,1.892228e+03
8.851679e+02,1.894241e+03
8.861321e+02,1.898755e+03
8.870964e+02,1.904655e+03
8.880606e+02,1.912139e+03
8.890248e+02,1.912788e+03
8.899891e+02,1.905135e+03
8.909533e+02,1.894621e+03
8.919175e+02,1.884664e+03
8.928818e+02,1.873310e+03
8.938460e+02,1.871541e+03
8.948102e+02,1.888011e+03
8.957745e+02,1.903756e+03
8.967387e+02,1.907135e+03
8.977029e+02,1.898392e+03
8.986672e+02,1.891533e+03
8.996314e+02,1.891136e+03
9.005956e+02,1.891331e+03
9.015599e+02,1.889080e+03
9.025241e+02,1.884845e+03
9.034883e+02,1.880887e+03
9.044526e+02,1.877747e+03
9.054168e+02,1.874474e+03
9.063810e+02,1.872144e+03
9.073453e+02,1.871093e+03
9.083095e+02,1.870234e+03
9.092737e+02,1.868486e+03
9.102380e+02,1.865809e+03
9.112022e+02,1.859955e+03
9.121664e+02,1.853343e+03
9.131307e+02,1.854112e+03
9.140949e+02,1.865686e+03
9.150591e+02,1.880202e+03
9.160234e+02,1.886050e+03
9.169876e+02,1.882867e+03
9.179518e+02,1.874802e+03
9.189161e+02,1.861676e+03
9.198803e+02,1.848698e+03
9.208445e+02,1.842049e+03
9.218088e+02,1.842941e+03
9.227730e+02,1.845735e+03
9.237372e+02,1.851376e+03
9.247015e+02,1.855563e+03
9.256657e+02,1.854751e+03
9.266299e+02,1.848495e+03
9.275942e+02,1.846028e+03
9.285584e+02,1.850324e+03
9.295226e+02,1.854048e+03
9.304869e+02,1.854332e+03
9.314511e+02,1.852469e+03
9.324153e+02,1.851708e+03
9.333796e+02,1.854838e+03
9.343438e+02,1.856037e+03
9.353080e+02,1.851636e+03
9.362723e+02,1.844107e+03
9.372365e+02,1.837769e+03
9.382007e+02,1.835278e+03
9.391650e+02,1.834216e+03
9.401292e+02,1.833879e+03
9.410934e+02,1.833869e+03
9.420577e+02,1.833143e+03
9.430219e+02,1.831212e+03
9.439861e+02,1.829356e+03
9.449504e+02,1.829458e+03
9.459146e+02,1.831328e+03
9.468788e+02,1.834117e+03
9.478431e+02,1.836434e+03
9.488073e+02,1.836259e+03
9.497715e+02,1.831544e+03
9.507358e+02,1.824597e+03
9.517000e+02,1.819925e+03
9.526642e+02,1.818127e+03
9.536285e+02,1.818241e+03
9.545927e+02,1.819908e+03
9.555569e+02,1.822229e+03
9.565212e+02,1.822004e+03
9.574854e+02,1.819776e+03
9.584496e+02,1.818701e+03
9.594139e+02,1.819400e+03
9.603781e+02,1.820642e+03
9.613423e+02,1.820450e+03
9.623066e+02,1.818456e+03
9.632708e+02,1.817428e+03
9.642350e+02,1.818829e+03
9.651993e+02,1.821166e+03
9.661635e+02,1.821615e+03
9.671277e+02,1.818551e+03
9.680920e+02,1.816001e+03
9.690562e+02,1.814527e+03
9.700204e+02,1.812720e+03
9.709847e+02,1.809639e+03
9.719489e+02,1.805064e+03
9.729131e+02,1.803339e+03
9.738774e+02,1.808380e+03
9.748416e+02,1.813204e+03
9.758058e+02,1.813781e+03
9.767701e+02,1.810336e+03
9.777343e+02,1.807203e+03
9.786985e+02,1.804763e+03
9.796628e+02,1.802525e+03
9.806270e+02,1.801026e+03
9.815912e+02,1.799699e+03
9.825555e+02,1.797688e+03
9.835197e+02,1.794478e+03
9.844839e+02,1.792536e+03
9.854482e+02,1.794196e+03
9.864124e+02,1.797340e+03
9.873766e+02,1.799297e+03
9.883409e+02,1.799619e+03
9.893051e+02,1.798574e+03
9.902693e+02,1.793720e+03
9.912336e+02,1.789256e+03
9.921978e+02,1.790776e+03
9.931620e+02,1.797437e+03
9.941263e+02,1.801910e+03
9.950905e+02,1.797021e+03
9.960547e+02,1.788793e+03
9.970190e+02,1.784273e+03
9.979832e+02,1.783028e+03
9.989474e+02,1.782915e+03
9.999117e+02,1.783751e+03
1.000876e+03,1.785241e+03
1.001840e+03,1.787941e+03
1.002804e+03,1.791215e+03
1.003769e+03,1.790322e+03
1.004733e+03,1.782180e+03
1.005697e+03,1.773110e+03
1.006661e+03,1.774705e+03
1.007626e+03,1.784441e+03
1.008590e+03,1.789871e+03
1.009554e+03,1.788229e+03
1.010518e+03,1.783814e+03
1.011482e+03,1.782662e+03
1.012447e+03,1.783916e+03
1.013411e+03,1.779605e+03
1.014375e+03,1.769802e+03
1.015339e+03,1.762023e+03
1.016304e+03,1.761635e+03
1.017268e+03,1.766960e+03
1.018232e+03,1.769143e+03
1.019196e+03,1.767627e+03
1.020161e+03,1.765221e+03
1.021125e+03,1.763086e+03
1.022089e+03,1.761890e+03
1.023053e+03,1.762856e+03
1.024018e+03,1.766464e+03
1.024982e+03,1.765803e+03
1.025946e+03,1.757487e+03
1.026910e+03,1.746811e+03
1.027875e+03,1.741848e+03
1.028839e+03,1.744992e+03
1.029803e+03,1.748807e+03
1.030767e+03,1.753929e+03
1.031731e+03,1.758625e+03
1.032696e+03,1.761585e+03
1.033660e+03,1.762667e+03
1.034624e+03,1.760756e+03
1.035588e+03,1.753586e+03
1.036552e+03,1.748750e+03
1.037517e+03,1.749798e+03
1.038481e+03,1.754547e+03
1.039445e+03,1.756492e+03
1.040409e+03,1.753148e+03
1.041374e+03,1.751377e+03
1.042338e+03,1.754763e+03
1.043302e+03,1.759553e+03
1.044266e+03,1.760221e+03
1.045231e+03,1.752735e+03
1.046195e+03,1.747983e+03
1.047159e+03,1.749531e+03
1.048123e+03,1.751476e+03
1.049088e+03,1.748849e+03
1.050052e+03,1.741047e+03
1.051016e+03,1.738104e+03
1.051980e+03,1.746149e+03
1.052945e+03,1.752289e+03
1.053909e+03,1.749158e+03
1.054873e+03,1.738669e+03
1.055837e+03,1.731219e+03
1.056802e+03,1.728124e+03
1.057766e+03,1.728375e+03
1.058730e+03,1.735885e+03
1.059694e+03,1.745223e+03
1.060658e+03,1.749259e+03
1.061623e+03,1.745023e+03
1.062587e+03,1.740885e+03
1.063551e+03,1.738240e+03
1.064515e+03,1.735828e+03
1.065479e+03,1.731294e+03
1.066444e+03,1.724491e+03
1.067408e+03,1.722541e+03
1.068372e+03,1.733055e+03
1.069336e+03,1.742004e+03
1.070301e+03,1.739343e+03
1.071265e+03,1.728766e+03
1.072229e+03,1.723929e+03
1.073193e+03,1.734942e+03
1.074158e+03,1.742523e+03
1.075122e+03,1.738799e+03
1.076086e+03,1.730294e+03
1.077050e+03,1.725452e+03
1.078015e+03,1.728614e+03
1.078979e+03,1.730979e+03
1.079943e+03,1.727056e+03
1.080907e+03,1.724047e+03
1.081872e+03,1.728577e+03
1.082836e+03,1.740642e+03
1.083800e+03,1.747000e+03
1.084764e+03,1.739646e+03
1.085729e+03,1.732256e+03
1.086693e+03,1.730117e+03
1.087657e+03,1.732385e+03
1.088621e+03,1.736566e+03
1.089585e+03,1.745390e+03
1.090550e+03,1.751254e+03
1.091514e+03,1.751948e+03
1.092478e+03,1.750321e+03
1.093442e+03,1.749170e+03
1.094406e+03,1.749567e+03
1.095371e+03,1.748957e+03
1.096335e+03,1.745323e+03
1.097299e+03,1.741098e+03
1.098263e+03,1.737960e+03
1.099228e+03,1.735729e+03
1.100192e+03,1.732928e+03
1.101156e+03,1.727200e+03
1.102120e+03,1.722795e+03
1.103085e+03,1.722294e+03
1.104049e+03,1.724278e+03
1.105013e+03,1.725783e+03
1.105977e+03,1.727129e+03
1.106942e+03,1.727306e+03
1.107906e+03,1.725408e+03
1.108870e+03,1.722951e+03
1.109834e+03,1.720673e+03
1.110799e+03,1.717818e+03
1.111763e+03,1.718621e+03
1.112727e+03,1.727886e+03
1.113691e+03,1.737315e+03
1.114656e+03,1.742446e+03
1.115620e+03,1.743645e+03
1.116584e+03,1.744471e+03
1.117548e+03,1.745149e+03
1.118512e+03,1.744021e+03
1.119477e+03,1.739162e+03
1.120441e+03,1.732999e+03
1.121405e+03,1.729469e+03
1.122369e+03,1.731487e+03
1.123334e+03,1.731898e+03
1.124298e+03,1.730045e+03
1.125262e+03,1.727756e+03
1.126226e+03,1.726483e+03
1.127191e+03,1.726563e+03
1.128155e+03,1.725826e+03
1.129119e+03,1.723209e+03
1.130083e+03,1.720324e+03
1.131047e+03,1.717021e+03
1.132012e+03,1.713494e+03
1.132976e+03,1.711872e+03
1.133940e+03,1.713878e+03
1.134904e+03,1.714131e+03
1.135869e+03,1.712047e+03
1.136833e+03,1.708765e+03
1.137797e+03,1.705313e+03
1.138761e+03,1.702036e+03
1.139726e+03,1.699394e+03
1.140690e+03,1.697073e+03
1.141654e+03,1.695231e+03
1.142618e+03,1.693401e+03
1.143583e+03,1.692038e+03
1.144547e+03,1.694686e+03
1.145511e+03,1.702990e+03
1.146475e+03,1.708578e+03
1.147439e+03,1.708314e+03
1.148404e+03,1.705283e+03
1.149368e+03,1.704414e+03
1.150332e+03,1.705746e+03
1.151296e+03,1.706877e+03
1.152261e+03,1.706961e+03
1.153225e+03,1.705004e+03
1.154189e+03,1.700570e+03
1.155153e+03,1.694875e+03
1.156118e+03,1.693944e+03
1.157082e+03,1.698533e+03
1.158046e+03,1.700125e+03
1.159010e+03,1.693737e+03
1.159974e+03,1.682492e+03
1.160939e+03,1.671266e+03
1.161903e+03,1.660281e+03
1.162867e+03,1.654355e+03
1.163831e+03,1.654611e+03
1.164796e+03,1.655649e+03
1.165760e+03,1.651177e+03
1.166724e+03,1.643780e+03
1.167688e+03,1.639633e+03
1.168653e+03,1.638803e+03
1.169617e+03,1.639485e+03
1.170581e+03,1.641977e+03
1.171545e+03,1.644191e+03
1.172510e+03,1.640641e+03
1.173474e+03,1.634652e+03
1.174438e+03,1.634271e+03
1.175402e+03,1.642265e+03
1.176366e+03,1.651183e+03
1.177331e+03,1.655188e+03
1.178295e+03,1.656245e+03
1.179259e+03,1.655847e+03
1.180223e+03,1.654119e+03
1.181188e+03,1.652090e+03
1.182152e+03,1.652357e+03
1.183116e+03,1.650796e+03
1.184080e+03,1.641784e+03
1.185045e+03,1.630259e+03
1.186009e+03,1.624758e+03
1.186973e+03,1.631427e+03
1.187937e+03,1.637720e+03
1.188901e+03,1.637969e+03
1.189866e+03,1.635861e+03
1.190830e+03,1.633491e+03
1.191794e+03,1.630787e+03
1.192758e+03,1.629507e+03
1.193723e+03,1.633407e+03
1.194687e+03,1.636451e+03
1.195651e+03,1.635043e+03
1.196615e+03,1.630731e+03
1.197580e+03,1.627590e+03
1.198544e+03,1.625186e+03
1.199508e+03,1.622483e+03
1.200472e+03,1.620972e+03
1.201437e+03,1.619151e+03
1.202401e+03,1.615156e+03
1.203365e+03,1.608454e+03
1.204329e+03,1.607863e+03
1.205293e+03,1.616043e+03
1.206258e+03,1.622974e+03
1.207222e+03,1.623446e+03
1.208186e+03,1.619799e+03
1.209150e+03,1.620062e+03
1.210115e+03,1.624299e+03
1.211079e+03,1.626775e+03
1.212043e+03,1.626555e+03
1.213007e+03,1.624657e+03
1.213972e+03,1.623005e+03
1.214936e+03,1.621663e+03
1.215900e+03,1.617265e+03
1.216864e+03,1.610110e+03
1.217828e+03,1.605004e+03
1.218793e+03,1.605799e+03
1.219757e+03,1.608723e+03
1.220721e+03,1.606334e+03
1.221685e+03,1.600967e+03
1.222650e+03,1.598371e+03
1.223614e+03,1.599616e+03
1.224578e+03,1.601223e+03
1.225542e+03,1.601059e+03
1.226507e+03,1.600132e+03
1.227471e+03,1.598745e+03
1.228435e+03,1.596869e+03
1.229399e+03,1.595429e+03
1.230364e+03,1.597271e+03
1.231328e+03,1.597913e+03
1.232292e+03,1.594396e+03
1.233256e+03,1.589727e+03
1.234220e+03,1.586980e+03
1.235185e+03,1.587742e+03
1.236149e+03,1.588463e+03
1.237113e+03,1.588499e+03
1.238077e+03,1.588608e+03
1.239042e+03,1.587935e+03
1.240006e+03,1.586015e+03
1.240970e+03,1.584728e+03
1.241934e+03,1.584572e+03
1.242899e+03,1.584014e+03
1.243863e+03,1.582971e+03
1.244827e+03,1.581992e+03
1.245791e+03,1.581884e+03
1.246755e+03,1.583120e+03
1.247720e+03,1.581999e+03
1.248684e+03,1.577999e+03
1.249648e+03,1.575054e+03
1.250612e+03,1.576203e+03
1.251577e+03,1.579323e+03
1.252541e+03,1.577025e+03
1.253505e+03,1.570007e+03
1.254469e+03,1.565033e+03
1.255434e+03,1.564351e+03
1.256398e+03,1.566526e+03
1.257362e+03,1.571826e+03
1.258326e+03,1.577175e+03
1.259291e+03,1.576121e+03
1.260255e+03,1.569195e+03
1.261219e+03,1.562790e+03
1.262183e+03,1.562643e+03
1.263147e+03,1.564458e+03
1.264112e+03,1.564595e+03
1.265076e+03,1.564379e+03
1.266040e+03,1.565945e+03
1.267004e+03,1.570941e+03
1.267969e+03,1.573936e+03
1.268933e+03,1.571177e+03
1.269897e+03,1.569129e+03
1.270861e+03,1.571327e+03
1.271826e+03,1.576195e+03
1.272790e+03,1.578854e+03
1.273754e+03,1.578158e+03
1.274718e+03,1.578333e+03
1.275682e+03,1.581382e+03
1.276647e+03,1.585554e+03
1.277611e+03,1.588435e+03
1.278575e+03,1.589918e+03
1.279539e+03,1.588278e+03
1.280504e+03,1.583696e+03
1.281468e+03,1.581237e+03
1.282432e+03,1.584287e+03
1.283396e+03,1.589960e+03
1.284361e+03,1.591047e+03
1.285325e+03,1.588033e+03
1.286289e+03,1.584156e+03
1.287253e+03,1.580088e+03
1.288218e+03,1.576054e+03
1.289182e+03,1.572226e+03
1.290146e+03,1.569110e+03
1.291110e+03,1.567976e+03
1.292074e+03,1.568467e+03
1.293039e+03,1.568517e+03
1.294003e+03,1.567756e+03
1.294967e+03,1.565060e+03
1.295931e+03,1.558742e+03
1.296896e+03,1.551864e+03
1.297860e+03,1.547378e+03
1.298824e+03,1.545757e+03
1.299788e+03,1.544597e+03
1.300753e+03,1.542814e+03
1.301717e+03,1.542601e+03
1.302681e+03,1.546365e+03
1.303645e+03,1.551633e+03
1.304609e+03,1.550256e+03
1.305574e+03,1.540106e+03
1.306538e+03,1.534335e+03
1.307502e+03,1.536149e+03
1.308466e+03,1.539612e+03
1.309431e+03,1.537791e+03
1.310395e+03,1.532580e+03
1.311359e+03,1.529486e+03
1.312323e+03,1.528054e+03
1.313288e+03,1.529390e+03
1.314252e+03,1.536004e+03
1.315216e+03,1.542865e+03
1.316180e+03,1.544365e+03
1.317145e+03,1.542992e+03
1.318109e+03,1.540181e+03
1.319073e+03,1.535890e+03
1.320037e+03,1.533690e+03
1.321001e+03,1.538487e+03
1.321966e+03,1.541877e+03
1.322930e+03,1.540089e+03
1.323894e+03,1.535649e+03
1.324858e+03,1.532400e+03
1.325823e+03,1.530707e+03
1.326787e+03,1.529143e+03
1.327751e+03,1.527100e+03
1.328715e+03,1.525155e+03
1.329680e+03,1.523365e+03
1.330644e+03,1.522504e+03
1.331608e+03,1.526539e+03
1.332572e+03,1.534935e+03
1.333536e+03,1.543099e+03
1.334501e+03,1.549800e+03
1.335465e+03,1.553309e+03
1.336429e+03,1.550381e+03
1.337393e+03,1.544925e+03
1.338358e+03,1.543046e+03
1.339322e+03,1.544062e+03
1.340286e+03,1.543410e+03
1.341250e+03,1.536730e+03
1.342215e+03,1.530375e+03
1.343179e+03,1.528030e+03
1.344143e+03,1.528428e+03
1.345107e+03,1.529244e+03
1.346072e+03,1.529631e+03
1.347036e+03,1.531153e+03
1.348000e+03,1.534783e+03
1.348964e+03,1.536820e+03
1.349928e+03,1.536424e+03
1.350893e+03,1.534143e+03
1.351857e+03,1.528920e+03
1.352821e+03,1.520664e+03
1.353785e+03,1.516758e+03
1.354750e+03,1.517965e+03
1.355714e+03,1.519166e+03
1.356678e+03,1.516783e+03
1.357642e+03,1.512644e+03
1.358607e+03,1.507258e+03
1.359571e+03,1.501541e+03
1.360535e+03,1.497993e+03
1.361499e+03,1.498133e+03
1.362464e+03,1.499437e+03
1.363428e+03,1.502771e+03
1.364392e+03,1.505660e+03
1.365356e+03,1.504414e+03
1.366320e+03,1.499015e+03
1.367285e+03,1.496763e+03
1.368249e+03,1.499548e+03
1.369213e+03,1.502996e+03
1.370177e+03,1.507086e+03
1.371142e+03,1.509961e+03
1.372106e+03,1.509062e+03
1.373070e+03,1.504853e+03
1.374034e+03,1.500807e+03
1.374999e+03,1.497239e+03
1.375963e+03,1.493030e+03
1.376927e+03,1.486679e+03
1.377891e+03,1.481154e+03
1.378855e+03,1.479092e+03
1.379820e+03,1.479621e+03
1.380784e+03,1.483252e+03
1.381748e+03,1.490286e+03
1.382712e+03,1.493980e+03
1.383677e+03,1.488257e+03
1.384641e+03,1.481975e+03
1.385605e+03,1.477043e+03
1.386569e+03,1.473717e+03
1.387534e+03,1.473277e+03
1.388498e+03,1.476934e+03
1.389462e+03,1.477409e+03
1.390426e+03,1.473794e+03
1.391391e+03,1.468800e+03
1.392355e+03,1.463853e+03
1.393319e+03,1.460082e+03
1.394283e+03,1.459553e+03
1.395247e+03,1.461232e+03
1.396212e+03,1.464034e+03
1.397176e+03,1.467878e+03
1.398140e+03,1.468889e+03
1.399104e+03,1.461338e+03
1.400069e+03,1.452927e+03
1.401033e+03,1.448382e+03
1.401997e+03,1.446971e+03
1.402961e+03,1.445991e+03
1.403926e+03,1.444687e+03
1.404890e+03,1.445180e+03
1.405854e+03,1.448559e+03
1.406818e+03,1.452088e+03
1.407782e+03,1.453639e+03
1.408747e+03,1.454211e+03
1.409711e+03,1.456088e+03
1.410675e+03,1.458207e+03
1.411639e+03,1.459627e+03
1.412604e+03,1.460388e+03
1.413568e+03,1.459691e+03
1.414532e+03,1.456363e+03
1.415496e+03,1.452602e+03
1.416461e+03,1.449797e+03
1.417425e+03,1.447330e+03
1.418389e+03,1.444083e+03
1.419353e+03,1.438227e+03
1.420318e+03,1.434404e+03
1.421282e+03,1.434078e+03
1.422246e+03,1.435313e+03
1.423210e+03,1.436584e+03
1.424174e+03,1.438023e+03
1.425139e+03,1.439790e+03
1.426103e+03,1.441169e+03
1.427067e+03,1.438853e+03
1.428031e+03,1.431207e+03
1.428996e+03,1.423692e+03
1.429960e+03,1.420466e+03
1.430924e+03,1.420361e+03
1.431888e+03,1.424637e+03
1.432853e+03,1.431632e+03
1.433817e+03,1.433994e+03
1.434781e+03,1.426432e+03
1.435745e+03,1.419705e+03
1.436709e+03,1.413647e+03
1.437674e+03,1.409431e+03
1.438638e+03,1.409974e+03
1.439602e+03,1.414731e+03
1.440566e+03,1.412139e+03
1.441531e+03,1.402994e+03
1.442495e+03,1.397357e+03
1.443459e+03,1.399112e+03
1.444423e+03,1.403116e+03
1.445388e+03,1.404702e+03
1.446352e+03,1.405088e+03
1.447316e+03,1.407125e+03
1.448280e+03,1.410580e+03
1.449245e+03,1.410362e+03
1.450209e+03,1.400163e+03
1.451173e+03,1.393823e+03
1.452137e+03,1.393116e+03
1.453101e+03,1.394449e+03
1.454066e+03,1.395511e+03
1.455030e+03,1.396243e+03
1.455994e+03,1.395201e+03
1.456958e+03,1.392679e+03
1.457923e+03,1.390885e+03
1.458887e+03,1.390354e+03
1.459851e+03,1.390170e+03
1.460815e+03,1.388918e+03
1.461780e+03,1.387751e+03
1.462744e+03,1.389952e+03
1.463708e+03,1.394853e+03
1.464672e+03,1.395166e+03
1.465636e+03,1.388069e+03
1.466601e+03,1.382156e+03
1.467565e+03,1.377464e+03
1.468529e+03,1.376395e+03
1.469493e+03,1.383692e+03
1.470458e+03,1.395542e+03
1.471422e+03,1.396412e+03
1.472386e+03,1.389310e+03
1.473350e+03,1.384489e+03
1.474315e+03,1.385949e+03
1.475279e+03,1.387436e+03
1.476243e+03,1.383500e+03
1.477207e+03,1.379035e+03
1.478172e+03,1.378869e+03
1.479136e+03,1.382101e+03
1.480100e+03,1.383521e+03
1.481064e+03,1.383141e+03
1.482028e+03,1.381105e+03
1.482993e+03,1.377282e+03
1.483957e+03,1.374000e+03
1.484921e+03,1.372862e+03
1.485885e+03,1.373461e+03
1.486850e+03,1.376300e+03
1.487814e+03,1.379558e+03
1.488778e+03,1.379963e+03
1.489742e+03,1.376205e+03
1.490707e+03,1.371567e+03
1.491671e+03,1.365587e+03
1.492635e+03,1.362465e+03
1.493599e+03,1.364898e+03
1.494563e+03,1.369754e+03
1.495528e+03,1.368863e+03
1.496492e+03,1.362265e+03
1.497456e+03,1.357995e+03
1.498420e+03,1.357375e+03
1.499385e+03,1.357455e+03
1.500349e+03,1.355868e+03
1.501313e+03,1.354161e+03
1.502277e+03,1.352886e+03
1.503242e+03,1.352313e+03
1.504206e+03,1.353068e+03
1.505170e+03,1.355574e+03
1.506134e+03,1.357234e+03
1.507099e+03,1.358105e+03
1.508063e+03,1.358576e+03
1.509027e+03,1.359221e+03
1.509991e+03,1.358467e+03
1.510955e+03,1.351191e+03
1.511920e+03,1.341209e+03
1.512884e+03,1.338905e+03
1.513848e+03,1.344460e+03
1.514812e+03,1.349515e+03
1.515777e+03,1.348854e+03
1.516741e+03,1.346508e+03
1.517705e+03,1.341893e+03
1.518669e+03,1.337544e+03
1.519634e+03,1.335927e+03
1.520598e+03,1.336716e+03
1.521562e+03,1.338254e+03
1.522526e+03,1.340094e+03
1.523490e+03,1.341265e+03
1.524455e+03,1.341748e+03
1.525419e+03,1.340660e+03
1.526383e+03,1.335211e+03
1.527347e+03,1.329679e+03
1.528312e+03,1.329726e+03
1.529276e+03,1.334193e+03
1.530240e+03,1.335088e+03
1.531204e+03,1.329700e+03
1.532169e+03,1.325739e+03
1.533133e+03,1.323741e+03
1.534097e+03,1.323566e+03
1.535061e+03,1.326083e+03
1.536026e+03,1.329094e+03
1.536990e+03,1.328022e+03
1.537954e+03,1.325127e+03
1.538918e+03,1.324720e+03
1.539882e+03,1.328005e+03
1.540847e+03,1.330833e+03
1.541811e+03,1.332789e+03
1.542775e+03,1.331965e+03
1.543739e+03,1.327069e+03
1.544704e+03,1.321360e+03
1.545668e+03,1.320908e+03
1.546632e+03,1.324408e+03
1.547596e+03,1.323878e+03
1.548561e+03,1.319931e+03
1.549525e+03,1.319269e+03
1.550489e+03,1.329577e+03
1.551453e+03,1.337285e+03
1.552417e+03,1.332137e+03
1.553382e+03,1.325109e+03
1.554346e+03,1.326659e+03
1.555310e+03,1.335453e+03
1.556274e+03,1.337273e+03
1.557239e+03,1.332131e+03
1.558203e+03,1.326375e+03
1.559167e+03,1.321415e+03
1.560131e+03,1.318041e+03
1.561096e+03,1.318281e+03
1.562060e+03,1.319516e+03
1.563024e+03,1.319154e+03
1.563988e+03,1.318119e+03
1.564953e+03,1.318583e+03
1.565917e+03,1.320699e+03
1.566881e+03,1.324356e+03
1.567845e+03,1.329747e+03
1.568809e+03,1.332489e+03
1.569774e+03,1.329497e+03
1.570738e+03,1.324595e+03
1.571702e+03,1.321965e+03
1.572666e+03,1.321064e+03
1.573631e+03,1.322149e+03
1.574595e+03,1.325487e+03
1.575559e+03,1.326559e+03
1.576523e+03,1.324081e+03
1.577488e+03,1.321822e+03
1.578452e+03,1.319094e+03
1.579416e+03,1.318469e+03
1.580380e+03,1.326438e+03
1.581344e+03,1.337022e+03
1.582309e+03,1.337282e+03
1.583273e+03,1.331054e+03
1.584237e+03,1.327800e+03
1.585201e+03,1.332908e+03
1.586166e+03,1.333662e+03
1.587130e+03,1.325153e+03
1.588094e+03,1.318466e+03
1.589058e+03,1.319635e+03
1.590023e+03,1.324246e+03
1.590987e+03,1.323410e+03
1.591951e+03,1.319005e+03
1.592915e+03,1.313344e+03
1.593880e+03,1.306535e+03
1.594844e+03,1.301225e+03
1.595808e+03,1.301200e+03
1.596772e+03,1.299308e+03
1.597736e+03,1.293350e+03
1.598701e+03,1.287455e+03
1.599665e+03,1.285227e+03
1.600629e+03,1.285727e+03
1.601593e+03,1.284885e+03
1.602558e+03,1.283381e+03
1.603522e+03,1.283709e+03
1.604486e+03,1.286980e+03
1.605450e+03,1.289056e+03
1.606415e+03,1.286813e+03
1.607379e+03,1.285956e+03
1.608343e+03,1.289458e+03
1.609307e+03,1.293949e+03
1.610271e+03,1.293115e+03
1.611236e+03,1.287939e+03
1.612200e+03,1.282669e+03
1.613164e+03,1.278446e+03
1.614128e+03,1.277401e+03
1.615093e+03,1.284724e+03
1.616057e+03,1.289047e+03
1.617021e+03,1.283216e+03
1.617985e+03,1.276023e+03
1.618950e+03,1.273521e+03
1.619914e+03,1.274051e+03
1.620878e+03,1.269946e+03
1.621842e+03,1.262878e+03
1.622807e+03,1.259163e+03
1.623771e+03,1.260343e+03
1.624735e+03,1.261498e+03
1.625699e+03,1.257878e+03
1.626663e+03,1.255523e+03
1.627628e+03,1.257375e+03
1.628592e+03,1.259552e+03
1.629556e+03,1.257235e+03
1.630520e+03,1.252182e+03
1.631485e+03,1.251874e+03
1.632449e+03,1.255229e+03
1.633413e+03,1.257826e+03
1.634377e+03,1.258011e+03
1.635342e+03,1.257472e+03
1.636306e+03,1.258239e+03
1.637270e+03,1.256578e+03
1.638234e+03,1.249394e+03
1.639198e+03,1.240203e+03
1.640163e+03,1.236830e+03
1.641127e+03,1.238308e+03
1.642091e+03,1.241531e+03
1.643055e+03,1.245278e+03
1.644020e+03,1.246876e+03
1.644984e+03,1.241809e+03
1.645948e+03,1.238418e+03
1.646912e+03,1.239257e+03
1.647877e+03,1.241503e+03
1.648841e+03,1.243392e+03
1.649805e+03,1.244779e+03
1.650769e+03,1.244515e+03
1.651734e+03,1.242947e+03
1.652698e+03,1.241560e+03
1.653662e+03,1.240591e+03
1.654626e+03,1.237330e+03
1.655590e+03,1.227577e+03
1.656555e+03,1.222138e+03
1.657519e+03,1.225554e+03
1.658483e+03,1.232471e+03
1.659447e+03,1.235509e+03
1.660412e+03,1.235039e+03
1.661376e+03,1.231965e+03
1.662340e+03,1.227405e+03
1.663304e+03,1.223372e+03
1.664269e+03,1.218316e+03
1.665233e+03,1.217023e+03
1.666197e+03,1.220945e+03
1.667161e+03,1.222007e+03
1.668125e+03,1.214065e+03
1.669090e+03,1.205396e+03
1.670054e+03,1.212082e+03
1.671018e+03,1.224107e+03
1.671982e+03,1.227605e+03
1.672947e+03,1.221747e+03
1.673911e+03,1.219522e+03
1.674875e+03,1.222354e+03
1.675839e+03,1.221596e+03
1.676804e+03,1.216386e+03
1.677768e+03,1.210951e+03
1.678732e+03,1.207668e+03
1.679696e+03,1.205964e+03
1.680661e+03,1.205678e+03
1.681625e+03,1.205977e+03
1.682589e+03,1.206502e+03
1.683553e+03,1.207638e+03
1.684517e+03,1.211179e+03
1.685482e+03,1.216796e+03
1.686446e+03,1.219656e+03
1.687410e+03,1.217960e+03
1.688374e+03,1.215179e+03
1.689339e+03,1.213520e+03
1.690303e+03,1.211875e+03
1.691267e+03,1.209712e+03
1.692231e+03,1.207189e+03
1.693196e+03,1.203831e+03
1.694160e+03,1.199485e+03
1.695124e+03,1.195113e+03
1.696088e+03,1.191379e+03
1.697052e+03,1.190363e+03
1.698017e+03,1.194101e+03
1.698981e+03,1.196905e+03
1.699945e+03,1.196862e+03
1.700909e+03,1.195215e+03
1.701874e+03,1.193213e+03
1.702838e+03,1.191710e+03
1.703802e+03,1.190690e+03
1.704766e+03,1.189948e+03
1.705731e+03,1.190463e+03
1.706695e+03,1.192531e+03
1.707659e+03,1.195171e+03
1.708623e+03,1.199003e+03
1.709588e+03,1.203144e+03
1.710552e+03,1.207304e+03
1.711516e+03,1.208606e+03
1.712480e+03,1.203242e+03
1.713444e+03,1.195406e+03
1.714409e+03,1.189587e+03
1.715373e+03,1.185255e+03
1.716337e+03,1.180322e+03
1.717301e+03,1.174906e+03
1.718266e+03,1.177864e+03
1.719230e+03,1.188610e+03
1.720194e+03,1.194669e+03
1.721158e+03,1.192246e+03
1.722123e+03,1.186230e+03
1.723087e+03,1.174817e+03
1.724051e+03,1.167363e+03
1.725015e+03,1.170836e+03
1.725979e+03,1.178634e+03
1.726944e+03,1.181005e+03
1.727908e+03,1.179192e+03
1.728872e+03,1.178206e+03
1.729836e+03,1.177585e+03
1.730801e+03,1.176503e+03
1.731765e+03,1.175247e+03
1.732729e+03,1.172318e+03
1.733693e+03,1.165923e+03
1.734658e+03,1.163345e+03
1.735622e+03,1.169481e+03
1.736586e+03,1.176448e+03
1.737550e+03,1.170213e+03
1.738515e+03,1.160063e+03
1.739479e+03,1.158377e+03
1.740443e+03,1.164035e+03
1.741407e+03,1.164332e+03
1.742371e+03,1.158434e+03
1.743336e+03,1.154697e+03
1.744300e+03,1.153751e+03
1.745264e+03,1.154344e+03
1.746228e+03,1.158359e+03
1.747193e+03,1.161575e+03
1.748157e+03,1.161129e+03
1.749121e+03,1.160934e+03
1.750085e+03,1.162840e+03
1.751050e+03,1.164821e+03
1.752014e+03,1.162608e+03
1.752978e+03,1.158408e+03
1.753942e+03,1.157978e+03
1.754906e+03,1.162119e+03
1.755871e+03,1.161328e+03
1.756835e+03,1.150588e+03
1.757799e+03,1.141673e+03
1.758763e+03,1.137674e+03
1.759728e+03,1.136629e+03
1.760692e+03,1.136855e+03
1.761656e+03,1.138469e+03
1.762620e+03,1.143345e+03
1.763585e+03,1.147756e+03
1.764549e+03,1.145199e+03
1.765513e+03,1.135523e+03
1.766477e+03,1.136199e+03
1.767442e+03,1.145509e+03
1.768406e+03,1.150933e+03
1.769370e+03,1.148324e+03
1.770334e+03,1.145084e+03
1.771298e+03,1.144600e+03
1.772263e+03,1.142046e+03
1.773227e+03,1.135150e+03
1.774191e+03,1.129073e+03
1.775155e+03,1.133123e+03
1.776120e+03,1.140418e+03
1.777084e+03,1.140457e+03
1.778048e+03,1.135266e+03
1.779012e+03,1.131142e+03
1.779977e+03,1.128692e+03
1.780941e+03,1.128894e+03
1.781905e+03,1.131148e+03
1.782869e+03,1.131057e+03
1.783833e+03,1.125070e+03
1.784798e+03,1.121972e+03
1.785762e+03,1.132608e+03
1.786726e+03,1.140474e+03
1.787690e+03,1.136708e+03
1.788655e+03,1.127649e+03
1.789619e+03,1.124893e+03
1.790583e+03,1.125583e+03
1.791547e+03,1.123667e+03
1.792512e+03,1.119343e+03
1.793476e+03,1.115490e+03
1.794440e+03,1.111119e+03
1.795404e+03,1.110409e+03
1.796369e+03,1.113294e+03
1.797333e+03,1.116952e+03
1.798297e+03,1.121038e+03
1.799261e+03,1.123489e+03
1.800225e+03,1.120497e+03
1.801190e+03,1.117032e+03
1.802154e+03,1.117200e+03
1.803118e+03,1.119071e+03
1.804082e+03,1.118679e+03
1.805047e+03,1.116561e+03
1.806011e+03,1.112001e+03
1.806975e+03,1.105360e+03
1.807939e+03,1.101858e+03
1.808904e+03,1.101695e+03
1.809868e+03,1.104919e+03
1.810832e+03,1.112131e+03
1.811796e+03,1.118401e+03
1.812760e+03,1.120177e+03
1.813725e+03,1.119168e+03
1.814689e+03,1.114302e+03
1.815653e+03,1.109353e+03
1.816617e+03,1.107352e+03
1.817582e+03,1.107406e+03
1.818546e+03,1.107104e+03
1.819510e+03,1.106043e+03
1.820474e+03,1.102961e+03
1.821439e+03,1.097937e+03
1.822403e+03,1.095701e+03
1.823367e+03,1.097444e+03
1.824331e+03,1.097897e+03
1.825296e+03,1.095942e+03
1.826260e+03,1.092108e+03
1.827224e+03,1.084194e+03
1.828188e+03,1.079703e+03
1.829152e+03,1.084850e+03
1.830117e+03,1.091650e+03
1.831081e+03,1.093723e+03
1.832045e+03,1.092339e+03
1.833009e+03,1.093847e+03
1.833974e+03,1.095958e+03
1.834938e+03,1.090627e+03
1.835902e+03,1.074692e+03
1.836866e+03,1.069646e+03
1.837831e+03,1.076406e+03
1.838795e+03,1.078813e+03
1.839759e+03,1.073748e+03
1.840723e+03,1.069872e+03
1.841688e+03,1.073743e+03
1.842652e+03,1.078452e+03
1.843616e+03,1.081326e+03
1.844580e+03,1.082907e+03
1.845544e+03,1.084338e+03
1.846509e+03,1.085508e+03
1.847473e+03,1.087306e+03
1.848437e+03,1.087821e+03
1.849401e+03,1.081679e+03
1.850366e+03,1.069167e+03
1.851330e+03,1.064683e+03
1.852294e+03,1.067639e+03
1.853258e+03,1.070035e+03
1.854223e+03,1.069755e+03
1.855187e+03,1.069209e+03
1.856151e+03,1.068499e+03
1.857115e+03,1.068146e+03
1.858079e+03,1.068114e+03
1.859044e+03,1.068315e+03
1.860008e+03,1.069937e+03
1.860972e+03,1.071499e+03
1.861936e+03,1.071579e+03
1.862901e+03,1.070273e+03
1.863865e+03,1.066989e+03
1.864829e+03,1.061451e+03
1.865793e+03,1.055859e+03
1.866758e+03,1.051687e+03
1.867722e+03,1.053608e+03
1.868686e+03,1.064719e+03
1.869650e+03,1.067457e+03
1.870615e+03,1.058837e+03
1.871579e+03,1.050937e+03
1.872543e+03,1.047155e+03
1.873507e+03,1.046872e+03
1.874471e+03,1.051348e+03
1.875436e+03,1.054725e+03
1.876400e+03,1.055280e+03
1.877364e+03,1.053469e+03
1.878328e+03,1.047131e+03
1.879293e+03,1.040236e+03
1.880257e+03,1.042407e+03
1.881221e+03,1.048821e+03
1.882185e+03,1.049003e+03
1.883150e+03,1.042523e+03
1.884114e+03,1.044344e+03
1.885078e+03,1.052360e+03
1.886042e+03,1.052211e+03
1.887006e+03,1.038016e+03
1.887971e+03,1.030325e+03
1.888935e+03,1.039720e+03
1.889899e+03,1.047226e+03
1.890863e+03,1.047822e+03
1.891828e+03,1.046308e+03
1.892792e+03,1.050378e+03
1.893756e+03,1.052288e+03
1.894720e+03,1.043513e+03
1.895685e+03,1.032982e+03
1.896649e+03,1.029003e+03
1.897613e+03,1.029524e+03
1.898577e+03,1.029330e+03
1.899542e+03,1.029275e+03
1.900506e+03,1.031641e+03
1.901470e+03,1.037020e+03
1.902434e+03,1.037675e+03
1.903398e+03,1.033869e+03
1.904363e+03,1.029738e+03
1.905327e+03,1.026236e+03
1.906291e+03,1.025130e+03
1.907255e+03,1.027898e+03
1.908220e+03,1.031666e+03
1.909184e+03,1.036587e+03
1.910148e+03,1.039719e+03
1.911112e+03,1.038312e+03
1.912077e+03,1.034648e+03
1.913041e+03,1.028761e+03
1.914005e+03,1.023118e+03
1.914969e+03,1.020340e+03
1.915933e+03,1.019678e+03
1.916898e+03,1.019022e+03
1.917862e+03,1.018234e+03
1.918826e+03,1.016228e+03
1.919790e+03,1.013069e+03
1.920755e+03,1.011527e+03
1.921719e+03,1.010976e+03
1.922683e+03,1.010721e+03
1.923647e+03,1.011014e+03
1.924612e+03,1.009882e+03
1.925576e+03,1.003798e+03
1.926540e+03,1.001033e+03
1.927504e+03,1.002693e+03
1.928469e+03,1.004387e+03
1.929433e+03,9.992674e+02
1.930397e+03,9.959096e+02
1.931361e+03,1.005306e+03
1.932325e+03,1.014608e+03
1.933290e+03,1.012770e+03
1.934254e+03,1.005775e+03
1.935218e+03,1.007655e+03
1.936182e+03,1.012237e+03
1.937147e+03,1.009842e+03
1.938111e+03,1.001199e+03
1.939075e+03,9.948358e+02
1.940039e+03,9.910159e+02
1.941004e+03,9.881091e+02
1.941968e+03,9.853398e+02
1.942932e+03,9.852151e+02
1.943896e+03,9.907097e+02
1.944860e+03,9.929098e+02
1.945825e+03,9.912766e+02
1.946789e+03,9.894587e+02
1.947753e+03,9.881712e+02
1.948717e+03,9.891456e+02
1.949682e+03,9.947158e+02
1.950646e+03,9.993284e+02
1.951610e+03,9.998391e+02
1.952574e+03,9.974030e+02
1.953539e+03,9.921960e+02
1.954503e+03,9.860375e+02
1.955467e+03,9.802706e+02
1.956431e+03,9.760823e+02
1.957396e+03,9.784527e+02
1.958360e+03,9.834004e+02
1.959324e+03,9.797495e+02
1.960288e+03,9.692640e+02
1.961252e+03,9.666986e+02
1.962217e+03,9.731411e+02
1.963181e+03,9.720551e+02
1.964145e+03,9.637686e+02
1.965109e+03,9.603150e+02
1.966074e+03,9.748445e+02
1.967038e+03,9.797996e+02
1.968002e+03,9.702113e+02
1.968966e+03,9.633774e+02
1.969931e+03,9.693588e+02
1.970895e+03,9.747545e+02
1.971859e+03,9.655308e+02
1.972823e+03,9.611794e+02
1.973787e+03,9.717453e+02
1.974752e+03,9.852287e+02
1.975716e+03,9.852787e+02
1.976680e+03,9.781472e+02
1.977644e+03,9.692883e+02
1.978609e+03,9.603266e+02
1.979573e+03,9.510776e+02
1.980537e+03,9.427082e+02
1.981501e+03,9.408665e+02
1.982466e+03,9.442918e+02
1.983430e+03,9.493065e+02
1.984394e+03,9.554271e+02
1.985358e+03,9.602471e+02
1.986323e+03,9.633666e+02
1.987287e+03,9.626375e+02
1.988251e+03,9.564754e+02
1.989215e+03,9.508472e+02
1.990179e+03,9.463935e+02
1.991144e+03,9.445761e+02
1.992108e+03,9.462219e+02
1.993072e+03,9.492154e+02
1.994036e+03,9.534086e+02
1.995001e+03,9.554330e+02
1.995965e+03,9.540421e+02
1.996929e+03,9.521671e+02
1.997893e+03,9.520406e+02
1.998858e+03,9.520790e+02
1.999822e+03,9.503405e+02
2.000786e+03,9.488239e+02
2.001750e+03,9.505851e+02
2.002714e+03,9.543331e+02
2.003679e+03,9.569716e+02
2.004643e+03,9.569549e+02
2.005607e+03,9.504366e+02
2.006571e+03,9.401525e+02
2.007536e+03,9.353233e+02
2.008500e+03,9.348788e+02
2.009464e+03,9.351429e+02
2.010428e+03,9.360831e+02
2.011393e+03,9.402955e+02
2.012357e+03,9.483879e+02
2.013321e+03,9.484557e+02
2.014285e+03,9.398405e+02
2.015250e+03,9.329037e+02
2.016214e+03,9.346580e+02
2.017178e+03,9.350801e+02
2.018142e+03,9.339999e+02
2.019106e+03,9.311953e+02
2.020071e+03,9.248215e+02
2.021035e+03,9.205076e+02
2.021999e+03,9.217186e+02
2.022963e+03,9.239468e+02
2.023928e+03,9.265816e+02
2.024892e+03,9.279176e+02
2.025856e+03,9.253535e+02
2.026820e+03,9.209202e+02
2.027785e+03,9.145905e+02
2.028749e+03,9.093813e+02
2.029713e+03,9.119819e+02
2.030677e+03,9.171773e+02
2.031641e+03,9.165828e+02
2.032606e+03,9.137425e+02
2.033570e+03,9.164860e+02
2.034534e+03,9.222234e+02
2.035498e+03,9.187368e+02
2.036463e+03,9.102009e+02
2.037427e+03,9.063087e+02
2.038391e+03,9.080390e+02
2.039355e+03,9.087740e+02
2.040320e+03,9.088302e+02
2.041284e+03,9.089065e+02
2.042248e+03,9.088427e+02
2.043212e+03,9.078942e+02
2.044177e+03,9.061498e+02
2.045141e+03,9.077731e+02
2.046105e+03,9.130128e+02
2.047069e+03,9.147062e+02
2.048033e+03,9.044805e+02
2.048998e+03,8.994073e+02
2.049962e+03,9.015826e+02
2.050926e+03,9.025943e+02
2.051890e+03,8.928467e+02
2.052854e+03,8.875738e+02
2.053819e+03,8.926066e+02
2.054783e+03,8.966271e+02
2.055747e+03,8.940088e+02
2.056711e+03,8.899278e+02
2.057676e+03,8.879349e+02
2.058640e+03,8.877252e+02
2.059604e+03,8.884122e+02
2.060568e+03,8.897947e+02
2.061533e+03,8.950192e+02
2.062497e+03,8.984760e+02
2.063461e+03,8.911984e+02
2.064425e+03,8.814589e+02
2.065390e+03,8.814363e+02
2.066354e+03,8.865032e+02
2.067318e+03,8.906741e+02
2.068282e+03,8.921659e+02
2.069247e+03,8.872304e+02
2.070211e+03,8.773300e+02
2.071175e+03,8.729806e+02
2.072139e+03,8.730959e+02
2.073104e+03,8.758781e+02
2.074068e+03,8.807936e+02
2.075032e+03,8.826004e+02
2.075996e+03,8.813778e+02
2.076960e+03,8.776313e+02
2.077925e+03,8.716047e+02
2.078889e+03,8.742335e+02
2.079853e+03,8.864628e+02
2.080817e+03,8.874208e+02
2.081782e+03,8.754552e+02
2.082746e+03,8.677925e+02
2.083710e+03,8.748077e+02
2.084674e+03,8.757982e+02
2.085639e+03,8.701639e+02
2.086603e+03,8.661234e+02
2.087567e+03,8.670861e+02
2.088531e+03,8.698301e+02
2.089496e+03,8.742805e+02
2.090460e+03,8.740362e+02
2.091424e+03,8.653198e+02
2.092388e+03,8.601163e+02
2.093353e+03,8.701845e+02
2.094317e+03,8.762717e+02
2.095281e+03,8.708005e+02
2.096245e+03,8.633986e+02
2.097209e+03,8.659506e+02
2.098174e+03,8.664783e+02
2.099138e+03,8.593284e+02
2.100102e+03,8.511641e+02
2.101066e+03,8.485339e+02
2.102031e+03,8.487158e+02
2.102995e+03,8.514313e+02
2.103959e+03,8.535154e+02
2.104923e+03,8.520052e+02
2.105887e+03,8.492563e+02
2.106852e+03,8.457599e+02
2.107816e+03,8.437471e+02
2.108780e+03,8.472513e+02
2.109744e+03,8.526991e+02
2.110708e+03,8.510307e+02
2.111673e+03,8.468476e+02
2.112637e+03,8.466611e+02
2.113601e+03,8.478702e+02
2.114565e+03,8.450245e+02
2.115530e+03,8.393981e+02
2.116494e+03,8.305211e+02
2.117458e+03,8.233420e+02
2.118422e+03,8.306833e+02
2.119387e+03,8.479732e+02
2.120351e+03,8.513005e+02
2.121315e+03,8.440572e+02
2.122279e+03,8.430354e+02
2.123244e+03,8.494651e+02
2.124208e+03,8.480371e+02
2.125172e+03,8.409958e+02
2.126136e+03,8.342335e+02
2.127101e+03,8.289976e+02
2.128065e+03,8.281048e+02
2.129029e+03,8.309436e+02
2.129993e+03,8.352877e+02
2.130958e+03,8.398482e+02
2.131922e+03,8.390988e+02
2.132886e+03,8.327478e+02
2.133850e+03,8.290166e+02
2.134814e+03,8.293751e+02
2.135779e+03,8.286541e+02
2.136743e+03,8.238812e+02
2.137707e+03,8.194606e+02
2.138671e+03,8.159876e+02
2.139636e+03,8.148531e+02
2.140600e+03,8.194354e+02
2.141564e+03,8.192365e+02
2.142528e+03,8.133781e+02
2.143493e+03,8.120168e+02
2.144457e+03,8.214486e+02
2.145421e+03,8.233574e+02
2.146385e+03,8.110381e+02
2.147350e+03,8.027382e+02
2.148314e+03,8.041619e+02
2.149278e+03,8.070546e+02
2.150242e+03,8.029940e+02
2.151207e+03,8.041214e+02
2.152171e+03,8.129714e+02
2.153135e+03,8.197339e+02
2.154099e+03,8.159649e+02
2.155063e+03,8.124512e+02
2.156028e+03,8.121268e+02
2.156992e+03,8.123293e+02
2.157956e+03,8.093370e+02
2.158920e+03,8.071851e+02
2.159885e+03,8.080651e+02
2.160849e+03,8.094083e+02
2.161813e+03,8.105480e+02
2.162777e+03,8.101473e+02
2.163741e+03,8.047857e+02
2.164706e+03,8.019777e+02
2.165670e+03,8.066257e+02
2.166634e+03,8.107322e+02
2.167598e+03,7.994509e+02
2.168563e+03,7.929596e+02
2.169527e+03,8.009489e+02
2.170491e+03,8.104267e+02
2.171455e+03,8.088405e+02
2.172420e+03,8.038211e+02
2.173384e+03,8.000093e+02
2.174348e+03,7.961375e+02
2.175312e+03,7.890637e+02
2.176277e+03,7.830405e+02
2.177241e+03,7.845662e+02
2.178205e+03,7.868867e+02
2.179169e+03,7.859860e+02
2.180134e+03,7.847258e+02
2.181098e+03,7.855516e+02
2.182062e+03,7.885670e+02
2.183026e+03,7.937521e+02
2.183990e+03,7.984567e+02
2.184955e+03,7.994280e+02
2.185919e+03,7.971973e+02
2.186883e+03,7.897885e+02
2.187847e+03,7.831675e+02
2.188812e+03,7.887024e+02
2.189776e+03,7.960862e+02
2.190740e+03,7.921788e+02
2.191704e+03,7.846788e+02
2.192668e+03,7.795879e+02
2.193633e+03,7.770908e+02
2.194597e+03,7.796603e+02
2.195561e+03,7.824832e+02
2.196525e+03,7.802302e+02
2.197490e+03,7.761181e+02
2.198454e+03,7.754803e+02
2.199418e+03,7.768214e+02
2.200382e+03,7.794341e+02
2.201347e+03,7.821565e+02
2.202311e+03,7.814340e+02
2.203275e+03,7.796749e+02
2.204239e+03,7.787660e+02
2.205204e+03,7.777747e+02
2.206168e+03,7.785399e+02
2.207132e+03,7.777999e+02
2.208096e+03,7.664376e+02
2.209061e+03,7.543592e+02
2.210025e+03,7.536479e+02
2.210989e+03,7.590828e+02
2.211953e+03,7.660477e+02
2.212917e+03,7.722859e+02
2.213882e+03,7.728564e+02
2.214846e+03,7.703215e+02
2.215810e+03,7.717135e+02
2.216774e+03,7.714010e+02
2.217739e+03,7.648612e+02
2.218703e+03,7.570264e+02
2.219667e+03,7.572009e+02
2.220631e+03,7.594581e+02
2.221595e+03,7.572577e+02
2.222560e+03,7.536845e+02
2.223524e+03,7.538608e+02
2.224488e+03,7.548954e+02
2.225452e+03,7.535862e+02
2.226417e+03,7.517736e+02
2.227381e+03,7.501524e+02
2.228345e+03,7.500929e+02
2.229309e+03,7.539806e+02
2.230274e+03,7.583994e+02
2.231238e+03,7.627785e+02
2.232202e+03,7.629754e+02
2.233166e+03,7.470480e+02
2.234131e+03,7.322683e+02
2.235095e+03,7.317598e+02
2.236059e+03,7.378962e+02
2.237023e+03,7.401554e+02
2.237988e+03,7.424673e+02
2.238952e+03,7.484542e+02
2.239916e+03,7.529648e+02
2.240880e+03,7.489057e+02
2.241844e+03,7.419606e+02
2.242809e+03,7.343962e+02
2.243773e+03,7.298684e+02
2.244737e+03,7.346046e+02
2.245701e+03,7.401113e+02
2.246666e+03,7.388743e+02
2.247630e+03,7.358406e+02
2.248594e+03,7.354420e+02
2.249558e+03,7.348696e+02
2.250522e+03,7.275588e+02
2.251487e+03,7.239920e+02
2.252451e+03,7.298753e+02
2.253415e+03,7.369071e+02
2.254379e+03,7.383432e+02
2.255344e+03,7.377675e+02
2.256308e+03,7.368735e+02
2.257272e+03,7.348574e+02
2.258236e+03,7.286995e+02
2.259201e+03,7.246378e+02
2.260165e+03,7.241980e+02
2.261129e+03,7.260756e+02
2.262093e+03,7.338891e+02
2.263058e+03,7.342812e+02
2.264022e+03,7.228724e+02
2.264986e+03,7.146537e+02
2.265950e+03,7.229983e+02
2.266915e+03,7.283948e+02
2.267879e+03,7.238109e+02
2.268843e+03,7.194577e+02
2.269807e+03,7.216939e+02
2.270771e+03,7.212789e+02
2.271736e+03,7.130974e+02
2.272700e+03,7.102021e+02
2.273664e+03,7.161172e+02
2.274628e+03,7.213728e+02
2.275593e+03,7.216229e+02
2.276557e+03,7.201628e+02
2.277521e+03,7.179835e+02
2.278485e+03,7.158942e+02
2.279449e+03,7.139117e+02
2.280414e+03,7.128661e+02
2.281378e+03,7.126625e+02
2.282342e+03,7.121568e+02
2.283306e+03,7.106696e+02
2.284271e+03,7.066381e+02
2.285235e+03,7.002303e+02
2.286199e+03,6.958012e+02
2.287163e+03,6.968474e+02
2.288128e+03,6.950039e+02
2.289092e+03,6.901605e+02
2.290056e+03,6.884174e+02
2.291020e+03,6.916895e+02
2.291985e+03,6.998879e+02
2.292949e+03,7.115399e+02
2.293913e+03,7.068389e+02
2.294877e+03,6.866373e+02
2.295842e+03,6.860917e+02
2.296806e+03,7.025158e+02
2.297770e+03,7.092159e+02
2.298734e+03,7.062641e+02
2.299698e+03,7.020555e+02
2.300663e+03,6.979267e+02
2.301627e+03,6.989634e+02
2.302591e+03,7.017634e+02
2.303555e+03,6.979940e+02
2.304520e+03,6.897784e+02
2.305484e+03,6.874205e+02
2.306448e+03,6.875699e+02
2.307412e+03,6.823917e+02
2.308376e+03,6.758190e+02
2.309341e+03,6.827272e+02
2.310305e+03,6.928705e+02
2.311269e+03,6.920950e+02
2.312233e+03,6.866765e+02
2.313198e+03,6.844773e+02
2.314162e+03,6.843146e+02
2.315126e+03,6.853165e+02
2.316090e+03,6.875769e+02
2.317055e+03,6.950982e+02
2.318019e+03,7.002265e+02
2.318983e+03,6.926508e+02
2.319947e+03,6.836833e+02
2.320912e+03,6.820643e+02
2.321876e+03,6.825869e+02
2.322840e+03,6.821466e+02
2.323804e+03,6.796277e+02
2.324769e+03,6.735408e+02
2.325733e+03,6.686597e+02
2.326697e+03,6.683032e+02
2.327661e+03,6.688992e+02
2.328625e+03,6.689540e+02
2.329590e+03,6.697071e+02
2.330554e+03,6.738575e+02
2.331518e+03,6.766560e+02
2.332482e+03,6.773711e+02
2.333447e+03,6.750804e+02
2.334411e+03,6.666345e+02
2.335375e+03,6.625367e+02
2.336339e+03,6.632394e+02
2.337303e+03,6.643074e+02
2.338268e+03,6.637620e+02
2.339232e+03,6.626642e+02
2.340196e+03,6.615194e+02
2.341160e+03,6.628890e+02
2.342125e+03,6.678562e+02
2.343089e+03,6.675070e+02
2.344053e+03,6.626630e+02
2.345017e+03,6.601083e+02
2.345982e+03,6.608576e+02
2.346946e+03,6.624564e+02
2.347910e+03,6.646962e+02
2.348874e+03,6.650815e+02
2.349839e+03,6.636880e+02
2.350803e+03,6.632479e+02
2.351767e+03,6.632833e+02
2.352731e+03,6.620831e+02
2.353696e+03,6.607740e+02
2.354660e+03,6.605492e+02
2.355624e+03,6.603447e+02
2.356588e+03,6.595842e+02
2.357552e+03,6.581512e+02
2.358517e+03,6.548658e+02
2.359481e+03,6.523009e+02
2.360445e+03,6.550580e+02
2.361409e+03,6.567327e+02
2.362374e+03,6.537446e+02
2.363338e+03,6.494823e+02
2.364302e+03,6.482171e+02
2.365266e+03,6.463484e+02
2.366230e+03,6.417319e+02
2.367195e+03,6.396194e+02
2.368159e+03,6.467287e+02
2.369123e+03,6.484265e+02
2.370087e+03,6.430867e+02
2.371052e+03,6.392880e+02
2.372016e+03,6.415105e+02
2.372980e+03,6.447628e+02
2.373944e+03,6.483763e+02
2.374909e+03,6.505692e+02
2.375873e+03,6.506921e+02
2.376837e+03,6.512512e+02
2.377801e+03,6.517489e+02
2.378766e+03,6.481332e+02
2.379730e+03,6.404836e+02
2.380694e+03,6.395059e+02
2.381658e+03,6.424034e+02
2.382623e+03,6.392424e+02
2.383587e+03,6.325641e+02
2.384551e+03,6.330030e+02
2.385515e+03,6.366466e+02
2.386479e+03,6.380596e+02
2.387444e+03,6.383906e+02
2.388408e+03,6.405935e+02
2.389372e+03,6.417441e+02
2.390336e+03,6.368845e+02
2.391301e+03,6.317443e+02
2.392265e+03,6.316274e+02
2.393229e+03,6.333879e+02
2.394193e+03,6.361586e+02
2.395157e+03,6.372589e+02
2.396122e+03,6.340349e+02
2.397086e+03,6.312256e+02
2.398050e+03,6.305703e+02
2.399014e+03,6.310165e+02
2.399979e+03,6.327077e+02
2.400943e+03,6.322521e+02
2.401907e+03,6.291232e+02
2.402871e+03,6.228420e+02
2.403836e+03,6.134777e+02
2.404800e+03,6.127731e+02
2.405764e+03,6.203650e+02
2.406728e+03,6.254077e+02
2.407693e+03,6.262883e+02
2.408657e+03,6.242610e+02
2.409621e+03,6.207375e+02
2.410585e+03,6.202200e+02
2.411550e+03,6.212226e+02
2.412514e+03,6.190174e+02
2.413478e+03,6.151400e+02
2.414442e+03,6.136106e+02
2.415406e+03,6.136313e+02
2.416371e+03,6.144103e+02
2.417335e+03,6.151400e+02
2.418299e+03,6.138298e+02
2.419263e+03,6.127785e+02
2.420228e+03,6.130363e+02
2.421192e+03,6.141381e+02
2.422156e+03,6.185270e+02
2.423120e+03,6.181735e+02
2.424084e+03,6.098593e+02
2.425049e+03,6.035275e+02
2.426013e+03,6.071902e+02
2.426977e+03,6.078793e+02
2.427941e+03,6.049475e+02
2.428906e+03,6.010378e+02
2.429870e+03,5.957566e+02
2.430834e+03,5.964586e+02
2.431798e+03,6.020445e+02
2.432763e+03,6.047739e+02
2.433727e+03,6.042004e+02
2.434691e+03,6.073519e+02
2.435655e+03,6.108094e+02
2.436620e+03,6.061744e+02
2.437584e+03,5.981531e+02
2.438548e+03,5.993014e+02
2.439512e+03,6.051057e+02
2.440477e+03,6.122332e+02
2.441441e+03,6.151885e+02
2.442405e+03,6.011639e+02
2.443369e+03,5.901777e+02
2.444333e+03,5.917716e+02
2.445298e+03,5.974166e+02
2.446262e+03,6.030576e+02
2.447226e+03,6.038449e+02
2.448190e+03,5.992338e+02
2.449155e+03,5.963021e+02
2.450119e+03,6.023969e+02
2.451083e+03,6.027870e+02
2.452047e+03,5.978839e+02
2.453011e+03,5.946599e+02
2.453976e+03,5.950745e+02
2.454940e+03,5.956693e+02
2.455904e+03,5.966251e+02
2.456868e+03,5.970400e+02
2.457833e+03,5.964769e+02
2.458797e+03,5.938044e+02
2.459761e+03,5.914894e+02
2.460725e+03,5.940427e+02
2.461690e+03,5.960547e+02
2.462654e+03,5.850545e+02
2.463618e+03,5.769725e+02
2.464582e+03,5.829614e+02
2.465547e+03,5.900120e+02
2.466511e+03,5.830697e+02
2.467475e+03,5.787576e+02
2.468439e+03,5.810496e+02
2.469404e+03,5.824635e+02
2.470368e+03,5.769740e+02
2.471332e+03,5.776571e+02
2.472296e+03,5.835299e+02
2.473260e+03,5.839868e+02
2.474225e+03,5.759120e+02
2.475189e+03,5.770172e+02
2.476153e+03,5.841391e+02
2.477117e+03,5.848837e+02
2.478082e+03,5.817257e+02
2.479046e+03,5.881998e+02
2.480010e+03,5.959199e+02
2.480974e+03,5.937020e+02
2.481938e+03,5.862531e+02
2.482903e+03,5.744492e+02
2.483867e+03,5.678593e+02
2.484831e+03,5.714141e+02
2.485795e+03,5.771906e+02
2.486760e+03,5.827258e+02
2.487724e+03,5.817620e+02
2.488688e+03,5.737780e+02
2.489652e+03,5.665296e+02
2.490617e+03,5.632497e+02
2.491581e+03,5.615599e+02
2.492545e+03,5.614701e+02
2.493509e+03,5.614883e+02
2.494474e+03,5.610413e+02
2.495438e+03,5.602963e+02
2.496402e+03,5.606163e+02
2.497366e+03,5.675794e+02
2.498331e+03,5.757825e+02
2.499295e+03,5.728348e+02
2.500259e+03,5.675777e+02
2.501223e+03,5.689994e+02
2.502188e+03,5.710940e+02
2.503152e+03,5.656573e+02
2.504116e+03,5.620440e+02
2.505080e+03,5.630650e+02
2.506044e+03,5.651918e+02
2.507009e+03,5.673434e+02
2.507973e+03,5.662120e+02
2.508937e+03,5.623282e+02
2.509901e+03,5.598344e+02
2.510865e+03,5.597745e+02
2.511830e+03,5.541740e+02
2.512794e+03,5.460719e+02
2.513758e+03,5.461649e+02
2.514722e+03,5.524764e+02
2.515687e+03,5.622460e+02
2.516651e+03,5.691209e+02
2.517615e+03,5.661699e+02
2.518579e+03,5.599017e+02
2.519544e+03,5.564252e+02
2.520508e+03,5.566411e+02
2.521472e+03,5.615482e+02
2.522436e+03,5.633060e+02
2.523401e+03,5.516190e+02
2.524365e+03,5.471872e+02
2.525329e+03,5.504201e+02
2.526293e+03,5.514466e+02
2.527258e+03,5.481295e+02
2.528222e+03,5.489850e+02
2.529186e+03,5.518332e+02
2.530150e+03,5.483990e+02
2.531115e+03,5.424064e+02
2.532079e+03,5.498224e+02
2.533043e+03,5.576354e+02
2.534007e+03,5.509593e+02
2.534971e+03,5.403927e+02
2.535936e+03,5.401307e+02
2.536900e+03,5.415649e+02
2.537864e+03,5.420484e+02
2.538828e+03,5.399357e+02
2.539792e+03,5.313058e+02
2.540757e+03,5.304245e+02
2.541721e+03,5.386080e+02
2.542685e+03,5.458923e+02
2.543649e+03,5.511435e+02
2.544614e+03,5.531212e+02
2.545578e+03,5.514044e+02
2.546542e+03,5.458189e+02
2.547506e+03,5.395438e+02
2.548471e+03,5.400689e+02
2.549435e+03,5.438707e+02
2.550399e+03,5.494351e+02
2.551363e+03,5.526283e+02
2.552328e+03,5.475333e+02
2.553292e+03,5.481042e+02
2.554256e+03,5.622389e+02
2.555220e+03,5.648896e+02
2.556185e+03,5.519946e+02
2.557149e+03,5.417282e+02
2.558113e+03,5.376067e+02
2.559077e+03,5.372148e+02
2.560042e+03,5.392940e+02
2.561006e+03,5.434711e+02
2.561970e+03,5.475447e+02
2.562934e+03,5.445589e+02
2.563898e+03,5.393694e+02
2.564863e+03,5.372914e+02
2.565827e+03,5.355620e+02
2.566791e+03,5.325706e+02
2.567755e+03,5.312648e+02
2.568719e+03,5.315995e+02
2.569684e+03,5.314901e+02
2.570648e+03,5.301936e+02
2.571612e+03,5.281525e+02
2.572576e+03,5.263304e+02
2.573541e+03,5.265613e+02
2.574505e+03,5.287275e+02
2.575469e+03,5.378594e+02
2.576433e+03,5.456618e+02
2.577398e+03,5.385323e+02
2.578362e+03,5.267258e+02
2.579326e+03,5.216132e+02
2.580290e+03,5.209576e+02
2.581255e+03,5.234263e+02
2.582219e+03,5.245763e+02
2.583183e+03,5.205585e+02
2.584147e+03,5.158295e+02
2.585112e+03,5.116009e+02
2.586076e+03,5.106223e+02
2.587040e+03,5.130046e+02
2.588004e+03,5.203190e+02
2.588969e+03,5.280212e+02
2.589933e+03,5.272341e+02
2.590897e+03,5.218447e+02
2.591861e+03,5.167327e+02
2.592825e+03,5.160660e+02
2.593790e+03,5.239995e+02
2.594754e+03,5.284724e+02
2.595718e+03,5.193275e+02
2.596682e+03,5.111839e+02
2.597646e+03,5.064810e+02
2.598611e+03,5.077175e+02
2.599575e+03,5.141175e+02
2.600539e+03,5.143090e+02
2.601503e+03,5.091178e+02
2.602468e+03,5.081690e+02
2.603432e+03,5.095763e+02
2.604396e+03,5.109973e+02
2.605360e+03,5.123857e+02
2.606325e+03,5.136387e+02
2.607289e+03,5.133572e+02
2.608253e+03,5.106075e+02
2.609217e+03,5.106505e+02
2.610182e+03,5.171647e+02
2.611146e+03,5.177906e+02
2.612110e+03,5.131108e+02
2.613074e+03,5.106666e+02
2.614039e+03,5.109124e+02
2.615003e+03,5.062735e+02
2.615967e+03,5.014528e+02
2.616931e+03,5.065661e+02
2.617896e+03,5.126761e+02
2.618860e+03,5.038228e+02
2.619824e+03,4.997461e+02
2.620788e+03,5.082282e+02
2.621752e+03,5.124652e+02
2.622717e+03,4.994348e+02
2.623681e+03,4.962651e+02
2.624645e+03,5.026474e+02
2.625609e+03,5.069066e+02
2.626573e+03,5.077910e+02
2.627538e+03,5.025195e+02
2.628502e+03,4.962101e+02
2.629466e+03,4.966485e+02
2.630430e+03,4.982781e+02
2.631395e+03,4.888038e+02
2.632359e+03,4.882079e+02
2.633323e+03,5.087176e+02
2.634287e+03,5.158291e+02
2.635252e+03,5.028848e+02
2.636216e+03,4.970810e+02
2.637180e+03,5.023066e+02
2.638144e+03,4.981256e+02
2.639109e+03,4.899151e+02
2.640073e+03,4.993423e+02
2.641037e+03,5.117635e+02
2.642001e+03,4.989765e+02
2.642966e+03,4.889286e+02
2.643930e+03,4.986551e+02
2.644894e+03,5.072219e+02
2.645858e+03,4.990557e+02
2.646823e+03,4.896880e+02
2.647787e+03,4.804480e+02
2.648751e+03,4.774564e+02
2.649715e+03,4.804516e+02
2.650679e+03,4.807555e+02
2.651644e+03,4.825519e+02
2.652608e+03,4.940768e+02
2.653572e+03,5.051486e+02
2.654536e+03,4.971096e+02
2.655500e+03,4.890941e+02
2.656465e+03,4.879703e+02
2.657429e+03,4.905331e+02
2.658393e+03,4.956364e+02
2.659357e+03,4.942542e+02
2.660322e+03,4.867324e+02
2.661286e+03,4.798996e+02
2.662250e+03,4.758498e+02
2.663214e+03,4.829941e+02
2.664179e+03,4.933143e+02
2.665143e+03,5.010759e+02
2.666107e+03,5.007032e+02
2.667071e+03,4.887045e+02
2.668036e+03,4.788676e+02
2.669000e+03,4.778875e+02
2.669964e+03,4.824596e+02
2.670928e+03,4.904092e+02
2.671893e+03,4.908838e+02
2.672857e+03,4.854955e+02
2.673821e+03,4.837815e+02
2.674785e+03,4.829000e+02
2.675750e+03,4.799149e+02
2.676714e+03,4.768524e+02
2.677678e+03,4.747182e+02
2.678642e+03,4.757262e+02
2.679606e+03,4.807401e+02
2.680571e+03,4.831633e+02
2.681535e+03,4.819238e+02
2.682499e+03,4.800775e+02
2.683463e+03,4.790829e+02
2.684427e+03,4.847245e+02
2.685392e+03,4.919121e+02
2.686356e+03,4.900639e+02
2.687320e+03,4.860165e+02
2.688284e+03,4.837662e+02
2.689249e+03,4.815912e+02
2.690213e+03,4.788548e+02
2.691177e+03,4.756858e+02
2.692141e+03,4.725499e+02
2.693106e+03,4.708251e+02
2.694070e+03,4.711120e+02
2.695034e+03,4.761597e+02
2.695998e+03,4.812824e+02
2.696963e+03,4.773739e+02
2.697927e+03,4.714395e+02
2.698891e+03,4.661312e+02
2.699855e+03,4.640982e+02
2.700820e+03,4.678954e+02
2.701784e+03,4.694971e+02
2.702748e+03,4.681322e+02
2.703712e+03,4.674417e+02
2.704677e+03,4.668744e+02
2.705641e+03,4.633814e+02
2.706605e+03,4.603792e+02
2.707569e+03,4.606314e+02
2.708533e+03,4.629995e+02
2.709498e+03,4.668577e+02
2.710462e+03,4.691418e+02
2.711426e+03,4.679669e+02
2.712390e+03,4.710366e+02
2.713354e+03,4.767567e+02
2.714319e+03,4.777716e+02
2.715283e+03,4.754030e+02
2.716247e+03,4.719226e+02
2.717211e+03,4.693617e+02
2.718176e+03,4.694225e+02
2.719140e+03,4.685790e+02
2.720104e+03,4.631537e+02
2.721068e+03,4.609094e+02
2.722033e+03,4.627027e+02
2.722997e+03,4.647939e+02
2.723961e+03,4.659888e+02
2.724925e+03,4.621444e+02
2.725890e+03,4.580793e+02
2.726854e+03,4.614174e+02
2.727818e+03,4.657901e+02
2.728782e+03,4.674050e+02
2.729747e+03,4.660602e+02
2.730711e+03,4.594565e+02
2.731675e+03,4.568914e+02
2.732639e+03,4.580752e+02
2.733604e+03,4.617322e+02
2.734568e+03,4.651450e+02
2.735532e+03,4.589164e+02
2.736496e+03,4.537010e+02
2.737460e+03,4.582198e+02
2.738425e+03,4.626059e+02
2.739389e+03,4.599644e+02
2.740353e+03,4.606041e+02
2.741317e+03,4.656898e+02
2.742281e+03,4.634419e+02
2.743246e+03,4.572511e+02
2.744210e+03,4.613264e+02
2.745174e+03,4.661585e+02
2.746138e+03,4.574604e+02
2.747103e+03,4.503754e+02
2.748067e+03,4.512782e+02
2.749031e+03,4.525178e+02
2.749995e+03,4.507317e+02
2.750960e+03,4.448164e+02
2.751924e+03,4.374911e+02
2.752888e+03,4.368969e+02
2.753852e+03,4.412322e+02
2.754817e+03,4.499265e+02
2.755781e+03,4.574970e+02
2.756745e+03,4.609703e+02
2.757709e+03,4.615185e+02
2.758674e+03,4.595145e+02
2.759638e+03,4.530252e+02
2.760602e+03,4.427460e+02
2.761566e+03,4.383211e+02
2.762531e+03,4.390888e+02
2.763495e+03,4.440324e+02
2.764459e+03,4.501463e+02
2.765423e+03,4.600538e+02
2.766387e+03,4.575443e+02
2.767352e+03,4.405050e+02
2.768316e+03,4.325812e+02
2.769280e+03,4.382484e+02
2.770244e+03,4.499434e+02
2.771208e+03,4.603919e+02
2.772173e+03,4.550396e+02
2.773137e+03,4.448352e+02
2.774101e+03,4.417563e+02
2.775065e+03,4.421140e+02
2.776030e+03,4.456799e+02
2.776994e+03,4.458287e+02
2.777958e+03,4.430763e+02
2.778922e+03,4.473647e+02
2.779887e+03,4.553637e+02
2.780851e+03,4.560051e+02
2.781815e+03,4.533961e+02
2.782779e+03,4.519477e+02
2.783744e+03,4.476152e+02
2.784708e+03,4.356913e+02
2.785672e+03,4.261624e+02
2.786636e+03,4.213341e+02
2.787601e+03,4.287148e+02
2.788565e+03,4.424682e+02
2.789529e+03,4.474795e+02
2.790493e+03,4.487022e+02
2.791458e+03,4.486997e+02
2.792422e+03,4.482716e+02
2.793386e+03,4.481588e+02
2.794350e+03,4.458664e+02
2.795314e+03,4.405147e+02
2.796279e+03,4.357285e+02
2.797243e+03,4.328709e+02
2.798207e+03,4.357100e+02
2.799171e+03,4.382394e+02
2.800135e+03,4.285957e+02
2.801100e+03,4.259424e+02
2.802064e+03,4.357632e+02
2.803028e+03,4.409881e+02
2.803992e+03,4.402154e+02
2.804957e+03,4.345710e+02
2.805921e+03,4.269624e+02
2.806885e+03,4.182867e+02
2.807849e+03,4.154710e+02
2.808814e+03,4.207361e+02
2.809778e+03,4.302494e+02
2.810742e+03,4.445840e+02
2.811706e+03,4.529990e+02
2.812671e+03,4.533436e+02
2.813635e+03,4.415376e+02
2.814599e+03,4.256512e+02
2.815563e+03,4.206442e+02
2.816528e+03,4.184018e+02
2.817492e+03,4.156197e+02
2.818456e+03,4.152842e+02
2.819420e+03,4.170098e+02
2.820385e+03,4.198414e+02
2.821349e+03,4.234655e+02
2.822313e+03,4.259948e+02
2.823277e+03,4.285329e+02
2.824241e+03,4.324437e+02
2.825206e+03,4.318514e+02
2.826170e+03,4.209593e+02
2.827134e+03,4.236649e+02
2.828098e+03,4.386065e+02
2.829063e+03,4.349633e+02
2.830027e+03,4.223033e+02
2.830991e+03,4.224780e+02
2.831955e+03,4.270617e+02
2.832919e+03,4.313555e+02
2.833884e+03,4.323322e+02
2.834848e+03,4.298863e+02
2.835812e+03,4.277521e+02
2.836776e+03,4.268567e+02
2.837741e+03,4.297541e+02
2.838705e+03,4.334779e+02
2.839669e+03,4.345016e+02
2.840633e+03,4.354603e+02
2.841598e+03,4.379851e+02
2.842562e+03,4.393829e+02
2.843526e+03,4.392728e+02
2.844490e+03,4.400553e+02
2.845455e+03,4.381336e+02
2.846419e+03,4.252209e+02
2.847383e+03,4.141625e+02
2.848347e+03,4.219336e+02
2.849312e+03,4.314480e+02
2.850276e+03,4.393999e+02
2.851240e+03,4.439393e+02
2.852204e+03,4.448632e+02
2.853168e+03,4.382296e+02
2.854133e+03,4.316088e+02
2.855097e+03,4.359746e+02
2.856061e+03,4.428639e+02
2.857025e+03,4.485628e+02
2.857990e+03,4.490107e+02
2.858954e+03,4.429916e+02
2.859918e+03,4.406798e+02
2.860882e+03,4.397441e+02
2.861846e+03,4.354678e+02
2.862811e+03,4.321614e+02
2.863775e+03,4.339770e+02
2.864739e+03,4.381705e+02
2.865703e+03,4.444368e+02
2.866668e+03,4.492722e+02
2.867632e+03,4.516134e+02
2.868596e+03,4.469546e+02
2.869560e+03,4.416525e+02
2.870525e+03,4.454695e+02
2.871489e+03,4.484293e+02
2.872453e+03,4.478452e+02
2.873417e+03,4.452637e+02
2.874382e+03,4.409377e+02
2.875346e+03,4.289997e+02
2.876310e+03,4.198817e+02
2.877274e+03,4.327112e+02
2.878239e+03,4.420667e+02
2.879203e+03,4.381007e+02
2.880167e+03,4.366332e+02
2.881131e+03,4.430064e+02
2.882095e+03,4.558053e+02
2.883060e+03,4.643995e+02
2.884024e+03,4.489053e+02
2.884988e+03,4.371944e+02
2.885952e+03,4.581332e+02
2.886917e+03,4.729328e+02
2.887881e+03,4.722236e+02
2.888845e+03,4.649380e+02
2.889809e+03,4.556019e+02
2.890773e+03,4.517296e+02
2.891738e+03,4.511443e+02
2.892702e+03,4.551362e+02
2.893666e+03,4.569518e+02
2.894630e+03,4.557504e+02
2.895595e+03,4.622143e+02
2.896559e+03,4.726129e+02
2.897523e+03,4.652440e+02
2.898487e+03,4.551572e+02
2.899452e+03,4.598674e+02
2.900416e+03,4.655834e+02
2.901380e+03,4.683762e+02
2.902344e+03,4.632424e+02
2.903309e+03,4.511597e+02
2.904273e+03,4.435306e+02
2.905237e+03,4.407711e+02
2.906201e+03,4.433669e+02
2.907166e+03,4.452773e+02
2.908130e+03,4.436940e+02
2.909094e+03,4.471744e+02
2.910058e+03,4.548445e+02
2.911022e+03,4.419249e+02
2.911987e+03,4.262067e+02
2.912951e+03,4.271112e+02
2.913915e+03,4.324264e+02
2.914879e+03,4.351117e+02
2.915844e+03,4.320693e+02
2.916808e+03,4.253910e+02
2.917772e+03,4.290776e+02
2.918736e+03,4.372327e+02
2.919700e+03,4.419653e+02
2.920665e+03,4.405467e+02
2.921629e+03,4.239999e+02
2.922593e+03,4.162509e+02
2.923557e+03,4.186850e+02
2.924522e+03,4.333706e+02
2.925486e+03,4.487237e+02
2.926450e+03,4.338474e+02
2.927414e+03,4.196070e+02
2.928379e+03,4.202890e+02
2.929343e+03,4.225255e+02
2.930307e+03,4.239554e+02
2.931271e+03,4.230653e+02
2.932236e+03,4.225898e+02
2.933200e+03,4.312717e+02
2.934164e+03,4.321284e+02
2.935128e+03,4.174677e+02
2.936093e+03,4.064025e+02
2.937057e+03,4.026356e+02
2.938021e+03,4.139029e+02
2.938985e+03,4.288865e+02
2.939949e+03,4.272747e+02
2.940914e+03,4.253635e+02
2.941878e+03,4.292916e+02
2.942842e+03,4.290833e+02
2.943806e+03,4.227883e+02
2.944771e+03,4.193396e+02
2.945735e+03,4.173653e+02
2.946699e+03,4.139248e+02
2.947663e+03,4.125286e+02
2.948627e+03,4.134815e+02
2.949592e+03,4.128339e+02
2.950556e+03,4.103768e+02
2.951520e+03,4.071074e+02
2.952484e+03,4.060287e+02
2.953449e+03,4.093354e+02
2.954413e+03,4.192242e+02
2.955377e+03,4.369630e+02
2.956341e+03,4.379641e+02
2.957306e+03,4.248443e+02
2.958270e+03,4.374760e+02
2.959234e+03,4.470187e+02
2.960198e+03,4.311666e+02
2.961163e+03,4.139185e+02
2.962127e+03,4.044783e+02
2.963091e+03,4.097253e+02
2.964055e+03,4.216877e+02
2.965020e+03,4.117182e+02
2.965984e+03,4.035063e+02
2.966948e+03,4.150737e+02
2.967912e+03,4.191385e+02
2.968876e+03,3.999775e+02
2.969841e+03,4.045102e+02
2.970805e+03,4.177958e+02
2.971769e+03,4.111718e+02
2.972733e+03,3.956790e+02
2.973698e+03,3.777481e+02
2.974662e+03,3.742692e+02
2.975626e+03,3.909165e+02
2.976590e+03,3.932702e+02
2.977554e+03,3.899654e+02
2.978519e+03,3.927203e+02
2.979483e+03,3.963988e+02
2.980447e+03,3.982851e+02
2.981411e+03,3.972017e+02
2.982376e+03,3.926323e+02
2.983340e+03,3.818508e+02
2.984304e+03,3.753295e+02
2.985268e+03,3.847208e+02
2.986233e+03,3.894405e+02
2.987197e+03,3.764597e+02
2.988161e+03,3.660447e+02
2.989125e+03,3.626036e+02
2.990090e+03,3.746270e+02
2.991054e+03,3.888733e+02
2.992018e+03,3.959156e+02
2.992982e+03,3.903481e+02
2.993947e+03,3.661655e+02
2.994911e+03,3.708950e+02
2.995875e+03,3.864496e+02
2.996839e+03,3.789664e+02
2.997803e+03,3.722455e+02
2.998768e+03,3.828761e+02
2.999732e+03,3.889020e+02
3.000696e+03,3.861631e+02
3.001660e+03,3.769113e+02
3.002625e+03,3.692124e+02
3.003589e+03,3.707482e+02
3.004553e+03,3.771175e+02
3.005517e+03,3.871248e+02
3.006481e+03,3.839316e+02
3.007446e+03,3.719559e+02
3.008410e+03,3.763807e+02
3.009374e+03,3.826435e+02
3.010338e+03,3.820875e+02
3.011303e+03,3.788179e+02
3.012267e+03,3.735217e+02
3.013231e+03,3.724451e+02
3.014195e+03,3.733120e+02
3.015160e+03,3.722856e+02
3.016124e+03,3.708712e+02
3.017088e+03,3.695515e+02
3.018052e+03,3.668125e+02
3.019017e+03,3.621984e+02
3.019981e+03,3.555802e+02
3.020945e+03,3.505058e+02
3.021909e+03,3.491225e+02
3.022874e+03,3.530709e+02
3.023838e+03,3.609946e+02
3.024802e+03,3.685147e+02
3.025766e+03,3.737847e+02
3.026730e+03,3.700706e+02
3.027695e+03,3.691772e+02
3.028659e+03,3.764576e+02
3.029623e+03,3.798391e+02
3.030587e+03,3.788645e+02
3.031552e+03,3.793156e+02
3.032516e+03,3.791730e+02
3.033480e+03,3.793266e+02
3.034444e+03,3.667564e+02
3.035408e+03,3.434096e+02
3.036373e+03,3.481279e+02
3.037337e+03,3.695940e+02
3.038301e+03,3.756403e+02
3.039265e+03,3.732701e+02
3.040230e+03,3.586346e+02
3.041194e+03,3.564041e+02
3.042158e+03,3.638076e+02
3.043122e+03,3.677973e+02
3.044087e+03,3.666290e+02
3.045051e+03,3.528140e+02
3.046015e+03,3.511098e+02
3.046979e+03,3.707868e+02
3.047944e+03,3.760154e+02
3.048908e+03,3.694757e+02
3.049872e+03,3.547870e+02
3.050836e+03,3.468584e+02
3.051801e+03,3.564296e+02
3.052765e+03,3.680747e+02
3.053729e+03,3.774710e+02
3.054693e+03,3.767939e+02
3.055657e+03,3.739793e+02
3.056622e+03,3.745334e+02
3.057586e+03,3.747990e+02
3.058550e+03,3.738112e+02
3.059514e+03,3.651564e+02
3.060479e+03,3.542437e+02
3.061443e+03,3.457310e+02
3.062407e+03,3.479522e+02
3.063371e+03,3.607168e+02
3.064335e+03,3.710976e+02
3.065300e+03,3.765385e+02
3.066264e+03,3.670060e+02
3.067228e+03,3.597349e+02
3.068192e+03,3.673487e+02
3.069157e+03,3.654887e+02
3.070121e+03,3.563508e+02
3.071085e+03,3.645659e+02
3.072049e+03,3.750951e+02
3.073014e+03,3.578476e+02
3.073978e+03,3.533317e+02
3.074942e+03,3.699642e+02
3.075906e+03,3.850951e+02
3.076871e+03,3.881328e+02
3.077835e+03,3.612476e+02
3.078799e+03,3.456562e+02
3.079763e+03,3.735391e+02
3.080728e+03,3.768765e+02
3.081692e+03,3.603398e+02
3.082656e+03,3.591548e+02
3.083620e+03,3.615186e+02
3.084584e+03,3.602871e+02
3.085549e+03,3.609049e+02
3.086513e+03,3.643249e+02
3.087477e+03,3.542623e+02
3.088441e+03,3.439839e+02
3.089406e+03,3.486246e+02
3.090370e+03,3.592903e+02
3.091334e+03,3.712210e+02
3.092298e+03,3.629006e+02
3.093262e+03,3.479199e+02
3.094227e+03,3.590737e+02
3.095191e+03,3.635587e+02
3.096155e+03,3.492657e+02
3.097119e+03,3.382439e+02
3.098084e+03,3.375145e+02
3.099048e+03,3.596887e+02
3.100012e+03,3.770646e+02
3.100976e+03,3.665084e+02
3.101941e+03,3.558941e+02
3.102905e+03,3.499431e+02
3.103869e+03,3.569166e+02
3.104833e+03,3.560385e+02
3.105798e+03,3.344197e+02
3.106762e+03,3.355270e+02
3.107726e+03,3.650794e+02
3.108690e+03,3.715966e+02
3.109655e+03,3.671553e+02
3.110619e+03,3.673864e+02
3.111583e+03,3.634280e+02
3.112547e+03,3.547084e+02
3.113511e+03,3.424893e+02
3.114476e+03,3.321626e+02
3.115440e+03,3.354975e+02
3.116404e+03,3.465535e+02
3.117368e+03,3.676093e+02
3.118333e+03,3.709945e+02
3.119297e+03,3.633899e+02
3.120261e+03,3.574232e+02
3.121225e+03,3.529034e+02
3.122189e+03,3.489341e+02
3.123154e+03,3.545114e+02
3.124118e+03,3.660153e+02
3.125082e+03,3.693942e+02
3.126046e+03,3.678857e+02
3.127011e+03,3.629727e+02
3.127975e+03,3.779828e+02
3.128939e+03,4.034293e+02
3.129903e+03,3.820244e+02
3.130868e+03,3.550871e+02
3.131832e+03,3.604492e+02
3.132796e+03,3.626422e+02
3.133760e+03,3.594919e+02
3.134725e+03,3.582550e+02
3.135689e+03,3.581395e+02
3.136653e+03,3.581358e+02
3.137617e+03,3.563417e+02
3.138582e+03,3.523578e+02
3.139546e+03,3.487888e+02
3.140510e+03,3.519851e+02
3.141474e+03,3.723501e+02
3.142438e+03,3.841518e+02
3.143403e+03,3.824600e+02
3.144367e+03,3.502282e+02
3.145331e+03,3.153036e+02
3.146295e+03,3.259384e+02
3.147260e+03,3.502357e+02
3.148224e+03,3.792797e+02
3.149188e+03,3.780982e+02
3.150152e+03,3.609909e+02
3.151116e+03,3.461173e+02
3.152081e+03,3.459924e+02
3.153045e+03,3.649339e+02
3.154009e+03,3.755953e+02
3.154973e+03,3.776131e+02
3.155938e+03,3.740879e+02
3.156902e+03,3.637099e+02
3.157866e+03,3.462413e+02
3.158830e+03,3.075585e+02
3.159795e+03,2.743575e+02
3.160759e+03,3.315209e+02
3.161723e+03,3.820301e+02
3.162687e+03,3.687977e+02
3.163652e+03,3.495551e+02
3.164616e+03,3.344638e+02
3.165580e+03,3.378357e+02
3.166544e+03,3.573575e+02
3.167509e+03,3.886110e+02
3.168473e+03,3.793748e+02
3.169437e+03,3.438785e+02
3.170401e+03,3.364743e+02
3.171365e+03,3.351907e+02
3.172330e+03,3.310575e+02
3.173294e+03,3.527933e+02
3.174258e+03,3.776927e+02
3.175222e+03,3.549433e+02
3.176187e+03,3.350023e+02
3.177151e+03,3.513150e+02
3.178115e+03,3.679244e+02
3.179079e+03,3.796240e+02
3.180043e+03,3.804914e+02
3.181008e+03,3.797711e+02
3.181972e+03,3.815973e+02
3.182936e+03,3.659917e+02
3.183900e+03,3.413298e+02
3.184865e+03,3.341632e+02
3.185829e+03,3.366838e+02
3.186793e+03,3.544878e+02
3.187757e+03,3.578705e+02
3.188722e+03,3.573042e+02
3.189686e+03,3.801181e+02
3.190650e+03,3.944161e+02
3.191614e+03,3.887769e+02
3.192579e+03,3.719425e+02
3.193543e+03,3.527451e+02
3.194507e+03,3.507759e+02
3.195471e+03,3.548603e+02
3.196436e+03,3.609946e+02
3.197400e+03,3.539112e+02
3.198364e+03,3.486423e+02
3.199328e+03,3.722613e+02
3.200292e+03,3.876109e+02
3.201257e+03,0.000000e+00
3.202221e+03,0.000000e+00
3.203185e+03,0.000000e+00
3.204149e+03,0.000000e+00
3.205114e+03,0.000000e+00
3.206078e+03,0.000000e+00
3.207042e+03,0.000000e+00
3.208006e+03,0.000000e+00
3.208970e+03,0.000000e+00
3.209935e+03,0.000000e+00
3.210899e+03,0.000000e+00
3.211863e+03,0.000000e+00
3.212827e+03,0.000000e+00
3.213792e+03,0.000000e+00
3.214756e+03,0.000000e+00
3.215720e+03,0.000000e+00
3.216684e+03,0.000000e+00
3.217649e+03,0.000000e+00
3.218613e+03,0.000000e+00
3.219577e+03,0.000000e+00
3.220541e+03,0.000000e+00
3.221506e+03,0.000000e+00
3.222470e+03,0.000000e+00
3.223434e+03,0.000000e+00
3.224398e+03,0.000000e+00
3.225363e+03,0.000000e+00
3.226327e+03,0.000000e+00
3.227291e+03,0.000000e+00
3.228255e+03,0.000000e+00
3.229219e+03,0.000000e+00
3.230184e+03,0.000000e+00
3.231148e+03,0.000000e+00
3.232112e+03,0.000000e+00
3.233076e+03,0.000000e+00
3.234041e+03,0.000000e+00
3.235005e+03,0.000000e+00
3.235969e+03,0.000000e+00
3.236933e+03,0.000000e+00
3.237897e+03,0.000000e+00
3.238862e+03,0.000000e+00
3.239826e+03,0.000000e+00
3.240790e+03,0.000000e+00
3.241754e+03,0.000000e+00
3.242719e+03,0.000000e+00
3.243683e+03,0.000000e+00
3.244647e+03,0.000000e+00
3.245611e+03,0.000000e+00
3.246576e+03,0.000000e+00
3.247540e+03,0.000000e+00
3.248504e+03,0.000000e+00
3.249468e+03,0.000000e+00
3.250433e+03,0.000000e+00
3.251397e+03,0.000000e+00
3.252361e+03,0.000000e+00
3.253325e+03,0.000000e+00
3.254290e+03,0.000000e+00
3.255254e+03,0.000000e+00
3.256218e+03,0.000000e+00
3.257182e+03,0.000000e+00
3.258146e+03,0.000000e+00
3.259111e+03,0.000000e+00
3.260075e+03,0.000000e+00
3.261039e+03,0.000000e+00
3.262003e+03,0.000000e+00
3.262968e+03,0.000000e+00
3.263932e+03,0.000000e+00
3.264896e+03,0.000000e+00
3.265860e+03,0.000000e+00
3.266824e+03,0.000000e+00
3.267789e+03,0.000000e+00
3.268753e+03,0.000000e+00
3.269717e+03,0.000000e+00
3.270681e+03,0.000000e+00
3.271646e+03,0.000000e+00
3.272610e+03,0.000000e+00
3.273574e+03,0.000000e+00
3.274538e+03,0.000000e+00
3.275503e+03,0.000000e+00
3.276467e+03,0.000000e+00
3.277431e+03,0.000000e+00
3.278395e+03,0.000000e+00
3.279360e+03,0.000000e+00
3.280324e+03,0.000000e+00
3.281288e+03,0.000000e+00
3.282252e+03,0.000000e+00
3.283217e+03,0.000000e+00
3.284181e+03,0.000000e+00
3.285145e+03,0.000000e+00
3.286109e+03,0.000000e+00
3.287073e+03,0.000000e+00
3.288038e+03,0.000000e+00
3.289002e+03,0.000000e+00
3.289966e+03,0.000000e+00
3.290930e+03,0.000000e+00
3.291895e+03,0.000000e+00
3.292859e+03,0.000000e+00
3.293823e+03,0.000000e+00
3.294787e+03,0.000000e+00
3.295751e+03,0.000000e+00
3.296716e+03,0.000000e+00
3.297680e+03,0.000000e+00
3.298644e+03,0.000000e+00
3.299608e+03,0.000000e+00
3.300573e+03,0.000000e+00
3.301537e+03,0.000000e+00
3.302501e+03,0.000000e+00
3.303465e+03,0.000000e+00
3.304430e+03,0.000000e+00
3.305394e+03,0.000000e+00
3.306358e+03,0.000000e+00
3.307322e+03,0.000000e+00
3.308287e+03,0.000000e+00
3.309251e+03,0.000000e+00
3.310215e+03,0.000000e+00
3.311179e+03,0.000000e+00
3.312144e+03,0.000000e+00
3.313108e+03,0.000000e+00
3.314072e+03,0.000000e+00
3.315036e+03,0.000000e+00
3.316000e+03,0.000000e+00
3.316965e+03,0.000000e+00
3.317929e+03,0.000000e+00
3.318893e+03,0.000000e+00
3.319857e+03,0.000000e+00
3.320822e+03,0.000000e+00
3.321786e+03,0.000000e+00
3.322750e+03,0.000000e+00
3.323714e+03,0.000000e+00
3.324678e+03,0.000000e+00
3.325643e+03,0.000000e+00
3.326607e+03,0.000000e+00
3.327571e+03,0.000000e+00
3.328535e+03,0.000000e+00
3.329500e+03,0.000000e+00
3.330464e+03,0.000000e+00
3.331428e+03,0.000000e+00
3.332392e+03,0.000000e+00
3.333357e+03,0.000000e+00
3.334321e+03,0.000000e+00
3.335285e+03,0.000000e+00
3.336249e+03,0.000000e+00
3.337214e+03,0.000000e+00
3.338178e+03,0.000000e+00
3.339142e+03,0.000000e+00
3.340106e+03,0.000000e+00
3.341071e+03,0.000000e+00
3.342035e+03,0.000000e+00
3.342999e+03,0.000000e+00
3.343963e+03,0.000000e+00
3.344927e+03,0.000000e+00
3.345892e+03,0.000000e+00
3.346856e+03,0.000000e+00
3.347820e+03,0.000000e+00
3.348784e+03,0.000000e+00
3.349749e+03,0.000000e+00
3.350713e+03,0.000000e+00
3.351677e+03,0.000000e+00
3.352641e+03,0.000000e+00
3.353605e+03,0.000000e+00
3.354570e+03,0.000000e+00
3.355534e+03,0.000000e+00
3.356498e+03,0.000000e+00
3.357462e+03,0.000000e+00
3.358427e+03,0.000000e+00
3.359391e+03,0.000000e+00
3.360355e+03,0.000000e+00
3.361319e+03,0.000000e+00
3.362284e+03,0.000000e+00
3.363248e+03,0.000000e+00
3.364212e+03,0.000000e+00
3.365176e+03,0.000000e+00
3.366141e+03,0.000000e+00
3.367105e+03,0.000000e+00
3.368069e+03,0.000000e+00
3.369033e+03,0.000000e+00
3.369998e+03,0.000000e+00
3.370962e+03,0.000000e+00
3.371926e+03,0.000000e+00
3.372890e+03,0.000000e+00
3.373854e+03,0.000000e+00
3.374819e+03,0.000000e+00
3.375783e+03,0.000000e+00
3.376747e+03,0.000000e+00
3.377711e+03,0.000000e+00
3.378676e+03,0.000000e+00
3.379640e+03,0.000000e+00
3.380604e+03,0.000000e+00
3.381568e+03,0.000000e+00
3.382532e+03,0.000000e+00
3.383497e+03,0.000000e+00
3.384461e+03,0.000000e+00
3.385425e+03,0.000000e+00
3.386389e+03,0.000000e+00
3.387354e+03,0.000000e+00
3.388318e+03,0.000000e+00
3.389282e+03,0.000000e+00
3.390246e+03,0.000000e+00
3.391211e+03,0.000000e+00
3.392175e+03,0.000000e+00
3.393139e+03,0.000000e+00
3.394103e+03,0.000000e+00
3.395068e+03,0.000000e+00
3.396032e+03,0.000000e+00
3.396996e+03,0.000000e+00
3.397960e+03,0.000000e+00
3.398925e+03,0.000000e+00
3.399889e+03,0.000000e+00
3.400853e+03,0.000000e+00
3.401817e+03,0.000000e+00
3.402781e+03,0.000000e+00
3.403746e+03,0.000000e+00
3.404710e+03,0.000000e+00
3.405674e+03,0.000000e+00
3.406638e+03,0.000000e+00
3.407603e+03,0.000000e+00
3.408567e+03,0.000000e+00
3.409531e+03,0.000000e+00
3.410495e+03,0.000000e+00
3.411459e+03,0.000000e+00
3.412424e+03,0.000000e+00
3.413388e+03,0.000000e+00
3.414352e+03,0.000000e+00
3.415316e+03,0.000000e+00
3.416281e+03,0.000000e+00
3.417245e+03,0.000000e+00
3.418209e+03,0.000000e+00
3.419173e+03,0.000000e+00
3.420138e+03,0.000000e+00
3.421102e+03,0.000000e+00
3.422066e+03,0.000000e+00
3.423030e+03,0.000000e+00
3.423995e+03,0.000000e+00
3.424959e+03,0.000000e+00
3.425923e+03,0.000000e+00
3.426887e+03,0.000000e+00
3.427852e+03,0.000000e+00
3.428816e+03,0.000000e+00
3.429780e+03,0.000000e+00
3.430744e+03,0.000000e+00
3.431708e+03,0.000000e+00
3.432673e+03,0.000000e+00
3.433637e+03,0.000000e+00
3.434601e+03,0.000000e+00
3.435565e+03,0.000000e+00
3.436530e+03,0.000000e+00
3.437494e+03,0.000000e+00
3.438458e+03,0.000000e+00
3.439422e+03,0.000000e+00
3.440386e+03,0.000000e+00
3.441351e+03,0.000000e+00
3.442315e+03,0.000000e+00
3.443279e+03,0.000000e+00
3.444243e+03,0.000000e+00
3.445208e+03,0.000000e+00
3.446172e+03,0.000000e+00
3.447136e+03,0.000000e+00
3.448100e+03,0.000000e+00
3.449065e+03,0.000000e+00
3.450029e+03,0.000000e+00
3.450993e+03,0.000000e+00
3.451957e+03,0.000000e+00
3.452922e+03,0.000000e+00
3.453886e+03,0.000000e+00
3.454850e+03,0.000000e+00
3.455814e+03,0.000000e+00
3.456779e+03,0.000000e+00
3.457743e+03,0.000000e+00
3.458707e+03,0.000000e+00
3.459671e+03,0.000000e+00
3.460635e+03,0.000000e+00
3.461600e+03,0.000000e+00
3.462564e+03,0.000000e+00
3.463528e+03,0.000000e+00
3.464492e+03,0.000000e+00
3.465457e+03,0.000000e+00
3.466421e+03,0.000000e+00
3.467385e+03,0.000000e+00
3.468349e+03,0.000000e+00
3.469313e+03,0.000000e+00
3.470278e+03,0.000000e+00
3.471242e+03,0.000000e+00
3.472206e+03,0.000000e+00
3.473170e+03,0.000000e+00
3.474135e+03,0.000000e+00
3.475099e+03,0.000000e+00
3.476063e+03,0.000000e+00
3.477027e+03,0.000000e+00
3.477992e+03,0.000000e+00
3.478956e+03,0.000000e+00
3.479920e+03,0.000000e+00
3.480884e+03,0.000000e+00
3.481849e+03,0.000000e+00
3.482813e+03,0.000000e+00
3.483777e+03,0.000000e+00
3.484741e+03,0.000000e+00
3.485706e+03,0.000000e+00
3.486670e+03,0.000000e+00
3.487634e+03,0.000000e+00
3.488598e+03,0.000000e+00
3.489563e+03,0.000000e+00
3.490527e+03,0.000000e+00
3.491491e+03,0.000000e+00
3.492455e+03,0.000000e+00
3.493419e+03,0.000000e+00
3.494384e+03,0.000000e+00
3.495348e+03,0.000000e+00
3.496312e+03,0.000000e+00
3.497276e+03,0.000000e+00
3.498240e+03,0.000000e+00
3.499205e+03,0.000000e+00
3.500169e+03,0.000000e+00
