9.931763e+01,0.000000e+00
1.002819e+02,0.000000e+00
1.012461e+02,0.000000e+00
1.022103e+02,0.000000e+00
1.031746e+02,0.000000e+00
1.041388e+02,0.000000e+00
1.051030e+02,0.000000e+00
1.060673e+02,0.000000e+00
1.070315e+02,0.000000e+00
1.079957e+02,0.000000e+00
1.089600e+02,0.000000e+00
1.099242e+02,0.000000e+00
1.108884e+02,0.000000e+00
1.118527e+02,0.000000e+00
1.128169e+02,0.000000e+00
1.137811e+02,0.000000e+00
1.147454e+02,0.000000e+00
1.157096e+02,0.000000e+00
1.166738e+02,0.000000e+00
1.176381e+02,0.000000e+00
1.186023e+02,0.000000e+00
1.195665e+02,0.000000e+00
1.205308e+02,0.000000e+00
1.214950e+02,0.000000e+00
1.224592e+02,0.000000e+00
1.234235e+02,0.000000e+00
1.243877e+02,0.000000e+00
1.253519e+02,0.000000e+00
1.263162e+02,0.000000e+00
1.272804e+02,0.000000e+00
1.282446e+02,0.000000e+00
1.292089e+02,0.000000e+00
1.301731e+02,0.000000e+00
1.311373e+02,0.000000e+00
1.321016e+02,0.000000e+00
1.330658e+02,0.000000e+00
1.340300e+02,0.000000e+00
1.349943e+02,0.000000e+00
1.359585e+02,0.000000e+00
1.369227e+02,0.000000e+00
1.378870e+02,0.000000e+00
1.388512e+02,0.000000e+00
1.398154e+02,0.000000e+00
1.407797e+02,0.000000e+00
1.417439e+02,0.000000e+00
1.427081e+02,0.000000e+00
1.436724e+02,0.000000e+00
1.446366e+02,0.000000e+00
1.456008e+02,0.000000e+00
1.465651e+02,0.000000e+00
1.475293e+02,0.000000e+00
1.484935e+02,0.000000e+00
1.494578e+02,0.000000e+00
1.504220e+02,0.000000e+00
1.513862e+02,0.000000e+00
1.523505e+02,0.000000e+00
1.533147e+02,0.000000e+00
1.542789e+02,0.000000e+00
1.552432e+02,0.000000e+00
1.562074e+02,0.000000e+00
1.571716e+02,0.000000e+00
1.581359e+02,0.000000e+00
1.591001e+02,0.000000e+00
1.600643e+02,0.000000e+00
1.610286e+02,0.000000e+00
1.619928e+02,0.000000e+00
1.629570e+02,0.000000e+00
1.639213e+02,0.000000e+00
1.648855e+02,0.000000e+00
1.658497e+02,0.000000e+00
1.668140e+02,0.000000e+00
1.677782e+02,0.000000e+00
1.687424e+02,0.000000e+00
1.697067e+02,0.000000e+00
1.706709e+02,0.000000e+00
1.716351e+02,0.000000e+00
1.725994e+02,0.000000e+00
1.735636e+02,0.000000e+00
1.745278e+02,0.000000e+00
1.754921e+02,0.000000e+00
1.764563e+02,0.000000e+00
1.774205e+02,0.000000e+00
1.783848e+02,0.000000e+00
1.793490e+02,0.000000e+00
1.803132e+02,0.000000e+00
1.812775e+02,0.000000e+00
1.822417e+02,0.000000e+00
1.832059e+02,0.000000e+00
1.841702e+02,0.000000e+00
1.851344e+02,0.000000e+00
1.860986e+02,0.000000e+00
1.870629e+02,0.000000e+00
1.880271e+02,0.000000e+00
1.889913e+02,0.000000e+00
1.899556e+02,0.000000e+00
1.909198e+02,0.000000e+00
1.918840e+02,0.000000e+00
1.928483e+02,0.000000e+00
1.938125e+02,0.000000e+00
1.947767e+02,0.000000e+00
1.957410e+02,0.000000e+00
1.967052e+02,0.000000e+00
1.976694e+02,0.000000e+00
1.986337e+02,0.000000e+00
1.995979e+02,4.450125e+03
2.005621e+02,4.456701e+03
2.015264e+02,4.461751e+03
2.024906e+02,4.462473e+03
2.034548e+02,4.463838e+03
2.044191e+02,4.466850e+03
2.053833e+02,4.470328e+03
2.063475e+02,4.472267e+03
2.073118e+02,4.470027e+03
2.082760e+02,4.461208e+03
2.092402e+02,4.455826e+03
2.102045e+02,4.460611e+03
2.111687e+02,4.468803e+03
2.121329e+02,4.474355e+03
2.130972e+02,4.472882e+03
2.140614e+02,4.467207e+03
2.150256e+02,4.467150e+03
2.159899e+02,4.477727e+03
2.169541e+02,4.488002e+03
2.179183e+02,4.493199e+03
2.188826e+02,4.494165e+03
2.198468e+02,4.495811e+03
2.208110e+02,4.503137e+03
2.217753e+02,4.515299e+03
2.227395e+02,4.522396e+03
2.237037e+02,4.523788e+03
2.246680e+02,4.521296e+03
2.256322e+02,4.515216e+03
2.265964e+02,4.504606e+03
2.275607e+02,4.494773e+03
2.285249e+02,4.491601e+03
2.294892e+02,4.495969e+03
2.304534e+02,4.503197e+03
2.314176e+02,4.509119e+03
2.323819e+02,4.513115e+03
2.333461e+02,4.515543e+03
2.343103e+02,4.516526e+03
2.352746e+02,4.517104e+03
2.362388e+02,4.517886e+03
2.372030e+02,4.517708e+03
2.381673e+02,4.515974e+03
2.391315e+02,4.514748e+03
2.400957e+02,4.517302e+03
2.410600e+02,4.520358e+03
2.420242e+02,4.524428e+03
2.429884e+02,4.530026e+03
2.439527e+02,4.535706e+03
2.449169e+02,4.538975e+03
2.458811e+02,4.538595e+03
2.468454e+02,4.537890e+03
2.478096e+02,4.536158e+03
2.487738e+02,4.534686e+03
2.497381e+02,4.533631e+03
2.507023e+02,4.533215e+03
2.516665e+02,4.534683e+03
2.526308e+02,4.539858e+03
2.535950e+02,4.554592e+03
2.545592e+02,4.561736e+03
2.555235e+02,4.557674e+03
2.564877e+02,4.547992e+03
2.574519e+02,4.539516e+03
2.584161e+02,4.536637e+03
2.593804e+02,4.539583e+03
2.603446e+02,4.543768e+03
2.613088e+02,4.545134e+03
2.622731e+02,4.548940e+03
2.632373e+02,4.559448e+03
2.642015e+02,4.574266e+03
2.651658e+02,4.586025e+03
2.661300e+02,4.586453e+03
2.670942e+02,4.574051e+03
2.680585e+02,4.567398e+03
2.690227e+02,4.577131e+03
2.699869e+02,4.589934e+03
2.709512e+02,4.595525e+03
2.719154e+02,4.589854e+03
2.728796e+02,4.580481e+03
2.738439e+02,4.577962e+03
2.748081e+02,4.584813e+03
2.757723e+02,4.595054e+03
2.767366e+02,4.602196e+03
2.777008e+02,4.604943e+03
2.786650e+02,4.605041e+03
2.796293e+02,4.603635e+03
2.805935e+02,4.601801e+03
2.815577e+02,4.599672e+03
2.825220e+02,4.596286e+03
2.834862e+02,4.592571e+03
2.844504e+02,4.591514e+03
2.854147e+02,4.596454e+03
2.863789e+02,4.600716e+03
2.873431e+02,4.603732e+03
2.883074e+02,4.606342e+03
2.892716e+02,4.608319e+03
2.902358e+02,4.608208e+03
2.912001e+02,4.605398e+03
2.921643e+02,4.605315e+03
2.931285e+02,4.612693e+03
2.940928e+02,4.620193e+03
2.950570e+02,4.623589e+03
2.960212e+02,4.622162e+03
2.969855e+02,4.618264e+03
2.979497e+02,4.615360e+03
2.989139e+02,4.614711e+03
2.998782e+02,4.614797e+03
3.008424e+02,4.618805e+03
3.018066e+02,4.624549e+03
3.027709e+02,4.629063e+03
3.037351e+02,4.630605e+03
3.046993e+02,4.629286e+03
3.056636e+02,4.625595e+03
3.066278e+02,4.618636e+03
3.075920e+02,4.613783e+03
3.085563e+02,4.614772e+03
3.095205e+02,4.620545e+03
3.104847e+02,4.626692e+03
3.114490e+02,4.630140e+03
3.124132e+02,4.630978e+03
3.133774e+02,4.630196e+03
3.143417e+02,4.627021e+03
3.153059e+02,4.622414e+03
3.162701e+02,4.619529e+03
3.172344e+02,4.619813e+03
3.181986e+02,4.621611e+03
3.191628e+02,4.626682e+03
3.201271e+02,4.633259e+03
3.210913e+02,4.637049e+03
3.220555e+02,4.635185e+03
3.230198e+02,4.628605e+03
3.239840e+02,4.625891e+03
3.249482e+02,4.629625e+03
3.259125e+02,4.633760e+03
3.268767e+02,4.637664e+03
3.278409e+02,4.640885e+03
3.288052e+02,4.642438e+03
3.297694e+02,4.640604e+03
3.307336e+02,4.634229e+03
3.316979e+02,4.630173e+03
3.326621e+02,4.632630e+03
3.336263e+02,4.633581e+03
3.345906e+02,4.628318e+03
3.355548e+02,4.616903e+03
3.365190e+02,4.606375e+03
3.374833e+02,4.604300e+03
3.384475e+02,4.611136e+03
3.394117e+02,4.618653e+03
3.403760e+02,4.621417e+03
3.413402e+02,4.622096e+03
3.423044e+02,4.626083e+03
3.432687e+02,4.638055e+03
3.442329e+02,4.650922e+03
3.451971e+02,4.657312e+03
3.461614e+02,4.655824e+03
3.471256e+02,4.649436e+03
3.480898e+02,4.641763e+03
3.490541e+02,4.633514e+03
3.500183e+02,4.627409e+03
3.509825e+02,4.625477e+03
3.519468e+02,4.626713e+03
3.529110e+02,4.630079e+03
3.538752e+02,4.634318e+03
3.548395e+02,4.637573e+03
3.558037e+02,4.637526e+03
3.567680e+02,4.630521e+03
3.577322e+02,4.626663e+03
3.586964e+02,4.630325e+03
3.596607e+02,4.638313e+03
3.606249e+02,4.645775e+03
3.615891e+02,4.648478e+03
3.625534e+02,4.646567e+03
3.635176e+02,4.644287e+03
3.644818e+02,4.644265e+03
3.654461e+02,4.642675e+03
3.664103e+02,4.637163e+03
3.673745e+02,4.630695e+03
3.683388e+02,4.628403e+03
3.693030e+02,4.630679e+03
3.702672e+02,4.635218e+03
3.712315e+02,4.639894e+03
3.721957e+02,4.643952e+03
3.731599e+02,4.647114e+03
3.741242e+02,4.650646e+03
3.750884e+02,4.661419e+03
3.760526e+02,4.668743e+03
3.770169e+02,4.668295e+03
3.779811e+02,4.663867e+03
3.789453e+02,4.660049e+03
3.799096e+02,4.658864e+03
3.808738e+02,4.658829e+03
3.818380e+02,4.655524e+03
3.828023e+02,4.648056e+03
3.837665e+02,4.642729e+03
3.847307e+02,4.641669e+03
3.856950e+02,4.643359e+03
3.866592e+02,4.644115e+03
3.876234e+02,4.640073e+03
3.885877e+02,4.633007e+03
3.895519e+02,4.628563e+03
3.905161e+02,4.627140e+03
3.914804e+02,4.626766e+03
3.924446e+02,4.626591e+03
3.934088e+02,4.628413e+03
3.943731e+02,4.628424e+03
3.953373e+02,4.622736e+03
3.963015e+02,4.614909e+03
3.972658e+02,4.610482e+03
3.982300e+02,4.612192e+03
3.991942e+02,4.619297e+03
4.001585e+02,4.625953e+03
4.011227e+02,4.629710e+03
4.020869e+02,4.632245e+03
4.030512e+02,4.630487e+03
4.040154e+02,4.626233e+03
4.049796e+02,4.623651e+03
4.059439e+02,4.625484e+03
4.069081e+02,4.630609e+03
4.078723e+02,4.635820e+03
4.088366e+02,4.641216e+03
4.098008e+02,4.642911e+03
4.107650e+02,4.638974e+03
4.117293e+02,4.630489e+03
4.126935e+02,4.624836e+03
4.136577e+02,4.627249e+03
4.146220e+02,4.633099e+03
4.155862e+02,4.635883e+03
4.165504e+02,4.634320e+03
4.175147e+02,4.630005e+03
4.184789e+02,4.625149e+03
4.194431e+02,4.617086e+03
4.204074e+02,4.611433e+03
4.213716e+02,4.609374e+03
4.223358e+02,4.609212e+03
4.233001e+02,4.609234e+03
4.242643e+02,4.608970e+03
4.252285e+02,4.609238e+03
4.261928e+02,4.611904e+03
4.271570e+02,4.619056e+03
4.281212e+02,4.624966e+03
4.290855e+02,4.625493e+03
4.300497e+02,4.621988e+03
4.310139e+02,4.618034e+03
4.319782e+02,4.613576e+03
4.329424e+02,4.610887e+03
4.339066e+02,4.612999e+03
4.348709e+02,4.619625e+03
4.358351e+02,4.626299e+03
4.367993e+02,4.629039e+03
4.377636e+02,4.626713e+03
4.387278e+02,4.623725e+03
4.396920e+02,4.620818e+03
4.406563e+02,4.617999e+03
4.416205e+02,4.614271e+03
4.425847e+02,4.609214e+03
4.435490e+02,4.604211e+03
4.445132e+02,4.601966e+03
4.454774e+02,4.603735e+03
4.464417e+02,4.605696e+03
4.474059e+02,4.605789e+03
4.483701e+02,4.604495e+03
4.493344e+02,4.603327e+03
4.502986e+02,4.603349e+03
4.512628e+02,4.604542e+03
4.522271e+02,4.607690e+03
4.531913e+02,4.612225e+03
4.541555e+02,4.615813e+03
4.551198e+02,4.617263e+03
4.560840e+02,4.616803e+03
4.570482e+02,4.610642e+03
4.580125e+02,4.595662e+03
4.589767e+02,4.582172e+03
4.599409e+02,4.570283e+03
4.609052e+02,4.559951e+03
4.618694e+02,4.553522e+03
4.628336e+02,4.557421e+03
4.637979e+02,4.570288e+03
4.647621e+02,4.575275e+03
4.657263e+02,4.569256e+03
4.666906e+02,4.560579e+03
4.676548e+02,4.555596e+03
4.686190e+02,4.554244e+03
4.695833e+02,4.553125e+03
4.705475e+02,4.549174e+03
4.715117e+02,4.544646e+03
4.724760e+02,4.544284e+03
4.734402e+02,4.550326e+03
4.744044e+02,4.559339e+03
4.753687e+02,4.562564e+03
4.763329e+02,4.555118e+03
4.772971e+02,4.549484e+03
4.782614e+02,4.548736e+03
4.792256e+02,4.550702e+03
4.801898e+02,4.552314e+03
4.811541e+02,4.551692e+03
4.821183e+02,4.549438e+03
4.830826e+02,4.545979e+03
4.840468e+02,4.540835e+03
4.850110e+02,4.535833e+03
4.859753e+02,4.532906e+03
4.869395e+02,4.531960e+03
4.879037e+02,4.530304e+03
4.888680e+02,4.526282e+03
4.898322e+02,4.523874e+03
4.907964e+02,4.527522e+03
4.917607e+02,4.536328e+03
4.927249e+02,4.544300e+03
4.936891e+02,4.544350e+03
4.946534e+02,4.535698e+03
4.956176e+02,4.529658e+03
4.965818e+02,4.527508e+03
4.975461e+02,4.527929e+03
4.985103e+02,4.528981e+03
4.994745e+02,4.529659e+03
5.004388e+02,4.530563e+03
5.014030e+02,4.534758e+03
5.023672e+02,4.540416e+03
5.033315e+02,4.544126e+03
5.042957e+02,4.544710e+03
5.052599e+02,4.541311e+03
5.062242e+02,4.532773e+03
5.071884e+02,4.513759e+03
5.081526e+02,4.499667e+03
5.091169e+02,4.493101e+03
5.100811e+02,4.492850e+03
5.110453e+02,4.497390e+03
5.120095e+02,4.510448e+03
5.129738e+02,4.524360e+03
5.139380e+02,4.526478e+03
5.149022e+02,4.517194e+03
5.158665e+02,4.511479e+03
5.168307e+02,4.518008e+03
5.177949e+02,4.533958e+03
5.187592e+02,4.536619e+03
5.197234e+02,4.522069e+03
5.206876e+02,4.506707e+03
5.216519e+02,4.495650e+03
5.226161e+02,4.489489e+03
5.235803e+02,4.487134e+03
5.245446e+02,4.488149e+03
5.255088e+02,4.492259e+03
5.264730e+02,4.498818e+03
5.274373e+02,4.510097e+03
5.284015e+02,4.519749e+03
5.293657e+02,4.521141e+03
5.303300e+02,4.514608e+03
5.312942e+02,4.503456e+03
5.322584e+02,4.481907e+03
5.332227e+02,4.462403e+03
5.341869e+02,4.458823e+03
5.351511e+02,4.472459e+03
5.361154e+02,4.489625e+03
5.370796e+02,4.490953e+03
5.380438e+02,4.471423e+03
5.390081e+02,4.459312e+03
5.399723e+02,4.465003e+03
5.409365e+02,4.476570e+03
5.419008e+02,4.480826e+03
5.428650e+02,4.469981e+03
5.438292e+02,4.461243e+03
5.447935e+02,4.468880e+03
5.457577e+02,4.485406e+03
5.467219e+02,4.494726e+03
5.476862e+02,4.489874e+03
5.486504e+02,4.475177e+03
5.496146e+02,4.463988e+03
5.505789e+02,4.459405e+03
5.515431e+02,4.453120e+03
5.525073e+02,4.443025e+03
5.534716e+02,4.433262e+03
5.544358e+02,4.427539e+03
5.554000e+02,4.425620e+03
5.563643e+02,4.426638e+03
5.573285e+02,4.431703e+03
5.582927e+02,4.439634e+03
5.592570e+02,4.445442e+03
5.602212e+02,4.446180e+03
5.611854e+02,4.441545e+03
5.621497e+02,4.439328e+03
5.631139e+02,4.441365e+03
5.640781e+02,4.441959e+03
5.650424e+02,4.441158e+03
5.660066e+02,4.439217e+03
5.669708e+02,4.436153e+03
5.679351e+02,4.432608e+03
5.688993e+02,4.428677e+03
5.698635e+02,4.423005e+03
5.708278e+02,4.415625e+03
5.717920e+02,4.411155e+03
5.727562e+02,4.413284e+03
5.737205e+02,4.423769e+03
5.746847e+02,4.431123e+03
5.756489e+02,4.432391e+03
5.766132e+02,4.432110e+03
5.775774e+02,4.434615e+03
5.785416e+02,4.440236e+03
5.795059e+02,4.442760e+03
5.804701e+02,4.434891e+03
5.814343e+02,4.419735e+03
5.823986e+02,4.407192e+03
5.833628e+02,4.399315e+03
5.843270e+02,4.394691e+03
5.852913e+02,4.390909e+03
5.862555e+02,4.385968e+03
5.872197e+02,4.385258e+03
5.881840e+02,4.391298e+03
5.891482e+02,4.399067e+03
5.901124e+02,4.405064e+03
5.910767e+02,4.408378e+03
5.920409e+02,4.409375e+03
5.930051e+02,4.406950e+03
5.939694e+02,4.401368e+03
5.949336e+02,4.396239e+03
5.958978e+02,4.392923e+03
5.968621e+02,4.390557e+03
5.978263e+02,4.387423e+03
5.987905e+02,4.381970e+03
5.997548e+02,4.379016e+03
6.007190e+02,4.380394e+03
6.016832e+02,4.384823e+03
6.026475e+02,4.390415e+03
6.036117e+02,4.396752e+03
6.045759e+02,4.400999e+03
6.055402e+02,4.399744e+03
6.065044e+02,4.392627e+03
6.074686e+02,4.381058e+03
6.084329e+02,4.365149e+03
6.093971e+02,4.347004e+03
6.103613e+02,4.334883e+03
6.113256e+02,4.332632e+03
6.122899e+02,4.333159e+03
6.132541e+02,4.338342e+03
6.142183e+02,4.344944e+03
6.151826e+02,4.348022e+03
6.161468e+02,4.345654e+03
6.171110e+02,4.340354e+03
6.180753e+02,4.331827e+03
6.190395e+02,4.320357e+03
6.200037e+02,4.312625e+03
6.209680e+02,4.313308e+03
6.219322e+02,4.322470e+03
6.228964e+02,4.329025e+03
6.238607e+02,4.330506e+03
6.248249e+02,4.331088e+03
6.257891e+02,4.331634e+03
6.267534e+02,4.330491e+03
6.277176e+02,4.325777e+03
6.286818e+02,4.313903e+03
6.296461e+02,4.302031e+03
6.306103e+02,4.298501e+03
6.315745e+02,4.303150e+03
6.325388e+02,4.310288e+03
6.335030e+02,4.315363e+03
6.344672e+02,4.317718e+03
6.354315e+02,4.317484e+03
6.363957e+02,4.311522e+03
6.373599e+02,4.304322e+03
6.383242e+02,4.297980e+03
6.392884e+02,4.293285e+03
6.402526e+02,4.292464e+03
6.412169e+02,4.302922e+03
6.421811e+02,4.313107e+03
6.431453e+02,4.309555e+03
6.441096e+02,4.292998e+03
6.450738e+02,4.275606e+03
6.460380e+02,4.270740e+03
6.470023e+02,4.279720e+03
6.479665e+02,4.284327e+03
6.489307e+02,4.281615e+03
6.498950e+02,4.276173e+03
6.508592e+02,4.270062e+03
6.518234e+02,4.262384e+03
6.527877e+02,4.256712e+03
6.537519e+02,4.256647e+03
6.547161e+02,4.257315e+03
6.556804e+02,4.254616e+03
6.566446e+02,4.248662e+03
6.576088e+02,4.242863e+03
6.585731e+02,4.239596e+03
6.595373e+02,4.238868e+03
6.605015e+02,4.242011e+03
6.614658e+02,4.250866e+03
6.624300e+02,4.259144e+03
6.633942e+02,4.260242e+03
6.643585e+02,4.249797e+03
6.653227e+02,4.242528e+03
6.662869e+02,4.237637e+03
6.672512e+02,4.235126e+03
6.682154e+02,4.237063e+03
6.691796e+02,4.242858e+03
6.701439e+02,4.245701e+03
6.711081e+02,4.238765e+03
6.720723e+02,4.225976e+03
6.730366e+02,4.215548e+03
6.740008e+02,4.209335e+03
6.749650e+02,4.205392e+03
6.759293e+02,4.201012e+03
6.768935e+02,4.195169e+03
6.778577e+02,4.193881e+03
6.788220e+02,4.203089e+03
6.797862e+02,4.214792e+03
6.807504e+02,4.222568e+03
6.817147e+02,4.224817e+03
6.826789e+02,4.223252e+03
6.836431e+02,4.213236e+03
6.846074e+02,4.200581e+03
6.855716e+02,4.193584e+03
6.865358e+02,4.194347e+03
6.875001e+02,4.197671e+03
6.884643e+02,4.197593e+03
6.894285e+02,4.194299e+03
6.903928e+02,4.189662e+03
6.913570e+02,4.181737e+03
6.923212e+02,4.174731e+03
6.932855e+02,4.174401e+03
6.942497e+02,4.188380e+03
6.952139e+02,4.197264e+03
6.961782e+02,4.198468e+03
6.971424e+02,4.195075e+03
6.981066e+02,4.185954e+03
6.990709e+02,4.169497e+03
7.000351e+02,4.154407e+03
7.009993e+02,4.151486e+03
7.019636e+02,4.157448e+03
7.029278e+02,4.163583e+03
7.038920e+02,4.168167e+03
7.048563e+02,4.169361e+03
7.058205e+02,4.165147e+03
7.067847e+02,4.154942e+03
7.077490e+02,4.147333e+03
7.087132e+02,4.146562e+03
7.096774e+02,4.148791e+03
7.106417e+02,4.146958e+03
7.116059e+02,4.138755e+03
7.125701e+02,4.132429e+03
7.135344e+02,4.132238e+03
7.144986e+02,4.135161e+03
7.154628e+02,4.138201e+03
7.164271e+02,4.140261e+03
7.173913e+02,4.140975e+03
7.183555e+02,4.140824e+03
7.193198e+02,4.139195e+03
7.202840e+02,4.132001e+03
7.212482e+02,4.117553e+03
7.222125e+02,4.105173e+03
7.231767e+02,4.105272e+03
7.241409e+02,4.124634e+03
7.251052e+02,4.134079e+03
7.260694e+02,4.124229e+03
7.270336e+02,4.111520e+03
7.279979e+02,4.105708e+03
7.289621e+02,4.107679e+03
7.299263e+02,4.110546e+03
7.308906e+02,4.111890e+03
7.318548e+02,4.111615e+03
7.328190e+02,4.109604e+03
7.337833e+02,4.106114e+03
7.347475e+02,4.102525e+03
7.357117e+02,4.103388e+03
7.366760e+02,4.108334e+03
7.376402e+02,4.103120e+03
7.386044e+02,4.083542e+03
7.395687e+02,4.064446e+03
7.405329e+02,4.058219e+03
7.414971e+02,4.068821e+03
7.424614e+02,4.074266e+03
7.434256e+02,4.075183e+03
7.443898e+02,4.075031e+03
7.453541e+02,4.071735e+03
7.463183e+02,4.064088e+03
7.472825e+02,4.058110e+03
7.482468e+02,4.059928e+03
7.492110e+02,4.063475e+03
7.501752e+02,4.063990e+03
7.511395e+02,4.062779e+03
7.521037e+02,4.061485e+03
7.530679e+02,4.060153e+03
7.540322e+02,4.057567e+03
7.549964e+02,4.050998e+03
7.559606e+02,4.039143e+03
7.569249e+02,4.031380e+03
7.578891e+02,4.035531e+03
7.588533e+02,4.053020e+03
7.598176e+02,4.063737e+03
7.607818e+02,4.057644e+03
7.617460e+02,4.048464e+03
7.627103e+02,4.042775e+03
7.636745e+02,4.041018e+03
7.646387e+02,4.038689e+03
7.656030e+02,4.032017e+03
7.665672e+02,4.025270e+03
7.675314e+02,4.019534e+03
7.684957e+02,4.012992e+03
7.694599e+02,4.006580e+03
7.704241e+02,4.004234e+03
7.713884e+02,4.005101e+03
7.723526e+02,4.001628e+03
7.733168e+02,3.993878e+03
7.742811e+02,3.990358e+03
7.752453e+02,3.994121e+03
7.762095e+02,4.002090e+03
7.771738e+02,4.004433e+03
7.781380e+02,3.991814e+03
7.791022e+02,3.982120e+03
7.800665e+02,3.985064e+03
7.810307e+02,3.993821e+03
7.819949e+02,3.996715e+03
7.829592e+02,3.987766e+03
7.839234e+02,3.978418e+03
7.848876e+02,3.972966e+03
7.858519e+02,3.969787e+03
7.868161e+02,3.965987e+03
7.877803e+02,3.959205e+03
7.887446e+02,3.954778e+03
7.897088e+02,3.966036e+03
7.906730e+02,3.991425e+03
7.916373e+02,4.009263e+03
7.926015e+02,4.010372e+03
7.935657e+02,3.998380e+03
7.945300e+02,3.984884e+03
7.954942e+02,3.970676e+03
7.964584e+02,3.957469e+03
7.974227e+02,3.949433e+03
7.983869e+02,3.946252e+03
7.993511e+02,3.942492e+03
8.003154e+02,3.932616e+03
8.012796e+02,3.925126e+03
8.022438e+02,3.925329e+03
8.032081e+02,3.929363e+03
8.041723e+02,3.933925e+03
8.051365e+02,3.937707e+03
8.061008e+02,3.940401e+03
8.070650e+02,3.942117e+03
8.080292e+02,3.941060e+03
8.089935e+02,3.934306e+03
8.099577e+02,3.922747e+03
8.109219e+02,3.912707e+03
8.118862e+02,3.911614e+03
8.128504e+02,3.919094e+03
8.138146e+02,3.924432e+03
8.147789e+02,3.927123e+03
8.157431e+02,3.925248e+03
8.167073e+02,3.916896e+03
8.176716e+02,3.902025e+03
8.186358e+02,3.893335e+03
8.196000e+02,3.895649e+03
8.205643e+02,3.899175e+03
8.215285e+02,3.897601e+03
8.224927e+02,3.891391e+03
8.234570e+02,3.886888e+03
8.244212e+02,3.887365e+03
8.253854e+02,3.888820e+03
8.263497e+02,3.887699e+03
8.273139e+02,3.883720e+03
8.282781e+02,3.879473e+03
8.292424e+02,3.879868e+03
8.302066e+02,3.882039e+03
8.311708e+02,3.878961e+03
8.321351e+02,3.871851e+03
8.330993e+02,3.867073e+03
8.340635e+02,3.867324e+03
8.350278e+02,3.870989e+03
8.359920e+02,3.875372e+03
8.369562e+02,3.881410e+03
8.379205e+02,3.883910e+03
8.388847e+02,3.880673e+03
8.398489e+02,3.873311e+03
8.408132e+02,3.864944e+03
8.417774e+02,3.848608e+03
8.427416e+02,3.840020e+03
8.437059e+02,3.847758e+03
8.446701e+02,3.860312e+03
8.456343e+02,3.865489e+03
8.465986e+02,3.857346e+03
8.475628e+02,3.849462e+03
8.485270e+02,3.846841e+03
8.494913e+02,3.846313e+03
8.504555e+02,3.845153e+03
8.514197e+02,3.843139e+03
8.523840e+02,3.841759e+03
8.533482e+02,3.843129e+03
8.543124e+02,3.844480e+03
8.552767e+02,3.840776e+03
8.562409e+02,3.831150e+03
8.572051e+02,3.818948e+03
8.581694e+02,3.807418e+03
8.591336e+02,3.797238e+03
8.600978e+02,3.790661e+03
8.610621e+02,3.788788e+03
8.620263e+02,3.789354e+03
8.629905e+02,3.789981e+03
8.639548e+02,3.789339e+03
8.649190e+02,3.787259e+03
8.658832e+02,3.785327e+03
8.668475e+02,3.783503e+03
8.678117e+02,3.780589e+03
8.687759e+02,3.776782e+03
8.697402e+02,3.775920e+03
8.707044e+02,3.778606e+03
8.716686e+02,3.779796e+03
8.726329e+02,3.781763e+03
8.735971e+02,3.783255e+03
8.745613e+02,3.780392e+03
8.755256e+02,3.766938e+03
8.764898e+02,3.756615e+03
8.774540e+02,3.759699e+03
8.784183e+02,3.770559e+03
8.793825e+02,3.780897e+03
8.803467e+02,3.788130e+03
8.813110e+02,3.790899e+03
8.822752e+02,3.785096e+03
8.832394e+02,3.774194e+03
8.842037e+02,3.768622e+03
8.851679e+02,3.770257e+03
8.861321e+02,3.772970e+03
8.870964e+02,3.768400e+03
8.880606e+02,3.755824e+03
8.890248e+02,3.744860e+03
8.899891e+02,3.737582e+03
8.909533e+02,3.734136e+03
8.919175e+02,3.734582e+03
8.928818e+02,3.740475e+03
8.938460e+02,3.742745e+03
8.948102e+02,3.738235e+03
8.957745e+02,3.731594e+03
8.967387e+02,3.725510e+03
8.977029e+02,3.719140e+03
8.986672e+02,3.712393e+03
8.996314e+02,3.704297e+03
9.005956e+02,3.700855e+03
9.015599e+02,3.708119e+03
9.025241e+02,3.720988e+03
9.034883e+02,3.727710e+03
9.044526e+02,3.717614e+03
9.054168e+02,3.704334e+03
9.063810e+02,3.698858e+03
9.073453e+02,3.699970e+03
9.083095e+02,3.701695e+03
9.092737e+02,3.699669e+03
9.102380e+02,3.697013e+03
9.112022e+02,3.699221e+03
9.121664e+02,3.703730e+03
9.131307e+02,3.704875e+03
9.140949e+02,3.702216e+03
9.150591e+02,3.698831e+03
9.160234e+02,3.695056e+03
9.169876e+02,3.689322e+03
9.179518e+02,3.685823e+03
9.189161e+02,3.685892e+03
9.198803e+02,3.685000e+03
9.208445e+02,3.678601e+03
9.218088e+02,3.666791e+03
9.227730e+02,3.659600e+03
9.237372e+02,3.657554e+03
9.247015e+02,3.656380e+03
9.256657e+02,3.652998e+03
9.266299e+02,3.646927e+03
9.275942e+02,3.644843e+03
9.285584e+02,3.650774e+03
9.295226e+02,3.654243e+03
9.304869e+02,3.649801e+03
9.314511e+02,3.640750e+03
9.324153e+02,3.635973e+03
9.333796e+02,3.639121e+03
9.343438e+02,3.642905e+03
9.353080e+02,3.646504e+03
9.362723e+02,3.647324e+03
9.372365e+02,3.643307e+03
9.382007e+02,3.634024e+03
9.391650e+02,3.625044e+03
9.401292e+02,3.616814e+03
9.410934e+02,3.610650e+03
9.420577e+02,3.607828e+03
9.430219e+02,3.608496e+03
9.439861e+02,3.609409e+03
9.449504e+02,3.608238e+03
9.459146e+02,3.608768e+03
9.468788e+02,3.616270e+03
9.478431e+02,3.628253e+03
9.488073e+02,3.634789e+03
9.497715e+02,3.625357e+03
9.507358e+02,3.607695e+03
9.517000e+02,3.599783e+03
9.526642e+02,3.602150e+03
9.536285e+02,3.603530e+03
9.545927e+02,3.594969e+03
9.555569e+02,3.580015e+03
9.565212e+02,3.570110e+03
9.574854e+02,3.566477e+03
9.584496e+02,3.568203e+03
9.594139e+02,3.574545e+03
9.603781e+02,3.581969e+03
9.613423e+02,3.583204e+03
9.623066e+02,3.576553e+03
9.632708e+02,3.573297e+03
9.642350e+02,3.578221e+03
9.651993e+02,3.585823e+03
9.661635e+02,3.586867e+03
9.671277e+02,3.576671e+03
9.680920e+02,3.568079e+03
9.690562e+02,3.561128e+03
9.700204e+02,3.555371e+03
9.709847e+02,3.552125e+03
9.719489e+02,3.553269e+03
9.729131e+02,3.552961e+03
9.738774e+02,3.550983e+03
9.748416e+02,3.549585e+03
9.758058e+02,3.548782e+03
9.767701e+02,3.547304e+03
9.777343e+02,3.544043e+03
9.786985e+02,3.536508e+03
9.796628e+02,3.528828e+03
9.806270e+02,3.522882e+03
9.815912e+02,3.518139e+03
9.825555e+02,3.513978e+03
9.835197e+02,3.513510e+03
9.844839e+02,3.512017e+03
9.854482e+02,3.505454e+03
9.864124e+02,3.498499e+03
9.873766e+02,3.495693e+03
9.883409e+02,3.498746e+03
9.893051e+02,3.503797e+03
9.902693e+02,3.511491e+03
9.912336e+02,3.518516e+03
9.921978e+02,3.518178e+03
9.931620e+02,3.509866e+03
9.941263e+02,3.501994e+03
9.950905e+02,3.502092e+03
9.960547e+02,3.505723e+03
9.970190e+02,3.508807e+03
9.979832e+02,3.510108e+03
9.989474e+02,3.507221e+03
9.999117e+02,3.498579e+03
1.000876e+03,3.488102e+03
1.001840e+03,3.480164e+03
1.002804e+03,3.475609e+03
1.003769e+03,3.475148e+03
1.004733e+03,3.478533e+03
1.005697e+03,3.482578e+03
1.006661e+03,3.482840e+03
1.007626e+03,3.480414e+03
1.008590e+03,3.479386e+03
1.009554e+03,3.479782e+03
1.010518e+03,3.479022e+03
1.011482e+03,3.474699e+03
1.012447e+03,3.467219e+03
1.013411e+03,3.460167e+03
1.014375e+03,3.455271e+03
1.015339e+03,3.453075e+03
1.016304e+03,3.453551e+03
1.017268e+03,3.455647e+03
1.018232e+03,3.455176e+03
1.019196e+03,3.451524e+03
1.020161e+03,3.446023e+03
1.021125e+03,3.439227e+03
1.022089e+03,3.433187e+03
1.023053e+03,3.431213e+03
1.024018e+03,3.432981e+03
1.024982e+03,3.433721e+03
1.025946e+03,3.431433e+03
1.026910e+03,3.427207e+03
1.027875e+03,3.424568e+03
1.028839e+03,3.425909e+03
1.029803e+03,3.426999e+03
1.030767e+03,3.427632e+03
1.031731e+03,3.428670e+03
1.032696e+03,3.430245e+03
1.033660e+03,3.432085e+03
1.034624e+03,3.432565e+03
1.035588e+03,3.432014e+03
1.036552e+03,3.432075e+03
1.037517e+03,3.433335e+03
1.038481e+03,3.434007e+03
1.039445e+03,3.430764e+03
1.040409e+03,3.419989e+03
1.041374e+03,3.411696e+03
1.042338e+03,3.409849e+03
1.043302e+03,3.411356e+03
1.044266e+03,3.411328e+03
1.045231e+03,3.408519e+03
1.046195e+03,3.405462e+03
1.047159e+03,3.402081e+03
1.048123e+03,3.399895e+03
1.049088e+03,3.400301e+03
1.050052e+03,3.404798e+03
1.051016e+03,3.408835e+03
1.051980e+03,3.411341e+03
1.052945e+03,3.413703e+03
1.053909e+03,3.416305e+03
1.054873e+03,3.416793e+03
1.055837e+03,3.412449e+03
1.056802e+03,3.399601e+03
1.057766e+03,3.388707e+03
1.058730e+03,3.382897e+03
1.059694e+03,3.380354e+03
1.060658e+03,3.378111e+03
1.061623e+03,3.375739e+03
1.062587e+03,3.375793e+03
1.063551e+03,3.382261e+03
1.064515e+03,3.388753e+03
1.065479e+03,3.389576e+03
1.066444e+03,3.384656e+03
1.067408e+03,3.381079e+03
1.068372e+03,3.379156e+03
1.069336e+03,3.379426e+03
1.070301e+03,3.381830e+03
1.071265e+03,3.384696e+03
1.072229e+03,3.385798e+03
1.073193e+03,3.385536e+03
1.074158e+03,3.382403e+03
1.075122e+03,3.373628e+03
1.076086e+03,3.363032e+03
1.077050e+03,3.356009e+03
1.078015e+03,3.356862e+03
1.078979e+03,3.358490e+03
1.079943e+03,3.356078e+03
1.080907e+03,3.355465e+03
1.081872e+03,3.362136e+03
1.082836e+03,3.375533e+03
1.083800e+03,3.382271e+03
1.084764e+03,3.373440e+03
1.085729e+03,3.365376e+03
1.086693e+03,3.366177e+03
1.087657e+03,3.372715e+03
1.088621e+03,3.377082e+03
1.089585e+03,3.375211e+03
1.090550e+03,3.372418e+03
1.091514e+03,3.371814e+03
1.092478e+03,3.372750e+03
1.093442e+03,3.374187e+03
1.094406e+03,3.377282e+03
1.095371e+03,3.378067e+03
1.096335e+03,3.375739e+03
1.097299e+03,3.369545e+03
1.098263e+03,3.356039e+03
1.099228e+03,3.335616e+03
1.100192e+03,3.321827e+03
1.101156e+03,3.321381e+03
1.102120e+03,3.322696e+03
1.103085e+03,3.322796e+03
1.104049e+03,3.321764e+03
1.105013e+03,3.320039e+03
1.105977e+03,3.319249e+03
1.106942e+03,3.316334e+03
1.107906e+03,3.306547e+03
1.108870e+03,3.297498e+03
1.109834e+03,3.297591e+03
1.110799e+03,3.311383e+03
1.111763e+03,3.318419e+03
1.112727e+03,3.308501e+03
1.113691e+03,3.299952e+03
1.114656e+03,3.303151e+03
1.115620e+03,3.316397e+03
1.116584e+03,3.325873e+03
1.117548e+03,3.326573e+03
1.118512e+03,3.325573e+03
1.119477e+03,3.325034e+03
1.120441e+03,3.323852e+03
1.121405e+03,3.320806e+03
1.122369e+03,3.317950e+03
1.123334e+03,3.310316e+03
1.124298e+03,3.293029e+03
1.125262e+03,3.276336e+03
1.126226e+03,3.267530e+03
1.127191e+03,3.267467e+03
1.128155e+03,3.269796e+03
1.129119e+03,3.276694e+03
1.130083e+03,3.281351e+03
1.131047e+03,3.280249e+03
1.132012e+03,3.274226e+03
1.132976e+03,3.268302e+03
1.133940e+03,3.261802e+03
1.134904e+03,3.256600e+03
1.135869e+03,3.255012e+03
1.136833e+03,3.254559e+03
1.137797e+03,3.251606e+03
1.138761e+03,3.244969e+03
1.139726e+03,3.245491e+03
1.140690e+03,3.257266e+03
1.141654e+03,3.266137e+03
1.142618e+03,3.262153e+03
1.143583e+03,3.247601e+03
1.144547e+03,3.238721e+03
1.145511e+03,3.236129e+03
1.146475e+03,3.236808e+03
1.147439e+03,3.240543e+03
1.148404e+03,3.246096e+03
1.149368e+03,3.250246e+03
1.150332e+03,3.252498e+03
1.151296e+03,3.254640e+03
1.152261e+03,3.255730e+03
1.153225e+03,3.252980e+03
1.154189e+03,3.245611e+03
1.155153e+03,3.235468e+03
1.156118e+03,3.225738e+03
1.157082e+03,3.217333e+03
1.158046e+03,3.215948e+03
1.159010e+03,3.224495e+03
1.159974e+03,3.237267e+03
1.160939e+03,3.242711e+03
1.161903e+03,3.240899e+03
1.162867e+03,3.235782e+03
1.163831e+03,3.227776e+03
1.164796e+03,3.220321e+03
1.165760e+03,3.218940e+03
1.166724e+03,3.222014e+03
1.167688e+03,3.225598e+03
1.168653e+03,3.228844e+03
1.169617e+03,3.227438e+03
1.170581e+03,3.216732e+03
1.171545e+03,3.203347e+03
1.172510e+03,3.196673e+03
1.173474e+03,3.194971e+03
1.174438e+03,3.193362e+03
1.175402e+03,3.189830e+03
1.176366e+03,3.186448e+03
1.177331e+03,3.184760e+03
1.178295e+03,3.185179e+03
1.179259e+03,3.190268e+03
1.180223e+03,3.197940e+03
1.181188e+03,3.199493e+03
1.182152e+03,3.183173e+03
1.183116e+03,3.165907e+03
1.184080e+03,3.162247e+03
1.185045e+03,3.166759e+03
1.186009e+03,3.168438e+03
1.186973e+03,3.163049e+03
1.187937e+03,3.158775e+03
1.188901e+03,3.158714e+03
1.189866e+03,3.160334e+03
1.190830e+03,3.160690e+03
1.191794e+03,3.158817e+03
1.192758e+03,3.158392e+03
1.193723e+03,3.166394e+03
1.194687e+03,3.171823e+03
1.195651e+03,3.165840e+03
1.196615e+03,3.153691e+03
1.197580e+03,3.148944e+03
1.198544e+03,3.157844e+03
1.199508e+03,3.160172e+03
1.200472e+03,3.153235e+03
1.201437e+03,3.144019e+03
1.202401e+03,3.138602e+03
1.203365e+03,3.138148e+03
1.204329e+03,3.138866e+03
1.205293e+03,3.140759e+03
1.206258e+03,3.142651e+03
1.207222e+03,3.143578e+03
1.208186e+03,3.143556e+03
1.209150e+03,3.144119e+03
1.210115e+03,3.144699e+03
1.211079e+03,3.141224e+03
1.212043e+03,3.132651e+03
1.213007e+03,3.122898e+03
1.213972e+03,3.117440e+03
1.214936e+03,3.116501e+03
1.215900e+03,3.116725e+03
1.216864e+03,3.118055e+03
1.217828e+03,3.119651e+03
1.218793e+03,3.122130e+03
1.219757e+03,3.123114e+03
1.220721e+03,3.115208e+03
1.221685e+03,3.102852e+03
1.222650e+03,3.097053e+03
1.223614e+03,3.099874e+03
1.224578e+03,3.104171e+03
1.225542e+03,3.107577e+03
1.226507e+03,3.108732e+03
1.227471e+03,3.103320e+03
1.228435e+03,3.092227e+03
1.229399e+03,3.082365e+03
1.230364e+03,3.079918e+03
1.231328e+03,3.078167e+03
1.232292e+03,3.074331e+03
1.233256e+03,3.071001e+03
1.234220e+03,3.070296e+03
1.235185e+03,3.074896e+03
1.236149e+03,3.077188e+03
1.237113e+03,3.071487e+03
1.238077e+03,3.067582e+03
1.239042e+03,3.070983e+03
1.240006e+03,3.079211e+03
1.240970e+03,3.082238e+03
1.241934e+03,3.077076e+03
1.242899e+03,3.071816e+03
1.243863e+03,3.069435e+03
1.244827e+03,3.067712e+03
1.245791e+03,3.062551e+03
1.246755e+03,3.052702e+03
1.247720e+03,3.046678e+03
1.248684e+03,3.045078e+03
1.249648e+03,3.047442e+03
1.250612e+03,3.054587e+03
1.251577e+03,3.063585e+03
1.252541e+03,3.065465e+03
1.253505e+03,3.060629e+03
1.254469e+03,3.054170e+03
1.255434e+03,3.047824e+03
1.256398e+03,3.043567e+03
1.257362e+03,3.042924e+03
1.258326e+03,3.044598e+03
1.259291e+03,3.049097e+03
1.260255e+03,3.054900e+03
1.261219e+03,3.056649e+03
1.262183e+03,3.051077e+03
1.263147e+03,3.043774e+03
1.264112e+03,3.036635e+03
1.265076e+03,3.030729e+03
1.266040e+03,3.027296e+03
1.267004e+03,3.027332e+03
1.267969e+03,3.028090e+03
1.268933e+03,3.031142e+03
1.269897e+03,3.035118e+03
1.270861e+03,3.035687e+03
1.271826e+03,3.031429e+03
1.272790e+03,3.031100e+03
1.273754e+03,3.041625e+03
1.274718e+03,3.045862e+03
1.275682e+03,3.039547e+03
1.276647e+03,3.029849e+03
1.277611e+03,3.025465e+03
1.278575e+03,3.027227e+03
1.279539e+03,3.023317e+03
1.280504e+03,3.014222e+03
1.281468e+03,3.007408e+03
1.282432e+03,3.006426e+03
1.283396e+03,3.009796e+03
1.284361e+03,3.015355e+03
1.285325e+03,3.021607e+03
1.286289e+03,3.024561e+03
1.287253e+03,3.022896e+03
1.288218e+03,3.020685e+03
1.289182e+03,3.024922e+03
1.290146e+03,3.029716e+03
1.291110e+03,3.025715e+03
1.292074e+03,3.015711e+03
1.293039e+03,3.009691e+03
1.294003e+03,3.018531e+03
1.294967e+03,3.023617e+03
1.295931e+03,3.013754e+03
1.296896e+03,2.999821e+03
1.297860e+03,2.993034e+03
1.298824e+03,2.995855e+03
1.299788e+03,2.998044e+03
1.300753e+03,2.998303e+03
1.301717e+03,2.998230e+03
1.302681e+03,2.998485e+03
1.303645e+03,2.998987e+03
1.304609e+03,2.999930e+03
1.305574e+03,3.000503e+03
1.306538e+03,2.998366e+03
1.307502e+03,2.994304e+03
1.308466e+03,2.990443e+03
1.309431e+03,2.987461e+03
1.310395e+03,2.985643e+03
1.311359e+03,2.985544e+03
1.312323e+03,2.985941e+03
1.313288e+03,2.986884e+03
1.314252e+03,2.990346e+03
1.315216e+03,2.994828e+03
1.316180e+03,2.997228e+03
1.317145e+03,2.999386e+03
1.318109e+03,3.003362e+03
1.319073e+03,3.008098e+03
1.320037e+03,3.009923e+03
1.321001e+03,3.006690e+03
1.321966e+03,3.001529e+03
1.322930e+03,2.995818e+03
1.323894e+03,2.990914e+03
1.324858e+03,2.987140e+03
1.325823e+03,2.983122e+03
1.326787e+03,2.983577e+03
1.327751e+03,2.989776e+03
1.328715e+03,2.995229e+03
1.329680e+03,2.996231e+03
1.330644e+03,2.993642e+03
1.331608e+03,2.990078e+03
1.332572e+03,2.985359e+03
1.333536e+03,2.980772e+03
1.334501e+03,2.976135e+03
1.335465e+03,2.971568e+03
1.336429e+03,2.969005e+03
1.337393e+03,2.967733e+03
1.338358e+03,2.966317e+03
1.339322e+03,2.964534e+03
1.340286e+03,2.962030e+03
1.341250e+03,2.958428e+03
1.342215e+03,2.954140e+03
1.343179e+03,2.950074e+03
1.344143e+03,2.947917e+03
1.345107e+03,2.947967e+03
1.346072e+03,2.949969e+03
1.347036e+03,2.950448e+03
1.348000e+03,2.948865e+03
1.348964e+03,2.944619e+03
1.349928e+03,2.937087e+03
1.350893e+03,2.929490e+03
1.351857e+03,2.927992e+03
1.352821e+03,2.931699e+03
1.353785e+03,2.934611e+03
1.354750e+03,2.935608e+03
1.355714e+03,2.933666e+03
1.356678e+03,2.928215e+03
1.357642e+03,2.921802e+03
1.358607e+03,2.915460e+03
1.359571e+03,2.909483e+03
1.360535e+03,2.905679e+03
1.361499e+03,2.906220e+03
1.362464e+03,2.906077e+03
1.363428e+03,2.901983e+03
1.364392e+03,2.898220e+03
1.365356e+03,2.894690e+03
1.366320e+03,2.891022e+03
1.367285e+03,2.894939e+03
1.368249e+03,2.915040e+03
1.369213e+03,2.924480e+03
1.370177e+03,2.915292e+03
1.371142e+03,2.900794e+03
1.372106e+03,2.897117e+03
1.373070e+03,2.902739e+03
1.374034e+03,2.907614e+03
1.374999e+03,2.911933e+03
1.375963e+03,2.912982e+03
1.376927e+03,2.908074e+03
1.377891e+03,2.901542e+03
1.378855e+03,2.897553e+03
1.379820e+03,2.894146e+03
1.380784e+03,2.888352e+03
1.381748e+03,2.880644e+03
1.382712e+03,2.876222e+03
1.383677e+03,2.878479e+03
1.384641e+03,2.879012e+03
1.385605e+03,2.872855e+03
1.386569e+03,2.864325e+03
1.387534e+03,2.861019e+03
1.388498e+03,2.864630e+03
1.389462e+03,2.866014e+03
1.390426e+03,2.864109e+03
1.391391e+03,2.859274e+03
1.392355e+03,2.851092e+03
1.393319e+03,2.843154e+03
1.394283e+03,2.841697e+03
1.395247e+03,2.844790e+03
1.396212e+03,2.849678e+03
1.397176e+03,2.855907e+03
1.398140e+03,2.860433e+03
1.399104e+03,2.860851e+03
1.400069e+03,2.858304e+03
1.401033e+03,2.851992e+03
1.401997e+03,2.843637e+03
1.402961e+03,2.837883e+03
1.403926e+03,2.836423e+03
1.404890e+03,2.832963e+03
1.405854e+03,2.826298e+03
1.406818e+03,2.821921e+03
1.407782e+03,2.825358e+03
1.408747e+03,2.834301e+03
1.409711e+03,2.836620e+03
1.410675e+03,2.832441e+03
1.411639e+03,2.829869e+03
1.412604e+03,2.832044e+03
1.413568e+03,2.833582e+03
1.414532e+03,2.829888e+03
1.415496e+03,2.825474e+03
1.416461e+03,2.822348e+03
1.417425e+03,2.820078e+03
1.418389e+03,2.819219e+03
1.419353e+03,2.823419e+03
1.420318e+03,2.823767e+03
1.421282e+03,2.819525e+03
1.422246e+03,2.814023e+03
1.423210e+03,2.808887e+03
1.424174e+03,2.804783e+03
1.425139e+03,2.804001e+03
1.426103e+03,2.805468e+03
1.427067e+03,2.806994e+03
1.428031e+03,2.808333e+03
1.428996e+03,2.808376e+03
1.429960e+03,2.804319e+03
1.430924e+03,2.798566e+03
1.431888e+03,2.793760e+03
1.432853e+03,2.789988e+03
1.433817e+03,2.785742e+03
1.434781e+03,2.779433e+03
1.435745e+03,2.775930e+03
1.436709e+03,2.775434e+03
1.437674e+03,2.775634e+03
1.438638e+03,2.775384e+03
1.439602e+03,2.775692e+03
1.440566e+03,2.778567e+03
1.441531e+03,2.783629e+03
1.442495e+03,2.790864e+03
1.443459e+03,2.800785e+03
1.444423e+03,2.807957e+03
1.445388e+03,2.805638e+03
1.446352e+03,2.797781e+03
1.447316e+03,2.787347e+03
1.448280e+03,2.776759e+03
1.449245e+03,2.770387e+03
1.450209e+03,2.771961e+03
1.451173e+03,2.774021e+03
1.452137e+03,2.775490e+03
1.453101e+03,2.774105e+03
1.454066e+03,2.766928e+03
1.455030e+03,2.755598e+03
1.455994e+03,2.754612e+03
1.456958e+03,2.761935e+03
1.457923e+03,2.762819e+03
1.458887e+03,2.748809e+03
1.459851e+03,2.736126e+03
1.460815e+03,2.743686e+03
1.461780e+03,2.754767e+03
1.462744e+03,2.754061e+03
1.463708e+03,2.743246e+03
1.464672e+03,2.737744e+03
1.465636e+03,2.745036e+03
1.466601e+03,2.746849e+03
1.467565e+03,2.738738e+03
1.468529e+03,2.729934e+03
1.469493e+03,2.729672e+03
1.470458e+03,2.734620e+03
1.471422e+03,2.732786e+03
1.472386e+03,2.726930e+03
1.473350e+03,2.725511e+03
1.474315e+03,2.731645e+03
1.475279e+03,2.739505e+03
1.476243e+03,2.750597e+03
1.477207e+03,2.756601e+03
1.478172e+03,2.748785e+03
1.479136e+03,2.731228e+03
1.480100e+03,2.721208e+03
1.481064e+03,2.720927e+03
1.482028e+03,2.721038e+03
1.482993e+03,2.720906e+03
1.483957e+03,2.720735e+03
1.484921e+03,2.721594e+03
1.485885e+03,2.721019e+03
1.486850e+03,2.711021e+03
1.487814e+03,2.695556e+03
1.488778e+03,2.685233e+03
1.489742e+03,2.684697e+03
1.490707e+03,2.685067e+03
1.491671e+03,2.685515e+03
1.492635e+03,2.687204e+03
1.493599e+03,2.690105e+03
1.494563e+03,2.692694e+03
1.495528e+03,2.691399e+03
1.496492e+03,2.686086e+03
1.497456e+03,2.687368e+03
1.498420e+03,2.697051e+03
1.499385e+03,2.704520e+03
1.500349e+03,2.698841e+03
1.501313e+03,2.690245e+03
1.502277e+03,2.686558e+03
1.503242e+03,2.685543e+03
1.504206e+03,2.683796e+03
1.505170e+03,2.679579e+03
1.506134e+03,2.677827e+03
1.507099e+03,2.680053e+03
1.508063e+03,2.681338e+03
1.509027e+03,2.679634e+03
1.509991e+03,2.676438e+03
1.510955e+03,2.675220e+03
1.511920e+03,2.674327e+03
1.512884e+03,2.669073e+03
1.513848e+03,2.661108e+03
1.514812e+03,2.656804e+03
1.515777e+03,2.659746e+03
1.516741e+03,2.662306e+03
1.517705e+03,2.660296e+03
1.518669e+03,2.657792e+03
1.519634e+03,2.659136e+03
1.520598e+03,2.663616e+03
1.521562e+03,2.665842e+03
1.522526e+03,2.665255e+03
1.523490e+03,2.665461e+03
1.524455e+03,2.668404e+03
1.525419e+03,2.669882e+03
1.526383e+03,2.665733e+03
1.527347e+03,2.658969e+03
1.528312e+03,2.652271e+03
1.529276e+03,2.647103e+03
1.530240e+03,2.644242e+03
1.531204e+03,2.643483e+03
1.532169e+03,2.642118e+03
1.533133e+03,2.639641e+03
1.534097e+03,2.638324e+03
1.535061e+03,2.641367e+03
1.536026e+03,2.644585e+03
1.536990e+03,2.638497e+03
1.537954e+03,2.628478e+03
1.538918e+03,2.625515e+03
1.539882e+03,2.633165e+03
1.540847e+03,2.636728e+03
1.541811e+03,2.625264e+03
1.542775e+03,2.617100e+03
1.543739e+03,2.619900e+03
1.544704e+03,2.627538e+03
1.545668e+03,2.629002e+03
1.546632e+03,2.625985e+03
1.547596e+03,2.624760e+03
1.548561e+03,2.625531e+03
1.549525e+03,2.627246e+03
1.550489e+03,2.628833e+03
1.551453e+03,2.630145e+03
1.552417e+03,2.632673e+03
1.553382e+03,2.633194e+03
1.554346e+03,2.629127e+03
1.555310e+03,2.621712e+03
1.556274e+03,2.617548e+03
1.557239e+03,2.616347e+03
1.558203e+03,2.615145e+03
1.559167e+03,2.613220e+03
1.560131e+03,2.612435e+03
1.561096e+03,2.617411e+03
1.562060e+03,2.622092e+03
1.563024e+03,2.620582e+03
1.563988e+03,2.614813e+03
1.564953e+03,2.609262e+03
1.565917e+03,2.603072e+03
1.566881e+03,2.600548e+03
1.567845e+03,2.601559e+03
1.568809e+03,2.603141e+03
1.569774e+03,2.604756e+03
1.570738e+03,2.604940e+03
1.571702e+03,2.599261e+03
1.572666e+03,2.592099e+03
1.573631e+03,2.590384e+03
1.574595e+03,2.595522e+03
1.575559e+03,2.597795e+03
1.576523e+03,2.596040e+03
1.577488e+03,2.592531e+03
1.578452e+03,2.584882e+03
1.579416e+03,2.579389e+03
1.580380e+03,2.588246e+03
1.581344e+03,2.602214e+03
1.582309e+03,2.602534e+03
1.583273e+03,2.593777e+03
1.584237e+03,2.586430e+03
1.585201e+03,2.583337e+03
1.586166e+03,2.583180e+03
1.587130e+03,2.588563e+03
1.588094e+03,2.588697e+03
1.589058e+03,2.577662e+03
1.590023e+03,2.562884e+03
1.590987e+03,2.559088e+03
1.591951e+03,2.563101e+03
1.592915e+03,2.565678e+03
1.593880e+03,2.564674e+03
1.594844e+03,2.562403e+03
1.595808e+03,2.562163e+03
1.596772e+03,2.557488e+03
1.597736e+03,2.543190e+03
1.598701e+03,2.532720e+03
1.599665e+03,2.540662e+03
1.600629e+03,2.560807e+03
1.601593e+03,2.567091e+03
1.602558e+03,2.563055e+03
1.603522e+03,2.560027e+03
1.604486e+03,2.561824e+03
1.605450e+03,2.560019e+03
1.606415e+03,2.545210e+03
1.607379e+03,2.535694e+03
1.608343e+03,2.539307e+03
1.609307e+03,2.549507e+03
1.610271e+03,2.556688e+03
1.611236e+03,2.560280e+03
1.612200e+03,2.558626e+03
1.613164e+03,2.552864e+03
1.614128e+03,2.545856e+03
1.615093e+03,2.534820e+03
1.616057e+03,2.527457e+03
1.617021e+03,2.529960e+03
1.617985e+03,2.531501e+03
1.618950e+03,2.525441e+03
1.619914e+03,2.514366e+03
1.620878e+03,2.507573e+03
1.621842e+03,2.504759e+03
1.622807e+03,2.503917e+03
1.623771e+03,2.505106e+03
1.624735e+03,2.506958e+03
1.625699e+03,2.506415e+03
1.626663e+03,2.507468e+03
1.627628e+03,2.513159e+03
1.628592e+03,2.517230e+03
1.629556e+03,2.512227e+03
1.630520e+03,2.501221e+03
1.631485e+03,2.494879e+03
1.632449e+03,2.492549e+03
1.633413e+03,2.492399e+03
1.634377e+03,2.496580e+03
1.635342e+03,2.496097e+03
1.636306e+03,2.481807e+03
1.637270e+03,2.468948e+03
1.638234e+03,2.464068e+03
1.639198e+03,2.465282e+03
1.640163e+03,2.467509e+03
1.641127e+03,2.471375e+03
1.642091e+03,2.478188e+03
1.643055e+03,2.486576e+03
1.644020e+03,2.491467e+03
1.644984e+03,2.487001e+03
1.645948e+03,2.482183e+03
1.646912e+03,2.480453e+03
1.647877e+03,2.478021e+03
1.648841e+03,2.470792e+03
1.649805e+03,2.461313e+03
1.650769e+03,2.457135e+03
1.651734e+03,2.456664e+03
1.652698e+03,2.456927e+03
1.653662e+03,2.456495e+03
1.654626e+03,2.455883e+03
1.655590e+03,2.456555e+03
1.656555e+03,2.454803e+03
1.657519e+03,2.449961e+03
1.658483e+03,2.445072e+03
1.659447e+03,2.443823e+03
1.660412e+03,2.442833e+03
1.661376e+03,2.435813e+03
1.662340e+03,2.425819e+03
1.663304e+03,2.420946e+03
1.664269e+03,2.425929e+03
1.665233e+03,2.429744e+03
1.666197e+03,2.431630e+03
1.667161e+03,2.431750e+03
1.668125e+03,2.430457e+03
1.669090e+03,2.428650e+03
1.670054e+03,2.429719e+03
1.671018e+03,2.430119e+03
1.671982e+03,2.422799e+03
1.672947e+03,2.408529e+03
1.673911e+03,2.405812e+03
1.674875e+03,2.417984e+03
1.675839e+03,2.423348e+03
1.676804e+03,2.419536e+03
1.677768e+03,2.415607e+03
1.678732e+03,2.423807e+03
1.679696e+03,2.428825e+03
1.680661e+03,2.408071e+03
1.681625e+03,2.378628e+03
1.682589e+03,2.367888e+03
1.683553e+03,2.377759e+03
1.684517e+03,2.389329e+03
1.685482e+03,2.401982e+03
1.686446e+03,2.407531e+03
1.687410e+03,2.402729e+03
1.688374e+03,2.394886e+03
1.689339e+03,2.383143e+03
1.690303e+03,2.376993e+03
1.691267e+03,2.387554e+03
1.692231e+03,2.403426e+03
1.693196e+03,2.403559e+03
1.694160e+03,2.389507e+03
1.695124e+03,2.375072e+03
1.696088e+03,2.362763e+03
1.697052e+03,2.359178e+03
1.698017e+03,2.372780e+03
1.698981e+03,2.381957e+03
1.699945e+03,2.378292e+03
1.700909e+03,2.371625e+03
1.701874e+03,2.368355e+03
1.702838e+03,2.368512e+03
1.703802e+03,2.370109e+03
1.704766e+03,2.371271e+03
1.705731e+03,2.371691e+03
1.706695e+03,2.371514e+03
1.707659e+03,2.366616e+03
1.708623e+03,2.352042e+03
1.709588e+03,2.348196e+03
1.710552e+03,2.358146e+03
1.711516e+03,2.368299e+03
1.712480e+03,2.367313e+03
1.713444e+03,2.360849e+03
1.714409e+03,2.353561e+03
1.715373e+03,2.347357e+03
1.716337e+03,2.343789e+03
1.717301e+03,2.343377e+03
1.718266e+03,2.350340e+03
1.719230e+03,2.363722e+03
1.720194e+03,2.366600e+03
1.721158e+03,2.352739e+03
1.722123e+03,2.339258e+03
1.723087e+03,2.339364e+03
1.724051e+03,2.342619e+03
1.725015e+03,2.346331e+03
1.725979e+03,2.348253e+03
1.726944e+03,2.342867e+03
1.727908e+03,2.332046e+03
1.728872e+03,2.321765e+03
1.729836e+03,2.312576e+03
1.730801e+03,2.308039e+03
1.731765e+03,2.310458e+03
1.732729e+03,2.318257e+03
1.733693e+03,2.335011e+03
1.734658e+03,2.345814e+03
1.735622e+03,2.342543e+03
1.736586e+03,2.332880e+03
1.737550e+03,2.326597e+03
1.738515e+03,2.321750e+03
1.739479e+03,2.315682e+03
1.740443e+03,2.308856e+03
1.741407e+03,2.304917e+03
1.742371e+03,2.304243e+03
1.743336e+03,2.304239e+03
1.744300e+03,2.304431e+03
1.745264e+03,2.301982e+03
1.746228e+03,2.293087e+03
1.747193e+03,2.286110e+03
1.748157e+03,2.286920e+03
1.749121e+03,2.292057e+03
1.750085e+03,2.298152e+03
1.751050e+03,2.302016e+03
1.752014e+03,2.298059e+03
1.752978e+03,2.290031e+03
1.753942e+03,2.286090e+03
1.754906e+03,2.287260e+03
1.755871e+03,2.286768e+03
1.756835e+03,2.280684e+03
1.757799e+03,2.276268e+03
1.758763e+03,2.277508e+03
1.759728e+03,2.279544e+03
1.760692e+03,2.276933e+03
1.761656e+03,2.272720e+03
1.762620e+03,2.265326e+03
1.763585e+03,2.259695e+03
1.764549e+03,2.264327e+03
1.765513e+03,2.277898e+03
1.766477e+03,2.282140e+03
1.767442e+03,2.278703e+03
1.768406e+03,2.273778e+03
1.769370e+03,2.269211e+03
1.770334e+03,2.264248e+03
1.771298e+03,2.253950e+03
1.772263e+03,2.247743e+03
1.773227e+03,2.250134e+03
1.774191e+03,2.255151e+03
1.775155e+03,2.254360e+03
1.776120e+03,2.250393e+03
1.777084e+03,2.247145e+03
1.778048e+03,2.244835e+03
1.779012e+03,2.242801e+03
1.779977e+03,2.240977e+03
1.780941e+03,2.243406e+03
1.781905e+03,2.248899e+03
1.782869e+03,2.249557e+03
1.783833e+03,2.240645e+03
1.784798e+03,2.231235e+03
1.785762e+03,2.225134e+03
1.786726e+03,2.221987e+03
1.787690e+03,2.222671e+03
1.788655e+03,2.225256e+03
1.789619e+03,2.226883e+03
1.790583e+03,2.226300e+03
1.791547e+03,2.216408e+03
1.792512e+03,2.200603e+03
1.793476e+03,2.197066e+03
1.794440e+03,2.212218e+03
1.795404e+03,2.219323e+03
1.796369e+03,2.216196e+03
1.797333e+03,2.213255e+03
1.798297e+03,2.218598e+03
1.799261e+03,2.223239e+03
1.800225e+03,2.218906e+03
1.801190e+03,2.211915e+03
1.802154e+03,2.207337e+03
1.803118e+03,2.203787e+03
1.804082e+03,2.198020e+03
1.805047e+03,2.192264e+03
1.806011e+03,2.190199e+03
1.806975e+03,2.191864e+03
1.807939e+03,2.194748e+03
1.808904e+03,2.198845e+03
1.809868e+03,2.199686e+03
1.810832e+03,2.197387e+03
1.811796e+03,2.194270e+03
1.812760e+03,2.189371e+03
1.813725e+03,2.186563e+03
1.814689e+03,2.195394e+03
1.815653e+03,2.199876e+03
1.816617e+03,2.184076e+03
1.817582e+03,2.157797e+03
1.818546e+03,2.153453e+03
1.819510e+03,2.162699e+03
1.820474e+03,2.168642e+03
1.821439e+03,2.168832e+03
1.822403e+03,2.167986e+03
1.823367e+03,2.166526e+03
1.824331e+03,2.164881e+03
1.825296e+03,2.162398e+03
1.826260e+03,2.160722e+03
1.827224e+03,2.165194e+03
1.828188e+03,2.169748e+03
1.829152e+03,2.170232e+03
1.830117e+03,2.167177e+03
1.831081e+03,2.159075e+03
1.832045e+03,2.148228e+03
1.833009e+03,2.145210e+03
1.833974e+03,2.147473e+03
1.834938e+03,2.145938e+03
1.835902e+03,2.137376e+03
1.836866e+03,2.134117e+03
1.837831e+03,2.136453e+03
1.838795e+03,2.137454e+03
1.839759e+03,2.136599e+03
1.840723e+03,2.135603e+03
1.841688e+03,2.134375e+03
1.842652e+03,2.132865e+03
1.843616e+03,2.129788e+03
1.844580e+03,2.126031e+03
1.845544e+03,2.124135e+03
1.846509e+03,2.123179e+03
1.847473e+03,2.121485e+03
1.848437e+03,2.118686e+03
1.849401e+03,2.113219e+03
1.850366e+03,2.105471e+03
1.851330e+03,2.102472e+03
1.852294e+03,2.104272e+03
1.853258e+03,2.105267e+03
1.854223e+03,2.103740e+03
1.855187e+03,2.103585e+03
1.856151e+03,2.107616e+03
1.857115e+03,2.109109e+03
1.858079e+03,2.105871e+03
1.859044e+03,2.101567e+03
1.860008e+03,2.102938e+03
1.860972e+03,2.104354e+03
1.861936e+03,2.098810e+03
1.862901e+03,2.089998e+03
1.863865e+03,2.081134e+03
1.864829e+03,2.071678e+03
1.865793e+03,2.069579e+03
1.866758e+03,2.073523e+03
1.867722e+03,2.078106e+03
1.868686e+03,2.081934e+03
1.869650e+03,2.082453e+03
1.870615e+03,2.078130e+03
1.871579e+03,2.074804e+03
1.872543e+03,2.075027e+03
1.873507e+03,2.077506e+03
1.874471e+03,2.081367e+03
1.875436e+03,2.082173e+03
1.876400e+03,2.078710e+03
1.877364e+03,2.073198e+03
1.878328e+03,2.066289e+03
1.879293e+03,2.059842e+03
1.880257e+03,2.057519e+03
1.881221e+03,2.057517e+03
1.882185e+03,2.057694e+03
1.883150e+03,2.058376e+03
1.884114e+03,2.059506e+03
1.885078e+03,2.059892e+03
1.886042e+03,2.053259e+03
1.887006e+03,2.035802e+03
1.887971e+03,2.027182e+03
1.888935e+03,2.038295e+03
1.889899e+03,2.051013e+03
1.890863e+03,2.061298e+03
1.891828e+03,2.065477e+03
1.892792e+03,2.056181e+03
1.893756e+03,2.045299e+03
1.894720e+03,2.044978e+03
1.895685e+03,2.049125e+03
1.896649e+03,2.050750e+03
1.897613e+03,2.048644e+03
1.898577e+03,2.038801e+03
1.899542e+03,2.025478e+03
1.900506e+03,2.017481e+03
1.901470e+03,2.016184e+03
1.902434e+03,2.015161e+03
1.903398e+03,2.014663e+03
1.904363e+03,2.019066e+03
1.905327e+03,2.030463e+03
1.906291e+03,2.037447e+03
1.907255e+03,2.027369e+03
1.908220e+03,2.021146e+03
1.909184e+03,2.023615e+03
1.910148e+03,2.026224e+03
1.911112e+03,2.021217e+03
1.912077e+03,2.013753e+03
1.913041e+03,2.005132e+03
1.914005e+03,1.998962e+03
1.914969e+03,2.000299e+03
1.915933e+03,2.006210e+03
1.916898e+03,2.006958e+03
1.917862e+03,2.003904e+03
1.918826e+03,1.997796e+03
1.919790e+03,1.989191e+03
1.920755e+03,1.985506e+03
1.921719e+03,1.985370e+03
1.922683e+03,1.982649e+03
1.923647e+03,1.976699e+03
1.924612e+03,1.974218e+03
1.925576e+03,1.980765e+03
1.926540e+03,1.987428e+03
1.927504e+03,1.992120e+03
1.928469e+03,1.994556e+03
1.929433e+03,1.994454e+03
1.930397e+03,1.991516e+03
1.931361e+03,1.983902e+03
1.932325e+03,1.975057e+03
1.933290e+03,1.967881e+03
1.934254e+03,1.963816e+03
1.935218e+03,1.962783e+03
1.936182e+03,1.963250e+03
1.937147e+03,1.968055e+03
1.938111e+03,1.976070e+03
1.939075e+03,1.970269e+03
1.940039e+03,1.954500e+03
1.941004e+03,1.948350e+03
1.941968e+03,1.953032e+03
1.942932e+03,1.957360e+03
1.943896e+03,1.959689e+03
1.944860e+03,1.959736e+03
1.945825e+03,1.958214e+03
1.946789e+03,1.957341e+03
1.947753e+03,1.961215e+03
1.948717e+03,1.960087e+03
1.949682e+03,1.946460e+03
1.950646e+03,1.932849e+03
1.951610e+03,1.925681e+03
1.952574e+03,1.924539e+03
1.953539e+03,1.933390e+03
1.954503e+03,1.943907e+03
1.955467e+03,1.948761e+03
1.956431e+03,1.948650e+03
1.957396e+03,1.940915e+03
1.958360e+03,1.929331e+03
1.959324e+03,1.925419e+03
1.960288e+03,1.929512e+03
1.961252e+03,1.931269e+03
1.962217e+03,1.928902e+03
1.963181e+03,1.924089e+03
1.964145e+03,1.917403e+03
1.965109e+03,1.915027e+03
1.966074e+03,1.928081e+03
1.967038e+03,1.930310e+03
1.968002e+03,1.915834e+03
1.968966e+03,1.902426e+03
1.969931e+03,1.898356e+03
1.970895e+03,1.898426e+03
1.971859e+03,1.906909e+03
1.972823e+03,1.911073e+03
1.973787e+03,1.902866e+03
1.974752e+03,1.891033e+03
1.975716e+03,1.888105e+03
1.976680e+03,1.889473e+03
1.977644e+03,1.894927e+03
1.978609e+03,1.900618e+03
1.979573e+03,1.896745e+03
1.980537e+03,1.886590e+03
1.981501e+03,1.883422e+03
1.982466e+03,1.885721e+03
1.983430e+03,1.888045e+03
1.984394e+03,1.889885e+03
1.985358e+03,1.883808e+03
1.986323e+03,1.871386e+03
1.987287e+03,1.864589e+03
1.988251e+03,1.867968e+03
1.989215e+03,1.869292e+03
1.990179e+03,1.866875e+03
1.991144e+03,1.866788e+03
1.992108e+03,1.871690e+03
1.993072e+03,1.873560e+03
1.994036e+03,1.859868e+03
1.995001e+03,1.850790e+03
1.995965e+03,1.852424e+03
1.996929e+03,1.857621e+03
1.997893e+03,1.861176e+03
1.998858e+03,1.860851e+03
1.999822e+03,1.849685e+03
2.000786e+03,1.838951e+03
2.001750e+03,1.841325e+03
2.002714e+03,1.851617e+03
2.003679e+03,1.858469e+03
2.004643e+03,1.859395e+03
2.005607e+03,1.846582e+03
2.006571e+03,1.826538e+03
2.007536e+03,1.823556e+03
2.008500e+03,1.833330e+03
2.009464e+03,1.843790e+03
2.010428e+03,1.853051e+03
2.011393e+03,1.856279e+03
2.012357e+03,1.853045e+03
2.013321e+03,1.849291e+03
2.014285e+03,1.844180e+03
2.015250e+03,1.836819e+03
2.016214e+03,1.823010e+03
2.017178e+03,1.814747e+03
2.018142e+03,1.813287e+03
2.019106e+03,1.813889e+03
2.020071e+03,1.813903e+03
2.021035e+03,1.815257e+03
2.021999e+03,1.821893e+03
2.022963e+03,1.822573e+03
2.023928e+03,1.811957e+03
2.024892e+03,1.800154e+03
2.025856e+03,1.797423e+03
2.026820e+03,1.799108e+03
2.027785e+03,1.802765e+03
2.028749e+03,1.806206e+03
2.029713e+03,1.807169e+03
2.030677e+03,1.807031e+03
2.031641e+03,1.808353e+03
2.032606e+03,1.808180e+03
2.033570e+03,1.800609e+03
2.034534e+03,1.787818e+03
2.035498e+03,1.779360e+03
2.036463e+03,1.775393e+03
2.037427e+03,1.777391e+03
2.038391e+03,1.785580e+03
2.039355e+03,1.788016e+03
2.040320e+03,1.785558e+03
2.041284e+03,1.777906e+03
2.042248e+03,1.764119e+03
2.043212e+03,1.765962e+03
2.044177e+03,1.786565e+03
2.045141e+03,1.796343e+03
2.046105e+03,1.790644e+03
2.047069e+03,1.781687e+03
2.048033e+03,1.771419e+03
2.048998e+03,1.762653e+03
2.049962e+03,1.756037e+03
2.050926e+03,1.754249e+03
2.051890e+03,1.761493e+03
2.052854e+03,1.770665e+03
2.053819e+03,1.781288e+03
2.054783e+03,1.785226e+03
2.055747e+03,1.778222e+03
2.056711e+03,1.767359e+03
2.057676e+03,1.755966e+03
2.058640e+03,1.746401e+03
2.059604e+03,1.737497e+03
2.060568e+03,1.731802e+03
2.061533e+03,1.738427e+03
2.062497e+03,1.747302e+03
2.063461e+03,1.749409e+03
2.064425e+03,1.745754e+03
2.065390e+03,1.732795e+03
2.066354e+03,1.717608e+03
2.067318e+03,1.716207e+03
2.068282e+03,1.723032e+03
2.069247e+03,1.723842e+03
2.070211e+03,1.719507e+03
2.071175e+03,1.720310e+03
2.072139e+03,1.724157e+03
2.073104e+03,1.724945e+03
2.074068e+03,1.722440e+03
2.075032e+03,1.725701e+03
2.075996e+03,1.731351e+03
2.076960e+03,1.724953e+03
2.077925e+03,1.703876e+03
2.078889e+03,1.694390e+03
2.079853e+03,1.698178e+03
2.080817e+03,1.702145e+03
2.081782e+03,1.704421e+03
2.082746e+03,1.704442e+03
2.083710e+03,1.701983e+03
2.084674e+03,1.701430e+03
2.085639e+03,1.703952e+03
2.086603e+03,1.705229e+03
2.087567e+03,1.696416e+03
2.088531e+03,1.692871e+03
2.089496e+03,1.696654e+03
2.090460e+03,1.699246e+03
2.091424e+03,1.699782e+03
2.092388e+03,1.699967e+03
2.093353e+03,1.699486e+03
2.094317e+03,1.698558e+03
2.095281e+03,1.695277e+03
2.096245e+03,1.691414e+03
2.097209e+03,1.688476e+03
2.098174e+03,1.687130e+03
2.099138e+03,1.689452e+03
2.100102e+03,1.690317e+03
2.101066e+03,1.680854e+03
2.102031e+03,1.670498e+03
2.102995e+03,1.669299e+03
2.103959e+03,1.670107e+03
2.104923e+03,1.666740e+03
2.105887e+03,1.663482e+03
2.106852e+03,1.664030e+03
2.107816e+03,1.666494e+03
2.108780e+03,1.671657e+03
2.109744e+03,1.676119e+03
2.110708e+03,1.670417e+03
2.111673e+03,1.661779e+03
2.112637e+03,1.660514e+03
2.113601e+03,1.661683e+03
2.114565e+03,1.653764e+03
2.115530e+03,1.641495e+03
2.116494e+03,1.634569e+03
2.117458e+03,1.635061e+03
2.118422e+03,1.638128e+03
2.119387e+03,1.641976e+03
2.120351e+03,1.645868e+03
2.121315e+03,1.648048e+03
2.122279e+03,1.646016e+03
2.123244e+03,1.639578e+03
2.124208e+03,1.635639e+03
2.125172e+03,1.634347e+03
2.126136e+03,1.634856e+03
2.127101e+03,1.637584e+03
2.128065e+03,1.633000e+03
2.129029e+03,1.622360e+03
2.129993e+03,1.620237e+03
2.130958e+03,1.627821e+03
2.131922e+03,1.626518e+03
2.132886e+03,1.614647e+03
2.133850e+03,1.610825e+03
2.134814e+03,1.617980e+03
2.135779e+03,1.622335e+03
2.136743e+03,1.616736e+03
2.137707e+03,1.611765e+03
2.138671e+03,1.608635e+03
2.139636e+03,1.609107e+03
2.140600e+03,1.619846e+03
2.141564e+03,1.618258e+03
2.142528e+03,1.602439e+03
2.143493e+03,1.595634e+03
2.144457e+03,1.611100e+03
2.145421e+03,1.613863e+03
2.146385e+03,1.590962e+03
2.147350e+03,1.577344e+03
2.148314e+03,1.584044e+03
2.149278e+03,1.594639e+03
2.150242e+03,1.598453e+03
2.151207e+03,1.600528e+03
2.152171e+03,1.601242e+03
2.153135e+03,1.599034e+03
2.154099e+03,1.594188e+03
2.155063e+03,1.587864e+03
2.156028e+03,1.580384e+03
2.156992e+03,1.574910e+03
2.157956e+03,1.573099e+03
2.158920e+03,1.570128e+03
2.159885e+03,1.562929e+03
2.160849e+03,1.556285e+03
2.161813e+03,1.551776e+03
2.162777e+03,1.550137e+03
2.163741e+03,1.556164e+03
2.164706e+03,1.559780e+03
2.165670e+03,1.557889e+03
2.166634e+03,1.557078e+03
2.167598e+03,1.569086e+03
2.168563e+03,1.573297e+03
2.169527e+03,1.557349e+03
2.170491e+03,1.538549e+03
2.171455e+03,1.538986e+03
2.172420e+03,1.542861e+03
2.173384e+03,1.539478e+03
2.174348e+03,1.536305e+03
2.175312e+03,1.541555e+03
2.176277e+03,1.545727e+03
2.177241e+03,1.535669e+03
2.178205e+03,1.525829e+03
2.179169e+03,1.527356e+03
2.180134e+03,1.532890e+03
2.181098e+03,1.529453e+03
2.182062e+03,1.527209e+03
2.183026e+03,1.532900e+03
2.183990e+03,1.539675e+03
2.184955e+03,1.534951e+03
2.185919e+03,1.530245e+03
2.186883e+03,1.535945e+03
2.187847e+03,1.542668e+03
2.188812e+03,1.538794e+03
2.189776e+03,1.531295e+03
2.190740e+03,1.524748e+03
2.191704e+03,1.520201e+03
2.192668e+03,1.521384e+03
2.193633e+03,1.524400e+03
2.194597e+03,1.525497e+03
2.195561e+03,1.522390e+03
2.196525e+03,1.509917e+03
2.197490e+03,1.496026e+03
2.198454e+03,1.497359e+03
2.199418e+03,1.502681e+03
2.200382e+03,1.501822e+03
2.201347e+03,1.499130e+03
2.202311e+03,1.500481e+03
2.203275e+03,1.502933e+03
2.204239e+03,1.502605e+03
2.205204e+03,1.499691e+03
2.206168e+03,1.496448e+03
2.207132e+03,1.493365e+03
2.208096e+03,1.490424e+03
2.209061e+03,1.485496e+03
2.210025e+03,1.475479e+03
2.210989e+03,1.464978e+03
2.211953e+03,1.460760e+03
2.212917e+03,1.464441e+03
2.213882e+03,1.475110e+03
2.214846e+03,1.486188e+03
2.215810e+03,1.486916e+03
2.216774e+03,1.481804e+03
2.217739e+03,1.478620e+03
2.218703e+03,1.476228e+03
2.219667e+03,1.468071e+03
2.220631e+03,1.463206e+03
2.221595e+03,1.473332e+03
2.222560e+03,1.485301e+03
2.223524e+03,1.478624e+03
2.224488e+03,1.465828e+03
2.225452e+03,1.462301e+03
2.226417e+03,1.461307e+03
2.227381e+03,1.454056e+03
2.228345e+03,1.447059e+03
2.229309e+03,1.447490e+03
2.230274e+03,1.451744e+03
2.231238e+03,1.459791e+03
2.232202e+03,1.465951e+03
2.233166e+03,1.460571e+03
2.234131e+03,1.452964e+03
2.235095e+03,1.449172e+03
2.236059e+03,1.448477e+03
2.237023e+03,1.452362e+03
2.237988e+03,1.454543e+03
2.238952e+03,1.449989e+03
2.239916e+03,1.442173e+03
2.240880e+03,1.436521e+03
2.241844e+03,1.431375e+03
2.242809e+03,1.424258e+03
2.243773e+03,1.419039e+03
2.244737e+03,1.419929e+03
2.245701e+03,1.422521e+03
2.246666e+03,1.424253e+03
2.247630e+03,1.423758e+03
2.248594e+03,1.419847e+03
2.249558e+03,1.417549e+03
2.250522e+03,1.423793e+03
2.251487e+03,1.428622e+03
2.252451e+03,1.425111e+03
2.253415e+03,1.417958e+03
2.254379e+03,1.413402e+03
2.255344e+03,1.409243e+03
2.256308e+03,1.404559e+03
2.257272e+03,1.401506e+03
2.258236e+03,1.403613e+03
2.259201e+03,1.405797e+03
2.260165e+03,1.405547e+03
2.261129e+03,1.404740e+03
2.262093e+03,1.406941e+03
2.263058e+03,1.404273e+03
2.264022e+03,1.395218e+03
2.264986e+03,1.387359e+03
2.265950e+03,1.383971e+03
2.266915e+03,1.383941e+03
2.267879e+03,1.387098e+03
2.268843e+03,1.385353e+03
2.269807e+03,1.374675e+03
2.270771e+03,1.367593e+03
2.271736e+03,1.368972e+03
2.272700e+03,1.376470e+03
2.273664e+03,1.389496e+03
2.274628e+03,1.396504e+03
2.275593e+03,1.389057e+03
2.276557e+03,1.385036e+03
2.277521e+03,1.388302e+03
2.278485e+03,1.387926e+03
2.279449e+03,1.373960e+03
2.280414e+03,1.368321e+03
2.281378e+03,1.371845e+03
2.282342e+03,1.374708e+03
2.283306e+03,1.369576e+03
2.284271e+03,1.366574e+03
2.285235e+03,1.365172e+03
2.286199e+03,1.362220e+03
2.287163e+03,1.357609e+03
2.288128e+03,1.358402e+03
2.289092e+03,1.362559e+03
2.290056e+03,1.360760e+03
2.291020e+03,1.351002e+03
2.291985e+03,1.349038e+03
2.292949e+03,1.355120e+03
2.293913e+03,1.359631e+03
2.294877e+03,1.360621e+03
2.295842e+03,1.359433e+03
2.296806e+03,1.355846e+03
2.297770e+03,1.353759e+03
2.298734e+03,1.352169e+03
2.299698e+03,1.345919e+03
2.300663e+03,1.336771e+03
2.301627e+03,1.338171e+03
2.302591e+03,1.344304e+03
2.303555e+03,1.341641e+03
2.304520e+03,1.332421e+03
2.305484e+03,1.324946e+03
2.306448e+03,1.320835e+03
2.307412e+03,1.322896e+03
2.308376e+03,1.327980e+03
2.309341e+03,1.330352e+03
2.310305e+03,1.331548e+03
2.311269e+03,1.335881e+03
2.312233e+03,1.340083e+03
2.313198e+03,1.335429e+03
2.314162e+03,1.327113e+03
2.315126e+03,1.320562e+03
2.316090e+03,1.315240e+03
2.317055e+03,1.311576e+03
2.318019e+03,1.308870e+03
2.318983e+03,1.304271e+03
2.319947e+03,1.302013e+03
2.320912e+03,1.310230e+03
2.321876e+03,1.317086e+03
2.322840e+03,1.310442e+03
2.323804e+03,1.303032e+03
2.324769e+03,1.300521e+03
2.325733e+03,1.300620e+03
2.326697e+03,1.302072e+03
2.327661e+03,1.302605e+03
2.328625e+03,1.300198e+03
2.329590e+03,1.297996e+03
2.330554e+03,1.300939e+03
2.331518e+03,1.300734e+03
2.332482e+03,1.295805e+03
2.333447e+03,1.291985e+03
2.334411e+03,1.292872e+03
2.335375e+03,1.292830e+03
2.336339e+03,1.291460e+03
2.337303e+03,1.287770e+03
2.338268e+03,1.277860e+03
2.339232e+03,1.275263e+03
2.340196e+03,1.279338e+03
2.341160e+03,1.283161e+03
2.342125e+03,1.284839e+03
2.343089e+03,1.288993e+03
2.344053e+03,1.292279e+03
2.345017e+03,1.286839e+03
2.345982e+03,1.273880e+03
2.346946e+03,1.268594e+03
2.347910e+03,1.269547e+03
2.348874e+03,1.271532e+03
2.349839e+03,1.271828e+03
2.350803e+03,1.266813e+03
2.351767e+03,1.259844e+03
2.352731e+03,1.255139e+03
2.353696e+03,1.254858e+03
2.354660e+03,1.263203e+03
2.355624e+03,1.273089e+03
2.356588e+03,1.272703e+03
2.357552e+03,1.271658e+03
2.358517e+03,1.280814e+03
2.359481e+03,1.290368e+03
2.360445e+03,1.287358e+03
2.361409e+03,1.279365e+03
2.362374e+03,1.269408e+03
2.363338e+03,1.258629e+03
2.364302e+03,1.247713e+03
2.365266e+03,1.242365e+03
2.366230e+03,1.243869e+03
2.367195e+03,1.246672e+03
2.368159e+03,1.247236e+03
2.369123e+03,1.245678e+03
2.370087e+03,1.242964e+03
2.371052e+03,1.244002e+03
2.372016e+03,1.255848e+03
2.372980e+03,1.254137e+03
2.373944e+03,1.238751e+03
2.374909e+03,1.231047e+03
2.375873e+03,1.239846e+03
2.376837e+03,1.247839e+03
2.377801e+03,1.253939e+03
2.378766e+03,1.249590e+03
2.379730e+03,1.234902e+03
2.380694e+03,1.226934e+03
2.381658e+03,1.224237e+03
2.382623e+03,1.220567e+03
2.383587e+03,1.216470e+03
2.384551e+03,1.215974e+03
2.385515e+03,1.217993e+03
2.386479e+03,1.225906e+03
2.387444e+03,1.232682e+03
2.388408e+03,1.224031e+03
2.389372e+03,1.212965e+03
2.390336e+03,1.212418e+03
2.391301e+03,1.215187e+03
2.392265e+03,1.215050e+03
2.393229e+03,1.214027e+03
2.394193e+03,1.213679e+03
2.395157e+03,1.213234e+03
2.396122e+03,1.213266e+03
2.397086e+03,1.211136e+03
2.398050e+03,1.205869e+03
2.399014e+03,1.203018e+03
2.399979e+03,1.204582e+03
2.400943e+03,1.208935e+03
2.401907e+03,1.215409e+03
2.402871e+03,1.216787e+03
2.403836e+03,1.211746e+03
2.404800e+03,1.202744e+03
2.405764e+03,1.190799e+03
2.406728e+03,1.188856e+03
2.407693e+03,1.195012e+03
2.408657e+03,1.191786e+03
2.409621e+03,1.182503e+03
2.410585e+03,1.185194e+03
2.411550e+03,1.193760e+03
2.412514e+03,1.189393e+03
2.413478e+03,1.178682e+03
2.414442e+03,1.181080e+03
2.415406e+03,1.186981e+03
2.416371e+03,1.185227e+03
2.417335e+03,1.180473e+03
2.418299e+03,1.177458e+03
2.419263e+03,1.176851e+03
2.420228e+03,1.179410e+03
2.421192e+03,1.181740e+03
2.422156e+03,1.180369e+03
2.423120e+03,1.179840e+03
2.424084e+03,1.180190e+03
2.425049e+03,1.180357e+03
2.426013e+03,1.181821e+03
2.426977e+03,1.182592e+03
2.427941e+03,1.183176e+03
2.428906e+03,1.176144e+03
2.429870e+03,1.156477e+03
2.430834e+03,1.151547e+03
2.431798e+03,1.159014e+03
2.432763e+03,1.160799e+03
2.433727e+03,1.155754e+03
2.434691e+03,1.157293e+03
2.435655e+03,1.161612e+03
2.436620e+03,1.160960e+03
2.437584e+03,1.157031e+03
2.438548e+03,1.153742e+03
2.439512e+03,1.151823e+03
2.440477e+03,1.151655e+03
2.441441e+03,1.150977e+03
2.442405e+03,1.145093e+03
2.443369e+03,1.145423e+03
2.444333e+03,1.159580e+03
2.445298e+03,1.168628e+03
2.446262e+03,1.145425e+03
2.447226e+03,1.133488e+03
2.448190e+03,1.141073e+03
2.449155e+03,1.150912e+03
2.450119e+03,1.158129e+03
2.451083e+03,1.155324e+03
2.452047e+03,1.143571e+03
2.453011e+03,1.136481e+03
2.453976e+03,1.137973e+03
2.454940e+03,1.138837e+03
2.455904e+03,1.139027e+03
2.456868e+03,1.133793e+03
2.457833e+03,1.124866e+03
2.458797e+03,1.118451e+03
2.459761e+03,1.116626e+03
2.460725e+03,1.123896e+03
2.461690e+03,1.131832e+03
2.462654e+03,1.125419e+03
2.463618e+03,1.118881e+03
2.464582e+03,1.122181e+03
2.465547e+03,1.127334e+03
2.466511e+03,1.125144e+03
2.467475e+03,1.122147e+03
2.468439e+03,1.119712e+03
2.469404e+03,1.119336e+03
2.470368e+03,1.128623e+03
2.471332e+03,1.125657e+03
2.472296e+03,1.111032e+03
2.473260e+03,1.104381e+03
2.474225e+03,1.111535e+03
2.475189e+03,1.113974e+03
2.476153e+03,1.113695e+03
2.477117e+03,1.114296e+03
2.478082e+03,1.114573e+03
2.479046e+03,1.108908e+03
2.480010e+03,1.102367e+03
2.480974e+03,1.102294e+03
2.481938e+03,1.106375e+03
2.482903e+03,1.117544e+03
2.483867e+03,1.121786e+03
2.484831e+03,1.110324e+03
2.485795e+03,1.099002e+03
2.486760e+03,1.105693e+03
2.487724e+03,1.106217e+03
2.488688e+03,1.096941e+03
2.489652e+03,1.088995e+03
2.490617e+03,1.087190e+03
2.491581e+03,1.086589e+03
2.492545e+03,1.087416e+03
2.493509e+03,1.087999e+03
2.494474e+03,1.087373e+03
2.495438e+03,1.085397e+03
2.496402e+03,1.084117e+03
2.497366e+03,1.091401e+03
2.498331e+03,1.100197e+03
2.499295e+03,1.094984e+03
2.500259e+03,1.084898e+03
2.501223e+03,1.078352e+03
2.502188e+03,1.075846e+03
2.503152e+03,1.081550e+03
2.504116e+03,1.083586e+03
2.505080e+03,1.077902e+03
2.506044e+03,1.076511e+03
2.507009e+03,1.095148e+03
2.507973e+03,1.097498e+03
2.508937e+03,1.084046e+03
2.509901e+03,1.069165e+03
2.510865e+03,1.055244e+03
2.511830e+03,1.061660e+03
2.512794e+03,1.078777e+03
2.513758e+03,1.079826e+03
2.514722e+03,1.071370e+03
2.515687e+03,1.071981e+03
2.516651e+03,1.074435e+03
2.517615e+03,1.070329e+03
2.518579e+03,1.065463e+03
2.519544e+03,1.067686e+03
2.520508e+03,1.071984e+03
2.521472e+03,1.077262e+03
2.522436e+03,1.078999e+03
2.523401e+03,1.072068e+03
2.524365e+03,1.063416e+03
2.525329e+03,1.052918e+03
2.526293e+03,1.047779e+03
2.527258e+03,1.050641e+03
2.528222e+03,1.052649e+03
2.529186e+03,1.053075e+03
2.530150e+03,1.049020e+03
2.531115e+03,1.043827e+03
2.532079e+03,1.049963e+03
2.533043e+03,1.055943e+03
2.534007e+03,1.048548e+03
2.534971e+03,1.036841e+03
2.535936e+03,1.031006e+03
2.536900e+03,1.032277e+03
2.537864e+03,1.042476e+03
2.538828e+03,1.047545e+03
2.539792e+03,1.035027e+03
2.540757e+03,1.034212e+03
2.541721e+03,1.047739e+03
2.542685e+03,1.054306e+03
2.543649e+03,1.052953e+03
2.544614e+03,1.056528e+03
2.545578e+03,1.061523e+03
2.546542e+03,1.059281e+03
2.547506e+03,1.051868e+03
2.548471e+03,1.039018e+03
2.549435e+03,1.029022e+03
2.550399e+03,1.030936e+03
2.551363e+03,1.035315e+03
2.552328e+03,1.036429e+03
2.553292e+03,1.033559e+03
2.554256e+03,1.024467e+03
2.555220e+03,1.021444e+03
2.556185e+03,1.026048e+03
2.557149e+03,1.033311e+03
2.558113e+03,1.040883e+03
2.559077e+03,1.032557e+03
2.560042e+03,1.014006e+03
2.561006e+03,1.009881e+03
2.561970e+03,1.015996e+03
2.562934e+03,1.017467e+03
2.563898e+03,1.018104e+03
2.564863e+03,1.022595e+03
2.565827e+03,1.025998e+03
2.566791e+03,1.024999e+03
2.567755e+03,1.026031e+03
2.568719e+03,1.029388e+03
2.569684e+03,1.031654e+03
2.570648e+03,1.031815e+03
2.571612e+03,1.030283e+03
2.572576e+03,1.028004e+03
2.573541e+03,1.022461e+03
2.574505e+03,1.013940e+03
2.575469e+03,1.010625e+03
2.576433e+03,1.011225e+03
2.577398e+03,1.017100e+03
2.578362e+03,1.021781e+03
2.579326e+03,1.014517e+03
2.580290e+03,1.006414e+03
2.581255e+03,1.001939e+03
2.582219e+03,9.974794e+02
2.583183e+03,9.881074e+02
2.584147e+03,9.882189e+02
2.585112e+03,9.984789e+02
2.586076e+03,9.984132e+02
2.587040e+03,9.849702e+02
2.588004e+03,9.834594e+02
2.588969e+03,9.906508e+02
2.589933e+03,1.002144e+03
2.590897e+03,1.013412e+03
2.591861e+03,1.016256e+03
2.592825e+03,1.011858e+03
2.593790e+03,9.981132e+02
2.594754e+03,9.894022e+02
2.595718e+03,9.999073e+02
2.596682e+03,1.001371e+03
2.597646e+03,9.870427e+02
2.598611e+03,9.842458e+02
2.599575e+03,9.948754e+02
2.600539e+03,9.926936e+02
2.601503e+03,9.802652e+02
2.602468e+03,9.831310e+02
2.603432e+03,9.914249e+02
2.604396e+03,9.841122e+02
2.605360e+03,9.750133e+02
2.606325e+03,9.767542e+02
2.607289e+03,9.785964e+02
2.608253e+03,9.758281e+02
2.609217e+03,9.737039e+02
2.610182e+03,9.734741e+02
2.611146e+03,9.718483e+02
2.612110e+03,9.695582e+02
2.613074e+03,9.714658e+02
2.614039e+03,9.775510e+02
2.615003e+03,9.809361e+02
2.615967e+03,9.820286e+02
2.616931e+03,9.849276e+02
2.617896e+03,9.857756e+02
2.618860e+03,9.736541e+02
2.619824e+03,9.662804e+02
2.620788e+03,9.699847e+02
2.621752e+03,9.739733e+02
2.622717e+03,9.728115e+02
2.623681e+03,9.720879e+02
2.624645e+03,9.718411e+02
2.625609e+03,9.736373e+02
2.626573e+03,9.764288e+02
2.627538e+03,9.725148e+02
2.628502e+03,9.635296e+02
2.629466e+03,9.479459e+02
2.630430e+03,9.365283e+02
2.631395e+03,9.506796e+02
2.632359e+03,9.635450e+02
2.633323e+03,9.667572e+02
2.634287e+03,9.614489e+02
2.635252e+03,9.493587e+02
2.636216e+03,9.432725e+02
2.637180e+03,9.453688e+02
2.638144e+03,9.519716e+02
2.639109e+03,9.595281e+02
2.640073e+03,9.586483e+02
2.641037e+03,9.557582e+02
2.642001e+03,9.581292e+02
2.642966e+03,9.596964e+02
2.643930e+03,9.562783e+02
2.644894e+03,9.550504e+02
2.645858e+03,9.675107e+02
2.646823e+03,9.650951e+02
2.647787e+03,9.478297e+02
2.648751e+03,9.361053e+02
2.649715e+03,9.325684e+02
2.650679e+03,9.387263e+02
2.651644e+03,9.452490e+02
2.652608e+03,9.361694e+02
2.653572e+03,9.234318e+02
2.654536e+03,9.246236e+02
2.655500e+03,9.308489e+02
2.656465e+03,9.395524e+02
2.657429e+03,9.474703e+02
2.658393e+03,9.534354e+02
2.659357e+03,9.480243e+02
2.660322e+03,9.337319e+02
2.661286e+03,9.310234e+02
2.662250e+03,9.355689e+02
2.663214e+03,9.339722e+02
2.664179e+03,9.298612e+02
2.665143e+03,9.283104e+02
2.666107e+03,9.270930e+02
2.667071e+03,9.249504e+02
2.668036e+03,9.238661e+02
2.669000e+03,9.240513e+02
2.669964e+03,9.231189e+02
2.670928e+03,9.219910e+02
2.671893e+03,9.322176e+02
2.672857e+03,9.491501e+02
2.673821e+03,9.420783e+02
2.674785e+03,9.281152e+02
2.675750e+03,9.280449e+02
2.676714e+03,9.310816e+02
2.677678e+03,9.229005e+02
2.678642e+03,9.174424e+02
2.679606e+03,9.179758e+02
2.680571e+03,9.184301e+02
2.681535e+03,9.172834e+02
2.682499e+03,9.184960e+02
2.683463e+03,9.200214e+02
2.684427e+03,9.153029e+02
2.685392e+03,9.094024e+02
2.686356e+03,9.127328e+02
2.687320e+03,9.149871e+02
2.688284e+03,9.054107e+02
2.689249e+03,9.046776e+02
2.690213e+03,9.161633e+02
2.691177e+03,9.174258e+02
2.692141e+03,9.007784e+02
2.693106e+03,8.920224e+02
2.694070e+03,8.919885e+02
2.695034e+03,9.075579e+02
2.695998e+03,9.233426e+02
2.696963e+03,9.035441e+02
2.697927e+03,8.908438e+02
2.698891e+03,9.065389e+02
2.699855e+03,9.192967e+02
2.700820e+03,9.137233e+02
2.701784e+03,9.079721e+02
2.702748e+03,9.032843e+02
2.703712e+03,8.984369e+02
2.704677e+03,8.943546e+02
2.705641e+03,8.972350e+02
2.706605e+03,9.030387e+02
2.707569e+03,9.066846e+02
2.708533e+03,9.071774e+02
2.709498e+03,9.035873e+02
2.710462e+03,9.004227e+02
2.711426e+03,9.011047e+02
2.712390e+03,9.008497e+02
2.713354e+03,8.999140e+02
2.714319e+03,9.017936e+02
2.715283e+03,9.036554e+02
2.716247e+03,8.959893e+02
2.717211e+03,8.887434e+02
2.718176e+03,8.888460e+02
2.719140e+03,8.919084e+02
2.720104e+03,8.964981e+02
2.721068e+03,8.960192e+02
2.722033e+03,8.901034e+02
2.722997e+03,8.856750e+02
2.723961e+03,8.836077e+02
2.724925e+03,8.898835e+02
2.725890e+03,8.978133e+02
2.726854e+03,8.976446e+02
2.727818e+03,8.936158e+02
2.728782e+03,8.865403e+02
2.729747e+03,8.817742e+02
2.730711e+03,8.826870e+02
2.731675e+03,8.904568e+02
2.732639e+03,9.017010e+02
2.733604e+03,8.966987e+02
2.734568e+03,8.819590e+02
2.735532e+03,8.734913e+02
2.736496e+03,8.676635e+02
2.737460e+03,8.609186e+02
2.738425e+03,8.605133e+02
2.739389e+03,8.728895e+02
2.740353e+03,8.794899e+02
2.741317e+03,8.777183e+02
2.742281e+03,8.706547e+02
2.743246e+03,8.627360e+02
2.744210e+03,8.685687e+02
2.745174e+03,8.757664e+02
2.746138e+03,8.665699e+02
2.747103e+03,8.608904e+02
2.748067e+03,8.670718e+02
2.749031e+03,8.738802e+02
2.749995e+03,8.761330e+02
2.750960e+03,8.741985e+02
2.751924e+03,8.698851e+02
2.752888e+03,8.669410e+02
2.753852e+03,8.677975e+02
2.754817e+03,8.864699e+02
2.755781e+03,8.991074e+02
2.756745e+03,8.908370e+02
2.757709e+03,8.785099e+02
2.758674e+03,8.670352e+02
2.759638e+03,8.617938e+02
2.760602e+03,8.638788e+02
2.761566e+03,8.633858e+02
2.762531e+03,8.632491e+02
2.763495e+03,8.668492e+02
2.764459e+03,8.722471e+02
2.765423e+03,8.855067e+02
2.766387e+03,8.823021e+02
2.767352e+03,8.593605e+02
2.768316e+03,8.478521e+02
2.769280e+03,8.536275e+02
2.770244e+03,8.500491e+02
2.771208e+03,8.441627e+02
2.772173e+03,8.496931e+02
2.773137e+03,8.592958e+02
2.774101e+03,8.690753e+02
2.775065e+03,8.724553e+02
2.776030e+03,8.641513e+02
2.776994e+03,8.539643e+02
2.777958e+03,8.441048e+02
2.778922e+03,8.470548e+02
2.779887e+03,8.578507e+02
2.780851e+03,8.630450e+02
2.781815e+03,8.633359e+02
2.782779e+03,8.613486e+02
2.783744e+03,8.564271e+02
2.784708e+03,8.446520e+02
2.785672e+03,8.424464e+02
2.786636e+03,8.491963e+02
2.787601e+03,8.486763e+02
2.788565e+03,8.441893e+02
2.789529e+03,8.426069e+02
2.790493e+03,8.463577e+02
2.791458e+03,8.664208e+02
2.792422e+03,8.709584e+02
2.793386e+03,8.557881e+02
2.794350e+03,8.408046e+02
2.795314e+03,8.305342e+02
2.796279e+03,8.269330e+02
2.797243e+03,8.267240e+02
2.798207e+03,8.251229e+02
2.799171e+03,8.258931e+02
2.800135e+03,8.354360e+02
2.801100e+03,8.440135e+02
2.802064e+03,8.501898e+02
2.803028e+03,8.489981e+02
2.803992e+03,8.419330e+02
2.804957e+03,8.358425e+02
2.805921e+03,8.320944e+02
2.806885e+03,8.343731e+02
2.807849e+03,8.318967e+02
2.808814e+03,8.191630e+02
2.809778e+03,8.124982e+02
2.810742e+03,8.222047e+02
2.811706e+03,8.293819e+02
2.812671e+03,8.311542e+02
2.813635e+03,8.210150e+02
2.814599e+03,8.094832e+02
2.815563e+03,8.221111e+02
2.816528e+03,8.351008e+02
2.817492e+03,8.394786e+02
2.818456e+03,8.310272e+02
2.819420e+03,8.121523e+02
2.820385e+03,8.024061e+02
2.821349e+03,8.031744e+02
2.822313e+03,8.105872e+02
2.823277e+03,8.204876e+02
2.824241e+03,8.292911e+02
2.825206e+03,8.338635e+02
2.826170e+03,8.316747e+02
2.827134e+03,8.362921e+02
2.828098e+03,8.449445e+02
2.829063e+03,8.310157e+02
2.830027e+03,8.084945e+02
2.830991e+03,8.101052e+02
2.831955e+03,8.189916e+02
2.832919e+03,8.266526e+02
2.833884e+03,8.218682e+02
2.834848e+03,8.050920e+02
2.835812e+03,8.010270e+02
2.836776e+03,8.105320e+02
2.837741e+03,8.196621e+02
2.838705e+03,8.272320e+02
2.839669e+03,8.321768e+02
2.840633e+03,8.355167e+02
2.841598e+03,8.381882e+02
2.842562e+03,8.377949e+02
2.843526e+03,8.343803e+02
2.844490e+03,8.356937e+02
2.845455e+03,8.372382e+02
2.846419e+03,8.322266e+02
2.847383e+03,8.243535e+02
2.848347e+03,8.133224e+02
2.849312e+03,8.085197e+02
2.850276e+03,8.115277e+02
2.851240e+03,8.250458e+02
2.852204e+03,8.425380e+02
2.853168e+03,8.338967e+02
2.854133e+03,8.189813e+02
2.855097e+03,8.289453e+02
2.856061e+03,8.329801e+02
2.857025e+03,8.205473e+02
2.857990e+03,8.128300e+02
2.858954e+03,8.165222e+02
2.859918e+03,8.240237e+02
2.860882e+03,8.305135e+02
2.861846e+03,8.280168e+02
2.862811e+03,8.232316e+02
2.863775e+03,8.220580e+02
2.864739e+03,8.208445e+02
2.865703e+03,8.188157e+02
2.866668e+03,8.208978e+02
2.867632e+03,8.266525e+02
2.868596e+03,8.393168e+02
2.869560e+03,8.470115e+02
2.870525e+03,8.246780e+02
2.871489e+03,8.197907e+02
2.872453e+03,8.430701e+02
2.873417e+03,8.511764e+02
2.874382e+03,8.406295e+02
2.875346e+03,8.187980e+02
2.876310e+03,7.979564e+02
2.877274e+03,7.908601e+02
2.878239e+03,7.956882e+02
2.879203e+03,8.093585e+02
2.880167e+03,8.232791e+02
2.881131e+03,8.362128e+02
2.882095e+03,8.295524e+02
2.883060e+03,8.157648e+02
2.884024e+03,8.139792e+02
2.884988e+03,8.183646e+02
2.885952e+03,8.255336e+02
2.886917e+03,8.284434e+02
2.887881e+03,8.254581e+02
2.888845e+03,8.118126e+02
2.889809e+03,7.991539e+02
2.890773e+03,8.173270e+02
2.891738e+03,8.384996e+02
2.892702e+03,8.319177e+02
2.893666e+03,8.242811e+02
2.894630e+03,8.204711e+02
2.895595e+03,8.124888e+02
2.896559e+03,8.023765e+02
2.897523e+03,8.052230e+02
2.898487e+03,8.121951e+02
2.899452e+03,8.148126e+02
2.900416e+03,8.153119e+02
2.901380e+03,8.143323e+02
2.902344e+03,8.135966e+02
2.903309e+03,8.135292e+02
2.904273e+03,8.179625e+02
2.905237e+03,8.212969e+02
2.906201e+03,8.165125e+02
2.907166e+03,8.150851e+02
2.908130e+03,8.224118e+02
2.909094e+03,8.150388e+02
2.910058e+03,7.925120e+02
2.911022e+03,8.014784e+02
2.911987e+03,8.145903e+02
2.912951e+03,7.988452e+02
2.913915e+03,7.837897e+02
2.914879e+03,7.917316e+02
2.915844e+03,7.996495e+02
2.916808e+03,8.040323e+02
2.917772e+03,7.959717e+02
2.918736e+03,7.862814e+02
2.919700e+03,7.924080e+02
2.920665e+03,7.990125e+02
2.921629e+03,7.957355e+02
2.922593e+03,7.892793e+02
2.923557e+03,7.831537e+02
2.924522e+03,7.917028e+02
2.925486e+03,8.038717e+02
2.926450e+03,7.879260e+02
2.927414e+03,7.763605e+02
2.928379e+03,7.860264e+02
2.929343e+03,7.952891e+02
2.930307e+03,7.991348e+02
2.931271e+03,7.780566e+02
2.932236e+03,7.557681e+02
2.933200e+03,7.872224e+02
2.934164e+03,8.105819e+02
2.935128e+03,8.000154e+02
2.936093e+03,7.812549e+02
2.937057e+03,7.644791e+02
2.938021e+03,7.802089e+02
2.938985e+03,8.045541e+02
2.939949e+03,7.953873e+02
2.940914e+03,7.766288e+02
2.941878e+03,7.582665e+02
2.942842e+03,7.645973e+02
2.943806e+03,7.936544e+02
2.944771e+03,7.896952e+02
2.945735e+03,7.726323e+02
2.946699e+03,7.681852e+02
2.947663e+03,7.725945e+02
2.948627e+03,7.819496e+02
2.949592e+03,7.822383e+02
2.950556e+03,7.732217e+02
2.951520e+03,7.743311e+02
2.952484e+03,7.776381e+02
2.953449e+03,7.737178e+02
2.954413e+03,7.774391e+02
2.955377e+03,7.955275e+02
2.956341e+03,8.157002e+02
2.957306e+03,8.309980e+02
2.958270e+03,8.198998e+02
2.959234e+03,7.966581e+02
2.960198e+03,7.743498e+02
2.961163e+03,7.679928e+02
2.962127e+03,7.850805e+02
2.963091e+03,7.812482e+02
2.964055e+03,7.623279e+02
2.965020e+03,7.631497e+02
2.965984e+03,7.724517e+02
2.966948e+03,7.807105e+02
2.967912e+03,7.848535e+02
2.968876e+03,7.833623e+02
2.969841e+03,7.754539e+02
2.970805e+03,7.641504e+02
2.971769e+03,7.542664e+02
2.972733e+03,7.533015e+02
2.973698e+03,7.692438e+02
2.974662e+03,7.671856e+02
2.975626e+03,7.370996e+02
2.976590e+03,7.354841e+02
2.977554e+03,7.421289e+02
2.978519e+03,7.262913e+02
2.979483e+03,7.155524e+02
2.980447e+03,7.316214e+02
2.981411e+03,7.429541e+02
2.982376e+03,7.461146e+02
2.983340e+03,7.514637e+02
2.984304e+03,7.543568e+02
2.985268e+03,7.506993e+02
2.986233e+03,7.450299e+02
2.987197e+03,7.390690e+02
2.988161e+03,7.393448e+02
2.989125e+03,7.430636e+02
2.990090e+03,7.370651e+02
2.991054e+03,7.328429e+02
2.992018e+03,7.404667e+02
2.992982e+03,7.427676e+02
2.993947e+03,7.330374e+02
2.994911e+03,7.257001e+02
2.995875e+03,7.248138e+02
2.996839e+03,7.361823e+02
2.997803e+03,7.427083e+02
2.998768e+03,7.338497e+02
2.999732e+03,7.286942e+02
3.000696e+03,7.311801e+02
3.001660e+03,7.282126e+02
3.002625e+03,7.235929e+02
3.003589e+03,7.217881e+02
3.004553e+03,7.224753e+02
3.005517e+03,7.264420e+02
3.006481e+03,7.220614e+02
3.007446e+03,7.142197e+02
3.008410e+03,7.292805e+02
3.009374e+03,7.453832e+02
3.010338e+03,7.497794e+02
3.011303e+03,7.545929e+02
3.012267e+03,7.625616e+02
3.013231e+03,7.479691e+02
3.014195e+03,7.245674e+02
3.015160e+03,7.164172e+02
3.016124e+03,7.161690e+02
3.017088e+03,7.193232e+02
3.018052e+03,7.105881e+02
3.019017e+03,6.926057e+02
3.019981e+03,7.198598e+02
3.020945e+03,7.482898e+02
3.021909e+03,7.394584e+02
3.022874e+03,7.223326e+02
3.023838e+03,7.070772e+02
3.024802e+03,7.119108e+02
3.025766e+03,7.271150e+02
3.026730e+03,7.278358e+02
3.027695e+03,7.239915e+02
3.028659e+03,7.204777e+02
3.029623e+03,7.181049e+02
3.030587e+03,7.179147e+02
3.031552e+03,7.342869e+02
3.032516e+03,7.449974e+02
3.033480e+03,7.147514e+02
3.034444e+03,6.932864e+02
3.035408e+03,6.908749e+02
3.036373e+03,7.119844e+02
3.037337e+03,7.397779e+02
3.038301e+03,7.256099e+02
3.039265e+03,7.096763e+02
3.040230e+03,7.140763e+02
3.041194e+03,7.213492e+02
3.042158e+03,7.250722e+02
3.043122e+03,7.045374e+02
3.044087e+03,6.872350e+02
3.045051e+03,7.175474e+02
3.046015e+03,7.404621e+02
3.046979e+03,7.403405e+02
3.047944e+03,7.346418e+02
3.048908e+03,7.275731e+02
3.049872e+03,7.247153e+02
3.050836e+03,7.166636e+02
3.051801e+03,6.920634e+02
3.052765e+03,7.074993e+02
3.053729e+03,7.514120e+02
3.054693e+03,7.277224e+02
3.055657e+03,7.006848e+02
3.056622e+03,7.153272e+02
3.057586e+03,7.284406e+02
3.058550e+03,7.265121e+02
3.059514e+03,7.085882e+02
3.060479e+03,6.911288e+02
3.061443e+03,7.022630e+02
3.062407e+03,7.126509e+02
3.063371e+03,7.137826e+02
3.064335e+03,7.161213e+02
3.065300e+03,7.193600e+02
3.066264e+03,7.083221e+02
3.067228e+03,6.986100e+02
3.068192e+03,6.992608e+02
3.069157e+03,7.071199e+02
3.070121e+03,7.185389e+02
3.071085e+03,7.276735e+02
3.072049e+03,7.279213e+02
3.073014e+03,6.940472e+02
3.073978e+03,6.837436e+02
3.074942e+03,7.081964e+02
3.075906e+03,7.074506e+02
3.076871e+03,6.930105e+02
3.077835e+03,6.842500e+02
3.078799e+03,6.876053e+02
3.079763e+03,7.119982e+02
3.080728e+03,7.185949e+02
3.081692e+03,7.123178e+02
3.082656e+03,7.219931e+02
3.083620e+03,7.287673e+02
3.084584e+03,7.225519e+02
3.085549e+03,7.239905e+02
3.086513e+03,7.371945e+02
3.087477e+03,7.382482e+02
3.088441e+03,7.276925e+02
3.089406e+03,6.999582e+02
3.090370e+03,6.974528e+02
3.091334e+03,7.195313e+02
3.092298e+03,7.069323e+02
3.093262e+03,6.816202e+02
3.094227e+03,6.978593e+02
3.095191e+03,7.169947e+02
3.096155e+03,7.266418e+02
3.097119e+03,7.241071e+02
3.098084e+03,7.154027e+02
3.099048e+03,7.105999e+02
3.100012e+03,7.030909e+02
3.100976e+03,6.846393e+02
3.101941e+03,6.799234e+02
3.102905e+03,6.894025e+02
3.103869e+03,6.995131e+02
3.104833e+03,6.957697e+02
3.105798e+03,6.711748e+02
3.106762e+03,6.593346e+02
3.107726e+03,6.673525e+02
3.108690e+03,6.828730e+02
3.109655e+03,6.983372e+02
3.110619e+03,7.074844e+02
3.111583e+03,7.077208e+02
3.112547e+03,7.015497e+02
3.113511e+03,6.990438e+02
3.114476e+03,6.995334e+02
3.115440e+03,6.995657e+02
3.116404e+03,7.058192e+02
3.117368e+03,7.256015e+02
3.118333e+03,7.119905e+02
3.119297e+03,6.887991e+02
3.120261e+03,6.976226e+02
3.121225e+03,7.102960e+02
3.122189e+03,7.102869e+02
3.123154e+03,7.132734e+02
3.124118e+03,7.160872e+02
3.125082e+03,6.954879e+02
3.126046e+03,6.921467e+02
3.127011e+03,7.241418e+02
3.127975e+03,7.332684e+02
3.128939e+03,7.199366e+02
3.129903e+03,7.157457e+02
3.130868e+03,7.119148e+02
3.131832e+03,6.929489e+02
3.132796e+03,6.936270e+02
3.133760e+03,7.099884e+02
3.134725e+03,7.077369e+02
3.135689e+03,7.027959e+02
3.136653e+03,7.122181e+02
3.137617e+03,7.109252e+02
3.138582e+03,6.919166e+02
3.139546e+03,6.955331e+02
3.140510e+03,7.043273e+02
3.141474e+03,7.001516e+02
3.142438e+03,7.002188e+02
3.143403e+03,7.055750e+02
3.144367e+03,6.892549e+02
3.145331e+03,6.698278e+02
3.146295e+03,6.858381e+02
3.147260e+03,6.988928e+02
3.148224e+03,6.975640e+02
3.149188e+03,6.872177e+02
3.150152e+03,6.769534e+02
3.151116e+03,6.758982e+02
3.152081e+03,6.841624e+02
3.153045e+03,7.002396e+02
3.154009e+03,7.056354e+02
3.154973e+03,7.022800e+02
3.155938e+03,6.878138e+02
3.156902e+03,6.907362e+02
3.157866e+03,7.128193e+02
3.158830e+03,6.944379e+02
3.159795e+03,6.588038e+02
3.160759e+03,6.714988e+02
3.161723e+03,6.887506e+02
3.162687e+03,6.932266e+02
3.163652e+03,6.733737e+02
3.164616e+03,6.593813e+02
3.165580e+03,7.138454e+02
3.166544e+03,7.435594e+02
3.167509e+03,7.144053e+02
3.168473e+03,6.953138e+02
3.169437e+03,6.907119e+02
3.170401e+03,6.880346e+02
3.171365e+03,6.802748e+02
3.172330e+03,6.645192e+02
3.173294e+03,6.717762e+02
3.174258e+03,6.898668e+02
3.175222e+03,6.913521e+02
3.176187e+03,6.841427e+02
3.177151e+03,6.714249e+02
3.178115e+03,6.993864e+02
3.179079e+03,7.445355e+02
3.180043e+03,7.186762e+02
3.181008e+03,7.048695e+02
3.181972e+03,7.330598e+02
3.182936e+03,7.130486e+02
3.183900e+03,6.679027e+02
3.184865e+03,7.039003e+02
3.185829e+03,7.411476e+02
3.186793e+03,7.329745e+02
3.187757e+03,7.206024e+02
3.188722e+03,7.080455e+02
3.189686e+03,7.044352e+02
3.190650e+03,6.986318e+02
3.191614e+03,6.863661e+02
3.192579e+03,6.874464e+02
3.193543e+03,6.970707e+02
3.194507e+03,6.978487e+02
3.195471e+03,6.964830e+02
3.196436e+03,6.943553e+02
3.197400e+03,7.004565e+02
3.198364e+03,7.101664e+02
3.199328e+03,7.185258e+02
3.200292e+03,7.126330e+02
3.201257e+03,0.000000e+00
3.202221e+03,0.000000e+00
3.203185e+03,0.000000e+00
3.204149e+03,0.000000e+00
3.205114e+03,0.000000e+00
3.206078e+03,0.000000e+00
3.207042e+03,0.000000e+00
3.208006e+03,0.000000e+00
3.208970e+03,0.000000e+00
3.209935e+03,0.000000e+00
3.210899e+03,0.000000e+00
3.211863e+03,0.000000e+00
3.212827e+03,0.000000e+00
3.213792e+03,0.000000e+00
3.214756e+03,0.000000e+00
3.215720e+03,0.000000e+00
3.216684e+03,0.000000e+00
3.217649e+03,0.000000e+00
3.218613e+03,0.000000e+00
3.219577e+03,0.000000e+00
3.220541e+03,0.000000e+00
3.221506e+03,0.000000e+00
3.222470e+03,0.000000e+00
3.223434e+03,0.000000e+00
3.224398e+03,0.000000e+00
3.225363e+03,0.000000e+00
3.226327e+03,0.000000e+00
3.227291e+03,0.000000e+00
3.228255e+03,0.000000e+00
3.229219e+03,0.000000e+00
3.230184e+03,0.000000e+00
3.231148e+03,0.000000e+00
3.232112e+03,0.000000e+00
3.233076e+03,0.000000e+00
3.234041e+03,0.000000e+00
3.235005e+03,0.000000e+00
3.235969e+03,0.000000e+00
3.236933e+03,0.000000e+00
3.237897e+03,0.000000e+00
3.238862e+03,0.000000e+00
3.239826e+03,0.000000e+00
3.240790e+03,0.000000e+00
3.241754e+03,0.000000e+00
3.242719e+03,0.000000e+00
3.243683e+03,0.000000e+00
3.244647e+03,0.000000e+00
3.245611e+03,0.000000e+00
3.246576e+03,0.000000e+00
3.247540e+03,0.000000e+00
3.248504e+03,0.000000e+00
3.249468e+03,0.000000e+00
3.250433e+03,0.000000e+00
3.251397e+03,0.000000e+00
3.252361e+03,0.000000e+00
3.253325e+03,0.000000e+00
3.254290e+03,0.000000e+00
3.255254e+03,0.000000e+00
3.256218e+03,0.000000e+00
3.257182e+03,0.000000e+00
3.258146e+03,0.000000e+00
3.259111e+03,0.000000e+00
3.260075e+03,0.000000e+00
3.261039e+03,0.000000e+00
3.262003e+03,0.000000e+00
3.262968e+03,0.000000e+00
3.263932e+03,0.000000e+00
3.264896e+03,0.000000e+00
3.265860e+03,0.000000e+00
3.266824e+03,0.000000e+00
3.267789e+03,0.000000e+00
3.268753e+03,0.000000e+00
3.269717e+03,0.000000e+00
3.270681e+03,0.000000e+00
3.271646e+03,0.000000e+00
3.272610e+03,0.000000e+00
3.273574e+03,0.000000e+00
3.274538e+03,0.000000e+00
3.275503e+03,0.000000e+00
3.276467e+03,0.000000e+00
3.277431e+03,0.000000e+00
3.278395e+03,0.000000e+00
3.279360e+03,0.000000e+00
3.280324e+03,0.000000e+00
3.281288e+03,0.000000e+00
3.282252e+03,0.000000e+00
3.283217e+03,0.000000e+00
3.284181e+03,0.000000e+00
3.285145e+03,0.000000e+00
3.286109e+03,0.000000e+00
3.287073e+03,0.000000e+00
3.288038e+03,0.000000e+00
3.289002e+03,0.000000e+00
3.289966e+03,0.000000e+00
3.290930e+03,0.000000e+00
3.291895e+03,0.000000e+00
3.292859e+03,0.000000e+00
3.293823e+03,0.000000e+00
3.294787e+03,0.000000e+00
3.295751e+03,0.000000e+00
3.296716e+03,0.000000e+00
3.297680e+03,0.000000e+00
3.298644e+03,0.000000e+00
3.299608e+03,0.000000e+00
3.300573e+03,0.000000e+00
3.301537e+03,0.000000e+00
3.302501e+03,0.000000e+00
3.303465e+03,0.000000e+00
3.304430e+03,0.000000e+00
3.305394e+03,0.000000e+00
3.306358e+03,0.000000e+00
3.307322e+03,0.000000e+00
3.308287e+03,0.000000e+00
3.309251e+03,0.000000e+00
3.310215e+03,0.000000e+00
3.311179e+03,0.000000e+00
3.312144e+03,0.000000e+00
3.313108e+03,0.000000e+00
3.314072e+03,0.000000e+00
3.315036e+03,0.000000e+00
3.316000e+03,0.000000e+00
3.316965e+03,0.000000e+00
3.317929e+03,0.000000e+00
3.318893e+03,0.000000e+00
3.319857e+03,0.000000e+00
3.320822e+03,0.000000e+00
3.321786e+03,0.000000e+00
3.322750e+03,0.000000e+00
3.323714e+03,0.000000e+00
3.324678e+03,0.000000e+00
3.325643e+03,0.000000e+00
3.326607e+03,0.000000e+00
3.327571e+03,0.000000e+00
3.328535e+03,0.000000e+00
3.329500e+03,0.000000e+00
3.330464e+03,0.000000e+00
3.331428e+03,0.000000e+00
3.332392e+03,0.000000e+00
3.333357e+03,0.000000e+00
3.334321e+03,0.000000e+00
3.335285e+03,0.000000e+00
3.336249e+03,0.000000e+00
3.337214e+03,0.000000e+00
3.338178e+03,0.000000e+00
3.339142e+03,0.000000e+00
3.340106e+03,0.000000e+00
3.341071e+03,0.000000e+00
3.342035e+03,0.000000e+00
3.342999e+03,0.000000e+00
3.343963e+03,0.000000e+00
3.344927e+03,0.000000e+00
3.345892e+03,0.000000e+00
3.346856e+03,0.000000e+00
3.347820e+03,0.000000e+00
3.348784e+03,0.000000e+00
3.349749e+03,0.000000e+00
3.350713e+03,0.000000e+00
3.351677e+03,0.000000e+00
3.352641e+03,0.000000e+00
3.353605e+03,0.000000e+00
3.354570e+03,0.000000e+00
3.355534e+03,0.000000e+00
3.356498e+03,0.000000e+00
3.357462e+03,0.000000e+00
3.358427e+03,0.000000e+00
3.359391e+03,0.000000e+00
3.360355e+03,0.000000e+00
3.361319e+03,0.000000e+00
3.362284e+03,0.000000e+00
3.363248e+03,0.000000e+00
3.364212e+03,0.000000e+00
3.365176e+03,0.000000e+00
3.366141e+03,0.000000e+00
3.367105e+03,0.000000e+00
3.368069e+03,0.000000e+00
3.369033e+03,0.000000e+00
3.369998e+03,0.000000e+00
3.370962e+03,0.000000e+00
3.371926e+03,0.000000e+00
3.372890e+03,0.000000e+00
3.373854e+03,0.000000e+00
3.374819e+03,0.000000e+00
3.375783e+03,0.000000e+00
3.376747e+03,0.000000e+00
3.377711e+03,0.000000e+00
3.378676e+03,0.000000e+00
3.379640e+03,0.000000e+00
3.380604e+03,0.000000e+00
3.381568e+03,0.000000e+00
3.382532e+03,0.000000e+00
3.383497e+03,0.000000e+00
3.384461e+03,0.000000e+00
3.385425e+03,0.000000e+00
3.386389e+03,0.000000e+00
3.387354e+03,0.000000e+00
3.388318e+03,0.000000e+00
3.389282e+03,0.000000e+00
3.390246e+03,0.000000e+00
3.391211e+03,0.000000e+00
3.392175e+03,0.000000e+00
3.393139e+03,0.000000e+00
3.394103e+03,0.000000e+00
3.395068e+03,0.000000e+00
3.396032e+03,0.000000e+00
3.396996e+03,0.000000e+00
3.397960e+03,0.000000e+00
3.398925e+03,0.000000e+00
3.399889e+03,0.000000e+00
3.400853e+03,0.000000e+00
3.401817e+03,0.000000e+00
3.402781e+03,0.000000e+00
3.403746e+03,0.000000e+00
3.404710e+03,0.000000e+00
3.405674e+03,0.000000e+00
3.406638e+03,0.000000e+00
3.407603e+03,0.000000e+00
3.408567e+03,0.000000e+00
3.409531e+03,0.000000e+00
3.410495e+03,0.000000e+00
3.411459e+03,0.000000e+00
3.412424e+03,0.000000e+00
3.413388e+03,0.000000e+00
3.414352e+03,0.000000e+00
3.415316e+03,0.000000e+00
3.416281e+03,0.000000e+00
3.417245e+03,0.000000e+00
3.418209e+03,0.000000e+00
3.419173e+03,0.000000e+00
3.420138e+03,0.000000e+00
3.421102e+03,0.000000e+00
3.422066e+03,0.000000e+00
3.423030e+03,0.000000e+00
3.423995e+03,0.000000e+00
3.424959e+03,0.000000e+00
3.425923e+03,0.000000e+00
3.426887e+03,0.000000e+00
3.427852e+03,0.000000e+00
3.428816e+03,0.000000e+00
3.429780e+03,0.000000e+00
3.430744e+03,0.000000e+00
3.431708e+03,0.000000e+00
3.432673e+03,0.000000e+00
3.433637e+03,0.000000e+00
3.434601e+03,0.000000e+00
3.435565e+03,0.000000e+00
3.436530e+03,0.000000e+00
3.437494e+03,0.000000e+00
3.438458e+03,0.000000e+00
3.439422e+03,0.000000e+00
3.440386e+03,0.000000e+00
3.441351e+03,0.000000e+00
3.442315e+03,0.000000e+00
3.443279e+03,0.000000e+00
3.444243e+03,0.000000e+00
3.445208e+03,0.000000e+00
3.446172e+03,0.000000e+00
3.447136e+03,0.000000e+00
3.448100e+03,0.000000e+00
3.449065e+03,0.000000e+00
3.450029e+03,0.000000e+00
3.450993e+03,0.000000e+00
3.451957e+03,0.000000e+00
3.452922e+03,0.000000e+00
3.453886e+03,0.000000e+00
3.454850e+03,0.000000e+00
3.455814e+03,0.000000e+00
3.456779e+03,0.000000e+00
3.457743e+03,0.000000e+00
3.458707e+03,0.000000e+00
3.459671e+03,0.000000e+00
3.460635e+03,0.000000e+00
3.461600e+03,0.000000e+00
3.462564e+03,0.000000e+00
3.463528e+03,0.000000e+00
3.464492e+03,0.000000e+00
3.465457e+03,0.000000e+00
3.466421e+03,0.000000e+00
3.467385e+03,0.000000e+00
3.468349e+03,0.000000e+00
3.469313e+03,0.000000e+00
3.470278e+03,0.000000e+00
3.471242e+03,0.000000e+00
3.472206e+03,0.000000e+00
3.473170e+03,0.000000e+00
3.474135e+03,0.000000e+00
3.475099e+03,0.000000e+00
3.476063e+03,0.000000e+00
3.477027e+03,0.000000e+00
3.477992e+03,0.000000e+00
3.478956e+03,0.000000e+00
3.479920e+03,0.000000e+00
3.480884e+03,0.000000e+00
3.481849e+03,0.000000e+00
3.482813e+03,0.000000e+00
3.483777e+03,0.000000e+00
3.484741e+03,0.000000e+00
3.485706e+03,0.000000e+00
3.486670e+03,0.000000e+00
3.487634e+03,0.000000e+00
3.488598e+03,0.000000e+00
3.489563e+03,0.000000e+00
3.490527e+03,0.000000e+00
3.491491e+03,0.000000e+00
3.492455e+03,0.000000e+00
3.493419e+03,0.000000e+00
3.494384e+03,0.000000e+00
3.495348e+03,0.000000e+00
3.496312e+03,0.000000e+00
3.497276e+03,0.000000e+00
3.498240e+03,0.000000e+00
3.499205e+03,0.000000e+00
3.500169e+03,0.000000e+00
