9.931763e+01,0.000000e+00
1.002819e+02,0.000000e+00
1.012461e+02,0.000000e+00
1.022103e+02,0.000000e+00
1.031746e+02,0.000000e+00
1.041388e+02,0.000000e+00
1.051030e+02,0.000000e+00
1.060673e+02,0.000000e+00
1.070315e+02,0.000000e+00
1.079957e+02,0.000000e+00
1.089600e+02,0.000000e+00
1.099242e+02,0.000000e+00
1.108884e+02,0.000000e+00
1.118527e+02,0.000000e+00
1.128169e+02,0.000000e+00
1.137811e+02,0.000000e+00
1.147454e+02,0.000000e+00
1.157096e+02,0.000000e+00
1.166738e+02,0.000000e+00
1.176381e+02,0.000000e+00
1.186023e+02,0.000000e+00
1.195665e+02,0.000000e+00
1.205308e+02,0.000000e+00
1.214950e+02,0.000000e+00
1.224592e+02,0.000000e+00
1.234235e+02,0.000000e+00
1.243877e+02,0.000000e+00
1.253519e+02,0.000000e+00
1.263162e+02,0.000000e+00
1.272804e+02,0.000000e+00
1.282446e+02,0.000000e+00
1.292089e+02,0.000000e+00
1.301731e+02,0.000000e+00
1.311373e+02,0.000000e+00
1.321016e+02,0.000000e+00
1.330658e+02,0.000000e+00
1.340300e+02,0.000000e+00
1.349943e+02,0.000000e+00
1.359585e+02,0.000000e+00
1.369227e+02,0.000000e+00
1.378870e+02,0.000000e+00
1.388512e+02,0.000000e+00
1.398154e+02,0.000000e+00
1.407797e+02,0.000000e+00
1.417439e+02,0.000000e+00
1.427081e+02,0.000000e+00
1.436724e+02,0.000000e+00
1.446366e+02,0.000000e+00
1.456008e+02,0.000000e+00
1.465651e+02,0.000000e+00
1.475293e+02,0.000000e+00
1.484935e+02,0.000000e+00
1.494578e+02,0.000000e+00
1.504220e+02,0.000000e+00
1.513862e+02,0.000000e+00
1.523505e+02,0.000000e+00
1.533147e+02,0.000000e+00
1.542789e+02,0.000000e+00
1.552432e+02,0.000000e+00
1.562074e+02,0.000000e+00
1.571716e+02,0.000000e+00
1.581359e+02,0.000000e+00
1.591001e+02,0.000000e+00
1.600643e+02,0.000000e+00
1.610286e+02,0.000000e+00
1.619928e+02,0.000000e+00
1.629570e+02,0.000000e+00
1.639213e+02,0.000000e+00
1.648855e+02,0.000000e+00
1.658497e+02,0.000000e+00
1.668140e+02,0.000000e+00
1.677782e+02,0.000000e+00
1.687424e+02,0.000000e+00
1.697067e+02,0.000000e+00
1.706709e+02,0.000000e+00
1.716351e+02,0.000000e+00
1.725994e+02,0.000000e+00
1.735636e+02,0.000000e+00
1.745278e+02,0.000000e+00
1.754921e+02,0.000000e+00
1.764563e+02,0.000000e+00
1.774205e+02,0.000000e+00
1.783848e+02,0.000000e+00
1.793490e+02,0.000000e+00
1.803132e+02,0.000000e+00
1.812775e+02,0.000000e+00
1.822417e+02,0.000000e+00
1.832059e+02,0.000000e+00
1.841702e+02,0.000000e+00
1.851344e+02,0.000000e+00
1.860986e+02,0.000000e+00
1.870629e+02,0.000000e+00
1.880271e+02,0.000000e+00
1.889913e+02,0.000000e+00
1.899556e+02,0.000000e+00
1.909198e+02,0.000000e+00
1.918840e+02,0.000000e+00
1.928483e+02,0.000000e+00
1.938125e+02,0.000000e+00
1.947767e+02,0.000000e+00
1.957410e+02,0.000000e+00
1.967052e+02,0.000000e+00
1.976694e+02,0.000000e+00
1.986337e+02,0.000000e+00
1.995979e+02,1.838022e+03
2.005621e+02,1.838557e+03
2.015264e+02,1.841063e+03
2.024906e+02,1.848791e+03
2.034548e+02,1.855725e+03
2.044191e+02,1.859961e+03
2.053833e+02,1.861325e+03
2.063475e+02,1.860922e+03
2.073118e+02,1.859912e+03
2.082760e+02,1.858272e+03
2.092402e+02,1.856093e+03
2.102045e+02,1.853109e+03
2.111687e+02,1.850981e+03
2.121329e+02,1.850996e+03
2.130972e+02,1.853773e+03
2.140614e+02,1.857656e+03
2.150256e+02,1.858919e+03
2.159899e+02,1.855455e+03
2.169541e+02,1.852836e+03
2.179183e+02,1.854105e+03
2.188826e+02,1.858289e+03
2.198468e+02,1.862473e+03
2.208110e+02,1.865074e+03
2.217753e+02,1.865834e+03
2.227395e+02,1.863797e+03
2.237037e+02,1.857327e+03
2.246680e+02,1.849982e+03
2.256322e+02,1.844805e+03
2.265964e+02,1.844042e+03
2.275607e+02,1.844758e+03
2.285249e+02,1.842931e+03
2.294892e+02,1.837877e+03
2.304534e+02,1.833913e+03
2.314176e+02,1.833580e+03
2.323819e+02,1.835873e+03
2.333461e+02,1.838814e+03
2.343103e+02,1.843701e+03
2.352746e+02,1.849140e+03
2.362388e+02,1.851817e+03
2.372030e+02,1.849992e+03
2.381673e+02,1.844976e+03
2.391315e+02,1.840507e+03
2.400957e+02,1.837791e+03
2.410600e+02,1.835698e+03
2.420242e+02,1.834423e+03
2.429884e+02,1.834220e+03
2.439527e+02,1.834524e+03
2.449169e+02,1.834086e+03
2.458811e+02,1.832331e+03
2.468454e+02,1.833086e+03
2.478096e+02,1.839515e+03
2.487738e+02,1.846285e+03
2.497381e+02,1.849531e+03
2.507023e+02,1.848567e+03
2.516665e+02,1.845317e+03
2.526308e+02,1.842615e+03
2.535950e+02,1.838361e+03
2.545592e+02,1.835855e+03
2.555235e+02,1.838337e+03
2.564877e+02,1.842356e+03
2.574519e+02,1.843497e+03
2.584161e+02,1.838854e+03
2.593804e+02,1.829552e+03
2.603446e+02,1.824777e+03
2.613088e+02,1.827329e+03
2.622731e+02,1.831414e+03
2.632373e+02,1.836387e+03
2.642015e+02,1.841363e+03
2.651658e+02,1.844992e+03
2.661300e+02,1.846325e+03
2.670942e+02,1.845659e+03
2.680585e+02,1.844508e+03
2.690227e+02,1.843285e+03
2.699869e+02,1.841387e+03
2.709512e+02,1.837791e+03
2.719154e+02,1.831572e+03
2.728796e+02,1.825618e+03
2.738439e+02,1.824368e+03
2.748081e+02,1.829276e+03
2.757723e+02,1.835950e+03
2.767366e+02,1.840109e+03
2.777008e+02,1.841688e+03
2.786650e+02,1.843378e+03
2.796293e+02,1.848399e+03
2.805935e+02,1.854495e+03
2.815577e+02,1.856820e+03
2.825220e+02,1.853568e+03
2.834862e+02,1.847136e+03
2.844504e+02,1.842002e+03
2.854147e+02,1.838614e+03
2.863789e+02,1.836272e+03
2.873431e+02,1.835648e+03
2.883074e+02,1.836606e+03
2.892716e+02,1.838321e+03
2.902358e+02,1.840170e+03
2.912001e+02,1.841921e+03
2.921643e+02,1.841932e+03
2.931285e+02,1.839293e+03
2.940928e+02,1.836752e+03
2.950570e+02,1.834599e+03
2.960212e+02,1.832852e+03
2.969855e+02,1.832123e+03
2.979497e+02,1.834573e+03
2.989139e+02,1.844286e+03
2.998782e+02,1.847913e+03
3.008424e+02,1.840015e+03
3.018066e+02,1.830244e+03
3.027709e+02,1.825494e+03
3.037351e+02,1.828697e+03
3.046993e+02,1.835605e+03
3.056636e+02,1.838682e+03
3.066278e+02,1.836767e+03
3.075920e+02,1.834563e+03
3.085563e+02,1.834033e+03
3.095205e+02,1.835087e+03
3.104847e+02,1.836775e+03
3.114490e+02,1.838795e+03
3.124132e+02,1.840437e+03
3.133774e+02,1.840538e+03
3.143417e+02,1.838464e+03
3.153059e+02,1.835165e+03
3.162701e+02,1.832598e+03
3.172344e+02,1.831511e+03
3.181986e+02,1.830693e+03
3.191628e+02,1.829742e+03
3.201271e+02,1.828958e+03
3.210913e+02,1.828575e+03
3.220555e+02,1.828397e+03
3.230198e+02,1.828541e+03
3.239840e+02,1.830801e+03
3.249482e+02,1.839037e+03
3.259125e+02,1.845257e+03
3.268767e+02,1.846230e+03
3.278409e+02,1.842930e+03
3.288052e+02,1.838360e+03
3.297694e+02,1.835026e+03
3.307336e+02,1.833198e+03
3.316979e+02,1.830893e+03
3.326621e+02,1.826645e+03
3.336263e+02,1.822535e+03
3.345906e+02,1.820131e+03
3.355548e+02,1.820364e+03
3.365190e+02,1.821828e+03
3.374833e+02,1.822387e+03
3.384475e+02,1.821678e+03
3.394117e+02,1.822001e+03
3.403760e+02,1.824873e+03
3.413402e+02,1.828570e+03
3.423044e+02,1.830203e+03
3.432687e+02,1.826956e+03
3.442329e+02,1.822722e+03
3.451971e+02,1.820943e+03
3.461614e+02,1.821237e+03
3.471256e+02,1.821255e+03
3.480898e+02,1.819667e+03
3.490541e+02,1.816360e+03
3.500183e+02,1.813850e+03
3.509825e+02,1.813095e+03
3.519468e+02,1.813451e+03
3.529110e+02,1.813904e+03
3.538752e+02,1.813854e+03
3.548395e+02,1.813615e+03
3.558037e+02,1.814432e+03
3.567680e+02,1.817697e+03
3.577322e+02,1.819828e+03
3.586964e+02,1.820980e+03
3.596607e+02,1.821543e+03
3.606249e+02,1.821259e+03
3.615891e+02,1.818698e+03
3.625534e+02,1.814532e+03
3.635176e+02,1.812121e+03
3.644818e+02,1.813207e+03
3.654461e+02,1.814010e+03
3.664103e+02,1.812132e+03
3.673745e+02,1.808949e+03
3.683388e+02,1.807559e+03
3.693030e+02,1.808362e+03
3.702672e+02,1.810450e+03
3.712315e+02,1.812956e+03
3.721957e+02,1.815569e+03
3.731599e+02,1.818261e+03
3.741242e+02,1.821700e+03
3.750884e+02,1.830329e+03
3.760526e+02,1.835937e+03
3.770169e+02,1.836011e+03
3.779811e+02,1.832862e+03
3.789453e+02,1.829197e+03
3.799096e+02,1.826194e+03
3.808738e+02,1.823278e+03
3.818380e+02,1.818501e+03
3.828023e+02,1.809417e+03
3.837665e+02,1.803575e+03
3.847307e+02,1.805151e+03
3.856950e+02,1.811340e+03
3.866592e+02,1.815489e+03
3.876234e+02,1.811483e+03
3.885877e+02,1.802275e+03
3.895519e+02,1.796892e+03
3.905161e+02,1.796661e+03
3.914804e+02,1.798382e+03
3.924446e+02,1.799348e+03
3.934088e+02,1.800336e+03
3.943731e+02,1.799930e+03
3.953373e+02,1.795704e+03
3.963015e+02,1.790172e+03
3.972658e+02,1.787602e+03
3.982300e+02,1.790045e+03
3.991942e+02,1.795641e+03
4.001585e+02,1.797636e+03
4.011227e+02,1.788637e+03
4.020869e+02,1.783094e+03
4.030512e+02,1.784428e+03
4.040154e+02,1.789403e+03
4.049796e+02,1.793713e+03
4.059439e+02,1.794575e+03
4.069081e+02,1.792826e+03
4.078723e+02,1.791815e+03
4.088366e+02,1.791816e+03
4.098008e+02,1.790694e+03
4.107650e+02,1.786878e+03
4.117293e+02,1.780855e+03
4.126935e+02,1.777260e+03
4.136577e+02,1.779866e+03
4.146220e+02,1.785191e+03
4.155862e+02,1.787999e+03
4.165504e+02,1.787094e+03
4.175147e+02,1.784500e+03
4.184789e+02,1.783299e+03
4.194431e+02,1.784501e+03
4.204074e+02,1.785858e+03
4.213716e+02,1.788215e+03
4.223358e+02,1.790352e+03
4.233001e+02,1.790946e+03
4.242643e+02,1.789445e+03
4.252285e+02,1.786567e+03
4.261928e+02,1.783144e+03
4.271570e+02,1.778093e+03
4.281212e+02,1.775454e+03
4.290855e+02,1.778350e+03
4.300497e+02,1.784563e+03
4.310139e+02,1.789632e+03
4.319782e+02,1.792521e+03
4.329424e+02,1.793903e+03
4.339066e+02,1.793879e+03
4.348709e+02,1.792226e+03
4.358351e+02,1.789878e+03
4.367993e+02,1.788080e+03
4.377636e+02,1.788312e+03
4.387278e+02,1.785164e+03
4.396920e+02,1.774114e+03
4.406563e+02,1.763205e+03
4.416205e+02,1.758756e+03
4.425847e+02,1.762161e+03
4.435490e+02,1.768235e+03
4.445132e+02,1.769487e+03
4.454774e+02,1.764695e+03
4.464417e+02,1.762397e+03
4.474059e+02,1.767009e+03
4.483701e+02,1.773741e+03
4.493344e+02,1.776890e+03
4.502986e+02,1.773412e+03
4.512628e+02,1.768988e+03
4.522271e+02,1.767662e+03
4.531913e+02,1.768888e+03
4.541555e+02,1.770202e+03
4.551198e+02,1.770157e+03
4.560840e+02,1.768835e+03
4.570482e+02,1.766482e+03
4.580125e+02,1.762804e+03
4.589767e+02,1.759932e+03
4.599409e+02,1.758319e+03
4.609052e+02,1.757280e+03
4.618694e+02,1.755781e+03
4.628336e+02,1.752782e+03
4.637979e+02,1.748651e+03
4.647621e+02,1.745798e+03
4.657263e+02,1.744993e+03
4.666906e+02,1.746016e+03
4.676548e+02,1.748506e+03
4.686190e+02,1.753274e+03
4.695833e+02,1.755633e+03
4.705475e+02,1.751571e+03
4.715117e+02,1.744576e+03
4.724760e+02,1.740165e+03
4.734402e+02,1.740432e+03
4.744044e+02,1.743340e+03
4.753687e+02,1.743884e+03
4.763329e+02,1.739855e+03
4.772971e+02,1.736914e+03
4.782614e+02,1.735217e+03
4.792256e+02,1.735291e+03
4.801898e+02,1.737932e+03
4.811541e+02,1.745635e+03
4.821183e+02,1.753901e+03
4.830826e+02,1.755671e+03
4.840468e+02,1.750465e+03
4.850110e+02,1.743854e+03
4.859753e+02,1.738941e+03
4.869395e+02,1.735743e+03
4.879037e+02,1.734164e+03
4.888680e+02,1.737164e+03
4.898322e+02,1.739661e+03
4.907964e+02,1.738217e+03
4.917607e+02,1.733333e+03
4.927249e+02,1.728281e+03
4.936891e+02,1.725772e+03
4.946534e+02,1.725813e+03
4.956176e+02,1.727769e+03
4.965818e+02,1.734233e+03
4.975461e+02,1.740264e+03
4.985103e+02,1.741510e+03
4.994745e+02,1.736699e+03
5.004388e+02,1.730535e+03
5.014030e+02,1.723432e+03
5.023672e+02,1.717139e+03
5.033315e+02,1.714956e+03
5.042957e+02,1.718102e+03
5.052599e+02,1.723809e+03
5.062242e+02,1.726664e+03
5.071884e+02,1.726675e+03
5.081526e+02,1.724249e+03
5.091169e+02,1.715880e+03
5.100811e+02,1.707026e+03
5.110453e+02,1.704137e+03
5.120095e+02,1.713333e+03
5.129738e+02,1.725774e+03
5.139380e+02,1.729056e+03
5.149022e+02,1.723397e+03
5.158665e+02,1.718346e+03
5.168307e+02,1.718908e+03
5.177949e+02,1.724035e+03
5.187592e+02,1.725369e+03
5.197234e+02,1.722952e+03
5.206876e+02,1.719875e+03
5.216519e+02,1.716327e+03
5.226161e+02,1.713058e+03
5.235803e+02,1.711436e+03
5.245446e+02,1.713292e+03
5.255088e+02,1.718039e+03
5.264730e+02,1.722077e+03
5.274373e+02,1.726217e+03
5.284015e+02,1.728096e+03
5.293657e+02,1.723634e+03
5.303300e+02,1.711967e+03
5.312942e+02,1.703106e+03
5.322584e+02,1.701995e+03
5.332227e+02,1.704064e+03
5.341869e+02,1.704270e+03
5.351511e+02,1.701358e+03
5.361154e+02,1.697741e+03
5.370796e+02,1.697635e+03
5.380438e+02,1.702791e+03
5.390081e+02,1.705313e+03
5.399723e+02,1.702456e+03
5.409365e+02,1.697809e+03
5.419008e+02,1.694092e+03
5.428650e+02,1.690833e+03
5.438292e+02,1.688684e+03
5.447935e+02,1.688839e+03
5.457577e+02,1.690443e+03
5.467219e+02,1.692072e+03
5.476862e+02,1.693415e+03
5.486504e+02,1.693819e+03
5.496146e+02,1.691037e+03
5.505789e+02,1.681322e+03
5.515431e+02,1.674127e+03
5.525073e+02,1.673790e+03
5.534716e+02,1.677567e+03
5.544358e+02,1.680564e+03
5.554000e+02,1.678985e+03
5.563643e+02,1.676308e+03
5.573285e+02,1.676832e+03
5.582927e+02,1.679829e+03
5.592570e+02,1.681127e+03
5.602212e+02,1.677585e+03
5.611854e+02,1.669158e+03
5.621497e+02,1.665843e+03
5.631139e+02,1.672958e+03
5.640781e+02,1.679607e+03
5.650424e+02,1.684297e+03
5.660066e+02,1.686687e+03
5.669708e+02,1.686071e+03
5.679351e+02,1.680242e+03
5.688993e+02,1.671943e+03
5.698635e+02,1.665753e+03
5.708278e+02,1.662161e+03
5.717920e+02,1.660553e+03
5.727562e+02,1.660174e+03
5.737205e+02,1.661070e+03
5.746847e+02,1.661618e+03
5.756489e+02,1.660523e+03
5.766132e+02,1.659698e+03
5.775774e+02,1.660975e+03
5.785416e+02,1.664480e+03
5.795059e+02,1.667519e+03
5.804701e+02,1.668382e+03
5.814343e+02,1.667143e+03
5.823986e+02,1.663100e+03
5.833628e+02,1.655280e+03
5.843270e+02,1.647726e+03
5.852913e+02,1.645904e+03
5.862555e+02,1.655754e+03
5.872197e+02,1.662533e+03
5.881840e+02,1.665221e+03
5.891482e+02,1.665268e+03
5.901124e+02,1.663606e+03
5.910767e+02,1.660342e+03
5.920409e+02,1.656382e+03
5.930051e+02,1.651422e+03
5.939694e+02,1.645850e+03
5.949336e+02,1.643236e+03
5.958978e+02,1.645587e+03
5.968621e+02,1.650302e+03
5.978263e+02,1.651476e+03
5.987905e+02,1.644625e+03
5.997548e+02,1.639955e+03
6.007190e+02,1.639060e+03
6.016832e+02,1.640786e+03
6.026475e+02,1.643789e+03
6.036117e+02,1.648184e+03
6.045759e+02,1.651695e+03
6.055402e+02,1.650910e+03
6.065044e+02,1.646041e+03
6.074686e+02,1.640699e+03
6.084329e+02,1.636358e+03
6.093971e+02,1.633407e+03
6.103613e+02,1.632973e+03
6.113256e+02,1.639568e+03
6.122899e+02,1.644030e+03
6.132541e+02,1.643344e+03
6.142183e+02,1.639575e+03
6.151826e+02,1.636436e+03
6.161468e+02,1.636929e+03
6.171110e+02,1.638708e+03
6.180753e+02,1.638762e+03
6.190395e+02,1.637007e+03
6.200037e+02,1.633699e+03
6.209680e+02,1.628197e+03
6.219322e+02,1.621024e+03
6.228964e+02,1.618478e+03
6.238607e+02,1.623996e+03
6.248249e+02,1.630456e+03
6.257891e+02,1.636936e+03
6.267534e+02,1.642152e+03
6.277176e+02,1.643795e+03
6.286818e+02,1.638989e+03
6.296461e+02,1.632136e+03
6.306103e+02,1.628136e+03
6.315745e+02,1.626964e+03
6.325388e+02,1.625754e+03
6.335030e+02,1.621262e+03
6.344672e+02,1.612961e+03
6.354315e+02,1.610390e+03
6.363957e+02,1.619239e+03
6.373599e+02,1.626543e+03
6.383242e+02,1.624829e+03
6.392884e+02,1.615408e+03
6.402526e+02,1.608479e+03
6.412169e+02,1.609145e+03
6.421811e+02,1.612360e+03
6.431453e+02,1.613750e+03
6.441096e+02,1.612993e+03
6.450738e+02,1.611531e+03
6.460380e+02,1.610809e+03
6.470023e+02,1.611183e+03
6.479665e+02,1.612288e+03
6.489307e+02,1.614695e+03
6.498950e+02,1.616115e+03
6.508592e+02,1.613517e+03
6.518234e+02,1.606170e+03
6.527877e+02,1.601028e+03
6.537519e+02,1.601020e+03
6.547161e+02,1.602483e+03
6.556804e+02,1.602829e+03
6.566446e+02,1.601866e+03
6.576088e+02,1.600753e+03
6.585731e+02,1.600836e+03
6.595373e+02,1.601786e+03
6.605015e+02,1.601796e+03
6.614658e+02,1.600827e+03
6.624300e+02,1.598610e+03
6.633942e+02,1.594362e+03
6.643585e+02,1.585660e+03
6.653227e+02,1.581146e+03
6.662869e+02,1.583895e+03
6.672512e+02,1.587906e+03
6.682154e+02,1.589489e+03
6.691796e+02,1.587934e+03
6.701439e+02,1.585669e+03
6.711081e+02,1.583943e+03
6.720723e+02,1.582885e+03
6.730366e+02,1.583576e+03
6.740008e+02,1.586505e+03
6.749650e+02,1.589131e+03
6.759293e+02,1.587858e+03
6.768935e+02,1.580494e+03
6.778577e+02,1.576443e+03
6.788220e+02,1.579484e+03
6.797862e+02,1.583932e+03
6.807504e+02,1.585281e+03
6.817147e+02,1.582374e+03
6.826789e+02,1.579011e+03
6.836431e+02,1.575409e+03
6.846074e+02,1.572010e+03
6.855716e+02,1.569776e+03
6.865358e+02,1.569156e+03
6.875001e+02,1.569739e+03
6.884643e+02,1.571345e+03
6.894285e+02,1.574022e+03
6.903928e+02,1.576371e+03
6.913570e+02,1.578675e+03
6.923212e+02,1.579446e+03
6.932855e+02,1.576820e+03
6.942497e+02,1.567643e+03
6.952139e+02,1.562950e+03
6.961782e+02,1.567850e+03
6.971424e+02,1.573560e+03
6.981066e+02,1.572027e+03
6.990709e+02,1.561197e+03
7.000351e+02,1.550586e+03
7.009993e+02,1.549648e+03
7.019636e+02,1.555115e+03
7.029278e+02,1.559286e+03
7.038920e+02,1.560717e+03
7.048563e+02,1.559777e+03
7.058205e+02,1.556754e+03
7.067847e+02,1.551043e+03
7.077490e+02,1.547606e+03
7.087132e+02,1.548894e+03
7.096774e+02,1.551962e+03
7.106417e+02,1.552843e+03
7.116059e+02,1.550380e+03
7.125701e+02,1.549224e+03
7.135344e+02,1.553067e+03
7.144986e+02,1.557882e+03
7.154628e+02,1.559588e+03
7.164271e+02,1.557397e+03
7.173913e+02,1.553420e+03
7.183555e+02,1.549055e+03
7.193198e+02,1.544458e+03
7.202840e+02,1.540373e+03
7.212482e+02,1.536761e+03
7.222125e+02,1.535359e+03
7.231767e+02,1.538621e+03
7.241409e+02,1.550224e+03
7.251052e+02,1.554902e+03
7.260694e+02,1.546162e+03
7.270336e+02,1.535516e+03
7.279979e+02,1.529410e+03
7.289621e+02,1.528453e+03
7.299263e+02,1.528441e+03
7.308906e+02,1.527218e+03
7.318548e+02,1.525948e+03
7.328190e+02,1.526517e+03
7.337833e+02,1.528961e+03
7.347475e+02,1.531381e+03
7.357117e+02,1.531934e+03
7.366760e+02,1.531101e+03
7.376402e+02,1.531418e+03
7.386044e+02,1.533552e+03
7.395687e+02,1.535488e+03
7.405329e+02,1.535055e+03
7.414971e+02,1.531333e+03
7.424614e+02,1.528699e+03
7.434256e+02,1.528197e+03
7.443898e+02,1.529316e+03
7.453541e+02,1.532255e+03
7.463183e+02,1.535811e+03
7.472825e+02,1.536810e+03
7.482468e+02,1.532453e+03
7.492110e+02,1.525873e+03
7.501752e+02,1.520421e+03
7.511395e+02,1.516944e+03
7.521037e+02,1.515138e+03
7.530679e+02,1.514490e+03
7.540322e+02,1.514484e+03
7.549964e+02,1.514224e+03
7.559606e+02,1.513961e+03
7.569249e+02,1.513873e+03
7.578891e+02,1.514433e+03
7.588533e+02,1.515934e+03
7.598176e+02,1.515725e+03
7.607818e+02,1.509605e+03
7.617460e+02,1.503569e+03
7.627103e+02,1.500943e+03
7.636745e+02,1.501366e+03
7.646387e+02,1.501520e+03
7.656030e+02,1.498929e+03
7.665672e+02,1.496328e+03
7.675314e+02,1.495171e+03
7.684957e+02,1.494593e+03
7.694599e+02,1.494256e+03
7.704241e+02,1.495303e+03
7.713884e+02,1.497374e+03
7.723526e+02,1.497719e+03
7.733168e+02,1.496448e+03
7.742811e+02,1.495729e+03
7.752453e+02,1.495635e+03
7.762095e+02,1.495727e+03
7.771738e+02,1.496459e+03
7.781380e+02,1.498257e+03
7.791022e+02,1.498966e+03
7.800665e+02,1.499583e+03
7.810307e+02,1.499271e+03
7.819949e+02,1.496483e+03
7.829592e+02,1.487887e+03
7.839234e+02,1.480768e+03
7.848876e+02,1.479513e+03
7.858519e+02,1.481471e+03
7.868161e+02,1.482531e+03
7.877803e+02,1.480832e+03
7.887446e+02,1.477952e+03
7.897088e+02,1.475652e+03
7.906730e+02,1.474663e+03
7.916373e+02,1.477189e+03
7.926015e+02,1.483873e+03
7.935657e+02,1.491252e+03
7.945300e+02,1.494345e+03
7.954942e+02,1.493197e+03
7.964584e+02,1.488999e+03
7.974227e+02,1.479762e+03
7.983869e+02,1.471184e+03
7.993511e+02,1.468631e+03
8.003154e+02,1.475623e+03
8.012796e+02,1.479225e+03
8.022438e+02,1.475494e+03
8.032081e+02,1.469773e+03
8.041723e+02,1.466288e+03
8.051365e+02,1.465766e+03
8.061008e+02,1.466731e+03
8.070650e+02,1.469278e+03
8.080292e+02,1.471726e+03
8.089935e+02,1.471542e+03
8.099577e+02,1.468795e+03
8.109219e+02,1.465508e+03
8.118862e+02,1.462891e+03
8.128504e+02,1.461002e+03
8.138146e+02,1.462873e+03
8.147789e+02,1.470153e+03
8.157431e+02,1.475987e+03
8.167073e+02,1.474582e+03
8.176716e+02,1.465011e+03
8.186358e+02,1.458149e+03
8.196000e+02,1.453805e+03
8.205643e+02,1.452235e+03
8.215285e+02,1.454425e+03
8.224927e+02,1.459614e+03
8.234570e+02,1.462895e+03
8.244212e+02,1.461555e+03
8.253854e+02,1.459359e+03
8.263497e+02,1.458126e+03
8.273139e+02,1.457376e+03
8.282781e+02,1.456440e+03
8.292424e+02,1.456569e+03
8.302066e+02,1.456506e+03
8.311708e+02,1.452646e+03
8.321351e+02,1.445879e+03
8.330993e+02,1.440817e+03
8.340635e+02,1.439589e+03
8.350278e+02,1.441294e+03
8.359920e+02,1.444302e+03
8.369562e+02,1.449213e+03
8.379205e+02,1.452396e+03
8.388847e+02,1.451980e+03
8.398489e+02,1.449581e+03
8.408132e+02,1.449216e+03
8.417774e+02,1.454821e+03
8.427416e+02,1.456294e+03
8.437059e+02,1.448697e+03
8.446701e+02,1.438656e+03
8.456343e+02,1.433411e+03
8.465986e+02,1.435817e+03
8.475628e+02,1.438864e+03
8.485270e+02,1.441077e+03
8.494913e+02,1.442290e+03
8.504555e+02,1.442443e+03
8.514197e+02,1.441682e+03
8.523840e+02,1.440470e+03
8.533482e+02,1.438057e+03
8.543124e+02,1.435260e+03
8.552767e+02,1.433794e+03
8.562409e+02,1.433808e+03
8.572051e+02,1.434901e+03
8.581694e+02,1.438436e+03
8.591336e+02,1.444085e+03
8.600978e+02,1.444589e+03
8.610621e+02,1.439041e+03
8.620263e+02,1.432547e+03
8.629905e+02,1.428085e+03
8.639548e+02,1.425134e+03
8.649190e+02,1.424087e+03
8.658832e+02,1.427667e+03
8.668475e+02,1.430894e+03
8.678117e+02,1.430632e+03
8.687759e+02,1.427581e+03
8.697402e+02,1.426415e+03
8.707044e+02,1.429703e+03
8.716686e+02,1.430926e+03
8.726329e+02,1.426650e+03
8.735971e+02,1.420012e+03
8.745613e+02,1.416211e+03
8.755256e+02,1.418856e+03
8.764898e+02,1.423800e+03
8.774540e+02,1.429692e+03
8.784183e+02,1.435140e+03
8.793825e+02,1.437661e+03
8.803467e+02,1.436029e+03
8.813110e+02,1.432361e+03
8.822752e+02,1.427859e+03
8.832394e+02,1.423759e+03
8.842037e+02,1.424461e+03
8.851679e+02,1.431046e+03
8.861321e+02,1.438436e+03
8.870964e+02,1.439698e+03
8.880606e+02,1.434428e+03
8.890248e+02,1.428584e+03
8.899891e+02,1.422794e+03
8.909533e+02,1.418191e+03
8.919175e+02,1.415687e+03
8.928818e+02,1.415753e+03
8.938460e+02,1.415593e+03
8.948102e+02,1.414551e+03
8.957745e+02,1.413273e+03
8.967387e+02,1.412684e+03
8.977029e+02,1.412406e+03
8.986672e+02,1.410541e+03
8.996314e+02,1.405125e+03
9.005956e+02,1.401465e+03
9.015599e+02,1.403391e+03
9.025241e+02,1.408455e+03
9.034883e+02,1.410709e+03
9.044526e+02,1.405112e+03
9.054168e+02,1.398098e+03
9.063810e+02,1.394419e+03
9.073453e+02,1.393615e+03
9.083095e+02,1.393426e+03
9.092737e+02,1.392240e+03
9.102380e+02,1.391106e+03
9.112022e+02,1.392484e+03
9.121664e+02,1.394894e+03
9.131307e+02,1.394570e+03
9.140949e+02,1.390777e+03
9.150591e+02,1.386424e+03
9.160234e+02,1.384001e+03
9.169876e+02,1.382756e+03
9.179518e+02,1.383182e+03
9.189161e+02,1.385825e+03
9.198803e+02,1.387751e+03
9.208445e+02,1.385388e+03
9.218088e+02,1.378182e+03
9.227730e+02,1.375750e+03
9.237372e+02,1.379380e+03
9.247015e+02,1.384207e+03
9.256657e+02,1.387739e+03
9.266299e+02,1.389924e+03
9.275942e+02,1.389346e+03
9.285584e+02,1.382560e+03
9.295226e+02,1.376521e+03
9.304869e+02,1.373904e+03
9.314511e+02,1.374322e+03
9.324153e+02,1.375898e+03
9.333796e+02,1.381997e+03
9.343438e+02,1.385133e+03
9.353080e+02,1.380864e+03
9.362723e+02,1.372500e+03
9.372365e+02,1.365222e+03
9.382007e+02,1.361044e+03
9.391650e+02,1.359034e+03
9.401292e+02,1.358532e+03
9.410934e+02,1.359836e+03
9.420577e+02,1.363992e+03
9.430219e+02,1.371382e+03
9.439861e+02,1.377102e+03
9.449504e+02,1.376769e+03
9.459146e+02,1.373978e+03
9.468788e+02,1.373074e+03
9.478431e+02,1.373632e+03
9.488073e+02,1.372785e+03
9.497715e+02,1.367396e+03
9.507358e+02,1.360078e+03
9.517000e+02,1.357121e+03
9.526642e+02,1.358646e+03
9.536285e+02,1.359948e+03
9.545927e+02,1.357477e+03
9.555569e+02,1.352440e+03
9.565212e+02,1.348514e+03
9.574854e+02,1.346130e+03
9.584496e+02,1.345951e+03
9.594139e+02,1.347880e+03
9.603781e+02,1.350991e+03
9.613423e+02,1.354489e+03
9.623066e+02,1.359120e+03
9.632708e+02,1.360729e+03
9.642350e+02,1.357934e+03
9.651993e+02,1.353419e+03
9.661635e+02,1.350404e+03
9.671277e+02,1.349208e+03
9.680920e+02,1.347565e+03
9.690562e+02,1.345297e+03
9.700204e+02,1.342510e+03
9.709847e+02,1.339214e+03
9.719489e+02,1.335160e+03
9.729131e+02,1.334100e+03
9.738774e+02,1.340259e+03
9.748416e+02,1.345806e+03
9.758058e+02,1.346011e+03
9.767701e+02,1.341600e+03
9.777343e+02,1.338806e+03
9.786985e+02,1.339507e+03
9.796628e+02,1.340523e+03
9.806270e+02,1.342098e+03
9.815912e+02,1.343112e+03
9.825555e+02,1.341846e+03
9.835197e+02,1.337131e+03
9.844839e+02,1.332267e+03
9.854482e+02,1.327315e+03
9.864124e+02,1.323797e+03
9.873766e+02,1.323528e+03
9.883409e+02,1.327400e+03
9.893051e+02,1.331919e+03
9.902693e+02,1.336056e+03
9.912336e+02,1.339206e+03
9.921978e+02,1.339585e+03
9.931620e+02,1.336994e+03
9.941263e+02,1.334092e+03
9.950905e+02,1.332904e+03
9.960547e+02,1.332651e+03
9.970190e+02,1.332746e+03
9.979832e+02,1.332764e+03
9.989474e+02,1.331787e+03
9.999117e+02,1.329313e+03
1.000876e+03,1.326607e+03
1.001840e+03,1.325345e+03
1.002804e+03,1.325589e+03
1.003769e+03,1.326921e+03
1.004733e+03,1.329120e+03
1.005697e+03,1.330323e+03
1.006661e+03,1.326546e+03
1.007626e+03,1.319339e+03
1.008590e+03,1.315803e+03
1.009554e+03,1.317055e+03
1.010518e+03,1.319113e+03
1.011482e+03,1.317716e+03
1.012447e+03,1.313297e+03
1.013411e+03,1.309276e+03
1.014375e+03,1.306352e+03
1.015339e+03,1.305172e+03
1.016304e+03,1.306172e+03
1.017268e+03,1.308750e+03
1.018232e+03,1.310096e+03
1.019196e+03,1.309901e+03
1.020161e+03,1.309387e+03
1.021125e+03,1.309240e+03
1.022089e+03,1.309684e+03
1.023053e+03,1.310610e+03
1.024018e+03,1.311929e+03
1.024982e+03,1.311461e+03
1.025946e+03,1.308021e+03
1.026910e+03,1.303051e+03
1.027875e+03,1.298904e+03
1.028839e+03,1.295879e+03
1.029803e+03,1.295550e+03
1.030767e+03,1.299222e+03
1.031731e+03,1.303410e+03
1.032696e+03,1.305352e+03
1.033660e+03,1.304812e+03
1.034624e+03,1.304593e+03
1.035588e+03,1.305330e+03
1.036552e+03,1.306223e+03
1.037517e+03,1.306692e+03
1.038481e+03,1.306448e+03
1.039445e+03,1.305812e+03
1.040409e+03,1.304680e+03
1.041374e+03,1.303428e+03
1.042338e+03,1.302189e+03
1.043302e+03,1.301396e+03
1.044266e+03,1.301380e+03
1.045231e+03,1.303363e+03
1.046195e+03,1.303538e+03
1.047159e+03,1.301125e+03
1.048123e+03,1.298104e+03
1.049088e+03,1.295183e+03
1.050052e+03,1.292445e+03
1.051016e+03,1.292533e+03
1.051980e+03,1.299111e+03
1.052945e+03,1.304407e+03
1.053909e+03,1.304047e+03
1.054873e+03,1.298959e+03
1.055837e+03,1.295020e+03
1.056802e+03,1.292918e+03
1.057766e+03,1.292441e+03
1.058730e+03,1.295914e+03
1.059694e+03,1.300247e+03
1.060658e+03,1.301197e+03
1.061623e+03,1.296066e+03
1.062587e+03,1.292682e+03
1.063551e+03,1.292403e+03
1.064515e+03,1.293910e+03
1.065479e+03,1.297566e+03
1.066444e+03,1.304006e+03
1.067408e+03,1.305427e+03
1.068372e+03,1.293298e+03
1.069336e+03,1.283289e+03
1.070301e+03,1.283172e+03
1.071265e+03,1.290182e+03
1.072229e+03,1.295933e+03
1.073193e+03,1.298758e+03
1.074158e+03,1.300405e+03
1.075122e+03,1.301809e+03
1.076086e+03,1.302129e+03
1.077050e+03,1.300348e+03
1.078015e+03,1.295762e+03
1.078979e+03,1.292509e+03
1.079943e+03,1.291501e+03
1.080907e+03,1.291606e+03
1.081872e+03,1.291552e+03
1.082836e+03,1.290896e+03
1.083800e+03,1.291118e+03
1.084764e+03,1.293686e+03
1.085729e+03,1.296702e+03
1.086693e+03,1.298815e+03
1.087657e+03,1.300437e+03
1.088621e+03,1.303030e+03
1.089585e+03,1.307352e+03
1.090550e+03,1.311479e+03
1.091514e+03,1.316873e+03
1.092478e+03,1.321874e+03
1.093442e+03,1.324518e+03
1.094406e+03,1.324641e+03
1.095371e+03,1.322594e+03
1.096335e+03,1.316124e+03
1.097299e+03,1.308920e+03
1.098263e+03,1.302971e+03
1.099228e+03,1.298284e+03
1.100192e+03,1.294820e+03
1.101156e+03,1.291969e+03
1.102120e+03,1.290741e+03
1.103085e+03,1.294232e+03
1.104049e+03,1.299310e+03
1.105013e+03,1.299734e+03
1.105977e+03,1.288864e+03
1.106942e+03,1.281016e+03
1.107906e+03,1.279505e+03
1.108870e+03,1.281393e+03
1.109834e+03,1.284831e+03
1.110799e+03,1.290932e+03
1.111763e+03,1.293511e+03
1.112727e+03,1.286874e+03
1.113691e+03,1.281732e+03
1.114656e+03,1.285083e+03
1.115620e+03,1.295496e+03
1.116584e+03,1.301743e+03
1.117548e+03,1.299833e+03
1.118512e+03,1.296510e+03
1.119477e+03,1.291030e+03
1.120441e+03,1.285920e+03
1.121405e+03,1.285256e+03
1.122369e+03,1.295338e+03
1.123334e+03,1.300383e+03
1.124298e+03,1.297581e+03
1.125262e+03,1.292639e+03
1.126226e+03,1.289595e+03
1.127191e+03,1.288899e+03
1.128155e+03,1.286813e+03
1.129119e+03,1.281386e+03
1.130083e+03,1.276587e+03
1.131047e+03,1.273695e+03
1.132012e+03,1.272181e+03
1.132976e+03,1.271498e+03
1.133940e+03,1.273204e+03
1.134904e+03,1.272234e+03
1.135869e+03,1.266436e+03
1.136833e+03,1.260022e+03
1.137797e+03,1.257885e+03
1.138761e+03,1.261765e+03
1.139726e+03,1.265003e+03
1.140690e+03,1.267614e+03
1.141654e+03,1.268900e+03
1.142618e+03,1.267794e+03
1.143583e+03,1.264876e+03
1.144547e+03,1.264292e+03
1.145511e+03,1.266660e+03
1.146475e+03,1.268919e+03
1.147439e+03,1.270287e+03
1.148404e+03,1.270936e+03
1.149368e+03,1.270563e+03
1.150332e+03,1.268905e+03
1.151296e+03,1.267436e+03
1.152261e+03,1.265840e+03
1.153225e+03,1.263099e+03
1.154189e+03,1.259170e+03
1.155153e+03,1.254630e+03
1.156118e+03,1.249201e+03
1.157082e+03,1.243204e+03
1.158046e+03,1.240226e+03
1.159010e+03,1.242009e+03
1.159974e+03,1.246133e+03
1.160939e+03,1.247252e+03
1.161903e+03,1.245689e+03
1.162867e+03,1.245967e+03
1.163831e+03,1.249081e+03
1.164796e+03,1.251252e+03
1.165760e+03,1.247377e+03
1.166724e+03,1.240138e+03
1.167688e+03,1.236676e+03
1.168653e+03,1.236782e+03
1.169617e+03,1.236471e+03
1.170581e+03,1.232627e+03
1.171545e+03,1.228225e+03
1.172510e+03,1.228383e+03
1.173474e+03,1.231314e+03
1.174438e+03,1.232235e+03
1.175402e+03,1.229260e+03
1.176366e+03,1.226081e+03
1.177331e+03,1.226672e+03
1.178295e+03,1.228821e+03
1.179259e+03,1.229988e+03
1.180223e+03,1.229582e+03
1.181188e+03,1.227601e+03
1.182152e+03,1.223059e+03
1.183116e+03,1.218037e+03
1.184080e+03,1.213421e+03
1.185045e+03,1.210012e+03
1.186009e+03,1.209063e+03
1.186973e+03,1.213035e+03
1.187937e+03,1.215775e+03
1.188901e+03,1.213240e+03
1.189866e+03,1.209297e+03
1.190830e+03,1.206272e+03
1.191794e+03,1.204210e+03
1.192758e+03,1.204598e+03
1.193723e+03,1.213876e+03
1.194687e+03,1.220018e+03
1.195651e+03,1.214242e+03
1.196615e+03,1.201898e+03
1.197580e+03,1.196703e+03
1.198544e+03,1.204646e+03
1.199508e+03,1.209073e+03
1.200472e+03,1.208307e+03
1.201437e+03,1.205619e+03
1.202401e+03,1.203831e+03
1.203365e+03,1.203418e+03
1.204329e+03,1.202302e+03
1.205293e+03,1.199170e+03
1.206258e+03,1.198370e+03
1.207222e+03,1.202444e+03
1.208186e+03,1.209309e+03
1.209150e+03,1.212824e+03
1.210115e+03,1.212323e+03
1.211079e+03,1.211750e+03
1.212043e+03,1.212227e+03
1.213007e+03,1.211499e+03
1.213972e+03,1.205611e+03
1.214936e+03,1.196352e+03
1.215900e+03,1.194033e+03
1.216864e+03,1.198451e+03
1.217828e+03,1.202025e+03
1.218793e+03,1.199362e+03
1.219757e+03,1.194975e+03
1.220721e+03,1.198211e+03
1.221685e+03,1.205942e+03
1.222650e+03,1.208671e+03
1.223614e+03,1.203325e+03
1.224578e+03,1.197082e+03
1.225542e+03,1.197079e+03
1.226507e+03,1.199778e+03
1.227471e+03,1.201927e+03
1.228435e+03,1.202507e+03
1.229399e+03,1.200148e+03
1.230364e+03,1.190999e+03
1.231328e+03,1.182888e+03
1.232292e+03,1.181225e+03
1.233256e+03,1.183387e+03
1.234220e+03,1.185523e+03
1.235185e+03,1.187395e+03
1.236149e+03,1.188582e+03
1.237113e+03,1.188620e+03
1.238077e+03,1.188606e+03
1.239042e+03,1.188193e+03
1.240006e+03,1.187017e+03
1.240970e+03,1.186253e+03
1.241934e+03,1.185773e+03
1.242899e+03,1.185974e+03
1.243863e+03,1.188009e+03
1.244827e+03,1.190197e+03
1.245791e+03,1.189550e+03
1.246755e+03,1.185064e+03
1.247720e+03,1.184390e+03
1.248684e+03,1.188780e+03
1.249648e+03,1.192206e+03
1.250612e+03,1.190105e+03
1.251577e+03,1.184298e+03
1.252541e+03,1.181566e+03
1.253505e+03,1.181378e+03
1.254469e+03,1.180254e+03
1.255434e+03,1.177213e+03
1.256398e+03,1.174987e+03
1.257362e+03,1.177696e+03
1.258326e+03,1.182413e+03
1.259291e+03,1.184805e+03
1.260255e+03,1.184252e+03
1.261219e+03,1.180794e+03
1.262183e+03,1.172031e+03
1.263147e+03,1.164138e+03
1.264112e+03,1.162150e+03
1.265076e+03,1.163686e+03
1.266040e+03,1.165134e+03
1.267004e+03,1.165557e+03
1.267969e+03,1.166369e+03
1.268933e+03,1.168662e+03
1.269897e+03,1.171909e+03
1.270861e+03,1.175100e+03
1.271826e+03,1.177355e+03
1.272790e+03,1.179202e+03
1.273754e+03,1.181895e+03
1.274718e+03,1.182702e+03
1.275682e+03,1.180938e+03
1.276647e+03,1.178381e+03
1.277611e+03,1.177279e+03
1.278575e+03,1.178004e+03
1.279539e+03,1.175149e+03
1.280504e+03,1.168595e+03
1.281468e+03,1.163835e+03
1.282432e+03,1.164306e+03
1.283396e+03,1.167703e+03
1.284361e+03,1.167808e+03
1.285325e+03,1.165416e+03
1.286289e+03,1.165448e+03
1.287253e+03,1.169194e+03
1.288218e+03,1.172604e+03
1.289182e+03,1.170204e+03
1.290146e+03,1.166774e+03
1.291110e+03,1.170230e+03
1.292074e+03,1.178605e+03
1.293039e+03,1.183212e+03
1.294003e+03,1.176442e+03
1.294967e+03,1.168931e+03
1.295931e+03,1.165193e+03
1.296896e+03,1.163678e+03
1.297860e+03,1.162339e+03
1.298824e+03,1.160350e+03
1.299788e+03,1.160340e+03
1.300753e+03,1.163737e+03
1.301717e+03,1.166808e+03
1.302681e+03,1.167826e+03
1.303645e+03,1.167708e+03
1.304609e+03,1.169617e+03
1.305574e+03,1.173737e+03
1.306538e+03,1.174821e+03
1.307502e+03,1.172254e+03
1.308466e+03,1.169486e+03
1.309431e+03,1.169713e+03
1.310395e+03,1.172159e+03
1.311359e+03,1.174323e+03
1.312323e+03,1.175675e+03
1.313288e+03,1.175894e+03
1.314252e+03,1.175158e+03
1.315216e+03,1.174694e+03
1.316180e+03,1.175177e+03
1.317145e+03,1.176379e+03
1.318109e+03,1.177795e+03
1.319073e+03,1.178901e+03
1.320037e+03,1.179641e+03
1.321001e+03,1.179720e+03
1.321966e+03,1.179887e+03
1.322930e+03,1.182101e+03
1.323894e+03,1.184789e+03
1.324858e+03,1.184490e+03
1.325823e+03,1.179659e+03
1.326787e+03,1.174918e+03
1.327751e+03,1.169142e+03
1.328715e+03,1.165258e+03
1.329680e+03,1.165797e+03
1.330644e+03,1.169837e+03
1.331608e+03,1.173503e+03
1.332572e+03,1.176636e+03
1.333536e+03,1.178658e+03
1.334501e+03,1.179279e+03
1.335465e+03,1.178053e+03
1.336429e+03,1.174168e+03
1.337393e+03,1.169159e+03
1.338358e+03,1.164811e+03
1.339322e+03,1.161219e+03
1.340286e+03,1.158035e+03
1.341250e+03,1.155607e+03
1.342215e+03,1.152864e+03
1.343179e+03,1.148840e+03
1.344143e+03,1.145690e+03
1.345107e+03,1.145307e+03
1.346072e+03,1.148209e+03
1.347036e+03,1.150424e+03
1.348000e+03,1.152383e+03
1.348964e+03,1.151902e+03
1.349928e+03,1.147668e+03
1.350893e+03,1.141915e+03
1.351857e+03,1.138655e+03
1.352821e+03,1.137636e+03
1.353785e+03,1.140069e+03
1.354750e+03,1.145994e+03
1.355714e+03,1.149654e+03
1.356678e+03,1.143564e+03
1.357642e+03,1.134970e+03
1.358607e+03,1.135134e+03
1.359571e+03,1.140610e+03
1.360535e+03,1.143701e+03
1.361499e+03,1.140959e+03
1.362464e+03,1.139211e+03
1.363428e+03,1.143240e+03
1.364392e+03,1.148328e+03
1.365356e+03,1.150755e+03
1.366320e+03,1.149990e+03
1.367285e+03,1.147990e+03
1.368249e+03,1.143921e+03
1.369213e+03,1.142178e+03
1.370177e+03,1.144469e+03
1.371142e+03,1.147366e+03
1.372106e+03,1.145917e+03
1.373070e+03,1.141086e+03
1.374034e+03,1.141127e+03
1.374999e+03,1.145742e+03
1.375963e+03,1.148948e+03
1.376927e+03,1.147041e+03
1.377891e+03,1.143803e+03
1.378855e+03,1.142837e+03
1.379820e+03,1.142852e+03
1.380784e+03,1.142754e+03
1.381748e+03,1.142644e+03
1.382712e+03,1.141289e+03
1.383677e+03,1.133355e+03
1.384641e+03,1.129009e+03
1.385605e+03,1.135313e+03
1.386569e+03,1.144557e+03
1.387534e+03,1.144154e+03
1.388498e+03,1.131553e+03
1.389462e+03,1.124399e+03
1.390426e+03,1.123386e+03
1.391391e+03,1.124513e+03
1.392355e+03,1.126580e+03
1.393319e+03,1.128373e+03
1.394283e+03,1.125542e+03
1.395247e+03,1.120222e+03
1.396212e+03,1.118613e+03
1.397176e+03,1.122382e+03
1.398140e+03,1.124387e+03
1.399104e+03,1.116673e+03
1.400069e+03,1.108991e+03
1.401033e+03,1.108061e+03
1.401997e+03,1.112097e+03
1.402961e+03,1.115552e+03
1.403926e+03,1.118823e+03
1.404890e+03,1.119750e+03
1.405854e+03,1.117928e+03
1.406818e+03,1.115186e+03
1.407782e+03,1.112693e+03
1.408747e+03,1.110732e+03
1.409711e+03,1.108664e+03
1.410675e+03,1.106342e+03
1.411639e+03,1.106538e+03
1.412604e+03,1.110663e+03
1.413568e+03,1.113546e+03
1.414532e+03,1.109734e+03
1.415496e+03,1.104477e+03
1.416461e+03,1.101686e+03
1.417425e+03,1.100820e+03
1.418389e+03,1.099924e+03
1.419353e+03,1.097551e+03
1.420318e+03,1.097343e+03
1.421282e+03,1.101775e+03
1.422246e+03,1.105651e+03
1.423210e+03,1.103458e+03
1.424174e+03,1.096822e+03
1.425139e+03,1.097299e+03
1.426103e+03,1.103524e+03
1.427067e+03,1.105893e+03
1.428031e+03,1.100594e+03
1.428996e+03,1.094946e+03
1.429960e+03,1.097579e+03
1.430924e+03,1.101915e+03
1.431888e+03,1.100848e+03
1.432853e+03,1.095002e+03
1.433817e+03,1.089781e+03
1.434781e+03,1.085080e+03
1.435745e+03,1.084104e+03
1.436709e+03,1.090029e+03
1.437674e+03,1.094500e+03
1.438638e+03,1.088270e+03
1.439602e+03,1.073601e+03
1.440566e+03,1.072546e+03
1.441531e+03,1.083631e+03
1.442495e+03,1.093241e+03
1.443459e+03,1.096343e+03
1.444423e+03,1.096048e+03
1.445388e+03,1.094052e+03
1.446352e+03,1.090895e+03
1.447316e+03,1.087121e+03
1.448280e+03,1.083395e+03
1.449245e+03,1.080474e+03
1.450209e+03,1.078412e+03
1.451173e+03,1.077297e+03
1.452137e+03,1.076457e+03
1.453101e+03,1.076304e+03
1.454066e+03,1.077987e+03
1.455030e+03,1.081229e+03
1.455994e+03,1.083168e+03
1.456958e+03,1.084035e+03
1.457923e+03,1.085977e+03
1.458887e+03,1.090165e+03
1.459851e+03,1.092502e+03
1.460815e+03,1.086397e+03
1.461780e+03,1.078834e+03
1.462744e+03,1.077513e+03
1.463708e+03,1.082099e+03
1.464672e+03,1.085203e+03
1.465636e+03,1.087344e+03
1.466601e+03,1.086193e+03
1.467565e+03,1.079825e+03
1.468529e+03,1.073927e+03
1.469493e+03,1.075300e+03
1.470458e+03,1.080929e+03
1.471422e+03,1.077216e+03
1.472386e+03,1.067666e+03
1.473350e+03,1.065835e+03
1.474315e+03,1.079022e+03
1.475279e+03,1.089321e+03
1.476243e+03,1.080882e+03
1.477207e+03,1.069089e+03
1.478172e+03,1.066137e+03
1.479136e+03,1.070434e+03
1.480100e+03,1.071992e+03
1.481064e+03,1.069979e+03
1.482028e+03,1.069075e+03
1.482993e+03,1.070136e+03
1.483957e+03,1.071778e+03
1.484921e+03,1.072088e+03
1.485885e+03,1.072097e+03
1.486850e+03,1.075060e+03
1.487814e+03,1.078692e+03
1.488778e+03,1.077982e+03
1.489742e+03,1.069877e+03
1.490707e+03,1.063948e+03
1.491671e+03,1.066769e+03
1.492635e+03,1.069680e+03
1.493599e+03,1.068076e+03
1.494563e+03,1.063468e+03
1.495528e+03,1.060346e+03
1.496492e+03,1.058520e+03
1.497456e+03,1.057964e+03
1.498420e+03,1.058936e+03
1.499385e+03,1.058912e+03
1.500349e+03,1.054061e+03
1.501313e+03,1.049245e+03
1.502277e+03,1.049137e+03
1.503242e+03,1.051376e+03
1.504206e+03,1.052646e+03
1.505170e+03,1.052125e+03
1.506134e+03,1.050687e+03
1.507099e+03,1.047791e+03
1.508063e+03,1.045959e+03
1.509027e+03,1.046562e+03
1.509991e+03,1.047700e+03
1.510955e+03,1.045840e+03
1.511920e+03,1.042125e+03
1.512884e+03,1.038903e+03
1.513848e+03,1.036984e+03
1.514812e+03,1.037051e+03
1.515777e+03,1.040292e+03
1.516741e+03,1.042976e+03
1.517705e+03,1.042430e+03
1.518669e+03,1.041874e+03
1.519634e+03,1.044829e+03
1.520598e+03,1.050784e+03
1.521562e+03,1.053405e+03
1.522526e+03,1.052427e+03
1.523490e+03,1.048038e+03
1.524455e+03,1.039819e+03
1.525419e+03,1.032057e+03
1.526383e+03,1.029228e+03
1.527347e+03,1.028431e+03
1.528312e+03,1.027741e+03
1.529276e+03,1.027516e+03
1.530240e+03,1.028143e+03
1.531204e+03,1.028924e+03
1.532169e+03,1.031638e+03
1.533133e+03,1.036959e+03
1.534097e+03,1.041842e+03
1.535061e+03,1.044280e+03
1.536026e+03,1.044181e+03
1.536990e+03,1.040409e+03
1.537954e+03,1.034784e+03
1.538918e+03,1.030375e+03
1.539882e+03,1.027714e+03
1.540847e+03,1.026671e+03
1.541811e+03,1.027754e+03
1.542775e+03,1.029388e+03
1.543739e+03,1.032441e+03
1.544704e+03,1.034999e+03
1.545668e+03,1.032051e+03
1.546632e+03,1.025543e+03
1.547596e+03,1.024849e+03
1.548561e+03,1.029541e+03
1.549525e+03,1.033753e+03
1.550489e+03,1.033824e+03
1.551453e+03,1.032698e+03
1.552417e+03,1.031631e+03
1.553382e+03,1.029836e+03
1.554346e+03,1.026527e+03
1.555310e+03,1.022271e+03
1.556274e+03,1.020807e+03
1.557239e+03,1.021958e+03
1.558203e+03,1.021432e+03
1.559167e+03,1.018078e+03
1.560131e+03,1.015369e+03
1.561096e+03,1.017714e+03
1.562060e+03,1.020999e+03
1.563024e+03,1.021184e+03
1.563988e+03,1.019762e+03
1.564953e+03,1.020668e+03
1.565917e+03,1.025687e+03
1.566881e+03,1.026681e+03
1.567845e+03,1.022770e+03
1.568809e+03,1.018922e+03
1.569774e+03,1.018018e+03
1.570738e+03,1.018532e+03
1.571702e+03,1.019864e+03
1.572666e+03,1.020363e+03
1.573631e+03,1.016843e+03
1.574595e+03,1.009448e+03
1.575559e+03,1.005735e+03
1.576523e+03,1.007851e+03
1.577488e+03,1.009926e+03
1.578452e+03,1.010313e+03
1.579416e+03,1.010306e+03
1.580380e+03,1.012105e+03
1.581344e+03,1.014515e+03
1.582309e+03,1.015967e+03
1.583273e+03,1.016170e+03
1.584237e+03,1.013803e+03
1.585201e+03,1.006183e+03
1.586166e+03,1.002562e+03
1.587130e+03,1.005268e+03
1.588094e+03,1.008646e+03
1.589058e+03,1.011101e+03
1.590023e+03,1.012177e+03
1.590987e+03,1.009031e+03
1.591951e+03,1.004282e+03
1.592915e+03,1.004468e+03
1.593880e+03,1.008953e+03
1.594844e+03,1.010828e+03
1.595808e+03,1.003985e+03
1.596772e+03,9.991537e+02
1.597736e+03,9.994708e+02
1.598701e+03,1.001461e+03
1.599665e+03,1.001996e+03
1.600629e+03,1.001460e+03
1.601593e+03,1.001286e+03
1.602558e+03,1.001445e+03
1.603522e+03,1.001979e+03
1.604486e+03,1.002968e+03
1.605450e+03,1.003446e+03
1.606415e+03,1.002691e+03
1.607379e+03,1.002626e+03
1.608343e+03,1.004299e+03
1.609307e+03,1.006218e+03
1.610271e+03,1.004999e+03
1.611236e+03,1.001636e+03
1.612200e+03,1.002215e+03
1.613164e+03,1.006490e+03
1.614128e+03,1.009559e+03
1.615093e+03,1.008358e+03
1.616057e+03,1.005738e+03
1.617021e+03,1.001253e+03
1.617985e+03,9.964037e+02
1.618950e+03,9.920947e+02
1.619914e+03,9.886014e+02
1.620878e+03,9.878918e+02
1.621842e+03,9.889584e+02
1.622807e+03,9.861996e+02
1.623771e+03,9.786345e+02
1.624735e+03,9.744891e+02
1.625699e+03,9.815901e+02
1.626663e+03,9.877396e+02
1.627628e+03,9.883456e+02
1.628592e+03,9.855056e+02
1.629556e+03,9.821816e+02
1.630520e+03,9.788390e+02
1.631485e+03,9.747148e+02
1.632449e+03,9.702356e+02
1.633413e+03,9.677009e+02
1.634377e+03,9.687704e+02
1.635342e+03,9.702214e+02
1.636306e+03,9.703657e+02
1.637270e+03,9.715187e+02
1.638234e+03,9.754183e+02
1.639198e+03,9.802189e+02
1.640163e+03,9.815164e+02
1.641127e+03,9.797010e+02
1.642091e+03,9.732051e+02
1.643055e+03,9.626306e+02
1.644020e+03,9.563481e+02
1.644984e+03,9.615731e+02
1.645948e+03,9.665468e+02
1.646912e+03,9.697596e+02
1.647877e+03,9.708492e+02
1.648841e+03,9.683578e+02
1.649805e+03,9.642590e+02
1.650769e+03,9.658029e+02
1.651734e+03,9.704797e+02
1.652698e+03,9.719783e+02
1.653662e+03,9.678737e+02
1.654626e+03,9.647175e+02
1.655590e+03,9.653054e+02
1.656555e+03,9.650764e+02
1.657519e+03,9.629316e+02
1.658483e+03,9.606224e+02
1.659447e+03,9.595792e+02
1.660412e+03,9.594562e+02
1.661376e+03,9.617822e+02
1.662340e+03,9.655022e+02
1.663304e+03,9.665430e+02
1.664269e+03,9.604412e+02
1.665233e+03,9.557637e+02
1.666197e+03,9.520413e+02
1.667161e+03,9.509551e+02
1.668125e+03,9.546276e+02
1.669090e+03,9.597055e+02
1.670054e+03,9.615092e+02
1.671018e+03,9.612589e+02
1.671982e+03,9.607089e+02
1.672947e+03,9.600168e+02
1.673911e+03,9.578082e+02
1.674875e+03,9.523680e+02
1.675839e+03,9.514210e+02
1.676804e+03,9.571666e+02
1.677768e+03,9.610964e+02
1.678732e+03,9.512010e+02
1.679696e+03,9.397550e+02
1.680661e+03,9.387280e+02
1.681625e+03,9.428362e+02
1.682589e+03,9.453499e+02
1.683553e+03,9.463812e+02
1.684517e+03,9.452298e+02
1.685482e+03,9.419269e+02
1.686446e+03,9.421120e+02
1.687410e+03,9.481876e+02
1.688374e+03,9.536431e+02
1.689339e+03,9.534180e+02
1.690303e+03,9.509721e+02
1.691267e+03,9.476866e+02
1.692231e+03,9.442368e+02
1.693196e+03,9.410193e+02
1.694160e+03,9.378914e+02
1.695124e+03,9.357539e+02
1.696088e+03,9.348854e+02
1.697052e+03,9.357025e+02
1.698017e+03,9.390278e+02
1.698981e+03,9.414808e+02
1.699945e+03,9.417566e+02
1.700909e+03,9.407766e+02
1.701874e+03,9.393263e+02
1.702838e+03,9.385010e+02
1.703802e+03,9.397715e+02
1.704766e+03,9.419609e+02
1.705731e+03,9.447806e+02
1.706695e+03,9.480119e+02
1.707659e+03,9.471937e+02
1.708623e+03,9.405875e+02
1.709588e+03,9.335580e+02
1.710552e+03,9.257795e+02
1.711516e+03,9.199866e+02
1.712480e+03,9.202260e+02
1.713444e+03,9.225333e+02
1.714409e+03,9.229991e+02
1.715373e+03,9.229122e+02
1.716337e+03,9.238224e+02
1.717301e+03,9.260251e+02
1.718266e+03,9.296555e+02
1.719230e+03,9.343726e+02
1.720194e+03,9.350472e+02
1.721158e+03,9.296403e+02
1.722123e+03,9.246035e+02
1.723087e+03,9.266044e+02
1.724051e+03,9.277979e+02
1.725015e+03,9.232018e+02
1.725979e+03,9.171629e+02
1.726944e+03,9.161076e+02
1.727908e+03,9.185662e+02
1.728872e+03,9.180048e+02
1.729836e+03,9.148533e+02
1.730801e+03,9.125226e+02
1.731765e+03,9.122769e+02
1.732729e+03,9.137451e+02
1.733693e+03,9.177415e+02
1.734658e+03,9.208287e+02
1.735622e+03,9.211909e+02
1.736586e+03,9.202689e+02
1.737550e+03,9.205988e+02
1.738515e+03,9.206656e+02
1.739479e+03,9.185515e+02
1.740443e+03,9.142966e+02
1.741407e+03,9.090886e+02
1.742371e+03,9.023610e+02
1.743336e+03,9.015253e+02
1.744300e+03,9.069398e+02
1.745264e+03,9.119679e+02
1.746228e+03,9.118156e+02
1.747193e+03,9.116734e+02
1.748157e+03,9.165175e+02
1.749121e+03,9.206020e+02
1.750085e+03,9.183625e+02
1.751050e+03,9.112338e+02
1.752014e+03,9.062580e+02
1.752978e+03,9.031212e+02
1.753942e+03,9.002521e+02
1.754906e+03,8.972017e+02
1.755871e+03,8.961755e+02
1.756835e+03,8.983354e+02
1.757799e+03,8.986839e+02
1.758763e+03,8.971907e+02
1.759728e+03,8.951718e+02
1.760692e+03,8.928242e+02
1.761656e+03,8.911676e+02
1.762620e+03,8.906285e+02
1.763585e+03,8.912722e+02
1.764549e+03,8.934460e+02
1.765513e+03,8.966976e+02
1.766477e+03,8.986045e+02
1.767442e+03,8.992695e+02
1.768406e+03,8.970202e+02
1.769370e+03,8.904893e+02
1.770334e+03,8.873119e+02
1.771298e+03,8.960218e+02
1.772263e+03,9.001818e+02
1.773227e+03,8.944422e+02
1.774191e+03,8.853280e+02
1.775155e+03,8.807799e+02
1.776120e+03,8.787883e+02
1.777084e+03,8.770165e+02
1.778048e+03,8.754018e+02
1.779012e+03,8.739192e+02
1.779977e+03,8.725458e+02
1.780941e+03,8.724000e+02
1.781905e+03,8.730914e+02
1.782869e+03,8.747902e+02
1.783833e+03,8.786945e+02
1.784798e+03,8.805189e+02
1.785762e+03,8.747958e+02
1.786726e+03,8.693885e+02
1.787690e+03,8.681910e+02
1.788655e+03,8.697910e+02
1.789619e+03,8.732637e+02
1.790583e+03,8.763391e+02
1.791547e+03,8.717790e+02
1.792512e+03,8.616459e+02
1.793476e+03,8.580486e+02
1.794440e+03,8.640411e+02
1.795404e+03,8.691409e+02
1.796369e+03,8.725893e+02
1.797333e+03,8.761503e+02
1.798297e+03,8.828502e+02
1.799261e+03,8.866906e+02
1.800225e+03,8.792654e+02
1.801190e+03,8.713166e+02
1.802154e+03,8.708557e+02
1.803118e+03,8.744943e+02
1.804082e+03,8.738781e+02
1.805047e+03,8.708509e+02
1.806011e+03,8.686754e+02
1.806975e+03,8.676776e+02
1.807939e+03,8.675713e+02
1.808904e+03,8.689755e+02
1.809868e+03,8.672183e+02
1.810832e+03,8.619301e+02
1.811796e+03,8.568767e+02
1.812760e+03,8.526995e+02
1.813725e+03,8.519529e+02
1.814689e+03,8.608022e+02
1.815653e+03,8.694657e+02
1.816617e+03,8.705058e+02
1.817582e+03,8.657371e+02
1.818546e+03,8.579955e+02
1.819510e+03,8.498358e+02
1.820474e+03,8.482816e+02
1.821439e+03,8.545463e+02
1.822403e+03,8.575402e+02
1.823367e+03,8.559549e+02
1.824331e+03,8.538187e+02
1.825296e+03,8.514362e+02
1.826260e+03,8.495065e+02
1.827224e+03,8.494039e+02
1.828188e+03,8.504572e+02
1.829152e+03,8.532440e+02
1.830117e+03,8.548010e+02
1.831081e+03,8.517079e+02
1.832045e+03,8.459003e+02
1.833009e+03,8.441977e+02
1.833974e+03,8.454080e+02
1.834938e+03,8.460032e+02
1.835902e+03,8.448874e+02
1.836866e+03,8.430460e+02
1.837831e+03,8.402040e+02
1.838795e+03,8.403136e+02
1.839759e+03,8.447345e+02
1.840723e+03,8.486961e+02
1.841688e+03,8.463770e+02
1.842652e+03,8.458085e+02
1.843616e+03,8.503307e+02
1.844580e+03,8.549697e+02
1.845544e+03,8.560714e+02
1.846509e+03,8.536481e+02
1.847473e+03,8.444099e+02
1.848437e+03,8.327248e+02
1.849401e+03,8.277098e+02
1.850366e+03,8.296454e+02
1.851330e+03,8.267485e+02
1.852294e+03,8.202156e+02
1.853258e+03,8.189978e+02
1.854223e+03,8.258499e+02
1.855187e+03,8.321071e+02
1.856151e+03,8.331271e+02
1.857115e+03,8.334058e+02
1.858079e+03,8.333867e+02
1.859044e+03,8.338691e+02
1.860008e+03,8.382732e+02
1.860972e+03,8.418851e+02
1.861936e+03,8.377900e+02
1.862901e+03,8.310870e+02
1.863865e+03,8.291683e+02
1.864829e+03,8.306489e+02
1.865793e+03,8.277667e+02
1.866758e+03,8.225018e+02
1.867722e+03,8.199103e+02
1.868686e+03,8.214172e+02
1.869650e+03,8.249278e+02
1.870615e+03,8.310452e+02
1.871579e+03,8.319066e+02
1.872543e+03,8.252927e+02
1.873507e+03,8.191245e+02
1.874471e+03,8.194981e+02
1.875436e+03,8.211282e+02
1.876400e+03,8.229432e+02
1.877364e+03,8.234617e+02
1.878328e+03,8.188968e+02
1.879293e+03,8.130148e+02
1.880257e+03,8.147974e+02
1.881221e+03,8.199503e+02
1.882185e+03,8.191918e+02
1.883150e+03,8.122024e+02
1.884114e+03,8.088397e+02
1.885078e+03,8.085736e+02
1.886042e+03,8.097823e+02
1.887006e+03,8.123888e+02
1.887971e+03,8.130294e+02
1.888935e+03,8.090940e+02
1.889899e+03,8.086344e+02
1.890863e+03,8.136663e+02
1.891828e+03,8.186876e+02
1.892792e+03,8.189447e+02
1.893756e+03,8.169221e+02
1.894720e+03,8.140051e+02
1.895685e+03,8.116139e+02
1.896649e+03,8.101530e+02
1.897613e+03,8.094171e+02
1.898577e+03,8.114509e+02
1.899542e+03,8.142180e+02
1.900506e+03,8.122361e+02
1.901470e+03,8.039922e+02
1.902434e+03,7.988469e+02
1.903398e+03,7.967977e+02
1.904363e+03,7.968032e+02
1.905327e+03,7.988397e+02
1.906291e+03,8.012937e+02
1.907255e+03,8.038568e+02
1.908220e+03,8.049081e+02
1.909184e+03,8.041447e+02
1.910148e+03,8.018342e+02
1.911112e+03,7.977707e+02
1.912077e+03,7.935644e+02
1.913041e+03,7.892258e+02
1.914005e+03,7.867188e+02
1.914969e+03,7.893865e+02
1.915933e+03,7.948444e+02
1.916898e+03,7.930612e+02
1.917862e+03,7.879476e+02
1.918826e+03,7.883434e+02
1.919790e+03,7.960693e+02
1.920755e+03,7.957126e+02
1.921719e+03,7.873301e+02
1.922683e+03,7.834975e+02
1.923647e+03,7.872049e+02
1.924612e+03,7.891599e+02
1.925576e+03,7.807941e+02
1.926540e+03,7.788252e+02
1.927504e+03,7.865402e+02
1.928469e+03,7.926819e+02
1.929433e+03,7.840306e+02
1.930397e+03,7.736953e+02
1.931361e+03,7.705895e+02
1.932325e+03,7.714376e+02
1.933290e+03,7.755627e+02
1.934254e+03,7.811998e+02
1.935218e+03,7.814464e+02
1.936182e+03,7.789080e+02
1.937147e+03,7.799893e+02
1.938111e+03,7.843953e+02
1.939075e+03,7.832678e+02
1.940039e+03,7.778049e+02
1.941004e+03,7.729398e+02
1.941968e+03,7.689688e+02
1.942932e+03,7.660500e+02
1.943896e+03,7.641078e+02
1.944860e+03,7.649921e+02
1.945825e+03,7.693905e+02
1.946789e+03,7.732646e+02
1.947753e+03,7.731168e+02
1.948717e+03,7.717805e+02
1.949682e+03,7.692675e+02
1.950646e+03,7.679081e+02
1.951610e+03,7.701515e+02
1.952574e+03,7.726797e+02
1.953539e+03,7.694108e+02
1.954503e+03,7.647295e+02
1.955467e+03,7.632675e+02
1.956431e+03,7.644874e+02
1.957396e+03,7.680107e+02
1.958360e+03,7.718259e+02
1.959324e+03,7.706510e+02
1.960288e+03,7.652769e+02
1.961252e+03,7.614366e+02
1.962217e+03,7.590597e+02
1.963181e+03,7.578544e+02
1.964145e+03,7.576097e+02
1.965109e+03,7.578265e+02
1.966074e+03,7.585812e+02
1.967038e+03,7.603312e+02
1.968002e+03,7.625549e+02
1.968966e+03,7.638821e+02
1.969931e+03,7.637811e+02
1.970895e+03,7.625905e+02
1.971859e+03,7.601363e+02
1.972823e+03,7.591179e+02
1.973787e+03,7.609133e+02
1.974752e+03,7.627198e+02
1.975716e+03,7.592361e+02
1.976680e+03,7.549403e+02
1.977644e+03,7.576780e+02
1.978609e+03,7.623665e+02
1.979573e+03,7.581731e+02
1.980537e+03,7.482731e+02
1.981501e+03,7.439044e+02
1.982466e+03,7.442444e+02
1.983430e+03,7.462268e+02
1.984394e+03,7.494503e+02
1.985358e+03,7.511044e+02
1.986323e+03,7.511941e+02
1.987287e+03,7.502934e+02
1.988251e+03,7.483334e+02
1.989215e+03,7.459860e+02
1.990179e+03,7.434633e+02
1.991144e+03,7.411605e+02
1.992108e+03,7.394115e+02
1.993072e+03,7.382863e+02
1.994036e+03,7.364961e+02
1.995001e+03,7.370375e+02
1.995965e+03,7.410653e+02
1.996929e+03,7.460162e+02
1.997893e+03,7.503418e+02
1.998858e+03,7.524444e+02
1.999822e+03,7.498529e+02
2.000786e+03,7.451619e+02
2.001750e+03,7.407285e+02
2.002714e+03,7.371002e+02
2.003679e+03,7.335350e+02
2.004643e+03,7.308055e+02
2.005607e+03,7.322355e+02
2.006571e+03,7.361093e+02
2.007536e+03,7.326934e+02
2.008500e+03,7.253520e+02
2.009464e+03,7.256377e+02
2.010428e+03,7.341608e+02
2.011393e+03,7.384283e+02
2.012357e+03,7.373962e+02
2.013321e+03,7.369860e+02
2.014285e+03,7.369926e+02
2.015250e+03,7.351975e+02
2.016214e+03,7.290576e+02
2.017178e+03,7.234305e+02
2.018142e+03,7.185729e+02
2.019106e+03,7.161530e+02
2.020071e+03,7.179753e+02
2.021035e+03,7.196808e+02
2.021999e+03,7.183002e+02
2.022963e+03,7.180692e+02
2.023928e+03,7.216504e+02
2.024892e+03,7.246700e+02
2.025856e+03,7.185352e+02
2.026820e+03,7.146510e+02
2.027785e+03,7.223102e+02
2.028749e+03,7.313485e+02
2.029713e+03,7.248118e+02
2.030677e+03,7.135301e+02
2.031641e+03,7.122581e+02
2.032606e+03,7.166588e+02
2.033570e+03,7.189442e+02
2.034534e+03,7.191154e+02
2.035498e+03,7.170038e+02
2.036463e+03,7.136543e+02
2.037427e+03,7.113627e+02
2.038391e+03,7.106144e+02
2.039355e+03,7.079885e+02
2.040320e+03,7.044016e+02
2.041284e+03,7.040829e+02
2.042248e+03,7.078557e+02
2.043212e+03,7.065950e+02
2.044177e+03,6.995167e+02
2.045141e+03,6.968817e+02
2.046105e+03,6.999589e+02
2.047069e+03,7.025566e+02
2.048033e+03,7.001489e+02
2.048998e+03,6.993153e+02
2.049962e+03,7.008841e+02
2.050926e+03,7.029857e+02
2.051890e+03,7.042045e+02
2.052854e+03,7.061657e+02
2.053819e+03,7.101544e+02
2.054783e+03,7.111315e+02
2.055747e+03,7.056058e+02
2.056711e+03,6.998867e+02
2.057676e+03,7.003621e+02
2.058640e+03,7.023266e+02
2.059604e+03,7.033604e+02
2.060568e+03,7.022741e+02
2.061533e+03,6.951691e+02
2.062497e+03,6.879457e+02
2.063461e+03,6.868956e+02
2.064425e+03,6.892590e+02
2.065390e+03,6.932825e+02
2.066354e+03,6.967737e+02
2.067318e+03,6.944695e+02
2.068282e+03,6.895187e+02
2.069247e+03,6.888166e+02
2.070211e+03,6.910206e+02
2.071175e+03,6.872493e+02
2.072139e+03,6.802582e+02
2.073104e+03,6.765189e+02
2.074068e+03,6.766331e+02
2.075032e+03,6.765920e+02
2.075996e+03,6.765273e+02
2.076960e+03,6.788179e+02
2.077925e+03,6.837679e+02
2.078889e+03,6.861828e+02
2.079853e+03,6.857660e+02
2.080817e+03,6.848878e+02
2.081782e+03,6.838303e+02
2.082746e+03,6.828328e+02
2.083710e+03,6.839112e+02
2.084674e+03,6.793052e+02
2.085639e+03,6.690315e+02
2.086603e+03,6.648936e+02
2.087567e+03,6.782921e+02
2.088531e+03,6.863564e+02
2.089496e+03,6.852277e+02
2.090460e+03,6.815425e+02
2.091424e+03,6.790513e+02
2.092388e+03,6.765606e+02
2.093353e+03,6.717454e+02
2.094317e+03,6.683683e+02
2.095281e+03,6.665984e+02
2.096245e+03,6.674009e+02
2.097209e+03,6.752325e+02
2.098174e+03,6.815353e+02
2.099138e+03,6.834684e+02
2.100102e+03,6.816603e+02
2.101066e+03,6.737714e+02
2.102031e+03,6.655582e+02
2.102995e+03,6.632318e+02
2.103959e+03,6.622008e+02
2.104923e+03,6.571581e+02
2.105887e+03,6.532699e+02
2.106852e+03,6.608918e+02
2.107816e+03,6.707053e+02
2.108780e+03,6.732504e+02
2.109744e+03,6.708416e+02
2.110708e+03,6.692614e+02
2.111673e+03,6.677737e+02
2.112637e+03,6.633411e+02
2.113601e+03,6.574748e+02
2.114565e+03,6.541238e+02
2.115530e+03,6.534028e+02
2.116494e+03,6.569669e+02
2.117458e+03,6.639387e+02
2.118422e+03,6.686680e+02
2.119387e+03,6.703682e+02
2.120351e+03,6.657587e+02
2.121315e+03,6.571337e+02
2.122279e+03,6.544206e+02
2.123244e+03,6.580862e+02
2.124208e+03,6.576662e+02
2.125172e+03,6.540552e+02
2.126136e+03,6.483009e+02
2.127101e+03,6.401776e+02
2.128065e+03,6.414022e+02
2.129029e+03,6.501143e+02
2.129993e+03,6.515607e+02
2.130958e+03,6.422986e+02
2.131922e+03,6.410232e+02
2.132886e+03,6.501466e+02
2.133850e+03,6.527578e+02
2.134814e+03,6.480895e+02
2.135779e+03,6.461492e+02
2.136743e+03,6.511223e+02
2.137707e+03,6.542646e+02
2.138671e+03,6.554150e+02
2.139636e+03,6.551830e+02
2.140600e+03,6.525323e+02
2.141564e+03,6.515953e+02
2.142528e+03,6.528719e+02
2.143493e+03,6.533733e+02
2.144457e+03,6.518680e+02
2.145421e+03,6.473727e+02
2.146385e+03,6.382347e+02
2.147350e+03,6.346654e+02
2.148314e+03,6.406316e+02
2.149278e+03,6.458464e+02
2.150242e+03,6.408050e+02
2.151207e+03,6.369912e+02
2.152171e+03,6.360746e+02
2.153135e+03,6.359031e+02
2.154099e+03,6.372886e+02
2.155063e+03,6.366328e+02
2.156028e+03,6.330031e+02
2.156992e+03,6.297801e+02
2.157956e+03,6.277386e+02
2.158920e+03,6.277546e+02
2.159885e+03,6.307767e+02
2.160849e+03,6.344872e+02
2.161813e+03,6.381887e+02
2.162777e+03,6.410646e+02
2.163741e+03,6.438905e+02
2.164706e+03,6.431142e+02
2.165670e+03,6.371906e+02
2.166634e+03,6.311246e+02
2.167598e+03,6.285940e+02
2.168563e+03,6.294464e+02
2.169527e+03,6.340316e+02
2.170491e+03,6.367128e+02
2.171455e+03,6.301096e+02
2.172420e+03,6.226844e+02
2.173384e+03,6.197292e+02
2.174348e+03,6.190551e+02
2.175312e+03,6.197108e+02
2.176277e+03,6.202933e+02
2.177241e+03,6.191643e+02
2.178205e+03,6.180423e+02
2.179169e+03,6.186816e+02
2.180134e+03,6.198024e+02
2.181098e+03,6.172836e+02
2.182062e+03,6.167639e+02
2.183026e+03,6.221934e+02
2.183990e+03,6.288815e+02
2.184955e+03,6.311284e+02
2.185919e+03,6.298134e+02
2.186883e+03,6.237383e+02
2.187847e+03,6.176682e+02
2.188812e+03,6.200206e+02
2.189776e+03,6.237731e+02
2.190740e+03,6.194459e+02
2.191704e+03,6.133510e+02
2.192668e+03,6.119781e+02
2.193633e+03,6.125040e+02
2.194597e+03,6.108188e+02
2.195561e+03,6.088144e+02
2.196525e+03,6.078202e+02
2.197490e+03,6.074384e+02
2.198454e+03,6.066430e+02
2.199418e+03,6.067894e+02
2.200382e+03,6.098932e+02
2.201347e+03,6.135618e+02
2.202311e+03,6.119683e+02
2.203275e+03,6.090077e+02
2.204239e+03,6.077014e+02
2.205204e+03,6.078323e+02
2.206168e+03,6.117342e+02
2.207132e+03,6.163209e+02
2.208096e+03,6.175478e+02
2.209061e+03,6.158157e+02
2.210025e+03,6.102961e+02
2.210989e+03,6.041690e+02
2.211953e+03,6.037371e+02
2.212917e+03,6.054686e+02
2.213882e+03,6.035421e+02
2.214846e+03,6.001144e+02
2.215810e+03,6.003494e+02
2.216774e+03,6.014652e+02
2.217739e+03,6.022626e+02
2.218703e+03,6.025338e+02
2.219667e+03,6.014635e+02
2.220631e+03,5.995252e+02
2.221595e+03,5.967448e+02
2.222560e+03,5.934354e+02
2.223524e+03,5.881908e+02
2.224488e+03,5.845901e+02
2.225452e+03,5.902758e+02
2.226417e+03,5.971052e+02
2.227381e+03,5.954813e+02
2.228345e+03,5.917823e+02
2.229309e+03,5.947610e+02
2.230274e+03,5.984342e+02
2.231238e+03,5.976180e+02
2.232202e+03,5.946603e+02
2.233166e+03,5.924119e+02
2.234131e+03,5.921086e+02
2.235095e+03,5.951457e+02
2.236059e+03,5.980744e+02
2.237023e+03,5.931555e+02
2.237988e+03,5.885671e+02
2.238952e+03,5.904705e+02
2.239916e+03,5.936602e+02
2.240880e+03,5.915080e+02
2.241844e+03,5.887668e+02
2.242809e+03,5.896080e+02
2.243773e+03,5.898893e+02
2.244737e+03,5.821947e+02
2.245701e+03,5.752830e+02
2.246666e+03,5.785853e+02
2.247630e+03,5.821608e+02
2.248594e+03,5.787830e+02
2.249558e+03,5.752526e+02
2.250522e+03,5.791902e+02
2.251487e+03,5.834502e+02
2.252451e+03,5.844562e+02
2.253415e+03,5.823911e+02
2.254379e+03,5.745352e+02
2.255344e+03,5.704750e+02
2.256308e+03,5.747911e+02
2.257272e+03,5.806728e+02
2.258236e+03,5.836723e+02
2.259201e+03,5.815664e+02
2.260165e+03,5.723107e+02
2.261129e+03,5.653557e+02
2.262093e+03,5.706272e+02
2.263058e+03,5.783697e+02
2.264022e+03,5.872560e+02
2.264986e+03,5.913060e+02
2.265950e+03,5.811555e+02
2.266915e+03,5.743498e+02
2.267879e+03,5.761238e+02
2.268843e+03,5.788492e+02
2.269807e+03,5.817490e+02
2.270771e+03,5.782662e+02
2.271736e+03,5.631139e+02
2.272700e+03,5.549693e+02
2.273664e+03,5.592548e+02
2.274628e+03,5.629626e+02
2.275593e+03,5.592062e+02
2.276557e+03,5.572349e+02
2.277521e+03,5.588707e+02
2.278485e+03,5.609132e+02
2.279449e+03,5.616426e+02
2.280414e+03,5.634774e+02
2.281378e+03,5.663546e+02
2.282342e+03,5.669392e+02
2.283306e+03,5.598492e+02
2.284271e+03,5.584302e+02
2.285235e+03,5.619101e+02
2.286199e+03,5.614412e+02
2.287163e+03,5.524960e+02
2.288128e+03,5.515839e+02
2.289092e+03,5.575654e+02
2.290056e+03,5.629841e+02
2.291020e+03,5.662175e+02
2.291985e+03,5.652931e+02
2.292949e+03,5.611932e+02
2.293913e+03,5.565331e+02
2.294877e+03,5.522282e+02
2.295842e+03,5.545907e+02
2.296806e+03,5.618183e+02
2.297770e+03,5.595775e+02
2.298734e+03,5.509055e+02
2.299698e+03,5.527939e+02
2.300663e+03,5.634528e+02
2.301627e+03,5.633216e+02
2.302591e+03,5.552786e+02
2.303555e+03,5.460942e+02
2.304520e+03,5.379128e+02
2.305484e+03,5.401807e+02
2.306448e+03,5.471655e+02
2.307412e+03,5.485789e+02
2.308376e+03,5.461722e+02
2.309341e+03,5.450970e+02
2.310305e+03,5.445328e+02
2.311269e+03,5.436765e+02
2.312233e+03,5.431381e+02
2.313198e+03,5.441071e+02
2.314162e+03,5.444150e+02
2.315126e+03,5.402578e+02
2.316090e+03,5.366566e+02
2.317055e+03,5.417172e+02
2.318019e+03,5.475334e+02
2.318983e+03,5.464226e+02
2.319947e+03,5.424649e+02
2.320912e+03,5.371378e+02
2.321876e+03,5.331194e+02
2.322840e+03,5.321689e+02
2.323804e+03,5.337856e+02
2.324769e+03,5.395555e+02
2.325733e+03,5.437479e+02
2.326697e+03,5.404439e+02
2.327661e+03,5.370146e+02
2.328625e+03,5.344296e+02
2.329590e+03,5.354783e+02
2.330554e+03,5.473701e+02
2.331518e+03,5.505858e+02
2.332482e+03,5.417809e+02
2.333447e+03,5.326530e+02
2.334411e+03,5.276478e+02
2.335375e+03,5.270017e+02
2.336339e+03,5.304678e+02
2.337303e+03,5.329271e+02
2.338268e+03,5.320328e+02
2.339232e+03,5.291509e+02
2.340196e+03,5.250815e+02
2.341160e+03,5.242165e+02
2.342125e+03,5.279592e+02
2.343089e+03,5.310782e+02
2.344053e+03,5.333241e+02
2.345017e+03,5.379265e+02
2.345982e+03,5.442285e+02
2.346946e+03,5.411395e+02
2.347910e+03,5.327917e+02
2.348874e+03,5.280626e+02
2.349839e+03,5.268854e+02
2.350803e+03,5.291844e+02
2.351767e+03,5.327693e+02
2.352731e+03,5.316525e+02
2.353696e+03,5.295396e+02
2.354660e+03,5.334326e+02
2.355624e+03,5.380204e+02
2.356588e+03,5.334347e+02
2.357552e+03,5.279796e+02
2.358517e+03,5.302545e+02
2.359481e+03,5.338572e+02
2.360445e+03,5.303101e+02
2.361409e+03,5.252999e+02
2.362374e+03,5.211890e+02
2.363338e+03,5.183776e+02
2.364302e+03,5.188947e+02
2.365266e+03,5.204216e+02
2.366230e+03,5.220883e+02
2.367195e+03,5.234301e+02
2.368159e+03,5.241643e+02
2.369123e+03,5.231353e+02
2.370087e+03,5.205547e+02
2.371052e+03,5.192095e+02
2.372016e+03,5.212498e+02
2.372980e+03,5.219435e+02
2.373944e+03,5.210150e+02
2.374909e+03,5.210137e+02
2.375873e+03,5.239298e+02
2.376837e+03,5.207086e+02
2.377801e+03,5.132888e+02
2.378766e+03,5.104061e+02
2.379730e+03,5.129205e+02
2.380694e+03,5.148948e+02
2.381658e+03,5.159625e+02
2.382623e+03,5.119157e+02
2.383587e+03,5.058754e+02
2.384551e+03,5.105075e+02
2.385515e+03,5.185148e+02
2.386479e+03,5.176943e+02
2.387444e+03,5.124559e+02
2.388408e+03,5.060778e+02
2.389372e+03,5.029032e+02
2.390336e+03,5.099121e+02
2.391301e+03,5.169091e+02
2.392265e+03,5.121020e+02
2.393229e+03,5.060907e+02
2.394193e+03,5.055758e+02
2.395157e+03,5.056382e+02
2.396122e+03,5.031898e+02
2.397086e+03,5.010406e+02
2.398050e+03,4.997045e+02
2.399014e+03,5.024520e+02
2.399979e+03,5.122111e+02
2.400943e+03,5.175967e+02
2.401907e+03,5.168353e+02
2.402871e+03,5.129420e+02
2.403836e+03,5.066264e+02
2.404800e+03,5.053154e+02
2.405764e+03,5.086924e+02
2.406728e+03,5.061923e+02
2.407693e+03,4.982639e+02
2.408657e+03,4.972016e+02
2.409621e+03,5.016388e+02
2.410585e+03,5.009037e+02
2.411550e+03,4.977437e+02
2.412514e+03,5.003041e+02
2.413478e+03,5.056416e+02
2.414442e+03,5.067387e+02
2.415406e+03,5.047994e+02
2.416371e+03,5.002167e+02
2.417335e+03,4.961938e+02
2.418299e+03,4.986877e+02
2.419263e+03,5.018444e+02
2.420228e+03,5.025112e+02
2.421192e+03,5.020943e+02
2.422156e+03,5.023643e+02
2.423120e+03,5.009024e+02
2.424084e+03,4.963434e+02
2.425049e+03,4.929364e+02
2.426013e+03,4.949977e+02
2.426977e+03,4.941023e+02
2.427941e+03,4.899508e+02
2.428906e+03,4.856963e+02
2.429870e+03,4.815124e+02
2.430834e+03,4.802210e+02
2.431798e+03,4.816289e+02
2.432763e+03,4.841562e+02
2.433727e+03,4.871323e+02
2.434691e+03,4.886280e+02
2.435655e+03,4.893835e+02
2.436620e+03,4.916163e+02
2.437584e+03,4.939595e+02
2.438548e+03,4.916074e+02
2.439512e+03,4.886254e+02
2.440477e+03,4.894388e+02
2.441441e+03,4.902843e+02
2.442405e+03,4.833526e+02
2.443369e+03,4.810613e+02
2.444333e+03,4.902000e+02
2.445298e+03,4.985228e+02
2.446262e+03,4.941557e+02
2.447226e+03,4.872597e+02
2.448190e+03,4.798407e+02
2.449155e+03,4.764597e+02
2.450119e+03,4.842274e+02
2.451083e+03,4.865746e+02
2.452047e+03,4.839346e+02
2.453011e+03,4.834258e+02
2.453976e+03,4.870057e+02
2.454940e+03,4.918683e+02
2.455904e+03,4.965192e+02
2.456868e+03,4.931007e+02
2.457833e+03,4.844150e+02
2.458797e+03,4.795085e+02
2.459761e+03,4.784402e+02
2.460725e+03,4.821928e+02
2.461690e+03,4.866960e+02
2.462654e+03,4.870108e+02
2.463618e+03,4.839720e+02
2.464582e+03,4.776132e+02
2.465547e+03,4.735634e+02
2.466511e+03,4.792529e+02
2.467475e+03,4.825445e+02
2.468439e+03,4.806257e+02
2.469404e+03,4.776281e+02
2.470368e+03,4.763838e+02
2.471332e+03,4.741868e+02
2.472296e+03,4.708759e+02
2.473260e+03,4.689725e+02
2.474225e+03,4.693163e+02
2.475189e+03,4.695327e+02
2.476153e+03,4.696194e+02
2.477117e+03,4.671882e+02
2.478082e+03,4.638805e+02
2.479046e+03,4.672631e+02
2.480010e+03,4.719650e+02
2.480974e+03,4.698046e+02
2.481938e+03,4.666639e+02
2.482903e+03,4.713301e+02
2.483867e+03,4.771661e+02
2.484831e+03,4.808419e+02
2.485795e+03,4.818183e+02
2.486760e+03,4.785488e+02
2.487724e+03,4.744638e+02
2.488688e+03,4.703095e+02
2.489652e+03,4.691169e+02
2.490617e+03,4.744720e+02
2.491581e+03,4.758609e+02
2.492545e+03,4.740421e+02
2.493509e+03,4.721268e+02
2.494474e+03,4.704370e+02
2.495438e+03,4.697946e+02
2.496402e+03,4.699258e+02
2.497366e+03,4.705444e+02
2.498331e+03,4.713428e+02
2.499295e+03,4.727445e+02
2.500259e+03,4.726343e+02
2.501223e+03,4.695978e+02
2.502188e+03,4.659789e+02
2.503152e+03,4.621239e+02
2.504116e+03,4.629436e+02
2.505080e+03,4.702160e+02
2.506044e+03,4.743795e+02
2.507009e+03,4.648174e+02
2.507973e+03,4.604889e+02
2.508937e+03,4.619104e+02
2.509901e+03,4.624472e+02
2.510865e+03,4.601942e+02
2.511830e+03,4.602745e+02
2.512794e+03,4.617874e+02
2.513758e+03,4.636624e+02
2.514722e+03,4.656622e+02
2.515687e+03,4.669356e+02
2.516651e+03,4.668315e+02
2.517615e+03,4.645584e+02
2.518579e+03,4.617015e+02
2.519544e+03,4.594367e+02
2.520508e+03,4.591174e+02
2.521472e+03,4.616139e+02
2.522436e+03,4.627670e+02
2.523401e+03,4.573434e+02
2.524365e+03,4.557378e+02
2.525329e+03,4.580104e+02
2.526293e+03,4.596284e+02
2.527258e+03,4.600326e+02
2.528222e+03,4.573231e+02
2.529186e+03,4.529458e+02
2.530150e+03,4.515678e+02
2.531115e+03,4.525240e+02
2.532079e+03,4.527394e+02
2.533043e+03,4.524232e+02
2.534007e+03,4.512838e+02
2.534971e+03,4.505061e+02
2.535936e+03,4.552781e+02
2.536900e+03,4.551359e+02
2.537864e+03,4.451854e+02
2.538828e+03,4.388242e+02
2.539792e+03,4.432416e+02
2.540757e+03,4.469839e+02
2.541721e+03,4.487822e+02
2.542685e+03,4.521348e+02
2.543649e+03,4.574041e+02
2.544614e+03,4.643351e+02
2.545578e+03,4.685956e+02
2.546542e+03,4.583825e+02
2.547506e+03,4.418669e+02
2.548471e+03,4.372785e+02
2.549435e+03,4.400979e+02
2.550399e+03,4.493345e+02
2.551363e+03,4.558658e+02
2.552328e+03,4.496076e+02
2.553292e+03,4.462126e+02
2.554256e+03,4.517469e+02
2.555220e+03,4.568060e+02
2.556185e+03,4.593610e+02
2.557149e+03,4.600532e+02
2.558113e+03,4.588994e+02
2.559077e+03,4.577858e+02
2.560042e+03,4.565438e+02
2.561006e+03,4.562567e+02
2.561970e+03,4.556965e+02
2.562934e+03,4.484771e+02
2.563898e+03,4.415764e+02
2.564863e+03,4.440630e+02
2.565827e+03,4.482890e+02
2.566791e+03,4.502588e+02
2.567755e+03,4.520536e+02
2.568719e+03,4.540143e+02
2.569684e+03,4.521330e+02
2.570648e+03,4.422294e+02
2.571612e+03,4.418843e+02
2.572576e+03,4.493646e+02
2.573541e+03,4.486242e+02
2.574505e+03,4.401966e+02
2.575469e+03,4.401364e+02
2.576433e+03,4.450405e+02
2.577398e+03,4.518300e+02
2.578362e+03,4.569317e+02
2.579326e+03,4.551582e+02
2.580290e+03,4.499997e+02
2.581255e+03,4.425587e+02
2.582219e+03,4.374272e+02
2.583183e+03,4.410356e+02
2.584147e+03,4.412562e+02
2.585112e+03,4.383372e+02
2.586076e+03,4.353277e+02
2.587040e+03,4.327156e+02
2.588004e+03,4.390630e+02
2.588969e+03,4.477988e+02
2.589933e+03,4.458185e+02
2.590897e+03,4.372270e+02
2.591861e+03,4.247377e+02
2.592825e+03,4.194458e+02
2.593790e+03,4.304725e+02
2.594754e+03,4.392488e+02
2.595718e+03,4.305233e+02
2.596682e+03,4.267049e+02
2.597646e+03,4.322257e+02
2.598611e+03,4.349809e+02
2.599575e+03,4.340848e+02
2.600539e+03,4.328781e+02
2.601503e+03,4.313796e+02
2.602468e+03,4.283771e+02
2.603432e+03,4.255482e+02
2.604396e+03,4.275402e+02
2.605360e+03,4.316269e+02
2.606325e+03,4.366063e+02
2.607289e+03,4.399185e+02
2.608253e+03,4.409129e+02
2.609217e+03,4.392079e+02
2.610182e+03,4.325618e+02
2.611146e+03,4.271998e+02
2.612110e+03,4.238653e+02
2.613074e+03,4.246508e+02
2.614039e+03,4.288810e+02
2.615003e+03,4.311039e+02
2.615967e+03,4.302618e+02
2.616931e+03,4.248547e+02
2.617896e+03,4.189702e+02
2.618860e+03,4.163545e+02
2.619824e+03,4.179500e+02
2.620788e+03,4.240478e+02
2.621752e+03,4.278050e+02
2.622717e+03,4.243304e+02
2.623681e+03,4.219727e+02
2.624645e+03,4.214176e+02
2.625609e+03,4.271648e+02
2.626573e+03,4.368929e+02
2.627538e+03,4.329470e+02
2.628502e+03,4.231517e+02
2.629466e+03,4.185786e+02
2.630430e+03,4.177854e+02
2.631395e+03,4.211769e+02
2.632359e+03,4.241406e+02
2.633323e+03,4.247784e+02
2.634287e+03,4.274877e+02
2.635252e+03,4.334572e+02
2.636216e+03,4.311641e+02
2.637180e+03,4.192596e+02
2.638144e+03,4.190955e+02
2.639109e+03,4.262233e+02
2.640073e+03,4.297687e+02
2.641037e+03,4.308955e+02
2.642001e+03,4.315599e+02
2.642966e+03,4.277917e+02
2.643930e+03,4.164980e+02
2.644894e+03,4.085338e+02
2.645858e+03,4.149628e+02
2.646823e+03,4.179336e+02
2.647787e+03,4.165025e+02
2.648751e+03,4.151965e+02
2.649715e+03,4.147184e+02
2.650679e+03,4.167651e+02
2.651644e+03,4.179914e+02
2.652608e+03,4.119373e+02
2.653572e+03,4.057050e+02
2.654536e+03,4.126796e+02
2.655500e+03,4.187762e+02
2.656465e+03,4.183096e+02
2.657429e+03,4.204431e+02
2.658393e+03,4.284026e+02
2.659357e+03,4.278711e+02
2.660322e+03,4.193135e+02
2.661286e+03,4.182055e+02
2.662250e+03,4.216986e+02
2.663214e+03,4.208976e+02
2.664179e+03,4.175372e+02
2.665143e+03,4.130566e+02
2.666107e+03,4.090379e+02
2.667071e+03,4.059803e+02
2.668036e+03,4.054291e+02
2.669000e+03,4.094015e+02
2.669964e+03,4.114521e+02
2.670928e+03,4.113571e+02
2.671893e+03,4.091383e+02
2.672857e+03,4.062554e+02
2.673821e+03,4.088399e+02
2.674785e+03,4.113183e+02
2.675750e+03,4.070912e+02
2.676714e+03,4.032634e+02
2.677678e+03,4.098732e+02
2.678642e+03,4.145832e+02
2.679606e+03,4.148542e+02
2.680571e+03,4.142181e+02
2.681535e+03,4.134556e+02
2.682499e+03,4.111510e+02
2.683463e+03,4.078482e+02
2.684427e+03,4.066930e+02
2.685392e+03,4.069539e+02
2.686356e+03,4.072387e+02
2.687320e+03,4.076382e+02
2.688284e+03,4.094418e+02
2.689249e+03,4.088346e+02
2.690213e+03,4.050470e+02
2.691177e+03,4.035102e+02
2.692141e+03,4.069077e+02
2.693106e+03,3.997523e+02
2.694070e+03,3.886439e+02
2.695034e+03,3.904482e+02
2.695998e+03,3.985794e+02
2.696963e+03,4.047732e+02
2.697927e+03,4.067285e+02
2.698891e+03,4.027633e+02
2.699855e+03,3.990779e+02
2.700820e+03,3.985257e+02
2.701784e+03,4.043429e+02
2.702748e+03,4.141261e+02
2.703712e+03,4.093912e+02
2.704677e+03,3.959804e+02
2.705641e+03,3.934244e+02
2.706605e+03,3.979968e+02
2.707569e+03,4.087787e+02
2.708533e+03,4.155367e+02
2.709498e+03,4.137252e+02
2.710462e+03,4.078549e+02
2.711426e+03,3.976703e+02
2.712390e+03,3.958872e+02
2.713354e+03,3.998283e+02
2.714319e+03,3.955452e+02
2.715283e+03,3.883584e+02
2.716247e+03,3.955937e+02
2.717211e+03,4.047467e+02
2.718176e+03,4.077152e+02
2.719140e+03,4.044303e+02
2.720104e+03,3.907028e+02
2.721068e+03,3.863387e+02
2.722033e+03,3.931889e+02
2.722997e+03,3.965539e+02
2.723961e+03,3.962821e+02
2.724925e+03,3.988034e+02
2.725890e+03,4.004146e+02
2.726854e+03,3.919208e+02
2.727818e+03,3.866136e+02
2.728782e+03,3.917695e+02
2.729747e+03,3.960605e+02
2.730711e+03,3.934315e+02
2.731675e+03,3.889513e+02
2.732639e+03,3.844871e+02
2.733604e+03,3.898454e+02
2.734568e+03,3.995992e+02
2.735532e+03,3.988179e+02
2.736496e+03,3.947713e+02
2.737460e+03,3.927638e+02
2.738425e+03,3.946083e+02
2.739389e+03,4.035843e+02
2.740353e+03,4.022877e+02
2.741317e+03,3.891933e+02
2.742281e+03,3.853060e+02
2.743246e+03,3.887096e+02
2.744210e+03,3.901924e+02
2.745174e+03,3.896648e+02
2.746138e+03,3.864434e+02
2.747103e+03,3.863286e+02
2.748067e+03,3.918193e+02
2.749031e+03,3.949508e+02
2.749995e+03,3.894827e+02
2.750960e+03,3.904218e+02
2.751924e+03,3.946339e+02
2.752888e+03,3.904375e+02
2.753852e+03,3.830819e+02
2.754817e+03,3.880477e+02
2.755781e+03,3.908501e+02
2.756745e+03,3.810321e+02
2.757709e+03,3.789711e+02
2.758674e+03,3.904653e+02
2.759638e+03,3.936994e+02
2.760602e+03,3.857814e+02
2.761566e+03,3.843322e+02
2.762531e+03,3.859404e+02
2.763495e+03,3.831902e+02
2.764459e+03,3.805917e+02
2.765423e+03,3.867667e+02
2.766387e+03,3.858952e+02
2.767352e+03,3.753665e+02
2.768316e+03,3.692656e+02
2.769280e+03,3.703745e+02
2.770244e+03,3.806245e+02
2.771208e+03,3.923983e+02
2.772173e+03,3.899931e+02
2.773137e+03,3.826399e+02
2.774101e+03,3.805387e+02
2.775065e+03,3.798252e+02
2.776030e+03,3.789259e+02
2.776994e+03,3.805780e+02
2.777958e+03,3.839297e+02
2.778922e+03,3.852340e+02
2.779887e+03,3.854624e+02
2.780851e+03,3.914997e+02
2.781815e+03,3.902324e+02
2.782779e+03,3.725238e+02
2.783744e+03,3.604336e+02
2.784708e+03,3.705391e+02
2.785672e+03,3.724679e+02
2.786636e+03,3.651591e+02
2.787601e+03,3.628069e+02
2.788565e+03,3.652393e+02
2.789529e+03,3.718056e+02
2.790493e+03,3.783333e+02
2.791458e+03,3.819786e+02
2.792422e+03,3.814089e+02
2.793386e+03,3.774304e+02
2.794350e+03,3.722927e+02
2.795314e+03,3.665264e+02
2.796279e+03,3.744389e+02
2.797243e+03,3.856668e+02
2.798207e+03,3.840020e+02
2.799171e+03,3.786510e+02
2.800135e+03,3.800155e+02
2.801100e+03,3.815519e+02
2.802064e+03,3.822404e+02
2.803028e+03,3.795934e+02
2.803992e+03,3.745449e+02
2.804957e+03,3.723900e+02
2.805921e+03,3.722273e+02
2.806885e+03,3.720703e+02
2.807849e+03,3.707572e+02
2.808814e+03,3.673069e+02
2.809778e+03,3.690532e+02
2.810742e+03,3.825508e+02
2.811706e+03,3.859071e+02
2.812671e+03,3.794554e+02
2.813635e+03,3.665085e+02
2.814599e+03,3.549164e+02
2.815563e+03,3.652415e+02
2.816528e+03,3.734138e+02
2.817492e+03,3.663518e+02
2.818456e+03,3.623329e+02
2.819420e+03,3.635163e+02
2.820385e+03,3.713954e+02
2.821349e+03,3.815360e+02
2.822313e+03,3.751176e+02
2.823277e+03,3.642704e+02
2.824241e+03,3.575131e+02
2.825206e+03,3.603005e+02
2.826170e+03,3.798191e+02
2.827134e+03,3.894745e+02
2.828098e+03,3.861473e+02
2.829063e+03,3.786844e+02
2.830027e+03,3.698878e+02
2.830991e+03,3.634279e+02
2.831955e+03,3.612514e+02
2.832919e+03,3.675930e+02
2.833884e+03,3.728881e+02
2.834848e+03,3.753232e+02
2.835812e+03,3.722346e+02
2.836776e+03,3.653272e+02
2.837741e+03,3.668643e+02
2.838705e+03,3.696515e+02
2.839669e+03,3.636714e+02
2.840633e+03,3.631488e+02
2.841598e+03,3.766283e+02
2.842562e+03,3.837620e+02
2.843526e+03,3.795932e+02
2.844490e+03,3.797122e+02
2.845455e+03,3.814691e+02
2.846419e+03,3.802003e+02
2.847383e+03,3.789695e+02
2.848347e+03,3.812209e+02
2.849312e+03,3.853864e+02
2.850276e+03,3.908776e+02
2.851240e+03,3.916663e+02
2.852204e+03,3.878517e+02
2.853168e+03,3.792601e+02
2.854133e+03,3.726646e+02
2.855097e+03,3.818696e+02
2.856061e+03,3.846641e+02
2.857025e+03,3.740664e+02
2.857990e+03,3.692191e+02
2.858954e+03,3.761504e+02
2.859918e+03,3.742735e+02
2.860882e+03,3.710035e+02
2.861846e+03,3.795808e+02
2.862811e+03,3.873416e+02
2.863775e+03,3.801324e+02
2.864739e+03,3.775997e+02
2.865703e+03,3.849855e+02
2.866668e+03,3.868295e+02
2.867632e+03,3.849010e+02
2.868596e+03,3.859524e+02
2.869560e+03,3.885015e+02
2.870525e+03,3.928549e+02
2.871489e+03,3.953575e+02
2.872453e+03,3.950345e+02
2.873417e+03,3.890322e+02
2.874382e+03,3.793663e+02
2.875346e+03,3.823239e+02
2.876310e+03,3.882297e+02
2.877274e+03,3.774884e+02
2.878239e+03,3.722952e+02
2.879203e+03,3.802548e+02
2.880167e+03,3.866801e+02
2.881131e+03,3.875726e+02
2.882095e+03,3.940800e+02
2.883060e+03,3.999474e+02
2.884024e+03,3.939521e+02
2.884988e+03,3.882992e+02
2.885952e+03,3.961365e+02
2.886917e+03,3.952547e+02
2.887881e+03,3.804989e+02
2.888845e+03,3.864975e+02
2.889809e+03,4.025961e+02
2.890773e+03,4.014342e+02
2.891738e+03,3.946568e+02
2.892702e+03,3.959964e+02
2.893666e+03,3.953715e+02
2.894630e+03,3.910098e+02
2.895595e+03,3.849218e+02
2.896559e+03,3.796789e+02
2.897523e+03,3.879090e+02
2.898487e+03,4.001609e+02
2.899452e+03,4.088829e+02
2.900416e+03,4.118671e+02
2.901380e+03,4.094879e+02
2.902344e+03,4.071554e+02
2.903309e+03,4.053659e+02
2.904273e+03,3.966744e+02
2.905237e+03,3.868458e+02
2.906201e+03,3.799366e+02
2.907166e+03,3.831898e+02
2.908130e+03,3.994392e+02
2.909094e+03,4.064337e+02
2.910058e+03,4.003692e+02
2.911022e+03,3.943596e+02
2.911987e+03,3.866788e+02
2.912951e+03,3.738010e+02
2.913915e+03,3.662914e+02
2.914879e+03,3.750835e+02
2.915844e+03,3.739782e+02
2.916808e+03,3.641043e+02
2.917772e+03,3.694081e+02
2.918736e+03,3.809123e+02
2.919700e+03,3.858164e+02
2.920665e+03,3.831985e+02
2.921629e+03,3.646489e+02
2.922593e+03,3.543810e+02
2.923557e+03,3.539606e+02
2.924522e+03,3.652345e+02
2.925486e+03,3.788086e+02
2.926450e+03,3.712534e+02
2.927414e+03,3.654000e+02
2.928379e+03,3.736765e+02
2.929343e+03,3.703922e+02
2.930307e+03,3.575350e+02
2.931271e+03,3.632869e+02
2.932236e+03,3.759727e+02
2.933200e+03,3.724595e+02
2.934164e+03,3.641651e+02
2.935128e+03,3.548374e+02
2.936093e+03,3.543458e+02
2.937057e+03,3.619188e+02
2.938021e+03,3.703828e+02
2.938985e+03,3.780763e+02
2.939949e+03,3.848753e+02
2.940914e+03,3.843635e+02
2.941878e+03,3.756598e+02
2.942842e+03,3.630450e+02
2.943806e+03,3.487988e+02
2.944771e+03,3.610576e+02
2.945735e+03,3.778600e+02
2.946699e+03,3.636046e+02
2.947663e+03,3.576884e+02
2.948627e+03,3.720207e+02
2.949592e+03,3.672064e+02
2.950556e+03,3.411041e+02
2.951520e+03,3.578312e+02
2.952484e+03,3.772010e+02
2.953449e+03,3.540241e+02
2.954413e+03,3.447676e+02
2.955377e+03,3.737206e+02
2.956341e+03,3.950665e+02
2.957306e+03,4.020867e+02
2.958270e+03,4.010987e+02
2.959234e+03,3.935433e+02
2.960198e+03,3.822261e+02
2.961163e+03,3.719111e+02
2.962127e+03,3.638183e+02
2.963091e+03,3.538138e+02
2.964055e+03,3.459857e+02
2.965020e+03,3.574370e+02
2.965984e+03,3.664520e+02
2.966948e+03,3.553678e+02
2.967912e+03,3.506596e+02
2.968876e+03,3.667386e+02
2.969841e+03,3.693554e+02
2.970805e+03,3.623925e+02
2.971769e+03,3.545156e+02
2.972733e+03,3.502000e+02
2.973698e+03,3.536119e+02
2.974662e+03,3.497335e+02
2.975626e+03,3.343941e+02
2.976590e+03,3.308506e+02
2.977554e+03,3.354969e+02
2.978519e+03,3.433780e+02
2.979483e+03,3.464573e+02
2.980447e+03,3.379325e+02
2.981411e+03,3.376795e+02
2.982376e+03,3.471051e+02
2.983340e+03,3.503134e+02
2.984304e+03,3.503842e+02
2.985268e+03,3.508999e+02
2.986233e+03,3.506818e+02
2.987197e+03,3.493949e+02
2.988161e+03,3.447479e+02
2.989125e+03,3.389190e+02
2.990090e+03,3.394239e+02
2.991054e+03,3.391776e+02
2.992018e+03,3.322155e+02
2.992982e+03,3.252598e+02
2.993947e+03,3.206564e+02
2.994911e+03,3.268378e+02
2.995875e+03,3.360880e+02
2.996839e+03,3.320522e+02
2.997803e+03,3.352066e+02
2.998768e+03,3.611168e+02
2.999732e+03,3.645894e+02
3.000696e+03,3.398200e+02
3.001660e+03,3.384524e+02
3.002625e+03,3.414296e+02
3.003589e+03,3.274270e+02
3.004553e+03,3.257154e+02
3.005517e+03,3.519911e+02
3.006481e+03,3.505472e+02
3.007446e+03,3.270225e+02
3.008410e+03,3.238904e+02
3.009374e+03,3.298165e+02
3.010338e+03,3.372354e+02
3.011303e+03,3.385759e+02
3.012267e+03,3.307972e+02
3.013231e+03,3.410061e+02
3.014195e+03,3.544300e+02
3.015160e+03,3.423282e+02
3.016124e+03,3.312242e+02
3.017088e+03,3.305041e+02
3.018052e+03,3.244801e+02
3.019017e+03,3.125297e+02
3.019981e+03,3.172018e+02
3.020945e+03,3.262225e+02
3.021909e+03,3.289470e+02
3.022874e+03,3.300367e+02
3.023838e+03,3.308986e+02
3.024802e+03,3.322278e+02
3.025766e+03,3.311666e+02
3.026730e+03,3.131524e+02
3.027695e+03,3.053210e+02
3.028659e+03,3.195185e+02
3.029623e+03,3.232849e+02
3.030587e+03,3.159873e+02
3.031552e+03,3.164686e+02
3.032516e+03,3.207244e+02
3.033480e+03,3.290590e+02
3.034444e+03,3.256400e+02
3.035408e+03,3.106141e+02
3.036373e+03,3.104720e+02
3.037337e+03,3.196324e+02
3.038301e+03,3.188535e+02
3.039265e+03,3.162709e+02
3.040230e+03,3.131469e+02
3.041194e+03,3.226554e+02
3.042158e+03,3.374254e+02
3.043122e+03,3.303907e+02
3.044087e+03,3.155669e+02
3.045051e+03,3.098068e+02
3.046015e+03,3.087077e+02
3.046979e+03,3.125952e+02
3.047944e+03,3.243588e+02
3.048908e+03,3.316430e+02
3.049872e+03,3.138208e+02
3.050836e+03,2.989392e+02
3.051801e+03,3.062183e+02
3.052765e+03,3.155775e+02
3.053729e+03,3.243524e+02
3.054693e+03,3.354256e+02
3.055657e+03,3.422697e+02
3.056622e+03,3.411244e+02
3.057586e+03,3.334441e+02
3.058550e+03,3.204897e+02
3.059514e+03,3.008828e+02
3.060479e+03,2.885774e+02
3.061443e+03,3.141497e+02
3.062407e+03,3.277910e+02
3.063371e+03,3.177669e+02
3.064335e+03,3.119387e+02
3.065300e+03,3.134878e+02
3.066264e+03,3.207485e+02
3.067228e+03,3.262455e+02
3.068192e+03,3.242627e+02
3.069157e+03,3.216387e+02
3.070121e+03,3.207396e+02
3.071085e+03,3.298955e+02
3.072049e+03,3.380239e+02
3.073014e+03,3.209560e+02
3.073978e+03,3.179356e+02
3.074942e+03,3.360951e+02
3.075906e+03,3.301673e+02
3.076871e+03,3.163722e+02
3.077835e+03,3.227555e+02
3.078799e+03,3.309678e+02
3.079763e+03,3.291511e+02
3.080728e+03,3.290152e+02
3.081692e+03,3.306540e+02
3.082656e+03,3.320134e+02
3.083620e+03,3.284883e+02
3.084584e+03,3.181434e+02
3.085549e+03,3.157393e+02
3.086513e+03,3.238221e+02
3.087477e+03,3.226627e+02
3.088441e+03,3.184366e+02
3.089406e+03,3.180852e+02
3.090370e+03,3.201945e+02
3.091334e+03,3.232314e+02
3.092298e+03,3.152617e+02
3.093262e+03,3.059387e+02
3.094227e+03,3.218912e+02
3.095191e+03,3.326483e+02
3.096155e+03,3.271499e+02
3.097119e+03,3.239767e+02
3.098084e+03,3.216355e+02
3.099048e+03,3.111561e+02
3.100012e+03,3.090213e+02
3.100976e+03,3.339406e+02
3.101941e+03,3.365282e+02
3.102905e+03,3.166173e+02
3.103869e+03,3.074529e+02
3.104833e+03,3.023911e+02
3.105798e+03,2.963808e+02
3.106762e+03,2.945889e+02
3.107726e+03,2.980260e+02
3.108690e+03,3.038728e+02
3.109655e+03,3.129813e+02
3.110619e+03,3.347896e+02
3.111583e+03,3.347107e+02
3.112547e+03,3.139563e+02
3.113511e+03,3.109549e+02
3.114476e+03,3.191304e+02
3.115440e+03,3.255010e+02
3.116404e+03,3.221022e+02
3.117368e+03,3.023010e+02
3.118333e+03,3.029358e+02
3.119297e+03,3.164357e+02
3.120261e+03,3.283450e+02
3.121225e+03,3.366512e+02
3.122189e+03,3.403903e+02
3.123154e+03,3.489121e+02
3.124118e+03,3.576658e+02
3.125082e+03,3.454568e+02
3.126046e+03,3.344847e+02
3.127011e+03,3.353097e+02
3.127975e+03,3.365453e+02
3.128939e+03,3.355488e+02
3.129903e+03,3.289646e+02
3.130868e+03,3.219667e+02
3.131832e+03,3.169950e+02
3.132796e+03,3.218332e+02
3.133760e+03,3.302813e+02
3.134725e+03,3.118733e+02
3.135689e+03,2.892053e+02
3.136653e+03,2.830645e+02
3.137617e+03,2.908533e+02
3.138582e+03,3.122419e+02
3.139546e+03,3.053801e+02
3.140510e+03,2.978471e+02
3.141474e+03,3.239449e+02
3.142438e+03,3.378448e+02
3.143403e+03,3.326064e+02
3.144367e+03,3.159074e+02
3.145331e+03,2.983210e+02
3.146295e+03,2.911248e+02
3.147260e+03,2.999512e+02
3.148224e+03,3.257847e+02
3.149188e+03,3.299072e+02
3.150152e+03,3.206147e+02
3.151116e+03,3.096872e+02
3.152081e+03,3.080250e+02
3.153045e+03,3.194166e+02
3.154009e+03,3.288780e+02
3.154973e+03,3.326047e+02
3.155938e+03,3.194878e+02
3.156902e+03,3.154808e+02
3.157866e+03,3.247935e+02
3.158830e+03,3.099609e+02
3.159795e+03,2.868127e+02
3.160759e+03,3.020820e+02
3.161723e+03,3.248661e+02
3.162687e+03,3.501997e+02
3.163652e+03,3.314377e+02
3.164616e+03,3.037791e+02
3.165580e+03,3.400953e+02
3.166544e+03,3.652027e+02
3.167509e+03,3.494121e+02
3.168473e+03,3.296622e+02
3.169437e+03,3.142278e+02
3.170401e+03,3.117008e+02
3.171365e+03,3.117306e+02
3.172330e+03,3.101738e+02
3.173294e+03,3.263979e+02
3.174258e+03,3.434467e+02
3.175222e+03,3.243259e+02
3.176187e+03,3.030927e+02
3.177151e+03,3.015042e+02
3.178115e+03,3.040648e+02
3.179079e+03,3.080302e+02
3.180043e+03,3.067492e+02
3.181008e+03,3.111592e+02
3.181972e+03,3.246991e+02
3.182936e+03,3.364227e+02
3.183900e+03,3.421046e+02
3.184865e+03,3.275381e+02
3.185829e+03,3.140165e+02
3.186793e+03,3.147962e+02
3.187757e+03,3.264791e+02
3.188722e+03,3.394570e+02
3.189686e+03,3.333963e+02
3.190650e+03,3.254091e+02
3.191614e+03,3.226283e+02
3.192579e+03,3.166365e+02
3.193543e+03,3.100519e+02
3.194507e+03,3.184824e+02
3.195471e+03,3.221471e+02
3.196436e+03,3.117178e+02
3.197400e+03,2.990811e+02
3.198364e+03,2.973720e+02
3.199328e+03,3.267536e+02
3.200292e+03,3.520628e+02
3.201257e+03,0.000000e+00
3.202221e+03,0.000000e+00
3.203185e+03,0.000000e+00
3.204149e+03,0.000000e+00
3.205114e+03,0.000000e+00
3.206078e+03,0.000000e+00
3.207042e+03,0.000000e+00
3.208006e+03,0.000000e+00
3.208970e+03,0.000000e+00
3.209935e+03,0.000000e+00
3.210899e+03,0.000000e+00
3.211863e+03,0.000000e+00
3.212827e+03,0.000000e+00
3.213792e+03,0.000000e+00
3.214756e+03,0.000000e+00
3.215720e+03,0.000000e+00
3.216684e+03,0.000000e+00
3.217649e+03,0.000000e+00
3.218613e+03,0.000000e+00
3.219577e+03,0.000000e+00
3.220541e+03,0.000000e+00
3.221506e+03,0.000000e+00
3.222470e+03,0.000000e+00
3.223434e+03,0.000000e+00
3.224398e+03,0.000000e+00
3.225363e+03,0.000000e+00
3.226327e+03,0.000000e+00
3.227291e+03,0.000000e+00
3.228255e+03,0.000000e+00
3.229219e+03,0.000000e+00
3.230184e+03,0.000000e+00
3.231148e+03,0.000000e+00
3.232112e+03,0.000000e+00
3.233076e+03,0.000000e+00
3.234041e+03,0.000000e+00
3.235005e+03,0.000000e+00
3.235969e+03,0.000000e+00
3.236933e+03,0.000000e+00
3.237897e+03,0.000000e+00
3.238862e+03,0.000000e+00
3.239826e+03,0.000000e+00
3.240790e+03,0.000000e+00
3.241754e+03,0.000000e+00
3.242719e+03,0.000000e+00
3.243683e+03,0.000000e+00
3.244647e+03,0.000000e+00
3.245611e+03,0.000000e+00
3.246576e+03,0.000000e+00
3.247540e+03,0.000000e+00
3.248504e+03,0.000000e+00
3.249468e+03,0.000000e+00
3.250433e+03,0.000000e+00
3.251397e+03,0.000000e+00
3.252361e+03,0.000000e+00
3.253325e+03,0.000000e+00
3.254290e+03,0.000000e+00
3.255254e+03,0.000000e+00
3.256218e+03,0.000000e+00
3.257182e+03,0.000000e+00
3.258146e+03,0.000000e+00
3.259111e+03,0.000000e+00
3.260075e+03,0.000000e+00
3.261039e+03,0.000000e+00
3.262003e+03,0.000000e+00
3.262968e+03,0.000000e+00
3.263932e+03,0.000000e+00
3.264896e+03,0.000000e+00
3.265860e+03,0.000000e+00
3.266824e+03,0.000000e+00
3.267789e+03,0.000000e+00
3.268753e+03,0.000000e+00
3.269717e+03,0.000000e+00
3.270681e+03,0.000000e+00
3.271646e+03,0.000000e+00
3.272610e+03,0.000000e+00
3.273574e+03,0.000000e+00
3.274538e+03,0.000000e+00
3.275503e+03,0.000000e+00
3.276467e+03,0.000000e+00
3.277431e+03,0.000000e+00
3.278395e+03,0.000000e+00
3.279360e+03,0.000000e+00
3.280324e+03,0.000000e+00
3.281288e+03,0.000000e+00
3.282252e+03,0.000000e+00
3.283217e+03,0.000000e+00
3.284181e+03,0.000000e+00
3.285145e+03,0.000000e+00
3.286109e+03,0.000000e+00
3.287073e+03,0.000000e+00
3.288038e+03,0.000000e+00
3.289002e+03,0.000000e+00
3.289966e+03,0.000000e+00
3.290930e+03,0.000000e+00
3.291895e+03,0.000000e+00
3.292859e+03,0.000000e+00
3.293823e+03,0.000000e+00
3.294787e+03,0.000000e+00
3.295751e+03,0.000000e+00
3.296716e+03,0.000000e+00
3.297680e+03,0.000000e+00
3.298644e+03,0.000000e+00
3.299608e+03,0.000000e+00
3.300573e+03,0.000000e+00
3.301537e+03,0.000000e+00
3.302501e+03,0.000000e+00
3.303465e+03,0.000000e+00
3.304430e+03,0.000000e+00
3.305394e+03,0.000000e+00
3.306358e+03,0.000000e+00
3.307322e+03,0.000000e+00
3.308287e+03,0.000000e+00
3.309251e+03,0.000000e+00
3.310215e+03,0.000000e+00
3.311179e+03,0.000000e+00
3.312144e+03,0.000000e+00
3.313108e+03,0.000000e+00
3.314072e+03,0.000000e+00
3.315036e+03,0.000000e+00
3.316000e+03,0.000000e+00
3.316965e+03,0.000000e+00
3.317929e+03,0.000000e+00
3.318893e+03,0.000000e+00
3.319857e+03,0.000000e+00
3.320822e+03,0.000000e+00
3.321786e+03,0.000000e+00
3.322750e+03,0.000000e+00
3.323714e+03,0.000000e+00
3.324678e+03,0.000000e+00
3.325643e+03,0.000000e+00
3.326607e+03,0.000000e+00
3.327571e+03,0.000000e+00
3.328535e+03,0.000000e+00
3.329500e+03,0.000000e+00
3.330464e+03,0.000000e+00
3.331428e+03,0.000000e+00
3.332392e+03,0.000000e+00
3.333357e+03,0.000000e+00
3.334321e+03,0.000000e+00
3.335285e+03,0.000000e+00
3.336249e+03,0.000000e+00
3.337214e+03,0.000000e+00
3.338178e+03,0.000000e+00
3.339142e+03,0.000000e+00
3.340106e+03,0.000000e+00
3.341071e+03,0.000000e+00
3.342035e+03,0.000000e+00
3.342999e+03,0.000000e+00
3.343963e+03,0.000000e+00
3.344927e+03,0.000000e+00
3.345892e+03,0.000000e+00
3.346856e+03,0.000000e+00
3.347820e+03,0.000000e+00
3.348784e+03,0.000000e+00
3.349749e+03,0.000000e+00
3.350713e+03,0.000000e+00
3.351677e+03,0.000000e+00
3.352641e+03,0.000000e+00
3.353605e+03,0.000000e+00
3.354570e+03,0.000000e+00
3.355534e+03,0.000000e+00
3.356498e+03,0.000000e+00
3.357462e+03,0.000000e+00
3.358427e+03,0.000000e+00
3.359391e+03,0.000000e+00
3.360355e+03,0.000000e+00
3.361319e+03,0.000000e+00
3.362284e+03,0.000000e+00
3.363248e+03,0.000000e+00
3.364212e+03,0.000000e+00
3.365176e+03,0.000000e+00
3.366141e+03,0.000000e+00
3.367105e+03,0.000000e+00
3.368069e+03,0.000000e+00
3.369033e+03,0.000000e+00
3.369998e+03,0.000000e+00
3.370962e+03,0.000000e+00
3.371926e+03,0.000000e+00
3.372890e+03,0.000000e+00
3.373854e+03,0.000000e+00
3.374819e+03,0.000000e+00
3.375783e+03,0.000000e+00
3.376747e+03,0.000000e+00
3.377711e+03,0.000000e+00
3.378676e+03,0.000000e+00
3.379640e+03,0.000000e+00
3.380604e+03,0.000000e+00
3.381568e+03,0.000000e+00
3.382532e+03,0.000000e+00
3.383497e+03,0.000000e+00
3.384461e+03,0.000000e+00
3.385425e+03,0.000000e+00
3.386389e+03,0.000000e+00
3.387354e+03,0.000000e+00
3.388318e+03,0.000000e+00
3.389282e+03,0.000000e+00
3.390246e+03,0.000000e+00
3.391211e+03,0.000000e+00
3.392175e+03,0.000000e+00
3.393139e+03,0.000000e+00
3.394103e+03,0.000000e+00
3.395068e+03,0.000000e+00
3.396032e+03,0.000000e+00
3.396996e+03,0.000000e+00
3.397960e+03,0.000000e+00
3.398925e+03,0.000000e+00
3.399889e+03,0.000000e+00
3.400853e+03,0.000000e+00
3.401817e+03,0.000000e+00
3.402781e+03,0.000000e+00
3.403746e+03,0.000000e+00
3.404710e+03,0.000000e+00
3.405674e+03,0.000000e+00
3.406638e+03,0.000000e+00
3.407603e+03,0.000000e+00
3.408567e+03,0.000000e+00
3.409531e+03,0.000000e+00
3.410495e+03,0.000000e+00
3.411459e+03,0.000000e+00
3.412424e+03,0.000000e+00
3.413388e+03,0.000000e+00
3.414352e+03,0.000000e+00
3.415316e+03,0.000000e+00
3.416281e+03,0.000000e+00
3.417245e+03,0.000000e+00
3.418209e+03,0.000000e+00
3.419173e+03,0.000000e+00
3.420138e+03,0.000000e+00
3.421102e+03,0.000000e+00
3.422066e+03,0.000000e+00
3.423030e+03,0.000000e+00
3.423995e+03,0.000000e+00
3.424959e+03,0.000000e+00
3.425923e+03,0.000000e+00
3.426887e+03,0.000000e+00
3.427852e+03,0.000000e+00
3.428816e+03,0.000000e+00
3.429780e+03,0.000000e+00
3.430744e+03,0.000000e+00
3.431708e+03,0.000000e+00
3.432673e+03,0.000000e+00
3.433637e+03,0.000000e+00
3.434601e+03,0.000000e+00
3.435565e+03,0.000000e+00
3.436530e+03,0.000000e+00
3.437494e+03,0.000000e+00
3.438458e+03,0.000000e+00
3.439422e+03,0.000000e+00
3.440386e+03,0.000000e+00
3.441351e+03,0.000000e+00
3.442315e+03,0.000000e+00
3.443279e+03,0.000000e+00
3.444243e+03,0.000000e+00
3.445208e+03,0.000000e+00
3.446172e+03,0.000000e+00
3.447136e+03,0.000000e+00
3.448100e+03,0.000000e+00
3.449065e+03,0.000000e+00
3.450029e+03,0.000000e+00
3.450993e+03,0.000000e+00
3.451957e+03,0.000000e+00
3.452922e+03,0.000000e+00
3.453886e+03,0.000000e+00
3.454850e+03,0.000000e+00
3.455814e+03,0.000000e+00
3.456779e+03,0.000000e+00
3.457743e+03,0.000000e+00
3.458707e+03,0.000000e+00
3.459671e+03,0.000000e+00
3.460635e+03,0.000000e+00
3.461600e+03,0.000000e+00
3.462564e+03,0.000000e+00
3.463528e+03,0.000000e+00
3.464492e+03,0.000000e+00
3.465457e+03,0.000000e+00
3.466421e+03,0.000000e+00
3.467385e+03,0.000000e+00
3.468349e+03,0.000000e+00
3.469313e+03,0.000000e+00
3.470278e+03,0.000000e+00
3.471242e+03,0.000000e+00
3.472206e+03,0.000000e+00
3.473170e+03,0.000000e+00
3.474135e+03,0.000000e+00
3.475099e+03,0.000000e+00
3.476063e+03,0.000000e+00
3.477027e+03,0.000000e+00
3.477992e+03,0.000000e+00
3.478956e+03,0.000000e+00
3.479920e+03,0.000000e+00
3.480884e+03,0.000000e+00
3.481849e+03,0.000000e+00
3.482813e+03,0.000000e+00
3.483777e+03,0.000000e+00
3.484741e+03,0.000000e+00
3.485706e+03,0.000000e+00
3.486670e+03,0.000000e+00
3.487634e+03,0.000000e+00
3.488598e+03,0.000000e+00
3.489563e+03,0.000000e+00
3.490527e+03,0.000000e+00
3.491491e+03,0.000000e+00
3.492455e+03,0.000000e+00
3.493419e+03,0.000000e+00
3.494384e+03,0.000000e+00
3.495348e+03,0.000000e+00
3.496312e+03,0.000000e+00
3.497276e+03,0.000000e+00
3.498240e+03,0.000000e+00
3.499205e+03,0.000000e+00
3.500169e+03,0.000000e+00
