9.931763e+01,0.000000e+00
1.002819e+02,0.000000e+00
1.012461e+02,0.000000e+00
1.022103e+02,0.000000e+00
1.031746e+02,0.000000e+00
1.041388e+02,0.000000e+00
1.051030e+02,0.000000e+00
1.060673e+02,0.000000e+00
1.070315e+02,0.000000e+00
1.079957e+02,0.000000e+00
1.089600e+02,0.000000e+00
1.099242e+02,0.000000e+00
1.108884e+02,0.000000e+00
1.118527e+02,0.000000e+00
1.128169e+02,0.000000e+00
1.137811e+02,0.000000e+00
1.147454e+02,0.000000e+00
1.157096e+02,0.000000e+00
1.166738e+02,0.000000e+00
1.176381e+02,0.000000e+00
1.186023e+02,0.000000e+00
1.195665e+02,0.000000e+00
1.205308e+02,0.000000e+00
1.214950e+02,0.000000e+00
1.224592e+02,0.000000e+00
1.234235e+02,0.000000e+00
1.243877e+02,0.000000e+00
1.253519e+02,0.000000e+00
1.263162e+02,0.000000e+00
1.272804e+02,0.000000e+00
1.282446e+02,0.000000e+00
1.292089e+02,0.000000e+00
1.301731e+02,0.000000e+00
1.311373e+02,0.000000e+00
1.321016e+02,0.000000e+00
1.330658e+02,0.000000e+00
1.340300e+02,0.000000e+00
1.349943e+02,0.000000e+00
1.359585e+02,0.000000e+00
1.369227e+02,0.000000e+00
1.378870e+02,0.000000e+00
1.388512e+02,0.000000e+00
1.398154e+02,0.000000e+00
1.407797e+02,0.000000e+00
1.417439e+02,0.000000e+00
1.427081e+02,0.000000e+00
1.436724e+02,0.000000e+00
1.446366e+02,0.000000e+00
1.456008e+02,0.000000e+00
1.465651e+02,0.000000e+00
1.475293e+02,0.000000e+00
1.484935e+02,0.000000e+00
1.494578e+02,0.000000e+00
1.504220e+02,0.000000e+00
1.513862e+02,0.000000e+00
1.523505e+02,0.000000e+00
1.533147e+02,0.000000e+00
1.542789e+02,0.000000e+00
1.552432e+02,0.000000e+00
1.562074e+02,0.000000e+00
1.571716e+02,0.000000e+00
1.581359e+02,0.000000e+00
1.591001e+02,0.000000e+00
1.600643e+02,0.000000e+00
1.610286e+02,0.000000e+00
1.619928e+02,0.000000e+00
1.629570e+02,0.000000e+00
1.639213e+02,0.000000e+00
1.648855e+02,0.000000e+00
1.658497e+02,0.000000e+00
1.668140e+02,0.000000e+00
1.677782e+02,0.000000e+00
1.687424e+02,0.000000e+00
1.697067e+02,0.000000e+00
1.706709e+02,0.000000e+00
1.716351e+02,0.000000e+00
1.725994e+02,0.000000e+00
1.735636e+02,0.000000e+00
1.745278e+02,0.000000e+00
1.754921e+02,0.000000e+00
1.764563e+02,0.000000e+00
1.774205e+02,0.000000e+00
1.783848e+02,0.000000e+00
1.793490e+02,0.000000e+00
1.803132e+02,0.000000e+00
1.812775e+02,0.000000e+00
1.822417e+02,0.000000e+00
1.832059e+02,0.000000e+00
1.841702e+02,0.000000e+00
1.851344e+02,0.000000e+00
1.860986e+02,0.000000e+00
1.870629e+02,0.000000e+00
1.880271e+02,0.000000e+00
1.889913e+02,0.000000e+00
1.899556e+02,0.000000e+00
1.909198e+02,0.000000e+00
1.918840e+02,0.000000e+00
1.928483e+02,0.000000e+00
1.938125e+02,0.000000e+00
1.947767e+02,0.000000e+00
1.957410e+02,0.000000e+00
1.967052e+02,0.000000e+00
1.976694e+02,0.000000e+00
1.986337e+02,0.000000e+00
1.995979e+02,4.019262e+03
2.005621e+02,4.017260e+03
2.015264e+02,4.020706e+03
2.024906e+02,4.037148e+03
2.034548e+02,4.052792e+03
2.044191e+02,4.064523e+03
2.053833e+02,4.071270e+03
2.063475e+02,4.073281e+03
2.073118e+02,4.069781e+03
2.082760e+02,4.057985e+03
2.092402e+02,4.049425e+03
2.102045e+02,4.048090e+03
2.111687e+02,4.051099e+03
2.121329e+02,4.056208e+03
2.130972e+02,4.061930e+03
2.140614e+02,4.067419e+03
2.150256e+02,4.072547e+03
2.159899e+02,4.078583e+03
2.169541e+02,4.083181e+03
2.179183e+02,4.085157e+03
2.188826e+02,4.084885e+03
2.198468e+02,4.085240e+03
2.208110e+02,4.089166e+03
2.217753e+02,4.095980e+03
2.227395e+02,4.099391e+03
2.237037e+02,4.098950e+03
2.246680e+02,4.096776e+03
2.256322e+02,4.093749e+03
2.265964e+02,4.090398e+03
2.275607e+02,4.088645e+03
2.285249e+02,4.090731e+03
2.294892e+02,4.097270e+03
2.304534e+02,4.105151e+03
2.314176e+02,4.110365e+03
2.323819e+02,4.112759e+03
2.333461e+02,4.114723e+03
2.343103e+02,4.117814e+03
2.352746e+02,4.121855e+03
2.362388e+02,4.125678e+03
2.372030e+02,4.128263e+03
2.381673e+02,4.128150e+03
2.391315e+02,4.125458e+03
2.400957e+02,4.122025e+03
2.410600e+02,4.118024e+03
2.420242e+02,4.112604e+03
2.429884e+02,4.107669e+03
2.439527e+02,4.107141e+03
2.449169e+02,4.112802e+03
2.458811e+02,4.124808e+03
2.468454e+02,4.135391e+03
2.478096e+02,4.146225e+03
2.487738e+02,4.154877e+03
2.497381e+02,4.158381e+03
2.507023e+02,4.156451e+03
2.516665e+02,4.152625e+03
2.526308e+02,4.152255e+03
2.535950e+02,4.157977e+03
2.545592e+02,4.160471e+03
2.555235e+02,4.158963e+03
2.564877e+02,4.155460e+03
2.574519e+02,4.152557e+03
2.584161e+02,4.152185e+03
2.593804e+02,4.154811e+03
2.603446e+02,4.158915e+03
2.613088e+02,4.162732e+03
2.622731e+02,4.167361e+03
2.632373e+02,4.172679e+03
2.642015e+02,4.177972e+03
2.651658e+02,4.183546e+03
2.661300e+02,4.192287e+03
2.670942e+02,4.206830e+03
2.680585e+02,4.217671e+03
2.690227e+02,4.221965e+03
2.699869e+02,4.222145e+03
2.709512e+02,4.218650e+03
2.719154e+02,4.211389e+03
2.728796e+02,4.203695e+03
2.738439e+02,4.199804e+03
2.748081e+02,4.201016e+03
2.757723e+02,4.206347e+03
2.767366e+02,4.213492e+03
2.777008e+02,4.220193e+03
2.786650e+02,4.224880e+03
2.796293e+02,4.227366e+03
2.805935e+02,4.229299e+03
2.815577e+02,4.232769e+03
2.825220e+02,4.238262e+03
2.834862e+02,4.243424e+03
2.844504e+02,4.244678e+03
2.854147e+02,4.242746e+03
2.863789e+02,4.238943e+03
2.873431e+02,4.232367e+03
2.883074e+02,4.225458e+03
2.892716e+02,4.222291e+03
2.902358e+02,4.224947e+03
2.912001e+02,4.232921e+03
2.921643e+02,4.236924e+03
2.931285e+02,4.235479e+03
2.940928e+02,4.233779e+03
2.950570e+02,4.232938e+03
2.960212e+02,4.232540e+03
2.969855e+02,4.232294e+03
2.979497e+02,4.232666e+03
2.989139e+02,4.234325e+03
2.998782e+02,4.237598e+03
3.008424e+02,4.249275e+03
3.018066e+02,4.261476e+03
3.027709e+02,4.265354e+03
3.037351e+02,4.255233e+03
3.046993e+02,4.239346e+03
3.056636e+02,4.235718e+03
3.066278e+02,4.251653e+03
3.075920e+02,4.264881e+03
3.085563e+02,4.260649e+03
3.095205e+02,4.246814e+03
3.104847e+02,4.239610e+03
3.114490e+02,4.249930e+03
3.124132e+02,4.269312e+03
3.133774e+02,4.281523e+03
3.143417e+02,4.283306e+03
3.153059e+02,4.278655e+03
3.162701e+02,4.273533e+03
3.172344e+02,4.268397e+03
3.181986e+02,4.265285e+03
3.191628e+02,4.265648e+03
3.201271e+02,4.268782e+03
3.210913e+02,4.273377e+03
3.220555e+02,4.278931e+03
3.230198e+02,4.284699e+03
3.239840e+02,4.287624e+03
3.249482e+02,4.282242e+03
3.259125e+02,4.279001e+03
3.268767e+02,4.283979e+03
3.278409e+02,4.294808e+03
3.288052e+02,4.304267e+03
3.297694e+02,4.304748e+03
3.307336e+02,4.293706e+03
3.316979e+02,4.286981e+03
3.326621e+02,4.288976e+03
3.336263e+02,4.291513e+03
3.345906e+02,4.291022e+03
3.355548e+02,4.287899e+03
3.365190e+02,4.285216e+03
3.374833e+02,4.285979e+03
3.384475e+02,4.290256e+03
3.394117e+02,4.293825e+03
3.403760e+02,4.291795e+03
3.413402e+02,4.287392e+03
3.423044e+02,4.286967e+03
3.432687e+02,4.294799e+03
3.442329e+02,4.304613e+03
3.451971e+02,4.309838e+03
3.461614e+02,4.309191e+03
3.471256e+02,4.305418e+03
3.480898e+02,4.302203e+03
3.490541e+02,4.301146e+03
3.500183e+02,4.300564e+03
3.509825e+02,4.301710e+03
3.519468e+02,4.304668e+03
3.529110e+02,4.308792e+03
3.538752e+02,4.313053e+03
3.548395e+02,4.316617e+03
3.558037e+02,4.319388e+03
3.567680e+02,4.321793e+03
3.577322e+02,4.322845e+03
3.586964e+02,4.322754e+03
3.596607e+02,4.323189e+03
3.606249e+02,4.324829e+03
3.615891e+02,4.326764e+03
3.625534e+02,4.327222e+03
3.635176e+02,4.325212e+03
3.644818e+02,4.321779e+03
3.654461e+02,4.317912e+03
3.664103e+02,4.314935e+03
3.673745e+02,4.314819e+03
3.683388e+02,4.318630e+03
3.693030e+02,4.326410e+03
3.702672e+02,4.335407e+03
3.712315e+02,4.342924e+03
3.721957e+02,4.348187e+03
3.731599e+02,4.350579e+03
3.741242e+02,4.350517e+03
3.750884e+02,4.346427e+03
3.760526e+02,4.346716e+03
3.770169e+02,4.355846e+03
3.779811e+02,4.367557e+03
3.789453e+02,4.373865e+03
3.799096e+02,4.370253e+03
3.808738e+02,4.358874e+03
3.818380e+02,4.349044e+03
3.828023e+02,4.343494e+03
3.837665e+02,4.340047e+03
3.847307e+02,4.335864e+03
3.856950e+02,4.332243e+03
3.866592e+02,4.332164e+03
3.876234e+02,4.340024e+03
3.885877e+02,4.352568e+03
3.895519e+02,4.360292e+03
3.905161e+02,4.361124e+03
3.914804e+02,4.358212e+03
3.924446e+02,4.354886e+03
3.934088e+02,4.351826e+03
3.943731e+02,4.349888e+03
3.953373e+02,4.350661e+03
3.963015e+02,4.352029e+03
3.972658e+02,4.350117e+03
3.982300e+02,4.343621e+03
3.991942e+02,4.336702e+03
4.001585e+02,4.337506e+03
4.011227e+02,4.353586e+03
4.020869e+02,4.365860e+03
4.030512e+02,4.369599e+03
4.040154e+02,4.366578e+03
4.049796e+02,4.360692e+03
4.059439e+02,4.351903e+03
4.069081e+02,4.342072e+03
4.078723e+02,4.339242e+03
4.088366e+02,4.345107e+03
4.098008e+02,4.351883e+03
4.107650e+02,4.357839e+03
4.117293e+02,4.363508e+03
4.126935e+02,4.367128e+03
4.136577e+02,4.367153e+03
4.146220e+02,4.364884e+03
4.155862e+02,4.362052e+03
4.165504e+02,4.359080e+03
4.175147e+02,4.356447e+03
4.184789e+02,4.354676e+03
4.194431e+02,4.354333e+03
4.204074e+02,4.353866e+03
4.213716e+02,4.352173e+03
4.223358e+02,4.350611e+03
4.233001e+02,4.351162e+03
4.242643e+02,4.355558e+03
4.252285e+02,4.361839e+03
4.261928e+02,4.364633e+03
4.271570e+02,4.363057e+03
4.281212e+02,4.360929e+03
4.290855e+02,4.357144e+03
4.300497e+02,4.352847e+03
4.310139e+02,4.351820e+03
4.319782e+02,4.358994e+03
4.329424e+02,4.369342e+03
4.339066e+02,4.376633e+03
4.348709e+02,4.379826e+03
4.358351e+02,4.380420e+03
4.367993e+02,4.380072e+03
4.377636e+02,4.379357e+03
4.387278e+02,4.376634e+03
4.396920e+02,4.369468e+03
4.406563e+02,4.363055e+03
4.416205e+02,4.361718e+03
4.425847e+02,4.366164e+03
4.435490e+02,4.371365e+03
4.445132e+02,4.369425e+03
4.454774e+02,4.358607e+03
4.464417e+02,4.352474e+03
4.474059e+02,4.356772e+03
4.483701e+02,4.365236e+03
4.493344e+02,4.370925e+03
4.502986e+02,4.373008e+03
4.512628e+02,4.373686e+03
4.522271e+02,4.373413e+03
4.531913e+02,4.372524e+03
4.541555e+02,4.372711e+03
4.551198e+02,4.375230e+03
4.560840e+02,4.380300e+03
4.570482e+02,4.381287e+03
4.580125e+02,4.376601e+03
4.589767e+02,4.373271e+03
4.599409e+02,4.373462e+03
4.609052e+02,4.375142e+03
4.618694e+02,4.374432e+03
4.628336e+02,4.365700e+03
4.637979e+02,4.350732e+03
4.647621e+02,4.345545e+03
4.657263e+02,4.359010e+03
4.666906e+02,4.375904e+03
4.676548e+02,4.377335e+03
4.686190e+02,4.357530e+03
4.695833e+02,4.340985e+03
4.705475e+02,4.335719e+03
4.715117e+02,4.337607e+03
4.724760e+02,4.342022e+03
4.734402e+02,4.347938e+03
4.744044e+02,4.354626e+03
4.753687e+02,4.359848e+03
4.763329e+02,4.362658e+03
4.772971e+02,4.365619e+03
4.782614e+02,4.368792e+03
4.792256e+02,4.372752e+03
4.801898e+02,4.377616e+03
4.811541e+02,4.381265e+03
4.821183e+02,4.386483e+03
4.830826e+02,4.401353e+03
4.840468e+02,4.426464e+03
4.850110e+02,4.444103e+03
4.859753e+02,4.441376e+03
4.869395e+02,4.416262e+03
4.879037e+02,4.401251e+03
4.888680e+02,4.405957e+03
4.898322e+02,4.413234e+03
4.907964e+02,4.414701e+03
4.917607e+02,4.410181e+03
4.927249e+02,4.403212e+03
4.936891e+02,4.395626e+03
4.946534e+02,4.387059e+03
4.956176e+02,4.382070e+03
4.965818e+02,4.384052e+03
4.975461e+02,4.387143e+03
4.985103e+02,4.385258e+03
4.994745e+02,4.375916e+03
5.004388e+02,4.367304e+03
5.014030e+02,4.363532e+03
5.023672e+02,4.364148e+03
5.033315e+02,4.369017e+03
5.042957e+02,4.378390e+03
5.052599e+02,4.388157e+03
5.062242e+02,4.390322e+03
5.071884e+02,4.380794e+03
5.081526e+02,4.371361e+03
5.091169e+02,4.363851e+03
5.100811e+02,4.358247e+03
5.110453e+02,4.353352e+03
5.120095e+02,4.347842e+03
5.129738e+02,4.344983e+03
5.139380e+02,4.351572e+03
5.149022e+02,4.367545e+03
5.158665e+02,4.379931e+03
5.168307e+02,4.378804e+03
5.177949e+02,4.362515e+03
5.187592e+02,4.351649e+03
5.197234e+02,4.357487e+03
5.206876e+02,4.363982e+03
5.216519e+02,4.364451e+03
5.226161e+02,4.360029e+03
5.235803e+02,4.354775e+03
5.245446e+02,4.351502e+03
5.255088e+02,4.349886e+03
5.264730e+02,4.347963e+03
5.274373e+02,4.345753e+03
5.284015e+02,4.343030e+03
5.293657e+02,4.338325e+03
5.303300e+02,4.331531e+03
5.312942e+02,4.325355e+03
5.322584e+02,4.323492e+03
5.332227e+02,4.323814e+03
5.341869e+02,4.322302e+03
5.351511e+02,4.317557e+03
5.361154e+02,4.312578e+03
5.370796e+02,4.312895e+03
5.380438e+02,4.320842e+03
5.390081e+02,4.327194e+03
5.399723e+02,4.329733e+03
5.409365e+02,4.331611e+03
5.419008e+02,4.334882e+03
5.428650e+02,4.339890e+03
5.438292e+02,4.342835e+03
5.447935e+02,4.341191e+03
5.457577e+02,4.336273e+03
5.467219e+02,4.330479e+03
5.476862e+02,4.324642e+03
5.486504e+02,4.319188e+03
5.496146e+02,4.315853e+03
5.505789e+02,4.315787e+03
5.515431e+02,4.315690e+03
5.525073e+02,4.317946e+03
5.534716e+02,4.321905e+03
5.544358e+02,4.324262e+03
5.554000e+02,4.318709e+03
5.563643e+02,4.311933e+03
5.573285e+02,4.310691e+03
5.582927e+02,4.314116e+03
5.592570e+02,4.319799e+03
5.602212e+02,4.327853e+03
5.611854e+02,4.337839e+03
5.621497e+02,4.342604e+03
5.631139e+02,4.337307e+03
5.640781e+02,4.328773e+03
5.650424e+02,4.318825e+03
5.660066e+02,4.308575e+03
5.669708e+02,4.299833e+03
5.679351e+02,4.293463e+03
5.688993e+02,4.290169e+03
5.698635e+02,4.291775e+03
5.708278e+02,4.299087e+03
5.717920e+02,4.308780e+03
5.727562e+02,4.317146e+03
5.737205e+02,4.323138e+03
5.746847e+02,4.327417e+03
5.756489e+02,4.330466e+03
5.766132e+02,4.330575e+03
5.775774e+02,4.326203e+03
5.785416e+02,4.317600e+03
5.795059e+02,4.308681e+03
5.804701e+02,4.302157e+03
5.814343e+02,4.297706e+03
5.823986e+02,4.294430e+03
5.833628e+02,4.292461e+03
5.843270e+02,4.291891e+03
5.852913e+02,4.292479e+03
5.862555e+02,4.294325e+03
5.872197e+02,4.297356e+03
5.881840e+02,4.300468e+03
5.891482e+02,4.304472e+03
5.901124e+02,4.311459e+03
5.910767e+02,4.322754e+03
5.920409e+02,4.332288e+03
5.930051e+02,4.331356e+03
5.939694e+02,4.321575e+03
5.949336e+02,4.314541e+03
5.958978e+02,4.314783e+03
5.968621e+02,4.318563e+03
5.978263e+02,4.317513e+03
5.987905e+02,4.306286e+03
5.997548e+02,4.297740e+03
6.007190e+02,4.293399e+03
6.016832e+02,4.292909e+03
6.026475e+02,4.295041e+03
6.036117e+02,4.298665e+03
6.045759e+02,4.303445e+03
6.055402e+02,4.311013e+03
6.065044e+02,4.320065e+03
6.074686e+02,4.323921e+03
6.084329e+02,4.319798e+03
6.093971e+02,4.309628e+03
6.103613e+02,4.300854e+03
6.113256e+02,4.292823e+03
6.122899e+02,4.287540e+03
6.132541e+02,4.286705e+03
6.142183e+02,4.288534e+03
6.151826e+02,4.290326e+03
6.161468e+02,4.291071e+03
6.171110e+02,4.292909e+03
6.180753e+02,4.299581e+03
6.190395e+02,4.309909e+03
6.200037e+02,4.316264e+03
6.209680e+02,4.313313e+03
6.219322e+02,4.302117e+03
6.228964e+02,4.292365e+03
6.238607e+02,4.280300e+03
6.248249e+02,4.273311e+03
6.257891e+02,4.276212e+03
6.267534e+02,4.284618e+03
6.277176e+02,4.288464e+03
6.286818e+02,4.279034e+03
6.296461e+02,4.267917e+03
6.306103e+02,4.270250e+03
6.315745e+02,4.285144e+03
6.325388e+02,4.299018e+03
6.335030e+02,4.299531e+03
6.344672e+02,4.285385e+03
6.354315e+02,4.277739e+03
6.363957e+02,4.279896e+03
6.373599e+02,4.282882e+03
6.383242e+02,4.284378e+03
6.392884e+02,4.284790e+03
6.402526e+02,4.282778e+03
6.412169e+02,4.276362e+03
6.421811e+02,4.267992e+03
6.431453e+02,4.256922e+03
6.441096e+02,4.244501e+03
6.450738e+02,4.237734e+03
6.460380e+02,4.248026e+03
6.470023e+02,4.276932e+03
6.479665e+02,4.293968e+03
6.489307e+02,4.293515e+03
6.498950e+02,4.286477e+03
6.508592e+02,4.278659e+03
6.518234e+02,4.268903e+03
6.527877e+02,4.263114e+03
6.537519e+02,4.268437e+03
6.547161e+02,4.274373e+03
6.556804e+02,4.271848e+03
6.566446e+02,4.260904e+03
6.576088e+02,4.249309e+03
6.585731e+02,4.243910e+03
6.595373e+02,4.243972e+03
6.605015e+02,4.246097e+03
6.614658e+02,4.251170e+03
6.624300e+02,4.255255e+03
6.633942e+02,4.253918e+03
6.643585e+02,4.243049e+03
6.653227e+02,4.236702e+03
6.662869e+02,4.237506e+03
6.672512e+02,4.239449e+03
6.682154e+02,4.238595e+03
6.691796e+02,4.233940e+03
6.701439e+02,4.229151e+03
6.711081e+02,4.227704e+03
6.720723e+02,4.228084e+03
6.730366e+02,4.227509e+03
6.740008e+02,4.225978e+03
6.749650e+02,4.224117e+03
6.759293e+02,4.222812e+03
6.768935e+02,4.223261e+03
6.778577e+02,4.222551e+03
6.788220e+02,4.220340e+03
6.797862e+02,4.219623e+03
6.807504e+02,4.221782e+03
6.817147e+02,4.226804e+03
6.826789e+02,4.227972e+03
6.836431e+02,4.216463e+03
6.846074e+02,4.201224e+03
6.855716e+02,4.194979e+03
6.865358e+02,4.200407e+03
6.875001e+02,4.207864e+03
6.884643e+02,4.202710e+03
6.894285e+02,4.185322e+03
6.903928e+02,4.180497e+03
6.913570e+02,4.195774e+03
6.923212e+02,4.215495e+03
6.932855e+02,4.223046e+03
6.942497e+02,4.212172e+03
6.952139e+02,4.205061e+03
6.961782e+02,4.200485e+03
6.971424e+02,4.199701e+03
6.981066e+02,4.205120e+03
6.990709e+02,4.215544e+03
7.000351e+02,4.221548e+03
7.009993e+02,4.216014e+03
7.019636e+02,4.204104e+03
7.029278e+02,4.194009e+03
7.038920e+02,4.186759e+03
7.048563e+02,4.181198e+03
7.058205e+02,4.177603e+03
7.067847e+02,4.178770e+03
7.077490e+02,4.178008e+03
7.087132e+02,4.173931e+03
7.096774e+02,4.172699e+03
7.106417e+02,4.176497e+03
7.116059e+02,4.186170e+03
7.125701e+02,4.192964e+03
7.135344e+02,4.195317e+03
7.144986e+02,4.194923e+03
7.154628e+02,4.190704e+03
7.164271e+02,4.182597e+03
7.173913e+02,4.175603e+03
7.183555e+02,4.177736e+03
7.193198e+02,4.186146e+03
7.202840e+02,4.186139e+03
7.212482e+02,4.175221e+03
7.222125e+02,4.161533e+03
7.231767e+02,4.152612e+03
7.241409e+02,4.148159e+03
7.251052e+02,4.145889e+03
7.260694e+02,4.147500e+03
7.270336e+02,4.149509e+03
7.279979e+02,4.150872e+03
7.289621e+02,4.151337e+03
7.299263e+02,4.152134e+03
7.308906e+02,4.154754e+03
7.318548e+02,4.156657e+03
7.328190e+02,4.155178e+03
7.337833e+02,4.150287e+03
7.347475e+02,4.144319e+03
7.357117e+02,4.140388e+03
7.366760e+02,4.138989e+03
7.376402e+02,4.137572e+03
7.386044e+02,4.136114e+03
7.395687e+02,4.135042e+03
7.405329e+02,4.134212e+03
7.414971e+02,4.133966e+03
7.424614e+02,4.131198e+03
7.434256e+02,4.123408e+03
7.443898e+02,4.119698e+03
7.453541e+02,4.125173e+03
7.463183e+02,4.136769e+03
7.472825e+02,4.143750e+03
7.482468e+02,4.139943e+03
7.492110e+02,4.130513e+03
7.501752e+02,4.120408e+03
7.511395e+02,4.112189e+03
7.521037e+02,4.108354e+03
7.530679e+02,4.112203e+03
7.540322e+02,4.120818e+03
7.549964e+02,4.118059e+03
7.559606e+02,4.101041e+03
7.569249e+02,4.086051e+03
7.578891e+02,4.084542e+03
7.588533e+02,4.097877e+03
7.598176e+02,4.106962e+03
7.607818e+02,4.102058e+03
7.617460e+02,4.096114e+03
7.627103e+02,4.097313e+03
7.636745e+02,4.104612e+03
7.646387e+02,4.108943e+03
7.656030e+02,4.104241e+03
7.665672e+02,4.096790e+03
7.675314e+02,4.086887e+03
7.684957e+02,4.074423e+03
7.694599e+02,4.065672e+03
7.704241e+02,4.068909e+03
7.713884e+02,4.080549e+03
7.723526e+02,4.085681e+03
7.733168e+02,4.084383e+03
7.742811e+02,4.085032e+03
7.752453e+02,4.089753e+03
7.762095e+02,4.096305e+03
7.771738e+02,4.100012e+03
7.781380e+02,4.098600e+03
7.791022e+02,4.093773e+03
7.800665e+02,4.084992e+03
7.810307e+02,4.075285e+03
7.819949e+02,4.069052e+03
7.829592e+02,4.072240e+03
7.839234e+02,4.076830e+03
7.848876e+02,4.077332e+03
7.858519e+02,4.075539e+03
7.868161e+02,4.075752e+03
7.877803e+02,4.080811e+03
7.887446e+02,4.085194e+03
7.897088e+02,4.079770e+03
7.906730e+02,4.067560e+03
7.916373e+02,4.060629e+03
7.926015e+02,4.061149e+03
7.935657e+02,4.063661e+03
7.945300e+02,4.062185e+03
7.954942e+02,4.056847e+03
7.964584e+02,4.051720e+03
7.974227e+02,4.052258e+03
7.983869e+02,4.056561e+03
7.993511e+02,4.057348e+03
8.003154e+02,4.048562e+03
8.012796e+02,4.040023e+03
8.022438e+02,4.034196e+03
8.032081e+02,4.032063e+03
8.041723e+02,4.035700e+03
8.051365e+02,4.045226e+03
8.061008e+02,4.052581e+03
8.070650e+02,4.048719e+03
8.080292e+02,4.038147e+03
8.089935e+02,4.030625e+03
8.099577e+02,4.028703e+03
8.109219e+02,4.028707e+03
8.118862e+02,4.025976e+03
8.128504e+02,4.020590e+03
8.138146e+02,4.015228e+03
8.147789e+02,4.008509e+03
8.157431e+02,4.003714e+03
8.167073e+02,4.004992e+03
8.176716e+02,4.015746e+03
8.186358e+02,4.025583e+03
8.196000e+02,4.038302e+03
8.205643e+02,4.045840e+03
8.215285e+02,4.039341e+03
8.224927e+02,4.020717e+03
8.234570e+02,4.006871e+03
8.244212e+02,4.005406e+03
8.253854e+02,4.007276e+03
8.263497e+02,4.006124e+03
8.273139e+02,4.001781e+03
8.282781e+02,3.997853e+03
8.292424e+02,3.999551e+03
8.302066e+02,4.004331e+03
8.311708e+02,4.008294e+03
8.321351e+02,4.011035e+03
8.330993e+02,4.009871e+03
8.340635e+02,4.001662e+03
8.350278e+02,3.989083e+03
8.359920e+02,3.981057e+03
8.369562e+02,3.977840e+03
8.379205e+02,3.979106e+03
8.388847e+02,3.986911e+03
8.398489e+02,3.997984e+03
8.408132e+02,4.003233e+03
8.417774e+02,3.998062e+03
8.427416e+02,3.992174e+03
8.437059e+02,3.985764e+03
8.446701e+02,3.979703e+03
8.456343e+02,3.975012e+03
8.465986e+02,3.970710e+03
8.475628e+02,3.968986e+03
8.485270e+02,3.973159e+03
8.494913e+02,3.978774e+03
8.504555e+02,3.982402e+03
8.514197e+02,3.983717e+03
8.523840e+02,3.982426e+03
8.533482e+02,3.975038e+03
8.543124e+02,3.964370e+03
8.552767e+02,3.955735e+03
8.562409e+02,3.949722e+03
8.572051e+02,3.946372e+03
8.581694e+02,3.948603e+03
8.591336e+02,3.956183e+03
8.600978e+02,3.959242e+03
8.610621e+02,3.957539e+03
8.620263e+02,3.954419e+03
8.629905e+02,3.950751e+03
8.639548e+02,3.944980e+03
8.649190e+02,3.940410e+03
8.658832e+02,3.940642e+03
8.668475e+02,3.941089e+03
8.678117e+02,3.938733e+03
8.687759e+02,3.933924e+03
8.697402e+02,3.931287e+03
8.707044e+02,3.932244e+03
8.716686e+02,3.929952e+03
8.726329e+02,3.921859e+03
8.735971e+02,3.911886e+03
8.745613e+02,3.905564e+03
8.755256e+02,3.906865e+03
8.764898e+02,3.912597e+03
8.774540e+02,3.922538e+03
8.784183e+02,3.933529e+03
8.793825e+02,3.940686e+03
8.803467e+02,3.942046e+03
8.813110e+02,3.939073e+03
8.822752e+02,3.931655e+03
8.832394e+02,3.922347e+03
8.842037e+02,3.917883e+03
8.851679e+02,3.919099e+03
8.861321e+02,3.921820e+03
8.870964e+02,3.921195e+03
8.880606e+02,3.916773e+03
8.890248e+02,3.911866e+03
8.899891e+02,3.907975e+03
8.909533e+02,3.905950e+03
8.919175e+02,3.906355e+03
8.928818e+02,3.910635e+03
8.938460e+02,3.910090e+03
8.948102e+02,3.897819e+03
8.957745e+02,3.886198e+03
8.967387e+02,3.884405e+03
8.977029e+02,3.891008e+03
8.986672e+02,3.893079e+03
8.996314e+02,3.889790e+03
9.005956e+02,3.885961e+03
9.015599e+02,3.881448e+03
9.025241e+02,3.876722e+03
9.034883e+02,3.874024e+03
9.044526e+02,3.876295e+03
9.054168e+02,3.876892e+03
9.063810e+02,3.873265e+03
9.073453e+02,3.869134e+03
9.083095e+02,3.867985e+03
9.092737e+02,3.870880e+03
9.102380e+02,3.873086e+03
9.112022e+02,3.868253e+03
9.121664e+02,3.858915e+03
9.131307e+02,3.852666e+03
9.140949e+02,3.853091e+03
9.150591e+02,3.857717e+03
9.160234e+02,3.861797e+03
9.169876e+02,3.862991e+03
9.179518e+02,3.857777e+03
9.189161e+02,3.845041e+03
9.198803e+02,3.830559e+03
9.208445e+02,3.821534e+03
9.218088e+02,3.819737e+03
9.227730e+02,3.819761e+03
9.237372e+02,3.821530e+03
9.247015e+02,3.822644e+03
9.256657e+02,3.821823e+03
9.266299e+02,3.818766e+03
9.275942e+02,3.814430e+03
9.285584e+02,3.805388e+03
9.295226e+02,3.797505e+03
9.304869e+02,3.793406e+03
9.314511e+02,3.793110e+03
9.324153e+02,3.794870e+03
9.333796e+02,3.801677e+03
9.343438e+02,3.806679e+03
9.353080e+02,3.805347e+03
9.362723e+02,3.800046e+03
9.372365e+02,3.796210e+03
9.382007e+02,3.800430e+03
9.391650e+02,3.802929e+03
9.401292e+02,3.794416e+03
9.410934e+02,3.783438e+03
9.420577e+02,3.780297e+03
9.430219e+02,3.787688e+03
9.439861e+02,3.794402e+03
9.449504e+02,3.791965e+03
9.459146e+02,3.786894e+03
9.468788e+02,3.786270e+03
9.478431e+02,3.788476e+03
9.488073e+02,3.788004e+03
9.497715e+02,3.779778e+03
9.507358e+02,3.768511e+03
9.517000e+02,3.765220e+03
9.526642e+02,3.770522e+03
9.536285e+02,3.775979e+03
9.545927e+02,3.775508e+03
9.555569e+02,3.770351e+03
9.565212e+02,3.764331e+03
9.574854e+02,3.758683e+03
9.584496e+02,3.754527e+03
9.594139e+02,3.750271e+03
9.603781e+02,3.746205e+03
9.613423e+02,3.747319e+03
9.623066e+02,3.756091e+03
9.632708e+02,3.758426e+03
9.642350e+02,3.749492e+03
9.651993e+02,3.738202e+03
9.661635e+02,3.736380e+03
9.671277e+02,3.749784e+03
9.680920e+02,3.755244e+03
9.690562e+02,3.748394e+03
9.700204e+02,3.737353e+03
9.709847e+02,3.728424e+03
9.719489e+02,3.722374e+03
9.729131e+02,3.720538e+03
9.738774e+02,3.731128e+03
9.748416e+02,3.739552e+03
9.758058e+02,3.735137e+03
9.767701e+02,3.719830e+03
9.777343e+02,3.710278e+03
9.786985e+02,3.710898e+03
9.796628e+02,3.714416e+03
9.806270e+02,3.723456e+03
9.815912e+02,3.732973e+03
9.825555e+02,3.735041e+03
9.835197e+02,3.725683e+03
9.844839e+02,3.714505e+03
9.854482e+02,3.702366e+03
9.864124e+02,3.692678e+03
9.873766e+02,3.689910e+03
9.883409e+02,3.696589e+03
9.893051e+02,3.701481e+03
9.902693e+02,3.692287e+03
9.912336e+02,3.681219e+03
9.921978e+02,3.682142e+03
9.931620e+02,3.694248e+03
9.941263e+02,3.705462e+03
9.950905e+02,3.707872e+03
9.960547e+02,3.705328e+03
9.970190e+02,3.701185e+03
9.979832e+02,3.695712e+03
9.989474e+02,3.690369e+03
9.999117e+02,3.687840e+03
1.000876e+03,3.686754e+03
1.001840e+03,3.684352e+03
1.002804e+03,3.681805e+03
1.003769e+03,3.679825e+03
1.004733e+03,3.677468e+03
1.005697e+03,3.675497e+03
1.006661e+03,3.677098e+03
1.007626e+03,3.681311e+03
1.008590e+03,3.682321e+03
1.009554e+03,3.678190e+03
1.010518e+03,3.670706e+03
1.011482e+03,3.661791e+03
1.012447e+03,3.651776e+03
1.013411e+03,3.644522e+03
1.014375e+03,3.642142e+03
1.015339e+03,3.640536e+03
1.016304e+03,3.634668e+03
1.017268e+03,3.625834e+03
1.018232e+03,3.625080e+03
1.019196e+03,3.633125e+03
1.020161e+03,3.639686e+03
1.021125e+03,3.641304e+03
1.022089e+03,3.640367e+03
1.023053e+03,3.640453e+03
1.024018e+03,3.640652e+03
1.024982e+03,3.639358e+03
1.025946e+03,3.635302e+03
1.026910e+03,3.628695e+03
1.027875e+03,3.621440e+03
1.028839e+03,3.614387e+03
1.029803e+03,3.611191e+03
1.030767e+03,3.612885e+03
1.031731e+03,3.617196e+03
1.032696e+03,3.622962e+03
1.033660e+03,3.630113e+03
1.034624e+03,3.631094e+03
1.035588e+03,3.623818e+03
1.036552e+03,3.616414e+03
1.037517e+03,3.609347e+03
1.038481e+03,3.602951e+03
1.039445e+03,3.603029e+03
1.040409e+03,3.617910e+03
1.041374e+03,3.625478e+03
1.042338e+03,3.618205e+03
1.043302e+03,3.605896e+03
1.044266e+03,3.600679e+03
1.045231e+03,3.608551e+03
1.046195e+03,3.611621e+03
1.047159e+03,3.607737e+03
1.048123e+03,3.602387e+03
1.049088e+03,3.599673e+03
1.050052e+03,3.601460e+03
1.051016e+03,3.600422e+03
1.051980e+03,3.590649e+03
1.052945e+03,3.583300e+03
1.053909e+03,3.581837e+03
1.054873e+03,3.583515e+03
1.055837e+03,3.584191e+03
1.056802e+03,3.585399e+03
1.057766e+03,3.585996e+03
1.058730e+03,3.588555e+03
1.059694e+03,3.590024e+03
1.060658e+03,3.585614e+03
1.061623e+03,3.571578e+03
1.062587e+03,3.559944e+03
1.063551e+03,3.550385e+03
1.064515e+03,3.545312e+03
1.065479e+03,3.548755e+03
1.066444e+03,3.562549e+03
1.067408e+03,3.568335e+03
1.068372e+03,3.552006e+03
1.069336e+03,3.538485e+03
1.070301e+03,3.539515e+03
1.071265e+03,3.550429e+03
1.072229e+03,3.558335e+03
1.073193e+03,3.559885e+03
1.074158e+03,3.559437e+03
1.075122e+03,3.557571e+03
1.076086e+03,3.554750e+03
1.077050e+03,3.552149e+03
1.078015e+03,3.552003e+03
1.078979e+03,3.553030e+03
1.079943e+03,3.553993e+03
1.080907e+03,3.555629e+03
1.081872e+03,3.558115e+03
1.082836e+03,3.560485e+03
1.083800e+03,3.560179e+03
1.084764e+03,3.553211e+03
1.085729e+03,3.548857e+03
1.086693e+03,3.552420e+03
1.087657e+03,3.561031e+03
1.088621e+03,3.567883e+03
1.089585e+03,3.572419e+03
1.090550e+03,3.572349e+03
1.091514e+03,3.567875e+03
1.092478e+03,3.561021e+03
1.093442e+03,3.552473e+03
1.094406e+03,3.540785e+03
1.095371e+03,3.533272e+03
1.096335e+03,3.533349e+03
1.097299e+03,3.534984e+03
1.098263e+03,3.533744e+03
1.099228e+03,3.529318e+03
1.100192e+03,3.527557e+03
1.101156e+03,3.532142e+03
1.102120e+03,3.536058e+03
1.103085e+03,3.537575e+03
1.104049e+03,3.536858e+03
1.105013e+03,3.534350e+03
1.105977e+03,3.527111e+03
1.106942e+03,3.522651e+03
1.107906e+03,3.525608e+03
1.108870e+03,3.530031e+03
1.109834e+03,3.529686e+03
1.110799e+03,3.522230e+03
1.111763e+03,3.518027e+03
1.112727e+03,3.521798e+03
1.113691e+03,3.526719e+03
1.114656e+03,3.528030e+03
1.115620e+03,3.526422e+03
1.116584e+03,3.527830e+03
1.117548e+03,3.534992e+03
1.118512e+03,3.539430e+03
1.119477e+03,3.538429e+03
1.120441e+03,3.534230e+03
1.121405e+03,3.530617e+03
1.122369e+03,3.523848e+03
1.123334e+03,3.523895e+03
1.124298e+03,3.541350e+03
1.125262e+03,3.557574e+03
1.126226e+03,3.557551e+03
1.127191e+03,3.538864e+03
1.128155e+03,3.528840e+03
1.129119e+03,3.532819e+03
1.130083e+03,3.536380e+03
1.131047e+03,3.533022e+03
1.132012e+03,3.524455e+03
1.132976e+03,3.519108e+03
1.133940e+03,3.519351e+03
1.134904e+03,3.517616e+03
1.135869e+03,3.513016e+03
1.136833e+03,3.507971e+03
1.137797e+03,3.505145e+03
1.138761e+03,3.506512e+03
1.139726e+03,3.506931e+03
1.140690e+03,3.505436e+03
1.141654e+03,3.503492e+03
1.142618e+03,3.501683e+03
1.143583e+03,3.500153e+03
1.144547e+03,3.497697e+03
1.145511e+03,3.493226e+03
1.146475e+03,3.491886e+03
1.147439e+03,3.495938e+03
1.148404e+03,3.502700e+03
1.149368e+03,3.505816e+03
1.150332e+03,3.504341e+03
1.151296e+03,3.505141e+03
1.152261e+03,3.508011e+03
1.153225e+03,3.507601e+03
1.154189e+03,3.500863e+03
1.155153e+03,3.490062e+03
1.156118e+03,3.483556e+03
1.157082e+03,3.482652e+03
1.158046e+03,3.479410e+03
1.159010e+03,3.467368e+03
1.159974e+03,3.453003e+03
1.160939e+03,3.453344e+03
1.161903e+03,3.464754e+03
1.162867e+03,3.466721e+03
1.163831e+03,3.454549e+03
1.164796e+03,3.438298e+03
1.165760e+03,3.430161e+03
1.166724e+03,3.427542e+03
1.167688e+03,3.421817e+03
1.168653e+03,3.413112e+03
1.169617e+03,3.404444e+03
1.170581e+03,3.396890e+03
1.171545e+03,3.392413e+03
1.172510e+03,3.395210e+03
1.173474e+03,3.403183e+03
1.174438e+03,3.410673e+03
1.175402e+03,3.415385e+03
1.176366e+03,3.419364e+03
1.177331e+03,3.427913e+03
1.178295e+03,3.435509e+03
1.179259e+03,3.431739e+03
1.180223e+03,3.417281e+03
1.181188e+03,3.405253e+03
1.182152e+03,3.407767e+03
1.183116e+03,3.411237e+03
1.184080e+03,3.405273e+03
1.185045e+03,3.395029e+03
1.186009e+03,3.389035e+03
1.186973e+03,3.392969e+03
1.187937e+03,3.397118e+03
1.188901e+03,3.397742e+03
1.189866e+03,3.395997e+03
1.190830e+03,3.390725e+03
1.191794e+03,3.381139e+03
1.192758e+03,3.375188e+03
1.193723e+03,3.380469e+03
1.194687e+03,3.385931e+03
1.195651e+03,3.384728e+03
1.196615e+03,3.379887e+03
1.197580e+03,3.379539e+03
1.198544e+03,3.389868e+03
1.199508e+03,3.390110e+03
1.200472e+03,3.373963e+03
1.201437e+03,3.355921e+03
1.202401e+03,3.349294e+03
1.203365e+03,3.356813e+03
1.204329e+03,3.360613e+03
1.205293e+03,3.358803e+03
1.206258e+03,3.356746e+03
1.207222e+03,3.356366e+03
1.208186e+03,3.356680e+03
1.209150e+03,3.354770e+03
1.210115e+03,3.349013e+03
1.211079e+03,3.348527e+03
1.212043e+03,3.356450e+03
1.213007e+03,3.364699e+03
1.213972e+03,3.364887e+03
1.214936e+03,3.358858e+03
1.215900e+03,3.350953e+03
1.216864e+03,3.341692e+03
1.217828e+03,3.335027e+03
1.218793e+03,3.334207e+03
1.219757e+03,3.336071e+03
1.220721e+03,3.334406e+03
1.221685e+03,3.331239e+03
1.222650e+03,3.330984e+03
1.223614e+03,3.333852e+03
1.224578e+03,3.335914e+03
1.225542e+03,3.335302e+03
1.226507e+03,3.333310e+03
1.227471e+03,3.330769e+03
1.228435e+03,3.326774e+03
1.229399e+03,3.320345e+03
1.230364e+03,3.311146e+03
1.231328e+03,3.301048e+03
1.232292e+03,3.291053e+03
1.233256e+03,3.283224e+03
1.234220e+03,3.278099e+03
1.235185e+03,3.276208e+03
1.236149e+03,3.278385e+03
1.237113e+03,3.291404e+03
1.238077e+03,3.303387e+03
1.239042e+03,3.302682e+03
1.240006e+03,3.289989e+03
1.240970e+03,3.284167e+03
1.241934e+03,3.289972e+03
1.242899e+03,3.294084e+03
1.243863e+03,3.294994e+03
1.244827e+03,3.293628e+03
1.245791e+03,3.290523e+03
1.246755e+03,3.285430e+03
1.247720e+03,3.279641e+03
1.248684e+03,3.273049e+03
1.249648e+03,3.268663e+03
1.250612e+03,3.268754e+03
1.251577e+03,3.271077e+03
1.252541e+03,3.269317e+03
1.253505e+03,3.263635e+03
1.254469e+03,3.257474e+03
1.255434e+03,3.252155e+03
1.256398e+03,3.249832e+03
1.257362e+03,3.255307e+03
1.258326e+03,3.262815e+03
1.259291e+03,3.260147e+03
1.260255e+03,3.248412e+03
1.261219e+03,3.240343e+03
1.262183e+03,3.252735e+03
1.263147e+03,3.266494e+03
1.264112e+03,3.264476e+03
1.265076e+03,3.254699e+03
1.266040e+03,3.248405e+03
1.267004e+03,3.249363e+03
1.267969e+03,3.250934e+03
1.268933e+03,3.250989e+03
1.269897e+03,3.253934e+03
1.270861e+03,3.261192e+03
1.271826e+03,3.269897e+03
1.272790e+03,3.276095e+03
1.273754e+03,3.281793e+03
1.274718e+03,3.283484e+03
1.275682e+03,3.280848e+03
1.276647e+03,3.276538e+03
1.277611e+03,3.272397e+03
1.278575e+03,3.267731e+03
1.279539e+03,3.265224e+03
1.280504e+03,3.266785e+03
1.281468e+03,3.270562e+03
1.282432e+03,3.275576e+03
1.283396e+03,3.280001e+03
1.284361e+03,3.277533e+03
1.285325e+03,3.269442e+03
1.286289e+03,3.265061e+03
1.287253e+03,3.266769e+03
1.288218e+03,3.266848e+03
1.289182e+03,3.256525e+03
1.290146e+03,3.242534e+03
1.291110e+03,3.233041e+03
1.292074e+03,3.228081e+03
1.293039e+03,3.223999e+03
1.294003e+03,3.217441e+03
1.294967e+03,3.212167e+03
1.295931e+03,3.213942e+03
1.296896e+03,3.217240e+03
1.297860e+03,3.214587e+03
1.298824e+03,3.202218e+03
1.299788e+03,3.194093e+03
1.300753e+03,3.191699e+03
1.301717e+03,3.191421e+03
1.302681e+03,3.192770e+03
1.303645e+03,3.195005e+03
1.304609e+03,3.196244e+03
1.305574e+03,3.195296e+03
1.306538e+03,3.192399e+03
1.307502e+03,3.188924e+03
1.308466e+03,3.185774e+03
1.309431e+03,3.183097e+03
1.310395e+03,3.180615e+03
1.311359e+03,3.175728e+03
1.312323e+03,3.168140e+03
1.313288e+03,3.162507e+03
1.314252e+03,3.163026e+03
1.315216e+03,3.166559e+03
1.316180e+03,3.170169e+03
1.317145e+03,3.173555e+03
1.318109e+03,3.174818e+03
1.319073e+03,3.172757e+03
1.320037e+03,3.170996e+03
1.321001e+03,3.173845e+03
1.321966e+03,3.174401e+03
1.322930e+03,3.168928e+03
1.323894e+03,3.161583e+03
1.324858e+03,3.158093e+03
1.325823e+03,3.160280e+03
1.326787e+03,3.161817e+03
1.327751e+03,3.161753e+03
1.328715e+03,3.160219e+03
1.329680e+03,3.156810e+03
1.330644e+03,3.153023e+03
1.331608e+03,3.156012e+03
1.332572e+03,3.164882e+03
1.333536e+03,3.171997e+03
1.334501e+03,3.174776e+03
1.335465e+03,3.174582e+03
1.336429e+03,3.173765e+03
1.337393e+03,3.172771e+03
1.338358e+03,3.171087e+03
1.339322e+03,3.169046e+03
1.340286e+03,3.167882e+03
1.341250e+03,3.172123e+03
1.342215e+03,3.172504e+03
1.343179e+03,3.163015e+03
1.344143e+03,3.151871e+03
1.345107e+03,3.145729e+03
1.346072e+03,3.144651e+03
1.347036e+03,3.146470e+03
1.348000e+03,3.153974e+03
1.348964e+03,3.156709e+03
1.349928e+03,3.149709e+03
1.350893e+03,3.139052e+03
1.351857e+03,3.137249e+03
1.352821e+03,3.143271e+03
1.353785e+03,3.149917e+03
1.354750e+03,3.155922e+03
1.355714e+03,3.155309e+03
1.356678e+03,3.137420e+03
1.357642e+03,3.116339e+03
1.358607e+03,3.113448e+03
1.359571e+03,3.121929e+03
1.360535e+03,3.127480e+03
1.361499e+03,3.125406e+03
1.362464e+03,3.121917e+03
1.363428e+03,3.120681e+03
1.364392e+03,3.119364e+03
1.365356e+03,3.113704e+03
1.366320e+03,3.102924e+03
1.367285e+03,3.094490e+03
1.368249e+03,3.090417e+03
1.369213e+03,3.087497e+03
1.370177e+03,3.085524e+03
1.371142e+03,3.083795e+03
1.372106e+03,3.080814e+03
1.373070e+03,3.077173e+03
1.374034e+03,3.078785e+03
1.374999e+03,3.085645e+03
1.375963e+03,3.090966e+03
1.376927e+03,3.091010e+03
1.377891e+03,3.088103e+03
1.378855e+03,3.082812e+03
1.379820e+03,3.076267e+03
1.380784e+03,3.069238e+03
1.381748e+03,3.062824e+03
1.382712e+03,3.060988e+03
1.383677e+03,3.068272e+03
1.384641e+03,3.073126e+03
1.385605e+03,3.071014e+03
1.386569e+03,3.064294e+03
1.387534e+03,3.056616e+03
1.388498e+03,3.047909e+03
1.389462e+03,3.040136e+03
1.390426e+03,3.032319e+03
1.391391e+03,3.027122e+03
1.392355e+03,3.028284e+03
1.393319e+03,3.032784e+03
1.394283e+03,3.032453e+03
1.395247e+03,3.029381e+03
1.396212e+03,3.030240e+03
1.397176e+03,3.036853e+03
1.398140e+03,3.041891e+03
1.399104e+03,3.038605e+03
1.400069e+03,3.033372e+03
1.401033e+03,3.030812e+03
1.401997e+03,3.029658e+03
1.402961e+03,3.025742e+03
1.403926e+03,3.015958e+03
1.404890e+03,3.009787e+03
1.405854e+03,3.008780e+03
1.406818e+03,3.010593e+03
1.407782e+03,3.013962e+03
1.408747e+03,3.019415e+03
1.409711e+03,3.026372e+03
1.410675e+03,3.032880e+03
1.411639e+03,3.038517e+03
1.412604e+03,3.044002e+03
1.413568e+03,3.045289e+03
1.414532e+03,3.037312e+03
1.415496e+03,3.026962e+03
1.416461e+03,3.017711e+03
1.417425e+03,3.009349e+03
1.418389e+03,3.002881e+03
1.419353e+03,3.000209e+03
1.420318e+03,2.997353e+03
1.421282e+03,2.995360e+03
1.422246e+03,2.993650e+03
1.423210e+03,2.990634e+03
1.424174e+03,2.987367e+03
1.425139e+03,2.990176e+03
1.426103e+03,2.997079e+03
1.427067e+03,2.997542e+03
1.428031e+03,2.987375e+03
1.428996e+03,2.975769e+03
1.429960e+03,2.969744e+03
1.430924e+03,2.967046e+03
1.431888e+03,2.965975e+03
1.432853e+03,2.966465e+03
1.433817e+03,2.968322e+03
1.434781e+03,2.979809e+03
1.435745e+03,2.981171e+03
1.436709e+03,2.962875e+03
1.437674e+03,2.941559e+03
1.438638e+03,2.933924e+03
1.439602e+03,2.939165e+03
1.440566e+03,2.938284e+03
1.441531e+03,2.932138e+03
1.442495e+03,2.934723e+03
1.443459e+03,2.953155e+03
1.444423e+03,2.969340e+03
1.445388e+03,2.961356e+03
1.446352e+03,2.943669e+03
1.447316e+03,2.930325e+03
1.448280e+03,2.923649e+03
1.449245e+03,2.921207e+03
1.450209e+03,2.926949e+03
1.451173e+03,2.930191e+03
1.452137e+03,2.926722e+03
1.453101e+03,2.921622e+03
1.454066e+03,2.921568e+03
1.455030e+03,2.925562e+03
1.455994e+03,2.923181e+03
1.456958e+03,2.915536e+03
1.457923e+03,2.910849e+03
1.458887e+03,2.911980e+03
1.459851e+03,2.913890e+03
1.460815e+03,2.911807e+03
1.461780e+03,2.907952e+03
1.462744e+03,2.906522e+03
1.463708e+03,2.907680e+03
1.464672e+03,2.906678e+03
1.465636e+03,2.903708e+03
1.466601e+03,2.899899e+03
1.467565e+03,2.894202e+03
1.468529e+03,2.890284e+03
1.469493e+03,2.892720e+03
1.470458e+03,2.898293e+03
1.471422e+03,2.894868e+03
1.472386e+03,2.885909e+03
1.473350e+03,2.883316e+03
1.474315e+03,2.893021e+03
1.475279e+03,2.899699e+03
1.476243e+03,2.888805e+03
1.477207e+03,2.874731e+03
1.478172e+03,2.869618e+03
1.479136e+03,2.872130e+03
1.480100e+03,2.872510e+03
1.481064e+03,2.870060e+03
1.482028e+03,2.869835e+03
1.482993e+03,2.873162e+03
1.483957e+03,2.877523e+03
1.484921e+03,2.880310e+03
1.485885e+03,2.881698e+03
1.486850e+03,2.881714e+03
1.487814e+03,2.879707e+03
1.488778e+03,2.875745e+03
1.489742e+03,2.869564e+03
1.490707e+03,2.863999e+03
1.491671e+03,2.862011e+03
1.492635e+03,2.861912e+03
1.493599e+03,2.862227e+03
1.494563e+03,2.861930e+03
1.495528e+03,2.859721e+03
1.496492e+03,2.855254e+03
1.497456e+03,2.852012e+03
1.498420e+03,2.851313e+03
1.499385e+03,2.851910e+03
1.500349e+03,2.853389e+03
1.501313e+03,2.855315e+03
1.502277e+03,2.857629e+03
1.503242e+03,2.859065e+03
1.504206e+03,2.857920e+03
1.505170e+03,2.853043e+03
1.506134e+03,2.845684e+03
1.507099e+03,2.833969e+03
1.508063e+03,2.826188e+03
1.509027e+03,2.826433e+03
1.509991e+03,2.829906e+03
1.510955e+03,2.827071e+03
1.511920e+03,2.821612e+03
1.512884e+03,2.825107e+03
1.513848e+03,2.837573e+03
1.514812e+03,2.846063e+03
1.515777e+03,2.837282e+03
1.516741e+03,2.828131e+03
1.517705e+03,2.823600e+03
1.518669e+03,2.821242e+03
1.519634e+03,2.819859e+03
1.520598e+03,2.819041e+03
1.521562e+03,2.821691e+03
1.522526e+03,2.826572e+03
1.523490e+03,2.825695e+03
1.524455e+03,2.815912e+03
1.525419e+03,2.805078e+03
1.526383e+03,2.799666e+03
1.527347e+03,2.797622e+03
1.528312e+03,2.800727e+03
1.529276e+03,2.807766e+03
1.530240e+03,2.809518e+03
1.531204e+03,2.800990e+03
1.532169e+03,2.797700e+03
1.533133e+03,2.802008e+03
1.534097e+03,2.806279e+03
1.535061e+03,2.804378e+03
1.536026e+03,2.798259e+03
1.536990e+03,2.791133e+03
1.537954e+03,2.784120e+03
1.538918e+03,2.778788e+03
1.539882e+03,2.775171e+03
1.540847e+03,2.773521e+03
1.541811e+03,2.773981e+03
1.542775e+03,2.774831e+03
1.543739e+03,2.777315e+03
1.544704e+03,2.780196e+03
1.545668e+03,2.781163e+03
1.546632e+03,2.780451e+03
1.547596e+03,2.775359e+03
1.548561e+03,2.767270e+03
1.549525e+03,2.765030e+03
1.550489e+03,2.777597e+03
1.551453e+03,2.789253e+03
1.552417e+03,2.793966e+03
1.553382e+03,2.793106e+03
1.554346e+03,2.787740e+03
1.555310e+03,2.779119e+03
1.556274e+03,2.773647e+03
1.557239e+03,2.771031e+03
1.558203e+03,2.768916e+03
1.559167e+03,2.766825e+03
1.560131e+03,2.764863e+03
1.561096e+03,2.761950e+03
1.562060e+03,2.761003e+03
1.563024e+03,2.766734e+03
1.563988e+03,2.775464e+03
1.564953e+03,2.778113e+03
1.565917e+03,2.771229e+03
1.566881e+03,2.768546e+03
1.567845e+03,2.769884e+03
1.568809e+03,2.773263e+03
1.569774e+03,2.779142e+03
1.570738e+03,2.784465e+03
1.571702e+03,2.783392e+03
1.572666e+03,2.779910e+03
1.573631e+03,2.780287e+03
1.574595e+03,2.785927e+03
1.575559e+03,2.788574e+03
1.576523e+03,2.789125e+03
1.577488e+03,2.782479e+03
1.578452e+03,2.763250e+03
1.579416e+03,2.745808e+03
1.580380e+03,2.750121e+03
1.581344e+03,2.765750e+03
1.582309e+03,2.773560e+03
1.583273e+03,2.776259e+03
1.584237e+03,2.781179e+03
1.585201e+03,2.794914e+03
1.586166e+03,2.798224e+03
1.587130e+03,2.783297e+03
1.588094e+03,2.767796e+03
1.589058e+03,2.760265e+03
1.590023e+03,2.757066e+03
1.590987e+03,2.748492e+03
1.591951e+03,2.739004e+03
1.592915e+03,2.738533e+03
1.593880e+03,2.745611e+03
1.594844e+03,2.750147e+03
1.595808e+03,2.749719e+03
1.596772e+03,2.744013e+03
1.597736e+03,2.731664e+03
1.598701e+03,2.718901e+03
1.599665e+03,2.710335e+03
1.600629e+03,2.705388e+03
1.601593e+03,2.702888e+03
1.602558e+03,2.701911e+03
1.603522e+03,2.699707e+03
1.604486e+03,2.695308e+03
1.605450e+03,2.689527e+03
1.606415e+03,2.679891e+03
1.607379e+03,2.675009e+03
1.608343e+03,2.679456e+03
1.609307e+03,2.687401e+03
1.610271e+03,2.687320e+03
1.611236e+03,2.681480e+03
1.612200e+03,2.683401e+03
1.613164e+03,2.693013e+03
1.614128e+03,2.701156e+03
1.615093e+03,2.703636e+03
1.616057e+03,2.701677e+03
1.617021e+03,2.690530e+03
1.617985e+03,2.678851e+03
1.618950e+03,2.673244e+03
1.619914e+03,2.671845e+03
1.620878e+03,2.666145e+03
1.621842e+03,2.657861e+03
1.622807e+03,2.653034e+03
1.623771e+03,2.653410e+03
1.624735e+03,2.652852e+03
1.625699e+03,2.642898e+03
1.626663e+03,2.635927e+03
1.627628e+03,2.637315e+03
1.628592e+03,2.640406e+03
1.629556e+03,2.637722e+03
1.630520e+03,2.632142e+03
1.631485e+03,2.635887e+03
1.632449e+03,2.645730e+03
1.633413e+03,2.648132e+03
1.634377e+03,2.634681e+03
1.635342e+03,2.622307e+03
1.636306e+03,2.616870e+03
1.637270e+03,2.615763e+03
1.638234e+03,2.619320e+03
1.639198e+03,2.624844e+03
1.640163e+03,2.624175e+03
1.641127e+03,2.619445e+03
1.642091e+03,2.614987e+03
1.643055e+03,2.610571e+03
1.644020e+03,2.606844e+03
1.644984e+03,2.602813e+03
1.645948e+03,2.599859e+03
1.646912e+03,2.598720e+03
1.647877e+03,2.599429e+03
1.648841e+03,2.603252e+03
1.649805e+03,2.608813e+03
1.650769e+03,2.611312e+03
1.651734e+03,2.610800e+03
1.652698e+03,2.607375e+03
1.653662e+03,2.599519e+03
1.654626e+03,2.593738e+03
1.655590e+03,2.592360e+03
1.656555e+03,2.592820e+03
1.657519e+03,2.596532e+03
1.658483e+03,2.600711e+03
1.659447e+03,2.599300e+03
1.660412e+03,2.593341e+03
1.661376e+03,2.586322e+03
1.662340e+03,2.579514e+03
1.663304e+03,2.573807e+03
1.664269e+03,2.566519e+03
1.665233e+03,2.563291e+03
1.666197e+03,2.564889e+03
1.667161e+03,2.565240e+03
1.668125e+03,2.561020e+03
1.669090e+03,2.555751e+03
1.670054e+03,2.556588e+03
1.671018e+03,2.558935e+03
1.671982e+03,2.555691e+03
1.672947e+03,2.547048e+03
1.673911e+03,2.544759e+03
1.674875e+03,2.549240e+03
1.675839e+03,2.554828e+03
1.676804e+03,2.562505e+03
1.677768e+03,2.566993e+03
1.678732e+03,2.558514e+03
1.679696e+03,2.547393e+03
1.680661e+03,2.543111e+03
1.681625e+03,2.541331e+03
1.682589e+03,2.537082e+03
1.683553e+03,2.530957e+03
1.684517e+03,2.530847e+03
1.685482e+03,2.536154e+03
1.686446e+03,2.539429e+03
1.687410e+03,2.537960e+03
1.688374e+03,2.536635e+03
1.689339e+03,2.539270e+03
1.690303e+03,2.542840e+03
1.691267e+03,2.547338e+03
1.692231e+03,2.550532e+03
1.693196e+03,2.546055e+03
1.694160e+03,2.534608e+03
1.695124e+03,2.526666e+03
1.696088e+03,2.522892e+03
1.697052e+03,2.521693e+03
1.698017e+03,2.523086e+03
1.698981e+03,2.521385e+03
1.699945e+03,2.510379e+03
1.700909e+03,2.501809e+03
1.701874e+03,2.505282e+03
1.702838e+03,2.515629e+03
1.703802e+03,2.519260e+03
1.704766e+03,2.517180e+03
1.705731e+03,2.513247e+03
1.706695e+03,2.508629e+03
1.707659e+03,2.503895e+03
1.708623e+03,2.497443e+03
1.709588e+03,2.499283e+03
1.710552e+03,2.510927e+03
1.711516e+03,2.521133e+03
1.712480e+03,2.520985e+03
1.713444e+03,2.514494e+03
1.714409e+03,2.502685e+03
1.715373e+03,2.490933e+03
1.716337e+03,2.487487e+03
1.717301e+03,2.493151e+03
1.718266e+03,2.494346e+03
1.719230e+03,2.490609e+03
1.720194e+03,2.488240e+03
1.721158e+03,2.488933e+03
1.722123e+03,2.488072e+03
1.723087e+03,2.482206e+03
1.724051e+03,2.473855e+03
1.725015e+03,2.461708e+03
1.725979e+03,2.451864e+03
1.726944e+03,2.452941e+03
1.727908e+03,2.462861e+03
1.728872e+03,2.477389e+03
1.729836e+03,2.492039e+03
1.730801e+03,2.494869e+03
1.731765e+03,2.472929e+03
1.732729e+03,2.460559e+03
1.733693e+03,2.464414e+03
1.734658e+03,2.468077e+03
1.735622e+03,2.463565e+03
1.736586e+03,2.455974e+03
1.737550e+03,2.452613e+03
1.738515e+03,2.450880e+03
1.739479e+03,2.446543e+03
1.740443e+03,2.440802e+03
1.741407e+03,2.442452e+03
1.742371e+03,2.453205e+03
1.743336e+03,2.454117e+03
1.744300e+03,2.443791e+03
1.745264e+03,2.433546e+03
1.746228e+03,2.432206e+03
1.747193e+03,2.433983e+03
1.748157e+03,2.441065e+03
1.749121e+03,2.447019e+03
1.750085e+03,2.443791e+03
1.751050e+03,2.432648e+03
1.752014e+03,2.422887e+03
1.752978e+03,2.416251e+03
1.753942e+03,2.417640e+03
1.754906e+03,2.427469e+03
1.755871e+03,2.430484e+03
1.756835e+03,2.419572e+03
1.757799e+03,2.408929e+03
1.758763e+03,2.403076e+03
1.759728e+03,2.401091e+03
1.760692e+03,2.403130e+03
1.761656e+03,2.406568e+03
1.762620e+03,2.407134e+03
1.763585e+03,2.406862e+03
1.764549e+03,2.409622e+03
1.765513e+03,2.414309e+03
1.766477e+03,2.413792e+03
1.767442e+03,2.409629e+03
1.768406e+03,2.407512e+03
1.769370e+03,2.409529e+03
1.770334e+03,2.412216e+03
1.771298e+03,2.416042e+03
1.772263e+03,2.413524e+03
1.773227e+03,2.400670e+03
1.774191e+03,2.387594e+03
1.775155e+03,2.391251e+03
1.776120e+03,2.400262e+03
1.777084e+03,2.396009e+03
1.778048e+03,2.383504e+03
1.779012e+03,2.378375e+03
1.779977e+03,2.384800e+03
1.780941e+03,2.385575e+03
1.781905e+03,2.379778e+03
1.782869e+03,2.373927e+03
1.783833e+03,2.370743e+03
1.784798e+03,2.369442e+03
1.785762e+03,2.373933e+03
1.786726e+03,2.373446e+03
1.787690e+03,2.360529e+03
1.788655e+03,2.344661e+03
1.789619e+03,2.345601e+03
1.790583e+03,2.355302e+03
1.791547e+03,2.355694e+03
1.792512e+03,2.348218e+03
1.793476e+03,2.346382e+03
1.794440e+03,2.352852e+03
1.795404e+03,2.357476e+03
1.796369e+03,2.359000e+03
1.797333e+03,2.359782e+03
1.798297e+03,2.362558e+03
1.799261e+03,2.363517e+03
1.800225e+03,2.355487e+03
1.801190e+03,2.348011e+03
1.802154e+03,2.349720e+03
1.803118e+03,2.355328e+03
1.804082e+03,2.350866e+03
1.805047e+03,2.341363e+03
1.806011e+03,2.337109e+03
1.806975e+03,2.338484e+03
1.807939e+03,2.337090e+03
1.808904e+03,2.329718e+03
1.809868e+03,2.324645e+03
1.810832e+03,2.323448e+03
1.811796e+03,2.323797e+03
1.812760e+03,2.322124e+03
1.813725e+03,2.322707e+03
1.814689e+03,2.334726e+03
1.815653e+03,2.343628e+03
1.816617e+03,2.336448e+03
1.817582e+03,2.319394e+03
1.818546e+03,2.310652e+03
1.819510e+03,2.307773e+03
1.820474e+03,2.305901e+03
1.821439e+03,2.304782e+03
1.822403e+03,2.308918e+03
1.823367e+03,2.321527e+03
1.824331e+03,2.324301e+03
1.825296e+03,2.313454e+03
1.826260e+03,2.298604e+03
1.827224e+03,2.282457e+03
1.828188e+03,2.274625e+03
1.829152e+03,2.284837e+03
1.830117e+03,2.298206e+03
1.831081e+03,2.303855e+03
1.832045e+03,2.302483e+03
1.833009e+03,2.296854e+03
1.833974e+03,2.290157e+03
1.834938e+03,2.284047e+03
1.835902e+03,2.277750e+03
1.836866e+03,2.276356e+03
1.837831e+03,2.280163e+03
1.838795e+03,2.280790e+03
1.839759e+03,2.277207e+03
1.840723e+03,2.278068e+03
1.841688e+03,2.298480e+03
1.842652e+03,2.308732e+03
1.843616e+03,2.293859e+03
1.844580e+03,2.273586e+03
1.845544e+03,2.270903e+03
1.846509e+03,2.276995e+03
1.847473e+03,2.276609e+03
1.848437e+03,2.271992e+03
1.849401e+03,2.266356e+03
1.850366e+03,2.260359e+03
1.851330e+03,2.261519e+03
1.852294e+03,2.269095e+03
1.853258e+03,2.269507e+03
1.854223e+03,2.258527e+03
1.855187e+03,2.247780e+03
1.856151e+03,2.239130e+03
1.857115e+03,2.235142e+03
1.858079e+03,2.237007e+03
1.859044e+03,2.239918e+03
1.860008e+03,2.239495e+03
1.860972e+03,2.238941e+03
1.861936e+03,2.239232e+03
1.862901e+03,2.242896e+03
1.863865e+03,2.255083e+03
1.864829e+03,2.271474e+03
1.865793e+03,2.265697e+03
1.866758e+03,2.244857e+03
1.867722e+03,2.226864e+03
1.868686e+03,2.215383e+03
1.869650e+03,2.211066e+03
1.870615e+03,2.214089e+03
1.871579e+03,2.217427e+03
1.872543e+03,2.220669e+03
1.873507e+03,2.223080e+03
1.874471e+03,2.219070e+03
1.875436e+03,2.215681e+03
1.876400e+03,2.219106e+03
1.877364e+03,2.222805e+03
1.878328e+03,2.218444e+03
1.879293e+03,2.209230e+03
1.880257e+03,2.198950e+03
1.881221e+03,2.188536e+03
1.882185e+03,2.180707e+03
1.883150e+03,2.175867e+03
1.884114e+03,2.178035e+03
1.885078e+03,2.185528e+03
1.886042e+03,2.190429e+03
1.887006e+03,2.189964e+03
1.887971e+03,2.190979e+03
1.888935e+03,2.201163e+03
1.889899e+03,2.201916e+03
1.890863e+03,2.185916e+03
1.891828e+03,2.168171e+03
1.892792e+03,2.166325e+03
1.893756e+03,2.168375e+03
1.894720e+03,2.168875e+03
1.895685e+03,2.168380e+03
1.896649e+03,2.162375e+03
1.897613e+03,2.154040e+03
1.898577e+03,2.160422e+03
1.899542e+03,2.174987e+03
1.900506e+03,2.183057e+03
1.901470e+03,2.181704e+03
1.902434e+03,2.175122e+03
1.903398e+03,2.163820e+03
1.904363e+03,2.156248e+03
1.905327e+03,2.154970e+03
1.906291e+03,2.155469e+03
1.907255e+03,2.157857e+03
1.908220e+03,2.154169e+03
1.909184e+03,2.141302e+03
1.910148e+03,2.129305e+03
1.911112e+03,2.131001e+03
1.912077e+03,2.137044e+03
1.913041e+03,2.140392e+03
1.914005e+03,2.142615e+03
1.914969e+03,2.146406e+03
1.915933e+03,2.150075e+03
1.916898e+03,2.146031e+03
1.917862e+03,2.137888e+03
1.918826e+03,2.131178e+03
1.919790e+03,2.127433e+03
1.920755e+03,2.130610e+03
1.921719e+03,2.139097e+03
1.922683e+03,2.144588e+03
1.923647e+03,2.146187e+03
1.924612e+03,2.141820e+03
1.925576e+03,2.121727e+03
1.926540e+03,2.111122e+03
1.927504e+03,2.113439e+03
1.928469e+03,2.118243e+03
1.929433e+03,2.116026e+03
1.930397e+03,2.112621e+03
1.931361e+03,2.114972e+03
1.932325e+03,2.115253e+03
1.933290e+03,2.105768e+03
1.934254e+03,2.093894e+03
1.935218e+03,2.095986e+03
1.936182e+03,2.103306e+03
1.937147e+03,2.103142e+03
1.938111e+03,2.096771e+03
1.939075e+03,2.099066e+03
1.940039e+03,2.108653e+03
1.941004e+03,2.108679e+03
1.941968e+03,2.095880e+03
1.942932e+03,2.084021e+03
1.943896e+03,2.077117e+03
1.944860e+03,2.072906e+03
1.945825e+03,2.072120e+03
1.946789e+03,2.074300e+03
1.947753e+03,2.081157e+03
1.948717e+03,2.085778e+03
1.949682e+03,2.083127e+03
1.950646e+03,2.081436e+03
1.951610e+03,2.087650e+03
1.952574e+03,2.094298e+03
1.953539e+03,2.086750e+03
1.954503e+03,2.076812e+03
1.955467e+03,2.080367e+03
1.956431e+03,2.090152e+03
1.957396e+03,2.081060e+03
1.958360e+03,2.061950e+03
1.959324e+03,2.058257e+03
1.960288e+03,2.069582e+03
1.961252e+03,2.072216e+03
1.962217e+03,2.063027e+03
1.963181e+03,2.053813e+03
1.964145e+03,2.045582e+03
1.965109e+03,2.042858e+03
1.966074e+03,2.052667e+03
1.967038e+03,2.062316e+03
1.968002e+03,2.069673e+03
1.968966e+03,2.069109e+03
1.969931e+03,2.054674e+03
1.970895e+03,2.042268e+03
1.971859e+03,2.051238e+03
1.972823e+03,2.060339e+03
1.973787e+03,2.058977e+03
1.974752e+03,2.052936e+03
1.975716e+03,2.053099e+03
1.976680e+03,2.051829e+03
1.977644e+03,2.038161e+03
1.978609e+03,2.021440e+03
1.979573e+03,2.015424e+03
1.980537e+03,2.017234e+03
1.981501e+03,2.022396e+03
1.982466e+03,2.028124e+03
1.983430e+03,2.023901e+03
1.984394e+03,2.006830e+03
1.985358e+03,2.008210e+03
1.986323e+03,2.023858e+03
1.987287e+03,2.028100e+03
1.988251e+03,2.009741e+03
1.989215e+03,2.000768e+03
1.990179e+03,2.007151e+03
1.991144e+03,2.013438e+03
1.992108e+03,2.017121e+03
1.993072e+03,2.016401e+03
1.994036e+03,2.003957e+03
1.995001e+03,1.993514e+03
1.995965e+03,1.988334e+03
1.996929e+03,1.987920e+03
1.997893e+03,1.994717e+03
1.998858e+03,2.000234e+03
1.999822e+03,1.994660e+03
2.000786e+03,1.986263e+03
2.001750e+03,1.983398e+03
2.002714e+03,1.985468e+03
2.003679e+03,1.989691e+03
2.004643e+03,1.993276e+03
2.005607e+03,1.993798e+03
2.006571e+03,1.991404e+03
2.007536e+03,1.979760e+03
2.008500e+03,1.963729e+03
2.009464e+03,1.959101e+03
2.010428e+03,1.967323e+03
2.011393e+03,1.973903e+03
2.012357e+03,1.977702e+03
2.013321e+03,1.979247e+03
2.014285e+03,1.977575e+03
2.015250e+03,1.976114e+03
2.016214e+03,1.978257e+03
2.017178e+03,1.977936e+03
2.018142e+03,1.975503e+03
2.019106e+03,1.969664e+03
2.020071e+03,1.957383e+03
2.021035e+03,1.946258e+03
2.021999e+03,1.939376e+03
2.022963e+03,1.934617e+03
2.023928e+03,1.932138e+03
2.024892e+03,1.931916e+03
2.025856e+03,1.936129e+03
2.026820e+03,1.939321e+03
2.027785e+03,1.937627e+03
2.028749e+03,1.933228e+03
2.029713e+03,1.928575e+03
2.030677e+03,1.925295e+03
2.031641e+03,1.925855e+03
2.032606e+03,1.928216e+03
2.033570e+03,1.928819e+03
2.034534e+03,1.927912e+03
2.035498e+03,1.928691e+03
2.036463e+03,1.930286e+03
2.037427e+03,1.930074e+03
2.038391e+03,1.928966e+03
2.039355e+03,1.924955e+03
2.040320e+03,1.918749e+03
2.041284e+03,1.911080e+03
2.042248e+03,1.901386e+03
2.043212e+03,1.895518e+03
2.044177e+03,1.894267e+03
2.045141e+03,1.899154e+03
2.046105e+03,1.909773e+03
2.047069e+03,1.917786e+03
2.048033e+03,1.914589e+03
2.048998e+03,1.916476e+03
2.049962e+03,1.926180e+03
2.050926e+03,1.929666e+03
2.051890e+03,1.910673e+03
2.052854e+03,1.893961e+03
2.053819e+03,1.885234e+03
2.054783e+03,1.881220e+03
2.055747e+03,1.883621e+03
2.056711e+03,1.887148e+03
2.057676e+03,1.885488e+03
2.058640e+03,1.884106e+03
2.059604e+03,1.884626e+03
2.060568e+03,1.885189e+03
2.061533e+03,1.883966e+03
2.062497e+03,1.882820e+03
2.063461e+03,1.885038e+03
2.064425e+03,1.886950e+03
2.065390e+03,1.882277e+03
2.066354e+03,1.873903e+03
2.067318e+03,1.867187e+03
2.068282e+03,1.862498e+03
2.069247e+03,1.858398e+03
2.070211e+03,1.854559e+03
2.071175e+03,1.853221e+03
2.072139e+03,1.853400e+03
2.073104e+03,1.851543e+03
2.074068e+03,1.847677e+03
2.075032e+03,1.849715e+03
2.075996e+03,1.854442e+03
2.076960e+03,1.848072e+03
2.077925e+03,1.828224e+03
2.078889e+03,1.822910e+03
2.079853e+03,1.833862e+03
2.080817e+03,1.846442e+03
2.081782e+03,1.858157e+03
2.082746e+03,1.862145e+03
2.083710e+03,1.855183e+03
2.084674e+03,1.845057e+03
2.085639e+03,1.833239e+03
2.086603e+03,1.824425e+03
2.087567e+03,1.816240e+03
2.088531e+03,1.815641e+03
2.089496e+03,1.823613e+03
2.090460e+03,1.830156e+03
2.091424e+03,1.835455e+03
2.092388e+03,1.835227e+03
2.093353e+03,1.817427e+03
2.094317e+03,1.807210e+03
2.095281e+03,1.811493e+03
2.096245e+03,1.819139e+03
2.097209e+03,1.820575e+03
2.098174e+03,1.820640e+03
2.099138e+03,1.823289e+03
2.100102e+03,1.824150e+03
2.101066e+03,1.815767e+03
2.102031e+03,1.805851e+03
2.102995e+03,1.801010e+03
2.103959e+03,1.798798e+03
2.104923e+03,1.796365e+03
2.105887e+03,1.797812e+03
2.106852e+03,1.815020e+03
2.107816e+03,1.828260e+03
2.108780e+03,1.816749e+03
2.109744e+03,1.791736e+03
2.110708e+03,1.779230e+03
2.111673e+03,1.776061e+03
2.112637e+03,1.777674e+03
2.113601e+03,1.780837e+03
2.114565e+03,1.784454e+03
2.115530e+03,1.786339e+03
2.116494e+03,1.777041e+03
2.117458e+03,1.764415e+03
2.118422e+03,1.770721e+03
2.119387e+03,1.789466e+03
2.120351e+03,1.789750e+03
2.121315e+03,1.776059e+03
2.122279e+03,1.771879e+03
2.123244e+03,1.778679e+03
2.124208e+03,1.778145e+03
2.125172e+03,1.771922e+03
2.126136e+03,1.761445e+03
2.127101e+03,1.746319e+03
2.128065e+03,1.743304e+03
2.129029e+03,1.750417e+03
2.129993e+03,1.755972e+03
2.130958e+03,1.755993e+03
2.131922e+03,1.755108e+03
2.132886e+03,1.754697e+03
2.133850e+03,1.749179e+03
2.134814e+03,1.740269e+03
2.135779e+03,1.738535e+03
2.136743e+03,1.750305e+03
2.137707e+03,1.754989e+03
2.138671e+03,1.752409e+03
2.139636e+03,1.746594e+03
2.140600e+03,1.738399e+03
2.141564e+03,1.726858e+03
2.142528e+03,1.711650e+03
2.143493e+03,1.706220e+03
2.144457e+03,1.718212e+03
2.145421e+03,1.727139e+03
2.146385e+03,1.728558e+03
2.147350e+03,1.724446e+03
2.148314e+03,1.715098e+03
2.149278e+03,1.710402e+03
2.150242e+03,1.719076e+03
2.151207e+03,1.724305e+03
2.152171e+03,1.722828e+03
2.153135e+03,1.718354e+03
2.154099e+03,1.715265e+03
2.155063e+03,1.711999e+03
2.156028e+03,1.708532e+03
2.156992e+03,1.706080e+03
2.157956e+03,1.700553e+03
2.158920e+03,1.700274e+03
2.159885e+03,1.712553e+03
2.160849e+03,1.721595e+03
2.161813e+03,1.719043e+03
2.162777e+03,1.712408e+03
2.163741e+03,1.707104e+03
2.164706e+03,1.701533e+03
2.165670e+03,1.696289e+03
2.166634e+03,1.693920e+03
2.167598e+03,1.699170e+03
2.168563e+03,1.701223e+03
2.169527e+03,1.692197e+03
2.170491e+03,1.683306e+03
2.171455e+03,1.694037e+03
2.172420e+03,1.703883e+03
2.173384e+03,1.697845e+03
2.174348e+03,1.689165e+03
2.175312e+03,1.688876e+03
2.176277e+03,1.688613e+03
2.177241e+03,1.677066e+03
2.178205e+03,1.666786e+03
2.179169e+03,1.668170e+03
2.180134e+03,1.673398e+03
2.181098e+03,1.667407e+03
2.182062e+03,1.663925e+03
2.183026e+03,1.672117e+03
2.183990e+03,1.682913e+03
2.184955e+03,1.685656e+03
2.185919e+03,1.681496e+03
2.186883e+03,1.667691e+03
2.187847e+03,1.653030e+03
2.188812e+03,1.651262e+03
2.189776e+03,1.653592e+03
2.190740e+03,1.648916e+03
2.191704e+03,1.642780e+03
2.192668e+03,1.641591e+03
2.193633e+03,1.642959e+03
2.194597e+03,1.644359e+03
2.195561e+03,1.645147e+03
2.196525e+03,1.643756e+03
2.197490e+03,1.641057e+03
2.198454e+03,1.638454e+03
2.199418e+03,1.635761e+03
2.200382e+03,1.632755e+03
2.201347e+03,1.631615e+03
2.202311e+03,1.635364e+03
2.203275e+03,1.640592e+03
2.204239e+03,1.643613e+03
2.205204e+03,1.642892e+03
2.206168e+03,1.636516e+03
2.207132e+03,1.629718e+03
2.208096e+03,1.629581e+03
2.209061e+03,1.629207e+03
2.210025e+03,1.621815e+03
2.210989e+03,1.611200e+03
2.211953e+03,1.601143e+03
2.212917e+03,1.597030e+03
2.213882e+03,1.599258e+03
2.214846e+03,1.605260e+03
2.215810e+03,1.618960e+03
2.216774e+03,1.626625e+03
2.217739e+03,1.617127e+03
2.218703e+03,1.602549e+03
2.219667e+03,1.605439e+03
2.220631e+03,1.611925e+03
2.221595e+03,1.607500e+03
2.222560e+03,1.597775e+03
2.223524e+03,1.586623e+03
2.224488e+03,1.579309e+03
2.225452e+03,1.587885e+03
2.226417e+03,1.599611e+03
2.227381e+03,1.602346e+03
2.228345e+03,1.600606e+03
2.229309e+03,1.595764e+03
2.230274e+03,1.590916e+03
2.231238e+03,1.590079e+03
2.232202e+03,1.590177e+03
2.233166e+03,1.588916e+03
2.234131e+03,1.586405e+03
2.235095e+03,1.581325e+03
2.236059e+03,1.576755e+03
2.237023e+03,1.579680e+03
2.237988e+03,1.580907e+03
2.238952e+03,1.572409e+03
2.239916e+03,1.561632e+03
2.240880e+03,1.561502e+03
2.241844e+03,1.562721e+03
2.242809e+03,1.557682e+03
2.243773e+03,1.551818e+03
2.244737e+03,1.548209e+03
2.245701e+03,1.547243e+03
2.246666e+03,1.550961e+03
2.247630e+03,1.554339e+03
2.248594e+03,1.555807e+03
2.249558e+03,1.557019e+03
2.250522e+03,1.557987e+03
2.251487e+03,1.559654e+03
2.252451e+03,1.561840e+03
2.253415e+03,1.560066e+03
2.254379e+03,1.548341e+03
2.255344e+03,1.538328e+03
2.256308e+03,1.534873e+03
2.257272e+03,1.535031e+03
2.258236e+03,1.540334e+03
2.259201e+03,1.540074e+03
2.260165e+03,1.528264e+03
2.261129e+03,1.519970e+03
2.262093e+03,1.536968e+03
2.263058e+03,1.544844e+03
2.264022e+03,1.534341e+03
2.264986e+03,1.522691e+03
2.265950e+03,1.518182e+03
2.266915e+03,1.518218e+03
2.267879e+03,1.521352e+03
2.268843e+03,1.524016e+03
2.269807e+03,1.528377e+03
2.270771e+03,1.526070e+03
2.271736e+03,1.512033e+03
2.272700e+03,1.501813e+03
2.273664e+03,1.497809e+03
2.274628e+03,1.498768e+03
2.275593e+03,1.507141e+03
2.276557e+03,1.507883e+03
2.277521e+03,1.499703e+03
2.278485e+03,1.496476e+03
2.279449e+03,1.509161e+03
2.280414e+03,1.515346e+03
2.281378e+03,1.513618e+03
2.282342e+03,1.510596e+03
2.283306e+03,1.507604e+03
2.284271e+03,1.504265e+03
2.285235e+03,1.500095e+03
2.286199e+03,1.493020e+03
2.287163e+03,1.482931e+03
2.288128e+03,1.477783e+03
2.289092e+03,1.476179e+03
2.290056e+03,1.477816e+03
2.291020e+03,1.483290e+03
2.291985e+03,1.484400e+03
2.292949e+03,1.482613e+03
2.293913e+03,1.480254e+03
2.294877e+03,1.478266e+03
2.295842e+03,1.486682e+03
2.296806e+03,1.502367e+03
2.297770e+03,1.507102e+03
2.298734e+03,1.500957e+03
2.299698e+03,1.490147e+03
2.300663e+03,1.477001e+03
2.301627e+03,1.469398e+03
2.302591e+03,1.466467e+03
2.303555e+03,1.467995e+03
2.304520e+03,1.472219e+03
2.305484e+03,1.471153e+03
2.306448e+03,1.467521e+03
2.307412e+03,1.465139e+03
2.308376e+03,1.462709e+03
2.309341e+03,1.457298e+03
2.310305e+03,1.450676e+03
2.311269e+03,1.446038e+03
2.312233e+03,1.443429e+03
2.313198e+03,1.439503e+03
2.314162e+03,1.437707e+03
2.315126e+03,1.444555e+03
2.316090e+03,1.452917e+03
2.317055e+03,1.457022e+03
2.318019e+03,1.458261e+03
2.318983e+03,1.455161e+03
2.319947e+03,1.451771e+03
2.320912e+03,1.453909e+03
2.321876e+03,1.455161e+03
2.322840e+03,1.447230e+03
2.323804e+03,1.441539e+03
2.324769e+03,1.444951e+03
2.325733e+03,1.449396e+03
2.326697e+03,1.448753e+03
2.327661e+03,1.445987e+03
2.328625e+03,1.440496e+03
2.329590e+03,1.432806e+03
2.330554e+03,1.423510e+03
2.331518e+03,1.416116e+03
2.332482e+03,1.410991e+03
2.333447e+03,1.406850e+03
2.334411e+03,1.400541e+03
2.335375e+03,1.404572e+03
2.336339e+03,1.418889e+03
2.337303e+03,1.426744e+03
2.338268e+03,1.416829e+03
2.339232e+03,1.413461e+03
2.340196e+03,1.416008e+03
2.341160e+03,1.416190e+03
2.342125e+03,1.411171e+03
2.343089e+03,1.415400e+03
2.344053e+03,1.424160e+03
2.345017e+03,1.426634e+03
2.345982e+03,1.422375e+03
2.346946e+03,1.417701e+03
2.347910e+03,1.413730e+03
2.348874e+03,1.410779e+03
2.349839e+03,1.406547e+03
2.350803e+03,1.398049e+03
2.351767e+03,1.387381e+03
2.352731e+03,1.372654e+03
2.353696e+03,1.363308e+03
2.354660e+03,1.376833e+03
2.355624e+03,1.397925e+03
2.356588e+03,1.406377e+03
2.357552e+03,1.407535e+03
2.358517e+03,1.404120e+03
2.359481e+03,1.399337e+03
2.360445e+03,1.397425e+03
2.361409e+03,1.392484e+03
2.362374e+03,1.379643e+03
2.363338e+03,1.368230e+03
2.364302e+03,1.373228e+03
2.365266e+03,1.375970e+03
2.366230e+03,1.369408e+03
2.367195e+03,1.363557e+03
2.368159e+03,1.363687e+03
2.369123e+03,1.369238e+03
2.370087e+03,1.381893e+03
2.371052e+03,1.386918e+03
2.372016e+03,1.372981e+03
2.372980e+03,1.365926e+03
2.373944e+03,1.365969e+03
2.374909e+03,1.364413e+03
2.375873e+03,1.357465e+03
2.376837e+03,1.358701e+03
2.377801e+03,1.365445e+03
2.378766e+03,1.362042e+03
2.379730e+03,1.347658e+03
2.380694e+03,1.345748e+03
2.381658e+03,1.352384e+03
2.382623e+03,1.355938e+03
2.383587e+03,1.355513e+03
2.384551e+03,1.348971e+03
2.385515e+03,1.340824e+03
2.386479e+03,1.342555e+03
2.387444e+03,1.347515e+03
2.388408e+03,1.345465e+03
2.389372e+03,1.342121e+03
2.390336e+03,1.341653e+03
2.391301e+03,1.343637e+03
2.392265e+03,1.352383e+03
2.393229e+03,1.355004e+03
2.394193e+03,1.341434e+03
2.395157e+03,1.329293e+03
2.396122e+03,1.332905e+03
2.397086e+03,1.332632e+03
2.398050e+03,1.320992e+03
2.399014e+03,1.315781e+03
2.399979e+03,1.325353e+03
2.400943e+03,1.332745e+03
2.401907e+03,1.334674e+03
2.402871e+03,1.332322e+03
2.403836e+03,1.326254e+03
2.404800e+03,1.325329e+03
2.405764e+03,1.329016e+03
2.406728e+03,1.322010e+03
2.407693e+03,1.305967e+03
2.408657e+03,1.306098e+03
2.409621e+03,1.319351e+03
2.410585e+03,1.326842e+03
2.411550e+03,1.326946e+03
2.412514e+03,1.317141e+03
2.413478e+03,1.303306e+03
2.414442e+03,1.302091e+03
2.415406e+03,1.306340e+03
2.416371e+03,1.308440e+03
2.417335e+03,1.308399e+03
2.418299e+03,1.303417e+03
2.419263e+03,1.299416e+03
2.420228e+03,1.299086e+03
2.421192e+03,1.301425e+03
2.422156e+03,1.312787e+03
2.423120e+03,1.312595e+03
2.424084e+03,1.292892e+03
2.425049e+03,1.278603e+03
2.426013e+03,1.288457e+03
2.426977e+03,1.295339e+03
2.427941e+03,1.297785e+03
2.428906e+03,1.297641e+03
2.429870e+03,1.294299e+03
2.430834e+03,1.291715e+03
2.431798e+03,1.289746e+03
2.432763e+03,1.283675e+03
2.433727e+03,1.273836e+03
2.434691e+03,1.273672e+03
2.435655e+03,1.279597e+03
2.436620e+03,1.286066e+03
2.437584e+03,1.290436e+03
2.438548e+03,1.283606e+03
2.439512e+03,1.275564e+03
2.440477e+03,1.277029e+03
2.441441e+03,1.278904e+03
2.442405e+03,1.265860e+03
2.443369e+03,1.257418e+03
2.444333e+03,1.263523e+03
2.445298e+03,1.272374e+03
2.446262e+03,1.274579e+03
2.447226e+03,1.274745e+03
2.448190e+03,1.274486e+03
2.449155e+03,1.272878e+03
2.450119e+03,1.269585e+03
2.451083e+03,1.264631e+03
2.452047e+03,1.258336e+03
2.453011e+03,1.258140e+03
2.453976e+03,1.266890e+03
2.454940e+03,1.263108e+03
2.455904e+03,1.252320e+03
2.456868e+03,1.248438e+03
2.457833e+03,1.249238e+03
2.458797e+03,1.247396e+03
2.459761e+03,1.245540e+03
2.460725e+03,1.247660e+03
2.461690e+03,1.248973e+03
2.462654e+03,1.237846e+03
2.463618e+03,1.229861e+03
2.464582e+03,1.235654e+03
2.465547e+03,1.245179e+03
2.466511e+03,1.250368e+03
2.467475e+03,1.250018e+03
2.468439e+03,1.243963e+03
2.469404e+03,1.238152e+03
2.470368e+03,1.238795e+03
2.471332e+03,1.237160e+03
2.472296e+03,1.232700e+03
2.473260e+03,1.231664e+03
2.474225e+03,1.236192e+03
2.475189e+03,1.235637e+03
2.476153e+03,1.232144e+03
2.477117e+03,1.227680e+03
2.478082e+03,1.223676e+03
2.479046e+03,1.226130e+03
2.480010e+03,1.231585e+03
2.480974e+03,1.238330e+03
2.481938e+03,1.241344e+03
2.482903e+03,1.226462e+03
2.483867e+03,1.216734e+03
2.484831e+03,1.225009e+03
2.485795e+03,1.234313e+03
2.486760e+03,1.230637e+03
2.487724e+03,1.228626e+03
2.488688e+03,1.231315e+03
2.489652e+03,1.233220e+03
2.490617e+03,1.233473e+03
2.491581e+03,1.216712e+03
2.492545e+03,1.188576e+03
2.493509e+03,1.181714e+03
2.494474e+03,1.198242e+03
2.495438e+03,1.212701e+03
2.496402e+03,1.221863e+03
2.497366e+03,1.214268e+03
2.498331e+03,1.200273e+03
2.499295e+03,1.200047e+03
2.500259e+03,1.201651e+03
2.501223e+03,1.195387e+03
2.502188e+03,1.188865e+03
2.503152e+03,1.189591e+03
2.504116e+03,1.193397e+03
2.505080e+03,1.198976e+03
2.506044e+03,1.204182e+03
2.507009e+03,1.208608e+03
2.507973e+03,1.205931e+03
2.508937e+03,1.197476e+03
2.509901e+03,1.193480e+03
2.510865e+03,1.196314e+03
2.511830e+03,1.196196e+03
2.512794e+03,1.194566e+03
2.513758e+03,1.200729e+03
2.514722e+03,1.210634e+03
2.515687e+03,1.210023e+03
2.516651e+03,1.203086e+03
2.517615e+03,1.193731e+03
2.518579e+03,1.185033e+03
2.519544e+03,1.179278e+03
2.520508e+03,1.179785e+03
2.521472e+03,1.188856e+03
2.522436e+03,1.193658e+03
2.523401e+03,1.179920e+03
2.524365e+03,1.172446e+03
2.525329e+03,1.171395e+03
2.526293e+03,1.167234e+03
2.527258e+03,1.158125e+03
2.528222e+03,1.156975e+03
2.529186e+03,1.161317e+03
2.530150e+03,1.162636e+03
2.531115e+03,1.162918e+03
2.532079e+03,1.170970e+03
2.533043e+03,1.178846e+03
2.534007e+03,1.178756e+03
2.534971e+03,1.171815e+03
2.535936e+03,1.153790e+03
2.536900e+03,1.143785e+03
2.537864e+03,1.149500e+03
2.538828e+03,1.154934e+03
2.539792e+03,1.148875e+03
2.540757e+03,1.147779e+03
2.541721e+03,1.153177e+03
2.542685e+03,1.155800e+03
2.543649e+03,1.155652e+03
2.544614e+03,1.163225e+03
2.545578e+03,1.172672e+03
2.546542e+03,1.167516e+03
2.547506e+03,1.155467e+03
2.548471e+03,1.154683e+03
2.549435e+03,1.157266e+03
2.550399e+03,1.156451e+03
2.551363e+03,1.155015e+03
2.552328e+03,1.156565e+03
2.553292e+03,1.157305e+03
2.554256e+03,1.156265e+03
2.555220e+03,1.151805e+03
2.556185e+03,1.143678e+03
2.557149e+03,1.139307e+03
2.558113e+03,1.139854e+03
2.559077e+03,1.140721e+03
2.560042e+03,1.140441e+03
2.561006e+03,1.135668e+03
2.561970e+03,1.131130e+03
2.562934e+03,1.133989e+03
2.563898e+03,1.138346e+03
2.564863e+03,1.137467e+03
2.565827e+03,1.132284e+03
2.566791e+03,1.120518e+03
2.567755e+03,1.115090e+03
2.568719e+03,1.117191e+03
2.569684e+03,1.120542e+03
2.570648e+03,1.123194e+03
2.571612e+03,1.128685e+03
2.572576e+03,1.136625e+03
2.573541e+03,1.135890e+03
2.574505e+03,1.126976e+03
2.575469e+03,1.126992e+03
2.576433e+03,1.129741e+03
2.577398e+03,1.126767e+03
2.578362e+03,1.122238e+03
2.579326e+03,1.123266e+03
2.580290e+03,1.122392e+03
2.581255e+03,1.115629e+03
2.582219e+03,1.109032e+03
2.583183e+03,1.108153e+03
2.584147e+03,1.107094e+03
2.585112e+03,1.106990e+03
2.586076e+03,1.105688e+03
2.587040e+03,1.102719e+03
2.588004e+03,1.112020e+03
2.588969e+03,1.124499e+03
2.589933e+03,1.122612e+03
2.590897e+03,1.112487e+03
2.591861e+03,1.102062e+03
2.592825e+03,1.096991e+03
2.593790e+03,1.101799e+03
2.594754e+03,1.105029e+03
2.595718e+03,1.098051e+03
2.596682e+03,1.090708e+03
2.597646e+03,1.084175e+03
2.598611e+03,1.080844e+03
2.599575e+03,1.081456e+03
2.600539e+03,1.086087e+03
2.601503e+03,1.092191e+03
2.602468e+03,1.091158e+03
2.603432e+03,1.086619e+03
2.604396e+03,1.086654e+03
2.605360e+03,1.089648e+03
2.606325e+03,1.096168e+03
2.607289e+03,1.098570e+03
2.608253e+03,1.093490e+03
2.609217e+03,1.089110e+03
2.610182e+03,1.087890e+03
2.611146e+03,1.085946e+03
2.612110e+03,1.083286e+03
2.613074e+03,1.077536e+03
2.614039e+03,1.070942e+03
2.615003e+03,1.078732e+03
2.615967e+03,1.088144e+03
2.616931e+03,1.080143e+03
2.617896e+03,1.068931e+03
2.618860e+03,1.076117e+03
2.619824e+03,1.079213e+03
2.620788e+03,1.069193e+03
2.621752e+03,1.058549e+03
2.622717e+03,1.052843e+03
2.623681e+03,1.058170e+03
2.624645e+03,1.072158e+03
2.625609e+03,1.076205e+03
2.626573e+03,1.071269e+03
2.627538e+03,1.072584e+03
2.628502e+03,1.075938e+03
2.629466e+03,1.073023e+03
2.630430e+03,1.067974e+03
2.631395e+03,1.065809e+03
2.632359e+03,1.063676e+03
2.633323e+03,1.061496e+03
2.634287e+03,1.054552e+03
2.635252e+03,1.042519e+03
2.636216e+03,1.040320e+03
2.637180e+03,1.049786e+03
2.638144e+03,1.056619e+03
2.639109e+03,1.059607e+03
2.640073e+03,1.056748e+03
2.641037e+03,1.051256e+03
2.642001e+03,1.042248e+03
2.642966e+03,1.033647e+03
2.643930e+03,1.026479e+03
2.644894e+03,1.025670e+03
2.645858e+03,1.042556e+03
2.646823e+03,1.048414e+03
2.647787e+03,1.042365e+03
2.648751e+03,1.038407e+03
2.649715e+03,1.038358e+03
2.650679e+03,1.041157e+03
2.651644e+03,1.043927e+03
2.652608e+03,1.041295e+03
2.653572e+03,1.038005e+03
2.654536e+03,1.043848e+03
2.655500e+03,1.048256e+03
2.656465e+03,1.047724e+03
2.657429e+03,1.040950e+03
2.658393e+03,1.026223e+03
2.659357e+03,1.022638e+03
2.660322e+03,1.031733e+03
2.661286e+03,1.030013e+03
2.662250e+03,1.023547e+03
2.663214e+03,1.038128e+03
2.664179e+03,1.054469e+03
2.665143e+03,1.046265e+03
2.666107e+03,1.034635e+03
2.667071e+03,1.030740e+03
2.668036e+03,1.028848e+03
2.669000e+03,1.022997e+03
2.669964e+03,1.029274e+03
2.670928e+03,1.044257e+03
2.671893e+03,1.044249e+03
2.672857e+03,1.032470e+03
2.673821e+03,1.028567e+03
2.674785e+03,1.028166e+03
2.675750e+03,1.027414e+03
2.676714e+03,1.025786e+03
2.677678e+03,1.021163e+03
2.678642e+03,1.015678e+03
2.679606e+03,1.009693e+03
2.680571e+03,1.011378e+03
2.681535e+03,1.020652e+03
2.682499e+03,1.015810e+03
2.683463e+03,1.000521e+03
2.684427e+03,9.955906e+02
2.685392e+03,9.991946e+02
2.686356e+03,1.014380e+03
2.687320e+03,1.025123e+03
2.688284e+03,1.015831e+03
2.689249e+03,1.010815e+03
2.690213e+03,1.014814e+03
2.691177e+03,1.014802e+03
2.692141e+03,1.007278e+03
2.693106e+03,1.000735e+03
2.694070e+03,9.962683e+02
2.695034e+03,9.972654e+02
2.695998e+03,9.993693e+02
2.696963e+03,9.920683e+02
2.697927e+03,9.901020e+02
2.698891e+03,1.000535e+03
2.699855e+03,1.006196e+03
2.700820e+03,9.975706e+02
2.701784e+03,9.976725e+02
2.702748e+03,1.005481e+03
2.703712e+03,9.994042e+02
2.704677e+03,9.850227e+02
2.705641e+03,9.853994e+02
2.706605e+03,9.912447e+02
2.707569e+03,9.861629e+02
2.708533e+03,9.882781e+02
2.709498e+03,1.006810e+03
2.710462e+03,1.016315e+03
2.711426e+03,1.002114e+03
2.712390e+03,9.969696e+02
2.713354e+03,9.987630e+02
2.714319e+03,9.952144e+02
2.715283e+03,9.891229e+02
2.716247e+03,9.887094e+02
2.717211e+03,9.938604e+02
2.718176e+03,1.005995e+03
2.719140e+03,1.010388e+03
2.720104e+03,9.929540e+02
2.721068e+03,9.774850e+02
2.722033e+03,9.676676e+02
2.722997e+03,9.675496e+02
2.723961e+03,9.740244e+02
2.724925e+03,9.827371e+02
2.725890e+03,9.879039e+02
2.726854e+03,9.747624e+02
2.727818e+03,9.673006e+02
2.728782e+03,9.781066e+02
2.729747e+03,9.886534e+02
2.730711e+03,9.912205e+02
2.731675e+03,9.859859e+02
2.732639e+03,9.752509e+02
2.733604e+03,9.657492e+02
2.734568e+03,9.586830e+02
2.735532e+03,9.579320e+02
2.736496e+03,9.594449e+02
2.737460e+03,9.608041e+02
2.738425e+03,9.617047e+02
2.739389e+03,9.611450e+02
2.740353e+03,9.637242e+02
2.741317e+03,9.693217e+02
2.742281e+03,9.581964e+02
2.743246e+03,9.386115e+02
2.744210e+03,9.370106e+02
2.745174e+03,9.457178e+02
2.746138e+03,9.654628e+02
2.747103e+03,9.757916e+02
2.748067e+03,9.702002e+02
2.749031e+03,9.621385e+02
2.749995e+03,9.571070e+02
2.750960e+03,9.480314e+02
2.751924e+03,9.377711e+02
2.752888e+03,9.339088e+02
2.753852e+03,9.359616e+02
2.754817e+03,9.491591e+02
2.755781e+03,9.607082e+02
2.756745e+03,9.635323e+02
2.757709e+03,9.603221e+02
2.758674e+03,9.516628e+02
2.759638e+03,9.416251e+02
2.760602e+03,9.325856e+02
2.761566e+03,9.341228e+02
2.762531e+03,9.413350e+02
2.763495e+03,9.447883e+02
2.764459e+03,9.446940e+02
2.765423e+03,9.373083e+02
2.766387e+03,9.384697e+02
2.767352e+03,9.514438e+02
2.768316e+03,9.560643e+02
2.769280e+03,9.483093e+02
2.770244e+03,9.380842e+02
2.771208e+03,9.291570e+02
2.772173e+03,9.274446e+02
2.773137e+03,9.262379e+02
2.774101e+03,9.182172e+02
2.775065e+03,9.138732e+02
2.776030e+03,9.183069e+02
2.776994e+03,9.167120e+02
2.777958e+03,9.094820e+02
2.778922e+03,9.128279e+02
2.779887e+03,9.230296e+02
2.780851e+03,9.262604e+02
2.781815e+03,9.275508e+02
2.782779e+03,9.320331e+02
2.783744e+03,9.359345e+02
2.784708e+03,9.366240e+02
2.785672e+03,9.304333e+02
2.786636e+03,9.187857e+02
2.787601e+03,9.153784e+02
2.788565e+03,9.185723e+02
2.789529e+03,9.240043e+02
2.790493e+03,9.280078e+02
2.791458e+03,9.268113e+02
2.792422e+03,9.203336e+02
2.793386e+03,9.103777e+02
2.794350e+03,9.086539e+02
2.795314e+03,9.171708e+02
2.796279e+03,9.097592e+02
2.797243e+03,8.984274e+02
2.798207e+03,9.049937e+02
2.799171e+03,9.167305e+02
2.800135e+03,9.183523e+02
2.801100e+03,9.160259e+02
2.802064e+03,9.110648e+02
2.803028e+03,9.123668e+02
2.803992e+03,9.185225e+02
2.804957e+03,9.239680e+02
2.805921e+03,9.259413e+02
2.806885e+03,9.127550e+02
2.807849e+03,9.059598e+02
2.808814e+03,9.154031e+02
2.809778e+03,9.274256e+02
2.810742e+03,9.391591e+02
2.811706e+03,9.330311e+02
2.812671e+03,9.124499e+02
2.813635e+03,8.897645e+02
2.814599e+03,8.752223e+02
2.815563e+03,9.029393e+02
2.816528e+03,9.231857e+02
2.817492e+03,9.073240e+02
2.818456e+03,9.030217e+02
2.819420e+03,9.127897e+02
2.820385e+03,9.013217e+02
2.821349e+03,8.782761e+02
2.822313e+03,8.967039e+02
2.823277e+03,9.176773e+02
2.824241e+03,9.082993e+02
2.825206e+03,8.988015e+02
2.826170e+03,9.111043e+02
2.827134e+03,9.056776e+02
2.828098e+03,8.817565e+02
2.829063e+03,8.759781e+02
2.830027e+03,8.819742e+02
2.830991e+03,8.886696e+02
2.831955e+03,8.951083e+02
2.832919e+03,8.974167e+02
2.833884e+03,9.016968e+02
2.834848e+03,9.080257e+02
2.835812e+03,9.081783e+02
2.836776e+03,9.033027e+02
2.837741e+03,9.108852e+02
2.838705e+03,9.131891e+02
2.839669e+03,8.853489e+02
2.840633e+03,8.697479e+02
2.841598e+03,8.904240e+02
2.842562e+03,9.079510e+02
2.843526e+03,9.132659e+02
2.844490e+03,9.069045e+02
2.845455e+03,8.970556e+02
2.846419e+03,9.013449e+02
2.847383e+03,9.081802e+02
2.848347e+03,9.041522e+02
2.849312e+03,8.980797e+02
2.850276e+03,8.918339e+02
2.851240e+03,9.000130e+02
2.852204e+03,9.163593e+02
2.853168e+03,9.092772e+02
2.854133e+03,8.931776e+02
2.855097e+03,8.841301e+02
2.856061e+03,8.837023e+02
2.857025e+03,8.897054e+02
2.857990e+03,8.932426e+02
2.858954e+03,8.919637e+02
2.859918e+03,8.992750e+02
2.860882e+03,9.052855e+02
2.861846e+03,8.932328e+02
2.862811e+03,8.779383e+02
2.863775e+03,8.700741e+02
2.864739e+03,8.785501e+02
2.865703e+03,9.075350e+02
2.866668e+03,9.048487e+02
2.867632e+03,8.824072e+02
2.868596e+03,8.771123e+02
2.869560e+03,8.798282e+02
2.870525e+03,8.836640e+02
2.871489e+03,8.863705e+02
2.872453e+03,8.870192e+02
2.873417e+03,8.854140e+02
2.874382e+03,8.825563e+02
2.875346e+03,8.912097e+02
2.876310e+03,9.022645e+02
2.877274e+03,8.986710e+02
2.878239e+03,8.940119e+02
2.879203e+03,8.932255e+02
2.880167e+03,8.899433e+02
2.881131e+03,8.831469e+02
2.882095e+03,8.848014e+02
2.883060e+03,8.913033e+02
2.884024e+03,8.967237e+02
2.884988e+03,8.974303e+02
2.885952e+03,8.863353e+02
2.886917e+03,8.882452e+02
2.887881e+03,9.106617e+02
2.888845e+03,9.080751e+02
2.889809e+03,8.915174e+02
2.890773e+03,8.863112e+02
2.891738e+03,8.867177e+02
2.892702e+03,8.919471e+02
2.893666e+03,8.932318e+02
2.894630e+03,8.895054e+02
2.895595e+03,8.936368e+02
2.896559e+03,9.028291e+02
2.897523e+03,9.033146e+02
2.898487e+03,8.988078e+02
2.899452e+03,8.892059e+02
2.900416e+03,8.859941e+02
2.901380e+03,8.903179e+02
2.902344e+03,8.868225e+02
2.903309e+03,8.737365e+02
2.904273e+03,8.533189e+02
2.905237e+03,8.386984e+02
2.906201e+03,8.433566e+02
2.907166e+03,8.522900e+02
2.908130e+03,8.581652e+02
2.909094e+03,8.713947e+02
2.910058e+03,8.911053e+02
2.911022e+03,8.911895e+02
2.911987e+03,8.837714e+02
2.912951e+03,8.823171e+02
2.913915e+03,8.801786e+02
2.914879e+03,8.700197e+02
2.915844e+03,8.719713e+02
2.916808e+03,8.833673e+02
2.917772e+03,8.690931e+02
2.918736e+03,8.493450e+02
2.919700e+03,8.587386e+02
2.920665e+03,8.668910e+02
2.921629e+03,8.479746e+02
2.922593e+03,8.367151e+02
2.923557e+03,8.354006e+02
2.924522e+03,8.438526e+02
2.925486e+03,8.546605e+02
2.926450e+03,8.536371e+02
2.927414e+03,8.460572e+02
2.928379e+03,8.300510e+02
2.929343e+03,8.291097e+02
2.930307e+03,8.405781e+02
2.931271e+03,8.435074e+02
2.932236e+03,8.422833e+02
2.933200e+03,8.445901e+02
2.934164e+03,8.486254e+02
2.935128e+03,8.532916e+02
2.936093e+03,8.470718e+02
2.937057e+03,8.333055e+02
2.938021e+03,8.338070e+02
2.938985e+03,8.423521e+02
2.939949e+03,8.481930e+02
2.940914e+03,8.525325e+02
2.941878e+03,8.566765e+02
2.942842e+03,8.462826e+02
2.943806e+03,8.211083e+02
2.944771e+03,8.263079e+02
2.945735e+03,8.449905e+02
2.946699e+03,8.601480e+02
2.947663e+03,8.546024e+02
2.948627e+03,8.249853e+02
2.949592e+03,8.087026e+02
2.950556e+03,8.131436e+02
2.951520e+03,8.287978e+02
2.952484e+03,8.418864e+02
2.953449e+03,8.377377e+02
2.954413e+03,8.396872e+02
2.955377e+03,8.584887e+02
2.956341e+03,8.759678e+02
2.957306e+03,8.849046e+02
2.958270e+03,8.640074e+02
2.959234e+03,8.396925e+02
2.960198e+03,8.364708e+02
2.961163e+03,8.309186e+02
2.962127e+03,8.078106e+02
2.963091e+03,8.108075e+02
2.964055e+03,8.321760e+02
2.965020e+03,8.397341e+02
2.965984e+03,8.378864e+02
2.966948e+03,8.282626e+02
2.967912e+03,8.241523e+02
2.968876e+03,8.341523e+02
2.969841e+03,8.315801e+02
2.970805e+03,8.197352e+02
2.971769e+03,8.069395e+02
2.972733e+03,7.952784e+02
2.973698e+03,7.844576e+02
2.974662e+03,7.908917e+02
2.975626e+03,8.200935e+02
2.976590e+03,8.278739e+02
2.977554e+03,8.192112e+02
2.978519e+03,7.996149e+02
2.979483e+03,7.861900e+02
2.980447e+03,7.922015e+02
2.981411e+03,8.024959e+02
2.982376e+03,8.117826e+02
2.983340e+03,7.984507e+02
2.984304e+03,7.793298e+02
2.985268e+03,7.706002e+02
2.986233e+03,7.724643e+02
2.987197e+03,7.894094e+02
2.988161e+03,7.964496e+02
2.989125e+03,7.967431e+02
2.990090e+03,8.066683e+02
2.991054e+03,8.126426e+02
2.992018e+03,8.040327e+02
2.992982e+03,7.878358e+02
2.993947e+03,7.641743e+02
2.994911e+03,7.705118e+02
2.995875e+03,7.917598e+02
2.996839e+03,8.005040e+02
2.997803e+03,8.006039e+02
2.998768e+03,7.957493e+02
2.999732e+03,7.886000e+02
3.000696e+03,7.819355e+02
3.001660e+03,7.893687e+02
3.002625e+03,7.977971e+02
3.003589e+03,7.948310e+02
3.004553e+03,7.908278e+02
3.005517e+03,7.915817e+02
3.006481e+03,7.901345e+02
3.007446e+03,7.878942e+02
3.008410e+03,8.001869e+02
3.009374e+03,8.055516e+02
3.010338e+03,7.925666e+02
3.011303e+03,7.798701e+02
3.012267e+03,7.719912e+02
3.013231e+03,7.744713e+02
3.014195e+03,7.796310e+02
3.015160e+03,7.753762e+02
3.016124e+03,7.654117e+02
3.017088e+03,7.516679e+02
3.018052e+03,7.555320e+02
3.019017e+03,7.764150e+02
3.019981e+03,7.971679e+02
3.020945e+03,8.051456e+02
3.021909e+03,7.878722e+02
3.022874e+03,7.747736e+02
3.023838e+03,7.715199e+02
3.024802e+03,7.655697e+02
3.025766e+03,7.602748e+02
3.026730e+03,7.707201e+02
3.027695e+03,7.779915e+02
3.028659e+03,7.744277e+02
3.029623e+03,7.676158e+02
3.030587e+03,7.599243e+02
3.031552e+03,7.480840e+02
3.032516e+03,7.417054e+02
3.033480e+03,7.628170e+02
3.034444e+03,7.709821e+02
3.035408e+03,7.627380e+02
3.036373e+03,7.802800e+02
3.037337e+03,8.105809e+02
3.038301e+03,8.140012e+02
3.039265e+03,7.994434e+02
3.040230e+03,7.540986e+02
3.041194e+03,7.352582e+02
3.042158e+03,7.419474e+02
3.043122e+03,7.603763e+02
3.044087e+03,7.792753e+02
3.045051e+03,7.849613e+02
3.046015e+03,7.854583e+02
3.046979e+03,7.822418e+02
3.047944e+03,7.733582e+02
3.048908e+03,7.686186e+02
3.049872e+03,7.832752e+02
3.050836e+03,7.944849e+02
3.051801e+03,7.855352e+02
3.052765e+03,7.808199e+02
3.053729e+03,7.784930e+02
3.054693e+03,7.531740e+02
3.055657e+03,7.435543e+02
3.056622e+03,7.753023e+02
3.057586e+03,7.877271e+02
3.058550e+03,7.636335e+02
3.059514e+03,7.644255e+02
3.060479e+03,7.754506e+02
3.061443e+03,7.704212e+02
3.062407e+03,7.518647e+02
3.063371e+03,7.240690e+02
3.064335e+03,7.250079e+02
3.065300e+03,7.476169e+02
3.066264e+03,7.492609e+02
3.067228e+03,7.505494e+02
3.068192e+03,7.664731e+02
3.069157e+03,7.646188e+02
3.070121e+03,7.492418e+02
3.071085e+03,7.542090e+02
3.072049e+03,7.647603e+02
3.073014e+03,7.557670e+02
3.073978e+03,7.517563e+02
3.074942e+03,7.576313e+02
3.075906e+03,7.672855e+02
3.076871e+03,7.697194e+02
3.077835e+03,7.451744e+02
3.078799e+03,7.315219e+02
3.079763e+03,7.586244e+02
3.080728e+03,7.608663e+02
3.081692e+03,7.450648e+02
3.082656e+03,7.534227e+02
3.083620e+03,7.602495e+02
3.084584e+03,7.512546e+02
3.085549e+03,7.533727e+02
3.086513e+03,7.713422e+02
3.087477e+03,7.579130e+02
3.088441e+03,7.386873e+02
3.089406e+03,7.431113e+02
3.090370e+03,7.516511e+02
3.091334e+03,7.588970e+02
3.092298e+03,7.598583e+02
3.093262e+03,7.553652e+02
3.094227e+03,7.390756e+02
3.095191e+03,7.299031e+02
3.096155e+03,7.353826e+02
3.097119e+03,7.486267e+02
3.098084e+03,7.635208e+02
3.099048e+03,7.694202e+02
3.100012e+03,7.702695e+02
3.100976e+03,7.684614e+02
3.101941e+03,7.616844e+02
3.102905e+03,7.518720e+02
3.103869e+03,7.471575e+02
3.104833e+03,7.463084e+02
3.105798e+03,7.475740e+02
3.106762e+03,7.638350e+02
3.107726e+03,7.936637e+02
3.108690e+03,7.743398e+02
3.109655e+03,7.398954e+02
3.110619e+03,7.290094e+02
3.111583e+03,7.292448e+02
3.112547e+03,7.367985e+02
3.113511e+03,7.508836e+02
3.114476e+03,7.659173e+02
3.115440e+03,7.782224e+02
3.116404e+03,7.665051e+02
3.117368e+03,7.132593e+02
3.118333e+03,7.298604e+02
3.119297e+03,7.736243e+02
3.120261e+03,7.700994e+02
3.121225e+03,7.479401e+02
3.122189e+03,7.229634e+02
3.123154e+03,7.315165e+02
3.124118e+03,7.609045e+02
3.125082e+03,7.563529e+02
3.126046e+03,7.370132e+02
3.127011e+03,7.128766e+02
3.127975e+03,7.138704e+02
3.128939e+03,7.361799e+02
3.129903e+03,7.731161e+02
3.130868e+03,8.003073e+02
3.131832e+03,7.855935e+02
3.132796e+03,7.792285e+02
3.133760e+03,7.789777e+02
3.134725e+03,7.492246e+02
3.135689e+03,7.201348e+02
3.136653e+03,7.197409e+02
3.137617e+03,7.354209e+02
3.138582e+03,7.640978e+02
3.139546e+03,7.478591e+02
3.140510e+03,7.268207e+02
3.141474e+03,7.509170e+02
3.142438e+03,7.583855e+02
3.143403e+03,7.412672e+02
3.144367e+03,7.259557e+02
3.145331e+03,7.161868e+02
3.146295e+03,7.107367e+02
3.147260e+03,7.303199e+02
3.148224e+03,7.781516e+02
3.149188e+03,7.811736e+02
3.150152e+03,7.617615e+02
3.151116e+03,7.521144e+02
3.152081e+03,7.473607e+02
3.153045e+03,7.432064e+02
3.154009e+03,7.466925e+02
3.154973e+03,7.549446e+02
3.155938e+03,7.613826e+02
3.156902e+03,7.655839e+02
3.157866e+03,7.651298e+02
3.158830e+03,7.305325e+02
3.159795e+03,6.924317e+02
3.160759e+03,7.403016e+02
3.161723e+03,7.819792e+02
3.162687e+03,7.617882e+02
3.163652e+03,7.486689e+02
3.164616e+03,7.462531e+02
3.165580e+03,7.568998e+02
3.166544e+03,7.694274e+02
3.167509e+03,7.791822e+02
3.168473e+03,7.797449e+02
3.169437e+03,7.713961e+02
3.170401e+03,7.514827e+02
3.171365e+03,7.249328e+02
3.172330e+03,6.939553e+02
3.173294e+03,7.127848e+02
3.174258e+03,7.560649e+02
3.175222e+03,7.713734e+02
3.176187e+03,7.658416e+02
3.177151e+03,7.422745e+02
3.178115e+03,7.328109e+02
3.179079e+03,7.401493e+02
3.180043e+03,7.710545e+02
3.181008e+03,7.815757e+02
3.181972e+03,7.601608e+02
3.182936e+03,7.506381e+02
3.183900e+03,7.505245e+02
3.184865e+03,7.319837e+02
3.185829e+03,7.248121e+02
3.186793e+03,7.651979e+02
3.187757e+03,7.764368e+02
3.188722e+03,7.691182e+02
3.189686e+03,7.712411e+02
3.190650e+03,7.751241e+02
3.191614e+03,7.767300e+02
3.192579e+03,7.873143e+02
3.193543e+03,7.990568e+02
3.194507e+03,7.843194e+02
3.195471e+03,7.592081e+02
3.196436e+03,7.272380e+02
3.197400e+03,7.250216e+02
3.198364e+03,7.401516e+02
3.199328e+03,7.510217e+02
3.200292e+03,7.586008e+02
3.201257e+03,0.000000e+00
3.202221e+03,0.000000e+00
3.203185e+03,0.000000e+00
3.204149e+03,0.000000e+00
3.205114e+03,0.000000e+00
3.206078e+03,0.000000e+00
3.207042e+03,0.000000e+00
3.208006e+03,0.000000e+00
3.208970e+03,0.000000e+00
3.209935e+03,0.000000e+00
3.210899e+03,0.000000e+00
3.211863e+03,0.000000e+00
3.212827e+03,0.000000e+00
3.213792e+03,0.000000e+00
3.214756e+03,0.000000e+00
3.215720e+03,0.000000e+00
3.216684e+03,0.000000e+00
3.217649e+03,0.000000e+00
3.218613e+03,0.000000e+00
3.219577e+03,0.000000e+00
3.220541e+03,0.000000e+00
3.221506e+03,0.000000e+00
3.222470e+03,0.000000e+00
3.223434e+03,0.000000e+00
3.224398e+03,0.000000e+00
3.225363e+03,0.000000e+00
3.226327e+03,0.000000e+00
3.227291e+03,0.000000e+00
3.228255e+03,0.000000e+00
3.229219e+03,0.000000e+00
3.230184e+03,0.000000e+00
3.231148e+03,0.000000e+00
3.232112e+03,0.000000e+00
3.233076e+03,0.000000e+00
3.234041e+03,0.000000e+00
3.235005e+03,0.000000e+00
3.235969e+03,0.000000e+00
3.236933e+03,0.000000e+00
3.237897e+03,0.000000e+00
3.238862e+03,0.000000e+00
3.239826e+03,0.000000e+00
3.240790e+03,0.000000e+00
3.241754e+03,0.000000e+00
3.242719e+03,0.000000e+00
3.243683e+03,0.000000e+00
3.244647e+03,0.000000e+00
3.245611e+03,0.000000e+00
3.246576e+03,0.000000e+00
3.247540e+03,0.000000e+00
3.248504e+03,0.000000e+00
3.249468e+03,0.000000e+00
3.250433e+03,0.000000e+00
3.251397e+03,0.000000e+00
3.252361e+03,0.000000e+00
3.253325e+03,0.000000e+00
3.254290e+03,0.000000e+00
3.255254e+03,0.000000e+00
3.256218e+03,0.000000e+00
3.257182e+03,0.000000e+00
3.258146e+03,0.000000e+00
3.259111e+03,0.000000e+00
3.260075e+03,0.000000e+00
3.261039e+03,0.000000e+00
3.262003e+03,0.000000e+00
3.262968e+03,0.000000e+00
3.263932e+03,0.000000e+00
3.264896e+03,0.000000e+00
3.265860e+03,0.000000e+00
3.266824e+03,0.000000e+00
3.267789e+03,0.000000e+00
3.268753e+03,0.000000e+00
3.269717e+03,0.000000e+00
3.270681e+03,0.000000e+00
3.271646e+03,0.000000e+00
3.272610e+03,0.000000e+00
3.273574e+03,0.000000e+00
3.274538e+03,0.000000e+00
3.275503e+03,0.000000e+00
3.276467e+03,0.000000e+00
3.277431e+03,0.000000e+00
3.278395e+03,0.000000e+00
3.279360e+03,0.000000e+00
3.280324e+03,0.000000e+00
3.281288e+03,0.000000e+00
3.282252e+03,0.000000e+00
3.283217e+03,0.000000e+00
3.284181e+03,0.000000e+00
3.285145e+03,0.000000e+00
3.286109e+03,0.000000e+00
3.287073e+03,0.000000e+00
3.288038e+03,0.000000e+00
3.289002e+03,0.000000e+00
3.289966e+03,0.000000e+00
3.290930e+03,0.000000e+00
3.291895e+03,0.000000e+00
3.292859e+03,0.000000e+00
3.293823e+03,0.000000e+00
3.294787e+03,0.000000e+00
3.295751e+03,0.000000e+00
3.296716e+03,0.000000e+00
3.297680e+03,0.000000e+00
3.298644e+03,0.000000e+00
3.299608e+03,0.000000e+00
3.300573e+03,0.000000e+00
3.301537e+03,0.000000e+00
3.302501e+03,0.000000e+00
3.303465e+03,0.000000e+00
3.304430e+03,0.000000e+00
3.305394e+03,0.000000e+00
3.306358e+03,0.000000e+00
3.307322e+03,0.000000e+00
3.308287e+03,0.000000e+00
3.309251e+03,0.000000e+00
3.310215e+03,0.000000e+00
3.311179e+03,0.000000e+00
3.312144e+03,0.000000e+00
3.313108e+03,0.000000e+00
3.314072e+03,0.000000e+00
3.315036e+03,0.000000e+00
3.316000e+03,0.000000e+00
3.316965e+03,0.000000e+00
3.317929e+03,0.000000e+00
3.318893e+03,0.000000e+00
3.319857e+03,0.000000e+00
3.320822e+03,0.000000e+00
3.321786e+03,0.000000e+00
3.322750e+03,0.000000e+00
3.323714e+03,0.000000e+00
3.324678e+03,0.000000e+00
3.325643e+03,0.000000e+00
3.326607e+03,0.000000e+00
3.327571e+03,0.000000e+00
3.328535e+03,0.000000e+00
3.329500e+03,0.000000e+00
3.330464e+03,0.000000e+00
3.331428e+03,0.000000e+00
3.332392e+03,0.000000e+00
3.333357e+03,0.000000e+00
3.334321e+03,0.000000e+00
3.335285e+03,0.000000e+00
3.336249e+03,0.000000e+00
3.337214e+03,0.000000e+00
3.338178e+03,0.000000e+00
3.339142e+03,0.000000e+00
3.340106e+03,0.000000e+00
3.341071e+03,0.000000e+00
3.342035e+03,0.000000e+00
3.342999e+03,0.000000e+00
3.343963e+03,0.000000e+00
3.344927e+03,0.000000e+00
3.345892e+03,0.000000e+00
3.346856e+03,0.000000e+00
3.347820e+03,0.000000e+00
3.348784e+03,0.000000e+00
3.349749e+03,0.000000e+00
3.350713e+03,0.000000e+00
3.351677e+03,0.000000e+00
3.352641e+03,0.000000e+00
3.353605e+03,0.000000e+00
3.354570e+03,0.000000e+00
3.355534e+03,0.000000e+00
3.356498e+03,0.000000e+00
3.357462e+03,0.000000e+00
3.358427e+03,0.000000e+00
3.359391e+03,0.000000e+00
3.360355e+03,0.000000e+00
3.361319e+03,0.000000e+00
3.362284e+03,0.000000e+00
3.363248e+03,0.000000e+00
3.364212e+03,0.000000e+00
3.365176e+03,0.000000e+00
3.366141e+03,0.000000e+00
3.367105e+03,0.000000e+00
3.368069e+03,0.000000e+00
3.369033e+03,0.000000e+00
3.369998e+03,0.000000e+00
3.370962e+03,0.000000e+00
3.371926e+03,0.000000e+00
3.372890e+03,0.000000e+00
3.373854e+03,0.000000e+00
3.374819e+03,0.000000e+00
3.375783e+03,0.000000e+00
3.376747e+03,0.000000e+00
3.377711e+03,0.000000e+00
3.378676e+03,0.000000e+00
3.379640e+03,0.000000e+00
3.380604e+03,0.000000e+00
3.381568e+03,0.000000e+00
3.382532e+03,0.000000e+00
3.383497e+03,0.000000e+00
3.384461e+03,0.000000e+00
3.385425e+03,0.000000e+00
3.386389e+03,0.000000e+00
3.387354e+03,0.000000e+00
3.388318e+03,0.000000e+00
3.389282e+03,0.000000e+00
3.390246e+03,0.000000e+00
3.391211e+03,0.000000e+00
3.392175e+03,0.000000e+00
3.393139e+03,0.000000e+00
3.394103e+03,0.000000e+00
3.395068e+03,0.000000e+00
3.396032e+03,0.000000e+00
3.396996e+03,0.000000e+00
3.397960e+03,0.000000e+00
3.398925e+03,0.000000e+00
3.399889e+03,0.000000e+00
3.400853e+03,0.000000e+00
3.401817e+03,0.000000e+00
3.402781e+03,0.000000e+00
3.403746e+03,0.000000e+00
3.404710e+03,0.000000e+00
3.405674e+03,0.000000e+00
3.406638e+03,0.000000e+00
3.407603e+03,0.000000e+00
3.408567e+03,0.000000e+00
3.409531e+03,0.000000e+00
3.410495e+03,0.000000e+00
3.411459e+03,0.000000e+00
3.412424e+03,0.000000e+00
3.413388e+03,0.000000e+00
3.414352e+03,0.000000e+00
3.415316e+03,0.000000e+00
3.416281e+03,0.000000e+00
3.417245e+03,0.000000e+00
3.418209e+03,0.000000e+00
3.419173e+03,0.000000e+00
3.420138e+03,0.000000e+00
3.421102e+03,0.000000e+00
3.422066e+03,0.000000e+00
3.423030e+03,0.000000e+00
3.423995e+03,0.000000e+00
3.424959e+03,0.000000e+00
3.425923e+03,0.000000e+00
3.426887e+03,0.000000e+00
3.427852e+03,0.000000e+00
3.428816e+03,0.000000e+00
3.429780e+03,0.000000e+00
3.430744e+03,0.000000e+00
3.431708e+03,0.000000e+00
3.432673e+03,0.000000e+00
3.433637e+03,0.000000e+00
3.434601e+03,0.000000e+00
3.435565e+03,0.000000e+00
3.436530e+03,0.000000e+00
3.437494e+03,0.000000e+00
3.438458e+03,0.000000e+00
3.439422e+03,0.000000e+00
3.440386e+03,0.000000e+00
3.441351e+03,0.000000e+00
3.442315e+03,0.000000e+00
3.443279e+03,0.000000e+00
3.444243e+03,0.000000e+00
3.445208e+03,0.000000e+00
3.446172e+03,0.000000e+00
3.447136e+03,0.000000e+00
3.448100e+03,0.000000e+00
3.449065e+03,0.000000e+00
3.450029e+03,0.000000e+00
3.450993e+03,0.000000e+00
3.451957e+03,0.000000e+00
3.452922e+03,0.000000e+00
3.453886e+03,0.000000e+00
3.454850e+03,0.000000e+00
3.455814e+03,0.000000e+00
3.456779e+03,0.000000e+00
3.457743e+03,0.000000e+00
3.458707e+03,0.000000e+00
3.459671e+03,0.000000e+00
3.460635e+03,0.000000e+00
3.461600e+03,0.000000e+00
3.462564e+03,0.000000e+00
3.463528e+03,0.000000e+00
3.464492e+03,0.000000e+00
3.465457e+03,0.000000e+00
3.466421e+03,0.000000e+00
3.467385e+03,0.000000e+00
3.468349e+03,0.000000e+00
3.469313e+03,0.000000e+00
3.470278e+03,0.000000e+00
3.471242e+03,0.000000e+00
3.472206e+03,0.000000e+00
3.473170e+03,0.000000e+00
3.474135e+03,0.000000e+00
3.475099e+03,0.000000e+00
3.476063e+03,0.000000e+00
3.477027e+03,0.000000e+00
3.477992e+03,0.000000e+00
3.478956e+03,0.000000e+00
3.479920e+03,0.000000e+00
3.480884e+03,0.000000e+00
3.481849e+03,0.000000e+00
3.482813e+03,0.000000e+00
3.483777e+03,0.000000e+00
3.484741e+03,0.000000e+00
3.485706e+03,0.000000e+00
3.486670e+03,0.000000e+00
3.487634e+03,0.000000e+00
3.488598e+03,0.000000e+00
3.489563e+03,0.000000e+00
3.490527e+03,0.000000e+00
3.491491e+03,0.000000e+00
3.492455e+03,0.000000e+00
3.493419e+03,0.000000e+00
3.494384e+03,0.000000e+00
3.495348e+03,0.000000e+00
3.496312e+03,0.000000e+00
3.497276e+03,0.000000e+00
3.498240e+03,0.000000e+00
3.499205e+03,0.000000e+00
3.500169e+03,0.000000e+00
