9.931763e+01,0.000000e+00
1.002819e+02,0.000000e+00
1.012461e+02,0.000000e+00
1.022103e+02,0.000000e+00
1.031746e+02,0.000000e+00
1.041388e+02,0.000000e+00
1.051030e+02,0.000000e+00
1.060673e+02,0.000000e+00
1.070315e+02,0.000000e+00
1.079957e+02,0.000000e+00
1.089600e+02,0.000000e+00
1.099242e+02,0.000000e+00
1.108884e+02,0.000000e+00
1.118527e+02,0.000000e+00
1.128169e+02,0.000000e+00
1.137811e+02,0.000000e+00
1.147454e+02,0.000000e+00
1.157096e+02,0.000000e+00
1.166738e+02,0.000000e+00
1.176381e+02,0.000000e+00
1.186023e+02,0.000000e+00
1.195665e+02,0.000000e+00
1.205308e+02,0.000000e+00
1.214950e+02,0.000000e+00
1.224592e+02,0.000000e+00
1.234235e+02,0.000000e+00
1.243877e+02,0.000000e+00
1.253519e+02,0.000000e+00
1.263162e+02,0.000000e+00
1.272804e+02,0.000000e+00
1.282446e+02,0.000000e+00
1.292089e+02,0.000000e+00
1.301731e+02,0.000000e+00
1.311373e+02,0.000000e+00
1.321016e+02,0.000000e+00
1.330658e+02,0.000000e+00
1.340300e+02,0.000000e+00
1.349943e+02,0.000000e+00
1.359585e+02,0.000000e+00
1.369227e+02,0.000000e+00
1.378870e+02,0.000000e+00
1.388512e+02,0.000000e+00
1.398154e+02,0.000000e+00
1.407797e+02,0.000000e+00
1.417439e+02,0.000000e+00
1.427081e+02,0.000000e+00
1.436724e+02,0.000000e+00
1.446366e+02,0.000000e+00
1.456008e+02,0.000000e+00
1.465651e+02,0.000000e+00
1.475293e+02,0.000000e+00
1.484935e+02,0.000000e+00
1.494578e+02,0.000000e+00
1.504220e+02,0.000000e+00
1.513862e+02,0.000000e+00
1.523505e+02,0.000000e+00
1.533147e+02,0.000000e+00
1.542789e+02,0.000000e+00
1.552432e+02,0.000000e+00
1.562074e+02,0.000000e+00
1.571716e+02,0.000000e+00
1.581359e+02,0.000000e+00
1.591001e+02,0.000000e+00
1.600643e+02,0.000000e+00
1.610286e+02,0.000000e+00
1.619928e+02,0.000000e+00
1.629570e+02,0.000000e+00
1.639213e+02,0.000000e+00
1.648855e+02,0.000000e+00
1.658497e+02,0.000000e+00
1.668140e+02,0.000000e+00
1.677782e+02,0.000000e+00
1.687424e+02,0.000000e+00
1.697067e+02,0.000000e+00
1.706709e+02,0.000000e+00
1.716351e+02,0.000000e+00
1.725994e+02,0.000000e+00
1.735636e+02,0.000000e+00
1.745278e+02,0.000000e+00
1.754921e+02,0.000000e+00
1.764563e+02,0.000000e+00
1.774205e+02,0.000000e+00
1.783848e+02,0.000000e+00
1.793490e+02,0.000000e+00
1.803132e+02,0.000000e+00
1.812775e+02,0.000000e+00
1.822417e+02,0.000000e+00
1.832059e+02,0.000000e+00
1.841702e+02,0.000000e+00
1.851344e+02,0.000000e+00
1.860986e+02,0.000000e+00
1.870629e+02,0.000000e+00
1.880271e+02,0.000000e+00
1.889913e+02,0.000000e+00
1.899556e+02,0.000000e+00
1.909198e+02,0.000000e+00
1.918840e+02,0.000000e+00
1.928483e+02,0.000000e+00
1.938125e+02,0.000000e+00
1.947767e+02,0.000000e+00
1.957410e+02,0.000000e+00
1.967052e+02,0.000000e+00
1.976694e+02,0.000000e+00
1.986337e+02,0.000000e+00
1.995979e+02,2.241957e+03
2.005621e+02,2.248128e+03
2.015264e+02,2.252949e+03
2.024906e+02,2.255008e+03
2.034548e+02,2.256707e+03
2.044191e+02,2.257580e+03
2.053833e+02,2.257589e+03
2.063475e+02,2.257510e+03
2.073118e+02,2.259125e+03
2.082760e+02,2.264210e+03
2.092402e+02,2.265325e+03
2.102045e+02,2.258808e+03
2.111687e+02,2.251490e+03
2.121329e+02,2.248131e+03
2.130972e+02,2.250633e+03
2.140614e+02,2.256807e+03
2.150256e+02,2.262457e+03
2.159899e+02,2.268916e+03
2.169541e+02,2.273121e+03
2.179183e+02,2.273891e+03
2.188826e+02,2.271587e+03
2.198468e+02,2.268393e+03
2.208110e+02,2.265023e+03
2.217753e+02,2.261250e+03
2.227395e+02,2.258569e+03
2.237037e+02,2.259897e+03
2.246680e+02,2.262432e+03
2.256322e+02,2.263039e+03
2.265964e+02,2.261305e+03
2.275607e+02,2.259028e+03
2.285249e+02,2.257562e+03
2.294892e+02,2.256819e+03
2.304534e+02,2.257625e+03
2.314176e+02,2.260319e+03
2.323819e+02,2.264067e+03
2.333461e+02,2.267241e+03
2.343103e+02,2.269251e+03
2.352746e+02,2.270940e+03
2.362388e+02,2.273442e+03
2.372030e+02,2.276741e+03
2.381673e+02,2.279446e+03
2.391315e+02,2.280547e+03
2.400957e+02,2.281428e+03
2.410600e+02,2.281442e+03
2.420242e+02,2.280628e+03
2.429884e+02,2.279577e+03
2.439527e+02,2.278555e+03
2.449169e+02,2.276622e+03
2.458811e+02,2.273085e+03
2.468454e+02,2.272087e+03
2.478096e+02,2.275153e+03
2.487738e+02,2.279603e+03
2.497381e+02,2.283999e+03
2.507023e+02,2.288019e+03
2.516665e+02,2.291526e+03
2.526308e+02,2.294121e+03
2.535950e+02,2.294373e+03
2.545592e+02,2.293279e+03
2.555235e+02,2.291058e+03
2.564877e+02,2.288151e+03
2.574519e+02,2.284971e+03
2.584161e+02,2.281723e+03
2.593804e+02,2.278985e+03
2.603446e+02,2.279426e+03
2.613088e+02,2.286867e+03
2.622731e+02,2.293046e+03
2.632373e+02,2.294144e+03
2.642015e+02,2.290364e+03
2.651658e+02,2.285986e+03
2.661300e+02,2.287100e+03
2.670942e+02,2.296070e+03
2.680585e+02,2.301567e+03
2.690227e+02,2.297476e+03
2.699869e+02,2.290990e+03
2.709512e+02,2.287284e+03
2.719154e+02,2.290013e+03
2.728796e+02,2.294887e+03
2.738439e+02,2.294817e+03
2.748081e+02,2.288594e+03
2.757723e+02,2.284264e+03
2.767366e+02,2.286325e+03
2.777008e+02,2.292315e+03
2.786650e+02,2.297758e+03
2.796293e+02,2.302833e+03
2.805935e+02,2.307245e+03
2.815577e+02,2.309678e+03
2.825220e+02,2.309397e+03
2.834862e+02,2.307004e+03
2.844504e+02,2.303773e+03
2.854147e+02,2.299555e+03
2.863789e+02,2.295901e+03
2.873431e+02,2.293805e+03
2.883074e+02,2.293390e+03
2.892716e+02,2.294234e+03
2.902358e+02,2.295879e+03
2.912001e+02,2.298036e+03
2.921643e+02,2.298581e+03
2.931285e+02,2.296878e+03
2.940928e+02,2.295328e+03
2.950570e+02,2.294291e+03
2.960212e+02,2.293569e+03
2.969855e+02,2.293245e+03
2.979497e+02,2.294164e+03
2.989139e+02,2.297759e+03
2.998782e+02,2.300403e+03
3.008424e+02,2.303129e+03
3.018066e+02,2.305766e+03
3.027709e+02,2.307183e+03
3.037351e+02,2.306394e+03
3.046993e+02,2.304284e+03
3.056636e+02,2.303189e+03
3.066278e+02,2.304160e+03
3.075920e+02,2.304823e+03
3.085563e+02,2.302814e+03
3.095205e+02,2.299999e+03
3.104847e+02,2.299812e+03
3.114490e+02,2.305682e+03
3.124132e+02,2.314031e+03
3.133774e+02,2.317507e+03
3.143417e+02,2.313747e+03
3.153059e+02,2.307118e+03
3.162701e+02,2.304648e+03
3.172344e+02,2.309041e+03
3.181986e+02,2.311996e+03
3.191628e+02,2.309745e+03
3.201271e+02,2.304551e+03
3.210913e+02,2.300537e+03
3.220555e+02,2.299491e+03
3.230198e+02,2.300780e+03
3.239840e+02,2.301238e+03
3.249482e+02,2.298582e+03
3.259125e+02,2.297074e+03
3.268767e+02,2.298406e+03
3.278409e+02,2.302244e+03
3.288052e+02,2.307327e+03
3.297694e+02,2.313622e+03
3.307336e+02,2.322295e+03
3.316979e+02,2.325353e+03
3.326621e+02,2.316620e+03
3.336263e+02,2.305786e+03
3.345906e+02,2.297222e+03
3.355548e+02,2.292513e+03
3.365190e+02,2.291315e+03
3.374833e+02,2.293964e+03
3.384475e+02,2.300775e+03
3.394117e+02,2.306718e+03
3.403760e+02,2.308438e+03
3.413402e+02,2.307665e+03
3.423044e+02,2.307859e+03
3.432687e+02,2.310855e+03
3.442329e+02,2.314003e+03
3.451971e+02,2.314082e+03
3.461614e+02,2.310412e+03
3.471256e+02,2.305214e+03
3.480898e+02,2.300930e+03
3.490541e+02,2.298358e+03
3.500183e+02,2.297370e+03
3.509825e+02,2.300998e+03
3.519468e+02,2.305616e+03
3.529110e+02,2.307176e+03
3.538752e+02,2.304257e+03
3.548395e+02,2.299319e+03
3.558037e+02,2.297585e+03
3.567680e+02,2.302044e+03
3.577322e+02,2.305043e+03
3.586964e+02,2.305667e+03
3.596607e+02,2.305551e+03
3.606249e+02,2.305856e+03
3.615891e+02,2.306394e+03
3.625534e+02,2.306207e+03
3.635176e+02,2.304861e+03
3.644818e+02,2.303185e+03
3.654461e+02,2.300813e+03
3.664103e+02,2.297139e+03
3.673745e+02,2.293636e+03
3.683388e+02,2.293528e+03
3.693030e+02,2.297629e+03
3.702672e+02,2.304225e+03
3.712315e+02,2.312329e+03
3.721957e+02,2.322062e+03
3.731599e+02,2.330580e+03
3.741242e+02,2.334187e+03
3.750884e+02,2.328469e+03
3.760526e+02,2.326048e+03
3.770169e+02,2.331285e+03
3.779811e+02,2.338730e+03
3.789453e+02,2.341371e+03
3.799096e+02,2.335289e+03
3.808738e+02,2.322650e+03
3.818380e+02,2.312368e+03
3.828023e+02,2.307491e+03
3.837665e+02,2.303161e+03
3.847307e+02,2.295588e+03
3.856950e+02,2.286824e+03
3.866592e+02,2.281697e+03
3.876234e+02,2.285498e+03
3.885877e+02,2.295012e+03
3.895519e+02,2.301117e+03
3.905161e+02,2.302737e+03
3.914804e+02,2.300914e+03
3.924446e+02,2.295838e+03
3.934088e+02,2.286815e+03
3.943731e+02,2.280046e+03
3.953373e+02,2.277835e+03
3.963015e+02,2.278503e+03
3.972658e+02,2.279935e+03
3.982300e+02,2.281716e+03
3.991942e+02,2.284495e+03
4.001585e+02,2.288212e+03
4.011227e+02,2.293640e+03
4.020869e+02,2.297382e+03
4.030512e+02,2.297120e+03
4.040154e+02,2.294247e+03
4.049796e+02,2.291561e+03
4.059439e+02,2.290550e+03
4.069081e+02,2.290886e+03
4.078723e+02,2.291880e+03
4.088366e+02,2.293731e+03
4.098008e+02,2.294127e+03
4.107650e+02,2.292418e+03
4.117293e+02,2.289049e+03
4.126935e+02,2.285761e+03
4.136577e+02,2.283583e+03
4.146220e+02,2.281637e+03
4.155862e+02,2.277900e+03
4.165504e+02,2.271702e+03
4.175147e+02,2.265855e+03
4.184789e+02,2.264760e+03
4.194431e+02,2.276679e+03
4.204074e+02,2.283194e+03
4.213716e+02,2.280145e+03
4.223358e+02,2.272970e+03
4.233001e+02,2.267103e+03
4.242643e+02,2.264973e+03
4.252285e+02,2.266078e+03
4.261928e+02,2.269563e+03
4.271570e+02,2.277052e+03
4.281212e+02,2.283786e+03
4.290855e+02,2.286827e+03
4.300497e+02,2.287140e+03
4.310139e+02,2.287116e+03
4.319782e+02,2.288325e+03
4.329424e+02,2.289711e+03
4.339066e+02,2.289592e+03
4.348709e+02,2.287545e+03
4.358351e+02,2.284296e+03
4.367993e+02,2.280349e+03
4.377636e+02,2.274662e+03
4.387278e+02,2.271721e+03
4.396920e+02,2.273319e+03
4.406563e+02,2.276895e+03
4.416205e+02,2.281252e+03
4.425847e+02,2.285851e+03
4.435490e+02,2.289154e+03
4.445132e+02,2.288591e+03
4.454774e+02,2.283501e+03
4.464417e+02,2.279413e+03
4.474059e+02,2.276907e+03
4.483701e+02,2.275696e+03
4.493344e+02,2.276000e+03
4.502986e+02,2.281294e+03
4.512628e+02,2.285759e+03
4.522271e+02,2.283865e+03
4.531913e+02,2.276869e+03
4.541555e+02,2.270517e+03
4.551198e+02,2.268363e+03
4.560840e+02,2.270543e+03
4.570482e+02,2.270317e+03
4.580125e+02,2.266735e+03
4.589767e+02,2.263709e+03
4.599409e+02,2.261644e+03
4.609052e+02,2.260026e+03
4.618694e+02,2.258584e+03
4.628336e+02,2.258083e+03
4.637979e+02,2.258434e+03
4.647621e+02,2.257171e+03
4.657263e+02,2.254049e+03
4.666906e+02,2.250899e+03
4.676548e+02,2.248447e+03
4.686190e+02,2.246207e+03
4.695833e+02,2.244611e+03
4.705475e+02,2.244297e+03
4.715117e+02,2.244263e+03
4.724760e+02,2.242806e+03
4.734402e+02,2.239334e+03
4.744044e+02,2.235579e+03
4.753687e+02,2.235663e+03
4.763329e+02,2.243907e+03
4.772971e+02,2.249431e+03
4.782614e+02,2.248905e+03
4.792256e+02,2.245676e+03
4.801898e+02,2.243709e+03
4.811541e+02,2.244621e+03
4.821183e+02,2.247018e+03
4.830826e+02,2.249375e+03
4.840468e+02,2.251539e+03
4.850110e+02,2.252903e+03
4.859753e+02,2.253577e+03
4.869395e+02,2.253380e+03
4.879037e+02,2.251538e+03
4.888680e+02,2.246158e+03
4.898322e+02,2.241232e+03
4.907964e+02,2.239241e+03
4.917607e+02,2.240188e+03
4.927249e+02,2.242347e+03
4.936891e+02,2.244150e+03
4.946534e+02,2.245500e+03
4.956176e+02,2.246980e+03
4.965818e+02,2.249281e+03
4.975461e+02,2.251261e+03
4.985103e+02,2.252208e+03
4.994745e+02,2.252033e+03
5.004388e+02,2.248938e+03
5.014030e+02,2.239085e+03
5.023672e+02,2.227087e+03
5.033315e+02,2.221091e+03
5.042957e+02,2.223878e+03
5.052599e+02,2.231157e+03
5.062242e+02,2.234168e+03
5.071884e+02,2.230196e+03
5.081526e+02,2.226868e+03
5.091169e+02,2.225218e+03
5.100811e+02,2.225207e+03
5.110453e+02,2.226526e+03
5.120095e+02,2.230343e+03
5.129738e+02,2.234570e+03
5.139380e+02,2.236048e+03
5.149022e+02,2.234898e+03
5.158665e+02,2.233793e+03
5.168307e+02,2.233506e+03
5.177949e+02,2.232906e+03
5.187592e+02,2.230782e+03
5.197234e+02,2.229083e+03
5.206876e+02,2.227631e+03
5.216519e+02,2.226372e+03
5.226161e+02,2.225408e+03
5.235803e+02,2.224604e+03
5.245446e+02,2.223951e+03
5.255088e+02,2.223335e+03
5.264730e+02,2.222231e+03
5.274373e+02,2.220970e+03
5.284015e+02,2.218574e+03
5.293657e+02,2.212926e+03
5.303300e+02,2.203644e+03
5.312942e+02,2.195745e+03
5.322584e+02,2.191133e+03
5.332227e+02,2.189325e+03
5.341869e+02,2.189919e+03
5.351511e+02,2.192314e+03
5.361154e+02,2.194919e+03
5.370796e+02,2.195865e+03
5.380438e+02,2.194907e+03
5.390081e+02,2.194642e+03
5.399723e+02,2.196698e+03
5.409365e+02,2.199213e+03
5.419008e+02,2.199871e+03
5.428650e+02,2.197401e+03
5.438292e+02,2.193494e+03
5.447935e+02,2.187108e+03
5.457577e+02,2.180106e+03
5.467219e+02,2.177078e+03
5.476862e+02,2.180464e+03
5.486504e+02,2.187599e+03
5.496146e+02,2.190582e+03
5.505789e+02,2.186802e+03
5.515431e+02,2.182527e+03
5.525073e+02,2.179054e+03
5.534716e+02,2.177388e+03
5.544358e+02,2.177883e+03
5.554000e+02,2.181233e+03
5.563643e+02,2.185087e+03
5.573285e+02,2.187577e+03
5.582927e+02,2.188441e+03
5.592570e+02,2.187314e+03
5.602212e+02,2.183620e+03
5.611854e+02,2.177239e+03
5.621497e+02,2.174337e+03
5.631139e+02,2.179498e+03
5.640781e+02,2.182863e+03
5.650424e+02,2.181765e+03
5.660066e+02,2.177059e+03
5.669708e+02,2.171686e+03
5.679351e+02,2.165703e+03
5.688993e+02,2.160948e+03
5.698635e+02,2.161722e+03
5.708278e+02,2.168892e+03
5.717920e+02,2.177314e+03
5.727562e+02,2.182017e+03
5.737205e+02,2.181718e+03
5.746847e+02,2.179885e+03
5.756489e+02,2.175759e+03
5.766132e+02,2.170324e+03
5.775774e+02,2.162848e+03
5.785416e+02,2.153718e+03
5.795059e+02,2.147391e+03
5.804701e+02,2.150135e+03
5.814343e+02,2.158812e+03
5.823986e+02,2.163256e+03
5.833628e+02,2.161417e+03
5.843270e+02,2.156251e+03
5.852913e+02,2.151384e+03
5.862555e+02,2.145185e+03
5.872197e+02,2.141985e+03
5.881840e+02,2.143429e+03
5.891482e+02,2.146358e+03
5.901124e+02,2.147895e+03
5.910767e+02,2.146903e+03
5.920409e+02,2.146617e+03
5.930051e+02,2.151374e+03
5.939694e+02,2.159970e+03
5.949336e+02,2.166611e+03
5.958978e+02,2.169763e+03
5.968621e+02,2.169815e+03
5.978263e+02,2.167844e+03
5.987905e+02,2.161669e+03
5.997548e+02,2.156659e+03
6.007190e+02,2.153199e+03
6.016832e+02,2.151551e+03
6.026475e+02,2.151788e+03
6.036117e+02,2.154194e+03
6.045759e+02,2.156845e+03
6.055402e+02,2.157403e+03
6.065044e+02,2.155744e+03
6.074686e+02,2.153604e+03
6.084329e+02,2.152650e+03
6.093971e+02,2.152220e+03
6.103613e+02,2.147969e+03
6.113256e+02,2.132389e+03
6.122899e+02,2.121304e+03
6.132541e+02,2.119408e+03
6.142183e+02,2.123531e+03
6.151826e+02,2.128371e+03
6.161468e+02,2.133687e+03
6.171110e+02,2.138097e+03
6.180753e+02,2.138451e+03
6.190395e+02,2.134969e+03
6.200037e+02,2.131628e+03
6.209680e+02,2.130953e+03
6.219322e+02,2.133028e+03
6.228964e+02,2.133463e+03
6.238607e+02,2.129568e+03
6.248249e+02,2.126509e+03
6.257891e+02,2.125635e+03
6.267534e+02,2.125951e+03
6.277176e+02,2.125861e+03
6.286818e+02,2.126039e+03
6.296461e+02,2.125903e+03
6.306103e+02,2.124741e+03
6.315745e+02,2.122597e+03
6.325388e+02,2.119057e+03
6.335030e+02,2.112416e+03
6.344672e+02,2.102049e+03
6.354315e+02,2.097887e+03
6.363957e+02,2.104114e+03
6.373599e+02,2.110907e+03
6.383242e+02,2.113814e+03
6.392884e+02,2.113487e+03
6.402526e+02,2.113399e+03
6.412169e+02,2.116315e+03
6.421811e+02,2.118745e+03
6.431453e+02,2.116952e+03
6.441096e+02,2.111009e+03
6.450738e+02,2.103731e+03
6.460380e+02,2.097614e+03
6.470023e+02,2.093115e+03
6.479665e+02,2.090048e+03
6.489307e+02,2.087365e+03
6.498950e+02,2.086427e+03
6.508592e+02,2.089516e+03
6.518234e+02,2.097014e+03
6.527877e+02,2.100965e+03
6.537519e+02,2.098215e+03
6.547161e+02,2.093216e+03
6.556804e+02,2.088426e+03
6.566446e+02,2.084573e+03
6.576088e+02,2.082324e+03
6.585731e+02,2.084255e+03
6.595373e+02,2.089069e+03
6.605015e+02,2.087774e+03
6.614658e+02,2.077546e+03
6.624300e+02,2.066809e+03
6.633942e+02,2.064115e+03
6.643585e+02,2.073595e+03
6.653227e+02,2.080474e+03
6.662869e+02,2.082136e+03
6.672512e+02,2.082630e+03
6.682154e+02,2.085982e+03
6.691796e+02,2.092225e+03
6.701439e+02,2.094579e+03
6.711081e+02,2.083710e+03
6.720723e+02,2.066319e+03
6.730366e+02,2.057257e+03
6.740008e+02,2.059468e+03
6.749650e+02,2.065781e+03
6.759293e+02,2.067540e+03
6.768935e+02,2.062569e+03
6.778577e+02,2.060421e+03
6.788220e+02,2.066510e+03
6.797862e+02,2.072431e+03
6.807504e+02,2.070198e+03
6.817147e+02,2.056767e+03
6.826789e+02,2.046826e+03
6.836431e+02,2.047561e+03
6.846074e+02,2.052884e+03
6.855716e+02,2.057514e+03
6.865358e+02,2.060636e+03
6.875001e+02,2.062536e+03
6.884643e+02,2.062886e+03
6.894285e+02,2.061790e+03
6.903928e+02,2.061721e+03
6.913570e+02,2.063731e+03
6.923212e+02,2.064983e+03
6.932855e+02,2.062175e+03
6.942497e+02,2.051592e+03
6.952139e+02,2.046428e+03
6.961782e+02,2.052820e+03
6.971424e+02,2.060179e+03
6.981066e+02,2.059081e+03
6.990709e+02,2.047021e+03
7.000351e+02,2.034289e+03
7.009993e+02,2.030252e+03
7.019636e+02,2.032599e+03
7.029278e+02,2.035878e+03
7.038920e+02,2.039093e+03
7.048563e+02,2.040506e+03
7.058205e+02,2.037666e+03
7.067847e+02,2.029127e+03
7.077490e+02,2.024292e+03
7.087132e+02,2.026535e+03
7.096774e+02,2.031823e+03
7.106417e+02,2.035434e+03
7.116059e+02,2.036736e+03
7.125701e+02,2.037024e+03
7.135344e+02,2.036495e+03
7.144986e+02,2.035933e+03
7.154628e+02,2.035637e+03
7.164271e+02,2.035443e+03
7.173913e+02,2.035118e+03
7.183555e+02,2.035083e+03
7.193198e+02,2.034883e+03
7.202840e+02,2.031882e+03
7.212482e+02,2.025301e+03
7.222125e+02,2.019152e+03
7.231767e+02,2.017638e+03
7.241409e+02,2.022624e+03
7.251052e+02,2.025354e+03
7.260694e+02,2.025289e+03
7.270336e+02,2.023205e+03
7.279979e+02,2.018842e+03
7.289621e+02,2.012017e+03
7.299263e+02,2.007128e+03
7.308906e+02,2.007656e+03
7.318548e+02,2.009781e+03
7.328190e+02,2.009216e+03
7.337833e+02,2.005724e+03
7.347475e+02,2.002237e+03
7.357117e+02,2.003088e+03
7.366760e+02,2.007988e+03
7.376402e+02,2.009485e+03
7.386044e+02,2.006589e+03
7.395687e+02,2.002431e+03
7.405329e+02,1.999097e+03
7.414971e+02,1.996648e+03
7.424614e+02,1.994170e+03
7.434256e+02,1.993063e+03
7.443898e+02,1.992732e+03
7.453541e+02,1.991168e+03
7.463183e+02,1.987746e+03
7.472825e+02,1.985914e+03
7.482468e+02,1.990004e+03
7.492110e+02,1.995172e+03
7.501752e+02,1.997448e+03
7.511395e+02,1.997287e+03
7.521037e+02,1.995363e+03
7.530679e+02,1.990002e+03
7.540322e+02,1.981612e+03
7.549964e+02,1.977760e+03
7.559606e+02,1.979939e+03
7.569249e+02,1.983149e+03
7.578891e+02,1.984170e+03
7.588533e+02,1.983031e+03
7.598176e+02,1.983887e+03
7.607818e+02,1.989419e+03
7.617460e+02,1.990971e+03
7.627103e+02,1.983374e+03
7.636745e+02,1.970327e+03
7.646387e+02,1.961287e+03
7.656030e+02,1.963056e+03
7.665672e+02,1.967715e+03
7.675314e+02,1.968130e+03
7.684957e+02,1.963884e+03
7.694599e+02,1.957589e+03
7.704241e+02,1.951072e+03
7.713884e+02,1.945994e+03
7.723526e+02,1.946553e+03
7.733168e+02,1.953966e+03
7.742811e+02,1.960182e+03
7.752453e+02,1.959588e+03
7.762095e+02,1.953226e+03
7.771738e+02,1.950951e+03
7.781380e+02,1.957469e+03
7.791022e+02,1.960645e+03
7.800665e+02,1.955496e+03
7.810307e+02,1.946948e+03
7.819949e+02,1.942817e+03
7.829592e+02,1.949854e+03
7.839234e+02,1.957954e+03
7.848876e+02,1.962612e+03
7.858519e+02,1.964266e+03
7.868161e+02,1.963681e+03
7.877803e+02,1.960882e+03
7.887446e+02,1.956813e+03
7.897088e+02,1.952914e+03
7.906730e+02,1.949910e+03
7.916373e+02,1.948245e+03
7.926015e+02,1.947185e+03
7.935657e+02,1.945434e+03
7.945300e+02,1.942960e+03
7.954942e+02,1.940862e+03
7.964584e+02,1.937254e+03
7.974227e+02,1.931957e+03
7.983869e+02,1.928010e+03
7.993511e+02,1.926848e+03
8.003154e+02,1.928768e+03
8.012796e+02,1.929256e+03
8.022438e+02,1.927582e+03
8.032081e+02,1.925727e+03
8.041723e+02,1.925297e+03
8.051365e+02,1.926389e+03
8.061008e+02,1.927570e+03
8.070650e+02,1.926955e+03
8.080292e+02,1.925272e+03
8.089935e+02,1.925743e+03
8.099577e+02,1.929202e+03
8.109219e+02,1.931550e+03
8.118862e+02,1.926341e+03
8.128504e+02,1.913936e+03
8.138146e+02,1.906605e+03
8.147789e+02,1.905660e+03
8.157431e+02,1.906451e+03
8.167073e+02,1.905497e+03
8.176716e+02,1.903025e+03
8.186358e+02,1.903479e+03
8.196000e+02,1.909854e+03
8.205643e+02,1.916130e+03
8.215285e+02,1.919612e+03
8.224927e+02,1.920118e+03
8.234570e+02,1.918022e+03
8.244212e+02,1.909078e+03
8.253854e+02,1.901463e+03
8.263497e+02,1.901033e+03
8.273139e+02,1.905552e+03
8.282781e+02,1.909515e+03
8.292424e+02,1.911135e+03
8.302066e+02,1.911146e+03
8.311708e+02,1.909402e+03
8.321351e+02,1.906117e+03
8.330993e+02,1.902164e+03
8.340635e+02,1.897189e+03
8.350278e+02,1.892034e+03
8.359920e+02,1.890585e+03
8.369562e+02,1.893896e+03
8.379205e+02,1.895472e+03
8.388847e+02,1.892219e+03
8.398489e+02,1.886581e+03
8.408132e+02,1.884610e+03
8.417774e+02,1.890917e+03
8.427416e+02,1.893649e+03
8.437059e+02,1.887607e+03
8.446701e+02,1.879604e+03
8.456343e+02,1.877538e+03
8.465986e+02,1.886526e+03
8.475628e+02,1.892822e+03
8.485270e+02,1.889926e+03
8.494913e+02,1.883047e+03
8.504555e+02,1.877134e+03
8.514197e+02,1.873554e+03
8.523840e+02,1.872344e+03
8.533482e+02,1.874916e+03
8.543124e+02,1.878910e+03
8.552767e+02,1.880348e+03
8.562409e+02,1.878521e+03
8.572051e+02,1.874525e+03
8.581694e+02,1.868691e+03
8.591336e+02,1.861648e+03
8.600978e+02,1.858541e+03
8.610621e+02,1.860581e+03
8.620263e+02,1.863490e+03
8.629905e+02,1.863366e+03
8.639548e+02,1.859274e+03
8.649190e+02,1.857104e+03
8.658832e+02,1.859698e+03
8.668475e+02,1.862223e+03
8.678117e+02,1.861861e+03
8.687759e+02,1.859083e+03
8.697402e+02,1.857630e+03
8.707044e+02,1.857693e+03
8.716686e+02,1.857135e+03
8.726329e+02,1.856528e+03
8.735971e+02,1.855990e+03
8.745613e+02,1.855079e+03
8.755256e+02,1.855427e+03
8.764898e+02,1.854508e+03
8.774540e+02,1.847906e+03
8.784183e+02,1.838665e+03
8.793825e+02,1.832332e+03
8.803467e+02,1.831046e+03
8.813110e+02,1.832792e+03
8.822752e+02,1.837673e+03
8.832394e+02,1.844433e+03
8.842037e+02,1.846308e+03
8.851679e+02,1.840835e+03
8.861321e+02,1.832843e+03
8.870964e+02,1.829036e+03
8.880606e+02,1.829416e+03
8.890248e+02,1.832198e+03
8.899891e+02,1.839507e+03
8.909533e+02,1.845972e+03
8.919175e+02,1.845202e+03
8.928818e+02,1.834379e+03
8.938460e+02,1.829121e+03
8.948102e+02,1.833025e+03
8.957745e+02,1.837687e+03
8.967387e+02,1.838993e+03
8.977029e+02,1.836681e+03
8.986672e+02,1.832992e+03
8.996314e+02,1.827525e+03
9.005956e+02,1.823281e+03
9.015599e+02,1.821820e+03
9.025241e+02,1.822021e+03
9.034883e+02,1.821548e+03
9.044526e+02,1.818360e+03
9.054168e+02,1.814480e+03
9.063810e+02,1.812934e+03
9.073453e+02,1.813335e+03
9.083095e+02,1.813195e+03
9.092737e+02,1.810532e+03
9.102380e+02,1.806845e+03
9.112022e+02,1.803578e+03
9.121664e+02,1.800741e+03
9.131307e+02,1.799014e+03
9.140949e+02,1.799254e+03
9.150591e+02,1.800930e+03
9.160234e+02,1.802640e+03
9.169876e+02,1.803248e+03
9.179518e+02,1.800594e+03
9.189161e+02,1.793997e+03
9.198803e+02,1.786843e+03
9.208445e+02,1.783394e+03
9.218088e+02,1.784684e+03
9.227730e+02,1.786395e+03
9.237372e+02,1.788881e+03
9.247015e+02,1.789657e+03
9.256657e+02,1.786084e+03
9.266299e+02,1.777694e+03
9.275942e+02,1.774582e+03
9.285584e+02,1.781440e+03
9.295226e+02,1.787185e+03
9.304869e+02,1.786908e+03
9.314511e+02,1.782803e+03
9.324153e+02,1.781093e+03
9.333796e+02,1.786210e+03
9.343438e+02,1.789079e+03
9.353080e+02,1.785401e+03
9.362723e+02,1.777689e+03
9.372365e+02,1.770174e+03
9.382007e+02,1.764340e+03
9.391650e+02,1.760844e+03
9.401292e+02,1.761012e+03
9.410934e+02,1.762887e+03
9.420577e+02,1.763828e+03
9.430219e+02,1.762970e+03
9.439861e+02,1.761674e+03
9.449504e+02,1.761509e+03
9.459146e+02,1.762746e+03
9.468788e+02,1.764701e+03
9.478431e+02,1.766259e+03
9.488073e+02,1.766818e+03
9.497715e+02,1.767496e+03
9.507358e+02,1.767769e+03
9.517000e+02,1.765265e+03
9.526642e+02,1.760764e+03
9.536285e+02,1.757157e+03
9.545927e+02,1.756442e+03
9.555569e+02,1.757311e+03
9.565212e+02,1.754988e+03
9.574854e+02,1.749947e+03
9.584496e+02,1.746998e+03
9.594139e+02,1.747565e+03
9.603781e+02,1.749859e+03
9.613423e+02,1.750401e+03
9.623066e+02,1.748629e+03
9.632708e+02,1.748672e+03
9.642350e+02,1.753068e+03
9.651993e+02,1.758168e+03
9.661635e+02,1.757812e+03
9.671277e+02,1.747811e+03
9.680920e+02,1.741134e+03
9.690562e+02,1.740361e+03
9.700204e+02,1.740030e+03
9.709847e+02,1.736044e+03
9.719489e+02,1.727569e+03
9.729131e+02,1.722653e+03
9.738774e+02,1.723771e+03
9.748416e+02,1.726723e+03
9.758058e+02,1.730247e+03
9.767701e+02,1.733421e+03
9.777343e+02,1.734369e+03
9.786985e+02,1.730592e+03
9.796628e+02,1.726558e+03
9.806270e+02,1.724013e+03
9.815912e+02,1.722443e+03
9.825555e+02,1.721081e+03
9.835197e+02,1.721448e+03
9.844839e+02,1.721040e+03
9.854482e+02,1.718132e+03
9.864124e+02,1.714558e+03
9.873766e+02,1.711343e+03
9.883409e+02,1.708584e+03
9.893051e+02,1.708687e+03
9.902693e+02,1.716479e+03
9.912336e+02,1.726092e+03
9.921978e+02,1.730310e+03
9.931620e+02,1.728185e+03
9.941263e+02,1.723889e+03
9.950905e+02,1.719567e+03
9.960547e+02,1.715562e+03
9.970190e+02,1.711903e+03
9.979832e+02,1.708605e+03
9.989474e+02,1.706429e+03
9.999117e+02,1.707211e+03
1.000876e+03,1.709098e+03
1.001840e+03,1.708821e+03
1.002804e+03,1.707293e+03
1.003769e+03,1.705980e+03
1.004733e+03,1.704793e+03
1.005697e+03,1.704212e+03
1.006661e+03,1.706868e+03
1.007626e+03,1.711553e+03
1.008590e+03,1.711264e+03
1.009554e+03,1.704149e+03
1.010518e+03,1.695276e+03
1.011482e+03,1.691149e+03
1.012447e+03,1.691045e+03
1.013411e+03,1.688829e+03
1.014375e+03,1.684853e+03
1.015339e+03,1.682702e+03
1.016304e+03,1.684872e+03
1.017268e+03,1.690286e+03
1.018232e+03,1.693822e+03
1.019196e+03,1.695223e+03
1.020161e+03,1.694692e+03
1.021125e+03,1.692236e+03
1.022089e+03,1.689110e+03
1.023053e+03,1.687624e+03
1.024018e+03,1.687717e+03
1.024982e+03,1.686408e+03
1.025946e+03,1.682474e+03
1.026910e+03,1.676885e+03
1.027875e+03,1.671181e+03
1.028839e+03,1.664730e+03
1.029803e+03,1.664825e+03
1.030767e+03,1.675357e+03
1.031731e+03,1.685707e+03
1.032696e+03,1.687363e+03
1.033660e+03,1.679673e+03
1.034624e+03,1.675173e+03
1.035588e+03,1.675752e+03
1.036552e+03,1.677458e+03
1.037517e+03,1.678464e+03
1.038481e+03,1.678603e+03
1.039445e+03,1.679232e+03
1.040409e+03,1.682358e+03
1.041374e+03,1.682679e+03
1.042338e+03,1.677930e+03
1.043302e+03,1.671558e+03
1.044266e+03,1.667696e+03
1.045231e+03,1.668164e+03
1.046195e+03,1.667387e+03
1.047159e+03,1.665268e+03
1.048123e+03,1.662670e+03
1.049088e+03,1.659493e+03
1.050052e+03,1.655809e+03
1.051016e+03,1.655291e+03
1.051980e+03,1.660884e+03
1.052945e+03,1.666195e+03
1.053909e+03,1.668310e+03
1.054873e+03,1.667011e+03
1.055837e+03,1.664557e+03
1.056802e+03,1.661255e+03
1.057766e+03,1.657774e+03
1.058730e+03,1.653697e+03
1.059694e+03,1.650137e+03
1.060658e+03,1.648233e+03
1.061623e+03,1.649476e+03
1.062587e+03,1.650605e+03
1.063551e+03,1.652278e+03
1.064515e+03,1.653112e+03
1.065479e+03,1.651078e+03
1.066444e+03,1.646125e+03
1.067408e+03,1.643278e+03
1.068372e+03,1.644635e+03
1.069336e+03,1.646828e+03
1.070301e+03,1.647170e+03
1.071265e+03,1.646109e+03
1.072229e+03,1.646636e+03
1.073193e+03,1.654090e+03
1.074158e+03,1.657325e+03
1.075122e+03,1.650142e+03
1.076086e+03,1.638767e+03
1.077050e+03,1.630761e+03
1.078015e+03,1.628184e+03
1.078979e+03,1.629411e+03
1.079943e+03,1.638078e+03
1.080907e+03,1.646808e+03
1.081872e+03,1.648626e+03
1.082836e+03,1.642561e+03
1.083800e+03,1.639494e+03
1.084764e+03,1.647223e+03
1.085729e+03,1.653695e+03
1.086693e+03,1.650297e+03
1.087657e+03,1.641130e+03
1.088621e+03,1.637569e+03
1.089585e+03,1.647305e+03
1.090550e+03,1.655461e+03
1.091514e+03,1.659374e+03
1.092478e+03,1.660605e+03
1.093442e+03,1.660289e+03
1.094406e+03,1.658150e+03
1.095371e+03,1.656391e+03
1.096335e+03,1.657162e+03
1.097299e+03,1.656355e+03
1.098263e+03,1.649340e+03
1.099228e+03,1.636396e+03
1.100192e+03,1.628325e+03
1.101156e+03,1.630035e+03
1.102120e+03,1.633408e+03
1.103085e+03,1.638720e+03
1.104049e+03,1.643189e+03
1.105013e+03,1.641522e+03
1.105977e+03,1.623875e+03
1.106942e+03,1.612198e+03
1.107906e+03,1.615040e+03
1.108870e+03,1.622198e+03
1.109834e+03,1.623707e+03
1.110799e+03,1.616453e+03
1.111763e+03,1.613362e+03
1.112727e+03,1.620596e+03
1.113691e+03,1.628262e+03
1.114656e+03,1.630792e+03
1.115620e+03,1.628787e+03
1.116584e+03,1.627699e+03
1.117548e+03,1.626340e+03
1.118512e+03,1.626405e+03
1.119477e+03,1.631417e+03
1.120441e+03,1.637173e+03
1.121405e+03,1.637479e+03
1.122369e+03,1.627745e+03
1.123334e+03,1.619609e+03
1.124298e+03,1.613100e+03
1.125262e+03,1.608744e+03
1.126226e+03,1.608055e+03
1.127191e+03,1.612006e+03
1.128155e+03,1.611743e+03
1.129119e+03,1.601971e+03
1.130083e+03,1.594548e+03
1.131047e+03,1.595486e+03
1.132012e+03,1.601376e+03
1.132976e+03,1.602016e+03
1.133940e+03,1.594262e+03
1.134904e+03,1.587414e+03
1.135869e+03,1.583650e+03
1.136833e+03,1.581321e+03
1.137797e+03,1.578170e+03
1.138761e+03,1.573571e+03
1.139726e+03,1.572859e+03
1.140690e+03,1.577395e+03
1.141654e+03,1.582339e+03
1.142618e+03,1.584680e+03
1.143583e+03,1.584877e+03
1.144547e+03,1.585980e+03
1.145511e+03,1.588489e+03
1.146475e+03,1.589689e+03
1.147439e+03,1.588465e+03
1.148404e+03,1.586105e+03
1.149368e+03,1.583766e+03
1.150332e+03,1.580972e+03
1.151296e+03,1.581989e+03
1.152261e+03,1.587465e+03
1.153225e+03,1.591435e+03
1.154189e+03,1.589550e+03
1.155153e+03,1.583030e+03
1.156118e+03,1.575977e+03
1.157082e+03,1.568825e+03
1.158046e+03,1.564790e+03
1.159010e+03,1.565245e+03
1.159974e+03,1.568101e+03
1.160939e+03,1.568999e+03
1.161903e+03,1.567983e+03
1.162867e+03,1.568023e+03
1.163831e+03,1.569746e+03
1.164796e+03,1.570376e+03
1.165760e+03,1.566454e+03
1.166724e+03,1.559891e+03
1.167688e+03,1.554876e+03
1.168653e+03,1.551584e+03
1.169617e+03,1.549515e+03
1.170581e+03,1.549694e+03
1.171545e+03,1.549810e+03
1.172510e+03,1.544196e+03
1.173474e+03,1.536094e+03
1.174438e+03,1.533399e+03
1.175402e+03,1.538866e+03
1.176366e+03,1.544966e+03
1.177331e+03,1.543981e+03
1.178295e+03,1.540739e+03
1.179259e+03,1.542103e+03
1.180223e+03,1.547359e+03
1.181188e+03,1.549903e+03
1.182152e+03,1.542355e+03
1.183116e+03,1.534446e+03
1.184080e+03,1.535058e+03
1.185045e+03,1.540305e+03
1.186009e+03,1.542737e+03
1.186973e+03,1.539805e+03
1.187937e+03,1.535581e+03
1.188901e+03,1.528109e+03
1.189866e+03,1.522147e+03
1.190830e+03,1.522988e+03
1.191794e+03,1.530946e+03
1.192758e+03,1.535297e+03
1.193723e+03,1.530324e+03
1.194687e+03,1.526475e+03
1.195651e+03,1.528763e+03
1.196615e+03,1.534712e+03
1.197580e+03,1.538011e+03
1.198544e+03,1.537118e+03
1.199508e+03,1.533402e+03
1.200472e+03,1.525118e+03
1.201437e+03,1.517476e+03
1.202401e+03,1.515792e+03
1.203365e+03,1.521675e+03
1.204329e+03,1.523306e+03
1.205293e+03,1.518264e+03
1.206258e+03,1.514570e+03
1.207222e+03,1.516096e+03
1.208186e+03,1.520662e+03
1.209150e+03,1.522155e+03
1.210115e+03,1.519935e+03
1.211079e+03,1.515918e+03
1.212043e+03,1.510185e+03
1.213007e+03,1.504764e+03
1.213972e+03,1.502423e+03
1.214936e+03,1.503276e+03
1.215900e+03,1.506653e+03
1.216864e+03,1.512292e+03
1.217828e+03,1.515895e+03
1.218793e+03,1.514231e+03
1.219757e+03,1.510341e+03
1.220721e+03,1.509400e+03
1.221685e+03,1.510524e+03
1.222650e+03,1.510443e+03
1.223614e+03,1.507739e+03
1.224578e+03,1.505069e+03
1.225542e+03,1.506799e+03
1.226507e+03,1.509500e+03
1.227471e+03,1.507681e+03
1.228435e+03,1.502014e+03
1.229399e+03,1.497955e+03
1.230364e+03,1.501112e+03
1.231328e+03,1.504156e+03
1.232292e+03,1.503328e+03
1.233256e+03,1.501135e+03
1.234220e+03,1.500104e+03
1.235185e+03,1.501681e+03
1.236149e+03,1.502520e+03
1.237113e+03,1.500692e+03
1.238077e+03,1.499443e+03
1.239042e+03,1.500491e+03
1.240006e+03,1.502730e+03
1.240970e+03,1.502255e+03
1.241934e+03,1.497276e+03
1.242899e+03,1.492585e+03
1.243863e+03,1.489341e+03
1.244827e+03,1.487321e+03
1.245791e+03,1.486135e+03
1.246755e+03,1.485924e+03
1.247720e+03,1.486051e+03
1.248684e+03,1.486992e+03
1.249648e+03,1.486680e+03
1.250612e+03,1.482791e+03
1.251577e+03,1.476911e+03
1.252541e+03,1.475932e+03
1.253505e+03,1.478947e+03
1.254469e+03,1.479596e+03
1.255434e+03,1.476029e+03
1.256398e+03,1.472536e+03
1.257362e+03,1.474957e+03
1.258326e+03,1.479781e+03
1.259291e+03,1.481049e+03
1.260255e+03,1.478492e+03
1.261219e+03,1.474676e+03
1.262183e+03,1.470461e+03
1.263147e+03,1.467964e+03
1.264112e+03,1.470273e+03
1.265076e+03,1.474453e+03
1.266040e+03,1.475611e+03
1.267004e+03,1.471573e+03
1.267969e+03,1.468519e+03
1.268933e+03,1.468055e+03
1.269897e+03,1.470697e+03
1.270861e+03,1.477732e+03
1.271826e+03,1.487129e+03
1.272790e+03,1.491236e+03
1.273754e+03,1.488568e+03
1.274718e+03,1.483848e+03
1.275682e+03,1.477117e+03
1.276647e+03,1.470968e+03
1.277611e+03,1.468680e+03
1.278575e+03,1.470748e+03
1.279539e+03,1.471039e+03
1.280504e+03,1.470088e+03
1.281468e+03,1.469026e+03
1.282432e+03,1.467870e+03
1.283396e+03,1.466948e+03
1.284361e+03,1.467692e+03
1.285325e+03,1.469185e+03
1.286289e+03,1.468410e+03
1.287253e+03,1.464399e+03
1.288218e+03,1.460716e+03
1.289182e+03,1.462509e+03
1.290146e+03,1.465846e+03
1.291110e+03,1.465616e+03
1.292074e+03,1.462622e+03
1.293039e+03,1.460237e+03
1.294003e+03,1.460608e+03
1.294967e+03,1.460612e+03
1.295931e+03,1.460010e+03
1.296896e+03,1.458589e+03
1.297860e+03,1.454970e+03
1.298824e+03,1.447158e+03
1.299788e+03,1.444295e+03
1.300753e+03,1.450403e+03
1.301717e+03,1.455794e+03
1.302681e+03,1.456873e+03
1.303645e+03,1.454607e+03
1.304609e+03,1.451283e+03
1.305574e+03,1.445931e+03
1.306538e+03,1.442365e+03
1.307502e+03,1.441941e+03
1.308466e+03,1.443168e+03
1.309431e+03,1.444927e+03
1.310395e+03,1.446711e+03
1.311359e+03,1.445145e+03
1.312323e+03,1.440811e+03
1.313288e+03,1.439589e+03
1.314252e+03,1.446235e+03
1.315216e+03,1.453646e+03
1.316180e+03,1.453527e+03
1.317145e+03,1.450322e+03
1.318109e+03,1.449432e+03
1.319073e+03,1.450858e+03
1.320037e+03,1.449909e+03
1.321001e+03,1.441422e+03
1.321966e+03,1.434232e+03
1.322930e+03,1.433239e+03
1.323894e+03,1.436506e+03
1.324858e+03,1.439567e+03
1.325823e+03,1.443272e+03
1.326787e+03,1.444326e+03
1.327751e+03,1.441205e+03
1.328715e+03,1.437577e+03
1.329680e+03,1.435863e+03
1.330644e+03,1.435933e+03
1.331608e+03,1.437633e+03
1.332572e+03,1.440584e+03
1.333536e+03,1.441168e+03
1.334501e+03,1.437872e+03
1.335465e+03,1.434252e+03
1.336429e+03,1.436283e+03
1.337393e+03,1.440384e+03
1.338358e+03,1.440878e+03
1.339322e+03,1.437937e+03
1.340286e+03,1.434159e+03
1.341250e+03,1.429957e+03
1.342215e+03,1.426102e+03
1.343179e+03,1.423746e+03
1.344143e+03,1.422846e+03
1.345107e+03,1.422252e+03
1.346072e+03,1.421017e+03
1.347036e+03,1.422043e+03
1.348000e+03,1.426707e+03
1.348964e+03,1.430059e+03
1.349928e+03,1.430136e+03
1.350893e+03,1.428952e+03
1.351857e+03,1.431209e+03
1.352821e+03,1.436310e+03
1.353785e+03,1.436177e+03
1.354750e+03,1.429587e+03
1.355714e+03,1.421440e+03
1.356678e+03,1.415283e+03
1.357642e+03,1.411816e+03
1.358607e+03,1.412385e+03
1.359571e+03,1.415377e+03
1.360535e+03,1.417800e+03
1.361499e+03,1.419126e+03
1.362464e+03,1.419306e+03
1.363428e+03,1.417622e+03
1.364392e+03,1.415855e+03
1.365356e+03,1.413958e+03
1.366320e+03,1.411624e+03
1.367285e+03,1.411648e+03
1.368249e+03,1.417187e+03
1.369213e+03,1.418840e+03
1.370177e+03,1.413956e+03
1.371142e+03,1.406764e+03
1.372106e+03,1.401916e+03
1.373070e+03,1.399258e+03
1.374034e+03,1.397973e+03
1.374999e+03,1.398238e+03
1.375963e+03,1.399010e+03
1.376927e+03,1.399955e+03
1.377891e+03,1.400423e+03
1.378855e+03,1.398932e+03
1.379820e+03,1.396622e+03
1.380784e+03,1.395289e+03
1.381748e+03,1.395561e+03
1.382712e+03,1.395494e+03
1.383677e+03,1.393611e+03
1.384641e+03,1.390811e+03
1.385605e+03,1.386353e+03
1.386569e+03,1.381628e+03
1.387534e+03,1.379107e+03
1.388498e+03,1.379301e+03
1.389462e+03,1.379996e+03
1.390426e+03,1.380907e+03
1.391391e+03,1.380959e+03
1.392355e+03,1.380006e+03
1.393319e+03,1.378135e+03
1.394283e+03,1.373451e+03
1.395247e+03,1.367594e+03
1.396212e+03,1.365137e+03
1.397176e+03,1.367268e+03
1.398140e+03,1.370385e+03
1.399104e+03,1.372016e+03
1.400069e+03,1.373689e+03
1.401033e+03,1.377742e+03
1.401997e+03,1.382570e+03
1.402961e+03,1.383670e+03
1.403926e+03,1.379177e+03
1.404890e+03,1.374525e+03
1.405854e+03,1.369650e+03
1.406818e+03,1.366450e+03
1.407782e+03,1.366911e+03
1.408747e+03,1.370242e+03
1.409711e+03,1.372596e+03
1.410675e+03,1.373267e+03
1.411639e+03,1.372410e+03
1.412604e+03,1.370213e+03
1.413568e+03,1.367360e+03
1.414532e+03,1.362636e+03
1.415496e+03,1.359826e+03
1.416461e+03,1.364724e+03
1.417425e+03,1.373971e+03
1.418389e+03,1.376210e+03
1.419353e+03,1.362803e+03
1.420318e+03,1.352526e+03
1.421282e+03,1.347887e+03
1.422246e+03,1.345862e+03
1.423210e+03,1.344000e+03
1.424174e+03,1.342570e+03
1.425139e+03,1.342327e+03
1.426103e+03,1.342769e+03
1.427067e+03,1.342647e+03
1.428031e+03,1.341520e+03
1.428996e+03,1.340735e+03
1.429960e+03,1.342338e+03
1.430924e+03,1.343861e+03
1.431888e+03,1.341844e+03
1.432853e+03,1.337222e+03
1.433817e+03,1.334912e+03
1.434781e+03,1.340476e+03
1.435745e+03,1.342483e+03
1.436709e+03,1.337277e+03
1.437674e+03,1.330261e+03
1.438638e+03,1.326563e+03
1.439602e+03,1.326304e+03
1.440566e+03,1.327316e+03
1.441531e+03,1.329259e+03
1.442495e+03,1.329887e+03
1.443459e+03,1.327814e+03
1.444423e+03,1.325831e+03
1.445388e+03,1.327529e+03
1.446352e+03,1.329703e+03
1.447316e+03,1.329489e+03
1.448280e+03,1.327395e+03
1.449245e+03,1.324943e+03
1.450209e+03,1.320994e+03
1.451173e+03,1.318798e+03
1.452137e+03,1.318240e+03
1.453101e+03,1.318623e+03
1.454066e+03,1.320304e+03
1.455030e+03,1.322989e+03
1.455994e+03,1.323002e+03
1.456958e+03,1.320934e+03
1.457923e+03,1.321412e+03
1.458887e+03,1.326541e+03
1.459851e+03,1.331226e+03
1.460815e+03,1.331241e+03
1.461780e+03,1.328186e+03
1.462744e+03,1.323061e+03
1.463708e+03,1.316843e+03
1.464672e+03,1.312766e+03
1.465636e+03,1.311281e+03
1.466601e+03,1.313290e+03
1.467565e+03,1.320805e+03
1.468529e+03,1.327249e+03
1.469493e+03,1.324115e+03
1.470458e+03,1.314365e+03
1.471422e+03,1.312354e+03
1.472386e+03,1.316236e+03
1.473350e+03,1.318117e+03
1.474315e+03,1.314353e+03
1.475279e+03,1.310142e+03
1.476243e+03,1.308307e+03
1.477207e+03,1.307218e+03
1.478172e+03,1.306170e+03
1.479136e+03,1.305428e+03
1.480100e+03,1.305980e+03
1.481064e+03,1.308848e+03
1.482028e+03,1.309331e+03
1.482993e+03,1.306790e+03
1.483957e+03,1.303430e+03
1.484921e+03,1.300482e+03
1.485885e+03,1.297995e+03
1.486850e+03,1.295455e+03
1.487814e+03,1.293152e+03
1.488778e+03,1.292832e+03
1.489742e+03,1.295967e+03
1.490707e+03,1.298136e+03
1.491671e+03,1.299949e+03
1.492635e+03,1.299344e+03
1.493599e+03,1.293020e+03
1.494563e+03,1.284104e+03
1.495528e+03,1.282936e+03
1.496492e+03,1.288953e+03
1.497456e+03,1.291323e+03
1.498420e+03,1.289271e+03
1.499385e+03,1.286335e+03
1.500349e+03,1.283694e+03
1.501313e+03,1.282841e+03
1.502277e+03,1.287193e+03
1.503242e+03,1.292858e+03
1.504206e+03,1.293747e+03
1.505170e+03,1.286656e+03
1.506134e+03,1.282552e+03
1.507099e+03,1.282894e+03
1.508063e+03,1.282380e+03
1.509027e+03,1.278434e+03
1.509991e+03,1.273996e+03
1.510955e+03,1.275674e+03
1.511920e+03,1.280344e+03
1.512884e+03,1.280422e+03
1.513848e+03,1.276426e+03
1.514812e+03,1.273406e+03
1.515777e+03,1.272518e+03
1.516741e+03,1.272753e+03
1.517705e+03,1.274773e+03
1.518669e+03,1.276762e+03
1.519634e+03,1.277705e+03
1.520598e+03,1.277383e+03
1.521562e+03,1.275242e+03
1.522526e+03,1.271133e+03
1.523490e+03,1.268556e+03
1.524455e+03,1.269101e+03
1.525419e+03,1.269870e+03
1.526383e+03,1.267981e+03
1.527347e+03,1.265463e+03
1.528312e+03,1.265542e+03
1.529276e+03,1.267572e+03
1.530240e+03,1.266165e+03
1.531204e+03,1.258109e+03
1.532169e+03,1.253941e+03
1.533133e+03,1.255036e+03
1.534097e+03,1.257466e+03
1.535061e+03,1.258019e+03
1.536026e+03,1.257872e+03
1.536990e+03,1.260929e+03
1.537954e+03,1.265045e+03
1.538918e+03,1.265382e+03
1.539882e+03,1.260123e+03
1.540847e+03,1.256127e+03
1.541811e+03,1.256771e+03
1.542775e+03,1.255920e+03
1.543739e+03,1.251497e+03
1.544704e+03,1.246404e+03
1.545668e+03,1.245677e+03
1.546632e+03,1.248486e+03
1.547596e+03,1.250668e+03
1.548561e+03,1.251907e+03
1.549525e+03,1.252375e+03
1.550489e+03,1.250833e+03
1.551453e+03,1.249557e+03
1.552417e+03,1.250365e+03
1.553382e+03,1.251120e+03
1.554346e+03,1.250307e+03
1.555310e+03,1.248352e+03
1.556274e+03,1.247328e+03
1.557239e+03,1.247062e+03
1.558203e+03,1.244171e+03
1.559167e+03,1.237589e+03
1.560131e+03,1.232863e+03
1.561096e+03,1.237008e+03
1.562060e+03,1.243410e+03
1.563024e+03,1.248444e+03
1.563988e+03,1.250931e+03
1.564953e+03,1.248379e+03
1.565917e+03,1.237940e+03
1.566881e+03,1.232255e+03
1.567845e+03,1.231639e+03
1.568809e+03,1.232327e+03
1.569774e+03,1.232667e+03
1.570738e+03,1.232948e+03
1.571702e+03,1.233809e+03
1.572666e+03,1.234569e+03
1.573631e+03,1.234451e+03
1.574595e+03,1.233727e+03
1.575559e+03,1.232678e+03
1.576523e+03,1.231066e+03
1.577488e+03,1.230263e+03
1.578452e+03,1.229872e+03
1.579416e+03,1.229803e+03
1.580380e+03,1.230186e+03
1.581344e+03,1.231282e+03
1.582309e+03,1.235008e+03
1.583273e+03,1.239845e+03
1.584237e+03,1.241833e+03
1.585201e+03,1.239235e+03
1.586166e+03,1.235072e+03
1.587130e+03,1.227574e+03
1.588094e+03,1.222063e+03
1.589058e+03,1.221411e+03
1.590023e+03,1.224048e+03
1.590987e+03,1.228040e+03
1.591951e+03,1.232441e+03
1.592915e+03,1.233227e+03
1.593880e+03,1.229908e+03
1.594844e+03,1.226756e+03
1.595808e+03,1.228171e+03
1.596772e+03,1.226198e+03
1.597736e+03,1.216986e+03
1.598701e+03,1.208768e+03
1.599665e+03,1.209417e+03
1.600629e+03,1.216549e+03
1.601593e+03,1.221427e+03
1.602558e+03,1.224083e+03
1.603522e+03,1.224500e+03
1.604486e+03,1.222460e+03
1.605450e+03,1.218903e+03
1.606415e+03,1.212197e+03
1.607379e+03,1.207678e+03
1.608343e+03,1.207889e+03
1.609307e+03,1.210090e+03
1.610271e+03,1.209267e+03
1.611236e+03,1.206106e+03
1.612200e+03,1.204609e+03
1.613164e+03,1.205100e+03
1.614128e+03,1.205977e+03
1.615093e+03,1.206247e+03
1.616057e+03,1.206394e+03
1.617021e+03,1.205841e+03
1.617985e+03,1.205441e+03
1.618950e+03,1.207152e+03
1.619914e+03,1.209288e+03
1.620878e+03,1.203000e+03
1.621842e+03,1.191037e+03
1.622807e+03,1.183339e+03
1.623771e+03,1.182182e+03
1.624735e+03,1.184129e+03
1.625699e+03,1.189644e+03
1.626663e+03,1.194082e+03
1.627628e+03,1.195521e+03
1.628592e+03,1.194637e+03
1.629556e+03,1.192357e+03
1.630520e+03,1.189754e+03
1.631485e+03,1.190508e+03
1.632449e+03,1.193638e+03
1.633413e+03,1.195534e+03
1.634377e+03,1.195406e+03
1.635342e+03,1.192623e+03
1.636306e+03,1.184351e+03
1.637270e+03,1.176383e+03
1.638234e+03,1.170793e+03
1.639198e+03,1.167727e+03
1.640163e+03,1.167311e+03
1.641127e+03,1.169413e+03
1.642091e+03,1.174193e+03
1.643055e+03,1.180475e+03
1.644020e+03,1.182555e+03
1.644984e+03,1.172742e+03
1.645948e+03,1.164793e+03
1.646912e+03,1.162092e+03
1.647877e+03,1.161781e+03
1.648841e+03,1.161865e+03
1.649805e+03,1.162504e+03
1.650769e+03,1.164603e+03
1.651734e+03,1.167135e+03
1.652698e+03,1.167839e+03
1.653662e+03,1.165656e+03
1.654626e+03,1.162320e+03
1.655590e+03,1.156519e+03
1.656555e+03,1.152920e+03
1.657519e+03,1.153578e+03
1.658483e+03,1.156832e+03
1.659447e+03,1.160315e+03
1.660412e+03,1.163301e+03
1.661376e+03,1.166327e+03
1.662340e+03,1.168863e+03
1.663304e+03,1.168345e+03
1.664269e+03,1.160037e+03
1.665233e+03,1.154130e+03
1.666197e+03,1.150915e+03
1.667161e+03,1.148313e+03
1.668125e+03,1.145451e+03
1.669090e+03,1.142952e+03
1.670054e+03,1.141563e+03
1.671018e+03,1.141377e+03
1.671982e+03,1.143432e+03
1.672947e+03,1.147610e+03
1.673911e+03,1.150246e+03
1.674875e+03,1.150488e+03
1.675839e+03,1.149117e+03
1.676804e+03,1.146665e+03
1.677768e+03,1.144848e+03
1.678732e+03,1.146533e+03
1.679696e+03,1.147082e+03
1.680661e+03,1.138961e+03
1.681625e+03,1.128284e+03
1.682589e+03,1.125493e+03
1.683553e+03,1.131480e+03
1.684517e+03,1.134227e+03
1.685482e+03,1.133724e+03
1.686446e+03,1.135377e+03
1.687410e+03,1.141527e+03
1.688374e+03,1.145581e+03
1.689339e+03,1.139701e+03
1.690303e+03,1.133092e+03
1.691267e+03,1.132029e+03
1.692231e+03,1.133407e+03
1.693196e+03,1.131055e+03
1.694160e+03,1.125397e+03
1.695124e+03,1.122081e+03
1.696088e+03,1.121268e+03
1.697052e+03,1.121256e+03
1.698017e+03,1.120399e+03
1.698981e+03,1.120142e+03
1.699945e+03,1.121139e+03
1.700909e+03,1.121301e+03
1.701874e+03,1.120302e+03
1.702838e+03,1.119148e+03
1.703802e+03,1.118341e+03
1.704766e+03,1.117478e+03
1.705731e+03,1.117049e+03
1.706695e+03,1.117304e+03
1.707659e+03,1.117615e+03
1.708623e+03,1.117996e+03
1.709588e+03,1.119640e+03
1.710552e+03,1.122401e+03
1.711516e+03,1.124265e+03
1.712480e+03,1.124996e+03
1.713444e+03,1.122961e+03
1.714409e+03,1.114171e+03
1.715373e+03,1.103249e+03
1.716337e+03,1.096204e+03
1.717301e+03,1.093437e+03
1.718266e+03,1.096247e+03
1.719230e+03,1.104171e+03
1.720194e+03,1.108703e+03
1.721158e+03,1.107089e+03
1.722123e+03,1.104051e+03
1.723087e+03,1.102824e+03
1.724051e+03,1.101219e+03
1.725015e+03,1.097169e+03
1.725979e+03,1.093661e+03
1.726944e+03,1.095338e+03
1.727908e+03,1.100795e+03
1.728872e+03,1.105365e+03
1.729836e+03,1.107914e+03
1.730801e+03,1.106388e+03
1.731765e+03,1.096646e+03
1.732729e+03,1.091586e+03
1.733693e+03,1.094196e+03
1.734658e+03,1.096160e+03
1.735622e+03,1.093165e+03
1.736586e+03,1.088807e+03
1.737550e+03,1.087571e+03
1.738515e+03,1.088702e+03
1.739479e+03,1.093309e+03
1.740443e+03,1.099733e+03
1.741407e+03,1.099558e+03
1.742371e+03,1.091628e+03
1.743336e+03,1.089374e+03
1.744300e+03,1.093582e+03
1.745264e+03,1.095305e+03
1.746228e+03,1.085947e+03
1.747193e+03,1.077191e+03
1.748157e+03,1.074626e+03
1.749121e+03,1.076694e+03
1.750085e+03,1.083487e+03
1.751050e+03,1.090785e+03
1.752014e+03,1.084636e+03
1.752978e+03,1.071193e+03
1.753942e+03,1.065098e+03
1.754906e+03,1.068771e+03
1.755871e+03,1.073860e+03
1.756835e+03,1.080627e+03
1.757799e+03,1.081198e+03
1.758763e+03,1.074493e+03
1.759728e+03,1.067279e+03
1.760692e+03,1.064721e+03
1.761656e+03,1.065453e+03
1.762620e+03,1.070926e+03
1.763585e+03,1.076367e+03
1.764549e+03,1.074127e+03
1.765513e+03,1.064027e+03
1.766477e+03,1.060489e+03
1.767442e+03,1.062738e+03
1.768406e+03,1.064633e+03
1.769370e+03,1.064618e+03
1.770334e+03,1.062869e+03
1.771298e+03,1.055197e+03
1.772263e+03,1.051119e+03
1.773227e+03,1.054963e+03
1.774191e+03,1.060264e+03
1.775155e+03,1.056552e+03
1.776120e+03,1.049478e+03
1.777084e+03,1.048251e+03
1.778048e+03,1.051167e+03
1.779012e+03,1.052411e+03
1.779977e+03,1.051768e+03
1.780941e+03,1.048951e+03
1.781905e+03,1.043615e+03
1.782869e+03,1.041639e+03
1.783833e+03,1.047141e+03
1.784798e+03,1.052107e+03
1.785762e+03,1.050158e+03
1.786726e+03,1.047813e+03
1.787690e+03,1.048632e+03
1.788655e+03,1.050860e+03
1.789619e+03,1.050977e+03
1.790583e+03,1.049618e+03
1.791547e+03,1.047546e+03
1.792512e+03,1.045022e+03
1.793476e+03,1.042209e+03
1.794440e+03,1.037325e+03
1.795404e+03,1.037886e+03
1.796369e+03,1.044187e+03
1.797333e+03,1.047349e+03
1.798297e+03,1.039724e+03
1.799261e+03,1.032323e+03
1.800225e+03,1.032851e+03
1.801190e+03,1.035950e+03
1.802154e+03,1.039591e+03
1.803118e+03,1.042029e+03
1.804082e+03,1.037311e+03
1.805047e+03,1.029135e+03
1.806011e+03,1.025167e+03
1.806975e+03,1.025948e+03
1.807939e+03,1.027776e+03
1.808904e+03,1.030602e+03
1.809868e+03,1.030443e+03
1.810832e+03,1.026958e+03
1.811796e+03,1.025400e+03
1.812760e+03,1.033133e+03
1.813725e+03,1.039483e+03
1.814689e+03,1.035429e+03
1.815653e+03,1.029250e+03
1.816617e+03,1.027650e+03
1.817582e+03,1.028592e+03
1.818546e+03,1.025084e+03
1.819510e+03,1.018699e+03
1.820474e+03,1.012447e+03
1.821439e+03,1.007125e+03
1.822403e+03,1.005003e+03
1.823367e+03,1.006381e+03
1.824331e+03,1.010581e+03
1.825296e+03,1.017404e+03
1.826260e+03,1.022021e+03
1.827224e+03,1.019771e+03
1.828188e+03,1.017018e+03
1.829152e+03,1.016466e+03
1.830117e+03,1.016452e+03
1.831081e+03,1.015448e+03
1.832045e+03,1.013876e+03
1.833009e+03,1.015533e+03
1.833974e+03,1.018632e+03
1.834938e+03,1.017417e+03
1.835902e+03,1.009749e+03
1.836866e+03,1.004638e+03
1.837831e+03,1.002054e+03
1.838795e+03,1.001747e+03
1.839759e+03,1.004199e+03
1.840723e+03,1.007257e+03
1.841688e+03,1.010512e+03
1.842652e+03,1.011324e+03
1.843616e+03,1.007669e+03
1.844580e+03,1.002700e+03
1.845544e+03,9.991584e+02
1.846509e+03,9.978420e+02
1.847473e+03,1.003224e+03
1.848437e+03,1.010244e+03
1.849401e+03,1.007961e+03
1.850366e+03,9.964417e+02
1.851330e+03,9.896764e+02
1.852294e+03,9.876967e+02
1.853258e+03,9.888408e+02
1.854223e+03,9.930599e+02
1.855187e+03,9.954832e+02
1.856151e+03,9.910440e+02
1.857115e+03,9.884476e+02
1.858079e+03,9.896394e+02
1.859044e+03,9.916003e+02
1.860008e+03,9.921614e+02
1.860972e+03,9.918045e+02
1.861936e+03,9.903189e+02
1.862901e+03,9.884586e+02
1.863865e+03,9.869598e+02
1.864829e+03,9.850277e+02
1.865793e+03,9.804206e+02
1.866758e+03,9.748227e+02
1.867722e+03,9.723895e+02
1.868686e+03,9.744552e+02
1.869650e+03,9.780167e+02
1.870615e+03,9.837386e+02
1.871579e+03,9.818969e+02
1.872543e+03,9.692020e+02
1.873507e+03,9.604884e+02
1.874471e+03,9.755869e+02
1.875436e+03,9.856568e+02
1.876400e+03,9.738618e+02
1.877364e+03,9.584100e+02
1.878328e+03,9.628594e+02
1.879293e+03,9.763365e+02
1.880257e+03,9.778948e+02
1.881221e+03,9.716181e+02
1.882185e+03,9.668544e+02
1.883150e+03,9.645385e+02
1.884114e+03,9.628086e+02
1.885078e+03,9.613904e+02
1.886042e+03,9.602321e+02
1.887006e+03,9.592459e+02
1.887971e+03,9.588360e+02
1.888935e+03,9.601337e+02
1.889899e+03,9.609050e+02
1.890863e+03,9.598298e+02
1.891828e+03,9.591083e+02
1.892792e+03,9.634729e+02
1.893756e+03,9.673613e+02
1.894720e+03,9.677036e+02
1.895685e+03,9.655093e+02
1.896649e+03,9.593260e+02
1.897613e+03,9.505121e+02
1.898577e+03,9.429451e+02
1.899542e+03,9.383287e+02
1.900506e+03,9.425110e+02
1.901470e+03,9.575977e+02
1.902434e+03,9.569903e+02
1.903398e+03,9.417217e+02
1.904363e+03,9.345975e+02
1.905327e+03,9.423348e+02
1.906291e+03,9.474143e+02
1.907255e+03,9.344905e+02
1.908220e+03,9.283246e+02
1.909184e+03,9.346391e+02
1.910148e+03,9.433712e+02
1.911112e+03,9.475024e+02
1.912077e+03,9.473514e+02
1.913041e+03,9.383398e+02
1.914005e+03,9.292288e+02
1.914969e+03,9.303823e+02
1.915933e+03,9.381289e+02
1.916898e+03,9.397348e+02
1.917862e+03,9.374720e+02
1.918826e+03,9.351359e+02
1.919790e+03,9.335822e+02
1.920755e+03,9.343199e+02
1.921719e+03,9.365416e+02
1.922683e+03,9.323403e+02
1.923647e+03,9.202158e+02
1.924612e+03,9.136295e+02
1.925576e+03,9.230680e+02
1.926540e+03,9.322860e+02
1.927504e+03,9.389567e+02
1.928469e+03,9.426947e+02
1.929433e+03,9.428984e+02
1.930397e+03,9.401155e+02
1.931361e+03,9.318155e+02
1.932325e+03,9.237574e+02
1.933290e+03,9.206451e+02
1.934254e+03,9.220843e+02
1.935218e+03,9.296725e+02
1.936182e+03,9.369301e+02
1.937147e+03,9.310038e+02
1.938111e+03,9.143182e+02
1.939075e+03,9.104080e+02
1.940039e+03,9.175934e+02
1.941004e+03,9.225212e+02
1.941968e+03,9.226661e+02
1.942932e+03,9.215959e+02
1.943896e+03,9.205910e+02
1.944860e+03,9.188370e+02
1.945825e+03,9.166840e+02
1.946789e+03,9.135870e+02
1.947753e+03,9.062010e+02
1.948717e+03,9.012471e+02
1.949682e+03,9.029819e+02
1.950646e+03,9.045066e+02
1.951610e+03,9.012335e+02
1.952574e+03,8.965087e+02
1.953539e+03,8.949318e+02
1.954503e+03,8.947419e+02
1.955467e+03,8.942557e+02
1.956431e+03,8.940262e+02
1.957396e+03,8.958850e+02
1.958360e+03,8.984426e+02
1.959324e+03,8.980706e+02
1.960288e+03,8.956885e+02
1.961252e+03,8.965166e+02
1.962217e+03,9.006272e+02
1.963181e+03,9.030112e+02
1.964145e+03,9.032627e+02
1.965109e+03,9.019475e+02
1.966074e+03,8.986971e+02
1.967038e+03,8.957527e+02
1.968002e+03,8.920640e+02
1.968966e+03,8.903137e+02
1.969931e+03,8.932975e+02
1.970895e+03,8.943367e+02
1.971859e+03,8.854018e+02
1.972823e+03,8.794023e+02
1.973787e+03,8.824229e+02
1.974752e+03,8.880594e+02
1.975716e+03,8.877640e+02
1.976680e+03,8.847230e+02
1.977644e+03,8.821025e+02
1.978609e+03,8.807529e+02
1.979573e+03,8.811867e+02
1.980537e+03,8.828052e+02
1.981501e+03,8.850908e+02
1.982466e+03,8.874876e+02
1.983430e+03,8.878857e+02
1.984394e+03,8.858604e+02
1.985358e+03,8.840239e+02
1.986323e+03,8.822131e+02
1.987287e+03,8.803702e+02
1.988251e+03,8.785604e+02
1.989215e+03,8.745322e+02
1.990179e+03,8.667772e+02
1.991144e+03,8.665105e+02
1.992108e+03,8.775840e+02
1.993072e+03,8.871359e+02
1.994036e+03,8.849875e+02
1.995001e+03,8.792473e+02
1.995965e+03,8.711893e+02
1.996929e+03,8.648096e+02
1.997893e+03,8.647853e+02
1.998858e+03,8.661638e+02
1.999822e+03,8.654319e+02
2.000786e+03,8.629139e+02
2.001750e+03,8.576992e+02
2.002714e+03,8.537672e+02
2.003679e+03,8.648131e+02
2.004643e+03,8.785245e+02
2.005607e+03,8.710206e+02
2.006571e+03,8.498867e+02
2.007536e+03,8.482686e+02
2.008500e+03,8.598235e+02
2.009464e+03,8.645445e+02
2.010428e+03,8.605994e+02
2.011393e+03,8.565139e+02
2.012357e+03,8.526652e+02
2.013321e+03,8.534091e+02
2.014285e+03,8.579150e+02
2.015250e+03,8.602702e+02
2.016214e+03,8.553131e+02
2.017178e+03,8.526866e+02
2.018142e+03,8.532800e+02
2.019106e+03,8.531800e+02
2.020071e+03,8.495040e+02
2.021035e+03,8.464614e+02
2.021999e+03,8.469440e+02
2.022963e+03,8.462145e+02
2.023928e+03,8.424586e+02
2.024892e+03,8.383611e+02
2.025856e+03,8.339103e+02
2.026820e+03,8.345079e+02
2.027785e+03,8.462776e+02
2.028749e+03,8.582879e+02
2.029713e+03,8.523803e+02
2.030677e+03,8.401695e+02
2.031641e+03,8.370694e+02
2.032606e+03,8.389393e+02
2.033570e+03,8.372982e+02
2.034534e+03,8.333276e+02
2.035498e+03,8.331234e+02
2.036463e+03,8.354504e+02
2.037427e+03,8.375367e+02
2.038391e+03,8.394938e+02
2.039355e+03,8.396593e+02
2.040320e+03,8.379897e+02
2.041284e+03,8.319714e+02
2.042248e+03,8.205662e+02
2.043212e+03,8.190714e+02
2.044177e+03,8.294343e+02
2.045141e+03,8.331526e+02
2.046105e+03,8.274625e+02
2.047069e+03,8.228489e+02
2.048033e+03,8.266743e+02
2.048998e+03,8.254873e+02
2.049962e+03,8.181191e+02
2.050926e+03,8.117568e+02
2.051890e+03,8.106953e+02
2.052854e+03,8.128000e+02
2.053819e+03,8.183951e+02
2.054783e+03,8.220133e+02
2.055747e+03,8.207151e+02
2.056711e+03,8.186880e+02
2.057676e+03,8.196882e+02
2.058640e+03,8.215605e+02
2.059604e+03,8.231752e+02
2.060568e+03,8.227913e+02
2.061533e+03,8.166739e+02
2.062497e+03,8.092781e+02
2.063461e+03,8.033259e+02
2.064425e+03,8.006757e+02
2.065390e+03,8.086646e+02
2.066354e+03,8.189156e+02
2.067318e+03,8.129443e+02
2.068282e+03,7.988721e+02
2.069247e+03,7.935507e+02
2.070211e+03,7.957440e+02
2.071175e+03,8.007399e+02
2.072139e+03,8.063063e+02
2.073104e+03,8.058130e+02
2.074068e+03,7.991273e+02
2.075032e+03,7.950123e+02
2.075996e+03,7.928244e+02
2.076960e+03,7.911466e+02
2.077925e+03,7.896940e+02
2.078889e+03,7.897590e+02
2.079853e+03,7.914676e+02
2.080817e+03,7.911331e+02
2.081782e+03,7.884349e+02
2.082746e+03,7.865704e+02
2.083710e+03,7.879863e+02
2.084674e+03,7.883873e+02
2.085639e+03,7.879816e+02
2.086603e+03,7.872292e+02
2.087567e+03,7.826943e+02
2.088531e+03,7.834484e+02
2.089496e+03,7.920410e+02
2.090460e+03,7.937600e+02
2.091424e+03,7.803245e+02
2.092388e+03,7.694246e+02
2.093353e+03,7.738403e+02
2.094317e+03,7.789889e+02
2.095281e+03,7.799529e+02
2.096245e+03,7.798191e+02
2.097209e+03,7.836818e+02
2.098174e+03,7.845795e+02
2.099138e+03,7.797836e+02
2.100102e+03,7.726514e+02
2.101066e+03,7.624453e+02
2.102031e+03,7.561240e+02
2.102995e+03,7.662581e+02
2.103959e+03,7.768839e+02
2.104923e+03,7.720016e+02
2.105887e+03,7.631262e+02
2.106852e+03,7.705392e+02
2.107816e+03,7.807892e+02
2.108780e+03,7.795342e+02
2.109744e+03,7.714397e+02
2.110708e+03,7.657205e+02
2.111673e+03,7.639073e+02
2.112637e+03,7.719067e+02
2.113601e+03,7.823162e+02
2.114565e+03,7.768439e+02
2.115530e+03,7.623870e+02
2.116494e+03,7.509005e+02
2.117458e+03,7.463737e+02
2.118422e+03,7.540276e+02
2.119387e+03,7.698588e+02
2.120351e+03,7.728958e+02
2.121315e+03,7.662562e+02
2.122279e+03,7.650568e+02
2.123244e+03,7.703911e+02
2.124208e+03,7.697718e+02
2.125172e+03,7.650164e+02
2.126136e+03,7.614085e+02
2.127101e+03,7.603627e+02
2.128065e+03,7.562169e+02
2.129029e+03,7.498282e+02
2.129993e+03,7.510109e+02
2.130958e+03,7.609166e+02
2.131922e+03,7.634677e+02
2.132886e+03,7.571742e+02
2.133850e+03,7.539963e+02
2.134814e+03,7.558155e+02
2.135779e+03,7.578452e+02
2.136743e+03,7.588027e+02
2.137707e+03,7.558716e+02
2.138671e+03,7.495037e+02
2.139636e+03,7.457810e+02
2.140600e+03,7.497864e+02
2.141564e+03,7.521777e+02
2.142528e+03,7.525173e+02
2.143493e+03,7.507374e+02
2.144457e+03,7.453414e+02
2.145421e+03,7.423282e+02
2.146385e+03,7.446141e+02
2.147350e+03,7.433271e+02
2.148314e+03,7.358539e+02
2.149278e+03,7.304467e+02
2.150242e+03,7.319199e+02
2.151207e+03,7.358275e+02
2.152171e+03,7.417125e+02
2.153135e+03,7.462244e+02
2.154099e+03,7.498633e+02
2.155063e+03,7.475003e+02
2.156028e+03,7.373301e+02
2.156992e+03,7.285671e+02
2.157956e+03,7.271726e+02
2.158920e+03,7.278878e+02
2.159885e+03,7.289473e+02
2.160849e+03,7.298559e+02
2.161813e+03,7.303143e+02
2.162777e+03,7.305358e+02
2.163741e+03,7.311260e+02
2.164706e+03,7.309520e+02
2.165670e+03,7.295984e+02
2.166634e+03,7.306531e+02
2.167598e+03,7.431623e+02
2.168563e+03,7.497454e+02
2.169527e+03,7.412057e+02
2.170491e+03,7.287673e+02
2.171455e+03,7.251321e+02
2.172420e+03,7.229344e+02
2.173384e+03,7.162394e+02
2.174348e+03,7.112540e+02
2.175312e+03,7.151549e+02
2.176277e+03,7.200012e+02
2.177241e+03,7.165891e+02
2.178205e+03,7.125026e+02
2.179169e+03,7.128695e+02
2.180134e+03,7.157816e+02
2.181098e+03,7.212175e+02
2.182062e+03,7.230653e+02
2.183026e+03,7.153856e+02
2.183990e+03,7.062250e+02
2.184955e+03,7.092434e+02
2.185919e+03,7.149083e+02
2.186883e+03,7.157558e+02
2.187847e+03,7.133257e+02
2.188812e+03,7.070867e+02
2.189776e+03,7.019860e+02
2.190740e+03,7.052204e+02
2.191704e+03,7.101389e+02
2.192668e+03,7.119745e+02
2.193633e+03,7.113715e+02
2.194597e+03,7.077067e+02
2.195561e+03,7.033669e+02
2.196525e+03,6.996589e+02
2.197490e+03,6.971731e+02
2.198454e+03,6.983246e+02
2.199418e+03,7.000508e+02
2.200382e+03,6.999691e+02
2.201347e+03,6.988090e+02
2.202311e+03,6.952518e+02
2.203275e+03,6.925212e+02
2.204239e+03,6.942682e+02
2.205204e+03,6.971545e+02
2.206168e+03,6.982470e+02
2.207132e+03,6.984890e+02
2.208096e+03,6.985771e+02
2.209061e+03,6.974766e+02
2.210025e+03,6.947330e+02
2.210989e+03,6.904718e+02
2.211953e+03,6.828994e+02
2.212917e+03,6.774341e+02
2.213882e+03,6.775342e+02
2.214846e+03,6.806430e+02
2.215810e+03,6.845718e+02
2.216774e+03,6.872942e+02
2.217739e+03,6.878661e+02
2.218703e+03,6.884820e+02
2.219667e+03,6.958571e+02
2.220631e+03,7.015606e+02
2.221595e+03,6.962524e+02
2.222560e+03,6.855955e+02
2.223524e+03,6.731907e+02
2.224488e+03,6.640400e+02
2.225452e+03,6.680141e+02
2.226417e+03,6.754268e+02
2.227381e+03,6.776277e+02
2.228345e+03,6.771826e+02
2.229309e+03,6.755845e+02
2.230274e+03,6.734980e+02
2.231238e+03,6.714077e+02
2.232202e+03,6.698792e+02
2.233166e+03,6.716629e+02
2.234131e+03,6.734128e+02
2.235095e+03,6.717733e+02
2.236059e+03,6.696931e+02
2.237023e+03,6.723174e+02
2.237988e+03,6.753145e+02
2.238952e+03,6.756359e+02
2.239916e+03,6.738616e+02
2.240880e+03,6.708740e+02
2.241844e+03,6.670916e+02
2.242809e+03,6.609537e+02
2.243773e+03,6.578282e+02
2.244737e+03,6.672396e+02
2.245701e+03,6.764095e+02
2.246666e+03,6.735082e+02
2.247630e+03,6.672823e+02
2.248594e+03,6.632809e+02
2.249558e+03,6.605785e+02
2.250522e+03,6.571127e+02
2.251487e+03,6.559424e+02
2.252451e+03,6.590895e+02
2.253415e+03,6.610325e+02
2.254379e+03,6.527664e+02
2.255344e+03,6.497712e+02
2.256308e+03,6.598660e+02
2.257272e+03,6.699871e+02
2.258236e+03,6.659816e+02
2.259201e+03,6.594482e+02
2.260165e+03,6.534342e+02
2.261129e+03,6.502682e+02
2.262093e+03,6.546285e+02
2.263058e+03,6.580790e+02
2.264022e+03,6.590762e+02
2.264986e+03,6.579261e+02
2.265950e+03,6.516213e+02
2.266915e+03,6.481434e+02
2.267879e+03,6.499153e+02
2.268843e+03,6.507266e+02
2.269807e+03,6.481757e+02
2.270771e+03,6.467023e+02
2.271736e+03,6.481760e+02
2.272700e+03,6.516823e+02
2.273664e+03,6.570579e+02
2.274628e+03,6.578047e+02
2.275593e+03,6.482067e+02
2.276557e+03,6.424861e+02
2.277521e+03,6.433264e+02
2.278485e+03,6.437695e+02
2.279449e+03,6.391148e+02
2.280414e+03,6.373424e+02
2.281378e+03,6.387589e+02
2.282342e+03,6.403431e+02
2.283306e+03,6.401522e+02
2.284271e+03,6.403456e+02
2.285235e+03,6.405212e+02
2.286199e+03,6.368777e+02
2.287163e+03,6.267691e+02
2.288128e+03,6.254259e+02
2.289092e+03,6.311941e+02
2.290056e+03,6.308904e+02
2.291020e+03,6.214705e+02
2.291985e+03,6.232673e+02
2.292949e+03,6.352128e+02
2.293913e+03,6.401083e+02
2.294877e+03,6.359706e+02
2.295842e+03,6.303865e+02
2.296806e+03,6.244929e+02
2.297770e+03,6.295582e+02
2.298734e+03,6.413154e+02
2.299698e+03,6.403478e+02
2.300663e+03,6.287343e+02
2.301627e+03,6.254199e+02
2.302591e+03,6.267366e+02
2.303555e+03,6.225724e+02
2.304520e+03,6.152253e+02
2.305484e+03,6.183428e+02
2.306448e+03,6.260586e+02
2.307412e+03,6.281450e+02
2.308376e+03,6.257627e+02
2.309341e+03,6.202552e+02
2.310305e+03,6.156662e+02
2.311269e+03,6.196588e+02
2.312233e+03,6.265231e+02
2.313198e+03,6.254223e+02
2.314162e+03,6.221495e+02
2.315126e+03,6.240807e+02
2.316090e+03,6.265593e+02
2.317055e+03,6.239902e+02
2.318019e+03,6.206152e+02
2.318983e+03,6.196842e+02
2.319947e+03,6.197518e+02
2.320912e+03,6.223830e+02
2.321876e+03,6.227703e+02
2.322840e+03,6.135002e+02
2.323804e+03,6.069127e+02
2.324769e+03,6.092083e+02
2.325733e+03,6.153568e+02
2.326697e+03,6.249681e+02
2.327661e+03,6.295060e+02
2.328625e+03,6.252108e+02
2.329590e+03,6.195422e+02
2.330554e+03,6.174842e+02
2.331518e+03,6.155731e+02
2.332482e+03,6.132838e+02
2.333447e+03,6.096158e+02
2.334411e+03,6.018120e+02
2.335375e+03,5.999654e+02
2.336339e+03,6.042307e+02
2.337303e+03,6.050367e+02
2.338268e+03,5.949948e+02
2.339232e+03,5.931728e+02
2.340196e+03,5.985541e+02
2.341160e+03,6.027840e+02
2.342125e+03,6.035547e+02
2.343089e+03,6.072397e+02
2.344053e+03,6.113466e+02
2.345017e+03,6.079985e+02
2.345982e+03,5.978038e+02
2.346946e+03,5.932441e+02
2.347910e+03,5.932379e+02
2.348874e+03,5.944802e+02
2.349839e+03,5.955953e+02
2.350803e+03,5.949572e+02
2.351767e+03,5.939011e+02
2.352731e+03,5.960878e+02
2.353696e+03,5.984694e+02
2.354660e+03,5.938475e+02
2.355624e+03,5.870391e+02
2.356588e+03,5.871678e+02
2.357552e+03,5.890413e+02
2.358517e+03,5.880795e+02
2.359481e+03,5.859485e+02
2.360445e+03,5.827252e+02
2.361409e+03,5.815733e+02
2.362374e+03,5.856994e+02
2.363338e+03,5.882941e+02
2.364302e+03,5.804784e+02
2.365266e+03,5.766295e+02
2.366230e+03,5.810482e+02
2.367195e+03,5.849684e+02
2.368159e+03,5.810712e+02
2.369123e+03,5.777473e+02
2.370087e+03,5.766225e+02
2.371052e+03,5.767418e+02
2.372016e+03,5.782992e+02
2.372980e+03,5.796714e+02
2.373944e+03,5.804874e+02
2.374909e+03,5.797992e+02
2.375873e+03,5.762204e+02
2.376837e+03,5.796642e+02
2.377801e+03,5.875695e+02
2.378766e+03,5.859258e+02
2.379730e+03,5.739111e+02
2.380694e+03,5.707268e+02
2.381658e+03,5.730554e+02
2.382623e+03,5.696090e+02
2.383587e+03,5.633549e+02
2.384551e+03,5.683484e+02
2.385515e+03,5.775758e+02
2.386479e+03,5.805516e+02
2.387444e+03,5.792376e+02
2.388408e+03,5.736932e+02
2.389372e+03,5.688303e+02
2.390336e+03,5.702908e+02
2.391301e+03,5.729788e+02
2.392265e+03,5.714232e+02
2.393229e+03,5.700720e+02
2.394193e+03,5.727800e+02
2.395157e+03,5.733141e+02
2.396122e+03,5.649486e+02
2.397086e+03,5.606028e+02
2.398050e+03,5.649817e+02
2.399014e+03,5.703077e+02
2.399979e+03,5.740939e+02
2.400943e+03,5.766127e+02
2.401907e+03,5.781068e+02
2.402871e+03,5.751369e+02
2.403836e+03,5.670215e+02
2.404800e+03,5.616409e+02
2.405764e+03,5.593853e+02
2.406728e+03,5.587424e+02
2.407693e+03,5.592874e+02
2.408657e+03,5.621385e+02
2.409621e+03,5.660848e+02
2.410585e+03,5.616810e+02
2.411550e+03,5.533884e+02
2.412514e+03,5.527833e+02
2.413478e+03,5.567892e+02
2.414442e+03,5.585966e+02
2.415406e+03,5.586666e+02
2.416371e+03,5.574043e+02
2.417335e+03,5.555624e+02
2.418299e+03,5.535851e+02
2.419263e+03,5.519916e+02
2.420228e+03,5.505269e+02
2.421192e+03,5.508210e+02
2.422156e+03,5.573657e+02
2.423120e+03,5.615380e+02
2.424084e+03,5.607703e+02
2.425049e+03,5.577943e+02
2.426013e+03,5.539796e+02
2.426977e+03,5.502974e+02
2.427941e+03,5.473110e+02
2.428906e+03,5.463730e+02
2.429870e+03,5.479094e+02
2.430834e+03,5.460943e+02
2.431798e+03,5.421922e+02
2.432763e+03,5.439609e+02
2.433727e+03,5.506212e+02
2.434691e+03,5.501934e+02
2.435655e+03,5.455665e+02
2.436620e+03,5.427634e+02
2.437584e+03,5.413549e+02
2.438548e+03,5.398601e+02
2.439512e+03,5.385861e+02
2.440477e+03,5.379241e+02
2.441441e+03,5.362989e+02
2.442405e+03,5.286841e+02
2.443369e+03,5.266179e+02
2.444333e+03,5.367447e+02
2.445298e+03,5.448786e+02
2.446262e+03,5.328113e+02
2.447226e+03,5.278577e+02
2.448190e+03,5.352137e+02
2.449155e+03,5.414030e+02
2.450119e+03,5.369583e+02
2.451083e+03,5.368091e+02
2.452047e+03,5.401805e+02
2.453011e+03,5.391981e+02
2.453976e+03,5.319064e+02
2.454940e+03,5.309660e+02
2.455904e+03,5.345233e+02
2.456868e+03,5.354817e+02
2.457833e+03,5.341725e+02
2.458797e+03,5.357804e+02
2.459761e+03,5.370611e+02
2.460725e+03,5.322300e+02
2.461690e+03,5.252893e+02
2.462654e+03,5.199881e+02
2.463618e+03,5.187519e+02
2.464582e+03,5.235507e+02
2.465547e+03,5.294764e+02
2.466511e+03,5.328016e+02
2.467475e+03,5.324166e+02
2.468439e+03,5.281981e+02
2.469404e+03,5.237438e+02
2.470368e+03,5.211208e+02
2.471332e+03,5.208323e+02
2.472296e+03,5.222342e+02
2.473260e+03,5.227503e+02
2.474225e+03,5.217654e+02
2.475189e+03,5.198289e+02
2.476153e+03,5.181063e+02
2.477117e+03,5.197734e+02
2.478082e+03,5.232668e+02
2.479046e+03,5.241603e+02
2.480010e+03,5.238024e+02
2.480974e+03,5.246735e+02
2.481938e+03,5.251940e+02
2.482903e+03,5.215303e+02
2.483867e+03,5.190841e+02
2.484831e+03,5.206781e+02
2.485795e+03,5.229174e+02
2.486760e+03,5.255429e+02
2.487724e+03,5.232939e+02
2.488688e+03,5.156390e+02
2.489652e+03,5.105340e+02
2.490617e+03,5.137499e+02
2.491581e+03,5.125259e+02
2.492545e+03,5.080587e+02
2.493509e+03,5.065321e+02
2.494474e+03,5.083585e+02
2.495438e+03,5.106549e+02
2.496402e+03,5.126974e+02
2.497366e+03,5.129828e+02
2.498331e+03,5.118207e+02
2.499295e+03,5.067758e+02
2.500259e+03,5.044340e+02
2.501223e+03,5.124183e+02
2.502188e+03,5.204898e+02
2.503152e+03,5.150812e+02
2.504116e+03,5.117354e+02
2.505080e+03,5.155104e+02
2.506044e+03,5.178629e+02
2.507009e+03,5.104822e+02
2.507973e+03,5.058199e+02
2.508937e+03,5.047081e+02
2.509901e+03,5.081656e+02
2.510865e+03,5.168386e+02
2.511830e+03,5.157031e+02
2.512794e+03,5.080276e+02
2.513758e+03,5.043080e+02
2.514722e+03,5.037973e+02
2.515687e+03,5.022128e+02
2.516651e+03,5.001989e+02
2.517615e+03,4.981531e+02
2.518579e+03,4.968468e+02
2.519544e+03,4.980826e+02
2.520508e+03,4.991913e+02
2.521472e+03,4.993360e+02
2.522436e+03,4.991332e+02
2.523401e+03,5.004806e+02
2.524365e+03,4.958943e+02
2.525329e+03,4.852376e+02
2.526293e+03,4.850507e+02
2.527258e+03,5.002824e+02
2.528222e+03,5.062060e+02
2.529186e+03,5.044167e+02
2.530150e+03,5.000513e+02
2.531115e+03,4.953438e+02
2.532079e+03,4.942367e+02
2.533043e+03,4.963286e+02
2.534007e+03,5.017390e+02
2.534971e+03,5.050457e+02
2.535936e+03,4.972408e+02
2.536900e+03,4.898507e+02
2.537864e+03,4.867699e+02
2.538828e+03,4.853229e+02
2.539792e+03,4.832633e+02
2.540757e+03,4.833940e+02
2.541721e+03,4.859383e+02
2.542685e+03,4.880720e+02
2.543649e+03,4.899204e+02
2.544614e+03,4.996970e+02
2.545578e+03,5.114036e+02
2.546542e+03,5.081267e+02
2.547506e+03,4.962353e+02
2.548471e+03,4.870204e+02
2.549435e+03,4.835645e+02
2.550399e+03,4.908477e+02
2.551363e+03,4.991049e+02
2.552328e+03,5.002851e+02
2.553292e+03,5.009587e+02
2.554256e+03,5.032964e+02
2.555220e+03,5.053772e+02
2.556185e+03,5.068367e+02
2.557149e+03,5.040134e+02
2.558113e+03,4.966158e+02
2.559077e+03,4.947913e+02
2.560042e+03,4.962737e+02
2.561006e+03,4.918316e+02
2.561970e+03,4.855483e+02
2.562934e+03,4.855866e+02
2.563898e+03,4.875176e+02
2.564863e+03,4.853481e+02
2.565827e+03,4.834592e+02
2.566791e+03,4.887525e+02
2.567755e+03,4.901310e+02
2.568719e+03,4.841235e+02
2.569684e+03,4.807002e+02
2.570648e+03,4.861490e+02
2.571612e+03,4.858932e+02
2.572576e+03,4.811864e+02
2.573541e+03,4.776976e+02
2.574505e+03,4.762826e+02
2.575469e+03,4.828448e+02
2.576433e+03,4.897015e+02
2.577398e+03,4.841657e+02
2.578362e+03,4.755995e+02
2.579326e+03,4.771659e+02
2.580290e+03,4.790910e+02
2.581255e+03,4.765152e+02
2.582219e+03,4.747136e+02
2.583183e+03,4.796408e+02
2.584147e+03,4.817604e+02
2.585112e+03,4.812564e+02
2.586076e+03,4.778283e+02
2.587040e+03,4.716396e+02
2.588004e+03,4.679583e+02
2.588969e+03,4.676507e+02
2.589933e+03,4.750726e+02
2.590897e+03,4.833403e+02
2.591861e+03,4.736905e+02
2.592825e+03,4.648119e+02
2.593790e+03,4.694006e+02
2.594754e+03,4.746139e+02
2.595718e+03,4.714339e+02
2.596682e+03,4.681981e+02
2.597646e+03,4.661968e+02
2.598611e+03,4.645439e+02
2.599575e+03,4.636512e+02
2.600539e+03,4.684896e+02
2.601503e+03,4.762833e+02
2.602468e+03,4.749604e+02
2.603432e+03,4.686443e+02
2.604396e+03,4.649879e+02
2.605360e+03,4.631231e+02
2.606325e+03,4.613816e+02
2.607289e+03,4.620993e+02
2.608253e+03,4.669639e+02
2.609217e+03,4.692790e+02
2.610182e+03,4.642639e+02
2.611146e+03,4.584568e+02
2.612110e+03,4.532543e+02
2.613074e+03,4.545156e+02
2.614039e+03,4.614298e+02
2.615003e+03,4.641154e+02
2.615967e+03,4.629889e+02
2.616931e+03,4.583304e+02
2.617896e+03,4.550280e+02
2.618860e+03,4.616064e+02
2.619824e+03,4.679458e+02
2.620788e+03,4.704202e+02
2.621752e+03,4.680603e+02
2.622717e+03,4.566497e+02
2.623681e+03,4.551841e+02
2.624645e+03,4.629920e+02
2.625609e+03,4.692430e+02
2.626573e+03,4.723174e+02
2.627538e+03,4.658592e+02
2.628502e+03,4.563109e+02
2.629466e+03,4.528193e+02
2.630430e+03,4.521650e+02
2.631395e+03,4.498161e+02
2.632359e+03,4.502487e+02
2.633323e+03,4.570095e+02
2.634287e+03,4.579365e+02
2.635252e+03,4.509512e+02
2.636216e+03,4.459765e+02
2.637180e+03,4.450388e+02
2.638144e+03,4.495461e+02
2.639109e+03,4.563777e+02
2.640073e+03,4.572701e+02
2.641037e+03,4.560370e+02
2.642001e+03,4.576782e+02
2.642966e+03,4.574252e+02
2.643930e+03,4.520368e+02
2.644894e+03,4.482889e+02
2.645858e+03,4.527042e+02
2.646823e+03,4.551107e+02
2.647787e+03,4.549936e+02
2.648751e+03,4.581610e+02
2.649715e+03,4.641739e+02
2.650679e+03,4.574081e+02
2.651644e+03,4.462907e+02
2.652608e+03,4.438502e+02
2.653572e+03,4.456563e+02
2.654536e+03,4.456197e+02
2.655500e+03,4.482693e+02
2.656465e+03,4.561330e+02
2.657429e+03,4.602796e+02
2.658393e+03,4.575665e+02
2.659357e+03,4.525489e+02
2.660322e+03,4.465485e+02
2.661286e+03,4.392033e+02
2.662250e+03,4.332200e+02
2.663214e+03,4.402596e+02
2.664179e+03,4.499689e+02
2.665143e+03,4.490013e+02
2.666107e+03,4.477086e+02
2.667071e+03,4.525552e+02
2.668036e+03,4.526494e+02
2.669000e+03,4.368895e+02
2.669964e+03,4.305673e+02
2.670928e+03,4.329527e+02
2.671893e+03,4.345161e+02
2.672857e+03,4.346310e+02
2.673821e+03,4.348258e+02
2.674785e+03,4.352857e+02
2.675750e+03,4.360153e+02
2.676714e+03,4.386673e+02
2.677678e+03,4.488750e+02
2.678642e+03,4.525972e+02
2.679606e+03,4.465761e+02
2.680571e+03,4.421709e+02
2.681535e+03,4.413509e+02
2.682499e+03,4.372253e+02
2.683463e+03,4.313588e+02
2.684427e+03,4.314117e+02
2.685392e+03,4.352582e+02
2.686356e+03,4.417625e+02
2.687320e+03,4.452355e+02
2.688284e+03,4.388883e+02
2.689249e+03,4.354200e+02
2.690213e+03,4.373347e+02
2.691177e+03,4.335899e+02
2.692141e+03,4.201565e+02
2.693106e+03,4.166743e+02
2.694070e+03,4.208988e+02
2.695034e+03,4.285709e+02
2.695998e+03,4.364422e+02
2.696963e+03,4.404821e+02
2.697927e+03,4.417053e+02
2.698891e+03,4.403027e+02
2.699855e+03,4.377609e+02
2.700820e+03,4.347736e+02
2.701784e+03,4.337753e+02
2.702748e+03,4.343174e+02
2.703712e+03,4.332259e+02
2.704677e+03,4.306625e+02
2.705641e+03,4.260474e+02
2.706605e+03,4.241115e+02
2.707569e+03,4.332124e+02
2.708533e+03,4.388621e+02
2.709498e+03,4.338575e+02
2.710462e+03,4.297413e+02
2.711426e+03,4.332021e+02
2.712390e+03,4.311010e+02
2.713354e+03,4.251217e+02
2.714319e+03,4.235729e+02
2.715283e+03,4.256437e+02
2.716247e+03,4.315513e+02
2.717211e+03,4.365184e+02
2.718176e+03,4.374716e+02
2.719140e+03,4.366754e+02
2.720104e+03,4.352174e+02
2.721068e+03,4.327939e+02
2.722033e+03,4.295551e+02
2.722997e+03,4.280464e+02
2.723961e+03,4.274523e+02
2.724925e+03,4.230579e+02
2.725890e+03,4.196908e+02
2.726854e+03,4.261075e+02
2.727818e+03,4.329341e+02
2.728782e+03,4.348483e+02
2.729747e+03,4.329319e+02
2.730711e+03,4.257170e+02
2.731675e+03,4.202931e+02
2.732639e+03,4.163313e+02
2.733604e+03,4.097383e+02
2.734568e+03,4.025896e+02
2.735532e+03,4.005500e+02
2.736496e+03,4.038306e+02
2.737460e+03,4.131285e+02
2.738425e+03,4.214631e+02
2.739389e+03,4.251161e+02
2.740353e+03,4.213491e+02
2.741317e+03,4.108600e+02
2.742281e+03,4.109992e+02
2.743246e+03,4.185658e+02
2.744210e+03,4.195228e+02
2.745174e+03,4.186432e+02
2.746138e+03,4.272752e+02
2.747103e+03,4.297574e+02
2.748067e+03,4.204937e+02
2.749031e+03,4.120081e+02
2.749995e+03,4.100479e+02
2.750960e+03,4.094465e+02
2.751924e+03,4.109605e+02
2.752888e+03,4.186717e+02
2.753852e+03,4.265650e+02
2.754817e+03,4.171873e+02
2.755781e+03,4.090385e+02
2.756745e+03,4.133608e+02
2.757709e+03,4.167851e+02
2.758674e+03,4.145425e+02
2.759638e+03,4.134182e+02
2.760602e+03,4.145656e+02
2.761566e+03,4.146663e+02
2.762531e+03,4.146820e+02
2.763495e+03,4.154299e+02
2.764459e+03,4.163949e+02
2.765423e+03,4.177105e+02
2.766387e+03,4.195021e+02
2.767352e+03,4.219948e+02
2.768316e+03,4.185445e+02
2.769280e+03,4.082158e+02
2.770244e+03,4.057506e+02
2.771208e+03,4.089544e+02
2.772173e+03,4.124130e+02
2.773137e+03,4.132493e+02
2.774101e+03,4.069054e+02
2.775065e+03,4.033967e+02
2.776030e+03,4.072506e+02
2.776994e+03,4.104313e+02
2.777958e+03,4.119047e+02
2.778922e+03,4.139998e+02
2.779887e+03,4.151853e+02
2.780851e+03,4.062236e+02
2.781815e+03,4.001821e+02
2.782779e+03,4.070215e+02
2.783744e+03,4.113441e+02
2.784708e+03,4.008467e+02
2.785672e+03,3.968536e+02
2.786636e+03,4.006960e+02
2.787601e+03,4.058731e+02
2.788565e+03,4.112085e+02
2.789529e+03,4.139684e+02
2.790493e+03,4.160504e+02
2.791458e+03,4.198096e+02
2.792422e+03,4.208683e+02
2.793386e+03,4.190962e+02
2.794350e+03,4.108697e+02
2.795314e+03,3.953412e+02
2.796279e+03,3.977683e+02
2.797243e+03,4.057474e+02
2.798207e+03,3.988139e+02
2.799171e+03,3.896932e+02
2.800135e+03,3.952603e+02
2.801100e+03,3.997701e+02
2.802064e+03,4.000348e+02
2.803028e+03,4.023995e+02
2.803992e+03,4.051364e+02
2.804957e+03,3.908546e+02
2.805921e+03,3.732311e+02
2.806885e+03,3.794718e+02
2.807849e+03,3.919571e+02
2.808814e+03,4.013237e+02
2.809778e+03,4.054416e+02
2.810742e+03,4.014417e+02
2.811706e+03,4.054022e+02
2.812671e+03,4.124061e+02
2.813635e+03,4.042324e+02
2.814599e+03,3.914467e+02
2.815563e+03,3.987587e+02
2.816528e+03,4.046680e+02
2.817492e+03,3.984625e+02
2.818456e+03,3.907199e+02
2.819420e+03,3.835975e+02
2.820385e+03,3.831346e+02
2.821349e+03,3.880112e+02
2.822313e+03,3.913946e+02
2.823277e+03,3.938297e+02
2.824241e+03,3.958661e+02
2.825206e+03,3.963165e+02
2.826170e+03,3.940561e+02
2.827134e+03,3.964238e+02
2.828098e+03,4.019210e+02
2.829063e+03,3.942747e+02
2.830027e+03,3.828859e+02
2.830991e+03,3.924508e+02
2.831955e+03,4.035445e+02
2.832919e+03,3.988458e+02
2.833884e+03,3.937079e+02
2.834848e+03,3.907335e+02
2.835812e+03,3.903374e+02
2.836776e+03,3.917939e+02
2.837741e+03,3.878749e+02
2.838705e+03,3.871240e+02
2.839669e+03,4.010846e+02
2.840633e+03,4.099893e+02
2.841598e+03,4.027311e+02
2.842562e+03,3.976988e+02
2.843526e+03,3.997608e+02
2.844490e+03,4.005571e+02
2.845455e+03,4.011725e+02
2.846419e+03,4.052331e+02
2.847383e+03,4.083004e+02
2.848347e+03,4.016920e+02
2.849312e+03,4.017505e+02
2.850276e+03,4.107719e+02
2.851240e+03,4.102890e+02
2.852204e+03,4.013708e+02
2.853168e+03,3.972424e+02
2.854133e+03,3.972346e+02
2.855097e+03,4.027787e+02
2.856061e+03,4.066551e+02
2.857025e+03,4.063032e+02
2.857990e+03,4.031118e+02
2.858954e+03,3.974896e+02
2.859918e+03,3.998459e+02
2.860882e+03,4.061626e+02
2.861846e+03,4.102030e+02
2.862811e+03,4.109527e+02
2.863775e+03,4.059904e+02
2.864739e+03,4.031473e+02
2.865703e+03,4.045593e+02
2.866668e+03,4.032778e+02
2.867632e+03,4.012934e+02
2.868596e+03,4.063142e+02
2.869560e+03,4.130857e+02
2.870525e+03,4.162956e+02
2.871489e+03,4.200103e+02
2.872453e+03,4.250954e+02
2.873417e+03,4.200257e+02
2.874382e+03,4.071044e+02
2.875346e+03,4.106202e+02
2.876310e+03,4.187786e+02
2.877274e+03,4.074650e+02
2.878239e+03,4.043542e+02
2.879203e+03,4.189596e+02
2.880167e+03,4.287094e+02
2.881131e+03,4.273010e+02
2.882095e+03,4.134662e+02
2.883060e+03,4.008388e+02
2.884024e+03,4.121031e+02
2.884988e+03,4.245865e+02
2.885952e+03,4.158771e+02
2.886917e+03,4.122201e+02
2.887881e+03,4.203206e+02
2.888845e+03,4.167110e+02
2.889809e+03,4.101671e+02
2.890773e+03,4.257694e+02
2.891738e+03,4.411952e+02
2.892702e+03,4.250824e+02
2.893666e+03,4.191671e+02
2.894630e+03,4.301556e+02
2.895595e+03,4.315120e+02
2.896559e+03,4.242423e+02
2.897523e+03,4.250958e+02
2.898487e+03,4.269119e+02
2.899452e+03,4.196837e+02
2.900416e+03,4.140885e+02
2.901380e+03,4.123951e+02
2.902344e+03,4.178736e+02
2.903309e+03,4.286163e+02
2.904273e+03,4.242775e+02
2.905237e+03,4.166849e+02
2.906201e+03,4.199097e+02
2.907166e+03,4.194435e+02
2.908130e+03,4.085718e+02
2.909094e+03,4.106280e+02
2.910058e+03,4.267338e+02
2.911022e+03,4.223548e+02
2.911987e+03,4.080135e+02
2.912951e+03,3.943335e+02
2.913915e+03,3.870624e+02
2.914879e+03,3.919996e+02
2.915844e+03,3.993737e+02
2.916808e+03,4.062746e+02
2.917772e+03,4.010881e+02
2.918736e+03,3.913051e+02
2.919700e+03,3.872538e+02
2.920665e+03,3.867879e+02
2.921629e+03,3.917325e+02
2.922593e+03,3.918810e+02
2.923557e+03,3.896968e+02
2.924522e+03,4.011622e+02
2.925486e+03,4.152088e+02
2.926450e+03,3.985212e+02
2.927414e+03,3.862440e+02
2.928379e+03,3.972760e+02
2.929343e+03,3.993686e+02
2.930307e+03,3.916537e+02
2.931271e+03,3.893053e+02
2.932236e+03,3.907796e+02
2.933200e+03,3.937938e+02
2.934164e+03,3.927879e+02
2.935128e+03,3.849144e+02
2.936093e+03,3.793211e+02
2.937057e+03,3.775207e+02
2.938021e+03,3.799323e+02
2.938985e+03,3.839921e+02
2.939949e+03,3.871456e+02
2.940914e+03,3.845639e+02
2.941878e+03,3.754961e+02
2.942842e+03,3.721885e+02
2.943806e+03,3.759452e+02
2.944771e+03,3.838483e+02
2.945735e+03,3.939503e+02
2.946699e+03,4.073424e+02
2.947663e+03,4.122556e+02
2.948627e+03,4.057859e+02
2.949592e+03,3.912291e+02
2.950556e+03,3.722401e+02
2.951520e+03,3.740078e+02
2.952484e+03,3.791607e+02
2.953449e+03,3.666943e+02
2.954413e+03,3.677512e+02
2.955377e+03,3.956108e+02
2.956341e+03,4.127923e+02
2.957306e+03,4.144754e+02
2.958270e+03,4.096623e+02
2.959234e+03,4.009470e+02
2.960198e+03,3.920258e+02
2.961163e+03,3.814725e+02
2.962127e+03,3.661376e+02
2.963091e+03,3.709741e+02
2.964055e+03,3.882643e+02
2.965020e+03,3.862647e+02
2.965984e+03,3.819214e+02
2.966948e+03,3.883359e+02
2.967912e+03,3.874043e+02
2.968876e+03,3.678875e+02
2.969841e+03,3.625608e+02
2.970805e+03,3.681252e+02
2.971769e+03,3.787682e+02
2.972733e+03,3.842831e+02
2.973698e+03,3.773691e+02
2.974662e+03,3.643944e+02
2.975626e+03,3.471899e+02
2.976590e+03,3.564228e+02
2.977554e+03,3.737289e+02
2.978519e+03,3.740136e+02
2.979483e+03,3.678418e+02
2.980447e+03,3.613608e+02
2.981411e+03,3.611909e+02
2.982376e+03,3.681087e+02
2.983340e+03,3.769505e+02
2.984304e+03,3.800827e+02
2.985268e+03,3.701393e+02
2.986233e+03,3.584366e+02
2.987197e+03,3.490826e+02
2.988161e+03,3.575185e+02
2.989125e+03,3.734053e+02
2.990090e+03,3.583564e+02
2.991054e+03,3.427438e+02
2.992018e+03,3.523320e+02
2.992982e+03,3.555709e+02
2.993947e+03,3.386065e+02
2.994911e+03,3.437538e+02
2.995875e+03,3.584847e+02
2.996839e+03,3.591962e+02
2.997803e+03,3.597784e+02
2.998768e+03,3.706570e+02
2.999732e+03,3.708329e+02
3.000696e+03,3.580497e+02
3.001660e+03,3.563621e+02
3.002625e+03,3.605743e+02
3.003589e+03,3.652754e+02
3.004553e+03,3.690643e+02
3.005517e+03,3.719512e+02
3.006481e+03,3.686750e+02
3.007446e+03,3.603935e+02
3.008410e+03,3.568997e+02
3.009374e+03,3.502043e+02
3.010338e+03,3.349825e+02
3.011303e+03,3.354812e+02
3.012267e+03,3.587195e+02
3.013231e+03,3.576278e+02
3.014195e+03,3.460788e+02
3.015160e+03,3.516324e+02
3.016124e+03,3.585374e+02
3.017088e+03,3.606945e+02
3.018052e+03,3.548543e+02
3.019017e+03,3.433275e+02
3.019981e+03,3.535732e+02
3.020945e+03,3.605947e+02
3.021909e+03,3.398299e+02
3.022874e+03,3.298720e+02
3.023838e+03,3.366515e+02
3.024802e+03,3.367029e+02
3.025766e+03,3.331623e+02
3.026730e+03,3.414262e+02
3.027695e+03,3.475245e+02
3.028659e+03,3.454397e+02
3.029623e+03,3.482368e+02
3.030587e+03,3.550172e+02
3.031552e+03,3.497829e+02
3.032516e+03,3.406708e+02
3.033480e+03,3.374344e+02
3.034444e+03,3.336019e+02
3.035408e+03,3.290543e+02
3.036373e+03,3.384048e+02
3.037337e+03,3.514339e+02
3.038301e+03,3.272281e+02
3.039265e+03,3.095912e+02
3.040230e+03,3.297805e+02
3.041194e+03,3.443192e+02
3.042158e+03,3.505394e+02
3.043122e+03,3.514193e+02
3.044087e+03,3.503574e+02
3.045051e+03,3.489248e+02
3.046015e+03,3.522319e+02
3.046979e+03,3.626532e+02
3.047944e+03,3.527302e+02
3.048908e+03,3.382971e+02
3.049872e+03,3.451572e+02
3.050836e+03,3.498838e+02
3.051801e+03,3.341744e+02
3.052765e+03,3.329037e+02
3.053729e+03,3.469671e+02
3.054693e+03,3.596149e+02
3.055657e+03,3.644250e+02
3.056622e+03,3.574240e+02
3.057586e+03,3.527631e+02
3.058550e+03,3.549849e+02
3.059514e+03,3.458645e+02
3.060479e+03,3.361035e+02
3.061443e+03,3.489281e+02
3.062407e+03,3.501531e+02
3.063371e+03,3.327516e+02
3.064335e+03,3.331073e+02
3.065300e+03,3.481013e+02
3.066264e+03,3.480072e+02
3.067228e+03,3.435601e+02
3.068192e+03,3.393344e+02
3.069157e+03,3.453808e+02
3.070121e+03,3.577106e+02
3.071085e+03,3.575715e+02
3.072049e+03,3.514571e+02
3.073014e+03,3.476932e+02
3.073978e+03,3.424638e+02
3.074942e+03,3.354625e+02
3.075906e+03,3.382668e+02
3.076871e+03,3.453135e+02
3.077835e+03,3.480301e+02
3.078799e+03,3.468382e+02
3.079763e+03,3.413678e+02
3.080728e+03,3.294628e+02
3.081692e+03,3.187397e+02
3.082656e+03,3.341357e+02
3.083620e+03,3.503718e+02
3.084584e+03,3.537047e+02
3.085549e+03,3.466215e+02
3.086513e+03,3.317970e+02
3.087477e+03,3.253743e+02
3.088441e+03,3.308476e+02
3.089406e+03,3.621222e+02
3.090370e+03,3.658786e+02
3.091334e+03,3.404315e+02
3.092298e+03,3.290946e+02
3.093262e+03,3.319145e+02
3.094227e+03,3.567548e+02
3.095191e+03,3.685450e+02
3.096155e+03,3.533764e+02
3.097119e+03,3.352835e+02
3.098084e+03,3.236562e+02
3.099048e+03,3.323020e+02
3.100012e+03,3.451361e+02
3.100976e+03,3.516197e+02
3.101941e+03,3.546496e+02
3.102905e+03,3.522856e+02
3.103869e+03,3.355834e+02
3.104833e+03,3.193664e+02
3.105798e+03,3.124897e+02
3.106762e+03,3.168300e+02
3.107726e+03,3.307204e+02
3.108690e+03,3.426811e+02
3.109655e+03,3.473830e+02
3.110619e+03,3.346023e+02
3.111583e+03,3.225817e+02
3.112547e+03,3.162568e+02
3.113511e+03,3.272994e+02
3.114476e+03,3.426473e+02
3.115440e+03,3.310168e+02
3.116404e+03,3.234693e+02
3.117368e+03,3.330183e+02
3.118333e+03,3.386078e+02
3.119297e+03,3.407437e+02
3.120261e+03,3.415470e+02
3.121225e+03,3.426530e+02
3.122189e+03,3.448192e+02
3.123154e+03,3.429243e+02
3.124118e+03,3.386283e+02
3.125082e+03,3.418796e+02
3.126046e+03,3.462447e+02
3.127011e+03,3.479805e+02
3.127975e+03,3.570608e+02
3.128939e+03,3.692486e+02
3.129903e+03,3.565243e+02
3.130868e+03,3.409510e+02
3.131832e+03,3.405287e+02
3.132796e+03,3.480545e+02
3.133760e+03,3.571741e+02
3.134725e+03,3.438303e+02
3.135689e+03,3.262910e+02
3.136653e+03,3.202452e+02
3.137617e+03,3.380373e+02
3.138582e+03,3.836120e+02
3.139546e+03,3.688665e+02
3.140510e+03,3.350904e+02
3.141474e+03,3.261176e+02
3.142438e+03,3.350187e+02
3.143403e+03,3.520340e+02
3.144367e+03,3.285136e+02
3.145331e+03,2.961401e+02
3.146295e+03,3.150916e+02
3.147260e+03,3.339525e+02
3.148224e+03,3.398055e+02
3.149188e+03,3.487193e+02
3.150152e+03,3.542987e+02
3.151116e+03,3.457319e+02
3.152081e+03,3.475983e+02
3.153045e+03,3.698898e+02
3.154009e+03,3.819475e+02
3.154973e+03,3.800773e+02
3.155938e+03,3.529801e+02
3.156902e+03,3.346802e+02
3.157866e+03,3.328199e+02
3.158830e+03,3.242693e+02
3.159795e+03,3.148856e+02
3.160759e+03,3.293627e+02
3.161723e+03,3.402803e+02
3.162687e+03,3.270225e+02
3.163652e+03,3.348140e+02
3.164616e+03,3.520145e+02
3.165580e+03,3.544252e+02
3.166544e+03,3.518951e+02
3.167509e+03,3.499048e+02
3.168473e+03,3.430276e+02
3.169437e+03,3.341415e+02
3.170401e+03,3.311405e+02
3.171365e+03,3.377116e+02
3.172330e+03,3.563531e+02
3.173294e+03,3.638110e+02
3.174258e+03,3.544220e+02
3.175222e+03,3.154714e+02
3.176187e+03,2.921730e+02
3.177151e+03,3.164525e+02
3.178115e+03,3.286339e+02
3.179079e+03,3.306189e+02
3.180043e+03,3.439627e+02
3.181008e+03,3.575890e+02
3.181972e+03,3.672284e+02
3.182936e+03,3.535422e+02
3.183900e+03,3.293877e+02
3.184865e+03,3.327308e+02
3.185829e+03,3.479626e+02
3.186793e+03,3.868031e+02
3.187757e+03,3.667250e+02
3.188722e+03,3.221377e+02
3.189686e+03,3.324803e+02
3.190650e+03,3.522051e+02
3.191614e+03,3.600934e+02
3.192579e+03,3.490394e+02
3.193543e+03,3.304620e+02
3.194507e+03,3.405556e+02
3.195471e+03,3.469665e+02
3.196436e+03,3.353772e+02
3.197400e+03,3.240590e+02
3.198364e+03,3.188237e+02
3.199328e+03,3.262144e+02
3.200292e+03,3.367529e+02
3.201257e+03,0.000000e+00
3.202221e+03,0.000000e+00
3.203185e+03,0.000000e+00
3.204149e+03,0.000000e+00
3.205114e+03,0.000000e+00
3.206078e+03,0.000000e+00
3.207042e+03,0.000000e+00
3.208006e+03,0.000000e+00
3.208970e+03,0.000000e+00
3.209935e+03,0.000000e+00
3.210899e+03,0.000000e+00
3.211863e+03,0.000000e+00
3.212827e+03,0.000000e+00
3.213792e+03,0.000000e+00
3.214756e+03,0.000000e+00
3.215720e+03,0.000000e+00
3.216684e+03,0.000000e+00
3.217649e+03,0.000000e+00
3.218613e+03,0.000000e+00
3.219577e+03,0.000000e+00
3.220541e+03,0.000000e+00
3.221506e+03,0.000000e+00
3.222470e+03,0.000000e+00
3.223434e+03,0.000000e+00
3.224398e+03,0.000000e+00
3.225363e+03,0.000000e+00
3.226327e+03,0.000000e+00
3.227291e+03,0.000000e+00
3.228255e+03,0.000000e+00
3.229219e+03,0.000000e+00
3.230184e+03,0.000000e+00
3.231148e+03,0.000000e+00
3.232112e+03,0.000000e+00
3.233076e+03,0.000000e+00
3.234041e+03,0.000000e+00
3.235005e+03,0.000000e+00
3.235969e+03,0.000000e+00
3.236933e+03,0.000000e+00
3.237897e+03,0.000000e+00
3.238862e+03,0.000000e+00
3.239826e+03,0.000000e+00
3.240790e+03,0.000000e+00
3.241754e+03,0.000000e+00
3.242719e+03,0.000000e+00
3.243683e+03,0.000000e+00
3.244647e+03,0.000000e+00
3.245611e+03,0.000000e+00
3.246576e+03,0.000000e+00
3.247540e+03,0.000000e+00
3.248504e+03,0.000000e+00
3.249468e+03,0.000000e+00
3.250433e+03,0.000000e+00
3.251397e+03,0.000000e+00
3.252361e+03,0.000000e+00
3.253325e+03,0.000000e+00
3.254290e+03,0.000000e+00
3.255254e+03,0.000000e+00
3.256218e+03,0.000000e+00
3.257182e+03,0.000000e+00
3.258146e+03,0.000000e+00
3.259111e+03,0.000000e+00
3.260075e+03,0.000000e+00
3.261039e+03,0.000000e+00
3.262003e+03,0.000000e+00
3.262968e+03,0.000000e+00
3.263932e+03,0.000000e+00
3.264896e+03,0.000000e+00
3.265860e+03,0.000000e+00
3.266824e+03,0.000000e+00
3.267789e+03,0.000000e+00
3.268753e+03,0.000000e+00
3.269717e+03,0.000000e+00
3.270681e+03,0.000000e+00
3.271646e+03,0.000000e+00
3.272610e+03,0.000000e+00
3.273574e+03,0.000000e+00
3.274538e+03,0.000000e+00
3.275503e+03,0.000000e+00
3.276467e+03,0.000000e+00
3.277431e+03,0.000000e+00
3.278395e+03,0.000000e+00
3.279360e+03,0.000000e+00
3.280324e+03,0.000000e+00
3.281288e+03,0.000000e+00
3.282252e+03,0.000000e+00
3.283217e+03,0.000000e+00
3.284181e+03,0.000000e+00
3.285145e+03,0.000000e+00
3.286109e+03,0.000000e+00
3.287073e+03,0.000000e+00
3.288038e+03,0.000000e+00
3.289002e+03,0.000000e+00
3.289966e+03,0.000000e+00
3.290930e+03,0.000000e+00
3.291895e+03,0.000000e+00
3.292859e+03,0.000000e+00
3.293823e+03,0.000000e+00
3.294787e+03,0.000000e+00
3.295751e+03,0.000000e+00
3.296716e+03,0.000000e+00
3.297680e+03,0.000000e+00
3.298644e+03,0.000000e+00
3.299608e+03,0.000000e+00
3.300573e+03,0.000000e+00
3.301537e+03,0.000000e+00
3.302501e+03,0.000000e+00
3.303465e+03,0.000000e+00
3.304430e+03,0.000000e+00
3.305394e+03,0.000000e+00
3.306358e+03,0.000000e+00
3.307322e+03,0.000000e+00
3.308287e+03,0.000000e+00
3.309251e+03,0.000000e+00
3.310215e+03,0.000000e+00
3.311179e+03,0.000000e+00
3.312144e+03,0.000000e+00
3.313108e+03,0.000000e+00
3.314072e+03,0.000000e+00
3.315036e+03,0.000000e+00
3.316000e+03,0.000000e+00
3.316965e+03,0.000000e+00
3.317929e+03,0.000000e+00
3.318893e+03,0.000000e+00
3.319857e+03,0.000000e+00
3.320822e+03,0.000000e+00
3.321786e+03,0.000000e+00
3.322750e+03,0.000000e+00
3.323714e+03,0.000000e+00
3.324678e+03,0.000000e+00
3.325643e+03,0.000000e+00
3.326607e+03,0.000000e+00
3.327571e+03,0.000000e+00
3.328535e+03,0.000000e+00
3.329500e+03,0.000000e+00
3.330464e+03,0.000000e+00
3.331428e+03,0.000000e+00
3.332392e+03,0.000000e+00
3.333357e+03,0.000000e+00
3.334321e+03,0.000000e+00
3.335285e+03,0.000000e+00
3.336249e+03,0.000000e+00
3.337214e+03,0.000000e+00
3.338178e+03,0.000000e+00
3.339142e+03,0.000000e+00
3.340106e+03,0.000000e+00
3.341071e+03,0.000000e+00
3.342035e+03,0.000000e+00
3.342999e+03,0.000000e+00
3.343963e+03,0.000000e+00
3.344927e+03,0.000000e+00
3.345892e+03,0.000000e+00
3.346856e+03,0.000000e+00
3.347820e+03,0.000000e+00
3.348784e+03,0.000000e+00
3.349749e+03,0.000000e+00
3.350713e+03,0.000000e+00
3.351677e+03,0.000000e+00
3.352641e+03,0.000000e+00
3.353605e+03,0.000000e+00
3.354570e+03,0.000000e+00
3.355534e+03,0.000000e+00
3.356498e+03,0.000000e+00
3.357462e+03,0.000000e+00
3.358427e+03,0.000000e+00
3.359391e+03,0.000000e+00
3.360355e+03,0.000000e+00
3.361319e+03,0.000000e+00
3.362284e+03,0.000000e+00
3.363248e+03,0.000000e+00
3.364212e+03,0.000000e+00
3.365176e+03,0.000000e+00
3.366141e+03,0.000000e+00
3.367105e+03,0.000000e+00
3.368069e+03,0.000000e+00
3.369033e+03,0.000000e+00
3.369998e+03,0.000000e+00
3.370962e+03,0.000000e+00
3.371926e+03,0.000000e+00
3.372890e+03,0.000000e+00
3.373854e+03,0.000000e+00
3.374819e+03,0.000000e+00
3.375783e+03,0.000000e+00
3.376747e+03,0.000000e+00
3.377711e+03,0.000000e+00
3.378676e+03,0.000000e+00
3.379640e+03,0.000000e+00
3.380604e+03,0.000000e+00
3.381568e+03,0.000000e+00
3.382532e+03,0.000000e+00
3.383497e+03,0.000000e+00
3.384461e+03,0.000000e+00
3.385425e+03,0.000000e+00
3.386389e+03,0.000000e+00
3.387354e+03,0.000000e+00
3.388318e+03,0.000000e+00
3.389282e+03,0.000000e+00
3.390246e+03,0.000000e+00
3.391211e+03,0.000000e+00
3.392175e+03,0.000000e+00
3.393139e+03,0.000000e+00
3.394103e+03,0.000000e+00
3.395068e+03,0.000000e+00
3.396032e+03,0.000000e+00
3.396996e+03,0.000000e+00
3.397960e+03,0.000000e+00
3.398925e+03,0.000000e+00
3.399889e+03,0.000000e+00
3.400853e+03,0.000000e+00
3.401817e+03,0.000000e+00
3.402781e+03,0.000000e+00
3.403746e+03,0.000000e+00
3.404710e+03,0.000000e+00
3.405674e+03,0.000000e+00
3.406638e+03,0.000000e+00
3.407603e+03,0.000000e+00
3.408567e+03,0.000000e+00
3.409531e+03,0.000000e+00
3.410495e+03,0.000000e+00
3.411459e+03,0.000000e+00
3.412424e+03,0.000000e+00
3.413388e+03,0.000000e+00
3.414352e+03,0.000000e+00
3.415316e+03,0.000000e+00
3.416281e+03,0.000000e+00
3.417245e+03,0.000000e+00
3.418209e+03,0.000000e+00
3.419173e+03,0.000000e+00
3.420138e+03,0.000000e+00
3.421102e+03,0.000000e+00
3.422066e+03,0.000000e+00
3.423030e+03,0.000000e+00
3.423995e+03,0.000000e+00
3.424959e+03,0.000000e+00
3.425923e+03,0.000000e+00
3.426887e+03,0.000000e+00
3.427852e+03,0.000000e+00
3.428816e+03,0.000000e+00
3.429780e+03,0.000000e+00
3.430744e+03,0.000000e+00
3.431708e+03,0.000000e+00
3.432673e+03,0.000000e+00
3.433637e+03,0.000000e+00
3.434601e+03,0.000000e+00
3.435565e+03,0.000000e+00
3.436530e+03,0.000000e+00
3.437494e+03,0.000000e+00
3.438458e+03,0.000000e+00
3.439422e+03,0.000000e+00
3.440386e+03,0.000000e+00
3.441351e+03,0.000000e+00
3.442315e+03,0.000000e+00
3.443279e+03,0.000000e+00
3.444243e+03,0.000000e+00
3.445208e+03,0.000000e+00
3.446172e+03,0.000000e+00
3.447136e+03,0.000000e+00
3.448100e+03,0.000000e+00
3.449065e+03,0.000000e+00
3.450029e+03,0.000000e+00
3.450993e+03,0.000000e+00
3.451957e+03,0.000000e+00
3.452922e+03,0.000000e+00
3.453886e+03,0.000000e+00
3.454850e+03,0.000000e+00
3.455814e+03,0.000000e+00
3.456779e+03,0.000000e+00
3.457743e+03,0.000000e+00
3.458707e+03,0.000000e+00
3.459671e+03,0.000000e+00
3.460635e+03,0.000000e+00
3.461600e+03,0.000000e+00
3.462564e+03,0.000000e+00
3.463528e+03,0.000000e+00
3.464492e+03,0.000000e+00
3.465457e+03,0.000000e+00
3.466421e+03,0.000000e+00
3.467385e+03,0.000000e+00
3.468349e+03,0.000000e+00
3.469313e+03,0.000000e+00
3.470278e+03,0.000000e+00
3.471242e+03,0.000000e+00
3.472206e+03,0.000000e+00
3.473170e+03,0.000000e+00
3.474135e+03,0.000000e+00
3.475099e+03,0.000000e+00
3.476063e+03,0.000000e+00
3.477027e+03,0.000000e+00
3.477992e+03,0.000000e+00
3.478956e+03,0.000000e+00
3.479920e+03,0.000000e+00
3.480884e+03,0.000000e+00
3.481849e+03,0.000000e+00
3.482813e+03,0.000000e+00
3.483777e+03,0.000000e+00
3.484741e+03,0.000000e+00
3.485706e+03,0.000000e+00
3.486670e+03,0.000000e+00
3.487634e+03,0.000000e+00
3.488598e+03,0.000000e+00
3.489563e+03,0.000000e+00
3.490527e+03,0.000000e+00
3.491491e+03,0.000000e+00
3.492455e+03,0.000000e+00
3.493419e+03,0.000000e+00
3.494384e+03,0.000000e+00
3.495348e+03,0.000000e+00
3.496312e+03,0.000000e+00
3.497276e+03,0.000000e+00
3.498240e+03,0.000000e+00
3.499205e+03,0.000000e+00
3.500169e+03,0.000000e+00
