9.931763e+01,0.000000e+00
1.002819e+02,0.000000e+00
1.012461e+02,0.000000e+00
1.022103e+02,0.000000e+00
1.031746e+02,0.000000e+00
1.041388e+02,0.000000e+00
1.051030e+02,0.000000e+00
1.060673e+02,0.000000e+00
1.070315e+02,0.000000e+00
1.079957e+02,0.000000e+00
1.089600e+02,0.000000e+00
1.099242e+02,0.000000e+00
1.108884e+02,0.000000e+00
1.118527e+02,0.000000e+00
1.128169e+02,0.000000e+00
1.137811e+02,0.000000e+00
1.147454e+02,0.000000e+00
1.157096e+02,0.000000e+00
1.166738e+02,0.000000e+00
1.176381e+02,0.000000e+00
1.186023e+02,0.000000e+00
1.195665e+02,0.000000e+00
1.205308e+02,0.000000e+00
1.214950e+02,0.000000e+00
1.224592e+02,0.000000e+00
1.234235e+02,0.000000e+00
1.243877e+02,0.000000e+00
1.253519e+02,0.000000e+00
1.263162e+02,0.000000e+00
1.272804e+02,0.000000e+00
1.282446e+02,0.000000e+00
1.292089e+02,0.000000e+00
1.301731e+02,0.000000e+00
1.311373e+02,0.000000e+00
1.321016e+02,0.000000e+00
1.330658e+02,0.000000e+00
1.340300e+02,0.000000e+00
1.349943e+02,0.000000e+00
1.359585e+02,0.000000e+00
1.369227e+02,0.000000e+00
1.378870e+02,0.000000e+00
1.388512e+02,0.000000e+00
1.398154e+02,0.000000e+00
1.407797e+02,0.000000e+00
1.417439e+02,0.000000e+00
1.427081e+02,0.000000e+00
1.436724e+02,0.000000e+00
1.446366e+02,0.000000e+00
1.456008e+02,0.000000e+00
1.465651e+02,0.000000e+00
1.475293e+02,0.000000e+00
1.484935e+02,0.000000e+00
1.494578e+02,0.000000e+00
1.504220e+02,0.000000e+00
1.513862e+02,0.000000e+00
1.523505e+02,0.000000e+00
1.533147e+02,0.000000e+00
1.542789e+02,0.000000e+00
1.552432e+02,0.000000e+00
1.562074e+02,0.000000e+00
1.571716e+02,0.000000e+00
1.581359e+02,0.000000e+00
1.591001e+02,0.000000e+00
1.600643e+02,0.000000e+00
1.610286e+02,0.000000e+00
1.619928e+02,0.000000e+00
1.629570e+02,0.000000e+00
1.639213e+02,0.000000e+00
1.648855e+02,0.000000e+00
1.658497e+02,0.000000e+00
1.668140e+02,0.000000e+00
1.677782e+02,0.000000e+00
1.687424e+02,0.000000e+00
1.697067e+02,0.000000e+00
1.706709e+02,0.000000e+00
1.716351e+02,0.000000e+00
1.725994e+02,0.000000e+00
1.735636e+02,0.000000e+00
1.745278e+02,0.000000e+00
1.754921e+02,0.000000e+00
1.764563e+02,0.000000e+00
1.774205e+02,0.000000e+00
1.783848e+02,0.000000e+00
1.793490e+02,0.000000e+00
1.803132e+02,0.000000e+00
1.812775e+02,0.000000e+00
1.822417e+02,0.000000e+00
1.832059e+02,0.000000e+00
1.841702e+02,0.000000e+00
1.851344e+02,0.000000e+00
1.860986e+02,0.000000e+00
1.870629e+02,0.000000e+00
1.880271e+02,0.000000e+00
1.889913e+02,0.000000e+00
1.899556e+02,0.000000e+00
1.909198e+02,0.000000e+00
1.918840e+02,0.000000e+00
1.928483e+02,0.000000e+00
1.938125e+02,0.000000e+00
1.947767e+02,0.000000e+00
1.957410e+02,0.000000e+00
1.967052e+02,0.000000e+00
1.976694e+02,0.000000e+00
1.986337e+02,0.000000e+00
1.995979e+02,1.000496e+04
2.005621e+02,9.996709e+03
2.015264e+02,9.997348e+03
2.024906e+02,1.001620e+04
2.034548e+02,1.003641e+04
2.044191e+02,1.005350e+04
2.053833e+02,1.006522e+04
2.063475e+02,1.007149e+04
2.073118e+02,1.007189e+04
2.082760e+02,1.006386e+04
2.092402e+02,1.005797e+04
2.102045e+02,1.006227e+04
2.111687e+02,1.007185e+04
2.121329e+02,1.008168e+04
2.130972e+02,1.008727e+04
2.140614e+02,1.008886e+04
2.150256e+02,1.009167e+04
2.159899e+02,1.009741e+04
2.169541e+02,1.010452e+04
2.179183e+02,1.011335e+04
2.188826e+02,1.012301e+04
2.198468e+02,1.013414e+04
2.208110e+02,1.014880e+04
2.217753e+02,1.016546e+04
2.227395e+02,1.017445e+04
2.237037e+02,1.017697e+04
2.246680e+02,1.017556e+04
2.256322e+02,1.016967e+04
2.265964e+02,1.015892e+04
2.275607e+02,1.015121e+04
2.285249e+02,1.015604e+04
2.294892e+02,1.017554e+04
2.304534e+02,1.019834e+04
2.314176e+02,1.021175e+04
2.323819e+02,1.021594e+04
2.333461e+02,1.021883e+04
2.343103e+02,1.022260e+04
2.352746e+02,1.022907e+04
2.362388e+02,1.024022e+04
2.372030e+02,1.025586e+04
2.381673e+02,1.026868e+04
2.391315e+02,1.027211e+04
2.400957e+02,1.027019e+04
2.410600e+02,1.026514e+04
2.420242e+02,1.025670e+04
2.429884e+02,1.024878e+04
2.439527e+02,1.024808e+04
2.449169e+02,1.025672e+04
2.458811e+02,1.027424e+04
2.468454e+02,1.028711e+04
2.478096e+02,1.028990e+04
2.487738e+02,1.029217e+04
2.497381e+02,1.030177e+04
2.507023e+02,1.032009e+04
2.516665e+02,1.034165e+04
2.526308e+02,1.035687e+04
2.535950e+02,1.035564e+04
2.545592e+02,1.035050e+04
2.555235e+02,1.034180e+04
2.564877e+02,1.033240e+04
2.574519e+02,1.032639e+04
2.584161e+02,1.032748e+04
2.593804e+02,1.033675e+04
2.603446e+02,1.034944e+04
2.613088e+02,1.036513e+04
2.622731e+02,1.037884e+04
2.632373e+02,1.038665e+04
2.642015e+02,1.038742e+04
2.651658e+02,1.038619e+04
2.661300e+02,1.039252e+04
2.670942e+02,1.041189e+04
2.680585e+02,1.042770e+04
2.690227e+02,1.043650e+04
2.699869e+02,1.044026e+04
2.709512e+02,1.043817e+04
2.719154e+02,1.043047e+04
2.728796e+02,1.042344e+04
2.738439e+02,1.042685e+04
2.748081e+02,1.044593e+04
2.757723e+02,1.046932e+04
2.767366e+02,1.047911e+04
2.777008e+02,1.047479e+04
2.786650e+02,1.047131e+04
2.796293e+02,1.047997e+04
2.805935e+02,1.049592e+04
2.815577e+02,1.050726e+04
2.825220e+02,1.050958e+04
2.834862e+02,1.050619e+04
2.844504e+02,1.050522e+04
2.854147e+02,1.051303e+04
2.863789e+02,1.051844e+04
2.873431e+02,1.051939e+04
2.883074e+02,1.051920e+04
2.892716e+02,1.052146e+04
2.902358e+02,1.052666e+04
2.912001e+02,1.053348e+04
2.921643e+02,1.053378e+04
2.931285e+02,1.051992e+04
2.940928e+02,1.051131e+04
2.950570e+02,1.051851e+04
2.960212e+02,1.053833e+04
2.969855e+02,1.055843e+04
2.979497e+02,1.056585e+04
2.989139e+02,1.055581e+04
2.998782e+02,1.055085e+04
3.008424e+02,1.056120e+04
3.018066e+02,1.057778e+04
3.027709e+02,1.059031e+04
3.037351e+02,1.059287e+04
3.046993e+02,1.058898e+04
3.056636e+02,1.058798e+04
3.066278e+02,1.059363e+04
3.075920e+02,1.059863e+04
3.085563e+02,1.059731e+04
3.095205e+02,1.059471e+04
3.104847e+02,1.059781e+04
3.114490e+02,1.060752e+04
3.124132e+02,1.062076e+04
3.133774e+02,1.063578e+04
3.143417e+02,1.065382e+04
3.153059e+02,1.066683e+04
3.162701e+02,1.066656e+04
3.172344e+02,1.065109e+04
3.181986e+02,1.063964e+04
3.191628e+02,1.063943e+04
3.201271e+02,1.064799e+04
3.210913e+02,1.066068e+04
3.220555e+02,1.067558e+04
3.230198e+02,1.069103e+04
3.239840e+02,1.070079e+04
3.249482e+02,1.069908e+04
3.259125e+02,1.069652e+04
3.268767e+02,1.069602e+04
3.278409e+02,1.069793e+04
3.288052e+02,1.070149e+04
3.297694e+02,1.070565e+04
3.307336e+02,1.070994e+04
3.316979e+02,1.071613e+04
3.326621e+02,1.072980e+04
3.336263e+02,1.073917e+04
3.345906e+02,1.073771e+04
3.355548e+02,1.072675e+04
3.365190e+02,1.071704e+04
3.374833e+02,1.071910e+04
3.384475e+02,1.073312e+04
3.394117e+02,1.074873e+04
3.403760e+02,1.075956e+04
3.413402e+02,1.076668e+04
3.423044e+02,1.077342e+04
3.432687e+02,1.077685e+04
3.442329e+02,1.078112e+04
3.451971e+02,1.078894e+04
3.461614e+02,1.079761e+04
3.471256e+02,1.080259e+04
3.480898e+02,1.080455e+04
3.490541e+02,1.080675e+04
3.500183e+02,1.080625e+04
3.509825e+02,1.080237e+04
3.519468e+02,1.080130e+04
3.529110e+02,1.080547e+04
3.538752e+02,1.081347e+04
3.548395e+02,1.082312e+04
3.558037e+02,1.083461e+04
3.567680e+02,1.085294e+04
3.577322e+02,1.086523e+04
3.586964e+02,1.086948e+04
3.596607e+02,1.087256e+04
3.606249e+02,1.087946e+04
3.615891e+02,1.089086e+04
3.625534e+02,1.089933e+04
3.635176e+02,1.089380e+04
3.644818e+02,1.087280e+04
3.654461e+02,1.085206e+04
3.664103e+02,1.084586e+04
3.673745e+02,1.085671e+04
3.683388e+02,1.087379e+04
3.693030e+02,1.089130e+04
3.702672e+02,1.090601e+04
3.712315e+02,1.091511e+04
3.721957e+02,1.091672e+04
3.731599e+02,1.091267e+04
3.741242e+02,1.090944e+04
3.750884e+02,1.091352e+04
3.760526e+02,1.092212e+04
3.770169e+02,1.093802e+04
3.779811e+02,1.095495e+04
3.789453e+02,1.096447e+04
3.799096e+02,1.096108e+04
3.808738e+02,1.094740e+04
3.818380e+02,1.093676e+04
3.828023e+02,1.093812e+04
3.837665e+02,1.094072e+04
3.847307e+02,1.093630e+04
3.856950e+02,1.092848e+04
3.866592e+02,1.092566e+04
3.876234e+02,1.093794e+04
3.885877e+02,1.095833e+04
3.895519e+02,1.096526e+04
3.905161e+02,1.095187e+04
3.914804e+02,1.093122e+04
3.924446e+02,1.091858e+04
3.934088e+02,1.091700e+04
3.943731e+02,1.091896e+04
3.953373e+02,1.092737e+04
3.963015e+02,1.093620e+04
3.972658e+02,1.093557e+04
3.982300e+02,1.092250e+04
3.991942e+02,1.090556e+04
4.001585e+02,1.089954e+04
4.011227e+02,1.090411e+04
4.020869e+02,1.091290e+04
4.030512e+02,1.092657e+04
4.040154e+02,1.093924e+04
4.049796e+02,1.094545e+04
4.059439e+02,1.093777e+04
4.069081e+02,1.092131e+04
4.078723e+02,1.091763e+04
4.088366e+02,1.093093e+04
4.098008e+02,1.094144e+04
4.107650e+02,1.093997e+04
4.117293e+02,1.092889e+04
4.126935e+02,1.092138e+04
4.136577e+02,1.092733e+04
4.146220e+02,1.093768e+04
4.155862e+02,1.093706e+04
4.165504e+02,1.092150e+04
4.175147e+02,1.090206e+04
4.184789e+02,1.089573e+04
4.194431e+02,1.092421e+04
4.204074e+02,1.093877e+04
4.213716e+02,1.092802e+04
4.223358e+02,1.090674e+04
4.233001e+02,1.089083e+04
4.242643e+02,1.088877e+04
4.252285e+02,1.089577e+04
4.261928e+02,1.089954e+04
4.271570e+02,1.090037e+04
4.281212e+02,1.089978e+04
4.290855e+02,1.089270e+04
4.300497e+02,1.088198e+04
4.310139e+02,1.087654e+04
4.319782e+02,1.088646e+04
4.329424e+02,1.090228e+04
4.339066e+02,1.091010e+04
4.348709e+02,1.090742e+04
4.358351e+02,1.090257e+04
4.367993e+02,1.090467e+04
4.377636e+02,1.091959e+04
4.387278e+02,1.092802e+04
4.396920e+02,1.093231e+04
4.406563e+02,1.093191e+04
4.416205e+02,1.092286e+04
4.425847e+02,1.090392e+04
4.435490e+02,1.088196e+04
4.445132e+02,1.086657e+04
4.454774e+02,1.085952e+04
4.464417e+02,1.085924e+04
4.474059e+02,1.086917e+04
4.483701e+02,1.088082e+04
4.493344e+02,1.088569e+04
4.502986e+02,1.088055e+04
4.512628e+02,1.087453e+04
4.522271e+02,1.087444e+04
4.531913e+02,1.087902e+04
4.541555e+02,1.088223e+04
4.551198e+02,1.087911e+04
4.560840e+02,1.087016e+04
4.570482e+02,1.086486e+04
4.580125e+02,1.087378e+04
4.589767e+02,1.088551e+04
4.599409e+02,1.089284e+04
4.609052e+02,1.089293e+04
4.618694e+02,1.088795e+04
4.628336e+02,1.088153e+04
4.637979e+02,1.087412e+04
4.647621e+02,1.086222e+04
4.657263e+02,1.084498e+04
4.666906e+02,1.083148e+04
4.676548e+02,1.082633e+04
4.686190e+02,1.082885e+04
4.695833e+02,1.083322e+04
4.705475e+02,1.083885e+04
4.715117e+02,1.084342e+04
4.724760e+02,1.084446e+04
4.734402e+02,1.084174e+04
4.744044e+02,1.083705e+04
4.753687e+02,1.083360e+04
4.763329e+02,1.083468e+04
4.772971e+02,1.083224e+04
4.782614e+02,1.081955e+04
4.792256e+02,1.080540e+04
4.801898e+02,1.080034e+04
4.811541e+02,1.081257e+04
4.821183e+02,1.083014e+04
4.830826e+02,1.083502e+04
4.840468e+02,1.082556e+04
4.850110e+02,1.081470e+04
4.859753e+02,1.081263e+04
4.869395e+02,1.081948e+04
4.879037e+02,1.082001e+04
4.888680e+02,1.081366e+04
4.898322e+02,1.080419e+04
4.907964e+02,1.079088e+04
4.917607e+02,1.077607e+04
4.927249e+02,1.076597e+04
4.936891e+02,1.076806e+04
4.946534e+02,1.078291e+04
4.956176e+02,1.079462e+04
4.965818e+02,1.080362e+04
4.975461e+02,1.080905e+04
4.985103e+02,1.080838e+04
4.994745e+02,1.079772e+04
5.004388e+02,1.078601e+04
5.014030e+02,1.078093e+04
5.023672e+02,1.078028e+04
5.033315e+02,1.077838e+04
5.042957e+02,1.077275e+04
5.052599e+02,1.076368e+04
5.062242e+02,1.075465e+04
5.071884e+02,1.074720e+04
5.081526e+02,1.074212e+04
5.091169e+02,1.074008e+04
5.100811e+02,1.074291e+04
5.110453e+02,1.075116e+04
5.120095e+02,1.077040e+04
5.129738e+02,1.079196e+04
5.139380e+02,1.080475e+04
5.149022e+02,1.080919e+04
5.158665e+02,1.080808e+04
5.168307e+02,1.079692e+04
5.177949e+02,1.077095e+04
5.187592e+02,1.075036e+04
5.197234e+02,1.075685e+04
5.206876e+02,1.076389e+04
5.216519e+02,1.075835e+04
5.226161e+02,1.074389e+04
5.235803e+02,1.073136e+04
5.245446e+02,1.073053e+04
5.255088e+02,1.073939e+04
5.264730e+02,1.074424e+04
5.274373e+02,1.074389e+04
5.284015e+02,1.074088e+04
5.293657e+02,1.073499e+04
5.303300e+02,1.072677e+04
5.312942e+02,1.071602e+04
5.322584e+02,1.070755e+04
5.332227e+02,1.070146e+04
5.341869e+02,1.069366e+04
5.351511e+02,1.068168e+04
5.361154e+02,1.066887e+04
5.370796e+02,1.066070e+04
5.380438e+02,1.065800e+04
5.390081e+02,1.066365e+04
5.399723e+02,1.069074e+04
5.409365e+02,1.072091e+04
5.419008e+02,1.073255e+04
5.428650e+02,1.071035e+04
5.438292e+02,1.068739e+04
5.447935e+02,1.068386e+04
5.457577e+02,1.069290e+04
5.467219e+02,1.070093e+04
5.476862e+02,1.070294e+04
5.486504e+02,1.069978e+04
5.496146e+02,1.069489e+04
5.505789e+02,1.068914e+04
5.515431e+02,1.067893e+04
5.525073e+02,1.066670e+04
5.534716e+02,1.065629e+04
5.544358e+02,1.064746e+04
5.554000e+02,1.062792e+04
5.563643e+02,1.061173e+04
5.573285e+02,1.061993e+04
5.582927e+02,1.064772e+04
5.592570e+02,1.066905e+04
5.602212e+02,1.066754e+04
5.611854e+02,1.064260e+04
5.621497e+02,1.062745e+04
5.631139e+02,1.063357e+04
5.640781e+02,1.063374e+04
5.650424e+02,1.062096e+04
5.660066e+02,1.059871e+04
5.669708e+02,1.057729e+04
5.679351e+02,1.056203e+04
5.688993e+02,1.055359e+04
5.698635e+02,1.055361e+04
5.708278e+02,1.056358e+04
5.717920e+02,1.057951e+04
5.727562e+02,1.059683e+04
5.737205e+02,1.061652e+04
5.746847e+02,1.062430e+04
5.756489e+02,1.060811e+04
5.766132e+02,1.058819e+04
5.775774e+02,1.057687e+04
5.785416e+02,1.057603e+04
5.795059e+02,1.057782e+04
5.804701e+02,1.057678e+04
5.814343e+02,1.057356e+04
5.823986e+02,1.057078e+04
5.833628e+02,1.056989e+04
5.843270e+02,1.056941e+04
5.852913e+02,1.056644e+04
5.862555e+02,1.055982e+04
5.872197e+02,1.055233e+04
5.881840e+02,1.053655e+04
5.891482e+02,1.052199e+04
5.901124e+02,1.051916e+04
5.910767e+02,1.053276e+04
5.920409e+02,1.054762e+04
5.930051e+02,1.054581e+04
5.939694e+02,1.052927e+04
5.949336e+02,1.051364e+04
5.958978e+02,1.050390e+04
5.968621e+02,1.049797e+04
5.978263e+02,1.049174e+04
5.987905e+02,1.048636e+04
5.997548e+02,1.048257e+04
6.007190e+02,1.048246e+04
6.016832e+02,1.048536e+04
6.026475e+02,1.048796e+04
6.036117e+02,1.048522e+04
6.045759e+02,1.048218e+04
6.055402e+02,1.048700e+04
6.065044e+02,1.049712e+04
6.074686e+02,1.050276e+04
6.084329e+02,1.050212e+04
6.093971e+02,1.049632e+04
6.103613e+02,1.048566e+04
6.113256e+02,1.046107e+04
6.122899e+02,1.044254e+04
6.132541e+02,1.043659e+04
6.142183e+02,1.043826e+04
6.151826e+02,1.043981e+04
6.161468e+02,1.044130e+04
6.171110e+02,1.044317e+04
6.180753e+02,1.044385e+04
6.190395e+02,1.044235e+04
6.200037e+02,1.043800e+04
6.209680e+02,1.042940e+04
6.219322e+02,1.041827e+04
6.228964e+02,1.041049e+04
6.238607e+02,1.040419e+04
6.248249e+02,1.040183e+04
6.257891e+02,1.040339e+04
6.267534e+02,1.040514e+04
6.277176e+02,1.040348e+04
6.286818e+02,1.040124e+04
6.296461e+02,1.039814e+04
6.306103e+02,1.039048e+04
6.315745e+02,1.037961e+04
6.325388e+02,1.037266e+04
6.335030e+02,1.037480e+04
6.344672e+02,1.038494e+04
6.354315e+02,1.038689e+04
6.363957e+02,1.037028e+04
6.373599e+02,1.035202e+04
6.383242e+02,1.034544e+04
6.392884e+02,1.035016e+04
6.402526e+02,1.035041e+04
6.412169e+02,1.033248e+04
6.421811e+02,1.031266e+04
6.431453e+02,1.030916e+04
6.441096e+02,1.032112e+04
6.450738e+02,1.033390e+04
6.460380e+02,1.033580e+04
6.470023e+02,1.032881e+04
6.479665e+02,1.031964e+04
6.489307e+02,1.030032e+04
6.498950e+02,1.028415e+04
6.508592e+02,1.028475e+04
6.518234e+02,1.030292e+04
6.527877e+02,1.031074e+04
6.537519e+02,1.029529e+04
6.547161e+02,1.027579e+04
6.556804e+02,1.026906e+04
6.566446e+02,1.027599e+04
6.576088e+02,1.028255e+04
6.585731e+02,1.027234e+04
6.595373e+02,1.024875e+04
6.605015e+02,1.023214e+04
6.614658e+02,1.022489e+04
6.624300e+02,1.022398e+04
6.633942e+02,1.022739e+04
6.643585e+02,1.023803e+04
6.653227e+02,1.024374e+04
6.662869e+02,1.023707e+04
6.672512e+02,1.022820e+04
6.682154e+02,1.022403e+04
6.691796e+02,1.022423e+04
6.701439e+02,1.022414e+04
6.711081e+02,1.022308e+04
6.720723e+02,1.021956e+04
6.730366e+02,1.020951e+04
6.740008e+02,1.019306e+04
6.749650e+02,1.017667e+04
6.759293e+02,1.016856e+04
6.768935e+02,1.017358e+04
6.778577e+02,1.017719e+04
6.788220e+02,1.018442e+04
6.797862e+02,1.019192e+04
6.807504e+02,1.019110e+04
6.817147e+02,1.017616e+04
6.826789e+02,1.016660e+04
6.836431e+02,1.017577e+04
6.846074e+02,1.018698e+04
6.855716e+02,1.018303e+04
6.865358e+02,1.016296e+04
6.875001e+02,1.013949e+04
6.884643e+02,1.012551e+04
6.894285e+02,1.012139e+04
6.903928e+02,1.012286e+04
6.913570e+02,1.013267e+04
6.923212e+02,1.013992e+04
6.932855e+02,1.013313e+04
6.942497e+02,1.010459e+04
6.952139e+02,1.008643e+04
6.961782e+02,1.008071e+04
6.971424e+02,1.008185e+04
6.981066e+02,1.008603e+04
6.990709e+02,1.008871e+04
7.000351e+02,1.008438e+04
7.009993e+02,1.006999e+04
7.019636e+02,1.005315e+04
7.029278e+02,1.004593e+04
7.038920e+02,1.004996e+04
7.048563e+02,1.005543e+04
7.058205e+02,1.005146e+04
7.067847e+02,1.003691e+04
7.077490e+02,1.003169e+04
7.087132e+02,1.005131e+04
7.096774e+02,1.007675e+04
7.106417e+02,1.008383e+04
7.116059e+02,1.006631e+04
7.125701e+02,1.004744e+04
7.135344e+02,1.003317e+04
7.144986e+02,1.002393e+04
7.154628e+02,1.001981e+04
7.164271e+02,1.001922e+04
7.173913e+02,1.001713e+04
7.183555e+02,1.000598e+04
7.193198e+02,9.987987e+03
7.202840e+02,9.977947e+03
7.212482e+02,9.980644e+03
7.222125e+02,9.987015e+03
7.231767e+02,9.985457e+03
7.241409e+02,9.968362e+03
7.251052e+02,9.956410e+03
7.260694e+02,9.952452e+03
7.270336e+02,9.950316e+03
7.279979e+02,9.949537e+03
7.289621e+02,9.949771e+03
7.299263e+02,9.949375e+03
7.308906e+02,9.948557e+03
7.318548e+02,9.944375e+03
7.328190e+02,9.933636e+03
7.337833e+02,9.916646e+03
7.347475e+02,9.897998e+03
7.357117e+02,9.882323e+03
7.366760e+02,9.871568e+03
7.376402e+02,9.870361e+03
7.386044e+02,9.882605e+03
7.395687e+02,9.895402e+03
7.405329e+02,9.895136e+03
7.414971e+02,9.876563e+03
7.424614e+02,9.864329e+03
7.434256e+02,9.873469e+03
7.443898e+02,9.885256e+03
7.453541e+02,9.882250e+03
7.463183e+02,9.861332e+03
7.472825e+02,9.844746e+03
7.482468e+02,9.856688e+03
7.492110e+02,9.871412e+03
7.501752e+02,9.860381e+03
7.511395e+02,9.829239e+03
7.521037e+02,9.801714e+03
7.530679e+02,9.795683e+03
7.540322e+02,9.805467e+03
7.549964e+02,9.806538e+03
7.559606e+02,9.798119e+03
7.569249e+02,9.791891e+03
7.578891e+02,9.796880e+03
7.588533e+02,9.815103e+03
7.598176e+02,9.827493e+03
7.607818e+02,9.824403e+03
7.617460e+02,9.809385e+03
7.627103e+02,9.779417e+03
7.636745e+02,9.744600e+03
7.646387e+02,9.723640e+03
7.656030e+02,9.732715e+03
7.665672e+02,9.750863e+03
7.675314e+02,9.758029e+03
7.684957e+02,9.750228e+03
7.694599e+02,9.733171e+03
7.704241e+02,9.713929e+03
7.713884e+02,9.697847e+03
7.723526e+02,9.692588e+03
7.733168e+02,9.701438e+03
7.742811e+02,9.712801e+03
7.752453e+02,9.715348e+03
7.762095e+02,9.708313e+03
7.771738e+02,9.706369e+03
7.781380e+02,9.710354e+03
7.791022e+02,9.710834e+03
7.800665e+02,9.712228e+03
7.810307e+02,9.712208e+03
7.819949e+02,9.705806e+03
7.829592e+02,9.690247e+03
7.839234e+02,9.676231e+03
7.848876e+02,9.665873e+03
7.858519e+02,9.657932e+03
7.868161e+02,9.652476e+03
7.877803e+02,9.650245e+03
7.887446e+02,9.647979e+03
7.897088e+02,9.642862e+03
7.906730e+02,9.638666e+03
7.916373e+02,9.639408e+03
7.926015e+02,9.642537e+03
7.935657e+02,9.639590e+03
7.945300e+02,9.624386e+03
7.954942e+02,9.595060e+03
7.964584e+02,9.568792e+03
7.974227e+02,9.554816e+03
7.983869e+02,9.555753e+03
7.993511e+02,9.564109e+03
8.003154e+02,9.581000e+03
8.012796e+02,9.585153e+03
8.022438e+02,9.569781e+03
8.032081e+02,9.549997e+03
8.041723e+02,9.536348e+03
8.051365e+02,9.529624e+03
8.061008e+02,9.529146e+03
8.070650e+02,9.539384e+03
8.080292e+02,9.550720e+03
8.089935e+02,9.549763e+03
8.099577e+02,9.537281e+03
8.109219e+02,9.523083e+03
8.118862e+02,9.517327e+03
8.128504e+02,9.519542e+03
8.138146e+02,9.515547e+03
8.147789e+02,9.501390e+03
8.157431e+02,9.484683e+03
8.167073e+02,9.473714e+03
8.176716e+02,9.474403e+03
8.186358e+02,9.476688e+03
8.196000e+02,9.484515e+03
8.205643e+02,9.488800e+03
8.215285e+02,9.476088e+03
8.224927e+02,9.449049e+03
8.234570e+02,9.432846e+03
8.244212e+02,9.445165e+03
8.253854e+02,9.460896e+03
8.263497e+02,9.464175e+03
8.273139e+02,9.453642e+03
8.282781e+02,9.435561e+03
8.292424e+02,9.411784e+03
8.302066e+02,9.391807e+03
8.311708e+02,9.388400e+03
8.321351e+02,9.398868e+03
8.330993e+02,9.409896e+03
8.340635e+02,9.413042e+03
8.350278e+02,9.409578e+03
8.359920e+02,9.406219e+03
8.369562e+02,9.403550e+03
8.379205e+02,9.399400e+03
8.388847e+02,9.391854e+03
8.398489e+02,9.383501e+03
8.408132e+02,9.379721e+03
8.417774e+02,9.389656e+03
8.427416e+02,9.387733e+03
8.437059e+02,9.361074e+03
8.446701e+02,9.327313e+03
8.456343e+02,9.305127e+03
8.465986e+02,9.296413e+03
8.475628e+02,9.298093e+03
8.485270e+02,9.321036e+03
8.494913e+02,9.347323e+03
8.504555e+02,9.358757e+03
8.514197e+02,9.351895e+03
8.523840e+02,9.340824e+03
8.533482e+02,9.335738e+03
8.543124e+02,9.331732e+03
8.552767e+02,9.318971e+03
8.562409e+02,9.295869e+03
8.572051e+02,9.272515e+03
8.581694e+02,9.263182e+03
8.591336e+02,9.267754e+03
8.600978e+02,9.270002e+03
8.610621e+02,9.271218e+03
8.620263e+02,9.270210e+03
8.629905e+02,9.262517e+03
8.639548e+02,9.244246e+03
8.649190e+02,9.227944e+03
8.658832e+02,9.219129e+03
8.668475e+02,9.213884e+03
8.678117e+02,9.209717e+03
8.687759e+02,9.206040e+03
8.697402e+02,9.206426e+03
8.707044e+02,9.212099e+03
8.716686e+02,9.210886e+03
8.726329e+02,9.201526e+03
8.735971e+02,9.188888e+03
8.745613e+02,9.178166e+03
8.755256e+02,9.174995e+03
8.764898e+02,9.175797e+03
8.774540e+02,9.178647e+03
8.784183e+02,9.180119e+03
8.793825e+02,9.174567e+03
8.803467e+02,9.158700e+03
8.813110e+02,9.139440e+03
8.822752e+02,9.123313e+03
8.832394e+02,9.113527e+03
8.842037e+02,9.118501e+03
8.851679e+02,9.139261e+03
8.861321e+02,9.158979e+03
8.870964e+02,9.153044e+03
8.880606e+02,9.119142e+03
8.890248e+02,9.093199e+03
8.899891e+02,9.083344e+03
8.909533e+02,9.082136e+03
8.919175e+02,9.081152e+03
8.928818e+02,9.080333e+03
8.938460e+02,9.079204e+03
8.948102e+02,9.076420e+03
8.957745e+02,9.070146e+03
8.967387e+02,9.059193e+03
8.977029e+02,9.041854e+03
8.986672e+02,9.025397e+03
8.996314e+02,9.012396e+03
9.005956e+02,9.008232e+03
9.015599e+02,9.019936e+03
9.025241e+02,9.039595e+03
9.034883e+02,9.050464e+03
9.044526e+02,9.039993e+03
9.054168e+02,9.020562e+03
9.063810e+02,9.003885e+03
9.073453e+02,8.993221e+03
9.083095e+02,8.985521e+03
9.092737e+02,8.975748e+03
9.102380e+02,8.965698e+03
9.112022e+02,8.959203e+03
9.121664e+02,8.954631e+03
9.131307e+02,8.950590e+03
9.140949e+02,8.949813e+03
9.150591e+02,8.953011e+03
9.160234e+02,8.955979e+03
9.169876e+02,8.953590e+03
9.179518e+02,8.940932e+03
9.189161e+02,8.916422e+03
9.198803e+02,8.889359e+03
9.208445e+02,8.871979e+03
9.218088e+02,8.867894e+03
9.227730e+02,8.869565e+03
9.237372e+02,8.877943e+03
9.247015e+02,8.883775e+03
9.256657e+02,8.880236e+03
9.266299e+02,8.866162e+03
9.275942e+02,8.857330e+03
9.285584e+02,8.853731e+03
9.295226e+02,8.851517e+03
9.304869e+02,8.852405e+03
9.314511e+02,8.856263e+03
9.324153e+02,8.858185e+03
9.333796e+02,8.858988e+03
9.343438e+02,8.855827e+03
9.353080e+02,8.841462e+03
9.362723e+02,8.820368e+03
9.372365e+02,8.802938e+03
9.382007e+02,8.799721e+03
9.391650e+02,8.799978e+03
9.401292e+02,8.800624e+03
9.410934e+02,8.799759e+03
9.420577e+02,8.791668e+03
9.430219e+02,8.773647e+03
9.439861e+02,8.755381e+03
9.449504e+02,8.748244e+03
9.459146e+02,8.750705e+03
9.468788e+02,8.756297e+03
9.478431e+02,8.758762e+03
9.488073e+02,8.753597e+03
9.497715e+02,8.738378e+03
9.507358e+02,8.719177e+03
9.517000e+02,8.709191e+03
9.526642e+02,8.710342e+03
9.536285e+02,8.711105e+03
9.545927e+02,8.701254e+03
9.555569e+02,8.684533e+03
9.565212e+02,8.673535e+03
9.574854e+02,8.671230e+03
9.584496e+02,8.676796e+03
9.594139e+02,8.687990e+03
9.603781e+02,8.698621e+03
9.613423e+02,8.698424e+03
9.623066e+02,8.685631e+03
9.632708e+02,8.672883e+03
9.642350e+02,8.664969e+03
9.651993e+02,8.659851e+03
9.661635e+02,8.650973e+03
9.671277e+02,8.631042e+03
9.680920e+02,8.617819e+03
9.690562e+02,8.615972e+03
9.700204e+02,8.614717e+03
9.709847e+02,8.608794e+03
9.719489e+02,8.599968e+03
9.729131e+02,8.591446e+03
9.738774e+02,8.581423e+03
9.748416e+02,8.577704e+03
9.758058e+02,8.584467e+03
9.767701e+02,8.596491e+03
9.777343e+02,8.599779e+03
9.786985e+02,8.581527e+03
9.796628e+02,8.563910e+03
9.806270e+02,8.558821e+03
9.815912e+02,8.559688e+03
9.825555e+02,8.555879e+03
9.835197e+02,8.547699e+03
9.844839e+02,8.537416e+03
9.854482e+02,8.525239e+03
9.864124e+02,8.513361e+03
9.873766e+02,8.500728e+03
9.883409e+02,8.487087e+03
9.893051e+02,8.479107e+03
9.902693e+02,8.481425e+03
9.912336e+02,8.491913e+03
9.921978e+02,8.510229e+03
9.931620e+02,8.531606e+03
9.941263e+02,8.542538e+03
9.950905e+02,8.527654e+03
9.960547e+02,8.502775e+03
9.970190e+02,8.487108e+03
9.979832e+02,8.478424e+03
9.989474e+02,8.468521e+03
9.999117e+02,8.456081e+03
1.000876e+03,8.442683e+03
1.001840e+03,8.426801e+03
1.002804e+03,8.412182e+03
1.003769e+03,8.404970e+03
1.004733e+03,8.405327e+03
1.005697e+03,8.409801e+03
1.006661e+03,8.417746e+03
1.007626e+03,8.428116e+03
1.008590e+03,8.432668e+03
1.009554e+03,8.427858e+03
1.010518e+03,8.417193e+03
1.011482e+03,8.406074e+03
1.012447e+03,8.394385e+03
1.013411e+03,8.381841e+03
1.014375e+03,8.372186e+03
1.015339e+03,8.368912e+03
1.016304e+03,8.374309e+03
1.017268e+03,8.384681e+03
1.018232e+03,8.381565e+03
1.019196e+03,8.362220e+03
1.020161e+03,8.341060e+03
1.021125e+03,8.324262e+03
1.022089e+03,8.314334e+03
1.023053e+03,8.313740e+03
1.024018e+03,8.322416e+03
1.024982e+03,8.323604e+03
1.025946e+03,8.309210e+03
1.026910e+03,8.288759e+03
1.027875e+03,8.280775e+03
1.028839e+03,8.294911e+03
1.029803e+03,8.302777e+03
1.030767e+03,8.303038e+03
1.031731e+03,8.299487e+03
1.032696e+03,8.291984e+03
1.033660e+03,8.279410e+03
1.034624e+03,8.270057e+03
1.035588e+03,8.266260e+03
1.036552e+03,8.268026e+03
1.037517e+03,8.277470e+03
1.038481e+03,8.288265e+03
1.039445e+03,8.284463e+03
1.040409e+03,8.252271e+03
1.041374e+03,8.229329e+03
1.042338e+03,8.228339e+03
1.043302e+03,8.239202e+03
1.044266e+03,8.247274e+03
1.045231e+03,8.256482e+03
1.046195e+03,8.253376e+03
1.047159e+03,8.232023e+03
1.048123e+03,8.206793e+03
1.049088e+03,8.185512e+03
1.050052e+03,8.170439e+03
1.051016e+03,8.162620e+03
1.051980e+03,8.162218e+03
1.052945e+03,8.166893e+03
1.053909e+03,8.175835e+03
1.054873e+03,8.183538e+03
1.055837e+03,8.183970e+03
1.056802e+03,8.177370e+03
1.057766e+03,8.168686e+03
1.058730e+03,8.157729e+03
1.059694e+03,8.147618e+03
1.060658e+03,8.141207e+03
1.061623e+03,8.146138e+03
1.062587e+03,8.145036e+03
1.063551e+03,8.129940e+03
1.064515e+03,8.113730e+03
1.065479e+03,8.104603e+03
1.066444e+03,8.105300e+03
1.067408e+03,8.104220e+03
1.068372e+03,8.090225e+03
1.069336e+03,8.083333e+03
1.070301e+03,8.096140e+03
1.071265e+03,8.119022e+03
1.072229e+03,8.128302e+03
1.073193e+03,8.110259e+03
1.074158e+03,8.089502e+03
1.075122e+03,8.069434e+03
1.076086e+03,8.051933e+03
1.077050e+03,8.041642e+03
1.078015e+03,8.049120e+03
1.078979e+03,8.053635e+03
1.079943e+03,8.043396e+03
1.080907e+03,8.032026e+03
1.081872e+03,8.026867e+03
1.082836e+03,8.026473e+03
1.083800e+03,8.025667e+03
1.084764e+03,8.025981e+03
1.085729e+03,8.027256e+03
1.086693e+03,8.029062e+03
1.087657e+03,8.029999e+03
1.088621e+03,8.028659e+03
1.089585e+03,8.023447e+03
1.090550e+03,8.013728e+03
1.091514e+03,8.000795e+03
1.092478e+03,7.988968e+03
1.093442e+03,7.981558e+03
1.094406e+03,7.981271e+03
1.095371e+03,7.981168e+03
1.096335e+03,7.977539e+03
1.097299e+03,7.972478e+03
1.098263e+03,7.965690e+03
1.099228e+03,7.956805e+03
1.100192e+03,7.952817e+03
1.101156e+03,7.962125e+03
1.102120e+03,7.967321e+03
1.103085e+03,7.961756e+03
1.104049e+03,7.948493e+03
1.105013e+03,7.933926e+03
1.105977e+03,7.916752e+03
1.106942e+03,7.902663e+03
1.107906e+03,7.893786e+03
1.108870e+03,7.888408e+03
1.109834e+03,7.885643e+03
1.110799e+03,7.887132e+03
1.111763e+03,7.884801e+03
1.112727e+03,7.873737e+03
1.113691e+03,7.864917e+03
1.114656e+03,7.863109e+03
1.115620e+03,7.867533e+03
1.116584e+03,7.872255e+03
1.117548e+03,7.877790e+03
1.118512e+03,7.875936e+03
1.119477e+03,7.859685e+03
1.120441e+03,7.837563e+03
1.121405e+03,7.823666e+03
1.122369e+03,7.829839e+03
1.123334e+03,7.827049e+03
1.124298e+03,7.811439e+03
1.125262e+03,7.792875e+03
1.126226e+03,7.777073e+03
1.127191e+03,7.764134e+03
1.128155e+03,7.758489e+03
1.129119e+03,7.761068e+03
1.130083e+03,7.766066e+03
1.131047e+03,7.773261e+03
1.132012e+03,7.778869e+03
1.132976e+03,7.776058e+03
1.133940e+03,7.762032e+03
1.134904e+03,7.743946e+03
1.135869e+03,7.722311e+03
1.136833e+03,7.702280e+03
1.137797e+03,7.689421e+03
1.138761e+03,7.687720e+03
1.139726e+03,7.687602e+03
1.140690e+03,7.687248e+03
1.141654e+03,7.689322e+03
1.142618e+03,7.696695e+03
1.143583e+03,7.708151e+03
1.144547e+03,7.708656e+03
1.145511e+03,7.694722e+03
1.146475e+03,7.681883e+03
1.147439e+03,7.673930e+03
1.148404e+03,7.670781e+03
1.149368e+03,7.670582e+03
1.150332e+03,7.672872e+03
1.151296e+03,7.673554e+03
1.152261e+03,7.669136e+03
1.153225e+03,7.656338e+03
1.154189e+03,7.634823e+03
1.155153e+03,7.609572e+03
1.156118e+03,7.600683e+03
1.157082e+03,7.611196e+03
1.158046e+03,7.616635e+03
1.159010e+03,7.600786e+03
1.159974e+03,7.575509e+03
1.160939e+03,7.565704e+03
1.161903e+03,7.568213e+03
1.162867e+03,7.574332e+03
1.163831e+03,7.582173e+03
1.164796e+03,7.586856e+03
1.165760e+03,7.585539e+03
1.166724e+03,7.579875e+03
1.167688e+03,7.569378e+03
1.168653e+03,7.555117e+03
1.169617e+03,7.542654e+03
1.170581e+03,7.538580e+03
1.171545e+03,7.536729e+03
1.172510e+03,7.525253e+03
1.173474e+03,7.509138e+03
1.174438e+03,7.497344e+03
1.175402e+03,7.491466e+03
1.176366e+03,7.490269e+03
1.177331e+03,7.496316e+03
1.178295e+03,7.506071e+03
1.179259e+03,7.516940e+03
1.180223e+03,7.525479e+03
1.181188e+03,7.523854e+03
1.182152e+03,7.500975e+03
1.183116e+03,7.473617e+03
1.184080e+03,7.455718e+03
1.185045e+03,7.444282e+03
1.186009e+03,7.430627e+03
1.186973e+03,7.410310e+03
1.187937e+03,7.397053e+03
1.188901e+03,7.399153e+03
1.189866e+03,7.406429e+03
1.190830e+03,7.409863e+03
1.191794e+03,7.406925e+03
1.192758e+03,7.401459e+03
1.193723e+03,7.388823e+03
1.194687e+03,7.385644e+03
1.195651e+03,7.407105e+03
1.196615e+03,7.440235e+03
1.197580e+03,7.452587e+03
1.198544e+03,7.419356e+03
1.199508e+03,7.392608e+03
1.200472e+03,7.385614e+03
1.201437e+03,7.383209e+03
1.202401e+03,7.373383e+03
1.203365e+03,7.356954e+03
1.204329e+03,7.341069e+03
1.205293e+03,7.321439e+03
1.206258e+03,7.310639e+03
1.207222e+03,7.314919e+03
1.208186e+03,7.329049e+03
1.209150e+03,7.340431e+03
1.210115e+03,7.347071e+03
1.211079e+03,7.348828e+03
1.212043e+03,7.346703e+03
1.213007e+03,7.338575e+03
1.213972e+03,7.321423e+03
1.214936e+03,7.299201e+03
1.215900e+03,7.283978e+03
1.216864e+03,7.276114e+03
1.217828e+03,7.272616e+03
1.218793e+03,7.273273e+03
1.219757e+03,7.275506e+03
1.220721e+03,7.273920e+03
1.221685e+03,7.270716e+03
1.222650e+03,7.269182e+03
1.223614e+03,7.267969e+03
1.224578e+03,7.263375e+03
1.225542e+03,7.248041e+03
1.226507e+03,7.235204e+03
1.227471e+03,7.246024e+03
1.228435e+03,7.272546e+03
1.229399e+03,7.284821e+03
1.230364e+03,7.261309e+03
1.231328e+03,7.231347e+03
1.232292e+03,7.209378e+03
1.233256e+03,7.196245e+03
1.234220e+03,7.190083e+03
1.235185e+03,7.195757e+03
1.236149e+03,7.197177e+03
1.237113e+03,7.181671e+03
1.238077e+03,7.171335e+03
1.239042e+03,7.179630e+03
1.240006e+03,7.200241e+03
1.240970e+03,7.205339e+03
1.241934e+03,7.182288e+03
1.242899e+03,7.166167e+03
1.243863e+03,7.170234e+03
1.244827e+03,7.180868e+03
1.245791e+03,7.177591e+03
1.246755e+03,7.157144e+03
1.247720e+03,7.142362e+03
1.248684e+03,7.135263e+03
1.249648e+03,7.130523e+03
1.250612e+03,7.123583e+03
1.251577e+03,7.114872e+03
1.252541e+03,7.109994e+03
1.253505e+03,7.107583e+03
1.254469e+03,7.102552e+03
1.255434e+03,7.094476e+03
1.256398e+03,7.087497e+03
1.257362e+03,7.084250e+03
1.258326e+03,7.082366e+03
1.259291e+03,7.080908e+03
1.260255e+03,7.078385e+03
1.261219e+03,7.072511e+03
1.262183e+03,7.066320e+03
1.263147e+03,7.060050e+03
1.264112e+03,7.051354e+03
1.265076e+03,7.042077e+03
1.266040e+03,7.033904e+03
1.267004e+03,7.028149e+03
1.267969e+03,7.022072e+03
1.268933e+03,7.014398e+03
1.269897e+03,7.012573e+03
1.270861e+03,7.017902e+03
1.271826e+03,7.024502e+03
1.272790e+03,7.026994e+03
1.273754e+03,7.029724e+03
1.274718e+03,7.025166e+03
1.275682e+03,7.012536e+03
1.276647e+03,6.997726e+03
1.277611e+03,6.985762e+03
1.278575e+03,6.975983e+03
1.279539e+03,6.966042e+03
1.280504e+03,6.959186e+03
1.281468e+03,6.957373e+03
1.282432e+03,6.961062e+03
1.283396e+03,6.967195e+03
1.284361e+03,6.968019e+03
1.285325e+03,6.963007e+03
1.286289e+03,6.955392e+03
1.287253e+03,6.945373e+03
1.288218e+03,6.936639e+03
1.289182e+03,6.936298e+03
1.290146e+03,6.939138e+03
1.291110e+03,6.939372e+03
1.292074e+03,6.937995e+03
1.293039e+03,6.937049e+03
1.294003e+03,6.944395e+03
1.294967e+03,6.941378e+03
1.295931e+03,6.910539e+03
1.296896e+03,6.874946e+03
1.297860e+03,6.858678e+03
1.298824e+03,6.867784e+03
1.299788e+03,6.876113e+03
1.300753e+03,6.883628e+03
1.301717e+03,6.886417e+03
1.302681e+03,6.881049e+03
1.303645e+03,6.871173e+03
1.304609e+03,6.868787e+03
1.305574e+03,6.873224e+03
1.306538e+03,6.869669e+03
1.307502e+03,6.858418e+03
1.308466e+03,6.846723e+03
1.309431e+03,6.838988e+03
1.310395e+03,6.834850e+03
1.311359e+03,6.833631e+03
1.312323e+03,6.831660e+03
1.313288e+03,6.823708e+03
1.314252e+03,6.808492e+03
1.315216e+03,6.797461e+03
1.316180e+03,6.802311e+03
1.317145e+03,6.814385e+03
1.318109e+03,6.821782e+03
1.319073e+03,6.820408e+03
1.320037e+03,6.815289e+03
1.321001e+03,6.807994e+03
1.321966e+03,6.798605e+03
1.322930e+03,6.790201e+03
1.323894e+03,6.783014e+03
1.324858e+03,6.773238e+03
1.325823e+03,6.757139e+03
1.326787e+03,6.746118e+03
1.327751e+03,6.738807e+03
1.328715e+03,6.734619e+03
1.329680e+03,6.735245e+03
1.330644e+03,6.739636e+03
1.331608e+03,6.740983e+03
1.332572e+03,6.739062e+03
1.333536e+03,6.739291e+03
1.334501e+03,6.742318e+03
1.335465e+03,6.744608e+03
1.336429e+03,6.747627e+03
1.337393e+03,6.749352e+03
1.338358e+03,6.745311e+03
1.339322e+03,6.735526e+03
1.340286e+03,6.721526e+03
1.341250e+03,6.699774e+03
1.342215e+03,6.678646e+03
1.343179e+03,6.662071e+03
1.344143e+03,6.654463e+03
1.345107e+03,6.658158e+03
1.346072e+03,6.674599e+03
1.347036e+03,6.684951e+03
1.348000e+03,6.685569e+03
1.348964e+03,6.682865e+03
1.349928e+03,6.681347e+03
1.350893e+03,6.680962e+03
1.351857e+03,6.676930e+03
1.352821e+03,6.667828e+03
1.353785e+03,6.654030e+03
1.354750e+03,6.634696e+03
1.355714e+03,6.616099e+03
1.356678e+03,6.609391e+03
1.357642e+03,6.609002e+03
1.358607e+03,6.601872e+03
1.359571e+03,6.590202e+03
1.360535e+03,6.580985e+03
1.361499e+03,6.578311e+03
1.362464e+03,6.577493e+03
1.363428e+03,6.577423e+03
1.364392e+03,6.579850e+03
1.365356e+03,6.585214e+03
1.366320e+03,6.589375e+03
1.367285e+03,6.582559e+03
1.368249e+03,6.559350e+03
1.369213e+03,6.546044e+03
1.370177e+03,6.550204e+03
1.371142e+03,6.559750e+03
1.372106e+03,6.561570e+03
1.373070e+03,6.556307e+03
1.374034e+03,6.547373e+03
1.374999e+03,6.536961e+03
1.375963e+03,6.529708e+03
1.376927e+03,6.528225e+03
1.377891e+03,6.528509e+03
1.378855e+03,6.528938e+03
1.379820e+03,6.525450e+03
1.380784e+03,6.509063e+03
1.381748e+03,6.480857e+03
1.382712e+03,6.465732e+03
1.383677e+03,6.478701e+03
1.384641e+03,6.490416e+03
1.385605e+03,6.490376e+03
1.386569e+03,6.482879e+03
1.387534e+03,6.475249e+03
1.388498e+03,6.468167e+03
1.389462e+03,6.461132e+03
1.390426e+03,6.452395e+03
1.391391e+03,6.442822e+03
1.392355e+03,6.434632e+03
1.393319e+03,6.428741e+03
1.394283e+03,6.423520e+03
1.395247e+03,6.419126e+03
1.396212e+03,6.419571e+03
1.397176e+03,6.426228e+03
1.398140e+03,6.429129e+03
1.399104e+03,6.415779e+03
1.400069e+03,6.400421e+03
1.401033e+03,6.392124e+03
1.401997e+03,6.389488e+03
1.402961e+03,6.387568e+03
1.403926e+03,6.386440e+03
1.404890e+03,6.384026e+03
1.405854e+03,6.381132e+03
1.406818e+03,6.378776e+03
1.407782e+03,6.379018e+03
1.408747e+03,6.381489e+03
1.409711e+03,6.376558e+03
1.410675e+03,6.362925e+03
1.411639e+03,6.349747e+03
1.412604e+03,6.340450e+03
1.413568e+03,6.335830e+03
1.414532e+03,6.344238e+03
1.415496e+03,6.355130e+03
1.416461e+03,6.355117e+03
1.417425e+03,6.344851e+03
1.418389e+03,6.336224e+03
1.419353e+03,6.336125e+03
1.420318e+03,6.330789e+03
1.421282e+03,6.319146e+03
1.422246e+03,6.308156e+03
1.423210e+03,6.303181e+03
1.424174e+03,6.303842e+03
1.425139e+03,6.300283e+03
1.426103e+03,6.291567e+03
1.427067e+03,6.285011e+03
1.428031e+03,6.284073e+03
1.428996e+03,6.283861e+03
1.429960e+03,6.278372e+03
1.430924e+03,6.269613e+03
1.431888e+03,6.257884e+03
1.432853e+03,6.245126e+03
1.433817e+03,6.237340e+03
1.434781e+03,6.242762e+03
1.435745e+03,6.246349e+03
1.436709e+03,6.241783e+03
1.437674e+03,6.235601e+03
1.438638e+03,6.237859e+03
1.439602e+03,6.248639e+03
1.440566e+03,6.248385e+03
1.441531e+03,6.237455e+03
1.442495e+03,6.226214e+03
1.443459e+03,6.216967e+03
1.444423e+03,6.210225e+03
1.445388e+03,6.210222e+03
1.446352e+03,6.208144e+03
1.447316e+03,6.193901e+03
1.448280e+03,6.171922e+03
1.449245e+03,6.156765e+03
1.450209e+03,6.152173e+03
1.451173e+03,6.154614e+03
1.452137e+03,6.165243e+03
1.453101e+03,6.172583e+03
1.454066e+03,6.165524e+03
1.455030e+03,6.147187e+03
1.455994e+03,6.141649e+03
1.456958e+03,6.147010e+03
1.457923e+03,6.151353e+03
1.458887e+03,6.148430e+03
1.459851e+03,6.142808e+03
1.460815e+03,6.136795e+03
1.461780e+03,6.129638e+03
1.462744e+03,6.125755e+03
1.463708e+03,6.125220e+03
1.464672e+03,6.118776e+03
1.465636e+03,6.103862e+03
1.466601e+03,6.092547e+03
1.467565e+03,6.085259e+03
1.468529e+03,6.083805e+03
1.469493e+03,6.092410e+03
1.470458e+03,6.105024e+03
1.471422e+03,6.100984e+03
1.472386e+03,6.085586e+03
1.473350e+03,6.073689e+03
1.474315e+03,6.069273e+03
1.475279e+03,6.068435e+03
1.476243e+03,6.074294e+03
1.477207e+03,6.075938e+03
1.478172e+03,6.065680e+03
1.479136e+03,6.046564e+03
1.480100e+03,6.029337e+03
1.481064e+03,6.013479e+03
1.482028e+03,6.005665e+03
1.482993e+03,6.008762e+03
1.483957e+03,6.013948e+03
1.484921e+03,6.011083e+03
1.485885e+03,6.003832e+03
1.486850e+03,5.996005e+03
1.487814e+03,5.988046e+03
1.488778e+03,5.986442e+03
1.489742e+03,5.998110e+03
1.490707e+03,6.000167e+03
1.491671e+03,5.976295e+03
1.492635e+03,5.958491e+03
1.493599e+03,5.960847e+03
1.494563e+03,5.974070e+03
1.495528e+03,5.977361e+03
1.496492e+03,5.970087e+03
1.497456e+03,5.961922e+03
1.498420e+03,5.955997e+03
1.499385e+03,5.952376e+03
1.500349e+03,5.953743e+03
1.501313e+03,5.955038e+03
1.502277e+03,5.949592e+03
1.503242e+03,5.940162e+03
1.504206e+03,5.930102e+03
1.505170e+03,5.916901e+03
1.506134e+03,5.912369e+03
1.507099e+03,5.922019e+03
1.508063e+03,5.926586e+03
1.509027e+03,5.917681e+03
1.509991e+03,5.902536e+03
1.510955e+03,5.894131e+03
1.511920e+03,5.889126e+03
1.512884e+03,5.878849e+03
1.513848e+03,5.866433e+03
1.514812e+03,5.862281e+03
1.515777e+03,5.871486e+03
1.516741e+03,5.881081e+03
1.517705e+03,5.888624e+03
1.518669e+03,5.891956e+03
1.519634e+03,5.890041e+03
1.520598e+03,5.882141e+03
1.521562e+03,5.873019e+03
1.522526e+03,5.861310e+03
1.523490e+03,5.851647e+03
1.524455e+03,5.847130e+03
1.525419e+03,5.840256e+03
1.526383e+03,5.819199e+03
1.527347e+03,5.797677e+03
1.528312e+03,5.792053e+03
1.529276e+03,5.801304e+03
1.530240e+03,5.808627e+03
1.531204e+03,5.811544e+03
1.532169e+03,5.808967e+03
1.533133e+03,5.799252e+03
1.534097e+03,5.791815e+03
1.535061e+03,5.796539e+03
1.536026e+03,5.804043e+03
1.536990e+03,5.796265e+03
1.537954e+03,5.780979e+03
1.538918e+03,5.772626e+03
1.539882e+03,5.774927e+03
1.540847e+03,5.775484e+03
1.541811e+03,5.768140e+03
1.542775e+03,5.758274e+03
1.543739e+03,5.748254e+03
1.544704e+03,5.740621e+03
1.545668e+03,5.740357e+03
1.546632e+03,5.745852e+03
1.547596e+03,5.745497e+03
1.548561e+03,5.739675e+03
1.549525e+03,5.735961e+03
1.550489e+03,5.738419e+03
1.551453e+03,5.739953e+03
1.552417e+03,5.737143e+03
1.553382e+03,5.731718e+03
1.554346e+03,5.727209e+03
1.555310e+03,5.724095e+03
1.556274e+03,5.715276e+03
1.557239e+03,5.700525e+03
1.558203e+03,5.694078e+03
1.559167e+03,5.700155e+03
1.560131e+03,5.703755e+03
1.561096e+03,5.685252e+03
1.562060e+03,5.666121e+03
1.563024e+03,5.668056e+03
1.563988e+03,5.681487e+03
1.564953e+03,5.681368e+03
1.565917e+03,5.658146e+03
1.566881e+03,5.651958e+03
1.567845e+03,5.664436e+03
1.568809e+03,5.674404e+03
1.569774e+03,5.670438e+03
1.570738e+03,5.660170e+03
1.571702e+03,5.652176e+03
1.572666e+03,5.644698e+03
1.573631e+03,5.636311e+03
1.574595e+03,5.628474e+03
1.575559e+03,5.618750e+03
1.576523e+03,5.602052e+03
1.577488e+03,5.598993e+03
1.578452e+03,5.613352e+03
1.579416e+03,5.629203e+03
1.580380e+03,5.631446e+03
1.581344e+03,5.624909e+03
1.582309e+03,5.616635e+03
1.583273e+03,5.608665e+03
1.584237e+03,5.604268e+03
1.585201e+03,5.609535e+03
1.586166e+03,5.603927e+03
1.587130e+03,5.575225e+03
1.588094e+03,5.552019e+03
1.589058e+03,5.549917e+03
1.590023e+03,5.559121e+03
1.590987e+03,5.560237e+03
1.591951e+03,5.556833e+03
1.592915e+03,5.551180e+03
1.593880e+03,5.541609e+03
1.594844e+03,5.532325e+03
1.595808e+03,5.523202e+03
1.596772e+03,5.519799e+03
1.597736e+03,5.527634e+03
1.598701e+03,5.538069e+03
1.599665e+03,5.543704e+03
1.600629e+03,5.544231e+03
1.601593e+03,5.537354e+03
1.602558e+03,5.524419e+03
1.603522e+03,5.508376e+03
1.604486e+03,5.488524e+03
1.605450e+03,5.473037e+03
1.606415e+03,5.468678e+03
1.607379e+03,5.470397e+03
1.608343e+03,5.477468e+03
1.609307e+03,5.485298e+03
1.610271e+03,5.485188e+03
1.611236e+03,5.478602e+03
1.612200e+03,5.476703e+03
1.613164e+03,5.480446e+03
1.614128e+03,5.482958e+03
1.615093e+03,5.481968e+03
1.616057e+03,5.474470e+03
1.617021e+03,5.448307e+03
1.617985e+03,5.424044e+03
1.618950e+03,5.416936e+03
1.619914e+03,5.422963e+03
1.620878e+03,5.428539e+03
1.621842e+03,5.432883e+03
1.622807e+03,5.427636e+03
1.623771e+03,5.412051e+03
1.624735e+03,5.402108e+03
1.625699e+03,5.405901e+03
1.626663e+03,5.413366e+03
1.627628e+03,5.423810e+03
1.628592e+03,5.428259e+03
1.629556e+03,5.415313e+03
1.630520e+03,5.391843e+03
1.631485e+03,5.382954e+03
1.632449e+03,5.386688e+03
1.633413e+03,5.396708e+03
1.634377e+03,5.417194e+03
1.635342e+03,5.427914e+03
1.636306e+03,5.417382e+03
1.637270e+03,5.398642e+03
1.638234e+03,5.372262e+03
1.639198e+03,5.346943e+03
1.640163e+03,5.346408e+03
1.641127e+03,5.362846e+03
1.642091e+03,5.363878e+03
1.643055e+03,5.346227e+03
1.644020e+03,5.331628e+03
1.644984e+03,5.331513e+03
1.645948e+03,5.330756e+03
1.646912e+03,5.327838e+03
1.647877e+03,5.323874e+03
1.648841e+03,5.320864e+03
1.649805e+03,5.317988e+03
1.650769e+03,5.308166e+03
1.651734e+03,5.294857e+03
1.652698e+03,5.289205e+03
1.653662e+03,5.293503e+03
1.654626e+03,5.295253e+03
1.655590e+03,5.288430e+03
1.656555e+03,5.285112e+03
1.657519e+03,5.292674e+03
1.658483e+03,5.303018e+03
1.659447e+03,5.301982e+03
1.660412e+03,5.290281e+03
1.661376e+03,5.267735e+03
1.662340e+03,5.241704e+03
1.663304e+03,5.229158e+03
1.664269e+03,5.244776e+03
1.665233e+03,5.251592e+03
1.666197e+03,5.246172e+03
1.667161e+03,5.236033e+03
1.668125e+03,5.224980e+03
1.669090e+03,5.215617e+03
1.670054e+03,5.210549e+03
1.671018e+03,5.211040e+03
1.671982e+03,5.226106e+03
1.672947e+03,5.254009e+03
1.673911e+03,5.259237e+03
1.674875e+03,5.231845e+03
1.675839e+03,5.204897e+03
1.676804e+03,5.185116e+03
1.677768e+03,5.175347e+03
1.678732e+03,5.184053e+03
1.679696e+03,5.193179e+03
1.680661e+03,5.180711e+03
1.681625e+03,5.158648e+03
1.682589e+03,5.149639e+03
1.683553e+03,5.156658e+03
1.684517e+03,5.158503e+03
1.685482e+03,5.154665e+03
1.686446e+03,5.153623e+03
1.687410e+03,5.158876e+03
1.688374e+03,5.161191e+03
1.689339e+03,5.148605e+03
1.690303e+03,5.135548e+03
1.691267e+03,5.130617e+03
1.692231e+03,5.131519e+03
1.693196e+03,5.134079e+03
1.694160e+03,5.136089e+03
1.695124e+03,5.132481e+03
1.696088e+03,5.124659e+03
1.697052e+03,5.116547e+03
1.698017e+03,5.101615e+03
1.698981e+03,5.094260e+03
1.699945e+03,5.102687e+03
1.700909e+03,5.107175e+03
1.701874e+03,5.100692e+03
1.702838e+03,5.090438e+03
1.703802e+03,5.082033e+03
1.704766e+03,5.075610e+03
1.705731e+03,5.082960e+03
1.706695e+03,5.103957e+03
1.707659e+03,5.103039e+03
1.708623e+03,5.062975e+03
1.709588e+03,5.038808e+03
1.710552e+03,5.036061e+03
1.711516e+03,5.040308e+03
1.712480e+03,5.042889e+03
1.713444e+03,5.044369e+03
1.714409e+03,5.050016e+03
1.715373e+03,5.055680e+03
1.716337e+03,5.051960e+03
1.717301e+03,5.040171e+03
1.718266e+03,5.030708e+03
1.719230e+03,5.022455e+03
1.720194e+03,5.020364e+03
1.721158e+03,5.026202e+03
1.722123e+03,5.027350e+03
1.723087e+03,5.008240e+03
1.724051e+03,4.989944e+03
1.725015e+03,4.984086e+03
1.725979e+03,4.986067e+03
1.726944e+03,4.988917e+03
1.727908e+03,4.991947e+03
1.728872e+03,4.992591e+03
1.729836e+03,4.989210e+03
1.730801e+03,4.982642e+03
1.731765e+03,4.973326e+03
1.732729e+03,4.962330e+03
1.733693e+03,4.946915e+03
1.734658e+03,4.939528e+03
1.735622e+03,4.948484e+03
1.736586e+03,4.959412e+03
1.737550e+03,4.948044e+03
1.738515e+03,4.929383e+03
1.739479e+03,4.922335e+03
1.740443e+03,4.926143e+03
1.741407e+03,4.926424e+03
1.742371e+03,4.922868e+03
1.743336e+03,4.919489e+03
1.744300e+03,4.916244e+03
1.745264e+03,4.910235e+03
1.746228e+03,4.899170e+03
1.747193e+03,4.890888e+03
1.748157e+03,4.894333e+03
1.749121e+03,4.901419e+03
1.750085e+03,4.900457e+03
1.751050e+03,4.891415e+03
1.752014e+03,4.889165e+03
1.752978e+03,4.892556e+03
1.753942e+03,4.896297e+03
1.754906e+03,4.898532e+03
1.755871e+03,4.897863e+03
1.756835e+03,4.891108e+03
1.757799e+03,4.880614e+03
1.758763e+03,4.871572e+03
1.759728e+03,4.863407e+03
1.760692e+03,4.850750e+03
1.761656e+03,4.841204e+03
1.762620e+03,4.843989e+03
1.763585e+03,4.850554e+03
1.764549e+03,4.848865e+03
1.765513e+03,4.836957e+03
1.766477e+03,4.816893e+03
1.767442e+03,4.793412e+03
1.768406e+03,4.791364e+03
1.769370e+03,4.823119e+03
1.770334e+03,4.845619e+03
1.771298e+03,4.825366e+03
1.772263e+03,4.806161e+03
1.773227e+03,4.801256e+03
1.774191e+03,4.803257e+03
1.775155e+03,4.801659e+03
1.776120e+03,4.799043e+03
1.777084e+03,4.804549e+03
1.778048e+03,4.812994e+03
1.779012e+03,4.807306e+03
1.779977e+03,4.782251e+03
1.780941e+03,4.773476e+03
1.781905e+03,4.778412e+03
1.782869e+03,4.778753e+03
1.783833e+03,4.764430e+03
1.784798e+03,4.752638e+03
1.785762e+03,4.757472e+03
1.786726e+03,4.762671e+03
1.787690e+03,4.762226e+03
1.788655e+03,4.756865e+03
1.789619e+03,4.739530e+03
1.790583e+03,4.720080e+03
1.791547e+03,4.722834e+03
1.792512e+03,4.743459e+03
1.793476e+03,4.750171e+03
1.794440e+03,4.730479e+03
1.795404e+03,4.719866e+03
1.796369e+03,4.718515e+03
1.797333e+03,4.720244e+03
1.798297e+03,4.726292e+03
1.799261e+03,4.727455e+03
1.800225e+03,4.706914e+03
1.801190e+03,4.687089e+03
1.802154e+03,4.686427e+03
1.803118e+03,4.695771e+03
1.804082e+03,4.693021e+03
1.805047e+03,4.684627e+03
1.806011e+03,4.683042e+03
1.806975e+03,4.688336e+03
1.807939e+03,4.687961e+03
1.808904e+03,4.678651e+03
1.809868e+03,4.663375e+03
1.810832e+03,4.643280e+03
1.811796e+03,4.627916e+03
1.812760e+03,4.624783e+03
1.813725e+03,4.626430e+03
1.814689e+03,4.635264e+03
1.815653e+03,4.639783e+03
1.816617e+03,4.628083e+03
1.817582e+03,4.608220e+03
1.818546e+03,4.608364e+03
1.819510e+03,4.618717e+03
1.820474e+03,4.615809e+03
1.821439e+03,4.597117e+03
1.822403e+03,4.596963e+03
1.823367e+03,4.625035e+03
1.824331e+03,4.632862e+03
1.825296e+03,4.610807e+03
1.826260e+03,4.586276e+03
1.827224e+03,4.586794e+03
1.828188e+03,4.591900e+03
1.829152e+03,4.587482e+03
1.830117e+03,4.579869e+03
1.831081e+03,4.573226e+03
1.832045e+03,4.566827e+03
1.833009e+03,4.567287e+03
1.833974e+03,4.572130e+03
1.834938e+03,4.567047e+03
1.835902e+03,4.545817e+03
1.836866e+03,4.535619e+03
1.837831e+03,4.537008e+03
1.838795e+03,4.535814e+03
1.839759e+03,4.530945e+03
1.840723e+03,4.528360e+03
1.841688e+03,4.532991e+03
1.842652e+03,4.534974e+03
1.843616e+03,4.527374e+03
1.844580e+03,4.517118e+03
1.845544e+03,4.515611e+03
1.846509e+03,4.517837e+03
1.847473e+03,4.512388e+03
1.848437e+03,4.503182e+03
1.849401e+03,4.498892e+03
1.850366e+03,4.500470e+03
1.851330e+03,4.492439e+03
1.852294e+03,4.477504e+03
1.853258e+03,4.466925e+03
1.854223e+03,4.463439e+03
1.855187e+03,4.463302e+03
1.856151e+03,4.463711e+03
1.857115e+03,4.465764e+03
1.858079e+03,4.469859e+03
1.859044e+03,4.472058e+03
1.860008e+03,4.471141e+03
1.860972e+03,4.467498e+03
1.861936e+03,4.456252e+03
1.862901e+03,4.445412e+03
1.863865e+03,4.447034e+03
1.864829e+03,4.454818e+03
1.865793e+03,4.434125e+03
1.866758e+03,4.397478e+03
1.867722e+03,4.378905e+03
1.868686e+03,4.389824e+03
1.869650e+03,4.397617e+03
1.870615e+03,4.397689e+03
1.871579e+03,4.399223e+03
1.872543e+03,4.407473e+03
1.873507e+03,4.414062e+03
1.874471e+03,4.402927e+03
1.875436e+03,4.389673e+03
1.876400e+03,4.382608e+03
1.877364e+03,4.381208e+03
1.878328e+03,4.390529e+03
1.879293e+03,4.400818e+03
1.880257e+03,4.386079e+03
1.881221e+03,4.358247e+03
1.882185e+03,4.346940e+03
1.883150e+03,4.354906e+03
1.884114e+03,4.356352e+03
1.885078e+03,4.350484e+03
1.886042e+03,4.337956e+03
1.887006e+03,4.316581e+03
1.887971e+03,4.306346e+03
1.888935e+03,4.321392e+03
1.889899e+03,4.336184e+03
1.890863e+03,4.343323e+03
1.891828e+03,4.343128e+03
1.892792e+03,4.335616e+03
1.893756e+03,4.325630e+03
1.894720e+03,4.321582e+03
1.895685e+03,4.320140e+03
1.896649e+03,4.308628e+03
1.897613e+03,4.292711e+03
1.898577e+03,4.306432e+03
1.899542e+03,4.334136e+03
1.900506e+03,4.338129e+03
1.901470e+03,4.309761e+03
1.902434e+03,4.283709e+03
1.903398e+03,4.260848e+03
1.904363e+03,4.256782e+03
1.905327e+03,4.277670e+03
1.906291e+03,4.296474e+03
1.907255e+03,4.297088e+03
1.908220e+03,4.292232e+03
1.909184e+03,4.283721e+03
1.910148e+03,4.272076e+03
1.911112e+03,4.254746e+03
1.912077e+03,4.241936e+03
1.913041e+03,4.248472e+03
1.914005e+03,4.258354e+03
1.914969e+03,4.253446e+03
1.915933e+03,4.238555e+03
1.916898e+03,4.228294e+03
1.917862e+03,4.223022e+03
1.918826e+03,4.222905e+03
1.919790e+03,4.229330e+03
1.920755e+03,4.231263e+03
1.921719e+03,4.226408e+03
1.922683e+03,4.217274e+03
1.923647e+03,4.205832e+03
1.924612e+03,4.194319e+03
1.925576e+03,4.179356e+03
1.926540e+03,4.173084e+03
1.927504e+03,4.176015e+03
1.928469e+03,4.179383e+03
1.929433e+03,4.173066e+03
1.930397e+03,4.165934e+03
1.931361e+03,4.166956e+03
1.932325e+03,4.168158e+03
1.933290e+03,4.164385e+03
1.934254e+03,4.160896e+03
1.935218e+03,4.165929e+03
1.936182e+03,4.170052e+03
1.937147e+03,4.159843e+03
1.938111e+03,4.139021e+03
1.939075e+03,4.135297e+03
1.940039e+03,4.146461e+03
1.941004e+03,4.141732e+03
1.941968e+03,4.115270e+03
1.942932e+03,4.098383e+03
1.943896e+03,4.105052e+03
1.944860e+03,4.111135e+03
1.945825e+03,4.116462e+03
1.946789e+03,4.116911e+03
1.947753e+03,4.102587e+03
1.948717e+03,4.088082e+03
1.949682e+03,4.076573e+03
1.950646e+03,4.070423e+03
1.951610e+03,4.073774e+03
1.952574e+03,4.079628e+03
1.953539e+03,4.077981e+03
1.954503e+03,4.072413e+03
1.955467e+03,4.066509e+03
1.956431e+03,4.062501e+03
1.957396e+03,4.064826e+03
1.958360e+03,4.070004e+03
1.959324e+03,4.075002e+03
1.960288e+03,4.078892e+03
1.961252e+03,4.068196e+03
1.962217e+03,4.038422e+03
1.963181e+03,4.022312e+03
1.964145e+03,4.020083e+03
1.965109e+03,4.022410e+03
1.966074e+03,4.030554e+03
1.967038e+03,4.036754e+03
1.968002e+03,4.035894e+03
1.968966e+03,4.034233e+03
1.969931e+03,4.037160e+03
1.970895e+03,4.034340e+03
1.971859e+03,4.016861e+03
1.972823e+03,4.001332e+03
1.973787e+03,3.992659e+03
1.974752e+03,3.987866e+03
1.975716e+03,3.984593e+03
1.976680e+03,3.982920e+03
1.977644e+03,3.992633e+03
1.978609e+03,4.003329e+03
1.979573e+03,3.987022e+03
1.980537e+03,3.954819e+03
1.981501e+03,3.954165e+03
1.982466e+03,3.974221e+03
1.983430e+03,3.977069e+03
1.984394e+03,3.956567e+03
1.985358e+03,3.945537e+03
1.986323e+03,3.942419e+03
1.987287e+03,3.941693e+03
1.988251e+03,3.941848e+03
1.989215e+03,3.941070e+03
1.990179e+03,3.941169e+03
1.991144e+03,3.934042e+03
1.992108e+03,3.917955e+03
1.993072e+03,3.908331e+03
1.994036e+03,3.923395e+03
1.995001e+03,3.931777e+03
1.995965e+03,3.923720e+03
1.996929e+03,3.913024e+03
1.997893e+03,3.907134e+03
1.998858e+03,3.905799e+03
1.999822e+03,3.917660e+03
2.000786e+03,3.925286e+03
2.001750e+03,3.915164e+03
2.002714e+03,3.896372e+03
2.003679e+03,3.874987e+03
2.004643e+03,3.857615e+03
2.005607e+03,3.864708e+03
2.006571e+03,3.888052e+03
2.007536e+03,3.890144e+03
2.008500e+03,3.876831e+03
2.009464e+03,3.862796e+03
2.010428e+03,3.851610e+03
2.011393e+03,3.844619e+03
2.012357e+03,3.841152e+03
2.013321e+03,3.848058e+03
2.014285e+03,3.861781e+03
2.015250e+03,3.868520e+03
2.016214e+03,3.858052e+03
2.017178e+03,3.845540e+03
2.018142e+03,3.832203e+03
2.019106e+03,3.823321e+03
2.020071e+03,3.823790e+03
2.021035e+03,3.821652e+03
2.021999e+03,3.807901e+03
2.022963e+03,3.794356e+03
2.023928e+03,3.785810e+03
2.024892e+03,3.783835e+03
2.025856e+03,3.800041e+03
2.026820e+03,3.809558e+03
2.027785e+03,3.792210e+03
2.028749e+03,3.767892e+03
2.029713e+03,3.769543e+03
2.030677e+03,3.780882e+03
2.031641e+03,3.777817e+03
2.032606e+03,3.767313e+03
2.033570e+03,3.762820e+03
2.034534e+03,3.762516e+03
2.035498e+03,3.763357e+03
2.036463e+03,3.764247e+03
2.037427e+03,3.760564e+03
2.038391e+03,3.754434e+03
2.039355e+03,3.748547e+03
2.040320e+03,3.743657e+03
2.041284e+03,3.742187e+03
2.042248e+03,3.743570e+03
2.043212e+03,3.729257e+03
2.044177e+03,3.697419e+03
2.045141e+03,3.691917e+03
2.046105e+03,3.717752e+03
2.047069e+03,3.738497e+03
2.048033e+03,3.731715e+03
2.048998e+03,3.720613e+03
2.049962e+03,3.707473e+03
2.050926e+03,3.700716e+03
2.051890e+03,3.714046e+03
2.052854e+03,3.721428e+03
2.053819e+03,3.713395e+03
2.054783e+03,3.697172e+03
2.055747e+03,3.675310e+03
2.056711e+03,3.658594e+03
2.057676e+03,3.661372e+03
2.058640e+03,3.666569e+03
2.059604e+03,3.661475e+03
2.060568e+03,3.652683e+03
2.061533e+03,3.654482e+03
2.062497e+03,3.657809e+03
2.063461e+03,3.651019e+03
2.064425e+03,3.641757e+03
2.065390e+03,3.640546e+03
2.066354e+03,3.644172e+03
2.067318e+03,3.652429e+03
2.068282e+03,3.660267e+03
2.069247e+03,3.656843e+03
2.070211e+03,3.642671e+03
2.071175e+03,3.623107e+03
2.072139e+03,3.603119e+03
2.073104e+03,3.596236e+03
2.074068e+03,3.602867e+03
2.075032e+03,3.596232e+03
2.075996e+03,3.579222e+03
2.076960e+03,3.571493e+03
2.077925e+03,3.576425e+03
2.078889e+03,3.581305e+03
2.079853e+03,3.585389e+03
2.080817e+03,3.584165e+03
2.081782e+03,3.577177e+03
2.082746e+03,3.569560e+03
2.083710e+03,3.565597e+03
2.084674e+03,3.561962e+03
2.085639e+03,3.560469e+03
2.086603e+03,3.560487e+03
2.087567e+03,3.554559e+03
2.088531e+03,3.550765e+03
2.089496e+03,3.549151e+03
2.090460e+03,3.543718e+03
2.091424e+03,3.535831e+03
2.092388e+03,3.533892e+03
2.093353e+03,3.546605e+03
2.094317e+03,3.555713e+03
2.095281e+03,3.551944e+03
2.096245e+03,3.541837e+03
2.097209e+03,3.527463e+03
2.098174e+03,3.517174e+03
2.099138e+03,3.517344e+03
2.100102e+03,3.518768e+03
2.101066e+03,3.508496e+03
2.102031e+03,3.497118e+03
2.102995e+03,3.496298e+03
2.103959e+03,3.497350e+03
2.104923e+03,3.493455e+03
2.105887e+03,3.489435e+03
2.106852e+03,3.484779e+03
2.107816e+03,3.480919e+03
2.108780e+03,3.485529e+03
2.109744e+03,3.490541e+03
2.110708e+03,3.473554e+03
2.111673e+03,3.450602e+03
2.112637e+03,3.442337e+03
2.113601e+03,3.441759e+03
2.114565e+03,3.438599e+03
2.115530e+03,3.432979e+03
2.116494e+03,3.422069e+03
2.117458e+03,3.413162e+03
2.118422e+03,3.415032e+03
2.119387e+03,3.423028e+03
2.120351e+03,3.429288e+03
2.121315e+03,3.431828e+03
2.122279e+03,3.433486e+03
2.123244e+03,3.434188e+03
2.124208e+03,3.426384e+03
2.125172e+03,3.415415e+03
2.126136e+03,3.418676e+03
2.127101e+03,3.442899e+03
2.128065e+03,3.439583e+03
2.129029e+03,3.412033e+03
2.129993e+03,3.390144e+03
2.130958e+03,3.376519e+03
2.131922e+03,3.375614e+03
2.132886e+03,3.388921e+03
2.133850e+03,3.399446e+03
2.134814e+03,3.407892e+03
2.135779e+03,3.405741e+03
2.136743e+03,3.382017e+03
2.137707e+03,3.364282e+03
2.138671e+03,3.355112e+03
2.139636e+03,3.353350e+03
2.140600e+03,3.363852e+03
2.141564e+03,3.370518e+03
2.142528e+03,3.373234e+03
2.143493e+03,3.368016e+03
2.144457e+03,3.348022e+03
2.145421e+03,3.333611e+03
2.146385e+03,3.332948e+03
2.147350e+03,3.327704e+03
2.148314e+03,3.313680e+03
2.149278e+03,3.306684e+03
2.150242e+03,3.318962e+03
2.151207e+03,3.326624e+03
2.152171e+03,3.324932e+03
2.153135e+03,3.317823e+03
2.154099e+03,3.312230e+03
2.155063e+03,3.304109e+03
2.156028e+03,3.292682e+03
2.156992e+03,3.284702e+03
2.157956e+03,3.280591e+03
2.158920e+03,3.279243e+03
2.159885e+03,3.281492e+03
2.160849e+03,3.283289e+03
2.161813e+03,3.283847e+03
2.162777e+03,3.279507e+03
2.163741e+03,3.262525e+03
2.164706e+03,3.248647e+03
2.165670e+03,3.248006e+03
2.166634e+03,3.251634e+03
2.167598e+03,3.240812e+03
2.168563e+03,3.240263e+03
2.169527e+03,3.262783e+03
2.170491e+03,3.279186e+03
2.171455e+03,3.251410e+03
2.172420e+03,3.223499e+03
2.173384e+03,3.227294e+03
2.174348e+03,3.238705e+03
2.175312e+03,3.240276e+03
2.176277e+03,3.234592e+03
2.177241e+03,3.219113e+03
2.178205e+03,3.206037e+03
2.179169e+03,3.207260e+03
2.180134e+03,3.213015e+03
2.181098e+03,3.206550e+03
2.182062e+03,3.197075e+03
2.183026e+03,3.187122e+03
2.183990e+03,3.180075e+03
2.184955e+03,3.186048e+03
2.185919e+03,3.192975e+03
2.186883e+03,3.189840e+03
2.187847e+03,3.180370e+03
2.188812e+03,3.165937e+03
2.189776e+03,3.154771e+03
2.190740e+03,3.157795e+03
2.191704e+03,3.163919e+03
2.192668e+03,3.166125e+03
2.193633e+03,3.166124e+03
2.194597e+03,3.166275e+03
2.195561e+03,3.164497e+03
2.196525e+03,3.156328e+03
2.197490e+03,3.145717e+03
2.198454e+03,3.140728e+03
2.199418e+03,3.136423e+03
2.200382e+03,3.128231e+03
2.201347e+03,3.121761e+03
2.202311e+03,3.122276e+03
2.203275e+03,3.128418e+03
2.204239e+03,3.140871e+03
2.205204e+03,3.148954e+03
2.206168e+03,3.138157e+03
2.207132e+03,3.123655e+03
2.208096e+03,3.128061e+03
2.209061e+03,3.130186e+03
2.210025e+03,3.102628e+03
2.210989e+03,3.066359e+03
2.211953e+03,3.055512e+03
2.212917e+03,3.060681e+03
2.213882e+03,3.063832e+03
2.214846e+03,3.064005e+03
2.215810e+03,3.062879e+03
2.216774e+03,3.060046e+03
2.217739e+03,3.061417e+03
2.218703e+03,3.065794e+03
2.219667e+03,3.074186e+03
2.220631e+03,3.077619e+03
2.221595e+03,3.062250e+03
2.222560e+03,3.041602e+03
2.223524e+03,3.035930e+03
2.224488e+03,3.035444e+03
2.225452e+03,3.032294e+03
2.226417e+03,3.027124e+03
2.227381e+03,3.015157e+03
2.228345e+03,3.006323e+03
2.229309e+03,3.014477e+03
2.230274e+03,3.025882e+03
2.231238e+03,3.031417e+03
2.232202e+03,3.030952e+03
2.233166e+03,3.026501e+03
2.234131e+03,3.018441e+03
2.235095e+03,3.003834e+03
2.236059e+03,2.990774e+03
2.237023e+03,2.996154e+03
2.237988e+03,3.000874e+03
2.238952e+03,2.990305e+03
2.239916e+03,2.972113e+03
2.240880e+03,2.952658e+03
2.241844e+03,2.941641e+03
2.242809e+03,2.948784e+03
2.243773e+03,2.959445e+03
2.244737e+03,2.954602e+03
2.245701e+03,2.949021e+03
2.246666e+03,2.958593e+03
2.247630e+03,2.965694e+03
2.248594e+03,2.959769e+03
2.249558e+03,2.952110e+03
2.250522e+03,2.950322e+03
2.251487e+03,2.952096e+03
2.252451e+03,2.954752e+03
2.253415e+03,2.952617e+03
2.254379e+03,2.940984e+03
2.255344e+03,2.931281e+03
2.256308e+03,2.929545e+03
2.257272e+03,2.928031e+03
2.258236e+03,2.917682e+03
2.259201e+03,2.906970e+03
2.260165e+03,2.896893e+03
2.261129e+03,2.888776e+03
2.262093e+03,2.881907e+03
2.263058e+03,2.879779e+03
2.264022e+03,2.885400e+03
2.264986e+03,2.895802e+03
2.265950e+03,2.916178e+03
2.266915e+03,2.917574e+03
2.267879e+03,2.884190e+03
2.268843e+03,2.862269e+03
2.269807e+03,2.882644e+03
2.270771e+03,2.893997e+03
2.271736e+03,2.873305e+03
2.272700e+03,2.862544e+03
2.273664e+03,2.871341e+03
2.274628e+03,2.877353e+03
2.275593e+03,2.867879e+03
2.276557e+03,2.861404e+03
2.277521e+03,2.863049e+03
2.278485e+03,2.861345e+03
2.279449e+03,2.846154e+03
2.280414e+03,2.837623e+03
2.281378e+03,2.836495e+03
2.282342e+03,2.838740e+03
2.283306e+03,2.842189e+03
2.284271e+03,2.844907e+03
2.285235e+03,2.845906e+03
2.286199e+03,2.841014e+03
2.287163e+03,2.830966e+03
2.288128e+03,2.822791e+03
2.289092e+03,2.814400e+03
2.290056e+03,2.810177e+03
2.291020e+03,2.812257e+03
2.291985e+03,2.809018e+03
2.292949e+03,2.802946e+03
2.293913e+03,2.798321e+03
2.294877e+03,2.794699e+03
2.295842e+03,2.793163e+03
2.296806e+03,2.791621e+03
2.297770e+03,2.787657e+03
2.298734e+03,2.780770e+03
2.299698e+03,2.770589e+03
2.300663e+03,2.759171e+03
2.301627e+03,2.755075e+03
2.302591e+03,2.754831e+03
2.303555e+03,2.752583e+03
2.304520e+03,2.748769e+03
2.305484e+03,2.744509e+03
2.306448e+03,2.739791e+03
2.307412e+03,2.731057e+03
2.308376e+03,2.721000e+03
2.309341e+03,2.718686e+03
2.310305e+03,2.722466e+03
2.311269e+03,2.735419e+03
2.312233e+03,2.750810e+03
2.313198e+03,2.754786e+03
2.314162e+03,2.751624e+03
2.315126e+03,2.746233e+03
2.316090e+03,2.738416e+03
2.317055e+03,2.725461e+03
2.318019e+03,2.715083e+03
2.318983e+03,2.715744e+03
2.319947e+03,2.715035e+03
2.320912e+03,2.703116e+03
2.321876e+03,2.693240e+03
2.322840e+03,2.695738e+03
2.323804e+03,2.701386e+03
2.324769e+03,2.708669e+03
2.325733e+03,2.714854e+03
2.326697e+03,2.718302e+03
2.327661e+03,2.712012e+03
2.328625e+03,2.688828e+03
2.329590e+03,2.670538e+03
2.330554e+03,2.677222e+03
2.331518e+03,2.685448e+03
2.332482e+03,2.692081e+03
2.333447e+03,2.685582e+03
2.334411e+03,2.646262e+03
2.335375e+03,2.634039e+03
2.336339e+03,2.651163e+03
2.337303e+03,2.666548e+03
2.338268e+03,2.668388e+03
2.339232e+03,2.659408e+03
2.340196e+03,2.642220e+03
2.341160e+03,2.627287e+03
2.342125e+03,2.616386e+03
2.343089e+03,2.622222e+03
2.344053e+03,2.636625e+03
2.345017e+03,2.642217e+03
2.345982e+03,2.638144e+03
2.346946e+03,2.633648e+03
2.347910e+03,2.629500e+03
2.348874e+03,2.620114e+03
2.349839e+03,2.605260e+03
2.350803e+03,2.588991e+03
2.351767e+03,2.576809e+03
2.352731e+03,2.583310e+03
2.353696e+03,2.597713e+03
2.354660e+03,2.596635e+03
2.355624e+03,2.591214e+03
2.356588e+03,2.608686e+03
2.357552e+03,2.626190e+03
2.358517e+03,2.621110e+03
2.359481e+03,2.607465e+03
2.360445e+03,2.597072e+03
2.361409e+03,2.588202e+03
2.362374e+03,2.581286e+03
2.363338e+03,2.572784e+03
2.364302e+03,2.561201e+03
2.365266e+03,2.554366e+03
2.366230e+03,2.552867e+03
2.367195e+03,2.551891e+03
2.368159e+03,2.547547e+03
2.369123e+03,2.539786e+03
2.370087e+03,2.530643e+03
2.371052e+03,2.526677e+03
2.372016e+03,2.533113e+03
2.372980e+03,2.541143e+03
2.373944e+03,2.548781e+03
2.374909e+03,2.549415e+03
2.375873e+03,2.539397e+03
2.376837e+03,2.534468e+03
2.377801e+03,2.533555e+03
2.378766e+03,2.528663e+03
2.379730e+03,2.519158e+03
2.380694e+03,2.512720e+03
2.381658e+03,2.510439e+03
2.382623e+03,2.512185e+03
2.383587e+03,2.514987e+03
2.384551e+03,2.510588e+03
2.385515e+03,2.502112e+03
2.386479e+03,2.497245e+03
2.387444e+03,2.495534e+03
2.388408e+03,2.500662e+03
2.389372e+03,2.504370e+03
2.390336e+03,2.492907e+03
2.391301e+03,2.480407e+03
2.392265e+03,2.482605e+03
2.393229e+03,2.483266e+03
2.394193e+03,2.470892e+03
2.395157e+03,2.462298e+03
2.396122e+03,2.473616e+03
2.397086e+03,2.480188e+03
2.398050e+03,2.475149e+03
2.399014e+03,2.465360e+03
2.399979e+03,2.450573e+03
2.400943e+03,2.441179e+03
2.401907e+03,2.437596e+03
2.402871e+03,2.436397e+03
2.403836e+03,2.437896e+03
2.404800e+03,2.441970e+03
2.405764e+03,2.447660e+03
2.406728e+03,2.456652e+03
2.407693e+03,2.465220e+03
2.408657e+03,2.461638e+03
2.409621e+03,2.449535e+03
2.410585e+03,2.437719e+03
2.411550e+03,2.427724e+03
2.412514e+03,2.419947e+03
2.413478e+03,2.413905e+03
2.414442e+03,2.408063e+03
2.415406e+03,2.405928e+03
2.416371e+03,2.412024e+03
2.417335e+03,2.419927e+03
2.418299e+03,2.418449e+03
2.419263e+03,2.416523e+03
2.420228e+03,2.420040e+03
2.421192e+03,2.419723e+03
2.422156e+03,2.402946e+03
2.423120e+03,2.388921e+03
2.424084e+03,2.379740e+03
2.425049e+03,2.373635e+03
2.426013e+03,2.374799e+03
2.426977e+03,2.372740e+03
2.427941e+03,2.368571e+03
2.428906e+03,2.369200e+03
2.429870e+03,2.375554e+03
2.430834e+03,2.380415e+03
2.431798e+03,2.383442e+03
2.432763e+03,2.378501e+03
2.433727e+03,2.366137e+03
2.434691e+03,2.362184e+03
2.435655e+03,2.363238e+03
2.436620e+03,2.364291e+03
2.437584e+03,2.363003e+03
2.438548e+03,2.350933e+03
2.439512e+03,2.338013e+03
2.440477e+03,2.332959e+03
2.441441e+03,2.330742e+03
2.442405e+03,2.328187e+03
2.443369e+03,2.328474e+03
2.444333e+03,2.334885e+03
2.445298e+03,2.339156e+03
2.446262e+03,2.331817e+03
2.447226e+03,2.319993e+03
2.448190e+03,2.305891e+03
2.449155e+03,2.301473e+03
2.450119e+03,2.328233e+03
2.451083e+03,2.333673e+03
2.452047e+03,2.318759e+03
2.453011e+03,2.303008e+03
2.453976e+03,2.291648e+03
2.454940e+03,2.291786e+03
2.455904e+03,2.301610e+03
2.456868e+03,2.313043e+03
2.457833e+03,2.320894e+03
2.458797e+03,2.311435e+03
2.459761e+03,2.297236e+03
2.460725e+03,2.294297e+03
2.461690e+03,2.296175e+03
2.462654e+03,2.295395e+03
2.463618e+03,2.292800e+03
2.464582e+03,2.290406e+03
2.465547e+03,2.288477e+03
2.466511e+03,2.283165e+03
2.467475e+03,2.276936e+03
2.468439e+03,2.270247e+03
2.469404e+03,2.263565e+03
2.470368e+03,2.258482e+03
2.471332e+03,2.259634e+03
2.472296e+03,2.264997e+03
2.473260e+03,2.269873e+03
2.474225e+03,2.273598e+03
2.475189e+03,2.265401e+03
2.476153e+03,2.252414e+03
2.477117e+03,2.254287e+03
2.478082e+03,2.264208e+03
2.479046e+03,2.260099e+03
2.480010e+03,2.249532e+03
2.480974e+03,2.243184e+03
2.481938e+03,2.240088e+03
2.482903e+03,2.240191e+03
2.483867e+03,2.240481e+03
2.484831e+03,2.238297e+03
2.485795e+03,2.236482e+03
2.486760e+03,2.246713e+03
2.487724e+03,2.239099e+03
2.488688e+03,2.209792e+03
2.489652e+03,2.192145e+03
2.490617e+03,2.209615e+03
2.491581e+03,2.214479e+03
2.492545e+03,2.209816e+03
2.493509e+03,2.209909e+03
2.494474e+03,2.214620e+03
2.495438e+03,2.210255e+03
2.496402e+03,2.200655e+03
2.497366e+03,2.193656e+03
2.498331e+03,2.189659e+03
2.499295e+03,2.191778e+03
2.500259e+03,2.192967e+03
2.501223e+03,2.190035e+03
2.502188e+03,2.185159e+03
2.503152e+03,2.175134e+03
2.504116e+03,2.173456e+03
2.505080e+03,2.184395e+03
2.506044e+03,2.194082e+03
2.507009e+03,2.192760e+03
2.507973e+03,2.183421e+03
2.508937e+03,2.168806e+03
2.509901e+03,2.164809e+03
2.510865e+03,2.175355e+03
2.511830e+03,2.177701e+03
2.512794e+03,2.173777e+03
2.513758e+03,2.175446e+03
2.514722e+03,2.180881e+03
2.515687e+03,2.176705e+03
2.516651e+03,2.171394e+03
2.517615e+03,2.175613e+03
2.518579e+03,2.178669e+03
2.519544e+03,2.162139e+03
2.520508e+03,2.148233e+03
2.521472e+03,2.146184e+03
2.522436e+03,2.144406e+03
2.523401e+03,2.128812e+03
2.524365e+03,2.131789e+03
2.525329e+03,2.152054e+03
2.526293e+03,2.156791e+03
2.527258e+03,2.139511e+03
2.528222e+03,2.126563e+03
2.529186e+03,2.118858e+03
2.530150e+03,2.120309e+03
2.531115e+03,2.126695e+03
2.532079e+03,2.119705e+03
2.533043e+03,2.108168e+03
2.534007e+03,2.099964e+03
2.534971e+03,2.094559e+03
2.535936e+03,2.097125e+03
2.536900e+03,2.100899e+03
2.537864e+03,2.103646e+03
2.538828e+03,2.104452e+03
2.539792e+03,2.098614e+03
2.540757e+03,2.093832e+03
2.541721e+03,2.090875e+03
2.542685e+03,2.090905e+03
2.543649e+03,2.094374e+03
2.544614e+03,2.096839e+03
2.545578e+03,2.096554e+03
2.546542e+03,2.093785e+03
2.547506e+03,2.090828e+03
2.548471e+03,2.095162e+03
2.549435e+03,2.095103e+03
2.550399e+03,2.076333e+03
2.551363e+03,2.059153e+03
2.552328e+03,2.064938e+03
2.553292e+03,2.069459e+03
2.554256e+03,2.063496e+03
2.555220e+03,2.064117e+03
2.556185e+03,2.073936e+03
2.557149e+03,2.074880e+03
2.558113e+03,2.064198e+03
2.559077e+03,2.064672e+03
2.560042e+03,2.069859e+03
2.561006e+03,2.052203e+03
2.561970e+03,2.029591e+03
2.562934e+03,2.036057e+03
2.563898e+03,2.052699e+03
2.564863e+03,2.057714e+03
2.565827e+03,2.057956e+03
2.566791e+03,2.062609e+03
2.567755e+03,2.065996e+03
2.568719e+03,2.064900e+03
2.569684e+03,2.054024e+03
2.570648e+03,2.026094e+03
2.571612e+03,2.014332e+03
2.572576e+03,2.018573e+03
2.573541e+03,2.021805e+03
2.574505e+03,2.021092e+03
2.575469e+03,2.029068e+03
2.576433e+03,2.037853e+03
2.577398e+03,2.038007e+03
2.578362e+03,2.033545e+03
2.579326e+03,2.030662e+03
2.580290e+03,2.021387e+03
2.581255e+03,2.000133e+03
2.582219e+03,1.985511e+03
2.583183e+03,2.001983e+03
2.584147e+03,2.004337e+03
2.585112e+03,1.994240e+03
2.586076e+03,1.987806e+03
2.587040e+03,1.987532e+03
2.588004e+03,1.991795e+03
2.588969e+03,1.995629e+03
2.589933e+03,1.991104e+03
2.590897e+03,1.983981e+03
2.591861e+03,1.986317e+03
2.592825e+03,1.991647e+03
2.593790e+03,1.997475e+03
2.594754e+03,1.991894e+03
2.595718e+03,1.957336e+03
2.596682e+03,1.946784e+03
2.597646e+03,1.971541e+03
2.598611e+03,1.977682e+03
2.599575e+03,1.963032e+03
2.600539e+03,1.952514e+03
2.601503e+03,1.948184e+03
2.602468e+03,1.946672e+03
2.603432e+03,1.948424e+03
2.604396e+03,1.963089e+03
2.605360e+03,1.976363e+03
2.606325e+03,1.969793e+03
2.607289e+03,1.961381e+03
2.608253e+03,1.960354e+03
2.609217e+03,1.956169e+03
2.610182e+03,1.936844e+03
2.611146e+03,1.935137e+03
2.612110e+03,1.949549e+03
2.613074e+03,1.953706e+03
2.614039e+03,1.946940e+03
2.615003e+03,1.941901e+03
2.615967e+03,1.937381e+03
2.616931e+03,1.936697e+03
2.617896e+03,1.937447e+03
2.618860e+03,1.934858e+03
2.619824e+03,1.933785e+03
2.620788e+03,1.935560e+03
2.621752e+03,1.935294e+03
2.622717e+03,1.933052e+03
2.623681e+03,1.918437e+03
2.624645e+03,1.894401e+03
2.625609e+03,1.897622e+03
2.626573e+03,1.922092e+03
2.627538e+03,1.909376e+03
2.628502e+03,1.883672e+03
2.629466e+03,1.878574e+03
2.630430e+03,1.885475e+03
2.631395e+03,1.902381e+03
2.632359e+03,1.910194e+03
2.633323e+03,1.898612e+03
2.634287e+03,1.894533e+03
2.635252e+03,1.904602e+03
2.636216e+03,1.907286e+03
2.637180e+03,1.897782e+03
2.638144e+03,1.893537e+03
2.639109e+03,1.891997e+03
2.640073e+03,1.889187e+03
2.641037e+03,1.887028e+03
2.642001e+03,1.882395e+03
2.642966e+03,1.878903e+03
2.643930e+03,1.878110e+03
2.644894e+03,1.879653e+03
2.645858e+03,1.889033e+03
2.646823e+03,1.884685e+03
2.647787e+03,1.866975e+03
2.648751e+03,1.865111e+03
2.649715e+03,1.879797e+03
2.650679e+03,1.880978e+03
2.651644e+03,1.872858e+03
2.652608e+03,1.861227e+03
2.653572e+03,1.850318e+03
2.654536e+03,1.846354e+03
2.655500e+03,1.848420e+03
2.656465e+03,1.857275e+03
2.657429e+03,1.864035e+03
2.658393e+03,1.864997e+03
2.659357e+03,1.852051e+03
2.660322e+03,1.831548e+03
2.661286e+03,1.839862e+03
2.662250e+03,1.864697e+03
2.663214e+03,1.872395e+03
2.664179e+03,1.867843e+03
2.665143e+03,1.851785e+03
2.666107e+03,1.839817e+03
2.667071e+03,1.840356e+03
2.668036e+03,1.843090e+03
2.669000e+03,1.841152e+03
2.669964e+03,1.837710e+03
2.670928e+03,1.833304e+03
2.671893e+03,1.833729e+03
2.672857e+03,1.838162e+03
2.673821e+03,1.834843e+03
2.674785e+03,1.828614e+03
2.675750e+03,1.826965e+03
2.676714e+03,1.826316e+03
2.677678e+03,1.817472e+03
2.678642e+03,1.817954e+03
2.679606e+03,1.832866e+03
2.680571e+03,1.835679e+03
2.681535e+03,1.822434e+03
2.682499e+03,1.812878e+03
2.683463e+03,1.806172e+03
2.684427e+03,1.796420e+03
2.685392e+03,1.787474e+03
2.686356e+03,1.785165e+03
2.687320e+03,1.784975e+03
2.688284e+03,1.784606e+03
2.689249e+03,1.790028e+03
2.690213e+03,1.801281e+03
2.691177e+03,1.797423e+03
2.692141e+03,1.770895e+03
2.693106e+03,1.780610e+03
2.694070e+03,1.808675e+03
2.695034e+03,1.807047e+03
2.695998e+03,1.793768e+03
2.696963e+03,1.808000e+03
2.697927e+03,1.813847e+03
2.698891e+03,1.789620e+03
2.699855e+03,1.776248e+03
2.700820e+03,1.800790e+03
2.701784e+03,1.800262e+03
2.702748e+03,1.772411e+03
2.703712e+03,1.759949e+03
2.704677e+03,1.760780e+03
2.705641e+03,1.767621e+03
2.706605e+03,1.776260e+03
2.707569e+03,1.780176e+03
2.708533e+03,1.778989e+03
2.709498e+03,1.772239e+03
2.710462e+03,1.761353e+03
2.711426e+03,1.746084e+03
2.712390e+03,1.739280e+03
2.713354e+03,1.740416e+03
2.714319e+03,1.751823e+03
2.715283e+03,1.766769e+03
2.716247e+03,1.776531e+03
2.717211e+03,1.774827e+03
2.718176e+03,1.756984e+03
2.719140e+03,1.742799e+03
2.720104e+03,1.746623e+03
2.721068e+03,1.755001e+03
2.722033e+03,1.764531e+03
2.722997e+03,1.749674e+03
2.723961e+03,1.719028e+03
2.724925e+03,1.712747e+03
2.725890e+03,1.720766e+03
2.726854e+03,1.729833e+03
2.727818e+03,1.736969e+03
2.728782e+03,1.738937e+03
2.729747e+03,1.735959e+03
2.730711e+03,1.724834e+03
2.731675e+03,1.721553e+03
2.732639e+03,1.725019e+03
2.733604e+03,1.725442e+03
2.734568e+03,1.724024e+03
2.735532e+03,1.729746e+03
2.736496e+03,1.731589e+03
2.737460e+03,1.721402e+03
2.738425e+03,1.715254e+03
2.739389e+03,1.724793e+03
2.740353e+03,1.724079e+03
2.741317e+03,1.710966e+03
2.742281e+03,1.707971e+03
2.743246e+03,1.711108e+03
2.744210e+03,1.690106e+03
2.745174e+03,1.670461e+03
2.746138e+03,1.703313e+03
2.747103e+03,1.728076e+03
2.748067e+03,1.721654e+03
2.749031e+03,1.713513e+03
2.749995e+03,1.717898e+03
2.750960e+03,1.714506e+03
2.751924e+03,1.704982e+03
2.752888e+03,1.691528e+03
2.753852e+03,1.679683e+03
2.754817e+03,1.687435e+03
2.755781e+03,1.696210e+03
2.756745e+03,1.695654e+03
2.757709e+03,1.687661e+03
2.758674e+03,1.671508e+03
2.759638e+03,1.669499e+03
2.760602e+03,1.684617e+03
2.761566e+03,1.689420e+03
2.762531e+03,1.687806e+03
2.763495e+03,1.680648e+03
2.764459e+03,1.673908e+03
2.765423e+03,1.678026e+03
2.766387e+03,1.676849e+03
2.767352e+03,1.668323e+03
2.768316e+03,1.674508e+03
2.769280e+03,1.698417e+03
2.770244e+03,1.689967e+03
2.771208e+03,1.665356e+03
2.772173e+03,1.657495e+03
2.773137e+03,1.657054e+03
2.774101e+03,1.658768e+03
2.775065e+03,1.659673e+03
2.776030e+03,1.656817e+03
2.776994e+03,1.658046e+03
2.777958e+03,1.660536e+03
2.778922e+03,1.649644e+03
2.779887e+03,1.632971e+03
2.780851e+03,1.632568e+03
2.781815e+03,1.635313e+03
2.782779e+03,1.633077e+03
2.783744e+03,1.631864e+03
2.784708e+03,1.634318e+03
2.785672e+03,1.634193e+03
2.786636e+03,1.630754e+03
2.787601e+03,1.625154e+03
2.788565e+03,1.621175e+03
2.789529e+03,1.627139e+03
2.790493e+03,1.636884e+03
2.791458e+03,1.651203e+03
2.792422e+03,1.648534e+03
2.793386e+03,1.628227e+03
2.794350e+03,1.612370e+03
2.795314e+03,1.605740e+03
2.796279e+03,1.625459e+03
2.797243e+03,1.648074e+03
2.798207e+03,1.637482e+03
2.799171e+03,1.621364e+03
2.800135e+03,1.635045e+03
2.801100e+03,1.644235e+03
2.802064e+03,1.642276e+03
2.803028e+03,1.639402e+03
2.803992e+03,1.636763e+03
2.804957e+03,1.636232e+03
2.805921e+03,1.636930e+03
2.806885e+03,1.635807e+03
2.807849e+03,1.632186e+03
2.808814e+03,1.625559e+03
2.809778e+03,1.623911e+03
2.810742e+03,1.635473e+03
2.811706e+03,1.627841e+03
2.812671e+03,1.607922e+03
2.813635e+03,1.608309e+03
2.814599e+03,1.618552e+03
2.815563e+03,1.622048e+03
2.816528e+03,1.621490e+03
2.817492e+03,1.616797e+03
2.818456e+03,1.606583e+03
2.819420e+03,1.591809e+03
2.820385e+03,1.596983e+03
2.821349e+03,1.614425e+03
2.822313e+03,1.593991e+03
2.823277e+03,1.574597e+03
2.824241e+03,1.587008e+03
2.825206e+03,1.599407e+03
2.826170e+03,1.593536e+03
2.827134e+03,1.587538e+03
2.828098e+03,1.584264e+03
2.829063e+03,1.598866e+03
2.830027e+03,1.616559e+03
2.830991e+03,1.600915e+03
2.831955e+03,1.587501e+03
2.832919e+03,1.611070e+03
2.833884e+03,1.615684e+03
2.834848e+03,1.594611e+03
2.835812e+03,1.575812e+03
2.836776e+03,1.564154e+03
2.837741e+03,1.557895e+03
2.838705e+03,1.557162e+03
2.839669e+03,1.560638e+03
2.840633e+03,1.568723e+03
2.841598e+03,1.582370e+03
2.842562e+03,1.591909e+03
2.843526e+03,1.595887e+03
2.844490e+03,1.597033e+03
2.845455e+03,1.592522e+03
2.846419e+03,1.576366e+03
2.847383e+03,1.564617e+03
2.848347e+03,1.584101e+03
2.849312e+03,1.592301e+03
2.850276e+03,1.581771e+03
2.851240e+03,1.570566e+03
2.852204e+03,1.562690e+03
2.853168e+03,1.580127e+03
2.854133e+03,1.601833e+03
2.855097e+03,1.603192e+03
2.856061e+03,1.596031e+03
2.857025e+03,1.583928e+03
2.857990e+03,1.568583e+03
2.858954e+03,1.551021e+03
2.859918e+03,1.544835e+03
2.860882e+03,1.547927e+03
2.861846e+03,1.555664e+03
2.862811e+03,1.563058e+03
2.863775e+03,1.563586e+03
2.864739e+03,1.571992e+03
2.865703e+03,1.592604e+03
2.866668e+03,1.597273e+03
2.867632e+03,1.588482e+03
2.868596e+03,1.572352e+03
2.869560e+03,1.556170e+03
2.870525e+03,1.546856e+03
2.871489e+03,1.552289e+03
2.872453e+03,1.572890e+03
2.873417e+03,1.582992e+03
2.874382e+03,1.579918e+03
2.875346e+03,1.565225e+03
2.876310e+03,1.548515e+03
2.877274e+03,1.535183e+03
2.878239e+03,1.534216e+03
2.879203e+03,1.546231e+03
2.880167e+03,1.557007e+03
2.881131e+03,1.564404e+03
2.882095e+03,1.556984e+03
2.883060e+03,1.546993e+03
2.884024e+03,1.551926e+03
2.884988e+03,1.564231e+03
2.885952e+03,1.581159e+03
2.886917e+03,1.581757e+03
2.887881e+03,1.561030e+03
2.888845e+03,1.553952e+03
2.889809e+03,1.558839e+03
2.890773e+03,1.571496e+03
2.891738e+03,1.577868e+03
2.892702e+03,1.555167e+03
2.893666e+03,1.549898e+03
2.894630e+03,1.568786e+03
2.895595e+03,1.570333e+03
2.896559e+03,1.555079e+03
2.897523e+03,1.534561e+03
2.898487e+03,1.522195e+03
2.899452e+03,1.541073e+03
2.900416e+03,1.551312e+03
2.901380e+03,1.544064e+03
2.902344e+03,1.539455e+03
2.903309e+03,1.540662e+03
2.904273e+03,1.544844e+03
2.905237e+03,1.545631e+03
2.906201e+03,1.535218e+03
2.907166e+03,1.526498e+03
2.908130e+03,1.525061e+03
2.909094e+03,1.524202e+03
2.910058e+03,1.521422e+03
2.911022e+03,1.505168e+03
2.911987e+03,1.492582e+03
2.912951e+03,1.502220e+03
2.913915e+03,1.510553e+03
2.914879e+03,1.496858e+03
2.915844e+03,1.498427e+03
2.916808e+03,1.514773e+03
2.917772e+03,1.512373e+03
2.918736e+03,1.500882e+03
2.919700e+03,1.491871e+03
2.920665e+03,1.491128e+03
2.921629e+03,1.516024e+03
2.922593e+03,1.513895e+03
2.923557e+03,1.491578e+03
2.924522e+03,1.490424e+03
2.925486e+03,1.501451e+03
2.926450e+03,1.503001e+03
2.927414e+03,1.501724e+03
2.928379e+03,1.500581e+03
2.929343e+03,1.490350e+03
2.930307e+03,1.473173e+03
2.931271e+03,1.463941e+03
2.932236e+03,1.464534e+03
2.933200e+03,1.488341e+03
2.934164e+03,1.496368e+03
2.935128e+03,1.469634e+03
2.936093e+03,1.470285e+03
2.937057e+03,1.499036e+03
2.938021e+03,1.502349e+03
2.938985e+03,1.491560e+03
2.939949e+03,1.483056e+03
2.940914e+03,1.474982e+03
2.941878e+03,1.467148e+03
2.942842e+03,1.466234e+03
2.943806e+03,1.469521e+03
2.944771e+03,1.452752e+03
2.945735e+03,1.438959e+03
2.946699e+03,1.468625e+03
2.947663e+03,1.484695e+03
2.948627e+03,1.467809e+03
2.949592e+03,1.458342e+03
2.950556e+03,1.464353e+03
2.951520e+03,1.465907e+03
2.952484e+03,1.463464e+03
2.953449e+03,1.460138e+03
2.954413e+03,1.451830e+03
2.955377e+03,1.437939e+03
2.956341e+03,1.454863e+03
2.957306e+03,1.493499e+03
2.958270e+03,1.476874e+03
2.959234e+03,1.447724e+03
2.960198e+03,1.445018e+03
2.961163e+03,1.453384e+03
2.962127e+03,1.463188e+03
2.963091e+03,1.463042e+03
2.964055e+03,1.453750e+03
2.965020e+03,1.453995e+03
2.965984e+03,1.448463e+03
2.966948e+03,1.420958e+03
2.967912e+03,1.413890e+03
2.968876e+03,1.454214e+03
2.969841e+03,1.463675e+03
2.970805e+03,1.450995e+03
2.971769e+03,1.437445e+03
2.972733e+03,1.429032e+03
2.973698e+03,1.430959e+03
2.974662e+03,1.425793e+03
2.975626e+03,1.408967e+03
2.976590e+03,1.405655e+03
2.977554e+03,1.411979e+03
2.978519e+03,1.421002e+03
2.979483e+03,1.426162e+03
2.980447e+03,1.423882e+03
2.981411e+03,1.423363e+03
2.982376e+03,1.425311e+03
2.983340e+03,1.423784e+03
2.984304e+03,1.414118e+03
2.985268e+03,1.391415e+03
2.986233e+03,1.373298e+03
2.987197e+03,1.369040e+03
2.988161e+03,1.387701e+03
2.989125e+03,1.416554e+03
2.990090e+03,1.411837e+03
2.991054e+03,1.397193e+03
2.992018e+03,1.391190e+03
2.992982e+03,1.392228e+03
2.993947e+03,1.404398e+03
2.994911e+03,1.396917e+03
2.995875e+03,1.388537e+03
2.996839e+03,1.409720e+03
2.997803e+03,1.427399e+03
2.998768e+03,1.422401e+03
2.999732e+03,1.405430e+03
3.000696e+03,1.382161e+03
3.001660e+03,1.378177e+03
3.002625e+03,1.378391e+03
3.003589e+03,1.365293e+03
3.004553e+03,1.372515e+03
3.005517e+03,1.419110e+03
3.006481e+03,1.437071e+03
3.007446e+03,1.423407e+03
3.008410e+03,1.399121e+03
3.009374e+03,1.384995e+03
3.010338e+03,1.394000e+03
3.011303e+03,1.403610e+03
3.012267e+03,1.403725e+03
3.013231e+03,1.402432e+03
3.014195e+03,1.395398e+03
3.015160e+03,1.371530e+03
3.016124e+03,1.353770e+03
3.017088e+03,1.348391e+03
3.018052e+03,1.365514e+03
3.019017e+03,1.396945e+03
3.019981e+03,1.377303e+03
3.020945e+03,1.353718e+03
3.021909e+03,1.369037e+03
3.022874e+03,1.381161e+03
3.023838e+03,1.379762e+03
3.024802e+03,1.367626e+03
3.025766e+03,1.354999e+03
3.026730e+03,1.368792e+03
3.027695e+03,1.377282e+03
3.028659e+03,1.367424e+03
3.029623e+03,1.353533e+03
3.030587e+03,1.343131e+03
3.031552e+03,1.371031e+03
3.032516e+03,1.400077e+03
3.033480e+03,1.388899e+03
3.034444e+03,1.362081e+03
3.035408e+03,1.330192e+03
3.036373e+03,1.332357e+03
3.037337e+03,1.352257e+03
3.038301e+03,1.340651e+03
3.039265e+03,1.329082e+03
3.040230e+03,1.333303e+03
3.041194e+03,1.346575e+03
3.042158e+03,1.361503e+03
3.043122e+03,1.358256e+03
3.044087e+03,1.345260e+03
3.045051e+03,1.322813e+03
3.046015e+03,1.324548e+03
3.046979e+03,1.365201e+03
3.047944e+03,1.360118e+03
3.048908e+03,1.338485e+03
3.049872e+03,1.347708e+03
3.050836e+03,1.356903e+03
3.051801e+03,1.342650e+03
3.052765e+03,1.338918e+03
3.053729e+03,1.345675e+03
3.054693e+03,1.346229e+03
3.055657e+03,1.350396e+03
3.056622e+03,1.363411e+03
3.057586e+03,1.372031e+03
3.058550e+03,1.373200e+03
3.059514e+03,1.352833e+03
3.060479e+03,1.337050e+03
3.061443e+03,1.381859e+03
3.062407e+03,1.396114e+03
3.063371e+03,1.360568e+03
3.064335e+03,1.354256e+03
3.065300e+03,1.373395e+03
3.066264e+03,1.349564e+03
3.067228e+03,1.328525e+03
3.068192e+03,1.340336e+03
3.069157e+03,1.349685e+03
3.070121e+03,1.351600e+03
3.071085e+03,1.347029e+03
3.072049e+03,1.341846e+03
3.073014e+03,1.349201e+03
3.073978e+03,1.346636e+03
3.074942e+03,1.328797e+03
3.075906e+03,1.315499e+03
3.076871e+03,1.308986e+03
3.077835e+03,1.310079e+03
3.078799e+03,1.313675e+03
3.079763e+03,1.317007e+03
3.080728e+03,1.320294e+03
3.081692e+03,1.324271e+03
3.082656e+03,1.329106e+03
3.083620e+03,1.330201e+03
3.084584e+03,1.326470e+03
3.085549e+03,1.320688e+03
3.086513e+03,1.314102e+03
3.087477e+03,1.279412e+03
3.088441e+03,1.258324e+03
3.089406e+03,1.308299e+03
3.090370e+03,1.347828e+03
3.091334e+03,1.362235e+03
3.092298e+03,1.354141e+03
3.093262e+03,1.339717e+03
3.094227e+03,1.349451e+03
3.095191e+03,1.352548e+03
3.096155e+03,1.337609e+03
3.097119e+03,1.334106e+03
3.098084e+03,1.338205e+03
3.099048e+03,1.335502e+03
3.100012e+03,1.333345e+03
3.100976e+03,1.338542e+03
3.101941e+03,1.342998e+03
3.102905e+03,1.343601e+03
3.103869e+03,1.326523e+03
3.104833e+03,1.314258e+03
3.105798e+03,1.321195e+03
3.106762e+03,1.327672e+03
3.107726e+03,1.329982e+03
3.108690e+03,1.330306e+03
3.109655e+03,1.329669e+03
3.110619e+03,1.332283e+03
3.111583e+03,1.327988e+03
3.112547e+03,1.317316e+03
3.113511e+03,1.304810e+03
3.114476e+03,1.294306e+03
3.115440e+03,1.294227e+03
3.116404e+03,1.298316e+03
3.117368e+03,1.308683e+03
3.118333e+03,1.318262e+03
3.119297e+03,1.320761e+03
3.120261e+03,1.305870e+03
3.121225e+03,1.292407e+03
3.122189e+03,1.289475e+03
3.123154e+03,1.305230e+03
3.124118e+03,1.329456e+03
3.125082e+03,1.331372e+03
3.126046e+03,1.322014e+03
3.127011e+03,1.306786e+03
3.127975e+03,1.311589e+03
3.128939e+03,1.329733e+03
3.129903e+03,1.322950e+03
3.130868e+03,1.313217e+03
3.131832e+03,1.315897e+03
3.132796e+03,1.338308e+03
3.133760e+03,1.365983e+03
3.134725e+03,1.332677e+03
3.135689e+03,1.292287e+03
3.136653e+03,1.295708e+03
3.137617e+03,1.312764e+03
3.138582e+03,1.335605e+03
3.139546e+03,1.320614e+03
3.140510e+03,1.301609e+03
3.141474e+03,1.324214e+03
3.142438e+03,1.320541e+03
3.143403e+03,1.286766e+03
3.144367e+03,1.290304e+03
3.145331e+03,1.307470e+03
3.146295e+03,1.289391e+03
3.147260e+03,1.280792e+03
3.148224e+03,1.292056e+03
3.149188e+03,1.327339e+03
3.150152e+03,1.357164e+03
3.151116e+03,1.343818e+03
3.152081e+03,1.330582e+03
3.153045e+03,1.333711e+03
3.154009e+03,1.336429e+03
3.154973e+03,1.336789e+03
3.155938e+03,1.327302e+03
3.156902e+03,1.321076e+03
3.157866e+03,1.319390e+03
3.158830e+03,1.317945e+03
3.159795e+03,1.320334e+03
3.160759e+03,1.333721e+03
3.161723e+03,1.340708e+03
3.162687e+03,1.331014e+03
3.163652e+03,1.309441e+03
3.164616e+03,1.297966e+03
3.165580e+03,1.336834e+03
3.166544e+03,1.365126e+03
3.167509e+03,1.359843e+03
3.168473e+03,1.338221e+03
3.169437e+03,1.312744e+03
3.170401e+03,1.314444e+03
3.171365e+03,1.306978e+03
3.172330e+03,1.274778e+03
3.173294e+03,1.292627e+03
3.174258e+03,1.337948e+03
3.175222e+03,1.362129e+03
3.176187e+03,1.347163e+03
3.177151e+03,1.274554e+03
3.178115e+03,1.279740e+03
3.179079e+03,1.334142e+03
3.180043e+03,1.312071e+03
3.181008e+03,1.297002e+03
3.181972e+03,1.321201e+03
3.182936e+03,1.313954e+03
3.183900e+03,1.287788e+03
3.184865e+03,1.314606e+03
3.185829e+03,1.333697e+03
3.186793e+03,1.300205e+03
3.187757e+03,1.289044e+03
3.188722e+03,1.294232e+03
3.189686e+03,1.299281e+03
3.190650e+03,1.303755e+03
3.191614e+03,1.306838e+03
3.192579e+03,1.314204e+03
3.193543e+03,1.319243e+03
3.194507e+03,1.289893e+03
3.195471e+03,1.273485e+03
3.196436e+03,1.289689e+03
3.197400e+03,1.299873e+03
3.198364e+03,1.307596e+03
3.199328e+03,1.328011e+03
3.200292e+03,1.331215e+03
3.201257e+03,0.000000e+00
3.202221e+03,0.000000e+00
3.203185e+03,0.000000e+00
3.204149e+03,0.000000e+00
3.205114e+03,0.000000e+00
3.206078e+03,0.000000e+00
3.207042e+03,0.000000e+00
3.208006e+03,0.000000e+00
3.208970e+03,0.000000e+00
3.209935e+03,0.000000e+00
3.210899e+03,0.000000e+00
3.211863e+03,0.000000e+00
3.212827e+03,0.000000e+00
3.213792e+03,0.000000e+00
3.214756e+03,0.000000e+00
3.215720e+03,0.000000e+00
3.216684e+03,0.000000e+00
3.217649e+03,0.000000e+00
3.218613e+03,0.000000e+00
3.219577e+03,0.000000e+00
3.220541e+03,0.000000e+00
3.221506e+03,0.000000e+00
3.222470e+03,0.000000e+00
3.223434e+03,0.000000e+00
3.224398e+03,0.000000e+00
3.225363e+03,0.000000e+00
3.226327e+03,0.000000e+00
3.227291e+03,0.000000e+00
3.228255e+03,0.000000e+00
3.229219e+03,0.000000e+00
3.230184e+03,0.000000e+00
3.231148e+03,0.000000e+00
3.232112e+03,0.000000e+00
3.233076e+03,0.000000e+00
3.234041e+03,0.000000e+00
3.235005e+03,0.000000e+00
3.235969e+03,0.000000e+00
3.236933e+03,0.000000e+00
3.237897e+03,0.000000e+00
3.238862e+03,0.000000e+00
3.239826e+03,0.000000e+00
3.240790e+03,0.000000e+00
3.241754e+03,0.000000e+00
3.242719e+03,0.000000e+00
3.243683e+03,0.000000e+00
3.244647e+03,0.000000e+00
3.245611e+03,0.000000e+00
3.246576e+03,0.000000e+00
3.247540e+03,0.000000e+00
3.248504e+03,0.000000e+00
3.249468e+03,0.000000e+00
3.250433e+03,0.000000e+00
3.251397e+03,0.000000e+00
3.252361e+03,0.000000e+00
3.253325e+03,0.000000e+00
3.254290e+03,0.000000e+00
3.255254e+03,0.000000e+00
3.256218e+03,0.000000e+00
3.257182e+03,0.000000e+00
3.258146e+03,0.000000e+00
3.259111e+03,0.000000e+00
3.260075e+03,0.000000e+00
3.261039e+03,0.000000e+00
3.262003e+03,0.000000e+00
3.262968e+03,0.000000e+00
3.263932e+03,0.000000e+00
3.264896e+03,0.000000e+00
3.265860e+03,0.000000e+00
3.266824e+03,0.000000e+00
3.267789e+03,0.000000e+00
3.268753e+03,0.000000e+00
3.269717e+03,0.000000e+00
3.270681e+03,0.000000e+00
3.271646e+03,0.000000e+00
3.272610e+03,0.000000e+00
3.273574e+03,0.000000e+00
3.274538e+03,0.000000e+00
3.275503e+03,0.000000e+00
3.276467e+03,0.000000e+00
3.277431e+03,0.000000e+00
3.278395e+03,0.000000e+00
3.279360e+03,0.000000e+00
3.280324e+03,0.000000e+00
3.281288e+03,0.000000e+00
3.282252e+03,0.000000e+00
3.283217e+03,0.000000e+00
3.284181e+03,0.000000e+00
3.285145e+03,0.000000e+00
3.286109e+03,0.000000e+00
3.287073e+03,0.000000e+00
3.288038e+03,0.000000e+00
3.289002e+03,0.000000e+00
3.289966e+03,0.000000e+00
3.290930e+03,0.000000e+00
3.291895e+03,0.000000e+00
3.292859e+03,0.000000e+00
3.293823e+03,0.000000e+00
3.294787e+03,0.000000e+00
3.295751e+03,0.000000e+00
3.296716e+03,0.000000e+00
3.297680e+03,0.000000e+00
3.298644e+03,0.000000e+00
3.299608e+03,0.000000e+00
3.300573e+03,0.000000e+00
3.301537e+03,0.000000e+00
3.302501e+03,0.000000e+00
3.303465e+03,0.000000e+00
3.304430e+03,0.000000e+00
3.305394e+03,0.000000e+00
3.306358e+03,0.000000e+00
3.307322e+03,0.000000e+00
3.308287e+03,0.000000e+00
3.309251e+03,0.000000e+00
3.310215e+03,0.000000e+00
3.311179e+03,0.000000e+00
3.312144e+03,0.000000e+00
3.313108e+03,0.000000e+00
3.314072e+03,0.000000e+00
3.315036e+03,0.000000e+00
3.316000e+03,0.000000e+00
3.316965e+03,0.000000e+00
3.317929e+03,0.000000e+00
3.318893e+03,0.000000e+00
3.319857e+03,0.000000e+00
3.320822e+03,0.000000e+00
3.321786e+03,0.000000e+00
3.322750e+03,0.000000e+00
3.323714e+03,0.000000e+00
3.324678e+03,0.000000e+00
3.325643e+03,0.000000e+00
3.326607e+03,0.000000e+00
3.327571e+03,0.000000e+00
3.328535e+03,0.000000e+00
3.329500e+03,0.000000e+00
3.330464e+03,0.000000e+00
3.331428e+03,0.000000e+00
3.332392e+03,0.000000e+00
3.333357e+03,0.000000e+00
3.334321e+03,0.000000e+00
3.335285e+03,0.000000e+00
3.336249e+03,0.000000e+00
3.337214e+03,0.000000e+00
3.338178e+03,0.000000e+00
3.339142e+03,0.000000e+00
3.340106e+03,0.000000e+00
3.341071e+03,0.000000e+00
3.342035e+03,0.000000e+00
3.342999e+03,0.000000e+00
3.343963e+03,0.000000e+00
3.344927e+03,0.000000e+00
3.345892e+03,0.000000e+00
3.346856e+03,0.000000e+00
3.347820e+03,0.000000e+00
3.348784e+03,0.000000e+00
3.349749e+03,0.000000e+00
3.350713e+03,0.000000e+00
3.351677e+03,0.000000e+00
3.352641e+03,0.000000e+00
3.353605e+03,0.000000e+00
3.354570e+03,0.000000e+00
3.355534e+03,0.000000e+00
3.356498e+03,0.000000e+00
3.357462e+03,0.000000e+00
3.358427e+03,0.000000e+00
3.359391e+03,0.000000e+00
3.360355e+03,0.000000e+00
3.361319e+03,0.000000e+00
3.362284e+03,0.000000e+00
3.363248e+03,0.000000e+00
3.364212e+03,0.000000e+00
3.365176e+03,0.000000e+00
3.366141e+03,0.000000e+00
3.367105e+03,0.000000e+00
3.368069e+03,0.000000e+00
3.369033e+03,0.000000e+00
3.369998e+03,0.000000e+00
3.370962e+03,0.000000e+00
3.371926e+03,0.000000e+00
3.372890e+03,0.000000e+00
3.373854e+03,0.000000e+00
3.374819e+03,0.000000e+00
3.375783e+03,0.000000e+00
3.376747e+03,0.000000e+00
3.377711e+03,0.000000e+00
3.378676e+03,0.000000e+00
3.379640e+03,0.000000e+00
3.380604e+03,0.000000e+00
3.381568e+03,0.000000e+00
3.382532e+03,0.000000e+00
3.383497e+03,0.000000e+00
3.384461e+03,0.000000e+00
3.385425e+03,0.000000e+00
3.386389e+03,0.000000e+00
3.387354e+03,0.000000e+00
3.388318e+03,0.000000e+00
3.389282e+03,0.000000e+00
3.390246e+03,0.000000e+00
3.391211e+03,0.000000e+00
3.392175e+03,0.000000e+00
3.393139e+03,0.000000e+00
3.394103e+03,0.000000e+00
3.395068e+03,0.000000e+00
3.396032e+03,0.000000e+00
3.396996e+03,0.000000e+00
3.397960e+03,0.000000e+00
3.398925e+03,0.000000e+00
3.399889e+03,0.000000e+00
3.400853e+03,0.000000e+00
3.401817e+03,0.000000e+00
3.402781e+03,0.000000e+00
3.403746e+03,0.000000e+00
3.404710e+03,0.000000e+00
3.405674e+03,0.000000e+00
3.406638e+03,0.000000e+00
3.407603e+03,0.000000e+00
3.408567e+03,0.000000e+00
3.409531e+03,0.000000e+00
3.410495e+03,0.000000e+00
3.411459e+03,0.000000e+00
3.412424e+03,0.000000e+00
3.413388e+03,0.000000e+00
3.414352e+03,0.000000e+00
3.415316e+03,0.000000e+00
3.416281e+03,0.000000e+00
3.417245e+03,0.000000e+00
3.418209e+03,0.000000e+00
3.419173e+03,0.000000e+00
3.420138e+03,0.000000e+00
3.421102e+03,0.000000e+00
3.422066e+03,0.000000e+00
3.423030e+03,0.000000e+00
3.423995e+03,0.000000e+00
3.424959e+03,0.000000e+00
3.425923e+03,0.000000e+00
3.426887e+03,0.000000e+00
3.427852e+03,0.000000e+00
3.428816e+03,0.000000e+00
3.429780e+03,0.000000e+00
3.430744e+03,0.000000e+00
3.431708e+03,0.000000e+00
3.432673e+03,0.000000e+00
3.433637e+03,0.000000e+00
3.434601e+03,0.000000e+00
3.435565e+03,0.000000e+00
3.436530e+03,0.000000e+00
3.437494e+03,0.000000e+00
3.438458e+03,0.000000e+00
3.439422e+03,0.000000e+00
3.440386e+03,0.000000e+00
3.441351e+03,0.000000e+00
3.442315e+03,0.000000e+00
3.443279e+03,0.000000e+00
3.444243e+03,0.000000e+00
3.445208e+03,0.000000e+00
3.446172e+03,0.000000e+00
3.447136e+03,0.000000e+00
3.448100e+03,0.000000e+00
3.449065e+03,0.000000e+00
3.450029e+03,0.000000e+00
3.450993e+03,0.000000e+00
3.451957e+03,0.000000e+00
3.452922e+03,0.000000e+00
3.453886e+03,0.000000e+00
3.454850e+03,0.000000e+00
3.455814e+03,0.000000e+00
3.456779e+03,0.000000e+00
3.457743e+03,0.000000e+00
3.458707e+03,0.000000e+00
3.459671e+03,0.000000e+00
3.460635e+03,0.000000e+00
3.461600e+03,0.000000e+00
3.462564e+03,0.000000e+00
3.463528e+03,0.000000e+00
3.464492e+03,0.000000e+00
3.465457e+03,0.000000e+00
3.466421e+03,0.000000e+00
3.467385e+03,0.000000e+00
3.468349e+03,0.000000e+00
3.469313e+03,0.000000e+00
3.470278e+03,0.000000e+00
3.471242e+03,0.000000e+00
3.472206e+03,0.000000e+00
3.473170e+03,0.000000e+00
3.474135e+03,0.000000e+00
3.475099e+03,0.000000e+00
3.476063e+03,0.000000e+00
3.477027e+03,0.000000e+00
3.477992e+03,0.000000e+00
3.478956e+03,0.000000e+00
3.479920e+03,0.000000e+00
3.480884e+03,0.000000e+00
3.481849e+03,0.000000e+00
3.482813e+03,0.000000e+00
3.483777e+03,0.000000e+00
3.484741e+03,0.000000e+00
3.485706e+03,0.000000e+00
3.486670e+03,0.000000e+00
3.487634e+03,0.000000e+00
3.488598e+03,0.000000e+00
3.489563e+03,0.000000e+00
3.490527e+03,0.000000e+00
3.491491e+03,0.000000e+00
3.492455e+03,0.000000e+00
3.493419e+03,0.000000e+00
3.494384e+03,0.000000e+00
3.495348e+03,0.000000e+00
3.496312e+03,0.000000e+00
3.497276e+03,0.000000e+00
3.498240e+03,0.000000e+00
3.499205e+03,0.000000e+00
3.500169e+03,0.000000e+00
