9.931763e+01,0.000000e+00
1.002819e+02,0.000000e+00
1.012461e+02,0.000000e+00
1.022103e+02,0.000000e+00
1.031746e+02,0.000000e+00
1.041388e+02,0.000000e+00
1.051030e+02,0.000000e+00
1.060673e+02,0.000000e+00
1.070315e+02,0.000000e+00
1.079957e+02,0.000000e+00
1.089600e+02,0.000000e+00
1.099242e+02,0.000000e+00
1.108884e+02,0.000000e+00
1.118527e+02,0.000000e+00
1.128169e+02,0.000000e+00
1.137811e+02,0.000000e+00
1.147454e+02,0.000000e+00
1.157096e+02,0.000000e+00
1.166738e+02,0.000000e+00
1.176381e+02,0.000000e+00
1.186023e+02,0.000000e+00
1.195665e+02,0.000000e+00
1.205308e+02,0.000000e+00
1.214950e+02,0.000000e+00
1.224592e+02,0.000000e+00
1.234235e+02,0.000000e+00
1.243877e+02,0.000000e+00
1.253519e+02,0.000000e+00
1.263162e+02,0.000000e+00
1.272804e+02,0.000000e+00
1.282446e+02,0.000000e+00
1.292089e+02,0.000000e+00
1.301731e+02,0.000000e+00
1.311373e+02,0.000000e+00
1.321016e+02,0.000000e+00
1.330658e+02,0.000000e+00
1.340300e+02,0.000000e+00
1.349943e+02,0.000000e+00
1.359585e+02,0.000000e+00
1.369227e+02,0.000000e+00
1.378870e+02,0.000000e+00
1.388512e+02,0.000000e+00
1.398154e+02,0.000000e+00
1.407797e+02,0.000000e+00
1.417439e+02,0.000000e+00
1.427081e+02,0.000000e+00
1.436724e+02,0.000000e+00
1.446366e+02,0.000000e+00
1.456008e+02,0.000000e+00
1.465651e+02,0.000000e+00
1.475293e+02,0.000000e+00
1.484935e+02,0.000000e+00
1.494578e+02,0.000000e+00
1.504220e+02,0.000000e+00
1.513862e+02,0.000000e+00
1.523505e+02,0.000000e+00
1.533147e+02,0.000000e+00
1.542789e+02,0.000000e+00
1.552432e+02,0.000000e+00
1.562074e+02,0.000000e+00
1.571716e+02,0.000000e+00
1.581359e+02,0.000000e+00
1.591001e+02,0.000000e+00
1.600643e+02,0.000000e+00
1.610286e+02,0.000000e+00
1.619928e+02,0.000000e+00
1.629570e+02,0.000000e+00
1.639213e+02,0.000000e+00
1.648855e+02,0.000000e+00
1.658497e+02,0.000000e+00
1.668140e+02,0.000000e+00
1.677782e+02,0.000000e+00
1.687424e+02,0.000000e+00
1.697067e+02,0.000000e+00
1.706709e+02,0.000000e+00
1.716351e+02,0.000000e+00
1.725994e+02,0.000000e+00
1.735636e+02,0.000000e+00
1.745278e+02,0.000000e+00
1.754921e+02,0.000000e+00
1.764563e+02,0.000000e+00
1.774205e+02,0.000000e+00
1.783848e+02,0.000000e+00
1.793490e+02,0.000000e+00
1.803132e+02,0.000000e+00
1.812775e+02,0.000000e+00
1.822417e+02,0.000000e+00
1.832059e+02,0.000000e+00
1.841702e+02,0.000000e+00
1.851344e+02,0.000000e+00
1.860986e+02,0.000000e+00
1.870629e+02,0.000000e+00
1.880271e+02,0.000000e+00
1.889913e+02,0.000000e+00
1.899556e+02,0.000000e+00
1.909198e+02,0.000000e+00
1.918840e+02,0.000000e+00
1.928483e+02,0.000000e+00
1.938125e+02,0.000000e+00
1.947767e+02,0.000000e+00
1.957410e+02,0.000000e+00
1.967052e+02,0.000000e+00
1.976694e+02,0.000000e+00
1.986337e+02,0.000000e+00
1.995979e+02,1.046859e+04
2.005621e+02,1.047899e+04
2.015264e+02,1.049079e+04
2.024906e+02,1.050454e+04
2.034548e+02,1.051899e+04
2.044191e+02,1.053224e+04
2.053833e+02,1.054238e+04
2.063475e+02,1.054891e+04
2.073118e+02,1.055225e+04
2.082760e+02,1.055224e+04
2.092402e+02,1.054938e+04
2.102045e+02,1.054570e+04
2.111687e+02,1.054541e+04
2.121329e+02,1.055037e+04
2.130972e+02,1.055960e+04
2.140614e+02,1.057016e+04
2.150256e+02,1.057905e+04
2.159899e+02,1.058554e+04
2.169541e+02,1.059409e+04
2.179183e+02,1.060927e+04
2.188826e+02,1.062861e+04
2.198468e+02,1.064719e+04
2.208110e+02,1.066068e+04
2.217753e+02,1.066783e+04
2.227395e+02,1.067127e+04
2.237037e+02,1.067604e+04
2.246680e+02,1.068145e+04
2.256322e+02,1.068439e+04
2.265964e+02,1.068651e+04
2.275607e+02,1.069096e+04
2.285249e+02,1.070022e+04
2.294892e+02,1.071479e+04
2.304534e+02,1.073305e+04
2.314176e+02,1.074982e+04
2.323819e+02,1.076347e+04
2.333461e+02,1.077549e+04
2.343103e+02,1.078751e+04
2.352746e+02,1.080069e+04
2.362388e+02,1.081502e+04
2.372030e+02,1.082880e+04
2.381673e+02,1.083713e+04
2.391315e+02,1.083825e+04
2.400957e+02,1.083538e+04
2.410600e+02,1.083247e+04
2.420242e+02,1.083296e+04
2.429884e+02,1.083891e+04
2.439527e+02,1.084990e+04
2.449169e+02,1.086246e+04
2.458811e+02,1.087470e+04
2.468454e+02,1.088676e+04
2.478096e+02,1.089886e+04
2.487738e+02,1.091097e+04
2.497381e+02,1.092278e+04
2.507023e+02,1.093442e+04
2.516665e+02,1.094651e+04
2.526308e+02,1.095922e+04
2.535950e+02,1.096938e+04
2.545592e+02,1.097427e+04
2.555235e+02,1.097428e+04
2.564877e+02,1.097211e+04
2.574519e+02,1.097160e+04
2.584161e+02,1.097618e+04
2.593804e+02,1.098723e+04
2.603446e+02,1.100238e+04
2.613088e+02,1.101875e+04
2.622731e+02,1.103583e+04
2.632373e+02,1.105416e+04
2.642015e+02,1.107090e+04
2.651658e+02,1.108332e+04
2.661300e+02,1.109110e+04
2.670942e+02,1.109680e+04
2.680585e+02,1.110445e+04
2.690227e+02,1.111790e+04
2.699869e+02,1.113129e+04
2.709512e+02,1.113913e+04
2.719154e+02,1.114167e+04
2.728796e+02,1.114345e+04
2.738439e+02,1.115004e+04
2.748081e+02,1.116466e+04
2.757723e+02,1.118588e+04
2.767366e+02,1.120534e+04
2.777008e+02,1.121882e+04
2.786650e+02,1.122837e+04
2.796293e+02,1.123697e+04
2.805935e+02,1.124653e+04
2.815577e+02,1.125757e+04
2.825220e+02,1.126952e+04
2.834862e+02,1.127953e+04
2.844504e+02,1.128443e+04
2.854147e+02,1.128549e+04
2.863789e+02,1.128597e+04
2.873431e+02,1.128894e+04
2.883074e+02,1.129591e+04
2.892716e+02,1.130600e+04
2.902358e+02,1.131662e+04
2.912001e+02,1.132633e+04
2.921643e+02,1.133533e+04
2.931285e+02,1.134527e+04
2.940928e+02,1.135784e+04
2.950570e+02,1.137356e+04
2.960212e+02,1.138987e+04
2.969855e+02,1.140305e+04
2.979497e+02,1.141098e+04
2.989139e+02,1.141438e+04
2.998782e+02,1.141717e+04
3.008424e+02,1.142344e+04
3.018066e+02,1.143403e+04
3.027709e+02,1.144610e+04
3.037351e+02,1.145705e+04
3.046993e+02,1.146588e+04
3.056636e+02,1.147319e+04
3.066278e+02,1.148031e+04
3.075920e+02,1.148845e+04
3.085563e+02,1.149784e+04
3.095205e+02,1.151074e+04
3.104847e+02,1.152735e+04
3.114490e+02,1.154598e+04
3.124132e+02,1.156385e+04
3.133774e+02,1.157835e+04
3.143417e+02,1.158805e+04
3.153059e+02,1.159234e+04
3.162701e+02,1.159458e+04
3.172344e+02,1.159775e+04
3.181986e+02,1.160213e+04
3.191628e+02,1.160775e+04
3.201271e+02,1.161553e+04
3.210913e+02,1.162635e+04
3.220555e+02,1.163998e+04
3.230198e+02,1.165529e+04
3.239840e+02,1.167046e+04
3.249482e+02,1.168473e+04
3.259125e+02,1.169813e+04
3.268767e+02,1.171094e+04
3.278409e+02,1.172350e+04
3.288052e+02,1.173584e+04
3.297694e+02,1.174778e+04
3.307336e+02,1.175910e+04
3.316979e+02,1.176952e+04
3.326621e+02,1.177852e+04
3.336263e+02,1.178434e+04
3.345906e+02,1.178687e+04
3.355548e+02,1.178939e+04
3.365190e+02,1.179563e+04
3.374833e+02,1.180779e+04
3.384475e+02,1.182529e+04
3.394117e+02,1.184454e+04
3.403760e+02,1.186007e+04
3.413402e+02,1.187361e+04
3.423044e+02,1.188976e+04
3.432687e+02,1.190984e+04
3.442329e+02,1.193135e+04
3.451971e+02,1.195046e+04
3.461614e+02,1.196400e+04
3.471256e+02,1.197089e+04
3.480898e+02,1.197444e+04
3.490541e+02,1.197739e+04
3.500183e+02,1.198121e+04
3.509825e+02,1.198815e+04
3.519468e+02,1.200037e+04
3.529110e+02,1.201790e+04
3.538752e+02,1.203829e+04
3.548395e+02,1.205800e+04
3.558037e+02,1.207447e+04
3.567680e+02,1.208699e+04
3.577322e+02,1.209795e+04
3.586964e+02,1.211051e+04
3.596607e+02,1.212620e+04
3.606249e+02,1.214341e+04
3.615891e+02,1.215780e+04
3.625534e+02,1.216527e+04
3.635176e+02,1.216466e+04
3.644818e+02,1.215821e+04
3.654461e+02,1.215099e+04
3.664103e+02,1.214960e+04
3.673745e+02,1.215877e+04
3.683388e+02,1.217619e+04
3.693030e+02,1.219771e+04
3.702672e+02,1.221946e+04
3.712315e+02,1.223918e+04
3.721957e+02,1.225563e+04
3.731599e+02,1.226698e+04
3.741242e+02,1.227458e+04
3.750884e+02,1.228302e+04
3.760526e+02,1.229528e+04
3.770169e+02,1.231110e+04
3.779811e+02,1.232801e+04
3.789453e+02,1.234281e+04
3.799096e+02,1.235298e+04
3.808738e+02,1.235846e+04
3.818380e+02,1.236224e+04
3.828023e+02,1.236815e+04
3.837665e+02,1.237881e+04
3.847307e+02,1.239287e+04
3.856950e+02,1.240989e+04
3.866592e+02,1.242848e+04
3.876234e+02,1.244761e+04
3.885877e+02,1.246675e+04
3.895519e+02,1.248543e+04
3.905161e+02,1.250278e+04
3.914804e+02,1.251700e+04
3.924446e+02,1.252715e+04
3.934088e+02,1.253564e+04
3.943731e+02,1.254452e+04
3.953373e+02,1.255466e+04
3.963015e+02,1.256439e+04
3.972658e+02,1.257093e+04
3.982300e+02,1.257443e+04
3.991942e+02,1.258055e+04
4.001585e+02,1.259455e+04
4.011227e+02,1.261609e+04
4.020869e+02,1.263715e+04
4.030512e+02,1.265127e+04
4.040154e+02,1.265985e+04
4.049796e+02,1.266933e+04
4.059439e+02,1.268371e+04
4.069081e+02,1.270130e+04
4.078723e+02,1.271668e+04
4.088366e+02,1.272614e+04
4.098008e+02,1.273023e+04
4.107650e+02,1.273561e+04
4.117293e+02,1.274362e+04
4.126935e+02,1.275271e+04
4.136577e+02,1.276200e+04
4.146220e+02,1.277177e+04
4.155862e+02,1.278326e+04
4.165504e+02,1.279730e+04
4.175147e+02,1.281287e+04
4.184789e+02,1.282759e+04
4.194431e+02,1.284003e+04
4.204074e+02,1.285215e+04
4.213716e+02,1.286464e+04
4.223358e+02,1.287621e+04
4.233001e+02,1.288550e+04
4.242643e+02,1.289267e+04
4.252285e+02,1.289939e+04
4.261928e+02,1.290769e+04
4.271570e+02,1.291855e+04
4.281212e+02,1.293182e+04
4.290855e+02,1.294545e+04
4.300497e+02,1.295850e+04
4.310139e+02,1.297158e+04
4.319782e+02,1.298619e+04
4.329424e+02,1.300354e+04
4.339066e+02,1.302364e+04
4.348709e+02,1.304495e+04
4.358351e+02,1.306480e+04
4.367993e+02,1.308134e+04
4.377636e+02,1.309429e+04
4.387278e+02,1.310652e+04
4.396920e+02,1.312006e+04
4.406563e+02,1.313490e+04
4.416205e+02,1.314966e+04
4.425847e+02,1.316324e+04
4.435490e+02,1.317557e+04
4.445132e+02,1.318748e+04
4.454774e+02,1.320042e+04
4.464417e+02,1.321596e+04
4.474059e+02,1.323416e+04
4.483701e+02,1.325091e+04
4.493344e+02,1.326363e+04
4.502986e+02,1.327334e+04
4.512628e+02,1.328284e+04
4.522271e+02,1.329423e+04
4.531913e+02,1.330689e+04
4.541555e+02,1.331768e+04
4.551198e+02,1.332356e+04
4.560840e+02,1.332512e+04
4.570482e+02,1.332654e+04
4.580125e+02,1.333318e+04
4.589767e+02,1.334593e+04
4.599409e+02,1.336216e+04
4.609052e+02,1.337746e+04
4.618694e+02,1.338930e+04
4.628336e+02,1.339735e+04
4.637979e+02,1.340270e+04
4.647621e+02,1.340741e+04
4.657263e+02,1.341443e+04
4.666906e+02,1.342675e+04
4.676548e+02,1.344180e+04
4.686190e+02,1.345768e+04
4.695833e+02,1.347341e+04
4.705475e+02,1.348829e+04
4.715117e+02,1.350109e+04
4.724760e+02,1.351124e+04
4.734402e+02,1.351942e+04
4.744044e+02,1.352678e+04
4.753687e+02,1.353445e+04
4.763329e+02,1.354258e+04
4.772971e+02,1.355153e+04
4.782614e+02,1.356081e+04
4.792256e+02,1.357204e+04
4.801898e+02,1.358610e+04
4.811541e+02,1.360224e+04
4.821183e+02,1.361886e+04
4.830826e+02,1.363440e+04
4.840468e+02,1.364769e+04
4.850110e+02,1.365889e+04
4.859753e+02,1.367004e+04
4.869395e+02,1.368037e+04
4.879037e+02,1.368901e+04
4.888680e+02,1.369692e+04
4.898322e+02,1.370541e+04
4.907964e+02,1.371615e+04
4.917607e+02,1.372968e+04
4.927249e+02,1.374474e+04
4.936891e+02,1.375957e+04
4.946534e+02,1.377370e+04
4.956176e+02,1.378795e+04
4.965818e+02,1.380321e+04
4.975461e+02,1.381916e+04
4.985103e+02,1.383418e+04
4.994745e+02,1.384584e+04
5.004388e+02,1.385290e+04
5.014030e+02,1.385629e+04
5.023672e+02,1.385923e+04
5.033315e+02,1.386527e+04
5.042957e+02,1.387491e+04
5.052599e+02,1.388447e+04
5.062242e+02,1.388961e+04
5.071884e+02,1.389021e+04
5.081526e+02,1.389232e+04
5.091169e+02,1.390051e+04
5.100811e+02,1.391298e+04
5.110453e+02,1.392463e+04
5.120095e+02,1.393467e+04
5.129738e+02,1.394550e+04
5.139380e+02,1.395968e+04
5.149022e+02,1.397764e+04
5.158665e+02,1.399692e+04
5.168307e+02,1.401252e+04
5.177949e+02,1.401752e+04
5.187592e+02,1.401215e+04
5.197234e+02,1.400439e+04
5.206876e+02,1.400142e+04
5.216519e+02,1.400737e+04
5.226161e+02,1.402164e+04
5.235803e+02,1.403889e+04
5.245446e+02,1.405473e+04
5.255088e+02,1.406921e+04
5.264730e+02,1.408461e+04
5.274373e+02,1.410203e+04
5.284015e+02,1.411790e+04
5.293657e+02,1.412586e+04
5.303300e+02,1.412631e+04
5.312942e+02,1.412336e+04
5.322584e+02,1.412188e+04
5.332227e+02,1.412495e+04
5.341869e+02,1.413169e+04
5.351511e+02,1.413944e+04
5.361154e+02,1.414645e+04
5.370796e+02,1.415291e+04
5.380438e+02,1.416028e+04
5.390081e+02,1.416972e+04
5.399723e+02,1.418258e+04
5.409365e+02,1.419972e+04
5.419008e+02,1.421837e+04
5.428650e+02,1.423512e+04
5.438292e+02,1.424914e+04
5.447935e+02,1.426084e+04
5.457577e+02,1.427024e+04
5.467219e+02,1.427744e+04
5.476862e+02,1.428283e+04
5.486504e+02,1.428602e+04
5.496146e+02,1.428712e+04
5.505789e+02,1.428556e+04
5.515431e+02,1.428105e+04
5.525073e+02,1.427589e+04
5.534716e+02,1.427678e+04
5.544358e+02,1.428603e+04
5.554000e+02,1.430187e+04
5.563643e+02,1.431946e+04
5.573285e+02,1.433410e+04
5.582927e+02,1.434465e+04
5.592570e+02,1.435454e+04
5.602212e+02,1.436831e+04
5.611854e+02,1.438469e+04
5.621497e+02,1.439837e+04
5.631139e+02,1.440438e+04
5.640781e+02,1.440477e+04
5.650424e+02,1.440425e+04
5.660066e+02,1.440390e+04
5.669708e+02,1.440288e+04
5.679351e+02,1.440188e+04
5.688993e+02,1.440255e+04
5.698635e+02,1.440641e+04
5.708278e+02,1.441501e+04
5.717920e+02,1.442932e+04
5.727562e+02,1.444722e+04
5.737205e+02,1.446632e+04
5.746847e+02,1.448466e+04
5.756489e+02,1.450103e+04
5.766132e+02,1.451403e+04
5.775774e+02,1.452408e+04
5.785416e+02,1.453186e+04
5.795059e+02,1.453861e+04
5.804701e+02,1.454531e+04
5.814343e+02,1.455171e+04
5.823986e+02,1.455699e+04
5.833628e+02,1.456158e+04
5.843270e+02,1.456737e+04
5.852913e+02,1.457575e+04
5.862555e+02,1.458747e+04
5.872197e+02,1.460104e+04
5.881840e+02,1.461467e+04
5.891482e+02,1.462818e+04
5.901124e+02,1.464227e+04
5.910767e+02,1.465716e+04
5.920409e+02,1.467230e+04
5.930051e+02,1.468665e+04
5.939694e+02,1.469887e+04
5.949336e+02,1.470733e+04
5.958978e+02,1.471169e+04
5.968621e+02,1.471280e+04
5.978263e+02,1.471375e+04
5.987905e+02,1.471770e+04
5.997548e+02,1.472232e+04
6.007190e+02,1.472731e+04
6.016832e+02,1.473586e+04
6.026475e+02,1.474915e+04
6.036117e+02,1.476569e+04
6.045759e+02,1.478200e+04
6.055402e+02,1.479449e+04
6.065044e+02,1.480126e+04
6.074686e+02,1.480325e+04
6.084329e+02,1.480358e+04
6.093971e+02,1.480355e+04
6.103613e+02,1.480231e+04
6.113256e+02,1.479925e+04
6.122899e+02,1.479717e+04
6.132541e+02,1.479716e+04
6.142183e+02,1.479783e+04
6.151826e+02,1.479785e+04
6.161468e+02,1.479876e+04
6.171110e+02,1.480373e+04
6.180753e+02,1.481446e+04
6.190395e+02,1.482914e+04
6.200037e+02,1.484330e+04
6.209680e+02,1.485351e+04
6.219322e+02,1.486203e+04
6.228964e+02,1.487319e+04
6.238607e+02,1.488781e+04
6.248249e+02,1.490167e+04
6.257891e+02,1.490916e+04
6.267534e+02,1.490815e+04
6.277176e+02,1.490325e+04
6.286818e+02,1.490022e+04
6.296461e+02,1.490030e+04
6.306103e+02,1.490267e+04
6.315745e+02,1.490827e+04
6.325388e+02,1.491866e+04
6.335030e+02,1.493294e+04
6.344672e+02,1.494896e+04
6.354315e+02,1.496447e+04
6.363957e+02,1.497669e+04
6.373599e+02,1.498388e+04
6.383242e+02,1.498865e+04
6.392884e+02,1.499300e+04
6.402526e+02,1.499741e+04
6.412169e+02,1.500162e+04
6.421811e+02,1.500515e+04
6.431453e+02,1.500741e+04
6.441096e+02,1.500828e+04
6.450738e+02,1.500878e+04
6.460380e+02,1.501156e+04
6.470023e+02,1.501978e+04
6.479665e+02,1.503418e+04
6.489307e+02,1.505279e+04
6.498950e+02,1.507186e+04
6.508592e+02,1.508711e+04
6.518234e+02,1.509670e+04
6.527877e+02,1.510229e+04
6.537519e+02,1.510528e+04
6.547161e+02,1.510578e+04
6.556804e+02,1.510314e+04
6.566446e+02,1.509850e+04
6.576088e+02,1.509450e+04
6.585731e+02,1.509309e+04
6.595373e+02,1.509394e+04
6.605015e+02,1.509527e+04
6.614658e+02,1.509669e+04
6.624300e+02,1.510019e+04
6.633942e+02,1.510781e+04
6.643585e+02,1.511969e+04
6.653227e+02,1.513325e+04
6.662869e+02,1.514584e+04
6.672512e+02,1.515753e+04
6.682154e+02,1.516968e+04
6.691796e+02,1.518046e+04
6.701439e+02,1.518706e+04
6.711081e+02,1.518767e+04
6.720723e+02,1.518342e+04
6.730366e+02,1.517777e+04
6.740008e+02,1.517299e+04
6.749650e+02,1.516799e+04
6.759293e+02,1.516123e+04
6.768935e+02,1.515377e+04
6.778577e+02,1.514799e+04
6.788220e+02,1.514685e+04
6.797862e+02,1.515396e+04
6.807504e+02,1.516651e+04
6.817147e+02,1.518098e+04
6.826789e+02,1.519477e+04
6.836431e+02,1.520496e+04
6.846074e+02,1.520882e+04
6.855716e+02,1.520685e+04
6.865358e+02,1.520200e+04
6.875001e+02,1.519723e+04
6.884643e+02,1.519435e+04
6.894285e+02,1.519395e+04
6.903928e+02,1.519585e+04
6.913570e+02,1.519913e+04
6.923212e+02,1.520169e+04
6.932855e+02,1.520305e+04
6.942497e+02,1.520613e+04
6.952139e+02,1.521573e+04
6.961782e+02,1.523167e+04
6.971424e+02,1.525063e+04
6.981066e+02,1.526848e+04
6.990709e+02,1.527872e+04
7.000351e+02,1.527894e+04
7.009993e+02,1.527256e+04
7.019636e+02,1.526598e+04
7.029278e+02,1.526507e+04
7.038920e+02,1.526983e+04
7.048563e+02,1.527234e+04
7.058205e+02,1.526598e+04
7.067847e+02,1.525350e+04
7.077490e+02,1.524436e+04
7.087132e+02,1.524658e+04
7.096774e+02,1.525943e+04
7.106417e+02,1.526992e+04
7.116059e+02,1.527464e+04
7.125701e+02,1.527661e+04
7.135344e+02,1.527907e+04
7.144986e+02,1.528337e+04
7.154628e+02,1.528766e+04
7.164271e+02,1.529003e+04
7.173913e+02,1.529049e+04
7.183555e+02,1.529058e+04
7.193198e+02,1.528893e+04
7.202840e+02,1.528019e+04
7.212482e+02,1.526420e+04
7.222125e+02,1.525024e+04
7.231767e+02,1.524625e+04
7.241409e+02,1.525324e+04
7.251052e+02,1.525485e+04
7.260694e+02,1.524639e+04
7.270336e+02,1.523472e+04
7.279979e+02,1.522814e+04
7.289621e+02,1.522711e+04
7.299263e+02,1.522122e+04
7.308906e+02,1.519859e+04
7.318548e+02,1.516998e+04
7.328190e+02,1.515042e+04
7.337833e+02,1.514098e+04
7.347475e+02,1.513133e+04
7.357117e+02,1.511352e+04
7.366760e+02,1.509091e+04
7.376402e+02,1.507202e+04
7.386044e+02,1.505883e+04
7.395687e+02,1.504702e+04
7.405329e+02,1.503040e+04
7.414971e+02,1.500742e+04
7.424614e+02,1.498156e+04
7.434256e+02,1.495665e+04
7.443898e+02,1.494099e+04
7.453541e+02,1.493174e+04
7.463183e+02,1.492167e+04
7.472825e+02,1.491204e+04
7.482468e+02,1.491755e+04
7.492110e+02,1.491790e+04
7.501752e+02,1.489250e+04
7.511395e+02,1.484872e+04
7.521037e+02,1.480562e+04
7.530679e+02,1.477134e+04
7.540322e+02,1.474195e+04
7.549964e+02,1.471701e+04
7.559606e+02,1.469865e+04
7.569249e+02,1.469035e+04
7.578891e+02,1.469925e+04
7.588533e+02,1.472877e+04
7.598176e+02,1.474154e+04
7.607818e+02,1.470879e+04
7.617460e+02,1.466471e+04
7.627103e+02,1.462256e+04
7.636745e+02,1.458924e+04
7.646387e+02,1.456574e+04
7.656030e+02,1.455326e+04
7.665672e+02,1.454882e+04
7.675314e+02,1.454697e+04
7.684957e+02,1.453821e+04
7.694599e+02,1.451778e+04
7.704241e+02,1.449023e+04
7.713884e+02,1.446211e+04
7.723526e+02,1.443726e+04
7.733168e+02,1.441866e+04
7.742811e+02,1.440840e+04
7.752453e+02,1.440017e+04
7.762095e+02,1.438957e+04
7.771738e+02,1.437963e+04
7.781380e+02,1.436644e+04
7.791022e+02,1.434750e+04
7.800665e+02,1.432972e+04
7.810307e+02,1.431135e+04
7.819949e+02,1.428774e+04
7.829592e+02,1.425425e+04
7.839234e+02,1.422846e+04
7.848876e+02,1.422114e+04
7.858519e+02,1.422208e+04
7.868161e+02,1.421667e+04
7.877803e+02,1.419807e+04
7.887446e+02,1.417247e+04
7.897088e+02,1.415180e+04
7.906730e+02,1.414021e+04
7.916373e+02,1.413110e+04
7.926015e+02,1.411428e+04
7.935657e+02,1.408860e+04
7.945300e+02,1.407231e+04
7.954942e+02,1.408240e+04
7.964584e+02,1.407273e+04
7.974227e+02,1.403363e+04
7.983869e+02,1.399595e+04
7.993511e+02,1.398102e+04
8.003154e+02,1.399396e+04
8.012796e+02,1.399351e+04
8.022438e+02,1.397044e+04
8.032081e+02,1.394398e+04
8.041723e+02,1.393017e+04
8.051365e+02,1.393080e+04
8.061008e+02,1.393218e+04
8.070650e+02,1.392099e+04
8.080292e+02,1.389984e+04
8.089935e+02,1.388113e+04
8.099577e+02,1.387024e+04
8.109219e+02,1.385989e+04
8.118862e+02,1.383824e+04
8.128504e+02,1.380566e+04
8.138146e+02,1.377706e+04
8.147789e+02,1.375173e+04
8.157431e+02,1.372596e+04
8.167073e+02,1.369979e+04
8.176716e+02,1.368008e+04
8.186358e+02,1.366387e+04
8.196000e+02,1.364449e+04
8.205643e+02,1.363304e+04
8.215285e+02,1.363393e+04
8.224927e+02,1.364374e+04
8.234570e+02,1.364288e+04
8.244212e+02,1.361521e+04
8.253854e+02,1.358629e+04
8.263497e+02,1.357068e+04
8.273139e+02,1.356162e+04
8.282781e+02,1.354767e+04
8.292424e+02,1.352413e+04
8.302066e+02,1.350234e+04
8.311708e+02,1.349562e+04
8.321351e+02,1.350141e+04
8.330993e+02,1.350753e+04
8.340635e+02,1.350574e+04
8.350278e+02,1.349594e+04
8.359920e+02,1.348077e+04
8.369562e+02,1.345952e+04
8.379205e+02,1.343937e+04
8.388847e+02,1.342336e+04
8.398489e+02,1.341003e+04
8.408132e+02,1.339299e+04
8.417774e+02,1.336313e+04
8.427416e+02,1.333806e+04
8.437059e+02,1.331774e+04
8.446701e+02,1.330413e+04
8.456343e+02,1.330258e+04
8.465986e+02,1.332507e+04
8.475628e+02,1.333355e+04
8.485270e+02,1.330719e+04
8.494913e+02,1.326447e+04
8.504555e+02,1.322211e+04
8.514197e+02,1.318533e+04
8.523840e+02,1.316145e+04
8.533482e+02,1.316133e+04
8.543124e+02,1.317266e+04
8.552767e+02,1.317633e+04
8.562409e+02,1.316844e+04
8.572051e+02,1.315083e+04
8.581694e+02,1.312280e+04
8.591336e+02,1.308802e+04
8.600978e+02,1.307295e+04
8.610621e+02,1.308493e+04
8.620263e+02,1.309932e+04
8.629905e+02,1.309393e+04
8.639548e+02,1.306290e+04
8.649190e+02,1.303106e+04
8.658832e+02,1.299988e+04
8.668475e+02,1.297863e+04
8.678117e+02,1.297553e+04
8.687759e+02,1.298556e+04
8.697402e+02,1.299154e+04
8.707044e+02,1.298679e+04
8.716686e+02,1.296997e+04
8.726329e+02,1.294327e+04
8.735971e+02,1.291364e+04
8.745613e+02,1.288821e+04
8.755256e+02,1.287815e+04
8.764898e+02,1.287135e+04
8.774540e+02,1.285208e+04
8.784183e+02,1.282689e+04
8.793825e+02,1.281053e+04
8.803467e+02,1.280979e+04
8.813110e+02,1.281201e+04
8.822752e+02,1.280326e+04
8.832394e+02,1.278838e+04
8.842037e+02,1.277259e+04
8.851679e+02,1.275296e+04
8.861321e+02,1.273605e+04
8.870964e+02,1.274019e+04
8.880606e+02,1.276654e+04
8.890248e+02,1.276769e+04
8.899891e+02,1.273852e+04
8.909533e+02,1.270238e+04
8.919175e+02,1.267840e+04
8.928818e+02,1.267006e+04
8.938460e+02,1.265615e+04
8.948102e+02,1.262577e+04
8.957745e+02,1.259515e+04
8.967387e+02,1.257586e+04
8.977029e+02,1.256456e+04
8.986672e+02,1.255140e+04
8.996314e+02,1.254245e+04
9.005956e+02,1.253852e+04
9.015599e+02,1.254080e+04
9.025241e+02,1.254447e+04
9.034883e+02,1.254199e+04
9.044526e+02,1.252818e+04
9.054168e+02,1.250356e+04
9.063810e+02,1.247083e+04
9.073453e+02,1.244127e+04
9.083095e+02,1.242416e+04
9.092737e+02,1.242133e+04
9.102380e+02,1.242075e+04
9.112022e+02,1.240965e+04
9.121664e+02,1.239123e+04
9.131307e+02,1.237774e+04
9.140949e+02,1.237726e+04
9.150591e+02,1.238437e+04
9.160234e+02,1.238232e+04
9.169876e+02,1.236574e+04
9.179518e+02,1.234403e+04
9.189161e+02,1.231851e+04
9.198803e+02,1.229164e+04
9.208445e+02,1.227086e+04
9.218088e+02,1.226156e+04
9.227730e+02,1.224681e+04
9.237372e+02,1.221858e+04
9.247015e+02,1.219331e+04
9.256657e+02,1.218334e+04
9.266299e+02,1.218845e+04
9.275942e+02,1.219121e+04
9.285584e+02,1.218768e+04
9.295226e+02,1.218105e+04
9.304869e+02,1.217550e+04
9.314511e+02,1.217130e+04
9.324153e+02,1.216299e+04
9.333796e+02,1.214100e+04
9.343438e+02,1.212452e+04
9.353080e+02,1.212076e+04
9.362723e+02,1.211895e+04
9.372365e+02,1.210978e+04
9.382007e+02,1.209903e+04
9.391650e+02,1.208422e+04
9.401292e+02,1.205444e+04
9.410934e+02,1.202266e+04
9.420577e+02,1.200270e+04
9.430219e+02,1.199752e+04
9.439861e+02,1.199269e+04
9.449504e+02,1.197772e+04
9.459146e+02,1.196626e+04
9.468788e+02,1.197421e+04
9.478431e+02,1.199444e+04
9.488073e+02,1.200307e+04
9.497715e+02,1.198050e+04
9.507358e+02,1.194080e+04
9.517000e+02,1.191298e+04
9.526642e+02,1.190039e+04
9.536285e+02,1.188995e+04
9.545927e+02,1.186911e+04
9.555569e+02,1.184303e+04
9.565212e+02,1.183221e+04
9.574854e+02,1.184113e+04
9.584496e+02,1.185259e+04
9.594139e+02,1.185535e+04
9.603781e+02,1.184843e+04
9.613423e+02,1.183619e+04
9.623066e+02,1.181694e+04
9.632708e+02,1.180497e+04
9.642350e+02,1.181003e+04
9.651993e+02,1.182050e+04
9.661635e+02,1.181458e+04
9.671277e+02,1.177685e+04
9.680920e+02,1.175021e+04
9.690562e+02,1.174130e+04
9.700204e+02,1.173513e+04
9.709847e+02,1.172467e+04
9.719489e+02,1.171279e+04
9.729131e+02,1.170088e+04
9.738774e+02,1.168857e+04
9.748416e+02,1.168238e+04
9.758058e+02,1.168098e+04
9.767701e+02,1.168091e+04
9.777343e+02,1.168225e+04
9.786985e+02,1.169163e+04
9.796628e+02,1.169219e+04
9.806270e+02,1.167627e+04
9.815912e+02,1.164974e+04
9.825555e+02,1.162309e+04
9.835197e+02,1.160340e+04
9.844839e+02,1.158833e+04
9.854482e+02,1.157994e+04
9.864124e+02,1.157622e+04
9.873766e+02,1.157233e+04
9.883409e+02,1.156836e+04
9.893051e+02,1.156328e+04
9.902693e+02,1.155284e+04
9.912336e+02,1.154408e+04
9.921978e+02,1.154128e+04
9.931620e+02,1.154127e+04
9.941263e+02,1.154004e+04
9.950905e+02,1.153688e+04
9.960547e+02,1.153249e+04
9.970190e+02,1.152821e+04
9.979832e+02,1.152195e+04
9.989474e+02,1.151017e+04
9.999117e+02,1.149485e+04
1.000876e+03,1.147762e+04
1.001840e+03,1.145672e+04
1.002804e+03,1.143644e+04
1.003769e+03,1.142075e+04
1.004733e+03,1.140707e+04
1.005697e+03,1.139917e+04
1.006661e+03,1.141099e+04
1.007626e+03,1.143778e+04
1.008590e+03,1.145333e+04
1.009554e+03,1.145010e+04
1.010518e+03,1.143619e+04
1.011482e+03,1.142496e+04
1.012447e+03,1.141470e+04
1.013411e+03,1.139001e+04
1.014375e+03,1.135456e+04
1.015339e+03,1.132607e+04
1.016304e+03,1.131401e+04
1.017268e+03,1.131491e+04
1.018232e+03,1.131666e+04
1.019196e+03,1.131841e+04
1.020161e+03,1.131468e+04
1.021125e+03,1.130406e+04
1.022089e+03,1.129303e+04
1.023053e+03,1.129171e+04
1.024018e+03,1.129896e+04
1.024982e+03,1.129915e+04
1.025946e+03,1.128468e+04
1.026910e+03,1.126198e+04
1.027875e+03,1.124659e+04
1.028839e+03,1.124757e+04
1.029803e+03,1.124486e+04
1.030767e+03,1.123525e+04
1.031731e+03,1.122869e+04
1.032696e+03,1.123171e+04
1.033660e+03,1.124390e+04
1.034624e+03,1.124676e+04
1.035588e+03,1.123811e+04
1.036552e+03,1.123220e+04
1.037517e+03,1.123387e+04
1.038481e+03,1.123701e+04
1.039445e+03,1.123033e+04
1.040409e+03,1.120782e+04
1.041374e+03,1.118639e+04
1.042338e+03,1.117132e+04
1.043302e+03,1.116206e+04
1.044266e+03,1.115519e+04
1.045231e+03,1.115162e+04
1.046195e+03,1.114576e+04
1.047159e+03,1.114273e+04
1.048123e+03,1.113764e+04
1.049088e+03,1.112422e+04
1.050052e+03,1.110345e+04
1.051016e+03,1.109575e+04
1.051980e+03,1.111051e+04
1.052945e+03,1.112599e+04
1.053909e+03,1.113014e+04
1.054873e+03,1.112025e+04
1.055837e+03,1.110615e+04
1.056802e+03,1.109111e+04
1.057766e+03,1.107647e+04
1.058730e+03,1.106368e+04
1.059694e+03,1.105350e+04
1.060658e+03,1.104461e+04
1.061623e+03,1.103741e+04
1.062587e+03,1.103638e+04
1.063551e+03,1.105347e+04
1.064515e+03,1.106926e+04
1.065479e+03,1.106513e+04
1.066444e+03,1.104061e+04
1.067408e+03,1.102378e+04
1.068372e+03,1.102413e+04
1.069336e+03,1.102726e+04
1.070301e+03,1.102217e+04
1.071265e+03,1.100808e+04
1.072229e+03,1.099306e+04
1.073193e+03,1.097656e+04
1.074158e+03,1.096104e+04
1.075122e+03,1.094647e+04
1.076086e+03,1.093401e+04
1.077050e+03,1.092808e+04
1.078015e+03,1.094031e+04
1.078979e+03,1.095104e+04
1.079943e+03,1.095178e+04
1.080907e+03,1.094960e+04
1.081872e+03,1.094515e+04
1.082836e+03,1.093568e+04
1.083800e+03,1.092677e+04
1.084764e+03,1.092248e+04
1.085729e+03,1.092181e+04
1.086693e+03,1.092467e+04
1.087657e+03,1.092835e+04
1.088621e+03,1.092905e+04
1.089585e+03,1.092050e+04
1.090550e+03,1.091045e+04
1.091514e+03,1.091127e+04
1.092478e+03,1.091485e+04
1.093442e+03,1.090872e+04
1.094406e+03,1.088701e+04
1.095371e+03,1.087194e+04
1.096335e+03,1.086842e+04
1.097299e+03,1.086815e+04
1.098263e+03,1.086547e+04
1.099228e+03,1.085922e+04
1.100192e+03,1.085636e+04
1.101156e+03,1.086342e+04
1.102120e+03,1.086634e+04
1.103085e+03,1.086137e+04
1.104049e+03,1.084964e+04
1.105013e+03,1.083356e+04
1.105977e+03,1.081055e+04
1.106942e+03,1.078896e+04
1.107906e+03,1.076683e+04
1.108870e+03,1.074986e+04
1.109834e+03,1.074451e+04
1.110799e+03,1.075520e+04
1.111763e+03,1.076208e+04
1.112727e+03,1.075943e+04
1.113691e+03,1.075923e+04
1.114656e+03,1.076682e+04
1.115620e+03,1.078110e+04
1.116584e+03,1.079379e+04
1.117548e+03,1.079860e+04
1.118512e+03,1.079960e+04
1.119477e+03,1.080014e+04
1.120441e+03,1.079767e+04
1.121405e+03,1.078972e+04
1.122369e+03,1.077281e+04
1.123334e+03,1.075664e+04
1.124298e+03,1.074346e+04
1.125262e+03,1.073270e+04
1.126226e+03,1.072321e+04
1.127191e+03,1.071500e+04
1.128155e+03,1.071613e+04
1.129119e+03,1.072992e+04
1.130083e+03,1.074335e+04
1.131047e+03,1.075164e+04
1.132012e+03,1.075294e+04
1.132976e+03,1.074938e+04
1.133940e+03,1.074227e+04
1.134904e+03,1.072550e+04
1.135869e+03,1.069442e+04
1.136833e+03,1.066398e+04
1.137797e+03,1.065181e+04
1.138761e+03,1.066791e+04
1.139726e+03,1.067722e+04
1.140690e+03,1.067531e+04
1.141654e+03,1.067072e+04
1.142618e+03,1.066550e+04
1.143583e+03,1.066150e+04
1.144547e+03,1.067217e+04
1.145511e+03,1.070562e+04
1.146475e+03,1.071904e+04
1.147439e+03,1.069375e+04
1.148404e+03,1.065263e+04
1.149368e+03,1.063298e+04
1.150332e+03,1.063540e+04
1.151296e+03,1.063994e+04
1.152261e+03,1.063992e+04
1.153225e+03,1.063536e+04
1.154189e+03,1.063583e+04
1.155153e+03,1.064382e+04
1.156118e+03,1.064277e+04
1.157082e+03,1.063590e+04
1.158046e+03,1.063085e+04
1.159010e+03,1.062667e+04
1.159974e+03,1.062372e+04
1.160939e+03,1.062377e+04
1.161903e+03,1.062437e+04
1.162867e+03,1.062419e+04
1.163831e+03,1.062238e+04
1.164796e+03,1.061892e+04
1.165760e+03,1.061679e+04
1.166724e+03,1.061706e+04
1.167688e+03,1.062019e+04
1.168653e+03,1.062535e+04
1.169617e+03,1.062606e+04
1.170581e+03,1.061899e+04
1.171545e+03,1.060779e+04
1.172510e+03,1.059393e+04
1.173474e+03,1.058045e+04
1.174438e+03,1.057088e+04
1.175402e+03,1.056454e+04
1.176366e+03,1.056324e+04
1.177331e+03,1.057501e+04
1.178295e+03,1.059147e+04
1.179259e+03,1.059902e+04
1.180223e+03,1.059583e+04
1.181188e+03,1.059174e+04
1.182152e+03,1.059822e+04
1.183116e+03,1.060126e+04
1.184080e+03,1.059087e+04
1.185045e+03,1.057445e+04
1.186009e+03,1.056174e+04
1.186973e+03,1.055880e+04
1.187937e+03,1.056094e+04
1.188901e+03,1.056626e+04
1.189866e+03,1.057303e+04
1.190830e+03,1.057846e+04
1.191794e+03,1.058014e+04
1.192758e+03,1.057888e+04
1.193723e+03,1.057615e+04
1.194687e+03,1.057775e+04
1.195651e+03,1.058579e+04
1.196615e+03,1.059717e+04
1.197580e+03,1.060463e+04
1.198544e+03,1.060100e+04
1.199508e+03,1.058914e+04
1.200472e+03,1.057401e+04
1.201437e+03,1.055640e+04
1.202401e+03,1.053664e+04
1.203365e+03,1.051598e+04
1.204329e+03,1.050546e+04
1.205293e+03,1.050527e+04
1.206258e+03,1.051075e+04
1.207222e+03,1.051833e+04
1.208186e+03,1.052825e+04
1.209150e+03,1.054783e+04
1.210115e+03,1.057622e+04
1.211079e+03,1.058921e+04
1.212043e+03,1.058250e+04
1.213007e+03,1.056430e+04
1.213972e+03,1.054242e+04
1.214936e+03,1.052174e+04
1.215900e+03,1.051797e+04
1.216864e+03,1.053070e+04
1.217828e+03,1.054258e+04
1.218793e+03,1.054177e+04
1.219757e+03,1.053783e+04
1.220721e+03,1.055042e+04
1.221685e+03,1.057344e+04
1.222650e+03,1.058496e+04
1.223614e+03,1.057544e+04
1.224578e+03,1.056030e+04
1.225542e+03,1.055617e+04
1.226507e+03,1.055871e+04
1.227471e+03,1.056169e+04
1.228435e+03,1.056184e+04
1.229399e+03,1.055798e+04
1.230364e+03,1.055868e+04
1.231328e+03,1.055095e+04
1.232292e+03,1.051979e+04
1.233256e+03,1.048774e+04
1.234220e+03,1.048160e+04
1.235185e+03,1.052167e+04
1.236149e+03,1.054632e+04
1.237113e+03,1.052398e+04
1.238077e+03,1.050254e+04
1.239042e+03,1.050542e+04
1.240006e+03,1.052549e+04
1.240970e+03,1.053805e+04
1.241934e+03,1.054289e+04
1.242899e+03,1.053913e+04
1.243863e+03,1.052571e+04
1.244827e+03,1.051015e+04
1.245791e+03,1.050168e+04
1.246755e+03,1.050202e+04
1.247720e+03,1.049786e+04
1.248684e+03,1.048790e+04
1.249648e+03,1.048643e+04
1.250612e+03,1.050517e+04
1.251577e+03,1.053363e+04
1.252541e+03,1.053825e+04
1.253505e+03,1.052126e+04
1.254469e+03,1.050864e+04
1.255434e+03,1.050980e+04
1.256398e+03,1.052002e+04
1.257362e+03,1.053574e+04
1.258326e+03,1.055000e+04
1.259291e+03,1.055180e+04
1.260255e+03,1.054076e+04
1.261219e+03,1.052633e+04
1.262183e+03,1.052283e+04
1.263147e+03,1.052177e+04
1.264112e+03,1.051270e+04
1.265076e+03,1.050106e+04
1.266040e+03,1.049344e+04
1.267004e+03,1.049317e+04
1.267969e+03,1.049325e+04
1.268933e+03,1.048878e+04
1.269897e+03,1.049553e+04
1.270861e+03,1.052336e+04
1.271826e+03,1.056078e+04
1.272790e+03,1.057519e+04
1.273754e+03,1.055374e+04
1.274718e+03,1.053906e+04
1.275682e+03,1.054770e+04
1.276647e+03,1.056516e+04
1.277611e+03,1.057038e+04
1.278575e+03,1.056102e+04
1.279539e+03,1.054215e+04
1.280504e+03,1.051666e+04
1.281468e+03,1.050496e+04
1.282432e+03,1.051996e+04
1.283396e+03,1.054911e+04
1.284361e+03,1.055969e+04
1.285325e+03,1.055418e+04
1.286289e+03,1.055399e+04
1.287253e+03,1.056413e+04
1.288218e+03,1.057267e+04
1.289182e+03,1.056888e+04
1.290146e+03,1.056026e+04
1.291110e+03,1.055904e+04
1.292074e+03,1.056369e+04
1.293039e+03,1.056194e+04
1.294003e+03,1.053719e+04
1.294967e+03,1.051380e+04
1.295931e+03,1.050829e+04
1.296896e+03,1.051188e+04
1.297860e+03,1.051280e+04
1.298824e+03,1.050641e+04
1.299788e+03,1.050283e+04
1.300753e+03,1.049715e+04
1.301717e+03,1.049948e+04
1.302681e+03,1.051934e+04
1.303645e+03,1.054789e+04
1.304609e+03,1.055890e+04
1.305574e+03,1.054566e+04
1.306538e+03,1.053186e+04
1.307502e+03,1.052629e+04
1.308466e+03,1.052220e+04
1.309431e+03,1.050404e+04
1.310395e+03,1.047983e+04
1.311359e+03,1.047901e+04
1.312323e+03,1.049323e+04
1.313288e+03,1.050288e+04
1.314252e+03,1.050397e+04
1.315216e+03,1.050540e+04
1.316180e+03,1.051051e+04
1.317145e+03,1.051919e+04
1.318109e+03,1.052836e+04
1.319073e+03,1.053379e+04
1.320037e+03,1.053739e+04
1.321001e+03,1.053946e+04
1.321966e+03,1.054171e+04
1.322930e+03,1.055227e+04
1.323894e+03,1.056772e+04
1.324858e+03,1.057619e+04
1.325823e+03,1.057562e+04
1.326787e+03,1.056965e+04
1.327751e+03,1.054972e+04
1.328715e+03,1.053585e+04
1.329680e+03,1.054571e+04
1.330644e+03,1.057310e+04
1.331608e+03,1.058731e+04
1.332572e+03,1.058852e+04
1.333536e+03,1.059237e+04
1.334501e+03,1.060216e+04
1.335465e+03,1.060796e+04
1.336429e+03,1.059987e+04
1.337393e+03,1.058794e+04
1.338358e+03,1.058885e+04
1.339322e+03,1.059888e+04
1.340286e+03,1.059898e+04
1.341250e+03,1.056637e+04
1.342215e+03,1.053735e+04
1.343179e+03,1.053867e+04
1.344143e+03,1.055588e+04
1.345107e+03,1.056586e+04
1.346072e+03,1.055974e+04
1.347036e+03,1.056145e+04
1.348000e+03,1.057239e+04
1.348964e+03,1.058252e+04
1.349928e+03,1.059248e+04
1.350893e+03,1.060264e+04
1.351857e+03,1.060428e+04
1.352821e+03,1.059558e+04
1.353785e+03,1.059044e+04
1.354750e+03,1.058925e+04
1.355714e+03,1.058775e+04
1.356678e+03,1.058946e+04
1.357642e+03,1.059380e+04
1.358607e+03,1.059161e+04
1.359571e+03,1.058488e+04
1.360535e+03,1.058107e+04
1.361499e+03,1.058521e+04
1.362464e+03,1.059203e+04
1.363428e+03,1.060277e+04
1.364392e+03,1.061586e+04
1.365356e+03,1.062469e+04
1.366320e+03,1.062483e+04
1.367285e+03,1.062271e+04
1.368249e+03,1.062168e+04
1.369213e+03,1.062226e+04
1.370177e+03,1.062509e+04
1.371142e+03,1.062864e+04
1.372106e+03,1.063192e+04
1.373070e+03,1.063482e+04
1.374034e+03,1.063894e+04
1.374999e+03,1.064576e+04
1.375963e+03,1.064540e+04
1.376927e+03,1.062779e+04
1.377891e+03,1.060964e+04
1.378855e+03,1.060806e+04
1.379820e+03,1.061408e+04
1.380784e+03,1.061711e+04
1.381748e+03,1.061862e+04
1.382712e+03,1.062583e+04
1.383677e+03,1.064393e+04
1.384641e+03,1.065298e+04
1.385605e+03,1.064074e+04
1.386569e+03,1.061777e+04
1.387534e+03,1.060107e+04
1.388498e+03,1.059181e+04
1.389462e+03,1.059034e+04
1.390426e+03,1.059477e+04
1.391391e+03,1.059873e+04
1.392355e+03,1.060266e+04
1.393319e+03,1.060596e+04
1.394283e+03,1.059745e+04
1.395247e+03,1.058320e+04
1.396212e+03,1.058298e+04
1.397176e+03,1.060220e+04
1.398140e+03,1.062025e+04
1.399104e+03,1.061891e+04
1.400069e+03,1.061376e+04
1.401033e+03,1.061853e+04
1.401997e+03,1.062774e+04
1.402961e+03,1.062446e+04
1.403926e+03,1.059581e+04
1.404890e+03,1.058286e+04
1.405854e+03,1.059526e+04
1.406818e+03,1.061023e+04
1.407782e+03,1.060926e+04
1.408747e+03,1.060150e+04
1.409711e+03,1.061364e+04
1.410675e+03,1.063486e+04
1.411639e+03,1.064100e+04
1.412604e+03,1.062519e+04
1.413568e+03,1.060797e+04
1.414532e+03,1.061370e+04
1.415496e+03,1.062573e+04
1.416461e+03,1.062246e+04
1.417425e+03,1.060495e+04
1.418389e+03,1.059278e+04
1.419353e+03,1.059454e+04
1.420318e+03,1.059579e+04
1.421282e+03,1.060094e+04
1.422246e+03,1.060617e+04
1.423210e+03,1.060606e+04
1.424174e+03,1.060302e+04
1.425139e+03,1.060336e+04
1.426103e+03,1.060383e+04
1.427067e+03,1.060157e+04
1.428031e+03,1.059638e+04
1.428996e+03,1.059035e+04
1.429960e+03,1.058075e+04
1.430924e+03,1.057065e+04
1.431888e+03,1.056253e+04
1.432853e+03,1.055794e+04
1.433817e+03,1.055945e+04
1.434781e+03,1.058420e+04
1.435745e+03,1.059511e+04
1.436709e+03,1.057377e+04
1.437674e+03,1.054790e+04
1.438638e+03,1.054886e+04
1.439602e+03,1.057599e+04
1.440566e+03,1.059076e+04
1.441531e+03,1.059273e+04
1.442495e+03,1.058748e+04
1.443459e+03,1.057343e+04
1.444423e+03,1.056118e+04
1.445388e+03,1.056497e+04
1.446352e+03,1.056969e+04
1.447316e+03,1.056057e+04
1.448280e+03,1.054344e+04
1.449245e+03,1.053413e+04
1.450209e+03,1.053523e+04
1.451173e+03,1.054670e+04
1.452137e+03,1.056969e+04
1.453101e+03,1.058798e+04
1.454066e+03,1.058787e+04
1.455030e+03,1.057289e+04
1.455994e+03,1.056647e+04
1.456958e+03,1.056796e+04
1.457923e+03,1.057476e+04
1.458887e+03,1.058363e+04
1.459851e+03,1.059330e+04
1.460815e+03,1.060876e+04
1.461780e+03,1.061688e+04
1.462744e+03,1.060968e+04
1.463708e+03,1.059049e+04
1.464672e+03,1.057003e+04
1.465636e+03,1.054930e+04
1.466601e+03,1.053800e+04
1.467565e+03,1.053866e+04
1.468529e+03,1.054498e+04
1.469493e+03,1.054837e+04
1.470458e+03,1.054772e+04
1.471422e+03,1.055125e+04
1.472386e+03,1.055913e+04
1.473350e+03,1.056381e+04
1.474315e+03,1.055910e+04
1.475279e+03,1.055418e+04
1.476243e+03,1.055273e+04
1.477207e+03,1.055172e+04
1.478172e+03,1.055641e+04
1.479136e+03,1.056482e+04
1.480100e+03,1.056311e+04
1.481064e+03,1.054903e+04
1.482028e+03,1.053812e+04
1.482993e+03,1.053363e+04
1.483957e+03,1.053503e+04
1.484921e+03,1.054054e+04
1.485885e+03,1.054845e+04
1.486850e+03,1.055670e+04
1.487814e+03,1.056102e+04
1.488778e+03,1.055836e+04
1.489742e+03,1.054841e+04
1.490707e+03,1.053465e+04
1.491671e+03,1.051249e+04
1.492635e+03,1.050660e+04
1.493599e+03,1.053101e+04
1.494563e+03,1.056825e+04
1.495528e+03,1.057751e+04
1.496492e+03,1.055793e+04
1.497456e+03,1.053290e+04
1.498420e+03,1.050897e+04
1.499385e+03,1.049335e+04
1.500349e+03,1.049726e+04
1.501313e+03,1.050665e+04
1.502277e+03,1.050162e+04
1.503242e+03,1.049384e+04
1.504206e+03,1.050347e+04
1.505170e+03,1.054046e+04
1.506134e+03,1.056054e+04
1.507099e+03,1.056204e+04
1.508063e+03,1.055281e+04
1.509027e+03,1.053308e+04
1.509991e+03,1.051024e+04
1.510955e+03,1.049987e+04
1.511920e+03,1.049582e+04
1.512884e+03,1.048242e+04
1.513848e+03,1.046507e+04
1.514812e+03,1.046135e+04
1.515777e+03,1.048165e+04
1.516741e+03,1.049919e+04
1.517705e+03,1.050298e+04
1.518669e+03,1.049981e+04
1.519634e+03,1.049680e+04
1.520598e+03,1.049223e+04
1.521562e+03,1.048616e+04
1.522526e+03,1.047631e+04
1.523490e+03,1.047488e+04
1.524455e+03,1.048932e+04
1.525419e+03,1.050051e+04
1.526383e+03,1.048661e+04
1.527347e+03,1.046640e+04
1.528312e+03,1.046020e+04
1.529276e+03,1.047006e+04
1.530240e+03,1.048343e+04
1.531204e+03,1.050383e+04
1.532169e+03,1.049865e+04
1.533133e+03,1.045890e+04
1.534097e+03,1.042464e+04
1.535061e+03,1.043140e+04
1.536026e+03,1.045574e+04
1.536990e+03,1.045646e+04
1.537954e+03,1.044578e+04
1.538918e+03,1.044726e+04
1.539882e+03,1.046777e+04
1.540847e+03,1.047949e+04
1.541811e+03,1.046525e+04
1.542775e+03,1.044661e+04
1.543739e+03,1.043208e+04
1.544704e+03,1.042238e+04
1.545668e+03,1.041444e+04
1.546632e+03,1.041123e+04
1.547596e+03,1.042692e+04
1.548561e+03,1.045786e+04
1.549525e+03,1.048044e+04
1.550489e+03,1.047142e+04
1.551453e+03,1.045883e+04
1.552417e+03,1.045406e+04
1.553382e+03,1.045192e+04
1.554346e+03,1.045213e+04
1.555310e+03,1.045564e+04
1.556274e+03,1.045273e+04
1.557239e+03,1.044265e+04
1.558203e+03,1.043539e+04
1.559167e+03,1.043377e+04
1.560131e+03,1.043185e+04
1.561096e+03,1.042079e+04
1.562060e+03,1.041324e+04
1.563024e+03,1.042472e+04
1.563988e+03,1.044548e+04
1.564953e+03,1.045061e+04
1.565917e+03,1.042996e+04
1.566881e+03,1.042679e+04
1.567845e+03,1.044263e+04
1.568809e+03,1.044667e+04
1.569774e+03,1.041702e+04
1.570738e+03,1.038152e+04
1.571702e+03,1.038353e+04
1.572666e+03,1.039852e+04
1.573631e+03,1.039416e+04
1.574595e+03,1.036999e+04
1.575559e+03,1.035176e+04
1.576523e+03,1.034086e+04
1.577488e+03,1.034286e+04
1.578452e+03,1.035636e+04
1.579416e+03,1.036806e+04
1.580380e+03,1.036593e+04
1.581344e+03,1.035578e+04
1.582309e+03,1.034660e+04
1.583273e+03,1.034079e+04
1.584237e+03,1.034078e+04
1.585201e+03,1.035249e+04
1.586166e+03,1.035675e+04
1.587130e+03,1.034536e+04
1.588094e+03,1.033080e+04
1.589058e+03,1.032033e+04
1.590023e+03,1.031451e+04
1.590987e+03,1.031511e+04
1.591951e+03,1.032046e+04
1.592915e+03,1.031263e+04
1.593880e+03,1.028827e+04
1.594844e+03,1.027331e+04
1.595808e+03,1.029333e+04
1.596772e+03,1.030691e+04
1.597736e+03,1.030870e+04
1.598701e+03,1.030526e+04
1.599665e+03,1.029885e+04
1.600629e+03,1.029022e+04
1.601593e+03,1.028333e+04
1.602558e+03,1.027711e+04
1.603522e+03,1.026850e+04
1.604486e+03,1.025606e+04
1.605450e+03,1.024013e+04
1.606415e+03,1.021585e+04
1.607379e+03,1.020374e+04
1.608343e+03,1.021540e+04
1.609307e+03,1.023365e+04
1.610271e+03,1.022468e+04
1.611236e+03,1.019507e+04
1.612200e+03,1.018168e+04
1.613164e+03,1.018762e+04
1.614128e+03,1.019991e+04
1.615093e+03,1.021530e+04
1.616057e+03,1.022596e+04
1.617021e+03,1.022527e+04
1.617985e+03,1.021653e+04
1.618950e+03,1.020267e+04
1.619914e+03,1.018619e+04
1.620878e+03,1.017684e+04
1.621842e+03,1.017331e+04
1.622807e+03,1.016440e+04
1.623771e+03,1.014970e+04
1.624735e+03,1.013767e+04
1.625699e+03,1.012358e+04
1.626663e+03,1.011638e+04
1.627628e+03,1.012030e+04
1.628592e+03,1.012299e+04
1.629556e+03,1.011623e+04
1.630520e+03,1.010610e+04
1.631485e+03,1.009754e+04
1.632449e+03,1.009005e+04
1.633413e+03,1.008571e+04
1.634377e+03,1.008955e+04
1.635342e+03,1.008903e+04
1.636306e+03,1.007371e+04
1.637270e+03,1.006161e+04
1.638234e+03,1.006286e+04
1.639198e+03,1.007011e+04
1.640163e+03,1.005732e+04
1.641127e+03,1.003365e+04
1.642091e+03,1.001974e+04
1.643055e+03,1.001466e+04
1.644020e+03,1.001635e+04
1.644984e+03,1.003326e+04
1.645948e+03,1.003656e+04
1.646912e+03,1.001942e+04
1.647877e+03,9.996693e+03
1.648841e+03,9.980440e+03
1.649805e+03,9.970402e+03
1.650769e+03,9.964179e+03
1.651734e+03,9.959710e+03
1.652698e+03,9.953099e+03
1.653662e+03,9.938487e+03
1.654626e+03,9.934016e+03
1.655590e+03,9.954069e+03
1.656555e+03,9.969579e+03
1.657519e+03,9.977976e+03
1.658483e+03,9.980826e+03
1.659447e+03,9.970325e+03
1.660412e+03,9.948266e+03
1.661376e+03,9.923442e+03
1.662340e+03,9.901439e+03
1.663304e+03,9.888740e+03
1.664269e+03,9.889951e+03
1.665233e+03,9.883359e+03
1.666197e+03,9.862319e+03
1.667161e+03,9.845213e+03
1.668125e+03,9.846485e+03
1.669090e+03,9.855081e+03
1.670054e+03,9.857221e+03
1.671018e+03,9.854901e+03
1.671982e+03,9.851837e+03
1.672947e+03,9.849151e+03
1.673911e+03,9.848519e+03
1.674875e+03,9.844786e+03
1.675839e+03,9.842176e+03
1.676804e+03,9.846827e+03
1.677768e+03,9.851181e+03
1.678732e+03,9.843868e+03
1.679696e+03,9.828591e+03
1.680661e+03,9.801166e+03
1.681625e+03,9.768046e+03
1.682589e+03,9.746085e+03
1.683553e+03,9.739389e+03
1.684517e+03,9.741107e+03
1.685482e+03,9.749416e+03
1.686446e+03,9.751237e+03
1.687410e+03,9.741470e+03
1.688374e+03,9.730946e+03
1.689339e+03,9.728252e+03
1.690303e+03,9.725564e+03
1.691267e+03,9.716828e+03
1.692231e+03,9.707332e+03
1.693196e+03,9.701766e+03
1.694160e+03,9.697253e+03
1.695124e+03,9.697052e+03
1.696088e+03,9.701203e+03
1.697052e+03,9.701302e+03
1.698017e+03,9.681906e+03
1.698981e+03,9.663559e+03
1.699945e+03,9.646725e+03
1.700909e+03,9.631460e+03
1.701874e+03,9.627510e+03
1.702838e+03,9.632683e+03
1.703802e+03,9.627051e+03
1.704766e+03,9.613860e+03
1.705731e+03,9.614192e+03
1.706695e+03,9.630335e+03
1.707659e+03,9.628228e+03
1.708623e+03,9.594363e+03
1.709588e+03,9.576390e+03
1.710552e+03,9.577018e+03
1.711516e+03,9.579545e+03
1.712480e+03,9.573401e+03
1.713444e+03,9.561806e+03
1.714409e+03,9.550268e+03
1.715373e+03,9.540696e+03
1.716337e+03,9.532103e+03
1.717301e+03,9.526994e+03
1.718266e+03,9.525247e+03
1.719230e+03,9.524493e+03
1.720194e+03,9.522002e+03
1.721158e+03,9.515780e+03
1.722123e+03,9.505904e+03
1.723087e+03,9.492135e+03
1.724051e+03,9.475308e+03
1.725015e+03,9.454027e+03
1.725979e+03,9.436377e+03
1.726944e+03,9.429616e+03
1.727908e+03,9.432707e+03
1.728872e+03,9.445925e+03
1.729836e+03,9.462167e+03
1.730801e+03,9.469360e+03
1.731765e+03,9.463989e+03
1.732729e+03,9.449567e+03
1.733693e+03,9.419064e+03
1.734658e+03,9.404588e+03
1.735622e+03,9.425550e+03
1.736586e+03,9.453364e+03
1.737550e+03,9.445960e+03
1.738515e+03,9.422505e+03
1.739479e+03,9.404374e+03
1.740443e+03,9.392679e+03
1.741407e+03,9.382201e+03
1.742371e+03,9.373556e+03
1.743336e+03,9.360511e+03
1.744300e+03,9.342263e+03
1.745264e+03,9.326126e+03
1.746228e+03,9.330295e+03
1.747193e+03,9.331525e+03
1.748157e+03,9.314355e+03
1.749121e+03,9.302267e+03
1.750085e+03,9.301760e+03
1.751050e+03,9.302906e+03
1.752014e+03,9.302125e+03
1.752978e+03,9.301423e+03
1.753942e+03,9.299116e+03
1.754906e+03,9.293172e+03
1.755871e+03,9.287850e+03
1.756835e+03,9.279920e+03
1.757799e+03,9.267848e+03
1.758763e+03,9.262040e+03
1.759728e+03,9.251960e+03
1.760692e+03,9.210344e+03
1.761656e+03,9.172255e+03
1.762620e+03,9.178019e+03
1.763585e+03,9.200448e+03
1.764549e+03,9.197786e+03
1.765513e+03,9.166573e+03
1.766477e+03,9.142334e+03
1.767442e+03,9.127624e+03
1.768406e+03,9.126322e+03
1.769370e+03,9.143691e+03
1.770334e+03,9.151420e+03
1.771298e+03,9.122000e+03
1.772263e+03,9.089410e+03
1.773227e+03,9.063376e+03
1.774191e+03,9.045104e+03
1.775155e+03,9.035748e+03
1.776120e+03,9.032022e+03
1.777084e+03,9.034554e+03
1.778048e+03,9.040514e+03
1.779012e+03,9.040810e+03
1.779977e+03,9.035963e+03
1.780941e+03,9.033594e+03
1.781905e+03,9.029529e+03
1.782869e+03,9.018449e+03
1.783833e+03,8.994156e+03
1.784798e+03,8.978437e+03
1.785762e+03,8.998941e+03
1.786726e+03,9.011517e+03
1.787690e+03,8.993746e+03
1.788655e+03,8.962192e+03
1.789619e+03,8.944087e+03
1.790583e+03,8.933808e+03
1.791547e+03,8.916550e+03
1.792512e+03,8.894260e+03
1.793476e+03,8.878870e+03
1.794440e+03,8.867463e+03
1.795404e+03,8.864510e+03
1.796369e+03,8.867732e+03
1.797333e+03,8.866542e+03
1.798297e+03,8.849756e+03
1.799261e+03,8.839657e+03
1.800225e+03,8.862842e+03
1.801190e+03,8.879302e+03
1.802154e+03,8.864484e+03
1.803118e+03,8.828699e+03
1.804082e+03,8.797936e+03
1.805047e+03,8.776373e+03
1.806011e+03,8.769757e+03
1.806975e+03,8.776705e+03
1.807939e+03,8.783813e+03
1.808904e+03,8.788497e+03
1.809868e+03,8.784765e+03
1.810832e+03,8.774486e+03
1.811796e+03,8.761062e+03
1.812760e+03,8.740949e+03
1.813725e+03,8.722243e+03
1.814689e+03,8.711104e+03
1.815653e+03,8.704640e+03
1.816617e+03,8.703472e+03
1.817582e+03,8.703459e+03
1.818546e+03,8.686213e+03
1.819510e+03,8.658397e+03
1.820474e+03,8.635470e+03
1.821439e+03,8.621842e+03
1.822403e+03,8.616447e+03
1.823367e+03,8.621049e+03
1.824331e+03,8.626579e+03
1.825296e+03,8.629347e+03
1.826260e+03,8.624469e+03
1.827224e+03,8.610584e+03
1.828188e+03,8.600078e+03
1.829152e+03,8.594911e+03
1.830117e+03,8.590300e+03
1.831081e+03,8.584007e+03
1.832045e+03,8.572536e+03
1.833009e+03,8.553966e+03
1.833974e+03,8.536323e+03
1.834938e+03,8.519452e+03
1.835902e+03,8.499303e+03
1.836866e+03,8.489549e+03
1.837831e+03,8.490522e+03
1.838795e+03,8.487742e+03
1.839759e+03,8.481964e+03
1.840723e+03,8.474661e+03
1.841688e+03,8.449912e+03
1.842652e+03,8.441835e+03
1.843616e+03,8.468135e+03
1.844580e+03,8.488404e+03
1.845544e+03,8.452907e+03
1.846509e+03,8.397162e+03
1.847473e+03,8.389773e+03
1.848437e+03,8.404774e+03
1.849401e+03,8.389568e+03
1.850366e+03,8.343532e+03
1.851330e+03,8.319759e+03
1.852294e+03,8.318659e+03
1.853258e+03,8.322104e+03
1.854223e+03,8.325536e+03
1.855187e+03,8.328069e+03
1.856151e+03,8.325639e+03
1.857115e+03,8.319587e+03
1.858079e+03,8.308396e+03
1.859044e+03,8.294618e+03
1.860008e+03,8.283376e+03
1.860972e+03,8.276153e+03
1.861936e+03,8.276959e+03
1.862901e+03,8.279436e+03
1.863865e+03,8.268791e+03
1.864829e+03,8.242440e+03
1.865793e+03,8.227312e+03
1.866758e+03,8.220501e+03
1.867722e+03,8.201910e+03
1.868686e+03,8.159133e+03
1.869650e+03,8.141539e+03
1.870615e+03,8.154815e+03
1.871579e+03,8.158936e+03
1.872543e+03,8.147156e+03
1.873507e+03,8.135329e+03
1.874471e+03,8.124519e+03
1.875436e+03,8.114927e+03
1.876400e+03,8.112780e+03
1.877364e+03,8.112323e+03
1.878328e+03,8.106090e+03
1.879293e+03,8.096083e+03
1.880257e+03,8.081645e+03
1.881221e+03,8.064478e+03
1.882185e+03,8.054767e+03
1.883150e+03,8.055094e+03
1.884114e+03,8.048268e+03
1.885078e+03,8.032860e+03
1.886042e+03,8.012661e+03
1.887006e+03,7.986486e+03
1.887971e+03,7.971407e+03
1.888935e+03,7.986504e+03
1.889899e+03,7.990425e+03
1.890863e+03,7.966464e+03
1.891828e+03,7.940686e+03
1.892792e+03,7.953413e+03
1.893756e+03,7.967963e+03
1.894720e+03,7.961462e+03
1.895685e+03,7.948924e+03
1.896649e+03,7.937424e+03
1.897613e+03,7.922617e+03
1.898577e+03,7.897800e+03
1.899542e+03,7.869159e+03
1.900506e+03,7.845858e+03
1.901470e+03,7.827361e+03
1.902434e+03,7.831747e+03
1.903398e+03,7.857741e+03
1.904363e+03,7.866052e+03
1.905327e+03,7.846354e+03
1.906291e+03,7.826734e+03
1.907255e+03,7.813221e+03
1.908220e+03,7.805868e+03
1.909184e+03,7.807647e+03
1.910148e+03,7.804121e+03
1.911112e+03,7.779763e+03
1.912077e+03,7.752576e+03
1.913041e+03,7.735810e+03
1.914005e+03,7.725466e+03
1.914969e+03,7.721303e+03
1.915933e+03,7.717418e+03
1.916898e+03,7.677862e+03
1.917862e+03,7.627931e+03
1.918826e+03,7.622945e+03
1.919790e+03,7.675514e+03
1.920755e+03,7.699134e+03
1.921719e+03,7.690898e+03
1.922683e+03,7.686167e+03
1.923647e+03,7.695152e+03
1.924612e+03,7.696960e+03
1.925576e+03,7.673579e+03
1.926540e+03,7.655615e+03
1.927504e+03,7.643054e+03
1.928469e+03,7.631319e+03
1.929433e+03,7.613218e+03
1.930397e+03,7.595986e+03
1.931361e+03,7.588292e+03
1.932325e+03,7.581839e+03
1.933290e+03,7.574535e+03
1.934254e+03,7.570078e+03
1.935218e+03,7.563435e+03
1.936182e+03,7.549908e+03
1.937147e+03,7.529991e+03
1.938111e+03,7.508032e+03
1.939075e+03,7.496652e+03
1.940039e+03,7.497262e+03
1.941004e+03,7.495741e+03
1.941968e+03,7.485317e+03
1.942932e+03,7.471794e+03
1.943896e+03,7.457493e+03
1.944860e+03,7.449728e+03
1.945825e+03,7.453119e+03
1.946789e+03,7.451973e+03
1.947753e+03,7.420275e+03
1.948717e+03,7.395179e+03
1.949682e+03,7.390237e+03
1.950646e+03,7.396745e+03
1.951610e+03,7.417276e+03
1.952574e+03,7.435341e+03
1.953539e+03,7.423520e+03
1.954503e+03,7.397402e+03
1.955467e+03,7.372929e+03
1.956431e+03,7.352850e+03
1.957396e+03,7.339170e+03
1.958360e+03,7.328661e+03
1.959324e+03,7.319868e+03
1.960288e+03,7.314407e+03
1.961252e+03,7.304388e+03
1.962217e+03,7.285119e+03
1.963181e+03,7.261544e+03
1.964145e+03,7.234881e+03
1.965109e+03,7.221484e+03
1.966074e+03,7.245610e+03
1.967038e+03,7.260013e+03
1.968002e+03,7.252832e+03
1.968966e+03,7.237591e+03
1.969931e+03,7.219841e+03
1.970895e+03,7.200825e+03
1.971859e+03,7.191684e+03
1.972823e+03,7.183181e+03
1.973787e+03,7.166590e+03
1.974752e+03,7.147527e+03
1.975716e+03,7.134999e+03
1.976680e+03,7.126858e+03
1.977644e+03,7.133162e+03
1.978609e+03,7.144481e+03
1.979573e+03,7.136938e+03
1.980537e+03,7.114325e+03
1.981501e+03,7.091421e+03
1.982466e+03,7.072704e+03
1.983430e+03,7.070471e+03
1.984394e+03,7.086864e+03
1.985358e+03,7.072662e+03
1.986323e+03,7.033455e+03
1.987287e+03,7.012245e+03
1.988251e+03,7.025621e+03
1.989215e+03,7.027475e+03
1.990179e+03,7.012775e+03
1.991144e+03,6.995581e+03
1.992108e+03,6.981677e+03
1.993072e+03,6.967349e+03
1.994036e+03,6.936785e+03
1.995001e+03,6.920478e+03
1.995965e+03,6.929311e+03
1.996929e+03,6.943925e+03
1.997893e+03,6.943236e+03
1.998858e+03,6.933228e+03
1.999822e+03,6.916003e+03
2.000786e+03,6.895893e+03
2.001750e+03,6.883319e+03
2.002714e+03,6.877060e+03
2.003679e+03,6.857311e+03
2.004643e+03,6.832974e+03
2.005607e+03,6.826374e+03
2.006571e+03,6.833845e+03
2.007536e+03,6.833275e+03
2.008500e+03,6.826071e+03
2.009464e+03,6.811830e+03
2.010428e+03,6.793401e+03
2.011393e+03,6.779422e+03
2.012357e+03,6.769756e+03
2.013321e+03,6.765997e+03
2.014285e+03,6.763495e+03
2.015250e+03,6.761531e+03
2.016214e+03,6.771313e+03
2.017178e+03,6.756224e+03
2.018142e+03,6.714017e+03
2.019106e+03,6.678979e+03
2.020071e+03,6.670393e+03
2.021035e+03,6.665086e+03
2.021999e+03,6.652835e+03
2.022963e+03,6.636279e+03
2.023928e+03,6.617271e+03
2.024892e+03,6.601857e+03
2.025856e+03,6.597113e+03
2.026820e+03,6.597208e+03
2.027785e+03,6.600714e+03
2.028749e+03,6.598636e+03
2.029713e+03,6.571817e+03
2.030677e+03,6.542719e+03
2.031641e+03,6.543740e+03
2.032606e+03,6.560313e+03
2.033570e+03,6.569007e+03
2.034534e+03,6.568308e+03
2.035498e+03,6.553308e+03
2.036463e+03,6.530160e+03
2.037427e+03,6.510476e+03
2.038391e+03,6.498658e+03
2.039355e+03,6.483648e+03
2.040320e+03,6.467748e+03
2.041284e+03,6.457306e+03
2.042248e+03,6.451797e+03
2.043212e+03,6.438337e+03
2.044177e+03,6.417478e+03
2.045141e+03,6.406205e+03
2.046105e+03,6.405435e+03
2.047069e+03,6.403540e+03
2.048033e+03,6.390930e+03
2.048998e+03,6.375229e+03
2.049962e+03,6.358795e+03
2.050926e+03,6.346465e+03
2.051890e+03,6.342617e+03
2.052854e+03,6.341633e+03
2.053819e+03,6.341304e+03
2.054783e+03,6.332673e+03
2.055747e+03,6.312260e+03
2.056711e+03,6.295038e+03
2.057676e+03,6.296619e+03
2.058640e+03,6.303187e+03
2.059604e+03,6.303951e+03
2.060568e+03,6.296963e+03
2.061533e+03,6.274303e+03
2.062497e+03,6.255229e+03
2.063461e+03,6.268729e+03
2.064425e+03,6.288658e+03
2.065390e+03,6.275813e+03
2.066354e+03,6.244161e+03
2.067318e+03,6.214289e+03
2.068282e+03,6.194521e+03
2.069247e+03,6.197183e+03
2.070211e+03,6.214287e+03
2.071175e+03,6.204600e+03
2.072139e+03,6.177003e+03
2.073104e+03,6.145114e+03
2.074068e+03,6.112728e+03
2.075032e+03,6.114348e+03
2.075996e+03,6.138935e+03
2.076960e+03,6.147109e+03
2.077925e+03,6.130996e+03
2.078889e+03,6.126197e+03
2.079853e+03,6.135533e+03
2.080817e+03,6.136646e+03
2.081782e+03,6.126119e+03
2.082746e+03,6.101452e+03
2.083710e+03,6.052954e+03
2.084674e+03,6.030955e+03
2.085639e+03,6.041445e+03
2.086603e+03,6.051823e+03
2.087567e+03,6.026170e+03
2.088531e+03,6.011790e+03
2.089496e+03,6.014367e+03
2.090460e+03,6.012635e+03
2.091424e+03,6.007556e+03
2.092388e+03,6.001777e+03
2.093353e+03,5.988521e+03
2.094317e+03,5.980922e+03
2.095281e+03,5.977385e+03
2.096245e+03,5.974698e+03
2.097209e+03,5.978789e+03
2.098174e+03,5.970558e+03
2.099138e+03,5.941271e+03
2.100102e+03,5.912185e+03
2.101066e+03,5.907072e+03
2.102031e+03,5.910330e+03
2.102995e+03,5.914222e+03
2.103959e+03,5.912758e+03
2.104923e+03,5.893332e+03
2.105887e+03,5.877373e+03
2.106852e+03,5.906080e+03
2.107816e+03,5.931179e+03
2.108780e+03,5.901311e+03
2.109744e+03,5.844591e+03
2.110708e+03,5.839424e+03
2.111673e+03,5.857630e+03
2.112637e+03,5.849644e+03
2.113601e+03,5.820318e+03
2.114565e+03,5.783599e+03
2.115530e+03,5.749336e+03
2.116494e+03,5.747264e+03
2.117458e+03,5.772503e+03
2.118422e+03,5.768382e+03
2.119387e+03,5.738932e+03
2.120351e+03,5.744555e+03
2.121315e+03,5.770853e+03
2.122279e+03,5.773825e+03
2.123244e+03,5.749593e+03
2.124208e+03,5.748391e+03
2.125172e+03,5.762766e+03
2.126136e+03,5.758515e+03
2.127101e+03,5.726675e+03
2.128065e+03,5.685914e+03
2.129029e+03,5.639367e+03
2.129993e+03,5.628914e+03
2.130958e+03,5.657356e+03
2.131922e+03,5.671347e+03
2.132886e+03,5.668225e+03
2.133850e+03,5.644477e+03
2.134814e+03,5.607743e+03
2.135779e+03,5.596102e+03
2.136743e+03,5.632801e+03
2.137707e+03,5.640865e+03
2.138671e+03,5.620034e+03
2.139636e+03,5.599413e+03
2.140600e+03,5.594257e+03
2.141564e+03,5.587197e+03
2.142528e+03,5.578337e+03
2.143493e+03,5.563546e+03
2.144457e+03,5.534189e+03
2.145421e+03,5.515166e+03
2.146385e+03,5.518375e+03
2.147350e+03,5.511461e+03
2.148314e+03,5.486928e+03
2.149278e+03,5.471405e+03
2.150242e+03,5.481713e+03
2.151207e+03,5.488419e+03
2.152171e+03,5.485644e+03
2.153135e+03,5.475306e+03
2.154099e+03,5.462735e+03
2.155063e+03,5.452886e+03
2.156028e+03,5.449111e+03
2.156992e+03,5.445808e+03
2.157956e+03,5.427663e+03
2.158920e+03,5.412057e+03
2.159885e+03,5.406667e+03
2.160849e+03,5.407429e+03
2.161813e+03,5.417575e+03
2.162777e+03,5.418865e+03
2.163741e+03,5.386403e+03
2.164706e+03,5.356836e+03
2.165670e+03,5.349794e+03
2.166634e+03,5.352967e+03
2.167598e+03,5.350976e+03
2.168563e+03,5.347360e+03
2.169527e+03,5.338431e+03
2.170491e+03,5.328306e+03
2.171455e+03,5.333909e+03
2.172420e+03,5.337695e+03
2.173384e+03,5.329808e+03
2.174348e+03,5.314655e+03
2.175312e+03,5.282406e+03
2.176277e+03,5.254406e+03
2.177241e+03,5.266377e+03
2.178205e+03,5.277742e+03
2.179169e+03,5.264783e+03
2.180134e+03,5.244604e+03
2.181098e+03,5.227226e+03
2.182062e+03,5.221691e+03
2.183026e+03,5.231445e+03
2.183990e+03,5.244334e+03
2.184955e+03,5.245045e+03
2.185919e+03,5.239087e+03
2.186883e+03,5.227000e+03
2.187847e+03,5.211869e+03
2.188812e+03,5.201472e+03
2.189776e+03,5.192204e+03
2.190740e+03,5.175233e+03
2.191704e+03,5.156208e+03
2.192668e+03,5.142909e+03
2.193633e+03,5.134403e+03
2.194597e+03,5.129911e+03
2.195561e+03,5.128323e+03
2.196525e+03,5.126427e+03
2.197490e+03,5.123131e+03
2.198454e+03,5.119421e+03
2.199418e+03,5.110266e+03
2.200382e+03,5.090455e+03
2.201347e+03,5.072342e+03
2.202311e+03,5.072559e+03
2.203275e+03,5.080858e+03
2.204239e+03,5.087521e+03
2.205204e+03,5.084401e+03
2.206168e+03,5.061756e+03
2.207132e+03,5.036530e+03
2.208096e+03,5.027669e+03
2.209061e+03,5.021540e+03
2.210025e+03,5.009846e+03
2.210989e+03,4.993196e+03
2.211953e+03,4.965957e+03
2.212917e+03,4.952038e+03
2.213882e+03,4.963842e+03
2.214846e+03,4.982999e+03
2.215810e+03,4.984889e+03
2.216774e+03,4.973019e+03
2.217739e+03,4.959738e+03
2.218703e+03,4.950397e+03
2.219667e+03,4.958024e+03
2.220631e+03,4.965425e+03
2.221595e+03,4.950352e+03
2.222560e+03,4.927654e+03
2.223524e+03,4.921967e+03
2.224488e+03,4.918864e+03
2.225452e+03,4.901622e+03
2.226417e+03,4.881833e+03
2.227381e+03,4.866052e+03
2.228345e+03,4.858405e+03
2.229309e+03,4.865025e+03
2.230274e+03,4.871368e+03
2.231238e+03,4.866003e+03
2.232202e+03,4.855148e+03
2.233166e+03,4.854902e+03
2.234131e+03,4.855232e+03
2.235095e+03,4.845519e+03
2.236059e+03,4.832814e+03
2.237023e+03,4.826094e+03
2.237988e+03,4.819688e+03
2.238952e+03,4.806711e+03
2.239916e+03,4.792653e+03
2.240880e+03,4.797649e+03
2.241844e+03,4.797916e+03
2.242809e+03,4.769471e+03
2.243773e+03,4.741178e+03
2.244737e+03,4.742986e+03
2.245701e+03,4.750612e+03
2.246666e+03,4.744342e+03
2.247630e+03,4.733090e+03
2.248594e+03,4.727870e+03
2.249558e+03,4.725489e+03
2.250522e+03,4.715733e+03
2.251487e+03,4.713286e+03
2.252451e+03,4.725969e+03
2.253415e+03,4.727300e+03
2.254379e+03,4.680711e+03
2.255344e+03,4.644193e+03
2.256308e+03,4.642561e+03
2.257272e+03,4.654021e+03
2.258236e+03,4.666027e+03
2.259201e+03,4.670403e+03
2.260165e+03,4.661520e+03
2.261129e+03,4.650196e+03
2.262093e+03,4.647585e+03
2.263058e+03,4.638636e+03
2.264022e+03,4.622240e+03
2.264986e+03,4.609042e+03
2.265950e+03,4.602993e+03
2.266915e+03,4.598065e+03
2.267879e+03,4.590540e+03
2.268843e+03,4.573631e+03
2.269807e+03,4.546157e+03
2.270771e+03,4.527092e+03
2.271736e+03,4.525796e+03
2.272700e+03,4.530487e+03
2.273664e+03,4.533561e+03
2.274628e+03,4.537817e+03
2.275593e+03,4.544045e+03
2.276557e+03,4.550600e+03
2.277521e+03,4.561140e+03
2.278485e+03,4.562750e+03
2.279449e+03,4.539497e+03
2.280414e+03,4.532427e+03
2.281378e+03,4.542523e+03
2.282342e+03,4.544511e+03
2.283306e+03,4.509696e+03
2.284271e+03,4.495903e+03
2.285235e+03,4.499854e+03
2.286199e+03,4.490282e+03
2.287163e+03,4.454474e+03
2.288128e+03,4.454685e+03
2.289092e+03,4.482700e+03
2.290056e+03,4.491705e+03
2.291020e+03,4.471061e+03
2.291985e+03,4.451312e+03
2.292949e+03,4.437237e+03
2.293913e+03,4.425965e+03
2.294877e+03,4.417489e+03
2.295842e+03,4.429282e+03
2.296806e+03,4.454393e+03
2.297770e+03,4.458905e+03
2.298734e+03,4.443104e+03
2.299698e+03,4.419251e+03
2.300663e+03,4.392553e+03
2.301627e+03,4.385071e+03
2.302591e+03,4.387266e+03
2.303555e+03,4.378386e+03
2.304520e+03,4.362314e+03
2.305484e+03,4.355514e+03
2.306448e+03,4.356756e+03
2.307412e+03,4.364325e+03
2.308376e+03,4.370452e+03
2.309341e+03,4.356862e+03
2.310305e+03,4.335154e+03
2.311269e+03,4.324097e+03
2.312233e+03,4.319741e+03
2.313198e+03,4.307400e+03
2.314162e+03,4.294986e+03
2.315126e+03,4.295175e+03
2.316090e+03,4.298147e+03
2.317055e+03,4.292598e+03
2.318019e+03,4.290677e+03
2.318983e+03,4.307936e+03
2.319947e+03,4.318771e+03
2.320912e+03,4.303518e+03
2.321876e+03,4.284375e+03
2.322840e+03,4.275978e+03
2.323804e+03,4.268792e+03
2.324769e+03,4.257083e+03
2.325733e+03,4.256642e+03
2.326697e+03,4.287428e+03
2.327661e+03,4.304916e+03
2.328625e+03,4.291483e+03
2.329590e+03,4.269848e+03
2.330554e+03,4.257474e+03
2.331518e+03,4.241266e+03
2.332482e+03,4.218279e+03
2.333447e+03,4.202474e+03
2.334411e+03,4.202748e+03
2.335375e+03,4.207491e+03
2.336339e+03,4.215064e+03
2.337303e+03,4.207390e+03
2.338268e+03,4.159812e+03
2.339232e+03,4.151065e+03
2.340196e+03,4.176202e+03
2.341160e+03,4.193836e+03
2.342125e+03,4.193105e+03
2.343089e+03,4.176221e+03
2.344053e+03,4.146271e+03
2.345017e+03,4.145589e+03
2.345982e+03,4.173976e+03
2.346946e+03,4.159680e+03
2.347910e+03,4.124636e+03
2.348874e+03,4.119798e+03
2.349839e+03,4.134042e+03
2.350803e+03,4.137896e+03
2.351767e+03,4.132515e+03
2.352731e+03,4.107235e+03
2.353696e+03,4.081681e+03
2.354660e+03,4.085228e+03
2.355624e+03,4.098149e+03
2.356588e+03,4.096724e+03
2.357552e+03,4.088801e+03
2.358517e+03,4.075608e+03
2.359481e+03,4.067861e+03
2.360445e+03,4.088405e+03
2.361409e+03,4.099126e+03
2.362374e+03,4.076677e+03
2.363338e+03,4.048955e+03
2.364302e+03,4.053324e+03
2.365266e+03,4.051714e+03
2.366230e+03,4.027419e+03
2.367195e+03,4.009873e+03
2.368159e+03,4.025742e+03
2.369123e+03,4.030340e+03
2.370087e+03,4.020946e+03
2.371052e+03,4.013609e+03
2.372016e+03,4.016583e+03
2.372980e+03,4.023270e+03
2.373944e+03,4.030961e+03
2.374909e+03,4.029786e+03
2.375873e+03,4.015157e+03
2.376837e+03,4.005623e+03
2.377801e+03,3.999869e+03
2.378766e+03,3.986310e+03
2.379730e+03,3.964435e+03
2.380694e+03,3.951671e+03
2.381658e+03,3.947074e+03
2.382623e+03,3.938321e+03
2.383587e+03,3.928755e+03
2.384551e+03,3.941045e+03
2.385515e+03,3.957460e+03
2.386479e+03,3.948445e+03
2.387444e+03,3.930797e+03
2.388408e+03,3.930539e+03
2.389372e+03,3.935789e+03
2.390336e+03,3.933467e+03
2.391301e+03,3.924155e+03
2.392265e+03,3.899639e+03
2.393229e+03,3.877318e+03
2.394193e+03,3.868725e+03
2.395157e+03,3.866046e+03
2.396122e+03,3.869925e+03
2.397086e+03,3.870007e+03
2.398050e+03,3.864060e+03
2.399014e+03,3.858029e+03
2.399979e+03,3.851594e+03
2.400943e+03,3.855998e+03
2.401907e+03,3.871990e+03
2.402871e+03,3.870105e+03
2.403836e+03,3.844967e+03
2.404800e+03,3.836900e+03
2.405764e+03,3.846300e+03
2.406728e+03,3.846113e+03
2.407693e+03,3.832794e+03
2.408657e+03,3.819523e+03
2.409621e+03,3.809842e+03
2.410585e+03,3.810184e+03
2.411550e+03,3.813964e+03
2.412514e+03,3.801354e+03
2.413478e+03,3.780547e+03
2.414442e+03,3.771931e+03
2.415406e+03,3.773979e+03
2.416371e+03,3.786264e+03
2.417335e+03,3.799496e+03
2.418299e+03,3.796549e+03
2.419263e+03,3.791747e+03
2.420228e+03,3.793016e+03
2.421192e+03,3.792393e+03
2.422156e+03,3.779993e+03
2.423120e+03,3.773649e+03
2.424084e+03,3.775290e+03
2.425049e+03,3.769625e+03
2.426013e+03,3.749083e+03
2.426977e+03,3.734420e+03
2.427941e+03,3.730156e+03
2.428906e+03,3.724412e+03
2.429870e+03,3.708994e+03
2.430834e+03,3.714697e+03
2.431798e+03,3.737899e+03
2.432763e+03,3.750675e+03
2.433727e+03,3.750206e+03
2.434691e+03,3.742621e+03
2.435655e+03,3.731473e+03
2.436620e+03,3.725289e+03
2.437584e+03,3.722246e+03
2.438548e+03,3.718927e+03
2.439512e+03,3.715804e+03
2.440477e+03,3.712484e+03
2.441441e+03,3.704406e+03
2.442405e+03,3.684115e+03
2.443369e+03,3.671145e+03
2.444333e+03,3.677169e+03
2.445298e+03,3.683629e+03
2.446262e+03,3.668406e+03
2.447226e+03,3.659252e+03
2.448190e+03,3.663126e+03
2.449155e+03,3.665359e+03
2.450119e+03,3.656272e+03
2.451083e+03,3.654495e+03
2.452047e+03,3.658281e+03
2.453011e+03,3.660381e+03
2.453976e+03,3.660849e+03
2.454940e+03,3.650207e+03
2.455904e+03,3.635997e+03
2.456868e+03,3.634789e+03
2.457833e+03,3.639222e+03
2.458797e+03,3.627923e+03
2.459761e+03,3.613443e+03
2.460725e+03,3.609753e+03
2.461690e+03,3.612774e+03
2.462654e+03,3.623066e+03
2.463618e+03,3.629417e+03
2.464582e+03,3.627182e+03
2.465547e+03,3.623031e+03
2.466511e+03,3.614495e+03
2.467475e+03,3.608200e+03
2.468439e+03,3.606026e+03
2.469404e+03,3.595971e+03
2.470368e+03,3.562151e+03
2.471332e+03,3.556894e+03
2.472296e+03,3.575859e+03
2.473260e+03,3.586085e+03
2.474225e+03,3.579290e+03
2.475189e+03,3.568909e+03
2.476153e+03,3.560243e+03
2.477117e+03,3.563851e+03
2.478082e+03,3.573577e+03
2.479046e+03,3.574389e+03
2.480010e+03,3.570275e+03
2.480974e+03,3.569634e+03
2.481938e+03,3.567995e+03
2.482903e+03,3.553295e+03
2.483867e+03,3.544234e+03
2.484831e+03,3.551534e+03
2.485795e+03,3.554945e+03
2.486760e+03,3.533651e+03
2.487724e+03,3.520447e+03
2.488688e+03,3.521875e+03
2.489652e+03,3.527895e+03
2.490617e+03,3.534294e+03
2.491581e+03,3.532862e+03
2.492545e+03,3.526440e+03
2.493509e+03,3.521423e+03
2.494474e+03,3.516357e+03
2.495438e+03,3.507832e+03
2.496402e+03,3.499074e+03
2.497366e+03,3.500819e+03
2.498331e+03,3.505903e+03
2.499295e+03,3.498298e+03
2.500259e+03,3.488135e+03
2.501223e+03,3.489241e+03
2.502188e+03,3.492868e+03
2.503152e+03,3.491987e+03
2.504116e+03,3.481997e+03
2.505080e+03,3.460817e+03
2.506044e+03,3.450012e+03
2.507009e+03,3.474827e+03
2.507973e+03,3.479267e+03
2.508937e+03,3.464706e+03
2.509901e+03,3.453191e+03
2.510865e+03,3.448859e+03
2.511830e+03,3.451458e+03
2.512794e+03,3.456500e+03
2.513758e+03,3.460911e+03
2.514722e+03,3.464795e+03
2.515687e+03,3.458478e+03
2.516651e+03,3.450782e+03
2.517615e+03,3.453266e+03
2.518579e+03,3.453231e+03
2.519544e+03,3.424919e+03
2.520508e+03,3.406303e+03
2.521472e+03,3.413063e+03
2.522436e+03,3.420782e+03
2.523401e+03,3.410470e+03
2.524365e+03,3.403635e+03
2.525329e+03,3.399015e+03
2.526293e+03,3.401749e+03
2.527258e+03,3.416067e+03
2.528222e+03,3.428594e+03
2.529186e+03,3.435790e+03
2.530150e+03,3.425781e+03
2.531115e+03,3.407530e+03
2.532079e+03,3.405054e+03
2.533043e+03,3.404283e+03
2.534007e+03,3.385877e+03
2.534971e+03,3.365472e+03
2.535936e+03,3.372566e+03
2.536900e+03,3.380495e+03
2.537864e+03,3.378900e+03
2.538828e+03,3.381699e+03
2.539792e+03,3.394225e+03
2.540757e+03,3.391616e+03
2.541721e+03,3.371835e+03
2.542685e+03,3.370250e+03
2.543649e+03,3.389227e+03
2.544614e+03,3.398146e+03
2.545578e+03,3.394521e+03
2.546542e+03,3.385339e+03
2.547506e+03,3.374376e+03
2.548471e+03,3.367392e+03
2.549435e+03,3.359962e+03
2.550399e+03,3.346513e+03
2.551363e+03,3.336459e+03
2.552328e+03,3.344882e+03
2.553292e+03,3.345235e+03
2.554256e+03,3.324254e+03
2.555220e+03,3.319478e+03
2.556185e+03,3.336369e+03
2.557149e+03,3.345801e+03
2.558113e+03,3.341206e+03
2.559077e+03,3.324608e+03
2.560042e+03,3.300939e+03
2.561006e+03,3.294378e+03
2.561970e+03,3.305287e+03
2.562934e+03,3.329211e+03
2.563898e+03,3.346929e+03
2.564863e+03,3.328557e+03
2.565827e+03,3.301898e+03
2.566791e+03,3.291884e+03
2.567755e+03,3.284711e+03
2.568719e+03,3.271569e+03
2.569684e+03,3.261844e+03
2.570648e+03,3.261632e+03
2.571612e+03,3.266218e+03
2.572576e+03,3.277390e+03
2.573541e+03,3.289449e+03
2.574505e+03,3.297260e+03
2.575469e+03,3.297871e+03
2.576433e+03,3.293609e+03
2.577398e+03,3.293472e+03
2.578362e+03,3.291688e+03
2.579326e+03,3.275225e+03
2.580290e+03,3.263240e+03
2.581255e+03,3.262344e+03
2.582219e+03,3.260805e+03
2.583183e+03,3.249836e+03
2.584147e+03,3.243284e+03
2.585112e+03,3.245648e+03
2.586076e+03,3.245018e+03
2.587040e+03,3.239058e+03
2.588004e+03,3.245981e+03
2.588969e+03,3.253634e+03
2.589933e+03,3.237575e+03
2.590897e+03,3.216552e+03
2.591861e+03,3.239541e+03
2.592825e+03,3.259900e+03
2.593790e+03,3.243639e+03
2.594754e+03,3.223728e+03
2.595718e+03,3.220162e+03
2.596682e+03,3.232753e+03
2.597646e+03,3.261920e+03
2.598611e+03,3.253218e+03
2.599575e+03,3.210900e+03
2.600539e+03,3.200955e+03
2.601503e+03,3.216905e+03
2.602468e+03,3.203772e+03
2.603432e+03,3.177633e+03
2.604396e+03,3.175049e+03
2.605360e+03,3.182464e+03
2.606325e+03,3.187162e+03
2.607289e+03,3.191168e+03
2.608253e+03,3.196478e+03
2.609217e+03,3.201116e+03
2.610182e+03,3.198615e+03
2.611146e+03,3.197976e+03
2.612110e+03,3.200280e+03
2.613074e+03,3.202753e+03
2.614039e+03,3.204733e+03
2.615003e+03,3.191747e+03
2.615967e+03,3.172490e+03
2.616931e+03,3.168187e+03
2.617896e+03,3.170974e+03
2.618860e+03,3.170816e+03
2.619824e+03,3.170475e+03
2.620788e+03,3.170206e+03
2.621752e+03,3.166057e+03
2.622717e+03,3.155554e+03
2.623681e+03,3.149341e+03
2.624645e+03,3.147506e+03
2.625609e+03,3.157136e+03
2.626573e+03,3.174496e+03
2.627538e+03,3.178320e+03
2.628502e+03,3.169853e+03
2.629466e+03,3.143614e+03
2.630430e+03,3.119900e+03
2.631395e+03,3.136192e+03
2.632359e+03,3.145503e+03
2.633323e+03,3.128683e+03
2.634287e+03,3.117812e+03
2.635252e+03,3.121398e+03
2.636216e+03,3.122786e+03
2.637180e+03,3.118109e+03
2.638144e+03,3.129395e+03
2.639109e+03,3.144795e+03
2.640073e+03,3.129835e+03
2.641037e+03,3.108288e+03
2.642001e+03,3.106839e+03
2.642966e+03,3.107101e+03
2.643930e+03,3.096259e+03
2.644894e+03,3.092884e+03
2.645858e+03,3.125759e+03
2.646823e+03,3.125838e+03
2.647787e+03,3.092685e+03
2.648751e+03,3.079673e+03
2.649715e+03,3.091750e+03
2.650679e+03,3.114945e+03
2.651644e+03,3.134263e+03
2.652608e+03,3.125611e+03
2.653572e+03,3.106024e+03
2.654536e+03,3.098193e+03
2.655500e+03,3.095048e+03
2.656465e+03,3.093948e+03
2.657429e+03,3.097663e+03
2.658393e+03,3.104927e+03
2.659357e+03,3.109754e+03
2.660322e+03,3.113450e+03
2.661286e+03,3.103097e+03
2.662250e+03,3.084257e+03
2.663214e+03,3.069416e+03
2.664179e+03,3.061988e+03
2.665143e+03,3.074533e+03
2.666107e+03,3.084741e+03
2.667071e+03,3.081808e+03
2.668036e+03,3.072952e+03
2.669000e+03,3.048427e+03
2.669964e+03,3.053199e+03
2.670928e+03,3.080891e+03
2.671893e+03,3.087966e+03
2.672857e+03,3.077958e+03
2.673821e+03,3.075957e+03
2.674785e+03,3.076902e+03
2.675750e+03,3.079477e+03
2.676714e+03,3.077885e+03
2.677678e+03,3.057277e+03
2.678642e+03,3.038628e+03
2.679606e+03,3.026516e+03
2.680571e+03,3.028676e+03
2.681535e+03,3.043348e+03
2.682499e+03,3.062622e+03
2.683463e+03,3.078104e+03
2.684427e+03,3.072590e+03
2.685392e+03,3.059618e+03
2.686356e+03,3.062780e+03
2.687320e+03,3.062661e+03
2.688284e+03,3.037477e+03
2.689249e+03,3.032564e+03
2.690213e+03,3.054531e+03
2.691177e+03,3.060185e+03
2.692141e+03,3.036823e+03
2.693106e+03,3.030718e+03
2.694070e+03,3.034423e+03
2.695034e+03,3.024157e+03
2.695998e+03,3.013150e+03
2.696963e+03,3.035128e+03
2.697927e+03,3.054601e+03
2.698891e+03,3.050216e+03
2.699855e+03,3.045650e+03
2.700820e+03,3.058438e+03
2.701784e+03,3.043747e+03
2.702748e+03,3.004332e+03
2.703712e+03,3.014612e+03
2.704677e+03,3.051598e+03
2.705641e+03,3.024276e+03
2.706605e+03,2.991302e+03
2.707569e+03,3.030345e+03
2.708533e+03,3.057246e+03
2.709498e+03,3.030195e+03
2.710462e+03,3.004890e+03
2.711426e+03,3.012206e+03
2.712390e+03,3.001251e+03
2.713354e+03,2.980127e+03
2.714319e+03,3.000476e+03
2.715283e+03,3.038081e+03
2.716247e+03,3.035519e+03
2.717211e+03,3.013387e+03
2.718176e+03,2.985472e+03
2.719140e+03,2.971680e+03
2.720104e+03,2.991073e+03
2.721068e+03,3.004612e+03
2.722033e+03,3.008171e+03
2.722997e+03,3.015719e+03
2.723961e+03,3.022048e+03
2.724925e+03,2.996714e+03
2.725890e+03,2.966438e+03
2.726854e+03,2.969320e+03
2.727818e+03,2.981613e+03
2.728782e+03,2.986379e+03
2.729747e+03,2.987691e+03
2.730711e+03,2.987715e+03
2.731675e+03,2.988010e+03
2.732639e+03,2.987676e+03
2.733604e+03,2.972625e+03
2.734568e+03,2.950622e+03
2.735532e+03,2.939432e+03
2.736496e+03,2.941565e+03
2.737460e+03,2.962899e+03
2.738425e+03,2.975289e+03
2.739389e+03,2.956030e+03
2.740353e+03,2.947811e+03
2.741317e+03,2.957906e+03
2.742281e+03,2.963770e+03
2.743246e+03,2.965379e+03
2.744210e+03,2.953593e+03
2.745174e+03,2.942137e+03
2.746138e+03,2.963446e+03
2.747103e+03,2.983552e+03
2.748067e+03,2.991731e+03
2.749031e+03,2.984791e+03
2.749995e+03,2.949713e+03
2.750960e+03,2.929701e+03
2.751924e+03,2.922150e+03
2.752888e+03,2.915999e+03
2.753852e+03,2.910798e+03
2.754817e+03,2.910295e+03
2.755781e+03,2.915758e+03
2.756745e+03,2.929741e+03
2.757709e+03,2.933516e+03
2.758674e+03,2.918889e+03
2.759638e+03,2.907959e+03
2.760602e+03,2.906763e+03
2.761566e+03,2.917203e+03
2.762531e+03,2.933352e+03
2.763495e+03,2.942974e+03
2.764459e+03,2.938028e+03
2.765423e+03,2.890645e+03
2.766387e+03,2.874277e+03
2.767352e+03,2.904085e+03
2.768316e+03,2.925353e+03
2.769280e+03,2.925546e+03
2.770244e+03,2.940135e+03
2.771208e+03,2.951634e+03
2.772173e+03,2.914586e+03
2.773137e+03,2.873796e+03
2.774101e+03,2.892544e+03
2.775065e+03,2.905142e+03
2.776030e+03,2.880553e+03
2.776994e+03,2.871868e+03
2.777958e+03,2.878000e+03
2.778922e+03,2.878387e+03
2.779887e+03,2.877890e+03
2.780851e+03,2.903565e+03
2.781815e+03,2.915405e+03
2.782779e+03,2.887990e+03
2.783744e+03,2.870224e+03
2.784708e+03,2.896365e+03
2.785672e+03,2.901730e+03
2.786636e+03,2.882605e+03
2.787601e+03,2.862082e+03
2.788565e+03,2.850155e+03
2.789529e+03,2.877085e+03
2.790493e+03,2.905266e+03
2.791458e+03,2.896840e+03
2.792422e+03,2.881399e+03
2.793386e+03,2.870365e+03
2.794350e+03,2.858832e+03
2.795314e+03,2.843761e+03
2.796279e+03,2.832026e+03
2.797243e+03,2.826765e+03
2.798207e+03,2.839573e+03
2.799171e+03,2.855975e+03
2.800135e+03,2.854365e+03
2.801100e+03,2.847941e+03
2.802064e+03,2.840547e+03
2.803028e+03,2.860822e+03
2.803992e+03,2.897577e+03
2.804957e+03,2.889002e+03
2.805921e+03,2.858607e+03
2.806885e+03,2.842591e+03
2.807849e+03,2.843741e+03
2.808814e+03,2.862240e+03
2.809778e+03,2.869169e+03
2.810742e+03,2.848938e+03
2.811706e+03,2.829516e+03
2.812671e+03,2.813165e+03
2.813635e+03,2.814224e+03
2.814599e+03,2.821787e+03
2.815563e+03,2.817177e+03
2.816528e+03,2.813063e+03
2.817492e+03,2.814722e+03
2.818456e+03,2.818766e+03
2.819420e+03,2.821378e+03
2.820385e+03,2.819451e+03
2.821349e+03,2.817012e+03
2.822313e+03,2.820152e+03
2.823277e+03,2.822181e+03
2.824241e+03,2.815307e+03
2.825206e+03,2.810626e+03
2.826170e+03,2.819310e+03
2.827134e+03,2.821824e+03
2.828098e+03,2.813988e+03
2.829063e+03,2.802631e+03
2.830027e+03,2.790951e+03
2.830991e+03,2.788612e+03
2.831955e+03,2.794525e+03
2.832919e+03,2.804700e+03
2.833884e+03,2.817089e+03
2.834848e+03,2.829246e+03
2.835812e+03,2.827276e+03
2.836776e+03,2.814096e+03
2.837741e+03,2.806918e+03
2.838705e+03,2.810542e+03
2.839669e+03,2.835837e+03
2.840633e+03,2.840483e+03
2.841598e+03,2.799294e+03
2.842562e+03,2.781169e+03
2.843526e+03,2.806749e+03
2.844490e+03,2.809408e+03
2.845455e+03,2.797842e+03
2.846419e+03,2.791756e+03
2.847383e+03,2.790599e+03
2.848347e+03,2.795290e+03
2.849312e+03,2.798094e+03
2.850276e+03,2.797503e+03
2.851240e+03,2.809797e+03
2.852204e+03,2.827478e+03
2.853168e+03,2.817247e+03
2.854133e+03,2.797382e+03
2.855097e+03,2.792747e+03
2.856061e+03,2.793613e+03
2.857025e+03,2.792005e+03
2.857990e+03,2.787770e+03
2.858954e+03,2.781779e+03
2.859918e+03,2.806686e+03
2.860882e+03,2.834417e+03
2.861846e+03,2.818938e+03
2.862811e+03,2.789104e+03
2.863775e+03,2.761261e+03
2.864739e+03,2.773917e+03
2.865703e+03,2.841552e+03
2.866668e+03,2.850161e+03
2.867632e+03,2.817413e+03
2.868596e+03,2.800729e+03
2.869560e+03,2.791734e+03
2.870525e+03,2.777930e+03
2.871489e+03,2.786484e+03
2.872453e+03,2.821789e+03
2.873417e+03,2.823118e+03
2.874382e+03,2.792750e+03
2.875346e+03,2.806433e+03
2.876310e+03,2.828887e+03
2.877274e+03,2.788227e+03
2.878239e+03,2.752625e+03
2.879203e+03,2.744995e+03
2.880167e+03,2.758753e+03
2.881131e+03,2.797168e+03
2.882095e+03,2.801668e+03
2.883060e+03,2.789727e+03
2.884024e+03,2.788257e+03
2.884988e+03,2.791195e+03
2.885952e+03,2.792291e+03
2.886917e+03,2.798170e+03
2.887881e+03,2.812706e+03
2.888845e+03,2.793828e+03
2.889809e+03,2.760281e+03
2.890773e+03,2.751559e+03
2.891738e+03,2.752963e+03
2.892702e+03,2.760239e+03
2.893666e+03,2.765212e+03
2.894630e+03,2.766820e+03
2.895595e+03,2.778156e+03
2.896559e+03,2.792902e+03
2.897523e+03,2.779071e+03
2.898487e+03,2.759333e+03
2.899452e+03,2.757751e+03
2.900416e+03,2.755931e+03
2.901380e+03,2.748476e+03
2.902344e+03,2.761082e+03
2.903309e+03,2.790617e+03
2.904273e+03,2.767681e+03
2.905237e+03,2.733703e+03
2.906201e+03,2.734741e+03
2.907166e+03,2.736628e+03
2.908130e+03,2.723163e+03
2.909094e+03,2.728645e+03
2.910058e+03,2.754480e+03
2.911022e+03,2.745328e+03
2.911987e+03,2.730273e+03
2.912951e+03,2.740006e+03
2.913915e+03,2.752062e+03
2.914879e+03,2.749618e+03
2.915844e+03,2.747608e+03
2.916808e+03,2.746891e+03
2.917772e+03,2.733130e+03
2.918736e+03,2.721618e+03
2.919700e+03,2.740356e+03
2.920665e+03,2.750489e+03
2.921629e+03,2.711357e+03
2.922593e+03,2.697737e+03
2.923557e+03,2.707310e+03
2.924522e+03,2.695111e+03
2.925486e+03,2.679547e+03
2.926450e+03,2.727793e+03
2.927414e+03,2.757046e+03
2.928379e+03,2.718709e+03
2.929343e+03,2.703536e+03
2.930307e+03,2.715073e+03
2.931271e+03,2.733765e+03
2.932236e+03,2.746569e+03
2.933200e+03,2.714685e+03
2.934164e+03,2.691939e+03
2.935128e+03,2.697732e+03
2.936093e+03,2.699083e+03
2.937057e+03,2.693646e+03
2.938021e+03,2.686365e+03
2.938985e+03,2.685284e+03
2.939949e+03,2.703316e+03
2.940914e+03,2.718519e+03
2.941878e+03,2.724954e+03
2.942842e+03,2.718648e+03
2.943806e+03,2.697218e+03
2.944771e+03,2.676336e+03
2.945735e+03,2.664333e+03
2.946699e+03,2.674339e+03
2.947663e+03,2.684363e+03
2.948627e+03,2.683247e+03
2.949592e+03,2.674973e+03
2.950556e+03,2.665160e+03
2.951520e+03,2.680363e+03
2.952484e+03,2.690669e+03
2.953449e+03,2.663343e+03
2.954413e+03,2.659060e+03
2.955377e+03,2.706035e+03
2.956341e+03,2.730422e+03
2.957306e+03,2.725420e+03
2.958270e+03,2.726098e+03
2.959234e+03,2.719718e+03
2.960198e+03,2.701549e+03
2.961163e+03,2.696690e+03
2.962127e+03,2.711966e+03
2.963091e+03,2.714037e+03
2.964055e+03,2.697445e+03
2.965020e+03,2.666645e+03
2.965984e+03,2.647873e+03
2.966948e+03,2.656236e+03
2.967912e+03,2.663861e+03
2.968876e+03,2.658817e+03
2.969841e+03,2.658892e+03
2.970805e+03,2.658825e+03
2.971769e+03,2.652437e+03
2.972733e+03,2.643025e+03
2.973698e+03,2.633251e+03
2.974662e+03,2.619017e+03
2.975626e+03,2.600170e+03
2.976590e+03,2.611907e+03
2.977554e+03,2.635587e+03
2.978519e+03,2.643425e+03
2.979483e+03,2.641059e+03
2.980447e+03,2.632570e+03
2.981411e+03,2.638664e+03
2.982376e+03,2.657285e+03
2.983340e+03,2.641885e+03
2.984304e+03,2.616538e+03
2.985268e+03,2.607994e+03
2.986233e+03,2.595919e+03
2.987197e+03,2.565184e+03
2.988161e+03,2.567854e+03
2.989125e+03,2.597009e+03
2.990090e+03,2.613909e+03
2.991054e+03,2.626300e+03
2.992018e+03,2.643490e+03
2.992982e+03,2.634930e+03
2.993947e+03,2.584336e+03
2.994911e+03,2.585303e+03
2.995875e+03,2.607999e+03
2.996839e+03,2.589562e+03
2.997803e+03,2.579849e+03
2.998768e+03,2.618423e+03
2.999732e+03,2.608841e+03
3.000696e+03,2.542897e+03
3.001660e+03,2.536312e+03
3.002625e+03,2.563656e+03
3.003589e+03,2.602281e+03
3.004553e+03,2.609825e+03
3.005517e+03,2.566144e+03
3.006481e+03,2.580527e+03
3.007446e+03,2.634165e+03
3.008410e+03,2.634534e+03
3.009374e+03,2.611745e+03
3.010338e+03,2.589292e+03
3.011303e+03,2.589444e+03
3.012267e+03,2.614031e+03
3.013231e+03,2.597063e+03
3.014195e+03,2.566277e+03
3.015160e+03,2.580758e+03
3.016124e+03,2.588097e+03
3.017088e+03,2.569300e+03
3.018052e+03,2.559827e+03
3.019017e+03,2.562962e+03
3.019981e+03,2.576688e+03
3.020945e+03,2.588263e+03
3.021909e+03,2.587049e+03
3.022874e+03,2.579099e+03
3.023838e+03,2.567044e+03
3.024802e+03,2.557635e+03
3.025766e+03,2.553469e+03
3.026730e+03,2.559511e+03
3.027695e+03,2.564560e+03
3.028659e+03,2.564513e+03
3.029623e+03,2.573934e+03
3.030587e+03,2.591194e+03
3.031552e+03,2.610647e+03
3.032516e+03,2.609520e+03
3.033480e+03,2.539735e+03
3.034444e+03,2.506053e+03
3.035408e+03,2.523773e+03
3.036373e+03,2.533831e+03
3.037337e+03,2.535503e+03
3.038301e+03,2.561143e+03
3.039265e+03,2.576872e+03
3.040230e+03,2.550803e+03
3.041194e+03,2.532084e+03
3.042158e+03,2.522497e+03
3.043122e+03,2.516137e+03
3.044087e+03,2.512896e+03
3.045051e+03,2.509184e+03
3.046015e+03,2.507021e+03
3.046979e+03,2.510329e+03
3.047944e+03,2.572036e+03
3.048908e+03,2.628994e+03
3.049872e+03,2.578021e+03
3.050836e+03,2.520128e+03
3.051801e+03,2.519622e+03
3.052765e+03,2.550763e+03
3.053729e+03,2.590412e+03
3.054693e+03,2.546630e+03
3.055657e+03,2.515733e+03
3.056622e+03,2.561849e+03
3.057586e+03,2.595542e+03
3.058550e+03,2.590442e+03
3.059514e+03,2.543137e+03
3.060479e+03,2.499130e+03
3.061443e+03,2.540135e+03
3.062407e+03,2.565577e+03
3.063371e+03,2.549347e+03
3.064335e+03,2.533578e+03
3.065300e+03,2.527797e+03
3.066264e+03,2.538417e+03
3.067228e+03,2.557499e+03
3.068192e+03,2.584445e+03
3.069157e+03,2.564997e+03
3.070121e+03,2.517571e+03
3.071085e+03,2.546505e+03
3.072049e+03,2.592298e+03
3.073014e+03,2.555483e+03
3.073978e+03,2.535422e+03
3.074942e+03,2.549921e+03
3.075906e+03,2.537365e+03
3.076871e+03,2.510331e+03
3.077835e+03,2.488617e+03
3.078799e+03,2.478719e+03
3.079763e+03,2.486450e+03
3.080728e+03,2.499279e+03
3.081692e+03,2.515391e+03
3.082656e+03,2.529358e+03
3.083620e+03,2.528073e+03
3.084584e+03,2.507208e+03
3.085549e+03,2.505374e+03
3.086513e+03,2.530910e+03
3.087477e+03,2.542908e+03
3.088441e+03,2.538437e+03
3.089406e+03,2.509605e+03
3.090370e+03,2.515851e+03
3.091334e+03,2.555698e+03
3.092298e+03,2.535979e+03
3.093262e+03,2.487478e+03
3.094227e+03,2.469996e+03
3.095191e+03,2.469714e+03
3.096155e+03,2.484990e+03
3.097119e+03,2.503915e+03
3.098084e+03,2.516274e+03
3.099048e+03,2.494407e+03
3.100012e+03,2.485272e+03
3.100976e+03,2.534299e+03
3.101941e+03,2.552160e+03
3.102905e+03,2.535156e+03
3.103869e+03,2.527480e+03
3.104833e+03,2.508388e+03
3.105798e+03,2.466732e+03
3.106762e+03,2.455417e+03
3.107726e+03,2.483643e+03
3.108690e+03,2.495432e+03
3.109655e+03,2.500017e+03
3.110619e+03,2.521103e+03
3.111583e+03,2.506878e+03
3.112547e+03,2.462986e+03
3.113511e+03,2.462429e+03
3.114476e+03,2.490542e+03
3.115440e+03,2.527190e+03
3.116404e+03,2.544441e+03
3.117368e+03,2.530781e+03
3.118333e+03,2.510296e+03
3.119297e+03,2.495056e+03
3.120261e+03,2.502987e+03
3.121225e+03,2.512858e+03
3.122189e+03,2.511491e+03
3.123154e+03,2.510203e+03
3.124118e+03,2.508109e+03
3.125082e+03,2.514950e+03
3.126046e+03,2.506600e+03
3.127011e+03,2.470125e+03
3.127975e+03,2.466898e+03
3.128939e+03,2.493035e+03
3.129903e+03,2.529519e+03
3.130868e+03,2.540138e+03
3.131832e+03,2.453525e+03
3.132796e+03,2.419324e+03
3.133760e+03,2.444022e+03
3.134725e+03,2.487165e+03
3.135689e+03,2.517013e+03
3.136653e+03,2.506655e+03
3.137617e+03,2.489327e+03
3.138582e+03,2.475709e+03
3.139546e+03,2.490732e+03
3.140510e+03,2.494825e+03
3.141474e+03,2.437530e+03
3.142438e+03,2.449065e+03
3.143403e+03,2.530150e+03
3.144367e+03,2.525759e+03
3.145331e+03,2.481698e+03
3.146295e+03,2.467500e+03
3.147260e+03,2.475399e+03
3.148224e+03,2.499802e+03
3.149188e+03,2.507324e+03
3.150152e+03,2.503421e+03
3.151116e+03,2.494012e+03
3.152081e+03,2.498406e+03
3.153045e+03,2.519577e+03
3.154009e+03,2.513949e+03
3.154973e+03,2.495799e+03
3.155938e+03,2.489650e+03
3.156902e+03,2.495499e+03
3.157866e+03,2.504720e+03
3.158830e+03,2.466603e+03
3.159795e+03,2.417505e+03
3.160759e+03,2.447244e+03
3.161723e+03,2.478384e+03
3.162687e+03,2.468157e+03
3.163652e+03,2.491577e+03
3.164616e+03,2.525095e+03
3.165580e+03,2.512450e+03
3.166544e+03,2.502087e+03
3.167509e+03,2.515941e+03
3.168473e+03,2.515533e+03
3.169437e+03,2.501890e+03
3.170401e+03,2.487273e+03
3.171365e+03,2.474693e+03
3.172330e+03,2.467428e+03
3.173294e+03,2.468126e+03
3.174258e+03,2.471214e+03
3.175222e+03,2.461564e+03
3.176187e+03,2.464600e+03
3.177151e+03,2.506364e+03
3.178115e+03,2.514028e+03
3.179079e+03,2.499056e+03
3.180043e+03,2.512914e+03
3.181008e+03,2.522779e+03
3.181972e+03,2.520116e+03
3.182936e+03,2.498942e+03
3.183900e+03,2.474835e+03
3.184865e+03,2.512121e+03
3.185829e+03,2.538628e+03
3.186793e+03,2.510635e+03
3.187757e+03,2.471948e+03
3.188722e+03,2.442897e+03
3.189686e+03,2.470634e+03
3.190650e+03,2.483965e+03
3.191614e+03,2.456376e+03
3.192579e+03,2.479238e+03
3.193543e+03,2.524396e+03
3.194507e+03,2.459720e+03
3.195471e+03,2.414977e+03
3.196436e+03,2.442939e+03
3.197400e+03,2.481809e+03
3.198364e+03,2.512462e+03
3.199328e+03,2.519529e+03
3.200292e+03,2.514688e+03
3.201257e+03,0.000000e+00
3.202221e+03,0.000000e+00
3.203185e+03,0.000000e+00
3.204149e+03,0.000000e+00
3.205114e+03,0.000000e+00
3.206078e+03,0.000000e+00
3.207042e+03,0.000000e+00
3.208006e+03,0.000000e+00
3.208970e+03,0.000000e+00
3.209935e+03,0.000000e+00
3.210899e+03,0.000000e+00
3.211863e+03,0.000000e+00
3.212827e+03,0.000000e+00
3.213792e+03,0.000000e+00
3.214756e+03,0.000000e+00
3.215720e+03,0.000000e+00
3.216684e+03,0.000000e+00
3.217649e+03,0.000000e+00
3.218613e+03,0.000000e+00
3.219577e+03,0.000000e+00
3.220541e+03,0.000000e+00
3.221506e+03,0.000000e+00
3.222470e+03,0.000000e+00
3.223434e+03,0.000000e+00
3.224398e+03,0.000000e+00
3.225363e+03,0.000000e+00
3.226327e+03,0.000000e+00
3.227291e+03,0.000000e+00
3.228255e+03,0.000000e+00
3.229219e+03,0.000000e+00
3.230184e+03,0.000000e+00
3.231148e+03,0.000000e+00
3.232112e+03,0.000000e+00
3.233076e+03,0.000000e+00
3.234041e+03,0.000000e+00
3.235005e+03,0.000000e+00
3.235969e+03,0.000000e+00
3.236933e+03,0.000000e+00
3.237897e+03,0.000000e+00
3.238862e+03,0.000000e+00
3.239826e+03,0.000000e+00
3.240790e+03,0.000000e+00
3.241754e+03,0.000000e+00
3.242719e+03,0.000000e+00
3.243683e+03,0.000000e+00
3.244647e+03,0.000000e+00
3.245611e+03,0.000000e+00
3.246576e+03,0.000000e+00
3.247540e+03,0.000000e+00
3.248504e+03,0.000000e+00
3.249468e+03,0.000000e+00
3.250433e+03,0.000000e+00
3.251397e+03,0.000000e+00
3.252361e+03,0.000000e+00
3.253325e+03,0.000000e+00
3.254290e+03,0.000000e+00
3.255254e+03,0.000000e+00
3.256218e+03,0.000000e+00
3.257182e+03,0.000000e+00
3.258146e+03,0.000000e+00
3.259111e+03,0.000000e+00
3.260075e+03,0.000000e+00
3.261039e+03,0.000000e+00
3.262003e+03,0.000000e+00
3.262968e+03,0.000000e+00
3.263932e+03,0.000000e+00
3.264896e+03,0.000000e+00
3.265860e+03,0.000000e+00
3.266824e+03,0.000000e+00
3.267789e+03,0.000000e+00
3.268753e+03,0.000000e+00
3.269717e+03,0.000000e+00
3.270681e+03,0.000000e+00
3.271646e+03,0.000000e+00
3.272610e+03,0.000000e+00
3.273574e+03,0.000000e+00
3.274538e+03,0.000000e+00
3.275503e+03,0.000000e+00
3.276467e+03,0.000000e+00
3.277431e+03,0.000000e+00
3.278395e+03,0.000000e+00
3.279360e+03,0.000000e+00
3.280324e+03,0.000000e+00
3.281288e+03,0.000000e+00
3.282252e+03,0.000000e+00
3.283217e+03,0.000000e+00
3.284181e+03,0.000000e+00
3.285145e+03,0.000000e+00
3.286109e+03,0.000000e+00
3.287073e+03,0.000000e+00
3.288038e+03,0.000000e+00
3.289002e+03,0.000000e+00
3.289966e+03,0.000000e+00
3.290930e+03,0.000000e+00
3.291895e+03,0.000000e+00
3.292859e+03,0.000000e+00
3.293823e+03,0.000000e+00
3.294787e+03,0.000000e+00
3.295751e+03,0.000000e+00
3.296716e+03,0.000000e+00
3.297680e+03,0.000000e+00
3.298644e+03,0.000000e+00
3.299608e+03,0.000000e+00
3.300573e+03,0.000000e+00
3.301537e+03,0.000000e+00
3.302501e+03,0.000000e+00
3.303465e+03,0.000000e+00
3.304430e+03,0.000000e+00
3.305394e+03,0.000000e+00
3.306358e+03,0.000000e+00
3.307322e+03,0.000000e+00
3.308287e+03,0.000000e+00
3.309251e+03,0.000000e+00
3.310215e+03,0.000000e+00
3.311179e+03,0.000000e+00
3.312144e+03,0.000000e+00
3.313108e+03,0.000000e+00
3.314072e+03,0.000000e+00
3.315036e+03,0.000000e+00
3.316000e+03,0.000000e+00
3.316965e+03,0.000000e+00
3.317929e+03,0.000000e+00
3.318893e+03,0.000000e+00
3.319857e+03,0.000000e+00
3.320822e+03,0.000000e+00
3.321786e+03,0.000000e+00
3.322750e+03,0.000000e+00
3.323714e+03,0.000000e+00
3.324678e+03,0.000000e+00
3.325643e+03,0.000000e+00
3.326607e+03,0.000000e+00
3.327571e+03,0.000000e+00
3.328535e+03,0.000000e+00
3.329500e+03,0.000000e+00
3.330464e+03,0.000000e+00
3.331428e+03,0.000000e+00
3.332392e+03,0.000000e+00
3.333357e+03,0.000000e+00
3.334321e+03,0.000000e+00
3.335285e+03,0.000000e+00
3.336249e+03,0.000000e+00
3.337214e+03,0.000000e+00
3.338178e+03,0.000000e+00
3.339142e+03,0.000000e+00
3.340106e+03,0.000000e+00
3.341071e+03,0.000000e+00
3.342035e+03,0.000000e+00
3.342999e+03,0.000000e+00
3.343963e+03,0.000000e+00
3.344927e+03,0.000000e+00
3.345892e+03,0.000000e+00
3.346856e+03,0.000000e+00
3.347820e+03,0.000000e+00
3.348784e+03,0.000000e+00
3.349749e+03,0.000000e+00
3.350713e+03,0.000000e+00
3.351677e+03,0.000000e+00
3.352641e+03,0.000000e+00
3.353605e+03,0.000000e+00
3.354570e+03,0.000000e+00
3.355534e+03,0.000000e+00
3.356498e+03,0.000000e+00
3.357462e+03,0.000000e+00
3.358427e+03,0.000000e+00
3.359391e+03,0.000000e+00
3.360355e+03,0.000000e+00
3.361319e+03,0.000000e+00
3.362284e+03,0.000000e+00
3.363248e+03,0.000000e+00
3.364212e+03,0.000000e+00
3.365176e+03,0.000000e+00
3.366141e+03,0.000000e+00
3.367105e+03,0.000000e+00
3.368069e+03,0.000000e+00
3.369033e+03,0.000000e+00
3.369998e+03,0.000000e+00
3.370962e+03,0.000000e+00
3.371926e+03,0.000000e+00
3.372890e+03,0.000000e+00
3.373854e+03,0.000000e+00
3.374819e+03,0.000000e+00
3.375783e+03,0.000000e+00
3.376747e+03,0.000000e+00
3.377711e+03,0.000000e+00
3.378676e+03,0.000000e+00
3.379640e+03,0.000000e+00
3.380604e+03,0.000000e+00
3.381568e+03,0.000000e+00
3.382532e+03,0.000000e+00
3.383497e+03,0.000000e+00
3.384461e+03,0.000000e+00
3.385425e+03,0.000000e+00
3.386389e+03,0.000000e+00
3.387354e+03,0.000000e+00
3.388318e+03,0.000000e+00
3.389282e+03,0.000000e+00
3.390246e+03,0.000000e+00
3.391211e+03,0.000000e+00
3.392175e+03,0.000000e+00
3.393139e+03,0.000000e+00
3.394103e+03,0.000000e+00
3.395068e+03,0.000000e+00
3.396032e+03,0.000000e+00
3.396996e+03,0.000000e+00
3.397960e+03,0.000000e+00
3.398925e+03,0.000000e+00
3.399889e+03,0.000000e+00
3.400853e+03,0.000000e+00
3.401817e+03,0.000000e+00
3.402781e+03,0.000000e+00
3.403746e+03,0.000000e+00
3.404710e+03,0.000000e+00
3.405674e+03,0.000000e+00
3.406638e+03,0.000000e+00
3.407603e+03,0.000000e+00
3.408567e+03,0.000000e+00
3.409531e+03,0.000000e+00
3.410495e+03,0.000000e+00
3.411459e+03,0.000000e+00
3.412424e+03,0.000000e+00
3.413388e+03,0.000000e+00
3.414352e+03,0.000000e+00
3.415316e+03,0.000000e+00
3.416281e+03,0.000000e+00
3.417245e+03,0.000000e+00
3.418209e+03,0.000000e+00
3.419173e+03,0.000000e+00
3.420138e+03,0.000000e+00
3.421102e+03,0.000000e+00
3.422066e+03,0.000000e+00
3.423030e+03,0.000000e+00
3.423995e+03,0.000000e+00
3.424959e+03,0.000000e+00
3.425923e+03,0.000000e+00
3.426887e+03,0.000000e+00
3.427852e+03,0.000000e+00
3.428816e+03,0.000000e+00
3.429780e+03,0.000000e+00
3.430744e+03,0.000000e+00
3.431708e+03,0.000000e+00
3.432673e+03,0.000000e+00
3.433637e+03,0.000000e+00
3.434601e+03,0.000000e+00
3.435565e+03,0.000000e+00
3.436530e+03,0.000000e+00
3.437494e+03,0.000000e+00
3.438458e+03,0.000000e+00
3.439422e+03,0.000000e+00
3.440386e+03,0.000000e+00
3.441351e+03,0.000000e+00
3.442315e+03,0.000000e+00
3.443279e+03,0.000000e+00
3.444243e+03,0.000000e+00
3.445208e+03,0.000000e+00
3.446172e+03,0.000000e+00
3.447136e+03,0.000000e+00
3.448100e+03,0.000000e+00
3.449065e+03,0.000000e+00
3.450029e+03,0.000000e+00
3.450993e+03,0.000000e+00
3.451957e+03,0.000000e+00
3.452922e+03,0.000000e+00
3.453886e+03,0.000000e+00
3.454850e+03,0.000000e+00
3.455814e+03,0.000000e+00
3.456779e+03,0.000000e+00
3.457743e+03,0.000000e+00
3.458707e+03,0.000000e+00
3.459671e+03,0.000000e+00
3.460635e+03,0.000000e+00
3.461600e+03,0.000000e+00
3.462564e+03,0.000000e+00
3.463528e+03,0.000000e+00
3.464492e+03,0.000000e+00
3.465457e+03,0.000000e+00
3.466421e+03,0.000000e+00
3.467385e+03,0.000000e+00
3.468349e+03,0.000000e+00
3.469313e+03,0.000000e+00
3.470278e+03,0.000000e+00
3.471242e+03,0.000000e+00
3.472206e+03,0.000000e+00
3.473170e+03,0.000000e+00
3.474135e+03,0.000000e+00
3.475099e+03,0.000000e+00
3.476063e+03,0.000000e+00
3.477027e+03,0.000000e+00
3.477992e+03,0.000000e+00
3.478956e+03,0.000000e+00
3.479920e+03,0.000000e+00
3.480884e+03,0.000000e+00
3.481849e+03,0.000000e+00
3.482813e+03,0.000000e+00
3.483777e+03,0.000000e+00
3.484741e+03,0.000000e+00
3.485706e+03,0.000000e+00
3.486670e+03,0.000000e+00
3.487634e+03,0.000000e+00
3.488598e+03,0.000000e+00
3.489563e+03,0.000000e+00
3.490527e+03,0.000000e+00
3.491491e+03,0.000000e+00
3.492455e+03,0.000000e+00
3.493419e+03,0.000000e+00
3.494384e+03,0.000000e+00
3.495348e+03,0.000000e+00
3.496312e+03,0.000000e+00
3.497276e+03,0.000000e+00
3.498240e+03,0.000000e+00
3.499205e+03,0.000000e+00
3.500169e+03,0.000000e+00
