9.931763e+01,0.000000e+00
1.002819e+02,0.000000e+00
1.012461e+02,0.000000e+00
1.022103e+02,0.000000e+00
1.031746e+02,0.000000e+00
1.041388e+02,0.000000e+00
1.051030e+02,0.000000e+00
1.060673e+02,0.000000e+00
1.070315e+02,0.000000e+00
1.079957e+02,0.000000e+00
1.089600e+02,0.000000e+00
1.099242e+02,0.000000e+00
1.108884e+02,0.000000e+00
1.118527e+02,0.000000e+00
1.128169e+02,0.000000e+00
1.137811e+02,0.000000e+00
1.147454e+02,0.000000e+00
1.157096e+02,0.000000e+00
1.166738e+02,0.000000e+00
1.176381e+02,0.000000e+00
1.186023e+02,0.000000e+00
1.195665e+02,0.000000e+00
1.205308e+02,0.000000e+00
1.214950e+02,0.000000e+00
1.224592e+02,0.000000e+00
1.234235e+02,0.000000e+00
1.243877e+02,0.000000e+00
1.253519e+02,0.000000e+00
1.263162e+02,0.000000e+00
1.272804e+02,0.000000e+00
1.282446e+02,0.000000e+00
1.292089e+02,0.000000e+00
1.301731e+02,0.000000e+00
1.311373e+02,0.000000e+00
1.321016e+02,0.000000e+00
1.330658e+02,0.000000e+00
1.340300e+02,0.000000e+00
1.349943e+02,0.000000e+00
1.359585e+02,0.000000e+00
1.369227e+02,0.000000e+00
1.378870e+02,0.000000e+00
1.388512e+02,0.000000e+00
1.398154e+02,0.000000e+00
1.407797e+02,0.000000e+00
1.417439e+02,0.000000e+00
1.427081e+02,0.000000e+00
1.436724e+02,0.000000e+00
1.446366e+02,0.000000e+00
1.456008e+02,0.000000e+00
1.465651e+02,0.000000e+00
1.475293e+02,0.000000e+00
1.484935e+02,0.000000e+00
1.494578e+02,0.000000e+00
1.504220e+02,0.000000e+00
1.513862e+02,0.000000e+00
1.523505e+02,0.000000e+00
1.533147e+02,0.000000e+00
1.542789e+02,0.000000e+00
1.552432e+02,0.000000e+00
1.562074e+02,0.000000e+00
1.571716e+02,0.000000e+00
1.581359e+02,0.000000e+00
1.591001e+02,0.000000e+00
1.600643e+02,0.000000e+00
1.610286e+02,0.000000e+00
1.619928e+02,0.000000e+00
1.629570e+02,0.000000e+00
1.639213e+02,0.000000e+00
1.648855e+02,0.000000e+00
1.658497e+02,0.000000e+00
1.668140e+02,0.000000e+00
1.677782e+02,0.000000e+00
1.687424e+02,0.000000e+00
1.697067e+02,0.000000e+00
1.706709e+02,0.000000e+00
1.716351e+02,0.000000e+00
1.725994e+02,0.000000e+00
1.735636e+02,0.000000e+00
1.745278e+02,0.000000e+00
1.754921e+02,0.000000e+00
1.764563e+02,0.000000e+00
1.774205e+02,0.000000e+00
1.783848e+02,0.000000e+00
1.793490e+02,0.000000e+00
1.803132e+02,0.000000e+00
1.812775e+02,0.000000e+00
1.822417e+02,0.000000e+00
1.832059e+02,0.000000e+00
1.841702e+02,0.000000e+00
1.851344e+02,0.000000e+00
1.860986e+02,0.000000e+00
1.870629e+02,0.000000e+00
1.880271e+02,0.000000e+00
1.889913e+02,0.000000e+00
1.899556e+02,0.000000e+00
1.909198e+02,0.000000e+00
1.918840e+02,0.000000e+00
1.928483e+02,0.000000e+00
1.938125e+02,0.000000e+00
1.947767e+02,0.000000e+00
1.957410e+02,0.000000e+00
1.967052e+02,0.000000e+00
1.976694e+02,0.000000e+00
1.986337e+02,0.000000e+00
1.995979e+02,1.046964e+04
2.005621e+02,1.047981e+04
2.015264e+02,1.049152e+04
2.024906e+02,1.050564e+04
2.034548e+02,1.052034e+04
2.044191e+02,1.053340e+04
2.053833e+02,1.054303e+04
2.063475e+02,1.054905e+04
2.073118e+02,1.055229e+04
2.082760e+02,1.055275e+04
2.092402e+02,1.055023e+04
2.102045e+02,1.054658e+04
2.111687e+02,1.054622e+04
2.121329e+02,1.055114e+04
2.130972e+02,1.056043e+04
2.140614e+02,1.057110e+04
2.150256e+02,1.057994e+04
2.159899e+02,1.058612e+04
2.169541e+02,1.059435e+04
2.179183e+02,1.060919e+04
2.188826e+02,1.062824e+04
2.198468e+02,1.064671e+04
2.208110e+02,1.066058e+04
2.217753e+02,1.066859e+04
2.227395e+02,1.067257e+04
2.237037e+02,1.067718e+04
2.246680e+02,1.068221e+04
2.256322e+02,1.068503e+04
2.265964e+02,1.068749e+04
2.275607e+02,1.069241e+04
2.285249e+02,1.070199e+04
2.294892e+02,1.071674e+04
2.304534e+02,1.073503e+04
2.314176e+02,1.075159e+04
2.323819e+02,1.076485e+04
2.333461e+02,1.077655e+04
2.343103e+02,1.078854e+04
2.352746e+02,1.080180e+04
2.362388e+02,1.081599e+04
2.372030e+02,1.082920e+04
2.381673e+02,1.083688e+04
2.391315e+02,1.083789e+04
2.400957e+02,1.083586e+04
2.410600e+02,1.083374e+04
2.420242e+02,1.083454e+04
2.429884e+02,1.084039e+04
2.439527e+02,1.085114e+04
2.449169e+02,1.086350e+04
2.458811e+02,1.087555e+04
2.468454e+02,1.088743e+04
2.478096e+02,1.089928e+04
2.487738e+02,1.091119e+04
2.497381e+02,1.092293e+04
2.507023e+02,1.093465e+04
2.516665e+02,1.094691e+04
2.526308e+02,1.095972e+04
2.535950e+02,1.096986e+04
2.545592e+02,1.097477e+04
2.555235e+02,1.097477e+04
2.564877e+02,1.097263e+04
2.574519e+02,1.097223e+04
2.584161e+02,1.097703e+04
2.593804e+02,1.098841e+04
2.603446e+02,1.100378e+04
2.613088e+02,1.102010e+04
2.622731e+02,1.103715e+04
2.632373e+02,1.105562e+04
2.642015e+02,1.107264e+04
2.651658e+02,1.108527e+04
2.661300e+02,1.109288e+04
2.670942e+02,1.109793e+04
2.680585e+02,1.110515e+04
2.690227e+02,1.111871e+04
2.699869e+02,1.113241e+04
2.709512e+02,1.114052e+04
2.719154e+02,1.114331e+04
2.728796e+02,1.114520e+04
2.738439e+02,1.115154e+04
2.748081e+02,1.116541e+04
2.757723e+02,1.118599e+04
2.767366e+02,1.120554e+04
2.777008e+02,1.121963e+04
2.786650e+02,1.122956e+04
2.796293e+02,1.123792e+04
2.805935e+02,1.124688e+04
2.815577e+02,1.125743e+04
2.825220e+02,1.126901e+04
2.834862e+02,1.127886e+04
2.844504e+02,1.128402e+04
2.854147e+02,1.128623e+04
2.863789e+02,1.128756e+04
2.873431e+02,1.129060e+04
2.883074e+02,1.129709e+04
2.892716e+02,1.130667e+04
2.902358e+02,1.131700e+04
2.912001e+02,1.132663e+04
2.921643e+02,1.133578e+04
2.931285e+02,1.134644e+04
2.940928e+02,1.135958e+04
2.950570e+02,1.137532e+04
2.960212e+02,1.139113e+04
2.969855e+02,1.140364e+04
2.979497e+02,1.141115e+04
2.989139e+02,1.141448e+04
2.998782e+02,1.141725e+04
3.008424e+02,1.142350e+04
3.018066e+02,1.143413e+04
3.027709e+02,1.144636e+04
3.037351e+02,1.145768e+04
3.046993e+02,1.146692e+04
3.056636e+02,1.147431e+04
3.066278e+02,1.148101e+04
3.075920e+02,1.148884e+04
3.085563e+02,1.149845e+04
3.095205e+02,1.151189e+04
3.104847e+02,1.152890e+04
3.114490e+02,1.154741e+04
3.124132e+02,1.156491e+04
3.133774e+02,1.157925e+04
3.143417e+02,1.158917e+04
3.153059e+02,1.159377e+04
3.162701e+02,1.159601e+04
3.172344e+02,1.159868e+04
3.181986e+02,1.160278e+04
3.191628e+02,1.160888e+04
3.201271e+02,1.161750e+04
3.210913e+02,1.162868e+04
3.220555e+02,1.164175e+04
3.230198e+02,1.165575e+04
3.239840e+02,1.167008e+04
3.249482e+02,1.168424e+04
3.259125e+02,1.169771e+04
3.268767e+02,1.171076e+04
3.278409e+02,1.172364e+04
3.288052e+02,1.173625e+04
3.297694e+02,1.174823e+04
3.307336e+02,1.175929e+04
3.316979e+02,1.176965e+04
3.326621e+02,1.177917e+04
3.336263e+02,1.178546e+04
3.345906e+02,1.178808e+04
3.355548e+02,1.179020e+04
3.365190e+02,1.179593e+04
3.374833e+02,1.180784e+04
3.384475e+02,1.182536e+04
3.394117e+02,1.184477e+04
3.403760e+02,1.186072e+04
3.413402e+02,1.187475e+04
3.423044e+02,1.189110e+04
3.432687e+02,1.191061e+04
3.442329e+02,1.193150e+04
3.451971e+02,1.195065e+04
3.461614e+02,1.196491e+04
3.471256e+02,1.197256e+04
3.480898e+02,1.197636e+04
3.490541e+02,1.197884e+04
3.500183e+02,1.198235e+04
3.509825e+02,1.198931e+04
3.519468e+02,1.200161e+04
3.529110e+02,1.201902e+04
3.538752e+02,1.203903e+04
3.548395e+02,1.205831e+04
3.558037e+02,1.207473e+04
3.567680e+02,1.208796e+04
3.577322e+02,1.209937e+04
3.586964e+02,1.211193e+04
3.596607e+02,1.212734e+04
3.606249e+02,1.214420e+04
3.615891e+02,1.215814e+04
3.625534e+02,1.216518e+04
3.635176e+02,1.216445e+04
3.644818e+02,1.215827e+04
3.654461e+02,1.215143e+04
3.664103e+02,1.215042e+04
3.673745e+02,1.215997e+04
3.683388e+02,1.217766e+04
3.693030e+02,1.219936e+04
3.702672e+02,1.222116e+04
3.712315e+02,1.224066e+04
3.721957e+02,1.225655e+04
3.731599e+02,1.226728e+04
3.741242e+02,1.227460e+04
3.750884e+02,1.228331e+04
3.760526e+02,1.229588e+04
3.770169e+02,1.231209e+04
3.779811e+02,1.232940e+04
3.789453e+02,1.234456e+04
3.799096e+02,1.235504e+04
3.808738e+02,1.236076e+04
3.818380e+02,1.236471e+04
3.828023e+02,1.237077e+04
3.837665e+02,1.238138e+04
3.847307e+02,1.239503e+04
3.856950e+02,1.241141e+04
3.866592e+02,1.242942e+04
3.876234e+02,1.244819e+04
3.885877e+02,1.246715e+04
3.895519e+02,1.248583e+04
3.905161e+02,1.250335e+04
3.914804e+02,1.251785e+04
3.924446e+02,1.252842e+04
3.934088e+02,1.253764e+04
3.943731e+02,1.254676e+04
3.953373e+02,1.255638e+04
3.963015e+02,1.256497e+04
3.972658e+02,1.256984e+04
3.982300e+02,1.257114e+04
3.991942e+02,1.257473e+04
4.001585e+02,1.258653e+04
4.011227e+02,1.260720e+04
4.020869e+02,1.262652e+04
4.030512e+02,1.263860e+04
4.040154e+02,1.264400e+04
4.049796e+02,1.264777e+04
4.059439e+02,1.265197e+04
4.069081e+02,1.265636e+04
4.078723e+02,1.266064e+04
4.088366e+02,1.266040e+04
4.098008e+02,1.265835e+04
4.107650e+02,1.266413e+04
4.117293e+02,1.267844e+04
4.126935e+02,1.269296e+04
4.136577e+02,1.270606e+04
4.146220e+02,1.271696e+04
4.155862e+02,1.272380e+04
4.165504e+02,1.272616e+04
4.175147e+02,1.272790e+04
4.184789e+02,1.273436e+04
4.194431e+02,1.275185e+04
4.204074e+02,1.276549e+04
4.213716e+02,1.277354e+04
4.223358e+02,1.277787e+04
4.233001e+02,1.278053e+04
4.242643e+02,1.278339e+04
4.252285e+02,1.278675e+04
4.261928e+02,1.278866e+04
4.271570e+02,1.278796e+04
4.281212e+02,1.279154e+04
4.290855e+02,1.280172e+04
4.300497e+02,1.281544e+04
4.310139e+02,1.282875e+04
4.319782e+02,1.284297e+04
4.329424e+02,1.285823e+04
4.339066e+02,1.287293e+04
4.348709e+02,1.288537e+04
4.358351e+02,1.289443e+04
4.367993e+02,1.289913e+04
4.377636e+02,1.289697e+04
4.387278e+02,1.289946e+04
4.396920e+02,1.291170e+04
4.406563e+02,1.292823e+04
4.416205e+02,1.294492e+04
4.425847e+02,1.295986e+04
4.435490e+02,1.297178e+04
4.445132e+02,1.297903e+04
4.454774e+02,1.298201e+04
4.464417e+02,1.298831e+04
4.474059e+02,1.299997e+04
4.483701e+02,1.301153e+04
4.493344e+02,1.301869e+04
4.502986e+02,1.302226e+04
4.512628e+02,1.302509e+04
4.522271e+02,1.302800e+04
4.531913e+02,1.303113e+04
4.541555e+02,1.303515e+04
4.551198e+02,1.304032e+04
4.560840e+02,1.304727e+04
4.570482e+02,1.304772e+04
4.580125e+02,1.304035e+04
4.589767e+02,1.303910e+04
4.599409e+02,1.304554e+04
4.609052e+02,1.305542e+04
4.618694e+02,1.306417e+04
4.628336e+02,1.307199e+04
4.637979e+02,1.307924e+04
4.647621e+02,1.308045e+04
4.657263e+02,1.307528e+04
4.666906e+02,1.307304e+04
4.676548e+02,1.307832e+04
4.686190e+02,1.309128e+04
4.695833e+02,1.310159e+04
4.705475e+02,1.310232e+04
4.715117e+02,1.309750e+04
4.724760e+02,1.309439e+04
4.734402e+02,1.309638e+04
4.744044e+02,1.310197e+04
4.753687e+02,1.310630e+04
4.763329e+02,1.310877e+04
4.772971e+02,1.311148e+04
4.782614e+02,1.311149e+04
4.792256e+02,1.311379e+04
4.801898e+02,1.312394e+04
4.811541e+02,1.314698e+04
4.821183e+02,1.317347e+04
4.830826e+02,1.318996e+04
4.840468e+02,1.319487e+04
4.850110e+02,1.319631e+04
4.859753e+02,1.320185e+04
4.869395e+02,1.321111e+04
4.879037e+02,1.321221e+04
4.888680e+02,1.319980e+04
4.898322e+02,1.318686e+04
4.907964e+02,1.318102e+04
4.917607e+02,1.318299e+04
4.927249e+02,1.318878e+04
4.936891e+02,1.319577e+04
4.946534e+02,1.320385e+04
4.956176e+02,1.320677e+04
4.965818e+02,1.320173e+04
4.975461e+02,1.319494e+04
4.985103e+02,1.319026e+04
4.994745e+02,1.318575e+04
5.004388e+02,1.317817e+04
5.014030e+02,1.316528e+04
5.023672e+02,1.315305e+04
5.033315e+02,1.315166e+04
5.042957e+02,1.316454e+04
5.052599e+02,1.318138e+04
5.062242e+02,1.318255e+04
5.071884e+02,1.315645e+04
5.081526e+02,1.313761e+04
5.091169e+02,1.313771e+04
5.100811e+02,1.314758e+04
5.110453e+02,1.315398e+04
5.120095e+02,1.315227e+04
5.129738e+02,1.314803e+04
5.139380e+02,1.314607e+04
5.149022e+02,1.314688e+04
5.158665e+02,1.315240e+04
5.168307e+02,1.316053e+04
5.177949e+02,1.316471e+04
5.187592e+02,1.316076e+04
5.197234e+02,1.316091e+04
5.206876e+02,1.316252e+04
5.216519e+02,1.316431e+04
5.226161e+02,1.316720e+04
5.235803e+02,1.317139e+04
5.245446e+02,1.317816e+04
5.255088e+02,1.318640e+04
5.264730e+02,1.318819e+04
5.274373e+02,1.317985e+04
5.284015e+02,1.317068e+04
5.293657e+02,1.316826e+04
5.303300e+02,1.317475e+04
5.312942e+02,1.317370e+04
5.322584e+02,1.316424e+04
5.332227e+02,1.315396e+04
5.341869e+02,1.314452e+04
5.351511e+02,1.313432e+04
5.361154e+02,1.312555e+04
5.370796e+02,1.312446e+04
5.380438e+02,1.313474e+04
5.390081e+02,1.314591e+04
5.399723e+02,1.316165e+04
5.409365e+02,1.317715e+04
5.419008e+02,1.318281e+04
5.428650e+02,1.316596e+04
5.438292e+02,1.315231e+04
5.447935e+02,1.316309e+04
5.457577e+02,1.318756e+04
5.467219e+02,1.320417e+04
5.476862e+02,1.320467e+04
5.486504e+02,1.319120e+04
5.496146e+02,1.316963e+04
5.505789e+02,1.312939e+04
5.515431e+02,1.309639e+04
5.525073e+02,1.308483e+04
5.534716e+02,1.308984e+04
5.544358e+02,1.309742e+04
5.554000e+02,1.309604e+04
5.563643e+02,1.309172e+04
5.573285e+02,1.309074e+04
5.582927e+02,1.309136e+04
5.592570e+02,1.309105e+04
5.602212e+02,1.308931e+04
5.611854e+02,1.308516e+04
5.621497e+02,1.308740e+04
5.631139e+02,1.310721e+04
5.640781e+02,1.311632e+04
5.650424e+02,1.310679e+04
5.660066e+02,1.308325e+04
5.669708e+02,1.305928e+04
5.679351e+02,1.304485e+04
5.688993e+02,1.303689e+04
5.698635e+02,1.302840e+04
5.708278e+02,1.301996e+04
5.717920e+02,1.301574e+04
5.727562e+02,1.301645e+04
5.737205e+02,1.301971e+04
5.746847e+02,1.302498e+04
5.756489e+02,1.303229e+04
5.766132e+02,1.303800e+04
5.775774e+02,1.304254e+04
5.785416e+02,1.304617e+04
5.795059e+02,1.304633e+04
5.804701e+02,1.303896e+04
5.814343e+02,1.302623e+04
5.823986e+02,1.301599e+04
5.833628e+02,1.301111e+04
5.843270e+02,1.300803e+04
5.852913e+02,1.300030e+04
5.862555e+02,1.297674e+04
5.872197e+02,1.296609e+04
5.881840e+02,1.297811e+04
5.891482e+02,1.299431e+04
5.901124e+02,1.299790e+04
5.910767e+02,1.298227e+04
5.920409e+02,1.296609e+04
5.930051e+02,1.297162e+04
5.939694e+02,1.299335e+04
5.949336e+02,1.300503e+04
5.958978e+02,1.299737e+04
5.968621e+02,1.297792e+04
5.978263e+02,1.296509e+04
5.987905e+02,1.297424e+04
5.997548e+02,1.297582e+04
6.007190e+02,1.296030e+04
6.016832e+02,1.294119e+04
6.026475e+02,1.293234e+04
6.036117e+02,1.293950e+04
6.045759e+02,1.295053e+04
6.055402e+02,1.294932e+04
6.065044e+02,1.293569e+04
6.074686e+02,1.292390e+04
6.084329e+02,1.292408e+04
6.093971e+02,1.293405e+04
6.103613e+02,1.293681e+04
6.113256e+02,1.293140e+04
6.122899e+02,1.292054e+04
6.132541e+02,1.290254e+04
6.142183e+02,1.287915e+04
6.151826e+02,1.285387e+04
6.161468e+02,1.282280e+04
6.171110e+02,1.279964e+04
6.180753e+02,1.280548e+04
6.190395e+02,1.283607e+04
6.200037e+02,1.286163e+04
6.209680e+02,1.286186e+04
6.219322e+02,1.284025e+04
6.228964e+02,1.283260e+04
6.238607e+02,1.285307e+04
6.248249e+02,1.287069e+04
6.257891e+02,1.287167e+04
6.267534e+02,1.285643e+04
6.277176e+02,1.283654e+04
6.286818e+02,1.281945e+04
6.296461e+02,1.280567e+04
6.306103e+02,1.279353e+04
6.315745e+02,1.278395e+04
6.325388e+02,1.277965e+04
6.335030e+02,1.278150e+04
6.344672e+02,1.278782e+04
6.354315e+02,1.279064e+04
6.363957e+02,1.278438e+04
6.373599e+02,1.277446e+04
6.383242e+02,1.276723e+04
6.392884e+02,1.276384e+04
6.402526e+02,1.275956e+04
6.412169e+02,1.275157e+04
6.421811e+02,1.274196e+04
6.431453e+02,1.273241e+04
6.441096e+02,1.272297e+04
6.450738e+02,1.271377e+04
6.460380e+02,1.270740e+04
6.470023e+02,1.270667e+04
6.479665e+02,1.270656e+04
6.489307e+02,1.270291e+04
6.498950e+02,1.269850e+04
6.508592e+02,1.269339e+04
6.518234e+02,1.268556e+04
6.527877e+02,1.267931e+04
6.537519e+02,1.268006e+04
6.547161e+02,1.268126e+04
6.556804e+02,1.267957e+04
6.566446e+02,1.267474e+04
6.576088e+02,1.266552e+04
6.585731e+02,1.264609e+04
6.595373e+02,1.261917e+04
6.605015e+02,1.260154e+04
6.614658e+02,1.259601e+04
6.624300e+02,1.259717e+04
6.633942e+02,1.259970e+04
6.643585e+02,1.260113e+04
6.653227e+02,1.260883e+04
6.662869e+02,1.263176e+04
6.672512e+02,1.265037e+04
6.682154e+02,1.264912e+04
6.691796e+02,1.262498e+04
6.701439e+02,1.259948e+04
6.711081e+02,1.259176e+04
6.720723e+02,1.259370e+04
6.730366e+02,1.258998e+04
6.740008e+02,1.257950e+04
6.749650e+02,1.256459e+04
6.759293e+02,1.254713e+04
6.768935e+02,1.252726e+04
6.778577e+02,1.250997e+04
6.788220e+02,1.249648e+04
6.797862e+02,1.249210e+04
6.807504e+02,1.249831e+04
6.817147e+02,1.251462e+04
6.826789e+02,1.252365e+04
6.836431e+02,1.250677e+04
6.846074e+02,1.248028e+04
6.855716e+02,1.246950e+04
6.865358e+02,1.248038e+04
6.875001e+02,1.249272e+04
6.884643e+02,1.247667e+04
6.894285e+02,1.243310e+04
6.903928e+02,1.240631e+04
6.913570e+02,1.240426e+04
6.923212e+02,1.241173e+04
6.932855e+02,1.241423e+04
6.942497e+02,1.241297e+04
6.952139e+02,1.241510e+04
6.961782e+02,1.242176e+04
6.971424e+02,1.242810e+04
6.981066e+02,1.242727e+04
6.990709e+02,1.241344e+04
7.000351e+02,1.239306e+04
7.009993e+02,1.237393e+04
7.019636e+02,1.236099e+04
7.029278e+02,1.236063e+04
7.038920e+02,1.237359e+04
7.048563e+02,1.238582e+04
7.058205e+02,1.238184e+04
7.067847e+02,1.236048e+04
7.077490e+02,1.234473e+04
7.087132e+02,1.234745e+04
7.096774e+02,1.235656e+04
7.106417e+02,1.235018e+04
7.116059e+02,1.232060e+04
7.125701e+02,1.229692e+04
7.135344e+02,1.228929e+04
7.144986e+02,1.229392e+04
7.154628e+02,1.231070e+04
7.164271e+02,1.233654e+04
7.173913e+02,1.235534e+04
7.183555e+02,1.234678e+04
7.193198e+02,1.231576e+04
7.202840e+02,1.228880e+04
7.212482e+02,1.227035e+04
7.222125e+02,1.226009e+04
7.231767e+02,1.225716e+04
7.241409e+02,1.226400e+04
7.251052e+02,1.226116e+04
7.260694e+02,1.223807e+04
7.270336e+02,1.221242e+04
7.279979e+02,1.219632e+04
7.289621e+02,1.219060e+04
7.299263e+02,1.218758e+04
7.308906e+02,1.218294e+04
7.318548e+02,1.217761e+04
7.328190e+02,1.217525e+04
7.337833e+02,1.217593e+04
7.347475e+02,1.217536e+04
7.357117e+02,1.217150e+04
7.366760e+02,1.216667e+04
7.376402e+02,1.216279e+04
7.386044e+02,1.216108e+04
7.395687e+02,1.215882e+04
7.405329e+02,1.215082e+04
7.414971e+02,1.213427e+04
7.424614e+02,1.212040e+04
7.434256e+02,1.211417e+04
7.443898e+02,1.211837e+04
7.453541e+02,1.213490e+04
7.463183e+02,1.215544e+04
7.472825e+02,1.216208e+04
7.482468e+02,1.213825e+04
7.492110e+02,1.210341e+04
7.501752e+02,1.208202e+04
7.511395e+02,1.207899e+04
7.521037e+02,1.208469e+04
7.530679e+02,1.209001e+04
7.540322e+02,1.209097e+04
7.549964e+02,1.207740e+04
7.559606e+02,1.204642e+04
7.569249e+02,1.202082e+04
7.578891e+02,1.201675e+04
7.588533e+02,1.203679e+04
7.598176e+02,1.205455e+04
7.607818e+02,1.205521e+04
7.617460e+02,1.204886e+04
7.627103e+02,1.204511e+04
7.636745e+02,1.204654e+04
7.646387e+02,1.204550e+04
7.656030e+02,1.203442e+04
7.665672e+02,1.202224e+04
7.675314e+02,1.201051e+04
7.684957e+02,1.199299e+04
7.694599e+02,1.196909e+04
7.704241e+02,1.194359e+04
7.713884e+02,1.192304e+04
7.723526e+02,1.191636e+04
7.733168e+02,1.192737e+04
7.742811e+02,1.194478e+04
7.752453e+02,1.195804e+04
7.762095e+02,1.196389e+04
7.771738e+02,1.196736e+04
7.781380e+02,1.196803e+04
7.791022e+02,1.195704e+04
7.800665e+02,1.192936e+04
7.810307e+02,1.189565e+04
7.819949e+02,1.187176e+04
7.829592e+02,1.187246e+04
7.839234e+02,1.188041e+04
7.848876e+02,1.188878e+04
7.858519e+02,1.189438e+04
7.868161e+02,1.189382e+04
7.877803e+02,1.188542e+04
7.887446e+02,1.187057e+04
7.897088e+02,1.184801e+04
7.906730e+02,1.182445e+04
7.916373e+02,1.182215e+04
7.926015e+02,1.184581e+04
7.935657e+02,1.187340e+04
7.945300e+02,1.187352e+04
7.954942e+02,1.183862e+04
7.964584e+02,1.180873e+04
7.974227e+02,1.180306e+04
7.983869e+02,1.181482e+04
7.993511e+02,1.182175e+04
8.003154e+02,1.181228e+04
8.012796e+02,1.179746e+04
8.022438e+02,1.178215e+04
8.032081e+02,1.177004e+04
8.041723e+02,1.176283e+04
8.051365e+02,1.175910e+04
8.061008e+02,1.175756e+04
8.070650e+02,1.175799e+04
8.080292e+02,1.175553e+04
8.089935e+02,1.174567e+04
8.099577e+02,1.173114e+04
8.109219e+02,1.171948e+04
8.118862e+02,1.171916e+04
8.128504e+02,1.172957e+04
8.138146e+02,1.173386e+04
8.147789e+02,1.172923e+04
8.157431e+02,1.171676e+04
8.167073e+02,1.169690e+04
8.176716e+02,1.167136e+04
8.186358e+02,1.166566e+04
8.196000e+02,1.170405e+04
8.205643e+02,1.173811e+04
8.215285e+02,1.173900e+04
8.224927e+02,1.170959e+04
8.234570e+02,1.168224e+04
8.244212e+02,1.165810e+04
8.253854e+02,1.164518e+04
8.263497e+02,1.165629e+04
8.273139e+02,1.167885e+04
8.282781e+02,1.168714e+04
8.292424e+02,1.166231e+04
8.302066e+02,1.162737e+04
8.311708e+02,1.161019e+04
8.321351e+02,1.160853e+04
8.330993e+02,1.161220e+04
8.340635e+02,1.161460e+04
8.350278e+02,1.161472e+04
8.359920e+02,1.161229e+04
8.369562e+02,1.160667e+04
8.379205e+02,1.160464e+04
8.388847e+02,1.161091e+04
8.398489e+02,1.162113e+04
8.408132e+02,1.162200e+04
8.417774e+02,1.160418e+04
8.427416e+02,1.158625e+04
8.437059e+02,1.156942e+04
8.446701e+02,1.155417e+04
8.456343e+02,1.154168e+04
8.465986e+02,1.153033e+04
8.475628e+02,1.152224e+04
8.485270e+02,1.152185e+04
8.494913e+02,1.152272e+04
8.504555e+02,1.151885e+04
8.514197e+02,1.151002e+04
8.523840e+02,1.150348e+04
8.533482e+02,1.150801e+04
8.543124e+02,1.151445e+04
8.552767e+02,1.150397e+04
8.562409e+02,1.147384e+04
8.572051e+02,1.144162e+04
8.581694e+02,1.143238e+04
8.591336e+02,1.144481e+04
8.600978e+02,1.144105e+04
8.610621e+02,1.141789e+04
8.620263e+02,1.139774e+04
8.629905e+02,1.139511e+04
8.639548e+02,1.140708e+04
8.649190e+02,1.141079e+04
8.658832e+02,1.140911e+04
8.668475e+02,1.140634e+04
8.678117e+02,1.140159e+04
8.687759e+02,1.139471e+04
8.697402e+02,1.139292e+04
8.707044e+02,1.139718e+04
8.716686e+02,1.139377e+04
8.726329e+02,1.138329e+04
8.735971e+02,1.136966e+04
8.745613e+02,1.135543e+04
8.755256e+02,1.134384e+04
8.764898e+02,1.133648e+04
8.774540e+02,1.133177e+04
8.784183e+02,1.132806e+04
8.793825e+02,1.132476e+04
8.803467e+02,1.132195e+04
8.813110e+02,1.131662e+04
8.822752e+02,1.130127e+04
8.832394e+02,1.128312e+04
8.842037e+02,1.128254e+04
8.851679e+02,1.130265e+04
8.861321e+02,1.132621e+04
8.870964e+02,1.133123e+04
8.880606e+02,1.131592e+04
8.890248e+02,1.130091e+04
8.899891e+02,1.129360e+04
8.909533e+02,1.128822e+04
8.919175e+02,1.127542e+04
8.928818e+02,1.125116e+04
8.938460e+02,1.123675e+04
8.948102e+02,1.123308e+04
8.957745e+02,1.123264e+04
8.967387e+02,1.123417e+04
8.977029e+02,1.123507e+04
8.986672e+02,1.123286e+04
8.996314e+02,1.124171e+04
9.005956e+02,1.124541e+04
9.015599e+02,1.122664e+04
9.025241e+02,1.119346e+04
9.034883e+02,1.117112e+04
9.044526e+02,1.118038e+04
9.054168e+02,1.118669e+04
9.063810e+02,1.117297e+04
9.073453e+02,1.115293e+04
9.083095e+02,1.114158e+04
9.092737e+02,1.114283e+04
9.102380e+02,1.114583e+04
9.112022e+02,1.114057e+04
9.121664e+02,1.112833e+04
9.131307e+02,1.111389e+04
9.140949e+02,1.110208e+04
9.150591e+02,1.109817e+04
9.160234e+02,1.110375e+04
9.169876e+02,1.111165e+04
9.179518e+02,1.111026e+04
9.189161e+02,1.109764e+04
9.198803e+02,1.108066e+04
9.208445e+02,1.107041e+04
9.218088e+02,1.107162e+04
9.227730e+02,1.107139e+04
9.237372e+02,1.106610e+04
9.247015e+02,1.105907e+04
9.256657e+02,1.105199e+04
9.266299e+02,1.104387e+04
9.275942e+02,1.104101e+04
9.285584e+02,1.104620e+04
9.295226e+02,1.104838e+04
9.304869e+02,1.104692e+04
9.314511e+02,1.104269e+04
9.324153e+02,1.103271e+04
9.333796e+02,1.100519e+04
9.343438e+02,1.098436e+04
9.353080e+02,1.098036e+04
9.362723e+02,1.098038e+04
9.372365e+02,1.097084e+04
9.382007e+02,1.094958e+04
9.391650e+02,1.093214e+04
9.401292e+02,1.092412e+04
9.410934e+02,1.092269e+04
9.420577e+02,1.092380e+04
9.430219e+02,1.092573e+04
9.439861e+02,1.092350e+04
9.449504e+02,1.091624e+04
9.459146e+02,1.091031e+04
9.468788e+02,1.090553e+04
9.478431e+02,1.089644e+04
9.488073e+02,1.088460e+04
9.497715e+02,1.088138e+04
9.507358e+02,1.088230e+04
9.517000e+02,1.087292e+04
9.526642e+02,1.085696e+04
9.536285e+02,1.084213e+04
9.545927e+02,1.083202e+04
9.555569e+02,1.082402e+04
9.565212e+02,1.080699e+04
9.574854e+02,1.078403e+04
9.584496e+02,1.077771e+04
9.594139e+02,1.079599e+04
9.603781e+02,1.082360e+04
9.613423e+02,1.082775e+04
9.623066e+02,1.080344e+04
9.632708e+02,1.078186e+04
9.642350e+02,1.077027e+04
9.651993e+02,1.076830e+04
9.661635e+02,1.077287e+04
9.671277e+02,1.078666e+04
9.680920e+02,1.079110e+04
9.690562e+02,1.078300e+04
9.700204e+02,1.076697e+04
9.709847e+02,1.074825e+04
9.719489e+02,1.072855e+04
9.729131e+02,1.071482e+04
9.738774e+02,1.070868e+04
9.748416e+02,1.071197e+04
9.758058e+02,1.072915e+04
9.767701e+02,1.075252e+04
9.777343e+02,1.075870e+04
9.786985e+02,1.072445e+04
9.796628e+02,1.069162e+04
9.806270e+02,1.068313e+04
9.815912e+02,1.068522e+04
9.825555e+02,1.067466e+04
9.835197e+02,1.063778e+04
9.844839e+02,1.060716e+04
9.854482e+02,1.059847e+04
9.864124e+02,1.060386e+04
9.873766e+02,1.061435e+04
9.883409e+02,1.063003e+04
9.893051e+02,1.064082e+04
9.902693e+02,1.063315e+04
9.912336e+02,1.062263e+04
9.921978e+02,1.062412e+04
9.931620e+02,1.063510e+04
9.941263e+02,1.064358e+04
9.950905e+02,1.064130e+04
9.960547e+02,1.063441e+04
9.970190e+02,1.063185e+04
9.979832e+02,1.063061e+04
9.989474e+02,1.062153e+04
9.999117e+02,1.059821e+04
1.000876e+03,1.057418e+04
1.001840e+03,1.057395e+04
1.002804e+03,1.059231e+04
1.003769e+03,1.060129e+04
1.004733e+03,1.058604e+04
1.005697e+03,1.056299e+04
1.006661e+03,1.055950e+04
1.007626e+03,1.057236e+04
1.008590e+03,1.058485e+04
1.009554e+03,1.059186e+04
1.010518e+03,1.058995e+04
1.011482e+03,1.057596e+04
1.012447e+03,1.055113e+04
1.013411e+03,1.052664e+04
1.014375e+03,1.050782e+04
1.015339e+03,1.049526e+04
1.016304e+03,1.048644e+04
1.017268e+03,1.048014e+04
1.018232e+03,1.047544e+04
1.019196e+03,1.047095e+04
1.020161e+03,1.046771e+04
1.021125e+03,1.046902e+04
1.022089e+03,1.047498e+04
1.023053e+03,1.047730e+04
1.024018e+03,1.047090e+04
1.024982e+03,1.046652e+04
1.025946e+03,1.046517e+04
1.026910e+03,1.046072e+04
1.027875e+03,1.045089e+04
1.028839e+03,1.043938e+04
1.029803e+03,1.043028e+04
1.030767e+03,1.042394e+04
1.031731e+03,1.042064e+04
1.032696e+03,1.041883e+04
1.033660e+03,1.041752e+04
1.034624e+03,1.041617e+04
1.035588e+03,1.041860e+04
1.036552e+03,1.042178e+04
1.037517e+03,1.042200e+04
1.038481e+03,1.041708e+04
1.039445e+03,1.041014e+04
1.040409e+03,1.040294e+04
1.041374e+03,1.039150e+04
1.042338e+03,1.037270e+04
1.043302e+03,1.035543e+04
1.044266e+03,1.034944e+04
1.045231e+03,1.036766e+04
1.046195e+03,1.037073e+04
1.047159e+03,1.034828e+04
1.048123e+03,1.032377e+04
1.049088e+03,1.031266e+04
1.050052e+03,1.031966e+04
1.051016e+03,1.032932e+04
1.051980e+03,1.034408e+04
1.052945e+03,1.035654e+04
1.053909e+03,1.035865e+04
1.054873e+03,1.034824e+04
1.055837e+03,1.033559e+04
1.056802e+03,1.032847e+04
1.057766e+03,1.031766e+04
1.058730e+03,1.029858e+04
1.059694e+03,1.027857e+04
1.060658e+03,1.026527e+04
1.061623e+03,1.026763e+04
1.062587e+03,1.026638e+04
1.063551e+03,1.025635e+04
1.064515e+03,1.024548e+04
1.065479e+03,1.023680e+04
1.066444e+03,1.023263e+04
1.067408e+03,1.023163e+04
1.068372e+03,1.023213e+04
1.069336e+03,1.023696e+04
1.070301e+03,1.024568e+04
1.071265e+03,1.025386e+04
1.072229e+03,1.025650e+04
1.073193e+03,1.024904e+04
1.074158e+03,1.024003e+04
1.075122e+03,1.023729e+04
1.076086e+03,1.023213e+04
1.077050e+03,1.021402e+04
1.078015e+03,1.017646e+04
1.078979e+03,1.015431e+04
1.079943e+03,1.015781e+04
1.080907e+03,1.017317e+04
1.081872e+03,1.019217e+04
1.082836e+03,1.021109e+04
1.083800e+03,1.021924e+04
1.084764e+03,1.020494e+04
1.085729e+03,1.019442e+04
1.086693e+03,1.020286e+04
1.087657e+03,1.022191e+04
1.088621e+03,1.023188e+04
1.089585e+03,1.022600e+04
1.090550e+03,1.020917e+04
1.091514e+03,1.018025e+04
1.092478e+03,1.015055e+04
1.093442e+03,1.013010e+04
1.094406e+03,1.012283e+04
1.095371e+03,1.012027e+04
1.096335e+03,1.012088e+04
1.097299e+03,1.012154e+04
1.098263e+03,1.012023e+04
1.099228e+03,1.011587e+04
1.100192e+03,1.011144e+04
1.101156e+03,1.010557e+04
1.102120e+03,1.009989e+04
1.103085e+03,1.009785e+04
1.104049e+03,1.009718e+04
1.105013e+03,1.009306e+04
1.105977e+03,1.008021e+04
1.106942e+03,1.007168e+04
1.107906e+03,1.007032e+04
1.108870e+03,1.007473e+04
1.109834e+03,1.008553e+04
1.110799e+03,1.010707e+04
1.111763e+03,1.011822e+04
1.112727e+03,1.010784e+04
1.113691e+03,1.009812e+04
1.114656e+03,1.010135e+04
1.115620e+03,1.011506e+04
1.116584e+03,1.012036e+04
1.117548e+03,1.009917e+04
1.118512e+03,1.008117e+04
1.119477e+03,1.007510e+04
1.120441e+03,1.007646e+04
1.121405e+03,1.007984e+04
1.122369e+03,1.009176e+04
1.123334e+03,1.009647e+04
1.124298e+03,1.009332e+04
1.125262e+03,1.008696e+04
1.126226e+03,1.008002e+04
1.127191e+03,1.007286e+04
1.128155e+03,1.006893e+04
1.129119e+03,1.006368e+04
1.130083e+03,1.006316e+04
1.131047e+03,1.007187e+04
1.132012e+03,1.008383e+04
1.132976e+03,1.008748e+04
1.133940e+03,1.008419e+04
1.134904e+03,1.006748e+04
1.135869e+03,1.003103e+04
1.136833e+03,9.992873e+03
1.137797e+03,9.974167e+03
1.138761e+03,9.985235e+03
1.139726e+03,9.987283e+03
1.140690e+03,9.970667e+03
1.141654e+03,9.961547e+03
1.142618e+03,9.979278e+03
1.143583e+03,1.001890e+04
1.144547e+03,1.003427e+04
1.145511e+03,1.001959e+04
1.146475e+03,9.999799e+03
1.147439e+03,9.978078e+03
1.148404e+03,9.961917e+03
1.149368e+03,9.964356e+03
1.150332e+03,9.986642e+03
1.151296e+03,1.000215e+04
1.152261e+03,1.000359e+04
1.153225e+03,9.992932e+03
1.154189e+03,9.978677e+03
1.155153e+03,9.964556e+03
1.156118e+03,9.946035e+03
1.157082e+03,9.926155e+03
1.158046e+03,9.911928e+03
1.159010e+03,9.903073e+03
1.159974e+03,9.897908e+03
1.160939e+03,9.894890e+03
1.161903e+03,9.891409e+03
1.162867e+03,9.883639e+03
1.163831e+03,9.870155e+03
1.164796e+03,9.853315e+03
1.165760e+03,9.836118e+03
1.166724e+03,9.821635e+03
1.167688e+03,9.815854e+03
1.168653e+03,9.817959e+03
1.169617e+03,9.820099e+03
1.170581e+03,9.820123e+03
1.171545e+03,9.817351e+03
1.172510e+03,9.805946e+03
1.173474e+03,9.791354e+03
1.174438e+03,9.784076e+03
1.175402e+03,9.786403e+03
1.176366e+03,9.791093e+03
1.177331e+03,9.789441e+03
1.178295e+03,9.790007e+03
1.179259e+03,9.807916e+03
1.180223e+03,9.838116e+03
1.181188e+03,9.855376e+03
1.182152e+03,9.837699e+03
1.183116e+03,9.810554e+03
1.184080e+03,9.792359e+03
1.185045e+03,9.781479e+03
1.186009e+03,9.770963e+03
1.186973e+03,9.759818e+03
1.187937e+03,9.753598e+03
1.188901e+03,9.756301e+03
1.189866e+03,9.760842e+03
1.190830e+03,9.758321e+03
1.191794e+03,9.745786e+03
1.192758e+03,9.736287e+03
1.193723e+03,9.745323e+03
1.194687e+03,9.751888e+03
1.195651e+03,9.740966e+03
1.196615e+03,9.719613e+03
1.197580e+03,9.706469e+03
1.198544e+03,9.701303e+03
1.199508e+03,9.691186e+03
1.200472e+03,9.678167e+03
1.201437e+03,9.666926e+03
1.202401e+03,9.663923e+03
1.203365e+03,9.673667e+03
1.204329e+03,9.675141e+03
1.205293e+03,9.662541e+03
1.206258e+03,9.652366e+03
1.207222e+03,9.650267e+03
1.208186e+03,9.653927e+03
1.209150e+03,9.659735e+03
1.210115e+03,9.665016e+03
1.211079e+03,9.671013e+03
1.212043e+03,9.679788e+03
1.213007e+03,9.685516e+03
1.213972e+03,9.685010e+03
1.214936e+03,9.680795e+03
1.215900e+03,9.669819e+03
1.216864e+03,9.653000e+03
1.217828e+03,9.639322e+03
1.218793e+03,9.635533e+03
1.219757e+03,9.636203e+03
1.220721e+03,9.629809e+03
1.221685e+03,9.620900e+03
1.222650e+03,9.617848e+03
1.223614e+03,9.619886e+03
1.224578e+03,9.621813e+03
1.225542e+03,9.627677e+03
1.226507e+03,9.631994e+03
1.227471e+03,9.622396e+03
1.228435e+03,9.599763e+03
1.229399e+03,9.578681e+03
1.230364e+03,9.573112e+03
1.231328e+03,9.568663e+03
1.232292e+03,9.561334e+03
1.233256e+03,9.556071e+03
1.234220e+03,9.554431e+03
1.235185e+03,9.560896e+03
1.236149e+03,9.565265e+03
1.237113e+03,9.563396e+03
1.238077e+03,9.563162e+03
1.239042e+03,9.563044e+03
1.240006e+03,9.559192e+03
1.240970e+03,9.553674e+03
1.241934e+03,9.540976e+03
1.242899e+03,9.536684e+03
1.243863e+03,9.552612e+03
1.244827e+03,9.573584e+03
1.245791e+03,9.577119e+03
1.246755e+03,9.560420e+03
1.247720e+03,9.541422e+03
1.248684e+03,9.520131e+03
1.249648e+03,9.504206e+03
1.250612e+03,9.497491e+03
1.251577e+03,9.497274e+03
1.252541e+03,9.500214e+03
1.253505e+03,9.504964e+03
1.254469e+03,9.510032e+03
1.255434e+03,9.517167e+03
1.256398e+03,9.522997e+03
1.257362e+03,9.517546e+03
1.258326e+03,9.505052e+03
1.259291e+03,9.497442e+03
1.260255e+03,9.493196e+03
1.261219e+03,9.484823e+03
1.262183e+03,9.470604e+03
1.263147e+03,9.458693e+03
1.264112e+03,9.451178e+03
1.265076e+03,9.449454e+03
1.266040e+03,9.456009e+03
1.267004e+03,9.476299e+03
1.267969e+03,9.489280e+03
1.268933e+03,9.487051e+03
1.269897e+03,9.485006e+03
1.270861e+03,9.484098e+03
1.271826e+03,9.478189e+03
1.272790e+03,9.474062e+03
1.273754e+03,9.475116e+03
1.274718e+03,9.479448e+03
1.275682e+03,9.495147e+03
1.276647e+03,9.512554e+03
1.277611e+03,9.515394e+03
1.278575e+03,9.500293e+03
1.279539e+03,9.485221e+03
1.280504e+03,9.474794e+03
1.281468e+03,9.471839e+03
1.282432e+03,9.478505e+03
1.283396e+03,9.487366e+03
1.284361e+03,9.473203e+03
1.285325e+03,9.441638e+03
1.286289e+03,9.428851e+03
1.287253e+03,9.444299e+03
1.288218e+03,9.457313e+03
1.289182e+03,9.436941e+03
1.290146e+03,9.402265e+03
1.291110e+03,9.371672e+03
1.292074e+03,9.349394e+03
1.293039e+03,9.338818e+03
1.294003e+03,9.353752e+03
1.294967e+03,9.362504e+03
1.295931e+03,9.351545e+03
1.296896e+03,9.333112e+03
1.297860e+03,9.316973e+03
1.298824e+03,9.301466e+03
1.299788e+03,9.292733e+03
1.300753e+03,9.293191e+03
1.301717e+03,9.294415e+03
1.302681e+03,9.292905e+03
1.303645e+03,9.290517e+03
1.304609e+03,9.294687e+03
1.305574e+03,9.304021e+03
1.306538e+03,9.302302e+03
1.307502e+03,9.290598e+03
1.308466e+03,9.277389e+03
1.309431e+03,9.267979e+03
1.310395e+03,9.261411e+03
1.311359e+03,9.250887e+03
1.312323e+03,9.234637e+03
1.313288e+03,9.222179e+03
1.314252e+03,9.223999e+03
1.315216e+03,9.231917e+03
1.316180e+03,9.233370e+03
1.317145e+03,9.234828e+03
1.318109e+03,9.244404e+03
1.319073e+03,9.258838e+03
1.320037e+03,9.262757e+03
1.321001e+03,9.242334e+03
1.321966e+03,9.220525e+03
1.322930e+03,9.211557e+03
1.323894e+03,9.211812e+03
1.324858e+03,9.208767e+03
1.325823e+03,9.200419e+03
1.326787e+03,9.190840e+03
1.327751e+03,9.173389e+03
1.328715e+03,9.162893e+03
1.329680e+03,9.173149e+03
1.330644e+03,9.198950e+03
1.331608e+03,9.215346e+03
1.332572e+03,9.222128e+03
1.333536e+03,9.227772e+03
1.334501e+03,9.233516e+03
1.335465e+03,9.233875e+03
1.336429e+03,9.222744e+03
1.337393e+03,9.209094e+03
1.338358e+03,9.204551e+03
1.339322e+03,9.208384e+03
1.340286e+03,9.213625e+03
1.341250e+03,9.224122e+03
1.342215e+03,9.226162e+03
1.343179e+03,9.210935e+03
1.344143e+03,9.194973e+03
1.345107e+03,9.191857e+03
1.346072e+03,9.204014e+03
1.347036e+03,9.206441e+03
1.348000e+03,9.191049e+03
1.348964e+03,9.175710e+03
1.349928e+03,9.170729e+03
1.350893e+03,9.173317e+03
1.351857e+03,9.168503e+03
1.352821e+03,9.154901e+03
1.353785e+03,9.152547e+03
1.354750e+03,9.162871e+03
1.355714e+03,9.168100e+03
1.356678e+03,9.151745e+03
1.357642e+03,9.130462e+03
1.358607e+03,9.125974e+03
1.359571e+03,9.130365e+03
1.360535e+03,9.127353e+03
1.361499e+03,9.109488e+03
1.362464e+03,9.096676e+03
1.363428e+03,9.102161e+03
1.364392e+03,9.115460e+03
1.365356e+03,9.127701e+03
1.366320e+03,9.133600e+03
1.367285e+03,9.129236e+03
1.368249e+03,9.114553e+03
1.369213e+03,9.099295e+03
1.370177e+03,9.084533e+03
1.371142e+03,9.071404e+03
1.372106e+03,9.063451e+03
1.373070e+03,9.059400e+03
1.374034e+03,9.047035e+03
1.374999e+03,9.029849e+03
1.375963e+03,9.020621e+03
1.376927e+03,9.026729e+03
1.377891e+03,9.038902e+03
1.378855e+03,9.052001e+03
1.379820e+03,9.060384e+03
1.380784e+03,9.055971e+03
1.381748e+03,9.040341e+03
1.382712e+03,9.025776e+03
1.383677e+03,9.005608e+03
1.384641e+03,8.990062e+03
1.385605e+03,8.983780e+03
1.386569e+03,8.981743e+03
1.387534e+03,8.978063e+03
1.388498e+03,8.973298e+03
1.389462e+03,8.970025e+03
1.390426e+03,8.966463e+03
1.391391e+03,8.958399e+03
1.392355e+03,8.943706e+03
1.393319e+03,8.929054e+03
1.394283e+03,8.923525e+03
1.395247e+03,8.924437e+03
1.396212e+03,8.930269e+03
1.397176e+03,8.941181e+03
1.398140e+03,8.948073e+03
1.399104e+03,8.938866e+03
1.400069e+03,8.926536e+03
1.401033e+03,8.918935e+03
1.401997e+03,8.915476e+03
1.402961e+03,8.913384e+03
1.403926e+03,8.911670e+03
1.404890e+03,8.911785e+03
1.405854e+03,8.916388e+03
1.406818e+03,8.922053e+03
1.407782e+03,8.928572e+03
1.408747e+03,8.935473e+03
1.409711e+03,8.929143e+03
1.410675e+03,8.907979e+03
1.411639e+03,8.885589e+03
1.412604e+03,8.866872e+03
1.413568e+03,8.854139e+03
1.414532e+03,8.857016e+03
1.415496e+03,8.865771e+03
1.416461e+03,8.866865e+03
1.417425e+03,8.860108e+03
1.418389e+03,8.857056e+03
1.419353e+03,8.871490e+03
1.420318e+03,8.871655e+03
1.421282e+03,8.852313e+03
1.422246e+03,8.831528e+03
1.423210e+03,8.824138e+03
1.424174e+03,8.828348e+03
1.425139e+03,8.820990e+03
1.426103e+03,8.801397e+03
1.427067e+03,8.784761e+03
1.428031e+03,8.777122e+03
1.428996e+03,8.773592e+03
1.429960e+03,8.766423e+03
1.430924e+03,8.759681e+03
1.431888e+03,8.762169e+03
1.432853e+03,8.771194e+03
1.433817e+03,8.770379e+03
1.434781e+03,8.747259e+03
1.435745e+03,8.730686e+03
1.436709e+03,8.721413e+03
1.437674e+03,8.714655e+03
1.438638e+03,8.710310e+03
1.439602e+03,8.710532e+03
1.440566e+03,8.712896e+03
1.441531e+03,8.715752e+03
1.442495e+03,8.710243e+03
1.443459e+03,8.689203e+03
1.444423e+03,8.670618e+03
1.445388e+03,8.676559e+03
1.446352e+03,8.688162e+03
1.447316e+03,8.689958e+03
1.448280e+03,8.684521e+03
1.449245e+03,8.676664e+03
1.450209e+03,8.660893e+03
1.451173e+03,8.651853e+03
1.452137e+03,8.647185e+03
1.453101e+03,8.645009e+03
1.454066e+03,8.648590e+03
1.455030e+03,8.656940e+03
1.455994e+03,8.658049e+03
1.456958e+03,8.652730e+03
1.457923e+03,8.646764e+03
1.458887e+03,8.638788e+03
1.459851e+03,8.634579e+03
1.460815e+03,8.646485e+03
1.461780e+03,8.656482e+03
1.462744e+03,8.652285e+03
1.463708e+03,8.636108e+03
1.464672e+03,8.616896e+03
1.465636e+03,8.591232e+03
1.466601e+03,8.581450e+03
1.467565e+03,8.595444e+03
1.468529e+03,8.612793e+03
1.469493e+03,8.609571e+03
1.470458e+03,8.589998e+03
1.471422e+03,8.579460e+03
1.472386e+03,8.577962e+03
1.473350e+03,8.579868e+03
1.474315e+03,8.581791e+03
1.475279e+03,8.583460e+03
1.476243e+03,8.586223e+03
1.477207e+03,8.584599e+03
1.478172e+03,8.577011e+03
1.479136e+03,8.565260e+03
1.480100e+03,8.552761e+03
1.481064e+03,8.538861e+03
1.482028e+03,8.531251e+03
1.482993e+03,8.532615e+03
1.483957e+03,8.538626e+03
1.484921e+03,8.542661e+03
1.485885e+03,8.547016e+03
1.486850e+03,8.559126e+03
1.487814e+03,8.571642e+03
1.488778e+03,8.572923e+03
1.489742e+03,8.558050e+03
1.490707e+03,8.541857e+03
1.491671e+03,8.532950e+03
1.492635e+03,8.529311e+03
1.493599e+03,8.527099e+03
1.494563e+03,8.524108e+03
1.495528e+03,8.520393e+03
1.496492e+03,8.514552e+03
1.497456e+03,8.505823e+03
1.498420e+03,8.496960e+03
1.499385e+03,8.489622e+03
1.500349e+03,8.484967e+03
1.501313e+03,8.482717e+03
1.502277e+03,8.481467e+03
1.503242e+03,8.480228e+03
1.504206e+03,8.478803e+03
1.505170e+03,8.477429e+03
1.506134e+03,8.465935e+03
1.507099e+03,8.439216e+03
1.508063e+03,8.419551e+03
1.509027e+03,8.416988e+03
1.509991e+03,8.421754e+03
1.510955e+03,8.419175e+03
1.511920e+03,8.410700e+03
1.512884e+03,8.399118e+03
1.513848e+03,8.389044e+03
1.514812e+03,8.386253e+03
1.515777e+03,8.390337e+03
1.516741e+03,8.393826e+03
1.517705e+03,8.393184e+03
1.518669e+03,8.390326e+03
1.519634e+03,8.389181e+03
1.520598e+03,8.388115e+03
1.521562e+03,8.382032e+03
1.522526e+03,8.369184e+03
1.523490e+03,8.359959e+03
1.524455e+03,8.360007e+03
1.525419e+03,8.357721e+03
1.526383e+03,8.339140e+03
1.527347e+03,8.317338e+03
1.528312e+03,8.308235e+03
1.529276e+03,8.312333e+03
1.530240e+03,8.314338e+03
1.531204e+03,8.307354e+03
1.532169e+03,8.306207e+03
1.533133e+03,8.313184e+03
1.534097e+03,8.321385e+03
1.535061e+03,8.326266e+03
1.536026e+03,8.326067e+03
1.536990e+03,8.317253e+03
1.537954e+03,8.305079e+03
1.538918e+03,8.299196e+03
1.539882e+03,8.302098e+03
1.540847e+03,8.301842e+03
1.541811e+03,8.286966e+03
1.542775e+03,8.274763e+03
1.543739e+03,8.275712e+03
1.544704e+03,8.281747e+03
1.545668e+03,8.273789e+03
1.546632e+03,8.257866e+03
1.547596e+03,8.261794e+03
1.548561e+03,8.283227e+03
1.549525e+03,8.299843e+03
1.550489e+03,8.293506e+03
1.551453e+03,8.282539e+03
1.552417e+03,8.270457e+03
1.553382e+03,8.261224e+03
1.554346e+03,8.262338e+03
1.555310e+03,8.273065e+03
1.556274e+03,8.271302e+03
1.557239e+03,8.256718e+03
1.558203e+03,8.251529e+03
1.559167e+03,8.262155e+03
1.560131e+03,8.267475e+03
1.561096e+03,8.238757e+03
1.562060e+03,8.208416e+03
1.563024e+03,8.203336e+03
1.563988e+03,8.216561e+03
1.564953e+03,8.229298e+03
1.565917e+03,8.241660e+03
1.566881e+03,8.247728e+03
1.567845e+03,8.244954e+03
1.568809e+03,8.239216e+03
1.569774e+03,8.234346e+03
1.570738e+03,8.229880e+03
1.571702e+03,8.224047e+03
1.572666e+03,8.218014e+03
1.573631e+03,8.214688e+03
1.574595e+03,8.216746e+03
1.575559e+03,8.218198e+03
1.576523e+03,8.219528e+03
1.577488e+03,8.220695e+03
1.578452e+03,8.217181e+03
1.579416e+03,8.210575e+03
1.580380e+03,8.203983e+03
1.581344e+03,8.198629e+03
1.582309e+03,8.199263e+03
1.583273e+03,8.204059e+03
1.584237e+03,8.205683e+03
1.585201e+03,8.200197e+03
1.586166e+03,8.197746e+03
1.587130e+03,8.200665e+03
1.588094e+03,8.198142e+03
1.589058e+03,8.186870e+03
1.590023e+03,8.171500e+03
1.590987e+03,8.157114e+03
1.591951e+03,8.146623e+03
1.592915e+03,8.142278e+03
1.593880e+03,8.139145e+03
1.594844e+03,8.128283e+03
1.595808e+03,8.098629e+03
1.596772e+03,8.073710e+03
1.597736e+03,8.059689e+03
1.598701e+03,8.055188e+03
1.599665e+03,8.061305e+03
1.600629e+03,8.073312e+03
1.601593e+03,8.069880e+03
1.602558e+03,8.055341e+03
1.603522e+03,8.043296e+03
1.604486e+03,8.037730e+03
1.605450e+03,8.030802e+03
1.606415e+03,8.020770e+03
1.607379e+03,8.013269e+03
1.608343e+03,8.009441e+03
1.609307e+03,8.006786e+03
1.610271e+03,8.002362e+03
1.611236e+03,7.995312e+03
1.612200e+03,7.986960e+03
1.613164e+03,7.979306e+03
1.614128e+03,7.971044e+03
1.615093e+03,7.954144e+03
1.616057e+03,7.942816e+03
1.617021e+03,7.944418e+03
1.617985e+03,7.945773e+03
1.618950e+03,7.942034e+03
1.619914e+03,7.933859e+03
1.620878e+03,7.919475e+03
1.621842e+03,7.902501e+03
1.622807e+03,7.893602e+03
1.623771e+03,7.896459e+03
1.624735e+03,7.903447e+03
1.625699e+03,7.912183e+03
1.626663e+03,7.914990e+03
1.627628e+03,7.905360e+03
1.628592e+03,7.887791e+03
1.629556e+03,7.871697e+03
1.630520e+03,7.861505e+03
1.631485e+03,7.864718e+03
1.632449e+03,7.876427e+03
1.633413e+03,7.878665e+03
1.634377e+03,7.861285e+03
1.635342e+03,7.844601e+03
1.636306e+03,7.842987e+03
1.637270e+03,7.836186e+03
1.638234e+03,7.809787e+03
1.639198e+03,7.777987e+03
1.640163e+03,7.773943e+03
1.641127e+03,7.791295e+03
1.642091e+03,7.804307e+03
1.643055e+03,7.807468e+03
1.644020e+03,7.805808e+03
1.644984e+03,7.797792e+03
1.645948e+03,7.785123e+03
1.646912e+03,7.766569e+03
1.647877e+03,7.751947e+03
1.648841e+03,7.753002e+03
1.649805e+03,7.764117e+03
1.650769e+03,7.765858e+03
1.651734e+03,7.759565e+03
1.652698e+03,7.749849e+03
1.653662e+03,7.734600e+03
1.654626e+03,7.720326e+03
1.655590e+03,7.706687e+03
1.656555e+03,7.699951e+03
1.657519e+03,7.708190e+03
1.658483e+03,7.720405e+03
1.659447e+03,7.712837e+03
1.660412e+03,7.692615e+03
1.661376e+03,7.678427e+03
1.662340e+03,7.672833e+03
1.663304e+03,7.673437e+03
1.664269e+03,7.682581e+03
1.665233e+03,7.682518e+03
1.666197e+03,7.667744e+03
1.667161e+03,7.653957e+03
1.668125e+03,7.653250e+03
1.669090e+03,7.656323e+03
1.670054e+03,7.650842e+03
1.671018e+03,7.639649e+03
1.671982e+03,7.623567e+03
1.672947e+03,7.605142e+03
1.673911e+03,7.606168e+03
1.674875e+03,7.629568e+03
1.675839e+03,7.644337e+03
1.676804e+03,7.650017e+03
1.677768e+03,7.649444e+03
1.678732e+03,7.636538e+03
1.679696e+03,7.619555e+03
1.680661e+03,7.603839e+03
1.681625e+03,7.587078e+03
1.682589e+03,7.571591e+03
1.683553e+03,7.560183e+03
1.684517e+03,7.552693e+03
1.685482e+03,7.548081e+03
1.686446e+03,7.548771e+03
1.687410e+03,7.556557e+03
1.688374e+03,7.562375e+03
1.689339e+03,7.552939e+03
1.690303e+03,7.545777e+03
1.691267e+03,7.560315e+03
1.692231e+03,7.578097e+03
1.693196e+03,7.555010e+03
1.694160e+03,7.498341e+03
1.695124e+03,7.484808e+03
1.696088e+03,7.510583e+03
1.697052e+03,7.529620e+03
1.698017e+03,7.507030e+03
1.698981e+03,7.488208e+03
1.699945e+03,7.484231e+03
1.700909e+03,7.480415e+03
1.701874e+03,7.475398e+03
1.702838e+03,7.473445e+03
1.703802e+03,7.474546e+03
1.704766e+03,7.474521e+03
1.705731e+03,7.474362e+03
1.706695e+03,7.475251e+03
1.707659e+03,7.471433e+03
1.708623e+03,7.463809e+03
1.709588e+03,7.455802e+03
1.710552e+03,7.443859e+03
1.711516e+03,7.428178e+03
1.712480e+03,7.405939e+03
1.713444e+03,7.385862e+03
1.714409e+03,7.386196e+03
1.715373e+03,7.395341e+03
1.716337e+03,7.392569e+03
1.717301e+03,7.379251e+03
1.718266e+03,7.365011e+03
1.719230e+03,7.348581e+03
1.720194e+03,7.352265e+03
1.721158e+03,7.383986e+03
1.722123e+03,7.409524e+03
1.723087e+03,7.403595e+03
1.724051e+03,7.385167e+03
1.725015e+03,7.361313e+03
1.725979e+03,7.337602e+03
1.726944e+03,7.315042e+03
1.727908e+03,7.296390e+03
1.728872e+03,7.297488e+03
1.729836e+03,7.311139e+03
1.730801e+03,7.319665e+03
1.731765e+03,7.314979e+03
1.732729e+03,7.313007e+03
1.733693e+03,7.316933e+03
1.734658e+03,7.320120e+03
1.735622e+03,7.319064e+03
1.736586e+03,7.314501e+03
1.737550e+03,7.307253e+03
1.738515e+03,7.298170e+03
1.739479e+03,7.287614e+03
1.740443e+03,7.276345e+03
1.741407e+03,7.268879e+03
1.742371e+03,7.265999e+03
1.743336e+03,7.261367e+03
1.744300e+03,7.254001e+03
1.745264e+03,7.243889e+03
1.746228e+03,7.232269e+03
1.747193e+03,7.224544e+03
1.748157e+03,7.232793e+03
1.749121e+03,7.242364e+03
1.750085e+03,7.231035e+03
1.751050e+03,7.204354e+03
1.752014e+03,7.207377e+03
1.752978e+03,7.229632e+03
1.753942e+03,7.241597e+03
1.754906e+03,7.236638e+03
1.755871e+03,7.223911e+03
1.756835e+03,7.195924e+03
1.757799e+03,7.173016e+03
1.758763e+03,7.166762e+03
1.759728e+03,7.166154e+03
1.760692e+03,7.157058e+03
1.761656e+03,7.149041e+03
1.762620e+03,7.146569e+03
1.763585e+03,7.149943e+03
1.764549e+03,7.163382e+03
1.765513e+03,7.183109e+03
1.766477e+03,7.170593e+03
1.767442e+03,7.133423e+03
1.768406e+03,7.105625e+03
1.769370e+03,7.098006e+03
1.770334e+03,7.099126e+03
1.771298e+03,7.108366e+03
1.772263e+03,7.110637e+03
1.773227e+03,7.101080e+03
1.774191e+03,7.091490e+03
1.775155e+03,7.100327e+03
1.776120e+03,7.114874e+03
1.777084e+03,7.123429e+03
1.778048e+03,7.122254e+03
1.779012e+03,7.098260e+03
1.779977e+03,7.041287e+03
1.780941e+03,7.025409e+03
1.781905e+03,7.046493e+03
1.782869e+03,7.061892e+03
1.783833e+03,7.051363e+03
1.784798e+03,7.040025e+03
1.785762e+03,7.050166e+03
1.786726e+03,7.052568e+03
1.787690e+03,7.031650e+03
1.788655e+03,7.001116e+03
1.789619e+03,6.981924e+03
1.790583e+03,6.971931e+03
1.791547e+03,6.966275e+03
1.792512e+03,6.964705e+03
1.793476e+03,6.965881e+03
1.794440e+03,6.964432e+03
1.795404e+03,6.973654e+03
1.796369e+03,6.992383e+03
1.797333e+03,7.006762e+03
1.798297e+03,7.011250e+03
1.799261e+03,7.007213e+03
1.800225e+03,6.982889e+03
1.801190e+03,6.959022e+03
1.802154e+03,6.954463e+03
1.803118e+03,6.958729e+03
1.804082e+03,6.947120e+03
1.805047e+03,6.927688e+03
1.806011e+03,6.911786e+03
1.806975e+03,6.900646e+03
1.807939e+03,6.897354e+03
1.808904e+03,6.903682e+03
1.809868e+03,6.900523e+03
1.810832e+03,6.887431e+03
1.811796e+03,6.878818e+03
1.812760e+03,6.891699e+03
1.813725e+03,6.902170e+03
1.814689e+03,6.890615e+03
1.815653e+03,6.875217e+03
1.816617e+03,6.871053e+03
1.817582e+03,6.873245e+03
1.818546e+03,6.863786e+03
1.819510e+03,6.846701e+03
1.820474e+03,6.831998e+03
1.821439e+03,6.822664e+03
1.822403e+03,6.815673e+03
1.823367e+03,6.811320e+03
1.824331e+03,6.808544e+03
1.825296e+03,6.805235e+03
1.826260e+03,6.799881e+03
1.827224e+03,6.796753e+03
1.828188e+03,6.796575e+03
1.829152e+03,6.794432e+03
1.830117e+03,6.792600e+03
1.831081e+03,6.795321e+03
1.832045e+03,6.796868e+03
1.833009e+03,6.784426e+03
1.833974e+03,6.769976e+03
1.834938e+03,6.766381e+03
1.835902e+03,6.774429e+03
1.836866e+03,6.777868e+03
1.837831e+03,6.776338e+03
1.838795e+03,6.764921e+03
1.839759e+03,6.744944e+03
1.840723e+03,6.731849e+03
1.841688e+03,6.736602e+03
1.842652e+03,6.744362e+03
1.843616e+03,6.747476e+03
1.844580e+03,6.746313e+03
1.845544e+03,6.746661e+03
1.846509e+03,6.745948e+03
1.847473e+03,6.736030e+03
1.848437e+03,6.720491e+03
1.849401e+03,6.705851e+03
1.850366e+03,6.693530e+03
1.851330e+03,6.677034e+03
1.852294e+03,6.659970e+03
1.853258e+03,6.658714e+03
1.854223e+03,6.679030e+03
1.855187e+03,6.692938e+03
1.856151e+03,6.681087e+03
1.857115e+03,6.664570e+03
1.858079e+03,6.644816e+03
1.859044e+03,6.626831e+03
1.860008e+03,6.618939e+03
1.860972e+03,6.618592e+03
1.861936e+03,6.626812e+03
1.862901e+03,6.637463e+03
1.863865e+03,6.639061e+03
1.864829e+03,6.628243e+03
1.865793e+03,6.612102e+03
1.866758e+03,6.594061e+03
1.867722e+03,6.576036e+03
1.868686e+03,6.555013e+03
1.869650e+03,6.550245e+03
1.870615e+03,6.564569e+03
1.871579e+03,6.568224e+03
1.872543e+03,6.555531e+03
1.873507e+03,6.547251e+03
1.874471e+03,6.558467e+03
1.875436e+03,6.566979e+03
1.876400e+03,6.565991e+03
1.877364e+03,6.560802e+03
1.878328e+03,6.558779e+03
1.879293e+03,6.554751e+03
1.880257e+03,6.530004e+03
1.881221e+03,6.495708e+03
1.882185e+03,6.480981e+03
1.883150e+03,6.488654e+03
1.884114e+03,6.496457e+03
1.885078e+03,6.502043e+03
1.886042e+03,6.501057e+03
1.887006e+03,6.491341e+03
1.887971e+03,6.479310e+03
1.888935e+03,6.465204e+03
1.889899e+03,6.466376e+03
1.890863e+03,6.487352e+03
1.891828e+03,6.498916e+03
1.892792e+03,6.463458e+03
1.893756e+03,6.422033e+03
1.894720e+03,6.412945e+03
1.895685e+03,6.421008e+03
1.896649e+03,6.427180e+03
1.897613e+03,6.428750e+03
1.898577e+03,6.424206e+03
1.899542e+03,6.416534e+03
1.900506e+03,6.410091e+03
1.901470e+03,6.404541e+03
1.902434e+03,6.400887e+03
1.903398e+03,6.399021e+03
1.904363e+03,6.385532e+03
1.905327e+03,6.356085e+03
1.906291e+03,6.337273e+03
1.907255e+03,6.344740e+03
1.908220e+03,6.354666e+03
1.909184e+03,6.364425e+03
1.910148e+03,6.369997e+03
1.911112e+03,6.374339e+03
1.912077e+03,6.371536e+03
1.913041e+03,6.347294e+03
1.914005e+03,6.319671e+03
1.914969e+03,6.307258e+03
1.915933e+03,6.306291e+03
1.916898e+03,6.307251e+03
1.917862e+03,6.308053e+03
1.918826e+03,6.299080e+03
1.919790e+03,6.280174e+03
1.920755e+03,6.272947e+03
1.921719e+03,6.273469e+03
1.922683e+03,6.274271e+03
1.923647e+03,6.276081e+03
1.924612e+03,6.278351e+03
1.925576e+03,6.279313e+03
1.926540e+03,6.284703e+03
1.927504e+03,6.293369e+03
1.928469e+03,6.294498e+03
1.929433e+03,6.270221e+03
1.930397e+03,6.242806e+03
1.931361e+03,6.232273e+03
1.932325e+03,6.222865e+03
1.933290e+03,6.200250e+03
1.934254e+03,6.179828e+03
1.935218e+03,6.198349e+03
1.936182e+03,6.227976e+03
1.937147e+03,6.228284e+03
1.938111e+03,6.202519e+03
1.939075e+03,6.183050e+03
1.940039e+03,6.172085e+03
1.941004e+03,6.165872e+03
1.941968e+03,6.159618e+03
1.942932e+03,6.149667e+03
1.943896e+03,6.134138e+03
1.944860e+03,6.127144e+03
1.945825e+03,6.133264e+03
1.946789e+03,6.138382e+03
1.947753e+03,6.123119e+03
1.948717e+03,6.112045e+03
1.949682e+03,6.116828e+03
1.950646e+03,6.122548e+03
1.951610e+03,6.118287e+03
1.952574e+03,6.114704e+03
1.953539e+03,6.137823e+03
1.954503e+03,6.159894e+03
1.955467e+03,6.150349e+03
1.956431e+03,6.122269e+03
1.957396e+03,6.102678e+03
1.958360e+03,6.089042e+03
1.959324e+03,6.080760e+03
1.960288e+03,6.079212e+03
1.961252e+03,6.076609e+03
1.962217e+03,6.068594e+03
1.963181e+03,6.066338e+03
1.964145e+03,6.068613e+03
1.965109e+03,6.068338e+03
1.966074e+03,6.059351e+03
1.967038e+03,6.062615e+03
1.968002e+03,6.076558e+03
1.968966e+03,6.079267e+03
1.969931e+03,6.058963e+03
1.970895e+03,6.031667e+03
1.971859e+03,6.007588e+03
1.972823e+03,5.996648e+03
1.973787e+03,6.001794e+03
1.974752e+03,6.013202e+03
1.975716e+03,6.029047e+03
1.976680e+03,6.034945e+03
1.977644e+03,6.008041e+03
1.978609e+03,5.972344e+03
1.979573e+03,5.965297e+03
1.980537e+03,5.975181e+03
1.981501e+03,5.962908e+03
1.982466e+03,5.938758e+03
1.983430e+03,5.936050e+03
1.984394e+03,5.959135e+03
1.985358e+03,5.962210e+03
1.986323e+03,5.947765e+03
1.987287e+03,5.937764e+03
1.988251e+03,5.940722e+03
1.989215e+03,5.926889e+03
1.990179e+03,5.889152e+03
1.991144e+03,5.868702e+03
1.992108e+03,5.878580e+03
1.993072e+03,5.894959e+03
1.994036e+03,5.902594e+03
1.995001e+03,5.904717e+03
1.995965e+03,5.901802e+03
1.996929e+03,5.898226e+03
1.997893e+03,5.896556e+03
1.998858e+03,5.890018e+03
1.999822e+03,5.868375e+03
2.000786e+03,5.843654e+03
2.001750e+03,5.831209e+03
2.002714e+03,5.829381e+03
2.003679e+03,5.822854e+03
2.004643e+03,5.815034e+03
2.005607e+03,5.819149e+03
2.006571e+03,5.831703e+03
2.007536e+03,5.832366e+03
2.008500e+03,5.822708e+03
2.009464e+03,5.799356e+03
2.010428e+03,5.766958e+03
2.011393e+03,5.756976e+03
2.012357e+03,5.771731e+03
2.013321e+03,5.785118e+03
2.014285e+03,5.790585e+03
2.015250e+03,5.787767e+03
2.016214e+03,5.771832e+03
2.017178e+03,5.754960e+03
2.018142e+03,5.738632e+03
2.019106e+03,5.729006e+03
2.020071e+03,5.731308e+03
2.021035e+03,5.732924e+03
2.021999e+03,5.728684e+03
2.022963e+03,5.716952e+03
2.023928e+03,5.696689e+03
2.024892e+03,5.678666e+03
2.025856e+03,5.677722e+03
2.026820e+03,5.678224e+03
2.027785e+03,5.665375e+03
2.028749e+03,5.653890e+03
2.029713e+03,5.677429e+03
2.030677e+03,5.709873e+03
2.031641e+03,5.711275e+03
2.032606e+03,5.694544e+03
2.033570e+03,5.684327e+03
2.034534e+03,5.678062e+03
2.035498e+03,5.670029e+03
2.036463e+03,5.660980e+03
2.037427e+03,5.651067e+03
2.038391e+03,5.643341e+03
2.039355e+03,5.624272e+03
2.040320e+03,5.600113e+03
2.041284e+03,5.597439e+03
2.042248e+03,5.621108e+03
2.043212e+03,5.626162e+03
2.044177e+03,5.610208e+03
2.045141e+03,5.604532e+03
2.046105e+03,5.612290e+03
2.047069e+03,5.616984e+03
2.048033e+03,5.604607e+03
2.048998e+03,5.592619e+03
2.049962e+03,5.584239e+03
2.050926e+03,5.577884e+03
2.051890e+03,5.574913e+03
2.052854e+03,5.568844e+03
2.053819e+03,5.554310e+03
2.054783e+03,5.536519e+03
2.055747e+03,5.520007e+03
2.056711e+03,5.511012e+03
2.057676e+03,5.521416e+03
2.058640e+03,5.531718e+03
2.059604e+03,5.526248e+03
2.060568e+03,5.513804e+03
2.061533e+03,5.512273e+03
2.062497e+03,5.512734e+03
2.063461e+03,5.506219e+03
2.064425e+03,5.495060e+03
2.065390e+03,5.477577e+03
2.066354e+03,5.459867e+03
2.067318e+03,5.459904e+03
2.068282e+03,5.469491e+03
2.069247e+03,5.467010e+03
2.070211e+03,5.453391e+03
2.071175e+03,5.445041e+03
2.072139e+03,5.440862e+03
2.073104e+03,5.436128e+03
2.074068e+03,5.430903e+03
2.075032e+03,5.431195e+03
2.075996e+03,5.433667e+03
2.076960e+03,5.431572e+03
2.077925e+03,5.423394e+03
2.078889e+03,5.428143e+03
2.079853e+03,5.447604e+03
2.080817e+03,5.448038e+03
2.081782e+03,5.426124e+03
2.082746e+03,5.403130e+03
2.083710e+03,5.390134e+03
2.084674e+03,5.376415e+03
2.085639e+03,5.364472e+03
2.086603e+03,5.364502e+03
2.087567e+03,5.380347e+03
2.088531e+03,5.393010e+03
2.089496e+03,5.398615e+03
2.090460e+03,5.391205e+03
2.091424e+03,5.373544e+03
2.092388e+03,5.360241e+03
2.093353e+03,5.356953e+03
2.094317e+03,5.358936e+03
2.095281e+03,5.360372e+03
2.096245e+03,5.359947e+03
2.097209e+03,5.360090e+03
2.098174e+03,5.354313e+03
2.099138e+03,5.341971e+03
2.100102e+03,5.327619e+03
2.101066e+03,5.311808e+03
2.102031e+03,5.299536e+03
2.102995e+03,5.297111e+03
2.103959e+03,5.299753e+03
2.104923e+03,5.307063e+03
2.105887e+03,5.318159e+03
2.106852e+03,5.326704e+03
2.107816e+03,5.323134e+03
2.108780e+03,5.301552e+03
2.109744e+03,5.270707e+03
2.110708e+03,5.251429e+03
2.111673e+03,5.245937e+03
2.112637e+03,5.261611e+03
2.113601e+03,5.280192e+03
2.114565e+03,5.263596e+03
2.115530e+03,5.226072e+03
2.116494e+03,5.189198e+03
2.117458e+03,5.168752e+03
2.118422e+03,5.183631e+03
2.119387e+03,5.221334e+03
2.120351e+03,5.237128e+03
2.121315e+03,5.231869e+03
2.122279e+03,5.225339e+03
2.123244e+03,5.218951e+03
2.124208e+03,5.212569e+03
2.125172e+03,5.206386e+03
2.126136e+03,5.192829e+03
2.127101e+03,5.169765e+03
2.128065e+03,5.147758e+03
2.129029e+03,5.127625e+03
2.129993e+03,5.131074e+03
2.130958e+03,5.157301e+03
2.131922e+03,5.162465e+03
2.132886e+03,5.143587e+03
2.133850e+03,5.135010e+03
2.134814e+03,5.144247e+03
2.135779e+03,5.145060e+03
2.136743e+03,5.119193e+03
2.137707e+03,5.103699e+03
2.138671e+03,5.101546e+03
2.139636e+03,5.097409e+03
2.140600e+03,5.081920e+03
2.141564e+03,5.065572e+03
2.142528e+03,5.049555e+03
2.143493e+03,5.043243e+03
2.144457e+03,5.050983e+03
2.145421e+03,5.053476e+03
2.146385e+03,5.045818e+03
2.147350e+03,5.040010e+03
2.148314e+03,5.042368e+03
2.149278e+03,5.047755e+03
2.150242e+03,5.044712e+03
2.151207e+03,5.043683e+03
2.152171e+03,5.045479e+03
2.153135e+03,5.042995e+03
2.154099e+03,5.035505e+03
2.155063e+03,5.029857e+03
2.156028e+03,5.029230e+03
2.156992e+03,5.031112e+03
2.157956e+03,5.026508e+03
2.158920e+03,5.021234e+03
2.159885e+03,5.017180e+03
2.160849e+03,5.016219e+03
2.161813e+03,5.023389e+03
2.162777e+03,5.022014e+03
2.163741e+03,4.984541e+03
2.164706e+03,4.958279e+03
2.165670e+03,4.969271e+03
2.166634e+03,4.989135e+03
2.167598e+03,4.982979e+03
2.168563e+03,4.971787e+03
2.169527e+03,4.960388e+03
2.170491e+03,4.949152e+03
2.171455e+03,4.945939e+03
2.172420e+03,4.946778e+03
2.173384e+03,4.953034e+03
2.174348e+03,4.956669e+03
2.175312e+03,4.949089e+03
2.176277e+03,4.932623e+03
2.177241e+03,4.902478e+03
2.178205e+03,4.876228e+03
2.179169e+03,4.868073e+03
2.180134e+03,4.873089e+03
2.181098e+03,4.890686e+03
2.182062e+03,4.902043e+03
2.183026e+03,4.888107e+03
2.183990e+03,4.867681e+03
2.184955e+03,4.872457e+03
2.185919e+03,4.881514e+03
2.186883e+03,4.873726e+03
2.187847e+03,4.861400e+03
2.188812e+03,4.866976e+03
2.189776e+03,4.875640e+03
2.190740e+03,4.865921e+03
2.191704e+03,4.849760e+03
2.192668e+03,4.838322e+03
2.193633e+03,4.832481e+03
2.194597e+03,4.837268e+03
2.195561e+03,4.843484e+03
2.196525e+03,4.839548e+03
2.197490e+03,4.830774e+03
2.198454e+03,4.826548e+03
2.199418e+03,4.823603e+03
2.200382e+03,4.820305e+03
2.201347e+03,4.819454e+03
2.202311e+03,4.821636e+03
2.203275e+03,4.823107e+03
2.204239e+03,4.814639e+03
2.205204e+03,4.801218e+03
2.206168e+03,4.803427e+03
2.207132e+03,4.806225e+03
2.208096e+03,4.774287e+03
2.209061e+03,4.737787e+03
2.210025e+03,4.741694e+03
2.210989e+03,4.758755e+03
2.211953e+03,4.746625e+03
2.212917e+03,4.731612e+03
2.213882e+03,4.725114e+03
2.214846e+03,4.722599e+03
2.215810e+03,4.726458e+03
2.216774e+03,4.727452e+03
2.217739e+03,4.726421e+03
2.218703e+03,4.725852e+03
2.219667e+03,4.729727e+03
2.220631e+03,4.732007e+03
2.221595e+03,4.722504e+03
2.222560e+03,4.709060e+03
2.223524e+03,4.705142e+03
2.224488e+03,4.702986e+03
2.225452e+03,4.698479e+03
2.226417e+03,4.689588e+03
2.227381e+03,4.660644e+03
2.228345e+03,4.637950e+03
2.229309e+03,4.666001e+03
2.230274e+03,4.698545e+03
2.231238e+03,4.697034e+03
2.232202e+03,4.676541e+03
2.233166e+03,4.657960e+03
2.234131e+03,4.642830e+03
2.235095e+03,4.629073e+03
2.236059e+03,4.619087e+03
2.237023e+03,4.616433e+03
2.237988e+03,4.616681e+03
2.238952e+03,4.615478e+03
2.239916e+03,4.611307e+03
2.240880e+03,4.608635e+03
2.241844e+03,4.603388e+03
2.242809e+03,4.588342e+03
2.243773e+03,4.576837e+03
2.244737e+03,4.585853e+03
2.245701e+03,4.594286e+03
2.246666e+03,4.582185e+03
2.247630e+03,4.563858e+03
2.248594e+03,4.549272e+03
2.249558e+03,4.544583e+03
2.250522e+03,4.560575e+03
2.251487e+03,4.577506e+03
2.252451e+03,4.583303e+03
2.253415e+03,4.574042e+03
2.254379e+03,4.542398e+03
2.255344e+03,4.513691e+03
2.256308e+03,4.498157e+03
2.257272e+03,4.492252e+03
2.258236e+03,4.501167e+03
2.259201e+03,4.503587e+03
2.260165e+03,4.487745e+03
2.261129e+03,4.476270e+03
2.262093e+03,4.500091e+03
2.263058e+03,4.511050e+03
2.264022e+03,4.497796e+03
2.264986e+03,4.486154e+03
2.265950e+03,4.494253e+03
2.266915e+03,4.495096e+03
2.267879e+03,4.476496e+03
2.268843e+03,4.453467e+03
2.269807e+03,4.435245e+03
2.270771e+03,4.429018e+03
2.271736e+03,4.442565e+03
2.272700e+03,4.452157e+03
2.273664e+03,4.445326e+03
2.274628e+03,4.442491e+03
2.275593e+03,4.456434e+03
2.276557e+03,4.459492e+03
2.277521e+03,4.451063e+03
2.278485e+03,4.437407e+03
2.279449e+03,4.412775e+03
2.280414e+03,4.406797e+03
2.281378e+03,4.419865e+03
2.282342e+03,4.428841e+03
2.283306e+03,4.414450e+03
2.284271e+03,4.403173e+03
2.285235e+03,4.393658e+03
2.286199e+03,4.380143e+03
2.287163e+03,4.363850e+03
2.288128e+03,4.366068e+03
2.289092e+03,4.380275e+03
2.290056e+03,4.379111e+03
2.291020e+03,4.356785e+03
2.291985e+03,4.346822e+03
2.292949e+03,4.351666e+03
2.293913e+03,4.353062e+03
2.294877e+03,4.348675e+03
2.295842e+03,4.358318e+03
2.296806e+03,4.376362e+03
2.297770e+03,4.371445e+03
2.298734e+03,4.348202e+03
2.299698e+03,4.337007e+03
2.300663e+03,4.337737e+03
2.301627e+03,4.327123e+03
2.302591e+03,4.307707e+03
2.303555e+03,4.288026e+03
2.304520e+03,4.271784e+03
2.305484e+03,4.274956e+03
2.306448e+03,4.287688e+03
2.307412e+03,4.290165e+03
2.308376e+03,4.284306e+03
2.309341e+03,4.280628e+03
2.310305e+03,4.275436e+03
2.311269e+03,4.263382e+03
2.312233e+03,4.254600e+03
2.313198e+03,4.261335e+03
2.314162e+03,4.275585e+03
2.315126e+03,4.300429e+03
2.316090e+03,4.313394e+03
2.317055e+03,4.274591e+03
2.318019e+03,4.233741e+03
2.318983e+03,4.238367e+03
2.319947e+03,4.250991e+03
2.320912e+03,4.250502e+03
2.321876e+03,4.248192e+03
2.322840e+03,4.252861e+03
2.323804e+03,4.253413e+03
2.324769e+03,4.245013e+03
2.325733e+03,4.235544e+03
2.326697e+03,4.223674e+03
2.327661e+03,4.220211e+03
2.328625e+03,4.226826e+03
2.329590e+03,4.228350e+03
2.330554e+03,4.219466e+03
2.331518e+03,4.207716e+03
2.332482e+03,4.193285e+03
2.333447e+03,4.183184e+03
2.334411e+03,4.182114e+03
2.335375e+03,4.181209e+03
2.336339e+03,4.179911e+03
2.337303e+03,4.177490e+03
2.338268e+03,4.171436e+03
2.339232e+03,4.159458e+03
2.340196e+03,4.144981e+03
2.341160e+03,4.143962e+03
2.342125e+03,4.161761e+03
2.343089e+03,4.172200e+03
2.344053e+03,4.172310e+03
2.345017e+03,4.175873e+03
2.345982e+03,4.183445e+03
2.346946e+03,4.167568e+03
2.347910e+03,4.141584e+03
2.348874e+03,4.133376e+03
2.349839e+03,4.133851e+03
2.350803e+03,4.117888e+03
2.351767e+03,4.097679e+03
2.352731e+03,4.096380e+03
2.353696e+03,4.107425e+03
2.354660e+03,4.118522e+03
2.355624e+03,4.123979e+03
2.356588e+03,4.115786e+03
2.357552e+03,4.105269e+03
2.358517e+03,4.102371e+03
2.359481e+03,4.101722e+03
2.360445e+03,4.094371e+03
2.361409e+03,4.085500e+03
2.362374e+03,4.079235e+03
2.363338e+03,4.069596e+03
2.364302e+03,4.050894e+03
2.365266e+03,4.044708e+03
2.366230e+03,4.055640e+03
2.367195e+03,4.066864e+03
2.368159e+03,4.066198e+03
2.369123e+03,4.058905e+03
2.370087e+03,4.049129e+03
2.371052e+03,4.038151e+03
2.372016e+03,4.023515e+03
2.372980e+03,4.020692e+03
2.373944e+03,4.028071e+03
2.374909e+03,4.034676e+03
2.375873e+03,4.038845e+03
2.376837e+03,4.039378e+03
2.377801e+03,4.036195e+03
2.378766e+03,4.023140e+03
2.379730e+03,4.000394e+03
2.380694e+03,3.969777e+03
2.381658e+03,3.944262e+03
2.382623e+03,3.962424e+03
2.383587e+03,4.004792e+03
2.384551e+03,4.011941e+03
2.385515e+03,3.996923e+03
2.386479e+03,3.980200e+03
2.387444e+03,3.967021e+03
2.388408e+03,3.966622e+03
2.389372e+03,3.971488e+03
2.390336e+03,3.972028e+03
2.391301e+03,3.969498e+03
2.392265e+03,3.960890e+03
2.393229e+03,3.952571e+03
2.394193e+03,3.949551e+03
2.395157e+03,3.948367e+03
2.396122e+03,3.949357e+03
2.397086e+03,3.950208e+03
2.398050e+03,3.953304e+03
2.399014e+03,3.946746e+03
2.399979e+03,3.920230e+03
2.400943e+03,3.908214e+03
2.401907e+03,3.914598e+03
2.402871e+03,3.919082e+03
2.403836e+03,3.918835e+03
2.404800e+03,3.923233e+03
2.405764e+03,3.931392e+03
2.406728e+03,3.937481e+03
2.407693e+03,3.935890e+03
2.408657e+03,3.914281e+03
2.409621e+03,3.881318e+03
2.410585e+03,3.865114e+03
2.411550e+03,3.864070e+03
2.412514e+03,3.867586e+03
2.413478e+03,3.872378e+03
2.414442e+03,3.874217e+03
2.415406e+03,3.869442e+03
2.416371e+03,3.850017e+03
2.417335e+03,3.830653e+03
2.418299e+03,3.835507e+03
2.419263e+03,3.844075e+03
2.420228e+03,3.843884e+03
2.421192e+03,3.844144e+03
2.422156e+03,3.862802e+03
2.423120e+03,3.869859e+03
2.424084e+03,3.853731e+03
2.425049e+03,3.833430e+03
2.426013e+03,3.822538e+03
2.426977e+03,3.814288e+03
2.427941e+03,3.811031e+03
2.428906e+03,3.812522e+03
2.429870e+03,3.817209e+03
2.430834e+03,3.814560e+03
2.431798e+03,3.806654e+03
2.432763e+03,3.799831e+03
2.433727e+03,3.793263e+03
2.434691e+03,3.778644e+03
2.435655e+03,3.767294e+03
2.436620e+03,3.789784e+03
2.437584e+03,3.826556e+03
2.438548e+03,3.829849e+03
2.439512e+03,3.815161e+03
2.440477e+03,3.794204e+03
2.441441e+03,3.775132e+03
2.442405e+03,3.785114e+03
2.443369e+03,3.785839e+03
2.444333e+03,3.759864e+03
2.445298e+03,3.732485e+03
2.446262e+03,3.718523e+03
2.447226e+03,3.723053e+03
2.448190e+03,3.749188e+03
2.449155e+03,3.760607e+03
2.450119e+03,3.720859e+03
2.451083e+03,3.706773e+03
2.452047e+03,3.715421e+03
2.453011e+03,3.722890e+03
2.453976e+03,3.725380e+03
2.454940e+03,3.715889e+03
2.455904e+03,3.702449e+03
2.456868e+03,3.701946e+03
2.457833e+03,3.708387e+03
2.458797e+03,3.709713e+03
2.459761e+03,3.708492e+03
2.460725e+03,3.704032e+03
2.461690e+03,3.699222e+03
2.462654e+03,3.702334e+03
2.463618e+03,3.701019e+03
2.464582e+03,3.688128e+03
2.465547e+03,3.679284e+03
2.466511e+03,3.689679e+03
2.467475e+03,3.690710e+03
2.468439e+03,3.675528e+03
2.469404e+03,3.659886e+03
2.470368e+03,3.658141e+03
2.471332e+03,3.658090e+03
2.472296e+03,3.656652e+03
2.473260e+03,3.651265e+03
2.474225e+03,3.641477e+03
2.475189e+03,3.640671e+03
2.476153e+03,3.648827e+03
2.477117e+03,3.660527e+03
2.478082e+03,3.669751e+03
2.479046e+03,3.659337e+03
2.480010e+03,3.643562e+03
2.480974e+03,3.645929e+03
2.481938e+03,3.653377e+03
2.482903e+03,3.644147e+03
2.483867e+03,3.641296e+03
2.484831e+03,3.659890e+03
2.485795e+03,3.667384e+03
2.486760e+03,3.623041e+03
2.487724e+03,3.598254e+03
2.488688e+03,3.606026e+03
2.489652e+03,3.613105e+03
2.490617e+03,3.595680e+03
2.491581e+03,3.591810e+03
2.492545e+03,3.600409e+03
2.493509e+03,3.603121e+03
2.494474e+03,3.594850e+03
2.495438e+03,3.580910e+03
2.496402e+03,3.565368e+03
2.497366e+03,3.558347e+03
2.498331e+03,3.557237e+03
2.499295e+03,3.559924e+03
2.500259e+03,3.562104e+03
2.501223e+03,3.565104e+03
2.502188e+03,3.566914e+03
2.503152e+03,3.565184e+03
2.504116e+03,3.558450e+03
2.505080e+03,3.546583e+03
2.506044e+03,3.535604e+03
2.507009e+03,3.523492e+03
2.507973e+03,3.523663e+03
2.508937e+03,3.536415e+03
2.509901e+03,3.538326e+03
2.510865e+03,3.521544e+03
2.511830e+03,3.519253e+03
2.512794e+03,3.523806e+03
2.513758e+03,3.520124e+03
2.514722e+03,3.514792e+03
2.515687e+03,3.525419e+03
2.516651e+03,3.537695e+03
2.517615e+03,3.536463e+03
2.518579e+03,3.529237e+03
2.519544e+03,3.526504e+03
2.520508e+03,3.517286e+03
2.521472e+03,3.497440e+03
2.522436e+03,3.483660e+03
2.523401e+03,3.494915e+03
2.524365e+03,3.500438e+03
2.525329e+03,3.495734e+03
2.526293e+03,3.491034e+03
2.527258e+03,3.491600e+03
2.528222e+03,3.492051e+03
2.529186e+03,3.492259e+03
2.530150e+03,3.493162e+03
2.531115e+03,3.495201e+03
2.532079e+03,3.493480e+03
2.533043e+03,3.487966e+03
2.534007e+03,3.477307e+03
2.534971e+03,3.462987e+03
2.535936e+03,3.448999e+03
2.536900e+03,3.442508e+03
2.537864e+03,3.447249e+03
2.538828e+03,3.446527e+03
2.539792e+03,3.420816e+03
2.540757e+03,3.415184e+03
2.541721e+03,3.433537e+03
2.542685e+03,3.444366e+03
2.543649e+03,3.446030e+03
2.544614e+03,3.439358e+03
2.545578e+03,3.426044e+03
2.546542e+03,3.418210e+03
2.547506e+03,3.415508e+03
2.548471e+03,3.417569e+03
2.549435e+03,3.415729e+03
2.550399e+03,3.398116e+03
2.551363e+03,3.385063e+03
2.552328e+03,3.400659e+03
2.553292e+03,3.414977e+03
2.554256e+03,3.419456e+03
2.555220e+03,3.411806e+03
2.556185e+03,3.391934e+03
2.557149e+03,3.392074e+03
2.558113e+03,3.415546e+03
2.559077e+03,3.417282e+03
2.560042e+03,3.400865e+03
2.561006e+03,3.391658e+03
2.561970e+03,3.391046e+03
2.562934e+03,3.388906e+03
2.563898e+03,3.382402e+03
2.564863e+03,3.361939e+03
2.565827e+03,3.342588e+03
2.566791e+03,3.344071e+03
2.567755e+03,3.352438e+03
2.568719e+03,3.360031e+03
2.569684e+03,3.353694e+03
2.570648e+03,3.320259e+03
2.571612e+03,3.314889e+03
2.572576e+03,3.336172e+03
2.573541e+03,3.350197e+03
2.574505e+03,3.350948e+03
2.575469e+03,3.354321e+03
2.576433e+03,3.354055e+03
2.577398e+03,3.342556e+03
2.578362e+03,3.329738e+03
2.579326e+03,3.333713e+03
2.580290e+03,3.332015e+03
2.581255e+03,3.312036e+03
2.582219e+03,3.296427e+03
2.583183e+03,3.313476e+03
2.584147e+03,3.310667e+03
2.585112e+03,3.292284e+03
2.586076e+03,3.291718e+03
2.587040e+03,3.313439e+03
2.588004e+03,3.310038e+03
2.588969e+03,3.292051e+03
2.589933e+03,3.288698e+03
2.590897e+03,3.295112e+03
2.591861e+03,3.306367e+03
2.592825e+03,3.308601e+03
2.593790e+03,3.288291e+03
2.594754e+03,3.270108e+03
2.595718e+03,3.273362e+03
2.596682e+03,3.275895e+03
2.597646e+03,3.271944e+03
2.598611e+03,3.263504e+03
2.599575e+03,3.254885e+03
2.600539e+03,3.250703e+03
2.601503e+03,3.250352e+03
2.602468e+03,3.253670e+03
2.603432e+03,3.256573e+03
2.604396e+03,3.254286e+03
2.605360e+03,3.251537e+03
2.606325e+03,3.248456e+03
2.607289e+03,3.244987e+03
2.608253e+03,3.241729e+03
2.609217e+03,3.241217e+03
2.610182e+03,3.242262e+03
2.611146e+03,3.231868e+03
2.612110e+03,3.213719e+03
2.613074e+03,3.210935e+03
2.614039e+03,3.223535e+03
2.615003e+03,3.220019e+03
2.615967e+03,3.208954e+03
2.616931e+03,3.212750e+03
2.617896e+03,3.219965e+03
2.618860e+03,3.212279e+03
2.619824e+03,3.202098e+03
2.620788e+03,3.192200e+03
2.621752e+03,3.190957e+03
2.622717e+03,3.212228e+03
2.623681e+03,3.219063e+03
2.624645e+03,3.210933e+03
2.625609e+03,3.210476e+03
2.626573e+03,3.216362e+03
2.627538e+03,3.196955e+03
2.628502e+03,3.171958e+03
2.629466e+03,3.166782e+03
2.630430e+03,3.170405e+03
2.631395e+03,3.169337e+03
2.632359e+03,3.170403e+03
2.633323e+03,3.179676e+03
2.634287e+03,3.174226e+03
2.635252e+03,3.151125e+03
2.636216e+03,3.153782e+03
2.637180e+03,3.185415e+03
2.638144e+03,3.189175e+03
2.639109e+03,3.172124e+03
2.640073e+03,3.154605e+03
2.641037e+03,3.145351e+03
2.642001e+03,3.150297e+03
2.642966e+03,3.159651e+03
2.643930e+03,3.168701e+03
2.644894e+03,3.170487e+03
2.645858e+03,3.154117e+03
2.646823e+03,3.142774e+03
2.647787e+03,3.135555e+03
2.648751e+03,3.133465e+03
2.649715e+03,3.134884e+03
2.650679e+03,3.137406e+03
2.651644e+03,3.140168e+03
2.652608e+03,3.142063e+03
2.653572e+03,3.141404e+03
2.654536e+03,3.133862e+03
2.655500e+03,3.130767e+03
2.656465e+03,3.138428e+03
2.657429e+03,3.132126e+03
2.658393e+03,3.099781e+03
2.659357e+03,3.094997e+03
2.660322e+03,3.123476e+03
2.661286e+03,3.135816e+03
2.662250e+03,3.134008e+03
2.663214e+03,3.124887e+03
2.664179e+03,3.113543e+03
2.665143e+03,3.104612e+03
2.666107e+03,3.101313e+03
2.667071e+03,3.105624e+03
2.668036e+03,3.112083e+03
2.669000e+03,3.118963e+03
2.669964e+03,3.104415e+03
2.670928e+03,3.072751e+03
2.671893e+03,3.057498e+03
2.672857e+03,3.058659e+03
2.673821e+03,3.050774e+03
2.674785e+03,3.044883e+03
2.675750e+03,3.057263e+03
2.676714e+03,3.071620e+03
2.677678e+03,3.065173e+03
2.678642e+03,3.058105e+03
2.679606e+03,3.055315e+03
2.680571e+03,3.051680e+03
2.681535e+03,3.045380e+03
2.682499e+03,3.035236e+03
2.683463e+03,3.026022e+03
2.684427e+03,3.041782e+03
2.685392e+03,3.066923e+03
2.686356e+03,3.070850e+03
2.687320e+03,3.066781e+03
2.688284e+03,3.063629e+03
2.689249e+03,3.053695e+03
2.690213e+03,3.034492e+03
2.691177e+03,3.026400e+03
2.692141e+03,3.041358e+03
2.693106e+03,3.033973e+03
2.694070e+03,3.014968e+03
2.695034e+03,3.007498e+03
2.695998e+03,3.008476e+03
2.696963e+03,3.018419e+03
2.697927e+03,3.026392e+03
2.698891e+03,3.025386e+03
2.699855e+03,3.009105e+03
2.700820e+03,2.970434e+03
2.701784e+03,2.961510e+03
2.702748e+03,2.981833e+03
2.703712e+03,2.995314e+03
2.704677e+03,3.000549e+03
2.705641e+03,3.005743e+03
2.706605e+03,3.009425e+03
2.707569e+03,2.999495e+03
2.708533e+03,2.990748e+03
2.709498e+03,2.989480e+03
2.710462e+03,2.982931e+03
2.711426e+03,2.966282e+03
2.712390e+03,2.954036e+03
2.713354e+03,2.947432e+03
2.714319e+03,2.957503e+03
2.715283e+03,2.974475e+03
2.716247e+03,2.981700e+03
2.717211e+03,2.979286e+03
2.718176e+03,2.967274e+03
2.719140e+03,2.959831e+03
2.720104e+03,2.968804e+03
2.721068e+03,2.973864e+03
2.722033e+03,2.971843e+03
2.722997e+03,2.954141e+03
2.723961e+03,2.927376e+03
2.724925e+03,2.924135e+03
2.725890e+03,2.932962e+03
2.726854e+03,2.937992e+03
2.727818e+03,2.937835e+03
2.728782e+03,2.926910e+03
2.729747e+03,2.921544e+03
2.730711e+03,2.939245e+03
2.731675e+03,2.929474e+03
2.732639e+03,2.902652e+03
2.733604e+03,2.911860e+03
2.734568e+03,2.941813e+03
2.735532e+03,2.956444e+03
2.736496e+03,2.954198e+03
2.737460e+03,2.936441e+03
2.738425e+03,2.917210e+03
2.739389e+03,2.902795e+03
2.740353e+03,2.892036e+03
2.741317e+03,2.887212e+03
2.742281e+03,2.893444e+03
2.743246e+03,2.905864e+03
2.744210e+03,2.901563e+03
2.745174e+03,2.886798e+03
2.746138e+03,2.871588e+03
2.747103e+03,2.863412e+03
2.748067e+03,2.865686e+03
2.749031e+03,2.873109e+03
2.749995e+03,2.883632e+03
2.750960e+03,2.893970e+03
2.751924e+03,2.900649e+03
2.752888e+03,2.889087e+03
2.753852e+03,2.869009e+03
2.754817e+03,2.862553e+03
2.755781e+03,2.860851e+03
2.756745e+03,2.857039e+03
2.757709e+03,2.861754e+03
2.758674e+03,2.875280e+03
2.759638e+03,2.872743e+03
2.760602e+03,2.852327e+03
2.761566e+03,2.846067e+03
2.762531e+03,2.848153e+03
2.763495e+03,2.841187e+03
2.764459e+03,2.834175e+03
2.765423e+03,2.842035e+03
2.766387e+03,2.851246e+03
2.767352e+03,2.860336e+03
2.768316e+03,2.850478e+03
2.769280e+03,2.818916e+03
2.770244e+03,2.812669e+03
2.771208e+03,2.824032e+03
2.772173e+03,2.829307e+03
2.773137e+03,2.829594e+03
2.774101e+03,2.829812e+03
2.775065e+03,2.833991e+03
2.776030e+03,2.845164e+03
2.776994e+03,2.835455e+03
2.777958e+03,2.807598e+03
2.778922e+03,2.806155e+03
2.779887e+03,2.820192e+03
2.780851e+03,2.804946e+03
2.781815e+03,2.783965e+03
2.782779e+03,2.775800e+03
2.783744e+03,2.780751e+03
2.784708e+03,2.801706e+03
2.785672e+03,2.809404e+03
2.786636e+03,2.802084e+03
2.787601e+03,2.795246e+03
2.788565e+03,2.791740e+03
2.789529e+03,2.792556e+03
2.790493e+03,2.793870e+03
2.791458e+03,2.791080e+03
2.792422e+03,2.782379e+03
2.793386e+03,2.771181e+03
2.794350e+03,2.761230e+03
2.795314e+03,2.751977e+03
2.796279e+03,2.766568e+03
2.797243e+03,2.786512e+03
2.798207e+03,2.787020e+03
2.799171e+03,2.783707e+03
2.800135e+03,2.796519e+03
2.801100e+03,2.797469e+03
2.802064e+03,2.780900e+03
2.803028e+03,2.771648e+03
2.803992e+03,2.768791e+03
2.804957e+03,2.758750e+03
2.805921e+03,2.747094e+03
2.806885e+03,2.745983e+03
2.807849e+03,2.736085e+03
2.808814e+03,2.705949e+03
2.809778e+03,2.701846e+03
2.810742e+03,2.759329e+03
2.811706e+03,2.777914e+03
2.812671e+03,2.761588e+03
2.813635e+03,2.747719e+03
2.814599e+03,2.735327e+03
2.815563e+03,2.716576e+03
2.816528e+03,2.706517e+03
2.817492e+03,2.715093e+03
2.818456e+03,2.726788e+03
2.819420e+03,2.735025e+03
2.820385e+03,2.727762e+03
2.821349e+03,2.712484e+03
2.822313e+03,2.708242e+03
2.823277e+03,2.707605e+03
2.824241e+03,2.701253e+03
2.825206e+03,2.699105e+03
2.826170e+03,2.711466e+03
2.827134e+03,2.723538e+03
2.828098e+03,2.727546e+03
2.829063e+03,2.698248e+03
2.830027e+03,2.660902e+03
2.830991e+03,2.684047e+03
2.831955e+03,2.712252e+03
2.832919e+03,2.691377e+03
2.833884e+03,2.667519e+03
2.834848e+03,2.649176e+03
2.835812e+03,2.659271e+03
2.836776e+03,2.693227e+03
2.837741e+03,2.712304e+03
2.838705e+03,2.712359e+03
2.839669e+03,2.684599e+03
2.840633e+03,2.666872e+03
2.841598e+03,2.681659e+03
2.842562e+03,2.685079e+03
2.843526e+03,2.668813e+03
2.844490e+03,2.662097e+03
2.845455e+03,2.662960e+03
2.846419e+03,2.673815e+03
2.847383e+03,2.686451e+03
2.848347e+03,2.694930e+03
2.849312e+03,2.692673e+03
2.850276e+03,2.678488e+03
2.851240e+03,2.669660e+03
2.852204e+03,2.664464e+03
2.853168e+03,2.655362e+03
2.854133e+03,2.649696e+03
2.855097e+03,2.662994e+03
2.856061e+03,2.678522e+03
2.857025e+03,2.687162e+03
2.857990e+03,2.682875e+03
2.858954e+03,2.664555e+03
2.859918e+03,2.652711e+03
2.860882e+03,2.647093e+03
2.861846e+03,2.645601e+03
2.862811e+03,2.645567e+03
2.863775e+03,2.646570e+03
2.864739e+03,2.637540e+03
2.865703e+03,2.614581e+03
2.866668e+03,2.611329e+03
2.867632e+03,2.623352e+03
2.868596e+03,2.642335e+03
2.869560e+03,2.655813e+03
2.870525e+03,2.646027e+03
2.871489e+03,2.644183e+03
2.872453e+03,2.656524e+03
2.873417e+03,2.654828e+03
2.874382e+03,2.638312e+03
2.875346e+03,2.630195e+03
2.876310e+03,2.631167e+03
2.877274e+03,2.637797e+03
2.878239e+03,2.643196e+03
2.879203e+03,2.643297e+03
2.880167e+03,2.637300e+03
2.881131e+03,2.627925e+03
2.882095e+03,2.616456e+03
2.883060e+03,2.612612e+03
2.884024e+03,2.630473e+03
2.884988e+03,2.648103e+03
2.885952e+03,2.646235e+03
2.886917e+03,2.629079e+03
2.887881e+03,2.599612e+03
2.888845e+03,2.619530e+03
2.889809e+03,2.660589e+03
2.890773e+03,2.648890e+03
2.891738e+03,2.621544e+03
2.892702e+03,2.623047e+03
2.893666e+03,2.629509e+03
2.894630e+03,2.635923e+03
2.895595e+03,2.640877e+03
2.896559e+03,2.639800e+03
2.897523e+03,2.600114e+03
2.898487e+03,2.564355e+03
2.899452e+03,2.590464e+03
2.900416e+03,2.607704e+03
2.901380e+03,2.599125e+03
2.902344e+03,2.591172e+03
2.903309e+03,2.587735e+03
2.904273e+03,2.571484e+03
2.905237e+03,2.559344e+03
2.906201e+03,2.570699e+03
2.907166e+03,2.578088e+03
2.908130e+03,2.568517e+03
2.909094e+03,2.585836e+03
2.910058e+03,2.629207e+03
2.911022e+03,2.606204e+03
2.911987e+03,2.566809e+03
2.912951e+03,2.565338e+03
2.913915e+03,2.571042e+03
2.914879e+03,2.560589e+03
2.915844e+03,2.559143e+03
2.916808e+03,2.568496e+03
2.917772e+03,2.574200e+03
2.918736e+03,2.575972e+03
2.919700e+03,2.571401e+03
2.920665e+03,2.564281e+03
2.921629e+03,2.556083e+03
2.922593e+03,2.548149e+03
2.923557e+03,2.542773e+03
2.924522e+03,2.543405e+03
2.925486e+03,2.546320e+03
2.926450e+03,2.543731e+03
2.927414e+03,2.538826e+03
2.928379e+03,2.530363e+03
2.929343e+03,2.534505e+03
2.930307e+03,2.547188e+03
2.931271e+03,2.546358e+03
2.932236e+03,2.541179e+03
2.933200e+03,2.547190e+03
2.934164e+03,2.548762e+03
2.935128e+03,2.536208e+03
2.936093e+03,2.536813e+03
2.937057e+03,2.550411e+03
2.938021e+03,2.533094e+03
2.938985e+03,2.509218e+03
2.939949e+03,2.522396e+03
2.940914e+03,2.530646e+03
2.941878e+03,2.521064e+03
2.942842e+03,2.499275e+03
2.943806e+03,2.467671e+03
2.944771e+03,2.494134e+03
2.945735e+03,2.536774e+03
2.946699e+03,2.540401e+03
2.947663e+03,2.522047e+03
2.948627e+03,2.488097e+03
2.949592e+03,2.478964e+03
2.950556e+03,2.501747e+03
2.951520e+03,2.533894e+03
2.952484e+03,2.543837e+03
2.953449e+03,2.501611e+03
2.954413e+03,2.466195e+03
2.955377e+03,2.464998e+03
2.956341e+03,2.490723e+03
2.957306e+03,2.527626e+03
2.958270e+03,2.501326e+03
2.959234e+03,2.460972e+03
2.960198e+03,2.452393e+03
2.961163e+03,2.463507e+03
2.962127e+03,2.485017e+03
2.963091e+03,2.488097e+03
2.964055e+03,2.469245e+03
2.965020e+03,2.434859e+03
2.965984e+03,2.419854e+03
2.966948e+03,2.447269e+03
2.967912e+03,2.463516e+03
2.968876e+03,2.441302e+03
2.969841e+03,2.444363e+03
2.970805e+03,2.452256e+03
2.971769e+03,2.424132e+03
2.972733e+03,2.398770e+03
2.973698e+03,2.405562e+03
2.974662e+03,2.412463e+03
2.975626e+03,2.412453e+03
2.976590e+03,2.435388e+03
2.977554e+03,2.458766e+03
2.978519e+03,2.450367e+03
2.979483e+03,2.433262e+03
2.980447e+03,2.426531e+03
2.981411e+03,2.402522e+03
2.982376e+03,2.366253e+03
2.983340e+03,2.368566e+03
2.984304e+03,2.386522e+03
2.985268e+03,2.396958e+03
2.986233e+03,2.408289e+03
2.987197e+03,2.429591e+03
2.988161e+03,2.431523e+03
2.989125e+03,2.420238e+03
2.990090e+03,2.417514e+03
2.991054e+03,2.417200e+03
2.992018e+03,2.413935e+03
2.992982e+03,2.409556e+03
2.993947e+03,2.408992e+03
2.994911e+03,2.388921e+03
2.995875e+03,2.371401e+03
2.996839e+03,2.388471e+03
2.997803e+03,2.405543e+03
2.998768e+03,2.403082e+03
2.999732e+03,2.398573e+03
3.000696e+03,2.396986e+03
3.001660e+03,2.379860e+03
3.002625e+03,2.364906e+03
3.003589e+03,2.371026e+03
3.004553e+03,2.385878e+03
3.005517e+03,2.406683e+03
3.006481e+03,2.408757e+03
3.007446e+03,2.393368e+03
3.008410e+03,2.385384e+03
3.009374e+03,2.386644e+03
3.010338e+03,2.400523e+03
3.011303e+03,2.404371e+03
3.012267e+03,2.386330e+03
3.013231e+03,2.382262e+03
3.014195e+03,2.382871e+03
3.015160e+03,2.365870e+03
3.016124e+03,2.365550e+03
3.017088e+03,2.390350e+03
3.018052e+03,2.386189e+03
3.019017e+03,2.349128e+03
3.019981e+03,2.337746e+03
3.020945e+03,2.343372e+03
3.021909e+03,2.357670e+03
3.022874e+03,2.377304e+03
3.023838e+03,2.397611e+03
3.024802e+03,2.389132e+03
3.025766e+03,2.368008e+03
3.026730e+03,2.379773e+03
3.027695e+03,2.383196e+03
3.028659e+03,2.361165e+03
3.029623e+03,2.351963e+03
3.030587e+03,2.356434e+03
3.031552e+03,2.348135e+03
3.032516e+03,2.339453e+03
3.033480e+03,2.359153e+03
3.034444e+03,2.364538e+03
3.035408e+03,2.352025e+03
3.036373e+03,2.356005e+03
3.037337e+03,2.369406e+03
3.038301e+03,2.375359e+03
3.039265e+03,2.369542e+03
3.040230e+03,2.333136e+03
3.041194e+03,2.322109e+03
3.042158e+03,2.333109e+03
3.043122e+03,2.345065e+03
3.044087e+03,2.355337e+03
3.045051e+03,2.361329e+03
3.046015e+03,2.352587e+03
3.046979e+03,2.325394e+03
3.047944e+03,2.309234e+03
3.048908e+03,2.312359e+03
3.049872e+03,2.345349e+03
3.050836e+03,2.371846e+03
3.051801e+03,2.367636e+03
3.052765e+03,2.341158e+03
3.053729e+03,2.297874e+03
3.054693e+03,2.270919e+03
3.055657e+03,2.272557e+03
3.056622e+03,2.305273e+03
3.057586e+03,2.329906e+03
3.058550e+03,2.336105e+03
3.059514e+03,2.328938e+03
3.060479e+03,2.319979e+03
3.061443e+03,2.314962e+03
3.062407e+03,2.337445e+03
3.063371e+03,2.386189e+03
3.064335e+03,2.356809e+03
3.065300e+03,2.274020e+03
3.066264e+03,2.265421e+03
3.067228e+03,2.277699e+03
3.068192e+03,2.276969e+03
3.069157e+03,2.282716e+03
3.070121e+03,2.296539e+03
3.071085e+03,2.322751e+03
3.072049e+03,2.342887e+03
3.073014e+03,2.321224e+03
3.073978e+03,2.303501e+03
3.074942e+03,2.298705e+03
3.075906e+03,2.306420e+03
3.076871e+03,2.312022e+03
3.077835e+03,2.290519e+03
3.078799e+03,2.272878e+03
3.079763e+03,2.278726e+03
3.080728e+03,2.292766e+03
3.081692e+03,2.309786e+03
3.082656e+03,2.312911e+03
3.083620e+03,2.304968e+03
3.084584e+03,2.290582e+03
3.085549e+03,2.275599e+03
3.086513e+03,2.264603e+03
3.087477e+03,2.298270e+03
3.088441e+03,2.326256e+03
3.089406e+03,2.287753e+03
3.090370e+03,2.281157e+03
3.091334e+03,2.315026e+03
3.092298e+03,2.308879e+03
3.093262e+03,2.280606e+03
3.094227e+03,2.263734e+03
3.095191e+03,2.266114e+03
3.096155e+03,2.293714e+03
3.097119e+03,2.326373e+03
3.098084e+03,2.345363e+03
3.099048e+03,2.310312e+03
3.100012e+03,2.271460e+03
3.100976e+03,2.267002e+03
3.101941e+03,2.258772e+03
3.102905e+03,2.253397e+03
3.103869e+03,2.300676e+03
3.104833e+03,2.335019e+03
3.105798e+03,2.319790e+03
3.106762e+03,2.283526e+03
3.107726e+03,2.244300e+03
3.108690e+03,2.301022e+03
3.109655e+03,2.362349e+03
3.110619e+03,2.294162e+03
3.111583e+03,2.264866e+03
3.112547e+03,2.291539e+03
3.113511e+03,2.268411e+03
3.114476e+03,2.224384e+03
3.115440e+03,2.237162e+03
3.116404e+03,2.262135e+03
3.117368e+03,2.294081e+03
3.118333e+03,2.308227e+03
3.119297e+03,2.294200e+03
3.120261e+03,2.233916e+03
3.121225e+03,2.187430e+03
3.122189e+03,2.185048e+03
3.123154e+03,2.217408e+03
3.124118e+03,2.266771e+03
3.125082e+03,2.297285e+03
3.126046e+03,2.299038e+03
3.127011e+03,2.269221e+03
3.127975e+03,2.240291e+03
3.128939e+03,2.220761e+03
3.129903e+03,2.235008e+03
3.130868e+03,2.257267e+03
3.131832e+03,2.270478e+03
3.132796e+03,2.266568e+03
3.133760e+03,2.252157e+03
3.134725e+03,2.260114e+03
3.135689e+03,2.273523e+03
3.136653e+03,2.275687e+03
3.137617e+03,2.269093e+03
3.138582e+03,2.255442e+03
3.139546e+03,2.261013e+03
3.140510e+03,2.268863e+03
3.141474e+03,2.268274e+03
3.142438e+03,2.253317e+03
3.143403e+03,2.228722e+03
3.144367e+03,2.221896e+03
3.145331e+03,2.225282e+03
3.146295e+03,2.224989e+03
3.147260e+03,2.237612e+03
3.148224e+03,2.263955e+03
3.149188e+03,2.295789e+03
3.150152e+03,2.312859e+03
3.151116e+03,2.289236e+03
3.152081e+03,2.266035e+03
3.153045e+03,2.256400e+03
3.154009e+03,2.243041e+03
3.154973e+03,2.234781e+03
3.155938e+03,2.249526e+03
3.156902e+03,2.264100e+03
3.157866e+03,2.266708e+03
3.158830e+03,2.242567e+03
3.159795e+03,2.213715e+03
3.160759e+03,2.220673e+03
3.161723e+03,2.234189e+03
3.162687e+03,2.245248e+03
3.163652e+03,2.268490e+03
3.164616e+03,2.289665e+03
3.165580e+03,2.275552e+03
3.166544e+03,2.254340e+03
3.167509e+03,2.241393e+03
3.168473e+03,2.257849e+03
3.169437e+03,2.284909e+03
3.170401e+03,2.248534e+03
3.171365e+03,2.219802e+03
3.172330e+03,2.231887e+03
3.173294e+03,2.254400e+03
3.174258e+03,2.264922e+03
3.175222e+03,2.217840e+03
3.176187e+03,2.198774e+03
3.177151e+03,2.274917e+03
3.178115e+03,2.297379e+03
3.179079e+03,2.272062e+03
3.180043e+03,2.246670e+03
3.181008e+03,2.229881e+03
3.181972e+03,2.227183e+03
3.182936e+03,2.262464e+03
3.183900e+03,2.308343e+03
3.184865e+03,2.283516e+03
3.185829e+03,2.247276e+03
3.186793e+03,2.230848e+03
3.187757e+03,2.249661e+03
3.188722e+03,2.273121e+03
3.189686e+03,2.231822e+03
3.190650e+03,2.198602e+03
3.191614e+03,2.199995e+03
3.192579e+03,2.222925e+03
3.193543e+03,2.251411e+03
3.194507e+03,2.242608e+03
3.195471e+03,2.252088e+03
3.196436e+03,2.302769e+03
3.197400e+03,2.315372e+03
3.198364e+03,2.306494e+03
3.199328e+03,2.319518e+03
3.200292e+03,2.305145e+03
3.201257e+03,0.000000e+00
3.202221e+03,0.000000e+00
3.203185e+03,0.000000e+00
3.204149e+03,0.000000e+00
3.205114e+03,0.000000e+00
3.206078e+03,0.000000e+00
3.207042e+03,0.000000e+00
3.208006e+03,0.000000e+00
3.208970e+03,0.000000e+00
3.209935e+03,0.000000e+00
3.210899e+03,0.000000e+00
3.211863e+03,0.000000e+00
3.212827e+03,0.000000e+00
3.213792e+03,0.000000e+00
3.214756e+03,0.000000e+00
3.215720e+03,0.000000e+00
3.216684e+03,0.000000e+00
3.217649e+03,0.000000e+00
3.218613e+03,0.000000e+00
3.219577e+03,0.000000e+00
3.220541e+03,0.000000e+00
3.221506e+03,0.000000e+00
3.222470e+03,0.000000e+00
3.223434e+03,0.000000e+00
3.224398e+03,0.000000e+00
3.225363e+03,0.000000e+00
3.226327e+03,0.000000e+00
3.227291e+03,0.000000e+00
3.228255e+03,0.000000e+00
3.229219e+03,0.000000e+00
3.230184e+03,0.000000e+00
3.231148e+03,0.000000e+00
3.232112e+03,0.000000e+00
3.233076e+03,0.000000e+00
3.234041e+03,0.000000e+00
3.235005e+03,0.000000e+00
3.235969e+03,0.000000e+00
3.236933e+03,0.000000e+00
3.237897e+03,0.000000e+00
3.238862e+03,0.000000e+00
3.239826e+03,0.000000e+00
3.240790e+03,0.000000e+00
3.241754e+03,0.000000e+00
3.242719e+03,0.000000e+00
3.243683e+03,0.000000e+00
3.244647e+03,0.000000e+00
3.245611e+03,0.000000e+00
3.246576e+03,0.000000e+00
3.247540e+03,0.000000e+00
3.248504e+03,0.000000e+00
3.249468e+03,0.000000e+00
3.250433e+03,0.000000e+00
3.251397e+03,0.000000e+00
3.252361e+03,0.000000e+00
3.253325e+03,0.000000e+00
3.254290e+03,0.000000e+00
3.255254e+03,0.000000e+00
3.256218e+03,0.000000e+00
3.257182e+03,0.000000e+00
3.258146e+03,0.000000e+00
3.259111e+03,0.000000e+00
3.260075e+03,0.000000e+00
3.261039e+03,0.000000e+00
3.262003e+03,0.000000e+00
3.262968e+03,0.000000e+00
3.263932e+03,0.000000e+00
3.264896e+03,0.000000e+00
3.265860e+03,0.000000e+00
3.266824e+03,0.000000e+00
3.267789e+03,0.000000e+00
3.268753e+03,0.000000e+00
3.269717e+03,0.000000e+00
3.270681e+03,0.000000e+00
3.271646e+03,0.000000e+00
3.272610e+03,0.000000e+00
3.273574e+03,0.000000e+00
3.274538e+03,0.000000e+00
3.275503e+03,0.000000e+00
3.276467e+03,0.000000e+00
3.277431e+03,0.000000e+00
3.278395e+03,0.000000e+00
3.279360e+03,0.000000e+00
3.280324e+03,0.000000e+00
3.281288e+03,0.000000e+00
3.282252e+03,0.000000e+00
3.283217e+03,0.000000e+00
3.284181e+03,0.000000e+00
3.285145e+03,0.000000e+00
3.286109e+03,0.000000e+00
3.287073e+03,0.000000e+00
3.288038e+03,0.000000e+00
3.289002e+03,0.000000e+00
3.289966e+03,0.000000e+00
3.290930e+03,0.000000e+00
3.291895e+03,0.000000e+00
3.292859e+03,0.000000e+00
3.293823e+03,0.000000e+00
3.294787e+03,0.000000e+00
3.295751e+03,0.000000e+00
3.296716e+03,0.000000e+00
3.297680e+03,0.000000e+00
3.298644e+03,0.000000e+00
3.299608e+03,0.000000e+00
3.300573e+03,0.000000e+00
3.301537e+03,0.000000e+00
3.302501e+03,0.000000e+00
3.303465e+03,0.000000e+00
3.304430e+03,0.000000e+00
3.305394e+03,0.000000e+00
3.306358e+03,0.000000e+00
3.307322e+03,0.000000e+00
3.308287e+03,0.000000e+00
3.309251e+03,0.000000e+00
3.310215e+03,0.000000e+00
3.311179e+03,0.000000e+00
3.312144e+03,0.000000e+00
3.313108e+03,0.000000e+00
3.314072e+03,0.000000e+00
3.315036e+03,0.000000e+00
3.316000e+03,0.000000e+00
3.316965e+03,0.000000e+00
3.317929e+03,0.000000e+00
3.318893e+03,0.000000e+00
3.319857e+03,0.000000e+00
3.320822e+03,0.000000e+00
3.321786e+03,0.000000e+00
3.322750e+03,0.000000e+00
3.323714e+03,0.000000e+00
3.324678e+03,0.000000e+00
3.325643e+03,0.000000e+00
3.326607e+03,0.000000e+00
3.327571e+03,0.000000e+00
3.328535e+03,0.000000e+00
3.329500e+03,0.000000e+00
3.330464e+03,0.000000e+00
3.331428e+03,0.000000e+00
3.332392e+03,0.000000e+00
3.333357e+03,0.000000e+00
3.334321e+03,0.000000e+00
3.335285e+03,0.000000e+00
3.336249e+03,0.000000e+00
3.337214e+03,0.000000e+00
3.338178e+03,0.000000e+00
3.339142e+03,0.000000e+00
3.340106e+03,0.000000e+00
3.341071e+03,0.000000e+00
3.342035e+03,0.000000e+00
3.342999e+03,0.000000e+00
3.343963e+03,0.000000e+00
3.344927e+03,0.000000e+00
3.345892e+03,0.000000e+00
3.346856e+03,0.000000e+00
3.347820e+03,0.000000e+00
3.348784e+03,0.000000e+00
3.349749e+03,0.000000e+00
3.350713e+03,0.000000e+00
3.351677e+03,0.000000e+00
3.352641e+03,0.000000e+00
3.353605e+03,0.000000e+00
3.354570e+03,0.000000e+00
3.355534e+03,0.000000e+00
3.356498e+03,0.000000e+00
3.357462e+03,0.000000e+00
3.358427e+03,0.000000e+00
3.359391e+03,0.000000e+00
3.360355e+03,0.000000e+00
3.361319e+03,0.000000e+00
3.362284e+03,0.000000e+00
3.363248e+03,0.000000e+00
3.364212e+03,0.000000e+00
3.365176e+03,0.000000e+00
3.366141e+03,0.000000e+00
3.367105e+03,0.000000e+00
3.368069e+03,0.000000e+00
3.369033e+03,0.000000e+00
3.369998e+03,0.000000e+00
3.370962e+03,0.000000e+00
3.371926e+03,0.000000e+00
3.372890e+03,0.000000e+00
3.373854e+03,0.000000e+00
3.374819e+03,0.000000e+00
3.375783e+03,0.000000e+00
3.376747e+03,0.000000e+00
3.377711e+03,0.000000e+00
3.378676e+03,0.000000e+00
3.379640e+03,0.000000e+00
3.380604e+03,0.000000e+00
3.381568e+03,0.000000e+00
3.382532e+03,0.000000e+00
3.383497e+03,0.000000e+00
3.384461e+03,0.000000e+00
3.385425e+03,0.000000e+00
3.386389e+03,0.000000e+00
3.387354e+03,0.000000e+00
3.388318e+03,0.000000e+00
3.389282e+03,0.000000e+00
3.390246e+03,0.000000e+00
3.391211e+03,0.000000e+00
3.392175e+03,0.000000e+00
3.393139e+03,0.000000e+00
3.394103e+03,0.000000e+00
3.395068e+03,0.000000e+00
3.396032e+03,0.000000e+00
3.396996e+03,0.000000e+00
3.397960e+03,0.000000e+00
3.398925e+03,0.000000e+00
3.399889e+03,0.000000e+00
3.400853e+03,0.000000e+00
3.401817e+03,0.000000e+00
3.402781e+03,0.000000e+00
3.403746e+03,0.000000e+00
3.404710e+03,0.000000e+00
3.405674e+03,0.000000e+00
3.406638e+03,0.000000e+00
3.407603e+03,0.000000e+00
3.408567e+03,0.000000e+00
3.409531e+03,0.000000e+00
3.410495e+03,0.000000e+00
3.411459e+03,0.000000e+00
3.412424e+03,0.000000e+00
3.413388e+03,0.000000e+00
3.414352e+03,0.000000e+00
3.415316e+03,0.000000e+00
3.416281e+03,0.000000e+00
3.417245e+03,0.000000e+00
3.418209e+03,0.000000e+00
3.419173e+03,0.000000e+00
3.420138e+03,0.000000e+00
3.421102e+03,0.000000e+00
3.422066e+03,0.000000e+00
3.423030e+03,0.000000e+00
3.423995e+03,0.000000e+00
3.424959e+03,0.000000e+00
3.425923e+03,0.000000e+00
3.426887e+03,0.000000e+00
3.427852e+03,0.000000e+00
3.428816e+03,0.000000e+00
3.429780e+03,0.000000e+00
3.430744e+03,0.000000e+00
3.431708e+03,0.000000e+00
3.432673e+03,0.000000e+00
3.433637e+03,0.000000e+00
3.434601e+03,0.000000e+00
3.435565e+03,0.000000e+00
3.436530e+03,0.000000e+00
3.437494e+03,0.000000e+00
3.438458e+03,0.000000e+00
3.439422e+03,0.000000e+00
3.440386e+03,0.000000e+00
3.441351e+03,0.000000e+00
3.442315e+03,0.000000e+00
3.443279e+03,0.000000e+00
3.444243e+03,0.000000e+00
3.445208e+03,0.000000e+00
3.446172e+03,0.000000e+00
3.447136e+03,0.000000e+00
3.448100e+03,0.000000e+00
3.449065e+03,0.000000e+00
3.450029e+03,0.000000e+00
3.450993e+03,0.000000e+00
3.451957e+03,0.000000e+00
3.452922e+03,0.000000e+00
3.453886e+03,0.000000e+00
3.454850e+03,0.000000e+00
3.455814e+03,0.000000e+00
3.456779e+03,0.000000e+00
3.457743e+03,0.000000e+00
3.458707e+03,0.000000e+00
3.459671e+03,0.000000e+00
3.460635e+03,0.000000e+00
3.461600e+03,0.000000e+00
3.462564e+03,0.000000e+00
3.463528e+03,0.000000e+00
3.464492e+03,0.000000e+00
3.465457e+03,0.000000e+00
3.466421e+03,0.000000e+00
3.467385e+03,0.000000e+00
3.468349e+03,0.000000e+00
3.469313e+03,0.000000e+00
3.470278e+03,0.000000e+00
3.471242e+03,0.000000e+00
3.472206e+03,0.000000e+00
3.473170e+03,0.000000e+00
3.474135e+03,0.000000e+00
3.475099e+03,0.000000e+00
3.476063e+03,0.000000e+00
3.477027e+03,0.000000e+00
3.477992e+03,0.000000e+00
3.478956e+03,0.000000e+00
3.479920e+03,0.000000e+00
3.480884e+03,0.000000e+00
3.481849e+03,0.000000e+00
3.482813e+03,0.000000e+00
3.483777e+03,0.000000e+00
3.484741e+03,0.000000e+00
3.485706e+03,0.000000e+00
3.486670e+03,0.000000e+00
3.487634e+03,0.000000e+00
3.488598e+03,0.000000e+00
3.489563e+03,0.000000e+00
3.490527e+03,0.000000e+00
3.491491e+03,0.000000e+00
3.492455e+03,0.000000e+00
3.493419e+03,0.000000e+00
3.494384e+03,0.000000e+00
3.495348e+03,0.000000e+00
3.496312e+03,0.000000e+00
3.497276e+03,0.000000e+00
3.498240e+03,0.000000e+00
3.499205e+03,0.000000e+00
3.500169e+03,0.000000e+00
