9.931763e+01,0.000000e+00
1.002819e+02,0.000000e+00
1.012461e+02,0.000000e+00
1.022103e+02,0.000000e+00
1.031746e+02,0.000000e+00
1.041388e+02,0.000000e+00
1.051030e+02,0.000000e+00
1.060673e+02,0.000000e+00
1.070315e+02,0.000000e+00
1.079957e+02,0.000000e+00
1.089600e+02,0.000000e+00
1.099242e+02,0.000000e+00
1.108884e+02,0.000000e+00
1.118527e+02,0.000000e+00
1.128169e+02,0.000000e+00
1.137811e+02,0.000000e+00
1.147454e+02,0.000000e+00
1.157096e+02,0.000000e+00
1.166738e+02,0.000000e+00
1.176381e+02,0.000000e+00
1.186023e+02,0.000000e+00
1.195665e+02,0.000000e+00
1.205308e+02,0.000000e+00
1.214950e+02,0.000000e+00
1.224592e+02,0.000000e+00
1.234235e+02,0.000000e+00
1.243877e+02,0.000000e+00
1.253519e+02,0.000000e+00
1.263162e+02,0.000000e+00
1.272804e+02,0.000000e+00
1.282446e+02,0.000000e+00
1.292089e+02,0.000000e+00
1.301731e+02,0.000000e+00
1.311373e+02,0.000000e+00
1.321016e+02,0.000000e+00
1.330658e+02,0.000000e+00
1.340300e+02,0.000000e+00
1.349943e+02,0.000000e+00
1.359585e+02,0.000000e+00
1.369227e+02,0.000000e+00
1.378870e+02,0.000000e+00
1.388512e+02,0.000000e+00
1.398154e+02,0.000000e+00
1.407797e+02,0.000000e+00
1.417439e+02,0.000000e+00
1.427081e+02,0.000000e+00
1.436724e+02,0.000000e+00
1.446366e+02,0.000000e+00
1.456008e+02,0.000000e+00
1.465651e+02,0.000000e+00
1.475293e+02,0.000000e+00
1.484935e+02,0.000000e+00
1.494578e+02,0.000000e+00
1.504220e+02,0.000000e+00
1.513862e+02,0.000000e+00
1.523505e+02,0.000000e+00
1.533147e+02,0.000000e+00
1.542789e+02,0.000000e+00
1.552432e+02,0.000000e+00
1.562074e+02,0.000000e+00
1.571716e+02,0.000000e+00
1.581359e+02,0.000000e+00
1.591001e+02,0.000000e+00
1.600643e+02,0.000000e+00
1.610286e+02,0.000000e+00
1.619928e+02,0.000000e+00
1.629570e+02,0.000000e+00
1.639213e+02,0.000000e+00
1.648855e+02,0.000000e+00
1.658497e+02,0.000000e+00
1.668140e+02,0.000000e+00
1.677782e+02,0.000000e+00
1.687424e+02,0.000000e+00
1.697067e+02,0.000000e+00
1.706709e+02,0.000000e+00
1.716351e+02,0.000000e+00
1.725994e+02,0.000000e+00
1.735636e+02,0.000000e+00
1.745278e+02,0.000000e+00
1.754921e+02,0.000000e+00
1.764563e+02,0.000000e+00
1.774205e+02,0.000000e+00
1.783848e+02,0.000000e+00
1.793490e+02,0.000000e+00
1.803132e+02,0.000000e+00
1.812775e+02,0.000000e+00
1.822417e+02,0.000000e+00
1.832059e+02,0.000000e+00
1.841702e+02,0.000000e+00
1.851344e+02,0.000000e+00
1.860986e+02,0.000000e+00
1.870629e+02,0.000000e+00
1.880271e+02,0.000000e+00
1.889913e+02,0.000000e+00
1.899556e+02,0.000000e+00
1.909198e+02,0.000000e+00
1.918840e+02,0.000000e+00
1.928483e+02,0.000000e+00
1.938125e+02,0.000000e+00
1.947767e+02,0.000000e+00
1.957410e+02,0.000000e+00
1.967052e+02,0.000000e+00
1.976694e+02,0.000000e+00
1.986337e+02,0.000000e+00
1.995979e+02,6.264567e+03
2.005621e+02,6.261836e+03
2.015264e+02,6.261843e+03
2.024906e+02,6.266979e+03
2.034548e+02,6.272838e+03
2.044191e+02,6.277237e+03
2.053833e+02,6.279208e+03
2.063475e+02,6.279385e+03
2.073118e+02,6.279624e+03
2.082760e+02,6.281412e+03
2.092402e+02,6.278483e+03
2.102045e+02,6.264752e+03
2.111687e+02,6.253367e+03
2.121329e+02,6.255243e+03
2.130972e+02,6.276845e+03
2.140614e+02,6.307321e+03
2.150256e+02,6.320380e+03
2.159899e+02,6.304948e+03
2.169541e+02,6.288570e+03
2.179183e+02,6.282527e+03
2.188826e+02,6.285000e+03
2.198468e+02,6.291165e+03
2.208110e+02,6.299893e+03
2.217753e+02,6.310179e+03
2.227395e+02,6.313883e+03
2.237037e+02,6.307534e+03
2.246680e+02,6.299187e+03
2.256322e+02,6.295390e+03
2.265964e+02,6.302061e+03
2.275607e+02,6.312072e+03
2.285249e+02,6.315884e+03
2.294892e+02,6.312167e+03
2.304534e+02,6.309655e+03
2.314176e+02,6.311162e+03
2.323819e+02,6.314977e+03
2.333461e+02,6.320459e+03
2.343103e+02,6.331265e+03
2.352746e+02,6.344831e+03
2.362388e+02,6.354729e+03
2.372030e+02,6.357563e+03
2.381673e+02,6.353616e+03
2.391315e+02,6.347786e+03
2.400957e+02,6.342884e+03
2.410600e+02,6.338728e+03
2.420242e+02,6.336952e+03
2.429884e+02,6.338526e+03
2.439527e+02,6.342315e+03
2.449169e+02,6.345639e+03
2.458811e+02,6.347176e+03
2.468454e+02,6.348593e+03
2.478096e+02,6.348474e+03
2.487738e+02,6.349282e+03
2.497381e+02,6.353256e+03
2.507023e+02,6.360802e+03
2.516665e+02,6.370027e+03
2.526308e+02,6.377478e+03
2.535950e+02,6.380697e+03
2.545592e+02,6.379057e+03
2.555235e+02,6.370631e+03
2.564877e+02,6.359710e+03
2.574519e+02,6.352117e+03
2.584161e+02,6.352444e+03
2.593804e+02,6.360728e+03
2.603446e+02,6.367494e+03
2.613088e+02,6.366967e+03
2.622731e+02,6.366110e+03
2.632373e+02,6.365229e+03
2.642015e+02,6.363693e+03
2.651658e+02,6.363274e+03
2.661300e+02,6.370347e+03
2.670942e+02,6.389693e+03
2.680585e+02,6.401678e+03
2.690227e+02,6.395936e+03
2.699869e+02,6.384308e+03
2.709512e+02,6.374361e+03
2.719154e+02,6.370979e+03
2.728796e+02,6.371021e+03
2.738439e+02,6.367977e+03
2.748081e+02,6.360897e+03
2.757723e+02,6.361390e+03
2.767366e+02,6.379325e+03
2.777008e+02,6.406786e+03
2.786650e+02,6.423547e+03
2.796293e+02,6.417807e+03
2.805935e+02,6.400974e+03
2.815577e+02,6.390859e+03
2.825220e+02,6.390753e+03
2.834862e+02,6.396088e+03
2.844504e+02,6.400960e+03
2.854147e+02,6.411231e+03
2.863789e+02,6.416141e+03
2.873431e+02,6.408767e+03
2.883074e+02,6.395582e+03
2.892716e+02,6.389080e+03
2.902358e+02,6.396612e+03
2.912001e+02,6.417458e+03
2.921643e+02,6.425874e+03
2.931285e+02,6.414546e+03
2.940928e+02,6.401899e+03
2.950570e+02,6.392657e+03
2.960212e+02,6.387042e+03
2.969855e+02,6.385325e+03
2.979497e+02,6.390654e+03
2.989139e+02,6.409535e+03
2.998782e+02,6.423151e+03
3.008424e+02,6.435365e+03
3.018066e+02,6.444308e+03
3.027709e+02,6.444320e+03
3.037351e+02,6.430369e+03
3.046993e+02,6.410481e+03
3.056636e+02,6.401802e+03
3.066278e+02,6.409751e+03
3.075920e+02,6.419688e+03
3.085563e+02,6.427836e+03
3.095205e+02,6.434784e+03
3.104847e+02,6.438056e+03
3.114490e+02,6.428804e+03
3.124132e+02,6.413266e+03
3.133774e+02,6.407130e+03
3.143417e+02,6.414311e+03
3.153059e+02,6.424918e+03
3.162701e+02,6.428880e+03
3.172344e+02,6.427013e+03
3.181986e+02,6.424193e+03
3.191628e+02,6.421353e+03
3.201271e+02,6.419052e+03
3.210913e+02,6.417513e+03
3.220555e+02,6.416099e+03
3.230198e+02,6.414791e+03
3.239840e+02,6.416686e+03
3.249482e+02,6.424475e+03
3.259125e+02,6.431752e+03
3.268767e+02,6.437747e+03
3.278409e+02,6.442114e+03
3.288052e+02,6.444049e+03
3.297694e+02,6.441885e+03
3.307336e+02,6.434368e+03
3.316979e+02,6.428712e+03
3.326621e+02,6.428547e+03
3.336263e+02,6.426398e+03
3.345906e+02,6.417518e+03
3.355548e+02,6.402399e+03
3.365190e+02,6.389894e+03
3.374833e+02,6.390017e+03
3.384475e+02,6.403577e+03
3.394117e+02,6.417606e+03
3.403760e+02,6.426738e+03
3.413402e+02,6.431414e+03
3.423044e+02,6.433354e+03
3.432687e+02,6.426832e+03
3.442329e+02,6.420601e+03
3.451971e+02,6.423934e+03
3.461614e+02,6.435378e+03
3.471256e+02,6.443545e+03
3.480898e+02,6.440770e+03
3.490541e+02,6.424396e+03
3.500183e+02,6.412417e+03
3.509825e+02,6.408358e+03
3.519468e+02,6.409682e+03
3.529110e+02,6.413269e+03
3.538752e+02,6.417046e+03
3.548395e+02,6.420587e+03
3.558037e+02,6.425272e+03
3.567680e+02,6.432817e+03
3.577322e+02,6.439124e+03
3.586964e+02,6.448029e+03
3.596607e+02,6.457077e+03
3.606249e+02,6.461219e+03
3.615891e+02,6.453658e+03
3.625534e+02,6.437152e+03
3.635176e+02,6.422872e+03
3.644818e+02,6.413542e+03
3.654461e+02,6.406995e+03
3.664103e+02,6.404293e+03
3.673745e+02,6.407885e+03
3.683388e+02,6.416893e+03
3.693030e+02,6.433240e+03
3.702672e+02,6.449831e+03
3.712315e+02,6.455779e+03
3.721957e+02,6.447192e+03
3.731599e+02,6.431960e+03
3.741242e+02,6.424508e+03
3.750884e+02,6.439985e+03
3.760526e+02,6.450812e+03
3.770169e+02,6.451382e+03
3.779811e+02,6.445843e+03
3.789453e+02,6.438544e+03
3.799096e+02,6.430818e+03
3.808738e+02,6.422498e+03
3.818380e+02,6.414950e+03
3.828023e+02,6.411709e+03
3.837665e+02,6.410547e+03
3.847307e+02,6.409073e+03
3.856950e+02,6.407898e+03
3.866592e+02,6.408352e+03
3.876234e+02,6.411021e+03
3.885877e+02,6.415363e+03
3.895519e+02,6.421107e+03
3.905161e+02,6.429131e+03
3.914804e+02,6.434647e+03
3.924446e+02,6.432018e+03
3.934088e+02,6.421244e+03
3.943731e+02,6.411243e+03
3.953373e+02,6.401670e+03
3.963015e+02,6.394319e+03
3.972658e+02,6.393272e+03
3.982300e+02,6.401370e+03
3.991942e+02,6.416504e+03
4.001585e+02,6.427513e+03
4.011227e+02,6.428638e+03
4.020869e+02,6.426879e+03
4.030512e+02,6.417783e+03
4.040154e+02,6.404550e+03
4.049796e+02,6.393888e+03
4.059439e+02,6.390041e+03
4.069081e+02,6.391429e+03
4.078723e+02,6.393287e+03
4.088366e+02,6.394736e+03
4.098008e+02,6.393331e+03
4.107650e+02,6.390779e+03
4.117293e+02,6.387875e+03
4.126935e+02,6.384460e+03
4.136577e+02,6.377503e+03
4.146220e+02,6.370578e+03
4.155862e+02,6.370222e+03
4.165504e+02,6.378513e+03
4.175147e+02,6.390873e+03
4.184789e+02,6.399712e+03
4.194431e+02,6.402911e+03
4.204074e+02,6.404161e+03
4.213716e+02,6.404562e+03
4.223358e+02,6.402495e+03
4.233001e+02,6.395016e+03
4.242643e+02,6.379967e+03
4.252285e+02,6.362896e+03
4.261928e+02,6.356545e+03
4.271570e+02,6.365158e+03
4.281212e+02,6.376712e+03
4.290855e+02,6.387890e+03
4.300497e+02,6.397111e+03
4.310139e+02,6.401453e+03
4.319782e+02,6.398203e+03
4.329424e+02,6.392054e+03
4.339066e+02,6.386288e+03
4.348709e+02,6.380368e+03
4.358351e+02,6.375728e+03
4.367993e+02,6.374499e+03
4.377636e+02,6.379462e+03
4.387278e+02,6.381753e+03
4.396920e+02,6.382203e+03
4.406563e+02,6.381269e+03
4.416205e+02,6.377610e+03
4.425847e+02,6.370679e+03
4.435490e+02,6.363057e+03
4.445132e+02,6.358356e+03
4.454774e+02,6.357333e+03
4.464417e+02,6.360741e+03
4.474059e+02,6.373093e+03
4.483701e+02,6.386243e+03
4.493344e+02,6.391043e+03
4.502986e+02,6.380087e+03
4.512628e+02,6.368765e+03
4.522271e+02,6.370331e+03
4.531913e+02,6.381942e+03
4.541555e+02,6.390463e+03
4.551198e+02,6.387188e+03
4.560840e+02,6.372386e+03
4.570482e+02,6.358864e+03
4.580125e+02,6.347452e+03
4.589767e+02,6.341814e+03
4.599409e+02,6.342816e+03
4.609052e+02,6.347692e+03
4.618694e+02,6.352321e+03
4.628336e+02,6.355373e+03
4.637979e+02,6.357093e+03
4.647621e+02,6.355582e+03
4.657263e+02,6.350831e+03
4.666906e+02,6.347028e+03
4.676548e+02,6.345944e+03
4.686190e+02,6.347412e+03
4.695833e+02,6.347618e+03
4.705475e+02,6.344170e+03
4.715117e+02,6.338115e+03
4.724760e+02,6.331022e+03
4.734402e+02,6.323643e+03
4.744044e+02,6.317371e+03
4.753687e+02,6.315119e+03
4.763329e+02,6.321161e+03
4.772971e+02,6.324979e+03
4.782614e+02,6.322846e+03
4.792256e+02,6.318917e+03
4.801898e+02,6.317873e+03
4.811541e+02,6.321675e+03
4.821183e+02,6.327654e+03
4.830826e+02,6.332893e+03
4.840468e+02,6.336910e+03
4.850110e+02,6.338583e+03
4.859753e+02,6.337444e+03
4.869395e+02,6.332873e+03
4.879037e+02,6.330447e+03
4.888680e+02,6.336312e+03
4.898322e+02,6.340581e+03
4.907964e+02,6.336194e+03
4.917607e+02,6.324557e+03
4.927249e+02,6.313174e+03
4.936891e+02,6.308359e+03
4.946534e+02,6.310114e+03
4.956176e+02,6.316052e+03
4.965818e+02,6.333016e+03
4.975461e+02,6.348014e+03
4.985103e+02,6.348279e+03
4.994745e+02,6.328487e+03
5.004388e+02,6.309267e+03
5.014030e+02,6.302619e+03
5.023672e+02,6.303885e+03
5.033315e+02,6.304546e+03
5.042957e+02,6.301700e+03
5.052599e+02,6.295446e+03
5.062242e+02,6.287359e+03
5.071884e+02,6.274791e+03
5.081526e+02,6.267291e+03
5.091169e+02,6.271375e+03
5.100811e+02,6.280498e+03
5.110453e+02,6.285745e+03
5.120095e+02,6.283130e+03
5.129738e+02,6.277589e+03
5.139380e+02,6.273882e+03
5.149022e+02,6.272242e+03
5.158665e+02,6.273854e+03
5.168307e+02,6.278356e+03
5.177949e+02,6.282507e+03
5.187592e+02,6.280634e+03
5.197234e+02,6.278163e+03
5.206876e+02,6.274977e+03
5.216519e+02,6.269006e+03
5.226161e+02,6.262120e+03
5.235803e+02,6.258209e+03
5.245446e+02,6.264194e+03
5.255088e+02,6.277450e+03
5.264730e+02,6.277715e+03
5.274373e+02,6.258248e+03
5.284015e+02,6.236583e+03
5.293657e+02,6.228033e+03
5.303300e+02,6.234048e+03
5.312942e+02,6.238222e+03
5.322584e+02,6.241622e+03
5.332227e+02,6.244131e+03
5.341869e+02,6.242825e+03
5.351511e+02,6.236243e+03
5.361154e+02,6.227256e+03
5.370796e+02,6.220030e+03
5.380438e+02,6.214826e+03
5.390081e+02,6.214384e+03
5.399723e+02,6.225607e+03
5.409365e+02,6.239109e+03
5.419008e+02,6.243965e+03
5.428650e+02,6.233431e+03
5.438292e+02,6.220710e+03
5.447935e+02,6.211748e+03
5.457577e+02,6.206068e+03
5.467219e+02,6.203639e+03
5.476862e+02,6.205206e+03
5.486504e+02,6.208396e+03
5.496146e+02,6.206297e+03
5.505789e+02,6.194834e+03
5.515431e+02,6.183636e+03
5.525073e+02,6.176913e+03
5.534716e+02,6.175266e+03
5.544358e+02,6.176315e+03
5.554000e+02,6.175620e+03
5.563643e+02,6.175977e+03
5.573285e+02,6.182351e+03
5.582927e+02,6.193071e+03
5.592570e+02,6.200966e+03
5.602212e+02,6.201788e+03
5.611854e+02,6.195116e+03
5.621497e+02,6.192032e+03
5.631139e+02,6.196074e+03
5.640781e+02,6.197391e+03
5.650424e+02,6.194152e+03
5.660066e+02,6.187783e+03
5.669708e+02,6.181915e+03
5.679351e+02,6.181955e+03
5.688993e+02,6.184188e+03
5.698635e+02,6.179753e+03
5.708278e+02,6.168089e+03
5.717920e+02,6.158007e+03
5.727562e+02,6.156472e+03
5.737205e+02,6.165503e+03
5.746847e+02,6.170989e+03
5.756489e+02,6.167864e+03
5.766132e+02,6.163993e+03
5.775774e+02,6.165557e+03
5.785416e+02,6.173221e+03
5.795059e+02,6.180089e+03
5.804701e+02,6.181172e+03
5.814343e+02,6.177196e+03
5.823986e+02,6.169825e+03
5.833628e+02,6.158952e+03
5.843270e+02,6.147663e+03
5.852913e+02,6.139521e+03
5.862555e+02,6.136066e+03
5.872197e+02,6.133756e+03
5.881840e+02,6.130311e+03
5.891482e+02,6.127997e+03
5.901124e+02,6.129540e+03
5.910767e+02,6.136153e+03
5.920409e+02,6.143963e+03
5.930051e+02,6.150641e+03
5.939694e+02,6.155028e+03
5.949336e+02,6.152194e+03
5.958978e+02,6.139148e+03
5.968621e+02,6.120518e+03
5.978263e+02,6.107360e+03
5.987905e+02,6.104877e+03
5.997548e+02,6.103993e+03
6.007190e+02,6.105729e+03
6.016832e+02,6.109335e+03
6.026475e+02,6.112790e+03
6.036117e+02,6.113849e+03
6.045759e+02,6.113490e+03
6.055402e+02,6.113133e+03
6.065044e+02,6.111811e+03
6.074686e+02,6.108026e+03
6.084329e+02,6.101795e+03
6.093971e+02,6.094466e+03
6.103613e+02,6.089734e+03
6.113256e+02,6.091674e+03
6.122899e+02,6.092563e+03
6.132541e+02,6.091017e+03
6.142183e+02,6.087299e+03
6.151826e+02,6.082373e+03
6.161468e+02,6.076987e+03
6.171110e+02,6.073008e+03
6.180753e+02,6.072007e+03
6.190395e+02,6.073142e+03
6.200037e+02,6.073523e+03
6.209680e+02,6.070861e+03
6.219322e+02,6.066217e+03
6.228964e+02,6.064400e+03
6.238607e+02,6.066524e+03
6.248249e+02,6.069417e+03
6.257891e+02,6.070699e+03
6.267534e+02,6.069294e+03
6.277176e+02,6.066500e+03
6.286818e+02,6.066888e+03
6.296461e+02,6.067221e+03
6.306103e+02,6.061297e+03
6.315745e+02,6.050157e+03
6.325388e+02,6.041206e+03
6.335030e+02,6.039760e+03
6.344672e+02,6.045208e+03
6.354315e+02,6.047634e+03
6.363957e+02,6.044135e+03
6.373599e+02,6.037733e+03
6.383242e+02,6.029983e+03
6.392884e+02,6.022075e+03
6.402526e+02,6.017938e+03
6.412169e+02,6.022638e+03
6.421811e+02,6.028833e+03
6.431453e+02,6.029782e+03
6.441096e+02,6.025135e+03
6.450738e+02,6.018013e+03
6.460380e+02,6.011890e+03
6.470023e+02,6.008086e+03
6.479665e+02,6.004575e+03
6.489307e+02,5.997680e+03
6.498950e+02,5.992847e+03
6.508592e+02,5.995779e+03
6.518234e+02,6.006675e+03
6.527877e+02,6.012718e+03
6.537519e+02,6.009130e+03
6.547161e+02,6.002977e+03
6.556804e+02,6.000469e+03
6.566446e+02,6.002050e+03
6.576088e+02,6.002556e+03
6.585731e+02,5.994727e+03
6.595373e+02,5.980503e+03
6.605015e+02,5.971671e+03
6.614658e+02,5.969826e+03
6.624300e+02,5.972409e+03
6.633942e+02,5.977474e+03
6.643585e+02,5.986428e+03
6.653227e+02,5.993249e+03
6.662869e+02,5.997055e+03
6.672512e+02,5.997725e+03
6.682154e+02,5.994492e+03
6.691796e+02,5.986677e+03
6.701439e+02,5.977591e+03
6.711081e+02,5.968750e+03
6.720723e+02,5.960791e+03
6.730366e+02,5.956505e+03
6.740008e+02,5.957233e+03
6.749650e+02,5.958708e+03
6.759293e+02,5.955673e+03
6.768935e+02,5.947239e+03
6.778577e+02,5.939497e+03
6.788220e+02,5.933960e+03
6.797862e+02,5.931408e+03
6.807504e+02,5.930070e+03
6.817147e+02,5.928236e+03
6.826789e+02,5.926859e+03
6.836431e+02,5.925375e+03
6.846074e+02,5.922614e+03
6.855716e+02,5.919492e+03
6.865358e+02,5.917092e+03
6.875001e+02,5.914058e+03
6.884643e+02,5.906499e+03
6.894285e+02,5.894745e+03
6.903928e+02,5.889917e+03
6.913570e+02,5.896014e+03
6.923212e+02,5.903242e+03
6.932855e+02,5.901236e+03
6.942497e+02,5.884675e+03
6.952139e+02,5.874772e+03
6.961782e+02,5.871804e+03
6.971424e+02,5.874101e+03
6.981066e+02,5.881696e+03
6.990709e+02,5.892310e+03
7.000351e+02,5.897700e+03
7.009993e+02,5.890975e+03
7.019636e+02,5.879078e+03
7.029278e+02,5.874883e+03
7.038920e+02,5.880464e+03
7.048563e+02,5.887502e+03
7.058205e+02,5.887308e+03
7.067847e+02,5.880604e+03
7.077490e+02,5.872146e+03
7.087132e+02,5.859936e+03
7.096774e+02,5.853142e+03
7.106417e+02,5.856342e+03
7.116059e+02,5.872399e+03
7.125701e+02,5.879901e+03
7.135344e+02,5.865077e+03
7.144986e+02,5.846157e+03
7.154628e+02,5.839962e+03
7.164271e+02,5.848144e+03
7.173913e+02,5.858803e+03
7.183555e+02,5.861271e+03
7.193198e+02,5.856254e+03
7.202840e+02,5.847622e+03
7.212482e+02,5.835888e+03
7.222125e+02,5.824476e+03
7.231767e+02,5.815583e+03
7.241409e+02,5.806611e+03
7.251052e+02,5.802663e+03
7.260694e+02,5.806963e+03
7.270336e+02,5.813102e+03
7.279979e+02,5.820571e+03
7.289621e+02,5.829257e+03
7.299263e+02,5.833488e+03
7.308906e+02,5.826125e+03
7.318548e+02,5.814560e+03
7.328190e+02,5.808541e+03
7.337833e+02,5.808703e+03
7.347475e+02,5.808157e+03
7.357117e+02,5.798663e+03
7.366760e+02,5.782610e+03
7.376402e+02,5.776565e+03
7.386044e+02,5.784108e+03
7.395687e+02,5.794526e+03
7.405329e+02,5.797752e+03
7.414971e+02,5.791334e+03
7.424614e+02,5.786427e+03
7.434256e+02,5.786579e+03
7.443898e+02,5.790875e+03
7.453541e+02,5.798779e+03
7.463183e+02,5.806459e+03
7.472825e+02,5.807373e+03
7.482468e+02,5.795045e+03
7.492110e+02,5.777497e+03
7.501752e+02,5.764325e+03
7.511395e+02,5.758211e+03
7.521037e+02,5.757151e+03
7.530679e+02,5.758628e+03
7.540322e+02,5.760695e+03
7.549964e+02,5.758969e+03
7.559606e+02,5.753232e+03
7.569249e+02,5.749233e+03
7.578891e+02,5.751281e+03
7.588533e+02,5.760419e+03
7.598176e+02,5.768453e+03
7.607818e+02,5.773056e+03
7.617460e+02,5.769554e+03
7.627103e+02,5.754448e+03
7.636745e+02,5.733555e+03
7.646387e+02,5.717937e+03
7.656030e+02,5.712607e+03
7.665672e+02,5.713167e+03
7.675314e+02,5.715260e+03
7.684957e+02,5.715110e+03
7.694599e+02,5.711118e+03
7.704241e+02,5.705469e+03
7.713884e+02,5.700308e+03
7.723526e+02,5.695963e+03
7.733168e+02,5.693586e+03
7.742811e+02,5.694142e+03
7.752453e+02,5.694849e+03
7.762095e+02,5.694321e+03
7.771738e+02,5.695922e+03
7.781380e+02,5.700710e+03
7.791022e+02,5.701765e+03
7.800665e+02,5.700146e+03
7.810307e+02,5.696169e+03
7.819949e+02,5.689649e+03
7.829592e+02,5.680864e+03
7.839234e+02,5.673020e+03
7.848876e+02,5.663932e+03
7.858519e+02,5.655674e+03
7.868161e+02,5.653370e+03
7.877803e+02,5.660372e+03
7.887446e+02,5.670214e+03
7.897088e+02,5.677340e+03
7.906730e+02,5.683214e+03
7.916373e+02,5.682788e+03
7.926015e+02,5.670123e+03
7.935657e+02,5.649067e+03
7.945300e+02,5.635222e+03
7.954942e+02,5.635489e+03
7.964584e+02,5.631305e+03
7.974227e+02,5.621213e+03
7.983869e+02,5.613689e+03
7.993511e+02,5.612195e+03
8.003154e+02,5.614549e+03
8.012796e+02,5.616360e+03
8.022438e+02,5.622050e+03
8.032081e+02,5.628417e+03
8.041723e+02,5.632130e+03
8.051365e+02,5.631538e+03
8.061008e+02,5.628006e+03
8.070650e+02,5.617860e+03
8.080292e+02,5.604766e+03
8.089935e+02,5.599537e+03
8.099577e+02,5.605014e+03
8.109219e+02,5.612267e+03
8.118862e+02,5.609616e+03
8.128504e+02,5.597438e+03
8.138146e+02,5.588915e+03
8.147789e+02,5.584313e+03
8.157431e+02,5.581037e+03
8.167073e+02,5.578958e+03
8.176716e+02,5.581804e+03
8.186358e+02,5.581908e+03
8.196000e+02,5.572909e+03
8.205643e+02,5.566330e+03
8.215285e+02,5.566703e+03
8.224927e+02,5.572497e+03
8.234570e+02,5.573967e+03
8.244212e+02,5.562664e+03
8.253854e+02,5.551984e+03
8.263497e+02,5.549936e+03
8.273139e+02,5.553275e+03
8.282781e+02,5.555782e+03
8.292424e+02,5.557064e+03
8.302066e+02,5.558232e+03
8.311708e+02,5.558096e+03
8.321351e+02,5.556976e+03
8.330993e+02,5.556845e+03
8.340635e+02,5.558086e+03
8.350278e+02,5.559072e+03
8.359920e+02,5.555452e+03
8.369562e+02,5.545946e+03
8.379205e+02,5.539914e+03
8.388847e+02,5.541481e+03
8.398489e+02,5.548000e+03
8.408132e+02,5.551793e+03
8.417774e+02,5.551280e+03
8.427416e+02,5.548331e+03
8.437059e+02,5.541591e+03
8.446701e+02,5.533612e+03
8.456343e+02,5.527665e+03
8.465986e+02,5.524981e+03
8.475628e+02,5.521293e+03
8.485270e+02,5.513647e+03
8.494913e+02,5.504915e+03
8.504555e+02,5.498712e+03
8.514197e+02,5.496551e+03
8.523840e+02,5.497014e+03
8.533482e+02,5.499450e+03
8.543124e+02,5.501747e+03
8.552767e+02,5.500771e+03
8.562409e+02,5.495724e+03
8.572051e+02,5.488213e+03
8.581694e+02,5.480520e+03
8.591336e+02,5.473486e+03
8.600978e+02,5.467498e+03
8.610621e+02,5.462920e+03
8.620263e+02,5.462717e+03
8.629905e+02,5.468524e+03
8.639548e+02,5.478868e+03
8.649190e+02,5.484954e+03
8.658832e+02,5.491315e+03
8.668475e+02,5.492643e+03
8.678117e+02,5.481509e+03
8.687759e+02,5.460617e+03
8.697402e+02,5.448431e+03
8.707044e+02,5.450943e+03
8.716686e+02,5.451188e+03
8.726329e+02,5.445809e+03
8.735971e+02,5.437802e+03
8.745613e+02,5.430774e+03
8.755256e+02,5.428186e+03
8.764898e+02,5.427928e+03
8.774540e+02,5.427117e+03
8.784183e+02,5.425817e+03
8.793825e+02,5.424769e+03
8.803467e+02,5.424022e+03
8.813110e+02,5.423961e+03
8.822752e+02,5.427333e+03
8.832394e+02,5.433806e+03
8.842037e+02,5.437908e+03
8.851679e+02,5.436780e+03
8.861321e+02,5.432209e+03
8.870964e+02,5.428191e+03
8.880606e+02,5.424526e+03
8.890248e+02,5.416369e+03
8.899891e+02,5.403638e+03
8.909533e+02,5.392666e+03
8.919175e+02,5.388659e+03
8.928818e+02,5.393478e+03
8.938460e+02,5.396231e+03
8.948102e+02,5.394677e+03
8.957745e+02,5.390718e+03
8.967387e+02,5.385171e+03
8.977029e+02,5.376970e+03
8.986672e+02,5.369771e+03
8.996314e+02,5.369185e+03
9.005956e+02,5.370205e+03
9.015599e+02,5.367936e+03
9.025241e+02,5.363830e+03
9.034883e+02,5.363834e+03
9.044526e+02,5.378771e+03
9.054168e+02,5.387533e+03
9.063810e+02,5.376197e+03
9.073453e+02,5.355604e+03
9.083095e+02,5.339911e+03
9.092737e+02,5.332922e+03
9.102380e+02,5.330930e+03
9.112022e+02,5.333321e+03
9.121664e+02,5.337775e+03
9.131307e+02,5.340116e+03
9.140949e+02,5.341013e+03
9.150591e+02,5.341773e+03
9.160234e+02,5.339414e+03
9.169876e+02,5.331593e+03
9.179518e+02,5.321659e+03
9.189161e+02,5.309756e+03
9.198803e+02,5.299265e+03
9.208445e+02,5.297136e+03
9.218088e+02,5.306990e+03
9.227730e+02,5.308650e+03
9.237372e+02,5.296037e+03
9.247015e+02,5.284471e+03
9.256657e+02,5.285547e+03
9.266299e+02,5.299582e+03
9.275942e+02,5.306785e+03
9.285584e+02,5.299066e+03
9.295226e+02,5.291787e+03
9.304869e+02,5.293632e+03
9.314511e+02,5.301924e+03
9.324153e+02,5.305290e+03
9.333796e+02,5.296603e+03
9.343438e+02,5.289727e+03
9.353080e+02,5.289202e+03
9.362723e+02,5.289872e+03
9.372365e+02,5.286558e+03
9.382007e+02,5.278662e+03
9.391650e+02,5.273112e+03
9.401292e+02,5.275396e+03
9.410934e+02,5.279767e+03
9.420577e+02,5.277163e+03
9.430219e+02,5.264385e+03
9.439861e+02,5.251684e+03
9.449504e+02,5.250917e+03
9.459146e+02,5.257420e+03
9.468788e+02,5.260897e+03
9.478431e+02,5.257411e+03
9.488073e+02,5.250128e+03
9.497715e+02,5.244608e+03
9.507358e+02,5.240579e+03
9.517000e+02,5.237665e+03
9.526642e+02,5.236849e+03
9.536285e+02,5.231708e+03
9.545927e+02,5.214170e+03
9.555569e+02,5.190220e+03
9.565212e+02,5.180917e+03
9.574854e+02,5.188282e+03
9.584496e+02,5.202183e+03
9.594139e+02,5.218370e+03
9.603781e+02,5.232258e+03
9.613423e+02,5.235680e+03
9.623066e+02,5.227794e+03
9.632708e+02,5.213479e+03
9.642350e+02,5.190581e+03
9.651993e+02,5.169019e+03
9.661635e+02,5.161678e+03
9.671277e+02,5.174622e+03
9.680920e+02,5.182665e+03
9.690562e+02,5.184383e+03
9.700204e+02,5.181542e+03
9.709847e+02,5.176041e+03
9.719489e+02,5.168283e+03
9.729131e+02,5.164303e+03
9.738774e+02,5.167922e+03
9.748416e+02,5.173968e+03
9.758058e+02,5.179713e+03
9.767701e+02,5.183293e+03
9.777343e+02,5.183331e+03
9.786985e+02,5.176323e+03
9.796628e+02,5.168058e+03
9.806270e+02,5.161317e+03
9.815912e+02,5.155204e+03
9.825555e+02,5.148430e+03
9.835197e+02,5.142479e+03
9.844839e+02,5.137733e+03
9.854482e+02,5.136095e+03
9.864124e+02,5.135819e+03
9.873766e+02,5.132902e+03
9.883409e+02,5.126329e+03
9.893051e+02,5.121427e+03
9.902693e+02,5.120366e+03
9.912336e+02,5.123740e+03
9.921978e+02,5.133041e+03
9.931620e+02,5.145696e+03
9.941263e+02,5.153658e+03
9.950905e+02,5.149054e+03
9.960547e+02,5.139267e+03
9.970190e+02,5.133382e+03
9.979832e+02,5.130107e+03
9.989474e+02,5.125072e+03
9.999117e+02,5.117534e+03
1.000876e+03,5.108938e+03
1.001840e+03,5.099155e+03
1.002804e+03,5.090308e+03
1.003769e+03,5.085641e+03
1.004733e+03,5.085095e+03
1.005697e+03,5.086608e+03
1.006661e+03,5.088317e+03
1.007626e+03,5.090736e+03
1.008590e+03,5.095744e+03
1.009554e+03,5.102775e+03
1.010518e+03,5.106006e+03
1.011482e+03,5.098639e+03
1.012447e+03,5.082008e+03
1.013411e+03,5.067489e+03
1.014375e+03,5.057971e+03
1.015339e+03,5.052106e+03
1.016304e+03,5.048109e+03
1.017268e+03,5.044933e+03
1.018232e+03,5.037599e+03
1.019196e+03,5.024171e+03
1.020161e+03,5.016937e+03
1.021125e+03,5.023389e+03
1.022089e+03,5.039130e+03
1.023053e+03,5.049171e+03
1.024018e+03,5.051087e+03
1.024982e+03,5.049078e+03
1.025946e+03,5.041522e+03
1.026910e+03,5.030860e+03
1.027875e+03,5.023336e+03
1.028839e+03,5.022540e+03
1.029803e+03,5.021997e+03
1.030767e+03,5.021738e+03
1.031731e+03,5.022004e+03
1.032696e+03,5.021646e+03
1.033660e+03,5.020042e+03
1.034624e+03,5.021015e+03
1.035588e+03,5.029177e+03
1.036552e+03,5.035246e+03
1.037517e+03,5.032315e+03
1.038481e+03,5.022228e+03
1.039445e+03,5.017796e+03
1.040409e+03,5.025313e+03
1.041374e+03,5.028325e+03
1.042338e+03,5.022415e+03
1.043302e+03,5.014014e+03
1.044266e+03,5.010683e+03
1.045231e+03,5.019725e+03
1.046195e+03,5.019138e+03
1.047159e+03,5.002861e+03
1.048123e+03,4.984179e+03
1.049088e+03,4.970782e+03
1.050052e+03,4.964253e+03
1.051016e+03,4.963292e+03
1.051980e+03,4.971999e+03
1.052945e+03,4.980812e+03
1.053909e+03,4.983517e+03
1.054873e+03,4.979625e+03
1.055837e+03,4.976219e+03
1.056802e+03,4.976662e+03
1.057766e+03,4.977496e+03
1.058730e+03,4.983135e+03
1.059694e+03,4.987776e+03
1.060658e+03,4.982445e+03
1.061623e+03,4.957689e+03
1.062587e+03,4.942154e+03
1.063551e+03,4.947272e+03
1.064515e+03,4.956782e+03
1.065479e+03,4.957314e+03
1.066444e+03,4.948173e+03
1.067408e+03,4.944775e+03
1.068372e+03,4.955125e+03
1.069336e+03,4.965811e+03
1.070301e+03,4.969222e+03
1.071265e+03,4.965189e+03
1.072229e+03,4.958380e+03
1.073193e+03,4.946985e+03
1.074158e+03,4.935808e+03
1.075122e+03,4.924576e+03
1.076086e+03,4.915169e+03
1.077050e+03,4.911631e+03
1.078015e+03,4.921907e+03
1.078979e+03,4.928748e+03
1.079943e+03,4.923143e+03
1.080907e+03,4.915610e+03
1.081872e+03,4.910576e+03
1.082836e+03,4.907259e+03
1.083800e+03,4.909107e+03
1.084764e+03,4.927032e+03
1.085729e+03,4.942520e+03
1.086693e+03,4.943960e+03
1.087657e+03,4.935458e+03
1.088621e+03,4.929631e+03
1.089585e+03,4.930788e+03
1.090550e+03,4.930374e+03
1.091514e+03,4.930572e+03
1.092478e+03,4.929806e+03
1.093442e+03,4.924470e+03
1.094406e+03,4.911698e+03
1.095371e+03,4.903267e+03
1.096335e+03,4.902659e+03
1.097299e+03,4.904195e+03
1.098263e+03,4.904658e+03
1.099228e+03,4.903348e+03
1.100192e+03,4.901873e+03
1.101156e+03,4.901477e+03
1.102120e+03,4.899019e+03
1.103085e+03,4.891971e+03
1.104049e+03,4.882861e+03
1.105013e+03,4.876672e+03
1.105977e+03,4.878317e+03
1.106942e+03,4.878328e+03
1.107906e+03,4.874992e+03
1.108870e+03,4.870098e+03
1.109834e+03,4.864434e+03
1.110799e+03,4.857213e+03
1.111763e+03,4.853117e+03
1.112727e+03,4.853415e+03
1.113691e+03,4.857697e+03
1.114656e+03,4.868742e+03
1.115620e+03,4.884555e+03
1.116584e+03,4.891360e+03
1.117548e+03,4.875970e+03
1.118512e+03,4.862125e+03
1.119477e+03,4.855426e+03
1.120441e+03,4.853810e+03
1.121405e+03,4.854896e+03
1.122369e+03,4.864783e+03
1.123334e+03,4.868364e+03
1.124298e+03,4.862958e+03
1.125262e+03,4.855249e+03
1.126226e+03,4.849740e+03
1.127191e+03,4.846972e+03
1.128155e+03,4.844920e+03
1.129119e+03,4.841644e+03
1.130083e+03,4.839398e+03
1.131047e+03,4.839273e+03
1.132012e+03,4.839395e+03
1.132976e+03,4.837461e+03
1.133940e+03,4.834687e+03
1.134904e+03,4.826463e+03
1.135869e+03,4.810354e+03
1.136833e+03,4.793414e+03
1.137797e+03,4.783064e+03
1.138761e+03,4.781411e+03
1.139726e+03,4.785233e+03
1.140690e+03,4.797104e+03
1.141654e+03,4.806889e+03
1.142618e+03,4.807091e+03
1.143583e+03,4.799641e+03
1.144547e+03,4.797995e+03
1.145511e+03,4.804016e+03
1.146475e+03,4.808063e+03
1.147439e+03,4.806919e+03
1.148404e+03,4.803174e+03
1.149368e+03,4.798719e+03
1.150332e+03,4.792443e+03
1.151296e+03,4.791991e+03
1.152261e+03,4.797225e+03
1.153225e+03,4.799381e+03
1.154189e+03,4.793796e+03
1.155153e+03,4.783161e+03
1.156118e+03,4.773140e+03
1.157082e+03,4.765220e+03
1.158046e+03,4.761869e+03
1.159010e+03,4.763357e+03
1.159974e+03,4.766494e+03
1.160939e+03,4.764302e+03
1.161903e+03,4.756623e+03
1.162867e+03,4.748648e+03
1.163831e+03,4.741106e+03
1.164796e+03,4.734458e+03
1.165760e+03,4.731326e+03
1.166724e+03,4.731106e+03
1.167688e+03,4.730801e+03
1.168653e+03,4.730181e+03
1.169617e+03,4.728139e+03
1.170581e+03,4.723274e+03
1.171545e+03,4.718946e+03
1.172510e+03,4.722098e+03
1.173474e+03,4.729365e+03
1.174438e+03,4.730482e+03
1.175402e+03,4.720825e+03
1.176366e+03,4.711042e+03
1.177331e+03,4.712403e+03
1.178295e+03,4.719093e+03
1.179259e+03,4.723563e+03
1.180223e+03,4.724295e+03
1.181188e+03,4.723341e+03
1.182152e+03,4.724454e+03
1.183116e+03,4.722354e+03
1.184080e+03,4.712390e+03
1.185045e+03,4.698761e+03
1.186009e+03,4.687240e+03
1.186973e+03,4.680833e+03
1.187937e+03,4.677456e+03
1.188901e+03,4.674613e+03
1.189866e+03,4.674362e+03
1.190830e+03,4.679358e+03
1.191794e+03,4.688973e+03
1.192758e+03,4.693990e+03
1.193723e+03,4.691834e+03
1.194687e+03,4.689380e+03
1.195651e+03,4.687662e+03
1.196615e+03,4.686558e+03
1.197580e+03,4.685888e+03
1.198544e+03,4.684204e+03
1.199508e+03,4.678373e+03
1.200472e+03,4.669270e+03
1.201437e+03,4.659579e+03
1.202401e+03,4.651946e+03
1.203365e+03,4.647658e+03
1.204329e+03,4.644690e+03
1.205293e+03,4.641871e+03
1.206258e+03,4.642001e+03
1.207222e+03,4.647348e+03
1.208186e+03,4.654282e+03
1.209150e+03,4.650860e+03
1.210115e+03,4.633978e+03
1.211079e+03,4.624899e+03
1.212043e+03,4.628808e+03
1.213007e+03,4.637453e+03
1.213972e+03,4.645368e+03
1.214936e+03,4.652771e+03
1.215900e+03,4.650876e+03
1.216864e+03,4.640368e+03
1.217828e+03,4.631805e+03
1.218793e+03,4.632677e+03
1.219757e+03,4.637211e+03
1.220721e+03,4.634377e+03
1.221685e+03,4.627467e+03
1.222650e+03,4.623350e+03
1.223614e+03,4.622392e+03
1.224578e+03,4.621319e+03
1.225542e+03,4.618482e+03
1.226507e+03,4.616353e+03
1.227471e+03,4.618569e+03
1.228435e+03,4.622546e+03
1.229399e+03,4.621399e+03
1.230364e+03,4.608304e+03
1.231328e+03,4.595543e+03
1.232292e+03,4.592338e+03
1.233256e+03,4.595584e+03
1.234220e+03,4.599367e+03
1.235185e+03,4.605086e+03
1.236149e+03,4.606846e+03
1.237113e+03,4.595616e+03
1.238077e+03,4.588400e+03
1.239042e+03,4.596460e+03
1.240006e+03,4.615116e+03
1.240970e+03,4.621028e+03
1.241934e+03,4.603797e+03
1.242899e+03,4.592510e+03
1.243863e+03,4.598436e+03
1.244827e+03,4.608986e+03
1.245791e+03,4.605054e+03
1.246755e+03,4.582956e+03
1.247720e+03,4.567813e+03
1.248684e+03,4.560862e+03
1.249648e+03,4.560351e+03
1.250612e+03,4.566421e+03
1.251577e+03,4.575564e+03
1.252541e+03,4.577188e+03
1.253505e+03,4.571815e+03
1.254469e+03,4.567621e+03
1.255434e+03,4.567923e+03
1.256398e+03,4.570069e+03
1.257362e+03,4.568958e+03
1.258326e+03,4.565761e+03
1.259291e+03,4.565357e+03
1.260255e+03,4.566529e+03
1.261219e+03,4.563955e+03
1.262183e+03,4.554653e+03
1.263147e+03,4.545411e+03
1.264112e+03,4.540075e+03
1.265076e+03,4.537625e+03
1.266040e+03,4.535478e+03
1.267004e+03,4.532483e+03
1.267969e+03,4.532933e+03
1.268933e+03,4.544803e+03
1.269897e+03,4.558507e+03
1.270861e+03,4.564696e+03
1.271826e+03,4.560441e+03
1.272790e+03,4.554241e+03
1.273754e+03,4.544952e+03
1.274718e+03,4.539763e+03
1.275682e+03,4.546091e+03
1.276647e+03,4.553903e+03
1.277611e+03,4.546899e+03
1.278575e+03,4.521305e+03
1.279539e+03,4.506238e+03
1.280504e+03,4.505318e+03
1.281468e+03,4.509423e+03
1.282432e+03,4.512602e+03
1.283396e+03,4.515279e+03
1.284361e+03,4.519546e+03
1.285325e+03,4.523455e+03
1.286289e+03,4.522060e+03
1.287253e+03,4.513612e+03
1.288218e+03,4.504609e+03
1.289182e+03,4.504554e+03
1.290146e+03,4.506693e+03
1.291110e+03,4.502591e+03
1.292074e+03,4.493636e+03
1.293039e+03,4.484759e+03
1.294003e+03,4.477588e+03
1.294967e+03,4.469956e+03
1.295931e+03,4.460495e+03
1.296896e+03,4.452952e+03
1.297860e+03,4.451200e+03
1.298824e+03,4.456821e+03
1.299788e+03,4.459278e+03
1.300753e+03,4.454856e+03
1.301717e+03,4.450653e+03
1.302681e+03,4.449510e+03
1.303645e+03,4.450718e+03
1.304609e+03,4.452739e+03
1.305574e+03,4.454150e+03
1.306538e+03,4.453765e+03
1.307502e+03,4.453533e+03
1.308466e+03,4.453304e+03
1.309431e+03,4.451365e+03
1.310395e+03,4.448192e+03
1.311359e+03,4.444572e+03
1.312323e+03,4.438820e+03
1.313288e+03,4.430938e+03
1.314252e+03,4.422295e+03
1.315216e+03,4.416671e+03
1.316180e+03,4.414796e+03
1.317145e+03,4.417772e+03
1.318109e+03,4.428650e+03
1.319073e+03,4.445288e+03
1.320037e+03,4.454793e+03
1.321001e+03,4.451359e+03
1.321966e+03,4.441492e+03
1.322930e+03,4.425305e+03
1.323894e+03,4.408111e+03
1.324858e+03,4.396126e+03
1.325823e+03,4.388545e+03
1.326787e+03,4.388418e+03
1.327751e+03,4.397759e+03
1.328715e+03,4.406310e+03
1.329680e+03,4.407492e+03
1.330644e+03,4.403593e+03
1.331608e+03,4.402971e+03
1.332572e+03,4.405254e+03
1.333536e+03,4.412457e+03
1.334501e+03,4.425314e+03
1.335465e+03,4.434647e+03
1.336429e+03,4.430341e+03
1.337393e+03,4.419296e+03
1.338358e+03,4.409046e+03
1.339322e+03,4.400627e+03
1.340286e+03,4.394787e+03
1.341250e+03,4.394844e+03
1.342215e+03,4.393769e+03
1.343179e+03,4.390076e+03
1.344143e+03,4.387093e+03
1.345107e+03,4.385546e+03
1.346072e+03,4.384126e+03
1.347036e+03,4.383320e+03
1.348000e+03,4.383276e+03
1.348964e+03,4.380491e+03
1.349928e+03,4.373405e+03
1.350893e+03,4.366435e+03
1.351857e+03,4.368903e+03
1.352821e+03,4.379276e+03
1.353785e+03,4.381529e+03
1.354750e+03,4.373044e+03
1.355714e+03,4.361911e+03
1.356678e+03,4.357461e+03
1.357642e+03,4.356986e+03
1.358607e+03,4.351917e+03
1.359571e+03,4.345046e+03
1.360535e+03,4.345385e+03
1.361499e+03,4.361143e+03
1.362464e+03,4.370944e+03
1.363428e+03,4.357131e+03
1.364392e+03,4.342160e+03
1.365356e+03,4.341491e+03
1.366320e+03,4.352079e+03
1.367285e+03,4.356774e+03
1.368249e+03,4.357071e+03
1.369213e+03,4.351876e+03
1.370177e+03,4.339074e+03
1.371142e+03,4.324948e+03
1.372106e+03,4.317193e+03
1.373070e+03,4.315135e+03
1.374034e+03,4.314583e+03
1.374999e+03,4.316202e+03
1.375963e+03,4.317645e+03
1.376927e+03,4.317113e+03
1.377891e+03,4.316213e+03
1.378855e+03,4.315048e+03
1.379820e+03,4.314280e+03
1.380784e+03,4.316429e+03
1.381748e+03,4.322913e+03
1.382712e+03,4.326752e+03
1.383677e+03,4.322159e+03
1.384641e+03,4.314167e+03
1.385605e+03,4.302215e+03
1.386569e+03,4.288734e+03
1.387534e+03,4.277680e+03
1.388498e+03,4.269106e+03
1.389462e+03,4.266375e+03
1.390426e+03,4.269207e+03
1.391391e+03,4.271381e+03
1.392355e+03,4.269678e+03
1.393319e+03,4.267249e+03
1.394283e+03,4.268586e+03
1.395247e+03,4.272127e+03
1.396212e+03,4.276174e+03
1.397176e+03,4.280514e+03
1.398140e+03,4.282751e+03
1.399104e+03,4.280066e+03
1.400069e+03,4.274310e+03
1.401033e+03,4.262859e+03
1.401997e+03,4.249995e+03
1.402961e+03,4.247712e+03
1.403926e+03,4.265292e+03
1.404890e+03,4.270841e+03
1.405854e+03,4.259732e+03
1.406818e+03,4.247106e+03
1.407782e+03,4.244932e+03
1.408747e+03,4.250731e+03
1.409711e+03,4.250042e+03
1.410675e+03,4.242643e+03
1.411639e+03,4.239460e+03
1.412604e+03,4.245229e+03
1.413568e+03,4.248119e+03
1.414532e+03,4.234685e+03
1.415496e+03,4.219761e+03
1.416461e+03,4.214202e+03
1.417425e+03,4.215988e+03
1.418389e+03,4.219144e+03
1.419353e+03,4.226608e+03
1.420318e+03,4.229706e+03
1.421282e+03,4.228609e+03
1.422246e+03,4.225623e+03
1.423210e+03,4.222260e+03
1.424174e+03,4.218611e+03
1.425139e+03,4.208970e+03
1.426103e+03,4.193383e+03
1.427067e+03,4.182393e+03
1.428031e+03,4.180210e+03
1.428996e+03,4.182116e+03
1.429960e+03,4.183080e+03
1.430924e+03,4.184473e+03
1.431888e+03,4.190077e+03
1.432853e+03,4.198507e+03
1.433817e+03,4.201799e+03
1.434781e+03,4.197246e+03
1.435745e+03,4.190081e+03
1.436709e+03,4.176389e+03
1.437674e+03,4.162670e+03
1.438638e+03,4.156612e+03
1.439602e+03,4.158713e+03
1.440566e+03,4.162256e+03
1.441531e+03,4.166622e+03
1.442495e+03,4.170406e+03
1.443459e+03,4.172707e+03
1.444423e+03,4.172595e+03
1.445388e+03,4.166914e+03
1.446352e+03,4.158530e+03
1.447316e+03,4.152033e+03
1.448280e+03,4.148817e+03
1.449245e+03,4.145267e+03
1.450209e+03,4.137429e+03
1.451173e+03,4.133864e+03
1.452137e+03,4.134140e+03
1.453101e+03,4.135889e+03
1.454066e+03,4.139315e+03
1.455030e+03,4.144065e+03
1.455994e+03,4.145816e+03
1.456958e+03,4.144661e+03
1.457923e+03,4.140515e+03
1.458887e+03,4.130467e+03
1.459851e+03,4.124577e+03
1.460815e+03,4.141005e+03
1.461780e+03,4.157254e+03
1.462744e+03,4.151604e+03
1.463708e+03,4.127271e+03
1.464672e+03,4.109835e+03
1.465636e+03,4.104912e+03
1.466601e+03,4.103842e+03
1.467565e+03,4.106179e+03
1.468529e+03,4.110594e+03
1.469493e+03,4.116079e+03
1.470458e+03,4.120583e+03
1.471422e+03,4.119014e+03
1.472386e+03,4.113613e+03
1.473350e+03,4.109623e+03
1.474315e+03,4.108077e+03
1.475279e+03,4.107428e+03
1.476243e+03,4.108393e+03
1.477207e+03,4.107087e+03
1.478172e+03,4.098888e+03
1.479136e+03,4.087448e+03
1.480100e+03,4.087575e+03
1.481064e+03,4.104088e+03
1.482028e+03,4.115187e+03
1.482993e+03,4.118683e+03
1.483957e+03,4.117758e+03
1.484921e+03,4.112183e+03
1.485885e+03,4.104288e+03
1.486850e+03,4.096279e+03
1.487814e+03,4.088605e+03
1.488778e+03,4.085470e+03
1.489742e+03,4.090430e+03
1.490707e+03,4.093281e+03
1.491671e+03,4.092430e+03
1.492635e+03,4.091376e+03
1.493599e+03,4.089027e+03
1.494563e+03,4.085809e+03
1.495528e+03,4.087799e+03
1.496492e+03,4.093847e+03
1.497456e+03,4.087651e+03
1.498420e+03,4.069040e+03
1.499385e+03,4.051831e+03
1.500349e+03,4.045965e+03
1.501313e+03,4.046756e+03
1.502277e+03,4.053392e+03
1.503242e+03,4.061198e+03
1.504206e+03,4.063069e+03
1.505170e+03,4.054720e+03
1.506134e+03,4.049754e+03
1.507099e+03,4.050660e+03
1.508063e+03,4.048616e+03
1.509027e+03,4.038693e+03
1.509991e+03,4.027886e+03
1.510955e+03,4.032541e+03
1.511920e+03,4.044455e+03
1.512884e+03,4.043591e+03
1.513848e+03,4.031702e+03
1.514812e+03,4.022850e+03
1.515777e+03,4.020671e+03
1.516741e+03,4.020679e+03
1.517705e+03,4.024384e+03
1.518669e+03,4.026350e+03
1.519634e+03,4.021906e+03
1.520598e+03,4.010965e+03
1.521562e+03,4.005120e+03
1.522526e+03,4.003274e+03
1.523490e+03,4.006645e+03
1.524455e+03,4.017669e+03
1.525419e+03,4.024598e+03
1.526383e+03,4.013275e+03
1.527347e+03,3.996221e+03
1.528312e+03,3.984685e+03
1.529276e+03,3.980113e+03
1.530240e+03,3.978659e+03
1.531204e+03,3.979887e+03
1.532169e+03,3.979425e+03
1.533133e+03,3.976470e+03
1.534097e+03,3.974239e+03
1.535061e+03,3.974011e+03
1.536026e+03,3.976130e+03
1.536990e+03,3.987845e+03
1.537954e+03,4.002263e+03
1.538918e+03,4.004254e+03
1.539882e+03,3.988380e+03
1.540847e+03,3.973602e+03
1.541811e+03,3.962233e+03
1.542775e+03,3.954240e+03
1.543739e+03,3.952140e+03
1.544704e+03,3.953798e+03
1.545668e+03,3.955128e+03
1.546632e+03,3.956711e+03
1.547596e+03,3.959266e+03
1.548561e+03,3.962682e+03
1.549525e+03,3.966688e+03
1.550489e+03,3.971271e+03
1.551453e+03,3.973476e+03
1.552417e+03,3.970212e+03
1.553382e+03,3.965149e+03
1.554346e+03,3.963052e+03
1.555310e+03,3.963840e+03
1.556274e+03,3.959410e+03
1.557239e+03,3.949570e+03
1.558203e+03,3.942246e+03
1.559167e+03,3.939561e+03
1.560131e+03,3.937282e+03
1.561096e+03,3.930366e+03
1.562060e+03,3.924531e+03
1.563024e+03,3.924721e+03
1.563988e+03,3.929245e+03
1.564953e+03,3.933656e+03
1.565917e+03,3.938147e+03
1.566881e+03,3.939796e+03
1.567845e+03,3.937213e+03
1.568809e+03,3.935370e+03
1.569774e+03,3.939446e+03
1.570738e+03,3.942044e+03
1.571702e+03,3.927631e+03
1.572666e+03,3.908398e+03
1.573631e+03,3.901785e+03
1.574595e+03,3.910810e+03
1.575559e+03,3.917757e+03
1.576523e+03,3.921201e+03
1.577488e+03,3.923405e+03
1.578452e+03,3.922360e+03
1.579416e+03,3.919642e+03
1.580380e+03,3.918997e+03
1.581344e+03,3.918599e+03
1.582309e+03,3.913798e+03
1.583273e+03,3.907167e+03
1.584237e+03,3.903866e+03
1.585201e+03,3.907597e+03
1.586166e+03,3.908885e+03
1.587130e+03,3.902062e+03
1.588094e+03,3.899393e+03
1.589058e+03,3.909358e+03
1.590023e+03,3.924091e+03
1.590987e+03,3.927166e+03
1.591951e+03,3.922631e+03
1.592915e+03,3.914630e+03
1.593880e+03,3.902766e+03
1.594844e+03,3.892778e+03
1.595808e+03,3.889783e+03
1.596772e+03,3.886552e+03
1.597736e+03,3.882885e+03
1.598701e+03,3.879459e+03
1.599665e+03,3.876030e+03
1.600629e+03,3.872556e+03
1.601593e+03,3.868494e+03
1.602558e+03,3.864302e+03
1.603522e+03,3.862737e+03
1.604486e+03,3.865749e+03
1.605450e+03,3.862282e+03
1.606415e+03,3.839024e+03
1.607379e+03,3.822625e+03
1.608343e+03,3.825177e+03
1.609307e+03,3.835667e+03
1.610271e+03,3.833018e+03
1.611236e+03,3.820852e+03
1.612200e+03,3.821510e+03
1.613164e+03,3.834091e+03
1.614128e+03,3.840267e+03
1.615093e+03,3.819195e+03
1.616057e+03,3.804177e+03
1.617021e+03,3.812666e+03
1.617985e+03,3.821386e+03
1.618950e+03,3.816073e+03
1.619914e+03,3.801661e+03
1.620878e+03,3.797849e+03
1.621842e+03,3.802286e+03
1.622807e+03,3.804017e+03
1.623771e+03,3.801487e+03
1.624735e+03,3.798628e+03
1.625699e+03,3.793951e+03
1.626663e+03,3.790656e+03
1.627628e+03,3.790240e+03
1.628592e+03,3.788358e+03
1.629556e+03,3.780592e+03
1.630520e+03,3.770563e+03
1.631485e+03,3.771757e+03
1.632449e+03,3.780590e+03
1.633413e+03,3.782532e+03
1.634377e+03,3.769160e+03
1.635342e+03,3.756774e+03
1.636306e+03,3.753841e+03
1.637270e+03,3.751138e+03
1.638234e+03,3.743052e+03
1.639198e+03,3.734112e+03
1.640163e+03,3.734344e+03
1.641127e+03,3.741986e+03
1.642091e+03,3.748954e+03
1.643055e+03,3.752934e+03
1.644020e+03,3.754492e+03
1.644984e+03,3.751135e+03
1.645948e+03,3.746921e+03
1.646912e+03,3.743746e+03
1.647877e+03,3.740823e+03
1.648841e+03,3.738722e+03
1.649805e+03,3.736434e+03
1.650769e+03,3.726509e+03
1.651734e+03,3.712882e+03
1.652698e+03,3.707434e+03
1.653662e+03,3.713192e+03
1.654626e+03,3.716897e+03
1.655590e+03,3.714031e+03
1.656555e+03,3.711453e+03
1.657519e+03,3.713093e+03
1.658483e+03,3.716192e+03
1.659447e+03,3.713320e+03
1.660412e+03,3.706243e+03
1.661376e+03,3.702282e+03
1.662340e+03,3.701413e+03
1.663304e+03,3.699155e+03
1.664269e+03,3.685679e+03
1.665233e+03,3.682996e+03
1.666197e+03,3.693999e+03
1.667161e+03,3.702783e+03
1.668125e+03,3.701408e+03
1.669090e+03,3.694605e+03
1.670054e+03,3.686992e+03
1.671018e+03,3.680409e+03
1.671982e+03,3.679577e+03
1.672947e+03,3.684474e+03
1.673911e+03,3.685173e+03
1.674875e+03,3.678441e+03
1.675839e+03,3.670156e+03
1.676804e+03,3.662753e+03
1.677768e+03,3.658462e+03
1.678732e+03,3.658653e+03
1.679696e+03,3.659958e+03
1.680661e+03,3.659288e+03
1.681625e+03,3.656164e+03
1.682589e+03,3.652654e+03
1.683553e+03,3.650194e+03
1.684517e+03,3.650081e+03
1.685482e+03,3.651635e+03
1.686446e+03,3.650019e+03
1.687410e+03,3.643176e+03
1.688374e+03,3.636410e+03
1.689339e+03,3.632319e+03
1.690303e+03,3.630703e+03
1.691267e+03,3.632366e+03
1.692231e+03,3.636108e+03
1.693196e+03,3.638376e+03
1.694160e+03,3.638544e+03
1.695124e+03,3.641058e+03
1.696088e+03,3.645955e+03
1.697052e+03,3.649398e+03
1.698017e+03,3.647578e+03
1.698981e+03,3.641760e+03
1.699945e+03,3.628514e+03
1.700909e+03,3.613913e+03
1.701874e+03,3.602505e+03
1.702838e+03,3.597680e+03
1.703802e+03,3.607246e+03
1.704766e+03,3.621580e+03
1.705731e+03,3.624286e+03
1.706695e+03,3.615081e+03
1.707659e+03,3.610881e+03
1.708623e+03,3.619412e+03
1.709588e+03,3.623846e+03
1.710552e+03,3.619774e+03
1.711516e+03,3.611883e+03
1.712480e+03,3.602399e+03
1.713444e+03,3.594437e+03
1.714409e+03,3.597229e+03
1.715373e+03,3.603061e+03
1.716337e+03,3.597550e+03
1.717301e+03,3.581344e+03
1.718266e+03,3.569781e+03
1.719230e+03,3.562114e+03
1.720194e+03,3.563587e+03
1.721158e+03,3.576512e+03
1.722123e+03,3.585468e+03
1.723087e+03,3.574907e+03
1.724051e+03,3.562788e+03
1.725015e+03,3.559760e+03
1.725979e+03,3.560328e+03
1.726944e+03,3.553692e+03
1.727908e+03,3.542452e+03
1.728872e+03,3.537623e+03
1.729836e+03,3.537313e+03
1.730801e+03,3.537851e+03
1.731765e+03,3.539020e+03
1.732729e+03,3.540703e+03
1.733693e+03,3.543539e+03
1.734658e+03,3.544874e+03
1.735622e+03,3.541620e+03
1.736586e+03,3.539850e+03
1.737550e+03,3.556141e+03
1.738515e+03,3.573978e+03
1.739479e+03,3.570522e+03
1.740443e+03,3.548226e+03
1.741407e+03,3.534311e+03
1.742371e+03,3.530000e+03
1.743336e+03,3.523873e+03
1.744300e+03,3.514901e+03
1.745264e+03,3.507916e+03
1.746228e+03,3.508949e+03
1.747193e+03,3.513202e+03
1.748157e+03,3.523354e+03
1.749121e+03,3.533928e+03
1.750085e+03,3.537683e+03
1.751050e+03,3.532860e+03
1.752014e+03,3.521307e+03
1.752978e+03,3.507113e+03
1.753942e+03,3.498750e+03
1.754906e+03,3.497064e+03
1.755871e+03,3.493192e+03
1.756835e+03,3.479441e+03
1.757799e+03,3.474770e+03
1.758763e+03,3.487937e+03
1.759728e+03,3.501173e+03
1.760692e+03,3.492211e+03
1.761656e+03,3.478999e+03
1.762620e+03,3.478526e+03
1.763585e+03,3.483355e+03
1.764549e+03,3.481615e+03
1.765513e+03,3.471985e+03
1.766477e+03,3.466563e+03
1.767442e+03,3.465828e+03
1.768406e+03,3.467516e+03
1.769370e+03,3.471635e+03
1.770334e+03,3.475340e+03
1.771298e+03,3.475035e+03
1.772263e+03,3.473313e+03
1.773227e+03,3.471840e+03
1.774191e+03,3.470155e+03
1.775155e+03,3.466376e+03
1.776120e+03,3.461511e+03
1.777084e+03,3.458655e+03
1.778048e+03,3.456852e+03
1.779012e+03,3.451994e+03
1.779977e+03,3.442948e+03
1.780941e+03,3.440655e+03
1.781905e+03,3.443413e+03
1.782869e+03,3.444790e+03
1.783833e+03,3.442781e+03
1.784798e+03,3.437896e+03
1.785762e+03,3.423912e+03
1.786726e+03,3.414989e+03
1.787690e+03,3.421273e+03
1.788655e+03,3.432676e+03
1.789619e+03,3.425667e+03
1.790583e+03,3.409884e+03
1.791547e+03,3.404872e+03
1.792512e+03,3.409850e+03
1.793476e+03,3.411629e+03
1.794440e+03,3.404444e+03
1.795404e+03,3.402669e+03
1.796369e+03,3.405933e+03
1.797333e+03,3.411141e+03
1.798297e+03,3.419321e+03
1.799261e+03,3.425177e+03
1.800225e+03,3.425046e+03
1.801190e+03,3.417456e+03
1.802154e+03,3.399133e+03
1.803118e+03,3.378044e+03
1.804082e+03,3.383895e+03
1.805047e+03,3.403844e+03
1.806011e+03,3.401972e+03
1.806975e+03,3.377040e+03
1.807939e+03,3.367899e+03
1.808904e+03,3.385566e+03
1.809868e+03,3.388691e+03
1.810832e+03,3.373321e+03
1.811796e+03,3.362010e+03
1.812760e+03,3.379893e+03
1.813725e+03,3.395875e+03
1.814689e+03,3.387870e+03
1.815653e+03,3.370990e+03
1.816617e+03,3.353226e+03
1.817582e+03,3.338602e+03
1.818546e+03,3.344535e+03
1.819510e+03,3.361252e+03
1.820474e+03,3.368992e+03
1.821439e+03,3.364891e+03
1.822403e+03,3.353853e+03
1.823367e+03,3.333589e+03
1.824331e+03,3.324048e+03
1.825296e+03,3.327682e+03
1.826260e+03,3.332680e+03
1.827224e+03,3.330607e+03
1.828188e+03,3.332206e+03
1.829152e+03,3.345426e+03
1.830117e+03,3.358472e+03
1.831081e+03,3.362902e+03
1.832045e+03,3.358312e+03
1.833009e+03,3.341799e+03
1.833974e+03,3.322786e+03
1.834938e+03,3.315206e+03
1.835902e+03,3.321688e+03
1.836866e+03,3.322209e+03
1.837831e+03,3.316227e+03
1.838795e+03,3.306107e+03
1.839759e+03,3.293309e+03
1.840723e+03,3.288974e+03
1.841688e+03,3.310474e+03
1.842652e+03,3.325149e+03
1.843616e+03,3.317595e+03
1.844580e+03,3.304080e+03
1.845544e+03,3.305351e+03
1.846509e+03,3.312511e+03
1.847473e+03,3.308606e+03
1.848437e+03,3.297732e+03
1.849401e+03,3.286073e+03
1.850366e+03,3.274660e+03
1.851330e+03,3.270446e+03
1.852294e+03,3.273768e+03
1.853258e+03,3.279458e+03
1.854223e+03,3.286460e+03
1.855187e+03,3.290964e+03
1.856151e+03,3.288688e+03
1.857115e+03,3.283767e+03
1.858079e+03,3.275461e+03
1.859044e+03,3.268265e+03
1.860008e+03,3.272068e+03
1.860972e+03,3.277398e+03
1.861936e+03,3.274073e+03
1.862901e+03,3.265684e+03
1.863865e+03,3.254104e+03
1.864829e+03,3.238935e+03
1.865793e+03,3.238776e+03
1.866758e+03,3.248512e+03
1.867722e+03,3.248099e+03
1.868686e+03,3.228351e+03
1.869650e+03,3.219416e+03
1.870615e+03,3.224071e+03
1.871579e+03,3.227690e+03
1.872543e+03,3.228199e+03
1.873507e+03,3.228893e+03
1.874471e+03,3.227576e+03
1.875436e+03,3.226419e+03
1.876400e+03,3.229062e+03
1.877364e+03,3.232264e+03
1.878328e+03,3.232644e+03
1.879293e+03,3.230209e+03
1.880257e+03,3.222214e+03
1.881221e+03,3.210970e+03
1.882185e+03,3.203981e+03
1.883150e+03,3.202514e+03
1.884114e+03,3.195034e+03
1.885078e+03,3.182531e+03
1.886042e+03,3.180186e+03
1.887006e+03,3.194209e+03
1.887971e+03,3.201496e+03
1.888935e+03,3.192776e+03
1.889899e+03,3.187481e+03
1.890863e+03,3.188504e+03
1.891828e+03,3.190218e+03
1.892792e+03,3.192457e+03
1.893756e+03,3.190425e+03
1.894720e+03,3.177552e+03
1.895685e+03,3.165943e+03
1.896649e+03,3.167129e+03
1.897613e+03,3.175343e+03
1.898577e+03,3.178505e+03
1.899542e+03,3.176183e+03
1.900506e+03,3.162417e+03
1.901470e+03,3.133602e+03
1.902434e+03,3.132311e+03
1.903398e+03,3.157163e+03
1.904363e+03,3.173469e+03
1.905327e+03,3.172377e+03
1.906291e+03,3.169290e+03
1.907255e+03,3.170185e+03
1.908220e+03,3.167561e+03
1.909184e+03,3.159583e+03
1.910148e+03,3.150167e+03
1.911112e+03,3.144384e+03
1.912077e+03,3.140692e+03
1.913041e+03,3.138146e+03
1.914005e+03,3.136200e+03
1.914969e+03,3.135389e+03
1.915933e+03,3.134067e+03
1.916898e+03,3.123078e+03
1.917862e+03,3.108409e+03
1.918826e+03,3.101604e+03
1.919790e+03,3.105662e+03
1.920755e+03,3.106881e+03
1.921719e+03,3.103874e+03
1.922683e+03,3.106635e+03
1.923647e+03,3.118481e+03
1.924612e+03,3.127838e+03
1.925576e+03,3.130004e+03
1.926540e+03,3.126424e+03
1.927504e+03,3.114215e+03
1.928469e+03,3.101341e+03
1.929433e+03,3.094723e+03
1.930397e+03,3.089324e+03
1.931361e+03,3.080312e+03
1.932325e+03,3.072733e+03
1.933290e+03,3.072989e+03
1.934254e+03,3.079629e+03
1.935218e+03,3.085634e+03
1.936182e+03,3.087596e+03
1.937147e+03,3.081162e+03
1.938111e+03,3.069450e+03
1.939075e+03,3.072586e+03
1.940039e+03,3.088323e+03
1.941004e+03,3.090990e+03
1.941968e+03,3.075511e+03
1.942932e+03,3.059489e+03
1.943896e+03,3.046843e+03
1.944860e+03,3.041226e+03
1.945825e+03,3.044720e+03
1.946789e+03,3.048325e+03
1.947753e+03,3.041219e+03
1.948717e+03,3.036246e+03
1.949682e+03,3.039856e+03
1.950646e+03,3.043420e+03
1.951610e+03,3.041356e+03
1.952574e+03,3.037699e+03
1.953539e+03,3.037750e+03
1.954503e+03,3.039609e+03
1.955467e+03,3.042050e+03
1.956431e+03,3.045872e+03
1.957396e+03,3.056870e+03
1.958360e+03,3.066990e+03
1.959324e+03,3.051644e+03
1.960288e+03,3.016792e+03
1.961252e+03,3.002382e+03
1.962217e+03,3.009962e+03
1.963181e+03,3.018728e+03
1.964145e+03,3.026374e+03
1.965109e+03,3.029519e+03
1.966074e+03,3.025034e+03
1.967038e+03,3.021405e+03
1.968002e+03,3.015551e+03
1.968966e+03,3.013478e+03
1.969931e+03,3.021183e+03
1.970895e+03,3.025149e+03
1.971859e+03,3.014452e+03
1.972823e+03,3.004739e+03
1.973787e+03,3.002114e+03
1.974752e+03,3.000208e+03
1.975716e+03,2.988133e+03
1.976680e+03,2.974495e+03
1.977644e+03,2.974265e+03
1.978609e+03,2.980183e+03
1.979573e+03,2.975317e+03
1.980537e+03,2.963398e+03
1.981501e+03,2.961087e+03
1.982466e+03,2.965734e+03
1.983430e+03,2.966738e+03
1.984394e+03,2.961902e+03
1.985358e+03,2.961474e+03
1.986323e+03,2.964327e+03
1.987287e+03,2.966613e+03
1.988251e+03,2.967438e+03
1.989215e+03,2.962156e+03
1.990179e+03,2.949112e+03
1.991144e+03,2.944022e+03
1.992108e+03,2.952594e+03
1.993072e+03,2.960079e+03
1.994036e+03,2.950675e+03
1.995001e+03,2.942878e+03
1.995965e+03,2.941100e+03
1.996929e+03,2.945004e+03
1.997893e+03,2.961233e+03
1.998858e+03,2.971435e+03
1.999822e+03,2.950297e+03
2.000786e+03,2.923923e+03
2.001750e+03,2.919240e+03
2.002714e+03,2.926741e+03
2.003679e+03,2.917677e+03
2.004643e+03,2.901418e+03
2.005607e+03,2.895284e+03
2.006571e+03,2.897989e+03
2.007536e+03,2.900448e+03
2.008500e+03,2.902656e+03
2.009464e+03,2.902884e+03
2.010428e+03,2.902048e+03
2.011393e+03,2.903803e+03
2.012357e+03,2.908467e+03
2.013321e+03,2.909849e+03
2.014285e+03,2.905826e+03
2.015250e+03,2.900980e+03
2.016214e+03,2.897200e+03
2.017178e+03,2.893965e+03
2.018142e+03,2.892082e+03
2.019106e+03,2.889720e+03
2.020071e+03,2.884087e+03
2.021035e+03,2.880921e+03
2.021999e+03,2.884919e+03
2.022963e+03,2.886939e+03
2.023928e+03,2.885013e+03
2.024892e+03,2.879949e+03
2.025856e+03,2.865603e+03
2.026820e+03,2.856875e+03
2.027785e+03,2.865636e+03
2.028749e+03,2.877526e+03
2.029713e+03,2.870205e+03
2.030677e+03,2.857808e+03
2.031641e+03,2.859958e+03
2.032606e+03,2.869232e+03
2.033570e+03,2.874152e+03
2.034534e+03,2.873338e+03
2.035498e+03,2.858853e+03
2.036463e+03,2.837468e+03
2.037427e+03,2.823855e+03
2.038391e+03,2.820321e+03
2.039355e+03,2.820532e+03
2.040320e+03,2.823477e+03
2.041284e+03,2.821876e+03
2.042248e+03,2.813030e+03
2.043212e+03,2.807026e+03
2.044177e+03,2.804954e+03
2.045141e+03,2.817214e+03
2.046105e+03,2.844046e+03
2.047069e+03,2.857954e+03
2.048033e+03,2.832305e+03
2.048998e+03,2.812752e+03
2.049962e+03,2.803705e+03
2.050926e+03,2.802098e+03
2.051890e+03,2.815401e+03
2.052854e+03,2.819110e+03
2.053819e+03,2.800335e+03
2.054783e+03,2.784015e+03
2.055747e+03,2.787361e+03
2.056711e+03,2.795039e+03
2.057676e+03,2.793055e+03
2.058640e+03,2.787610e+03
2.059604e+03,2.778129e+03
2.060568e+03,2.769820e+03
2.061533e+03,2.775633e+03
2.062497e+03,2.785081e+03
2.063461e+03,2.787157e+03
2.064425e+03,2.786067e+03
2.065390e+03,2.788132e+03
2.066354e+03,2.790603e+03
2.067318e+03,2.790569e+03
2.068282e+03,2.787558e+03
2.069247e+03,2.778953e+03
2.070211e+03,2.765599e+03
2.071175e+03,2.758801e+03
2.072139e+03,2.756016e+03
2.073104e+03,2.748005e+03
2.074068e+03,2.734893e+03
2.075032e+03,2.740991e+03
2.075996e+03,2.759649e+03
2.076960e+03,2.765740e+03
2.077925e+03,2.754111e+03
2.078889e+03,2.742212e+03
2.079853e+03,2.730987e+03
2.080817e+03,2.734572e+03
2.081782e+03,2.752850e+03
2.082746e+03,2.758717e+03
2.083710e+03,2.738212e+03
2.084674e+03,2.720792e+03
2.085639e+03,2.709604e+03
2.086603e+03,2.706987e+03
2.087567e+03,2.713306e+03
2.088531e+03,2.721537e+03
2.089496e+03,2.730915e+03
2.090460e+03,2.730661e+03
2.091424e+03,2.717476e+03
2.092388e+03,2.706756e+03
2.093353e+03,2.708941e+03
2.094317e+03,2.708984e+03
2.095281e+03,2.697727e+03
2.096245e+03,2.689844e+03
2.097209e+03,2.710017e+03
2.098174e+03,2.725413e+03
2.099138e+03,2.722915e+03
2.100102e+03,2.712296e+03
2.101066e+03,2.700126e+03
2.102031e+03,2.688370e+03
2.102995e+03,2.678525e+03
2.103959e+03,2.670627e+03
2.104923e+03,2.662890e+03
2.105887e+03,2.661263e+03
2.106852e+03,2.676333e+03
2.107816e+03,2.693839e+03
2.108780e+03,2.703361e+03
2.109744e+03,2.703067e+03
2.110708e+03,2.684111e+03
2.111673e+03,2.659705e+03
2.112637e+03,2.644650e+03
2.113601e+03,2.636941e+03
2.114565e+03,2.639659e+03
2.115530e+03,2.647184e+03
2.116494e+03,2.644546e+03
2.117458e+03,2.638578e+03
2.118422e+03,2.644871e+03
2.119387e+03,2.658879e+03
2.120351e+03,2.669320e+03
2.121315e+03,2.674692e+03
2.122279e+03,2.679363e+03
2.123244e+03,2.683882e+03
2.124208e+03,2.666338e+03
2.125172e+03,2.634969e+03
2.126136e+03,2.614188e+03
2.127101e+03,2.610610e+03
2.128065e+03,2.614702e+03
2.129029e+03,2.624502e+03
2.129993e+03,2.628997e+03
2.130958e+03,2.623435e+03
2.131922e+03,2.618240e+03
2.132886e+03,2.615500e+03
2.133850e+03,2.612284e+03
2.134814e+03,2.610732e+03
2.135779e+03,2.610398e+03
2.136743e+03,2.610515e+03
2.137707e+03,2.605841e+03
2.138671e+03,2.597340e+03
2.139636e+03,2.590070e+03
2.140600e+03,2.587778e+03
2.141564e+03,2.582916e+03
2.142528e+03,2.575236e+03
2.143493e+03,2.570189e+03
2.144457e+03,2.568339e+03
2.145421e+03,2.570464e+03
2.146385e+03,2.579484e+03
2.147350e+03,2.581569e+03
2.148314e+03,2.573227e+03
2.149278e+03,2.569350e+03
2.150242e+03,2.582322e+03
2.151207e+03,2.587630e+03
2.152171e+03,2.579993e+03
2.153135e+03,2.569481e+03
2.154099e+03,2.566953e+03
2.155063e+03,2.565591e+03
2.156028e+03,2.564642e+03
2.156992e+03,2.563976e+03
2.157956e+03,2.560169e+03
2.158920e+03,2.554203e+03
2.159885e+03,2.543680e+03
2.160849e+03,2.539333e+03
2.161813e+03,2.550048e+03
2.162777e+03,2.558511e+03
2.163741e+03,2.547483e+03
2.164706e+03,2.533502e+03
2.165670e+03,2.523384e+03
2.166634e+03,2.521767e+03
2.167598e+03,2.543194e+03
2.168563e+03,2.554810e+03
2.169527e+03,2.537316e+03
2.170491e+03,2.514944e+03
2.171455e+03,2.520800e+03
2.172420e+03,2.528353e+03
2.173384e+03,2.517200e+03
2.174348e+03,2.507264e+03
2.175312e+03,2.519823e+03
2.176277e+03,2.532522e+03
2.177241e+03,2.520070e+03
2.178205e+03,2.501715e+03
2.179169e+03,2.487905e+03
2.180134e+03,2.482737e+03
2.181098e+03,2.500061e+03
2.182062e+03,2.513893e+03
2.183026e+03,2.503627e+03
2.183990e+03,2.483731e+03
2.184955e+03,2.472060e+03
2.185919e+03,2.466293e+03
2.186883e+03,2.463926e+03
2.187847e+03,2.463195e+03
2.188812e+03,2.463869e+03
2.189776e+03,2.466594e+03
2.190740e+03,2.473195e+03
2.191704e+03,2.478162e+03
2.192668e+03,2.475936e+03
2.193633e+03,2.472132e+03
2.194597e+03,2.477011e+03
2.195561e+03,2.481569e+03
2.196525e+03,2.476110e+03
2.197490e+03,2.464969e+03
2.198454e+03,2.452747e+03
2.199418e+03,2.442706e+03
2.200382e+03,2.436859e+03
2.201347e+03,2.438248e+03
2.202311e+03,2.456665e+03
2.203275e+03,2.475854e+03
2.204239e+03,2.475129e+03
2.205204e+03,2.465047e+03
2.206168e+03,2.464074e+03
2.207132e+03,2.465575e+03
2.208096e+03,2.456358e+03
2.209061e+03,2.444332e+03
2.210025e+03,2.444797e+03
2.210989e+03,2.445967e+03
2.211953e+03,2.419365e+03
2.212917e+03,2.398985e+03
2.213882e+03,2.416816e+03
2.214846e+03,2.446990e+03
2.215810e+03,2.444799e+03
2.216774e+03,2.427333e+03
2.217739e+03,2.415028e+03
2.218703e+03,2.408697e+03
2.219667e+03,2.414139e+03
2.220631e+03,2.418465e+03
2.221595e+03,2.403995e+03
2.222560e+03,2.386080e+03
2.223524e+03,2.389248e+03
2.224488e+03,2.399593e+03
2.225452e+03,2.404695e+03
2.226417e+03,2.406295e+03
2.227381e+03,2.403757e+03
2.228345e+03,2.400584e+03
2.229309e+03,2.397690e+03
2.230274e+03,2.395425e+03
2.231238e+03,2.395657e+03
2.232202e+03,2.396317e+03
2.233166e+03,2.398979e+03
2.234131e+03,2.399076e+03
2.235095e+03,2.390285e+03
2.236059e+03,2.381535e+03
2.237023e+03,2.391275e+03
2.237988e+03,2.399083e+03
2.238952e+03,2.388806e+03
2.239916e+03,2.371906e+03
2.240880e+03,2.364526e+03
2.241844e+03,2.360876e+03
2.242809e+03,2.356487e+03
2.243773e+03,2.352857e+03
2.244737e+03,2.350718e+03
2.245701e+03,2.348134e+03
2.246666e+03,2.342538e+03
2.247630e+03,2.336729e+03
2.248594e+03,2.336460e+03
2.249558e+03,2.337406e+03
2.250522e+03,2.330532e+03
2.251487e+03,2.327449e+03
2.252451e+03,2.332362e+03
2.253415e+03,2.337431e+03
2.254379e+03,2.338278e+03
2.255344e+03,2.339688e+03
2.256308e+03,2.345255e+03
2.257272e+03,2.347858e+03
2.258236e+03,2.337537e+03
2.259201e+03,2.325130e+03
2.260165e+03,2.311681e+03
2.261129e+03,2.304771e+03
2.262093e+03,2.318731e+03
2.263058e+03,2.327094e+03
2.264022e+03,2.324003e+03
2.264986e+03,2.319586e+03
2.265950e+03,2.317924e+03
2.266915e+03,2.316354e+03
2.267879e+03,2.312733e+03
2.268843e+03,2.306211e+03
2.269807e+03,2.298925e+03
2.270771e+03,2.291429e+03
2.271736e+03,2.282449e+03
2.272700e+03,2.283684e+03
2.273664e+03,2.297599e+03
2.274628e+03,2.307632e+03
2.275593e+03,2.304317e+03
2.276557e+03,2.301230e+03
2.277521e+03,2.302250e+03
2.278485e+03,2.299933e+03
2.279449e+03,2.287145e+03
2.280414e+03,2.277958e+03
2.281378e+03,2.272975e+03
2.282342e+03,2.272597e+03
2.283306e+03,2.281314e+03
2.284271e+03,2.278745e+03
2.285235e+03,2.265434e+03
2.286199e+03,2.254879e+03
2.287163e+03,2.255078e+03
2.288128e+03,2.263882e+03
2.289092e+03,2.277560e+03
2.290056e+03,2.282046e+03
2.291020e+03,2.274031e+03
2.291985e+03,2.260855e+03
2.292949e+03,2.246124e+03
2.293913e+03,2.241057e+03
2.294877e+03,2.245841e+03
2.295842e+03,2.254260e+03
2.296806e+03,2.263377e+03
2.297770e+03,2.265388e+03
2.298734e+03,2.260221e+03
2.299698e+03,2.251428e+03
2.300663e+03,2.240730e+03
2.301627e+03,2.231543e+03
2.302591e+03,2.222784e+03
2.303555e+03,2.212248e+03
2.304520e+03,2.202275e+03
2.305484e+03,2.204444e+03
2.306448e+03,2.213594e+03
2.307412e+03,2.221628e+03
2.308376e+03,2.225039e+03
2.309341e+03,2.210254e+03
2.310305e+03,2.193621e+03
2.311269e+03,2.203330e+03
2.312233e+03,2.222407e+03
2.313198e+03,2.218207e+03
2.314162e+03,2.207245e+03
2.315126e+03,2.210976e+03
2.316090e+03,2.215417e+03
2.317055e+03,2.201240e+03
2.318019e+03,2.187090e+03
2.318983e+03,2.191017e+03
2.319947e+03,2.197370e+03
2.320912e+03,2.198518e+03
2.321876e+03,2.196793e+03
2.322840e+03,2.191798e+03
2.323804e+03,2.185678e+03
2.324769e+03,2.178774e+03
2.325733e+03,2.175837e+03
2.326697e+03,2.182375e+03
2.327661e+03,2.184394e+03
2.328625e+03,2.175017e+03
2.329590e+03,2.166568e+03
2.330554e+03,2.173615e+03
2.331518e+03,2.169467e+03
2.332482e+03,2.149021e+03
2.333447e+03,2.138404e+03
2.334411e+03,2.158603e+03
2.335375e+03,2.165204e+03
2.336339e+03,2.156197e+03
2.337303e+03,2.147077e+03
2.338268e+03,2.141038e+03
2.339232e+03,2.141923e+03
2.340196e+03,2.148521e+03
2.341160e+03,2.146817e+03
2.342125e+03,2.131312e+03
2.343089e+03,2.137624e+03
2.344053e+03,2.155575e+03
2.345017e+03,2.155063e+03
2.345982e+03,2.135604e+03
2.346946e+03,2.124385e+03
2.347910e+03,2.121372e+03
2.348874e+03,2.124586e+03
2.349839e+03,2.128396e+03
2.350803e+03,2.120883e+03
2.351767e+03,2.110295e+03
2.352731e+03,2.116501e+03
2.353696e+03,2.127389e+03
2.354660e+03,2.115725e+03
2.355624e+03,2.097610e+03
2.356588e+03,2.103031e+03
2.357552e+03,2.116497e+03
2.358517e+03,2.127977e+03
2.359481e+03,2.133225e+03
2.360445e+03,2.117879e+03
2.361409e+03,2.104921e+03
2.362374e+03,2.109377e+03
2.363338e+03,2.112209e+03
2.364302e+03,2.091966e+03
2.365266e+03,2.081876e+03
2.366230e+03,2.091505e+03
2.367195e+03,2.098988e+03
2.368159e+03,2.081806e+03
2.369123e+03,2.074962e+03
2.370087e+03,2.085362e+03
2.371052e+03,2.100333e+03
2.372016e+03,2.121843e+03
2.372980e+03,2.119555e+03
2.373944e+03,2.093452e+03
2.374909e+03,2.074186e+03
2.375873e+03,2.072959e+03
2.376837e+03,2.071795e+03
2.377801e+03,2.071003e+03
2.378766e+03,2.070520e+03
2.379730e+03,2.070057e+03
2.380694e+03,2.061650e+03
2.381658e+03,2.050958e+03
2.382623e+03,2.050820e+03
2.383587e+03,2.057078e+03
2.384551e+03,2.056110e+03
2.385515e+03,2.050981e+03
2.386479e+03,2.048965e+03
2.387444e+03,2.049105e+03
2.388408e+03,2.052592e+03
2.389372e+03,2.054778e+03
2.390336e+03,2.046331e+03
2.391301e+03,2.038508e+03
2.392265e+03,2.044387e+03
2.393229e+03,2.050535e+03
2.394193e+03,2.050313e+03
2.395157e+03,2.045093e+03
2.396122e+03,2.029657e+03
2.397086e+03,2.026255e+03
2.398050e+03,2.046104e+03
2.399014e+03,2.053155e+03
2.399979e+03,2.028582e+03
2.400943e+03,2.013550e+03
2.401907e+03,2.014126e+03
2.402871e+03,2.018557e+03
2.403836e+03,2.025266e+03
2.404800e+03,2.026822e+03
2.405764e+03,2.022722e+03
2.406728e+03,2.018079e+03
2.407693e+03,2.012747e+03
2.408657e+03,2.009953e+03
2.409621e+03,2.009796e+03
2.410585e+03,2.006505e+03
2.411550e+03,2.001260e+03
2.412514e+03,1.996226e+03
2.413478e+03,1.991766e+03
2.414442e+03,1.988416e+03
2.415406e+03,1.988638e+03
2.416371e+03,1.996374e+03
2.417335e+03,2.004484e+03
2.418299e+03,2.001502e+03
2.419263e+03,1.993649e+03
2.420228e+03,1.982276e+03
2.421192e+03,1.973717e+03
2.422156e+03,1.975667e+03
2.423120e+03,1.984051e+03
2.424084e+03,1.997932e+03
2.425049e+03,2.001248e+03
2.426013e+03,1.981645e+03
2.426977e+03,1.969333e+03
2.427941e+03,1.968483e+03
2.428906e+03,1.972805e+03
2.429870e+03,1.980467e+03
2.430834e+03,1.979720e+03
2.431798e+03,1.972657e+03
2.432763e+03,1.968215e+03
2.433727e+03,1.966428e+03
2.434691e+03,1.968840e+03
2.435655e+03,1.972591e+03
2.436620e+03,1.971487e+03
2.437584e+03,1.968195e+03
2.438548e+03,1.972232e+03
2.439512e+03,1.976588e+03
2.440477e+03,1.972213e+03
2.441441e+03,1.965316e+03
2.442405e+03,1.971555e+03
2.443369e+03,1.972376e+03
2.444333e+03,1.959101e+03
2.445298e+03,1.946416e+03
2.446262e+03,1.947893e+03
2.447226e+03,1.949060e+03
2.448190e+03,1.948236e+03
2.449155e+03,1.948400e+03
2.450119e+03,1.955736e+03
2.451083e+03,1.954771e+03
2.452047e+03,1.945889e+03
2.453011e+03,1.939657e+03
2.453976e+03,1.939554e+03
2.454940e+03,1.937030e+03
2.455904e+03,1.934381e+03
2.456868e+03,1.934018e+03
2.457833e+03,1.934057e+03
2.458797e+03,1.932497e+03
2.459761e+03,1.930583e+03
2.460725e+03,1.929684e+03
2.461690e+03,1.926231e+03
2.462654e+03,1.910418e+03
2.463618e+03,1.896246e+03
2.464582e+03,1.893275e+03
2.465547e+03,1.895360e+03
2.466511e+03,1.895473e+03
2.467475e+03,1.895961e+03
2.468439e+03,1.897372e+03
2.469404e+03,1.896895e+03
2.470368e+03,1.891507e+03
2.471332e+03,1.896735e+03
2.472296e+03,1.909918e+03
2.473260e+03,1.912400e+03
2.474225e+03,1.898947e+03
2.475189e+03,1.887155e+03
2.476153e+03,1.879381e+03
2.477117e+03,1.880382e+03
2.478082e+03,1.886495e+03
2.479046e+03,1.890535e+03
2.480010e+03,1.892786e+03
2.480974e+03,1.895963e+03
2.481938e+03,1.896508e+03
2.482903e+03,1.885546e+03
2.483867e+03,1.874850e+03
2.484831e+03,1.869653e+03
2.485795e+03,1.868194e+03
2.486760e+03,1.873733e+03
2.487724e+03,1.877696e+03
2.488688e+03,1.879314e+03
2.489652e+03,1.881063e+03
2.490617e+03,1.885639e+03
2.491581e+03,1.874756e+03
2.492545e+03,1.853540e+03
2.493509e+03,1.849990e+03
2.494474e+03,1.864941e+03
2.495438e+03,1.868207e+03
2.496402e+03,1.864478e+03
2.497366e+03,1.863976e+03
2.498331e+03,1.865618e+03
2.499295e+03,1.868240e+03
2.500259e+03,1.868025e+03
2.501223e+03,1.863654e+03
2.502188e+03,1.858893e+03
2.503152e+03,1.858683e+03
2.504116e+03,1.855376e+03
2.505080e+03,1.846610e+03
2.506044e+03,1.839384e+03
2.507009e+03,1.839473e+03
2.507973e+03,1.833729e+03
2.508937e+03,1.823623e+03
2.509901e+03,1.822151e+03
2.510865e+03,1.832441e+03
2.511830e+03,1.839068e+03
2.512794e+03,1.841237e+03
2.513758e+03,1.841010e+03
2.514722e+03,1.839399e+03
2.515687e+03,1.831864e+03
2.516651e+03,1.822826e+03
2.517615e+03,1.816181e+03
2.518579e+03,1.812523e+03
2.519544e+03,1.815613e+03
2.520508e+03,1.817046e+03
2.521472e+03,1.813941e+03
2.522436e+03,1.811838e+03
2.523401e+03,1.815312e+03
2.524365e+03,1.821283e+03
2.525329e+03,1.827667e+03
2.526293e+03,1.827312e+03
2.527258e+03,1.819725e+03
2.528222e+03,1.816540e+03
2.529186e+03,1.816317e+03
2.530150e+03,1.814867e+03
2.531115e+03,1.812635e+03
2.532079e+03,1.804037e+03
2.533043e+03,1.799604e+03
2.534007e+03,1.809955e+03
2.534971e+03,1.822743e+03
2.535936e+03,1.829527e+03
2.536900e+03,1.825830e+03
2.537864e+03,1.808597e+03
2.538828e+03,1.790561e+03
2.539792e+03,1.771232e+03
2.540757e+03,1.774151e+03
2.541721e+03,1.800303e+03
2.542685e+03,1.802785e+03
2.543649e+03,1.781496e+03
2.544614e+03,1.783592e+03
2.545578e+03,1.799983e+03
2.546542e+03,1.800687e+03
2.547506e+03,1.791340e+03
2.548471e+03,1.780612e+03
2.549435e+03,1.773086e+03
2.550399e+03,1.774115e+03
2.551363e+03,1.777618e+03
2.552328e+03,1.782152e+03
2.553292e+03,1.780946e+03
2.554256e+03,1.769225e+03
2.555220e+03,1.764305e+03
2.556185e+03,1.768634e+03
2.557149e+03,1.772544e+03
2.558113e+03,1.773866e+03
2.559077e+03,1.772271e+03
2.560042e+03,1.768352e+03
2.561006e+03,1.770064e+03
2.561970e+03,1.775227e+03
2.562934e+03,1.772275e+03
2.563898e+03,1.765654e+03
2.564863e+03,1.757289e+03
2.565827e+03,1.751484e+03
2.566791e+03,1.759908e+03
2.567755e+03,1.764616e+03
2.568719e+03,1.759096e+03
2.569684e+03,1.750670e+03
2.570648e+03,1.741823e+03
2.571612e+03,1.734409e+03
2.572576e+03,1.731070e+03
2.573541e+03,1.741033e+03
2.574505e+03,1.757563e+03
2.575469e+03,1.746754e+03
2.576433e+03,1.727514e+03
2.577398e+03,1.732533e+03
2.578362e+03,1.745539e+03
2.579326e+03,1.745342e+03
2.580290e+03,1.744477e+03
2.581255e+03,1.747833e+03
2.582219e+03,1.749836e+03
2.583183e+03,1.749305e+03
2.584147e+03,1.738332e+03
2.585112e+03,1.720631e+03
2.586076e+03,1.718668e+03
2.587040e+03,1.735075e+03
2.588004e+03,1.738862e+03
2.588969e+03,1.732397e+03
2.589933e+03,1.724607e+03
2.590897e+03,1.716686e+03
2.591861e+03,1.707650e+03
2.592825e+03,1.701497e+03
2.593790e+03,1.698805e+03
2.594754e+03,1.703002e+03
2.595718e+03,1.722299e+03
2.596682e+03,1.728123e+03
2.597646e+03,1.713005e+03
2.598611e+03,1.703736e+03
2.599575e+03,1.704493e+03
2.600539e+03,1.703045e+03
2.601503e+03,1.699829e+03
2.602468e+03,1.706795e+03
2.603432e+03,1.714300e+03
2.604396e+03,1.699386e+03
2.605360e+03,1.682558e+03
2.606325e+03,1.679358e+03
2.607289e+03,1.682753e+03
2.608253e+03,1.690476e+03
2.609217e+03,1.696635e+03
2.610182e+03,1.695743e+03
2.611146e+03,1.692772e+03
2.612110e+03,1.688752e+03
2.613074e+03,1.681417e+03
2.614039e+03,1.673071e+03
2.615003e+03,1.673696e+03
2.615967e+03,1.678376e+03
2.616931e+03,1.684516e+03
2.617896e+03,1.690313e+03
2.618860e+03,1.693692e+03
2.619824e+03,1.692774e+03
2.620788e+03,1.686236e+03
2.621752e+03,1.680624e+03
2.622717e+03,1.682179e+03
2.623681e+03,1.678729e+03
2.624645e+03,1.671013e+03
2.625609e+03,1.676875e+03
2.626573e+03,1.692963e+03
2.627538e+03,1.688153e+03
2.628502e+03,1.674061e+03
2.629466e+03,1.666982e+03
2.630430e+03,1.662853e+03
2.631395e+03,1.651841e+03
2.632359e+03,1.651463e+03
2.633323e+03,1.673598e+03
2.634287e+03,1.684692e+03
2.635252e+03,1.678645e+03
2.636216e+03,1.672984e+03
2.637180e+03,1.669950e+03
2.638144e+03,1.669732e+03
2.639109e+03,1.670385e+03
2.640073e+03,1.670843e+03
2.641037e+03,1.670717e+03
2.642001e+03,1.661900e+03
2.642966e+03,1.655179e+03
2.643930e+03,1.656682e+03
2.644894e+03,1.659427e+03
2.645858e+03,1.658334e+03
2.646823e+03,1.661327e+03
2.647787e+03,1.666807e+03
2.648751e+03,1.667455e+03
2.649715e+03,1.662133e+03
2.650679e+03,1.654221e+03
2.651644e+03,1.642658e+03
2.652608e+03,1.621995e+03
2.653572e+03,1.606197e+03
2.654536e+03,1.626129e+03
2.655500e+03,1.644279e+03
2.656465e+03,1.646614e+03
2.657429e+03,1.645637e+03
2.658393e+03,1.644338e+03
2.659357e+03,1.646916e+03
2.660322e+03,1.652962e+03
2.661286e+03,1.638851e+03
2.662250e+03,1.614179e+03
2.663214e+03,1.606686e+03
2.664179e+03,1.609754e+03
2.665143e+03,1.620757e+03
2.666107e+03,1.630410e+03
2.667071e+03,1.634663e+03
2.668036e+03,1.634195e+03
2.669000e+03,1.623167e+03
2.669964e+03,1.619871e+03
2.670928e+03,1.622402e+03
2.671893e+03,1.614494e+03
2.672857e+03,1.600364e+03
2.673821e+03,1.604468e+03
2.674785e+03,1.611062e+03
2.675750e+03,1.602335e+03
2.676714e+03,1.594058e+03
2.677678e+03,1.607947e+03
2.678642e+03,1.617454e+03
2.679606e+03,1.617508e+03
2.680571e+03,1.607953e+03
2.681535e+03,1.590206e+03
2.682499e+03,1.587869e+03
2.683463e+03,1.598366e+03
2.684427e+03,1.609547e+03
2.685392e+03,1.617043e+03
2.686356e+03,1.605900e+03
2.687320e+03,1.593196e+03
2.688284e+03,1.590172e+03
2.689249e+03,1.592266e+03
2.690213e+03,1.597085e+03
2.691177e+03,1.592699e+03
2.692141e+03,1.575438e+03
2.693106e+03,1.573312e+03
2.694070e+03,1.581352e+03
2.695034e+03,1.586973e+03
2.695998e+03,1.590860e+03
2.696963e+03,1.597096e+03
2.697927e+03,1.601262e+03
2.698891e+03,1.600083e+03
2.699855e+03,1.593341e+03
2.700820e+03,1.580790e+03
2.701784e+03,1.571943e+03
2.702748e+03,1.567148e+03
2.703712e+03,1.567181e+03
2.704677e+03,1.569633e+03
2.705641e+03,1.572655e+03
2.706605e+03,1.572982e+03
2.707569e+03,1.555835e+03
2.708533e+03,1.548210e+03
2.709498e+03,1.562436e+03
2.710462e+03,1.574609e+03
2.711426e+03,1.576879e+03
2.712390e+03,1.567488e+03
2.713354e+03,1.551656e+03
2.714319e+03,1.556053e+03
2.715283e+03,1.569821e+03
2.716247e+03,1.565599e+03
2.717211e+03,1.557289e+03
2.718176e+03,1.553793e+03
2.719140e+03,1.559774e+03
2.720104e+03,1.584974e+03
2.721068e+03,1.592422e+03
2.722033e+03,1.578549e+03
2.722997e+03,1.566625e+03
2.723961e+03,1.558359e+03
2.724925e+03,1.556104e+03
2.725890e+03,1.556266e+03
2.726854e+03,1.547699e+03
2.727818e+03,1.549615e+03
2.728782e+03,1.572213e+03
2.729747e+03,1.588098e+03
2.730711e+03,1.583289e+03
2.731675e+03,1.561244e+03
2.732639e+03,1.529755e+03
2.733604e+03,1.523472e+03
2.734568e+03,1.532968e+03
2.735532e+03,1.536444e+03
2.736496e+03,1.534832e+03
2.737460e+03,1.529654e+03
2.738425e+03,1.526463e+03
2.739389e+03,1.529099e+03
2.740353e+03,1.525854e+03
2.741317e+03,1.517141e+03
2.742281e+03,1.525477e+03
2.743246e+03,1.543520e+03
2.744210e+03,1.538768e+03
2.745174e+03,1.523810e+03
2.746138e+03,1.516220e+03
2.747103e+03,1.512983e+03
2.748067e+03,1.512933e+03
2.749031e+03,1.515246e+03
2.749995e+03,1.519073e+03
2.750960e+03,1.526927e+03
2.751924e+03,1.534299e+03
2.752888e+03,1.523547e+03
2.753852e+03,1.505269e+03
2.754817e+03,1.504075e+03
2.755781e+03,1.508704e+03
2.756745e+03,1.513512e+03
2.757709e+03,1.514420e+03
2.758674e+03,1.508839e+03
2.759638e+03,1.507479e+03
2.760602e+03,1.512505e+03
2.761566e+03,1.516410e+03
2.762531e+03,1.520518e+03
2.763495e+03,1.524359e+03
2.764459e+03,1.526449e+03
2.765423e+03,1.526521e+03
2.766387e+03,1.525160e+03
2.767352e+03,1.523552e+03
2.768316e+03,1.515296e+03
2.769280e+03,1.499379e+03
2.770244e+03,1.492782e+03
2.771208e+03,1.493581e+03
2.772173e+03,1.492273e+03
2.773137e+03,1.492872e+03
2.774101e+03,1.507139e+03
2.775065e+03,1.512402e+03
2.776030e+03,1.494576e+03
2.776994e+03,1.487051e+03
2.777958e+03,1.489656e+03
2.778922e+03,1.494297e+03
2.779887e+03,1.498013e+03
2.780851e+03,1.495603e+03
2.781815e+03,1.483733e+03
2.782779e+03,1.460103e+03
2.783744e+03,1.451777e+03
2.784708e+03,1.482027e+03
2.785672e+03,1.493065e+03
2.786636e+03,1.481827e+03
2.787601e+03,1.471559e+03
2.788565e+03,1.466849e+03
2.789529e+03,1.479540e+03
2.790493e+03,1.491771e+03
2.791458e+03,1.479826e+03
2.792422e+03,1.479483e+03
2.793386e+03,1.499105e+03
2.794350e+03,1.495361e+03
2.795314e+03,1.457079e+03
2.796279e+03,1.441178e+03
2.797243e+03,1.444110e+03
2.798207e+03,1.463799e+03
2.799171e+03,1.483452e+03
2.800135e+03,1.478190e+03
2.801100e+03,1.471474e+03
2.802064e+03,1.469161e+03
2.803028e+03,1.466017e+03
2.803992e+03,1.461838e+03
2.804957e+03,1.463013e+03
2.805921e+03,1.467100e+03
2.806885e+03,1.467661e+03
2.807849e+03,1.467643e+03
2.808814e+03,1.468973e+03
2.809778e+03,1.467375e+03
2.810742e+03,1.461509e+03
2.811706e+03,1.448739e+03
2.812671e+03,1.433271e+03
2.813635e+03,1.431976e+03
2.814599e+03,1.440626e+03
2.815563e+03,1.462963e+03
2.816528e+03,1.474289e+03
2.817492e+03,1.457810e+03
2.818456e+03,1.441003e+03
2.819420e+03,1.427792e+03
2.820385e+03,1.425862e+03
2.821349e+03,1.433382e+03
2.822313e+03,1.436612e+03
2.823277e+03,1.442566e+03
2.824241e+03,1.456249e+03
2.825206e+03,1.467098e+03
2.826170e+03,1.471543e+03
2.827134e+03,1.460147e+03
2.828098e+03,1.435335e+03
2.829063e+03,1.435008e+03
2.830027e+03,1.446184e+03
2.830991e+03,1.441891e+03
2.831955e+03,1.436021e+03
2.832919e+03,1.433589e+03
2.833884e+03,1.436985e+03
2.834848e+03,1.444886e+03
2.835812e+03,1.448140e+03
2.836776e+03,1.446769e+03
2.837741e+03,1.445738e+03
2.838705e+03,1.442453e+03
2.839669e+03,1.433397e+03
2.840633e+03,1.423776e+03
2.841598e+03,1.415988e+03
2.842562e+03,1.415855e+03
2.843526e+03,1.427041e+03
2.844490e+03,1.436915e+03
2.845455e+03,1.439328e+03
2.846419e+03,1.422047e+03
2.847383e+03,1.405132e+03
2.848347e+03,1.415874e+03
2.849312e+03,1.418031e+03
2.850276e+03,1.405767e+03
2.851240e+03,1.412537e+03
2.852204e+03,1.433450e+03
2.853168e+03,1.440427e+03
2.854133e+03,1.436893e+03
2.855097e+03,1.422396e+03
2.856061e+03,1.417401e+03
2.857025e+03,1.425458e+03
2.857990e+03,1.423494e+03
2.858954e+03,1.404823e+03
2.859918e+03,1.416135e+03
2.860882e+03,1.436052e+03
2.861846e+03,1.428229e+03
2.862811e+03,1.413708e+03
2.863775e+03,1.409483e+03
2.864739e+03,1.416595e+03
2.865703e+03,1.436892e+03
2.866668e+03,1.446854e+03
2.867632e+03,1.446060e+03
2.868596e+03,1.432531e+03
2.869560e+03,1.416116e+03
2.870525e+03,1.408608e+03
2.871489e+03,1.405644e+03
2.872453e+03,1.405110e+03
2.873417e+03,1.407691e+03
2.874382e+03,1.411973e+03
2.875346e+03,1.421186e+03
2.876310e+03,1.428997e+03
2.877274e+03,1.417938e+03
2.878239e+03,1.412803e+03
2.879203e+03,1.421729e+03
2.880167e+03,1.422284e+03
2.881131e+03,1.408895e+03
2.882095e+03,1.416422e+03
2.883060e+03,1.429830e+03
2.884024e+03,1.423548e+03
2.884988e+03,1.410427e+03
2.885952e+03,1.399197e+03
2.886917e+03,1.396036e+03
2.887881e+03,1.404961e+03
2.888845e+03,1.414516e+03
2.889809e+03,1.421822e+03
2.890773e+03,1.418436e+03
2.891738e+03,1.410989e+03
2.892702e+03,1.409021e+03
2.893666e+03,1.406554e+03
2.894630e+03,1.402672e+03
2.895595e+03,1.402981e+03
2.896559e+03,1.405922e+03
2.897523e+03,1.405567e+03
2.898487e+03,1.405132e+03
2.899452e+03,1.407429e+03
2.900416e+03,1.413162e+03
2.901380e+03,1.421123e+03
2.902344e+03,1.419352e+03
2.903309e+03,1.407618e+03
2.904273e+03,1.402055e+03
2.905237e+03,1.395472e+03
2.906201e+03,1.376463e+03
2.907166e+03,1.369985e+03
2.908130e+03,1.386462e+03
2.909094e+03,1.396922e+03
2.910058e+03,1.394786e+03
2.911022e+03,1.377718e+03
2.911987e+03,1.360128e+03
2.912951e+03,1.354559e+03
2.913915e+03,1.362390e+03
2.914879e+03,1.391914e+03
2.915844e+03,1.404947e+03
2.916808e+03,1.397555e+03
2.917772e+03,1.369704e+03
2.918736e+03,1.346709e+03
2.919700e+03,1.371639e+03
2.920665e+03,1.396755e+03
2.921629e+03,1.388167e+03
2.922593e+03,1.374037e+03
2.923557e+03,1.361638e+03
2.924522e+03,1.375701e+03
2.925486e+03,1.397454e+03
2.926450e+03,1.378604e+03
2.927414e+03,1.357980e+03
2.928379e+03,1.351224e+03
2.929343e+03,1.357969e+03
2.930307e+03,1.371823e+03
2.931271e+03,1.368685e+03
2.932236e+03,1.356656e+03
2.933200e+03,1.344236e+03
2.934164e+03,1.334224e+03
2.935128e+03,1.325775e+03
2.936093e+03,1.327112e+03
2.937057e+03,1.337864e+03
2.938021e+03,1.354163e+03
2.938985e+03,1.370415e+03
2.939949e+03,1.377841e+03
2.940914e+03,1.376173e+03
2.941878e+03,1.367587e+03
2.942842e+03,1.347412e+03
2.943806e+03,1.316881e+03
2.944771e+03,1.333127e+03
2.945735e+03,1.362424e+03
2.946699e+03,1.351353e+03
2.947663e+03,1.350742e+03
2.948627e+03,1.374768e+03
2.949592e+03,1.380618e+03
2.950556e+03,1.363673e+03
2.951520e+03,1.355056e+03
2.952484e+03,1.347717e+03
2.953449e+03,1.332356e+03
2.954413e+03,1.332372e+03
2.955377e+03,1.358295e+03
2.956341e+03,1.381627e+03
2.957306e+03,1.395129e+03
2.958270e+03,1.393181e+03
2.959234e+03,1.375038e+03
2.960198e+03,1.343814e+03
2.961163e+03,1.323354e+03
2.962127e+03,1.321544e+03
2.963091e+03,1.330628e+03
2.964055e+03,1.340172e+03
2.965020e+03,1.324426e+03
2.965984e+03,1.307989e+03
2.966948e+03,1.306317e+03
2.967912e+03,1.312816e+03
2.968876e+03,1.327650e+03
2.969841e+03,1.339911e+03
2.970805e+03,1.344218e+03
2.971769e+03,1.333077e+03
2.972733e+03,1.318802e+03
2.973698e+03,1.308649e+03
2.974662e+03,1.315750e+03
2.975626e+03,1.344712e+03
2.976590e+03,1.343789e+03
2.977554e+03,1.334663e+03
2.978519e+03,1.348192e+03
2.979483e+03,1.353643e+03
2.980447e+03,1.329208e+03
2.981411e+03,1.306026e+03
2.982376e+03,1.290516e+03
2.983340e+03,1.285383e+03
2.984304e+03,1.282381e+03
2.985268e+03,1.271089e+03
2.986233e+03,1.275349e+03
2.987197e+03,1.319017e+03
2.988161e+03,1.314220e+03
2.989125e+03,1.279714e+03
2.990090e+03,1.286115e+03
2.991054e+03,1.311806e+03
2.992018e+03,1.341695e+03
2.992982e+03,1.344804e+03
2.993947e+03,1.303543e+03
2.994911e+03,1.294218e+03
2.995875e+03,1.304694e+03
2.996839e+03,1.310323e+03
2.997803e+03,1.308969e+03
2.998768e+03,1.301370e+03
2.999732e+03,1.289104e+03
3.000696e+03,1.274402e+03
3.001660e+03,1.256537e+03
3.002625e+03,1.252853e+03
3.003589e+03,1.283071e+03
3.004553e+03,1.296980e+03
3.005517e+03,1.270871e+03
3.006481e+03,1.261665e+03
3.007446e+03,1.269551e+03
3.008410e+03,1.282034e+03
3.009374e+03,1.285690e+03
3.010338e+03,1.273889e+03
3.011303e+03,1.276974e+03
3.012267e+03,1.302217e+03
3.013231e+03,1.298157e+03
3.014195e+03,1.283625e+03
3.015160e+03,1.300711e+03
3.016124e+03,1.307287e+03
3.017088e+03,1.289365e+03
3.018052e+03,1.282722e+03
3.019017e+03,1.290128e+03
3.019981e+03,1.293318e+03
3.020945e+03,1.290733e+03
3.021909e+03,1.278833e+03
3.022874e+03,1.276117e+03
3.023838e+03,1.284118e+03
3.024802e+03,1.299255e+03
3.025766e+03,1.311432e+03
3.026730e+03,1.285639e+03
3.027695e+03,1.272073e+03
3.028659e+03,1.293633e+03
3.029623e+03,1.290492e+03
3.030587e+03,1.263086e+03
3.031552e+03,1.242068e+03
3.032516e+03,1.234448e+03
3.033480e+03,1.266154e+03
3.034444e+03,1.277006e+03
3.035408e+03,1.260036e+03
3.036373e+03,1.248311e+03
3.037337e+03,1.248001e+03
3.038301e+03,1.290685e+03
3.039265e+03,1.317173e+03
3.040230e+03,1.274764e+03
3.041194e+03,1.258237e+03
3.042158e+03,1.265380e+03
3.043122e+03,1.266227e+03
3.044087e+03,1.263775e+03
3.045051e+03,1.261347e+03
3.046015e+03,1.262255e+03
3.046979e+03,1.268948e+03
3.047944e+03,1.257582e+03
3.048908e+03,1.243836e+03
3.049872e+03,1.250946e+03
3.050836e+03,1.261187e+03
3.051801e+03,1.262430e+03
3.052765e+03,1.263127e+03
3.053729e+03,1.262034e+03
3.054693e+03,1.259408e+03
3.055657e+03,1.252484e+03
3.056622e+03,1.236760e+03
3.057586e+03,1.239482e+03
3.058550e+03,1.268636e+03
3.059514e+03,1.281264e+03
3.060479e+03,1.283948e+03
3.061443e+03,1.296068e+03
3.062407e+03,1.277072e+03
3.063371e+03,1.222804e+03
3.064335e+03,1.199814e+03
3.065300e+03,1.209161e+03
3.066264e+03,1.236356e+03
3.067228e+03,1.260352e+03
3.068192e+03,1.266112e+03
3.069157e+03,1.265688e+03
3.070121e+03,1.262785e+03
3.071085e+03,1.265564e+03
3.072049e+03,1.263223e+03
3.073014e+03,1.223443e+03
3.073978e+03,1.213835e+03
3.074942e+03,1.247207e+03
3.075906e+03,1.248665e+03
3.076871e+03,1.228665e+03
3.077835e+03,1.205631e+03
3.078799e+03,1.191354e+03
3.079763e+03,1.192672e+03
3.080728e+03,1.218113e+03
3.081692e+03,1.251981e+03
3.082656e+03,1.233350e+03
3.083620e+03,1.212215e+03
3.084584e+03,1.216911e+03
3.085549e+03,1.242685e+03
3.086513e+03,1.284728e+03
3.087477e+03,1.277886e+03
3.088441e+03,1.253771e+03
3.089406e+03,1.244265e+03
3.090370e+03,1.255417e+03
3.091334e+03,1.279960e+03
3.092298e+03,1.257296e+03
3.093262e+03,1.221341e+03
3.094227e+03,1.262207e+03
3.095191e+03,1.282004e+03
3.096155e+03,1.244420e+03
3.097119e+03,1.223569e+03
3.098084e+03,1.223713e+03
3.099048e+03,1.242068e+03
3.100012e+03,1.257589e+03
3.100976e+03,1.253442e+03
3.101941e+03,1.251972e+03
3.102905e+03,1.254275e+03
3.103869e+03,1.249439e+03
3.104833e+03,1.246473e+03
3.105798e+03,1.252568e+03
3.106762e+03,1.243235e+03
3.107726e+03,1.217877e+03
3.108690e+03,1.221515e+03
3.109655e+03,1.229807e+03
3.110619e+03,1.202754e+03
3.111583e+03,1.203467e+03
3.112547e+03,1.234617e+03
3.113511e+03,1.242864e+03
3.114476e+03,1.234330e+03
3.115440e+03,1.215973e+03
3.116404e+03,1.220239e+03
3.117368e+03,1.271567e+03
3.118333e+03,1.259446e+03
3.119297e+03,1.226188e+03
3.120261e+03,1.249382e+03
3.121225e+03,1.270045e+03
3.122189e+03,1.253803e+03
3.123154e+03,1.246309e+03
3.124118e+03,1.244555e+03
3.125082e+03,1.214686e+03
3.126046e+03,1.200193e+03
3.127011e+03,1.220023e+03
3.127975e+03,1.226745e+03
3.128939e+03,1.219091e+03
3.129903e+03,1.223922e+03
3.130868e+03,1.229123e+03
3.131832e+03,1.217545e+03
3.132796e+03,1.220436e+03
3.133760e+03,1.233668e+03
3.134725e+03,1.228415e+03
3.135689e+03,1.210064e+03
3.136653e+03,1.181651e+03
3.137617e+03,1.181166e+03
3.138582e+03,1.221137e+03
3.139546e+03,1.264771e+03
3.140510e+03,1.288078e+03
3.141474e+03,1.268898e+03
3.142438e+03,1.239607e+03
3.143403e+03,1.211592e+03
3.144367e+03,1.200807e+03
3.145331e+03,1.196154e+03
3.146295e+03,1.169122e+03
3.147260e+03,1.175375e+03
3.148224e+03,1.227188e+03
3.149188e+03,1.247805e+03
3.150152e+03,1.242486e+03
3.151116e+03,1.222117e+03
3.152081e+03,1.206701e+03
3.153045e+03,1.201841e+03
3.154009e+03,1.214105e+03
3.154973e+03,1.234172e+03
3.155938e+03,1.242931e+03
3.156902e+03,1.238790e+03
3.157866e+03,1.223213e+03
3.158830e+03,1.230955e+03
3.159795e+03,1.254455e+03
3.160759e+03,1.269294e+03
3.161723e+03,1.266640e+03
3.162687e+03,1.225089e+03
3.163652e+03,1.226020e+03
3.164616e+03,1.250975e+03
3.165580e+03,1.256522e+03
3.166544e+03,1.260335e+03
3.167509e+03,1.271012e+03
3.168473e+03,1.246213e+03
3.169437e+03,1.200272e+03
3.170401e+03,1.184430e+03
3.171365e+03,1.178257e+03
3.172330e+03,1.174314e+03
3.173294e+03,1.195715e+03
3.174258e+03,1.225716e+03
3.175222e+03,1.227313e+03
3.176187e+03,1.231423e+03
3.177151e+03,1.263698e+03
3.178115e+03,1.262828e+03
3.179079e+03,1.234485e+03
3.180043e+03,1.197922e+03
3.181008e+03,1.192662e+03
3.181972e+03,1.228890e+03
3.182936e+03,1.241953e+03
3.183900e+03,1.232675e+03
3.184865e+03,1.218312e+03
3.185829e+03,1.211929e+03
3.186793e+03,1.235396e+03
3.187757e+03,1.242461e+03
3.188722e+03,1.235384e+03
3.189686e+03,1.217863e+03
3.190650e+03,1.222317e+03
3.191614e+03,1.255356e+03
3.192579e+03,1.243184e+03
3.193543e+03,1.207069e+03
3.194507e+03,1.243692e+03
3.195471e+03,1.268261e+03
3.196436e+03,1.242340e+03
3.197400e+03,1.239077e+03
3.198364e+03,1.251510e+03
3.199328e+03,1.266156e+03
3.200292e+03,1.250598e+03
3.201257e+03,0.000000e+00
3.202221e+03,0.000000e+00
3.203185e+03,0.000000e+00
3.204149e+03,0.000000e+00
3.205114e+03,0.000000e+00
3.206078e+03,0.000000e+00
3.207042e+03,0.000000e+00
3.208006e+03,0.000000e+00
3.208970e+03,0.000000e+00
3.209935e+03,0.000000e+00
3.210899e+03,0.000000e+00
3.211863e+03,0.000000e+00
3.212827e+03,0.000000e+00
3.213792e+03,0.000000e+00
3.214756e+03,0.000000e+00
3.215720e+03,0.000000e+00
3.216684e+03,0.000000e+00
3.217649e+03,0.000000e+00
3.218613e+03,0.000000e+00
3.219577e+03,0.000000e+00
3.220541e+03,0.000000e+00
3.221506e+03,0.000000e+00
3.222470e+03,0.000000e+00
3.223434e+03,0.000000e+00
3.224398e+03,0.000000e+00
3.225363e+03,0.000000e+00
3.226327e+03,0.000000e+00
3.227291e+03,0.000000e+00
3.228255e+03,0.000000e+00
3.229219e+03,0.000000e+00
3.230184e+03,0.000000e+00
3.231148e+03,0.000000e+00
3.232112e+03,0.000000e+00
3.233076e+03,0.000000e+00
3.234041e+03,0.000000e+00
3.235005e+03,0.000000e+00
3.235969e+03,0.000000e+00
3.236933e+03,0.000000e+00
3.237897e+03,0.000000e+00
3.238862e+03,0.000000e+00
3.239826e+03,0.000000e+00
3.240790e+03,0.000000e+00
3.241754e+03,0.000000e+00
3.242719e+03,0.000000e+00
3.243683e+03,0.000000e+00
3.244647e+03,0.000000e+00
3.245611e+03,0.000000e+00
3.246576e+03,0.000000e+00
3.247540e+03,0.000000e+00
3.248504e+03,0.000000e+00
3.249468e+03,0.000000e+00
3.250433e+03,0.000000e+00
3.251397e+03,0.000000e+00
3.252361e+03,0.000000e+00
3.253325e+03,0.000000e+00
3.254290e+03,0.000000e+00
3.255254e+03,0.000000e+00
3.256218e+03,0.000000e+00
3.257182e+03,0.000000e+00
3.258146e+03,0.000000e+00
3.259111e+03,0.000000e+00
3.260075e+03,0.000000e+00
3.261039e+03,0.000000e+00
3.262003e+03,0.000000e+00
3.262968e+03,0.000000e+00
3.263932e+03,0.000000e+00
3.264896e+03,0.000000e+00
3.265860e+03,0.000000e+00
3.266824e+03,0.000000e+00
3.267789e+03,0.000000e+00
3.268753e+03,0.000000e+00
3.269717e+03,0.000000e+00
3.270681e+03,0.000000e+00
3.271646e+03,0.000000e+00
3.272610e+03,0.000000e+00
3.273574e+03,0.000000e+00
3.274538e+03,0.000000e+00
3.275503e+03,0.000000e+00
3.276467e+03,0.000000e+00
3.277431e+03,0.000000e+00
3.278395e+03,0.000000e+00
3.279360e+03,0.000000e+00
3.280324e+03,0.000000e+00
3.281288e+03,0.000000e+00
3.282252e+03,0.000000e+00
3.283217e+03,0.000000e+00
3.284181e+03,0.000000e+00
3.285145e+03,0.000000e+00
3.286109e+03,0.000000e+00
3.287073e+03,0.000000e+00
3.288038e+03,0.000000e+00
3.289002e+03,0.000000e+00
3.289966e+03,0.000000e+00
3.290930e+03,0.000000e+00
3.291895e+03,0.000000e+00
3.292859e+03,0.000000e+00
3.293823e+03,0.000000e+00
3.294787e+03,0.000000e+00
3.295751e+03,0.000000e+00
3.296716e+03,0.000000e+00
3.297680e+03,0.000000e+00
3.298644e+03,0.000000e+00
3.299608e+03,0.000000e+00
3.300573e+03,0.000000e+00
3.301537e+03,0.000000e+00
3.302501e+03,0.000000e+00
3.303465e+03,0.000000e+00
3.304430e+03,0.000000e+00
3.305394e+03,0.000000e+00
3.306358e+03,0.000000e+00
3.307322e+03,0.000000e+00
3.308287e+03,0.000000e+00
3.309251e+03,0.000000e+00
3.310215e+03,0.000000e+00
3.311179e+03,0.000000e+00
3.312144e+03,0.000000e+00
3.313108e+03,0.000000e+00
3.314072e+03,0.000000e+00
3.315036e+03,0.000000e+00
3.316000e+03,0.000000e+00
3.316965e+03,0.000000e+00
3.317929e+03,0.000000e+00
3.318893e+03,0.000000e+00
3.319857e+03,0.000000e+00
3.320822e+03,0.000000e+00
3.321786e+03,0.000000e+00
3.322750e+03,0.000000e+00
3.323714e+03,0.000000e+00
3.324678e+03,0.000000e+00
3.325643e+03,0.000000e+00
3.326607e+03,0.000000e+00
3.327571e+03,0.000000e+00
3.328535e+03,0.000000e+00
3.329500e+03,0.000000e+00
3.330464e+03,0.000000e+00
3.331428e+03,0.000000e+00
3.332392e+03,0.000000e+00
3.333357e+03,0.000000e+00
3.334321e+03,0.000000e+00
3.335285e+03,0.000000e+00
3.336249e+03,0.000000e+00
3.337214e+03,0.000000e+00
3.338178e+03,0.000000e+00
3.339142e+03,0.000000e+00
3.340106e+03,0.000000e+00
3.341071e+03,0.000000e+00
3.342035e+03,0.000000e+00
3.342999e+03,0.000000e+00
3.343963e+03,0.000000e+00
3.344927e+03,0.000000e+00
3.345892e+03,0.000000e+00
3.346856e+03,0.000000e+00
3.347820e+03,0.000000e+00
3.348784e+03,0.000000e+00
3.349749e+03,0.000000e+00
3.350713e+03,0.000000e+00
3.351677e+03,0.000000e+00
3.352641e+03,0.000000e+00
3.353605e+03,0.000000e+00
3.354570e+03,0.000000e+00
3.355534e+03,0.000000e+00
3.356498e+03,0.000000e+00
3.357462e+03,0.000000e+00
3.358427e+03,0.000000e+00
3.359391e+03,0.000000e+00
3.360355e+03,0.000000e+00
3.361319e+03,0.000000e+00
3.362284e+03,0.000000e+00
3.363248e+03,0.000000e+00
3.364212e+03,0.000000e+00
3.365176e+03,0.000000e+00
3.366141e+03,0.000000e+00
3.367105e+03,0.000000e+00
3.368069e+03,0.000000e+00
3.369033e+03,0.000000e+00
3.369998e+03,0.000000e+00
3.370962e+03,0.000000e+00
3.371926e+03,0.000000e+00
3.372890e+03,0.000000e+00
3.373854e+03,0.000000e+00
3.374819e+03,0.000000e+00
3.375783e+03,0.000000e+00
3.376747e+03,0.000000e+00
3.377711e+03,0.000000e+00
3.378676e+03,0.000000e+00
3.379640e+03,0.000000e+00
3.380604e+03,0.000000e+00
3.381568e+03,0.000000e+00
3.382532e+03,0.000000e+00
3.383497e+03,0.000000e+00
3.384461e+03,0.000000e+00
3.385425e+03,0.000000e+00
3.386389e+03,0.000000e+00
3.387354e+03,0.000000e+00
3.388318e+03,0.000000e+00
3.389282e+03,0.000000e+00
3.390246e+03,0.000000e+00
3.391211e+03,0.000000e+00
3.392175e+03,0.000000e+00
3.393139e+03,0.000000e+00
3.394103e+03,0.000000e+00
3.395068e+03,0.000000e+00
3.396032e+03,0.000000e+00
3.396996e+03,0.000000e+00
3.397960e+03,0.000000e+00
3.398925e+03,0.000000e+00
3.399889e+03,0.000000e+00
3.400853e+03,0.000000e+00
3.401817e+03,0.000000e+00
3.402781e+03,0.000000e+00
3.403746e+03,0.000000e+00
3.404710e+03,0.000000e+00
3.405674e+03,0.000000e+00
3.406638e+03,0.000000e+00
3.407603e+03,0.000000e+00
3.408567e+03,0.000000e+00
3.409531e+03,0.000000e+00
3.410495e+03,0.000000e+00
3.411459e+03,0.000000e+00
3.412424e+03,0.000000e+00
3.413388e+03,0.000000e+00
3.414352e+03,0.000000e+00
3.415316e+03,0.000000e+00
3.416281e+03,0.000000e+00
3.417245e+03,0.000000e+00
3.418209e+03,0.000000e+00
3.419173e+03,0.000000e+00
3.420138e+03,0.000000e+00
3.421102e+03,0.000000e+00
3.422066e+03,0.000000e+00
3.423030e+03,0.000000e+00
3.423995e+03,0.000000e+00
3.424959e+03,0.000000e+00
3.425923e+03,0.000000e+00
3.426887e+03,0.000000e+00
3.427852e+03,0.000000e+00
3.428816e+03,0.000000e+00
3.429780e+03,0.000000e+00
3.430744e+03,0.000000e+00
3.431708e+03,0.000000e+00
3.432673e+03,0.000000e+00
3.433637e+03,0.000000e+00
3.434601e+03,0.000000e+00
3.435565e+03,0.000000e+00
3.436530e+03,0.000000e+00
3.437494e+03,0.000000e+00
3.438458e+03,0.000000e+00
3.439422e+03,0.000000e+00
3.440386e+03,0.000000e+00
3.441351e+03,0.000000e+00
3.442315e+03,0.000000e+00
3.443279e+03,0.000000e+00
3.444243e+03,0.000000e+00
3.445208e+03,0.000000e+00
3.446172e+03,0.000000e+00
3.447136e+03,0.000000e+00
3.448100e+03,0.000000e+00
3.449065e+03,0.000000e+00
3.450029e+03,0.000000e+00
3.450993e+03,0.000000e+00
3.451957e+03,0.000000e+00
3.452922e+03,0.000000e+00
3.453886e+03,0.000000e+00
3.454850e+03,0.000000e+00
3.455814e+03,0.000000e+00
3.456779e+03,0.000000e+00
3.457743e+03,0.000000e+00
3.458707e+03,0.000000e+00
3.459671e+03,0.000000e+00
3.460635e+03,0.000000e+00
3.461600e+03,0.000000e+00
3.462564e+03,0.000000e+00
3.463528e+03,0.000000e+00
3.464492e+03,0.000000e+00
3.465457e+03,0.000000e+00
3.466421e+03,0.000000e+00
3.467385e+03,0.000000e+00
3.468349e+03,0.000000e+00
3.469313e+03,0.000000e+00
3.470278e+03,0.000000e+00
3.471242e+03,0.000000e+00
3.472206e+03,0.000000e+00
3.473170e+03,0.000000e+00
3.474135e+03,0.000000e+00
3.475099e+03,0.000000e+00
3.476063e+03,0.000000e+00
3.477027e+03,0.000000e+00
3.477992e+03,0.000000e+00
3.478956e+03,0.000000e+00
3.479920e+03,0.000000e+00
3.480884e+03,0.000000e+00
3.481849e+03,0.000000e+00
3.482813e+03,0.000000e+00
3.483777e+03,0.000000e+00
3.484741e+03,0.000000e+00
3.485706e+03,0.000000e+00
3.486670e+03,0.000000e+00
3.487634e+03,0.000000e+00
3.488598e+03,0.000000e+00
3.489563e+03,0.000000e+00
3.490527e+03,0.000000e+00
3.491491e+03,0.000000e+00
3.492455e+03,0.000000e+00
3.493419e+03,0.000000e+00
3.494384e+03,0.000000e+00
3.495348e+03,0.000000e+00
3.496312e+03,0.000000e+00
3.497276e+03,0.000000e+00
3.498240e+03,0.000000e+00
3.499205e+03,0.000000e+00
3.500169e+03,0.000000e+00
