9.931763e+01,0.000000e+00
1.002819e+02,0.000000e+00
1.012461e+02,0.000000e+00
1.022103e+02,0.000000e+00
1.031746e+02,0.000000e+00
1.041388e+02,0.000000e+00
1.051030e+02,0.000000e+00
1.060673e+02,0.000000e+00
1.070315e+02,0.000000e+00
1.079957e+02,0.000000e+00
1.089600e+02,0.000000e+00
1.099242e+02,0.000000e+00
1.108884e+02,0.000000e+00
1.118527e+02,0.000000e+00
1.128169e+02,0.000000e+00
1.137811e+02,0.000000e+00
1.147454e+02,0.000000e+00
1.157096e+02,0.000000e+00
1.166738e+02,0.000000e+00
1.176381e+02,0.000000e+00
1.186023e+02,0.000000e+00
1.195665e+02,0.000000e+00
1.205308e+02,0.000000e+00
1.214950e+02,0.000000e+00
1.224592e+02,0.000000e+00
1.234235e+02,0.000000e+00
1.243877e+02,0.000000e+00
1.253519e+02,0.000000e+00
1.263162e+02,0.000000e+00
1.272804e+02,0.000000e+00
1.282446e+02,0.000000e+00
1.292089e+02,0.000000e+00
1.301731e+02,0.000000e+00
1.311373e+02,0.000000e+00
1.321016e+02,0.000000e+00
1.330658e+02,0.000000e+00
1.340300e+02,0.000000e+00
1.349943e+02,0.000000e+00
1.359585e+02,0.000000e+00
1.369227e+02,0.000000e+00
1.378870e+02,0.000000e+00
1.388512e+02,0.000000e+00
1.398154e+02,0.000000e+00
1.407797e+02,0.000000e+00
1.417439e+02,0.000000e+00
1.427081e+02,0.000000e+00
1.436724e+02,0.000000e+00
1.446366e+02,0.000000e+00
1.456008e+02,0.000000e+00
1.465651e+02,0.000000e+00
1.475293e+02,0.000000e+00
1.484935e+02,0.000000e+00
1.494578e+02,0.000000e+00
1.504220e+02,0.000000e+00
1.513862e+02,0.000000e+00
1.523505e+02,0.000000e+00
1.533147e+02,0.000000e+00
1.542789e+02,0.000000e+00
1.552432e+02,0.000000e+00
1.562074e+02,0.000000e+00
1.571716e+02,0.000000e+00
1.581359e+02,0.000000e+00
1.591001e+02,0.000000e+00
1.600643e+02,0.000000e+00
1.610286e+02,0.000000e+00
1.619928e+02,0.000000e+00
1.629570e+02,0.000000e+00
1.639213e+02,0.000000e+00
1.648855e+02,0.000000e+00
1.658497e+02,0.000000e+00
1.668140e+02,0.000000e+00
1.677782e+02,0.000000e+00
1.687424e+02,0.000000e+00
1.697067e+02,0.000000e+00
1.706709e+02,0.000000e+00
1.716351e+02,0.000000e+00
1.725994e+02,0.000000e+00
1.735636e+02,0.000000e+00
1.745278e+02,0.000000e+00
1.754921e+02,0.000000e+00
1.764563e+02,0.000000e+00
1.774205e+02,0.000000e+00
1.783848e+02,0.000000e+00
1.793490e+02,0.000000e+00
1.803132e+02,0.000000e+00
1.812775e+02,0.000000e+00
1.822417e+02,0.000000e+00
1.832059e+02,0.000000e+00
1.841702e+02,0.000000e+00
1.851344e+02,0.000000e+00
1.860986e+02,0.000000e+00
1.870629e+02,0.000000e+00
1.880271e+02,0.000000e+00
1.889913e+02,0.000000e+00
1.899556e+02,0.000000e+00
1.909198e+02,0.000000e+00
1.918840e+02,0.000000e+00
1.928483e+02,0.000000e+00
1.938125e+02,0.000000e+00
1.947767e+02,0.000000e+00
1.957410e+02,0.000000e+00
1.967052e+02,0.000000e+00
1.976694e+02,0.000000e+00
1.986337e+02,0.000000e+00
1.995979e+02,7.293882e+03
2.005621e+02,7.295442e+03
2.015264e+02,7.299249e+03
2.024906e+02,7.306164e+03
2.034548e+02,7.314627e+03
2.044191e+02,7.325212e+03
2.053833e+02,7.335376e+03
2.063475e+02,7.340948e+03
2.073118e+02,7.336404e+03
2.082760e+02,7.316970e+03
2.092402e+02,7.302340e+03
2.102045e+02,7.299392e+03
2.111687e+02,7.303432e+03
2.121329e+02,7.310428e+03
2.130972e+02,7.317297e+03
2.140614e+02,7.323499e+03
2.150256e+02,7.331599e+03
2.159899e+02,7.345767e+03
2.169541e+02,7.357290e+03
2.179183e+02,7.362189e+03
2.188826e+02,7.361445e+03
2.198468e+02,7.361423e+03
2.208110e+02,7.369417e+03
2.217753e+02,7.384047e+03
2.227395e+02,7.388534e+03
2.237037e+02,7.376050e+03
2.246680e+02,7.358988e+03
2.256322e+02,7.347314e+03
2.265964e+02,7.346752e+03
2.275607e+02,7.352165e+03
2.285249e+02,7.357161e+03
2.294892e+02,7.361356e+03
2.304534e+02,7.368010e+03
2.314176e+02,7.376937e+03
2.323819e+02,7.386311e+03
2.333461e+02,7.394432e+03
2.343103e+02,7.401986e+03
2.352746e+02,7.409656e+03
2.362388e+02,7.417042e+03
2.372030e+02,7.422567e+03
2.381673e+02,7.423706e+03
2.391315e+02,7.420900e+03
2.400957e+02,7.418016e+03
2.410600e+02,7.414006e+03
2.420242e+02,7.407895e+03
2.429884e+02,7.402498e+03
2.439527e+02,7.402922e+03
2.449169e+02,7.411494e+03
2.458811e+02,7.428272e+03
2.468454e+02,7.437085e+03
2.478096e+02,7.428510e+03
2.487738e+02,7.418828e+03
2.497381e+02,7.420735e+03
2.507023e+02,7.436484e+03
2.516665e+02,7.458189e+03
2.526308e+02,7.472582e+03
2.535950e+02,7.466132e+03
2.545592e+02,7.461940e+03
2.555235e+02,7.466261e+03
2.564877e+02,7.473958e+03
2.574519e+02,7.479174e+03
2.584161e+02,7.479155e+03
2.593804e+02,7.475672e+03
2.603446e+02,7.475773e+03
2.613088e+02,7.477739e+03
2.622731e+02,7.480852e+03
2.632373e+02,7.484183e+03
2.642015e+02,7.486411e+03
2.651658e+02,7.488473e+03
2.661300e+02,7.495639e+03
2.670942e+02,7.512419e+03
2.680585e+02,7.523123e+03
2.690227e+02,7.519573e+03
2.699869e+02,7.510884e+03
2.709512e+02,7.502475e+03
2.719154e+02,7.498334e+03
2.728796e+02,7.497128e+03
2.738439e+02,7.496325e+03
2.748081e+02,7.497217e+03
2.757723e+02,7.502626e+03
2.767366e+02,7.509278e+03
2.777008e+02,7.513881e+03
2.786650e+02,7.516958e+03
2.796293e+02,7.520835e+03
2.805935e+02,7.526197e+03
2.815577e+02,7.532350e+03
2.825220e+02,7.538576e+03
2.834862e+02,7.543441e+03
2.844504e+02,7.546025e+03
2.854147e+02,7.551550e+03
2.863789e+02,7.551783e+03
2.873431e+02,7.540475e+03
2.883074e+02,7.524302e+03
2.892716e+02,7.515717e+03
2.902358e+02,7.521732e+03
2.912001e+02,7.541475e+03
2.921643e+02,7.550609e+03
2.931285e+02,7.541105e+03
2.940928e+02,7.532767e+03
2.950570e+02,7.534151e+03
2.960212e+02,7.543753e+03
2.969855e+02,7.554465e+03
2.979497e+02,7.559750e+03
2.989139e+02,7.559234e+03
2.998782e+02,7.558420e+03
3.008424e+02,7.559618e+03
3.018066e+02,7.564052e+03
3.027709e+02,7.571118e+03
3.037351e+02,7.580321e+03
3.046993e+02,7.587952e+03
3.056636e+02,7.587349e+03
3.066278e+02,7.575282e+03
3.075920e+02,7.566343e+03
3.085563e+02,7.569434e+03
3.095205e+02,7.581960e+03
3.104847e+02,7.594783e+03
3.114490e+02,7.602150e+03
3.124132e+02,7.604376e+03
3.133774e+02,7.603265e+03
3.143417e+02,7.597362e+03
3.153059e+02,7.588845e+03
3.162701e+02,7.583767e+03
3.172344e+02,7.584943e+03
3.181986e+02,7.588052e+03
3.191628e+02,7.593470e+03
3.201271e+02,7.600509e+03
3.210913e+02,7.606679e+03
3.220555e+02,7.609771e+03
3.230198e+02,7.610296e+03
3.239840e+02,7.615579e+03
3.249482e+02,7.632639e+03
3.259125e+02,7.646303e+03
3.268767e+02,7.651549e+03
3.278409e+02,7.649592e+03
3.288052e+02,7.644183e+03
3.297694e+02,7.637156e+03
3.307336e+02,7.627294e+03
3.316979e+02,7.621533e+03
3.326621e+02,7.626316e+03
3.336263e+02,7.629237e+03
3.345906e+02,7.624063e+03
3.355548e+02,7.611410e+03
3.365190e+02,7.598870e+03
3.374833e+02,7.591763e+03
3.384475e+02,7.589292e+03
3.394117e+02,7.594023e+03
3.403760e+02,7.611115e+03
3.413402e+02,7.632917e+03
3.423044e+02,7.646513e+03
3.432687e+02,7.641353e+03
3.442329e+02,7.631657e+03
3.451971e+02,7.629345e+03
3.461614e+02,7.632778e+03
3.471256e+02,7.634781e+03
3.480898e+02,7.632185e+03
3.490541e+02,7.625597e+03
3.500183e+02,7.620821e+03
3.509825e+02,7.620932e+03
3.519468e+02,7.624731e+03
3.529110e+02,7.629923e+03
3.538752e+02,7.634396e+03
3.548395e+02,7.637241e+03
3.558037e+02,7.638843e+03
3.567680e+02,7.637254e+03
3.577322e+02,7.638387e+03
3.586964e+02,7.648907e+03
3.596607e+02,7.663581e+03
3.606249e+02,7.674344e+03
3.615891e+02,7.673827e+03
3.625534e+02,7.662864e+03
3.635176e+02,7.647179e+03
3.644818e+02,7.625565e+03
3.654461e+02,7.609859e+03
3.664103e+02,7.615877e+03
3.673745e+02,7.642710e+03
3.683388e+02,7.666514e+03
3.693030e+02,7.670166e+03
3.702672e+02,7.663202e+03
3.712315e+02,7.662464e+03
3.721957e+02,7.671288e+03
3.731599e+02,7.682592e+03
3.741242e+02,7.688216e+03
3.750884e+02,7.689642e+03
3.760526e+02,7.691779e+03
3.770169e+02,7.693859e+03
3.779811e+02,7.695222e+03
3.789453e+02,7.695270e+03
3.799096e+02,7.693429e+03
3.808738e+02,7.688549e+03
3.818380e+02,7.677696e+03
3.828023e+02,7.655779e+03
3.837665e+02,7.642047e+03
3.847307e+02,7.643638e+03
3.856950e+02,7.656095e+03
3.866592e+02,7.668656e+03
3.876234e+02,7.673329e+03
3.885877e+02,7.672780e+03
3.895519e+02,7.675892e+03
3.905161e+02,7.683884e+03
3.914804e+02,7.691814e+03
3.924446e+02,7.695186e+03
3.934088e+02,7.695470e+03
3.943731e+02,7.694881e+03
3.953373e+02,7.695044e+03
3.963015e+02,7.693800e+03
3.972658e+02,7.686803e+03
3.982300e+02,7.672776e+03
3.991942e+02,7.657940e+03
4.001585e+02,7.653475e+03
4.011227e+02,7.666937e+03
4.020869e+02,7.676918e+03
4.030512e+02,7.675603e+03
4.040154e+02,7.666692e+03
4.049796e+02,7.658211e+03
4.059439e+02,7.653903e+03
4.069081e+02,7.653378e+03
4.078723e+02,7.656433e+03
4.088366e+02,7.662552e+03
4.098008e+02,7.667457e+03
4.107650e+02,7.672973e+03
4.117293e+02,7.679894e+03
4.126935e+02,7.686096e+03
4.136577e+02,7.692415e+03
4.146220e+02,7.696928e+03
4.155862e+02,7.696215e+03
4.165504e+02,7.689459e+03
4.175147e+02,7.680052e+03
4.184789e+02,7.672904e+03
4.194431e+02,7.668573e+03
4.204074e+02,7.665451e+03
4.213716e+02,7.663385e+03
4.223358e+02,7.662345e+03
4.233001e+02,7.662611e+03
4.242643e+02,7.665080e+03
4.252285e+02,7.669470e+03
4.261928e+02,7.674914e+03
4.271570e+02,7.683967e+03
4.281212e+02,7.690016e+03
4.290855e+02,7.685528e+03
4.300497e+02,7.674142e+03
4.310139e+02,7.665284e+03
4.319782e+02,7.662890e+03
4.329424e+02,7.665853e+03
4.339066e+02,7.674452e+03
4.348709e+02,7.687834e+03
4.358351e+02,7.697826e+03
4.367993e+02,7.695846e+03
4.377636e+02,7.674149e+03
4.387278e+02,7.662134e+03
4.396920e+02,7.669916e+03
4.406563e+02,7.682255e+03
4.416205e+02,7.687747e+03
4.425847e+02,7.683103e+03
4.435490e+02,7.673046e+03
4.445132e+02,7.662596e+03
4.454774e+02,7.651333e+03
4.464417e+02,7.647935e+03
4.474059e+02,7.659556e+03
4.483701e+02,7.675923e+03
4.493344e+02,7.685715e+03
4.502986e+02,7.686420e+03
4.512628e+02,7.684069e+03
4.522271e+02,7.681168e+03
4.531913e+02,7.678019e+03
4.541555e+02,7.676051e+03
4.551198e+02,7.676134e+03
4.560840e+02,7.678654e+03
4.570482e+02,7.677126e+03
4.580125e+02,7.671046e+03
4.589767e+02,7.668135e+03
4.599409e+02,7.669267e+03
4.609052e+02,7.671858e+03
4.618694e+02,7.673068e+03
4.628336e+02,7.672040e+03
4.637979e+02,7.669330e+03
4.647621e+02,7.665438e+03
4.657263e+02,7.662306e+03
4.666906e+02,7.660906e+03
4.676548e+02,7.658431e+03
4.686190e+02,7.652642e+03
4.695833e+02,7.648246e+03
4.705475e+02,7.645786e+03
4.715117e+02,7.644736e+03
4.724760e+02,7.645729e+03
4.734402e+02,7.649663e+03
4.744044e+02,7.655335e+03
4.753687e+02,7.659128e+03
4.763329e+02,7.660436e+03
4.772971e+02,7.661031e+03
4.782614e+02,7.659890e+03
4.792256e+02,7.659229e+03
4.801898e+02,7.661031e+03
4.811541e+02,7.664494e+03
4.821183e+02,7.670167e+03
4.830826e+02,7.680961e+03
4.840468e+02,7.696661e+03
4.850110e+02,7.709683e+03
4.859753e+02,7.716820e+03
4.869395e+02,7.717169e+03
4.879037e+02,7.713578e+03
4.888680e+02,7.705360e+03
4.898322e+02,7.695650e+03
4.907964e+02,7.684867e+03
4.917607e+02,7.674305e+03
4.927249e+02,7.666675e+03
4.936891e+02,7.665529e+03
4.946534e+02,7.671140e+03
4.956176e+02,7.674274e+03
4.965818e+02,7.674005e+03
4.975461e+02,7.672313e+03
4.985103e+02,7.670180e+03
4.994745e+02,7.666265e+03
5.004388e+02,7.659745e+03
5.014030e+02,7.651952e+03
5.023672e+02,7.643632e+03
5.033315e+02,7.633343e+03
5.042957e+02,7.619671e+03
5.052599e+02,7.605484e+03
5.062242e+02,7.599910e+03
5.071884e+02,7.613950e+03
5.081526e+02,7.623167e+03
5.091169e+02,7.623413e+03
5.100811e+02,7.620289e+03
5.110453e+02,7.618549e+03
5.120095e+02,7.621414e+03
5.129738e+02,7.626807e+03
5.139380e+02,7.632166e+03
5.149022e+02,7.637736e+03
5.158665e+02,7.642767e+03
5.168307e+02,7.643912e+03
5.177949e+02,7.637584e+03
5.187592e+02,7.630471e+03
5.197234e+02,7.639300e+03
5.206876e+02,7.643439e+03
5.216519e+02,7.628073e+03
5.226161e+02,7.599562e+03
5.235803e+02,7.576161e+03
5.245446e+02,7.576519e+03
5.255088e+02,7.596431e+03
5.264730e+02,7.605569e+03
5.274373e+02,7.599372e+03
5.284015e+02,7.589209e+03
5.293657e+02,7.583052e+03
5.303300e+02,7.581397e+03
5.312942e+02,7.579865e+03
5.322584e+02,7.582569e+03
5.332227e+02,7.587786e+03
5.341869e+02,7.591634e+03
5.351511e+02,7.592037e+03
5.361154e+02,7.589912e+03
5.370796e+02,7.587413e+03
5.380438e+02,7.585085e+03
5.390081e+02,7.584876e+03
5.399723e+02,7.590702e+03
5.409365e+02,7.598009e+03
5.419008e+02,7.600038e+03
5.428650e+02,7.590942e+03
5.438292e+02,7.581083e+03
5.447935e+02,7.575738e+03
5.457577e+02,7.574072e+03
5.467219e+02,7.575477e+03
5.476862e+02,7.580610e+03
5.486504e+02,7.586723e+03
5.496146e+02,7.586183e+03
5.505789e+02,7.576694e+03
5.515431e+02,7.562869e+03
5.525073e+02,7.543217e+03
5.534716e+02,7.525694e+03
5.544358e+02,7.518016e+03
5.554000e+02,7.522575e+03
5.563643e+02,7.533764e+03
5.573285e+02,7.549848e+03
5.582927e+02,7.568862e+03
5.592570e+02,7.582626e+03
5.602212e+02,7.586042e+03
5.611854e+02,7.578606e+03
5.621497e+02,7.575899e+03
5.631139e+02,7.586144e+03
5.640781e+02,7.589610e+03
5.650424e+02,7.579933e+03
5.660066e+02,7.560516e+03
5.669708e+02,7.541787e+03
5.679351e+02,7.531456e+03
5.688993e+02,7.526606e+03
5.698635e+02,7.521098e+03
5.708278e+02,7.515054e+03
5.717920e+02,7.511866e+03
5.727562e+02,7.512892e+03
5.737205e+02,7.517225e+03
5.746847e+02,7.522567e+03
5.756489e+02,7.530921e+03
5.766132e+02,7.536709e+03
5.775774e+02,7.536493e+03
5.785416e+02,7.530437e+03
5.795059e+02,7.524094e+03
5.804701e+02,7.524065e+03
5.814343e+02,7.527466e+03
5.823986e+02,7.523540e+03
5.833628e+02,7.509005e+03
5.843270e+02,7.493028e+03
5.852913e+02,7.487550e+03
5.862555e+02,7.502883e+03
5.872197e+02,7.513549e+03
5.881840e+02,7.513774e+03
5.891482e+02,7.511354e+03
5.901124e+02,7.514154e+03
5.910767e+02,7.525304e+03
5.920409e+02,7.535964e+03
5.930051e+02,7.534622e+03
5.939694e+02,7.522845e+03
5.949336e+02,7.512786e+03
5.958978e+02,7.508300e+03
5.968621e+02,7.507794e+03
5.978263e+02,7.508122e+03
5.987905e+02,7.516569e+03
5.997548e+02,7.519286e+03
6.007190e+02,7.510044e+03
6.016832e+02,7.497851e+03
6.026475e+02,7.491750e+03
6.036117e+02,7.494633e+03
6.045759e+02,7.501471e+03
6.055402e+02,7.507087e+03
6.065044e+02,7.510561e+03
6.074686e+02,7.513101e+03
6.084329e+02,7.517540e+03
6.093971e+02,7.523204e+03
6.103613e+02,7.523070e+03
6.113256e+02,7.511078e+03
6.122899e+02,7.500369e+03
6.132541e+02,7.493987e+03
6.142183e+02,7.490032e+03
6.151826e+02,7.485657e+03
6.161468e+02,7.480758e+03
6.171110e+02,7.477273e+03
6.180753e+02,7.476318e+03
6.190395e+02,7.477001e+03
6.200037e+02,7.477234e+03
6.209680e+02,7.475302e+03
6.219322e+02,7.472375e+03
6.228964e+02,7.471474e+03
6.238607e+02,7.471266e+03
6.248249e+02,7.473435e+03
6.257891e+02,7.478563e+03
6.267534e+02,7.483439e+03
6.277176e+02,7.483939e+03
6.286818e+02,7.478849e+03
6.296461e+02,7.472391e+03
6.306103e+02,7.468179e+03
6.315745e+02,7.466641e+03
6.325388e+02,7.466702e+03
6.335030e+02,7.466538e+03
6.344672e+02,7.465016e+03
6.354315e+02,7.461718e+03
6.363957e+02,7.450812e+03
6.373599e+02,7.441220e+03
6.383242e+02,7.441886e+03
6.392884e+02,7.452210e+03
6.402526e+02,7.457802e+03
6.412169e+02,7.447950e+03
6.421811e+02,7.434744e+03
6.431453e+02,7.429557e+03
6.441096e+02,7.432660e+03
6.450738e+02,7.438719e+03
6.460380e+02,7.446151e+03
6.470023e+02,7.456737e+03
6.479665e+02,7.460002e+03
6.489307e+02,7.449607e+03
6.498950e+02,7.436476e+03
6.508592e+02,7.428376e+03
6.518234e+02,7.424628e+03
6.527877e+02,7.420184e+03
6.537519e+02,7.414397e+03
6.547161e+02,7.408774e+03
6.556804e+02,7.403998e+03
6.566446e+02,7.400759e+03
6.576088e+02,7.400037e+03
6.585731e+02,7.405649e+03
6.595373e+02,7.415561e+03
6.605015e+02,7.416888e+03
6.614658e+02,7.406852e+03
6.624300e+02,7.392904e+03
6.633942e+02,7.381382e+03
6.643585e+02,7.370294e+03
6.653227e+02,7.366391e+03
6.662869e+02,7.374071e+03
6.672512e+02,7.383197e+03
6.682154e+02,7.387298e+03
6.691796e+02,7.384638e+03
6.701439e+02,7.380806e+03
6.711081e+02,7.379686e+03
6.720723e+02,7.380614e+03
6.730366e+02,7.384314e+03
6.740008e+02,7.392001e+03
6.749650e+02,7.398575e+03
6.759293e+02,7.397844e+03
6.768935e+02,7.388953e+03
6.778577e+02,7.378289e+03
6.788220e+02,7.362331e+03
6.797862e+02,7.351661e+03
6.807504e+02,7.352297e+03
6.817147e+02,7.364883e+03
6.826789e+02,7.374366e+03
6.836431e+02,7.371965e+03
6.846074e+02,7.362255e+03
6.855716e+02,7.350968e+03
6.865358e+02,7.340786e+03
6.875001e+02,7.333306e+03
6.884643e+02,7.331153e+03
6.894285e+02,7.334550e+03
6.903928e+02,7.335003e+03
6.913570e+02,7.328747e+03
6.923212e+02,7.321703e+03
6.932855e+02,7.321877e+03
6.942497e+02,7.338353e+03
6.952139e+02,7.350147e+03
6.961782e+02,7.351757e+03
6.971424e+02,7.350365e+03
6.981066e+02,7.349997e+03
6.990709e+02,7.348714e+03
7.000351e+02,7.342596e+03
7.009993e+02,7.330561e+03
7.019636e+02,7.316953e+03
7.029278e+02,7.306743e+03
7.038920e+02,7.300217e+03
7.048563e+02,7.294867e+03
7.058205e+02,7.289156e+03
7.067847e+02,7.284693e+03
7.077490e+02,7.285122e+03
7.087132e+02,7.300899e+03
7.096774e+02,7.319347e+03
7.106417e+02,7.322918e+03
7.116059e+02,7.305883e+03
7.125701e+02,7.291692e+03
7.135344e+02,7.290128e+03
7.144986e+02,7.294637e+03
7.154628e+02,7.298903e+03
7.164271e+02,7.300794e+03
7.173913e+02,7.299945e+03
7.183555e+02,7.295476e+03
7.193198e+02,7.287633e+03
7.202840e+02,7.278305e+03
7.212482e+02,7.267930e+03
7.222125e+02,7.260554e+03
7.231767e+02,7.259986e+03
7.241409e+02,7.268259e+03
7.251052e+02,7.271658e+03
7.260694e+02,7.264135e+03
7.270336e+02,7.255802e+03
7.279979e+02,7.255923e+03
7.289621e+02,7.265393e+03
7.299263e+02,7.269471e+03
7.308906e+02,7.255250e+03
7.318548e+02,7.234716e+03
7.328190e+02,7.221369e+03
7.337833e+02,7.216768e+03
7.347475e+02,7.215618e+03
7.357117e+02,7.214169e+03
7.366760e+02,7.213910e+03
7.376402e+02,7.218528e+03
7.386044e+02,7.230807e+03
7.395687e+02,7.241718e+03
7.405329e+02,7.241936e+03
7.414971e+02,7.228367e+03
7.424614e+02,7.214979e+03
7.434256e+02,7.201728e+03
7.443898e+02,7.195986e+03
7.453541e+02,7.201583e+03
7.463183e+02,7.213583e+03
7.472825e+02,7.219595e+03
7.482468e+02,7.210823e+03
7.492110e+02,7.196289e+03
7.501752e+02,7.188569e+03
7.511395e+02,7.190189e+03
7.521037e+02,7.194394e+03
7.530679e+02,7.190911e+03
7.540322e+02,7.179971e+03
7.549964e+02,7.179362e+03
7.559606e+02,7.194275e+03
7.569249e+02,7.207204e+03
7.578891e+02,7.204886e+03
7.588533e+02,7.186708e+03
7.598176e+02,7.182277e+03
7.607818e+02,7.203152e+03
7.617460e+02,7.214014e+03
7.627103e+02,7.198666e+03
7.636745e+02,7.167491e+03
7.646387e+02,7.145765e+03
7.656030e+02,7.149373e+03
7.665672e+02,7.161037e+03
7.675314e+02,7.162596e+03
7.684957e+02,7.152818e+03
7.694599e+02,7.142502e+03
7.704241e+02,7.145569e+03
7.713884e+02,7.156693e+03
7.723526e+02,7.148153e+03
7.733168e+02,7.118003e+03
7.742811e+02,7.102451e+03
7.752453e+02,7.118658e+03
7.762095e+02,7.157310e+03
7.771738e+02,7.179381e+03
7.781380e+02,7.167775e+03
7.791022e+02,7.154830e+03
7.800665e+02,7.153479e+03
7.810307e+02,7.157234e+03
7.819949e+02,7.154507e+03
7.829592e+02,7.142474e+03
7.839234e+02,7.128354e+03
7.848876e+02,7.108601e+03
7.858519e+02,7.088134e+03
7.868161e+02,7.077537e+03
7.877803e+02,7.083351e+03
7.887446e+02,7.094002e+03
7.897088e+02,7.092718e+03
7.906730e+02,7.084042e+03
7.916373e+02,7.084620e+03
7.926015e+02,7.097787e+03
7.935657e+02,7.111622e+03
7.945300e+02,7.109736e+03
7.954942e+02,7.087531e+03
7.964584e+02,7.069322e+03
7.974227e+02,7.067214e+03
7.983869e+02,7.076251e+03
7.993511e+02,7.081680e+03
8.003154e+02,7.073943e+03
8.012796e+02,7.067197e+03
8.022438e+02,7.069661e+03
8.032081e+02,7.076340e+03
8.041723e+02,7.082967e+03
8.051365e+02,7.087572e+03
8.061008e+02,7.088795e+03
8.070650e+02,7.083428e+03
8.080292e+02,7.072079e+03
8.089935e+02,7.057645e+03
8.099577e+02,7.042704e+03
8.109219e+02,7.031086e+03
8.118862e+02,7.027809e+03
8.128504e+02,7.032420e+03
8.138146e+02,7.030352e+03
8.147789e+02,7.017068e+03
8.157431e+02,7.004080e+03
8.167073e+02,7.003808e+03
8.176716e+02,7.023629e+03
8.186358e+02,7.035670e+03
8.196000e+02,7.028844e+03
8.205643e+02,7.023540e+03
8.215285e+02,7.026004e+03
8.224927e+02,7.035011e+03
8.234570e+02,7.042968e+03
8.244212e+02,7.051375e+03
8.253854e+02,7.055765e+03
8.263497e+02,7.051040e+03
8.273139e+02,7.036792e+03
8.282781e+02,7.017428e+03
8.292424e+02,6.994002e+03
8.302066e+02,6.973886e+03
8.311708e+02,6.965986e+03
8.321351e+02,6.968848e+03
8.330993e+02,6.976035e+03
8.340635e+02,6.983984e+03
8.350278e+02,6.990805e+03
8.359920e+02,6.992202e+03
8.369562e+02,6.987327e+03
8.379205e+02,6.982910e+03
8.388847e+02,6.981293e+03
8.398489e+02,6.981703e+03
8.408132e+02,6.980818e+03
8.417774e+02,6.974116e+03
8.427416e+02,6.970247e+03
8.437059e+02,6.971968e+03
8.446701e+02,6.976111e+03
8.456343e+02,6.980712e+03
8.465986e+02,6.988617e+03
8.475628e+02,6.988934e+03
8.485270e+02,6.968853e+03
8.494913e+02,6.943995e+03
8.504555e+02,6.933308e+03
8.514197e+02,6.942383e+03
8.523840e+02,6.954110e+03
8.533482e+02,6.951556e+03
8.543124e+02,6.940300e+03
8.552767e+02,6.930726e+03
8.562409e+02,6.924038e+03
8.572051e+02,6.920553e+03
8.581694e+02,6.925631e+03
8.591336e+02,6.938856e+03
8.600978e+02,6.941626e+03
8.610621e+02,6.932377e+03
8.620263e+02,6.923265e+03
8.629905e+02,6.922182e+03
8.639548e+02,6.927385e+03
8.649190e+02,6.924123e+03
8.658832e+02,6.910547e+03
8.668475e+02,6.897668e+03
8.678117e+02,6.887849e+03
8.687759e+02,6.880941e+03
8.697402e+02,6.881818e+03
8.707044e+02,6.895044e+03
8.716686e+02,6.904110e+03
8.726329e+02,6.908843e+03
8.735971e+02,6.909797e+03
8.745613e+02,6.905354e+03
8.755256e+02,6.891287e+03
8.764898e+02,6.880194e+03
8.774540e+02,6.879924e+03
8.784183e+02,6.885847e+03
8.793825e+02,6.891489e+03
8.803467e+02,6.894609e+03
8.813110e+02,6.894917e+03
8.822752e+02,6.893432e+03
8.832394e+02,6.891157e+03
8.842037e+02,6.885130e+03
8.851679e+02,6.872338e+03
8.861321e+02,6.857896e+03
8.870964e+02,6.849769e+03
8.880606e+02,6.847574e+03
8.890248e+02,6.851479e+03
8.899891e+02,6.868142e+03
8.909533e+02,6.883673e+03
8.919175e+02,6.881876e+03
8.928818e+02,6.857141e+03
8.938460e+02,6.839690e+03
8.948102e+02,6.826869e+03
8.957745e+02,6.820783e+03
8.967387e+02,6.828494e+03
8.977029e+02,6.847590e+03
8.986672e+02,6.855530e+03
8.996314e+02,6.849916e+03
9.005956e+02,6.841130e+03
9.015599e+02,6.827032e+03
9.025241e+02,6.810891e+03
9.034883e+02,6.802563e+03
9.044526e+02,6.814410e+03
9.054168e+02,6.823413e+03
9.063810e+02,6.818415e+03
9.073453e+02,6.807571e+03
9.083095e+02,6.799069e+03
9.092737e+02,6.793577e+03
9.102380e+02,6.789290e+03
9.112022e+02,6.786854e+03
9.121664e+02,6.784483e+03
9.131307e+02,6.778900e+03
9.140949e+02,6.771310e+03
9.150591e+02,6.765935e+03
9.160234e+02,6.763632e+03
9.169876e+02,6.760635e+03
9.179518e+02,6.754638e+03
9.189161e+02,6.745021e+03
9.198803e+02,6.736061e+03
9.208445e+02,6.735900e+03
9.218088e+02,6.748549e+03
9.227730e+02,6.755247e+03
9.237372e+02,6.752429e+03
9.247015e+02,6.746259e+03
9.256657e+02,6.739639e+03
9.266299e+02,6.731854e+03
9.275942e+02,6.730352e+03
9.285584e+02,6.740198e+03
9.295226e+02,6.747260e+03
9.304869e+02,6.746696e+03
9.314511e+02,6.741236e+03
9.324153e+02,6.736257e+03
9.333796e+02,6.729828e+03
9.343438e+02,6.726088e+03
9.353080e+02,6.728354e+03
9.362723e+02,6.729899e+03
9.372365e+02,6.723919e+03
9.382007e+02,6.708160e+03
9.391650e+02,6.695424e+03
9.401292e+02,6.691897e+03
9.410934e+02,6.693284e+03
9.420577e+02,6.692953e+03
9.430219e+02,6.688472e+03
9.439861e+02,6.684101e+03
9.449504e+02,6.690468e+03
9.459146e+02,6.701162e+03
9.468788e+02,6.699781e+03
9.478431e+02,6.682060e+03
9.488073e+02,6.660680e+03
9.497715e+02,6.650354e+03
9.507358e+02,6.648322e+03
9.517000e+02,6.648419e+03
9.526642e+02,6.651958e+03
9.536285e+02,6.654222e+03
9.545927e+02,6.650685e+03
9.555569e+02,6.642427e+03
9.565212e+02,6.630821e+03
9.574854e+02,6.617774e+03
9.584496e+02,6.617081e+03
9.594139e+02,6.634220e+03
9.603781e+02,6.658218e+03
9.613423e+02,6.665054e+03
9.623066e+02,6.651568e+03
9.632708e+02,6.637144e+03
9.642350e+02,6.625313e+03
9.651993e+02,6.618196e+03
9.661635e+02,6.617159e+03
9.671277e+02,6.624458e+03
9.680920e+02,6.626580e+03
9.690562e+02,6.621447e+03
9.700204e+02,6.612115e+03
9.709847e+02,6.602084e+03
9.719489e+02,6.592633e+03
9.729131e+02,6.586671e+03
9.738774e+02,6.589315e+03
9.748416e+02,6.593548e+03
9.758058e+02,6.592860e+03
9.767701e+02,6.586740e+03
9.777343e+02,6.583180e+03
9.786985e+02,6.585615e+03
9.796628e+02,6.586578e+03
9.806270e+02,6.584046e+03
9.815912e+02,6.579104e+03
9.825555e+02,6.574277e+03
9.835197e+02,6.576056e+03
9.844839e+02,6.575603e+03
9.854482e+02,6.566405e+03
9.864124e+02,6.555654e+03
9.873766e+02,6.549485e+03
9.883409e+02,6.550097e+03
9.893051e+02,6.554699e+03
9.902693e+02,6.566971e+03
9.912336e+02,6.579776e+03
9.921978e+02,6.579830e+03
9.931620e+02,6.565803e+03
9.941263e+02,6.553139e+03
9.950905e+02,6.556265e+03
9.960547e+02,6.566101e+03
9.970190e+02,6.574204e+03
9.979832e+02,6.578209e+03
9.989474e+02,6.573346e+03
9.999117e+02,6.555136e+03
1.000876e+03,6.534009e+03
1.001840e+03,6.525245e+03
1.002804e+03,6.527754e+03
1.003769e+03,6.532482e+03
1.004733e+03,6.534092e+03
1.005697e+03,6.535727e+03
1.006661e+03,6.548101e+03
1.007626e+03,6.567337e+03
1.008590e+03,6.571320e+03
1.009554e+03,6.554057e+03
1.010518e+03,6.529055e+03
1.011482e+03,6.513333e+03
1.012447e+03,6.505388e+03
1.013411e+03,6.493759e+03
1.014375e+03,6.480920e+03
1.015339e+03,6.469498e+03
1.016304e+03,6.458081e+03
1.017268e+03,6.447234e+03
1.018232e+03,6.445513e+03
1.019196e+03,6.453271e+03
1.020161e+03,6.460751e+03
1.021125e+03,6.466073e+03
1.022089e+03,6.470265e+03
1.023053e+03,6.470208e+03
1.024018e+03,6.462263e+03
1.024982e+03,6.455791e+03
1.025946e+03,6.451335e+03
1.026910e+03,6.446451e+03
1.027875e+03,6.441868e+03
1.028839e+03,6.441054e+03
1.029803e+03,6.441138e+03
1.030767e+03,6.442921e+03
1.031731e+03,6.444789e+03
1.032696e+03,6.444384e+03
1.033660e+03,6.441019e+03
1.034624e+03,6.436143e+03
1.035588e+03,6.430028e+03
1.036552e+03,6.426544e+03
1.037517e+03,6.425498e+03
1.038481e+03,6.425161e+03
1.039445e+03,6.426263e+03
1.040409e+03,6.432322e+03
1.041374e+03,6.434478e+03
1.042338e+03,6.432018e+03
1.043302e+03,6.427406e+03
1.044266e+03,6.422167e+03
1.045231e+03,6.415275e+03
1.046195e+03,6.407808e+03
1.047159e+03,6.399681e+03
1.048123e+03,6.393635e+03
1.049088e+03,6.392334e+03
1.050052e+03,6.398685e+03
1.051016e+03,6.403352e+03
1.051980e+03,6.405674e+03
1.052945e+03,6.405485e+03
1.053909e+03,6.395407e+03
1.054873e+03,6.377139e+03
1.055837e+03,6.368099e+03
1.056802e+03,6.385870e+03
1.057766e+03,6.396952e+03
1.058730e+03,6.393147e+03
1.059694e+03,6.381709e+03
1.060658e+03,6.370193e+03
1.061623e+03,6.359564e+03
1.062587e+03,6.351687e+03
1.063551e+03,6.345524e+03
1.064515e+03,6.343813e+03
1.065479e+03,6.350514e+03
1.066444e+03,6.368064e+03
1.067408e+03,6.376709e+03
1.068372e+03,6.362860e+03
1.069336e+03,6.350103e+03
1.070301e+03,6.347554e+03
1.071265e+03,6.350946e+03
1.072229e+03,6.351110e+03
1.073193e+03,6.346379e+03
1.074158e+03,6.338104e+03
1.075122e+03,6.324415e+03
1.076086e+03,6.308706e+03
1.077050e+03,6.295686e+03
1.078015e+03,6.287929e+03
1.078979e+03,6.288687e+03
1.079943e+03,6.303392e+03
1.080907e+03,6.321030e+03
1.081872e+03,6.332543e+03
1.082836e+03,6.335412e+03
1.083800e+03,6.335194e+03
1.084764e+03,6.331222e+03
1.085729e+03,6.329660e+03
1.086693e+03,6.333326e+03
1.087657e+03,6.340155e+03
1.088621e+03,6.346261e+03
1.089585e+03,6.354363e+03
1.090550e+03,6.354335e+03
1.091514e+03,6.342762e+03
1.092478e+03,6.327417e+03
1.093442e+03,6.314725e+03
1.094406e+03,6.305289e+03
1.095371e+03,6.301405e+03
1.096335e+03,6.307948e+03
1.097299e+03,6.313989e+03
1.098263e+03,6.310771e+03
1.099228e+03,6.297936e+03
1.100192e+03,6.289214e+03
1.101156e+03,6.289796e+03
1.102120e+03,6.290766e+03
1.103085e+03,6.290797e+03
1.104049e+03,6.289292e+03
1.105013e+03,6.285193e+03
1.105977e+03,6.276149e+03
1.106942e+03,6.268514e+03
1.107906e+03,6.261784e+03
1.108870e+03,6.258502e+03
1.109834e+03,6.262442e+03
1.110799e+03,6.277468e+03
1.111763e+03,6.285508e+03
1.112727e+03,6.280147e+03
1.113691e+03,6.273553e+03
1.114656e+03,6.269669e+03
1.115620e+03,6.268562e+03
1.116584e+03,6.269997e+03
1.117548e+03,6.270527e+03
1.118512e+03,6.272465e+03
1.119477e+03,6.280889e+03
1.120441e+03,6.290104e+03
1.121405e+03,6.292316e+03
1.122369e+03,6.284345e+03
1.123334e+03,6.274610e+03
1.124298e+03,6.261947e+03
1.125262e+03,6.250706e+03
1.126226e+03,6.245004e+03
1.127191e+03,6.246240e+03
1.128155e+03,6.244439e+03
1.129119e+03,6.230945e+03
1.130083e+03,6.223438e+03
1.131047e+03,6.231557e+03
1.132012e+03,6.248371e+03
1.132976e+03,6.255751e+03
1.133940e+03,6.250457e+03
1.134904e+03,6.241150e+03
1.135869e+03,6.228665e+03
1.136833e+03,6.216869e+03
1.137797e+03,6.210412e+03
1.138761e+03,6.213817e+03
1.139726e+03,6.212656e+03
1.140690e+03,6.203451e+03
1.141654e+03,6.194033e+03
1.142618e+03,6.187685e+03
1.143583e+03,6.184984e+03
1.144547e+03,6.188821e+03
1.145511e+03,6.201991e+03
1.146475e+03,6.209302e+03
1.147439e+03,6.203758e+03
1.148404e+03,6.194495e+03
1.149368e+03,6.197786e+03
1.150332e+03,6.214874e+03
1.151296e+03,6.223018e+03
1.152261e+03,6.216135e+03
1.153225e+03,6.201264e+03
1.154189e+03,6.188896e+03
1.155153e+03,6.180804e+03
1.156118e+03,6.169636e+03
1.157082e+03,6.157282e+03
1.158046e+03,6.147461e+03
1.159010e+03,6.138924e+03
1.159974e+03,6.133228e+03
1.160939e+03,6.135384e+03
1.161903e+03,6.143068e+03
1.162867e+03,6.150539e+03
1.163831e+03,6.156477e+03
1.164796e+03,6.157682e+03
1.165760e+03,6.150789e+03
1.166724e+03,6.139161e+03
1.167688e+03,6.128445e+03
1.168653e+03,6.119174e+03
1.169617e+03,6.111576e+03
1.170581e+03,6.106391e+03
1.171545e+03,6.104149e+03
1.172510e+03,6.106841e+03
1.173474e+03,6.112878e+03
1.174438e+03,6.116781e+03
1.175402e+03,6.115799e+03
1.176366e+03,6.113219e+03
1.177331e+03,6.113544e+03
1.178295e+03,6.114401e+03
1.179259e+03,6.110475e+03
1.180223e+03,6.101131e+03
1.181188e+03,6.092252e+03
1.182152e+03,6.090116e+03
1.183116e+03,6.087507e+03
1.184080e+03,6.079644e+03
1.185045e+03,6.070100e+03
1.186009e+03,6.063816e+03
1.186973e+03,6.066475e+03
1.187937e+03,6.067787e+03
1.188901e+03,6.057230e+03
1.189866e+03,6.046620e+03
1.190830e+03,6.046095e+03
1.191794e+03,6.055647e+03
1.192758e+03,6.062655e+03
1.193723e+03,6.070022e+03
1.194687e+03,6.073508e+03
1.195651e+03,6.065134e+03
1.196615e+03,6.050630e+03
1.197580e+03,6.044726e+03
1.198544e+03,6.052193e+03
1.199508e+03,6.052657e+03
1.200472e+03,6.048354e+03
1.201437e+03,6.039167e+03
1.202401e+03,6.024063e+03
1.203365e+03,6.002868e+03
1.204329e+03,5.989123e+03
1.205293e+03,5.981069e+03
1.206258e+03,5.983579e+03
1.207222e+03,6.001700e+03
1.208186e+03,6.027797e+03
1.209150e+03,6.039569e+03
1.210115e+03,6.033964e+03
1.211079e+03,6.025591e+03
1.212043e+03,6.017180e+03
1.213007e+03,6.009233e+03
1.213972e+03,6.004487e+03
1.214936e+03,6.004027e+03
1.215900e+03,6.005589e+03
1.216864e+03,6.009053e+03
1.217828e+03,6.010070e+03
1.218793e+03,6.004843e+03
1.219757e+03,5.998119e+03
1.220721e+03,5.998375e+03
1.221685e+03,6.003983e+03
1.222650e+03,6.008320e+03
1.223614e+03,6.007744e+03
1.224578e+03,6.003939e+03
1.225542e+03,5.999033e+03
1.226507e+03,5.995349e+03
1.227471e+03,5.996907e+03
1.228435e+03,6.000129e+03
1.229399e+03,5.995632e+03
1.230364e+03,5.970598e+03
1.231328e+03,5.948959e+03
1.232292e+03,5.952334e+03
1.233256e+03,5.967086e+03
1.234220e+03,5.971543e+03
1.235185e+03,5.959342e+03
1.236149e+03,5.949222e+03
1.237113e+03,5.943133e+03
1.238077e+03,5.943505e+03
1.239042e+03,5.950793e+03
1.240006e+03,5.961253e+03
1.240970e+03,5.966128e+03
1.241934e+03,5.964705e+03
1.242899e+03,5.957855e+03
1.243863e+03,5.943864e+03
1.244827e+03,5.929743e+03
1.245791e+03,5.926006e+03
1.246755e+03,5.936181e+03
1.247720e+03,5.934412e+03
1.248684e+03,5.918385e+03
1.249648e+03,5.903175e+03
1.250612e+03,5.897462e+03
1.251577e+03,5.898385e+03
1.252541e+03,5.900333e+03
1.253505e+03,5.902483e+03
1.254469e+03,5.903945e+03
1.255434e+03,5.905780e+03
1.256398e+03,5.906235e+03
1.257362e+03,5.896288e+03
1.258326e+03,5.882965e+03
1.259291e+03,5.884790e+03
1.260255e+03,5.899091e+03
1.261219e+03,5.908032e+03
1.262183e+03,5.902885e+03
1.263147e+03,5.893034e+03
1.264112e+03,5.878089e+03
1.265076e+03,5.864600e+03
1.266040e+03,5.862649e+03
1.267004e+03,5.878916e+03
1.267969e+03,5.892650e+03
1.268933e+03,5.898724e+03
1.269897e+03,5.904319e+03
1.270861e+03,5.908219e+03
1.271826e+03,5.906804e+03
1.272790e+03,5.906905e+03
1.273754e+03,5.912386e+03
1.274718e+03,5.917460e+03
1.275682e+03,5.927127e+03
1.276647e+03,5.934166e+03
1.277611e+03,5.925103e+03
1.278575e+03,5.895960e+03
1.279539e+03,5.876099e+03
1.280504e+03,5.869802e+03
1.281468e+03,5.868028e+03
1.282432e+03,5.864156e+03
1.283396e+03,5.859307e+03
1.284361e+03,5.856027e+03
1.285325e+03,5.852938e+03
1.286289e+03,5.849835e+03
1.287253e+03,5.846345e+03
1.288218e+03,5.841766e+03
1.289182e+03,5.837031e+03
1.290146e+03,5.831721e+03
1.291110e+03,5.825366e+03
1.292074e+03,5.818878e+03
1.293039e+03,5.812843e+03
1.294003e+03,5.808290e+03
1.294967e+03,5.801064e+03
1.295931e+03,5.785708e+03
1.296896e+03,5.772306e+03
1.297860e+03,5.772721e+03
1.298824e+03,5.792710e+03
1.299788e+03,5.801716e+03
1.300753e+03,5.790844e+03
1.301717e+03,5.778189e+03
1.302681e+03,5.770090e+03
1.303645e+03,5.765750e+03
1.304609e+03,5.763042e+03
1.305574e+03,5.759732e+03
1.306538e+03,5.758375e+03
1.307502e+03,5.762812e+03
1.308466e+03,5.767447e+03
1.309431e+03,5.764730e+03
1.310395e+03,5.756333e+03
1.311359e+03,5.744114e+03
1.312323e+03,5.727685e+03
1.313288e+03,5.716400e+03
1.314252e+03,5.719270e+03
1.315216e+03,5.726454e+03
1.316180e+03,5.724287e+03
1.317145e+03,5.720708e+03
1.318109e+03,5.724546e+03
1.319073e+03,5.734540e+03
1.320037e+03,5.742688e+03
1.321001e+03,5.749450e+03
1.321966e+03,5.750671e+03
1.322930e+03,5.744678e+03
1.323894e+03,5.735569e+03
1.324858e+03,5.727294e+03
1.325823e+03,5.718398e+03
1.326787e+03,5.713049e+03
1.327751e+03,5.710250e+03
1.328715e+03,5.708814e+03
1.329680e+03,5.709673e+03
1.330644e+03,5.712091e+03
1.331608e+03,5.709568e+03
1.332572e+03,5.702404e+03
1.333536e+03,5.702648e+03
1.334501e+03,5.713603e+03
1.335465e+03,5.723810e+03
1.336429e+03,5.721901e+03
1.337393e+03,5.714655e+03
1.338358e+03,5.711657e+03
1.339322e+03,5.711978e+03
1.340286e+03,5.708847e+03
1.341250e+03,5.693557e+03
1.342215e+03,5.680229e+03
1.343179e+03,5.681540e+03
1.344143e+03,5.689821e+03
1.345107e+03,5.692577e+03
1.346072e+03,5.684736e+03
1.347036e+03,5.680832e+03
1.348000e+03,5.682561e+03
1.348964e+03,5.681396e+03
1.349928e+03,5.674946e+03
1.350893e+03,5.667120e+03
1.351857e+03,5.662873e+03
1.352821e+03,5.660881e+03
1.353785e+03,5.660088e+03
1.354750e+03,5.659654e+03
1.355714e+03,5.656384e+03
1.356678e+03,5.648849e+03
1.357642e+03,5.641214e+03
1.358607e+03,5.636225e+03
1.359571e+03,5.632528e+03
1.360535e+03,5.628606e+03
1.361499e+03,5.624717e+03
1.362464e+03,5.622186e+03
1.363428e+03,5.622667e+03
1.364392e+03,5.625756e+03
1.365356e+03,5.628461e+03
1.366320e+03,5.628375e+03
1.367285e+03,5.628378e+03
1.368249e+03,5.632644e+03
1.369213e+03,5.633342e+03
1.370177e+03,5.629177e+03
1.371142e+03,5.620852e+03
1.372106e+03,5.606257e+03
1.373070e+03,5.587411e+03
1.374034e+03,5.581766e+03
1.374999e+03,5.589345e+03
1.375963e+03,5.596649e+03
1.376927e+03,5.595256e+03
1.377891e+03,5.593171e+03
1.378855e+03,5.601899e+03
1.379820e+03,5.611886e+03
1.380784e+03,5.609229e+03
1.381748e+03,5.593756e+03
1.382712e+03,5.583573e+03
1.383677e+03,5.588264e+03
1.384641e+03,5.588174e+03
1.385605e+03,5.572891e+03
1.386569e+03,5.550788e+03
1.387534e+03,5.535412e+03
1.388498e+03,5.528217e+03
1.389462e+03,5.523073e+03
1.390426e+03,5.518188e+03
1.391391e+03,5.516041e+03
1.392355e+03,5.521740e+03
1.393319e+03,5.530788e+03
1.394283e+03,5.530202e+03
1.395247e+03,5.523461e+03
1.396212e+03,5.520814e+03
1.397176e+03,5.524917e+03
1.398140e+03,5.529005e+03
1.399104e+03,5.526091e+03
1.400069e+03,5.522385e+03
1.401033e+03,5.525287e+03
1.401997e+03,5.530595e+03
1.402961e+03,5.525929e+03
1.403926e+03,5.502317e+03
1.404890e+03,5.488415e+03
1.405854e+03,5.489609e+03
1.406818e+03,5.493850e+03
1.407782e+03,5.492375e+03
1.408747e+03,5.488472e+03
1.409711e+03,5.488146e+03
1.410675e+03,5.488250e+03
1.411639e+03,5.489142e+03
1.412604e+03,5.492280e+03
1.413568e+03,5.492294e+03
1.414532e+03,5.481925e+03
1.415496e+03,5.472210e+03
1.416461e+03,5.473913e+03
1.417425e+03,5.481704e+03
1.418389e+03,5.480075e+03
1.419353e+03,5.457224e+03
1.420318e+03,5.439528e+03
1.421282e+03,5.432945e+03
1.422246e+03,5.430014e+03
1.423210e+03,5.423922e+03
1.424174e+03,5.416000e+03
1.425139e+03,5.408363e+03
1.426103e+03,5.400242e+03
1.427067e+03,5.398998e+03
1.428031e+03,5.408762e+03
1.428996e+03,5.419417e+03
1.429960e+03,5.420146e+03
1.430924e+03,5.415315e+03
1.431888e+03,5.407330e+03
1.432853e+03,5.398195e+03
1.433817e+03,5.393460e+03
1.434781e+03,5.403286e+03
1.435745e+03,5.407208e+03
1.436709e+03,5.398345e+03
1.437674e+03,5.384241e+03
1.438638e+03,5.372621e+03
1.439602e+03,5.365096e+03
1.440566e+03,5.362700e+03
1.441531e+03,5.364511e+03
1.442495e+03,5.367771e+03
1.443459e+03,5.371161e+03
1.444423e+03,5.372639e+03
1.445388e+03,5.368506e+03
1.446352e+03,5.360781e+03
1.447316e+03,5.353456e+03
1.448280e+03,5.348463e+03
1.449245e+03,5.342823e+03
1.450209e+03,5.332503e+03
1.451173e+03,5.326162e+03
1.452137e+03,5.321620e+03
1.453101e+03,5.319567e+03
1.454066e+03,5.324704e+03
1.455030e+03,5.335542e+03
1.455994e+03,5.337174e+03
1.456958e+03,5.330695e+03
1.457923e+03,5.323002e+03
1.458887e+03,5.313643e+03
1.459851e+03,5.310007e+03
1.460815e+03,5.328129e+03
1.461780e+03,5.346066e+03
1.462744e+03,5.343666e+03
1.463708e+03,5.324106e+03
1.464672e+03,5.310653e+03
1.465636e+03,5.309653e+03
1.466601e+03,5.311153e+03
1.467565e+03,5.314809e+03
1.468529e+03,5.318439e+03
1.469493e+03,5.318235e+03
1.470458e+03,5.313935e+03
1.471422e+03,5.310182e+03
1.472386e+03,5.307569e+03
1.473350e+03,5.304034e+03
1.474315e+03,5.296870e+03
1.475279e+03,5.291291e+03
1.476243e+03,5.291078e+03
1.477207e+03,5.291541e+03
1.478172e+03,5.292041e+03
1.479136e+03,5.292703e+03
1.480100e+03,5.292350e+03
1.481064e+03,5.291865e+03
1.482028e+03,5.288638e+03
1.482993e+03,5.282529e+03
1.483957e+03,5.277731e+03
1.484921e+03,5.276522e+03
1.485885e+03,5.278061e+03
1.486850e+03,5.282604e+03
1.487814e+03,5.286506e+03
1.488778e+03,5.284213e+03
1.489742e+03,5.272598e+03
1.490707e+03,5.263153e+03
1.491671e+03,5.265151e+03
1.492635e+03,5.270135e+03
1.493599e+03,5.273697e+03
1.494563e+03,5.273609e+03
1.495528e+03,5.265714e+03
1.496492e+03,5.249549e+03
1.497456e+03,5.237076e+03
1.498420e+03,5.231333e+03
1.499385e+03,5.228337e+03
1.500349e+03,5.227311e+03
1.501313e+03,5.225663e+03
1.502277e+03,5.216340e+03
1.503242e+03,5.205305e+03
1.504206e+03,5.202382e+03
1.505170e+03,5.211638e+03
1.506134e+03,5.215919e+03
1.507099e+03,5.215764e+03
1.508063e+03,5.209901e+03
1.509027e+03,5.196287e+03
1.509991e+03,5.180291e+03
1.510955e+03,5.172042e+03
1.511920e+03,5.168490e+03
1.512884e+03,5.162779e+03
1.513848e+03,5.157068e+03
1.514812e+03,5.156888e+03
1.515777e+03,5.166354e+03
1.516741e+03,5.172369e+03
1.517705e+03,5.166750e+03
1.518669e+03,5.157986e+03
1.519634e+03,5.154012e+03
1.520598e+03,5.153744e+03
1.521562e+03,5.153413e+03
1.522526e+03,5.151583e+03
1.523490e+03,5.148303e+03
1.524455e+03,5.144243e+03
1.525419e+03,5.138866e+03
1.526383e+03,5.132077e+03
1.527347e+03,5.124190e+03
1.528312e+03,5.115520e+03
1.529276e+03,5.109404e+03
1.530240e+03,5.111063e+03
1.531204e+03,5.123154e+03
1.532169e+03,5.129420e+03
1.533133e+03,5.128248e+03
1.534097e+03,5.123212e+03
1.535061e+03,5.114530e+03
1.536026e+03,5.104710e+03
1.536990e+03,5.100220e+03
1.537954e+03,5.100186e+03
1.538918e+03,5.103798e+03
1.539882e+03,5.111598e+03
1.540847e+03,5.112982e+03
1.541811e+03,5.094312e+03
1.542775e+03,5.080335e+03
1.543739e+03,5.082157e+03
1.544704e+03,5.091185e+03
1.545668e+03,5.091572e+03
1.546632e+03,5.085953e+03
1.547596e+03,5.083029e+03
1.548561e+03,5.083391e+03
1.549525e+03,5.087501e+03
1.550489e+03,5.098950e+03
1.551453e+03,5.105942e+03
1.552417e+03,5.098204e+03
1.553382e+03,5.087489e+03
1.554346e+03,5.086466e+03
1.555310e+03,5.093968e+03
1.556274e+03,5.089522e+03
1.557239e+03,5.073043e+03
1.558203e+03,5.062230e+03
1.559167e+03,5.061696e+03
1.560131e+03,5.062756e+03
1.561096e+03,5.057823e+03
1.562060e+03,5.052500e+03
1.563024e+03,5.049295e+03
1.563988e+03,5.049325e+03
1.564953e+03,5.054443e+03
1.565917e+03,5.066533e+03
1.566881e+03,5.076227e+03
1.567845e+03,5.082253e+03
1.568809e+03,5.085235e+03
1.569774e+03,5.085765e+03
1.570738e+03,5.084830e+03
1.571702e+03,5.084857e+03
1.572666e+03,5.083058e+03
1.573631e+03,5.074757e+03
1.574595e+03,5.061204e+03
1.575559e+03,5.052049e+03
1.576523e+03,5.049363e+03
1.577488e+03,5.049623e+03
1.578452e+03,5.050003e+03
1.579416e+03,5.049509e+03
1.580380e+03,5.049067e+03
1.581344e+03,5.048321e+03
1.582309e+03,5.045583e+03
1.583273e+03,5.042991e+03
1.584237e+03,5.044361e+03
1.585201e+03,5.053831e+03
1.586166e+03,5.059655e+03
1.587130e+03,5.058240e+03
1.588094e+03,5.053935e+03
1.589058e+03,5.049519e+03
1.590023e+03,5.045634e+03
1.590987e+03,5.043386e+03
1.591951e+03,5.042427e+03
1.592915e+03,5.035135e+03
1.593880e+03,5.019946e+03
1.594844e+03,5.009000e+03
1.595808e+03,5.014138e+03
1.596772e+03,5.016380e+03
1.597736e+03,5.013513e+03
1.598701e+03,5.008139e+03
1.599665e+03,5.000757e+03
1.600629e+03,4.991927e+03
1.601593e+03,4.984612e+03
1.602558e+03,4.977945e+03
1.603522e+03,4.969122e+03
1.604486e+03,4.956736e+03
1.605450e+03,4.943697e+03
1.606415e+03,4.930824e+03
1.607379e+03,4.921915e+03
1.608343e+03,4.916479e+03
1.609307e+03,4.915568e+03
1.610271e+03,4.926100e+03
1.611236e+03,4.943178e+03
1.612200e+03,4.946398e+03
1.613164e+03,4.937510e+03
1.614128e+03,4.926839e+03
1.615093e+03,4.911144e+03
1.616057e+03,4.904047e+03
1.617021e+03,4.919406e+03
1.617985e+03,4.931894e+03
1.618950e+03,4.926695e+03
1.619914e+03,4.908266e+03
1.620878e+03,4.891109e+03
1.621842e+03,4.876182e+03
1.622807e+03,4.864233e+03
1.623771e+03,4.856330e+03
1.624735e+03,4.854718e+03
1.625699e+03,4.862745e+03
1.626663e+03,4.870680e+03
1.627628e+03,4.875560e+03
1.628592e+03,4.874446e+03
1.629556e+03,4.865097e+03
1.630520e+03,4.851720e+03
1.631485e+03,4.846453e+03
1.632449e+03,4.846931e+03
1.633413e+03,4.844111e+03
1.634377e+03,4.832369e+03
1.635342e+03,4.824125e+03
1.636306e+03,4.832749e+03
1.637270e+03,4.835633e+03
1.638234e+03,4.817819e+03
1.639198e+03,4.792876e+03
1.640163e+03,4.794418e+03
1.641127e+03,4.815000e+03
1.642091e+03,4.827628e+03
1.643055e+03,4.827717e+03
1.644020e+03,4.820846e+03
1.644984e+03,4.799578e+03
1.645948e+03,4.783098e+03
1.646912e+03,4.777415e+03
1.647877e+03,4.776776e+03
1.648841e+03,4.779752e+03
1.649805e+03,4.783220e+03
1.650769e+03,4.768983e+03
1.651734e+03,4.746287e+03
1.652698e+03,4.742604e+03
1.653662e+03,4.766940e+03
1.654626e+03,4.781180e+03
1.655590e+03,4.770218e+03
1.656555e+03,4.757624e+03
1.657519e+03,4.750422e+03
1.658483e+03,4.749271e+03
1.659447e+03,4.756076e+03
1.660412e+03,4.763193e+03
1.661376e+03,4.758869e+03
1.662340e+03,4.746665e+03
1.663304e+03,4.735338e+03
1.664269e+03,4.720782e+03
1.665233e+03,4.714726e+03
1.666197e+03,4.718541e+03
1.667161e+03,4.721542e+03
1.668125e+03,4.718854e+03
1.669090e+03,4.713911e+03
1.670054e+03,4.713394e+03
1.671018e+03,4.713467e+03
1.671982e+03,4.707613e+03
1.672947e+03,4.696604e+03
1.673911e+03,4.696497e+03
1.674875e+03,4.708913e+03
1.675839e+03,4.716811e+03
1.676804e+03,4.720455e+03
1.677768e+03,4.718375e+03
1.678732e+03,4.698972e+03
1.679696e+03,4.678916e+03
1.680661e+03,4.673578e+03
1.681625e+03,4.675860e+03
1.682589e+03,4.679837e+03
1.683553e+03,4.687068e+03
1.684517e+03,4.692749e+03
1.685482e+03,4.696081e+03
1.686446e+03,4.693016e+03
1.687410e+03,4.681078e+03
1.688374e+03,4.670461e+03
1.689339e+03,4.671719e+03
1.690303e+03,4.672902e+03
1.691267e+03,4.664072e+03
1.692231e+03,4.653214e+03
1.693196e+03,4.653604e+03
1.694160e+03,4.661914e+03
1.695124e+03,4.664161e+03
1.696088e+03,4.661395e+03
1.697052e+03,4.658934e+03
1.698017e+03,4.655205e+03
1.698981e+03,4.652179e+03
1.699945e+03,4.650236e+03
1.700909e+03,4.644842e+03
1.701874e+03,4.636140e+03
1.702838e+03,4.629072e+03
1.703802e+03,4.628776e+03
1.704766e+03,4.631260e+03
1.705731e+03,4.636203e+03
1.706695e+03,4.643568e+03
1.707659e+03,4.641944e+03
1.708623e+03,4.626445e+03
1.709588e+03,4.616729e+03
1.710552e+03,4.613837e+03
1.711516e+03,4.609018e+03
1.712480e+03,4.591766e+03
1.713444e+03,4.573153e+03
1.714409e+03,4.568193e+03
1.715373e+03,4.571608e+03
1.716337e+03,4.574247e+03
1.717301e+03,4.576803e+03
1.718266e+03,4.581917e+03
1.719230e+03,4.588328e+03
1.720194e+03,4.588904e+03
1.721158e+03,4.580339e+03
1.722123e+03,4.571921e+03
1.723087e+03,4.572735e+03
1.724051e+03,4.572874e+03
1.725015e+03,4.566775e+03
1.725979e+03,4.559900e+03
1.726944e+03,4.558094e+03
1.727908e+03,4.560423e+03
1.728872e+03,4.563614e+03
1.729836e+03,4.565857e+03
1.730801e+03,4.567363e+03
1.731765e+03,4.571210e+03
1.732729e+03,4.569423e+03
1.733693e+03,4.560790e+03
1.734658e+03,4.548293e+03
1.735622e+03,4.530256e+03
1.736586e+03,4.514914e+03
1.737550e+03,4.519259e+03
1.738515e+03,4.530279e+03
1.739479e+03,4.534096e+03
1.740443e+03,4.529364e+03
1.741407e+03,4.518839e+03
1.742371e+03,4.501085e+03
1.743336e+03,4.493748e+03
1.744300e+03,4.497790e+03
1.745264e+03,4.503685e+03
1.746228e+03,4.511524e+03
1.747193e+03,4.516587e+03
1.748157e+03,4.518378e+03
1.749121e+03,4.517990e+03
1.750085e+03,4.508448e+03
1.751050e+03,4.491679e+03
1.752014e+03,4.491789e+03
1.752978e+03,4.501731e+03
1.753942e+03,4.498966e+03
1.754906e+03,4.478628e+03
1.755871e+03,4.465637e+03
1.756835e+03,4.465019e+03
1.757799e+03,4.461614e+03
1.758763e+03,4.456820e+03
1.759728e+03,4.456177e+03
1.760692e+03,4.467944e+03
1.761656e+03,4.481555e+03
1.762620e+03,4.483229e+03
1.763585e+03,4.478917e+03
1.764549e+03,4.480251e+03
1.765513e+03,4.485122e+03
1.766477e+03,4.470761e+03
1.767442e+03,4.442140e+03
1.768406e+03,4.421814e+03
1.769370e+03,4.416967e+03
1.770334e+03,4.419836e+03
1.771298e+03,4.430376e+03
1.772263e+03,4.439461e+03
1.773227e+03,4.447477e+03
1.774191e+03,4.450328e+03
1.775155e+03,4.435042e+03
1.776120e+03,4.414474e+03
1.777084e+03,4.411525e+03
1.778048e+03,4.420707e+03
1.779012e+03,4.423340e+03
1.779977e+03,4.416604e+03
1.780941e+03,4.417938e+03
1.781905e+03,4.425094e+03
1.782869e+03,4.426262e+03
1.783833e+03,4.413942e+03
1.784798e+03,4.403943e+03
1.785762e+03,4.409655e+03
1.786726e+03,4.414913e+03
1.787690e+03,4.412627e+03
1.788655e+03,4.406250e+03
1.789619e+03,4.399973e+03
1.790583e+03,4.393658e+03
1.791547e+03,4.384507e+03
1.792512e+03,4.374019e+03
1.793476e+03,4.368836e+03
1.794440e+03,4.369172e+03
1.795404e+03,4.369065e+03
1.796369e+03,4.366813e+03
1.797333e+03,4.363975e+03
1.798297e+03,4.361065e+03
1.799261e+03,4.360456e+03
1.800225e+03,4.364181e+03
1.801190e+03,4.367433e+03
1.802154e+03,4.370110e+03
1.803118e+03,4.369574e+03
1.804082e+03,4.359124e+03
1.805047e+03,4.343804e+03
1.806011e+03,4.329365e+03
1.806975e+03,4.317105e+03
1.807939e+03,4.316753e+03
1.808904e+03,4.333534e+03
1.809868e+03,4.337520e+03
1.810832e+03,4.326224e+03
1.811796e+03,4.319320e+03
1.812760e+03,4.341189e+03
1.813725e+03,4.358695e+03
1.814689e+03,4.343179e+03
1.815653e+03,4.321627e+03
1.816617e+03,4.313656e+03
1.817582e+03,4.316528e+03
1.818546e+03,4.328480e+03
1.819510e+03,4.340470e+03
1.820474e+03,4.328451e+03
1.821439e+03,4.289820e+03
1.822403e+03,4.269214e+03
1.823367e+03,4.272802e+03
1.824331e+03,4.280775e+03
1.825296e+03,4.289189e+03
1.826260e+03,4.292908e+03
1.827224e+03,4.288831e+03
1.828188e+03,4.285240e+03
1.829152e+03,4.283939e+03
1.830117e+03,4.282560e+03
1.831081e+03,4.280046e+03
1.832045e+03,4.274510e+03
1.833009e+03,4.263946e+03
1.833974e+03,4.253322e+03
1.834938e+03,4.244361e+03
1.835902e+03,4.235518e+03
1.836866e+03,4.232686e+03
1.837831e+03,4.235997e+03
1.838795e+03,4.238596e+03
1.839759e+03,4.240917e+03
1.840723e+03,4.244351e+03
1.841688e+03,4.251184e+03
1.842652e+03,4.252610e+03
1.843616e+03,4.241047e+03
1.844580e+03,4.227338e+03
1.845544e+03,4.226788e+03
1.846509e+03,4.233028e+03
1.847473e+03,4.235529e+03
1.848437e+03,4.234235e+03
1.849401e+03,4.228604e+03
1.850366e+03,4.219616e+03
1.851330e+03,4.206715e+03
1.852294e+03,4.192212e+03
1.853258e+03,4.184444e+03
1.854223e+03,4.185282e+03
1.855187e+03,4.193742e+03
1.856151e+03,4.220853e+03
1.857115e+03,4.231297e+03
1.858079e+03,4.214420e+03
1.859044e+03,4.189498e+03
1.860008e+03,4.172071e+03
1.860972e+03,4.165381e+03
1.861936e+03,4.184274e+03
1.862901e+03,4.207378e+03
1.863865e+03,4.199036e+03
1.864829e+03,4.162545e+03
1.865793e+03,4.148225e+03
1.866758e+03,4.151995e+03
1.867722e+03,4.159083e+03
1.868686e+03,4.166271e+03
1.869650e+03,4.165286e+03
1.870615e+03,4.152562e+03
1.871579e+03,4.141770e+03
1.872543e+03,4.138244e+03
1.873507e+03,4.141607e+03
1.874471e+03,4.152745e+03
1.875436e+03,4.160058e+03
1.876400e+03,4.160970e+03
1.877364e+03,4.157198e+03
1.878328e+03,4.146289e+03
1.879293e+03,4.133968e+03
1.880257e+03,4.133799e+03
1.881221e+03,4.138068e+03
1.882185e+03,4.131474e+03
1.883150e+03,4.114125e+03
1.884114e+03,4.107860e+03
1.885078e+03,4.109975e+03
1.886042e+03,4.108743e+03
1.887006e+03,4.099641e+03
1.887971e+03,4.096213e+03
1.888935e+03,4.110450e+03
1.889899e+03,4.117283e+03
1.890863e+03,4.107131e+03
1.891828e+03,4.094889e+03
1.892792e+03,4.104299e+03
1.893756e+03,4.112489e+03
1.894720e+03,4.101804e+03
1.895685e+03,4.086407e+03
1.896649e+03,4.074250e+03
1.897613e+03,4.064943e+03
1.898577e+03,4.066808e+03
1.899542e+03,4.074552e+03
1.900506e+03,4.074444e+03
1.901470e+03,4.062843e+03
1.902434e+03,4.054871e+03
1.903398e+03,4.050737e+03
1.904363e+03,4.051388e+03
1.905327e+03,4.058445e+03
1.906291e+03,4.059393e+03
1.907255e+03,4.034345e+03
1.908220e+03,4.020636e+03
1.909184e+03,4.027543e+03
1.910148e+03,4.036848e+03
1.911112e+03,4.031149e+03
1.912077e+03,4.022976e+03
1.913041e+03,4.021843e+03
1.914005e+03,4.024636e+03
1.914969e+03,4.029728e+03
1.915933e+03,4.034819e+03
1.916898e+03,4.029498e+03
1.917862e+03,4.018926e+03
1.918826e+03,4.011476e+03
1.919790e+03,4.009708e+03
1.920755e+03,4.011619e+03
1.921719e+03,4.014521e+03
1.922683e+03,4.008855e+03
1.923647e+03,3.993966e+03
1.924612e+03,3.978199e+03
1.925576e+03,3.955209e+03
1.926540e+03,3.953641e+03
1.927504e+03,3.979969e+03
1.928469e+03,4.000695e+03
1.929433e+03,3.974153e+03
1.930397e+03,3.943947e+03
1.931361e+03,3.946742e+03
1.932325e+03,3.956792e+03
1.933290e+03,3.955758e+03
1.934254e+03,3.951052e+03
1.935218e+03,3.954533e+03
1.936182e+03,3.958476e+03
1.937147e+03,3.953537e+03
1.938111e+03,3.942366e+03
1.939075e+03,3.943164e+03
1.940039e+03,3.954466e+03
1.941004e+03,3.950555e+03
1.941968e+03,3.926507e+03
1.942932e+03,3.913641e+03
1.943896e+03,3.927944e+03
1.944860e+03,3.935764e+03
1.945825e+03,3.935527e+03
1.946789e+03,3.933247e+03
1.947753e+03,3.931002e+03
1.948717e+03,3.926427e+03
1.949682e+03,3.915980e+03
1.950646e+03,3.906586e+03
1.951610e+03,3.902509e+03
1.952574e+03,3.902110e+03
1.953539e+03,3.905373e+03
1.954503e+03,3.908453e+03
1.955467e+03,3.906974e+03
1.956431e+03,3.904798e+03
1.957396e+03,3.914125e+03
1.958360e+03,3.926678e+03
1.959324e+03,3.923015e+03
1.960288e+03,3.905341e+03
1.961252e+03,3.887915e+03
1.962217e+03,3.868860e+03
1.963181e+03,3.860976e+03
1.964145e+03,3.863072e+03
1.965109e+03,3.864660e+03
1.966074e+03,3.860549e+03
1.967038e+03,3.860526e+03
1.968002e+03,3.861089e+03
1.968966e+03,3.865489e+03
1.969931e+03,3.879014e+03
1.970895e+03,3.887135e+03
1.971859e+03,3.880342e+03
1.972823e+03,3.870804e+03
1.973787e+03,3.861316e+03
1.974752e+03,3.851463e+03
1.975716e+03,3.838640e+03
1.976680e+03,3.828616e+03
1.977644e+03,3.836167e+03
1.978609e+03,3.851483e+03
1.979573e+03,3.854330e+03
1.980537e+03,3.847200e+03
1.981501e+03,3.841903e+03
1.982466e+03,3.837953e+03
1.983430e+03,3.829277e+03
1.984394e+03,3.813082e+03
1.985358e+03,3.816500e+03
1.986323e+03,3.834564e+03
1.987287e+03,3.838275e+03
1.988251e+03,3.814952e+03
1.989215e+03,3.799056e+03
1.990179e+03,3.797476e+03
1.991144e+03,3.793028e+03
1.992108e+03,3.782461e+03
1.993072e+03,3.775240e+03
1.994036e+03,3.780130e+03
1.995001e+03,3.782497e+03
1.995965e+03,3.777226e+03
1.996929e+03,3.773457e+03
1.997893e+03,3.783210e+03
1.998858e+03,3.789888e+03
1.999822e+03,3.772835e+03
2.000786e+03,3.751321e+03
2.001750e+03,3.744497e+03
2.002714e+03,3.749840e+03
2.003679e+03,3.759728e+03
2.004643e+03,3.768500e+03
2.005607e+03,3.769362e+03
2.006571e+03,3.764407e+03
2.007536e+03,3.755177e+03
2.008500e+03,3.743382e+03
2.009464e+03,3.731903e+03
2.010428e+03,3.722656e+03
2.011393e+03,3.717849e+03
2.012357e+03,3.716943e+03
2.013321e+03,3.725807e+03
2.014285e+03,3.740844e+03
2.015250e+03,3.747968e+03
2.016214e+03,3.735788e+03
2.017178e+03,3.722090e+03
2.018142e+03,3.708010e+03
2.019106e+03,3.701068e+03
2.020071e+03,3.709422e+03
2.021035e+03,3.712886e+03
2.021999e+03,3.697280e+03
2.022963e+03,3.681657e+03
2.023928e+03,3.674601e+03
2.024892e+03,3.670912e+03
2.025856e+03,3.662234e+03
2.026820e+03,3.657159e+03
2.027785e+03,3.661797e+03
2.028749e+03,3.668726e+03
2.029713e+03,3.668711e+03
2.030677e+03,3.666801e+03
2.031641e+03,3.666683e+03
2.032606e+03,3.669801e+03
2.033570e+03,3.680379e+03
2.034534e+03,3.694455e+03
2.035498e+03,3.701238e+03
2.036463e+03,3.699281e+03
2.037427e+03,3.678036e+03
2.038391e+03,3.641339e+03
2.039355e+03,3.626224e+03
2.040320e+03,3.629563e+03
2.041284e+03,3.637973e+03
2.042248e+03,3.647782e+03
2.043212e+03,3.647941e+03
2.044177e+03,3.638264e+03
2.045141e+03,3.638477e+03
2.046105e+03,3.650335e+03
2.047069e+03,3.655537e+03
2.048033e+03,3.635788e+03
2.048998e+03,3.621952e+03
2.049962e+03,3.617867e+03
2.050926e+03,3.617490e+03
2.051890e+03,3.622194e+03
2.052854e+03,3.619776e+03
2.053819e+03,3.601701e+03
2.054783e+03,3.585040e+03
2.055747e+03,3.582118e+03
2.056711e+03,3.584926e+03
2.057676e+03,3.585836e+03
2.058640e+03,3.589179e+03
2.059604e+03,3.595960e+03
2.060568e+03,3.599925e+03
2.061533e+03,3.592566e+03
2.062497e+03,3.581152e+03
2.063461e+03,3.570946e+03
2.064425e+03,3.562953e+03
2.065390e+03,3.560449e+03
2.066354e+03,3.559261e+03
2.067318e+03,3.549997e+03
2.068282e+03,3.539691e+03
2.069247e+03,3.541827e+03
2.070211e+03,3.552373e+03
2.071175e+03,3.549055e+03
2.072139e+03,3.538536e+03
2.073104e+03,3.537078e+03
2.074068e+03,3.545942e+03
2.075032e+03,3.545978e+03
2.075996e+03,3.538415e+03
2.076960e+03,3.535286e+03
2.077925e+03,3.538426e+03
2.078889e+03,3.540394e+03
2.079853e+03,3.540857e+03
2.080817e+03,3.535948e+03
2.081782e+03,3.525474e+03
2.082746e+03,3.517399e+03
2.083710e+03,3.519364e+03
2.084674e+03,3.517488e+03
2.085639e+03,3.513014e+03
2.086603e+03,3.511422e+03
2.087567e+03,3.510591e+03
2.088531e+03,3.509341e+03
2.089496e+03,3.505392e+03
2.090460e+03,3.502332e+03
2.091424e+03,3.509477e+03
2.092388e+03,3.515890e+03
2.093353e+03,3.510458e+03
2.094317e+03,3.505439e+03
2.095281e+03,3.501084e+03
2.096245e+03,3.494666e+03
2.097209e+03,3.481956e+03
2.098174e+03,3.469391e+03
2.099138e+03,3.459222e+03
2.100102e+03,3.456532e+03
2.101066e+03,3.477958e+03
2.102031e+03,3.496339e+03
2.102995e+03,3.479782e+03
2.103959e+03,3.455132e+03
2.104923e+03,3.442203e+03
2.105887e+03,3.438706e+03
2.106852e+03,3.434691e+03
2.107816e+03,3.433054e+03
2.108780e+03,3.442879e+03
2.109744e+03,3.455032e+03
2.110708e+03,3.444760e+03
2.111673e+03,3.428520e+03
2.112637e+03,3.431324e+03
2.113601e+03,3.440485e+03
2.114565e+03,3.425284e+03
2.115530e+03,3.398170e+03
2.116494e+03,3.385841e+03
2.117458e+03,3.391086e+03
2.118422e+03,3.395077e+03
2.119387e+03,3.396700e+03
2.120351e+03,3.412667e+03
2.121315e+03,3.434485e+03
2.122279e+03,3.438472e+03
2.123244e+03,3.423050e+03
2.124208e+03,3.419104e+03
2.125172e+03,3.422906e+03
2.126136e+03,3.415099e+03
2.127101e+03,3.390071e+03
2.128065e+03,3.376035e+03
2.129029e+03,3.371690e+03
2.129993e+03,3.375838e+03
2.130958e+03,3.384990e+03
2.131922e+03,3.386660e+03
2.132886e+03,3.380786e+03
2.133850e+03,3.376766e+03
2.134814e+03,3.378463e+03
2.135779e+03,3.376596e+03
2.136743e+03,3.361908e+03
2.137707e+03,3.356369e+03
2.138671e+03,3.361621e+03
2.139636e+03,3.363809e+03
2.140600e+03,3.352634e+03
2.141564e+03,3.346389e+03
2.142528e+03,3.347457e+03
2.143493e+03,3.341973e+03
2.144457e+03,3.319146e+03
2.145421e+03,3.302927e+03
2.146385e+03,3.300301e+03
2.147350e+03,3.305184e+03
2.148314e+03,3.319506e+03
2.149278e+03,3.330994e+03
2.150242e+03,3.320734e+03
2.151207e+03,3.315990e+03
2.152171e+03,3.321100e+03
2.153135e+03,3.322568e+03
2.154099e+03,3.312145e+03
2.155063e+03,3.302136e+03
2.156028e+03,3.296280e+03
2.156992e+03,3.293228e+03
2.157956e+03,3.287036e+03
2.158920e+03,3.282379e+03
2.159885e+03,3.282189e+03
2.160849e+03,3.281745e+03
2.161813e+03,3.277642e+03
2.162777e+03,3.274962e+03
2.163741e+03,3.287647e+03
2.164706e+03,3.288805e+03
2.165670e+03,3.268634e+03
2.166634e+03,3.248112e+03
2.167598e+03,3.246066e+03
2.168563e+03,3.250156e+03
2.169527e+03,3.251767e+03
2.170491e+03,3.252054e+03
2.171455e+03,3.262167e+03
2.172420e+03,3.266586e+03
2.173384e+03,3.252335e+03
2.174348e+03,3.235364e+03
2.175312e+03,3.223466e+03
2.176277e+03,3.217397e+03
2.177241e+03,3.224960e+03
2.178205e+03,3.232431e+03
2.179169e+03,3.233840e+03
2.180134e+03,3.231772e+03
2.181098e+03,3.221775e+03
2.182062e+03,3.214183e+03
2.183026e+03,3.213276e+03
2.183990e+03,3.215995e+03
2.184955e+03,3.222933e+03
2.185919e+03,3.226473e+03
2.186883e+03,3.216567e+03
2.187847e+03,3.203226e+03
2.188812e+03,3.201532e+03
2.189776e+03,3.204408e+03
2.190740e+03,3.203967e+03
2.191704e+03,3.200209e+03
2.192668e+03,3.193725e+03
2.193633e+03,3.187007e+03
2.194597e+03,3.183828e+03
2.195561e+03,3.181298e+03
2.196525e+03,3.173606e+03
2.197490e+03,3.165805e+03
2.198454e+03,3.170395e+03
2.199418e+03,3.176739e+03
2.200382e+03,3.176591e+03
2.201347e+03,3.173375e+03
2.202311e+03,3.163795e+03
2.203275e+03,3.157345e+03
2.204239e+03,3.164250e+03
2.205204e+03,3.173743e+03
2.206168e+03,3.179343e+03
2.207132e+03,3.181112e+03
2.208096e+03,3.176553e+03
2.209061e+03,3.163452e+03
2.210025e+03,3.134298e+03
2.210989e+03,3.104078e+03
2.211953e+03,3.098843e+03
2.212917e+03,3.111289e+03
2.213882e+03,3.127363e+03
2.214846e+03,3.140213e+03
2.215810e+03,3.138144e+03
2.216774e+03,3.130315e+03
2.217739e+03,3.134038e+03
2.218703e+03,3.140189e+03
2.219667e+03,3.127652e+03
2.220631e+03,3.110348e+03
2.221595e+03,3.098731e+03
2.222560e+03,3.091970e+03
2.223524e+03,3.093864e+03
2.224488e+03,3.096438e+03
2.225452e+03,3.088862e+03
2.226417e+03,3.081272e+03
2.227381e+03,3.086328e+03
2.228345e+03,3.094478e+03
2.229309e+03,3.083429e+03
2.230274e+03,3.073061e+03
2.231238e+03,3.086323e+03
2.232202e+03,3.105026e+03
2.233166e+03,3.108103e+03
2.234131e+03,3.100312e+03
2.235095e+03,3.082616e+03
2.236059e+03,3.063346e+03
2.237023e+03,3.053614e+03
2.237988e+03,3.048236e+03
2.238952e+03,3.041973e+03
2.239916e+03,3.035867e+03
2.240880e+03,3.035733e+03
2.241844e+03,3.037750e+03
2.242809e+03,3.039445e+03
2.243773e+03,3.039933e+03
2.244737e+03,3.031735e+03
2.245701e+03,3.026270e+03
2.246666e+03,3.037014e+03
2.247630e+03,3.047591e+03
2.248594e+03,3.054047e+03
2.249558e+03,3.052929e+03
2.250522e+03,3.025923e+03
2.251487e+03,3.007379e+03
2.252451e+03,3.014330e+03
2.253415e+03,3.022765e+03
2.254379e+03,3.014011e+03
2.255344e+03,2.997960e+03
2.256308e+03,2.976753e+03
2.257272e+03,2.962081e+03
2.258236e+03,2.970677e+03
2.259201e+03,2.981531e+03
2.260165e+03,2.985469e+03
2.261129e+03,2.989530e+03
2.262093e+03,3.008006e+03
2.263058e+03,3.010584e+03
2.264022e+03,2.989750e+03
2.264986e+03,2.971166e+03
2.265950e+03,2.970200e+03
2.266915e+03,2.972704e+03
2.267879e+03,2.973356e+03
2.268843e+03,2.968476e+03
2.269807e+03,2.960021e+03
2.270771e+03,2.947468e+03
2.271736e+03,2.927291e+03
2.272700e+03,2.922580e+03
2.273664e+03,2.938716e+03
2.274628e+03,2.952598e+03
2.275593e+03,2.954431e+03
2.276557e+03,2.945735e+03
2.277521e+03,2.928556e+03
2.278485e+03,2.919851e+03
2.279449e+03,2.933244e+03
2.280414e+03,2.941739e+03
2.281378e+03,2.943167e+03
2.282342e+03,2.937949e+03
2.283306e+03,2.914003e+03
2.284271e+03,2.905053e+03
2.285235e+03,2.909390e+03
2.286199e+03,2.914379e+03
2.287163e+03,2.921801e+03
2.288128e+03,2.918715e+03
2.289092e+03,2.903920e+03
2.290056e+03,2.890805e+03
2.291020e+03,2.883595e+03
2.291985e+03,2.884084e+03
2.292949e+03,2.893201e+03
2.293913e+03,2.902122e+03
2.294877e+03,2.908332e+03
2.295842e+03,2.913493e+03
2.296806e+03,2.915845e+03
2.297770e+03,2.916586e+03
2.298734e+03,2.912486e+03
2.299698e+03,2.890559e+03
2.300663e+03,2.856458e+03
2.301627e+03,2.848076e+03
2.302591e+03,2.854704e+03
2.303555e+03,2.850447e+03
2.304520e+03,2.839047e+03
2.305484e+03,2.843461e+03
2.306448e+03,2.854632e+03
2.307412e+03,2.854998e+03
2.308376e+03,2.846963e+03
2.309341e+03,2.837741e+03
2.310305e+03,2.828793e+03
2.311269e+03,2.821427e+03
2.312233e+03,2.821517e+03
2.313198e+03,2.847276e+03
2.314162e+03,2.870818e+03
2.315126e+03,2.856133e+03
2.316090e+03,2.831728e+03
2.317055e+03,2.828492e+03
2.318019e+03,2.832778e+03
2.318983e+03,2.831987e+03
2.319947e+03,2.828495e+03
2.320912e+03,2.824813e+03
2.321876e+03,2.823776e+03
2.322840e+03,2.830086e+03
2.323804e+03,2.831089e+03
2.324769e+03,2.818596e+03
2.325733e+03,2.809628e+03
2.326697e+03,2.817694e+03
2.327661e+03,2.823526e+03
2.328625e+03,2.819147e+03
2.329590e+03,2.812603e+03
2.330554e+03,2.812901e+03
2.331518e+03,2.810574e+03
2.332482e+03,2.803777e+03
2.333447e+03,2.796281e+03
2.334411e+03,2.790242e+03
2.335375e+03,2.780029e+03
2.336339e+03,2.765738e+03
2.337303e+03,2.755303e+03
2.338268e+03,2.750375e+03
2.339232e+03,2.748585e+03
2.340196e+03,2.750813e+03
2.341160e+03,2.758826e+03
2.342125e+03,2.773821e+03
2.343089e+03,2.783700e+03
2.344053e+03,2.784316e+03
2.345017e+03,2.771733e+03
2.345982e+03,2.748858e+03
2.346946e+03,2.733015e+03
2.347910e+03,2.725607e+03
2.348874e+03,2.726538e+03
2.349839e+03,2.730392e+03
2.350803e+03,2.728134e+03
2.351767e+03,2.725184e+03
2.352731e+03,2.733688e+03
2.353696e+03,2.746558e+03
2.354660e+03,2.750188e+03
2.355624e+03,2.745626e+03
2.356588e+03,2.732470e+03
2.357552e+03,2.720767e+03
2.358517e+03,2.720615e+03
2.359481e+03,2.724006e+03
2.360445e+03,2.722925e+03
2.361409e+03,2.714728e+03
2.362374e+03,2.694791e+03
2.363338e+03,2.677102e+03
2.364302e+03,2.680667e+03
2.365266e+03,2.692106e+03
2.366230e+03,2.707536e+03
2.367195e+03,2.718493e+03
2.368159e+03,2.716846e+03
2.369123e+03,2.709063e+03
2.370087e+03,2.698204e+03
2.371052e+03,2.686558e+03
2.372016e+03,2.672163e+03
2.372980e+03,2.669791e+03
2.373944e+03,2.678129e+03
2.374909e+03,2.683569e+03
2.375873e+03,2.681471e+03
2.376837e+03,2.684811e+03
2.377801e+03,2.690968e+03
2.378766e+03,2.682531e+03
2.379730e+03,2.658806e+03
2.380694e+03,2.642618e+03
2.381658e+03,2.635229e+03
2.382623e+03,2.637414e+03
2.383587e+03,2.645651e+03
2.384551e+03,2.656537e+03
2.385515e+03,2.664353e+03
2.386479e+03,2.659716e+03
2.387444e+03,2.650615e+03
2.388408e+03,2.647281e+03
2.389372e+03,2.647987e+03
2.390336e+03,2.650223e+03
2.391301e+03,2.651829e+03
2.392265e+03,2.651241e+03
2.393229e+03,2.646061e+03
2.394193e+03,2.634442e+03
2.395157e+03,2.622810e+03
2.396122e+03,2.616312e+03
2.397086e+03,2.609012e+03
2.398050e+03,2.598056e+03
2.399014e+03,2.598860e+03
2.399979e+03,2.622599e+03
2.400943e+03,2.626846e+03
2.401907e+03,2.603662e+03
2.402871e+03,2.592478e+03
2.403836e+03,2.602961e+03
2.404800e+03,2.614931e+03
2.405764e+03,2.624649e+03
2.406728e+03,2.619323e+03
2.407693e+03,2.599554e+03
2.408657e+03,2.588454e+03
2.409621e+03,2.586535e+03
2.410585e+03,2.583863e+03
2.411550e+03,2.583185e+03
2.412514e+03,2.594869e+03
2.413478e+03,2.608012e+03
2.414442e+03,2.586593e+03
2.415406e+03,2.557539e+03
2.416371e+03,2.549007e+03
2.417335e+03,2.552880e+03
2.418299e+03,2.564772e+03
2.419263e+03,2.572517e+03
2.420228e+03,2.568674e+03
2.421192e+03,2.560260e+03
2.422156e+03,2.550147e+03
2.423120e+03,2.547544e+03
2.424084e+03,2.553558e+03
2.425049e+03,2.554516e+03
2.426013e+03,2.543532e+03
2.426977e+03,2.534533e+03
2.427941e+03,2.530938e+03
2.428906e+03,2.536796e+03
2.429870e+03,2.554184e+03
2.430834e+03,2.551217e+03
2.431798e+03,2.533347e+03
2.432763e+03,2.530904e+03
2.433727e+03,2.543069e+03
2.434691e+03,2.548426e+03
2.435655e+03,2.547658e+03
2.436620e+03,2.542335e+03
2.437584e+03,2.534387e+03
2.438548e+03,2.528895e+03
2.439512e+03,2.522141e+03
2.440477e+03,2.507105e+03
2.441441e+03,2.492325e+03
2.442405e+03,2.496042e+03
2.443369e+03,2.503036e+03
2.444333e+03,2.507020e+03
2.445298e+03,2.510395e+03
2.446262e+03,2.512930e+03
2.447226e+03,2.518720e+03
2.448190e+03,2.530108e+03
2.449155e+03,2.533364e+03
2.450119e+03,2.511453e+03
2.451083e+03,2.507769e+03
2.452047e+03,2.519373e+03
2.453011e+03,2.521461e+03
2.453976e+03,2.508896e+03
2.454940e+03,2.494379e+03
2.455904e+03,2.483030e+03
2.456868e+03,2.490423e+03
2.457833e+03,2.505648e+03
2.458797e+03,2.495086e+03
2.459761e+03,2.474415e+03
2.460725e+03,2.462785e+03
2.461690e+03,2.455798e+03
2.462654e+03,2.443616e+03
2.463618e+03,2.439160e+03
2.464582e+03,2.452601e+03
2.465547e+03,2.469251e+03
2.466511e+03,2.474805e+03
2.467475e+03,2.471945e+03
2.468439e+03,2.461664e+03
2.469404e+03,2.449587e+03
2.470368e+03,2.440152e+03
2.471332e+03,2.435057e+03
2.472296e+03,2.432502e+03
2.473260e+03,2.431520e+03
2.474225e+03,2.432463e+03
2.475189e+03,2.430960e+03
2.476153e+03,2.429871e+03
2.477117e+03,2.433164e+03
2.478082e+03,2.437944e+03
2.479046e+03,2.438810e+03
2.480010e+03,2.435316e+03
2.480974e+03,2.426086e+03
2.481938e+03,2.417698e+03
2.482903e+03,2.418410e+03
2.483867e+03,2.425198e+03
2.484831e+03,2.437466e+03
2.485795e+03,2.442198e+03
2.486760e+03,2.422333e+03
2.487724e+03,2.410068e+03
2.488688e+03,2.411676e+03
2.489652e+03,2.411694e+03
2.490617e+03,2.395071e+03
2.491581e+03,2.396390e+03
2.492545e+03,2.412526e+03
2.493509e+03,2.415111e+03
2.494474e+03,2.399634e+03
2.495438e+03,2.388308e+03
2.496402e+03,2.381183e+03
2.497366e+03,2.380168e+03
2.498331e+03,2.382698e+03
2.499295e+03,2.389837e+03
2.500259e+03,2.390516e+03
2.501223e+03,2.376463e+03
2.502188e+03,2.362035e+03
2.503152e+03,2.362114e+03
2.504116e+03,2.365751e+03
2.505080e+03,2.369633e+03
2.506044e+03,2.372472e+03
2.507009e+03,2.372320e+03
2.507973e+03,2.367078e+03
2.508937e+03,2.358665e+03
2.509901e+03,2.355292e+03
2.510865e+03,2.358393e+03
2.511830e+03,2.363856e+03
2.512794e+03,2.367451e+03
2.513758e+03,2.359989e+03
2.514722e+03,2.348422e+03
2.515687e+03,2.346833e+03
2.516651e+03,2.350058e+03
2.517615e+03,2.353230e+03
2.518579e+03,2.354156e+03
2.519544e+03,2.346730e+03
2.520508e+03,2.342854e+03
2.521472e+03,2.348011e+03
2.522436e+03,2.352173e+03
2.523401e+03,2.345731e+03
2.524365e+03,2.344797e+03
2.525329e+03,2.348046e+03
2.526293e+03,2.347737e+03
2.527258e+03,2.343764e+03
2.528222e+03,2.343840e+03
2.529186e+03,2.344433e+03
2.530150e+03,2.332448e+03
2.531115e+03,2.315475e+03
2.532079e+03,2.315273e+03
2.533043e+03,2.324008e+03
2.534007e+03,2.333106e+03
2.534971e+03,2.335834e+03
2.535936e+03,2.321185e+03
2.536900e+03,2.308953e+03
2.537864e+03,2.305785e+03
2.538828e+03,2.306747e+03
2.539792e+03,2.308374e+03
2.540757e+03,2.298768e+03
2.541721e+03,2.277254e+03
2.542685e+03,2.268752e+03
2.543649e+03,2.275452e+03
2.544614e+03,2.292684e+03
2.545578e+03,2.311517e+03
2.546542e+03,2.314894e+03
2.547506e+03,2.307110e+03
2.548471e+03,2.287591e+03
2.549435e+03,2.273387e+03
2.550399e+03,2.285768e+03
2.551363e+03,2.296476e+03
2.552328e+03,2.279191e+03
2.553292e+03,2.265885e+03
2.554256e+03,2.267742e+03
2.555220e+03,2.273478e+03
2.556185e+03,2.279746e+03
2.557149e+03,2.280025e+03
2.558113e+03,2.273070e+03
2.559077e+03,2.267744e+03
2.560042e+03,2.264325e+03
2.561006e+03,2.274390e+03
2.561970e+03,2.288441e+03
2.562934e+03,2.272766e+03
2.563898e+03,2.252469e+03
2.564863e+03,2.259433e+03
2.565827e+03,2.266793e+03
2.566791e+03,2.252295e+03
2.567755e+03,2.249018e+03
2.568719e+03,2.262202e+03
2.569684e+03,2.271293e+03
2.570648e+03,2.268746e+03
2.571612e+03,2.252147e+03
2.572576e+03,2.229027e+03
2.573541e+03,2.230050e+03
2.574505e+03,2.249815e+03
2.575469e+03,2.257203e+03
2.576433e+03,2.254331e+03
2.577398e+03,2.244995e+03
2.578362e+03,2.235603e+03
2.579326e+03,2.233472e+03
2.580290e+03,2.237227e+03
2.581255e+03,2.245211e+03
2.582219e+03,2.249538e+03
2.583183e+03,2.243438e+03
2.584147e+03,2.237346e+03
2.585112e+03,2.234535e+03
2.586076e+03,2.227329e+03
2.587040e+03,2.214395e+03
2.588004e+03,2.213243e+03
2.588969e+03,2.218624e+03
2.589933e+03,2.223202e+03
2.590897e+03,2.226880e+03
2.591861e+03,2.231509e+03
2.592825e+03,2.231063e+03
2.593790e+03,2.219200e+03
2.594754e+03,2.207346e+03
2.595718e+03,2.202780e+03
2.596682e+03,2.204667e+03
2.597646e+03,2.212520e+03
2.598611e+03,2.208890e+03
2.599575e+03,2.195613e+03
2.600539e+03,2.181599e+03
2.601503e+03,2.171008e+03
2.602468e+03,2.179706e+03
2.603432e+03,2.193801e+03
2.604396e+03,2.186559e+03
2.605360e+03,2.172464e+03
2.606325e+03,2.154796e+03
2.607289e+03,2.146764e+03
2.608253e+03,2.155156e+03
2.609217e+03,2.164929e+03
2.610182e+03,2.167828e+03
2.611146e+03,2.161463e+03
2.612110e+03,2.149004e+03
2.613074e+03,2.145386e+03
2.614039e+03,2.151835e+03
2.615003e+03,2.155695e+03
2.615967e+03,2.157741e+03
2.616931e+03,2.165301e+03
2.617896e+03,2.173578e+03
2.618860e+03,2.178347e+03
2.619824e+03,2.172423e+03
2.620788e+03,2.152127e+03
2.621752e+03,2.135444e+03
2.622717e+03,2.132900e+03
2.623681e+03,2.144888e+03
2.624645e+03,2.167508e+03
2.625609e+03,2.177686e+03
2.626573e+03,2.174882e+03
2.627538e+03,2.153702e+03
2.628502e+03,2.133671e+03
2.629466e+03,2.145024e+03
2.630430e+03,2.160036e+03
2.631395e+03,2.131874e+03
2.632359e+03,2.109549e+03
2.633323e+03,2.112064e+03
2.634287e+03,2.119175e+03
2.635252e+03,2.125981e+03
2.636216e+03,2.136966e+03
2.637180e+03,2.149555e+03
2.638144e+03,2.142049e+03
2.639109e+03,2.122504e+03
2.640073e+03,2.116445e+03
2.641037e+03,2.120077e+03
2.642001e+03,2.126077e+03
2.642966e+03,2.128758e+03
2.643930e+03,2.124667e+03
2.644894e+03,2.119701e+03
2.645858e+03,2.117759e+03
2.646823e+03,2.116212e+03
2.647787e+03,2.113410e+03
2.648751e+03,2.110632e+03
2.649715e+03,2.107535e+03
2.650679e+03,2.108578e+03
2.651644e+03,2.106850e+03
2.652608e+03,2.089444e+03
2.653572e+03,2.069882e+03
2.654536e+03,2.069733e+03
2.655500e+03,2.076319e+03
2.656465e+03,2.086431e+03
2.657429e+03,2.090526e+03
2.658393e+03,2.084088e+03
2.659357e+03,2.073626e+03
2.660322e+03,2.064567e+03
2.661286e+03,2.068565e+03
2.662250e+03,2.079385e+03
2.663214e+03,2.076101e+03
2.664179e+03,2.071779e+03
2.665143e+03,2.095819e+03
2.666107e+03,2.103104e+03
2.667071e+03,2.067624e+03
2.668036e+03,2.040952e+03
2.669000e+03,2.053001e+03
2.669964e+03,2.061198e+03
2.670928e+03,2.064095e+03
2.671893e+03,2.072427e+03
2.672857e+03,2.084114e+03
2.673821e+03,2.074481e+03
2.674785e+03,2.058167e+03
2.675750e+03,2.053136e+03
2.676714e+03,2.053904e+03
2.677678e+03,2.053298e+03
2.678642e+03,2.058336e+03
2.679606e+03,2.071875e+03
2.680571e+03,2.069897e+03
2.681535e+03,2.049649e+03
2.682499e+03,2.043564e+03
2.683463e+03,2.048885e+03
2.684427e+03,2.049592e+03
2.685392e+03,2.047956e+03
2.686356e+03,2.044592e+03
2.687320e+03,2.041063e+03
2.688284e+03,2.038636e+03
2.689249e+03,2.040443e+03
2.690213e+03,2.045875e+03
2.691177e+03,2.041188e+03
2.692141e+03,2.022625e+03
2.693106e+03,2.013514e+03
2.694070e+03,2.012901e+03
2.695034e+03,2.019898e+03
2.695998e+03,2.027226e+03
2.696963e+03,2.020361e+03
2.697927e+03,2.015424e+03
2.698891e+03,2.018727e+03
2.699855e+03,2.019289e+03
2.700820e+03,2.010407e+03
2.701784e+03,2.024015e+03
2.702748e+03,2.054600e+03
2.703712e+03,2.046900e+03
2.704677e+03,2.013456e+03
2.705641e+03,1.998685e+03
2.706605e+03,1.996737e+03
2.707569e+03,1.997735e+03
2.708533e+03,2.001798e+03
2.709498e+03,2.008407e+03
2.710462e+03,2.011511e+03
2.711426e+03,2.010006e+03
2.712390e+03,2.006185e+03
2.713354e+03,2.000714e+03
2.714319e+03,1.996998e+03
2.715283e+03,1.994424e+03
2.716247e+03,1.992391e+03
2.717211e+03,1.992026e+03
2.718176e+03,1.994575e+03
2.719140e+03,1.995987e+03
2.720104e+03,1.991381e+03
2.721068e+03,1.991819e+03
2.722033e+03,1.998068e+03
2.722997e+03,1.999052e+03
2.723961e+03,1.993453e+03
2.724925e+03,1.976959e+03
2.725890e+03,1.961090e+03
2.726854e+03,1.959437e+03
2.727818e+03,1.968078e+03
2.728782e+03,1.983333e+03
2.729747e+03,1.991861e+03
2.730711e+03,1.983753e+03
2.731675e+03,1.977268e+03
2.732639e+03,1.973731e+03
2.733604e+03,1.976549e+03
2.734568e+03,1.979902e+03
2.735532e+03,1.961066e+03
2.736496e+03,1.947794e+03
2.737460e+03,1.963680e+03
2.738425e+03,1.977775e+03
2.739389e+03,1.968460e+03
2.740353e+03,1.964245e+03
2.741317e+03,1.970073e+03
2.742281e+03,1.974621e+03
2.743246e+03,1.977219e+03
2.744210e+03,1.972242e+03
2.745174e+03,1.962018e+03
2.746138e+03,1.953237e+03
2.747103e+03,1.943836e+03
2.748067e+03,1.933682e+03
2.749031e+03,1.928242e+03
2.749995e+03,1.928475e+03
2.750960e+03,1.942036e+03
2.751924e+03,1.962276e+03
2.752888e+03,1.967674e+03
2.753852e+03,1.960917e+03
2.754817e+03,1.941417e+03
2.755781e+03,1.927737e+03
2.756745e+03,1.930904e+03
2.757709e+03,1.936938e+03
2.758674e+03,1.939456e+03
2.759638e+03,1.925016e+03
2.760602e+03,1.896707e+03
2.761566e+03,1.912178e+03
2.762531e+03,1.941457e+03
2.763495e+03,1.922851e+03
2.764459e+03,1.895098e+03
2.765423e+03,1.899790e+03
2.766387e+03,1.904347e+03
2.767352e+03,1.902652e+03
2.768316e+03,1.917721e+03
2.769280e+03,1.952420e+03
2.770244e+03,1.938598e+03
2.771208e+03,1.904833e+03
2.772173e+03,1.911422e+03
2.773137e+03,1.928432e+03
2.774101e+03,1.926261e+03
2.775065e+03,1.923502e+03
2.776030e+03,1.926072e+03
2.776994e+03,1.924656e+03
2.777958e+03,1.917586e+03
2.778922e+03,1.907601e+03
2.779887e+03,1.898645e+03
2.780851e+03,1.895692e+03
2.781815e+03,1.902573e+03
2.782779e+03,1.925315e+03
2.783744e+03,1.935872e+03
2.784708e+03,1.908234e+03
2.785672e+03,1.892761e+03
2.786636e+03,1.892813e+03
2.787601e+03,1.897895e+03
2.788565e+03,1.903969e+03
2.789529e+03,1.895023e+03
2.790493e+03,1.886754e+03
2.791458e+03,1.894941e+03
2.792422e+03,1.899786e+03
2.793386e+03,1.898987e+03
2.794350e+03,1.891372e+03
2.795314e+03,1.875753e+03
2.796279e+03,1.877944e+03
2.797243e+03,1.887109e+03
2.798207e+03,1.889356e+03
2.799171e+03,1.889729e+03
2.800135e+03,1.896432e+03
2.801100e+03,1.887975e+03
2.802064e+03,1.858583e+03
2.803028e+03,1.855632e+03
2.803992e+03,1.874846e+03
2.804957e+03,1.884619e+03
2.805921e+03,1.884594e+03
2.806885e+03,1.871464e+03
2.807849e+03,1.856986e+03
2.808814e+03,1.846797e+03
2.809778e+03,1.841645e+03
2.810742e+03,1.844712e+03
2.811706e+03,1.842653e+03
2.812671e+03,1.835615e+03
2.813635e+03,1.830034e+03
2.814599e+03,1.828508e+03
2.815563e+03,1.841455e+03
2.816528e+03,1.856270e+03
2.817492e+03,1.869760e+03
2.818456e+03,1.872214e+03
2.819420e+03,1.862760e+03
2.820385e+03,1.846228e+03
2.821349e+03,1.831203e+03
2.822313e+03,1.843711e+03
2.823277e+03,1.857908e+03
2.824241e+03,1.851096e+03
2.825206e+03,1.843542e+03
2.826170e+03,1.849855e+03
2.827134e+03,1.855472e+03
2.828098e+03,1.855758e+03
2.829063e+03,1.843123e+03
2.830027e+03,1.825862e+03
2.830991e+03,1.823971e+03
2.831955e+03,1.829801e+03
2.832919e+03,1.837836e+03
2.833884e+03,1.840149e+03
2.834848e+03,1.836162e+03
2.835812e+03,1.846078e+03
2.836776e+03,1.867381e+03
2.837741e+03,1.853012e+03
2.838705e+03,1.832551e+03
2.839669e+03,1.837705e+03
2.840633e+03,1.853586e+03
2.841598e+03,1.874715e+03
2.842562e+03,1.871208e+03
2.843526e+03,1.835635e+03
2.844490e+03,1.820552e+03
2.845455e+03,1.818013e+03
2.846419e+03,1.817607e+03
2.847383e+03,1.817306e+03
2.848347e+03,1.810528e+03
2.849312e+03,1.817331e+03
2.850276e+03,1.839916e+03
2.851240e+03,1.846161e+03
2.852204e+03,1.835660e+03
2.853168e+03,1.822895e+03
2.854133e+03,1.812534e+03
2.855097e+03,1.809155e+03
2.856061e+03,1.817467e+03
2.857025e+03,1.834957e+03
2.857990e+03,1.838456e+03
2.858954e+03,1.821404e+03
2.859918e+03,1.814155e+03
2.860882e+03,1.815037e+03
2.861846e+03,1.820629e+03
2.862811e+03,1.824592e+03
2.863775e+03,1.819199e+03
2.864739e+03,1.817240e+03
2.865703e+03,1.822273e+03
2.866668e+03,1.834264e+03
2.867632e+03,1.844194e+03
2.868596e+03,1.821363e+03
2.869560e+03,1.792957e+03
2.870525e+03,1.793257e+03
2.871489e+03,1.804937e+03
2.872453e+03,1.822055e+03
2.873417e+03,1.834137e+03
2.874382e+03,1.838550e+03
2.875346e+03,1.822346e+03
2.876310e+03,1.804291e+03
2.877274e+03,1.812574e+03
2.878239e+03,1.816408e+03
2.879203e+03,1.802965e+03
2.880167e+03,1.793971e+03
2.881131e+03,1.798372e+03
2.882095e+03,1.804162e+03
2.883060e+03,1.811216e+03
2.884024e+03,1.818919e+03
2.884988e+03,1.822179e+03
2.885952e+03,1.813287e+03
2.886917e+03,1.811945e+03
2.887881e+03,1.824800e+03
2.888845e+03,1.817362e+03
2.889809e+03,1.798978e+03
2.890773e+03,1.787782e+03
2.891738e+03,1.783528e+03
2.892702e+03,1.796520e+03
2.893666e+03,1.807705e+03
2.894630e+03,1.813000e+03
2.895595e+03,1.801584e+03
2.896559e+03,1.780894e+03
2.897523e+03,1.787163e+03
2.898487e+03,1.799369e+03
2.899452e+03,1.796096e+03
2.900416e+03,1.782703e+03
2.901380e+03,1.762089e+03
2.902344e+03,1.765643e+03
2.903309e+03,1.792348e+03
2.904273e+03,1.794022e+03
2.905237e+03,1.781058e+03
2.906201e+03,1.761678e+03
2.907166e+03,1.756743e+03
2.908130e+03,1.774995e+03
2.909094e+03,1.776640e+03
2.910058e+03,1.757940e+03
2.911022e+03,1.767845e+03
2.911987e+03,1.780870e+03
2.912951e+03,1.764365e+03
2.913915e+03,1.753119e+03
2.914879e+03,1.779456e+03
2.915844e+03,1.773931e+03
2.916808e+03,1.738957e+03
2.917772e+03,1.731426e+03
2.918736e+03,1.744370e+03
2.919700e+03,1.770635e+03
2.920665e+03,1.785926e+03
2.921629e+03,1.765084e+03
2.922593e+03,1.743677e+03
2.923557e+03,1.728797e+03
2.924522e+03,1.739130e+03
2.925486e+03,1.760290e+03
2.926450e+03,1.765738e+03
2.927414e+03,1.759903e+03
2.928379e+03,1.740602e+03
2.929343e+03,1.719015e+03
2.930307e+03,1.699413e+03
2.931271e+03,1.706113e+03
2.932236e+03,1.723498e+03
2.933200e+03,1.719341e+03
2.934164e+03,1.718858e+03
2.935128e+03,1.730966e+03
2.936093e+03,1.732964e+03
2.937057e+03,1.726860e+03
2.938021e+03,1.742003e+03
2.938985e+03,1.761855e+03
2.939949e+03,1.750895e+03
2.940914e+03,1.738760e+03
2.941878e+03,1.737144e+03
2.942842e+03,1.728617e+03
2.943806e+03,1.708536e+03
2.944771e+03,1.695793e+03
2.945735e+03,1.693563e+03
2.946699e+03,1.710267e+03
2.947663e+03,1.718484e+03
2.948627e+03,1.707739e+03
2.949592e+03,1.715909e+03
2.950556e+03,1.746066e+03
2.951520e+03,1.731418e+03
2.952484e+03,1.701789e+03
2.953449e+03,1.688245e+03
2.954413e+03,1.694597e+03
2.955377e+03,1.723018e+03
2.956341e+03,1.740287e+03
2.957306e+03,1.739677e+03
2.958270e+03,1.715518e+03
2.959234e+03,1.692315e+03
2.960198e+03,1.693654e+03
2.961163e+03,1.700750e+03
2.962127e+03,1.700928e+03
2.963091e+03,1.699131e+03
2.964055e+03,1.692588e+03
2.965020e+03,1.678648e+03
2.965984e+03,1.671562e+03
2.966948e+03,1.679219e+03
2.967912e+03,1.685601e+03
2.968876e+03,1.682573e+03
2.969841e+03,1.695973e+03
2.970805e+03,1.709335e+03
2.971769e+03,1.693210e+03
2.972733e+03,1.669269e+03
2.973698e+03,1.651170e+03
2.974662e+03,1.654570e+03
2.975626e+03,1.685559e+03
2.976590e+03,1.694839e+03
2.977554e+03,1.693557e+03
2.978519e+03,1.697301e+03
2.979483e+03,1.694035e+03
2.980447e+03,1.674572e+03
2.981411e+03,1.664378e+03
2.982376e+03,1.668371e+03
2.983340e+03,1.684414e+03
2.984304e+03,1.689544e+03
2.985268e+03,1.660039e+03
2.986233e+03,1.636492e+03
2.987197e+03,1.644509e+03
2.988161e+03,1.649098e+03
2.989125e+03,1.648028e+03
2.990090e+03,1.637838e+03
2.991054e+03,1.626111e+03
2.992018e+03,1.618098e+03
2.992982e+03,1.615715e+03
2.993947e+03,1.623654e+03
2.994911e+03,1.626397e+03
2.995875e+03,1.629629e+03
2.996839e+03,1.641770e+03
2.997803e+03,1.644083e+03
2.998768e+03,1.625260e+03
2.999732e+03,1.618396e+03
3.000696e+03,1.630646e+03
3.001660e+03,1.633380e+03
3.002625e+03,1.630361e+03
3.003589e+03,1.627302e+03
3.004553e+03,1.628500e+03
3.005517e+03,1.638291e+03
3.006481e+03,1.628042e+03
3.007446e+03,1.605447e+03
3.008410e+03,1.621539e+03
3.009374e+03,1.633624e+03
3.010338e+03,1.616859e+03
3.011303e+03,1.609754e+03
3.012267e+03,1.621576e+03
3.013231e+03,1.638343e+03
3.014195e+03,1.650405e+03
3.015160e+03,1.645222e+03
3.016124e+03,1.628721e+03
3.017088e+03,1.604326e+03
3.018052e+03,1.603583e+03
3.019017e+03,1.624679e+03
3.019981e+03,1.627885e+03
3.020945e+03,1.626717e+03
3.021909e+03,1.635843e+03
3.022874e+03,1.628121e+03
3.023838e+03,1.602185e+03
3.024802e+03,1.598070e+03
3.025766e+03,1.607186e+03
3.026730e+03,1.598385e+03
3.027695e+03,1.586676e+03
3.028659e+03,1.578399e+03
3.029623e+03,1.603230e+03
3.030587e+03,1.649537e+03
3.031552e+03,1.655306e+03
3.032516e+03,1.636809e+03
3.033480e+03,1.599421e+03
3.034444e+03,1.588034e+03
3.035408e+03,1.606258e+03
3.036373e+03,1.602896e+03
3.037337e+03,1.584750e+03
3.038301e+03,1.585994e+03
3.039265e+03,1.592803e+03
3.040230e+03,1.597605e+03
3.041194e+03,1.603019e+03
3.042158e+03,1.608496e+03
3.043122e+03,1.615399e+03
3.044087e+03,1.616019e+03
3.045051e+03,1.587721e+03
3.046015e+03,1.577891e+03
3.046979e+03,1.604184e+03
3.047944e+03,1.610196e+03
3.048908e+03,1.600560e+03
3.049872e+03,1.580086e+03
3.050836e+03,1.572528e+03
3.051801e+03,1.597411e+03
3.052765e+03,1.598755e+03
3.053729e+03,1.577520e+03
3.054693e+03,1.588366e+03
3.055657e+03,1.608285e+03
3.056622e+03,1.619524e+03
3.057586e+03,1.610370e+03
3.058550e+03,1.580297e+03
3.059514e+03,1.578175e+03
3.060479e+03,1.594080e+03
3.061443e+03,1.620320e+03
3.062407e+03,1.604686e+03
3.063371e+03,1.542525e+03
3.064335e+03,1.541524e+03
3.065300e+03,1.590539e+03
3.066264e+03,1.603228e+03
3.067228e+03,1.599406e+03
3.068192e+03,1.586344e+03
3.069157e+03,1.573514e+03
3.070121e+03,1.566595e+03
3.071085e+03,1.594926e+03
3.072049e+03,1.620495e+03
3.073014e+03,1.564214e+03
3.073978e+03,1.544135e+03
3.074942e+03,1.583758e+03
3.075906e+03,1.598630e+03
3.076871e+03,1.591980e+03
3.077835e+03,1.573401e+03
3.078799e+03,1.556670e+03
3.079763e+03,1.547906e+03
3.080728e+03,1.561488e+03
3.081692e+03,1.586294e+03
3.082656e+03,1.574774e+03
3.083620e+03,1.558470e+03
3.084584e+03,1.556182e+03
3.085549e+03,1.568596e+03
3.086513e+03,1.593738e+03
3.087477e+03,1.579160e+03
3.088441e+03,1.556231e+03
3.089406e+03,1.566272e+03
3.090370e+03,1.561706e+03
3.091334e+03,1.539736e+03
3.092298e+03,1.545184e+03
3.093262e+03,1.566531e+03
3.094227e+03,1.587925e+03
3.095191e+03,1.593048e+03
3.096155e+03,1.573765e+03
3.097119e+03,1.559667e+03
3.098084e+03,1.555089e+03
3.099048e+03,1.560761e+03
3.100012e+03,1.571708e+03
3.100976e+03,1.588567e+03
3.101941e+03,1.588813e+03
3.102905e+03,1.571336e+03
3.103869e+03,1.543109e+03
3.104833e+03,1.527254e+03
3.105798e+03,1.537969e+03
3.106762e+03,1.535685e+03
3.107726e+03,1.516397e+03
3.108690e+03,1.536122e+03
3.109655e+03,1.566379e+03
3.110619e+03,1.579211e+03
3.111583e+03,1.567913e+03
3.112547e+03,1.540552e+03
3.113511e+03,1.533130e+03
3.114476e+03,1.544454e+03
3.115440e+03,1.589941e+03
3.116404e+03,1.609193e+03
3.117368e+03,1.574378e+03
3.118333e+03,1.551628e+03
3.119297e+03,1.542363e+03
3.120261e+03,1.544278e+03
3.121225e+03,1.547777e+03
3.122189e+03,1.546887e+03
3.123154e+03,1.550523e+03
3.124118e+03,1.551230e+03
3.125082e+03,1.518674e+03
3.126046e+03,1.497809e+03
3.127011e+03,1.508488e+03
3.127975e+03,1.505432e+03
3.128939e+03,1.490891e+03
3.129903e+03,1.517015e+03
3.130868e+03,1.541172e+03
3.131832e+03,1.504153e+03
3.132796e+03,1.524242e+03
3.133760e+03,1.584287e+03
3.134725e+03,1.550255e+03
3.135689e+03,1.509759e+03
3.136653e+03,1.551457e+03
3.137617e+03,1.567144e+03
3.138582e+03,1.526254e+03
3.139546e+03,1.547318e+03
3.140510e+03,1.572374e+03
3.141474e+03,1.536010e+03
3.142438e+03,1.526508e+03
3.143403e+03,1.551535e+03
3.144367e+03,1.529331e+03
3.145331e+03,1.494116e+03
3.146295e+03,1.513150e+03
3.147260e+03,1.533290e+03
3.148224e+03,1.540146e+03
3.149188e+03,1.575796e+03
3.150152e+03,1.602148e+03
3.151116e+03,1.567293e+03
3.152081e+03,1.535352e+03
3.153045e+03,1.531185e+03
3.154009e+03,1.536314e+03
3.154973e+03,1.541954e+03
3.155938e+03,1.528116e+03
3.156902e+03,1.508465e+03
3.157866e+03,1.487962e+03
3.158830e+03,1.505905e+03
3.159795e+03,1.542510e+03
3.160759e+03,1.534118e+03
3.161723e+03,1.521879e+03
3.162687e+03,1.529711e+03
3.163652e+03,1.536385e+03
3.164616e+03,1.541990e+03
3.165580e+03,1.541045e+03
3.166544e+03,1.545242e+03
3.167509e+03,1.559416e+03
3.168473e+03,1.554974e+03
3.169437e+03,1.536327e+03
3.170401e+03,1.519577e+03
3.171365e+03,1.507098e+03
3.172330e+03,1.501274e+03
3.173294e+03,1.532568e+03
3.174258e+03,1.576109e+03
3.175222e+03,1.581312e+03
3.176187e+03,1.573327e+03
3.177151e+03,1.571684e+03
3.178115e+03,1.544149e+03
3.179079e+03,1.508140e+03
3.180043e+03,1.521128e+03
3.181008e+03,1.539701e+03
3.181972e+03,1.547924e+03
3.182936e+03,1.547012e+03
3.183900e+03,1.541434e+03
3.184865e+03,1.541413e+03
3.185829e+03,1.546703e+03
3.186793e+03,1.579873e+03
3.187757e+03,1.547209e+03
3.188722e+03,1.486448e+03
3.189686e+03,1.481749e+03
3.190650e+03,1.499930e+03
3.191614e+03,1.521036e+03
3.192579e+03,1.533093e+03
3.193543e+03,1.537437e+03
3.194507e+03,1.539129e+03
3.195471e+03,1.542088e+03
3.196436e+03,1.546046e+03
3.197400e+03,1.538865e+03
3.198364e+03,1.535235e+03
3.199328e+03,1.567270e+03
3.200292e+03,1.563070e+03
3.201257e+03,0.000000e+00
3.202221e+03,0.000000e+00
3.203185e+03,0.000000e+00
3.204149e+03,0.000000e+00
3.205114e+03,0.000000e+00
3.206078e+03,0.000000e+00
3.207042e+03,0.000000e+00
3.208006e+03,0.000000e+00
3.208970e+03,0.000000e+00
3.209935e+03,0.000000e+00
3.210899e+03,0.000000e+00
3.211863e+03,0.000000e+00
3.212827e+03,0.000000e+00
3.213792e+03,0.000000e+00
3.214756e+03,0.000000e+00
3.215720e+03,0.000000e+00
3.216684e+03,0.000000e+00
3.217649e+03,0.000000e+00
3.218613e+03,0.000000e+00
3.219577e+03,0.000000e+00
3.220541e+03,0.000000e+00
3.221506e+03,0.000000e+00
3.222470e+03,0.000000e+00
3.223434e+03,0.000000e+00
3.224398e+03,0.000000e+00
3.225363e+03,0.000000e+00
3.226327e+03,0.000000e+00
3.227291e+03,0.000000e+00
3.228255e+03,0.000000e+00
3.229219e+03,0.000000e+00
3.230184e+03,0.000000e+00
3.231148e+03,0.000000e+00
3.232112e+03,0.000000e+00
3.233076e+03,0.000000e+00
3.234041e+03,0.000000e+00
3.235005e+03,0.000000e+00
3.235969e+03,0.000000e+00
3.236933e+03,0.000000e+00
3.237897e+03,0.000000e+00
3.238862e+03,0.000000e+00
3.239826e+03,0.000000e+00
3.240790e+03,0.000000e+00
3.241754e+03,0.000000e+00
3.242719e+03,0.000000e+00
3.243683e+03,0.000000e+00
3.244647e+03,0.000000e+00
3.245611e+03,0.000000e+00
3.246576e+03,0.000000e+00
3.247540e+03,0.000000e+00
3.248504e+03,0.000000e+00
3.249468e+03,0.000000e+00
3.250433e+03,0.000000e+00
3.251397e+03,0.000000e+00
3.252361e+03,0.000000e+00
3.253325e+03,0.000000e+00
3.254290e+03,0.000000e+00
3.255254e+03,0.000000e+00
3.256218e+03,0.000000e+00
3.257182e+03,0.000000e+00
3.258146e+03,0.000000e+00
3.259111e+03,0.000000e+00
3.260075e+03,0.000000e+00
3.261039e+03,0.000000e+00
3.262003e+03,0.000000e+00
3.262968e+03,0.000000e+00
3.263932e+03,0.000000e+00
3.264896e+03,0.000000e+00
3.265860e+03,0.000000e+00
3.266824e+03,0.000000e+00
3.267789e+03,0.000000e+00
3.268753e+03,0.000000e+00
3.269717e+03,0.000000e+00
3.270681e+03,0.000000e+00
3.271646e+03,0.000000e+00
3.272610e+03,0.000000e+00
3.273574e+03,0.000000e+00
3.274538e+03,0.000000e+00
3.275503e+03,0.000000e+00
3.276467e+03,0.000000e+00
3.277431e+03,0.000000e+00
3.278395e+03,0.000000e+00
3.279360e+03,0.000000e+00
3.280324e+03,0.000000e+00
3.281288e+03,0.000000e+00
3.282252e+03,0.000000e+00
3.283217e+03,0.000000e+00
3.284181e+03,0.000000e+00
3.285145e+03,0.000000e+00
3.286109e+03,0.000000e+00
3.287073e+03,0.000000e+00
3.288038e+03,0.000000e+00
3.289002e+03,0.000000e+00
3.289966e+03,0.000000e+00
3.290930e+03,0.000000e+00
3.291895e+03,0.000000e+00
3.292859e+03,0.000000e+00
3.293823e+03,0.000000e+00
3.294787e+03,0.000000e+00
3.295751e+03,0.000000e+00
3.296716e+03,0.000000e+00
3.297680e+03,0.000000e+00
3.298644e+03,0.000000e+00
3.299608e+03,0.000000e+00
3.300573e+03,0.000000e+00
3.301537e+03,0.000000e+00
3.302501e+03,0.000000e+00
3.303465e+03,0.000000e+00
3.304430e+03,0.000000e+00
3.305394e+03,0.000000e+00
3.306358e+03,0.000000e+00
3.307322e+03,0.000000e+00
3.308287e+03,0.000000e+00
3.309251e+03,0.000000e+00
3.310215e+03,0.000000e+00
3.311179e+03,0.000000e+00
3.312144e+03,0.000000e+00
3.313108e+03,0.000000e+00
3.314072e+03,0.000000e+00
3.315036e+03,0.000000e+00
3.316000e+03,0.000000e+00
3.316965e+03,0.000000e+00
3.317929e+03,0.000000e+00
3.318893e+03,0.000000e+00
3.319857e+03,0.000000e+00
3.320822e+03,0.000000e+00
3.321786e+03,0.000000e+00
3.322750e+03,0.000000e+00
3.323714e+03,0.000000e+00
3.324678e+03,0.000000e+00
3.325643e+03,0.000000e+00
3.326607e+03,0.000000e+00
3.327571e+03,0.000000e+00
3.328535e+03,0.000000e+00
3.329500e+03,0.000000e+00
3.330464e+03,0.000000e+00
3.331428e+03,0.000000e+00
3.332392e+03,0.000000e+00
3.333357e+03,0.000000e+00
3.334321e+03,0.000000e+00
3.335285e+03,0.000000e+00
3.336249e+03,0.000000e+00
3.337214e+03,0.000000e+00
3.338178e+03,0.000000e+00
3.339142e+03,0.000000e+00
3.340106e+03,0.000000e+00
3.341071e+03,0.000000e+00
3.342035e+03,0.000000e+00
3.342999e+03,0.000000e+00
3.343963e+03,0.000000e+00
3.344927e+03,0.000000e+00
3.345892e+03,0.000000e+00
3.346856e+03,0.000000e+00
3.347820e+03,0.000000e+00
3.348784e+03,0.000000e+00
3.349749e+03,0.000000e+00
3.350713e+03,0.000000e+00
3.351677e+03,0.000000e+00
3.352641e+03,0.000000e+00
3.353605e+03,0.000000e+00
3.354570e+03,0.000000e+00
3.355534e+03,0.000000e+00
3.356498e+03,0.000000e+00
3.357462e+03,0.000000e+00
3.358427e+03,0.000000e+00
3.359391e+03,0.000000e+00
3.360355e+03,0.000000e+00
3.361319e+03,0.000000e+00
3.362284e+03,0.000000e+00
3.363248e+03,0.000000e+00
3.364212e+03,0.000000e+00
3.365176e+03,0.000000e+00
3.366141e+03,0.000000e+00
3.367105e+03,0.000000e+00
3.368069e+03,0.000000e+00
3.369033e+03,0.000000e+00
3.369998e+03,0.000000e+00
3.370962e+03,0.000000e+00
3.371926e+03,0.000000e+00
3.372890e+03,0.000000e+00
3.373854e+03,0.000000e+00
3.374819e+03,0.000000e+00
3.375783e+03,0.000000e+00
3.376747e+03,0.000000e+00
3.377711e+03,0.000000e+00
3.378676e+03,0.000000e+00
3.379640e+03,0.000000e+00
3.380604e+03,0.000000e+00
3.381568e+03,0.000000e+00
3.382532e+03,0.000000e+00
3.383497e+03,0.000000e+00
3.384461e+03,0.000000e+00
3.385425e+03,0.000000e+00
3.386389e+03,0.000000e+00
3.387354e+03,0.000000e+00
3.388318e+03,0.000000e+00
3.389282e+03,0.000000e+00
3.390246e+03,0.000000e+00
3.391211e+03,0.000000e+00
3.392175e+03,0.000000e+00
3.393139e+03,0.000000e+00
3.394103e+03,0.000000e+00
3.395068e+03,0.000000e+00
3.396032e+03,0.000000e+00
3.396996e+03,0.000000e+00
3.397960e+03,0.000000e+00
3.398925e+03,0.000000e+00
3.399889e+03,0.000000e+00
3.400853e+03,0.000000e+00
3.401817e+03,0.000000e+00
3.402781e+03,0.000000e+00
3.403746e+03,0.000000e+00
3.404710e+03,0.000000e+00
3.405674e+03,0.000000e+00
3.406638e+03,0.000000e+00
3.407603e+03,0.000000e+00
3.408567e+03,0.000000e+00
3.409531e+03,0.000000e+00
3.410495e+03,0.000000e+00
3.411459e+03,0.000000e+00
3.412424e+03,0.000000e+00
3.413388e+03,0.000000e+00
3.414352e+03,0.000000e+00
3.415316e+03,0.000000e+00
3.416281e+03,0.000000e+00
3.417245e+03,0.000000e+00
3.418209e+03,0.000000e+00
3.419173e+03,0.000000e+00
3.420138e+03,0.000000e+00
3.421102e+03,0.000000e+00
3.422066e+03,0.000000e+00
3.423030e+03,0.000000e+00
3.423995e+03,0.000000e+00
3.424959e+03,0.000000e+00
3.425923e+03,0.000000e+00
3.426887e+03,0.000000e+00
3.427852e+03,0.000000e+00
3.428816e+03,0.000000e+00
3.429780e+03,0.000000e+00
3.430744e+03,0.000000e+00
3.431708e+03,0.000000e+00
3.432673e+03,0.000000e+00
3.433637e+03,0.000000e+00
3.434601e+03,0.000000e+00
3.435565e+03,0.000000e+00
3.436530e+03,0.000000e+00
3.437494e+03,0.000000e+00
3.438458e+03,0.000000e+00
3.439422e+03,0.000000e+00
3.440386e+03,0.000000e+00
3.441351e+03,0.000000e+00
3.442315e+03,0.000000e+00
3.443279e+03,0.000000e+00
3.444243e+03,0.000000e+00
3.445208e+03,0.000000e+00
3.446172e+03,0.000000e+00
3.447136e+03,0.000000e+00
3.448100e+03,0.000000e+00
3.449065e+03,0.000000e+00
3.450029e+03,0.000000e+00
3.450993e+03,0.000000e+00
3.451957e+03,0.000000e+00
3.452922e+03,0.000000e+00
3.453886e+03,0.000000e+00
3.454850e+03,0.000000e+00
3.455814e+03,0.000000e+00
3.456779e+03,0.000000e+00
3.457743e+03,0.000000e+00
3.458707e+03,0.000000e+00
3.459671e+03,0.000000e+00
3.460635e+03,0.000000e+00
3.461600e+03,0.000000e+00
3.462564e+03,0.000000e+00
3.463528e+03,0.000000e+00
3.464492e+03,0.000000e+00
3.465457e+03,0.000000e+00
3.466421e+03,0.000000e+00
3.467385e+03,0.000000e+00
3.468349e+03,0.000000e+00
3.469313e+03,0.000000e+00
3.470278e+03,0.000000e+00
3.471242e+03,0.000000e+00
3.472206e+03,0.000000e+00
3.473170e+03,0.000000e+00
3.474135e+03,0.000000e+00
3.475099e+03,0.000000e+00
3.476063e+03,0.000000e+00
3.477027e+03,0.000000e+00
3.477992e+03,0.000000e+00
3.478956e+03,0.000000e+00
3.479920e+03,0.000000e+00
3.480884e+03,0.000000e+00
3.481849e+03,0.000000e+00
3.482813e+03,0.000000e+00
3.483777e+03,0.000000e+00
3.484741e+03,0.000000e+00
3.485706e+03,0.000000e+00
3.486670e+03,0.000000e+00
3.487634e+03,0.000000e+00
3.488598e+03,0.000000e+00
3.489563e+03,0.000000e+00
3.490527e+03,0.000000e+00
3.491491e+03,0.000000e+00
3.492455e+03,0.000000e+00
3.493419e+03,0.000000e+00
3.494384e+03,0.000000e+00
3.495348e+03,0.000000e+00
3.496312e+03,0.000000e+00
3.497276e+03,0.000000e+00
3.498240e+03,0.000000e+00
3.499205e+03,0.000000e+00
3.500169e+03,0.000000e+00
