9.931763e+01,0.000000e+00
1.002819e+02,0.000000e+00
1.012461e+02,0.000000e+00
1.022103e+02,0.000000e+00
1.031746e+02,0.000000e+00
1.041388e+02,0.000000e+00
1.051030e+02,0.000000e+00
1.060673e+02,0.000000e+00
1.070315e+02,0.000000e+00
1.079957e+02,0.000000e+00
1.089600e+02,0.000000e+00
1.099242e+02,0.000000e+00
1.108884e+02,0.000000e+00
1.118527e+02,0.000000e+00
1.128169e+02,0.000000e+00
1.137811e+02,0.000000e+00
1.147454e+02,0.000000e+00
1.157096e+02,0.000000e+00
1.166738e+02,0.000000e+00
1.176381e+02,0.000000e+00
1.186023e+02,0.000000e+00
1.195665e+02,0.000000e+00
1.205308e+02,0.000000e+00
1.214950e+02,0.000000e+00
1.224592e+02,0.000000e+00
1.234235e+02,0.000000e+00
1.243877e+02,0.000000e+00
1.253519e+02,0.000000e+00
1.263162e+02,0.000000e+00
1.272804e+02,0.000000e+00
1.282446e+02,0.000000e+00
1.292089e+02,0.000000e+00
1.301731e+02,0.000000e+00
1.311373e+02,0.000000e+00
1.321016e+02,0.000000e+00
1.330658e+02,0.000000e+00
1.340300e+02,0.000000e+00
1.349943e+02,0.000000e+00
1.359585e+02,0.000000e+00
1.369227e+02,0.000000e+00
1.378870e+02,0.000000e+00
1.388512e+02,0.000000e+00
1.398154e+02,0.000000e+00
1.407797e+02,0.000000e+00
1.417439e+02,0.000000e+00
1.427081e+02,0.000000e+00
1.436724e+02,0.000000e+00
1.446366e+02,0.000000e+00
1.456008e+02,0.000000e+00
1.465651e+02,0.000000e+00
1.475293e+02,0.000000e+00
1.484935e+02,0.000000e+00
1.494578e+02,0.000000e+00
1.504220e+02,0.000000e+00
1.513862e+02,0.000000e+00
1.523505e+02,0.000000e+00
1.533147e+02,0.000000e+00
1.542789e+02,0.000000e+00
1.552432e+02,0.000000e+00
1.562074e+02,0.000000e+00
1.571716e+02,0.000000e+00
1.581359e+02,0.000000e+00
1.591001e+02,0.000000e+00
1.600643e+02,0.000000e+00
1.610286e+02,0.000000e+00
1.619928e+02,0.000000e+00
1.629570e+02,0.000000e+00
1.639213e+02,0.000000e+00
1.648855e+02,0.000000e+00
1.658497e+02,0.000000e+00
1.668140e+02,0.000000e+00
1.677782e+02,0.000000e+00
1.687424e+02,0.000000e+00
1.697067e+02,0.000000e+00
1.706709e+02,0.000000e+00
1.716351e+02,0.000000e+00
1.725994e+02,0.000000e+00
1.735636e+02,0.000000e+00
1.745278e+02,0.000000e+00
1.754921e+02,0.000000e+00
1.764563e+02,0.000000e+00
1.774205e+02,0.000000e+00
1.783848e+02,0.000000e+00
1.793490e+02,0.000000e+00
1.803132e+02,0.000000e+00
1.812775e+02,0.000000e+00
1.822417e+02,0.000000e+00
1.832059e+02,0.000000e+00
1.841702e+02,0.000000e+00
1.851344e+02,0.000000e+00
1.860986e+02,0.000000e+00
1.870629e+02,0.000000e+00
1.880271e+02,0.000000e+00
1.889913e+02,0.000000e+00
1.899556e+02,0.000000e+00
1.909198e+02,0.000000e+00
1.918840e+02,0.000000e+00
1.928483e+02,0.000000e+00
1.938125e+02,0.000000e+00
1.947767e+02,0.000000e+00
1.957410e+02,0.000000e+00
1.967052e+02,0.000000e+00
1.976694e+02,0.000000e+00
1.986337e+02,0.000000e+00
1.995979e+02,6.893979e+03
2.005621e+02,6.898476e+03
2.015264e+02,6.901870e+03
2.024906e+02,6.901044e+03
2.034548e+02,6.901549e+03
2.044191e+02,6.904150e+03
2.053833e+02,6.907236e+03
2.063475e+02,6.908599e+03
2.073118e+02,6.906923e+03
2.082760e+02,6.902458e+03
2.092402e+02,6.893986e+03
2.102045e+02,6.880076e+03
2.111687e+02,6.867672e+03
2.121329e+02,6.861088e+03
2.130972e+02,6.861189e+03
2.140614e+02,6.864938e+03
2.150256e+02,6.868278e+03
2.159899e+02,6.874329e+03
2.169541e+02,6.876608e+03
2.179183e+02,6.871069e+03
2.188826e+02,6.859298e+03
2.198468e+02,6.849498e+03
2.208110e+02,6.849907e+03
2.217753e+02,6.859250e+03
2.227395e+02,6.861700e+03
2.237037e+02,6.853977e+03
2.246680e+02,6.842758e+03
2.256322e+02,6.833104e+03
2.265964e+02,6.829776e+03
2.275607e+02,6.828227e+03
2.285249e+02,6.820770e+03
2.294892e+02,6.805631e+03
2.304534e+02,6.794255e+03
2.314176e+02,6.794758e+03
2.323819e+02,6.803153e+03
2.333461e+02,6.807886e+03
2.343103e+02,6.804247e+03
2.352746e+02,6.796534e+03
2.362388e+02,6.791202e+03
2.372030e+02,6.788682e+03
2.381673e+02,6.784938e+03
2.391315e+02,6.777119e+03
2.400957e+02,6.768470e+03
2.410600e+02,6.758781e+03
2.420242e+02,6.746945e+03
2.429884e+02,6.735805e+03
2.439527e+02,6.730973e+03
2.449169e+02,6.735292e+03
2.458811e+02,6.749063e+03
2.468454e+02,6.755784e+03
2.478096e+02,6.750347e+03
2.487738e+02,6.741944e+03
2.497381e+02,6.735119e+03
2.507023e+02,6.731151e+03
2.516665e+02,6.731394e+03
2.526308e+02,6.737799e+03
2.535950e+02,6.760181e+03
2.545592e+02,6.770586e+03
2.555235e+02,6.765124e+03
2.564877e+02,6.750253e+03
2.574519e+02,6.733166e+03
2.584161e+02,6.717696e+03
2.593804e+02,6.705298e+03
2.603446e+02,6.701377e+03
2.613088e+02,6.710494e+03
2.622731e+02,6.721099e+03
2.632373e+02,6.730998e+03
2.642015e+02,6.738146e+03
2.651658e+02,6.741410e+03
2.661300e+02,6.741857e+03
2.670942e+02,6.741748e+03
2.680585e+02,6.738776e+03
2.690227e+02,6.727931e+03
2.699869e+02,6.715604e+03
2.709512e+02,6.706334e+03
2.719154e+02,6.705221e+03
2.728796e+02,6.707436e+03
2.738439e+02,6.704398e+03
2.748081e+02,6.695307e+03
2.757723e+02,6.691420e+03
2.767366e+02,6.698083e+03
2.777008e+02,6.709688e+03
2.786650e+02,6.716761e+03
2.796293e+02,6.716700e+03
2.805935e+02,6.713078e+03
2.815577e+02,6.710646e+03
2.825220e+02,6.710242e+03
2.834862e+02,6.708550e+03
2.844504e+02,6.700392e+03
2.854147e+02,6.684275e+03
2.863789e+02,6.668442e+03
2.873431e+02,6.654569e+03
2.883074e+02,6.644768e+03
2.892716e+02,6.641987e+03
2.902358e+02,6.647830e+03
2.912001e+02,6.661505e+03
2.921643e+02,6.667489e+03
2.931285e+02,6.659494e+03
2.940928e+02,6.653201e+03
2.950570e+02,6.657549e+03
2.960212e+02,6.670180e+03
2.969855e+02,6.680779e+03
2.979497e+02,6.677547e+03
2.989139e+02,6.654342e+03
2.998782e+02,6.636161e+03
3.008424e+02,6.631114e+03
3.018066e+02,6.631014e+03
3.027709e+02,6.626863e+03
3.037351e+02,6.613075e+03
3.046993e+02,6.595763e+03
3.056636e+02,6.588805e+03
3.066278e+02,6.597571e+03
3.075920e+02,6.607619e+03
3.085563e+02,6.613997e+03
3.095205e+02,6.618422e+03
3.104847e+02,6.621146e+03
3.114490e+02,6.617531e+03
3.124132e+02,6.610010e+03
3.133774e+02,6.606121e+03
3.143417e+02,6.607768e+03
3.153059e+02,6.608870e+03
3.162701e+02,6.603376e+03
3.172344e+02,6.590568e+03
3.181986e+02,6.580302e+03
3.191628e+02,6.579710e+03
3.201271e+02,6.584130e+03
3.210913e+02,6.582970e+03
3.220555e+02,6.569579e+03
3.230198e+02,6.546481e+03
3.239840e+02,6.533850e+03
3.249482e+02,6.542002e+03
3.259125e+02,6.548843e+03
3.268767e+02,6.546089e+03
3.278409e+02,6.536095e+03
3.288052e+02,6.526292e+03
3.297694e+02,6.523898e+03
3.307336e+02,6.530861e+03
3.316979e+02,6.533730e+03
3.326621e+02,6.529636e+03
3.336263e+02,6.521802e+03
3.345906e+02,6.512674e+03
3.355548e+02,6.504732e+03
3.365190e+02,6.497015e+03
3.374833e+02,6.483991e+03
3.384475e+02,6.463577e+03
3.394117e+02,6.452073e+03
3.403760e+02,6.460626e+03
3.413402e+02,6.478958e+03
3.423044e+02,6.489148e+03
3.432687e+02,6.480838e+03
3.442329e+02,6.467339e+03
3.451971e+02,6.459814e+03
3.461614e+02,6.456891e+03
3.471256e+02,6.452160e+03
3.480898e+02,6.442202e+03
3.490541e+02,6.426401e+03
3.500183e+02,6.415194e+03
3.509825e+02,6.416182e+03
3.519468e+02,6.420546e+03
3.529110e+02,6.418522e+03
3.538752e+02,6.406500e+03
3.548395e+02,6.389716e+03
3.558037e+02,6.379519e+03
3.567680e+02,6.380921e+03
3.577322e+02,6.381535e+03
3.586964e+02,6.380755e+03
3.596607e+02,6.380977e+03
3.606249e+02,6.383347e+03
3.615891e+02,6.387311e+03
3.625534e+02,6.389011e+03
3.635176e+02,6.384219e+03
3.644818e+02,6.374457e+03
3.654461e+02,6.361139e+03
3.664103e+02,6.343827e+03
3.673745e+02,6.326587e+03
3.683388e+02,6.317962e+03
3.693030e+02,6.321683e+03
3.702672e+02,6.331033e+03
3.712315e+02,6.338104e+03
3.721957e+02,6.340954e+03
3.731599e+02,6.339561e+03
3.741242e+02,6.335991e+03
3.750884e+02,6.333498e+03
3.760526e+02,6.331517e+03
3.770169e+02,6.329575e+03
3.779811e+02,6.326693e+03
3.789453e+02,6.321529e+03
3.799096e+02,6.312992e+03
3.808738e+02,6.300971e+03
3.818380e+02,6.286569e+03
3.828023e+02,6.269194e+03
3.837665e+02,6.256170e+03
3.847307e+02,6.249834e+03
3.856950e+02,6.248240e+03
3.866592e+02,6.246699e+03
3.876234e+02,6.241562e+03
3.885877e+02,6.233889e+03
3.895519e+02,6.227608e+03
3.905161e+02,6.223192e+03
3.914804e+02,6.217640e+03
3.924446e+02,6.207933e+03
3.934088e+02,6.194681e+03
3.943731e+02,6.182244e+03
3.953373e+02,6.170143e+03
3.963015e+02,6.159391e+03
3.972658e+02,6.152048e+03
3.982300e+02,6.149810e+03
3.991942e+02,6.152928e+03
4.001585e+02,6.157104e+03
4.011227e+02,6.160783e+03
4.020869e+02,6.162622e+03
4.030512e+02,6.160150e+03
4.040154e+02,6.153577e+03
4.049796e+02,6.144889e+03
4.059439e+02,6.132913e+03
4.069081e+02,6.119730e+03
4.078723e+02,6.115013e+03
4.088366e+02,6.121903e+03
4.098008e+02,6.127195e+03
4.107650e+02,6.124586e+03
4.117293e+02,6.115497e+03
4.126935e+02,6.107309e+03
4.136577e+02,6.103636e+03
4.146220e+02,6.101844e+03
4.155862e+02,6.098217e+03
4.165504e+02,6.092085e+03
4.175147e+02,6.084818e+03
4.184789e+02,6.078250e+03
4.194431e+02,6.072373e+03
4.204074e+02,6.066757e+03
4.213716e+02,6.062422e+03
4.223358e+02,6.057820e+03
4.233001e+02,6.051454e+03
4.242643e+02,6.043093e+03
4.252285e+02,6.033476e+03
4.261928e+02,6.023272e+03
4.271570e+02,6.012889e+03
4.281212e+02,6.002484e+03
4.290855e+02,5.989376e+03
4.300497e+02,5.974849e+03
4.310139e+02,5.963091e+03
4.319782e+02,5.957567e+03
4.329424e+02,5.955948e+03
4.339066e+02,5.956032e+03
4.348709e+02,5.956937e+03
4.358351e+02,5.955289e+03
4.367993e+02,5.947405e+03
4.377636e+02,5.928923e+03
4.387278e+02,5.916917e+03
4.396920e+02,5.917889e+03
4.406563e+02,5.922281e+03
4.416205e+02,5.923349e+03
4.425847e+02,5.919013e+03
4.435490e+02,5.910711e+03
4.445132e+02,5.899555e+03
4.454774e+02,5.885124e+03
4.464417e+02,5.874452e+03
4.474059e+02,5.869240e+03
4.483701e+02,5.866919e+03
4.493344e+02,5.865653e+03
4.502986e+02,5.870606e+03
4.512628e+02,5.873753e+03
4.522271e+02,5.867612e+03
4.531913e+02,5.853768e+03
4.541555e+02,5.839119e+03
4.551198e+02,5.827210e+03
4.560840e+02,5.818373e+03
4.570482e+02,5.809251e+03
4.580125e+02,5.801789e+03
4.589767e+02,5.797184e+03
4.599409e+02,5.794596e+03
4.609052e+02,5.792091e+03
4.618694e+02,5.788226e+03
4.628336e+02,5.783300e+03
4.637979e+02,5.777555e+03
4.647621e+02,5.768933e+03
4.657263e+02,5.756711e+03
4.666906e+02,5.746289e+03
4.676548e+02,5.740728e+03
4.686190e+02,5.739801e+03
4.695833e+02,5.739771e+03
4.705475e+02,5.739600e+03
4.715117e+02,5.738771e+03
4.724760e+02,5.737421e+03
4.734402e+02,5.736052e+03
4.744044e+02,5.734253e+03
4.753687e+02,5.730273e+03
4.763329e+02,5.722336e+03
4.772971e+02,5.715186e+03
4.782614e+02,5.709042e+03
4.792256e+02,5.704580e+03
4.801898e+02,5.702486e+03
4.811541e+02,5.704963e+03
4.821183e+02,5.706945e+03
4.830826e+02,5.699927e+03
4.840468e+02,5.682920e+03
4.850110e+02,5.664593e+03
4.859753e+02,5.650066e+03
4.869395e+02,5.639260e+03
4.879037e+02,5.632958e+03
4.888680e+02,5.638023e+03
4.898322e+02,5.642946e+03
4.907964e+02,5.640240e+03
4.917607e+02,5.631013e+03
4.927249e+02,5.622155e+03
4.936891e+02,5.621503e+03
4.946534e+02,5.629651e+03
4.956176e+02,5.632541e+03
4.965818e+02,5.627474e+03
4.975461e+02,5.619299e+03
4.985103e+02,5.610876e+03
4.994745e+02,5.600407e+03
5.004388e+02,5.591388e+03
5.014030e+02,5.589677e+03
5.023672e+02,5.591536e+03
5.033315e+02,5.588772e+03
5.042957e+02,5.578100e+03
5.052599e+02,5.563152e+03
5.062242e+02,5.553727e+03
5.071884e+02,5.556463e+03
5.081526e+02,5.557067e+03
5.091169e+02,5.554162e+03
5.100811e+02,5.549837e+03
5.110453e+02,5.545413e+03
5.120095e+02,5.542688e+03
5.129738e+02,5.540030e+03
5.139380e+02,5.534117e+03
5.149022e+02,5.525212e+03
5.158665e+02,5.517376e+03
5.168307e+02,5.510593e+03
5.177949e+02,5.502265e+03
5.187592e+02,5.495277e+03
5.197234e+02,5.505193e+03
5.206876e+02,5.510099e+03
5.216519e+02,5.495567e+03
5.226161e+02,5.467206e+03
5.235803e+02,5.441806e+03
5.245446e+02,5.435415e+03
5.255088e+02,5.444814e+03
5.264730e+02,5.446333e+03
5.274373e+02,5.435674e+03
5.284015e+02,5.423783e+03
5.293657e+02,5.420939e+03
5.303300e+02,5.428897e+03
5.312942e+02,5.431317e+03
5.322584e+02,5.424059e+03
5.332227e+02,5.414331e+03
5.341869e+02,5.407875e+03
5.351511e+02,5.404788e+03
5.361154e+02,5.401170e+03
5.370796e+02,5.391151e+03
5.380438e+02,5.372235e+03
5.390081e+02,5.360536e+03
5.399723e+02,5.364997e+03
5.409365e+02,5.374641e+03
5.419008e+02,5.377597e+03
5.428650e+02,5.368558e+03
5.438292e+02,5.357015e+03
5.447935e+02,5.346883e+03
5.457577e+02,5.338238e+03
5.467219e+02,5.331745e+03
5.476862e+02,5.328124e+03
5.486504e+02,5.326000e+03
5.496146e+02,5.321899e+03
5.505789e+02,5.316368e+03
5.515431e+02,5.307201e+03
5.525073e+02,5.292118e+03
5.534716e+02,5.277300e+03
5.544358e+02,5.269071e+03
5.554000e+02,5.273344e+03
5.563643e+02,5.279396e+03
5.573285e+02,5.274386e+03
5.582927e+02,5.259399e+03
5.592570e+02,5.246427e+03
5.602212e+02,5.244448e+03
5.611854e+02,5.252901e+03
5.621497e+02,5.256464e+03
5.631139e+02,5.250931e+03
5.640781e+02,5.241444e+03
5.650424e+02,5.228826e+03
5.660066e+02,5.214903e+03
5.669708e+02,5.203657e+03
5.679351e+02,5.201701e+03
5.688993e+02,5.203804e+03
5.698635e+02,5.198828e+03
5.708278e+02,5.185991e+03
5.717920e+02,5.173657e+03
5.727562e+02,5.168581e+03
5.737205e+02,5.172828e+03
5.746847e+02,5.172844e+03
5.756489e+02,5.165662e+03
5.766132e+02,5.155779e+03
5.775774e+02,5.143841e+03
5.785416e+02,5.130742e+03
5.795059e+02,5.122432e+03
5.804701e+02,5.129499e+03
5.814343e+02,5.145805e+03
5.823986e+02,5.150696e+03
5.833628e+02,5.139275e+03
5.843270e+02,5.120740e+03
5.852913e+02,5.106640e+03
5.862555e+02,5.095560e+03
5.872197e+02,5.091873e+03
5.881840e+02,5.103366e+03
5.891482e+02,5.116496e+03
5.901124e+02,5.119017e+03
5.910767e+02,5.106224e+03
5.920409e+02,5.090730e+03
5.930051e+02,5.086442e+03
5.939694e+02,5.090692e+03
5.949336e+02,5.090693e+03
5.958978e+02,5.082385e+03
5.968621e+02,5.068226e+03
5.978263e+02,5.054176e+03
5.987905e+02,5.036722e+03
5.997548e+02,5.025413e+03
6.007190e+02,5.025501e+03
6.016832e+02,5.031527e+03
6.026475e+02,5.036320e+03
6.036117e+02,5.035992e+03
6.045759e+02,5.032554e+03
6.055402e+02,5.027565e+03
6.065044e+02,5.020534e+03
6.074686e+02,5.013662e+03
6.084329e+02,5.009884e+03
6.093971e+02,5.008029e+03
6.103613e+02,4.999799e+03
6.113256e+02,4.973726e+03
6.122899e+02,4.954116e+03
6.132541e+02,4.948868e+03
6.142183e+02,4.952272e+03
6.151826e+02,4.954838e+03
6.161468e+02,4.953767e+03
6.171110e+02,4.950968e+03
6.180753e+02,4.946703e+03
6.190395e+02,4.940760e+03
6.200037e+02,4.935427e+03
6.209680e+02,4.932100e+03
6.219322e+02,4.931311e+03
6.228964e+02,4.930046e+03
6.238607e+02,4.926601e+03
6.248249e+02,4.923663e+03
6.257891e+02,4.921910e+03
6.267534e+02,4.919311e+03
6.277176e+02,4.913345e+03
6.286818e+02,4.902100e+03
6.296461e+02,4.890158e+03
6.306103e+02,4.882264e+03
6.315745e+02,4.878541e+03
6.325388e+02,4.876319e+03
6.335030e+02,4.872822e+03
6.344672e+02,4.867234e+03
6.354315e+02,4.861564e+03
6.363957e+02,4.853502e+03
6.373599e+02,4.845653e+03
6.383242e+02,4.841476e+03
6.392884e+02,4.841029e+03
6.402526e+02,4.839126e+03
6.412169e+02,4.832492e+03
6.421811e+02,4.824377e+03
6.431453e+02,4.817437e+03
6.441096e+02,4.811904e+03
6.450738e+02,4.807505e+03
6.460380e+02,4.805531e+03
6.470023e+02,4.807120e+03
6.479665e+02,4.807221e+03
6.489307e+02,4.804133e+03
6.498950e+02,4.799191e+03
6.508592e+02,4.791536e+03
6.518234e+02,4.779908e+03
6.527877e+02,4.771675e+03
6.537519e+02,4.772381e+03
6.547161e+02,4.774521e+03
6.556804e+02,4.772872e+03
6.566446e+02,4.767103e+03
6.576088e+02,4.759400e+03
6.585731e+02,4.750351e+03
6.595373e+02,4.740486e+03
6.605015e+02,4.732750e+03
6.614658e+02,4.727141e+03
6.624300e+02,4.724773e+03
6.633942e+02,4.727427e+03
6.643585e+02,4.738373e+03
6.653227e+02,4.745135e+03
6.662869e+02,4.743507e+03
6.672512e+02,4.739604e+03
6.682154e+02,4.738226e+03
6.691796e+02,4.739303e+03
6.701439e+02,4.737467e+03
6.711081e+02,4.726213e+03
6.720723e+02,4.710023e+03
6.730366e+02,4.699775e+03
6.740008e+02,4.698099e+03
6.749650e+02,4.697613e+03
6.759293e+02,4.688769e+03
6.768935e+02,4.668002e+03
6.778577e+02,4.651403e+03
6.788220e+02,4.640367e+03
6.797862e+02,4.635407e+03
6.807504e+02,4.636792e+03
6.817147e+02,4.644887e+03
6.826789e+02,4.649420e+03
6.836431e+02,4.641794e+03
6.846074e+02,4.629150e+03
6.855716e+02,4.620857e+03
6.865358e+02,4.619408e+03
6.875001e+02,4.620514e+03
6.884643e+02,4.618456e+03
6.894285e+02,4.613469e+03
6.903928e+02,4.611612e+03
6.913570e+02,4.614845e+03
6.923212e+02,4.617940e+03
6.932855e+02,4.614854e+03
6.942497e+02,4.598526e+03
6.952139e+02,4.594865e+03
6.961782e+02,4.618242e+03
6.971424e+02,4.643884e+03
6.981066e+02,4.652635e+03
6.990709e+02,4.639065e+03
7.000351e+02,4.616146e+03
7.009993e+02,4.591323e+03
7.019636e+02,4.568102e+03
7.029278e+02,4.551398e+03
7.038920e+02,4.541741e+03
7.048563e+02,4.536562e+03
7.058205e+02,4.535768e+03
7.067847e+02,4.544901e+03
7.077490e+02,4.545297e+03
7.087132e+02,4.530157e+03
7.096774e+02,4.515435e+03
7.106417e+02,4.511435e+03
7.116059e+02,4.520751e+03
7.125701e+02,4.524916e+03
7.135344e+02,4.511966e+03
7.144986e+02,4.497563e+03
7.154628e+02,4.497484e+03
7.164271e+02,4.513041e+03
7.173913e+02,4.530175e+03
7.183555e+02,4.536891e+03
7.193198e+02,4.533667e+03
7.202840e+02,4.521513e+03
7.212482e+02,4.499063e+03
7.222125e+02,4.476521e+03
7.231767e+02,4.463797e+03
7.241409e+02,4.462244e+03
7.251052e+02,4.463075e+03
7.260694e+02,4.468680e+03
7.270336e+02,4.474304e+03
7.279979e+02,4.479822e+03
7.289621e+02,4.485192e+03
7.299263e+02,4.485058e+03
7.308906e+02,4.471501e+03
7.318548e+02,4.453499e+03
7.328190e+02,4.440773e+03
7.337833e+02,4.434540e+03
7.347475e+02,4.431625e+03
7.357117e+02,4.431762e+03
7.366760e+02,4.435096e+03
7.376402e+02,4.433454e+03
7.386044e+02,4.424711e+03
7.395687e+02,4.416705e+03
7.405329e+02,4.416150e+03
7.414971e+02,4.426296e+03
7.424614e+02,4.428640e+03
7.434256e+02,4.419765e+03
7.443898e+02,4.411305e+03
7.453541e+02,4.407327e+03
7.463183e+02,4.405468e+03
7.472825e+02,4.401181e+03
7.482468e+02,4.391405e+03
7.492110e+02,4.379478e+03
7.501752e+02,4.371029e+03
7.511395e+02,4.367434e+03
7.521037e+02,4.364974e+03
7.530679e+02,4.358413e+03
7.540322e+02,4.347414e+03
7.549964e+02,4.337916e+03
7.559606e+02,4.330913e+03
7.569249e+02,4.325495e+03
7.578891e+02,4.320813e+03
7.588533e+02,4.317164e+03
7.598176e+02,4.318128e+03
7.607818e+02,4.325598e+03
7.617460e+02,4.328591e+03
7.627103e+02,4.324235e+03
7.636745e+02,4.315380e+03
7.646387e+02,4.306183e+03
7.656030e+02,4.294557e+03
7.665672e+02,4.285642e+03
7.675314e+02,4.283789e+03
7.684957e+02,4.284854e+03
7.694599e+02,4.282705e+03
7.704241e+02,4.275874e+03
7.713884e+02,4.266975e+03
7.723526e+02,4.258598e+03
7.733168e+02,4.251438e+03
7.742811e+02,4.248074e+03
7.752453e+02,4.248030e+03
7.762095e+02,4.249342e+03
7.771738e+02,4.249107e+03
7.781380e+02,4.244154e+03
7.791022e+02,4.238252e+03
7.800665e+02,4.233498e+03
7.810307e+02,4.230056e+03
7.819949e+02,4.227650e+03
7.829592e+02,4.229287e+03
7.839234e+02,4.231659e+03
7.848876e+02,4.233686e+03
7.858519e+02,4.233828e+03
7.868161e+02,4.229326e+03
7.877803e+02,4.217815e+03
7.887446e+02,4.204843e+03
7.897088e+02,4.200425e+03
7.906730e+02,4.204822e+03
7.916373e+02,4.209329e+03
7.926015e+02,4.209112e+03
7.935657e+02,4.203946e+03
7.945300e+02,4.199270e+03
7.954942e+02,4.199352e+03
7.964584e+02,4.193194e+03
7.974227e+02,4.176886e+03
7.983869e+02,4.161683e+03
7.993511e+02,4.156347e+03
8.003154e+02,4.163420e+03
8.012796e+02,4.167666e+03
8.022438e+02,4.167911e+03
8.032081e+02,4.166888e+03
8.041723e+02,4.166294e+03
8.051365e+02,4.165854e+03
8.061008e+02,4.165225e+03
8.070650e+02,4.164354e+03
8.080292e+02,4.161576e+03
8.089935e+02,4.155707e+03
8.099577e+02,4.147728e+03
8.109219e+02,4.139309e+03
8.118862e+02,4.129929e+03
8.128504e+02,4.119784e+03
8.138146e+02,4.116943e+03
8.147789e+02,4.123514e+03
8.157431e+02,4.129972e+03
8.167073e+02,4.129276e+03
8.176716e+02,4.122042e+03
8.186358e+02,4.117028e+03
8.196000e+02,4.113943e+03
8.205643e+02,4.112829e+03
8.215285e+02,4.112779e+03
8.224927e+02,4.113275e+03
8.234570e+02,4.112516e+03
8.244212e+02,4.110006e+03
8.253854e+02,4.106457e+03
8.263497e+02,4.099756e+03
8.273139e+02,4.090435e+03
8.282781e+02,4.082704e+03
8.292424e+02,4.081769e+03
8.302066e+02,4.085563e+03
8.311708e+02,4.091265e+03
8.321351e+02,4.098165e+03
8.330993e+02,4.102295e+03
8.340635e+02,4.100296e+03
8.350278e+02,4.093944e+03
8.359920e+02,4.090126e+03
8.369562e+02,4.089599e+03
8.379205e+02,4.088236e+03
8.388847e+02,4.084104e+03
8.398489e+02,4.078821e+03
8.408132e+02,4.075809e+03
8.417774e+02,4.075782e+03
8.427416e+02,4.075655e+03
8.437059e+02,4.074882e+03
8.446701e+02,4.074110e+03
8.456343e+02,4.074906e+03
8.465986e+02,4.080169e+03
8.475628e+02,4.080550e+03
8.485270e+02,4.066121e+03
8.494913e+02,4.048722e+03
8.504555e+02,4.042863e+03
8.514197e+02,4.052707e+03
8.523840e+02,4.063981e+03
8.533482e+02,4.062359e+03
8.543124e+02,4.053329e+03
8.552767e+02,4.048368e+03
8.562409e+02,4.048698e+03
8.572051e+02,4.049019e+03
8.581694e+02,4.044506e+03
8.591336e+02,4.036133e+03
8.600978e+02,4.028886e+03
8.610621e+02,4.023800e+03
8.620263e+02,4.019407e+03
8.629905e+02,4.013302e+03
8.639548e+02,4.003847e+03
8.649190e+02,3.995188e+03
8.658832e+02,3.988501e+03
8.668475e+02,3.984927e+03
8.678117e+02,3.985690e+03
8.687759e+02,3.989706e+03
8.697402e+02,3.994122e+03
8.707044e+02,4.000285e+03
8.716686e+02,4.000923e+03
8.726329e+02,3.992501e+03
8.735971e+02,3.980014e+03
8.745613e+02,3.970965e+03
8.755256e+02,3.972197e+03
8.764898e+02,3.975446e+03
8.774540e+02,3.973342e+03
8.784183e+02,3.968243e+03
8.793825e+02,3.965153e+03
8.803467e+02,3.966266e+03
8.813110e+02,3.967985e+03
8.822752e+02,3.965408e+03
8.832394e+02,3.960810e+03
8.842037e+02,3.959952e+03
8.851679e+02,3.963419e+03
8.861321e+02,3.967218e+03
8.870964e+02,3.966869e+03
8.880606e+02,3.961954e+03
8.890248e+02,3.954975e+03
8.899891e+02,3.947332e+03
8.909533e+02,3.939988e+03
8.919175e+02,3.932554e+03
8.928818e+02,3.924196e+03
8.938460e+02,3.919066e+03
8.948102e+02,3.916722e+03
8.957745e+02,3.916109e+03
8.967387e+02,3.919510e+03
8.977029e+02,3.925721e+03
8.986672e+02,3.924886e+03
8.996314e+02,3.914335e+03
9.005956e+02,3.902869e+03
9.015599e+02,3.889258e+03
9.025241e+02,3.876310e+03
9.034883e+02,3.871767e+03
9.044526e+02,3.890011e+03
9.054168e+02,3.904565e+03
9.063810e+02,3.897559e+03
9.073453e+02,3.879830e+03
9.083095e+02,3.867537e+03
9.092737e+02,3.867068e+03
9.102380e+02,3.870129e+03
9.112022e+02,3.867811e+03
9.121664e+02,3.862070e+03
9.131307e+02,3.858874e+03
9.140949e+02,3.861291e+03
9.150591e+02,3.868003e+03
9.160234e+02,3.876277e+03
9.169876e+02,3.883443e+03
9.179518e+02,3.883862e+03
9.189161e+02,3.876508e+03
9.198803e+02,3.864780e+03
9.208445e+02,3.851968e+03
9.218088e+02,3.838428e+03
9.227730e+02,3.832455e+03
9.237372e+02,3.835434e+03
9.247015e+02,3.840395e+03
9.256657e+02,3.843080e+03
9.266299e+02,3.843077e+03
9.275942e+02,3.844542e+03
9.285584e+02,3.848497e+03
9.295226e+02,3.850965e+03
9.304869e+02,3.852070e+03
9.314511e+02,3.851798e+03
9.324153e+02,3.848032e+03
9.333796e+02,3.833330e+03
9.343438e+02,3.823191e+03
9.353080e+02,3.826161e+03
9.362723e+02,3.832907e+03
9.372365e+02,3.831480e+03
9.382007e+02,3.815604e+03
9.391650e+02,3.802288e+03
9.401292e+02,3.800704e+03
9.410934e+02,3.804581e+03
9.420577e+02,3.806265e+03
9.430219e+02,3.803468e+03
9.439861e+02,3.798418e+03
9.449504e+02,3.790475e+03
9.459146e+02,3.785451e+03
9.468788e+02,3.792237e+03
9.478431e+02,3.808238e+03
9.488073e+02,3.819444e+03
9.497715e+02,3.811602e+03
9.507358e+02,3.793873e+03
9.517000e+02,3.787585e+03
9.526642e+02,3.793266e+03
9.536285e+02,3.797898e+03
9.545927e+02,3.791036e+03
9.555569e+02,3.777072e+03
9.565212e+02,3.771406e+03
9.574854e+02,3.775514e+03
9.584496e+02,3.781575e+03
9.594139e+02,3.785381e+03
9.603781e+02,3.786169e+03
9.613423e+02,3.784544e+03
9.623066e+02,3.780402e+03
9.632708e+02,3.775046e+03
9.642350e+02,3.768562e+03
9.651993e+02,3.763402e+03
9.661635e+02,3.761745e+03
9.671277e+02,3.763621e+03
9.680920e+02,3.765783e+03
9.690562e+02,3.769042e+03
9.700204e+02,3.771078e+03
9.709847e+02,3.771390e+03
9.719489e+02,3.771031e+03
9.729131e+02,3.769677e+03
9.738774e+02,3.767470e+03
9.748416e+02,3.766042e+03
9.758058e+02,3.763771e+03
9.767701e+02,3.760214e+03
9.777343e+02,3.758885e+03
9.786985e+02,3.763865e+03
9.796628e+02,3.766264e+03
9.806270e+02,3.762440e+03
9.815912e+02,3.754651e+03
9.825555e+02,3.746987e+03
9.835197e+02,3.742101e+03
9.844839e+02,3.738624e+03
9.854482e+02,3.736846e+03
9.864124e+02,3.736424e+03
9.873766e+02,3.736134e+03
9.883409e+02,3.736089e+03
9.893051e+02,3.735805e+03
9.902693e+02,3.733725e+03
9.912336e+02,3.732308e+03
9.921978e+02,3.733052e+03
9.931620e+02,3.734984e+03
9.941263e+02,3.737003e+03
9.950905e+02,3.740442e+03
9.960547e+02,3.743187e+03
9.970190e+02,3.741164e+03
9.979832e+02,3.735142e+03
9.989474e+02,3.729792e+03
9.999117e+02,3.730304e+03
1.000876e+03,3.733102e+03
1.001840e+03,3.731950e+03
1.002804e+03,3.728579e+03
1.003769e+03,3.725245e+03
1.004733e+03,3.721359e+03
1.005697e+03,3.718528e+03
1.006661e+03,3.722020e+03
1.007626e+03,3.730093e+03
1.008590e+03,3.732259e+03
1.009554e+03,3.725501e+03
1.010518e+03,3.716926e+03
1.011482e+03,3.718005e+03
1.012447e+03,3.726586e+03
1.013411e+03,3.723958e+03
1.014375e+03,3.710389e+03
1.015339e+03,3.698686e+03
1.016304e+03,3.697576e+03
1.017268e+03,3.704374e+03
1.018232e+03,3.704342e+03
1.019196e+03,3.695784e+03
1.020161e+03,3.690056e+03
1.021125e+03,3.693524e+03
1.022089e+03,3.702782e+03
1.023053e+03,3.705302e+03
1.024018e+03,3.697865e+03
1.024982e+03,3.692865e+03
1.025946e+03,3.692662e+03
1.026910e+03,3.693012e+03
1.027875e+03,3.690080e+03
1.028839e+03,3.683922e+03
1.029803e+03,3.682206e+03
1.030767e+03,3.686844e+03
1.031731e+03,3.693072e+03
1.032696e+03,3.696898e+03
1.033660e+03,3.697846e+03
1.034624e+03,3.698795e+03
1.035588e+03,3.700927e+03
1.036552e+03,3.703767e+03
1.037517e+03,3.707341e+03
1.038481e+03,3.709638e+03
1.039445e+03,3.706672e+03
1.040409e+03,3.693216e+03
1.041374e+03,3.683644e+03
1.042338e+03,3.683881e+03
1.043302e+03,3.688582e+03
1.044266e+03,3.689839e+03
1.045231e+03,3.685511e+03
1.046195e+03,3.680571e+03
1.047159e+03,3.674567e+03
1.048123e+03,3.669814e+03
1.049088e+03,3.667610e+03
1.050052e+03,3.669113e+03
1.051016e+03,3.673531e+03
1.051980e+03,3.684334e+03
1.052945e+03,3.693609e+03
1.053909e+03,3.695799e+03
1.054873e+03,3.691142e+03
1.055837e+03,3.687152e+03
1.056802e+03,3.687759e+03
1.057766e+03,3.687351e+03
1.058730e+03,3.684386e+03
1.059694e+03,3.680941e+03
1.060658e+03,3.678966e+03
1.061623e+03,3.680375e+03
1.062587e+03,3.681885e+03
1.063551e+03,3.681281e+03
1.064515e+03,3.682489e+03
1.065479e+03,3.689053e+03
1.066444e+03,3.702433e+03
1.067408e+03,3.712052e+03
1.068372e+03,3.711666e+03
1.069336e+03,3.711877e+03
1.070301e+03,3.717300e+03
1.071265e+03,3.725055e+03
1.072229e+03,3.728838e+03
1.073193e+03,3.725909e+03
1.074158e+03,3.720755e+03
1.075122e+03,3.713879e+03
1.076086e+03,3.705909e+03
1.077050e+03,3.697969e+03
1.078015e+03,3.691134e+03
1.078979e+03,3.688216e+03
1.079943e+03,3.690459e+03
1.080907e+03,3.695044e+03
1.081872e+03,3.700703e+03
1.082836e+03,3.706227e+03
1.083800e+03,3.705671e+03
1.084764e+03,3.691653e+03
1.085729e+03,3.679510e+03
1.086693e+03,3.674355e+03
1.087657e+03,3.675685e+03
1.088621e+03,3.682256e+03
1.089585e+03,3.701276e+03
1.090550e+03,3.714550e+03
1.091514e+03,3.719739e+03
1.092478e+03,3.718771e+03
1.093442e+03,3.711780e+03
1.094406e+03,3.695795e+03
1.095371e+03,3.684216e+03
1.096335e+03,3.681008e+03
1.097299e+03,3.680438e+03
1.098263e+03,3.679391e+03
1.099228e+03,3.677250e+03
1.100192e+03,3.674918e+03
1.101156e+03,3.672179e+03
1.102120e+03,3.668991e+03
1.103085e+03,3.665581e+03
1.104049e+03,3.662120e+03
1.105013e+03,3.658872e+03
1.105977e+03,3.653274e+03
1.106942e+03,3.651938e+03
1.107906e+03,3.661620e+03
1.108870e+03,3.672783e+03
1.109834e+03,3.675186e+03
1.110799e+03,3.664427e+03
1.111763e+03,3.660217e+03
1.112727e+03,3.672809e+03
1.113691e+03,3.685819e+03
1.114656e+03,3.689083e+03
1.115620e+03,3.684011e+03
1.116584e+03,3.682638e+03
1.117548e+03,3.687504e+03
1.118512e+03,3.690940e+03
1.119477e+03,3.690735e+03
1.120441e+03,3.688644e+03
1.121405e+03,3.687914e+03
1.122369e+03,3.694281e+03
1.123334e+03,3.693563e+03
1.124298e+03,3.680780e+03
1.125262e+03,3.666505e+03
1.126226e+03,3.657804e+03
1.127191e+03,3.655251e+03
1.128155e+03,3.655529e+03
1.129119e+03,3.658417e+03
1.130083e+03,3.662701e+03
1.131047e+03,3.668331e+03
1.132012e+03,3.673932e+03
1.132976e+03,3.677970e+03
1.133940e+03,3.681922e+03
1.134904e+03,3.680329e+03
1.135869e+03,3.669310e+03
1.136833e+03,3.658054e+03
1.137797e+03,3.657452e+03
1.138761e+03,3.672374e+03
1.139726e+03,3.684263e+03
1.140690e+03,3.692699e+03
1.141654e+03,3.697048e+03
1.142618e+03,3.694883e+03
1.143583e+03,3.687902e+03
1.144547e+03,3.688504e+03
1.145511e+03,3.698886e+03
1.146475e+03,3.707981e+03
1.147439e+03,3.712256e+03
1.148404e+03,3.714192e+03
1.149368e+03,3.716628e+03
1.150332e+03,3.719058e+03
1.151296e+03,3.722733e+03
1.152261e+03,3.726362e+03
1.153225e+03,3.727592e+03
1.154189e+03,3.726569e+03
1.155153e+03,3.725107e+03
1.156118e+03,3.726564e+03
1.157082e+03,3.732224e+03
1.158046e+03,3.738506e+03
1.159010e+03,3.742354e+03
1.159974e+03,3.744665e+03
1.160939e+03,3.746164e+03
1.161903e+03,3.746748e+03
1.162867e+03,3.752448e+03
1.163831e+03,3.764597e+03
1.164796e+03,3.775565e+03
1.165760e+03,3.777048e+03
1.166724e+03,3.772675e+03
1.167688e+03,3.770641e+03
1.168653e+03,3.771036e+03
1.169617e+03,3.771221e+03
1.170581e+03,3.771228e+03
1.171545e+03,3.769317e+03
1.172510e+03,3.760121e+03
1.173474e+03,3.747271e+03
1.174438e+03,3.738971e+03
1.175402e+03,3.737794e+03
1.176366e+03,3.735945e+03
1.177331e+03,3.724422e+03
1.178295e+03,3.710338e+03
1.179259e+03,3.702399e+03
1.180223e+03,3.699907e+03
1.181188e+03,3.696981e+03
1.182152e+03,3.692731e+03
1.183116e+03,3.684977e+03
1.184080e+03,3.669773e+03
1.185045e+03,3.652114e+03
1.186009e+03,3.639371e+03
1.186973e+03,3.635159e+03
1.187937e+03,3.635792e+03
1.188901e+03,3.642195e+03
1.189866e+03,3.650127e+03
1.190830e+03,3.655918e+03
1.191794e+03,3.658404e+03
1.192758e+03,3.658366e+03
1.193723e+03,3.654076e+03
1.194687e+03,3.652306e+03
1.195651e+03,3.656741e+03
1.196615e+03,3.664634e+03
1.197580e+03,3.669188e+03
1.198544e+03,3.665364e+03
1.199508e+03,3.660645e+03
1.200472e+03,3.659038e+03
1.201437e+03,3.656665e+03
1.202401e+03,3.649500e+03
1.203365e+03,3.636959e+03
1.204329e+03,3.632429e+03
1.205293e+03,3.637954e+03
1.206258e+03,3.645394e+03
1.207222e+03,3.651869e+03
1.208186e+03,3.656171e+03
1.209150e+03,3.653836e+03
1.210115e+03,3.642580e+03
1.211079e+03,3.638378e+03
1.212043e+03,3.646051e+03
1.213007e+03,3.654230e+03
1.213972e+03,3.648892e+03
1.214936e+03,3.633741e+03
1.215900e+03,3.625573e+03
1.216864e+03,3.624646e+03
1.217828e+03,3.626493e+03
1.218793e+03,3.629319e+03
1.219757e+03,3.632484e+03
1.220721e+03,3.635192e+03
1.221685e+03,3.637498e+03
1.222650e+03,3.638305e+03
1.223614e+03,3.636211e+03
1.224578e+03,3.630402e+03
1.225542e+03,3.616655e+03
1.226507e+03,3.603537e+03
1.227471e+03,3.603209e+03
1.228435e+03,3.612133e+03
1.229399e+03,3.616292e+03
1.230364e+03,3.605750e+03
1.231328e+03,3.594029e+03
1.232292e+03,3.589788e+03
1.233256e+03,3.590694e+03
1.234220e+03,3.591555e+03
1.235185e+03,3.591706e+03
1.236149e+03,3.593773e+03
1.237113e+03,3.601915e+03
1.238077e+03,3.609781e+03
1.239042e+03,3.608988e+03
1.240006e+03,3.599756e+03
1.240970e+03,3.597865e+03
1.241934e+03,3.611275e+03
1.242899e+03,3.617102e+03
1.243863e+03,3.608200e+03
1.244827e+03,3.594672e+03
1.245791e+03,3.589931e+03
1.246755e+03,3.595619e+03
1.247720e+03,3.601443e+03
1.248684e+03,3.608450e+03
1.249648e+03,3.611503e+03
1.250612e+03,3.604715e+03
1.251577e+03,3.592245e+03
1.252541e+03,3.592492e+03
1.253505e+03,3.602853e+03
1.254469e+03,3.603698e+03
1.255434e+03,3.588769e+03
1.256398e+03,3.574721e+03
1.257362e+03,3.585862e+03
1.258326e+03,3.607475e+03
1.259291e+03,3.612767e+03
1.260255e+03,3.601477e+03
1.261219e+03,3.587668e+03
1.262183e+03,3.579355e+03
1.263147e+03,3.576415e+03
1.264112e+03,3.580883e+03
1.265076e+03,3.589071e+03
1.266040e+03,3.595250e+03
1.267004e+03,3.598291e+03
1.267969e+03,3.599181e+03
1.268933e+03,3.596383e+03
1.269897e+03,3.596281e+03
1.270861e+03,3.600941e+03
1.271826e+03,3.607387e+03
1.272790e+03,3.612470e+03
1.273754e+03,3.619667e+03
1.274718e+03,3.621383e+03
1.275682e+03,3.614903e+03
1.276647e+03,3.607237e+03
1.277611e+03,3.607286e+03
1.278575e+03,3.616359e+03
1.279539e+03,3.617374e+03
1.280504e+03,3.610759e+03
1.281468e+03,3.606836e+03
1.282432e+03,3.611734e+03
1.283396e+03,3.621074e+03
1.284361e+03,3.622913e+03
1.285325e+03,3.618572e+03
1.286289e+03,3.618170e+03
1.287253e+03,3.624301e+03
1.288218e+03,3.628066e+03
1.289182e+03,3.615731e+03
1.290146e+03,3.600969e+03
1.291110e+03,3.605340e+03
1.292074e+03,3.624171e+03
1.293039e+03,3.635622e+03
1.294003e+03,3.621724e+03
1.294967e+03,3.606431e+03
1.295931e+03,3.600706e+03
1.296896e+03,3.600370e+03
1.297860e+03,3.599932e+03
1.298824e+03,3.597236e+03
1.299788e+03,3.598452e+03
1.300753e+03,3.605491e+03
1.301717e+03,3.613097e+03
1.302681e+03,3.620411e+03
1.303645e+03,3.626499e+03
1.304609e+03,3.627803e+03
1.305574e+03,3.621710e+03
1.306538e+03,3.619224e+03
1.307502e+03,3.624067e+03
1.308466e+03,3.631581e+03
1.309431e+03,3.635927e+03
1.310395e+03,3.638363e+03
1.311359e+03,3.641911e+03
1.312323e+03,3.645398e+03
1.313288e+03,3.650603e+03
1.314252e+03,3.661539e+03
1.315216e+03,3.672574e+03
1.316180e+03,3.673915e+03
1.317145e+03,3.672977e+03
1.318109e+03,3.678443e+03
1.319073e+03,3.689797e+03
1.320037e+03,3.699449e+03
1.321001e+03,3.706790e+03
1.321966e+03,3.709834e+03
1.322930e+03,3.705510e+03
1.323894e+03,3.699442e+03
1.324858e+03,3.700054e+03
1.325823e+03,3.714621e+03
1.326787e+03,3.717287e+03
1.327751e+03,3.701181e+03
1.328715e+03,3.685277e+03
1.329680e+03,3.683584e+03
1.330644e+03,3.692389e+03
1.331608e+03,3.693570e+03
1.332572e+03,3.687553e+03
1.333536e+03,3.685032e+03
1.334501e+03,3.688934e+03
1.335465e+03,3.691272e+03
1.336429e+03,3.682294e+03
1.337393e+03,3.669337e+03
1.338358e+03,3.663974e+03
1.339322e+03,3.664674e+03
1.340286e+03,3.661928e+03
1.341250e+03,3.644338e+03
1.342215e+03,3.630177e+03
1.343179e+03,3.636378e+03
1.344143e+03,3.648476e+03
1.345107e+03,3.646832e+03
1.346072e+03,3.623805e+03
1.347036e+03,3.609071e+03
1.348000e+03,3.604864e+03
1.348964e+03,3.602823e+03
1.349928e+03,3.601474e+03
1.350893e+03,3.601289e+03
1.351857e+03,3.599696e+03
1.352821e+03,3.596159e+03
1.353785e+03,3.599448e+03
1.354750e+03,3.610258e+03
1.355714e+03,3.617632e+03
1.356678e+03,3.612453e+03
1.357642e+03,3.601374e+03
1.358607e+03,3.587120e+03
1.359571e+03,3.573443e+03
1.360535e+03,3.571023e+03
1.361499e+03,3.588785e+03
1.362464e+03,3.603657e+03
1.363428e+03,3.603509e+03
1.364392e+03,3.599376e+03
1.365356e+03,3.596224e+03
1.366320e+03,3.592806e+03
1.367285e+03,3.589731e+03
1.368249e+03,3.590018e+03
1.369213e+03,3.586916e+03
1.370177e+03,3.577823e+03
1.371142e+03,3.568049e+03
1.372106e+03,3.564151e+03
1.373070e+03,3.565514e+03
1.374034e+03,3.568074e+03
1.374999e+03,3.572481e+03
1.375963e+03,3.578057e+03
1.376927e+03,3.585141e+03
1.377891e+03,3.590840e+03
1.378855e+03,3.591398e+03
1.379820e+03,3.588180e+03
1.380784e+03,3.582661e+03
1.381748e+03,3.576133e+03
1.382712e+03,3.570430e+03
1.383677e+03,3.561030e+03
1.384641e+03,3.554940e+03
1.385605e+03,3.555809e+03
1.386569e+03,3.559827e+03
1.387534e+03,3.562530e+03
1.388498e+03,3.564916e+03
1.389462e+03,3.561994e+03
1.390426e+03,3.552173e+03
1.391391e+03,3.539854e+03
1.392355e+03,3.527200e+03
1.393319e+03,3.517299e+03
1.394283e+03,3.516590e+03
1.395247e+03,3.521586e+03
1.396212e+03,3.526499e+03
1.397176e+03,3.530214e+03
1.398140e+03,3.529107e+03
1.399104e+03,3.512699e+03
1.400069e+03,3.497387e+03
1.401033e+03,3.494399e+03
1.401997e+03,3.500984e+03
1.402961e+03,3.508817e+03
1.403926e+03,3.522015e+03
1.404890e+03,3.524162e+03
1.405854e+03,3.510865e+03
1.406818e+03,3.498078e+03
1.407782e+03,3.498933e+03
1.408747e+03,3.509784e+03
1.409711e+03,3.513192e+03
1.410675e+03,3.509202e+03
1.411639e+03,3.507203e+03
1.412604e+03,3.510823e+03
1.413568e+03,3.514328e+03
1.414532e+03,3.516825e+03
1.415496e+03,3.516106e+03
1.416461e+03,3.503608e+03
1.417425e+03,3.483194e+03
1.418389e+03,3.473066e+03
1.419353e+03,3.487355e+03
1.420318e+03,3.496068e+03
1.421282e+03,3.497799e+03
1.422246e+03,3.495480e+03
1.423210e+03,3.488764e+03
1.424174e+03,3.479838e+03
1.425139e+03,3.482904e+03
1.426103e+03,3.495315e+03
1.427067e+03,3.502604e+03
1.428031e+03,3.499816e+03
1.428996e+03,3.493545e+03
1.429960e+03,3.486874e+03
1.430924e+03,3.481033e+03
1.431888e+03,3.478736e+03
1.432853e+03,3.479220e+03
1.433817e+03,3.477477e+03
1.434781e+03,3.467454e+03
1.435745e+03,3.464428e+03
1.436709e+03,3.472315e+03
1.437674e+03,3.481103e+03
1.438638e+03,3.483047e+03
1.439602e+03,3.479863e+03
1.440566e+03,3.478797e+03
1.441531e+03,3.479227e+03
1.442495e+03,3.478446e+03
1.443459e+03,3.474464e+03
1.444423e+03,3.470904e+03
1.445388e+03,3.473438e+03
1.446352e+03,3.475556e+03
1.447316e+03,3.470633e+03
1.448280e+03,3.460716e+03
1.449245e+03,3.452542e+03
1.450209e+03,3.446237e+03
1.451173e+03,3.443806e+03
1.452137e+03,3.444777e+03
1.453101e+03,3.446461e+03
1.454066e+03,3.448010e+03
1.455030e+03,3.449452e+03
1.455994e+03,3.449146e+03
1.456958e+03,3.447419e+03
1.457923e+03,3.447349e+03
1.458887e+03,3.449751e+03
1.459851e+03,3.450880e+03
1.460815e+03,3.445488e+03
1.461780e+03,3.437919e+03
1.462744e+03,3.434280e+03
1.463708e+03,3.435007e+03
1.464672e+03,3.435338e+03
1.465636e+03,3.437716e+03
1.466601e+03,3.436834e+03
1.467565e+03,3.430916e+03
1.468529e+03,3.424032e+03
1.469493e+03,3.419071e+03
1.470458e+03,3.414815e+03
1.471422e+03,3.407209e+03
1.472386e+03,3.399477e+03
1.473350e+03,3.403205e+03
1.474315e+03,3.425599e+03
1.475279e+03,3.443707e+03
1.476243e+03,3.439997e+03
1.477207e+03,3.428281e+03
1.478172e+03,3.418285e+03
1.479136e+03,3.410632e+03
1.480100e+03,3.403615e+03
1.481064e+03,3.397198e+03
1.482028e+03,3.393324e+03
1.482993e+03,3.392905e+03
1.483957e+03,3.394473e+03
1.484921e+03,3.397005e+03
1.485885e+03,3.399189e+03
1.486850e+03,3.397415e+03
1.487814e+03,3.392372e+03
1.488778e+03,3.387820e+03
1.489742e+03,3.385774e+03
1.490707e+03,3.382546e+03
1.491671e+03,3.378423e+03
1.492635e+03,3.374912e+03
1.493599e+03,3.370196e+03
1.494563e+03,3.365255e+03
1.495528e+03,3.366067e+03
1.496492e+03,3.371807e+03
1.497456e+03,3.374563e+03
1.498420e+03,3.374476e+03
1.499385e+03,3.371622e+03
1.500349e+03,3.363355e+03
1.501313e+03,3.355022e+03
1.502277e+03,3.347661e+03
1.503242e+03,3.343893e+03
1.504206e+03,3.349353e+03
1.505170e+03,3.369376e+03
1.506134e+03,3.378507e+03
1.507099e+03,3.374570e+03
1.508063e+03,3.365683e+03
1.509027e+03,3.353082e+03
1.509991e+03,3.341310e+03
1.510955e+03,3.341074e+03
1.511920e+03,3.346982e+03
1.512884e+03,3.345917e+03
1.513848e+03,3.339350e+03
1.514812e+03,3.336808e+03
1.515777e+03,3.344854e+03
1.516741e+03,3.350281e+03
1.517705e+03,3.345889e+03
1.518669e+03,3.338613e+03
1.519634e+03,3.334356e+03
1.520598e+03,3.332515e+03
1.521562e+03,3.332878e+03
1.522526e+03,3.334378e+03
1.523490e+03,3.334958e+03
1.524455e+03,3.334561e+03
1.525419e+03,3.331864e+03
1.526383e+03,3.324328e+03
1.527347e+03,3.315536e+03
1.528312e+03,3.310131e+03
1.529276e+03,3.308671e+03
1.530240e+03,3.306953e+03
1.531204e+03,3.302619e+03
1.532169e+03,3.300523e+03
1.533133e+03,3.301706e+03
1.534097e+03,3.302215e+03
1.535061e+03,3.297737e+03
1.536026e+03,3.291007e+03
1.536990e+03,3.286773e+03
1.537954e+03,3.285962e+03
1.538918e+03,3.291885e+03
1.539882e+03,3.306670e+03
1.540847e+03,3.314229e+03
1.541811e+03,3.304100e+03
1.542775e+03,3.291547e+03
1.543739e+03,3.280934e+03
1.544704e+03,3.272859e+03
1.545668e+03,3.267801e+03
1.546632e+03,3.265878e+03
1.547596e+03,3.266773e+03
1.548561e+03,3.269848e+03
1.549525e+03,3.272364e+03
1.550489e+03,3.272111e+03
1.551453e+03,3.269728e+03
1.552417e+03,3.258880e+03
1.553382e+03,3.252044e+03
1.554346e+03,3.263459e+03
1.555310e+03,3.290094e+03
1.556274e+03,3.298917e+03
1.557239e+03,3.289989e+03
1.558203e+03,3.281230e+03
1.559167e+03,3.276862e+03
1.560131e+03,3.274701e+03
1.561096e+03,3.275654e+03
1.562060e+03,3.276207e+03
1.563024e+03,3.272738e+03
1.563988e+03,3.266426e+03
1.564953e+03,3.259754e+03
1.565917e+03,3.251452e+03
1.566881e+03,3.246683e+03
1.567845e+03,3.244816e+03
1.568809e+03,3.246573e+03
1.569774e+03,3.255013e+03
1.570738e+03,3.263089e+03
1.571702e+03,3.260431e+03
1.572666e+03,3.251658e+03
1.573631e+03,3.241651e+03
1.574595e+03,3.232228e+03
1.575559e+03,3.226407e+03
1.576523e+03,3.223653e+03
1.577488e+03,3.228110e+03
1.578452e+03,3.240952e+03
1.579416e+03,3.252461e+03
1.580380e+03,3.252228e+03
1.581344e+03,3.244959e+03
1.582309e+03,3.239672e+03
1.583273e+03,3.235457e+03
1.584237e+03,3.228143e+03
1.585201e+03,3.213958e+03
1.586166e+03,3.204574e+03
1.587130e+03,3.205164e+03
1.588094e+03,3.199635e+03
1.589058e+03,3.178780e+03
1.590023e+03,3.154219e+03
1.590987e+03,3.149296e+03
1.591951e+03,3.158692e+03
1.592915e+03,3.169221e+03
1.593880e+03,3.177260e+03
1.594844e+03,3.180948e+03
1.595808e+03,3.177430e+03
1.596772e+03,3.173132e+03
1.597736e+03,3.169370e+03
1.598701e+03,3.167780e+03
1.599665e+03,3.170195e+03
1.600629e+03,3.175063e+03
1.601593e+03,3.175607e+03
1.602558e+03,3.173009e+03
1.603522e+03,3.170816e+03
1.604486e+03,3.169829e+03
1.605450e+03,3.169267e+03
1.606415e+03,3.168063e+03
1.607379e+03,3.171198e+03
1.608343e+03,3.181954e+03
1.609307e+03,3.194792e+03
1.610271e+03,3.200149e+03
1.611236e+03,3.198902e+03
1.612200e+03,3.197474e+03
1.613164e+03,3.196574e+03
1.614128e+03,3.192940e+03
1.615093e+03,3.181346e+03
1.616057e+03,3.170031e+03
1.617021e+03,3.161420e+03
1.617985e+03,3.152411e+03
1.618950e+03,3.142477e+03
1.619914e+03,3.131444e+03
1.620878e+03,3.116293e+03
1.621842e+03,3.099138e+03
1.622807e+03,3.086586e+03
1.623771e+03,3.080582e+03
1.624735e+03,3.078721e+03
1.625699e+03,3.082062e+03
1.626663e+03,3.083684e+03
1.627628e+03,3.079945e+03
1.628592e+03,3.072568e+03
1.629556e+03,3.065134e+03
1.630520e+03,3.059413e+03
1.631485e+03,3.058840e+03
1.632449e+03,3.061297e+03
1.633413e+03,3.058651e+03
1.634377e+03,3.045051e+03
1.635342e+03,3.034088e+03
1.636306e+03,3.034754e+03
1.637270e+03,3.035247e+03
1.638234e+03,3.029202e+03
1.639198e+03,3.020720e+03
1.640163e+03,3.018592e+03
1.641127e+03,3.021639e+03
1.642091e+03,3.024068e+03
1.643055e+03,3.024110e+03
1.644020e+03,3.022272e+03
1.644984e+03,3.015535e+03
1.645948e+03,3.009856e+03
1.646912e+03,3.008128e+03
1.647877e+03,3.006804e+03
1.648841e+03,3.002921e+03
1.649805e+03,2.997688e+03
1.650769e+03,2.994003e+03
1.651734e+03,2.991155e+03
1.652698e+03,2.987204e+03
1.653662e+03,2.979674e+03
1.654626e+03,2.979125e+03
1.655590e+03,2.998237e+03
1.656555e+03,3.006512e+03
1.657519e+03,2.993910e+03
1.658483e+03,2.975821e+03
1.659447e+03,2.972949e+03
1.660412e+03,2.976843e+03
1.661376e+03,2.973922e+03
1.662340e+03,2.966196e+03
1.663304e+03,2.959812e+03
1.664269e+03,2.951719e+03
1.665233e+03,2.951857e+03
1.666197e+03,2.962806e+03
1.667161e+03,2.970145e+03
1.668125e+03,2.965893e+03
1.669090e+03,2.956383e+03
1.670054e+03,2.950788e+03
1.671018e+03,2.946614e+03
1.671982e+03,2.939718e+03
1.672947e+03,2.930615e+03
1.673911e+03,2.929653e+03
1.674875e+03,2.938962e+03
1.675839e+03,2.940415e+03
1.676804e+03,2.932305e+03
1.677768e+03,2.924483e+03
1.678732e+03,2.926186e+03
1.679696e+03,2.928619e+03
1.680661e+03,2.921421e+03
1.681625e+03,2.909745e+03
1.682589e+03,2.904601e+03
1.683553e+03,2.907742e+03
1.684517e+03,2.901914e+03
1.685482e+03,2.887164e+03
1.686446e+03,2.878597e+03
1.687410e+03,2.881719e+03
1.688374e+03,2.886219e+03
1.689339e+03,2.884746e+03
1.690303e+03,2.881331e+03
1.691267e+03,2.878387e+03
1.692231e+03,2.875496e+03
1.693196e+03,2.869337e+03
1.694160e+03,2.860183e+03
1.695124e+03,2.857256e+03
1.696088e+03,2.860460e+03
1.697052e+03,2.864617e+03
1.698017e+03,2.866640e+03
1.698981e+03,2.866022e+03
1.699945e+03,2.860591e+03
1.700909e+03,2.853113e+03
1.701874e+03,2.846483e+03
1.702838e+03,2.842842e+03
1.703802e+03,2.845479e+03
1.704766e+03,2.849482e+03
1.705731e+03,2.846729e+03
1.706695e+03,2.837625e+03
1.707659e+03,2.834803e+03
1.708623e+03,2.846246e+03
1.709588e+03,2.850726e+03
1.710552e+03,2.843009e+03
1.711516e+03,2.832708e+03
1.712480e+03,2.829739e+03
1.713444e+03,2.828302e+03
1.714409e+03,2.821322e+03
1.715373e+03,2.813708e+03
1.716337e+03,2.812704e+03
1.717301e+03,2.819237e+03
1.718266e+03,2.822427e+03
1.719230e+03,2.821644e+03
1.720194e+03,2.818705e+03
1.721158e+03,2.813316e+03
1.722123e+03,2.809451e+03
1.723087e+03,2.812820e+03
1.724051e+03,2.815465e+03
1.725015e+03,2.815481e+03
1.725979e+03,2.811660e+03
1.726944e+03,2.796264e+03
1.727908e+03,2.774506e+03
1.728872e+03,2.770952e+03
1.729836e+03,2.780747e+03
1.730801e+03,2.787517e+03
1.731765e+03,2.785242e+03
1.732729e+03,2.781358e+03
1.733693e+03,2.777583e+03
1.734658e+03,2.769609e+03
1.735622e+03,2.752805e+03
1.736586e+03,2.736636e+03
1.737550e+03,2.739243e+03
1.738515e+03,2.747758e+03
1.739479e+03,2.745576e+03
1.740443e+03,2.733958e+03
1.741407e+03,2.730101e+03
1.742371e+03,2.735796e+03
1.743336e+03,2.731581e+03
1.744300e+03,2.716038e+03
1.745264e+03,2.701547e+03
1.746228e+03,2.700060e+03
1.747193e+03,2.700079e+03
1.748157e+03,2.696298e+03
1.749121e+03,2.693844e+03
1.750085e+03,2.692956e+03
1.751050e+03,2.691876e+03
1.752014e+03,2.694613e+03
1.752978e+03,2.699438e+03
1.753942e+03,2.700090e+03
1.754906e+03,2.694937e+03
1.755871e+03,2.688540e+03
1.756835e+03,2.679429e+03
1.757799e+03,2.670481e+03
1.758763e+03,2.664848e+03
1.759728e+03,2.661709e+03
1.760692e+03,2.659333e+03
1.761656e+03,2.658823e+03
1.762620e+03,2.662287e+03
1.763585e+03,2.665860e+03
1.764549e+03,2.663269e+03
1.765513e+03,2.653665e+03
1.766477e+03,2.651734e+03
1.767442e+03,2.656391e+03
1.768406e+03,2.656206e+03
1.769370e+03,2.647150e+03
1.770334e+03,2.638618e+03
1.771298e+03,2.633153e+03
1.772263e+03,2.628232e+03
1.773227e+03,2.623479e+03
1.774191e+03,2.620817e+03
1.775155e+03,2.626145e+03
1.776120e+03,2.631938e+03
1.777084e+03,2.624940e+03
1.778048e+03,2.609874e+03
1.779012e+03,2.600578e+03
1.779977e+03,2.600772e+03
1.780941e+03,2.594722e+03
1.781905e+03,2.581546e+03
1.782869e+03,2.574171e+03
1.783833e+03,2.580263e+03
1.784798e+03,2.588037e+03
1.785762e+03,2.593299e+03
1.786726e+03,2.593533e+03
1.787690e+03,2.587563e+03
1.788655e+03,2.577699e+03
1.789619e+03,2.564483e+03
1.790583e+03,2.551309e+03
1.791547e+03,2.544945e+03
1.792512e+03,2.545093e+03
1.793476e+03,2.547180e+03
1.794440e+03,2.549742e+03
1.795404e+03,2.552688e+03
1.796369e+03,2.555235e+03
1.797333e+03,2.556140e+03
1.798297e+03,2.554429e+03
1.799261e+03,2.552391e+03
1.800225e+03,2.549150e+03
1.801190e+03,2.547209e+03
1.802154e+03,2.550287e+03
1.803118e+03,2.555015e+03
1.804082e+03,2.554499e+03
1.805047e+03,2.550185e+03
1.806011e+03,2.541963e+03
1.806975e+03,2.530300e+03
1.807939e+03,2.521513e+03
1.808904e+03,2.515062e+03
1.809868e+03,2.513562e+03
1.810832e+03,2.518416e+03
1.811796e+03,2.522110e+03
1.812760e+03,2.518578e+03
1.813725e+03,2.511569e+03
1.814689e+03,2.499519e+03
1.815653e+03,2.489556e+03
1.816617e+03,2.488439e+03
1.817582e+03,2.492586e+03
1.818546e+03,2.490816e+03
1.819510e+03,2.484192e+03
1.820474e+03,2.472947e+03
1.821439e+03,2.457974e+03
1.822403e+03,2.456077e+03
1.823367e+03,2.472073e+03
1.824331e+03,2.481800e+03
1.825296e+03,2.480732e+03
1.826260e+03,2.474551e+03
1.827224e+03,2.465883e+03
1.828188e+03,2.459978e+03
1.829152e+03,2.459503e+03
1.830117e+03,2.460221e+03
1.831081e+03,2.459758e+03
1.832045e+03,2.456800e+03
1.833009e+03,2.448969e+03
1.833974e+03,2.440058e+03
1.834938e+03,2.432908e+03
1.835902e+03,2.427075e+03
1.836866e+03,2.424249e+03
1.837831e+03,2.424447e+03
1.838795e+03,2.424555e+03
1.839759e+03,2.424980e+03
1.840723e+03,2.426565e+03
1.841688e+03,2.430653e+03
1.842652e+03,2.432279e+03
1.843616e+03,2.427260e+03
1.844580e+03,2.421206e+03
1.845544e+03,2.423608e+03
1.846509e+03,2.428745e+03
1.847473e+03,2.423979e+03
1.848437e+03,2.414290e+03
1.849401e+03,2.409725e+03
1.850366e+03,2.411020e+03
1.851330e+03,2.407198e+03
1.852294e+03,2.399707e+03
1.853258e+03,2.394973e+03
1.854223e+03,2.394782e+03
1.855187e+03,2.394172e+03
1.856151e+03,2.386058e+03
1.857115e+03,2.384293e+03
1.858079e+03,2.393272e+03
1.859044e+03,2.401594e+03
1.860008e+03,2.397136e+03
1.860972e+03,2.388225e+03
1.861936e+03,2.382453e+03
1.862901e+03,2.377414e+03
1.863865e+03,2.365751e+03
1.864829e+03,2.348370e+03
1.865793e+03,2.351308e+03
1.866758e+03,2.366784e+03
1.867722e+03,2.367161e+03
1.868686e+03,2.340313e+03
1.869650e+03,2.326092e+03
1.870615e+03,2.327966e+03
1.871579e+03,2.333160e+03
1.872543e+03,2.340351e+03
1.873507e+03,2.345317e+03
1.874471e+03,2.338354e+03
1.875436e+03,2.330897e+03
1.876400e+03,2.330508e+03
1.877364e+03,2.331682e+03
1.878328e+03,2.327726e+03
1.879293e+03,2.320720e+03
1.880257e+03,2.312528e+03
1.881221e+03,2.304171e+03
1.882185e+03,2.299892e+03
1.883150e+03,2.300441e+03
1.884114e+03,2.297169e+03
1.885078e+03,2.290252e+03
1.886042e+03,2.285875e+03
1.887006e+03,2.286183e+03
1.887971e+03,2.285061e+03
1.888935e+03,2.282965e+03
1.889899e+03,2.276519e+03
1.890863e+03,2.262381e+03
1.891828e+03,2.249084e+03
1.892792e+03,2.250896e+03
1.893756e+03,2.253255e+03
1.894720e+03,2.242547e+03
1.895685e+03,2.231876e+03
1.896649e+03,2.234148e+03
1.897613e+03,2.244625e+03
1.898577e+03,2.254179e+03
1.899542e+03,2.260782e+03
1.900506e+03,2.257652e+03
1.901470e+03,2.242352e+03
1.902434e+03,2.232234e+03
1.903398e+03,2.227374e+03
1.904363e+03,2.227599e+03
1.905327e+03,2.233841e+03
1.906291e+03,2.236516e+03
1.907255e+03,2.224841e+03
1.908220e+03,2.215626e+03
1.909184e+03,2.212017e+03
1.910148e+03,2.211199e+03
1.911112e+03,2.215954e+03
1.912077e+03,2.218460e+03
1.913041e+03,2.207336e+03
1.914005e+03,2.193905e+03
1.914969e+03,2.191543e+03
1.915933e+03,2.195708e+03
1.916898e+03,2.189555e+03
1.917862e+03,2.177447e+03
1.918826e+03,2.165872e+03
1.919790e+03,2.156499e+03
1.920755e+03,2.155966e+03
1.921719e+03,2.162760e+03
1.922683e+03,2.171688e+03
1.923647e+03,2.182583e+03
1.924612e+03,2.188150e+03
1.925576e+03,2.182909e+03
1.926540e+03,2.173411e+03
1.927504e+03,2.157709e+03
1.928469e+03,2.145101e+03
1.929433e+03,2.147406e+03
1.930397e+03,2.151065e+03
1.931361e+03,2.146083e+03
1.932325e+03,2.137917e+03
1.933290e+03,2.129901e+03
1.934254e+03,2.125503e+03
1.935218e+03,2.133922e+03
1.936182e+03,2.145240e+03
1.937147e+03,2.145113e+03
1.938111e+03,2.134535e+03
1.939075e+03,2.121220e+03
1.940039e+03,2.107840e+03
1.941004e+03,2.109501e+03
1.941968e+03,2.125665e+03
1.942932e+03,2.127494e+03
1.943896e+03,2.098965e+03
1.944860e+03,2.084344e+03
1.945825e+03,2.089142e+03
1.946789e+03,2.099447e+03
1.947753e+03,2.110074e+03
1.948717e+03,2.115060e+03
1.949682e+03,2.109106e+03
1.950646e+03,2.102017e+03
1.951610e+03,2.100644e+03
1.952574e+03,2.099681e+03
1.953539e+03,2.088170e+03
1.954503e+03,2.075490e+03
1.955467e+03,2.073206e+03
1.956431e+03,2.077482e+03
1.957396e+03,2.076897e+03
1.958360e+03,2.072905e+03
1.959324e+03,2.071556e+03
1.960288e+03,2.072823e+03
1.961252e+03,2.066731e+03
1.962217e+03,2.050472e+03
1.963181e+03,2.046361e+03
1.964145e+03,2.053820e+03
1.965109e+03,2.060052e+03
1.966074e+03,2.059007e+03
1.967038e+03,2.059422e+03
1.968002e+03,2.060992e+03
1.968966e+03,2.055554e+03
1.969931e+03,2.035716e+03
1.970895e+03,2.019277e+03
1.971859e+03,2.027043e+03
1.972823e+03,2.037033e+03
1.973787e+03,2.038817e+03
1.974752e+03,2.036408e+03
1.975716e+03,2.036730e+03
1.976680e+03,2.035885e+03
1.977644e+03,2.030252e+03
1.978609e+03,2.022682e+03
1.979573e+03,2.013092e+03
1.980537e+03,2.004123e+03
1.981501e+03,2.013242e+03
1.982466e+03,2.031924e+03
1.983430e+03,2.031357e+03
1.984394e+03,2.006755e+03
1.985358e+03,1.994085e+03
1.986323e+03,1.991613e+03
1.987287e+03,1.991442e+03
1.988251e+03,1.992083e+03
1.989215e+03,1.987008e+03
1.990179e+03,1.973953e+03
1.991144e+03,1.968955e+03
1.992108e+03,1.977213e+03
1.993072e+03,1.986799e+03
1.994036e+03,1.991425e+03
1.995001e+03,1.989177e+03
1.995965e+03,1.977971e+03
1.996929e+03,1.967586e+03
1.997893e+03,1.966877e+03
1.998858e+03,1.969289e+03
1.999822e+03,1.970734e+03
2.000786e+03,1.971059e+03
2.001750e+03,1.972919e+03
2.002714e+03,1.974800e+03
2.003679e+03,1.968738e+03
2.004643e+03,1.957432e+03
2.005607e+03,1.944440e+03
2.006571e+03,1.932138e+03
2.007536e+03,1.928748e+03
2.008500e+03,1.931310e+03
2.009464e+03,1.929194e+03
2.010428e+03,1.922246e+03
2.011393e+03,1.918713e+03
2.012357e+03,1.919186e+03
2.013321e+03,1.918602e+03
2.014285e+03,1.915423e+03
2.015250e+03,1.912219e+03
2.016214e+03,1.909407e+03
2.017178e+03,1.909802e+03
2.018142e+03,1.914644e+03
2.019106e+03,1.914777e+03
2.020071e+03,1.901703e+03
2.021035e+03,1.891340e+03
2.021999e+03,1.893274e+03
2.022963e+03,1.894897e+03
2.023928e+03,1.892507e+03
2.024892e+03,1.888251e+03
2.025856e+03,1.882201e+03
2.026820e+03,1.877565e+03
2.027785e+03,1.876463e+03
2.028749e+03,1.876275e+03
2.029713e+03,1.873217e+03
2.030677e+03,1.870583e+03
2.031641e+03,1.873746e+03
2.032606e+03,1.878984e+03
2.033570e+03,1.881230e+03
2.034534e+03,1.879591e+03
2.035498e+03,1.869041e+03
2.036463e+03,1.853817e+03
2.037427e+03,1.842534e+03
2.038391e+03,1.836818e+03
2.039355e+03,1.836955e+03
2.040320e+03,1.841473e+03
2.041284e+03,1.842671e+03
2.042248e+03,1.838151e+03
2.043212e+03,1.832733e+03
2.044177e+03,1.827208e+03
2.045141e+03,1.825229e+03
2.046105e+03,1.826892e+03
2.047069e+03,1.829579e+03
2.048033e+03,1.834568e+03
2.048998e+03,1.831701e+03
2.049962e+03,1.820150e+03
2.050926e+03,1.810170e+03
2.051890e+03,1.810160e+03
2.052854e+03,1.810361e+03
2.053819e+03,1.806526e+03
2.054783e+03,1.802918e+03
2.055747e+03,1.803633e+03
2.056711e+03,1.805581e+03
2.057676e+03,1.806159e+03
2.058640e+03,1.805664e+03
2.059604e+03,1.802842e+03
2.060568e+03,1.798123e+03
2.061533e+03,1.791661e+03
2.062497e+03,1.786393e+03
2.063461e+03,1.788305e+03
2.064425e+03,1.790214e+03
2.065390e+03,1.778213e+03
2.066354e+03,1.761144e+03
2.067318e+03,1.756718e+03
2.068282e+03,1.761276e+03
2.069247e+03,1.765316e+03
2.070211e+03,1.767650e+03
2.071175e+03,1.761730e+03
2.072139e+03,1.752144e+03
2.073104e+03,1.751302e+03
2.074068e+03,1.759750e+03
2.075032e+03,1.755913e+03
2.075996e+03,1.742855e+03
2.076960e+03,1.737552e+03
2.077925e+03,1.743078e+03
2.078889e+03,1.748972e+03
2.079853e+03,1.754657e+03
2.080817e+03,1.753935e+03
2.081782e+03,1.746421e+03
2.082746e+03,1.740271e+03
2.083710e+03,1.743711e+03
2.084674e+03,1.733991e+03
2.085639e+03,1.710960e+03
2.086603e+03,1.699103e+03
2.087567e+03,1.720801e+03
2.088531e+03,1.729834e+03
2.089496e+03,1.716570e+03
2.090460e+03,1.706557e+03
2.091424e+03,1.716439e+03
2.092388e+03,1.726239e+03
2.093353e+03,1.719053e+03
2.094317e+03,1.715692e+03
2.095281e+03,1.722010e+03
2.096245e+03,1.726520e+03
2.097209e+03,1.713093e+03
2.098174e+03,1.701689e+03
2.099138e+03,1.702879e+03
2.100102e+03,1.706607e+03
2.101066e+03,1.703302e+03
2.102031e+03,1.695554e+03
2.102995e+03,1.680406e+03
2.103959e+03,1.667868e+03
2.104923e+03,1.667474e+03
2.105887e+03,1.674952e+03
2.106852e+03,1.684463e+03
2.107816e+03,1.690968e+03
2.108780e+03,1.691205e+03
2.109744e+03,1.686647e+03
2.110708e+03,1.679958e+03
2.111673e+03,1.674268e+03
2.112637e+03,1.673721e+03
2.113601e+03,1.674532e+03
2.114565e+03,1.670185e+03
2.115530e+03,1.662460e+03
2.116494e+03,1.653427e+03
2.117458e+03,1.646783e+03
2.118422e+03,1.645688e+03
2.119387e+03,1.648008e+03
2.120351e+03,1.651997e+03
2.121315e+03,1.655078e+03
2.122279e+03,1.652166e+03
2.123244e+03,1.642967e+03
2.124208e+03,1.636930e+03
2.125172e+03,1.633629e+03
2.126136e+03,1.628734e+03
2.127101e+03,1.621098e+03
2.128065e+03,1.620625e+03
2.129029e+03,1.625837e+03
2.129993e+03,1.628047e+03
2.130958e+03,1.623965e+03
2.131922e+03,1.620080e+03
2.132886e+03,1.617534e+03
2.133850e+03,1.617963e+03
2.134814e+03,1.622661e+03
2.135779e+03,1.624534e+03
2.136743e+03,1.619034e+03
2.137707e+03,1.613281e+03
2.138671e+03,1.608221e+03
2.139636e+03,1.603481e+03
2.140600e+03,1.596755e+03
2.141564e+03,1.596534e+03
2.142528e+03,1.603988e+03
2.143493e+03,1.608421e+03
2.144457e+03,1.604628e+03
2.145421e+03,1.596502e+03
2.146385e+03,1.583455e+03
2.147350e+03,1.577305e+03
2.148314e+03,1.582877e+03
2.149278e+03,1.590542e+03
2.150242e+03,1.594941e+03
2.151207e+03,1.592625e+03
2.152171e+03,1.581449e+03
2.153135e+03,1.572562e+03
2.154099e+03,1.583294e+03
2.155063e+03,1.586934e+03
2.156028e+03,1.576182e+03
2.156992e+03,1.568037e+03
2.157956e+03,1.576042e+03
2.158920e+03,1.582588e+03
2.159885e+03,1.579204e+03
2.160849e+03,1.573790e+03
2.161813e+03,1.569395e+03
2.162777e+03,1.565485e+03
2.163741e+03,1.562266e+03
2.164706e+03,1.559818e+03
2.165670e+03,1.560498e+03
2.166634e+03,1.560565e+03
2.167598e+03,1.551553e+03
2.168563e+03,1.543314e+03
2.169527e+03,1.537531e+03
2.170491e+03,1.537059e+03
2.171455e+03,1.555432e+03
2.172420e+03,1.570670e+03
2.173384e+03,1.568303e+03
2.174348e+03,1.557930e+03
2.175312e+03,1.541059e+03
2.176277e+03,1.525047e+03
2.177241e+03,1.518069e+03
2.178205e+03,1.515969e+03
2.179169e+03,1.518335e+03
2.180134e+03,1.522878e+03
2.181098e+03,1.526264e+03
2.182062e+03,1.527942e+03
2.183026e+03,1.526018e+03
2.183990e+03,1.523059e+03
2.184955e+03,1.525046e+03
2.185919e+03,1.525609e+03
2.186883e+03,1.516872e+03
2.187847e+03,1.507029e+03
2.188812e+03,1.508374e+03
2.189776e+03,1.514022e+03
2.190740e+03,1.518172e+03
2.191704e+03,1.518807e+03
2.192668e+03,1.511939e+03
2.193633e+03,1.504016e+03
2.194597e+03,1.507254e+03
2.195561e+03,1.510737e+03
2.196525e+03,1.502807e+03
2.197490e+03,1.490126e+03
2.198454e+03,1.483634e+03
2.199418e+03,1.480113e+03
2.200382e+03,1.476701e+03
2.201347e+03,1.474900e+03
2.202311e+03,1.478192e+03
2.203275e+03,1.480510e+03
2.204239e+03,1.471127e+03
2.205204e+03,1.460163e+03
2.206168e+03,1.467023e+03
2.207132e+03,1.479891e+03
2.208096e+03,1.482530e+03
2.209061e+03,1.480502e+03
2.210025e+03,1.482453e+03
2.210989e+03,1.483951e+03
2.211953e+03,1.475636e+03
2.212917e+03,1.468288e+03
2.213882e+03,1.468773e+03
2.214846e+03,1.472333e+03
2.215810e+03,1.474220e+03
2.216774e+03,1.472338e+03
2.217739e+03,1.467269e+03
2.218703e+03,1.462124e+03
2.219667e+03,1.462892e+03
2.220631e+03,1.464428e+03
2.221595e+03,1.459754e+03
2.222560e+03,1.454005e+03
2.223524e+03,1.458944e+03
2.224488e+03,1.463323e+03
2.225452e+03,1.451081e+03
2.226417e+03,1.434898e+03
2.227381e+03,1.423547e+03
2.228345e+03,1.418636e+03
2.229309e+03,1.425326e+03
2.230274e+03,1.433643e+03
2.231238e+03,1.436248e+03
2.232202e+03,1.434385e+03
2.233166e+03,1.428433e+03
2.234131e+03,1.423695e+03
2.235095e+03,1.423808e+03
2.236059e+03,1.425874e+03
2.237023e+03,1.425101e+03
2.237988e+03,1.423914e+03
2.238952e+03,1.424214e+03
2.239916e+03,1.422993e+03
2.240880e+03,1.414626e+03
2.241844e+03,1.408442e+03
2.242809e+03,1.412872e+03
2.243773e+03,1.418299e+03
2.244737e+03,1.411771e+03
2.245701e+03,1.404270e+03
2.246666e+03,1.405151e+03
2.247630e+03,1.408428e+03
2.248594e+03,1.414074e+03
2.249558e+03,1.418340e+03
2.250522e+03,1.413477e+03
2.251487e+03,1.410032e+03
2.252451e+03,1.413590e+03
2.253415e+03,1.413270e+03
2.254379e+03,1.393099e+03
2.255344e+03,1.377792e+03
2.256308e+03,1.378208e+03
2.257272e+03,1.382813e+03
2.258236e+03,1.382993e+03
2.259201e+03,1.378786e+03
2.260165e+03,1.368419e+03
2.261129e+03,1.361104e+03
2.262093e+03,1.369276e+03
2.263058e+03,1.374592e+03
2.264022e+03,1.372716e+03
2.264986e+03,1.370279e+03
2.265950e+03,1.370835e+03
2.266915e+03,1.369874e+03
2.267879e+03,1.364103e+03
2.268843e+03,1.361410e+03
2.269807e+03,1.370041e+03
2.270771e+03,1.371719e+03
2.271736e+03,1.357384e+03
2.272700e+03,1.346699e+03
2.273664e+03,1.343162e+03
2.274628e+03,1.345966e+03
2.275593e+03,1.359053e+03
2.276557e+03,1.361930e+03
2.277521e+03,1.352370e+03
2.278485e+03,1.345596e+03
2.279449e+03,1.350988e+03
2.280414e+03,1.354050e+03
2.281378e+03,1.353728e+03
2.282342e+03,1.352027e+03
2.283306e+03,1.348040e+03
2.284271e+03,1.342944e+03
2.285235e+03,1.336661e+03
2.286199e+03,1.331982e+03
2.287163e+03,1.331962e+03
2.288128e+03,1.336060e+03
2.289092e+03,1.342240e+03
2.290056e+03,1.342518e+03
2.291020e+03,1.335147e+03
2.291985e+03,1.334703e+03
2.292949e+03,1.341010e+03
2.293913e+03,1.339390e+03
2.294877e+03,1.328517e+03
2.295842e+03,1.320846e+03
2.296806e+03,1.316225e+03
2.297770e+03,1.315718e+03
2.298734e+03,1.318689e+03
2.299698e+03,1.323910e+03
2.300663e+03,1.330586e+03
2.301627e+03,1.330653e+03
2.302591e+03,1.324991e+03
2.303555e+03,1.315852e+03
2.304520e+03,1.305864e+03
2.305484e+03,1.306373e+03
2.306448e+03,1.311832e+03
2.307412e+03,1.311278e+03
2.308376e+03,1.307093e+03
2.309341e+03,1.309785e+03
2.310305e+03,1.312161e+03
2.311269e+03,1.302239e+03
2.312233e+03,1.290657e+03
2.313198e+03,1.294718e+03
2.314162e+03,1.304232e+03
2.315126e+03,1.312215e+03
2.316090e+03,1.313865e+03
2.317055e+03,1.296087e+03
2.318019e+03,1.279840e+03
2.318983e+03,1.287127e+03
2.319947e+03,1.297926e+03
2.320912e+03,1.301428e+03
2.321876e+03,1.300158e+03
2.322840e+03,1.292218e+03
2.323804e+03,1.285736e+03
2.324769e+03,1.284882e+03
2.325733e+03,1.287132e+03
2.326697e+03,1.291359e+03
2.327661e+03,1.295379e+03
2.328625e+03,1.298246e+03
2.329590e+03,1.295346e+03
2.330554e+03,1.281389e+03
2.331518e+03,1.270470e+03
2.332482e+03,1.264316e+03
2.333447e+03,1.266071e+03
2.334411e+03,1.286285e+03
2.335375e+03,1.284892e+03
2.336339e+03,1.261020e+03
2.337303e+03,1.246786e+03
2.338268e+03,1.259756e+03
2.339232e+03,1.262678e+03
2.340196e+03,1.257395e+03
2.341160e+03,1.254151e+03
2.342125e+03,1.255239e+03
2.343089e+03,1.265623e+03
2.344053e+03,1.279486e+03
2.345017e+03,1.278828e+03
2.345982e+03,1.264020e+03
2.346946e+03,1.257151e+03
2.347910e+03,1.256444e+03
2.348874e+03,1.255001e+03
2.349839e+03,1.251352e+03
2.350803e+03,1.246223e+03
2.351767e+03,1.240970e+03
2.352731e+03,1.235882e+03
2.353696e+03,1.234029e+03
2.354660e+03,1.239417e+03
2.355624e+03,1.248126e+03
2.356588e+03,1.259321e+03
2.357552e+03,1.267027e+03
2.358517e+03,1.264361e+03
2.359481e+03,1.257614e+03
2.360445e+03,1.252695e+03
2.361409e+03,1.246833e+03
2.362374e+03,1.238236e+03
2.363338e+03,1.229634e+03
2.364302e+03,1.224052e+03
2.365266e+03,1.224148e+03
2.366230e+03,1.230839e+03
2.367195e+03,1.236342e+03
2.368159e+03,1.235209e+03
2.369123e+03,1.228836e+03
2.370087e+03,1.218164e+03
2.371052e+03,1.211675e+03
2.372016e+03,1.215521e+03
2.372980e+03,1.217126e+03
2.373944e+03,1.215743e+03
2.374909e+03,1.216908e+03
2.375873e+03,1.224441e+03
2.376837e+03,1.224343e+03
2.377801e+03,1.218163e+03
2.378766e+03,1.210654e+03
2.379730e+03,1.202939e+03
2.380694e+03,1.198743e+03
2.381658e+03,1.197996e+03
2.382623e+03,1.198916e+03
2.383587e+03,1.200564e+03
2.384551e+03,1.202408e+03
2.385515e+03,1.203048e+03
2.386479e+03,1.200714e+03
2.387444e+03,1.197610e+03
2.388408e+03,1.197629e+03
2.389372e+03,1.198053e+03
2.390336e+03,1.193067e+03
2.391301e+03,1.190272e+03
2.392265e+03,1.200996e+03
2.393229e+03,1.210383e+03
2.394193e+03,1.209801e+03
2.395157e+03,1.205609e+03
2.396122e+03,1.200645e+03
2.397086e+03,1.195235e+03
2.398050e+03,1.189423e+03
2.399014e+03,1.186694e+03
2.399979e+03,1.188974e+03
2.400943e+03,1.190119e+03
2.401907e+03,1.188489e+03
2.402871e+03,1.190115e+03
2.403836e+03,1.196746e+03
2.404800e+03,1.195033e+03
2.405764e+03,1.184734e+03
2.406728e+03,1.179413e+03
2.407693e+03,1.178514e+03
2.408657e+03,1.171722e+03
2.409621e+03,1.162210e+03
2.410585e+03,1.166663e+03
2.411550e+03,1.178651e+03
2.412514e+03,1.179296e+03
2.413478e+03,1.173565e+03
2.414442e+03,1.175016e+03
2.415406e+03,1.179149e+03
2.416371e+03,1.181888e+03
2.417335e+03,1.181605e+03
2.418299e+03,1.170666e+03
2.419263e+03,1.163061e+03
2.420228e+03,1.167526e+03
2.421192e+03,1.172564e+03
2.422156e+03,1.165542e+03
2.423120e+03,1.161460e+03
2.424084e+03,1.162944e+03
2.425049e+03,1.164979e+03
2.426013e+03,1.167457e+03
2.426977e+03,1.166381e+03
2.427941e+03,1.162462e+03
2.428906e+03,1.160830e+03
2.429870e+03,1.162321e+03
2.430834e+03,1.164510e+03
2.431798e+03,1.166566e+03
2.432763e+03,1.159827e+03
2.433727e+03,1.145702e+03
2.434691e+03,1.156085e+03
2.435655e+03,1.176212e+03
2.436620e+03,1.174571e+03
2.437584e+03,1.159395e+03
2.438548e+03,1.151113e+03
2.439512e+03,1.145907e+03
2.440477e+03,1.138120e+03
2.441441e+03,1.131556e+03
2.442405e+03,1.135968e+03
2.443369e+03,1.140893e+03
2.444333e+03,1.142053e+03
2.445298e+03,1.141201e+03
2.446262e+03,1.137350e+03
2.447226e+03,1.135884e+03
2.448190e+03,1.138477e+03
2.449155e+03,1.137801e+03
2.450119e+03,1.123434e+03
2.451083e+03,1.125351e+03
2.452047e+03,1.140848e+03
2.453011e+03,1.144868e+03
2.453976e+03,1.131512e+03
2.454940e+03,1.117985e+03
2.455904e+03,1.107453e+03
2.456868e+03,1.110127e+03
2.457833e+03,1.120292e+03
2.458797e+03,1.123560e+03
2.459761e+03,1.122268e+03
2.460725e+03,1.116811e+03
2.461690e+03,1.112069e+03
2.462654e+03,1.118373e+03
2.463618e+03,1.123916e+03
2.464582e+03,1.121795e+03
2.465547e+03,1.118450e+03
2.466511e+03,1.117092e+03
2.467475e+03,1.116446e+03
2.468439e+03,1.116114e+03
2.469404e+03,1.115274e+03
2.470368e+03,1.114358e+03
2.471332e+03,1.115050e+03
2.472296e+03,1.116413e+03
2.473260e+03,1.116005e+03
2.474225e+03,1.113275e+03
2.475189e+03,1.109271e+03
2.476153e+03,1.106375e+03
2.477117e+03,1.112758e+03
2.478082e+03,1.122550e+03
2.479046e+03,1.114901e+03
2.480010e+03,1.101992e+03
2.480974e+03,1.101222e+03
2.481938e+03,1.105948e+03
2.482903e+03,1.110486e+03
2.483867e+03,1.111908e+03
2.484831e+03,1.108558e+03
2.485795e+03,1.103111e+03
2.486760e+03,1.097881e+03
2.487724e+03,1.091813e+03
2.488688e+03,1.085067e+03
2.489652e+03,1.081007e+03
2.490617e+03,1.080142e+03
2.491581e+03,1.085367e+03
2.492545e+03,1.095802e+03
2.493509e+03,1.103150e+03
2.494474e+03,1.105445e+03
2.495438e+03,1.103805e+03
2.496402e+03,1.101612e+03
2.497366e+03,1.111019e+03
2.498331e+03,1.121706e+03
2.499295e+03,1.109527e+03
2.500259e+03,1.090444e+03
2.501223e+03,1.078209e+03
2.502188e+03,1.073045e+03
2.503152e+03,1.081221e+03
2.504116e+03,1.085459e+03
2.505080e+03,1.080577e+03
2.506044e+03,1.075043e+03
2.507009e+03,1.071365e+03
2.507973e+03,1.074379e+03
2.508937e+03,1.083623e+03
2.509901e+03,1.085166e+03
2.510865e+03,1.074466e+03
2.511830e+03,1.077517e+03
2.512794e+03,1.087410e+03
2.513758e+03,1.085344e+03
2.514722e+03,1.076765e+03
2.515687e+03,1.077694e+03
2.516651e+03,1.079161e+03
2.517615e+03,1.070610e+03
2.518579e+03,1.060833e+03
2.519544e+03,1.062185e+03
2.520508e+03,1.064499e+03
2.521472e+03,1.064168e+03
2.522436e+03,1.063755e+03
2.523401e+03,1.065552e+03
2.524365e+03,1.066315e+03
2.525329e+03,1.065141e+03
2.526293e+03,1.066988e+03
2.527258e+03,1.074434e+03
2.528222e+03,1.071801e+03
2.529186e+03,1.063362e+03
2.530150e+03,1.063700e+03
2.531115e+03,1.070122e+03
2.532079e+03,1.071197e+03
2.533043e+03,1.068120e+03
2.534007e+03,1.061177e+03
2.534971e+03,1.054725e+03
2.535936e+03,1.057770e+03
2.536900e+03,1.061709e+03
2.537864e+03,1.063621e+03
2.538828e+03,1.063970e+03
2.539792e+03,1.059448e+03
2.540757e+03,1.063985e+03
2.541721e+03,1.078157e+03
2.542685e+03,1.076478e+03
2.543649e+03,1.059465e+03
2.544614e+03,1.051566e+03
2.545578e+03,1.050682e+03
2.546542e+03,1.047518e+03
2.547506e+03,1.044172e+03
2.548471e+03,1.046895e+03
2.549435e+03,1.050248e+03
2.550399e+03,1.048927e+03
2.551363e+03,1.047334e+03
2.552328e+03,1.049250e+03
2.553292e+03,1.054819e+03
2.554256e+03,1.066176e+03
2.555220e+03,1.070455e+03
2.556185e+03,1.065575e+03
2.557149e+03,1.062759e+03
2.558113e+03,1.063447e+03
2.559077e+03,1.059528e+03
2.560042e+03,1.052251e+03
2.561006e+03,1.051138e+03
2.561970e+03,1.053315e+03
2.562934e+03,1.044847e+03
2.563898e+03,1.037318e+03
2.564863e+03,1.046797e+03
2.565827e+03,1.056772e+03
2.566791e+03,1.058553e+03
2.567755e+03,1.054048e+03
2.568719e+03,1.042568e+03
2.569684e+03,1.035922e+03
2.570648e+03,1.042089e+03
2.571612e+03,1.044647e+03
2.572576e+03,1.044102e+03
2.573541e+03,1.038144e+03
2.574505e+03,1.028243e+03
2.575469e+03,1.031223e+03
2.576433e+03,1.037428e+03
2.577398e+03,1.032363e+03
2.578362e+03,1.024286e+03
2.579326e+03,1.023873e+03
2.580290e+03,1.026224e+03
2.581255e+03,1.028561e+03
2.582219e+03,1.029702e+03
2.583183e+03,1.029181e+03
2.584147e+03,1.027089e+03
2.585112e+03,1.024908e+03
2.586076e+03,1.022406e+03
2.587040e+03,1.019453e+03
2.588004e+03,1.018321e+03
2.588969e+03,1.018911e+03
2.589933e+03,1.023091e+03
2.590897e+03,1.028725e+03
2.591861e+03,1.031940e+03
2.592825e+03,1.033218e+03
2.593790e+03,1.032524e+03
2.594754e+03,1.029769e+03
2.595718e+03,1.024604e+03
2.596682e+03,1.016712e+03
2.597646e+03,1.004946e+03
2.598611e+03,1.013269e+03
2.599575e+03,1.040347e+03
2.600539e+03,1.036094e+03
2.601503e+03,1.006766e+03
2.602468e+03,1.004685e+03
2.603432e+03,1.015539e+03
2.604396e+03,1.013220e+03
2.605360e+03,1.007062e+03
2.606325e+03,1.003019e+03
2.607289e+03,9.999587e+02
2.608253e+03,9.972362e+02
2.609217e+03,9.973454e+02
2.610182e+03,1.000856e+03
2.611146e+03,1.006375e+03
2.612110e+03,1.012691e+03
2.613074e+03,1.007995e+03
2.614039e+03,9.947812e+02
2.615003e+03,9.947109e+02
2.615967e+03,9.999329e+02
2.616931e+03,1.001647e+03
2.617896e+03,1.000649e+03
2.618860e+03,9.929401e+02
2.619824e+03,9.920899e+02
2.620788e+03,1.003104e+03
2.621752e+03,1.010637e+03
2.622717e+03,1.002877e+03
2.623681e+03,1.008536e+03
2.624645e+03,1.025261e+03
2.625609e+03,1.025264e+03
2.626573e+03,1.010028e+03
2.627538e+03,9.943418e+02
2.628502e+03,9.850145e+02
2.629466e+03,9.906288e+02
2.630430e+03,1.000592e+03
2.631395e+03,1.001367e+03
2.632359e+03,9.996226e+02
2.633323e+03,9.969557e+02
2.634287e+03,9.955546e+02
2.635252e+03,9.961248e+02
2.636216e+03,9.998633e+02
2.637180e+03,1.005877e+03
2.638144e+03,1.008330e+03
2.639109e+03,1.006557e+03
2.640073e+03,9.979460e+02
2.641037e+03,9.885038e+02
2.642001e+03,9.796360e+02
2.642966e+03,9.806141e+02
2.643930e+03,9.980577e+02
2.644894e+03,1.010068e+03
2.645858e+03,9.948734e+02
2.646823e+03,9.893365e+02
2.647787e+03,9.932568e+02
2.648751e+03,9.887490e+02
2.649715e+03,9.747156e+02
2.650679e+03,9.721155e+02
2.651644e+03,9.769258e+02
2.652608e+03,9.827088e+02
2.653572e+03,9.877322e+02
2.654536e+03,9.889924e+02
2.655500e+03,9.923191e+02
2.656465e+03,1.001562e+03
2.657429e+03,9.986094e+02
2.658393e+03,9.761191e+02
2.659357e+03,9.660770e+02
2.660322e+03,9.716394e+02
2.661286e+03,9.685172e+02
2.662250e+03,9.614298e+02
2.663214e+03,9.683243e+02
2.664179e+03,9.810345e+02
2.665143e+03,9.951183e+02
2.666107e+03,1.001164e+03
2.667071e+03,9.942834e+02
2.668036e+03,9.859244e+02
2.669000e+03,9.781281e+02
2.669964e+03,9.798260e+02
2.670928e+03,9.883736e+02
2.671893e+03,9.883417e+02
2.672857e+03,9.804846e+02
2.673821e+03,9.670434e+02
2.674785e+03,9.562874e+02
2.675750e+03,9.575357e+02
2.676714e+03,9.643550e+02
2.677678e+03,9.746710e+02
2.678642e+03,9.756591e+02
2.679606e+03,9.640242e+02
2.680571e+03,9.601984e+02
2.681535e+03,9.667799e+02
2.682499e+03,9.669815e+02
2.683463e+03,9.613348e+02
2.684427e+03,9.583138e+02
2.685392e+03,9.593302e+02
2.686356e+03,9.716572e+02
2.687320e+03,9.798831e+02
2.688284e+03,9.686888e+02
2.689249e+03,9.624041e+02
2.690213e+03,9.656616e+02
2.691177e+03,9.659709e+02
2.692141e+03,9.600541e+02
2.693106e+03,9.585992e+02
2.694070e+03,9.597673e+02
2.695034e+03,9.587035e+02
2.695998e+03,9.557699e+02
2.696963e+03,9.499949e+02
2.697927e+03,9.465298e+02
2.698891e+03,9.469305e+02
2.699855e+03,9.472878e+02
2.700820e+03,9.454108e+02
2.701784e+03,9.540381e+02
2.702748e+03,9.694908e+02
2.703712e+03,9.591838e+02
2.704677e+03,9.336923e+02
2.705641e+03,9.295476e+02
2.706605e+03,9.379313e+02
2.707569e+03,9.557224e+02
2.708533e+03,9.600276e+02
2.709498e+03,9.384843e+02
2.710462e+03,9.260231e+02
2.711426e+03,9.451044e+02
2.712390e+03,9.469032e+02
2.713354e+03,9.359942e+02
2.714319e+03,9.381422e+02
2.715283e+03,9.473268e+02
2.716247e+03,9.485904e+02
2.717211e+03,9.437338e+02
2.718176e+03,9.331966e+02
2.719140e+03,9.292704e+02
2.720104e+03,9.450179e+02
2.721068e+03,9.489040e+02
2.722033e+03,9.381859e+02
2.722997e+03,9.343896e+02
2.723961e+03,9.365558e+02
2.724925e+03,9.364442e+02
2.725890e+03,9.353885e+02
2.726854e+03,9.355261e+02
2.727818e+03,9.350572e+02
2.728782e+03,9.318256e+02
2.729747e+03,9.276376e+02
2.730711e+03,9.216379e+02
2.731675e+03,9.243729e+02
2.732639e+03,9.337884e+02
2.733604e+03,9.378936e+02
2.734568e+03,9.382229e+02
2.735532e+03,9.415536e+02
2.736496e+03,9.434135e+02
2.737460e+03,9.415234e+02
2.738425e+03,9.369421e+02
2.739389e+03,9.285284e+02
2.740353e+03,9.258796e+02
2.741317e+03,9.301731e+02
2.742281e+03,9.238907e+02
2.743246e+03,9.130408e+02
2.744210e+03,9.220447e+02
2.745174e+03,9.351819e+02
2.746138e+03,9.339019e+02
2.747103e+03,9.300511e+02
2.748067e+03,9.298027e+02
2.749031e+03,9.261949e+02
2.749995e+03,9.107051e+02
2.750960e+03,9.120208e+02
2.751924e+03,9.234899e+02
2.752888e+03,9.214558e+02
2.753852e+03,9.129710e+02
2.754817e+03,9.178760e+02
2.755781e+03,9.229345e+02
2.756745e+03,9.198121e+02
2.757709e+03,9.173988e+02
2.758674e+03,9.176335e+02
2.759638e+03,9.188981e+02
2.760602e+03,9.202601e+02
2.761566e+03,9.141845e+02
2.762531e+03,9.055152e+02
2.763495e+03,9.001639e+02
2.764459e+03,8.971351e+02
2.765423e+03,8.964228e+02
2.766387e+03,8.998812e+02
2.767352e+03,9.080560e+02
2.768316e+03,9.126362e+02
2.769280e+03,9.118653e+02
2.770244e+03,9.111690e+02
2.771208e+03,9.102969e+02
2.772173e+03,9.054400e+02
2.773137e+03,9.028056e+02
2.774101e+03,9.145372e+02
2.775065e+03,9.215602e+02
2.776030e+03,9.143528e+02
2.776994e+03,9.068531e+02
2.777958e+03,9.004144e+02
2.778922e+03,8.990218e+02
2.779887e+03,9.008964e+02
2.780851e+03,9.012484e+02
2.781815e+03,8.990526e+02
2.782779e+03,8.949257e+02
2.783744e+03,8.906154e+02
2.784708e+03,8.850397e+02
2.785672e+03,8.853248e+02
2.786636e+03,8.910544e+02
2.787601e+03,8.944424e+02
2.788565e+03,8.964924e+02
2.789529e+03,8.998830e+02
2.790493e+03,9.023271e+02
2.791458e+03,9.005621e+02
2.792422e+03,8.965908e+02
2.793386e+03,8.921971e+02
2.794350e+03,8.883389e+02
2.795314e+03,8.848817e+02
2.796279e+03,8.966278e+02
2.797243e+03,9.110303e+02
2.798207e+03,9.099282e+02
2.799171e+03,9.034633e+02
2.800135e+03,9.010758e+02
2.801100e+03,8.999793e+02
2.802064e+03,9.005459e+02
2.803028e+03,8.942901e+02
2.803992e+03,8.831475e+02
2.804957e+03,8.808271e+02
2.805921e+03,8.853077e+02
2.806885e+03,8.973051e+02
2.807849e+03,8.980459e+02
2.808814e+03,8.780179e+02
2.809778e+03,8.729382e+02
2.810742e+03,9.097521e+02
2.811706e+03,9.010551e+02
2.812671e+03,8.632139e+02
2.813635e+03,8.644500e+02
2.814599e+03,8.854489e+02
2.815563e+03,8.900655e+02
2.816528e+03,8.931827e+02
2.817492e+03,9.029124e+02
2.818456e+03,9.031647e+02
2.819420e+03,8.930121e+02
2.820385e+03,8.843187e+02
2.821349e+03,8.789003e+02
2.822313e+03,8.741535e+02
2.823277e+03,8.697415e+02
2.824241e+03,8.639745e+02
2.825206e+03,8.619063e+02
2.826170e+03,8.677587e+02
2.827134e+03,8.787350e+02
2.828098e+03,8.913359e+02
2.829063e+03,8.896306e+02
2.830027e+03,8.798400e+02
2.830991e+03,8.737377e+02
2.831955e+03,8.733759e+02
2.832919e+03,8.822709e+02
2.833884e+03,8.898958e+02
2.834848e+03,8.942019e+02
2.835812e+03,8.967914e+02
2.836776e+03,8.975870e+02
2.837741e+03,8.862875e+02
2.838705e+03,8.712626e+02
2.839669e+03,8.594665e+02
2.840633e+03,8.566394e+02
2.841598e+03,8.665405e+02
2.842562e+03,8.730336e+02
2.843526e+03,8.729232e+02
2.844490e+03,8.771736e+02
2.845455e+03,8.782118e+02
2.846419e+03,8.588674e+02
2.847383e+03,8.438546e+02
2.848347e+03,8.711024e+02
2.849312e+03,8.884905e+02
2.850276e+03,8.869113e+02
2.851240e+03,8.854659e+02
2.852204e+03,8.854409e+02
2.853168e+03,8.813391e+02
2.854133e+03,8.764975e+02
2.855097e+03,8.769814e+02
2.856061e+03,8.765774e+02
2.857025e+03,8.720829e+02
2.857990e+03,8.710533e+02
2.858954e+03,8.762953e+02
2.859918e+03,8.703143e+02
2.860882e+03,8.630837e+02
2.861846e+03,8.708604e+02
2.862811e+03,8.818870e+02
2.863775e+03,8.872181e+02
2.864739e+03,8.823490e+02
2.865703e+03,8.648047e+02
2.866668e+03,8.624997e+02
2.867632e+03,8.708005e+02
2.868596e+03,8.753746e+02
2.869560e+03,8.784039e+02
2.870525e+03,8.877118e+02
2.871489e+03,8.884482e+02
2.872453e+03,8.768440e+02
2.873417e+03,8.780803e+02
2.874382e+03,8.900148e+02
2.875346e+03,8.786105e+02
2.876310e+03,8.622586e+02
2.877274e+03,8.684167e+02
2.878239e+03,8.776979e+02
2.879203e+03,8.814011e+02
2.880167e+03,8.854397e+02
2.881131e+03,8.927021e+02
2.882095e+03,9.020222e+02
2.883060e+03,9.089023e+02
2.884024e+03,9.061500e+02
2.884988e+03,8.995441e+02
2.885952e+03,8.935790e+02
2.886917e+03,8.858223e+02
2.887881e+03,8.767169e+02
2.888845e+03,8.772232e+02
2.889809e+03,8.821572e+02
2.890773e+03,8.751464e+02
2.891738e+03,8.704092e+02
2.892702e+03,8.988577e+02
2.893666e+03,9.043476e+02
2.894630e+03,8.784863e+02
2.895595e+03,8.664028e+02
2.896559e+03,8.682178e+02
2.897523e+03,8.685277e+02
2.898487e+03,8.670898e+02
2.899452e+03,8.606390e+02
2.900416e+03,8.609822e+02
2.901380e+03,8.693470e+02
2.902344e+03,8.745289e+02
2.903309e+03,8.746750e+02
2.904273e+03,8.710850e+02
2.905237e+03,8.687592e+02
2.906201e+03,8.746032e+02
2.907166e+03,8.744808e+02
2.908130e+03,8.621310e+02
2.909094e+03,8.594685e+02
2.910058e+03,8.685855e+02
2.911022e+03,8.663715e+02
2.911987e+03,8.589363e+02
2.912951e+03,8.516868e+02
2.913915e+03,8.485938e+02
2.914879e+03,8.534574e+02
2.915844e+03,8.599756e+02
2.916808e+03,8.662537e+02
2.917772e+03,8.618221e+02
2.918736e+03,8.559500e+02
2.919700e+03,8.648235e+02
2.920665e+03,8.705522e+02
2.921629e+03,8.538818e+02
2.922593e+03,8.539092e+02
2.923557e+03,8.662974e+02
2.924522e+03,8.561530e+02
2.925486e+03,8.359742e+02
2.926450e+03,8.367916e+02
2.927414e+03,8.406666e+02
2.928379e+03,8.394359e+02
2.929343e+03,8.440273e+02
2.930307e+03,8.532523e+02
2.931271e+03,8.598724e+02
2.932236e+03,8.624124e+02
2.933200e+03,8.539466e+02
2.934164e+03,8.420219e+02
2.935128e+03,8.278415e+02
2.936093e+03,8.339133e+02
2.937057e+03,8.556864e+02
2.938021e+03,8.456674e+02
2.938985e+03,8.253352e+02
2.939949e+03,8.331154e+02
2.940914e+03,8.410698e+02
2.941878e+03,8.396183e+02
2.942842e+03,8.341453e+02
2.943806e+03,8.260416e+02
2.944771e+03,8.354531e+02
2.945735e+03,8.463031e+02
2.946699e+03,8.316244e+02
2.947663e+03,8.221066e+02
2.948627e+03,8.262615e+02
2.949592e+03,8.356163e+02
2.950556e+03,8.481873e+02
2.951520e+03,8.602592e+02
2.952484e+03,8.645605e+02
2.953449e+03,8.539030e+02
2.954413e+03,8.495558e+02
2.955377e+03,8.613718e+02
2.956341e+03,8.691529e+02
2.957306e+03,8.701244e+02
2.958270e+03,8.717881e+02
2.959234e+03,8.657068e+02
2.960198e+03,8.476017e+02
2.961163e+03,8.314875e+02
2.962127e+03,8.211607e+02
2.963091e+03,8.209295e+02
2.964055e+03,8.266724e+02
2.965020e+03,8.261395e+02
2.965984e+03,8.267751e+02
2.966948e+03,8.332931e+02
2.967912e+03,8.356353e+02
2.968876e+03,8.276984e+02
2.969841e+03,8.308228e+02
2.970805e+03,8.343137e+02
2.971769e+03,8.170649e+02
2.972733e+03,7.987351e+02
2.973698e+03,7.924245e+02
2.974662e+03,8.030437e+02
2.975626e+03,8.328956e+02
2.976590e+03,8.310092e+02
2.977554e+03,8.154614e+02
2.978519e+03,8.107637e+02
2.979483e+03,8.080970e+02
2.980447e+03,8.020830e+02
2.981411e+03,7.961165e+02
2.982376e+03,7.925678e+02
2.983340e+03,7.997839e+02
2.984304e+03,8.059672e+02
2.985268e+03,7.991011e+02
2.986233e+03,7.935017e+02
2.987197e+03,7.985709e+02
2.988161e+03,7.996674e+02
2.989125e+03,7.960788e+02
2.990090e+03,7.850714e+02
2.991054e+03,7.783353e+02
2.992018e+03,7.855766e+02
2.992982e+03,7.907717e+02
2.993947e+03,7.883015e+02
2.994911e+03,7.930273e+02
2.995875e+03,8.022888e+02
2.996839e+03,8.116395e+02
2.997803e+03,8.113260e+02
2.998768e+03,7.952934e+02
2.999732e+03,7.868648e+02
3.000696e+03,7.912479e+02
3.001660e+03,7.960693e+02
3.002625e+03,7.961082e+02
3.003589e+03,7.870505e+02
3.004553e+03,7.803515e+02
3.005517e+03,7.819989e+02
3.006481e+03,7.890235e+02
3.007446e+03,7.983452e+02
3.008410e+03,8.063646e+02
3.009374e+03,8.084892e+02
3.010338e+03,8.041164e+02
3.011303e+03,7.945554e+02
3.012267e+03,7.787855e+02
3.013231e+03,7.671100e+02
3.014195e+03,7.632248e+02
3.015160e+03,7.741071e+02
3.016124e+03,7.892316e+02
3.017088e+03,8.038089e+02
3.018052e+03,7.972112e+02
3.019017e+03,7.710167e+02
3.019981e+03,7.632372e+02
3.020945e+03,7.704319e+02
3.021909e+03,7.943657e+02
3.022874e+03,7.918461e+02
3.023838e+03,7.605934e+02
3.024802e+03,7.460960e+02
3.025766e+03,7.483822e+02
3.026730e+03,7.649553e+02
3.027695e+03,7.727694e+02
3.028659e+03,7.619327e+02
3.029623e+03,7.707914e+02
3.030587e+03,7.942682e+02
3.031552e+03,7.753383e+02
3.032516e+03,7.464841e+02
3.033480e+03,7.444734e+02
3.034444e+03,7.569443e+02
3.035408e+03,7.787333e+02
3.036373e+03,7.912629e+02
3.037337e+03,7.955837e+02
3.038301e+03,7.988525e+02
3.039265e+03,7.977386e+02
3.040230e+03,7.852358e+02
3.041194e+03,7.765236e+02
3.042158e+03,7.734139e+02
3.043122e+03,7.786769e+02
3.044087e+03,7.878073e+02
3.045051e+03,7.973664e+02
3.046015e+03,7.979736e+02
3.046979e+03,7.857640e+02
3.047944e+03,7.706743e+02
3.048908e+03,7.596984e+02
3.049872e+03,7.624702e+02
3.050836e+03,7.646605e+02
3.051801e+03,7.559281e+02
3.052765e+03,7.471555e+02
3.053729e+03,7.417556e+02
3.054693e+03,7.545750e+02
3.055657e+03,7.660585e+02
3.056622e+03,7.620536e+02
3.057586e+03,7.526138e+02
3.058550e+03,7.422864e+02
3.059514e+03,7.649493e+02
3.060479e+03,7.900500e+02
3.061443e+03,7.478814e+02
3.062407e+03,7.364745e+02
3.063371e+03,7.766422e+02
3.064335e+03,7.873483e+02
3.065300e+03,7.698983e+02
3.066264e+03,7.668055e+02
3.067228e+03,7.640448e+02
3.068192e+03,7.503050e+02
3.069157e+03,7.439383e+02
3.070121e+03,7.476923e+02
3.071085e+03,7.708203e+02
3.072049e+03,7.934681e+02
3.073014e+03,7.852016e+02
3.073978e+03,7.655081e+02
3.074942e+03,7.404757e+02
3.075906e+03,7.714673e+02
3.076871e+03,8.129069e+02
3.077835e+03,7.911815e+02
3.078799e+03,7.605520e+02
3.079763e+03,7.536935e+02
3.080728e+03,7.481520e+02
3.081692e+03,7.416531e+02
3.082656e+03,7.263547e+02
3.083620e+03,7.177689e+02
3.084584e+03,7.235116e+02
3.085549e+03,7.362971e+02
3.086513e+03,7.534714e+02
3.087477e+03,7.544897e+02
3.088441e+03,7.559166e+02
3.089406e+03,7.847625e+02
3.090370e+03,7.890267e+02
3.091334e+03,7.663171e+02
3.092298e+03,7.567964e+02
3.093262e+03,7.560344e+02
3.094227e+03,7.481394e+02
3.095191e+03,7.458956e+02
3.096155e+03,7.545507e+02
3.097119e+03,7.707576e+02
3.098084e+03,7.873663e+02
3.099048e+03,7.918771e+02
3.100012e+03,7.863954e+02
3.100976e+03,7.699449e+02
3.101941e+03,7.476326e+02
3.102905e+03,7.285891e+02
3.103869e+03,7.505613e+02
3.104833e+03,7.724153e+02
3.105798e+03,7.691947e+02
3.106762e+03,7.555981e+02
3.107726e+03,7.389785e+02
3.108690e+03,7.373117e+02
3.109655e+03,7.405627e+02
3.110619e+03,7.336609e+02
3.111583e+03,7.404196e+02
3.112547e+03,7.591511e+02
3.113511e+03,7.462700e+02
3.114476e+03,7.227274e+02
3.115440e+03,7.424836e+02
3.116404e+03,7.583153e+02
3.117368e+03,7.538517e+02
3.118333e+03,7.539933e+02
3.119297e+03,7.558321e+02
3.120261e+03,7.525038e+02
3.121225e+03,7.520793e+02
3.122189e+03,7.588546e+02
3.123154e+03,7.574056e+02
3.124118e+03,7.509630e+02
3.125082e+03,7.682260e+02
3.126046e+03,7.734984e+02
3.127011e+03,7.498150e+02
3.127975e+03,7.343455e+02
3.128939e+03,7.312281e+02
3.129903e+03,7.427274e+02
3.130868e+03,7.537744e+02
3.131832e+03,7.469778e+02
3.132796e+03,7.476755e+02
3.133760e+03,7.563387e+02
3.134725e+03,7.656624e+02
3.135689e+03,7.676855e+02
3.136653e+03,7.540316e+02
3.137617e+03,7.513533e+02
3.138582e+03,7.681202e+02
3.139546e+03,7.960315e+02
3.140510e+03,8.062396e+02
3.141474e+03,7.648224e+02
3.142438e+03,7.394659e+02
3.143403e+03,7.403744e+02
3.144367e+03,7.482066e+02
3.145331e+03,7.554205e+02
3.146295e+03,7.484601e+02
3.147260e+03,7.552530e+02
3.148224e+03,7.797289e+02
3.149188e+03,7.568062e+02
3.150152e+03,7.278336e+02
3.151116e+03,7.503322e+02
3.152081e+03,7.596738e+02
3.153045e+03,7.255153e+02
3.154009e+03,7.188261e+02
3.154973e+03,7.331837e+02
3.155938e+03,7.501024e+02
3.156902e+03,7.559328e+02
3.157866e+03,7.483245e+02
3.158830e+03,7.547501e+02
3.159795e+03,7.691417e+02
3.160759e+03,7.643881e+02
3.161723e+03,7.586782e+02
3.162687e+03,7.643239e+02
3.163652e+03,7.636181e+02
3.164616e+03,7.594230e+02
3.165580e+03,7.537480e+02
3.166544e+03,7.548781e+02
3.167509e+03,7.654601e+02
3.168473e+03,7.759578e+02
3.169437e+03,7.806472e+02
3.170401e+03,7.565963e+02
3.171365e+03,7.390779e+02
3.172330e+03,7.444760e+02
3.173294e+03,7.511618e+02
3.174258e+03,7.560984e+02
3.175222e+03,7.593464e+02
3.176187e+03,7.554261e+02
3.177151e+03,7.414980e+02
3.178115e+03,7.237325e+02
3.179079e+03,7.095225e+02
3.180043e+03,7.196934e+02
3.181008e+03,7.260508e+02
3.181972e+03,7.199022e+02
3.182936e+03,7.365380e+02
3.183900e+03,7.653229e+02
3.184865e+03,7.677672e+02
3.185829e+03,7.642299e+02
3.186793e+03,7.662010e+02
3.187757e+03,7.708455e+02
3.188722e+03,7.720915e+02
3.189686e+03,7.540519e+02
3.190650e+03,7.510216e+02
3.191614e+03,7.725175e+02
3.192579e+03,7.638698e+02
3.193543e+03,7.366519e+02
3.194507e+03,7.405139e+02
3.195471e+03,7.531299e+02
3.196436e+03,7.658652e+02
3.197400e+03,7.724141e+02
3.198364e+03,7.741122e+02
3.199328e+03,7.745035e+02
3.200292e+03,7.788405e+02
3.201257e+03,0.000000e+00
3.202221e+03,0.000000e+00
3.203185e+03,0.000000e+00
3.204149e+03,0.000000e+00
3.205114e+03,0.000000e+00
3.206078e+03,0.000000e+00
3.207042e+03,0.000000e+00
3.208006e+03,0.000000e+00
3.208970e+03,0.000000e+00
3.209935e+03,0.000000e+00
3.210899e+03,0.000000e+00
3.211863e+03,0.000000e+00
3.212827e+03,0.000000e+00
3.213792e+03,0.000000e+00
3.214756e+03,0.000000e+00
3.215720e+03,0.000000e+00
3.216684e+03,0.000000e+00
3.217649e+03,0.000000e+00
3.218613e+03,0.000000e+00
3.219577e+03,0.000000e+00
3.220541e+03,0.000000e+00
3.221506e+03,0.000000e+00
3.222470e+03,0.000000e+00
3.223434e+03,0.000000e+00
3.224398e+03,0.000000e+00
3.225363e+03,0.000000e+00
3.226327e+03,0.000000e+00
3.227291e+03,0.000000e+00
3.228255e+03,0.000000e+00
3.229219e+03,0.000000e+00
3.230184e+03,0.000000e+00
3.231148e+03,0.000000e+00
3.232112e+03,0.000000e+00
3.233076e+03,0.000000e+00
3.234041e+03,0.000000e+00
3.235005e+03,0.000000e+00
3.235969e+03,0.000000e+00
3.236933e+03,0.000000e+00
3.237897e+03,0.000000e+00
3.238862e+03,0.000000e+00
3.239826e+03,0.000000e+00
3.240790e+03,0.000000e+00
3.241754e+03,0.000000e+00
3.242719e+03,0.000000e+00
3.243683e+03,0.000000e+00
3.244647e+03,0.000000e+00
3.245611e+03,0.000000e+00
3.246576e+03,0.000000e+00
3.247540e+03,0.000000e+00
3.248504e+03,0.000000e+00
3.249468e+03,0.000000e+00
3.250433e+03,0.000000e+00
3.251397e+03,0.000000e+00
3.252361e+03,0.000000e+00
3.253325e+03,0.000000e+00
3.254290e+03,0.000000e+00
3.255254e+03,0.000000e+00
3.256218e+03,0.000000e+00
3.257182e+03,0.000000e+00
3.258146e+03,0.000000e+00
3.259111e+03,0.000000e+00
3.260075e+03,0.000000e+00
3.261039e+03,0.000000e+00
3.262003e+03,0.000000e+00
3.262968e+03,0.000000e+00
3.263932e+03,0.000000e+00
3.264896e+03,0.000000e+00
3.265860e+03,0.000000e+00
3.266824e+03,0.000000e+00
3.267789e+03,0.000000e+00
3.268753e+03,0.000000e+00
3.269717e+03,0.000000e+00
3.270681e+03,0.000000e+00
3.271646e+03,0.000000e+00
3.272610e+03,0.000000e+00
3.273574e+03,0.000000e+00
3.274538e+03,0.000000e+00
3.275503e+03,0.000000e+00
3.276467e+03,0.000000e+00
3.277431e+03,0.000000e+00
3.278395e+03,0.000000e+00
3.279360e+03,0.000000e+00
3.280324e+03,0.000000e+00
3.281288e+03,0.000000e+00
3.282252e+03,0.000000e+00
3.283217e+03,0.000000e+00
3.284181e+03,0.000000e+00
3.285145e+03,0.000000e+00
3.286109e+03,0.000000e+00
3.287073e+03,0.000000e+00
3.288038e+03,0.000000e+00
3.289002e+03,0.000000e+00
3.289966e+03,0.000000e+00
3.290930e+03,0.000000e+00
3.291895e+03,0.000000e+00
3.292859e+03,0.000000e+00
3.293823e+03,0.000000e+00
3.294787e+03,0.000000e+00
3.295751e+03,0.000000e+00
3.296716e+03,0.000000e+00
3.297680e+03,0.000000e+00
3.298644e+03,0.000000e+00
3.299608e+03,0.000000e+00
3.300573e+03,0.000000e+00
3.301537e+03,0.000000e+00
3.302501e+03,0.000000e+00
3.303465e+03,0.000000e+00
3.304430e+03,0.000000e+00
3.305394e+03,0.000000e+00
3.306358e+03,0.000000e+00
3.307322e+03,0.000000e+00
3.308287e+03,0.000000e+00
3.309251e+03,0.000000e+00
3.310215e+03,0.000000e+00
3.311179e+03,0.000000e+00
3.312144e+03,0.000000e+00
3.313108e+03,0.000000e+00
3.314072e+03,0.000000e+00
3.315036e+03,0.000000e+00
3.316000e+03,0.000000e+00
3.316965e+03,0.000000e+00
3.317929e+03,0.000000e+00
3.318893e+03,0.000000e+00
3.319857e+03,0.000000e+00
3.320822e+03,0.000000e+00
3.321786e+03,0.000000e+00
3.322750e+03,0.000000e+00
3.323714e+03,0.000000e+00
3.324678e+03,0.000000e+00
3.325643e+03,0.000000e+00
3.326607e+03,0.000000e+00
3.327571e+03,0.000000e+00
3.328535e+03,0.000000e+00
3.329500e+03,0.000000e+00
3.330464e+03,0.000000e+00
3.331428e+03,0.000000e+00
3.332392e+03,0.000000e+00
3.333357e+03,0.000000e+00
3.334321e+03,0.000000e+00
3.335285e+03,0.000000e+00
3.336249e+03,0.000000e+00
3.337214e+03,0.000000e+00
3.338178e+03,0.000000e+00
3.339142e+03,0.000000e+00
3.340106e+03,0.000000e+00
3.341071e+03,0.000000e+00
3.342035e+03,0.000000e+00
3.342999e+03,0.000000e+00
3.343963e+03,0.000000e+00
3.344927e+03,0.000000e+00
3.345892e+03,0.000000e+00
3.346856e+03,0.000000e+00
3.347820e+03,0.000000e+00
3.348784e+03,0.000000e+00
3.349749e+03,0.000000e+00
3.350713e+03,0.000000e+00
3.351677e+03,0.000000e+00
3.352641e+03,0.000000e+00
3.353605e+03,0.000000e+00
3.354570e+03,0.000000e+00
3.355534e+03,0.000000e+00
3.356498e+03,0.000000e+00
3.357462e+03,0.000000e+00
3.358427e+03,0.000000e+00
3.359391e+03,0.000000e+00
3.360355e+03,0.000000e+00
3.361319e+03,0.000000e+00
3.362284e+03,0.000000e+00
3.363248e+03,0.000000e+00
3.364212e+03,0.000000e+00
3.365176e+03,0.000000e+00
3.366141e+03,0.000000e+00
3.367105e+03,0.000000e+00
3.368069e+03,0.000000e+00
3.369033e+03,0.000000e+00
3.369998e+03,0.000000e+00
3.370962e+03,0.000000e+00
3.371926e+03,0.000000e+00
3.372890e+03,0.000000e+00
3.373854e+03,0.000000e+00
3.374819e+03,0.000000e+00
3.375783e+03,0.000000e+00
3.376747e+03,0.000000e+00
3.377711e+03,0.000000e+00
3.378676e+03,0.000000e+00
3.379640e+03,0.000000e+00
3.380604e+03,0.000000e+00
3.381568e+03,0.000000e+00
3.382532e+03,0.000000e+00
3.383497e+03,0.000000e+00
3.384461e+03,0.000000e+00
3.385425e+03,0.000000e+00
3.386389e+03,0.000000e+00
3.387354e+03,0.000000e+00
3.388318e+03,0.000000e+00
3.389282e+03,0.000000e+00
3.390246e+03,0.000000e+00
3.391211e+03,0.000000e+00
3.392175e+03,0.000000e+00
3.393139e+03,0.000000e+00
3.394103e+03,0.000000e+00
3.395068e+03,0.000000e+00
3.396032e+03,0.000000e+00
3.396996e+03,0.000000e+00
3.397960e+03,0.000000e+00
3.398925e+03,0.000000e+00
3.399889e+03,0.000000e+00
3.400853e+03,0.000000e+00
3.401817e+03,0.000000e+00
3.402781e+03,0.000000e+00
3.403746e+03,0.000000e+00
3.404710e+03,0.000000e+00
3.405674e+03,0.000000e+00
3.406638e+03,0.000000e+00
3.407603e+03,0.000000e+00
3.408567e+03,0.000000e+00
3.409531e+03,0.000000e+00
3.410495e+03,0.000000e+00
3.411459e+03,0.000000e+00
3.412424e+03,0.000000e+00
3.413388e+03,0.000000e+00
3.414352e+03,0.000000e+00
3.415316e+03,0.000000e+00
3.416281e+03,0.000000e+00
3.417245e+03,0.000000e+00
3.418209e+03,0.000000e+00
3.419173e+03,0.000000e+00
3.420138e+03,0.000000e+00
3.421102e+03,0.000000e+00
3.422066e+03,0.000000e+00
3.423030e+03,0.000000e+00
3.423995e+03,0.000000e+00
3.424959e+03,0.000000e+00
3.425923e+03,0.000000e+00
3.426887e+03,0.000000e+00
3.427852e+03,0.000000e+00
3.428816e+03,0.000000e+00
3.429780e+03,0.000000e+00
3.430744e+03,0.000000e+00
3.431708e+03,0.000000e+00
3.432673e+03,0.000000e+00
3.433637e+03,0.000000e+00
3.434601e+03,0.000000e+00
3.435565e+03,0.000000e+00
3.436530e+03,0.000000e+00
3.437494e+03,0.000000e+00
3.438458e+03,0.000000e+00
3.439422e+03,0.000000e+00
3.440386e+03,0.000000e+00
3.441351e+03,0.000000e+00
3.442315e+03,0.000000e+00
3.443279e+03,0.000000e+00
3.444243e+03,0.000000e+00
3.445208e+03,0.000000e+00
3.446172e+03,0.000000e+00
3.447136e+03,0.000000e+00
3.448100e+03,0.000000e+00
3.449065e+03,0.000000e+00
3.450029e+03,0.000000e+00
3.450993e+03,0.000000e+00
3.451957e+03,0.000000e+00
3.452922e+03,0.000000e+00
3.453886e+03,0.000000e+00
3.454850e+03,0.000000e+00
3.455814e+03,0.000000e+00
3.456779e+03,0.000000e+00
3.457743e+03,0.000000e+00
3.458707e+03,0.000000e+00
3.459671e+03,0.000000e+00
3.460635e+03,0.000000e+00
3.461600e+03,0.000000e+00
3.462564e+03,0.000000e+00
3.463528e+03,0.000000e+00
3.464492e+03,0.000000e+00
3.465457e+03,0.000000e+00
3.466421e+03,0.000000e+00
3.467385e+03,0.000000e+00
3.468349e+03,0.000000e+00
3.469313e+03,0.000000e+00
3.470278e+03,0.000000e+00
3.471242e+03,0.000000e+00
3.472206e+03,0.000000e+00
3.473170e+03,0.000000e+00
3.474135e+03,0.000000e+00
3.475099e+03,0.000000e+00
3.476063e+03,0.000000e+00
3.477027e+03,0.000000e+00
3.477992e+03,0.000000e+00
3.478956e+03,0.000000e+00
3.479920e+03,0.000000e+00
3.480884e+03,0.000000e+00
3.481849e+03,0.000000e+00
3.482813e+03,0.000000e+00
3.483777e+03,0.000000e+00
3.484741e+03,0.000000e+00
3.485706e+03,0.000000e+00
3.486670e+03,0.000000e+00
3.487634e+03,0.000000e+00
3.488598e+03,0.000000e+00
3.489563e+03,0.000000e+00
3.490527e+03,0.000000e+00
3.491491e+03,0.000000e+00
3.492455e+03,0.000000e+00
3.493419e+03,0.000000e+00
3.494384e+03,0.000000e+00
3.495348e+03,0.000000e+00
3.496312e+03,0.000000e+00
3.497276e+03,0.000000e+00
3.498240e+03,0.000000e+00
3.499205e+03,0.000000e+00
3.500169e+03,0.000000e+00
