9.931763e+01,0.000000e+00
1.002819e+02,0.000000e+00
1.012461e+02,0.000000e+00
1.022103e+02,0.000000e+00
1.031746e+02,0.000000e+00
1.041388e+02,0.000000e+00
1.051030e+02,0.000000e+00
1.060673e+02,0.000000e+00
1.070315e+02,0.000000e+00
1.079957e+02,0.000000e+00
1.089600e+02,0.000000e+00
1.099242e+02,0.000000e+00
1.108884e+02,0.000000e+00
1.118527e+02,0.000000e+00
1.128169e+02,0.000000e+00
1.137811e+02,0.000000e+00
1.147454e+02,0.000000e+00
1.157096e+02,0.000000e+00
1.166738e+02,0.000000e+00
1.176381e+02,0.000000e+00
1.186023e+02,0.000000e+00
1.195665e+02,0.000000e+00
1.205308e+02,0.000000e+00
1.214950e+02,0.000000e+00
1.224592e+02,0.000000e+00
1.234235e+02,0.000000e+00
1.243877e+02,0.000000e+00
1.253519e+02,0.000000e+00
1.263162e+02,0.000000e+00
1.272804e+02,0.000000e+00
1.282446e+02,0.000000e+00
1.292089e+02,0.000000e+00
1.301731e+02,0.000000e+00
1.311373e+02,0.000000e+00
1.321016e+02,0.000000e+00
1.330658e+02,0.000000e+00
1.340300e+02,0.000000e+00
1.349943e+02,0.000000e+00
1.359585e+02,0.000000e+00
1.369227e+02,0.000000e+00
1.378870e+02,0.000000e+00
1.388512e+02,0.000000e+00
1.398154e+02,0.000000e+00
1.407797e+02,0.000000e+00
1.417439e+02,0.000000e+00
1.427081e+02,0.000000e+00
1.436724e+02,0.000000e+00
1.446366e+02,0.000000e+00
1.456008e+02,0.000000e+00
1.465651e+02,0.000000e+00
1.475293e+02,0.000000e+00
1.484935e+02,0.000000e+00
1.494578e+02,0.000000e+00
1.504220e+02,0.000000e+00
1.513862e+02,0.000000e+00
1.523505e+02,0.000000e+00
1.533147e+02,0.000000e+00
1.542789e+02,0.000000e+00
1.552432e+02,0.000000e+00
1.562074e+02,0.000000e+00
1.571716e+02,0.000000e+00
1.581359e+02,0.000000e+00
1.591001e+02,0.000000e+00
1.600643e+02,0.000000e+00
1.610286e+02,0.000000e+00
1.619928e+02,0.000000e+00
1.629570e+02,0.000000e+00
1.639213e+02,0.000000e+00
1.648855e+02,0.000000e+00
1.658497e+02,0.000000e+00
1.668140e+02,0.000000e+00
1.677782e+02,0.000000e+00
1.687424e+02,0.000000e+00
1.697067e+02,0.000000e+00
1.706709e+02,0.000000e+00
1.716351e+02,0.000000e+00
1.725994e+02,0.000000e+00
1.735636e+02,0.000000e+00
1.745278e+02,0.000000e+00
1.754921e+02,0.000000e+00
1.764563e+02,0.000000e+00
1.774205e+02,0.000000e+00
1.783848e+02,0.000000e+00
1.793490e+02,0.000000e+00
1.803132e+02,0.000000e+00
1.812775e+02,0.000000e+00
1.822417e+02,0.000000e+00
1.832059e+02,0.000000e+00
1.841702e+02,0.000000e+00
1.851344e+02,0.000000e+00
1.860986e+02,0.000000e+00
1.870629e+02,0.000000e+00
1.880271e+02,0.000000e+00
1.889913e+02,0.000000e+00
1.899556e+02,0.000000e+00
1.909198e+02,0.000000e+00
1.918840e+02,0.000000e+00
1.928483e+02,0.000000e+00
1.938125e+02,0.000000e+00
1.947767e+02,0.000000e+00
1.957410e+02,0.000000e+00
1.967052e+02,0.000000e+00
1.976694e+02,0.000000e+00
1.986337e+02,0.000000e+00
1.995979e+02,4.545172e+03
2.005621e+02,4.547170e+03
2.015264e+02,4.551576e+03
2.024906e+02,4.561149e+03
2.034548e+02,4.570793e+03
2.044191e+02,4.578362e+03
2.053833e+02,4.583221e+03
2.063475e+02,4.586267e+03
2.073118e+02,4.588564e+03
2.082760e+02,4.589758e+03
2.092402e+02,4.591352e+03
2.102045e+02,4.597695e+03
2.111687e+02,4.605417e+03
2.121329e+02,4.610665e+03
2.130972e+02,4.609811e+03
2.140614e+02,4.605542e+03
2.150256e+02,4.607633e+03
2.159899e+02,4.622270e+03
2.169541e+02,4.635577e+03
2.179183e+02,4.642106e+03
2.188826e+02,4.642673e+03
2.198468e+02,4.642196e+03
2.208110e+02,4.644115e+03
2.217753e+02,4.647750e+03
2.227395e+02,4.649091e+03
2.237037e+02,4.648213e+03
2.246680e+02,4.647359e+03
2.256322e+02,4.647759e+03
2.265964e+02,4.652007e+03
2.275607e+02,4.657939e+03
2.285249e+02,4.662513e+03
2.294892e+02,4.665455e+03
2.304534e+02,4.668993e+03
2.314176e+02,4.671368e+03
2.323819e+02,4.672298e+03
2.333461e+02,4.675550e+03
2.343103e+02,4.686165e+03
2.352746e+02,4.700616e+03
2.362388e+02,4.710703e+03
2.372030e+02,4.712363e+03
2.381673e+02,4.708232e+03
2.391315e+02,4.706591e+03
2.400957e+02,4.711979e+03
2.410600e+02,4.718128e+03
2.420242e+02,4.723899e+03
2.429884e+02,4.730360e+03
2.439527e+02,4.737817e+03
2.449169e+02,4.744673e+03
2.458811e+02,4.749826e+03
2.468454e+02,4.756896e+03
2.478096e+02,4.767681e+03
2.487738e+02,4.779204e+03
2.497381e+02,4.790956e+03
2.507023e+02,4.802612e+03
2.516665e+02,4.811591e+03
2.526308e+02,4.813183e+03
2.535950e+02,4.794843e+03
2.545592e+02,4.779787e+03
2.555235e+02,4.770369e+03
2.564877e+02,4.765427e+03
2.574519e+02,4.764230e+03
2.584161e+02,4.767438e+03
2.593804e+02,4.775313e+03
2.603446e+02,4.783146e+03
2.613088e+02,4.787843e+03
2.622731e+02,4.792435e+03
2.632373e+02,4.797766e+03
2.642015e+02,4.802746e+03
2.651658e+02,4.806325e+03
2.661300e+02,4.808490e+03
2.670942e+02,4.810375e+03
2.680585e+02,4.813609e+03
2.690227e+02,4.822242e+03
2.699869e+02,4.830226e+03
2.709512e+02,4.832096e+03
2.719154e+02,4.825558e+03
2.728796e+02,4.816601e+03
2.738439e+02,4.813646e+03
2.748081e+02,4.819113e+03
2.757723e+02,4.827706e+03
2.767366e+02,4.832293e+03
2.777008e+02,4.831928e+03
2.786650e+02,4.830661e+03
2.796293e+02,4.831090e+03
2.805935e+02,4.833283e+03
2.815577e+02,4.835837e+03
2.825220e+02,4.837721e+03
2.834862e+02,4.839286e+03
2.844504e+02,4.842615e+03
2.854147e+02,4.853042e+03
2.863789e+02,4.859679e+03
2.873431e+02,4.857812e+03
2.883074e+02,4.851376e+03
2.892716e+02,4.847084e+03
2.902358e+02,4.847977e+03
2.912001e+02,4.853459e+03
2.921643e+02,4.857147e+03
2.931285e+02,4.858054e+03
2.940928e+02,4.860287e+03
2.950570e+02,4.866646e+03
2.960212e+02,4.875564e+03
2.969855e+02,4.882359e+03
2.979497e+02,4.882354e+03
2.989139e+02,4.874128e+03
2.998782e+02,4.865141e+03
3.008424e+02,4.852798e+03
3.018066e+02,4.844194e+03
3.027709e+02,4.844098e+03
3.037351e+02,4.854616e+03
3.046993e+02,4.870208e+03
3.056636e+02,4.882370e+03
3.066278e+02,4.891726e+03
3.075920e+02,4.898387e+03
3.085563e+02,4.901203e+03
3.095205e+02,4.902330e+03
3.104847e+02,4.904270e+03
3.114490e+02,4.906435e+03
3.124132e+02,4.908260e+03
3.133774e+02,4.909766e+03
3.143417e+02,4.910387e+03
3.153059e+02,4.910111e+03
3.162701e+02,4.911346e+03
3.172344e+02,4.916715e+03
3.181986e+02,4.921159e+03
3.191628e+02,4.922097e+03
3.201271e+02,4.921466e+03
3.210913e+02,4.922683e+03
3.220555e+02,4.927193e+03
3.230198e+02,4.934016e+03
3.239840e+02,4.938938e+03
3.249482e+02,4.941336e+03
3.259125e+02,4.942039e+03
3.268767e+02,4.939866e+03
3.278409e+02,4.936094e+03
3.288052e+02,4.933558e+03
3.297694e+02,4.934988e+03
3.307336e+02,4.941124e+03
3.316979e+02,4.946577e+03
3.326621e+02,4.951897e+03
3.336263e+02,4.955014e+03
3.345906e+02,4.955044e+03
3.355548e+02,4.953159e+03
3.365190e+02,4.951743e+03
3.374833e+02,4.951584e+03
3.384475e+02,4.952037e+03
3.394117e+02,4.955884e+03
3.403760e+02,4.965194e+03
3.413402e+02,4.976826e+03
3.423044e+02,4.985687e+03
3.432687e+02,4.987679e+03
3.442329e+02,4.988140e+03
3.451971e+02,4.991181e+03
3.461614e+02,4.995636e+03
3.471256e+02,4.998780e+03
3.480898e+02,5.000611e+03
3.490541e+02,5.003021e+03
3.500183e+02,5.002571e+03
3.509825e+02,4.998103e+03
3.519468e+02,4.993826e+03
3.529110e+02,4.991663e+03
3.538752e+02,4.991196e+03
3.548395e+02,4.991676e+03
3.558037e+02,4.993647e+03
3.567680e+02,4.999693e+03
3.577322e+02,5.003218e+03
3.586964e+02,5.002031e+03
3.596607e+02,5.000835e+03
3.606249e+02,5.003781e+03
3.615891e+02,5.012711e+03
3.625534e+02,5.022779e+03
3.635176e+02,5.026189e+03
3.644818e+02,5.023303e+03
3.654461e+02,5.017929e+03
3.664103e+02,5.012818e+03
3.673745e+02,5.010342e+03
3.683388e+02,5.011821e+03
3.693030e+02,5.015364e+03
3.702672e+02,5.020220e+03
3.712315e+02,5.027395e+03
3.721957e+02,5.037153e+03
3.731599e+02,5.046255e+03
3.741242e+02,5.051482e+03
3.750884e+02,5.055288e+03
3.760526e+02,5.057465e+03
3.770169e+02,5.055191e+03
3.779811e+02,5.050781e+03
3.789453e+02,5.046461e+03
3.799096e+02,5.042669e+03
3.808738e+02,5.039602e+03
3.818380e+02,5.040073e+03
3.828023e+02,5.051664e+03
3.837665e+02,5.061224e+03
3.847307e+02,5.062657e+03
3.856950e+02,5.058338e+03
3.866592e+02,5.053855e+03
3.876234e+02,5.050841e+03
3.885877e+02,5.049508e+03
3.895519e+02,5.051532e+03
3.905161e+02,5.057896e+03
3.914804e+02,5.064278e+03
3.924446e+02,5.066333e+03
3.934088e+02,5.064669e+03
3.943731e+02,5.062842e+03
3.953373e+02,5.060604e+03
3.963015e+02,5.058594e+03
3.972658e+02,5.058508e+03
3.982300e+02,5.061854e+03
3.991942e+02,5.068195e+03
4.001585e+02,5.071959e+03
4.011227e+02,5.062613e+03
4.020869e+02,5.059150e+03
4.030512e+02,5.066615e+03
4.040154e+02,5.079010e+03
4.049796e+02,5.088767e+03
4.059439e+02,5.089289e+03
4.069081e+02,5.083898e+03
4.078723e+02,5.086800e+03
4.088366e+02,5.102712e+03
4.098008e+02,5.114734e+03
4.107650e+02,5.111819e+03
4.117293e+02,5.095963e+03
4.126935e+02,5.082901e+03
4.136577e+02,5.075926e+03
4.146220e+02,5.075289e+03
4.155862e+02,5.084587e+03
4.165504e+02,5.105864e+03
4.175147e+02,5.130111e+03
4.184789e+02,5.142700e+03
4.194431e+02,5.131196e+03
4.204074e+02,5.121748e+03
4.213716e+02,5.112740e+03
4.223358e+02,5.106465e+03
4.233001e+02,5.106849e+03
4.242643e+02,5.117483e+03
4.252285e+02,5.132818e+03
4.261928e+02,5.137829e+03
4.271570e+02,5.127521e+03
4.281212e+02,5.119258e+03
4.290855e+02,5.121083e+03
4.300497e+02,5.129174e+03
4.310139e+02,5.136389e+03
4.319782e+02,5.142166e+03
4.329424e+02,5.146564e+03
4.339066e+02,5.148376e+03
4.348709e+02,5.146861e+03
4.358351e+02,5.143230e+03
4.367993e+02,5.138284e+03
4.377636e+02,5.129854e+03
4.387278e+02,5.127389e+03
4.396920e+02,5.138807e+03
4.406563e+02,5.152083e+03
4.416205e+02,5.157545e+03
4.425847e+02,5.152570e+03
4.435490e+02,5.143103e+03
4.445132e+02,5.136910e+03
4.454774e+02,5.134799e+03
4.464417e+02,5.136154e+03
4.474059e+02,5.142058e+03
4.483701e+02,5.149320e+03
4.493344e+02,5.154984e+03
4.502986e+02,5.159528e+03
4.512628e+02,5.163557e+03
4.522271e+02,5.167505e+03
4.531913e+02,5.171189e+03
4.541555e+02,5.173646e+03
4.551198e+02,5.173722e+03
4.560840e+02,5.171650e+03
4.570482e+02,5.170025e+03
4.580125e+02,5.172167e+03
4.589767e+02,5.176011e+03
4.599409e+02,5.179140e+03
4.609052e+02,5.180255e+03
4.618694e+02,5.180041e+03
4.628336e+02,5.180647e+03
4.637979e+02,5.182033e+03
4.647621e+02,5.180083e+03
4.657263e+02,5.174101e+03
4.666906e+02,5.168788e+03
4.676548e+02,5.166478e+03
4.686190e+02,5.166423e+03
4.695833e+02,5.167807e+03
4.705475e+02,5.172009e+03
4.715117e+02,5.176373e+03
4.724760e+02,5.176764e+03
4.734402e+02,5.171849e+03
4.744044e+02,5.164951e+03
4.753687e+02,5.163771e+03
4.763329e+02,5.175465e+03
4.772971e+02,5.182010e+03
4.782614e+02,5.177700e+03
4.792256e+02,5.168515e+03
4.801898e+02,5.161298e+03
4.811541e+02,5.157507e+03
4.821183e+02,5.156794e+03
4.830826e+02,5.159327e+03
4.840468e+02,5.164788e+03
4.850110e+02,5.171602e+03
4.859753e+02,5.180823e+03
4.869395e+02,5.192404e+03
4.879037e+02,5.197935e+03
4.888680e+02,5.194858e+03
4.898322e+02,5.189321e+03
4.907964e+02,5.183745e+03
4.917607e+02,5.179030e+03
4.927249e+02,5.175881e+03
4.936891e+02,5.174370e+03
4.946534e+02,5.174261e+03
4.956176e+02,5.177135e+03
4.965818e+02,5.184375e+03
4.975461e+02,5.194131e+03
4.985103e+02,5.205288e+03
4.994745e+02,5.218327e+03
5.004388e+02,5.225700e+03
5.014030e+02,5.221551e+03
5.023672e+02,5.211872e+03
5.033315e+02,5.205600e+03
5.042957e+02,5.205198e+03
5.052599e+02,5.208506e+03
5.062242e+02,5.212794e+03
5.071884e+02,5.223232e+03
5.081526e+02,5.228718e+03
5.091169e+02,5.228269e+03
5.100811e+02,5.224042e+03
5.110453e+02,5.216482e+03
5.120095e+02,5.202084e+03
5.129738e+02,5.189963e+03
5.139380e+02,5.194699e+03
5.149022e+02,5.216170e+03
5.158665e+02,5.236679e+03
5.168307e+02,5.244958e+03
5.177949e+02,5.238690e+03
5.187592e+02,5.230954e+03
5.197234e+02,5.227142e+03
5.206876e+02,5.224914e+03
5.216519e+02,5.222772e+03
5.226161e+02,5.221514e+03
5.235803e+02,5.222559e+03
5.245446e+02,5.230230e+03
5.255088e+02,5.242507e+03
5.264730e+02,5.243653e+03
5.274373e+02,5.227906e+03
5.284015e+02,5.210272e+03
5.293657e+02,5.203725e+03
5.303300e+02,5.209381e+03
5.312942e+02,5.214097e+03
5.322584e+02,5.215475e+03
5.332227e+02,5.218515e+03
5.341869e+02,5.227498e+03
5.351511e+02,5.242171e+03
5.361154e+02,5.257784e+03
5.370796e+02,5.269178e+03
5.380438e+02,5.276409e+03
5.390081e+02,5.282333e+03
5.399723e+02,5.287556e+03
5.409365e+02,5.292353e+03
5.419008e+02,5.295713e+03
5.428650e+02,5.296287e+03
5.438292e+02,5.293962e+03
5.447935e+02,5.285904e+03
5.457577e+02,5.275264e+03
5.467219e+02,5.269830e+03
5.476862e+02,5.273778e+03
5.486504e+02,5.282534e+03
5.496146e+02,5.282545e+03
5.505789e+02,5.268391e+03
5.515431e+02,5.253012e+03
5.525073e+02,5.239646e+03
5.534716e+02,5.230211e+03
5.544358e+02,5.224755e+03
5.554000e+02,5.220692e+03
5.563643e+02,5.219219e+03
5.573285e+02,5.223639e+03
5.582927e+02,5.232513e+03
5.592570e+02,5.239743e+03
5.602212e+02,5.242085e+03
5.611854e+02,5.239150e+03
5.621497e+02,5.237025e+03
5.631139e+02,5.236465e+03
5.640781e+02,5.233354e+03
5.650424e+02,5.227146e+03
5.660066e+02,5.219050e+03
5.669708e+02,5.211801e+03
5.679351e+02,5.208839e+03
5.688993e+02,5.208282e+03
5.698635e+02,5.205562e+03
5.708278e+02,5.200613e+03
5.717920e+02,5.197655e+03
5.727562e+02,5.199090e+03
5.737205e+02,5.204019e+03
5.746847e+02,5.212294e+03
5.756489e+02,5.229101e+03
5.766132e+02,5.243524e+03
5.775774e+02,5.249939e+03
5.785416e+02,5.247896e+03
5.795059e+02,5.241701e+03
5.804701e+02,5.231788e+03
5.814343e+02,5.220006e+03
5.823986e+02,5.212741e+03
5.833628e+02,5.211930e+03
5.843270e+02,5.214830e+03
5.852913e+02,5.217348e+03
5.862555e+02,5.218706e+03
5.872197e+02,5.220915e+03
5.881840e+02,5.224987e+03
5.891482e+02,5.228273e+03
5.901124e+02,5.228179e+03
5.910767e+02,5.223507e+03
5.920409e+02,5.218503e+03
5.930051e+02,5.216600e+03
5.939694e+02,5.217202e+03
5.949336e+02,5.220034e+03
5.958978e+02,5.226297e+03
5.968621e+02,5.233273e+03
5.978263e+02,5.235083e+03
5.987905e+02,5.226890e+03
5.997548e+02,5.220660e+03
6.007190e+02,5.218352e+03
6.016832e+02,5.219151e+03
6.026475e+02,5.220985e+03
6.036117e+02,5.221683e+03
6.045759e+02,5.222499e+03
6.055402e+02,5.225958e+03
6.065044e+02,5.230897e+03
6.074686e+02,5.233460e+03
6.084329e+02,5.233287e+03
6.093971e+02,5.230725e+03
6.103613e+02,5.224912e+03
6.113256e+02,5.208433e+03
6.122899e+02,5.197315e+03
6.132541e+02,5.198513e+03
6.142183e+02,5.206220e+03
6.151826e+02,5.210813e+03
6.161468e+02,5.204580e+03
6.171110e+02,5.197553e+03
6.180753e+02,5.204519e+03
6.190395e+02,5.223256e+03
6.200037e+02,5.236474e+03
6.209680e+02,5.231601e+03
6.219322e+02,5.210698e+03
6.228964e+02,5.202047e+03
6.238607e+02,5.219347e+03
6.248249e+02,5.233802e+03
6.257891e+02,5.232281e+03
6.267534e+02,5.218150e+03
6.277176e+02,5.206076e+03
6.286818e+02,5.207620e+03
6.296461e+02,5.213985e+03
6.306103e+02,5.215123e+03
6.315745e+02,5.211236e+03
6.325388e+02,5.205528e+03
6.335030e+02,5.198019e+03
6.344672e+02,5.187548e+03
6.354315e+02,5.186863e+03
6.363957e+02,5.203905e+03
6.373599e+02,5.219208e+03
6.383242e+02,5.224203e+03
6.392884e+02,5.220401e+03
6.402526e+02,5.215513e+03
6.412169e+02,5.210859e+03
6.421811e+02,5.206438e+03
6.431453e+02,5.202202e+03
6.441096e+02,5.198128e+03
6.450738e+02,5.194508e+03
6.460380e+02,5.192494e+03
6.470023e+02,5.193224e+03
6.479665e+02,5.195080e+03
6.489307e+02,5.196076e+03
6.498950e+02,5.198055e+03
6.508592e+02,5.203729e+03
6.518234e+02,5.213404e+03
6.527877e+02,5.216560e+03
6.537519e+02,5.206333e+03
6.547161e+02,5.193519e+03
6.556804e+02,5.185164e+03
6.566446e+02,5.182635e+03
6.576088e+02,5.184665e+03
6.585731e+02,5.193748e+03
6.595373e+02,5.207688e+03
6.605015e+02,5.212566e+03
6.614658e+02,5.205372e+03
6.624300e+02,5.194081e+03
6.633942e+02,5.186040e+03
6.643585e+02,5.181618e+03
6.653227e+02,5.179076e+03
6.662869e+02,5.177148e+03
6.672512e+02,5.176431e+03
6.682154e+02,5.177356e+03
6.691796e+02,5.179367e+03
6.701439e+02,5.182763e+03
6.711081e+02,5.190678e+03
6.720723e+02,5.199952e+03
6.730366e+02,5.204414e+03
6.740008e+02,5.203564e+03
6.749650e+02,5.199318e+03
6.759293e+02,5.193693e+03
6.768935e+02,5.187226e+03
6.778577e+02,5.179950e+03
6.788220e+02,5.168728e+03
6.797862e+02,5.162219e+03
6.807504e+02,5.166479e+03
6.817147e+02,5.183065e+03
6.826789e+02,5.194444e+03
6.836431e+02,5.187543e+03
6.846074e+02,5.173252e+03
6.855716e+02,5.164853e+03
6.865358e+02,5.165743e+03
6.875001e+02,5.170928e+03
6.884643e+02,5.175150e+03
6.894285e+02,5.178609e+03
6.903928e+02,5.181450e+03
6.913570e+02,5.184037e+03
6.923212e+02,5.183931e+03
6.932855e+02,5.178499e+03
6.942497e+02,5.164063e+03
6.952139e+02,5.156458e+03
6.961782e+02,5.156846e+03
6.971424e+02,5.162205e+03
6.981066e+02,5.172201e+03
6.990709e+02,5.184709e+03
7.000351e+02,5.190250e+03
7.009993e+02,5.179208e+03
7.019636e+02,5.160224e+03
7.029278e+02,5.149925e+03
7.038920e+02,5.151053e+03
7.048563e+02,5.155641e+03
7.058205e+02,5.156004e+03
7.067847e+02,5.154335e+03
7.077490e+02,5.147529e+03
7.087132e+02,5.128132e+03
7.096774e+02,5.114550e+03
7.106417e+02,5.118683e+03
7.116059e+02,5.144175e+03
7.125701e+02,5.166302e+03
7.135344e+02,5.181563e+03
7.144986e+02,5.190854e+03
7.154628e+02,5.191838e+03
7.164271e+02,5.184257e+03
7.173913e+02,5.174474e+03
7.183555e+02,5.168969e+03
7.193198e+02,5.166656e+03
7.202840e+02,5.162601e+03
7.212482e+02,5.156329e+03
7.222125e+02,5.151597e+03
7.231767e+02,5.152056e+03
7.241409e+02,5.159466e+03
7.251052e+02,5.162894e+03
7.260694e+02,5.160558e+03
7.270336e+02,5.155145e+03
7.279979e+02,5.147612e+03
7.289621e+02,5.137763e+03
7.299263e+02,5.131100e+03
7.308906e+02,5.130599e+03
7.318548e+02,5.133102e+03
7.328190e+02,5.137635e+03
7.337833e+02,5.143465e+03
7.347475e+02,5.146744e+03
7.357117e+02,5.141569e+03
7.366760e+02,5.130233e+03
7.376402e+02,5.130090e+03
7.386044e+02,5.145898e+03
7.395687e+02,5.162416e+03
7.405329e+02,5.165144e+03
7.414971e+02,5.149198e+03
7.424614e+02,5.138699e+03
7.434256e+02,5.138733e+03
7.443898e+02,5.144474e+03
7.453541e+02,5.154072e+03
7.463183e+02,5.163916e+03
7.472825e+02,5.167781e+03
7.482468e+02,5.159185e+03
7.492110e+02,5.146214e+03
7.501752e+02,5.138829e+03
7.511395e+02,5.139233e+03
7.521037e+02,5.144076e+03
7.530679e+02,5.150005e+03
7.540322e+02,5.155318e+03
7.549964e+02,5.155890e+03
7.559606e+02,5.151036e+03
7.569249e+02,5.148167e+03
7.578891e+02,5.153140e+03
7.588533e+02,5.167178e+03
7.598176e+02,5.177042e+03
7.607818e+02,5.177772e+03
7.617460e+02,5.171039e+03
7.627103e+02,5.155100e+03
7.636745e+02,5.135349e+03
7.646387e+02,5.121875e+03
7.656030e+02,5.123486e+03
7.665672e+02,5.128734e+03
7.675314e+02,5.123610e+03
7.684957e+02,5.108555e+03
7.694599e+02,5.095148e+03
7.704241e+02,5.095400e+03
7.713884e+02,5.105310e+03
7.723526e+02,5.107050e+03
7.733168e+02,5.100503e+03
7.742811e+02,5.098292e+03
7.752453e+02,5.104213e+03
7.762095e+02,5.115149e+03
7.771738e+02,5.123557e+03
7.781380e+02,5.129154e+03
7.791022e+02,5.128221e+03
7.800665e+02,5.117694e+03
7.810307e+02,5.103303e+03
7.819949e+02,5.093735e+03
7.829592e+02,5.097875e+03
7.839234e+02,5.103680e+03
7.848876e+02,5.103126e+03
7.858519e+02,5.098990e+03
7.868161e+02,5.097006e+03
7.877803e+02,5.100243e+03
7.887446e+02,5.104311e+03
7.897088e+02,5.103299e+03
7.906730e+02,5.099793e+03
7.916373e+02,5.100278e+03
7.926015e+02,5.104867e+03
7.935657e+02,5.107960e+03
7.945300e+02,5.104268e+03
7.954942e+02,5.093234e+03
7.964584e+02,5.082355e+03
7.974227e+02,5.076121e+03
7.983869e+02,5.076334e+03
7.993511e+02,5.079159e+03
8.003154e+02,5.082139e+03
8.012796e+02,5.082741e+03
8.022438e+02,5.083736e+03
8.032081e+02,5.084437e+03
8.041723e+02,5.082929e+03
8.051365e+02,5.077866e+03
8.061008e+02,5.072992e+03
8.070650e+02,5.068758e+03
8.080292e+02,5.065404e+03
8.089935e+02,5.068002e+03
8.099577e+02,5.078321e+03
8.109219e+02,5.088351e+03
8.118862e+02,5.086532e+03
8.128504e+02,5.073375e+03
8.138146e+02,5.066990e+03
8.147789e+02,5.069468e+03
8.157431e+02,5.071947e+03
8.167073e+02,5.067548e+03
8.176716e+02,5.056575e+03
8.186358e+02,5.052888e+03
8.196000e+02,5.062600e+03
8.205643e+02,5.073280e+03
8.215285e+02,5.077630e+03
8.224927e+02,5.075849e+03
8.234570e+02,5.073390e+03
8.244212e+02,5.070650e+03
8.253854e+02,5.068827e+03
8.263497e+02,5.068882e+03
8.273139e+02,5.068416e+03
8.282781e+02,5.064549e+03
8.292424e+02,5.054958e+03
8.302066e+02,5.045804e+03
8.311708e+02,5.045257e+03
8.321351e+02,5.051882e+03
8.330993e+02,5.058644e+03
8.340635e+02,5.061157e+03
8.350278e+02,5.059864e+03
8.359920e+02,5.057336e+03
8.369562e+02,5.053513e+03
8.379205e+02,5.049554e+03
8.388847e+02,5.045067e+03
8.398489e+02,5.041352e+03
8.408132e+02,5.041045e+03
8.417774e+02,5.049114e+03
8.427416e+02,5.051734e+03
8.437059e+02,5.042070e+03
8.446701e+02,5.029397e+03
8.456343e+02,5.024548e+03
8.465986e+02,5.033705e+03
8.475628e+02,5.039889e+03
8.485270e+02,5.032864e+03
8.494913e+02,5.022328e+03
8.504555e+02,5.020669e+03
8.514197e+02,5.031646e+03
8.523840e+02,5.042420e+03
8.533482e+02,5.038668e+03
8.543124e+02,5.026670e+03
8.552767e+02,5.019891e+03
8.562409e+02,5.019699e+03
8.572051e+02,5.019117e+03
8.581694e+02,5.009817e+03
8.591336e+02,4.993755e+03
8.600978e+02,4.986925e+03
8.610621e+02,4.991851e+03
8.620263e+02,5.001518e+03
8.629905e+02,5.010301e+03
8.639548e+02,5.016532e+03
8.649190e+02,5.018443e+03
8.658832e+02,5.017328e+03
8.668475e+02,5.014995e+03
8.678117e+02,5.009124e+03
8.687759e+02,5.000821e+03
8.697402e+02,4.999900e+03
8.707044e+02,5.014635e+03
8.716686e+02,5.023227e+03
8.726329e+02,5.018286e+03
8.735971e+02,5.005730e+03
8.745613e+02,4.994571e+03
8.755256e+02,4.988836e+03
8.764898e+02,4.987713e+03
8.774540e+02,4.991863e+03
8.784183e+02,4.998067e+03
8.793825e+02,5.001473e+03
8.803467e+02,5.000072e+03
8.813110e+02,4.995533e+03
8.822752e+02,4.988361e+03
8.832394e+02,4.981090e+03
8.842037e+02,4.979793e+03
8.851679e+02,4.984936e+03
8.861321e+02,4.991694e+03
8.870964e+02,4.996270e+03
8.880606e+02,4.998549e+03
8.890248e+02,4.990736e+03
8.899891e+02,4.970131e+03
8.909533e+02,4.950851e+03
8.919175e+02,4.946234e+03
8.928818e+02,4.960875e+03
8.938460e+02,4.968616e+03
8.948102e+02,4.963901e+03
8.957745e+02,4.955736e+03
8.967387e+02,4.947856e+03
8.977029e+02,4.939271e+03
8.986672e+02,4.934982e+03
8.996314e+02,4.942255e+03
9.005956e+02,4.952408e+03
9.015599e+02,4.963640e+03
9.025241e+02,4.973344e+03
9.034883e+02,4.977508e+03
9.044526e+02,4.970188e+03
9.054168e+02,4.958681e+03
9.063810e+02,4.949306e+03
9.073453e+02,4.944265e+03
9.083095e+02,4.943188e+03
9.092737e+02,4.945177e+03
9.102380e+02,4.946315e+03
9.112022e+02,4.941632e+03
9.121664e+02,4.933062e+03
9.131307e+02,4.926936e+03
9.140949e+02,4.926822e+03
9.150591e+02,4.930976e+03
9.160234e+02,4.933736e+03
9.169876e+02,4.932703e+03
9.179518e+02,4.929235e+03
9.189161e+02,4.923384e+03
9.198803e+02,4.917342e+03
9.208445e+02,4.915354e+03
9.218088e+02,4.919654e+03
9.227730e+02,4.923571e+03
9.237372e+02,4.926281e+03
9.247015e+02,4.926763e+03
9.256657e+02,4.923349e+03
9.266299e+02,4.915339e+03
9.275942e+02,4.913302e+03
9.285584e+02,4.923651e+03
9.295226e+02,4.930095e+03
9.304869e+02,4.922985e+03
9.314511e+02,4.908288e+03
9.324153e+02,4.902959e+03
9.333796e+02,4.919657e+03
9.343438e+02,4.932414e+03
9.353080e+02,4.932327e+03
9.362723e+02,4.922149e+03
9.372365e+02,4.907452e+03
9.382007e+02,4.887335e+03
9.391650e+02,4.874320e+03
9.401292e+02,4.877032e+03
9.410934e+02,4.887711e+03
9.420577e+02,4.897647e+03
9.430219e+02,4.904368e+03
9.439861e+02,4.906803e+03
9.449504e+02,4.903704e+03
9.459146e+02,4.900100e+03
9.468788e+02,4.898988e+03
9.478431e+02,4.898226e+03
9.488073e+02,4.897089e+03
9.497715e+02,4.900613e+03
9.507358e+02,4.905712e+03
9.517000e+02,4.902891e+03
9.526642e+02,4.894058e+03
9.536285e+02,4.885577e+03
9.545927e+02,4.880842e+03
9.555569e+02,4.878331e+03
9.565212e+02,4.872127e+03
9.574854e+02,4.863657e+03
9.584496e+02,4.862160e+03
9.594139e+02,4.870643e+03
9.603781e+02,4.882956e+03
9.613423e+02,4.885616e+03
9.623066e+02,4.875728e+03
9.632708e+02,4.872234e+03
9.642350e+02,4.883091e+03
9.651993e+02,4.898583e+03
9.661635e+02,4.903180e+03
9.671277e+02,4.890532e+03
9.680920e+02,4.877902e+03
9.690562e+02,4.863923e+03
9.700204e+02,4.850910e+03
9.709847e+02,4.842459e+03
9.719489e+02,4.840907e+03
9.729131e+02,4.839672e+03
9.738774e+02,4.839489e+03
9.748416e+02,4.841284e+03
9.758058e+02,4.843214e+03
9.767701e+02,4.844314e+03
9.777343e+02,4.847028e+03
9.786985e+02,4.854961e+03
9.796628e+02,4.859749e+03
9.806270e+02,4.859032e+03
9.815912e+02,4.853795e+03
9.825555e+02,4.846104e+03
9.835197e+02,4.838140e+03
9.844839e+02,4.829808e+03
9.854482e+02,4.817675e+03
9.864124e+02,4.807657e+03
9.873766e+02,4.806812e+03
9.883409e+02,4.818539e+03
9.893051e+02,4.829695e+03
9.902693e+02,4.828637e+03
9.912336e+02,4.825365e+03
9.921978e+02,4.830665e+03
9.931620e+02,4.843291e+03
9.941263e+02,4.853368e+03
9.950905e+02,4.852713e+03
9.960547e+02,4.847662e+03
9.970190e+02,4.848050e+03
9.979832e+02,4.851151e+03
9.989474e+02,4.847063e+03
9.999117e+02,4.828528e+03
1.000876e+03,4.805447e+03
1.001840e+03,4.791213e+03
1.002804e+03,4.785620e+03
1.003769e+03,4.784107e+03
1.004733e+03,4.783601e+03
1.005697e+03,4.785472e+03
1.006661e+03,4.795680e+03
1.007626e+03,4.811946e+03
1.008590e+03,4.822214e+03
1.009554e+03,4.823146e+03
1.010518e+03,4.817721e+03
1.011482e+03,4.809652e+03
1.012447e+03,4.799044e+03
1.013411e+03,4.786039e+03
1.014375e+03,4.772497e+03
1.015339e+03,4.764753e+03
1.016304e+03,4.767060e+03
1.017268e+03,4.776931e+03
1.018232e+03,4.782437e+03
1.019196e+03,4.782448e+03
1.020161e+03,4.781756e+03
1.021125e+03,4.783464e+03
1.022089e+03,4.787294e+03
1.023053e+03,4.788577e+03
1.024018e+03,4.784893e+03
1.024982e+03,4.781673e+03
1.025946e+03,4.779377e+03
1.026910e+03,4.775425e+03
1.027875e+03,4.768829e+03
1.028839e+03,4.760707e+03
1.029803e+03,4.755709e+03
1.030767e+03,4.754554e+03
1.031731e+03,4.755881e+03
1.032696e+03,4.758095e+03
1.033660e+03,4.760757e+03
1.034624e+03,4.763294e+03
1.035588e+03,4.767725e+03
1.036552e+03,4.771980e+03
1.037517e+03,4.774642e+03
1.038481e+03,4.774188e+03
1.039445e+03,4.769703e+03
1.040409e+03,4.757276e+03
1.041374e+03,4.747753e+03
1.042338e+03,4.744602e+03
1.043302e+03,4.746267e+03
1.044266e+03,4.749913e+03
1.045231e+03,4.759722e+03
1.046195e+03,4.762544e+03
1.047159e+03,4.754855e+03
1.048123e+03,4.745148e+03
1.049088e+03,4.738817e+03
1.050052e+03,4.737745e+03
1.051016e+03,4.737399e+03
1.051980e+03,4.737002e+03
1.052945e+03,4.736994e+03
1.053909e+03,4.734443e+03
1.054873e+03,4.728630e+03
1.055837e+03,4.725134e+03
1.056802e+03,4.733898e+03
1.057766e+03,4.736509e+03
1.058730e+03,4.722632e+03
1.059694e+03,4.704945e+03
1.060658e+03,4.699032e+03
1.061623e+03,4.717400e+03
1.062587e+03,4.728784e+03
1.063551e+03,4.725850e+03
1.064515e+03,4.718319e+03
1.065479e+03,4.710060e+03
1.066444e+03,4.702022e+03
1.067408e+03,4.700040e+03
1.068372e+03,4.710213e+03
1.069336e+03,4.721231e+03
1.070301e+03,4.726414e+03
1.071265e+03,4.725557e+03
1.072229e+03,4.722855e+03
1.073193e+03,4.718022e+03
1.074158e+03,4.712433e+03
1.075122e+03,4.708928e+03
1.076086e+03,4.703940e+03
1.077050e+03,4.692739e+03
1.078015e+03,4.670399e+03
1.078979e+03,4.659442e+03
1.079943e+03,4.673251e+03
1.080907e+03,4.691525e+03
1.081872e+03,4.697140e+03
1.082836e+03,4.687435e+03
1.083800e+03,4.681955e+03
1.084764e+03,4.691013e+03
1.085729e+03,4.701337e+03
1.086693e+03,4.707466e+03
1.087657e+03,4.709139e+03
1.088621e+03,4.707737e+03
1.089585e+03,4.697901e+03
1.090550e+03,4.689715e+03
1.091514e+03,4.690397e+03
1.092478e+03,4.695290e+03
1.093442e+03,4.699041e+03
1.094406e+03,4.702643e+03
1.095371e+03,4.701458e+03
1.096335e+03,4.686717e+03
1.097299e+03,4.671611e+03
1.098263e+03,4.665051e+03
1.099228e+03,4.666617e+03
1.100192e+03,4.668403e+03
1.101156e+03,4.668202e+03
1.102120e+03,4.667962e+03
1.103085e+03,4.669485e+03
1.104049e+03,4.671878e+03
1.105013e+03,4.673198e+03
1.105977e+03,4.674564e+03
1.106942e+03,4.673868e+03
1.107906e+03,4.669807e+03
1.108870e+03,4.664696e+03
1.109834e+03,4.660298e+03
1.110799e+03,4.656848e+03
1.111763e+03,4.654083e+03
1.112727e+03,4.654335e+03
1.113691e+03,4.654461e+03
1.114656e+03,4.651087e+03
1.115620e+03,4.644880e+03
1.116584e+03,4.641415e+03
1.117548e+03,4.641052e+03
1.118512e+03,4.639583e+03
1.119477e+03,4.634680e+03
1.120441e+03,4.629088e+03
1.121405e+03,4.627689e+03
1.122369e+03,4.636789e+03
1.123334e+03,4.640926e+03
1.124298e+03,4.640172e+03
1.125262e+03,4.635968e+03
1.126226e+03,4.628291e+03
1.127191e+03,4.616696e+03
1.128155e+03,4.608835e+03
1.129119e+03,4.602944e+03
1.130083e+03,4.601140e+03
1.131047e+03,4.606432e+03
1.132012e+03,4.614843e+03
1.132976e+03,4.616254e+03
1.133940e+03,4.605265e+03
1.134904e+03,4.598134e+03
1.135869e+03,4.602428e+03
1.136833e+03,4.608504e+03
1.137797e+03,4.603991e+03
1.138761e+03,4.585292e+03
1.139726e+03,4.575947e+03
1.140690e+03,4.578233e+03
1.141654e+03,4.583366e+03
1.142618e+03,4.586405e+03
1.143583e+03,4.587782e+03
1.144547e+03,4.588165e+03
1.145511e+03,4.586810e+03
1.146475e+03,4.587108e+03
1.147439e+03,4.590845e+03
1.148404e+03,4.595523e+03
1.149368e+03,4.594239e+03
1.150332e+03,4.585610e+03
1.151296e+03,4.579576e+03
1.152261e+03,4.575252e+03
1.153225e+03,4.569550e+03
1.154189e+03,4.563062e+03
1.155153e+03,4.557636e+03
1.156118e+03,4.553057e+03
1.157082e+03,4.550771e+03
1.158046e+03,4.551693e+03
1.159010e+03,4.555192e+03
1.159974e+03,4.559207e+03
1.160939e+03,4.558356e+03
1.161903e+03,4.552797e+03
1.162867e+03,4.550929e+03
1.163831e+03,4.554431e+03
1.164796e+03,4.557171e+03
1.165760e+03,4.552724e+03
1.166724e+03,4.544342e+03
1.167688e+03,4.539261e+03
1.168653e+03,4.537367e+03
1.169617e+03,4.534693e+03
1.170581e+03,4.528213e+03
1.171545e+03,4.521756e+03
1.172510e+03,4.521606e+03
1.173474e+03,4.525764e+03
1.174438e+03,4.528371e+03
1.175402e+03,4.526861e+03
1.176366e+03,4.523956e+03
1.177331e+03,4.521255e+03
1.178295e+03,4.520026e+03
1.179259e+03,4.520899e+03
1.180223e+03,4.523103e+03
1.181188e+03,4.526534e+03
1.182152e+03,4.537090e+03
1.183116e+03,4.543660e+03
1.184080e+03,4.537625e+03
1.185045e+03,4.524149e+03
1.186009e+03,4.510271e+03
1.186973e+03,4.496385e+03
1.187937e+03,4.489621e+03
1.188901e+03,4.499834e+03
1.189866e+03,4.512015e+03
1.190830e+03,4.510219e+03
1.191794e+03,4.491708e+03
1.192758e+03,4.480085e+03
1.193723e+03,4.487505e+03
1.194687e+03,4.498269e+03
1.195651e+03,4.508306e+03
1.196615e+03,4.515886e+03
1.197580e+03,4.517241e+03
1.198544e+03,4.501042e+03
1.199508e+03,4.490068e+03
1.200472e+03,4.494461e+03
1.201437e+03,4.500038e+03
1.202401e+03,4.494104e+03
1.203365e+03,4.475479e+03
1.204329e+03,4.464349e+03
1.205293e+03,4.461233e+03
1.206258e+03,4.462731e+03
1.207222e+03,4.467247e+03
1.208186e+03,4.474099e+03
1.209150e+03,4.484381e+03
1.210115e+03,4.497859e+03
1.211079e+03,4.502142e+03
1.212043e+03,4.494386e+03
1.213007e+03,4.481986e+03
1.213972e+03,4.474224e+03
1.214936e+03,4.471631e+03
1.215900e+03,4.471174e+03
1.216864e+03,4.472663e+03
1.217828e+03,4.471797e+03
1.218793e+03,4.464467e+03
1.219757e+03,4.456176e+03
1.220721e+03,4.456817e+03
1.221685e+03,4.464320e+03
1.222650e+03,4.471608e+03
1.223614e+03,4.475438e+03
1.224578e+03,4.477319e+03
1.225542e+03,4.483129e+03
1.226507e+03,4.487812e+03
1.227471e+03,4.481843e+03
1.228435e+03,4.466388e+03
1.229399e+03,4.452264e+03
1.230364e+03,4.447812e+03
1.231328e+03,4.445125e+03
1.232292e+03,4.444411e+03
1.233256e+03,4.444271e+03
1.234220e+03,4.439589e+03
1.235185e+03,4.427951e+03
1.236149e+03,4.420299e+03
1.237113e+03,4.421537e+03
1.238077e+03,4.426125e+03
1.239042e+03,4.428229e+03
1.240006e+03,4.426378e+03
1.240970e+03,4.425513e+03
1.241934e+03,4.428423e+03
1.242899e+03,4.426681e+03
1.243863e+03,4.417667e+03
1.244827e+03,4.406703e+03
1.245791e+03,4.400595e+03
1.246755e+03,4.400325e+03
1.247720e+03,4.398660e+03
1.248684e+03,4.395241e+03
1.249648e+03,4.394795e+03
1.250612e+03,4.401456e+03
1.251577e+03,4.410963e+03
1.252541e+03,4.407453e+03
1.253505e+03,4.392979e+03
1.254469e+03,4.389747e+03
1.255434e+03,4.406250e+03
1.256398e+03,4.425536e+03
1.257362e+03,4.424670e+03
1.258326e+03,4.411561e+03
1.259291e+03,4.400898e+03
1.260255e+03,4.393202e+03
1.261219e+03,4.385908e+03
1.262183e+03,4.379677e+03
1.263147e+03,4.376126e+03
1.264112e+03,4.378560e+03
1.265076e+03,4.382703e+03
1.266040e+03,4.380258e+03
1.267004e+03,4.366215e+03
1.267969e+03,4.357817e+03
1.268933e+03,4.368796e+03
1.269897e+03,4.383276e+03
1.270861e+03,4.385868e+03
1.271826e+03,4.375148e+03
1.272790e+03,4.372886e+03
1.273754e+03,4.389793e+03
1.274718e+03,4.399716e+03
1.275682e+03,4.398546e+03
1.276647e+03,4.391764e+03
1.277611e+03,4.383706e+03
1.278575e+03,4.373073e+03
1.279539e+03,4.367460e+03
1.280504e+03,4.370031e+03
1.281468e+03,4.373024e+03
1.282432e+03,4.369971e+03
1.283396e+03,4.364048e+03
1.284361e+03,4.363239e+03
1.285325e+03,4.365651e+03
1.286289e+03,4.367576e+03
1.287253e+03,4.367845e+03
1.288218e+03,4.366815e+03
1.289182e+03,4.366629e+03
1.290146e+03,4.365588e+03
1.291110e+03,4.361249e+03
1.292074e+03,4.354750e+03
1.293039e+03,4.348540e+03
1.294003e+03,4.340686e+03
1.294967e+03,4.335283e+03
1.295931e+03,4.338576e+03
1.296896e+03,4.345083e+03
1.297860e+03,4.347757e+03
1.298824e+03,4.343771e+03
1.299788e+03,4.341127e+03
1.300753e+03,4.338829e+03
1.301717e+03,4.338549e+03
1.302681e+03,4.341302e+03
1.303645e+03,4.346606e+03
1.304609e+03,4.354532e+03
1.305574e+03,4.364667e+03
1.306538e+03,4.367083e+03
1.307502e+03,4.361665e+03
1.308466e+03,4.354617e+03
1.309431e+03,4.350363e+03
1.310395e+03,4.348310e+03
1.311359e+03,4.345883e+03
1.312323e+03,4.341480e+03
1.313288e+03,4.335396e+03
1.314252e+03,4.329075e+03
1.315216e+03,4.326197e+03
1.316180e+03,4.331917e+03
1.317145e+03,4.340304e+03
1.318109e+03,4.341830e+03
1.319073e+03,4.334084e+03
1.320037e+03,4.326910e+03
1.321001e+03,4.325383e+03
1.321966e+03,4.324206e+03
1.322930e+03,4.324838e+03
1.323894e+03,4.325887e+03
1.324858e+03,4.322278e+03
1.325823e+03,4.309273e+03
1.326787e+03,4.301867e+03
1.327751e+03,4.299408e+03
1.328715e+03,4.301330e+03
1.329680e+03,4.310144e+03
1.330644e+03,4.323033e+03
1.331608e+03,4.325468e+03
1.332572e+03,4.317810e+03
1.333536e+03,4.309377e+03
1.334501e+03,4.301890e+03
1.335465e+03,4.294765e+03
1.336429e+03,4.288721e+03
1.337393e+03,4.284956e+03
1.338358e+03,4.286492e+03
1.339322e+03,4.291509e+03
1.340286e+03,4.292535e+03
1.341250e+03,4.280821e+03
1.342215e+03,4.270187e+03
1.343179e+03,4.270971e+03
1.344143e+03,4.277667e+03
1.345107e+03,4.281798e+03
1.346072e+03,4.280748e+03
1.347036e+03,4.278237e+03
1.348000e+03,4.271624e+03
1.348964e+03,4.266018e+03
1.349928e+03,4.264959e+03
1.350893e+03,4.267693e+03
1.351857e+03,4.269575e+03
1.352821e+03,4.269718e+03
1.353785e+03,4.269766e+03
1.354750e+03,4.269373e+03
1.355714e+03,4.267647e+03
1.356678e+03,4.266089e+03
1.357642e+03,4.265216e+03
1.358607e+03,4.262276e+03
1.359571e+03,4.258054e+03
1.360535e+03,4.255675e+03
1.361499e+03,4.257626e+03
1.362464e+03,4.259989e+03
1.363428e+03,4.261572e+03
1.364392e+03,4.263895e+03
1.365356e+03,4.265151e+03
1.366320e+03,4.263903e+03
1.367285e+03,4.265520e+03
1.368249e+03,4.276913e+03
1.369213e+03,4.278238e+03
1.370177e+03,4.262500e+03
1.371142e+03,4.243086e+03
1.372106e+03,4.237085e+03
1.373070e+03,4.242447e+03
1.374034e+03,4.243916e+03
1.374999e+03,4.242628e+03
1.375963e+03,4.242154e+03
1.376927e+03,4.244739e+03
1.377891e+03,4.246733e+03
1.378855e+03,4.242191e+03
1.379820e+03,4.234769e+03
1.380784e+03,4.230052e+03
1.381748e+03,4.229977e+03
1.382712e+03,4.229095e+03
1.383677e+03,4.218642e+03
1.384641e+03,4.211266e+03
1.385605e+03,4.213729e+03
1.386569e+03,4.219353e+03
1.387534e+03,4.217866e+03
1.388498e+03,4.207528e+03
1.389462e+03,4.203559e+03
1.390426e+03,4.206356e+03
1.391391e+03,4.206284e+03
1.392355e+03,4.196094e+03
1.393319e+03,4.184006e+03
1.394283e+03,4.187326e+03
1.395247e+03,4.199289e+03
1.396212e+03,4.204980e+03
1.397176e+03,4.200808e+03
1.398140e+03,4.195659e+03
1.399104e+03,4.191396e+03
1.400069e+03,4.189342e+03
1.401033e+03,4.192681e+03
1.401997e+03,4.199065e+03
1.402961e+03,4.202225e+03
1.403926e+03,4.201942e+03
1.404890e+03,4.197568e+03
1.405854e+03,4.189170e+03
1.406818e+03,4.178764e+03
1.407782e+03,4.165984e+03
1.408747e+03,4.154445e+03
1.409711e+03,4.154910e+03
1.410675e+03,4.162995e+03
1.411639e+03,4.170357e+03
1.412604e+03,4.175689e+03
1.413568e+03,4.175694e+03
1.414532e+03,4.162787e+03
1.415496e+03,4.149955e+03
1.416461e+03,4.148387e+03
1.417425e+03,4.154545e+03
1.418389e+03,4.157395e+03
1.419353e+03,4.154819e+03
1.420318e+03,4.148781e+03
1.421282e+03,4.136994e+03
1.422246e+03,4.129748e+03
1.423210e+03,4.137144e+03
1.424174e+03,4.156709e+03
1.425139e+03,4.167751e+03
1.426103e+03,4.169615e+03
1.427067e+03,4.165553e+03
1.428031e+03,4.156112e+03
1.428996e+03,4.147008e+03
1.429960e+03,4.143337e+03
1.430924e+03,4.141526e+03
1.431888e+03,4.139091e+03
1.432853e+03,4.135716e+03
1.433817e+03,4.130333e+03
1.434781e+03,4.116990e+03
1.435745e+03,4.112564e+03
1.436709e+03,4.121697e+03
1.437674e+03,4.132304e+03
1.438638e+03,4.135712e+03
1.439602e+03,4.133531e+03
1.440566e+03,4.128774e+03
1.441531e+03,4.121322e+03
1.442495e+03,4.114565e+03
1.443459e+03,4.108868e+03
1.444423e+03,4.104904e+03
1.445388e+03,4.104280e+03
1.446352e+03,4.103646e+03
1.447316e+03,4.100745e+03
1.448280e+03,4.097241e+03
1.449245e+03,4.094646e+03
1.450209e+03,4.092945e+03
1.451173e+03,4.092379e+03
1.452137e+03,4.090027e+03
1.453101e+03,4.088332e+03
1.454066e+03,4.091868e+03
1.455030e+03,4.099959e+03
1.455994e+03,4.105339e+03
1.456958e+03,4.108401e+03
1.457923e+03,4.112335e+03
1.458887e+03,4.117346e+03
1.459851e+03,4.122350e+03
1.460815e+03,4.129748e+03
1.461780e+03,4.132955e+03
1.462744e+03,4.126972e+03
1.463708e+03,4.113451e+03
1.464672e+03,4.099434e+03
1.465636e+03,4.084808e+03
1.466601e+03,4.075786e+03
1.467565e+03,4.074687e+03
1.468529e+03,4.075190e+03
1.469493e+03,4.068275e+03
1.470458e+03,4.056386e+03
1.471422e+03,4.054496e+03
1.472386e+03,4.061365e+03
1.473350e+03,4.070742e+03
1.474315e+03,4.081237e+03
1.475279e+03,4.085936e+03
1.476243e+03,4.073687e+03
1.477207e+03,4.058757e+03
1.478172e+03,4.056124e+03
1.479136e+03,4.062302e+03
1.480100e+03,4.056514e+03
1.481064e+03,4.033192e+03
1.482028e+03,4.024004e+03
1.482993e+03,4.035685e+03
1.483957e+03,4.049291e+03
1.484921e+03,4.042011e+03
1.485885e+03,4.026656e+03
1.486850e+03,4.028972e+03
1.487814e+03,4.041234e+03
1.488778e+03,4.049053e+03
1.489742e+03,4.048161e+03
1.490707e+03,4.044844e+03
1.491671e+03,4.045288e+03
1.492635e+03,4.043196e+03
1.493599e+03,4.032079e+03
1.494563e+03,4.015476e+03
1.495528e+03,4.004897e+03
1.496492e+03,3.999659e+03
1.497456e+03,4.000100e+03
1.498420e+03,4.007303e+03
1.499385e+03,4.013324e+03
1.500349e+03,4.009524e+03
1.501313e+03,4.004519e+03
1.502277e+03,4.003229e+03
1.503242e+03,4.005640e+03
1.504206e+03,4.013473e+03
1.505170e+03,4.030544e+03
1.506134e+03,4.034567e+03
1.507099e+03,4.021038e+03
1.508063e+03,4.007786e+03
1.509027e+03,4.001477e+03
1.509991e+03,3.998911e+03
1.510955e+03,3.996370e+03
1.511920e+03,3.992995e+03
1.512884e+03,3.985861e+03
1.513848e+03,3.977396e+03
1.514812e+03,3.974318e+03
1.515777e+03,3.981183e+03
1.516741e+03,3.986464e+03
1.517705e+03,3.984044e+03
1.518669e+03,3.979594e+03
1.519634e+03,3.978999e+03
1.520598e+03,3.981276e+03
1.521562e+03,3.979020e+03
1.522526e+03,3.971692e+03
1.523490e+03,3.970167e+03
1.524455e+03,3.980232e+03
1.525419e+03,3.986636e+03
1.526383e+03,3.968832e+03
1.527347e+03,3.946945e+03
1.528312e+03,3.941584e+03
1.529276e+03,3.951243e+03
1.530240e+03,3.958263e+03
1.531204e+03,3.958969e+03
1.532169e+03,3.960044e+03
1.533133e+03,3.962042e+03
1.534097e+03,3.964437e+03
1.535061e+03,3.966769e+03
1.536026e+03,3.968220e+03
1.536990e+03,3.969378e+03
1.537954e+03,3.969785e+03
1.538918e+03,3.966995e+03
1.539882e+03,3.959278e+03
1.540847e+03,3.954933e+03
1.541811e+03,3.960184e+03
1.542775e+03,3.960899e+03
1.543739e+03,3.952800e+03
1.544704e+03,3.942320e+03
1.545668e+03,3.940230e+03
1.546632e+03,3.944954e+03
1.547596e+03,3.946062e+03
1.548561e+03,3.943951e+03
1.549525e+03,3.945592e+03
1.550489e+03,3.959149e+03
1.551453e+03,3.968304e+03
1.552417e+03,3.958547e+03
1.553382e+03,3.947078e+03
1.554346e+03,3.951312e+03
1.555310e+03,3.968972e+03
1.556274e+03,3.971781e+03
1.557239e+03,3.959796e+03
1.558203e+03,3.952881e+03
1.559167e+03,3.955988e+03
1.560131e+03,3.962371e+03
1.561096e+03,3.967586e+03
1.562060e+03,3.973177e+03
1.563024e+03,3.978353e+03
1.563988e+03,3.985029e+03
1.564953e+03,3.997406e+03
1.565917e+03,4.018156e+03
1.566881e+03,4.034378e+03
1.567845e+03,4.044435e+03
1.568809e+03,4.054323e+03
1.569774e+03,4.069560e+03
1.570738e+03,4.083266e+03
1.571702e+03,4.085782e+03
1.572666e+03,4.080766e+03
1.573631e+03,4.072464e+03
1.574595e+03,4.062741e+03
1.575559e+03,4.052013e+03
1.576523e+03,4.038896e+03
1.577488e+03,4.029863e+03
1.578452e+03,4.024165e+03
1.579416e+03,4.020285e+03
1.580380e+03,4.018560e+03
1.581344e+03,4.018359e+03
1.582309e+03,4.021939e+03
1.583273e+03,4.026127e+03
1.584237e+03,4.021623e+03
1.585201e+03,4.001340e+03
1.586166e+03,3.984319e+03
1.587130e+03,3.971239e+03
1.588094e+03,3.961995e+03
1.589058e+03,3.959320e+03
1.590023e+03,3.958834e+03
1.590987e+03,3.948700e+03
1.591951e+03,3.934479e+03
1.592915e+03,3.925688e+03
1.593880e+03,3.921368e+03
1.594844e+03,3.918676e+03
1.595808e+03,3.921662e+03
1.596772e+03,3.919554e+03
1.597736e+03,3.908398e+03
1.598701e+03,3.897938e+03
1.599665e+03,3.897233e+03
1.600629e+03,3.903149e+03
1.601593e+03,3.903863e+03
1.602558e+03,3.899838e+03
1.603522e+03,3.891927e+03
1.604486e+03,3.879493e+03
1.605450e+03,3.866960e+03
1.606415e+03,3.852113e+03
1.607379e+03,3.846693e+03
1.608343e+03,3.858221e+03
1.609307e+03,3.875655e+03
1.610271e+03,3.878380e+03
1.611236e+03,3.869554e+03
1.612200e+03,3.866944e+03
1.613164e+03,3.871280e+03
1.614128e+03,3.873951e+03
1.615093e+03,3.864813e+03
1.616057e+03,3.859330e+03
1.617021e+03,3.866878e+03
1.617985e+03,3.872782e+03
1.618950e+03,3.869000e+03
1.619914e+03,3.857790e+03
1.620878e+03,3.844136e+03
1.621842e+03,3.830711e+03
1.622807e+03,3.827793e+03
1.623771e+03,3.838239e+03
1.624735e+03,3.848667e+03
1.625699e+03,3.849749e+03
1.626663e+03,3.848956e+03
1.627628e+03,3.848526e+03
1.628592e+03,3.845495e+03
1.629556e+03,3.836949e+03
1.630520e+03,3.826562e+03
1.631485e+03,3.828208e+03
1.632449e+03,3.838082e+03
1.633413e+03,3.840939e+03
1.634377e+03,3.828848e+03
1.635342e+03,3.815555e+03
1.636306e+03,3.802611e+03
1.637270e+03,3.795343e+03
1.638234e+03,3.798306e+03
1.639198e+03,3.806129e+03
1.640163e+03,3.801221e+03
1.641127e+03,3.789674e+03
1.642091e+03,3.790375e+03
1.643055e+03,3.802637e+03
1.644020e+03,3.812260e+03
1.644984e+03,3.810800e+03
1.645948e+03,3.805853e+03
1.646912e+03,3.799457e+03
1.647877e+03,3.792296e+03
1.648841e+03,3.782967e+03
1.649805e+03,3.775039e+03
1.650769e+03,3.784529e+03
1.651734e+03,3.802660e+03
1.652698e+03,3.806968e+03
1.653662e+03,3.788288e+03
1.654626e+03,3.773420e+03
1.655590e+03,3.770272e+03
1.656555e+03,3.770997e+03
1.657519e+03,3.776986e+03
1.658483e+03,3.783466e+03
1.659447e+03,3.778374e+03
1.660412e+03,3.766880e+03
1.661376e+03,3.762346e+03
1.662340e+03,3.764796e+03
1.663304e+03,3.768690e+03
1.664269e+03,3.772373e+03
1.665233e+03,3.772969e+03
1.666197e+03,3.769199e+03
1.667161e+03,3.762145e+03
1.668125e+03,3.752028e+03
1.669090e+03,3.742367e+03
1.670054e+03,3.737172e+03
1.671018e+03,3.737058e+03
1.671982e+03,3.747735e+03
1.672947e+03,3.768129e+03
1.673911e+03,3.774677e+03
1.674875e+03,3.759728e+03
1.675839e+03,3.752481e+03
1.676804e+03,3.759878e+03
1.677768e+03,3.766951e+03
1.678732e+03,3.753958e+03
1.679696e+03,3.737790e+03
1.680661e+03,3.733217e+03
1.681625e+03,3.734591e+03
1.682589e+03,3.736941e+03
1.683553e+03,3.741457e+03
1.684517e+03,3.746293e+03
1.685482e+03,3.750759e+03
1.686446e+03,3.749968e+03
1.687410e+03,3.741440e+03
1.688374e+03,3.733656e+03
1.689339e+03,3.732758e+03
1.690303e+03,3.734607e+03
1.691267e+03,3.739903e+03
1.692231e+03,3.744334e+03
1.693196e+03,3.736126e+03
1.694160e+03,3.716989e+03
1.695124e+03,3.709767e+03
1.696088e+03,3.713608e+03
1.697052e+03,3.714724e+03
1.698017e+03,3.696082e+03
1.698981e+03,3.688227e+03
1.699945e+03,3.706035e+03
1.700909e+03,3.721155e+03
1.701874e+03,3.721703e+03
1.702838e+03,3.714460e+03
1.703802e+03,3.704439e+03
1.704766e+03,3.694298e+03
1.705731e+03,3.696749e+03
1.706695e+03,3.712434e+03
1.707659e+03,3.717234e+03
1.708623e+03,3.701352e+03
1.709588e+03,3.696178e+03
1.710552e+03,3.705537e+03
1.711516e+03,3.713868e+03
1.712480e+03,3.705364e+03
1.713444e+03,3.692356e+03
1.714409e+03,3.691705e+03
1.715373e+03,3.696372e+03
1.716337e+03,3.693216e+03
1.717301e+03,3.682759e+03
1.718266e+03,3.680824e+03
1.719230e+03,3.686239e+03
1.720194e+03,3.686347e+03
1.721158e+03,3.676382e+03
1.722123e+03,3.667544e+03
1.723087e+03,3.671087e+03
1.724051e+03,3.674344e+03
1.725015e+03,3.669955e+03
1.725979e+03,3.664379e+03
1.726944e+03,3.667335e+03
1.727908e+03,3.675528e+03
1.728872e+03,3.672115e+03
1.729836e+03,3.659681e+03
1.730801e+03,3.654147e+03
1.731765e+03,3.668429e+03
1.732729e+03,3.675094e+03
1.733693e+03,3.669451e+03
1.734658e+03,3.662528e+03
1.735622e+03,3.658028e+03
1.736586e+03,3.656438e+03
1.737550e+03,3.662383e+03
1.738515e+03,3.669289e+03
1.739479e+03,3.668442e+03
1.740443e+03,3.660578e+03
1.741407e+03,3.655363e+03
1.742371e+03,3.653119e+03
1.743336e+03,3.652243e+03
1.744300e+03,3.652293e+03
1.745264e+03,3.650917e+03
1.746228e+03,3.647513e+03
1.747193e+03,3.645205e+03
1.748157e+03,3.647104e+03
1.749121e+03,3.652688e+03
1.750085e+03,3.658242e+03
1.751050e+03,3.660797e+03
1.752014e+03,3.662017e+03
1.752978e+03,3.662221e+03
1.753942e+03,3.659358e+03
1.754906e+03,3.652368e+03
1.755871e+03,3.644763e+03
1.756835e+03,3.634746e+03
1.757799e+03,3.624305e+03
1.758763e+03,3.617632e+03
1.759728e+03,3.612333e+03
1.760692e+03,3.599889e+03
1.761656e+03,3.592178e+03
1.762620e+03,3.605687e+03
1.763585e+03,3.626460e+03
1.764549e+03,3.633000e+03
1.765513e+03,3.624048e+03
1.766477e+03,3.622514e+03
1.767442e+03,3.627725e+03
1.768406e+03,3.629559e+03
1.769370e+03,3.624837e+03
1.770334e+03,3.619495e+03
1.771298e+03,3.613574e+03
1.772263e+03,3.606468e+03
1.773227e+03,3.597600e+03
1.774191e+03,3.591938e+03
1.775155e+03,3.599945e+03
1.776120e+03,3.611474e+03
1.777084e+03,3.609540e+03
1.778048e+03,3.599526e+03
1.779012e+03,3.597713e+03
1.779977e+03,3.609177e+03
1.780941e+03,3.612442e+03
1.781905e+03,3.606170e+03
1.782869e+03,3.602687e+03
1.783833e+03,3.608882e+03
1.784798e+03,3.615762e+03
1.785762e+03,3.622712e+03
1.786726e+03,3.620918e+03
1.787690e+03,3.604597e+03
1.788655e+03,3.582179e+03
1.789619e+03,3.565324e+03
1.790583e+03,3.554850e+03
1.791547e+03,3.553196e+03
1.792512e+03,3.559366e+03
1.793476e+03,3.567813e+03
1.794440e+03,3.578784e+03
1.795404e+03,3.580302e+03
1.796369e+03,3.570155e+03
1.797333e+03,3.564128e+03
1.798297e+03,3.576281e+03
1.799261e+03,3.588051e+03
1.800225e+03,3.582426e+03
1.801190e+03,3.573422e+03
1.802154e+03,3.572947e+03
1.803118e+03,3.575452e+03
1.804082e+03,3.564784e+03
1.805047e+03,3.549242e+03
1.806011e+03,3.548160e+03
1.806975e+03,3.561428e+03
1.807939e+03,3.564147e+03
1.808904e+03,3.546831e+03
1.809868e+03,3.539152e+03
1.810832e+03,3.545428e+03
1.811796e+03,3.555234e+03
1.812760e+03,3.563684e+03
1.813725e+03,3.568198e+03
1.814689e+03,3.563095e+03
1.815653e+03,3.558082e+03
1.816617e+03,3.563449e+03
1.817582e+03,3.572559e+03
1.818546e+03,3.558266e+03
1.819510e+03,3.531499e+03
1.820474e+03,3.518128e+03
1.821439e+03,3.523005e+03
1.822403e+03,3.524713e+03
1.823367e+03,3.520366e+03
1.824331e+03,3.521255e+03
1.825296e+03,3.528429e+03
1.826260e+03,3.531344e+03
1.827224e+03,3.513983e+03
1.828188e+03,3.505882e+03
1.829152e+03,3.533414e+03
1.830117e+03,3.561732e+03
1.831081e+03,3.561401e+03
1.832045e+03,3.540146e+03
1.833009e+03,3.516977e+03
1.833974e+03,3.498875e+03
1.834938e+03,3.495151e+03
1.835902e+03,3.507873e+03
1.836866e+03,3.519477e+03
1.837831e+03,3.530382e+03
1.838795e+03,3.526903e+03
1.839759e+03,3.506970e+03
1.840723e+03,3.491442e+03
1.841688e+03,3.496601e+03
1.842652e+03,3.503552e+03
1.843616e+03,3.503070e+03
1.844580e+03,3.501540e+03
1.845544e+03,3.511465e+03
1.846509e+03,3.524182e+03
1.847473e+03,3.523173e+03
1.848437e+03,3.512332e+03
1.849401e+03,3.496229e+03
1.850366e+03,3.476206e+03
1.851330e+03,3.466197e+03
1.852294e+03,3.466448e+03
1.853258e+03,3.470565e+03
1.854223e+03,3.477232e+03
1.855187e+03,3.482208e+03
1.856151e+03,3.481467e+03
1.857115e+03,3.478528e+03
1.858079e+03,3.473297e+03
1.859044e+03,3.466496e+03
1.860008e+03,3.458190e+03
1.860972e+03,3.452543e+03
1.861936e+03,3.455276e+03
1.862901e+03,3.461884e+03
1.863865e+03,3.464215e+03
1.864829e+03,3.460533e+03
1.865793e+03,3.452836e+03
1.866758e+03,3.444927e+03
1.867722e+03,3.446214e+03
1.868686e+03,3.460932e+03
1.869650e+03,3.468326e+03
1.870615e+03,3.465235e+03
1.871579e+03,3.457744e+03
1.872543e+03,3.448356e+03
1.873507e+03,3.443616e+03
1.874471e+03,3.448120e+03
1.875436e+03,3.452723e+03
1.876400e+03,3.457829e+03
1.877364e+03,3.458116e+03
1.878328e+03,3.440417e+03
1.879293e+03,3.417345e+03
1.880257e+03,3.414267e+03
1.881221e+03,3.422947e+03
1.882185e+03,3.428441e+03
1.883150e+03,3.430477e+03
1.884114e+03,3.433876e+03
1.885078e+03,3.437249e+03
1.886042e+03,3.437260e+03
1.887006e+03,3.432468e+03
1.887971e+03,3.426877e+03
1.888935e+03,3.423003e+03
1.889899e+03,3.420478e+03
1.890863e+03,3.417042e+03
1.891828e+03,3.414541e+03
1.892792e+03,3.419911e+03
1.893756e+03,3.424988e+03
1.894720e+03,3.428544e+03
1.895685e+03,3.429253e+03
1.896649e+03,3.416402e+03
1.897613e+03,3.396660e+03
1.898577e+03,3.403288e+03
1.899542e+03,3.423879e+03
1.900506e+03,3.428302e+03
1.901470e+03,3.409509e+03
1.902434e+03,3.401997e+03
1.903398e+03,3.405355e+03
1.904363e+03,3.404427e+03
1.905327e+03,3.394878e+03
1.906291e+03,3.393183e+03
1.907255e+03,3.418435e+03
1.908220e+03,3.429181e+03
1.909184e+03,3.415447e+03
1.910148e+03,3.396591e+03
1.911112e+03,3.392870e+03
1.912077e+03,3.394795e+03
1.913041e+03,3.398570e+03
1.914005e+03,3.398970e+03
1.914969e+03,3.388517e+03
1.915933e+03,3.371257e+03
1.916898e+03,3.359126e+03
1.917862e+03,3.352841e+03
1.918826e+03,3.355382e+03
1.919790e+03,3.368469e+03
1.920755e+03,3.362974e+03
1.921719e+03,3.338408e+03
1.922683e+03,3.330172e+03
1.923647e+03,3.347115e+03
1.924612e+03,3.361322e+03
1.925576e+03,3.355341e+03
1.926540e+03,3.353815e+03
1.927504e+03,3.359099e+03
1.928469e+03,3.362432e+03
1.929433e+03,3.353913e+03
1.930397e+03,3.342167e+03
1.931361e+03,3.329173e+03
1.932325e+03,3.321356e+03
1.933290e+03,3.328002e+03
1.934254e+03,3.344321e+03
1.935218e+03,3.355692e+03
1.936182e+03,3.359166e+03
1.937147e+03,3.351112e+03
1.938111e+03,3.335006e+03
1.939075e+03,3.328088e+03
1.940039e+03,3.330710e+03
1.941004e+03,3.336601e+03
1.941968e+03,3.342234e+03
1.942932e+03,3.341093e+03
1.943896e+03,3.331145e+03
1.944860e+03,3.318268e+03
1.945825e+03,3.304036e+03
1.946789e+03,3.296823e+03
1.947753e+03,3.309135e+03
1.948717e+03,3.316797e+03
1.949682e+03,3.304786e+03
1.950646e+03,3.294926e+03
1.951610e+03,3.302905e+03
1.952574e+03,3.315981e+03
1.953539e+03,3.316898e+03
1.954503e+03,3.310872e+03
1.955467e+03,3.302085e+03
1.956431e+03,3.294088e+03
1.957396e+03,3.295631e+03
1.958360e+03,3.301813e+03
1.959324e+03,3.303401e+03
1.960288e+03,3.300906e+03
1.961252e+03,3.293554e+03
1.962217e+03,3.278159e+03
1.963181e+03,3.283328e+03
1.964145e+03,3.306559e+03
1.965109e+03,3.318906e+03
1.966074e+03,3.299707e+03
1.967038e+03,3.285238e+03
1.968002e+03,3.275265e+03
1.968966e+03,3.265900e+03
1.969931e+03,3.254096e+03
1.970895e+03,3.247387e+03
1.971859e+03,3.264748e+03
1.972823e+03,3.277727e+03
1.973787e+03,3.270876e+03
1.974752e+03,3.256016e+03
1.975716e+03,3.250543e+03
1.976680e+03,3.247603e+03
1.977644e+03,3.240747e+03
1.978609e+03,3.235072e+03
1.979573e+03,3.237846e+03
1.980537e+03,3.245274e+03
1.981501e+03,3.247747e+03
1.982466e+03,3.246481e+03
1.983430e+03,3.243942e+03
1.984394e+03,3.239758e+03
1.985358e+03,3.236093e+03
1.986323e+03,3.232661e+03
1.987287e+03,3.230714e+03
1.988251e+03,3.230502e+03
1.989215e+03,3.230014e+03
1.990179e+03,3.229965e+03
1.991144e+03,3.229242e+03
1.992108e+03,3.228781e+03
1.993072e+03,3.227923e+03
1.994036e+03,3.226923e+03
1.995001e+03,3.219154e+03
1.995965e+03,3.199714e+03
1.996929e+03,3.186095e+03
1.997893e+03,3.198030e+03
1.998858e+03,3.216095e+03
1.999822e+03,3.228615e+03
2.000786e+03,3.232702e+03
2.001750e+03,3.226321e+03
2.002714e+03,3.215945e+03
2.003679e+03,3.208249e+03
2.004643e+03,3.203024e+03
2.005607e+03,3.204785e+03
2.006571e+03,3.211365e+03
2.007536e+03,3.210412e+03
2.008500e+03,3.204318e+03
2.009464e+03,3.198153e+03
2.010428e+03,3.193946e+03
2.011393e+03,3.195232e+03
2.012357e+03,3.202490e+03
2.013321e+03,3.201939e+03
2.014285e+03,3.191593e+03
2.015250e+03,3.185660e+03
2.016214e+03,3.198770e+03
2.017178e+03,3.201334e+03
2.018142e+03,3.191834e+03
2.019106e+03,3.185502e+03
2.020071e+03,3.192140e+03
2.021035e+03,3.196918e+03
2.021999e+03,3.192078e+03
2.022963e+03,3.183219e+03
2.023928e+03,3.172673e+03
2.024892e+03,3.162692e+03
2.025856e+03,3.151652e+03
2.026820e+03,3.146997e+03
2.027785e+03,3.154726e+03
2.028749e+03,3.165492e+03
2.029713e+03,3.168096e+03
2.030677e+03,3.166885e+03
2.031641e+03,3.165276e+03
2.032606e+03,3.163794e+03
2.033570e+03,3.163045e+03
2.034534e+03,3.162516e+03
2.035498e+03,3.164862e+03
2.036463e+03,3.167448e+03
2.037427e+03,3.161439e+03
2.038391e+03,3.148738e+03
2.039355e+03,3.136812e+03
2.040320e+03,3.127770e+03
2.041284e+03,3.130812e+03
2.042248e+03,3.147495e+03
2.043212e+03,3.155599e+03
2.044177e+03,3.154672e+03
2.045141e+03,3.148530e+03
2.046105e+03,3.137241e+03
2.047069e+03,3.127446e+03
2.048033e+03,3.120182e+03
2.048998e+03,3.115430e+03
2.049962e+03,3.114358e+03
2.050926e+03,3.115645e+03
2.051890e+03,3.124381e+03
2.052854e+03,3.123871e+03
2.053819e+03,3.102529e+03
2.054783e+03,3.086816e+03
2.055747e+03,3.096364e+03
2.056711e+03,3.110783e+03
2.057676e+03,3.111023e+03
2.058640e+03,3.106751e+03
2.059604e+03,3.099114e+03
2.060568e+03,3.092351e+03
2.061533e+03,3.098776e+03
2.062497e+03,3.107378e+03
2.063461e+03,3.105871e+03
2.064425e+03,3.100020e+03
2.065390e+03,3.099573e+03
2.066354e+03,3.098810e+03
2.067318e+03,3.083138e+03
2.068282e+03,3.063315e+03
2.069247e+03,3.060678e+03
2.070211e+03,3.070688e+03
2.071175e+03,3.067589e+03
2.072139e+03,3.057317e+03
2.073104e+03,3.053504e+03
2.074068e+03,3.057507e+03
2.075032e+03,3.060323e+03
2.075996e+03,3.060809e+03
2.076960e+03,3.059114e+03
2.077925e+03,3.054859e+03
2.078889e+03,3.049520e+03
2.079853e+03,3.043056e+03
2.080817e+03,3.045000e+03
2.081782e+03,3.055161e+03
2.082746e+03,3.054202e+03
2.083710e+03,3.028109e+03
2.084674e+03,3.018367e+03
2.085639e+03,3.028859e+03
2.086603e+03,3.040524e+03
2.087567e+03,3.036065e+03
2.088531e+03,3.033773e+03
2.089496e+03,3.035865e+03
2.090460e+03,3.032675e+03
2.091424e+03,3.022854e+03
2.092388e+03,3.017229e+03
2.093353e+03,3.023431e+03
2.094317e+03,3.029420e+03
2.095281e+03,3.028128e+03
2.096245e+03,3.025905e+03
2.097209e+03,3.034206e+03
2.098174e+03,3.036844e+03
2.099138e+03,3.026647e+03
2.100102e+03,3.015178e+03
2.101066e+03,3.016895e+03
2.102031e+03,3.020199e+03
2.102995e+03,3.015018e+03
2.103959e+03,3.005542e+03
2.104923e+03,2.991153e+03
2.105887e+03,2.980519e+03
2.106852e+03,2.986738e+03
2.107816e+03,2.995991e+03
2.108780e+03,2.995360e+03
2.109744e+03,2.989327e+03
2.110708e+03,2.993190e+03
2.111673e+03,3.001153e+03
2.112637e+03,3.001040e+03
2.113601e+03,2.992560e+03
2.114565e+03,2.973533e+03
2.115530e+03,2.952505e+03
2.116494e+03,2.950966e+03
2.117458e+03,2.968026e+03
2.118422e+03,2.979880e+03
2.119387e+03,2.984104e+03
2.120351e+03,2.977660e+03
2.121315e+03,2.964292e+03
2.122279e+03,2.964854e+03
2.123244e+03,2.979892e+03
2.124208e+03,2.987132e+03
2.125172e+03,2.987301e+03
2.126136e+03,2.976042e+03
2.127101e+03,2.950884e+03
2.128065e+03,2.939129e+03
2.129029e+03,2.939043e+03
2.129993e+03,2.944202e+03
2.130958e+03,2.950593e+03
2.131922e+03,2.956915e+03
2.132886e+03,2.964848e+03
2.133850e+03,2.957396e+03
2.134814e+03,2.936857e+03
2.135779e+03,2.925077e+03
2.136743e+03,2.930840e+03
2.137707e+03,2.932399e+03
2.138671e+03,2.929812e+03
2.139636e+03,2.923910e+03
2.140600e+03,2.909894e+03
2.141564e+03,2.904825e+03
2.142528e+03,2.910551e+03
2.143493e+03,2.916831e+03
2.144457e+03,2.918751e+03
2.145421e+03,2.917285e+03
2.146385e+03,2.913866e+03
2.147350e+03,2.906309e+03
2.148314e+03,2.894596e+03
2.149278e+03,2.888868e+03
2.150242e+03,2.897337e+03
2.151207e+03,2.900887e+03
2.152171e+03,2.895257e+03
2.153135e+03,2.887517e+03
2.154099e+03,2.887732e+03
2.155063e+03,2.887579e+03
2.156028e+03,2.885679e+03
2.156992e+03,2.885122e+03
2.157956e+03,2.883259e+03
2.158920e+03,2.883221e+03
2.159885e+03,2.887668e+03
2.160849e+03,2.891290e+03
2.161813e+03,2.892134e+03
2.162777e+03,2.889085e+03
2.163741e+03,2.880606e+03
2.164706e+03,2.869710e+03
2.165670e+03,2.859869e+03
2.166634e+03,2.852612e+03
2.167598e+03,2.842442e+03
2.168563e+03,2.841523e+03
2.169527e+03,2.854802e+03
2.170491e+03,2.866647e+03
2.171455e+03,2.862450e+03
2.172420e+03,2.855187e+03
2.173384e+03,2.852952e+03
2.174348e+03,2.853501e+03
2.175312e+03,2.855971e+03
2.176277e+03,2.856187e+03
2.177241e+03,2.850744e+03
2.178205e+03,2.841062e+03
2.179169e+03,2.827595e+03
2.180134e+03,2.816809e+03
2.181098e+03,2.816358e+03
2.182062e+03,2.819697e+03
2.183026e+03,2.820105e+03
2.183990e+03,2.818809e+03
2.184955e+03,2.815600e+03
2.185919e+03,2.815613e+03
2.186883e+03,2.824668e+03
2.187847e+03,2.831895e+03
2.188812e+03,2.821703e+03
2.189776e+03,2.807773e+03
2.190740e+03,2.803640e+03
2.191704e+03,2.802344e+03
2.192668e+03,2.800444e+03
2.193633e+03,2.797922e+03
2.194597e+03,2.791681e+03
2.195561e+03,2.788048e+03
2.196525e+03,2.793657e+03
2.197490e+03,2.799760e+03
2.198454e+03,2.785052e+03
2.199418e+03,2.769738e+03
2.200382e+03,2.774516e+03
2.201347e+03,2.788407e+03
2.202311e+03,2.788927e+03
2.203275e+03,2.785675e+03
2.204239e+03,2.787119e+03
2.205204e+03,2.787847e+03
2.206168e+03,2.787641e+03
2.207132e+03,2.783534e+03
2.208096e+03,2.761098e+03
2.209061e+03,2.737230e+03
2.210025e+03,2.737645e+03
2.210989e+03,2.745944e+03
2.211953e+03,2.734223e+03
2.212917e+03,2.723412e+03
2.213882e+03,2.726620e+03
2.214846e+03,2.736423e+03
2.215810e+03,2.748346e+03
2.216774e+03,2.753874e+03
2.217739e+03,2.750505e+03
2.218703e+03,2.743716e+03
2.219667e+03,2.741697e+03
2.220631e+03,2.740011e+03
2.221595e+03,2.731631e+03
2.222560e+03,2.721802e+03
2.223524e+03,2.717712e+03
2.224488e+03,2.717820e+03
2.225452e+03,2.727277e+03
2.226417e+03,2.735401e+03
2.227381e+03,2.727879e+03
2.228345e+03,2.715789e+03
2.229309e+03,2.706431e+03
2.230274e+03,2.703027e+03
2.231238e+03,2.713331e+03
2.232202e+03,2.725475e+03
2.233166e+03,2.723664e+03
2.234131e+03,2.717477e+03
2.235095e+03,2.713525e+03
2.236059e+03,2.709581e+03
2.237023e+03,2.699280e+03
2.237988e+03,2.689149e+03
2.238952e+03,2.682241e+03
2.239916e+03,2.677813e+03
2.240880e+03,2.681845e+03
2.241844e+03,2.684827e+03
2.242809e+03,2.677454e+03
2.243773e+03,2.669984e+03
2.244737e+03,2.672196e+03
2.245701e+03,2.676109e+03
2.246666e+03,2.674576e+03
2.247630e+03,2.671852e+03
2.248594e+03,2.672688e+03
2.249558e+03,2.678224e+03
2.250522e+03,2.692108e+03
2.251487e+03,2.704571e+03
2.252451e+03,2.709192e+03
2.253415e+03,2.703638e+03
2.254379e+03,2.680435e+03
2.255344e+03,2.663242e+03
2.256308e+03,2.662712e+03
2.257272e+03,2.667560e+03
2.258236e+03,2.669341e+03
2.259201e+03,2.669172e+03
2.260165e+03,2.666312e+03
2.261129e+03,2.661243e+03
2.262093e+03,2.650238e+03
2.263058e+03,2.642921e+03
2.264022e+03,2.644044e+03
2.264986e+03,2.649349e+03
2.265950e+03,2.658157e+03
2.266915e+03,2.660034e+03
2.267879e+03,2.649724e+03
2.268843e+03,2.634656e+03
2.269807e+03,2.618908e+03
2.270771e+03,2.610396e+03
2.271736e+03,2.614470e+03
2.272700e+03,2.619469e+03
2.273664e+03,2.619519e+03
2.274628e+03,2.618566e+03
2.275593e+03,2.617484e+03
2.276557e+03,2.616745e+03
2.277521e+03,2.618617e+03
2.278485e+03,2.617066e+03
2.279449e+03,2.603911e+03
2.280414e+03,2.600551e+03
2.281378e+03,2.607604e+03
2.282342e+03,2.614834e+03
2.283306e+03,2.615266e+03
2.284271e+03,2.615245e+03
2.285235e+03,2.613789e+03
2.286199e+03,2.605268e+03
2.287163e+03,2.588014e+03
2.288128e+03,2.582987e+03
2.289092e+03,2.586331e+03
2.290056e+03,2.579644e+03
2.291020e+03,2.559095e+03
2.291985e+03,2.553151e+03
2.292949e+03,2.562591e+03
2.293913e+03,2.573488e+03
2.294877e+03,2.581748e+03
2.295842e+03,2.580306e+03
2.296806e+03,2.569775e+03
2.297770e+03,2.568515e+03
2.298734e+03,2.574174e+03
2.299698e+03,2.573962e+03
2.300663e+03,2.569009e+03
2.301627e+03,2.567091e+03
2.302591e+03,2.563770e+03
2.303555e+03,2.548207e+03
2.304520e+03,2.525811e+03
2.305484e+03,2.520067e+03
2.306448e+03,2.524251e+03
2.307412e+03,2.524896e+03
2.308376e+03,2.523285e+03
2.309341e+03,2.530796e+03
2.310305e+03,2.537819e+03
2.311269e+03,2.531688e+03
2.312233e+03,2.520483e+03
2.313198e+03,2.508347e+03
2.314162e+03,2.501413e+03
2.315126e+03,2.514020e+03
2.316090e+03,2.526562e+03
2.317055e+03,2.511201e+03
2.318019e+03,2.496282e+03
2.318983e+03,2.511698e+03
2.319947e+03,2.528506e+03
2.320912e+03,2.530550e+03
2.321876e+03,2.523414e+03
2.322840e+03,2.503434e+03
2.323804e+03,2.487499e+03
2.324769e+03,2.484173e+03
2.325733e+03,2.488696e+03
2.326697e+03,2.500931e+03
2.327661e+03,2.509870e+03
2.328625e+03,2.510777e+03
2.329590e+03,2.503406e+03
2.330554e+03,2.484685e+03
2.331518e+03,2.473587e+03
2.332482e+03,2.472942e+03
2.333447e+03,2.471427e+03
2.334411e+03,2.459384e+03
2.335375e+03,2.458529e+03
2.336339e+03,2.469563e+03
2.337303e+03,2.478677e+03
2.338268e+03,2.480240e+03
2.339232e+03,2.472453e+03
2.340196e+03,2.458142e+03
2.341160e+03,2.451616e+03
2.342125e+03,2.457132e+03
2.343089e+03,2.460060e+03
2.344053e+03,2.457884e+03
2.345017e+03,2.453144e+03
2.345982e+03,2.447996e+03
2.346946e+03,2.450384e+03
2.347910e+03,2.457557e+03
2.348874e+03,2.455332e+03
2.349839e+03,2.443883e+03
2.350803e+03,2.431104e+03
2.351767e+03,2.420938e+03
2.352731e+03,2.422929e+03
2.353696e+03,2.430553e+03
2.354660e+03,2.430510e+03
2.355624e+03,2.425666e+03
2.356588e+03,2.421892e+03
2.357552e+03,2.420131e+03
2.358517e+03,2.422416e+03
2.359481e+03,2.424496e+03
2.360445e+03,2.415572e+03
2.361409e+03,2.410712e+03
2.362374e+03,2.421620e+03
2.363338e+03,2.429151e+03
2.364302e+03,2.413974e+03
2.365266e+03,2.402292e+03
2.366230e+03,2.399134e+03
2.367195e+03,2.399754e+03
2.368159e+03,2.403028e+03
2.369123e+03,2.401354e+03
2.370087e+03,2.395677e+03
2.371052e+03,2.391543e+03
2.372016e+03,2.393229e+03
2.372980e+03,2.391508e+03
2.373944e+03,2.385433e+03
2.374909e+03,2.381179e+03
2.375873e+03,2.381805e+03
2.376837e+03,2.380339e+03
2.377801e+03,2.377944e+03
2.378766e+03,2.378824e+03
2.379730e+03,2.382869e+03
2.380694e+03,2.375110e+03
2.381658e+03,2.362411e+03
2.382623e+03,2.359094e+03
2.383587e+03,2.362112e+03
2.384551e+03,2.360254e+03
2.385515e+03,2.356504e+03
2.386479e+03,2.361245e+03
2.387444e+03,2.367841e+03
2.388408e+03,2.366532e+03
2.389372e+03,2.361841e+03
2.390336e+03,2.354136e+03
2.391301e+03,2.348978e+03
2.392265e+03,2.356608e+03
2.393229e+03,2.359373e+03
2.394193e+03,2.344227e+03
2.395157e+03,2.332042e+03
2.396122e+03,2.341671e+03
2.397086e+03,2.344478e+03
2.398050e+03,2.330438e+03
2.399014e+03,2.321318e+03
2.399979e+03,2.326104e+03
2.400943e+03,2.329694e+03
2.401907e+03,2.328567e+03
2.402871e+03,2.325580e+03
2.403836e+03,2.322102e+03
2.404800e+03,2.320749e+03
2.405764e+03,2.320992e+03
2.406728e+03,2.323477e+03
2.407693e+03,2.326191e+03
2.408657e+03,2.326383e+03
2.409621e+03,2.325174e+03
2.410585e+03,2.320587e+03
2.411550e+03,2.314127e+03
2.412514e+03,2.307940e+03
2.413478e+03,2.302496e+03
2.414442e+03,2.302751e+03
2.415406e+03,2.301435e+03
2.416371e+03,2.286527e+03
2.417335e+03,2.272733e+03
2.418299e+03,2.286958e+03
2.419263e+03,2.303119e+03
2.420228e+03,2.307223e+03
2.421192e+03,2.305503e+03
2.422156e+03,2.304278e+03
2.423120e+03,2.298064e+03
2.424084e+03,2.282789e+03
2.425049e+03,2.267065e+03
2.426013e+03,2.257519e+03
2.426977e+03,2.251632e+03
2.427941e+03,2.250979e+03
2.428906e+03,2.256779e+03
2.429870e+03,2.269480e+03
2.430834e+03,2.271230e+03
2.431798e+03,2.264380e+03
2.432763e+03,2.258334e+03
2.433727e+03,2.253955e+03
2.434691e+03,2.270097e+03
2.435655e+03,2.289019e+03
2.436620e+03,2.267147e+03
2.437584e+03,2.228212e+03
2.438548e+03,2.242915e+03
2.439512e+03,2.269457e+03
2.440477e+03,2.262291e+03
2.441441e+03,2.243231e+03
2.442405e+03,2.244984e+03
2.443369e+03,2.249515e+03
2.444333e+03,2.249226e+03
2.445298e+03,2.247144e+03
2.446262e+03,2.244074e+03
2.447226e+03,2.240748e+03
2.448190e+03,2.238567e+03
2.449155e+03,2.234356e+03
2.450119e+03,2.222196e+03
2.451083e+03,2.224201e+03
2.452047e+03,2.237586e+03
2.453011e+03,2.239463e+03
2.453976e+03,2.224555e+03
2.454940e+03,2.227668e+03
2.455904e+03,2.241160e+03
2.456868e+03,2.231612e+03
2.457833e+03,2.205598e+03
2.458797e+03,2.191563e+03
2.459761e+03,2.186640e+03
2.460725e+03,2.185499e+03
2.461690e+03,2.187098e+03
2.462654e+03,2.195316e+03
2.463618e+03,2.199922e+03
2.464582e+03,2.195030e+03
2.465547e+03,2.191206e+03
2.466511e+03,2.195667e+03
2.467475e+03,2.200104e+03
2.468439e+03,2.202576e+03
2.469404e+03,2.201618e+03
2.470368e+03,2.199037e+03
2.471332e+03,2.192147e+03
2.472296e+03,2.180186e+03
2.473260e+03,2.169119e+03
2.474225e+03,2.160748e+03
2.475189e+03,2.164191e+03
2.476153e+03,2.176248e+03
2.477117e+03,2.182186e+03
2.478082e+03,2.181520e+03
2.479046e+03,2.176352e+03
2.480010e+03,2.169794e+03
2.480974e+03,2.167615e+03
2.481938e+03,2.167212e+03
2.482903e+03,2.162601e+03
2.483867e+03,2.163284e+03
2.484831e+03,2.175218e+03
2.485795e+03,2.182877e+03
2.486760e+03,2.169186e+03
2.487724e+03,2.161523e+03
2.488688e+03,2.165200e+03
2.489652e+03,2.170358e+03
2.490617e+03,2.171611e+03
2.491581e+03,2.168930e+03
2.492545e+03,2.164080e+03
2.493509e+03,2.161824e+03
2.494474e+03,2.160726e+03
2.495438e+03,2.148731e+03
2.496402e+03,2.133524e+03
2.497366e+03,2.135879e+03
2.498331e+03,2.145786e+03
2.499295e+03,2.147437e+03
2.500259e+03,2.139218e+03
2.501223e+03,2.119946e+03
2.502188e+03,2.104072e+03
2.503152e+03,2.108560e+03
2.504116e+03,2.118736e+03
2.505080e+03,2.130715e+03
2.506044e+03,2.135573e+03
2.507009e+03,2.117084e+03
2.507973e+03,2.110119e+03
2.508937e+03,2.116044e+03
2.509901e+03,2.121422e+03
2.510865e+03,2.122531e+03
2.511830e+03,2.115222e+03
2.512794e+03,2.102586e+03
2.513758e+03,2.099787e+03
2.514722e+03,2.104380e+03
2.515687e+03,2.105298e+03
2.516651e+03,2.104679e+03
2.517615e+03,2.106184e+03
2.518579e+03,2.104410e+03
2.519544e+03,2.082180e+03
2.520508e+03,2.074493e+03
2.521472e+03,2.096119e+03
2.522436e+03,2.114544e+03
2.523401e+03,2.100128e+03
2.524365e+03,2.096355e+03
2.525329e+03,2.103402e+03
2.526293e+03,2.103108e+03
2.527258e+03,2.092353e+03
2.528222e+03,2.090035e+03
2.529186e+03,2.092462e+03
2.530150e+03,2.086792e+03
2.531115e+03,2.077470e+03
2.532079e+03,2.077248e+03
2.533043e+03,2.081011e+03
2.534007e+03,2.082400e+03
2.534971e+03,2.080204e+03
2.535936e+03,2.072804e+03
2.536900e+03,2.069848e+03
2.537864e+03,2.075788e+03
2.538828e+03,2.076364e+03
2.539792e+03,2.056893e+03
2.540757e+03,2.050999e+03
2.541721e+03,2.061625e+03
2.542685e+03,2.063252e+03
2.543649e+03,2.055590e+03
2.544614e+03,2.062380e+03
2.545578e+03,2.077692e+03
2.546542e+03,2.086301e+03
2.547506e+03,2.089010e+03
2.548471e+03,2.083342e+03
2.549435e+03,2.075102e+03
2.550399e+03,2.069191e+03
2.551363e+03,2.065274e+03
2.552328e+03,2.067070e+03
2.553292e+03,2.063652e+03
2.554256e+03,2.048902e+03
2.555220e+03,2.040967e+03
2.556185e+03,2.042225e+03
2.557149e+03,2.049762e+03
2.558113e+03,2.061498e+03
2.559077e+03,2.057337e+03
2.560042e+03,2.042335e+03
2.561006e+03,2.044116e+03
2.561970e+03,2.055903e+03
2.562934e+03,2.053189e+03
2.563898e+03,2.045120e+03
2.564863e+03,2.039075e+03
2.565827e+03,2.036098e+03
2.566791e+03,2.044926e+03
2.567755e+03,2.053891e+03
2.568719e+03,2.058452e+03
2.569684e+03,2.048966e+03
2.570648e+03,2.014263e+03
2.571612e+03,1.997823e+03
2.572576e+03,2.000317e+03
2.573541e+03,2.009692e+03
2.574505e+03,2.020780e+03
2.575469e+03,2.034349e+03
2.576433e+03,2.042325e+03
2.577398e+03,2.033406e+03
2.578362e+03,2.017715e+03
2.579326e+03,2.003213e+03
2.580290e+03,1.996070e+03
2.581255e+03,1.997868e+03
2.582219e+03,1.997530e+03
2.583183e+03,1.983264e+03
2.584147e+03,1.978987e+03
2.585112e+03,1.987401e+03
2.586076e+03,1.990677e+03
2.587040e+03,1.985790e+03
2.588004e+03,1.974061e+03
2.588969e+03,1.963893e+03
2.589933e+03,1.979988e+03
2.590897e+03,2.004994e+03
2.591861e+03,2.001596e+03
2.592825e+03,1.988914e+03
2.593790e+03,1.977268e+03
2.594754e+03,1.966791e+03
2.595718e+03,1.955769e+03
2.596682e+03,1.955777e+03
2.597646e+03,1.969143e+03
2.598611e+03,1.970740e+03
2.599575e+03,1.961418e+03
2.600539e+03,1.961879e+03
2.601503e+03,1.969199e+03
2.602468e+03,1.965087e+03
2.603432e+03,1.955007e+03
2.604396e+03,1.952251e+03
2.605360e+03,1.952537e+03
2.606325e+03,1.950473e+03
2.607289e+03,1.947379e+03
2.608253e+03,1.943719e+03
2.609217e+03,1.944853e+03
2.610182e+03,1.953431e+03
2.611146e+03,1.954205e+03
2.612110e+03,1.948139e+03
2.613074e+03,1.942530e+03
2.614039e+03,1.938685e+03
2.615003e+03,1.928736e+03
2.615967e+03,1.917668e+03
2.616931e+03,1.917862e+03
2.617896e+03,1.924078e+03
2.618860e+03,1.934521e+03
2.619824e+03,1.936535e+03
2.620788e+03,1.924289e+03
2.621752e+03,1.916277e+03
2.622717e+03,1.927525e+03
2.623681e+03,1.934291e+03
2.624645e+03,1.934738e+03
2.625609e+03,1.929013e+03
2.626573e+03,1.919466e+03
2.627538e+03,1.917101e+03
2.628502e+03,1.919718e+03
2.629466e+03,1.919887e+03
2.630430e+03,1.920745e+03
2.631395e+03,1.931259e+03
2.632359e+03,1.932532e+03
2.633323e+03,1.913211e+03
2.634287e+03,1.907110e+03
2.635252e+03,1.921670e+03
2.636216e+03,1.934022e+03
2.637180e+03,1.937852e+03
2.638144e+03,1.934300e+03
2.639109e+03,1.924680e+03
2.640073e+03,1.914204e+03
2.641037e+03,1.905064e+03
2.642001e+03,1.888477e+03
2.642966e+03,1.884084e+03
2.643930e+03,1.904459e+03
2.644894e+03,1.920530e+03
2.645858e+03,1.906776e+03
2.646823e+03,1.899386e+03
2.647787e+03,1.898861e+03
2.648751e+03,1.903948e+03
2.649715e+03,1.911837e+03
2.650679e+03,1.899805e+03
2.651644e+03,1.882932e+03
2.652608e+03,1.885438e+03
2.653572e+03,1.894033e+03
2.654536e+03,1.889531e+03
2.655500e+03,1.885570e+03
2.656465e+03,1.887380e+03
2.657429e+03,1.889424e+03
2.658393e+03,1.888458e+03
2.659357e+03,1.886874e+03
2.660322e+03,1.886727e+03
2.661286e+03,1.881695e+03
2.662250e+03,1.874198e+03
2.663214e+03,1.872128e+03
2.664179e+03,1.872398e+03
2.665143e+03,1.874615e+03
2.666107e+03,1.872482e+03
2.667071e+03,1.861265e+03
2.668036e+03,1.858986e+03
2.669000e+03,1.880672e+03
2.669964e+03,1.887261e+03
2.670928e+03,1.879510e+03
2.671893e+03,1.873914e+03
2.672857e+03,1.872070e+03
2.673821e+03,1.865432e+03
2.674785e+03,1.855450e+03
2.675750e+03,1.843098e+03
2.676714e+03,1.838133e+03
2.677678e+03,1.860969e+03
2.678642e+03,1.873221e+03
2.679606e+03,1.866852e+03
2.680571e+03,1.855953e+03
2.681535e+03,1.843923e+03
2.682499e+03,1.843240e+03
2.683463e+03,1.849494e+03
2.684427e+03,1.845667e+03
2.685392e+03,1.839804e+03
2.686356e+03,1.848712e+03
2.687320e+03,1.854411e+03
2.688284e+03,1.840862e+03
2.689249e+03,1.831577e+03
2.690213e+03,1.830605e+03
2.691177e+03,1.830072e+03
2.692141e+03,1.829815e+03
2.693106e+03,1.824659e+03
2.694070e+03,1.818544e+03
2.695034e+03,1.821027e+03
2.695998e+03,1.826751e+03
2.696963e+03,1.829946e+03
2.697927e+03,1.825574e+03
2.698891e+03,1.807578e+03
2.699855e+03,1.800713e+03
2.700820e+03,1.821187e+03
2.701784e+03,1.840837e+03
2.702748e+03,1.853467e+03
2.703712e+03,1.848632e+03
2.704677e+03,1.831355e+03
2.705641e+03,1.813084e+03
2.706605e+03,1.801607e+03
2.707569e+03,1.804131e+03
2.708533e+03,1.810552e+03
2.709498e+03,1.816515e+03
2.710462e+03,1.810933e+03
2.711426e+03,1.783543e+03
2.712390e+03,1.778108e+03
2.713354e+03,1.789123e+03
2.714319e+03,1.791509e+03
2.715283e+03,1.788104e+03
2.716247e+03,1.787609e+03
2.717211e+03,1.795252e+03
2.718176e+03,1.817821e+03
2.719140e+03,1.825422e+03
2.720104e+03,1.785423e+03
2.721068e+03,1.773997e+03
2.722033e+03,1.797789e+03
2.722997e+03,1.798421e+03
2.723961e+03,1.781257e+03
2.724925e+03,1.795703e+03
2.725890e+03,1.816289e+03
2.726854e+03,1.797213e+03
2.727818e+03,1.778700e+03
2.728782e+03,1.781612e+03
2.729747e+03,1.783379e+03
2.730711e+03,1.770531e+03
2.731675e+03,1.766907e+03
2.732639e+03,1.771210e+03
2.733604e+03,1.770805e+03
2.734568e+03,1.768592e+03
2.735532e+03,1.780711e+03
2.736496e+03,1.789454e+03
2.737460e+03,1.782299e+03
2.738425e+03,1.775103e+03
2.739389e+03,1.778094e+03
2.740353e+03,1.773634e+03
2.741317e+03,1.760739e+03
2.742281e+03,1.754820e+03
2.743246e+03,1.755147e+03
2.744210e+03,1.751949e+03
2.745174e+03,1.748732e+03
2.746138e+03,1.755843e+03
2.747103e+03,1.766635e+03
2.748067e+03,1.779375e+03
2.749031e+03,1.787740e+03
2.749995e+03,1.785734e+03
2.750960e+03,1.782825e+03
2.751924e+03,1.779365e+03
2.752888e+03,1.775355e+03
2.753852e+03,1.770910e+03
2.754817e+03,1.766485e+03
2.755781e+03,1.765492e+03
2.756745e+03,1.771150e+03
2.757709e+03,1.769071e+03
2.758674e+03,1.753175e+03
2.759638e+03,1.750487e+03
2.760602e+03,1.763751e+03
2.761566e+03,1.756631e+03
2.762531e+03,1.742031e+03
2.763495e+03,1.738158e+03
2.764459e+03,1.738924e+03
2.765423e+03,1.742521e+03
2.766387e+03,1.745239e+03
2.767352e+03,1.747400e+03
2.768316e+03,1.751416e+03
2.769280e+03,1.757170e+03
2.770244e+03,1.738985e+03
2.771208e+03,1.715325e+03
2.772173e+03,1.720968e+03
2.773137e+03,1.737070e+03
2.774101e+03,1.749910e+03
2.775065e+03,1.755078e+03
2.776030e+03,1.747172e+03
2.776994e+03,1.735281e+03
2.777958e+03,1.722159e+03
2.778922e+03,1.731072e+03
2.779887e+03,1.750912e+03
2.780851e+03,1.746354e+03
2.781815e+03,1.732194e+03
2.782779e+03,1.721695e+03
2.783744e+03,1.714009e+03
2.784708e+03,1.705176e+03
2.785672e+03,1.708638e+03
2.786636e+03,1.722592e+03
2.787601e+03,1.727646e+03
2.788565e+03,1.725597e+03
2.789529e+03,1.715560e+03
2.790493e+03,1.706251e+03
2.791458e+03,1.703528e+03
2.792422e+03,1.701784e+03
2.793386e+03,1.701084e+03
2.794350e+03,1.718365e+03
2.795314e+03,1.755816e+03
2.796279e+03,1.751654e+03
2.797243e+03,1.721124e+03
2.798207e+03,1.688665e+03
2.799171e+03,1.671725e+03
2.800135e+03,1.706790e+03
2.801100e+03,1.726772e+03
2.802064e+03,1.716510e+03
2.803028e+03,1.711569e+03
2.803992e+03,1.713097e+03
2.804957e+03,1.705089e+03
2.805921e+03,1.696503e+03
2.806885e+03,1.710485e+03
2.807849e+03,1.715917e+03
2.808814e+03,1.697332e+03
2.809778e+03,1.686084e+03
2.810742e+03,1.701891e+03
2.811706e+03,1.703084e+03
2.812671e+03,1.691787e+03
2.813635e+03,1.685120e+03
2.814599e+03,1.682875e+03
2.815563e+03,1.686962e+03
2.816528e+03,1.693379e+03
2.817492e+03,1.702119e+03
2.818456e+03,1.705384e+03
2.819420e+03,1.701371e+03
2.820385e+03,1.691849e+03
2.821349e+03,1.680821e+03
2.822313e+03,1.674432e+03
2.823277e+03,1.668410e+03
2.824241e+03,1.657169e+03
2.825206e+03,1.650622e+03
2.826170e+03,1.658765e+03
2.827134e+03,1.654850e+03
2.828098e+03,1.640104e+03
2.829063e+03,1.662131e+03
2.830027e+03,1.692168e+03
2.830991e+03,1.654159e+03
2.831955e+03,1.621222e+03
2.832919e+03,1.660361e+03
2.833884e+03,1.691842e+03
2.834848e+03,1.701790e+03
2.835812e+03,1.686069e+03
2.836776e+03,1.653476e+03
2.837741e+03,1.646802e+03
2.838705e+03,1.659537e+03
2.839669e+03,1.688156e+03
2.840633e+03,1.703385e+03
2.841598e+03,1.689387e+03
2.842562e+03,1.672489e+03
2.843526e+03,1.660519e+03
2.844490e+03,1.660150e+03
2.845455e+03,1.663769e+03
2.846419e+03,1.659071e+03
2.847383e+03,1.655528e+03
2.848347e+03,1.670851e+03
2.849312e+03,1.670977e+03
2.850276e+03,1.650471e+03
2.851240e+03,1.644010e+03
2.852204e+03,1.649596e+03
2.853168e+03,1.651265e+03
2.854133e+03,1.648407e+03
2.855097e+03,1.632881e+03
2.856061e+03,1.638743e+03
2.857025e+03,1.672305e+03
2.857990e+03,1.675293e+03
2.858954e+03,1.629781e+03
2.859918e+03,1.650379e+03
2.860882e+03,1.691494e+03
2.861846e+03,1.673167e+03
2.862811e+03,1.650115e+03
2.863775e+03,1.682109e+03
2.864739e+03,1.689293e+03
2.865703e+03,1.649414e+03
2.866668e+03,1.635516e+03
2.867632e+03,1.642948e+03
2.868596e+03,1.655860e+03
2.869560e+03,1.664872e+03
2.870525e+03,1.659471e+03
2.871489e+03,1.652755e+03
2.872453e+03,1.647280e+03
2.873417e+03,1.646248e+03
2.874382e+03,1.648228e+03
2.875346e+03,1.655638e+03
2.876310e+03,1.663428e+03
2.877274e+03,1.658363e+03
2.878239e+03,1.654612e+03
2.879203e+03,1.656660e+03
2.880167e+03,1.651320e+03
2.881131e+03,1.636103e+03
2.882095e+03,1.639932e+03
2.883060e+03,1.652245e+03
2.884024e+03,1.653901e+03
2.884988e+03,1.651895e+03
2.885952e+03,1.652080e+03
2.886917e+03,1.651265e+03
2.887881e+03,1.650011e+03
2.888845e+03,1.641363e+03
2.889809e+03,1.629931e+03
2.890773e+03,1.623420e+03
2.891738e+03,1.619243e+03
2.892702e+03,1.622548e+03
2.893666e+03,1.617332e+03
2.894630e+03,1.602052e+03
2.895595e+03,1.607321e+03
2.896559e+03,1.627870e+03
2.897523e+03,1.642812e+03
2.898487e+03,1.647572e+03
2.899452e+03,1.627738e+03
2.900416e+03,1.617059e+03
2.901380e+03,1.621517e+03
2.902344e+03,1.625776e+03
2.903309e+03,1.626623e+03
2.904273e+03,1.627554e+03
2.905237e+03,1.624656e+03
2.906201e+03,1.610445e+03
2.907166e+03,1.608751e+03
2.908130e+03,1.629899e+03
2.909094e+03,1.633154e+03
2.910058e+03,1.614339e+03
2.911022e+03,1.618555e+03
2.911987e+03,1.630199e+03
2.912951e+03,1.629530e+03
2.913915e+03,1.627771e+03
2.914879e+03,1.635056e+03
2.915844e+03,1.628222e+03
2.916808e+03,1.608387e+03
2.917772e+03,1.593241e+03
2.918736e+03,1.587386e+03
2.919700e+03,1.599411e+03
2.920665e+03,1.609946e+03
2.921629e+03,1.603216e+03
2.922593e+03,1.602830e+03
2.923557e+03,1.606670e+03
2.924522e+03,1.590811e+03
2.925486e+03,1.568485e+03
2.926450e+03,1.572625e+03
2.927414e+03,1.581823e+03
2.928379e+03,1.589309e+03
2.929343e+03,1.583035e+03
2.930307e+03,1.566171e+03
2.931271e+03,1.559966e+03
2.932236e+03,1.562779e+03
2.933200e+03,1.572813e+03
2.934164e+03,1.581502e+03
2.935128e+03,1.584077e+03
2.936093e+03,1.579049e+03
2.937057e+03,1.569817e+03
2.938021e+03,1.561918e+03
2.938985e+03,1.557531e+03
2.939949e+03,1.556947e+03
2.940914e+03,1.559170e+03
2.941878e+03,1.564081e+03
2.942842e+03,1.569335e+03
2.943806e+03,1.571324e+03
2.944771e+03,1.558025e+03
2.945735e+03,1.543004e+03
2.946699e+03,1.547102e+03
2.947663e+03,1.546766e+03
2.948627e+03,1.532297e+03
2.949592e+03,1.535713e+03
2.950556e+03,1.561197e+03
2.951520e+03,1.572932e+03
2.952484e+03,1.573023e+03
2.953449e+03,1.565692e+03
2.954413e+03,1.562849e+03
2.955377e+03,1.571028e+03
2.956341e+03,1.581341e+03
2.957306e+03,1.587407e+03
2.958270e+03,1.566129e+03
2.959234e+03,1.538955e+03
2.960198e+03,1.526174e+03
2.961163e+03,1.526837e+03
2.962127e+03,1.536926e+03
2.963091e+03,1.559572e+03
2.964055e+03,1.581589e+03
2.965020e+03,1.572635e+03
2.965984e+03,1.552742e+03
2.966948e+03,1.534177e+03
2.967912e+03,1.520224e+03
2.968876e+03,1.511691e+03
2.969841e+03,1.520417e+03
2.970805e+03,1.537024e+03
2.971769e+03,1.544266e+03
2.972733e+03,1.549120e+03
2.973698e+03,1.558074e+03
2.974662e+03,1.555677e+03
2.975626e+03,1.537357e+03
2.976590e+03,1.536965e+03
2.977554e+03,1.543032e+03
2.978519e+03,1.536836e+03
2.979483e+03,1.533340e+03
2.980447e+03,1.547880e+03
2.981411e+03,1.536826e+03
2.982376e+03,1.503851e+03
2.983340e+03,1.519717e+03
2.984304e+03,1.546995e+03
2.985268e+03,1.549297e+03
2.986233e+03,1.539859e+03
2.987197e+03,1.524335e+03
2.988161e+03,1.504740e+03
2.989125e+03,1.486426e+03
2.990090e+03,1.480078e+03
2.991054e+03,1.480809e+03
2.992018e+03,1.484739e+03
2.992982e+03,1.485301e+03
2.993947e+03,1.480187e+03
2.994911e+03,1.499621e+03
2.995875e+03,1.526547e+03
2.996839e+03,1.530085e+03
2.997803e+03,1.522047e+03
2.998768e+03,1.512057e+03
2.999732e+03,1.501559e+03
3.000696e+03,1.492323e+03
3.001660e+03,1.474898e+03
3.002625e+03,1.465383e+03
3.003589e+03,1.481326e+03
3.004553e+03,1.492181e+03
3.005517e+03,1.483872e+03
3.006481e+03,1.496875e+03
3.007446e+03,1.521300e+03
3.008410e+03,1.512689e+03
3.009374e+03,1.501485e+03
3.010338e+03,1.508781e+03
3.011303e+03,1.516159e+03
3.012267e+03,1.514642e+03
3.013231e+03,1.509365e+03
3.014195e+03,1.499982e+03
3.015160e+03,1.479621e+03
3.016124e+03,1.476393e+03
3.017088e+03,1.496426e+03
3.018052e+03,1.518453e+03
3.019017e+03,1.534619e+03
3.019981e+03,1.533211e+03
3.020945e+03,1.518351e+03
3.021909e+03,1.489680e+03
3.022874e+03,1.482274e+03
3.023838e+03,1.496648e+03
3.024802e+03,1.478645e+03
3.025766e+03,1.447591e+03
3.026730e+03,1.459516e+03
3.027695e+03,1.488839e+03
3.028659e+03,1.525340e+03
3.029623e+03,1.522334e+03
3.030587e+03,1.489069e+03
3.031552e+03,1.482293e+03
3.032516e+03,1.484850e+03
3.033480e+03,1.480796e+03
3.034444e+03,1.476611e+03
3.035408e+03,1.473856e+03
3.036373e+03,1.461317e+03
3.037337e+03,1.449047e+03
3.038301e+03,1.488790e+03
3.039265e+03,1.518877e+03
3.040230e+03,1.492723e+03
3.041194e+03,1.473892e+03
3.042158e+03,1.463638e+03
3.043122e+03,1.443817e+03
3.044087e+03,1.436101e+03
3.045051e+03,1.483095e+03
3.046015e+03,1.512358e+03
3.046979e+03,1.501873e+03
3.047944e+03,1.484218e+03
3.048908e+03,1.463630e+03
3.049872e+03,1.440187e+03
3.050836e+03,1.429500e+03
3.051801e+03,1.442575e+03
3.052765e+03,1.469759e+03
3.053729e+03,1.499960e+03
3.054693e+03,1.498211e+03
3.055657e+03,1.484906e+03
3.056622e+03,1.473584e+03
3.057586e+03,1.469444e+03
3.058550e+03,1.474549e+03
3.059514e+03,1.475141e+03
3.060479e+03,1.472300e+03
3.061443e+03,1.463542e+03
3.062407e+03,1.455415e+03
3.063371e+03,1.449519e+03
3.064335e+03,1.447434e+03
3.065300e+03,1.447627e+03
3.066264e+03,1.434877e+03
3.067228e+03,1.429747e+03
3.068192e+03,1.447888e+03
3.069157e+03,1.451535e+03
3.070121e+03,1.442944e+03
3.071085e+03,1.455813e+03
3.072049e+03,1.469105e+03
3.073014e+03,1.438814e+03
3.073978e+03,1.426331e+03
3.074942e+03,1.444262e+03
3.075906e+03,1.462484e+03
3.076871e+03,1.468922e+03
3.077835e+03,1.445483e+03
3.078799e+03,1.423326e+03
3.079763e+03,1.421431e+03
3.080728e+03,1.428380e+03
3.081692e+03,1.437949e+03
3.082656e+03,1.426493e+03
3.083620e+03,1.414115e+03
3.084584e+03,1.412385e+03
3.085549e+03,1.423880e+03
3.086513e+03,1.448276e+03
3.087477e+03,1.470466e+03
3.088441e+03,1.475557e+03
3.089406e+03,1.440940e+03
3.090370e+03,1.429730e+03
3.091334e+03,1.446937e+03
3.092298e+03,1.440850e+03
3.093262e+03,1.424626e+03
3.094227e+03,1.437144e+03
3.095191e+03,1.440558e+03
3.096155e+03,1.420707e+03
3.097119e+03,1.404875e+03
3.098084e+03,1.401595e+03
3.099048e+03,1.419272e+03
3.100012e+03,1.452012e+03
3.100976e+03,1.508197e+03
3.101941e+03,1.504795e+03
3.102905e+03,1.448225e+03
3.103869e+03,1.432186e+03
3.104833e+03,1.424040e+03
3.105798e+03,1.401694e+03
3.106762e+03,1.393022e+03
3.107726e+03,1.404312e+03
3.108690e+03,1.428461e+03
3.109655e+03,1.445529e+03
3.110619e+03,1.426020e+03
3.111583e+03,1.410856e+03
3.112547e+03,1.406596e+03
3.113511e+03,1.393252e+03
3.114476e+03,1.382819e+03
3.115440e+03,1.416593e+03
3.116404e+03,1.443926e+03
3.117368e+03,1.448715e+03
3.118333e+03,1.432529e+03
3.119297e+03,1.412080e+03
3.120261e+03,1.415040e+03
3.121225e+03,1.417992e+03
3.122189e+03,1.406714e+03
3.123154e+03,1.403249e+03
3.124118e+03,1.404495e+03
3.125082e+03,1.388920e+03
3.126046e+03,1.390906e+03
3.127011e+03,1.424917e+03
3.127975e+03,1.434679e+03
3.128939e+03,1.421617e+03
3.129903e+03,1.415586e+03
3.130868e+03,1.418596e+03
3.131832e+03,1.441506e+03
3.132796e+03,1.446385e+03
3.133760e+03,1.434926e+03
3.134725e+03,1.429237e+03
3.135689e+03,1.435429e+03
3.136653e+03,1.459039e+03
3.137617e+03,1.471974e+03
3.138582e+03,1.466420e+03
3.139546e+03,1.450162e+03
3.140510e+03,1.437977e+03
3.141474e+03,1.454974e+03
3.142438e+03,1.444883e+03
3.143403e+03,1.406065e+03
3.144367e+03,1.394453e+03
3.145331e+03,1.397823e+03
3.146295e+03,1.397312e+03
3.147260e+03,1.393601e+03
3.148224e+03,1.385193e+03
3.149188e+03,1.403325e+03
3.150152e+03,1.422768e+03
3.151116e+03,1.407758e+03
3.152081e+03,1.401524e+03
3.153045e+03,1.420232e+03
3.154009e+03,1.421766e+03
3.154973e+03,1.410316e+03
3.155938e+03,1.391534e+03
3.156902e+03,1.377065e+03
3.157866e+03,1.368842e+03
3.158830e+03,1.385910e+03
3.159795e+03,1.416845e+03
3.160759e+03,1.429359e+03
3.161723e+03,1.429042e+03
3.162687e+03,1.412832e+03
3.163652e+03,1.395935e+03
3.164616e+03,1.390893e+03
3.165580e+03,1.418565e+03
3.166544e+03,1.436054e+03
3.167509e+03,1.428142e+03
3.168473e+03,1.414996e+03
3.169437e+03,1.399603e+03
3.170401e+03,1.365630e+03
3.171365e+03,1.359646e+03
3.172330e+03,1.404809e+03
3.173294e+03,1.449766e+03
3.174258e+03,1.473616e+03
3.175222e+03,1.441530e+03
3.176187e+03,1.415198e+03
3.177151e+03,1.438718e+03
3.178115e+03,1.441094e+03
3.179079e+03,1.424183e+03
3.180043e+03,1.404890e+03
3.181008e+03,1.397677e+03
3.181972e+03,1.407770e+03
3.182936e+03,1.418832e+03
3.183900e+03,1.429684e+03
3.184865e+03,1.461804e+03
3.185829e+03,1.469611e+03
3.186793e+03,1.402120e+03
3.187757e+03,1.374502e+03
3.188722e+03,1.381199e+03
3.189686e+03,1.404195e+03
3.190650e+03,1.421760e+03
3.191614e+03,1.425418e+03
3.192579e+03,1.419305e+03
3.193543e+03,1.409722e+03
3.194507e+03,1.414692e+03
3.195471e+03,1.414746e+03
3.196436e+03,1.399057e+03
3.197400e+03,1.399020e+03
3.198364e+03,1.407367e+03
3.199328e+03,1.411826e+03
3.200292e+03,1.410458e+03
3.201257e+03,0.000000e+00
3.202221e+03,0.000000e+00
3.203185e+03,0.000000e+00
3.204149e+03,0.000000e+00
3.205114e+03,0.000000e+00
3.206078e+03,0.000000e+00
3.207042e+03,0.000000e+00
3.208006e+03,0.000000e+00
3.208970e+03,0.000000e+00
3.209935e+03,0.000000e+00
3.210899e+03,0.000000e+00
3.211863e+03,0.000000e+00
3.212827e+03,0.000000e+00
3.213792e+03,0.000000e+00
3.214756e+03,0.000000e+00
3.215720e+03,0.000000e+00
3.216684e+03,0.000000e+00
3.217649e+03,0.000000e+00
3.218613e+03,0.000000e+00
3.219577e+03,0.000000e+00
3.220541e+03,0.000000e+00
3.221506e+03,0.000000e+00
3.222470e+03,0.000000e+00
3.223434e+03,0.000000e+00
3.224398e+03,0.000000e+00
3.225363e+03,0.000000e+00
3.226327e+03,0.000000e+00
3.227291e+03,0.000000e+00
3.228255e+03,0.000000e+00
3.229219e+03,0.000000e+00
3.230184e+03,0.000000e+00
3.231148e+03,0.000000e+00
3.232112e+03,0.000000e+00
3.233076e+03,0.000000e+00
3.234041e+03,0.000000e+00
3.235005e+03,0.000000e+00
3.235969e+03,0.000000e+00
3.236933e+03,0.000000e+00
3.237897e+03,0.000000e+00
3.238862e+03,0.000000e+00
3.239826e+03,0.000000e+00
3.240790e+03,0.000000e+00
3.241754e+03,0.000000e+00
3.242719e+03,0.000000e+00
3.243683e+03,0.000000e+00
3.244647e+03,0.000000e+00
3.245611e+03,0.000000e+00
3.246576e+03,0.000000e+00
3.247540e+03,0.000000e+00
3.248504e+03,0.000000e+00
3.249468e+03,0.000000e+00
3.250433e+03,0.000000e+00
3.251397e+03,0.000000e+00
3.252361e+03,0.000000e+00
3.253325e+03,0.000000e+00
3.254290e+03,0.000000e+00
3.255254e+03,0.000000e+00
3.256218e+03,0.000000e+00
3.257182e+03,0.000000e+00
3.258146e+03,0.000000e+00
3.259111e+03,0.000000e+00
3.260075e+03,0.000000e+00
3.261039e+03,0.000000e+00
3.262003e+03,0.000000e+00
3.262968e+03,0.000000e+00
3.263932e+03,0.000000e+00
3.264896e+03,0.000000e+00
3.265860e+03,0.000000e+00
3.266824e+03,0.000000e+00
3.267789e+03,0.000000e+00
3.268753e+03,0.000000e+00
3.269717e+03,0.000000e+00
3.270681e+03,0.000000e+00
3.271646e+03,0.000000e+00
3.272610e+03,0.000000e+00
3.273574e+03,0.000000e+00
3.274538e+03,0.000000e+00
3.275503e+03,0.000000e+00
3.276467e+03,0.000000e+00
3.277431e+03,0.000000e+00
3.278395e+03,0.000000e+00
3.279360e+03,0.000000e+00
3.280324e+03,0.000000e+00
3.281288e+03,0.000000e+00
3.282252e+03,0.000000e+00
3.283217e+03,0.000000e+00
3.284181e+03,0.000000e+00
3.285145e+03,0.000000e+00
3.286109e+03,0.000000e+00
3.287073e+03,0.000000e+00
3.288038e+03,0.000000e+00
3.289002e+03,0.000000e+00
3.289966e+03,0.000000e+00
3.290930e+03,0.000000e+00
3.291895e+03,0.000000e+00
3.292859e+03,0.000000e+00
3.293823e+03,0.000000e+00
3.294787e+03,0.000000e+00
3.295751e+03,0.000000e+00
3.296716e+03,0.000000e+00
3.297680e+03,0.000000e+00
3.298644e+03,0.000000e+00
3.299608e+03,0.000000e+00
3.300573e+03,0.000000e+00
3.301537e+03,0.000000e+00
3.302501e+03,0.000000e+00
3.303465e+03,0.000000e+00
3.304430e+03,0.000000e+00
3.305394e+03,0.000000e+00
3.306358e+03,0.000000e+00
3.307322e+03,0.000000e+00
3.308287e+03,0.000000e+00
3.309251e+03,0.000000e+00
3.310215e+03,0.000000e+00
3.311179e+03,0.000000e+00
3.312144e+03,0.000000e+00
3.313108e+03,0.000000e+00
3.314072e+03,0.000000e+00
3.315036e+03,0.000000e+00
3.316000e+03,0.000000e+00
3.316965e+03,0.000000e+00
3.317929e+03,0.000000e+00
3.318893e+03,0.000000e+00
3.319857e+03,0.000000e+00
3.320822e+03,0.000000e+00
3.321786e+03,0.000000e+00
3.322750e+03,0.000000e+00
3.323714e+03,0.000000e+00
3.324678e+03,0.000000e+00
3.325643e+03,0.000000e+00
3.326607e+03,0.000000e+00
3.327571e+03,0.000000e+00
3.328535e+03,0.000000e+00
3.329500e+03,0.000000e+00
3.330464e+03,0.000000e+00
3.331428e+03,0.000000e+00
3.332392e+03,0.000000e+00
3.333357e+03,0.000000e+00
3.334321e+03,0.000000e+00
3.335285e+03,0.000000e+00
3.336249e+03,0.000000e+00
3.337214e+03,0.000000e+00
3.338178e+03,0.000000e+00
3.339142e+03,0.000000e+00
3.340106e+03,0.000000e+00
3.341071e+03,0.000000e+00
3.342035e+03,0.000000e+00
3.342999e+03,0.000000e+00
3.343963e+03,0.000000e+00
3.344927e+03,0.000000e+00
3.345892e+03,0.000000e+00
3.346856e+03,0.000000e+00
3.347820e+03,0.000000e+00
3.348784e+03,0.000000e+00
3.349749e+03,0.000000e+00
3.350713e+03,0.000000e+00
3.351677e+03,0.000000e+00
3.352641e+03,0.000000e+00
3.353605e+03,0.000000e+00
3.354570e+03,0.000000e+00
3.355534e+03,0.000000e+00
3.356498e+03,0.000000e+00
3.357462e+03,0.000000e+00
3.358427e+03,0.000000e+00
3.359391e+03,0.000000e+00
3.360355e+03,0.000000e+00
3.361319e+03,0.000000e+00
3.362284e+03,0.000000e+00
3.363248e+03,0.000000e+00
3.364212e+03,0.000000e+00
3.365176e+03,0.000000e+00
3.366141e+03,0.000000e+00
3.367105e+03,0.000000e+00
3.368069e+03,0.000000e+00
3.369033e+03,0.000000e+00
3.369998e+03,0.000000e+00
3.370962e+03,0.000000e+00
3.371926e+03,0.000000e+00
3.372890e+03,0.000000e+00
3.373854e+03,0.000000e+00
3.374819e+03,0.000000e+00
3.375783e+03,0.000000e+00
3.376747e+03,0.000000e+00
3.377711e+03,0.000000e+00
3.378676e+03,0.000000e+00
3.379640e+03,0.000000e+00
3.380604e+03,0.000000e+00
3.381568e+03,0.000000e+00
3.382532e+03,0.000000e+00
3.383497e+03,0.000000e+00
3.384461e+03,0.000000e+00
3.385425e+03,0.000000e+00
3.386389e+03,0.000000e+00
3.387354e+03,0.000000e+00
3.388318e+03,0.000000e+00
3.389282e+03,0.000000e+00
3.390246e+03,0.000000e+00
3.391211e+03,0.000000e+00
3.392175e+03,0.000000e+00
3.393139e+03,0.000000e+00
3.394103e+03,0.000000e+00
3.395068e+03,0.000000e+00
3.396032e+03,0.000000e+00
3.396996e+03,0.000000e+00
3.397960e+03,0.000000e+00
3.398925e+03,0.000000e+00
3.399889e+03,0.000000e+00
3.400853e+03,0.000000e+00
3.401817e+03,0.000000e+00
3.402781e+03,0.000000e+00
3.403746e+03,0.000000e+00
3.404710e+03,0.000000e+00
3.405674e+03,0.000000e+00
3.406638e+03,0.000000e+00
3.407603e+03,0.000000e+00
3.408567e+03,0.000000e+00
3.409531e+03,0.000000e+00
3.410495e+03,0.000000e+00
3.411459e+03,0.000000e+00
3.412424e+03,0.000000e+00
3.413388e+03,0.000000e+00
3.414352e+03,0.000000e+00
3.415316e+03,0.000000e+00
3.416281e+03,0.000000e+00
3.417245e+03,0.000000e+00
3.418209e+03,0.000000e+00
3.419173e+03,0.000000e+00
3.420138e+03,0.000000e+00
3.421102e+03,0.000000e+00
3.422066e+03,0.000000e+00
3.423030e+03,0.000000e+00
3.423995e+03,0.000000e+00
3.424959e+03,0.000000e+00
3.425923e+03,0.000000e+00
3.426887e+03,0.000000e+00
3.427852e+03,0.000000e+00
3.428816e+03,0.000000e+00
3.429780e+03,0.000000e+00
3.430744e+03,0.000000e+00
3.431708e+03,0.000000e+00
3.432673e+03,0.000000e+00
3.433637e+03,0.000000e+00
3.434601e+03,0.000000e+00
3.435565e+03,0.000000e+00
3.436530e+03,0.000000e+00
3.437494e+03,0.000000e+00
3.438458e+03,0.000000e+00
3.439422e+03,0.000000e+00
3.440386e+03,0.000000e+00
3.441351e+03,0.000000e+00
3.442315e+03,0.000000e+00
3.443279e+03,0.000000e+00
3.444243e+03,0.000000e+00
3.445208e+03,0.000000e+00
3.446172e+03,0.000000e+00
3.447136e+03,0.000000e+00
3.448100e+03,0.000000e+00
3.449065e+03,0.000000e+00
3.450029e+03,0.000000e+00
3.450993e+03,0.000000e+00
3.451957e+03,0.000000e+00
3.452922e+03,0.000000e+00
3.453886e+03,0.000000e+00
3.454850e+03,0.000000e+00
3.455814e+03,0.000000e+00
3.456779e+03,0.000000e+00
3.457743e+03,0.000000e+00
3.458707e+03,0.000000e+00
3.459671e+03,0.000000e+00
3.460635e+03,0.000000e+00
3.461600e+03,0.000000e+00
3.462564e+03,0.000000e+00
3.463528e+03,0.000000e+00
3.464492e+03,0.000000e+00
3.465457e+03,0.000000e+00
3.466421e+03,0.000000e+00
3.467385e+03,0.000000e+00
3.468349e+03,0.000000e+00
3.469313e+03,0.000000e+00
3.470278e+03,0.000000e+00
3.471242e+03,0.000000e+00
3.472206e+03,0.000000e+00
3.473170e+03,0.000000e+00
3.474135e+03,0.000000e+00
3.475099e+03,0.000000e+00
3.476063e+03,0.000000e+00
3.477027e+03,0.000000e+00
3.477992e+03,0.000000e+00
3.478956e+03,0.000000e+00
3.479920e+03,0.000000e+00
3.480884e+03,0.000000e+00
3.481849e+03,0.000000e+00
3.482813e+03,0.000000e+00
3.483777e+03,0.000000e+00
3.484741e+03,0.000000e+00
3.485706e+03,0.000000e+00
3.486670e+03,0.000000e+00
3.487634e+03,0.000000e+00
3.488598e+03,0.000000e+00
3.489563e+03,0.000000e+00
3.490527e+03,0.000000e+00
3.491491e+03,0.000000e+00
3.492455e+03,0.000000e+00
3.493419e+03,0.000000e+00
3.494384e+03,0.000000e+00
3.495348e+03,0.000000e+00
3.496312e+03,0.000000e+00
3.497276e+03,0.000000e+00
3.498240e+03,0.000000e+00
3.499205e+03,0.000000e+00
3.500169e+03,0.000000e+00
