9.931763e+01,0.000000e+00
1.002819e+02,0.000000e+00
1.012461e+02,0.000000e+00
1.022103e+02,0.000000e+00
1.031746e+02,0.000000e+00
1.041388e+02,0.000000e+00
1.051030e+02,0.000000e+00
1.060673e+02,0.000000e+00
1.070315e+02,0.000000e+00
1.079957e+02,0.000000e+00
1.089600e+02,0.000000e+00
1.099242e+02,0.000000e+00
1.108884e+02,0.000000e+00
1.118527e+02,0.000000e+00
1.128169e+02,0.000000e+00
1.137811e+02,0.000000e+00
1.147454e+02,0.000000e+00
1.157096e+02,0.000000e+00
1.166738e+02,0.000000e+00
1.176381e+02,0.000000e+00
1.186023e+02,0.000000e+00
1.195665e+02,0.000000e+00
1.205308e+02,0.000000e+00
1.214950e+02,0.000000e+00
1.224592e+02,0.000000e+00
1.234235e+02,0.000000e+00
1.243877e+02,0.000000e+00
1.253519e+02,0.000000e+00
1.263162e+02,0.000000e+00
1.272804e+02,0.000000e+00
1.282446e+02,0.000000e+00
1.292089e+02,0.000000e+00
1.301731e+02,0.000000e+00
1.311373e+02,0.000000e+00
1.321016e+02,0.000000e+00
1.330658e+02,0.000000e+00
1.340300e+02,0.000000e+00
1.349943e+02,0.000000e+00
1.359585e+02,0.000000e+00
1.369227e+02,0.000000e+00
1.378870e+02,0.000000e+00
1.388512e+02,0.000000e+00
1.398154e+02,0.000000e+00
1.407797e+02,0.000000e+00
1.417439e+02,0.000000e+00
1.427081e+02,0.000000e+00
1.436724e+02,0.000000e+00
1.446366e+02,0.000000e+00
1.456008e+02,0.000000e+00
1.465651e+02,0.000000e+00
1.475293e+02,0.000000e+00
1.484935e+02,0.000000e+00
1.494578e+02,0.000000e+00
1.504220e+02,0.000000e+00
1.513862e+02,0.000000e+00
1.523505e+02,0.000000e+00
1.533147e+02,0.000000e+00
1.542789e+02,0.000000e+00
1.552432e+02,0.000000e+00
1.562074e+02,0.000000e+00
1.571716e+02,0.000000e+00
1.581359e+02,0.000000e+00
1.591001e+02,0.000000e+00
1.600643e+02,0.000000e+00
1.610286e+02,0.000000e+00
1.619928e+02,0.000000e+00
1.629570e+02,0.000000e+00
1.639213e+02,0.000000e+00
1.648855e+02,0.000000e+00
1.658497e+02,0.000000e+00
1.668140e+02,0.000000e+00
1.677782e+02,0.000000e+00
1.687424e+02,0.000000e+00
1.697067e+02,0.000000e+00
1.706709e+02,0.000000e+00
1.716351e+02,0.000000e+00
1.725994e+02,0.000000e+00
1.735636e+02,0.000000e+00
1.745278e+02,0.000000e+00
1.754921e+02,0.000000e+00
1.764563e+02,0.000000e+00
1.774205e+02,0.000000e+00
1.783848e+02,0.000000e+00
1.793490e+02,0.000000e+00
1.803132e+02,0.000000e+00
1.812775e+02,0.000000e+00
1.822417e+02,0.000000e+00
1.832059e+02,0.000000e+00
1.841702e+02,0.000000e+00
1.851344e+02,0.000000e+00
1.860986e+02,0.000000e+00
1.870629e+02,0.000000e+00
1.880271e+02,0.000000e+00
1.889913e+02,0.000000e+00
1.899556e+02,0.000000e+00
1.909198e+02,0.000000e+00
1.918840e+02,0.000000e+00
1.928483e+02,0.000000e+00
1.938125e+02,0.000000e+00
1.947767e+02,0.000000e+00
1.957410e+02,0.000000e+00
1.967052e+02,0.000000e+00
1.976694e+02,0.000000e+00
1.986337e+02,0.000000e+00
1.995979e+02,2.838055e+03
2.005621e+02,2.847753e+03
2.015264e+02,2.854422e+03
2.024906e+02,2.853379e+03
2.034548e+02,2.853036e+03
2.044191e+02,2.855090e+03
2.053833e+02,2.858840e+03
2.063475e+02,2.862564e+03
2.073118e+02,2.864848e+03
2.082760e+02,2.865485e+03
2.092402e+02,2.865228e+03
2.102045e+02,2.863766e+03
2.111687e+02,2.863552e+03
2.121329e+02,2.866568e+03
2.130972e+02,2.873871e+03
2.140614e+02,2.882654e+03
2.150256e+02,2.886462e+03
2.159899e+02,2.881539e+03
2.169541e+02,2.877631e+03
2.179183e+02,2.879710e+03
2.188826e+02,2.886352e+03
2.198468e+02,2.893333e+03
2.208110e+02,2.898067e+03
2.217753e+02,2.900186e+03
2.227395e+02,2.899443e+03
2.237037e+02,2.894847e+03
2.246680e+02,2.889750e+03
2.256322e+02,2.886638e+03
2.265964e+02,2.887419e+03
2.275607e+02,2.890516e+03
2.285249e+02,2.893893e+03
2.294892e+02,2.897437e+03
2.304534e+02,2.902226e+03
2.314176e+02,2.908454e+03
2.323819e+02,2.915210e+03
2.333461e+02,2.920804e+03
2.343103e+02,2.925878e+03
2.352746e+02,2.930061e+03
2.362388e+02,2.931453e+03
2.372030e+02,2.928151e+03
2.381673e+02,2.921591e+03
2.391315e+02,2.916472e+03
2.400957e+02,2.914460e+03
2.410600e+02,2.914142e+03
2.420242e+02,2.916687e+03
2.429884e+02,2.922024e+03
2.439527e+02,2.927814e+03
2.449169e+02,2.931582e+03
2.458811e+02,2.932457e+03
2.468454e+02,2.933306e+03
2.478096e+02,2.933031e+03
2.487738e+02,2.933488e+03
2.497381e+02,2.936414e+03
2.507023e+02,2.942094e+03
2.516665e+02,2.948992e+03
2.526308e+02,2.954496e+03
2.535950e+02,2.958100e+03
2.545592e+02,2.957903e+03
2.555235e+02,2.951539e+03
2.564877e+02,2.942823e+03
2.574519e+02,2.936536e+03
2.584161e+02,2.935931e+03
2.593804e+02,2.940939e+03
2.603446e+02,2.946319e+03
2.613088e+02,2.951771e+03
2.622731e+02,2.956126e+03
2.632373e+02,2.958422e+03
2.642015e+02,2.958282e+03
2.651658e+02,2.956873e+03
2.661300e+02,2.956083e+03
2.670942e+02,2.956935e+03
2.680585e+02,2.958269e+03
2.690227e+02,2.961059e+03
2.699869e+02,2.963532e+03
2.709512e+02,2.963833e+03
2.719154e+02,2.961305e+03
2.728796e+02,2.958624e+03
2.738439e+02,2.959719e+03
2.748081e+02,2.966118e+03
2.757723e+02,2.974433e+03
2.767366e+02,2.980954e+03
2.777008e+02,2.984702e+03
2.786650e+02,2.986030e+03
2.796293e+02,2.984147e+03
2.805935e+02,2.981325e+03
2.815577e+02,2.980911e+03
2.825220e+02,2.983643e+03
2.834862e+02,2.987530e+03
2.844504e+02,2.989645e+03
2.854147e+02,2.990329e+03
2.863789e+02,2.990583e+03
2.873431e+02,2.991465e+03
2.883074e+02,2.993181e+03
2.892716e+02,2.995062e+03
2.902358e+02,2.996134e+03
2.912001e+02,2.996011e+03
2.921643e+02,2.995415e+03
2.931285e+02,2.992914e+03
2.940928e+02,2.992401e+03
2.950570e+02,2.996650e+03
2.960212e+02,3.004511e+03
2.969855e+02,3.011860e+03
2.979497e+02,3.013661e+03
2.989139e+02,3.006307e+03
2.998782e+02,3.004189e+03
3.008424e+02,3.015710e+03
3.018066e+02,3.029784e+03
3.027709e+02,3.036528e+03
3.037351e+02,3.030789e+03
3.046993e+02,3.018492e+03
3.056636e+02,3.010856e+03
3.066278e+02,3.009204e+03
3.075920e+02,3.010875e+03
3.085563e+02,3.016887e+03
3.095205e+02,3.026041e+03
3.104847e+02,3.034126e+03
3.114490e+02,3.037954e+03
3.124132e+02,3.038429e+03
3.133774e+02,3.037835e+03
3.143417e+02,3.035816e+03
3.153059e+02,3.032960e+03
3.162701e+02,3.031597e+03
3.172344e+02,3.033660e+03
3.181986e+02,3.034843e+03
3.191628e+02,3.032171e+03
3.201271e+02,3.027998e+03
3.210913e+02,3.026913e+03
3.220555e+02,3.031241e+03
3.230198e+02,3.039708e+03
3.239840e+02,3.045185e+03
3.249482e+02,3.045419e+03
3.259125e+02,3.044774e+03
3.268767e+02,3.043705e+03
3.278409e+02,3.042843e+03
3.288052e+02,3.043240e+03
3.297694e+02,3.046244e+03
3.307336e+02,3.052552e+03
3.316979e+02,3.057254e+03
3.326621e+02,3.059323e+03
3.336263e+02,3.059739e+03
3.345906e+02,3.059458e+03
3.355548e+02,3.059615e+03
3.365190e+02,3.059656e+03
3.374833e+02,3.057473e+03
3.384475e+02,3.052350e+03
3.394117e+02,3.049045e+03
3.403760e+02,3.048405e+03
3.413402e+02,3.049963e+03
3.423044e+02,3.053171e+03
3.432687e+02,3.059604e+03
3.442329e+02,3.066422e+03
3.451971e+02,3.070226e+03
3.461614e+02,3.070144e+03
3.471256e+02,3.068133e+03
3.480898e+02,3.067172e+03
3.490541e+02,3.069245e+03
3.500183e+02,3.068877e+03
3.509825e+02,3.063101e+03
3.519468e+02,3.057992e+03
3.529110e+02,3.058623e+03
3.538752e+02,3.065616e+03
3.548395e+02,3.074890e+03
3.558037e+02,3.080426e+03
3.567680e+02,3.081847e+03
3.577322e+02,3.079792e+03
3.586964e+02,3.071694e+03
3.596607e+02,3.062772e+03
3.606249e+02,3.058130e+03
3.615891e+02,3.060151e+03
3.625534e+02,3.065330e+03
3.635176e+02,3.067702e+03
3.644818e+02,3.067579e+03
3.654461e+02,3.067032e+03
3.664103e+02,3.068366e+03
3.673745e+02,3.072659e+03
3.683388e+02,3.078537e+03
3.693030e+02,3.084919e+03
3.702672e+02,3.090644e+03
3.712315e+02,3.094419e+03
3.721957e+02,3.095531e+03
3.731599e+02,3.095024e+03
3.741242e+02,3.095574e+03
3.750884e+02,3.100250e+03
3.760526e+02,3.105459e+03
3.770169e+02,3.112222e+03
3.779811e+02,3.118323e+03
3.789453e+02,3.120976e+03
3.799096e+02,3.118524e+03
3.808738e+02,3.111498e+03
3.818380e+02,3.102281e+03
3.828023e+02,3.087931e+03
3.837665e+02,3.078449e+03
3.847307e+02,3.078922e+03
3.856950e+02,3.085877e+03
3.866592e+02,3.091064e+03
3.876234e+02,3.086883e+03
3.885877e+02,3.076947e+03
3.895519e+02,3.072333e+03
3.905161e+02,3.074559e+03
3.914804e+02,3.079733e+03
3.924446e+02,3.085179e+03
3.934088e+02,3.092713e+03
3.943731e+02,3.097187e+03
3.953373e+02,3.095582e+03
3.963015e+02,3.090229e+03
3.972658e+02,3.083702e+03
3.982300e+02,3.076981e+03
3.991942e+02,3.072087e+03
4.001585e+02,3.072219e+03
4.011227e+02,3.081201e+03
4.020869e+02,3.088841e+03
4.030512e+02,3.092407e+03
4.040154e+02,3.092763e+03
4.049796e+02,3.092327e+03
4.059439e+02,3.092519e+03
4.069081e+02,3.092857e+03
4.078723e+02,3.091016e+03
4.088366e+02,3.083635e+03
4.098008e+02,3.077753e+03
4.107650e+02,3.082145e+03
4.117293e+02,3.096145e+03
4.126935e+02,3.106757e+03
4.136577e+02,3.108164e+03
4.146220e+02,3.103836e+03
4.155862e+02,3.097942e+03
4.165504e+02,3.091177e+03
4.175147e+02,3.085154e+03
4.184789e+02,3.082300e+03
4.194431e+02,3.086710e+03
4.204074e+02,3.089217e+03
4.213716e+02,3.087458e+03
4.223358e+02,3.084475e+03
4.233001e+02,3.083694e+03
4.242643e+02,3.087133e+03
4.252285e+02,3.093332e+03
4.261928e+02,3.098726e+03
4.271570e+02,3.103675e+03
4.281212e+02,3.107662e+03
4.290855e+02,3.109337e+03
4.300497e+02,3.109188e+03
4.310139e+02,3.108774e+03
4.319782e+02,3.108944e+03
4.329424e+02,3.109677e+03
4.339066e+02,3.110586e+03
4.348709e+02,3.111263e+03
4.358351e+02,3.111313e+03
4.367993e+02,3.110440e+03
4.377636e+02,3.108286e+03
4.387278e+02,3.106697e+03
4.396920e+02,3.106884e+03
4.406563e+02,3.107616e+03
4.416205e+02,3.107556e+03
4.425847e+02,3.106224e+03
4.435490e+02,3.104397e+03
4.445132e+02,3.103106e+03
4.454774e+02,3.102566e+03
4.464417e+02,3.104032e+03
4.474059e+02,3.109891e+03
4.483701e+02,3.116093e+03
4.493344e+02,3.118052e+03
4.502986e+02,3.111249e+03
4.512628e+02,3.104933e+03
4.522271e+02,3.107557e+03
4.531913e+02,3.117150e+03
4.541555e+02,3.124642e+03
4.551198e+02,3.124069e+03
4.560840e+02,3.115549e+03
4.570482e+02,3.108364e+03
4.580125e+02,3.104612e+03
4.589767e+02,3.102794e+03
4.599409e+02,3.101067e+03
4.609052e+02,3.098875e+03
4.618694e+02,3.097364e+03
4.628336e+02,3.099957e+03
4.637979e+02,3.105977e+03
4.647621e+02,3.106131e+03
4.657263e+02,3.097469e+03
4.666906e+02,3.087754e+03
4.676548e+02,3.083625e+03
4.686190e+02,3.085693e+03
4.695833e+02,3.088250e+03
4.705475e+02,3.088808e+03
4.715117e+02,3.088514e+03
4.724760e+02,3.090076e+03
4.734402e+02,3.094851e+03
4.744044e+02,3.100543e+03
4.753687e+02,3.100953e+03
4.763329e+02,3.089893e+03
4.772971e+02,3.083308e+03
4.782614e+02,3.086753e+03
4.792256e+02,3.094901e+03
4.801898e+02,3.100842e+03
4.811541e+02,3.100656e+03
4.821183e+02,3.096968e+03
4.830826e+02,3.092874e+03
4.840468e+02,3.088051e+03
4.850110e+02,3.083579e+03
4.859753e+02,3.080166e+03
4.869395e+02,3.077694e+03
4.879037e+02,3.078128e+03
4.888680e+02,3.086614e+03
4.898322e+02,3.094331e+03
4.907964e+02,3.095820e+03
4.917607e+02,3.091679e+03
4.927249e+02,3.086447e+03
4.936891e+02,3.083746e+03
4.946534e+02,3.083530e+03
4.956176e+02,3.085139e+03
4.965818e+02,3.089665e+03
4.975461e+02,3.095389e+03
4.985103e+02,3.101218e+03
4.994745e+02,3.107376e+03
5.004388e+02,3.109662e+03
5.014030e+02,3.104308e+03
5.023672e+02,3.095304e+03
5.033315e+02,3.088716e+03
5.042957e+02,3.086261e+03
5.052599e+02,3.086372e+03
5.062242e+02,3.086624e+03
5.071884e+02,3.087845e+03
5.081526e+02,3.089275e+03
5.091169e+02,3.091367e+03
5.100811e+02,3.094262e+03
5.110453e+02,3.097547e+03
5.120095e+02,3.101915e+03
5.129738e+02,3.106474e+03
5.139380e+02,3.110826e+03
5.149022e+02,3.115027e+03
5.158665e+02,3.116123e+03
5.168307e+02,3.110673e+03
5.177949e+02,3.097347e+03
5.187592e+02,3.085120e+03
5.197234e+02,3.075833e+03
5.206876e+02,3.070369e+03
5.216519e+02,3.070437e+03
5.226161e+02,3.075111e+03
5.235803e+02,3.081185e+03
5.245446e+02,3.087516e+03
5.255088e+02,3.093549e+03
5.264730e+02,3.094911e+03
5.274373e+02,3.089313e+03
5.284015e+02,3.082696e+03
5.293657e+02,3.079963e+03
5.303300e+02,3.081616e+03
5.312942e+02,3.082523e+03
5.322584e+02,3.082901e+03
5.332227e+02,3.083675e+03
5.341869e+02,3.084850e+03
5.351511e+02,3.085887e+03
5.361154e+02,3.086441e+03
5.370796e+02,3.086969e+03
5.380438e+02,3.088370e+03
5.390081e+02,3.087831e+03
5.399723e+02,3.082544e+03
5.409365e+02,3.077184e+03
5.419008e+02,3.075572e+03
5.428650e+02,3.079101e+03
5.438292e+02,3.082176e+03
5.447935e+02,3.080435e+03
5.457577e+02,3.076294e+03
5.467219e+02,3.075694e+03
5.476862e+02,3.081795e+03
5.486504e+02,3.091129e+03
5.496146e+02,3.093267e+03
5.505789e+02,3.083442e+03
5.515431e+02,3.073250e+03
5.525073e+02,3.063568e+03
5.534716e+02,3.057394e+03
5.544358e+02,3.057631e+03
5.554000e+02,3.070114e+03
5.563643e+02,3.084304e+03
5.573285e+02,3.088063e+03
5.582927e+02,3.082429e+03
5.592570e+02,3.077513e+03
5.602212e+02,3.080742e+03
5.611854e+02,3.091739e+03
5.621497e+02,3.097157e+03
5.631139e+02,3.091513e+03
5.640781e+02,3.083514e+03
5.650424e+02,3.075090e+03
5.660066e+02,3.067252e+03
5.669708e+02,3.061681e+03
5.679351e+02,3.061136e+03
5.688993e+02,3.063633e+03
5.698635e+02,3.065522e+03
5.708278e+02,3.066835e+03
5.717920e+02,3.068360e+03
5.727562e+02,3.070043e+03
5.737205e+02,3.071115e+03
5.746847e+02,3.072300e+03
5.756489e+02,3.074068e+03
5.766132e+02,3.074794e+03
5.775774e+02,3.073241e+03
5.785416e+02,3.069549e+03
5.795059e+02,3.066365e+03
5.804701e+02,3.066974e+03
5.814343e+02,3.069885e+03
5.823986e+02,3.069774e+03
5.833628e+02,3.065195e+03
5.843270e+02,3.059783e+03
5.852913e+02,3.058268e+03
5.862555e+02,3.064484e+03
5.872197e+02,3.068953e+03
5.881840e+02,3.070798e+03
5.891482e+02,3.070885e+03
5.901124e+02,3.069824e+03
5.910767e+02,3.067671e+03
5.920409e+02,3.065150e+03
5.930051e+02,3.061594e+03
5.939694e+02,3.057352e+03
5.949336e+02,3.056598e+03
5.958978e+02,3.061923e+03
5.968621e+02,3.069777e+03
5.978263e+02,3.072157e+03
5.987905e+02,3.060525e+03
5.997548e+02,3.054438e+03
6.007190e+02,3.060424e+03
6.016832e+02,3.071566e+03
6.026475e+02,3.079096e+03
6.036117e+02,3.077984e+03
6.045759e+02,3.073203e+03
6.055402e+02,3.069317e+03
6.065044e+02,3.066075e+03
6.074686e+02,3.065749e+03
6.084329e+02,3.071531e+03
6.093971e+02,3.081240e+03
6.103613e+02,3.082549e+03
6.113256e+02,3.064671e+03
6.122899e+02,3.050049e+03
6.132541e+02,3.043263e+03
6.142183e+02,3.042138e+03
6.151826e+02,3.042984e+03
6.161468e+02,3.047216e+03
6.171110e+02,3.051942e+03
6.180753e+02,3.051799e+03
6.190395e+02,3.047064e+03
6.200037e+02,3.043090e+03
6.209680e+02,3.043320e+03
6.219322e+02,3.047870e+03
6.228964e+02,3.050390e+03
6.238607e+02,3.047302e+03
6.248249e+02,3.045446e+03
6.257891e+02,3.047290e+03
6.267534e+02,3.050844e+03
6.277176e+02,3.052199e+03
6.286818e+02,3.048931e+03
6.296461e+02,3.044800e+03
6.306103e+02,3.043954e+03
6.315745e+02,3.046402e+03
6.325388e+02,3.049487e+03
6.335030e+02,3.050567e+03
6.344672e+02,3.049082e+03
6.354315e+02,3.048260e+03
6.363957e+02,3.047282e+03
6.373599e+02,3.046445e+03
6.383242e+02,3.046766e+03
6.392884e+02,3.048518e+03
6.402526e+02,3.050613e+03
6.412169e+02,3.054274e+03
6.421811e+02,3.056950e+03
6.431453e+02,3.055687e+03
6.441096e+02,3.050612e+03
6.450738e+02,3.044368e+03
6.460380e+02,3.039336e+03
6.470023e+02,3.036156e+03
6.479665e+02,3.035706e+03
6.489307e+02,3.038727e+03
6.498950e+02,3.041734e+03
6.508592e+02,3.040681e+03
6.518234e+02,3.034578e+03
6.527877e+02,3.031082e+03
6.537519e+02,3.033194e+03
6.547161e+02,3.037445e+03
6.556804e+02,3.042896e+03
6.566446e+02,3.048883e+03
6.576088e+02,3.052368e+03
6.585731e+02,3.048926e+03
6.595373e+02,3.039794e+03
6.605015e+02,3.032193e+03
6.614658e+02,3.026686e+03
6.624300e+02,3.023162e+03
6.633942e+02,3.021497e+03
6.643585e+02,3.021565e+03
6.653227e+02,3.023618e+03
6.662869e+02,3.028989e+03
6.672512e+02,3.034375e+03
6.682154e+02,3.038120e+03
6.691796e+02,3.039563e+03
6.701439e+02,3.038952e+03
6.711081e+02,3.035833e+03
6.720723e+02,3.031044e+03
6.730366e+02,3.026412e+03
6.740008e+02,3.022569e+03
6.749650e+02,3.019280e+03
6.759293e+02,3.015909e+03
6.768935e+02,3.011836e+03
6.778577e+02,3.010974e+03
6.788220e+02,3.018753e+03
6.797862e+02,3.027312e+03
6.807504e+02,3.029310e+03
6.817147e+02,3.022105e+03
6.826789e+02,3.016244e+03
6.836431e+02,3.017325e+03
6.846074e+02,3.019701e+03
6.855716e+02,3.016714e+03
6.865358e+02,3.007979e+03
6.875001e+02,2.999952e+03
6.884643e+02,3.002207e+03
6.894285e+02,3.014716e+03
6.903928e+02,3.019977e+03
6.913570e+02,3.012802e+03
6.923212e+02,3.002195e+03
6.932855e+02,2.998530e+03
6.942497e+02,3.007907e+03
6.952139e+02,3.014715e+03
6.961782e+02,3.018162e+03
6.971424e+02,3.018673e+03
6.981066e+02,3.014220e+03
6.990709e+02,3.003402e+03
7.000351e+02,2.992992e+03
7.009993e+02,2.990913e+03
7.019636e+02,2.994961e+03
7.029278e+02,2.998758e+03
7.038920e+02,3.000957e+03
7.048563e+02,3.001730e+03
7.058205e+02,3.002512e+03
7.067847e+02,3.005589e+03
7.077490e+02,3.004904e+03
7.087132e+02,2.998914e+03
7.096774e+02,2.992878e+03
7.106417e+02,2.988080e+03
7.116059e+02,2.983691e+03
7.125701e+02,2.981231e+03
7.135344e+02,2.980669e+03
7.144986e+02,2.983558e+03
7.154628e+02,2.993771e+03
7.164271e+02,3.010672e+03
7.173913e+02,3.024163e+03
7.183555e+02,3.021043e+03
7.193198e+02,3.004790e+03
7.202840e+02,2.994034e+03
7.212482e+02,2.992112e+03
7.222125e+02,2.993727e+03
7.231767e+02,2.992891e+03
7.241409e+02,2.987419e+03
7.251052e+02,2.983142e+03
7.260694e+02,2.978342e+03
7.270336e+02,2.975773e+03
7.279979e+02,2.979869e+03
7.289621e+02,2.991164e+03
7.299263e+02,2.998100e+03
7.308906e+02,2.989871e+03
7.318548e+02,2.977455e+03
7.328190e+02,2.974798e+03
7.337833e+02,2.982645e+03
7.347475e+02,2.990541e+03
7.357117e+02,2.987487e+03
7.366760e+02,2.975170e+03
7.376402e+02,2.965895e+03
7.386044e+02,2.960029e+03
7.395687e+02,2.958240e+03
7.405329e+02,2.961782e+03
7.414971e+02,2.973272e+03
7.424614e+02,2.977989e+03
7.434256e+02,2.970538e+03
7.443898e+02,2.964685e+03
7.453541e+02,2.966973e+03
7.463183e+02,2.975427e+03
7.472825e+02,2.981724e+03
7.482468e+02,2.982904e+03
7.492110e+02,2.980022e+03
7.501752e+02,2.973426e+03
7.511395e+02,2.965125e+03
7.521037e+02,2.959211e+03
7.530679e+02,2.959325e+03
7.540322e+02,2.963548e+03
7.549964e+02,2.962045e+03
7.559606e+02,2.953336e+03
7.569249e+02,2.946535e+03
7.578891e+02,2.948366e+03
7.588533e+02,2.959789e+03
7.598176e+02,2.967757e+03
7.607818e+02,2.966694e+03
7.617460e+02,2.963058e+03
7.627103e+02,2.959503e+03
7.636745e+02,2.957331e+03
7.646387e+02,2.956469e+03
7.656030e+02,2.958552e+03
7.665672e+02,2.960426e+03
7.675314e+02,2.956543e+03
7.684957e+02,2.947075e+03
7.694599e+02,2.937990e+03
7.704241e+02,2.935444e+03
7.713884e+02,2.937827e+03
7.723526e+02,2.937162e+03
7.733168e+02,2.933597e+03
7.742811e+02,2.932186e+03
7.752453e+02,2.933993e+03
7.762095e+02,2.937513e+03
7.771738e+02,2.939897e+03
7.781380e+02,2.937731e+03
7.791022e+02,2.936409e+03
7.800665e+02,2.940954e+03
7.810307e+02,2.947577e+03
7.819949e+02,2.949728e+03
7.829592e+02,2.943728e+03
7.839234e+02,2.937124e+03
7.848876e+02,2.930878e+03
7.858519e+02,2.926052e+03
7.868161e+02,2.925759e+03
7.877803e+02,2.932550e+03
7.887446e+02,2.940396e+03
7.897088e+02,2.940336e+03
7.906730e+02,2.934509e+03
7.916373e+02,2.931232e+03
7.926015e+02,2.931856e+03
7.935657e+02,2.932864e+03
7.945300e+02,2.930591e+03
7.954942e+02,2.924563e+03
7.964584e+02,2.919712e+03
7.974227e+02,2.919770e+03
7.983869e+02,2.924017e+03
7.993511e+02,2.928397e+03
8.003154e+02,2.932530e+03
8.012796e+02,2.932006e+03
8.022438e+02,2.923090e+03
8.032081e+02,2.913395e+03
8.041723e+02,2.909570e+03
8.051365e+02,2.912788e+03
8.061008e+02,2.917617e+03
8.070650e+02,2.919803e+03
8.080292e+02,2.919960e+03
8.089935e+02,2.920769e+03
8.099577e+02,2.923387e+03
8.109219e+02,2.926282e+03
8.118862e+02,2.927167e+03
8.128504e+02,2.926093e+03
8.138146e+02,2.925640e+03
8.147789e+02,2.926163e+03
8.157431e+02,2.924787e+03
8.167073e+02,2.919058e+03
8.176716e+02,2.908981e+03
8.186358e+02,2.903743e+03
8.196000e+02,2.906032e+03
8.205643e+02,2.910342e+03
8.215285e+02,2.915024e+03
8.224927e+02,2.919259e+03
8.234570e+02,2.919148e+03
8.244212e+02,2.908691e+03
8.253854e+02,2.898193e+03
8.263497e+02,2.893050e+03
8.273139e+02,2.892018e+03
8.282781e+02,2.892629e+03
8.292424e+02,2.896738e+03
8.302066e+02,2.902080e+03
8.311708e+02,2.904592e+03
8.321351e+02,2.904413e+03
8.330993e+02,2.901441e+03
8.340635e+02,2.893783e+03
8.350278e+02,2.884465e+03
8.359920e+02,2.885905e+03
8.369562e+02,2.901345e+03
8.379205e+02,2.910384e+03
8.388847e+02,2.903728e+03
8.398489e+02,2.888258e+03
8.408132e+02,2.881203e+03
8.417774e+02,2.890355e+03
8.427416e+02,2.895863e+03
8.437059e+02,2.893595e+03
8.446701e+02,2.888035e+03
8.456343e+02,2.884118e+03
8.465986e+02,2.882925e+03
8.475628e+02,2.881798e+03
8.485270e+02,2.878749e+03
8.494913e+02,2.875808e+03
8.504555e+02,2.876418e+03
8.514197e+02,2.881835e+03
8.523840e+02,2.886698e+03
8.533482e+02,2.884489e+03
8.543124e+02,2.878238e+03
8.552767e+02,2.873921e+03
8.562409e+02,2.872207e+03
8.572051e+02,2.871660e+03
8.581694e+02,2.871872e+03
8.591336e+02,2.873151e+03
8.600978e+02,2.874619e+03
8.610621e+02,2.876990e+03
8.620263e+02,2.878769e+03
8.629905e+02,2.877905e+03
8.639548e+02,2.873224e+03
8.649190e+02,2.867926e+03
8.658832e+02,2.863295e+03
8.668475e+02,2.859105e+03
8.678117e+02,2.853155e+03
8.687759e+02,2.846345e+03
8.697402e+02,2.845959e+03
8.707044e+02,2.859653e+03
8.716686e+02,2.869043e+03
8.726329e+02,2.865851e+03
8.735971e+02,2.856396e+03
8.745613e+02,2.851431e+03
8.755256e+02,2.860862e+03
8.764898e+02,2.870879e+03
8.774540e+02,2.869569e+03
8.784183e+02,2.861864e+03
8.793825e+02,2.856970e+03
8.803467e+02,2.858706e+03
8.813110e+02,2.862282e+03
8.822752e+02,2.861979e+03
8.832394e+02,2.859403e+03
8.842037e+02,2.858453e+03
8.851679e+02,2.859439e+03
8.861321e+02,2.860029e+03
8.870964e+02,2.856548e+03
8.880606e+02,2.848406e+03
8.890248e+02,2.844686e+03
8.899891e+02,2.848819e+03
8.909533e+02,2.854885e+03
8.919175e+02,2.856377e+03
8.928818e+02,2.851700e+03
8.938460e+02,2.849551e+03
8.948102e+02,2.851379e+03
8.957745e+02,2.852723e+03
8.967387e+02,2.851472e+03
8.977029e+02,2.847110e+03
8.986672e+02,2.841677e+03
8.996314e+02,2.833448e+03
9.005956e+02,2.829151e+03
9.015599e+02,2.835064e+03
9.025241e+02,2.846374e+03
9.034883e+02,2.851677e+03
9.044526e+02,2.841506e+03
9.054168e+02,2.827741e+03
9.063810e+02,2.816723e+03
9.073453e+02,2.810737e+03
9.083095e+02,2.812050e+03
9.092737e+02,2.823018e+03
9.102380e+02,2.834451e+03
9.112022e+02,2.835638e+03
9.121664e+02,2.829464e+03
9.131307e+02,2.823802e+03
9.140949e+02,2.821885e+03
9.150591e+02,2.822133e+03
9.160234e+02,2.819321e+03
9.169876e+02,2.812705e+03
9.179518e+02,2.809455e+03
9.189161e+02,2.811242e+03
9.198803e+02,2.813419e+03
9.208445e+02,2.811559e+03
9.218088e+02,2.805878e+03
9.227730e+02,2.802602e+03
9.237372e+02,2.801828e+03
9.247015e+02,2.801204e+03
9.256657e+02,2.798729e+03
9.266299e+02,2.793992e+03
9.275942e+02,2.793379e+03
9.285584e+02,2.801109e+03
9.295226e+02,2.806659e+03
9.304869e+02,2.805414e+03
9.314511e+02,2.799720e+03
9.324153e+02,2.795731e+03
9.333796e+02,2.795586e+03
9.343438e+02,2.795055e+03
9.353080e+02,2.790698e+03
9.362723e+02,2.784615e+03
9.372365e+02,2.781347e+03
9.382007e+02,2.786451e+03
9.391650e+02,2.791039e+03
9.401292e+02,2.789122e+03
9.410934e+02,2.784957e+03
9.420577e+02,2.783340e+03
9.430219e+02,2.785407e+03
9.439861e+02,2.786331e+03
9.449504e+02,2.781729e+03
9.459146e+02,2.776410e+03
9.468788e+02,2.774832e+03
9.478431e+02,2.776058e+03
9.488073e+02,2.778478e+03
9.497715e+02,2.784974e+03
9.507358e+02,2.792773e+03
9.517000e+02,2.794165e+03
9.526642e+02,2.790259e+03
9.536285e+02,2.785361e+03
9.545927e+02,2.781248e+03
9.555569e+02,2.777949e+03
9.565212e+02,2.776586e+03
9.574854e+02,2.778201e+03
9.584496e+02,2.778638e+03
9.594139e+02,2.774217e+03
9.603781e+02,2.767358e+03
9.613423e+02,2.767701e+03
9.623066e+02,2.778085e+03
9.632708e+02,2.782405e+03
9.642350e+02,2.776183e+03
9.651993e+02,2.766224e+03
9.661635e+02,2.761039e+03
9.671277e+02,2.762214e+03
9.680920e+02,2.761849e+03
9.690562e+02,2.758677e+03
9.700204e+02,2.754810e+03
9.709847e+02,2.753339e+03
9.719489e+02,2.756328e+03
9.729131e+02,2.755468e+03
9.738774e+02,2.744772e+03
9.748416e+02,2.737622e+03
9.758058e+02,2.740680e+03
9.767701e+02,2.751172e+03
9.777343e+02,2.758300e+03
9.786985e+02,2.759011e+03
9.796628e+02,2.757096e+03
9.806270e+02,2.752646e+03
9.815912e+02,2.747138e+03
9.825555e+02,2.743160e+03
9.835197e+02,2.744711e+03
9.844839e+02,2.745614e+03
9.854482e+02,2.741301e+03
9.864124e+02,2.736481e+03
9.873766e+02,2.736863e+03
9.883409e+02,2.744972e+03
9.893051e+02,2.751369e+03
9.902693e+02,2.747588e+03
9.912336e+02,2.740908e+03
9.921978e+02,2.738404e+03
9.931620e+02,2.739827e+03
9.941263e+02,2.741323e+03
9.950905e+02,2.739504e+03
9.960547e+02,2.737344e+03
9.970190e+02,2.741002e+03
9.979832e+02,2.747936e+03
9.989474e+02,2.748905e+03
9.999117e+02,2.736262e+03
1.000876e+03,2.719705e+03
1.001840e+03,2.714551e+03
1.002804e+03,2.718562e+03
1.003769e+03,2.722256e+03
1.004733e+03,2.721484e+03
1.005697e+03,2.717917e+03
1.006661e+03,2.712284e+03
1.007626e+03,2.706154e+03
1.008590e+03,2.706809e+03
1.009554e+03,2.715196e+03
1.010518e+03,2.724965e+03
1.011482e+03,2.731218e+03
1.012447e+03,2.733668e+03
1.013411e+03,2.729091e+03
1.014375e+03,2.718175e+03
1.015339e+03,2.708284e+03
1.016304e+03,2.703615e+03
1.017268e+03,2.703277e+03
1.018232e+03,2.704178e+03
1.019196e+03,2.706201e+03
1.020161e+03,2.707233e+03
1.021125e+03,2.706566e+03
1.022089e+03,2.705976e+03
1.023053e+03,2.708544e+03
1.024018e+03,2.714120e+03
1.024982e+03,2.718518e+03
1.025946e+03,2.720611e+03
1.026910e+03,2.719816e+03
1.027875e+03,2.716552e+03
1.028839e+03,2.711210e+03
1.029803e+03,2.707715e+03
1.030767e+03,2.706957e+03
1.031731e+03,2.706747e+03
1.032696e+03,2.704359e+03
1.033660e+03,2.699251e+03
1.034624e+03,2.699149e+03
1.035588e+03,2.709407e+03
1.036552e+03,2.717121e+03
1.037517e+03,2.715156e+03
1.038481e+03,2.705577e+03
1.039445e+03,2.699173e+03
1.040409e+03,2.697886e+03
1.041374e+03,2.696863e+03
1.042338e+03,2.696753e+03
1.043302e+03,2.696855e+03
1.044266e+03,2.695526e+03
1.045231e+03,2.691533e+03
1.046195e+03,2.687598e+03
1.047159e+03,2.684512e+03
1.048123e+03,2.681889e+03
1.049088e+03,2.678651e+03
1.050052e+03,2.675017e+03
1.051016e+03,2.676033e+03
1.051980e+03,2.687222e+03
1.052945e+03,2.696712e+03
1.053909e+03,2.696938e+03
1.054873e+03,2.689573e+03
1.055837e+03,2.685743e+03
1.056802e+03,2.693642e+03
1.057766e+03,2.697673e+03
1.058730e+03,2.691957e+03
1.059694e+03,2.682774e+03
1.060658e+03,2.677559e+03
1.061623e+03,2.680369e+03
1.062587e+03,2.682073e+03
1.063551e+03,2.679195e+03
1.064515e+03,2.677070e+03
1.065479e+03,2.679985e+03
1.066444e+03,2.689189e+03
1.067408e+03,2.695660e+03
1.068372e+03,2.695436e+03
1.069336e+03,2.694819e+03
1.070301e+03,2.695855e+03
1.071265e+03,2.697200e+03
1.072229e+03,2.696643e+03
1.073193e+03,2.694073e+03
1.074158e+03,2.689129e+03
1.075122e+03,2.678958e+03
1.076086e+03,2.667772e+03
1.077050e+03,2.661152e+03
1.078015e+03,2.662502e+03
1.078979e+03,2.666665e+03
1.079943e+03,2.674937e+03
1.080907e+03,2.682977e+03
1.081872e+03,2.686060e+03
1.082836e+03,2.683112e+03
1.083800e+03,2.681746e+03
1.084764e+03,2.685240e+03
1.085729e+03,2.690366e+03
1.086693e+03,2.696052e+03
1.087657e+03,2.701629e+03
1.088621e+03,2.706297e+03
1.089585e+03,2.709518e+03
1.090550e+03,2.710989e+03
1.091514e+03,2.713183e+03
1.092478e+03,2.714458e+03
1.093442e+03,2.712251e+03
1.094406e+03,2.705535e+03
1.095371e+03,2.698332e+03
1.096335e+03,2.687380e+03
1.097299e+03,2.678493e+03
1.098263e+03,2.677527e+03
1.099228e+03,2.683731e+03
1.100192e+03,2.685418e+03
1.101156e+03,2.673215e+03
1.102120e+03,2.663523e+03
1.103085e+03,2.665626e+03
1.104049e+03,2.674364e+03
1.105013e+03,2.678995e+03
1.105977e+03,2.675295e+03
1.106942e+03,2.671369e+03
1.107906e+03,2.669086e+03
1.108870e+03,2.667030e+03
1.109834e+03,2.663313e+03
1.110799e+03,2.656779e+03
1.111763e+03,2.652961e+03
1.112727e+03,2.653020e+03
1.113691e+03,2.656192e+03
1.114656e+03,2.663841e+03
1.115620e+03,2.674844e+03
1.116584e+03,2.681466e+03
1.117548e+03,2.678850e+03
1.118512e+03,2.674779e+03
1.119477e+03,2.669425e+03
1.120441e+03,2.664445e+03
1.121405e+03,2.662769e+03
1.122369e+03,2.669724e+03
1.123334e+03,2.672106e+03
1.124298e+03,2.668478e+03
1.125262e+03,2.662438e+03
1.126226e+03,2.655904e+03
1.127191e+03,2.648777e+03
1.128155e+03,2.643923e+03
1.129119e+03,2.642051e+03
1.130083e+03,2.640138e+03
1.131047e+03,2.636206e+03
1.132012e+03,2.630767e+03
1.132976e+03,2.627770e+03
1.133940e+03,2.629817e+03
1.134904e+03,2.628551e+03
1.135869e+03,2.621511e+03
1.136833e+03,2.613701e+03
1.137797e+03,2.610984e+03
1.138761e+03,2.616133e+03
1.139726e+03,2.618876e+03
1.140690e+03,2.617536e+03
1.141654e+03,2.616167e+03
1.142618e+03,2.617172e+03
1.143583e+03,2.620269e+03
1.144547e+03,2.621570e+03
1.145511e+03,2.620301e+03
1.146475e+03,2.620265e+03
1.147439e+03,2.623467e+03
1.148404e+03,2.627050e+03
1.149368e+03,2.623508e+03
1.150332e+03,2.611292e+03
1.151296e+03,2.605227e+03
1.152261e+03,2.606400e+03
1.153225e+03,2.608296e+03
1.154189e+03,2.607519e+03
1.155153e+03,2.605208e+03
1.156118e+03,2.602026e+03
1.157082e+03,2.598812e+03
1.158046e+03,2.594983e+03
1.159010e+03,2.588236e+03
1.159974e+03,2.582123e+03
1.160939e+03,2.586466e+03
1.161903e+03,2.598864e+03
1.162867e+03,2.607504e+03
1.163831e+03,2.609878e+03
1.164796e+03,2.606895e+03
1.165760e+03,2.597215e+03
1.166724e+03,2.584487e+03
1.167688e+03,2.578551e+03
1.168653e+03,2.578860e+03
1.169617e+03,2.578247e+03
1.170581e+03,2.571149e+03
1.171545e+03,2.562941e+03
1.172510e+03,2.562366e+03
1.173474e+03,2.566760e+03
1.174438e+03,2.568811e+03
1.175402e+03,2.565546e+03
1.176366e+03,2.562520e+03
1.177331e+03,2.566671e+03
1.178295e+03,2.573316e+03
1.179259e+03,2.575294e+03
1.180223e+03,2.572351e+03
1.181188e+03,2.570336e+03
1.182152e+03,2.576151e+03
1.183116e+03,2.580910e+03
1.184080e+03,2.577853e+03
1.185045e+03,2.570481e+03
1.186009e+03,2.564385e+03
1.186973e+03,2.562871e+03
1.187937e+03,2.561174e+03
1.188901e+03,2.555176e+03
1.189866e+03,2.549103e+03
1.190830e+03,2.545750e+03
1.191794e+03,2.544951e+03
1.192758e+03,2.546212e+03
1.193723e+03,2.554491e+03
1.194687e+03,2.561438e+03
1.195651e+03,2.561343e+03
1.196615e+03,2.557073e+03
1.197580e+03,2.556149e+03
1.198544e+03,2.561613e+03
1.199508e+03,2.562120e+03
1.200472e+03,2.555456e+03
1.201437e+03,2.547783e+03
1.202401e+03,2.545020e+03
1.203365e+03,2.548773e+03
1.204329e+03,2.549529e+03
1.205293e+03,2.545183e+03
1.206258e+03,2.542154e+03
1.207222e+03,2.543062e+03
1.208186e+03,2.546615e+03
1.209150e+03,2.550133e+03
1.210115e+03,2.553038e+03
1.211079e+03,2.554154e+03
1.212043e+03,2.553754e+03
1.213007e+03,2.550538e+03
1.213972e+03,2.541833e+03
1.214936e+03,2.529774e+03
1.215900e+03,2.523972e+03
1.216864e+03,2.524415e+03
1.217828e+03,2.526089e+03
1.218793e+03,2.526228e+03
1.219757e+03,2.525905e+03
1.220721e+03,2.526277e+03
1.221685e+03,2.527839e+03
1.222650e+03,2.531228e+03
1.223614e+03,2.535902e+03
1.224578e+03,2.539703e+03
1.225542e+03,2.541855e+03
1.226507e+03,2.543161e+03
1.227471e+03,2.544833e+03
1.228435e+03,2.545586e+03
1.229399e+03,2.542394e+03
1.230364e+03,2.530215e+03
1.231328e+03,2.519013e+03
1.232292e+03,2.516381e+03
1.233256e+03,2.518722e+03
1.234220e+03,2.519853e+03
1.235185e+03,2.518474e+03
1.236149e+03,2.518405e+03
1.237113e+03,2.522854e+03
1.238077e+03,2.527291e+03
1.239042e+03,2.526266e+03
1.240006e+03,2.519689e+03
1.240970e+03,2.516293e+03
1.241934e+03,2.516915e+03
1.242899e+03,2.519529e+03
1.243863e+03,2.527063e+03
1.244827e+03,2.534078e+03
1.245791e+03,2.531720e+03
1.246755e+03,2.517646e+03
1.247720e+03,2.508246e+03
1.248684e+03,2.504760e+03
1.249648e+03,2.502833e+03
1.250612e+03,2.499017e+03
1.251577e+03,2.494329e+03
1.252541e+03,2.493841e+03
1.253505e+03,2.496819e+03
1.254469e+03,2.500102e+03
1.255434e+03,2.503432e+03
1.256398e+03,2.505750e+03
1.257362e+03,2.503177e+03
1.258326e+03,2.498349e+03
1.259291e+03,2.497750e+03
1.260255e+03,2.500683e+03
1.261219e+03,2.502212e+03
1.262183e+03,2.498973e+03
1.263147e+03,2.496439e+03
1.264112e+03,2.500251e+03
1.265076e+03,2.506329e+03
1.266040e+03,2.507886e+03
1.267004e+03,2.502164e+03
1.267969e+03,2.496634e+03
1.268933e+03,2.493242e+03
1.269897e+03,2.493209e+03
1.270861e+03,2.497058e+03
1.271826e+03,2.502270e+03
1.272790e+03,2.503500e+03
1.273754e+03,2.498677e+03
1.274718e+03,2.495290e+03
1.275682e+03,2.496783e+03
1.276647e+03,2.500023e+03
1.277611e+03,2.499985e+03
1.278575e+03,2.495723e+03
1.279539e+03,2.493110e+03
1.280504e+03,2.493839e+03
1.281468e+03,2.494513e+03
1.282432e+03,2.492108e+03
1.283396e+03,2.488088e+03
1.284361e+03,2.485798e+03
1.285325e+03,2.484542e+03
1.286289e+03,2.483815e+03
1.287253e+03,2.483361e+03
1.288218e+03,2.482767e+03
1.289182e+03,2.481674e+03
1.290146e+03,2.481015e+03
1.291110e+03,2.482500e+03
1.292074e+03,2.485962e+03
1.293039e+03,2.489445e+03
1.294003e+03,2.493398e+03
1.294967e+03,2.494596e+03
1.295931e+03,2.491833e+03
1.296896e+03,2.486996e+03
1.297860e+03,2.481130e+03
1.298824e+03,2.473317e+03
1.299788e+03,2.466734e+03
1.300753e+03,2.457781e+03
1.301717e+03,2.455122e+03
1.302681e+03,2.466111e+03
1.303645e+03,2.483981e+03
1.304609e+03,2.487754e+03
1.305574e+03,2.473685e+03
1.306538e+03,2.465151e+03
1.307502e+03,2.467465e+03
1.308466e+03,2.471793e+03
1.309431e+03,2.466573e+03
1.310395e+03,2.455935e+03
1.311359e+03,2.454827e+03
1.312323e+03,2.460563e+03
1.313288e+03,2.465199e+03
1.314252e+03,2.466615e+03
1.315216e+03,2.466716e+03
1.316180e+03,2.464297e+03
1.317145e+03,2.462235e+03
1.318109e+03,2.464148e+03
1.319073e+03,2.469332e+03
1.320037e+03,2.472642e+03
1.321001e+03,2.471743e+03
1.321966e+03,2.469376e+03
1.322930e+03,2.467759e+03
1.323894e+03,2.466608e+03
1.324858e+03,2.463739e+03
1.325823e+03,2.456637e+03
1.326787e+03,2.453431e+03
1.327751e+03,2.454359e+03
1.328715e+03,2.456909e+03
1.329680e+03,2.460240e+03
1.330644e+03,2.464208e+03
1.331608e+03,2.467882e+03
1.332572e+03,2.470980e+03
1.333536e+03,2.473018e+03
1.334501e+03,2.473598e+03
1.335465e+03,2.471491e+03
1.336429e+03,2.464535e+03
1.337393e+03,2.456265e+03
1.338358e+03,2.450837e+03
1.339322e+03,2.448491e+03
1.340286e+03,2.448477e+03
1.341250e+03,2.455172e+03
1.342215e+03,2.458329e+03
1.343179e+03,2.450683e+03
1.344143e+03,2.441261e+03
1.345107e+03,2.438739e+03
1.346072e+03,2.444862e+03
1.347036e+03,2.449195e+03
1.348000e+03,2.451136e+03
1.348964e+03,2.450777e+03
1.349928e+03,2.448368e+03
1.350893e+03,2.445365e+03
1.351857e+03,2.443080e+03
1.352821e+03,2.441011e+03
1.353785e+03,2.441165e+03
1.354750e+03,2.443505e+03
1.355714e+03,2.443422e+03
1.356678e+03,2.435039e+03
1.357642e+03,2.425368e+03
1.358607e+03,2.424396e+03
1.359571e+03,2.428849e+03
1.360535e+03,2.431974e+03
1.361499e+03,2.431398e+03
1.362464e+03,2.431400e+03
1.363428e+03,2.435753e+03
1.364392e+03,2.440646e+03
1.365356e+03,2.441336e+03
1.366320e+03,2.437251e+03
1.367285e+03,2.435386e+03
1.368249e+03,2.438452e+03
1.369213e+03,2.440185e+03
1.370177e+03,2.439853e+03
1.371142e+03,2.437024e+03
1.372106e+03,2.428897e+03
1.373070e+03,2.417083e+03
1.374034e+03,2.416092e+03
1.374999e+03,2.425195e+03
1.375963e+03,2.431384e+03
1.376927e+03,2.426456e+03
1.377891e+03,2.419147e+03
1.378855e+03,2.417450e+03
1.379820e+03,2.418968e+03
1.380784e+03,2.422030e+03
1.381748e+03,2.426926e+03
1.382712e+03,2.429648e+03
1.383677e+03,2.425966e+03
1.384641e+03,2.420848e+03
1.385605e+03,2.415594e+03
1.386569e+03,2.409786e+03
1.387534e+03,2.402638e+03
1.388498e+03,2.393509e+03
1.389462e+03,2.388230e+03
1.390426e+03,2.386523e+03
1.391391e+03,2.387299e+03
1.392355e+03,2.391698e+03
1.393319e+03,2.397623e+03
1.394283e+03,2.400142e+03
1.395247e+03,2.399643e+03
1.396212e+03,2.397183e+03
1.397176e+03,2.392955e+03
1.398140e+03,2.389405e+03
1.399104e+03,2.387970e+03
1.400069e+03,2.386649e+03
1.401033e+03,2.383696e+03
1.401997e+03,2.380125e+03
1.402961e+03,2.378917e+03
1.403926e+03,2.381465e+03
1.404890e+03,2.382825e+03
1.405854e+03,2.382946e+03
1.406818e+03,2.382859e+03
1.407782e+03,2.383366e+03
1.408747e+03,2.384897e+03
1.409711e+03,2.387201e+03
1.410675e+03,2.388602e+03
1.411639e+03,2.387294e+03
1.412604e+03,2.382969e+03
1.413568e+03,2.377650e+03
1.414532e+03,2.371726e+03
1.415496e+03,2.368064e+03
1.416461e+03,2.369690e+03
1.417425e+03,2.374444e+03
1.418389e+03,2.376591e+03
1.419353e+03,2.373542e+03
1.420318e+03,2.370398e+03
1.421282e+03,2.368006e+03
1.422246e+03,2.366999e+03
1.423210e+03,2.368368e+03
1.424174e+03,2.371621e+03
1.425139e+03,2.369521e+03
1.426103e+03,2.362359e+03
1.427067e+03,2.359069e+03
1.428031e+03,2.363773e+03
1.428996e+03,2.367783e+03
1.429960e+03,2.357584e+03
1.430924e+03,2.345218e+03
1.431888e+03,2.345654e+03
1.432853e+03,2.356743e+03
1.433817e+03,2.362812e+03
1.434781e+03,2.353888e+03
1.435745e+03,2.350272e+03
1.436709e+03,2.355877e+03
1.437674e+03,2.362842e+03
1.438638e+03,2.365516e+03
1.439602e+03,2.364784e+03
1.440566e+03,2.361598e+03
1.441531e+03,2.356066e+03
1.442495e+03,2.352071e+03
1.443459e+03,2.350712e+03
1.444423e+03,2.350790e+03
1.445388e+03,2.353000e+03
1.446352e+03,2.353853e+03
1.447316e+03,2.349480e+03
1.448280e+03,2.341490e+03
1.449245e+03,2.335119e+03
1.450209e+03,2.328741e+03
1.451173e+03,2.328725e+03
1.452137e+03,2.338045e+03
1.453101e+03,2.347384e+03
1.454066e+03,2.348151e+03
1.455030e+03,2.341764e+03
1.455994e+03,2.338614e+03
1.456958e+03,2.338316e+03
1.457923e+03,2.338601e+03
1.458887e+03,2.337924e+03
1.459851e+03,2.337503e+03
1.460815e+03,2.338681e+03
1.461780e+03,2.339772e+03
1.462744e+03,2.341825e+03
1.463708e+03,2.344490e+03
1.464672e+03,2.342323e+03
1.465636e+03,2.331769e+03
1.466601e+03,2.325531e+03
1.467565e+03,2.325900e+03
1.468529e+03,2.328826e+03
1.469493e+03,2.330184e+03
1.470458e+03,2.329819e+03
1.471422e+03,2.330096e+03
1.472386e+03,2.330849e+03
1.473350e+03,2.329184e+03
1.474315e+03,2.322483e+03
1.475279e+03,2.317366e+03
1.476243e+03,2.318439e+03
1.477207e+03,2.321528e+03
1.478172e+03,2.326878e+03
1.479136e+03,2.332843e+03
1.480100e+03,2.331685e+03
1.481064e+03,2.321543e+03
1.482028e+03,2.312042e+03
1.482993e+03,2.304261e+03
1.483957e+03,2.299995e+03
1.484921e+03,2.302153e+03
1.485885e+03,2.307368e+03
1.486850e+03,2.309045e+03
1.487814e+03,2.307900e+03
1.488778e+03,2.307270e+03
1.489742e+03,2.309245e+03
1.490707e+03,2.308709e+03
1.491671e+03,2.303467e+03
1.492635e+03,2.298442e+03
1.493599e+03,2.293933e+03
1.494563e+03,2.290390e+03
1.495528e+03,2.291805e+03
1.496492e+03,2.297528e+03
1.497456e+03,2.298636e+03
1.498420e+03,2.294973e+03
1.499385e+03,2.291676e+03
1.500349e+03,2.293131e+03
1.501313e+03,2.296266e+03
1.502277e+03,2.297952e+03
1.503242e+03,2.298977e+03
1.504206e+03,2.300949e+03
1.505170e+03,2.304604e+03
1.506134e+03,2.305086e+03
1.507099e+03,2.301434e+03
1.508063e+03,2.297816e+03
1.509027e+03,2.295667e+03
1.509991e+03,2.294632e+03
1.510955e+03,2.295419e+03
1.511920e+03,2.296554e+03
1.512884e+03,2.294658e+03
1.513848e+03,2.290686e+03
1.514812e+03,2.287288e+03
1.515777e+03,2.283007e+03
1.516741e+03,2.279566e+03
1.517705e+03,2.276091e+03
1.518669e+03,2.274794e+03
1.519634e+03,2.279662e+03
1.520598e+03,2.289674e+03
1.521562e+03,2.291178e+03
1.522526e+03,2.284113e+03
1.523490e+03,2.278259e+03
1.524455e+03,2.277264e+03
1.525419e+03,2.277658e+03
1.526383e+03,2.277683e+03
1.527347e+03,2.276783e+03
1.528312e+03,2.274819e+03
1.529276e+03,2.272998e+03
1.530240e+03,2.272419e+03
1.531204e+03,2.271939e+03
1.532169e+03,2.274058e+03
1.533133e+03,2.280046e+03
1.534097e+03,2.283658e+03
1.535061e+03,2.277759e+03
1.536026e+03,2.268049e+03
1.536990e+03,2.266529e+03
1.537954e+03,2.270029e+03
1.538918e+03,2.272554e+03
1.539882e+03,2.272576e+03
1.540847e+03,2.271294e+03
1.541811e+03,2.267773e+03
1.542775e+03,2.262975e+03
1.543739e+03,2.257391e+03
1.544704e+03,2.252457e+03
1.545668e+03,2.249825e+03
1.546632e+03,2.249727e+03
1.547596e+03,2.252794e+03
1.548561e+03,2.258517e+03
1.549525e+03,2.264294e+03
1.550489e+03,2.268472e+03
1.551453e+03,2.271175e+03
1.552417e+03,2.273317e+03
1.553382e+03,2.272841e+03
1.554346e+03,2.267865e+03
1.555310e+03,2.259638e+03
1.556274e+03,2.255563e+03
1.557239e+03,2.255364e+03
1.558203e+03,2.255414e+03
1.559167e+03,2.254883e+03
1.560131e+03,2.254761e+03
1.561096e+03,2.257091e+03
1.562060e+03,2.259665e+03
1.563024e+03,2.260964e+03
1.563988e+03,2.260754e+03
1.564953e+03,2.258510e+03
1.565917e+03,2.253408e+03
1.566881e+03,2.247961e+03
1.567845e+03,2.241173e+03
1.568809e+03,2.238534e+03
1.569774e+03,2.245893e+03
1.570738e+03,2.253914e+03
1.571702e+03,2.245048e+03
1.572666e+03,2.231700e+03
1.573631e+03,2.233290e+03
1.574595e+03,2.252189e+03
1.575559e+03,2.259895e+03
1.576523e+03,2.248722e+03
1.577488e+03,2.241267e+03
1.578452e+03,2.241078e+03
1.579416e+03,2.241897e+03
1.580380e+03,2.235855e+03
1.581344e+03,2.227847e+03
1.582309e+03,2.228596e+03
1.583273e+03,2.235381e+03
1.584237e+03,2.240791e+03
1.585201e+03,2.242766e+03
1.586166e+03,2.243148e+03
1.587130e+03,2.241114e+03
1.588094e+03,2.238169e+03
1.589058e+03,2.235503e+03
1.590023e+03,2.233105e+03
1.590987e+03,2.229501e+03
1.591951e+03,2.226415e+03
1.592915e+03,2.226027e+03
1.593880e+03,2.227463e+03
1.594844e+03,2.229871e+03
1.595808e+03,2.238994e+03
1.596772e+03,2.240353e+03
1.597736e+03,2.227644e+03
1.598701e+03,2.214322e+03
1.599665e+03,2.212375e+03
1.600629e+03,2.218940e+03
1.601593e+03,2.223315e+03
1.602558e+03,2.225772e+03
1.603522e+03,2.228034e+03
1.604486e+03,2.231380e+03
1.605450e+03,2.228457e+03
1.606415e+03,2.209358e+03
1.607379e+03,2.193411e+03
1.608343e+03,2.187365e+03
1.609307e+03,2.187988e+03
1.610271e+03,2.191770e+03
1.611236e+03,2.197265e+03
1.612200e+03,2.198742e+03
1.613164e+03,2.197038e+03
1.614128e+03,2.195716e+03
1.615093e+03,2.194100e+03
1.616057e+03,2.195592e+03
1.617021e+03,2.206130e+03
1.617985e+03,2.213427e+03
1.618950e+03,2.209111e+03
1.619914e+03,2.196911e+03
1.620878e+03,2.190412e+03
1.621842e+03,2.189094e+03
1.622807e+03,2.190648e+03
1.623771e+03,2.195021e+03
1.624735e+03,2.199061e+03
1.625699e+03,2.198996e+03
1.626663e+03,2.199134e+03
1.627628e+03,2.201551e+03
1.628592e+03,2.202674e+03
1.629556e+03,2.199299e+03
1.630520e+03,2.193092e+03
1.631485e+03,2.187460e+03
1.632449e+03,2.181966e+03
1.633413e+03,2.174915e+03
1.634377e+03,2.163360e+03
1.635342e+03,2.156990e+03
1.636306e+03,2.165294e+03
1.637270e+03,2.173358e+03
1.638234e+03,2.173824e+03
1.639198e+03,2.170461e+03
1.640163e+03,2.171124e+03
1.641127e+03,2.175167e+03
1.642091e+03,2.179674e+03
1.643055e+03,2.183169e+03
1.644020e+03,2.183314e+03
1.644984e+03,2.175609e+03
1.645948e+03,2.167723e+03
1.646912e+03,2.161196e+03
1.647877e+03,2.156510e+03
1.648841e+03,2.154216e+03
1.649805e+03,2.154431e+03
1.650769e+03,2.159362e+03
1.651734e+03,2.165899e+03
1.652698e+03,2.166045e+03
1.653662e+03,2.156036e+03
1.654626e+03,2.147618e+03
1.655590e+03,2.144920e+03
1.656555e+03,2.142414e+03
1.657519e+03,2.139434e+03
1.658483e+03,2.137360e+03
1.659447e+03,2.136352e+03
1.660412e+03,2.135866e+03
1.661376e+03,2.137843e+03
1.662340e+03,2.141783e+03
1.663304e+03,2.144205e+03
1.664269e+03,2.141837e+03
1.665233e+03,2.138964e+03
1.666197e+03,2.134775e+03
1.667161e+03,2.130685e+03
1.668125e+03,2.127837e+03
1.669090e+03,2.126291e+03
1.670054e+03,2.125809e+03
1.671018e+03,2.127081e+03
1.671982e+03,2.134168e+03
1.672947e+03,2.146290e+03
1.673911e+03,2.147494e+03
1.674875e+03,2.132403e+03
1.675839e+03,2.122146e+03
1.676804e+03,2.121016e+03
1.677768e+03,2.123545e+03
1.678732e+03,2.126796e+03
1.679696e+03,2.127760e+03
1.680661e+03,2.119105e+03
1.681625e+03,2.108042e+03
1.682589e+03,2.107888e+03
1.683553e+03,2.120100e+03
1.684517e+03,2.126465e+03
1.685482e+03,2.126805e+03
1.686446e+03,2.125376e+03
1.687410e+03,2.123278e+03
1.688374e+03,2.120996e+03
1.689339e+03,2.120061e+03
1.690303e+03,2.117321e+03
1.691267e+03,2.107573e+03
1.692231e+03,2.097617e+03
1.693196e+03,2.100598e+03
1.694160e+03,2.113366e+03
1.695124e+03,2.117027e+03
1.696088e+03,2.112545e+03
1.697052e+03,2.108086e+03
1.698017e+03,2.103774e+03
1.698981e+03,2.103555e+03
1.699945e+03,2.111252e+03
1.700909e+03,2.116583e+03
1.701874e+03,2.115334e+03
1.702838e+03,2.111353e+03
1.703802e+03,2.110684e+03
1.704766e+03,2.110300e+03
1.705731e+03,2.105195e+03
1.706695e+03,2.095846e+03
1.707659e+03,2.091927e+03
1.708623e+03,2.099514e+03
1.709588e+03,2.102256e+03
1.710552e+03,2.096160e+03
1.711516e+03,2.088735e+03
1.712480e+03,2.087384e+03
1.713444e+03,2.088193e+03
1.714409e+03,2.089019e+03
1.715373e+03,2.089241e+03
1.716337e+03,2.086618e+03
1.717301e+03,2.081732e+03
1.718266e+03,2.078046e+03
1.719230e+03,2.075137e+03
1.720194e+03,2.076913e+03
1.721158e+03,2.085035e+03
1.722123e+03,2.089428e+03
1.723087e+03,2.078005e+03
1.724051e+03,2.066650e+03
1.725015e+03,2.063616e+03
1.725979e+03,2.065787e+03
1.726944e+03,2.068833e+03
1.727908e+03,2.072420e+03
1.728872e+03,2.075618e+03
1.729836e+03,2.077454e+03
1.730801e+03,2.077135e+03
1.731765e+03,2.072655e+03
1.732729e+03,2.071420e+03
1.733693e+03,2.075305e+03
1.734658e+03,2.079347e+03
1.735622e+03,2.081711e+03
1.736586e+03,2.081421e+03
1.737550e+03,2.074365e+03
1.738515e+03,2.065992e+03
1.739479e+03,2.064464e+03
1.740443e+03,2.068423e+03
1.741407e+03,2.066551e+03
1.742371e+03,2.057822e+03
1.743336e+03,2.053634e+03
1.744300e+03,2.054682e+03
1.745264e+03,2.055674e+03
1.746228e+03,2.053971e+03
1.747193e+03,2.052541e+03
1.748157e+03,2.055972e+03
1.749121e+03,2.058664e+03
1.750085e+03,2.053291e+03
1.751050e+03,2.041667e+03
1.752014e+03,2.034598e+03
1.752978e+03,2.032490e+03
1.753942e+03,2.037508e+03
1.754906e+03,2.049652e+03
1.755871e+03,2.052981e+03
1.756835e+03,2.037658e+03
1.757799e+03,2.029623e+03
1.758763e+03,2.036570e+03
1.759728e+03,2.044982e+03
1.760692e+03,2.040465e+03
1.761656e+03,2.031910e+03
1.762620e+03,2.024843e+03
1.763585e+03,2.020009e+03
1.764549e+03,2.018071e+03
1.765513e+03,2.018156e+03
1.766477e+03,2.020819e+03
1.767442e+03,2.026035e+03
1.768406e+03,2.030419e+03
1.769370e+03,2.033037e+03
1.770334e+03,2.035295e+03
1.771298e+03,2.038636e+03
1.772263e+03,2.037190e+03
1.773227e+03,2.027636e+03
1.774191e+03,2.018717e+03
1.775155e+03,2.026480e+03
1.776120e+03,2.038754e+03
1.777084e+03,2.035736e+03
1.778048e+03,2.022453e+03
1.779012e+03,2.013820e+03
1.779977e+03,2.011209e+03
1.780941e+03,2.015725e+03
1.781905e+03,2.026243e+03
1.782869e+03,2.032572e+03
1.783833e+03,2.029159e+03
1.784798e+03,2.025101e+03
1.785762e+03,2.028230e+03
1.786726e+03,2.028574e+03
1.787690e+03,2.020536e+03
1.788655e+03,2.009323e+03
1.789619e+03,2.003549e+03
1.790583e+03,2.001737e+03
1.791547e+03,2.000661e+03
1.792512e+03,2.000356e+03
1.793476e+03,2.001888e+03
1.794440e+03,2.004827e+03
1.795404e+03,2.008482e+03
1.796369e+03,2.012267e+03
1.797333e+03,2.013529e+03
1.798297e+03,2.008845e+03
1.799261e+03,2.005455e+03
1.800225e+03,2.010280e+03
1.801190e+03,2.014774e+03
1.802154e+03,2.014354e+03
1.803118e+03,2.009800e+03
1.804082e+03,2.002229e+03
1.805047e+03,1.994330e+03
1.806011e+03,1.991674e+03
1.806975e+03,1.994144e+03
1.807939e+03,1.994835e+03
1.808904e+03,1.991913e+03
1.809868e+03,1.987979e+03
1.810832e+03,1.983784e+03
1.811796e+03,1.980764e+03
1.812760e+03,1.977956e+03
1.813725e+03,1.978334e+03
1.814689e+03,1.987426e+03
1.815653e+03,1.997430e+03
1.816617e+03,2.003158e+03
1.817582e+03,2.004771e+03
1.818546e+03,2.001246e+03
1.819510e+03,1.993945e+03
1.820474e+03,1.985419e+03
1.821439e+03,1.976579e+03
1.822403e+03,1.971535e+03
1.823367e+03,1.971435e+03
1.824331e+03,1.970702e+03
1.825296e+03,1.967867e+03
1.826260e+03,1.964648e+03
1.827224e+03,1.962644e+03
1.828188e+03,1.963928e+03
1.829152e+03,1.972914e+03
1.830117e+03,1.979335e+03
1.831081e+03,1.971918e+03
1.832045e+03,1.956768e+03
1.833009e+03,1.955298e+03
1.833974e+03,1.962463e+03
1.834938e+03,1.965114e+03
1.835902e+03,1.959330e+03
1.836866e+03,1.956768e+03
1.837831e+03,1.957555e+03
1.838795e+03,1.957957e+03
1.839759e+03,1.958151e+03
1.840723e+03,1.956506e+03
1.841688e+03,1.945125e+03
1.842652e+03,1.939819e+03
1.843616e+03,1.947378e+03
1.844580e+03,1.956239e+03
1.845544e+03,1.955688e+03
1.846509e+03,1.949500e+03
1.847473e+03,1.939889e+03
1.848437e+03,1.930897e+03
1.849401e+03,1.931841e+03
1.850366e+03,1.942850e+03
1.851330e+03,1.949634e+03
1.852294e+03,1.952778e+03
1.853258e+03,1.951331e+03
1.854223e+03,1.944521e+03
1.855187e+03,1.937988e+03
1.856151e+03,1.929897e+03
1.857115e+03,1.929301e+03
1.858079e+03,1.940313e+03
1.859044e+03,1.949477e+03
1.860008e+03,1.938322e+03
1.860972e+03,1.924056e+03
1.861936e+03,1.925372e+03
1.862901e+03,1.933491e+03
1.863865e+03,1.933661e+03
1.864829e+03,1.926083e+03
1.865793e+03,1.921905e+03
1.866758e+03,1.921765e+03
1.867722e+03,1.926900e+03
1.868686e+03,1.938987e+03
1.869650e+03,1.944164e+03
1.870615e+03,1.939698e+03
1.871579e+03,1.935625e+03
1.872543e+03,1.935417e+03
1.873507e+03,1.937614e+03
1.874471e+03,1.942841e+03
1.875436e+03,1.943093e+03
1.876400e+03,1.934309e+03
1.877364e+03,1.922884e+03
1.878328e+03,1.915093e+03
1.879293e+03,1.909969e+03
1.880257e+03,1.905050e+03
1.881221e+03,1.900702e+03
1.882185e+03,1.899452e+03
1.883150e+03,1.901781e+03
1.884114e+03,1.903403e+03
1.885078e+03,1.904206e+03
1.886042e+03,1.908216e+03
1.887006e+03,1.917578e+03
1.887971e+03,1.921271e+03
1.888935e+03,1.916195e+03
1.889899e+03,1.906357e+03
1.890863e+03,1.889713e+03
1.891828e+03,1.876905e+03
1.892792e+03,1.883229e+03
1.893756e+03,1.894745e+03
1.894720e+03,1.905690e+03
1.895685e+03,1.914663e+03
1.896649e+03,1.917177e+03
1.897613e+03,1.914456e+03
1.898577e+03,1.914380e+03
1.899542e+03,1.914617e+03
1.900506e+03,1.907904e+03
1.901470e+03,1.891863e+03
1.902434e+03,1.883280e+03
1.903398e+03,1.882121e+03
1.904363e+03,1.886846e+03
1.905327e+03,1.898280e+03
1.906291e+03,1.903409e+03
1.907255e+03,1.887110e+03
1.908220e+03,1.875147e+03
1.909184e+03,1.872917e+03
1.910148e+03,1.872813e+03
1.911112e+03,1.866027e+03
1.912077e+03,1.861141e+03
1.913041e+03,1.870098e+03
1.914005e+03,1.880628e+03
1.914969e+03,1.878538e+03
1.915933e+03,1.868031e+03
1.916898e+03,1.862931e+03
1.917862e+03,1.861967e+03
1.918826e+03,1.862035e+03
1.919790e+03,1.863196e+03
1.920755e+03,1.864478e+03
1.921719e+03,1.864798e+03
1.922683e+03,1.863599e+03
1.923647e+03,1.861408e+03
1.924612e+03,1.859452e+03
1.925576e+03,1.857572e+03
1.926540e+03,1.857373e+03
1.927504e+03,1.858175e+03
1.928469e+03,1.858986e+03
1.929433e+03,1.859540e+03
1.930397e+03,1.858570e+03
1.931361e+03,1.853201e+03
1.932325e+03,1.848203e+03
1.933290e+03,1.849066e+03
1.934254e+03,1.853959e+03
1.935218e+03,1.855489e+03
1.936182e+03,1.853478e+03
1.937147e+03,1.849425e+03
1.938111e+03,1.844576e+03
1.939075e+03,1.841532e+03
1.940039e+03,1.841064e+03
1.941004e+03,1.842799e+03
1.941968e+03,1.845396e+03
1.942932e+03,1.847514e+03
1.943896e+03,1.850724e+03
1.944860e+03,1.849883e+03
1.945825e+03,1.845183e+03
1.946789e+03,1.839672e+03
1.947753e+03,1.832820e+03
1.948717e+03,1.827448e+03
1.949682e+03,1.822596e+03
1.950646e+03,1.823509e+03
1.951610e+03,1.838634e+03
1.952574e+03,1.852858e+03
1.953539e+03,1.837069e+03
1.954503e+03,1.814027e+03
1.955467e+03,1.807768e+03
1.956431e+03,1.814219e+03
1.957396e+03,1.826104e+03
1.958360e+03,1.838217e+03
1.959324e+03,1.835209e+03
1.960288e+03,1.820343e+03
1.961252e+03,1.816797e+03
1.962217e+03,1.825672e+03
1.963181e+03,1.831401e+03
1.964145e+03,1.832948e+03
1.965109e+03,1.832525e+03
1.966074e+03,1.831741e+03
1.967038e+03,1.829292e+03
1.968002e+03,1.822712e+03
1.968966e+03,1.817032e+03
1.969931e+03,1.815707e+03
1.970895e+03,1.813367e+03
1.971859e+03,1.805307e+03
1.972823e+03,1.800363e+03
1.973787e+03,1.802417e+03
1.974752e+03,1.805832e+03
1.975716e+03,1.803503e+03
1.976680e+03,1.797885e+03
1.977644e+03,1.790187e+03
1.978609e+03,1.784762e+03
1.979573e+03,1.788615e+03
1.980537e+03,1.798107e+03
1.981501e+03,1.802613e+03
1.982466e+03,1.803433e+03
1.983430e+03,1.804635e+03
1.984394e+03,1.806760e+03
1.985358e+03,1.803624e+03
1.986323e+03,1.796064e+03
1.987287e+03,1.791238e+03
1.988251e+03,1.791823e+03
1.989215e+03,1.789969e+03
1.990179e+03,1.784695e+03
1.991144e+03,1.779800e+03
1.992108e+03,1.776590e+03
1.993072e+03,1.776625e+03
1.994036e+03,1.785142e+03
1.995001e+03,1.788411e+03
1.995965e+03,1.781432e+03
1.996929e+03,1.774154e+03
1.997893e+03,1.778021e+03
1.998858e+03,1.781529e+03
1.999822e+03,1.770913e+03
2.000786e+03,1.758558e+03
2.001750e+03,1.756829e+03
2.002714e+03,1.762767e+03
2.003679e+03,1.769305e+03
2.004643e+03,1.774057e+03
2.005607e+03,1.773343e+03
2.006571e+03,1.769120e+03
2.007536e+03,1.765799e+03
2.008500e+03,1.763725e+03
2.009464e+03,1.764495e+03
2.010428e+03,1.768019e+03
2.011393e+03,1.766457e+03
2.012357e+03,1.758813e+03
2.013321e+03,1.755456e+03
2.014285e+03,1.755744e+03
2.015250e+03,1.756043e+03
2.016214e+03,1.756530e+03
2.017178e+03,1.752369e+03
2.018142e+03,1.743127e+03
2.019106e+03,1.738298e+03
2.020071e+03,1.745935e+03
2.021035e+03,1.749952e+03
2.021999e+03,1.737952e+03
2.022963e+03,1.729309e+03
2.023928e+03,1.732898e+03
2.024892e+03,1.739921e+03
2.025856e+03,1.740845e+03
2.026820e+03,1.740535e+03
2.027785e+03,1.742428e+03
2.028749e+03,1.743600e+03
2.029713e+03,1.740861e+03
2.030677e+03,1.735520e+03
2.031641e+03,1.725701e+03
2.032606e+03,1.715941e+03
2.033570e+03,1.713515e+03
2.034534e+03,1.717004e+03
2.035498e+03,1.724279e+03
2.036463e+03,1.732846e+03
2.037427e+03,1.736155e+03
2.038391e+03,1.734976e+03
2.039355e+03,1.729510e+03
2.040320e+03,1.721162e+03
2.041284e+03,1.713996e+03
2.042248e+03,1.708358e+03
2.043212e+03,1.707588e+03
2.044177e+03,1.712593e+03
2.045141e+03,1.717818e+03
2.046105e+03,1.721937e+03
2.047069e+03,1.721884e+03
2.048033e+03,1.710500e+03
2.048998e+03,1.703049e+03
2.049962e+03,1.701314e+03
2.050926e+03,1.703757e+03
2.051890e+03,1.715832e+03
2.052854e+03,1.720390e+03
2.053819e+03,1.708114e+03
2.054783e+03,1.698469e+03
2.055747e+03,1.705665e+03
2.056711e+03,1.713920e+03
2.057676e+03,1.703817e+03
2.058640e+03,1.694695e+03
2.059604e+03,1.696776e+03
2.060568e+03,1.700979e+03
2.061533e+03,1.693931e+03
2.062497e+03,1.683912e+03
2.063461e+03,1.676576e+03
2.064425e+03,1.674142e+03
2.065390e+03,1.685070e+03
2.066354e+03,1.699711e+03
2.067318e+03,1.699515e+03
2.068282e+03,1.690068e+03
2.069247e+03,1.683167e+03
2.070211e+03,1.678371e+03
2.071175e+03,1.675246e+03
2.072139e+03,1.673762e+03
2.073104e+03,1.672933e+03
2.074068e+03,1.672902e+03
2.075032e+03,1.680422e+03
2.075996e+03,1.691681e+03
2.076960e+03,1.690015e+03
2.077925e+03,1.672430e+03
2.078889e+03,1.668893e+03
2.079853e+03,1.681559e+03
2.080817e+03,1.687117e+03
2.081782e+03,1.682826e+03
2.082746e+03,1.674853e+03
2.083710e+03,1.663495e+03
2.084674e+03,1.657839e+03
2.085639e+03,1.659291e+03
2.086603e+03,1.662227e+03
2.087567e+03,1.660581e+03
2.088531e+03,1.659981e+03
2.089496e+03,1.661158e+03
2.090460e+03,1.657814e+03
2.091424e+03,1.646886e+03
2.092388e+03,1.642710e+03
2.093353e+03,1.661522e+03
2.094317e+03,1.673968e+03
2.095281e+03,1.668686e+03
2.096245e+03,1.657607e+03
2.097209e+03,1.646398e+03
2.098174e+03,1.644485e+03
2.099138e+03,1.660311e+03
2.100102e+03,1.673127e+03
2.101066e+03,1.652037e+03
2.102031e+03,1.626234e+03
2.102995e+03,1.621973e+03
2.103959e+03,1.627289e+03
2.104923e+03,1.637113e+03
2.105887e+03,1.647790e+03
2.106852e+03,1.649174e+03
2.107816e+03,1.645877e+03
2.108780e+03,1.645394e+03
2.109744e+03,1.645567e+03
2.110708e+03,1.640892e+03
2.111673e+03,1.635827e+03
2.112637e+03,1.636072e+03
2.113601e+03,1.638225e+03
2.114565e+03,1.636361e+03
2.115530e+03,1.632214e+03
2.116494e+03,1.629516e+03
2.117458e+03,1.629689e+03
2.118422e+03,1.628618e+03
2.119387e+03,1.625440e+03
2.120351e+03,1.623947e+03
2.121315e+03,1.622942e+03
2.122279e+03,1.621520e+03
2.123244e+03,1.619280e+03
2.124208e+03,1.620442e+03
2.125172e+03,1.623757e+03
2.126136e+03,1.621359e+03
2.127101e+03,1.610742e+03
2.128065e+03,1.611660e+03
2.129029e+03,1.621535e+03
2.129993e+03,1.621805e+03
2.130958e+03,1.607273e+03
2.131922e+03,1.598475e+03
2.132886e+03,1.598018e+03
2.133850e+03,1.598824e+03
2.134814e+03,1.601427e+03
2.135779e+03,1.604007e+03
2.136743e+03,1.605564e+03
2.137707e+03,1.603029e+03
2.138671e+03,1.597133e+03
2.139636e+03,1.593474e+03
2.140600e+03,1.596981e+03
2.141564e+03,1.597859e+03
2.142528e+03,1.595801e+03
2.143493e+03,1.591452e+03
2.144457e+03,1.582794e+03
2.145421e+03,1.577403e+03
2.146385e+03,1.578099e+03
2.147350e+03,1.579536e+03
2.148314e+03,1.581282e+03
2.149278e+03,1.584207e+03
2.150242e+03,1.588999e+03
2.151207e+03,1.589197e+03
2.152171e+03,1.582888e+03
2.153135e+03,1.575022e+03
2.154099e+03,1.571515e+03
2.155063e+03,1.567656e+03
2.156028e+03,1.561585e+03
2.156992e+03,1.561109e+03
2.157956e+03,1.576009e+03
2.158920e+03,1.585811e+03
2.159885e+03,1.577862e+03
2.160849e+03,1.572214e+03
2.161813e+03,1.581287e+03
2.162777e+03,1.587791e+03
2.163741e+03,1.572708e+03
2.164706e+03,1.556744e+03
2.165670e+03,1.547694e+03
2.166634e+03,1.547279e+03
2.167598e+03,1.566924e+03
2.168563e+03,1.578113e+03
2.169527e+03,1.564571e+03
2.170491e+03,1.547409e+03
2.171455e+03,1.554490e+03
2.172420e+03,1.563397e+03
2.173384e+03,1.557837e+03
2.174348e+03,1.551615e+03
2.175312e+03,1.558428e+03
2.176277e+03,1.565197e+03
2.177241e+03,1.557840e+03
2.178205e+03,1.545742e+03
2.179169e+03,1.532598e+03
2.180134e+03,1.525168e+03
2.181098e+03,1.538550e+03
2.182062e+03,1.551941e+03
2.183026e+03,1.548849e+03
2.183990e+03,1.540297e+03
2.184955e+03,1.542853e+03
2.185919e+03,1.548136e+03
2.186883e+03,1.548977e+03
2.187847e+03,1.547097e+03
2.188812e+03,1.546768e+03
2.189776e+03,1.544740e+03
2.190740e+03,1.532233e+03
2.191704e+03,1.519653e+03
2.192668e+03,1.519259e+03
2.193633e+03,1.524080e+03
2.194597e+03,1.525924e+03
2.195561e+03,1.525040e+03
2.196525e+03,1.519508e+03
2.197490e+03,1.513509e+03
2.198454e+03,1.518002e+03
2.199418e+03,1.522125e+03
2.200382e+03,1.514779e+03
2.201347e+03,1.505631e+03
2.202311e+03,1.512125e+03
2.203275e+03,1.522289e+03
2.204239e+03,1.521225e+03
2.205204e+03,1.516403e+03
2.206168e+03,1.524160e+03
2.207132e+03,1.533443e+03
2.208096e+03,1.527001e+03
2.209061e+03,1.513360e+03
2.210025e+03,1.498783e+03
2.210989e+03,1.488008e+03
2.211953e+03,1.492850e+03
2.212917e+03,1.505125e+03
2.213882e+03,1.514222e+03
2.214846e+03,1.517086e+03
2.215810e+03,1.503264e+03
2.216774e+03,1.488048e+03
2.217739e+03,1.489598e+03
2.218703e+03,1.499086e+03
2.219667e+03,1.501525e+03
2.220631e+03,1.501241e+03
2.221595e+03,1.501576e+03
2.222560e+03,1.501617e+03
2.223524e+03,1.500802e+03
2.224488e+03,1.498581e+03
2.225452e+03,1.494079e+03
2.226417e+03,1.489348e+03
2.227381e+03,1.486135e+03
2.228345e+03,1.483799e+03
2.229309e+03,1.475493e+03
2.230274e+03,1.471894e+03
2.231238e+03,1.488219e+03
2.232202e+03,1.506881e+03
2.233166e+03,1.500229e+03
2.234131e+03,1.486391e+03
2.235095e+03,1.478296e+03
2.236059e+03,1.473917e+03
2.237023e+03,1.470283e+03
2.237988e+03,1.468238e+03
2.238952e+03,1.468205e+03
2.239916e+03,1.467807e+03
2.240880e+03,1.466201e+03
2.241844e+03,1.462820e+03
2.242809e+03,1.454782e+03
2.243773e+03,1.449593e+03
2.244737e+03,1.457028e+03
2.245701e+03,1.466385e+03
2.246666e+03,1.469542e+03
2.247630e+03,1.468856e+03
2.248594e+03,1.465660e+03
2.249558e+03,1.463440e+03
2.250522e+03,1.465437e+03
2.251487e+03,1.468228e+03
2.252451e+03,1.469308e+03
2.253415e+03,1.466724e+03
2.254379e+03,1.457221e+03
2.255344e+03,1.450606e+03
2.256308e+03,1.451747e+03
2.257272e+03,1.454004e+03
2.258236e+03,1.449862e+03
2.259201e+03,1.446698e+03
2.260165e+03,1.446632e+03
2.261129e+03,1.445861e+03
2.262093e+03,1.438191e+03
2.263058e+03,1.433297e+03
2.264022e+03,1.435051e+03
2.264986e+03,1.439546e+03
2.265950e+03,1.444206e+03
2.266915e+03,1.448304e+03
2.267879e+03,1.451683e+03
2.268843e+03,1.448685e+03
2.269807e+03,1.435990e+03
2.270771e+03,1.427406e+03
2.271736e+03,1.429823e+03
2.272700e+03,1.431604e+03
2.273664e+03,1.427795e+03
2.274628e+03,1.425128e+03
2.275593e+03,1.428424e+03
2.276557e+03,1.423851e+03
2.277521e+03,1.410118e+03
2.278485e+03,1.405406e+03
2.279449e+03,1.425010e+03
2.280414e+03,1.437975e+03
2.281378e+03,1.442197e+03
2.282342e+03,1.440583e+03
2.283306e+03,1.428220e+03
2.284271e+03,1.419343e+03
2.285235e+03,1.413611e+03
2.286199e+03,1.410919e+03
2.287163e+03,1.414737e+03
2.288128e+03,1.416076e+03
2.289092e+03,1.413740e+03
2.290056e+03,1.408995e+03
2.291020e+03,1.402504e+03
2.291985e+03,1.402900e+03
2.292949e+03,1.410341e+03
2.293913e+03,1.417180e+03
2.294877e+03,1.420982e+03
2.295842e+03,1.416585e+03
2.296806e+03,1.405239e+03
2.297770e+03,1.404749e+03
2.298734e+03,1.412527e+03
2.299698e+03,1.414709e+03
2.300663e+03,1.411740e+03
2.301627e+03,1.407686e+03
2.302591e+03,1.401792e+03
2.303555e+03,1.392633e+03
2.304520e+03,1.381911e+03
2.305484e+03,1.373189e+03
2.306448e+03,1.369869e+03
2.307412e+03,1.380434e+03
2.308376e+03,1.395719e+03
2.309341e+03,1.392550e+03
2.310305e+03,1.381301e+03
2.311269e+03,1.375713e+03
2.312233e+03,1.374774e+03
2.313198e+03,1.376628e+03
2.314162e+03,1.378182e+03
2.315126e+03,1.377107e+03
2.316090e+03,1.373307e+03
2.317055e+03,1.364153e+03
2.318019e+03,1.356325e+03
2.318983e+03,1.355914e+03
2.319947e+03,1.357410e+03
2.320912e+03,1.358662e+03
2.321876e+03,1.360575e+03
2.322840e+03,1.362716e+03
2.323804e+03,1.367192e+03
2.324769e+03,1.378191e+03
2.325733e+03,1.384335e+03
2.326697e+03,1.370617e+03
2.327661e+03,1.363082e+03
2.328625e+03,1.369133e+03
2.329590e+03,1.373799e+03
2.330554e+03,1.368384e+03
2.331518e+03,1.364279e+03
2.332482e+03,1.362976e+03
2.333447e+03,1.362453e+03
2.334411e+03,1.362653e+03
2.335375e+03,1.359646e+03
2.336339e+03,1.353441e+03
2.337303e+03,1.348619e+03
2.338268e+03,1.345416e+03
2.339232e+03,1.348202e+03
2.340196e+03,1.355715e+03
2.341160e+03,1.355926e+03
2.342125e+03,1.344506e+03
2.343089e+03,1.340782e+03
2.344053e+03,1.342150e+03
2.345017e+03,1.348467e+03
2.345982e+03,1.358080e+03
2.346946e+03,1.353124e+03
2.347910e+03,1.341169e+03
2.348874e+03,1.341509e+03
2.349839e+03,1.348059e+03
2.350803e+03,1.339964e+03
2.351767e+03,1.326363e+03
2.352731e+03,1.325618e+03
2.353696e+03,1.332034e+03
2.354660e+03,1.335008e+03
2.355624e+03,1.335438e+03
2.356588e+03,1.336085e+03
2.357552e+03,1.336358e+03
2.358517e+03,1.334292e+03
2.359481e+03,1.333262e+03
2.360445e+03,1.339771e+03
2.361409e+03,1.343819e+03
2.362374e+03,1.340874e+03
2.363338e+03,1.332286e+03
2.364302e+03,1.314577e+03
2.365266e+03,1.304448e+03
2.366230e+03,1.306006e+03
2.367195e+03,1.312289e+03
2.368159e+03,1.323063e+03
2.369123e+03,1.325896e+03
2.370087e+03,1.320033e+03
2.371052e+03,1.312688e+03
2.372016e+03,1.306334e+03
2.372980e+03,1.300729e+03
2.373944e+03,1.295810e+03
2.374909e+03,1.297504e+03
2.375873e+03,1.310419e+03
2.376837e+03,1.317831e+03
2.377801e+03,1.320060e+03
2.378766e+03,1.315079e+03
2.379730e+03,1.303697e+03
2.380694e+03,1.299090e+03
2.381658e+03,1.299776e+03
2.382623e+03,1.300049e+03
2.383587e+03,1.299311e+03
2.384551e+03,1.298844e+03
2.385515e+03,1.296772e+03
2.386479e+03,1.288297e+03
2.387444e+03,1.280654e+03
2.388408e+03,1.289865e+03
2.389372e+03,1.300660e+03
2.390336e+03,1.293629e+03
2.391301e+03,1.284082e+03
2.392265e+03,1.287474e+03
2.393229e+03,1.291627e+03
2.394193e+03,1.289057e+03
2.395157e+03,1.286598e+03
2.396122e+03,1.289688e+03
2.397086e+03,1.292130e+03
2.398050e+03,1.292762e+03
2.399014e+03,1.290803e+03
2.399979e+03,1.284829e+03
2.400943e+03,1.279673e+03
2.401907e+03,1.275672e+03
2.402871e+03,1.271900e+03
2.403836e+03,1.268695e+03
2.404800e+03,1.270917e+03
2.405764e+03,1.277902e+03
2.406728e+03,1.285932e+03
2.407693e+03,1.292050e+03
2.408657e+03,1.287705e+03
2.409621e+03,1.276288e+03
2.410585e+03,1.268923e+03
2.411550e+03,1.266210e+03
2.412514e+03,1.267629e+03
2.413478e+03,1.270335e+03
2.414442e+03,1.265463e+03
2.415406e+03,1.259924e+03
2.416371e+03,1.262341e+03
2.417335e+03,1.266074e+03
2.418299e+03,1.259084e+03
2.419263e+03,1.251827e+03
2.420228e+03,1.249306e+03
2.421192e+03,1.249911e+03
2.422156e+03,1.255076e+03
2.423120e+03,1.260113e+03
2.424084e+03,1.263095e+03
2.425049e+03,1.262746e+03
2.426013e+03,1.259563e+03
2.426977e+03,1.252782e+03
2.427941e+03,1.243610e+03
2.428906e+03,1.240952e+03
2.429870e+03,1.247053e+03
2.430834e+03,1.252680e+03
2.431798e+03,1.257228e+03
2.432763e+03,1.256300e+03
2.433727e+03,1.250182e+03
2.434691e+03,1.245106e+03
2.435655e+03,1.241476e+03
2.436620e+03,1.240488e+03
2.437584e+03,1.241381e+03
2.438548e+03,1.244357e+03
2.439512e+03,1.247115e+03
2.440477e+03,1.247413e+03
2.441441e+03,1.244031e+03
2.442405e+03,1.233360e+03
2.443369e+03,1.224849e+03
2.444333e+03,1.222928e+03
2.445298e+03,1.225262e+03
2.446262e+03,1.235648e+03
2.447226e+03,1.236191e+03
2.448190e+03,1.224376e+03
2.449155e+03,1.214535e+03
2.450119e+03,1.217444e+03
2.451083e+03,1.218194e+03
2.452047e+03,1.216878e+03
2.453011e+03,1.220292e+03
2.453976e+03,1.230968e+03
2.454940e+03,1.233063e+03
2.455904e+03,1.229657e+03
2.456868e+03,1.226642e+03
2.457833e+03,1.223097e+03
2.458797e+03,1.213309e+03
2.459761e+03,1.204566e+03
2.460725e+03,1.207025e+03
2.461690e+03,1.214218e+03
2.462654e+03,1.219276e+03
2.463618e+03,1.222327e+03
2.464582e+03,1.225152e+03
2.465547e+03,1.224835e+03
2.466511e+03,1.212036e+03
2.467475e+03,1.202021e+03
2.468439e+03,1.197787e+03
2.469404e+03,1.199657e+03
2.470368e+03,1.218126e+03
2.471332e+03,1.221765e+03
2.472296e+03,1.210799e+03
2.473260e+03,1.204838e+03
2.474225e+03,1.209589e+03
2.475189e+03,1.199943e+03
2.476153e+03,1.184195e+03
2.477117e+03,1.188712e+03
2.478082e+03,1.206184e+03
2.479046e+03,1.213789e+03
2.480010e+03,1.214852e+03
2.480974e+03,1.214591e+03
2.481938e+03,1.212001e+03
2.482903e+03,1.201638e+03
2.483867e+03,1.193170e+03
2.484831e+03,1.191513e+03
2.485795e+03,1.191145e+03
2.486760e+03,1.188174e+03
2.487724e+03,1.187646e+03
2.488688e+03,1.190803e+03
2.489652e+03,1.192359e+03
2.490617e+03,1.187427e+03
2.491581e+03,1.181944e+03
2.492545e+03,1.177542e+03
2.493509e+03,1.182628e+03
2.494474e+03,1.195920e+03
2.495438e+03,1.196148e+03
2.496402e+03,1.188635e+03
2.497366e+03,1.184265e+03
2.498331e+03,1.182831e+03
2.499295e+03,1.185136e+03
2.500259e+03,1.186643e+03
2.501223e+03,1.185177e+03
2.502188e+03,1.181791e+03
2.503152e+03,1.172832e+03
2.504116e+03,1.171486e+03
2.505080e+03,1.182263e+03
2.506044e+03,1.188523e+03
2.507009e+03,1.172372e+03
2.507973e+03,1.163518e+03
2.508937e+03,1.163449e+03
2.509901e+03,1.167730e+03
2.510865e+03,1.175289e+03
2.511830e+03,1.178272e+03
2.512794e+03,1.176693e+03
2.513758e+03,1.171979e+03
2.514722e+03,1.167001e+03
2.515687e+03,1.167888e+03
2.516651e+03,1.169105e+03
2.517615e+03,1.164481e+03
2.518579e+03,1.158208e+03
2.519544e+03,1.155826e+03
2.520508e+03,1.153178e+03
2.521472e+03,1.148969e+03
2.522436e+03,1.144909e+03
2.523401e+03,1.138786e+03
2.524365e+03,1.144101e+03
2.525329e+03,1.159975e+03
2.526293e+03,1.170175e+03
2.527258e+03,1.172135e+03
2.528222e+03,1.166887e+03
2.529186e+03,1.157756e+03
2.530150e+03,1.155885e+03
2.531115e+03,1.158807e+03
2.532079e+03,1.152175e+03
2.533043e+03,1.146549e+03
2.534007e+03,1.153497e+03
2.534971e+03,1.161888e+03
2.535936e+03,1.159931e+03
2.536900e+03,1.153121e+03
2.537864e+03,1.141676e+03
2.538828e+03,1.138102e+03
2.539792e+03,1.149793e+03
2.540757e+03,1.157323e+03
2.541721e+03,1.158431e+03
2.542685e+03,1.159731e+03
2.543649e+03,1.162402e+03
2.544614e+03,1.157250e+03
2.545578e+03,1.147051e+03
2.546542e+03,1.144885e+03
2.547506e+03,1.146741e+03
2.548471e+03,1.138873e+03
2.549435e+03,1.131767e+03
2.550399e+03,1.137844e+03
2.551363e+03,1.142419e+03
2.552328e+03,1.131584e+03
2.553292e+03,1.122804e+03
2.554256e+03,1.122529e+03
2.555220e+03,1.121211e+03
2.556185e+03,1.116529e+03
2.557149e+03,1.115581e+03
2.558113e+03,1.119319e+03
2.559077e+03,1.119353e+03
2.560042e+03,1.117867e+03
2.561006e+03,1.131722e+03
2.561970e+03,1.151257e+03
2.562934e+03,1.151419e+03
2.563898e+03,1.142419e+03
2.564863e+03,1.132565e+03
2.565827e+03,1.124690e+03
2.566791e+03,1.125406e+03
2.567755e+03,1.125579e+03
2.568719e+03,1.121222e+03
2.569684e+03,1.117577e+03
2.570648e+03,1.117724e+03
2.571612e+03,1.116880e+03
2.572576e+03,1.116703e+03
2.573541e+03,1.123296e+03
2.574505e+03,1.132985e+03
2.575469e+03,1.128552e+03
2.576433e+03,1.117653e+03
2.577398e+03,1.112182e+03
2.578362e+03,1.111448e+03
2.579326e+03,1.121288e+03
2.580290e+03,1.122415e+03
2.581255e+03,1.104905e+03
2.582219e+03,1.093181e+03
2.583183e+03,1.116427e+03
2.584147e+03,1.121492e+03
2.585112e+03,1.108843e+03
2.586076e+03,1.100570e+03
2.587040e+03,1.100304e+03
2.588004e+03,1.104552e+03
2.588969e+03,1.110071e+03
2.589933e+03,1.111689e+03
2.590897e+03,1.111565e+03
2.591861e+03,1.114028e+03
2.592825e+03,1.117243e+03
2.593790e+03,1.121171e+03
2.594754e+03,1.117761e+03
2.595718e+03,1.096314e+03
2.596682e+03,1.085945e+03
2.597646e+03,1.092567e+03
2.598611e+03,1.094075e+03
2.599575e+03,1.089409e+03
2.600539e+03,1.090220e+03
2.601503e+03,1.094980e+03
2.602468e+03,1.093603e+03
2.603432e+03,1.089190e+03
2.604396e+03,1.089723e+03
2.605360e+03,1.091726e+03
2.606325e+03,1.091481e+03
2.607289e+03,1.089308e+03
2.608253e+03,1.085141e+03
2.609217e+03,1.084605e+03
2.610182e+03,1.092042e+03
2.611146e+03,1.086312e+03
2.612110e+03,1.069844e+03
2.613074e+03,1.063328e+03
2.614039e+03,1.068710e+03
2.615003e+03,1.078733e+03
2.615967e+03,1.086852e+03
2.616931e+03,1.084142e+03
2.617896e+03,1.079512e+03
2.618860e+03,1.085613e+03
2.619824e+03,1.089995e+03
2.620788e+03,1.087436e+03
2.621752e+03,1.084884e+03
2.622717e+03,1.087957e+03
2.623681e+03,1.087807e+03
2.624645e+03,1.084109e+03
2.625609e+03,1.080521e+03
2.626573e+03,1.077923e+03
2.627538e+03,1.083304e+03
2.628502e+03,1.088490e+03
2.629466e+03,1.079730e+03
2.630430e+03,1.065650e+03
2.631395e+03,1.050820e+03
2.632359e+03,1.048053e+03
2.633323e+03,1.067517e+03
2.634287e+03,1.077083e+03
2.635252e+03,1.070414e+03
2.636216e+03,1.071722e+03
2.637180e+03,1.083257e+03
2.638144e+03,1.079439e+03
2.639109e+03,1.066526e+03
2.640073e+03,1.065605e+03
2.641037e+03,1.069664e+03
2.642001e+03,1.064262e+03
2.642966e+03,1.059451e+03
2.643930e+03,1.061463e+03
2.644894e+03,1.062194e+03
2.645858e+03,1.050951e+03
2.646823e+03,1.054192e+03
2.647787e+03,1.069798e+03
2.648751e+03,1.070032e+03
2.649715e+03,1.053428e+03
2.650679e+03,1.050816e+03
2.651644e+03,1.055836e+03
2.652608e+03,1.058433e+03
2.653572e+03,1.058715e+03
2.654536e+03,1.057402e+03
2.655500e+03,1.054109e+03
2.656465e+03,1.048527e+03
2.657429e+03,1.041623e+03
2.658393e+03,1.032426e+03
2.659357e+03,1.032659e+03
2.660322e+03,1.043275e+03
2.661286e+03,1.046873e+03
2.662250e+03,1.044974e+03
2.663214e+03,1.041078e+03
2.664179e+03,1.038834e+03
2.665143e+03,1.046783e+03
2.666107e+03,1.051047e+03
2.667071e+03,1.043567e+03
2.668036e+03,1.039736e+03
2.669000e+03,1.050007e+03
2.669964e+03,1.052851e+03
2.670928e+03,1.048192e+03
2.671893e+03,1.040435e+03
2.672857e+03,1.032934e+03
2.673821e+03,1.035856e+03
2.674785e+03,1.041383e+03
2.675750e+03,1.041824e+03
2.676714e+03,1.040174e+03
2.677678e+03,1.038895e+03
2.678642e+03,1.034800e+03
2.679606e+03,1.027059e+03
2.680571e+03,1.024725e+03
2.681535e+03,1.028506e+03
2.682499e+03,1.037316e+03
2.683463e+03,1.047209e+03
2.684427e+03,1.048360e+03
2.685392e+03,1.045168e+03
2.686356e+03,1.044343e+03
2.687320e+03,1.041485e+03
2.688284e+03,1.032275e+03
2.689249e+03,1.022951e+03
2.690213e+03,1.014335e+03
2.691177e+03,1.013059e+03
2.692141e+03,1.023636e+03
2.693106e+03,1.027362e+03
2.694070e+03,1.027128e+03
2.695034e+03,1.030032e+03
2.695998e+03,1.032790e+03
2.696963e+03,1.026254e+03
2.697927e+03,1.022271e+03
2.698891e+03,1.025780e+03
2.699855e+03,1.029417e+03
2.700820e+03,1.030501e+03
2.701784e+03,1.030703e+03
2.702748e+03,1.029716e+03
2.703712e+03,1.029111e+03
2.704677e+03,1.028715e+03
2.705641e+03,1.028867e+03
2.706605e+03,1.030881e+03
2.707569e+03,1.036248e+03
2.708533e+03,1.038874e+03
2.709498e+03,1.036032e+03
2.710462e+03,1.027905e+03
2.711426e+03,1.012145e+03
2.712390e+03,1.008669e+03
2.713354e+03,1.013569e+03
2.714319e+03,1.006406e+03
2.715283e+03,9.951851e+02
2.716247e+03,1.006827e+03
2.717211e+03,1.020677e+03
2.718176e+03,1.022784e+03
2.719140e+03,1.017765e+03
2.720104e+03,1.003853e+03
2.721068e+03,1.001217e+03
2.722033e+03,1.011794e+03
2.722997e+03,1.020278e+03
2.723961e+03,1.024611e+03
2.724925e+03,1.024063e+03
2.725890e+03,1.019170e+03
2.726854e+03,1.003435e+03
2.727818e+03,9.965302e+02
2.728782e+03,1.008913e+03
2.729747e+03,1.018654e+03
2.730711e+03,1.013477e+03
2.731675e+03,1.007214e+03
2.732639e+03,1.001649e+03
2.733604e+03,1.003904e+03
2.734568e+03,1.008718e+03
2.735532e+03,9.995313e+02
2.736496e+03,9.890519e+02
2.737460e+03,9.872874e+02
2.738425e+03,9.890340e+02
2.739389e+03,9.915787e+02
2.740353e+03,9.920244e+02
2.741317e+03,9.904584e+02
2.742281e+03,9.871073e+02
2.743246e+03,9.851232e+02
2.744210e+03,9.978395e+02
2.745174e+03,1.010239e+03
2.746138e+03,1.000773e+03
2.747103e+03,9.937442e+02
2.748067e+03,1.000043e+03
2.749031e+03,1.002054e+03
2.749995e+03,9.864971e+02
2.750960e+03,9.799885e+02
2.751924e+03,9.822976e+02
2.752888e+03,9.949358e+02
2.753852e+03,1.007912e+03
2.754817e+03,9.930234e+02
2.755781e+03,9.828127e+02
2.756745e+03,9.987339e+02
2.757709e+03,1.005079e+03
2.758674e+03,9.897119e+02
2.759638e+03,9.862981e+02
2.760602e+03,9.988570e+02
2.761566e+03,9.938846e+02
2.762531e+03,9.830941e+02
2.763495e+03,9.868881e+02
2.764459e+03,9.911193e+02
2.765423e+03,9.776758e+02
2.766387e+03,9.710974e+02
2.767352e+03,9.768037e+02
2.768316e+03,9.817426e+02
2.769280e+03,9.826611e+02
2.770244e+03,9.678475e+02
2.771208e+03,9.528555e+02
2.772173e+03,9.685755e+02
2.773137e+03,9.908583e+02
2.774101e+03,9.960273e+02
2.775065e+03,9.939266e+02
2.776030e+03,9.849498e+02
2.776994e+03,9.758295e+02
2.777958e+03,9.672645e+02
2.778922e+03,9.642374e+02
2.779887e+03,9.662791e+02
2.780851e+03,9.760297e+02
2.781815e+03,9.798022e+02
2.782779e+03,9.698605e+02
2.783744e+03,9.581299e+02
2.784708e+03,9.483660e+02
2.785672e+03,9.513221e+02
2.786636e+03,9.653726e+02
2.787601e+03,9.704415e+02
2.788565e+03,9.704222e+02
2.789529e+03,9.792577e+02
2.790493e+03,9.851127e+02
2.791458e+03,9.724808e+02
2.792422e+03,9.601661e+02
2.793386e+03,9.537065e+02
2.794350e+03,9.471787e+02
2.795314e+03,9.387003e+02
2.796279e+03,9.450900e+02
2.797243e+03,9.569258e+02
2.798207e+03,9.609073e+02
2.799171e+03,9.620264e+02
2.800135e+03,9.654485e+02
2.801100e+03,9.653923e+02
2.802064e+03,9.607635e+02
2.803028e+03,9.621326e+02
2.803992e+03,9.678334e+02
2.804957e+03,9.646766e+02
2.805921e+03,9.604990e+02
2.806885e+03,9.751114e+02
2.807849e+03,9.854099e+02
2.808814e+03,9.811173e+02
2.809778e+03,9.679270e+02
2.810742e+03,9.434536e+02
2.811706e+03,9.464132e+02
2.812671e+03,9.656893e+02
2.813635e+03,9.619249e+02
2.814599e+03,9.474962e+02
2.815563e+03,9.474650e+02
2.816528e+03,9.508508e+02
2.817492e+03,9.532112e+02
2.818456e+03,9.591473e+02
2.819420e+03,9.670651e+02
2.820385e+03,9.674589e+02
2.821349e+03,9.615986e+02
2.822313e+03,9.494357e+02
2.823277e+03,9.404091e+02
2.824241e+03,9.396907e+02
2.825206e+03,9.477305e+02
2.826170e+03,9.705827e+02
2.827134e+03,9.708611e+02
2.828098e+03,9.481787e+02
2.829063e+03,9.445898e+02
2.830027e+03,9.518099e+02
2.830991e+03,9.531355e+02
2.831955e+03,9.524788e+02
2.832919e+03,9.502869e+02
2.833884e+03,9.433518e+02
2.834848e+03,9.322230e+02
2.835812e+03,9.359387e+02
2.836776e+03,9.527902e+02
2.837741e+03,9.559279e+02
2.838705e+03,9.514949e+02
2.839669e+03,9.448128e+02
2.840633e+03,9.436025e+02
2.841598e+03,9.528420e+02
2.842562e+03,9.569023e+02
2.843526e+03,9.525384e+02
2.844490e+03,9.510686e+02
2.845455e+03,9.491375e+02
2.846419e+03,9.392154e+02
2.847383e+03,9.345245e+02
2.848347e+03,9.622265e+02
2.849312e+03,9.705458e+02
2.850276e+03,9.510279e+02
2.851240e+03,9.407797e+02
2.852204e+03,9.405167e+02
2.853168e+03,9.353744e+02
2.854133e+03,9.319339e+02
2.855097e+03,9.432117e+02
2.856061e+03,9.536744e+02
2.857025e+03,9.570649e+02
2.857990e+03,9.592618e+02
2.858954e+03,9.625214e+02
2.859918e+03,9.419639e+02
2.860882e+03,9.203995e+02
2.861846e+03,9.352857e+02
2.862811e+03,9.572645e+02
2.863775e+03,9.598795e+02
2.864739e+03,9.557074e+02
2.865703e+03,9.468544e+02
2.866668e+03,9.581234e+02
2.867632e+03,9.783700e+02
2.868596e+03,9.735394e+02
2.869560e+03,9.590671e+02
2.870525e+03,9.504174e+02
2.871489e+03,9.471868e+02
2.872453e+03,9.484297e+02
2.873417e+03,9.559565e+02
2.874382e+03,9.664755e+02
2.875346e+03,9.633015e+02
2.876310e+03,9.556638e+02
2.877274e+03,9.556259e+02
2.878239e+03,9.558641e+02
2.879203e+03,9.527626e+02
2.880167e+03,9.503280e+02
2.881131e+03,9.509407e+02
2.882095e+03,9.543675e+02
2.883060e+03,9.611329e+02
2.884024e+03,9.726196e+02
2.884988e+03,9.792689e+02
2.885952e+03,9.692589e+02
2.886917e+03,9.657639e+02
2.887881e+03,9.756129e+02
2.888845e+03,9.777414e+02
2.889809e+03,9.737092e+02
2.890773e+03,9.648549e+02
2.891738e+03,9.579586e+02
2.892702e+03,9.674226e+02
2.893666e+03,9.711031e+02
2.894630e+03,9.654557e+02
2.895595e+03,9.645836e+02
2.896559e+03,9.680263e+02
2.897523e+03,9.720001e+02
2.898487e+03,9.722327e+02
2.899452e+03,9.587440e+02
2.900416e+03,9.524618e+02
2.901380e+03,9.567339e+02
2.902344e+03,9.533705e+02
2.903309e+03,9.418524e+02
2.904273e+03,9.545082e+02
2.905237e+03,9.682797e+02
2.906201e+03,9.576569e+02
2.907166e+03,9.434206e+02
2.908130e+03,9.346888e+02
2.909094e+03,9.367590e+02
2.910058e+03,9.483723e+02
2.911022e+03,9.463410e+02
2.911987e+03,9.363733e+02
2.912951e+03,9.226420e+02
2.913915e+03,9.166747e+02
2.914879e+03,9.305810e+02
2.915844e+03,9.385344e+02
2.916808e+03,9.362331e+02
2.917772e+03,9.113348e+02
2.918736e+03,8.885488e+02
2.919700e+03,9.103397e+02
2.920665e+03,9.326116e+02
2.921629e+03,9.198102e+02
2.922593e+03,9.214344e+02
2.923557e+03,9.348570e+02
2.924522e+03,9.294369e+02
2.925486e+03,9.160466e+02
2.926450e+03,9.224304e+02
2.927414e+03,9.322535e+02
2.928379e+03,9.393968e+02
2.929343e+03,9.466949e+02
2.930307e+03,9.510576e+02
2.931271e+03,9.271188e+02
2.932236e+03,8.955422e+02
2.933200e+03,8.900198e+02
2.934164e+03,8.971357e+02
2.935128e+03,9.111174e+02
2.936093e+03,9.139227e+02
2.937057e+03,9.069464e+02
2.938021e+03,9.030953e+02
2.938985e+03,9.042529e+02
2.939949e+03,9.163926e+02
2.940914e+03,9.183673e+02
2.941878e+03,9.044240e+02
2.942842e+03,9.033138e+02
2.943806e+03,9.169977e+02
2.944771e+03,9.175968e+02
2.945735e+03,9.117528e+02
2.946699e+03,9.061112e+02
2.947663e+03,9.081728e+02
2.948627e+03,9.179813e+02
2.949592e+03,9.198009e+02
2.950556e+03,9.125016e+02
2.951520e+03,9.079421e+02
2.952484e+03,9.062822e+02
2.953449e+03,9.092259e+02
2.954413e+03,9.069767e+02
2.955377e+03,8.962440e+02
2.956341e+03,9.009376e+02
2.957306e+03,9.172689e+02
2.958270e+03,9.046625e+02
2.959234e+03,8.898702e+02
2.960198e+03,8.978422e+02
2.961163e+03,9.030080e+02
2.962127e+03,8.899130e+02
2.963091e+03,8.874019e+02
2.964055e+03,8.941198e+02
2.965020e+03,9.038661e+02
2.965984e+03,9.087167e+02
2.966948e+03,9.013595e+02
2.967912e+03,8.940316e+02
2.968876e+03,8.924095e+02
2.969841e+03,8.853394e+02
2.970805e+03,8.777951e+02
2.971769e+03,8.838428e+02
2.972733e+03,8.821292e+02
2.973698e+03,8.546878e+02
2.974662e+03,8.394591e+02
2.975626e+03,8.477874e+02
2.976590e+03,8.606496e+02
2.977554e+03,8.708033e+02
2.978519e+03,8.689189e+02
2.979483e+03,8.590541e+02
2.980447e+03,8.413443e+02
2.981411e+03,8.444013e+02
2.982376e+03,8.680068e+02
2.983340e+03,8.717478e+02
2.984304e+03,8.607374e+02
2.985268e+03,8.386782e+02
2.986233e+03,8.316340e+02
2.987197e+03,8.619470e+02
2.988161e+03,8.618099e+02
2.989125e+03,8.420002e+02
2.990090e+03,8.500455e+02
2.991054e+03,8.607411e+02
2.992018e+03,8.536942e+02
2.992982e+03,8.393456e+02
2.993947e+03,8.191858e+02
2.994911e+03,8.311653e+02
2.995875e+03,8.567673e+02
2.996839e+03,8.644528e+02
2.997803e+03,8.561368e+02
2.998768e+03,8.327604e+02
2.999732e+03,8.283466e+02
3.000696e+03,8.478964e+02
3.001660e+03,8.370176e+02
3.002625e+03,8.321944e+02
3.003589e+03,8.749489e+02
3.004553e+03,8.896004e+02
3.005517e+03,8.388330e+02
3.006481e+03,8.248274e+02
3.007446e+03,8.435616e+02
3.008410e+03,8.398603e+02
3.009374e+03,8.423018e+02
3.010338e+03,8.702935e+02
3.011303e+03,8.792782e+02
3.012267e+03,8.533603e+02
3.013231e+03,8.445833e+02
3.014195e+03,8.455609e+02
3.015160e+03,8.377910e+02
3.016124e+03,8.399078e+02
3.017088e+03,8.564645e+02
3.018052e+03,8.645148e+02
3.019017e+03,8.597855e+02
3.019981e+03,8.457645e+02
3.020945e+03,8.320311e+02
3.021909e+03,8.250205e+02
3.022874e+03,8.295515e+02
3.023838e+03,8.426047e+02
3.024802e+03,8.467547e+02
3.025766e+03,8.419763e+02
3.026730e+03,8.251003e+02
3.027695e+03,8.096973e+02
3.028659e+03,8.009427e+02
3.029623e+03,8.231254e+02
3.030587e+03,8.641116e+02
3.031552e+03,8.557203e+02
3.032516e+03,8.319890e+02
3.033480e+03,8.315584e+02
3.034444e+03,8.385139e+02
3.035408e+03,8.481467e+02
3.036373e+03,8.469408e+02
3.037337e+03,8.397659e+02
3.038301e+03,8.469216e+02
3.039265e+03,8.515315e+02
3.040230e+03,8.411614e+02
3.041194e+03,8.252928e+02
3.042158e+03,8.108906e+02
3.043122e+03,8.200649e+02
3.044087e+03,8.350317e+02
3.045051e+03,8.296621e+02
3.046015e+03,8.244043e+02
3.046979e+03,8.251599e+02
3.047944e+03,8.106111e+02
3.048908e+03,8.020076e+02
3.049872e+03,8.355075e+02
3.050836e+03,8.541311e+02
3.051801e+03,8.113774e+02
3.052765e+03,8.186338e+02
3.053729e+03,8.682917e+02
3.054693e+03,8.477921e+02
3.055657e+03,8.222936e+02
3.056622e+03,8.375710e+02
3.057586e+03,8.505013e+02
3.058550e+03,8.478477e+02
3.059514e+03,8.432516e+02
3.060479e+03,8.374443e+02
3.061443e+03,8.291631e+02
3.062407e+03,8.162236e+02
3.063371e+03,7.992961e+02
3.064335e+03,8.017884e+02
3.065300e+03,8.185884e+02
3.066264e+03,8.208844e+02
3.067228e+03,8.197000e+02
3.068192e+03,8.194966e+02
3.069157e+03,8.296165e+02
3.070121e+03,8.462697e+02
3.071085e+03,8.559201e+02
3.072049e+03,8.544089e+02
3.073014e+03,8.217034e+02
3.073978e+03,8.051182e+02
3.074942e+03,8.145251e+02
3.075906e+03,8.180712e+02
3.076871e+03,8.168077e+02
3.077835e+03,8.134930e+02
3.078799e+03,8.156432e+02
3.079763e+03,8.296197e+02
3.080728e+03,8.428884e+02
3.081692e+03,8.509539e+02
3.082656e+03,8.408796e+02
3.083620e+03,8.306224e+02
3.084584e+03,8.308610e+02
3.085549e+03,8.295977e+02
3.086513e+03,8.244859e+02
3.087477e+03,8.101932e+02
3.088441e+03,8.039297e+02
3.089406e+03,8.351014e+02
3.090370e+03,8.421752e+02
3.091334e+03,8.206180e+02
3.092298e+03,8.099451e+02
3.093262e+03,8.083679e+02
3.094227e+03,8.080695e+02
3.095191e+03,8.100433e+02
3.096155e+03,8.150255e+02
3.097119e+03,8.273608e+02
3.098084e+03,8.411231e+02
3.099048e+03,8.424239e+02
3.100012e+03,8.440259e+02
3.100976e+03,8.591572e+02
3.101941e+03,8.515993e+02
3.102905e+03,8.257952e+02
3.103869e+03,8.309659e+02
3.104833e+03,8.307106e+02
3.105798e+03,8.026481e+02
3.106762e+03,7.864523e+02
3.107726e+03,7.917152e+02
3.108690e+03,8.218034e+02
3.109655e+03,8.464415e+02
3.110619e+03,8.169345e+02
3.111583e+03,8.092347e+02
3.112547e+03,8.296934e+02
3.113511e+03,8.258304e+02
3.114476e+03,8.111181e+02
3.115440e+03,8.276635e+02
3.116404e+03,8.323220e+02
3.117368e+03,8.066146e+02
3.118333e+03,8.030065e+02
3.119297e+03,8.095854e+02
3.120261e+03,8.024583e+02
3.121225e+03,7.990959e+02
3.122189e+03,8.091376e+02
3.123154e+03,8.146143e+02
3.124118e+03,8.150580e+02
3.125082e+03,8.230960e+02
3.126046e+03,8.282775e+02
3.127011e+03,8.254110e+02
3.127975e+03,8.137129e+02
3.128939e+03,8.000765e+02
3.129903e+03,8.224633e+02
3.130868e+03,8.426810e+02
3.131832e+03,8.131559e+02
3.132796e+03,8.120099e+02
3.133760e+03,8.357948e+02
3.134725e+03,8.314061e+02
3.135689e+03,8.233532e+02
3.136653e+03,8.376493e+02
3.137617e+03,8.393563e+02
3.138582e+03,8.186903e+02
3.139546e+03,8.261486e+02
3.140510e+03,8.372269e+02
3.141474e+03,8.258952e+02
3.142438e+03,8.173441e+02
3.143403e+03,8.169512e+02
3.144367e+03,8.297653e+02
3.145331e+03,8.402935e+02
3.146295e+03,8.138997e+02
3.147260e+03,7.920015e+02
3.148224e+03,7.846366e+02
3.149188e+03,8.011915e+02
3.150152e+03,8.139688e+02
3.151116e+03,7.865093e+02
3.152081e+03,7.641656e+02
3.153045e+03,7.650922e+02
3.154009e+03,7.793359e+02
3.154973e+03,8.010989e+02
3.155938e+03,8.241712e+02
3.156902e+03,8.329443e+02
3.157866e+03,8.246833e+02
3.158830e+03,8.272499e+02
3.159795e+03,8.335923e+02
3.160759e+03,8.054894e+02
3.161723e+03,7.856486e+02
3.162687e+03,8.107842e+02
3.163652e+03,8.002221e+02
3.164616e+03,7.782642e+02
3.165580e+03,7.937130e+02
3.166544e+03,8.037924e+02
3.167509e+03,7.918240e+02
3.168473e+03,7.787003e+02
3.169437e+03,7.712027e+02
3.170401e+03,7.856518e+02
3.171365e+03,7.981670e+02
3.172330e+03,7.987567e+02
3.173294e+03,8.072828e+02
3.174258e+03,8.177172e+02
3.175222e+03,8.130352e+02
3.176187e+03,8.110432e+02
3.177151e+03,8.275159e+02
3.178115e+03,8.097460e+02
3.179079e+03,7.754245e+02
3.180043e+03,7.854313e+02
3.181008e+03,8.132910e+02
3.181972e+03,8.454685e+02
3.182936e+03,8.378609e+02
3.183900e+03,8.059248e+02
3.184865e+03,7.975130e+02
3.185829e+03,7.971701e+02
3.186793e+03,8.026570e+02
3.187757e+03,8.117219e+02
3.188722e+03,8.198865e+02
3.189686e+03,8.203692e+02
3.190650e+03,8.123841e+02
3.191614e+03,7.972693e+02
3.192579e+03,8.018367e+02
3.193543e+03,8.159773e+02
3.194507e+03,7.931975e+02
3.195471e+03,7.903695e+02
3.196436e+03,8.331115e+02
3.197400e+03,8.489524e+02
3.198364e+03,8.448298e+02
3.199328e+03,8.421444e+02
3.200292e+03,8.374305e+02
3.201257e+03,0.000000e+00
3.202221e+03,0.000000e+00
3.203185e+03,0.000000e+00
3.204149e+03,0.000000e+00
3.205114e+03,0.000000e+00
3.206078e+03,0.000000e+00
3.207042e+03,0.000000e+00
3.208006e+03,0.000000e+00
3.208970e+03,0.000000e+00
3.209935e+03,0.000000e+00
3.210899e+03,0.000000e+00
3.211863e+03,0.000000e+00
3.212827e+03,0.000000e+00
3.213792e+03,0.000000e+00
3.214756e+03,0.000000e+00
3.215720e+03,0.000000e+00
3.216684e+03,0.000000e+00
3.217649e+03,0.000000e+00
3.218613e+03,0.000000e+00
3.219577e+03,0.000000e+00
3.220541e+03,0.000000e+00
3.221506e+03,0.000000e+00
3.222470e+03,0.000000e+00
3.223434e+03,0.000000e+00
3.224398e+03,0.000000e+00
3.225363e+03,0.000000e+00
3.226327e+03,0.000000e+00
3.227291e+03,0.000000e+00
3.228255e+03,0.000000e+00
3.229219e+03,0.000000e+00
3.230184e+03,0.000000e+00
3.231148e+03,0.000000e+00
3.232112e+03,0.000000e+00
3.233076e+03,0.000000e+00
3.234041e+03,0.000000e+00
3.235005e+03,0.000000e+00
3.235969e+03,0.000000e+00
3.236933e+03,0.000000e+00
3.237897e+03,0.000000e+00
3.238862e+03,0.000000e+00
3.239826e+03,0.000000e+00
3.240790e+03,0.000000e+00
3.241754e+03,0.000000e+00
3.242719e+03,0.000000e+00
3.243683e+03,0.000000e+00
3.244647e+03,0.000000e+00
3.245611e+03,0.000000e+00
3.246576e+03,0.000000e+00
3.247540e+03,0.000000e+00
3.248504e+03,0.000000e+00
3.249468e+03,0.000000e+00
3.250433e+03,0.000000e+00
3.251397e+03,0.000000e+00
3.252361e+03,0.000000e+00
3.253325e+03,0.000000e+00
3.254290e+03,0.000000e+00
3.255254e+03,0.000000e+00
3.256218e+03,0.000000e+00
3.257182e+03,0.000000e+00
3.258146e+03,0.000000e+00
3.259111e+03,0.000000e+00
3.260075e+03,0.000000e+00
3.261039e+03,0.000000e+00
3.262003e+03,0.000000e+00
3.262968e+03,0.000000e+00
3.263932e+03,0.000000e+00
3.264896e+03,0.000000e+00
3.265860e+03,0.000000e+00
3.266824e+03,0.000000e+00
3.267789e+03,0.000000e+00
3.268753e+03,0.000000e+00
3.269717e+03,0.000000e+00
3.270681e+03,0.000000e+00
3.271646e+03,0.000000e+00
3.272610e+03,0.000000e+00
3.273574e+03,0.000000e+00
3.274538e+03,0.000000e+00
3.275503e+03,0.000000e+00
3.276467e+03,0.000000e+00
3.277431e+03,0.000000e+00
3.278395e+03,0.000000e+00
3.279360e+03,0.000000e+00
3.280324e+03,0.000000e+00
3.281288e+03,0.000000e+00
3.282252e+03,0.000000e+00
3.283217e+03,0.000000e+00
3.284181e+03,0.000000e+00
3.285145e+03,0.000000e+00
3.286109e+03,0.000000e+00
3.287073e+03,0.000000e+00
3.288038e+03,0.000000e+00
3.289002e+03,0.000000e+00
3.289966e+03,0.000000e+00
3.290930e+03,0.000000e+00
3.291895e+03,0.000000e+00
3.292859e+03,0.000000e+00
3.293823e+03,0.000000e+00
3.294787e+03,0.000000e+00
3.295751e+03,0.000000e+00
3.296716e+03,0.000000e+00
3.297680e+03,0.000000e+00
3.298644e+03,0.000000e+00
3.299608e+03,0.000000e+00
3.300573e+03,0.000000e+00
3.301537e+03,0.000000e+00
3.302501e+03,0.000000e+00
3.303465e+03,0.000000e+00
3.304430e+03,0.000000e+00
3.305394e+03,0.000000e+00
3.306358e+03,0.000000e+00
3.307322e+03,0.000000e+00
3.308287e+03,0.000000e+00
3.309251e+03,0.000000e+00
3.310215e+03,0.000000e+00
3.311179e+03,0.000000e+00
3.312144e+03,0.000000e+00
3.313108e+03,0.000000e+00
3.314072e+03,0.000000e+00
3.315036e+03,0.000000e+00
3.316000e+03,0.000000e+00
3.316965e+03,0.000000e+00
3.317929e+03,0.000000e+00
3.318893e+03,0.000000e+00
3.319857e+03,0.000000e+00
3.320822e+03,0.000000e+00
3.321786e+03,0.000000e+00
3.322750e+03,0.000000e+00
3.323714e+03,0.000000e+00
3.324678e+03,0.000000e+00
3.325643e+03,0.000000e+00
3.326607e+03,0.000000e+00
3.327571e+03,0.000000e+00
3.328535e+03,0.000000e+00
3.329500e+03,0.000000e+00
3.330464e+03,0.000000e+00
3.331428e+03,0.000000e+00
3.332392e+03,0.000000e+00
3.333357e+03,0.000000e+00
3.334321e+03,0.000000e+00
3.335285e+03,0.000000e+00
3.336249e+03,0.000000e+00
3.337214e+03,0.000000e+00
3.338178e+03,0.000000e+00
3.339142e+03,0.000000e+00
3.340106e+03,0.000000e+00
3.341071e+03,0.000000e+00
3.342035e+03,0.000000e+00
3.342999e+03,0.000000e+00
3.343963e+03,0.000000e+00
3.344927e+03,0.000000e+00
3.345892e+03,0.000000e+00
3.346856e+03,0.000000e+00
3.347820e+03,0.000000e+00
3.348784e+03,0.000000e+00
3.349749e+03,0.000000e+00
3.350713e+03,0.000000e+00
3.351677e+03,0.000000e+00
3.352641e+03,0.000000e+00
3.353605e+03,0.000000e+00
3.354570e+03,0.000000e+00
3.355534e+03,0.000000e+00
3.356498e+03,0.000000e+00
3.357462e+03,0.000000e+00
3.358427e+03,0.000000e+00
3.359391e+03,0.000000e+00
3.360355e+03,0.000000e+00
3.361319e+03,0.000000e+00
3.362284e+03,0.000000e+00
3.363248e+03,0.000000e+00
3.364212e+03,0.000000e+00
3.365176e+03,0.000000e+00
3.366141e+03,0.000000e+00
3.367105e+03,0.000000e+00
3.368069e+03,0.000000e+00
3.369033e+03,0.000000e+00
3.369998e+03,0.000000e+00
3.370962e+03,0.000000e+00
3.371926e+03,0.000000e+00
3.372890e+03,0.000000e+00
3.373854e+03,0.000000e+00
3.374819e+03,0.000000e+00
3.375783e+03,0.000000e+00
3.376747e+03,0.000000e+00
3.377711e+03,0.000000e+00
3.378676e+03,0.000000e+00
3.379640e+03,0.000000e+00
3.380604e+03,0.000000e+00
3.381568e+03,0.000000e+00
3.382532e+03,0.000000e+00
3.383497e+03,0.000000e+00
3.384461e+03,0.000000e+00
3.385425e+03,0.000000e+00
3.386389e+03,0.000000e+00
3.387354e+03,0.000000e+00
3.388318e+03,0.000000e+00
3.389282e+03,0.000000e+00
3.390246e+03,0.000000e+00
3.391211e+03,0.000000e+00
3.392175e+03,0.000000e+00
3.393139e+03,0.000000e+00
3.394103e+03,0.000000e+00
3.395068e+03,0.000000e+00
3.396032e+03,0.000000e+00
3.396996e+03,0.000000e+00
3.397960e+03,0.000000e+00
3.398925e+03,0.000000e+00
3.399889e+03,0.000000e+00
3.400853e+03,0.000000e+00
3.401817e+03,0.000000e+00
3.402781e+03,0.000000e+00
3.403746e+03,0.000000e+00
3.404710e+03,0.000000e+00
3.405674e+03,0.000000e+00
3.406638e+03,0.000000e+00
3.407603e+03,0.000000e+00
3.408567e+03,0.000000e+00
3.409531e+03,0.000000e+00
3.410495e+03,0.000000e+00
3.411459e+03,0.000000e+00
3.412424e+03,0.000000e+00
3.413388e+03,0.000000e+00
3.414352e+03,0.000000e+00
3.415316e+03,0.000000e+00
3.416281e+03,0.000000e+00
3.417245e+03,0.000000e+00
3.418209e+03,0.000000e+00
3.419173e+03,0.000000e+00
3.420138e+03,0.000000e+00
3.421102e+03,0.000000e+00
3.422066e+03,0.000000e+00
3.423030e+03,0.000000e+00
3.423995e+03,0.000000e+00
3.424959e+03,0.000000e+00
3.425923e+03,0.000000e+00
3.426887e+03,0.000000e+00
3.427852e+03,0.000000e+00
3.428816e+03,0.000000e+00
3.429780e+03,0.000000e+00
3.430744e+03,0.000000e+00
3.431708e+03,0.000000e+00
3.432673e+03,0.000000e+00
3.433637e+03,0.000000e+00
3.434601e+03,0.000000e+00
3.435565e+03,0.000000e+00
3.436530e+03,0.000000e+00
3.437494e+03,0.000000e+00
3.438458e+03,0.000000e+00
3.439422e+03,0.000000e+00
3.440386e+03,0.000000e+00
3.441351e+03,0.000000e+00
3.442315e+03,0.000000e+00
3.443279e+03,0.000000e+00
3.444243e+03,0.000000e+00
3.445208e+03,0.000000e+00
3.446172e+03,0.000000e+00
3.447136e+03,0.000000e+00
3.448100e+03,0.000000e+00
3.449065e+03,0.000000e+00
3.450029e+03,0.000000e+00
3.450993e+03,0.000000e+00
3.451957e+03,0.000000e+00
3.452922e+03,0.000000e+00
3.453886e+03,0.000000e+00
3.454850e+03,0.000000e+00
3.455814e+03,0.000000e+00
3.456779e+03,0.000000e+00
3.457743e+03,0.000000e+00
3.458707e+03,0.000000e+00
3.459671e+03,0.000000e+00
3.460635e+03,0.000000e+00
3.461600e+03,0.000000e+00
3.462564e+03,0.000000e+00
3.463528e+03,0.000000e+00
3.464492e+03,0.000000e+00
3.465457e+03,0.000000e+00
3.466421e+03,0.000000e+00
3.467385e+03,0.000000e+00
3.468349e+03,0.000000e+00
3.469313e+03,0.000000e+00
3.470278e+03,0.000000e+00
3.471242e+03,0.000000e+00
3.472206e+03,0.000000e+00
3.473170e+03,0.000000e+00
3.474135e+03,0.000000e+00
3.475099e+03,0.000000e+00
3.476063e+03,0.000000e+00
3.477027e+03,0.000000e+00
3.477992e+03,0.000000e+00
3.478956e+03,0.000000e+00
3.479920e+03,0.000000e+00
3.480884e+03,0.000000e+00
3.481849e+03,0.000000e+00
3.482813e+03,0.000000e+00
3.483777e+03,0.000000e+00
3.484741e+03,0.000000e+00
3.485706e+03,0.000000e+00
3.486670e+03,0.000000e+00
3.487634e+03,0.000000e+00
3.488598e+03,0.000000e+00
3.489563e+03,0.000000e+00
3.490527e+03,0.000000e+00
3.491491e+03,0.000000e+00
3.492455e+03,0.000000e+00
3.493419e+03,0.000000e+00
3.494384e+03,0.000000e+00
3.495348e+03,0.000000e+00
3.496312e+03,0.000000e+00
3.497276e+03,0.000000e+00
3.498240e+03,0.000000e+00
3.499205e+03,0.000000e+00
3.500169e+03,0.000000e+00
