9.931763e+01,0.000000e+00
1.002819e+02,0.000000e+00
1.012461e+02,0.000000e+00
1.022103e+02,0.000000e+00
1.031746e+02,0.000000e+00
1.041388e+02,0.000000e+00
1.051030e+02,0.000000e+00
1.060673e+02,0.000000e+00
1.070315e+02,0.000000e+00
1.079957e+02,0.000000e+00
1.089600e+02,0.000000e+00
1.099242e+02,0.000000e+00
1.108884e+02,0.000000e+00
1.118527e+02,0.000000e+00
1.128169e+02,0.000000e+00
1.137811e+02,0.000000e+00
1.147454e+02,0.000000e+00
1.157096e+02,0.000000e+00
1.166738e+02,0.000000e+00
1.176381e+02,0.000000e+00
1.186023e+02,0.000000e+00
1.195665e+02,0.000000e+00
1.205308e+02,0.000000e+00
1.214950e+02,0.000000e+00
1.224592e+02,0.000000e+00
1.234235e+02,0.000000e+00
1.243877e+02,0.000000e+00
1.253519e+02,0.000000e+00
1.263162e+02,0.000000e+00
1.272804e+02,0.000000e+00
1.282446e+02,0.000000e+00
1.292089e+02,0.000000e+00
1.301731e+02,0.000000e+00
1.311373e+02,0.000000e+00
1.321016e+02,0.000000e+00
1.330658e+02,0.000000e+00
1.340300e+02,0.000000e+00
1.349943e+02,0.000000e+00
1.359585e+02,0.000000e+00
1.369227e+02,0.000000e+00
1.378870e+02,0.000000e+00
1.388512e+02,0.000000e+00
1.398154e+02,0.000000e+00
1.407797e+02,0.000000e+00
1.417439e+02,0.000000e+00
1.427081e+02,0.000000e+00
1.436724e+02,0.000000e+00
1.446366e+02,0.000000e+00
1.456008e+02,0.000000e+00
1.465651e+02,0.000000e+00
1.475293e+02,0.000000e+00
1.484935e+02,0.000000e+00
1.494578e+02,0.000000e+00
1.504220e+02,0.000000e+00
1.513862e+02,0.000000e+00
1.523505e+02,0.000000e+00
1.533147e+02,0.000000e+00
1.542789e+02,0.000000e+00
1.552432e+02,0.000000e+00
1.562074e+02,0.000000e+00
1.571716e+02,0.000000e+00
1.581359e+02,0.000000e+00
1.591001e+02,0.000000e+00
1.600643e+02,0.000000e+00
1.610286e+02,0.000000e+00
1.619928e+02,0.000000e+00
1.629570e+02,0.000000e+00
1.639213e+02,0.000000e+00
1.648855e+02,0.000000e+00
1.658497e+02,0.000000e+00
1.668140e+02,0.000000e+00
1.677782e+02,0.000000e+00
1.687424e+02,0.000000e+00
1.697067e+02,0.000000e+00
1.706709e+02,0.000000e+00
1.716351e+02,0.000000e+00
1.725994e+02,0.000000e+00
1.735636e+02,0.000000e+00
1.745278e+02,0.000000e+00
1.754921e+02,0.000000e+00
1.764563e+02,0.000000e+00
1.774205e+02,0.000000e+00
1.783848e+02,0.000000e+00
1.793490e+02,0.000000e+00
1.803132e+02,0.000000e+00
1.812775e+02,0.000000e+00
1.822417e+02,0.000000e+00
1.832059e+02,0.000000e+00
1.841702e+02,0.000000e+00
1.851344e+02,0.000000e+00
1.860986e+02,0.000000e+00
1.870629e+02,0.000000e+00
1.880271e+02,0.000000e+00
1.889913e+02,0.000000e+00
1.899556e+02,0.000000e+00
1.909198e+02,0.000000e+00
1.918840e+02,0.000000e+00
1.928483e+02,0.000000e+00
1.938125e+02,0.000000e+00
1.947767e+02,0.000000e+00
1.957410e+02,0.000000e+00
1.967052e+02,0.000000e+00
1.976694e+02,0.000000e+00
1.986337e+02,0.000000e+00
1.995979e+02,3.645944e+03
2.005621e+02,3.637277e+03
2.015264e+02,3.633867e+03
2.024906e+02,3.643696e+03
2.034548e+02,3.652093e+03
2.044191e+02,3.653001e+03
2.053833e+02,3.647126e+03
2.063475e+02,3.640287e+03
2.073118e+02,3.639904e+03
2.082760e+02,3.649667e+03
2.092402e+02,3.654486e+03
2.102045e+02,3.651671e+03
2.111687e+02,3.647174e+03
2.121329e+02,3.644798e+03
2.130972e+02,3.645673e+03
2.140614e+02,3.647790e+03
2.150256e+02,3.647241e+03
2.159899e+02,3.641831e+03
2.169541e+02,3.637878e+03
2.179183e+02,3.639254e+03
2.188826e+02,3.644505e+03
2.198468e+02,3.649614e+03
2.208110e+02,3.650616e+03
2.217753e+02,3.647223e+03
2.227395e+02,3.645066e+03
2.237037e+02,3.648856e+03
2.246680e+02,3.654576e+03
2.256322e+02,3.657689e+03
2.265964e+02,3.657905e+03
2.275607e+02,3.657409e+03
2.285249e+02,3.658688e+03
2.294892e+02,3.662312e+03
2.304534e+02,3.665310e+03
2.314176e+02,3.662134e+03
2.323819e+02,3.653680e+03
2.333461e+02,3.646787e+03
2.343103e+02,3.644141e+03
2.352746e+02,3.645223e+03
2.362388e+02,3.649256e+03
2.372030e+02,3.656762e+03
2.381673e+02,3.662996e+03
2.391315e+02,3.661313e+03
2.400957e+02,3.647443e+03
2.410600e+02,3.635370e+03
2.420242e+02,3.632550e+03
2.429884e+02,3.638042e+03
2.439527e+02,3.645927e+03
2.449169e+02,3.651361e+03
2.458811e+02,3.653236e+03
2.468454e+02,3.655861e+03
2.478096e+02,3.660867e+03
2.487738e+02,3.665637e+03
2.497381e+02,3.668173e+03
2.507023e+02,3.668170e+03
2.516665e+02,3.666796e+03
2.526308e+02,3.665589e+03
2.535950e+02,3.662671e+03
2.545592e+02,3.659020e+03
2.555235e+02,3.655228e+03
2.564877e+02,3.651630e+03
2.574519e+02,3.649021e+03
2.584161e+02,3.648524e+03
2.593804e+02,3.650391e+03
2.603446e+02,3.651642e+03
2.613088e+02,3.648095e+03
2.622731e+02,3.645454e+03
2.632373e+02,3.645974e+03
2.642015e+02,3.648506e+03
2.651658e+02,3.650364e+03
2.661300e+02,3.649580e+03
2.670942e+02,3.646683e+03
2.680585e+02,3.645057e+03
2.690227e+02,3.646833e+03
2.699869e+02,3.649103e+03
2.709512e+02,3.649451e+03
2.719154e+02,3.647854e+03
2.728796e+02,3.645760e+03
2.738439e+02,3.645000e+03
2.748081e+02,3.646666e+03
2.757723e+02,3.650054e+03
2.767366e+02,3.651222e+03
2.777008e+02,3.649427e+03
2.786650e+02,3.648314e+03
2.796293e+02,3.651384e+03
2.805935e+02,3.657066e+03
2.815577e+02,3.661701e+03
2.825220e+02,3.664134e+03
2.834862e+02,3.664575e+03
2.844504e+02,3.663947e+03
2.854147e+02,3.663215e+03
2.863789e+02,3.661990e+03
2.873431e+02,3.661348e+03
2.883074e+02,3.661444e+03
2.892716e+02,3.661121e+03
2.902358e+02,3.658835e+03
2.912001e+02,3.654097e+03
2.921643e+02,3.649999e+03
2.931285e+02,3.645379e+03
2.940928e+02,3.643665e+03
2.950570e+02,3.647938e+03
2.960212e+02,3.656658e+03
2.969855e+02,3.664563e+03
2.979497e+02,3.665992e+03
2.989139e+02,3.658844e+03
2.998782e+02,3.652332e+03
3.008424e+02,3.648839e+03
3.018066e+02,3.647130e+03
3.027709e+02,3.644819e+03
3.037351e+02,3.640058e+03
3.046993e+02,3.634584e+03
3.056636e+02,3.632990e+03
3.066278e+02,3.637670e+03
3.075920e+02,3.642488e+03
3.085563e+02,3.644386e+03
3.095205e+02,3.645090e+03
3.104847e+02,3.646792e+03
3.114490e+02,3.650225e+03
3.124132e+02,3.653800e+03
3.133774e+02,3.654673e+03
3.143417e+02,3.651284e+03
3.153059e+02,3.646316e+03
3.162701e+02,3.645278e+03
3.172344e+02,3.651020e+03
3.181986e+02,3.655888e+03
3.191628e+02,3.657814e+03
3.201271e+02,3.657573e+03
3.210913e+02,3.655670e+03
3.220555e+02,3.651436e+03
3.230198e+02,3.645526e+03
3.239840e+02,3.644235e+03
3.249482e+02,3.653320e+03
3.259125e+02,3.660581e+03
3.268767e+02,3.662137e+03
3.278409e+02,3.658738e+03
3.288052e+02,3.652981e+03
3.297694e+02,3.645870e+03
3.307336e+02,3.636224e+03
3.316979e+02,3.631302e+03
3.326621e+02,3.637125e+03
3.336263e+02,3.642917e+03
3.345906e+02,3.643362e+03
3.355548e+02,3.638216e+03
3.365190e+02,3.632392e+03
3.374833e+02,3.630492e+03
3.384475e+02,3.632521e+03
3.394117e+02,3.635677e+03
3.403760e+02,3.639232e+03
3.413402e+02,3.642045e+03
3.423044e+02,3.642554e+03
3.432687e+02,3.637097e+03
3.442329e+02,3.630927e+03
3.451971e+02,3.628212e+03
3.461614e+02,3.628135e+03
3.471256e+02,3.628403e+03
3.480898e+02,3.628906e+03
3.490541e+02,3.631484e+03
3.500183e+02,3.631810e+03
3.509825e+02,3.628998e+03
3.519468e+02,3.626180e+03
3.529110e+02,3.624561e+03
3.538752e+02,3.623820e+03
3.548395e+02,3.623990e+03
3.558037e+02,3.626808e+03
3.567680e+02,3.636706e+03
3.577322e+02,3.641967e+03
3.586964e+02,3.639906e+03
3.596607e+02,3.635102e+03
3.606249e+02,3.631388e+03
3.615891e+02,3.628791e+03
3.625534e+02,3.626486e+03
3.635176e+02,3.626292e+03
3.644818e+02,3.631618e+03
3.654461e+02,3.635083e+03
3.664103e+02,3.631297e+03
3.673745e+02,3.623384e+03
3.683388e+02,3.619532e+03
3.693030e+02,3.622016e+03
3.702672e+02,3.627716e+03
3.712315e+02,3.633320e+03
3.721957e+02,3.638051e+03
3.731599e+02,3.641194e+03
3.741242e+02,3.642926e+03
3.750884e+02,3.646916e+03
3.760526e+02,3.648669e+03
3.770169e+02,3.644735e+03
3.779811e+02,3.638352e+03
3.789453e+02,3.633638e+03
3.799096e+02,3.632608e+03
3.808738e+02,3.633509e+03
3.818380e+02,3.630628e+03
3.828023e+02,3.622513e+03
3.837665e+02,3.615747e+03
3.847307e+02,3.611345e+03
3.856950e+02,3.609040e+03
3.866592e+02,3.608063e+03
3.876234e+02,3.608331e+03
3.885877e+02,3.609336e+03
3.895519e+02,3.609849e+03
3.905161e+02,3.609335e+03
3.914804e+02,3.607919e+03
3.924446e+02,3.606260e+03
3.934088e+02,3.605386e+03
3.943731e+02,3.604049e+03
3.953373e+02,3.600370e+03
3.963015e+02,3.596082e+03
3.972658e+02,3.593927e+03
3.982300e+02,3.595418e+03
3.991942e+02,3.600533e+03
4.001585e+02,3.606310e+03
4.011227e+02,3.613859e+03
4.020869e+02,3.617922e+03
4.030512e+02,3.614743e+03
4.040154e+02,3.606662e+03
4.049796e+02,3.598144e+03
4.059439e+02,3.590685e+03
4.069081e+02,3.584749e+03
4.078723e+02,3.583613e+03
4.088366e+02,3.589927e+03
4.098008e+02,3.593636e+03
4.107650e+02,3.587366e+03
4.117293e+02,3.572518e+03
4.126935e+02,3.562390e+03
4.136577e+02,3.563923e+03
4.146220e+02,3.572094e+03
4.155862e+02,3.581033e+03
4.165504e+02,3.590000e+03
4.175147e+02,3.597066e+03
4.184789e+02,3.598901e+03
4.194431e+02,3.589736e+03
4.204074e+02,3.581614e+03
4.213716e+02,3.573585e+03
4.223358e+02,3.566955e+03
4.233001e+02,3.563564e+03
4.242643e+02,3.564929e+03
4.252285e+02,3.569388e+03
4.261928e+02,3.572384e+03
4.271570e+02,3.573165e+03
4.281212e+02,3.575017e+03
4.290855e+02,3.581195e+03
4.300497e+02,3.588849e+03
4.310139e+02,3.591902e+03
4.319782e+02,3.584149e+03
4.329424e+02,3.573820e+03
4.339066e+02,3.570792e+03
4.348709e+02,3.575460e+03
4.358351e+02,3.581162e+03
4.367993e+02,3.581633e+03
4.377636e+02,3.574438e+03
4.387278e+02,3.568646e+03
4.396920e+02,3.565704e+03
4.406563e+02,3.564052e+03
4.416205e+02,3.562376e+03
4.425847e+02,3.560144e+03
4.435490e+02,3.557371e+03
4.445132e+02,3.554479e+03
4.454774e+02,3.552028e+03
4.464417e+02,3.549335e+03
4.474059e+02,3.543133e+03
4.483701e+02,3.536685e+03
4.493344e+02,3.534938e+03
4.502986e+02,3.544195e+03
4.512628e+02,3.554419e+03
4.522271e+02,3.558437e+03
4.531913e+02,3.557067e+03
4.541555e+02,3.553949e+03
4.551198e+02,3.550838e+03
4.560840e+02,3.547918e+03
4.570482e+02,3.544045e+03
4.580125e+02,3.540505e+03
4.589767e+02,3.537895e+03
4.599409e+02,3.534155e+03
4.609052e+02,3.529100e+03
4.618694e+02,3.525199e+03
4.628336e+02,3.526881e+03
4.637979e+02,3.533468e+03
4.647621e+02,3.535669e+03
4.657263e+02,3.531882e+03
4.666906e+02,3.527154e+03
4.676548e+02,3.525102e+03
4.686190e+02,3.525749e+03
4.695833e+02,3.526231e+03
4.705475e+02,3.524222e+03
4.715117e+02,3.521352e+03
4.724760e+02,3.521064e+03
4.734402e+02,3.524990e+03
4.744044e+02,3.530692e+03
4.753687e+02,3.531859e+03
4.763329e+02,3.524521e+03
4.772971e+02,3.518838e+03
4.782614e+02,3.517754e+03
4.792256e+02,3.518902e+03
4.801898e+02,3.518989e+03
4.811541e+02,3.515526e+03
4.821183e+02,3.510344e+03
4.830826e+02,3.505845e+03
4.840468e+02,3.501741e+03
4.850110e+02,3.498013e+03
4.859753e+02,3.495150e+03
4.869395e+02,3.493009e+03
4.879037e+02,3.491502e+03
4.888680e+02,3.491374e+03
4.898322e+02,3.491969e+03
4.907964e+02,3.493796e+03
4.917607e+02,3.496648e+03
4.927249e+02,3.499095e+03
4.936891e+02,3.499253e+03
4.946534e+02,3.496835e+03
4.956176e+02,3.494895e+03
4.965818e+02,3.493197e+03
4.975461e+02,3.492791e+03
4.985103e+02,3.494555e+03
4.994745e+02,3.498717e+03
5.004388e+02,3.500670e+03
5.014030e+02,3.497800e+03
5.023672e+02,3.492738e+03
5.033315e+02,3.489388e+03
5.042957e+02,3.488832e+03
5.052599e+02,3.489479e+03
5.062242e+02,3.488882e+03
5.071884e+02,3.487197e+03
5.081526e+02,3.485432e+03
5.091169e+02,3.484146e+03
5.100811e+02,3.483665e+03
5.110453e+02,3.483764e+03
5.120095e+02,3.485492e+03
5.129738e+02,3.487394e+03
5.139380e+02,3.487146e+03
5.149022e+02,3.484897e+03
5.158665e+02,3.482289e+03
5.168307e+02,3.478400e+03
5.177949e+02,3.471685e+03
5.187592e+02,3.467449e+03
5.197234e+02,3.475300e+03
5.206876e+02,3.481552e+03
5.216519e+02,3.479593e+03
5.226161e+02,3.471074e+03
5.235803e+02,3.461382e+03
5.245446e+02,3.453004e+03
5.255088e+02,3.446262e+03
5.264730e+02,3.444421e+03
5.274373e+02,3.449872e+03
5.284015e+02,3.456158e+03
5.293657e+02,3.456269e+03
5.303300e+02,3.449646e+03
5.312942e+02,3.444293e+03
5.322584e+02,3.446007e+03
5.332227e+02,3.449770e+03
5.341869e+02,3.448594e+03
5.351511e+02,3.440742e+03
5.361154e+02,3.431586e+03
5.370796e+02,3.430558e+03
5.380438e+02,3.441674e+03
5.390081e+02,3.446421e+03
5.399723e+02,3.436358e+03
5.409365e+02,3.423074e+03
5.419008e+02,3.416715e+03
5.428650e+02,3.420069e+03
5.438292e+02,3.424363e+03
5.447935e+02,3.425561e+03
5.457577e+02,3.424513e+03
5.467219e+02,3.423000e+03
5.476862e+02,3.421833e+03
5.486504e+02,3.420630e+03
5.496146e+02,3.418449e+03
5.505789e+02,3.414379e+03
5.515431e+02,3.410383e+03
5.525073e+02,3.408223e+03
5.534716e+02,3.408322e+03
5.544358e+02,3.409489e+03
5.554000e+02,3.409514e+03
5.563643e+02,3.409581e+03
5.573285e+02,3.411110e+03
5.582927e+02,3.413601e+03
5.592570e+02,3.416343e+03
5.602212e+02,3.419736e+03
5.611854e+02,3.423465e+03
5.621497e+02,3.424875e+03
5.631139e+02,3.422109e+03
5.640781e+02,3.416853e+03
5.650424e+02,3.409898e+03
5.660066e+02,3.401947e+03
5.669708e+02,3.394151e+03
5.679351e+02,3.386670e+03
5.688993e+02,3.380573e+03
5.698635e+02,3.377973e+03
5.708278e+02,3.379490e+03
5.717920e+02,3.383114e+03
5.727562e+02,3.386431e+03
5.737205e+02,3.388681e+03
5.746847e+02,3.390204e+03
5.756489e+02,3.390246e+03
5.766132e+02,3.389378e+03
5.775774e+02,3.388186e+03
5.785416e+02,3.386891e+03
5.795059e+02,3.385454e+03
5.804701e+02,3.383766e+03
5.814343e+02,3.381896e+03
5.823986e+02,3.380281e+03
5.833628e+02,3.379339e+03
5.843270e+02,3.378526e+03
5.852913e+02,3.376708e+03
5.862555e+02,3.371569e+03
5.872197e+02,3.369058e+03
5.881840e+02,3.370823e+03
5.891482e+02,3.373480e+03
5.901124e+02,3.374439e+03
5.910767e+02,3.372887e+03
5.920409e+02,3.370187e+03
5.930051e+02,3.367115e+03
5.939694e+02,3.363461e+03
5.949336e+02,3.359594e+03
5.958978e+02,3.355688e+03
5.968621e+02,3.351743e+03
5.978263e+02,3.347974e+03
5.987905e+02,3.344648e+03
5.997548e+02,3.342272e+03
6.007190e+02,3.341501e+03
6.016832e+02,3.342155e+03
6.026475e+02,3.343385e+03
6.036117e+02,3.344172e+03
6.045759e+02,3.344697e+03
6.055402e+02,3.345737e+03
6.065044e+02,3.346626e+03
6.074686e+02,3.345229e+03
6.084329e+02,3.340665e+03
6.093971e+02,3.334220e+03
6.103613e+02,3.330645e+03
6.113256e+02,3.337238e+03
6.122899e+02,3.339125e+03
6.132541e+02,3.329111e+03
6.142183e+02,3.313109e+03
6.151826e+02,3.301434e+03
6.161468e+02,3.301595e+03
6.171110e+02,3.307909e+03
6.180753e+02,3.313793e+03
6.190395e+02,3.318910e+03
6.200037e+02,3.322919e+03
6.209680e+02,3.325471e+03
6.219322e+02,3.327034e+03
6.228964e+02,3.327870e+03
6.238607e+02,3.327724e+03
6.248249e+02,3.326456e+03
6.257891e+02,3.321820e+03
6.267534e+02,3.314355e+03
6.277176e+02,3.308003e+03
6.286818e+02,3.306483e+03
6.296461e+02,3.307519e+03
6.306103e+02,3.308670e+03
6.315745e+02,3.309944e+03
6.325388e+02,3.311383e+03
6.335030e+02,3.312918e+03
6.344672e+02,3.314148e+03
6.354315e+02,3.311111e+03
6.363957e+02,3.296334e+03
6.373599e+02,3.284323e+03
6.383242e+02,3.285627e+03
6.392884e+02,3.298956e+03
6.402526e+02,3.308475e+03
6.412169e+02,3.308696e+03
6.421811e+02,3.303090e+03
6.431453e+02,3.291544e+03
6.441096e+02,3.275583e+03
6.450738e+02,3.262424e+03
6.460380e+02,3.261462e+03
6.470023e+02,3.273802e+03
6.479665e+02,3.280723e+03
6.489307e+02,3.278398e+03
6.498950e+02,3.274093e+03
6.508592e+02,3.273253e+03
6.518234e+02,3.275743e+03
6.527877e+02,3.277175e+03
6.537519e+02,3.277188e+03
6.547161e+02,3.276250e+03
6.556804e+02,3.274622e+03
6.566446e+02,3.272553e+03
6.576088e+02,3.270217e+03
6.585731e+02,3.267562e+03
6.595373e+02,3.264628e+03
6.605015e+02,3.261753e+03
6.614658e+02,3.259052e+03
6.624300e+02,3.256331e+03
6.633942e+02,3.253043e+03
6.643585e+02,3.247464e+03
6.653227e+02,3.245510e+03
6.662869e+02,3.250262e+03
6.672512e+02,3.255245e+03
6.682154e+02,3.255400e+03
6.691796e+02,3.249831e+03
6.701439e+02,3.245250e+03
6.711081e+02,3.249871e+03
6.720723e+02,3.258530e+03
6.730366e+02,3.259936e+03
6.740008e+02,3.252360e+03
6.749650e+02,3.241737e+03
6.759293e+02,3.234830e+03
6.768935e+02,3.233043e+03
6.778577e+02,3.232325e+03
6.788220e+02,3.233698e+03
6.797862e+02,3.237263e+03
6.807504e+02,3.243028e+03
6.817147e+02,3.251168e+03
6.826789e+02,3.254975e+03
6.836431e+02,3.246325e+03
6.846074e+02,3.233502e+03
6.855716e+02,3.226989e+03
6.865358e+02,3.229179e+03
6.875001e+02,3.234551e+03
6.884643e+02,3.237513e+03
6.894285e+02,3.238187e+03
6.903928e+02,3.235583e+03
6.913570e+02,3.227555e+03
6.923212e+02,3.218502e+03
6.932855e+02,3.213788e+03
6.942497e+02,3.217625e+03
6.952139e+02,3.220251e+03
6.961782e+02,3.219735e+03
6.971424e+02,3.218406e+03
6.981066e+02,3.216951e+03
6.990709e+02,3.214348e+03
7.000351e+02,3.211122e+03
7.009993e+02,3.209978e+03
7.019636e+02,3.210710e+03
7.029278e+02,3.211565e+03
7.038920e+02,3.212082e+03
7.048563e+02,3.210050e+03
7.058205e+02,3.202417e+03
7.067847e+02,3.187338e+03
7.077490e+02,3.177659e+03
7.087132e+02,3.178003e+03
7.096774e+02,3.183215e+03
7.106417e+02,3.186470e+03
7.116059e+02,3.186492e+03
7.125701e+02,3.186894e+03
7.135344e+02,3.191711e+03
7.144986e+02,3.196707e+03
7.154628e+02,3.196044e+03
7.164271e+02,3.188863e+03
7.173913e+02,3.181268e+03
7.183555e+02,3.181364e+03
7.193198e+02,3.186859e+03
7.202840e+02,3.185229e+03
7.212482e+02,3.173710e+03
7.222125e+02,3.162166e+03
7.231767e+02,3.161309e+03
7.241409e+02,3.176668e+03
7.251052e+02,3.184630e+03
7.260694e+02,3.178520e+03
7.270336e+02,3.170016e+03
7.279979e+02,3.166787e+03
7.289621e+02,3.169578e+03
7.299263e+02,3.170386e+03
7.308906e+02,3.163024e+03
7.318548e+02,3.152875e+03
7.328190e+02,3.145569e+03
7.337833e+02,3.141926e+03
7.347475e+02,3.140774e+03
7.357117e+02,3.143489e+03
7.366760e+02,3.149910e+03
7.376402e+02,3.151209e+03
7.386044e+02,3.145613e+03
7.395687e+02,3.139279e+03
7.405329e+02,3.137066e+03
7.414971e+02,3.140509e+03
7.424614e+02,3.140558e+03
7.434256e+02,3.135671e+03
7.443898e+02,3.132240e+03
7.453541e+02,3.132507e+03
7.463183e+02,3.134702e+03
7.472825e+02,3.135419e+03
7.482468e+02,3.133666e+03
7.492110e+02,3.129845e+03
7.501752e+02,3.124226e+03
7.511395e+02,3.118586e+03
7.521037e+02,3.115761e+03
7.530679e+02,3.118008e+03
7.540322e+02,3.123675e+03
7.549964e+02,3.126411e+03
7.559606e+02,3.126626e+03
7.569249e+02,3.124940e+03
7.578891e+02,3.121117e+03
7.588533e+02,3.115259e+03
7.598176e+02,3.112187e+03
7.607818e+02,3.111820e+03
7.617460e+02,3.109150e+03
7.627103e+02,3.101592e+03
7.636745e+02,3.092308e+03
7.646387e+02,3.087507e+03
7.656030e+02,3.093949e+03
7.665672e+02,3.102257e+03
7.675314e+02,3.101614e+03
7.684957e+02,3.092765e+03
7.694599e+02,3.084354e+03
7.704241e+02,3.084405e+03
7.713884e+02,3.090647e+03
7.723526e+02,3.093686e+03
7.733168e+02,3.093953e+03
7.742811e+02,3.093820e+03
7.752453e+02,3.092134e+03
7.762095e+02,3.088500e+03
7.771738e+02,3.086745e+03
7.781380e+02,3.087925e+03
7.791022e+02,3.087245e+03
7.800665e+02,3.084876e+03
7.810307e+02,3.081290e+03
7.819949e+02,3.076875e+03
7.829592e+02,3.070660e+03
7.839234e+02,3.066776e+03
7.848876e+02,3.068216e+03
7.858519e+02,3.072121e+03
7.868161e+02,3.074194e+03
7.877803e+02,3.072357e+03
7.887446e+02,3.068718e+03
7.897088e+02,3.066859e+03
7.906730e+02,3.067647e+03
7.916373e+02,3.069919e+03
7.926015e+02,3.072089e+03
7.935657e+02,3.071954e+03
7.945300e+02,3.068836e+03
7.954942e+02,3.063308e+03
7.964584e+02,3.056625e+03
7.974227e+02,3.050474e+03
7.983869e+02,3.047075e+03
7.993511e+02,3.045374e+03
8.003154e+02,3.043179e+03
8.012796e+02,3.041033e+03
8.022438e+02,3.040264e+03
8.032081e+02,3.041314e+03
8.041723e+02,3.045019e+03
8.051365e+02,3.051219e+03
8.061008e+02,3.056191e+03
8.070650e+02,3.055708e+03
8.080292e+02,3.051477e+03
8.089935e+02,3.047628e+03
8.099577e+02,3.045654e+03
8.109219e+02,3.044914e+03
8.118862e+02,3.045517e+03
8.128504e+02,3.047260e+03
8.138146e+02,3.043046e+03
8.147789e+02,3.029713e+03
8.157431e+02,3.016733e+03
8.167073e+02,3.013300e+03
8.176716e+02,3.023451e+03
8.186358e+02,3.029446e+03
8.196000e+02,3.026372e+03
8.205643e+02,3.023248e+03
8.215285e+02,3.023058e+03
8.224927e+02,3.025175e+03
8.234570e+02,3.025553e+03
8.244212e+02,3.021340e+03
8.253854e+02,3.016923e+03
8.263497e+02,3.014926e+03
8.273139e+02,3.013792e+03
8.282781e+02,3.010977e+03
8.292424e+02,3.003947e+03
8.302066e+02,2.997660e+03
8.311708e+02,3.000660e+03
8.321351e+02,3.010867e+03
8.330993e+02,3.017163e+03
8.340635e+02,3.012304e+03
8.350278e+02,3.000297e+03
8.359920e+02,2.994264e+03
8.369562e+02,2.995155e+03
8.379205e+02,2.997930e+03
8.388847e+02,3.002362e+03
8.398489e+02,3.006922e+03
8.408132e+02,3.007125e+03
8.417774e+02,2.999147e+03
8.427416e+02,2.991177e+03
8.437059e+02,2.981889e+03
8.446701e+02,2.974164e+03
8.456343e+02,2.971961e+03
8.465986e+02,2.979813e+03
8.475628e+02,2.984364e+03
8.485270e+02,2.977510e+03
8.494913e+02,2.967000e+03
8.504555e+02,2.961559e+03
8.514197e+02,2.963693e+03
8.523840e+02,2.967603e+03
8.533482e+02,2.967813e+03
8.543124e+02,2.965687e+03
8.552767e+02,2.963905e+03
8.562409e+02,2.962703e+03
8.572051e+02,2.962373e+03
8.581694e+02,2.965271e+03
8.591336e+02,2.971244e+03
8.600978e+02,2.972907e+03
8.610621e+02,2.969890e+03
8.620263e+02,2.965752e+03
8.629905e+02,2.962083e+03
8.639548e+02,2.957824e+03
8.649190e+02,2.953069e+03
8.658832e+02,2.948637e+03
8.668475e+02,2.945490e+03
8.678117e+02,2.944591e+03
8.687759e+02,2.945123e+03
8.697402e+02,2.944810e+03
8.707044e+02,2.941536e+03
8.716686e+02,2.936356e+03
8.726329e+02,2.930202e+03
8.735971e+02,2.924549e+03
8.745613e+02,2.920817e+03
8.755256e+02,2.922017e+03
8.764898e+02,2.924279e+03
8.774540e+02,2.923185e+03
8.784183e+02,2.920573e+03
8.793825e+02,2.920434e+03
8.803467e+02,2.924618e+03
8.813110e+02,2.929711e+03
8.822752e+02,2.931825e+03
8.832394e+02,2.932215e+03
8.842037e+02,2.933058e+03
8.851679e+02,2.934073e+03
8.861321e+02,2.934923e+03
8.870964e+02,2.936660e+03
8.880606e+02,2.939288e+03
8.890248e+02,2.937540e+03
8.899891e+02,2.931202e+03
8.909533e+02,2.923578e+03
8.919175e+02,2.916419e+03
8.928818e+02,2.908662e+03
8.938460e+02,2.906070e+03
8.948102e+02,2.912686e+03
8.957745e+02,2.918618e+03
8.967387e+02,2.917886e+03
8.977029e+02,2.910216e+03
8.986672e+02,2.903768e+03
8.996314e+02,2.903160e+03
9.005956e+02,2.903059e+03
9.015599e+02,2.900387e+03
9.025241e+02,2.895498e+03
9.034883e+02,2.890718e+03
9.044526e+02,2.886432e+03
9.054168e+02,2.881521e+03
9.063810e+02,2.876652e+03
9.073453e+02,2.873684e+03
9.083095e+02,2.873556e+03
9.092737e+02,2.876330e+03
9.102380e+02,2.879072e+03
9.112022e+02,2.878621e+03
9.121664e+02,2.875777e+03
9.131307e+02,2.873064e+03
9.140949e+02,2.872134e+03
9.150591e+02,2.873572e+03
9.160234e+02,2.877238e+03
9.169876e+02,2.881107e+03
9.179518e+02,2.880362e+03
9.189161e+02,2.873990e+03
9.198803e+02,2.865739e+03
9.208445e+02,2.860888e+03
9.218088e+02,2.861131e+03
9.227730e+02,2.858132e+03
9.237372e+02,2.849011e+03
9.247015e+02,2.840636e+03
9.256657e+02,2.837382e+03
9.266299e+02,2.839141e+03
9.275942e+02,2.843597e+03
9.285584e+02,2.854410e+03
9.295226e+02,2.862230e+03
9.304869e+02,2.863471e+03
9.314511e+02,2.859880e+03
9.324153e+02,2.855583e+03
9.333796e+02,2.849442e+03
9.343438e+02,2.844067e+03
9.353080e+02,2.839043e+03
9.362723e+02,2.834171e+03
9.372365e+02,2.830596e+03
9.382007e+02,2.831724e+03
9.391650e+02,2.832980e+03
9.401292e+02,2.831827e+03
9.410934e+02,2.829421e+03
9.420577e+02,2.825597e+03
9.430219e+02,2.819842e+03
9.439861e+02,2.815940e+03
9.449504e+02,2.821297e+03
9.459146e+02,2.830560e+03
9.468788e+02,2.832514e+03
9.478431e+02,2.825161e+03
9.488073e+02,2.817258e+03
9.497715e+02,2.821820e+03
9.507358e+02,2.832017e+03
9.517000e+02,2.830077e+03
9.526642e+02,2.817424e+03
9.536285e+02,2.804288e+03
9.545927e+02,2.795948e+03
9.555569e+02,2.791960e+03
9.565212e+02,2.792308e+03
9.574854e+02,2.798075e+03
9.584496e+02,2.804472e+03
9.594139e+02,2.808719e+03
9.603781e+02,2.810248e+03
9.613423e+02,2.809144e+03
9.623066e+02,2.804849e+03
9.632708e+02,2.801460e+03
9.642350e+02,2.800821e+03
9.651993e+02,2.801558e+03
9.661635e+02,2.800832e+03
9.671277e+02,2.797555e+03
9.680920e+02,2.792821e+03
9.690562e+02,2.784508e+03
9.700204e+02,2.776594e+03
9.709847e+02,2.773163e+03
9.719489e+02,2.775906e+03
9.729131e+02,2.778853e+03
9.738774e+02,2.786141e+03
9.748416e+02,2.790955e+03
9.758058e+02,2.785984e+03
9.767701e+02,2.773130e+03
9.777343e+02,2.766922e+03
9.786985e+02,2.775425e+03
9.796628e+02,2.783588e+03
9.806270e+02,2.787967e+03
9.815912e+02,2.788480e+03
9.825555e+02,2.785360e+03
9.835197e+02,2.776817e+03
9.844839e+02,2.769781e+03
9.854482e+02,2.768181e+03
9.864124e+02,2.769560e+03
9.873766e+02,2.770732e+03
9.883409e+02,2.771264e+03
9.893051e+02,2.770992e+03
9.902693e+02,2.766995e+03
9.912336e+02,2.764024e+03
9.921978e+02,2.768034e+03
9.931620e+02,2.777892e+03
9.941263e+02,2.785788e+03
9.950905e+02,2.786351e+03
9.960547e+02,2.782577e+03
9.970190e+02,2.777440e+03
9.979832e+02,2.770878e+03
9.989474e+02,2.762840e+03
9.999117e+02,2.753183e+03
1.000876e+03,2.744383e+03
1.001840e+03,2.740386e+03
1.002804e+03,2.740757e+03
1.003769e+03,2.742151e+03
1.004733e+03,2.742769e+03
1.005697e+03,2.742107e+03
1.006661e+03,2.738781e+03
1.007626e+03,2.733933e+03
1.008590e+03,2.732235e+03
1.009554e+03,2.734020e+03
1.010518e+03,2.736122e+03
1.011482e+03,2.736379e+03
1.012447e+03,2.734666e+03
1.013411e+03,2.729383e+03
1.014375e+03,2.721425e+03
1.015339e+03,2.716063e+03
1.016304e+03,2.717018e+03
1.017268e+03,2.722546e+03
1.018232e+03,2.723432e+03
1.019196e+03,2.718649e+03
1.020161e+03,2.714189e+03
1.021125e+03,2.712875e+03
1.022089e+03,2.714646e+03
1.023053e+03,2.717426e+03
1.024018e+03,2.720276e+03
1.024982e+03,2.724084e+03
1.025946e+03,2.729620e+03
1.026910e+03,2.733096e+03
1.027875e+03,2.730621e+03
1.028839e+03,2.721609e+03
1.029803e+03,2.714113e+03
1.030767e+03,2.707298e+03
1.031731e+03,2.704144e+03
1.032696e+03,2.707558e+03
1.033660e+03,2.717745e+03
1.034624e+03,2.722458e+03
1.035588e+03,2.720181e+03
1.036552e+03,2.716917e+03
1.037517e+03,2.713544e+03
1.038481e+03,2.709718e+03
1.039445e+03,2.707060e+03
1.040409e+03,2.705816e+03
1.041374e+03,2.705625e+03
1.042338e+03,2.707954e+03
1.043302e+03,2.711598e+03
1.044266e+03,2.714413e+03
1.045231e+03,2.716947e+03
1.046195e+03,2.716876e+03
1.047159e+03,2.713740e+03
1.048123e+03,2.709509e+03
1.049088e+03,2.705151e+03
1.050052e+03,2.701406e+03
1.051016e+03,2.698692e+03
1.051980e+03,2.694655e+03
1.052945e+03,2.693427e+03
1.053909e+03,2.697974e+03
1.054873e+03,2.704930e+03
1.055837e+03,2.706506e+03
1.056802e+03,2.699378e+03
1.057766e+03,2.692385e+03
1.058730e+03,2.687541e+03
1.059694e+03,2.684196e+03
1.060658e+03,2.681095e+03
1.061623e+03,2.679300e+03
1.062587e+03,2.676961e+03
1.063551e+03,2.672568e+03
1.064515e+03,2.668859e+03
1.065479e+03,2.667793e+03
1.066444e+03,2.670255e+03
1.067408e+03,2.671563e+03
1.068372e+03,2.670664e+03
1.069336e+03,2.668769e+03
1.070301e+03,2.663536e+03
1.071265e+03,2.656016e+03
1.072229e+03,2.651598e+03
1.073193e+03,2.653183e+03
1.074158e+03,2.655451e+03
1.075122e+03,2.658739e+03
1.076086e+03,2.661266e+03
1.077050e+03,2.661486e+03
1.078015e+03,2.660509e+03
1.078979e+03,2.658447e+03
1.079943e+03,2.648936e+03
1.080907e+03,2.642426e+03
1.081872e+03,2.648846e+03
1.082836e+03,2.668163e+03
1.083800e+03,2.679400e+03
1.084764e+03,2.670991e+03
1.085729e+03,2.662309e+03
1.086693e+03,2.661563e+03
1.087657e+03,2.666777e+03
1.088621e+03,2.672522e+03
1.089585e+03,2.681418e+03
1.090550e+03,2.684884e+03
1.091514e+03,2.676452e+03
1.092478e+03,2.665974e+03
1.093442e+03,2.664871e+03
1.094406e+03,2.680052e+03
1.095371e+03,2.689208e+03
1.096335e+03,2.684075e+03
1.097299e+03,2.673730e+03
1.098263e+03,2.661626e+03
1.099228e+03,2.648226e+03
1.100192e+03,2.639520e+03
1.101156e+03,2.640571e+03
1.102120e+03,2.641664e+03
1.103085e+03,2.638976e+03
1.104049e+03,2.634114e+03
1.105013e+03,2.630484e+03
1.105977e+03,2.627833e+03
1.106942e+03,2.627885e+03
1.107906e+03,2.634098e+03
1.108870e+03,2.641398e+03
1.109834e+03,2.645147e+03
1.110799e+03,2.644615e+03
1.111763e+03,2.642374e+03
1.112727e+03,2.635689e+03
1.113691e+03,2.631007e+03
1.114656e+03,2.632599e+03
1.115620e+03,2.639406e+03
1.116584e+03,2.643437e+03
1.117548e+03,2.640712e+03
1.118512e+03,2.637107e+03
1.119477e+03,2.633602e+03
1.120441e+03,2.630380e+03
1.121405e+03,2.628066e+03
1.122369e+03,2.627172e+03
1.123334e+03,2.626694e+03
1.124298e+03,2.630112e+03
1.125262e+03,2.631793e+03
1.126226e+03,2.626455e+03
1.127191e+03,2.612875e+03
1.128155e+03,2.605291e+03
1.129119e+03,2.605768e+03
1.130083e+03,2.608286e+03
1.131047e+03,2.612148e+03
1.132012e+03,2.615500e+03
1.132976e+03,2.613967e+03
1.133940e+03,2.605025e+03
1.134904e+03,2.595899e+03
1.135869e+03,2.587904e+03
1.136833e+03,2.581398e+03
1.137797e+03,2.576848e+03
1.138761e+03,2.575754e+03
1.139726e+03,2.573848e+03
1.140690e+03,2.569415e+03
1.141654e+03,2.566655e+03
1.142618e+03,2.568084e+03
1.143583e+03,2.573390e+03
1.144547e+03,2.579842e+03
1.145511e+03,2.589091e+03
1.146475e+03,2.592124e+03
1.147439e+03,2.584438e+03
1.148404e+03,2.572362e+03
1.149368e+03,2.565655e+03
1.150332e+03,2.564116e+03
1.151296e+03,2.568118e+03
1.152261e+03,2.577885e+03
1.153225e+03,2.585530e+03
1.154189e+03,2.586056e+03
1.155153e+03,2.580972e+03
1.156118e+03,2.572810e+03
1.157082e+03,2.562246e+03
1.158046e+03,2.555651e+03
1.159010e+03,2.555532e+03
1.159974e+03,2.559025e+03
1.160939e+03,2.560411e+03
1.161903e+03,2.559525e+03
1.162867e+03,2.558722e+03
1.163831e+03,2.558317e+03
1.164796e+03,2.558253e+03
1.165760e+03,2.561390e+03
1.166724e+03,2.565410e+03
1.167688e+03,2.561499e+03
1.168653e+03,2.550492e+03
1.169617e+03,2.539758e+03
1.170581e+03,2.533407e+03
1.171545e+03,2.531131e+03
1.172510e+03,2.534870e+03
1.173474e+03,2.542058e+03
1.174438e+03,2.546055e+03
1.175402e+03,2.544327e+03
1.176366e+03,2.539890e+03
1.177331e+03,2.532179e+03
1.178295e+03,2.525714e+03
1.179259e+03,2.527700e+03
1.180223e+03,2.536707e+03
1.181188e+03,2.543404e+03
1.182152e+03,2.543516e+03
1.183116e+03,2.538788e+03
1.184080e+03,2.526525e+03
1.185045e+03,2.512395e+03
1.186009e+03,2.505852e+03
1.186973e+03,2.514457e+03
1.187937e+03,2.522405e+03
1.188901e+03,2.521771e+03
1.189866e+03,2.518421e+03
1.190830e+03,2.516971e+03
1.191794e+03,2.517464e+03
1.192758e+03,2.516110e+03
1.193723e+03,2.509041e+03
1.194687e+03,2.505383e+03
1.195651e+03,2.511597e+03
1.196615e+03,2.522974e+03
1.197580e+03,2.527635e+03
1.198544e+03,2.516132e+03
1.199508e+03,2.508772e+03
1.200472e+03,2.511433e+03
1.201437e+03,2.516394e+03
1.202401e+03,2.517335e+03
1.203365e+03,2.514279e+03
1.204329e+03,2.512360e+03
1.205293e+03,2.511060e+03
1.206258e+03,2.511516e+03
1.207222e+03,2.514863e+03
1.208186e+03,2.519057e+03
1.209150e+03,2.517598e+03
1.210115e+03,2.508920e+03
1.211079e+03,2.503447e+03
1.212043e+03,2.503970e+03
1.213007e+03,2.505170e+03
1.213972e+03,2.500307e+03
1.214936e+03,2.491596e+03
1.215900e+03,2.489314e+03
1.216864e+03,2.493426e+03
1.217828e+03,2.498449e+03
1.218793e+03,2.501701e+03
1.219757e+03,2.503454e+03
1.220721e+03,2.503548e+03
1.221685e+03,2.502676e+03
1.222650e+03,2.501159e+03
1.223614e+03,2.498186e+03
1.224578e+03,2.495732e+03
1.225542e+03,2.495954e+03
1.226507e+03,2.499036e+03
1.227471e+03,2.507286e+03
1.228435e+03,2.518066e+03
1.229399e+03,2.523245e+03
1.230364e+03,2.516931e+03
1.231328e+03,2.507502e+03
1.232292e+03,2.498383e+03
1.233256e+03,2.491173e+03
1.234220e+03,2.486770e+03
1.235185e+03,2.486952e+03
1.236149e+03,2.486712e+03
1.237113e+03,2.480727e+03
1.238077e+03,2.478576e+03
1.239042e+03,2.488903e+03
1.240006e+03,2.507935e+03
1.240970e+03,2.512772e+03
1.241934e+03,2.490980e+03
1.242899e+03,2.477417e+03
1.243863e+03,2.483844e+03
1.244827e+03,2.497242e+03
1.245791e+03,2.498744e+03
1.246755e+03,2.485388e+03
1.247720e+03,2.477630e+03
1.248684e+03,2.476586e+03
1.249648e+03,2.479480e+03
1.250612e+03,2.485929e+03
1.251577e+03,2.493083e+03
1.252541e+03,2.489565e+03
1.253505e+03,2.477081e+03
1.254469e+03,2.472384e+03
1.255434e+03,2.481481e+03
1.256398e+03,2.493976e+03
1.257362e+03,2.498438e+03
1.258326e+03,2.496174e+03
1.259291e+03,2.487171e+03
1.260255e+03,2.473150e+03
1.261219e+03,2.463122e+03
1.262183e+03,2.468309e+03
1.263147e+03,2.476706e+03
1.264112e+03,2.479603e+03
1.265076e+03,2.479099e+03
1.266040e+03,2.477780e+03
1.267004e+03,2.476394e+03
1.267969e+03,2.474431e+03
1.268933e+03,2.471185e+03
1.269897e+03,2.469935e+03
1.270861e+03,2.472246e+03
1.271826e+03,2.475663e+03
1.272790e+03,2.474852e+03
1.273754e+03,2.468004e+03
1.274718e+03,2.461749e+03
1.275682e+03,2.458509e+03
1.276647e+03,2.457105e+03
1.277611e+03,2.455372e+03
1.278575e+03,2.452937e+03
1.279539e+03,2.450310e+03
1.280504e+03,2.448757e+03
1.281468e+03,2.447890e+03
1.282432e+03,2.446708e+03
1.283396e+03,2.445531e+03
1.284361e+03,2.444822e+03
1.285325e+03,2.444238e+03
1.286289e+03,2.444629e+03
1.287253e+03,2.446074e+03
1.288218e+03,2.448081e+03
1.289182e+03,2.451936e+03
1.290146e+03,2.455734e+03
1.291110e+03,2.457048e+03
1.292074e+03,2.456504e+03
1.293039e+03,2.455770e+03
1.294003e+03,2.457063e+03
1.294967e+03,2.455624e+03
1.295931e+03,2.446058e+03
1.296896e+03,2.436136e+03
1.297860e+03,2.435290e+03
1.298824e+03,2.448102e+03
1.299788e+03,2.451957e+03
1.300753e+03,2.439060e+03
1.301717e+03,2.426213e+03
1.302681e+03,2.418917e+03
1.303645e+03,2.416850e+03
1.304609e+03,2.420129e+03
1.305574e+03,2.428854e+03
1.306538e+03,2.436017e+03
1.307502e+03,2.442200e+03
1.308466e+03,2.445502e+03
1.309431e+03,2.440953e+03
1.310395e+03,2.431633e+03
1.311359e+03,2.428986e+03
1.312323e+03,2.430508e+03
1.313288e+03,2.428394e+03
1.314252e+03,2.418924e+03
1.315216e+03,2.410359e+03
1.316180e+03,2.410941e+03
1.317145e+03,2.415856e+03
1.318109e+03,2.418902e+03
1.319073e+03,2.418350e+03
1.320037e+03,2.416601e+03
1.321001e+03,2.414739e+03
1.321966e+03,2.411977e+03
1.322930e+03,2.407347e+03
1.323894e+03,2.403382e+03
1.324858e+03,2.403337e+03
1.325823e+03,2.410531e+03
1.326787e+03,2.413157e+03
1.327751e+03,2.408167e+03
1.328715e+03,2.403333e+03
1.329680e+03,2.404556e+03
1.330644e+03,2.410321e+03
1.331608e+03,2.413796e+03
1.332572e+03,2.414809e+03
1.333536e+03,2.413491e+03
1.334501e+03,2.409235e+03
1.335465e+03,2.404528e+03
1.336429e+03,2.403799e+03
1.337393e+03,2.405161e+03
1.338358e+03,2.406181e+03
1.339322e+03,2.406206e+03
1.340286e+03,2.403792e+03
1.341250e+03,2.397497e+03
1.342215e+03,2.389352e+03
1.343179e+03,2.377285e+03
1.344143e+03,2.367927e+03
1.345107e+03,2.368822e+03
1.346072e+03,2.383782e+03
1.347036e+03,2.388950e+03
1.348000e+03,2.377048e+03
1.348964e+03,2.367852e+03
1.349928e+03,2.370755e+03
1.350893e+03,2.380787e+03
1.351857e+03,2.384672e+03
1.352821e+03,2.382126e+03
1.353785e+03,2.379676e+03
1.354750e+03,2.377835e+03
1.355714e+03,2.375214e+03
1.356678e+03,2.370450e+03
1.357642e+03,2.366504e+03
1.358607e+03,2.367338e+03
1.359571e+03,2.370877e+03
1.360535e+03,2.373290e+03
1.361499e+03,2.373808e+03
1.362464e+03,2.373148e+03
1.363428e+03,2.372278e+03
1.364392e+03,2.370592e+03
1.365356e+03,2.364082e+03
1.366320e+03,2.352984e+03
1.367285e+03,2.349909e+03
1.368249e+03,2.360534e+03
1.369213e+03,2.368569e+03
1.370177e+03,2.371373e+03
1.371142e+03,2.370089e+03
1.372106e+03,2.364354e+03
1.373070e+03,2.355234e+03
1.374034e+03,2.351313e+03
1.374999e+03,2.352765e+03
1.375963e+03,2.355267e+03
1.376927e+03,2.356814e+03
1.377891e+03,2.357585e+03
1.378855e+03,2.357026e+03
1.379820e+03,2.355593e+03
1.380784e+03,2.353976e+03
1.381748e+03,2.352950e+03
1.382712e+03,2.352673e+03
1.383677e+03,2.352958e+03
1.384641e+03,2.351735e+03
1.385605e+03,2.347376e+03
1.386569e+03,2.341398e+03
1.387534e+03,2.335929e+03
1.388498e+03,2.330491e+03
1.389462e+03,2.331434e+03
1.390426e+03,2.339600e+03
1.391391e+03,2.343638e+03
1.392355e+03,2.335477e+03
1.393319e+03,2.321693e+03
1.394283e+03,2.312445e+03
1.395247e+03,2.307235e+03
1.396212e+03,2.306063e+03
1.397176e+03,2.309048e+03
1.398140e+03,2.314195e+03
1.399104e+03,2.323019e+03
1.400069e+03,2.329976e+03
1.401033e+03,2.330150e+03
1.401997e+03,2.325979e+03
1.402961e+03,2.324773e+03
1.403926e+03,2.330110e+03
1.404890e+03,2.329705e+03
1.405854e+03,2.321304e+03
1.406818e+03,2.312838e+03
1.407782e+03,2.310291e+03
1.408747e+03,2.312831e+03
1.409711e+03,2.315827e+03
1.410675e+03,2.317929e+03
1.411639e+03,2.318972e+03
1.412604e+03,2.319315e+03
1.413568e+03,2.318418e+03
1.414532e+03,2.316062e+03
1.415496e+03,2.313502e+03
1.416461e+03,2.310173e+03
1.417425e+03,2.306005e+03
1.418389e+03,2.303046e+03
1.419353e+03,2.304187e+03
1.420318e+03,2.302777e+03
1.421282e+03,2.297920e+03
1.422246e+03,2.293228e+03
1.423210e+03,2.291028e+03
1.424174e+03,2.291545e+03
1.425139e+03,2.295590e+03
1.426103e+03,2.301784e+03
1.427067e+03,2.303169e+03
1.428031e+03,2.296873e+03
1.428996e+03,2.289915e+03
1.429960e+03,2.289889e+03
1.430924e+03,2.291176e+03
1.431888e+03,2.286887e+03
1.432853e+03,2.278319e+03
1.433817e+03,2.273102e+03
1.434781e+03,2.276002e+03
1.435745e+03,2.279494e+03
1.436709e+03,2.283103e+03
1.437674e+03,2.284244e+03
1.438638e+03,2.280336e+03
1.439602e+03,2.272901e+03
1.440566e+03,2.271852e+03
1.441531e+03,2.276237e+03
1.442495e+03,2.278855e+03
1.443459e+03,2.276495e+03
1.444423e+03,2.272533e+03
1.445388e+03,2.270055e+03
1.446352e+03,2.267117e+03
1.447316e+03,2.261635e+03
1.448280e+03,2.255031e+03
1.449245e+03,2.250852e+03
1.450209e+03,2.251055e+03
1.451173e+03,2.251990e+03
1.452137e+03,2.252024e+03
1.453101e+03,2.251820e+03
1.454066e+03,2.252883e+03
1.455030e+03,2.255178e+03
1.455994e+03,2.257913e+03
1.456958e+03,2.260900e+03
1.457923e+03,2.263274e+03
1.458887e+03,2.264234e+03
1.459851e+03,2.263504e+03
1.460815e+03,2.259304e+03
1.461780e+03,2.253908e+03
1.462744e+03,2.251097e+03
1.463708e+03,2.250976e+03
1.464672e+03,2.249307e+03
1.465636e+03,2.244870e+03
1.466601e+03,2.243137e+03
1.467565e+03,2.245653e+03
1.468529e+03,2.248737e+03
1.469493e+03,2.248513e+03
1.470458e+03,2.244908e+03
1.471422e+03,2.238217e+03
1.472386e+03,2.230298e+03
1.473350e+03,2.227035e+03
1.474315e+03,2.231227e+03
1.475279e+03,2.235189e+03
1.476243e+03,2.233265e+03
1.477207e+03,2.229340e+03
1.478172e+03,2.227029e+03
1.479136e+03,2.226266e+03
1.480100e+03,2.224966e+03
1.481064e+03,2.223250e+03
1.482028e+03,2.221439e+03
1.482993e+03,2.219817e+03
1.483957e+03,2.218847e+03
1.484921e+03,2.218179e+03
1.485885e+03,2.218043e+03
1.486850e+03,2.219361e+03
1.487814e+03,2.220735e+03
1.488778e+03,2.220241e+03
1.489742e+03,2.216979e+03
1.490707e+03,2.214251e+03
1.491671e+03,2.214541e+03
1.492635e+03,2.216740e+03
1.493599e+03,2.220695e+03
1.494563e+03,2.224136e+03
1.495528e+03,2.221550e+03
1.496492e+03,2.212835e+03
1.497456e+03,2.205883e+03
1.498420e+03,2.202298e+03
1.499385e+03,2.199790e+03
1.500349e+03,2.195671e+03
1.501313e+03,2.192841e+03
1.502277e+03,2.194499e+03
1.503242e+03,2.198141e+03
1.504206e+03,2.199467e+03
1.505170e+03,2.195172e+03
1.506134e+03,2.199053e+03
1.507099e+03,2.216710e+03
1.508063e+03,2.227306e+03
1.509027e+03,2.221585e+03
1.509991e+03,2.208005e+03
1.510955e+03,2.199203e+03
1.511920e+03,2.194388e+03
1.512884e+03,2.192500e+03
1.513848e+03,2.194136e+03
1.514812e+03,2.198800e+03
1.515777e+03,2.209945e+03
1.516741e+03,2.216180e+03
1.517705e+03,2.208528e+03
1.518669e+03,2.198139e+03
1.519634e+03,2.194607e+03
1.520598e+03,2.197195e+03
1.521562e+03,2.199202e+03
1.522526e+03,2.199932e+03
1.523490e+03,2.197558e+03
1.524455e+03,2.191117e+03
1.525419e+03,2.185436e+03
1.526383e+03,2.186450e+03
1.527347e+03,2.189367e+03
1.528312e+03,2.192318e+03
1.529276e+03,2.194967e+03
1.530240e+03,2.193246e+03
1.531204e+03,2.182634e+03
1.532169e+03,2.178247e+03
1.533133e+03,2.182347e+03
1.534097e+03,2.187736e+03
1.535061e+03,2.189071e+03
1.536026e+03,2.187461e+03
1.536990e+03,2.184406e+03
1.537954e+03,2.181259e+03
1.538918e+03,2.180607e+03
1.539882e+03,2.183200e+03
1.540847e+03,2.185160e+03
1.541811e+03,2.186172e+03
1.542775e+03,2.183742e+03
1.543739e+03,2.177218e+03
1.544704e+03,2.168786e+03
1.545668e+03,2.159487e+03
1.546632e+03,2.151120e+03
1.547596e+03,2.152979e+03
1.548561e+03,2.163825e+03
1.549525e+03,2.173738e+03
1.550489e+03,2.177690e+03
1.551453e+03,2.177538e+03
1.552417e+03,2.170236e+03
1.553382e+03,2.162342e+03
1.554346e+03,2.160539e+03
1.555310e+03,2.164159e+03
1.556274e+03,2.162066e+03
1.557239e+03,2.154359e+03
1.558203e+03,2.155420e+03
1.559167e+03,2.169340e+03
1.560131e+03,2.182583e+03
1.561096e+03,2.183527e+03
1.562060e+03,2.178991e+03
1.563024e+03,2.171479e+03
1.563988e+03,2.163242e+03
1.564953e+03,2.158758e+03
1.565917e+03,2.159797e+03
1.566881e+03,2.158004e+03
1.567845e+03,2.152311e+03
1.568809e+03,2.147157e+03
1.569774e+03,2.144777e+03
1.570738e+03,2.145302e+03
1.571702e+03,2.151667e+03
1.572666e+03,2.159177e+03
1.573631e+03,2.162174e+03
1.574595e+03,2.160563e+03
1.575559e+03,2.156086e+03
1.576523e+03,2.146791e+03
1.577488e+03,2.141455e+03
1.578452e+03,2.141314e+03
1.579416e+03,2.141727e+03
1.580380e+03,2.137885e+03
1.581344e+03,2.132059e+03
1.582309e+03,2.128092e+03
1.583273e+03,2.126215e+03
1.584237e+03,2.126308e+03
1.585201e+03,2.129955e+03
1.586166e+03,2.131462e+03
1.587130e+03,2.129702e+03
1.588094e+03,2.124923e+03
1.589058e+03,2.116356e+03
1.590023e+03,2.107974e+03
1.590987e+03,2.108933e+03
1.591951e+03,2.115849e+03
1.592915e+03,2.117788e+03
1.593880e+03,2.113550e+03
1.594844e+03,2.111683e+03
1.595808e+03,2.118894e+03
1.596772e+03,2.125417e+03
1.597736e+03,2.130955e+03
1.598701e+03,2.134253e+03
1.599665e+03,2.132893e+03
1.600629e+03,2.128177e+03
1.601593e+03,2.125479e+03
1.602558e+03,2.124199e+03
1.603522e+03,2.122504e+03
1.604486e+03,2.119668e+03
1.605450e+03,2.116698e+03
1.606415e+03,2.115344e+03
1.607379e+03,2.113807e+03
1.608343e+03,2.110158e+03
1.609307e+03,2.106483e+03
1.610271e+03,2.109156e+03
1.611236e+03,2.115277e+03
1.612200e+03,2.110772e+03
1.613164e+03,2.097440e+03
1.614128e+03,2.086863e+03
1.615093e+03,2.084668e+03
1.616057e+03,2.085692e+03
1.617021e+03,2.091546e+03
1.617985e+03,2.095257e+03
1.618950e+03,2.092329e+03
1.619914e+03,2.084868e+03
1.620878e+03,2.081001e+03
1.621842e+03,2.079983e+03
1.622807e+03,2.077846e+03
1.623771e+03,2.074157e+03
1.624735e+03,2.070629e+03
1.625699e+03,2.066602e+03
1.626663e+03,2.063080e+03
1.627628e+03,2.059984e+03
1.628592e+03,2.056466e+03
1.629556e+03,2.052518e+03
1.630520e+03,2.049506e+03
1.631485e+03,2.051230e+03
1.632449e+03,2.055865e+03
1.633413e+03,2.055858e+03
1.634377e+03,2.045072e+03
1.635342e+03,2.038458e+03
1.636306e+03,2.049533e+03
1.637270e+03,2.056767e+03
1.638234e+03,2.047649e+03
1.639198e+03,2.031543e+03
1.640163e+03,2.030725e+03
1.641127e+03,2.041418e+03
1.642091e+03,2.051458e+03
1.643055e+03,2.058159e+03
1.644020e+03,2.059226e+03
1.644984e+03,2.046974e+03
1.645948e+03,2.037134e+03
1.646912e+03,2.034420e+03
1.647877e+03,2.033676e+03
1.648841e+03,2.030461e+03
1.649805e+03,2.026309e+03
1.650769e+03,2.026296e+03
1.651734e+03,2.028609e+03
1.652698e+03,2.029117e+03
1.653662e+03,2.025788e+03
1.654626e+03,2.023168e+03
1.655590e+03,2.023188e+03
1.656555e+03,2.023056e+03
1.657519e+03,2.023103e+03
1.658483e+03,2.023124e+03
1.659447e+03,2.021353e+03
1.660412e+03,2.017549e+03
1.661376e+03,2.010401e+03
1.662340e+03,2.003059e+03
1.663304e+03,2.003259e+03
1.664269e+03,2.022733e+03
1.665233e+03,2.029908e+03
1.666197e+03,2.020281e+03
1.667161e+03,2.010139e+03
1.668125e+03,2.008617e+03
1.669090e+03,2.012027e+03
1.670054e+03,2.018159e+03
1.671018e+03,2.023763e+03
1.671982e+03,2.024383e+03
1.672947e+03,2.019842e+03
1.673911e+03,2.015313e+03
1.674875e+03,2.010011e+03
1.675839e+03,2.004220e+03
1.676804e+03,1.999012e+03
1.677768e+03,1.994234e+03
1.678732e+03,1.985427e+03
1.679696e+03,1.979399e+03
1.680661e+03,1.986059e+03
1.681625e+03,1.996825e+03
1.682589e+03,2.000548e+03
1.683553e+03,1.997532e+03
1.684517e+03,1.995601e+03
1.685482e+03,1.994463e+03
1.686446e+03,1.994619e+03
1.687410e+03,1.996792e+03
1.688374e+03,1.996276e+03
1.689339e+03,1.983563e+03
1.690303e+03,1.973406e+03
1.691267e+03,1.978353e+03
1.692231e+03,1.988960e+03
1.693196e+03,1.987294e+03
1.694160e+03,1.974963e+03
1.695124e+03,1.967612e+03
1.696088e+03,1.965929e+03
1.697052e+03,1.967384e+03
1.698017e+03,1.971970e+03
1.698981e+03,1.974374e+03
1.699945e+03,1.971907e+03
1.700909e+03,1.967160e+03
1.701874e+03,1.961868e+03
1.702838e+03,1.958823e+03
1.703802e+03,1.965633e+03
1.704766e+03,1.974710e+03
1.705731e+03,1.970672e+03
1.706695e+03,1.953465e+03
1.707659e+03,1.944910e+03
1.708623e+03,1.953915e+03
1.709588e+03,1.958869e+03
1.710552e+03,1.955346e+03
1.711516e+03,1.950574e+03
1.712480e+03,1.952411e+03
1.713444e+03,1.955661e+03
1.714409e+03,1.956000e+03
1.715373e+03,1.954337e+03
1.716337e+03,1.950574e+03
1.717301e+03,1.945339e+03
1.718266e+03,1.942983e+03
1.719230e+03,1.942989e+03
1.720194e+03,1.943122e+03
1.721158e+03,1.942459e+03
1.722123e+03,1.942016e+03
1.723087e+03,1.946030e+03
1.724051e+03,1.946081e+03
1.725015e+03,1.935333e+03
1.725979e+03,1.922259e+03
1.726944e+03,1.918778e+03
1.727908e+03,1.922549e+03
1.728872e+03,1.924193e+03
1.729836e+03,1.923268e+03
1.730801e+03,1.921860e+03
1.731765e+03,1.920084e+03
1.732729e+03,1.920857e+03
1.733693e+03,1.925830e+03
1.734658e+03,1.929160e+03
1.735622e+03,1.927249e+03
1.736586e+03,1.924216e+03
1.737550e+03,1.928411e+03
1.738515e+03,1.933534e+03
1.739479e+03,1.928928e+03
1.740443e+03,1.917424e+03
1.741407e+03,1.918461e+03
1.742371e+03,1.933792e+03
1.743336e+03,1.948852e+03
1.744300e+03,1.961870e+03
1.745264e+03,1.963731e+03
1.746228e+03,1.937755e+03
1.747193e+03,1.914741e+03
1.748157e+03,1.914398e+03
1.749121e+03,1.920698e+03
1.750085e+03,1.921332e+03
1.751050e+03,1.916650e+03
1.752014e+03,1.914031e+03
1.752978e+03,1.912424e+03
1.753942e+03,1.906107e+03
1.754906e+03,1.893706e+03
1.755871e+03,1.889646e+03
1.756835e+03,1.900870e+03
1.757799e+03,1.904486e+03
1.758763e+03,1.897711e+03
1.759728e+03,1.889818e+03
1.760692e+03,1.889652e+03
1.761656e+03,1.891685e+03
1.762620e+03,1.890132e+03
1.763585e+03,1.886057e+03
1.764549e+03,1.880457e+03
1.765513e+03,1.872802e+03
1.766477e+03,1.873786e+03
1.767442e+03,1.882254e+03
1.768406e+03,1.887914e+03
1.769370e+03,1.887383e+03
1.770334e+03,1.887020e+03
1.771298e+03,1.890531e+03
1.772263e+03,1.890739e+03
1.773227e+03,1.884904e+03
1.774191e+03,1.878667e+03
1.775155e+03,1.881586e+03
1.776120e+03,1.886932e+03
1.777084e+03,1.883162e+03
1.778048e+03,1.874011e+03
1.779012e+03,1.870398e+03
1.779977e+03,1.874350e+03
1.780941e+03,1.880808e+03
1.781905e+03,1.888771e+03
1.782869e+03,1.891113e+03
1.783833e+03,1.883381e+03
1.784798e+03,1.874456e+03
1.785762e+03,1.867460e+03
1.786726e+03,1.863569e+03
1.787690e+03,1.864963e+03
1.788655e+03,1.867837e+03
1.789619e+03,1.862369e+03
1.790583e+03,1.853325e+03
1.791547e+03,1.851246e+03
1.792512e+03,1.855041e+03
1.793476e+03,1.854520e+03
1.794440e+03,1.845439e+03
1.795404e+03,1.839578e+03
1.796369e+03,1.836904e+03
1.797333e+03,1.835450e+03
1.798297e+03,1.834503e+03
1.799261e+03,1.834435e+03
1.800225e+03,1.835397e+03
1.801190e+03,1.836141e+03
1.802154e+03,1.836723e+03
1.803118e+03,1.836712e+03
1.804082e+03,1.836371e+03
1.805047e+03,1.835717e+03
1.806011e+03,1.832166e+03
1.806975e+03,1.825947e+03
1.807939e+03,1.824510e+03
1.808904e+03,1.830619e+03
1.809868e+03,1.831020e+03
1.810832e+03,1.824623e+03
1.811796e+03,1.819406e+03
1.812760e+03,1.822962e+03
1.813725e+03,1.826897e+03
1.814689e+03,1.824822e+03
1.815653e+03,1.822255e+03
1.816617e+03,1.824745e+03
1.817582e+03,1.829067e+03
1.818546e+03,1.821585e+03
1.819510e+03,1.808175e+03
1.820474e+03,1.803207e+03
1.821439e+03,1.809285e+03
1.822403e+03,1.811616e+03
1.823367e+03,1.807897e+03
1.824331e+03,1.807605e+03
1.825296e+03,1.811809e+03
1.826260e+03,1.815199e+03
1.827224e+03,1.817977e+03
1.828188e+03,1.816432e+03
1.829152e+03,1.801422e+03
1.830117e+03,1.786547e+03
1.831081e+03,1.783755e+03
1.832045e+03,1.788636e+03
1.833009e+03,1.792127e+03
1.833974e+03,1.795379e+03
1.834938e+03,1.797628e+03
1.835902e+03,1.797821e+03
1.836866e+03,1.795434e+03
1.837831e+03,1.789786e+03
1.838795e+03,1.791678e+03
1.839759e+03,1.804727e+03
1.840723e+03,1.812866e+03
1.841688e+03,1.796492e+03
1.842652e+03,1.782779e+03
1.843616e+03,1.781071e+03
1.844580e+03,1.782652e+03
1.845544e+03,1.779775e+03
1.846509e+03,1.775072e+03
1.847473e+03,1.771430e+03
1.848437e+03,1.769598e+03
1.849401e+03,1.772699e+03
1.850366e+03,1.780816e+03
1.851330e+03,1.780265e+03
1.852294e+03,1.772543e+03
1.853258e+03,1.765166e+03
1.854223e+03,1.759668e+03
1.855187e+03,1.757962e+03
1.856151e+03,1.762579e+03
1.857115e+03,1.767712e+03
1.858079e+03,1.773054e+03
1.859044e+03,1.774262e+03
1.860008e+03,1.764689e+03
1.860972e+03,1.752289e+03
1.861936e+03,1.741866e+03
1.862901e+03,1.735865e+03
1.863865e+03,1.736674e+03
1.864829e+03,1.742307e+03
1.865793e+03,1.748114e+03
1.866758e+03,1.752981e+03
1.867722e+03,1.750479e+03
1.868686e+03,1.736109e+03
1.869650e+03,1.729868e+03
1.870615e+03,1.733730e+03
1.871579e+03,1.737694e+03
1.872543e+03,1.740171e+03
1.873507e+03,1.742780e+03
1.874471e+03,1.746773e+03
1.875436e+03,1.747014e+03
1.876400e+03,1.740165e+03
1.877364e+03,1.732947e+03
1.878328e+03,1.735315e+03
1.879293e+03,1.740933e+03
1.880257e+03,1.735630e+03
1.881221e+03,1.723937e+03
1.882185e+03,1.716206e+03
1.883150e+03,1.713354e+03
1.884114e+03,1.716014e+03
1.885078e+03,1.722703e+03
1.886042e+03,1.726057e+03
1.887006e+03,1.723512e+03
1.887971e+03,1.720867e+03
1.888935e+03,1.720372e+03
1.889899e+03,1.721652e+03
1.890863e+03,1.723949e+03
1.891828e+03,1.725676e+03
1.892792e+03,1.728161e+03
1.893756e+03,1.728033e+03
1.894720e+03,1.721988e+03
1.895685e+03,1.715152e+03
1.896649e+03,1.710811e+03
1.897613e+03,1.707879e+03
1.898577e+03,1.706311e+03
1.899542e+03,1.705040e+03
1.900506e+03,1.699228e+03
1.901470e+03,1.686717e+03
1.902434e+03,1.691102e+03
1.903398e+03,1.711363e+03
1.904363e+03,1.722761e+03
1.905327e+03,1.718786e+03
1.906291e+03,1.712102e+03
1.907255e+03,1.704433e+03
1.908220e+03,1.699504e+03
1.909184e+03,1.698046e+03
1.910148e+03,1.699663e+03
1.911112e+03,1.709899e+03
1.912077e+03,1.718364e+03
1.913041e+03,1.715185e+03
1.914005e+03,1.705322e+03
1.914969e+03,1.690464e+03
1.915933e+03,1.674739e+03
1.916898e+03,1.676431e+03
1.917862e+03,1.687715e+03
1.918826e+03,1.691437e+03
1.919790e+03,1.685044e+03
1.920755e+03,1.679025e+03
1.921719e+03,1.672726e+03
1.922683e+03,1.675674e+03
1.923647e+03,1.690727e+03
1.924612e+03,1.698836e+03
1.925576e+03,1.682038e+03
1.926540e+03,1.674071e+03
1.927504e+03,1.680316e+03
1.928469e+03,1.685502e+03
1.929433e+03,1.672464e+03
1.930397e+03,1.657150e+03
1.931361e+03,1.649939e+03
1.932325e+03,1.647892e+03
1.933290e+03,1.650926e+03
1.934254e+03,1.657789e+03
1.935218e+03,1.663646e+03
1.936182e+03,1.666810e+03
1.937147e+03,1.666250e+03
1.938111e+03,1.662886e+03
1.939075e+03,1.658822e+03
1.940039e+03,1.654985e+03
1.941004e+03,1.651996e+03
1.941968e+03,1.648955e+03
1.942932e+03,1.647424e+03
1.943896e+03,1.650182e+03
1.944860e+03,1.649196e+03
1.945825e+03,1.644285e+03
1.946789e+03,1.639275e+03
1.947753e+03,1.635234e+03
1.948717e+03,1.632373e+03
1.949682e+03,1.630284e+03
1.950646e+03,1.629829e+03
1.951610e+03,1.632302e+03
1.952574e+03,1.635740e+03
1.953539e+03,1.638345e+03
1.954503e+03,1.639155e+03
1.955467e+03,1.637735e+03
1.956431e+03,1.634531e+03
1.957396e+03,1.626929e+03
1.958360e+03,1.617850e+03
1.959324e+03,1.616343e+03
1.960288e+03,1.622756e+03
1.961252e+03,1.629611e+03
1.962217e+03,1.635913e+03
1.963181e+03,1.635350e+03
1.964145e+03,1.628085e+03
1.965109e+03,1.620592e+03
1.966074e+03,1.614826e+03
1.967038e+03,1.614095e+03
1.968002e+03,1.618124e+03
1.968966e+03,1.618011e+03
1.969931e+03,1.607754e+03
1.970895e+03,1.598364e+03
1.971859e+03,1.603016e+03
1.972823e+03,1.607863e+03
1.973787e+03,1.605752e+03
1.974752e+03,1.600804e+03
1.975716e+03,1.599101e+03
1.976680e+03,1.598408e+03
1.977644e+03,1.596603e+03
1.978609e+03,1.596233e+03
1.979573e+03,1.601573e+03
1.980537e+03,1.609871e+03
1.981501e+03,1.613135e+03
1.982466e+03,1.612573e+03
1.983430e+03,1.611582e+03
1.984394e+03,1.610553e+03
1.985358e+03,1.605459e+03
1.986323e+03,1.597051e+03
1.987287e+03,1.592052e+03
1.988251e+03,1.593382e+03
1.989215e+03,1.590609e+03
1.990179e+03,1.582079e+03
1.991144e+03,1.574203e+03
1.992108e+03,1.568653e+03
1.993072e+03,1.568506e+03
1.994036e+03,1.581921e+03
1.995001e+03,1.590466e+03
1.995965e+03,1.588644e+03
1.996929e+03,1.583679e+03
1.997893e+03,1.580146e+03
1.998858e+03,1.577099e+03
1.999822e+03,1.573299e+03
2.000786e+03,1.570447e+03
2.001750e+03,1.572519e+03
2.002714e+03,1.577154e+03
2.003679e+03,1.575923e+03
2.004643e+03,1.570868e+03
2.005607e+03,1.565221e+03
2.006571e+03,1.560231e+03
2.007536e+03,1.559983e+03
2.008500e+03,1.562160e+03
2.009464e+03,1.556466e+03
2.010428e+03,1.543744e+03
2.011393e+03,1.541760e+03
2.012357e+03,1.552075e+03
2.013321e+03,1.557968e+03
2.014285e+03,1.557573e+03
2.015250e+03,1.558211e+03
2.016214e+03,1.567152e+03
2.017178e+03,1.570049e+03
2.018142e+03,1.566436e+03
2.019106e+03,1.560108e+03
2.020071e+03,1.550435e+03
2.021035e+03,1.544069e+03
2.021999e+03,1.545956e+03
2.022963e+03,1.547829e+03
2.023928e+03,1.547407e+03
2.024892e+03,1.546016e+03
2.025856e+03,1.544052e+03
2.026820e+03,1.542674e+03
2.027785e+03,1.543112e+03
2.028749e+03,1.542745e+03
2.029713e+03,1.536528e+03
2.030677e+03,1.529687e+03
2.031641e+03,1.530314e+03
2.032606e+03,1.534023e+03
2.033570e+03,1.532952e+03
2.034534e+03,1.528055e+03
2.035498e+03,1.526358e+03
2.036463e+03,1.525034e+03
2.037427e+03,1.513227e+03
2.038391e+03,1.492394e+03
2.039355e+03,1.493705e+03
2.040320e+03,1.511740e+03
2.041284e+03,1.522818e+03
2.042248e+03,1.521143e+03
2.043212e+03,1.516337e+03
2.044177e+03,1.509513e+03
2.045141e+03,1.505839e+03
2.046105e+03,1.505707e+03
2.047069e+03,1.506189e+03
2.048033e+03,1.506089e+03
2.048998e+03,1.503420e+03
2.049962e+03,1.498187e+03
2.050926e+03,1.495651e+03
2.051890e+03,1.503859e+03
2.052854e+03,1.507640e+03
2.053819e+03,1.500486e+03
2.054783e+03,1.491965e+03
2.055747e+03,1.487431e+03
2.056711e+03,1.486184e+03
2.057676e+03,1.487708e+03
2.058640e+03,1.492321e+03
2.059604e+03,1.500373e+03
2.060568e+03,1.506732e+03
2.061533e+03,1.503089e+03
2.062497e+03,1.496277e+03
2.063461e+03,1.493554e+03
2.064425e+03,1.491537e+03
2.065390e+03,1.482824e+03
2.066354e+03,1.472596e+03
2.067318e+03,1.474195e+03
2.068282e+03,1.481056e+03
2.069247e+03,1.477122e+03
2.070211e+03,1.464659e+03
2.071175e+03,1.462535e+03
2.072139e+03,1.467031e+03
2.073104e+03,1.468925e+03
2.074068e+03,1.467397e+03
2.075032e+03,1.465885e+03
2.075996e+03,1.464253e+03
2.076960e+03,1.465014e+03
2.077925e+03,1.468442e+03
2.078889e+03,1.470343e+03
2.079853e+03,1.470539e+03
2.080817e+03,1.469103e+03
2.081782e+03,1.465853e+03
2.082746e+03,1.458905e+03
2.083710e+03,1.444355e+03
2.084674e+03,1.439759e+03
2.085639e+03,1.446824e+03
2.086603e+03,1.451928e+03
2.087567e+03,1.440426e+03
2.088531e+03,1.435452e+03
2.089496e+03,1.440750e+03
2.090460e+03,1.443313e+03
2.091424e+03,1.438530e+03
2.092388e+03,1.435427e+03
2.093353e+03,1.441029e+03
2.094317e+03,1.444904e+03
2.095281e+03,1.442331e+03
2.096245e+03,1.437002e+03
2.097209e+03,1.430694e+03
2.098174e+03,1.426354e+03
2.099138e+03,1.426303e+03
2.100102e+03,1.426983e+03
2.101066e+03,1.424612e+03
2.102031e+03,1.420710e+03
2.102995e+03,1.415195e+03
2.103959e+03,1.410512e+03
2.104923e+03,1.408290e+03
2.105887e+03,1.409675e+03
2.106852e+03,1.416814e+03
2.107816e+03,1.423620e+03
2.108780e+03,1.425086e+03
2.109744e+03,1.422687e+03
2.110708e+03,1.420688e+03
2.111673e+03,1.419194e+03
2.112637e+03,1.416443e+03
2.113601e+03,1.411982e+03
2.114565e+03,1.405087e+03
2.115530e+03,1.398292e+03
2.116494e+03,1.398162e+03
2.117458e+03,1.404789e+03
2.118422e+03,1.409373e+03
2.119387e+03,1.411170e+03
2.120351e+03,1.413234e+03
2.121315e+03,1.414681e+03
2.122279e+03,1.415889e+03
2.123244e+03,1.416795e+03
2.124208e+03,1.411313e+03
2.125172e+03,1.402404e+03
2.126136e+03,1.399054e+03
2.127101e+03,1.404165e+03
2.128065e+03,1.405303e+03
2.129029e+03,1.402784e+03
2.129993e+03,1.401650e+03
2.130958e+03,1.401491e+03
2.131922e+03,1.400272e+03
2.132886e+03,1.398116e+03
2.133850e+03,1.399442e+03
2.134814e+03,1.405577e+03
2.135779e+03,1.407829e+03
2.136743e+03,1.400539e+03
2.137707e+03,1.394744e+03
2.138671e+03,1.391389e+03
2.139636e+03,1.387988e+03
2.140600e+03,1.381995e+03
2.141564e+03,1.379382e+03
2.142528e+03,1.380938e+03
2.143493e+03,1.381590e+03
2.144457e+03,1.378639e+03
2.145421e+03,1.373681e+03
2.146385e+03,1.366765e+03
2.147350e+03,1.361710e+03
2.148314e+03,1.360137e+03
2.149278e+03,1.362734e+03
2.150242e+03,1.372527e+03
2.151207e+03,1.377542e+03
2.152171e+03,1.374911e+03
2.153135e+03,1.371833e+03
2.154099e+03,1.379625e+03
2.155063e+03,1.381827e+03
2.156028e+03,1.374730e+03
2.156992e+03,1.365790e+03
2.157956e+03,1.354009e+03
2.158920e+03,1.348664e+03
2.159885e+03,1.355820e+03
2.160849e+03,1.365734e+03
2.161813e+03,1.375958e+03
2.162777e+03,1.381590e+03
2.163741e+03,1.376869e+03
2.164706e+03,1.368147e+03
2.165670e+03,1.358203e+03
2.166634e+03,1.350040e+03
2.167598e+03,1.346391e+03
2.168563e+03,1.343457e+03
2.169527e+03,1.337660e+03
2.170491e+03,1.332620e+03
2.171455e+03,1.335575e+03
2.172420e+03,1.339899e+03
2.173384e+03,1.341160e+03
2.174348e+03,1.342687e+03
2.175312e+03,1.348996e+03
2.176277e+03,1.353219e+03
2.177241e+03,1.347301e+03
2.178205e+03,1.337703e+03
2.179169e+03,1.327516e+03
2.180134e+03,1.320333e+03
2.181098e+03,1.321656e+03
2.182062e+03,1.325705e+03
2.183026e+03,1.327659e+03
2.183990e+03,1.327945e+03
2.184955e+03,1.326915e+03
2.185919e+03,1.325281e+03
2.186883e+03,1.322465e+03
2.187847e+03,1.319736e+03
2.188812e+03,1.320925e+03
2.189776e+03,1.322463e+03
2.190740e+03,1.319161e+03
2.191704e+03,1.313665e+03
2.192668e+03,1.308309e+03
2.193633e+03,1.303744e+03
2.194597e+03,1.300358e+03
2.195561e+03,1.298815e+03
2.196525e+03,1.299039e+03
2.197490e+03,1.300386e+03
2.198454e+03,1.302807e+03
2.199418e+03,1.304790e+03
2.200382e+03,1.305141e+03
2.201347e+03,1.305702e+03
2.202311e+03,1.308796e+03
2.203275e+03,1.312019e+03
2.204239e+03,1.311880e+03
2.205204e+03,1.309158e+03
2.206168e+03,1.305404e+03
2.207132e+03,1.303031e+03
2.208096e+03,1.306349e+03
2.209061e+03,1.309037e+03
2.210025e+03,1.305325e+03
2.210989e+03,1.297677e+03
2.211953e+03,1.286814e+03
2.212917e+03,1.280291e+03
2.213882e+03,1.282373e+03
2.214846e+03,1.288185e+03
2.215810e+03,1.293620e+03
2.216774e+03,1.294405e+03
2.217739e+03,1.289008e+03
2.218703e+03,1.281289e+03
2.219667e+03,1.276609e+03
2.220631e+03,1.273431e+03
2.221595e+03,1.269511e+03
2.222560e+03,1.265577e+03
2.223524e+03,1.263558e+03
2.224488e+03,1.261965e+03
2.225452e+03,1.257809e+03
2.226417e+03,1.255811e+03
2.227381e+03,1.263580e+03
2.228345e+03,1.273713e+03
2.229309e+03,1.275248e+03
2.230274e+03,1.271837e+03
2.231238e+03,1.265841e+03
2.232202e+03,1.259739e+03
2.233166e+03,1.257682e+03
2.234131e+03,1.260277e+03
2.235095e+03,1.269130e+03
2.236059e+03,1.276865e+03
2.237023e+03,1.267596e+03
2.237988e+03,1.256758e+03
2.238952e+03,1.254834e+03
2.239916e+03,1.256706e+03
2.240880e+03,1.259275e+03
2.241844e+03,1.260855e+03
2.242809e+03,1.259765e+03
2.243773e+03,1.257818e+03
2.244737e+03,1.254833e+03
2.245701e+03,1.252599e+03
2.246666e+03,1.254548e+03
2.247630e+03,1.254158e+03
2.248594e+03,1.245929e+03
2.249558e+03,1.238438e+03
2.250522e+03,1.241084e+03
2.251487e+03,1.244767e+03
2.252451e+03,1.244296e+03
2.253415e+03,1.240205e+03
2.254379e+03,1.231045e+03
2.255344e+03,1.226594e+03
2.256308e+03,1.232419e+03
2.257272e+03,1.237613e+03
2.258236e+03,1.227755e+03
2.259201e+03,1.219752e+03
2.260165e+03,1.218521e+03
2.261129e+03,1.220588e+03
2.262093e+03,1.226233e+03
2.263058e+03,1.228119e+03
2.264022e+03,1.224898e+03
2.264986e+03,1.222357e+03
2.265950e+03,1.224933e+03
2.266915e+03,1.224719e+03
2.267879e+03,1.217734e+03
2.268843e+03,1.211592e+03
2.269807e+03,1.211729e+03
2.270771e+03,1.212239e+03
2.271736e+03,1.211245e+03
2.272700e+03,1.210826e+03
2.273664e+03,1.210279e+03
2.274628e+03,1.209189e+03
2.275593e+03,1.207078e+03
2.276557e+03,1.204029e+03
2.277521e+03,1.200971e+03
2.278485e+03,1.198862e+03
2.279449e+03,1.198331e+03
2.280414e+03,1.197712e+03
2.281378e+03,1.196767e+03
2.282342e+03,1.196552e+03
2.283306e+03,1.197554e+03
2.284271e+03,1.196584e+03
2.285235e+03,1.193510e+03
2.286199e+03,1.190215e+03
2.287163e+03,1.189010e+03
2.288128e+03,1.188969e+03
2.289092e+03,1.188729e+03
2.290056e+03,1.185770e+03
2.291020e+03,1.179682e+03
2.291985e+03,1.173432e+03
2.292949e+03,1.168468e+03
2.293913e+03,1.168154e+03
2.294877e+03,1.172511e+03
2.295842e+03,1.181317e+03
2.296806e+03,1.192133e+03
2.297770e+03,1.189871e+03
2.298734e+03,1.178629e+03
2.299698e+03,1.180656e+03
2.300663e+03,1.193653e+03
2.301627e+03,1.187877e+03
2.302591e+03,1.171523e+03
2.303555e+03,1.166748e+03
2.304520e+03,1.171365e+03
2.305484e+03,1.171513e+03
2.306448e+03,1.170306e+03
2.307412e+03,1.173295e+03
2.308376e+03,1.177296e+03
2.309341e+03,1.175188e+03
2.310305e+03,1.168686e+03
2.311269e+03,1.157504e+03
2.312233e+03,1.149102e+03
2.313198e+03,1.157744e+03
2.314162e+03,1.171239e+03
2.315126e+03,1.178807e+03
2.316090e+03,1.180433e+03
2.317055e+03,1.172851e+03
2.318019e+03,1.163947e+03
2.318983e+03,1.160003e+03
2.319947e+03,1.157532e+03
2.320912e+03,1.155602e+03
2.321876e+03,1.154318e+03
2.322840e+03,1.154197e+03
2.323804e+03,1.152237e+03
2.324769e+03,1.146011e+03
2.325733e+03,1.142043e+03
2.326697e+03,1.145553e+03
2.327661e+03,1.149290e+03
2.328625e+03,1.150545e+03
2.329590e+03,1.149948e+03
2.330554e+03,1.148254e+03
2.331518e+03,1.148711e+03
2.332482e+03,1.151964e+03
2.333447e+03,1.149408e+03
2.334411e+03,1.131032e+03
2.335375e+03,1.122735e+03
2.336339e+03,1.125658e+03
2.337303e+03,1.129556e+03
2.338268e+03,1.131045e+03
2.339232e+03,1.128351e+03
2.340196e+03,1.122585e+03
2.341160e+03,1.118475e+03
2.342125e+03,1.116994e+03
2.343089e+03,1.121476e+03
2.344053e+03,1.128586e+03
2.345017e+03,1.131604e+03
2.345982e+03,1.130084e+03
2.346946e+03,1.124712e+03
2.347910e+03,1.118940e+03
2.348874e+03,1.121077e+03
2.349839e+03,1.127186e+03
2.350803e+03,1.127541e+03
2.351767e+03,1.124412e+03
2.352731e+03,1.120386e+03
2.353696e+03,1.116827e+03
2.354660e+03,1.112448e+03
2.355624e+03,1.109716e+03
2.356588e+03,1.118885e+03
2.357552e+03,1.127123e+03
2.358517e+03,1.120439e+03
2.359481e+03,1.110209e+03
2.360445e+03,1.108532e+03
2.361409e+03,1.109751e+03
2.362374e+03,1.111886e+03
2.363338e+03,1.113693e+03
2.364302e+03,1.117421e+03
2.365266e+03,1.118173e+03
2.366230e+03,1.112774e+03
2.367195e+03,1.108401e+03
2.368159e+03,1.110706e+03
2.369123e+03,1.111252e+03
2.370087e+03,1.109844e+03
2.371052e+03,1.109930e+03
2.372016e+03,1.114914e+03
2.372980e+03,1.115790e+03
2.373944e+03,1.112002e+03
2.374909e+03,1.108240e+03
2.375873e+03,1.106418e+03
2.376837e+03,1.103001e+03
2.377801e+03,1.098668e+03
2.378766e+03,1.095541e+03
2.379730e+03,1.093839e+03
2.380694e+03,1.092312e+03
2.381658e+03,1.091044e+03
2.382623e+03,1.086714e+03
2.383587e+03,1.081195e+03
2.384551e+03,1.083530e+03
2.385515e+03,1.087527e+03
2.386479e+03,1.081893e+03
2.387444e+03,1.073833e+03
2.388408e+03,1.072988e+03
2.389372e+03,1.077992e+03
2.390336e+03,1.091794e+03
2.391301e+03,1.100533e+03
2.392265e+03,1.082087e+03
2.393229e+03,1.064718e+03
2.394193e+03,1.065656e+03
2.395157e+03,1.073338e+03
2.396122e+03,1.086285e+03
2.397086e+03,1.093079e+03
2.398050e+03,1.090043e+03
2.399014e+03,1.086769e+03
2.399979e+03,1.086886e+03
2.400943e+03,1.084189e+03
2.401907e+03,1.077081e+03
2.402871e+03,1.074533e+03
2.403836e+03,1.079008e+03
2.404800e+03,1.083737e+03
2.405764e+03,1.087599e+03
2.406728e+03,1.091574e+03
2.407693e+03,1.093539e+03
2.408657e+03,1.085512e+03
2.409621e+03,1.070964e+03
2.410585e+03,1.063199e+03
2.411550e+03,1.060626e+03
2.412514e+03,1.055361e+03
2.413478e+03,1.049967e+03
2.414442e+03,1.052891e+03
2.415406e+03,1.059887e+03
2.416371e+03,1.068877e+03
2.417335e+03,1.072930e+03
2.418299e+03,1.053686e+03
2.419263e+03,1.035761e+03
2.420228e+03,1.031602e+03
2.421192e+03,1.035454e+03
2.422156e+03,1.050343e+03
2.423120e+03,1.058560e+03
2.424084e+03,1.054420e+03
2.425049e+03,1.048442e+03
2.426013e+03,1.046857e+03
2.426977e+03,1.046828e+03
2.427941e+03,1.048864e+03
2.428906e+03,1.051743e+03
2.429870e+03,1.055264e+03
2.430834e+03,1.050780e+03
2.431798e+03,1.040501e+03
2.432763e+03,1.035397e+03
2.433727e+03,1.035443e+03
2.434691e+03,1.038457e+03
2.435655e+03,1.041475e+03
2.436620e+03,1.037795e+03
2.437584e+03,1.030638e+03
2.438548e+03,1.028643e+03
2.439512e+03,1.028193e+03
2.440477e+03,1.024395e+03
2.441441e+03,1.020305e+03
2.442405e+03,1.022745e+03
2.443369e+03,1.026070e+03
2.444333e+03,1.028201e+03
2.445298e+03,1.029197e+03
2.446262e+03,1.028908e+03
2.447226e+03,1.025576e+03
2.448190e+03,1.019363e+03
2.449155e+03,1.015824e+03
2.450119e+03,1.020980e+03
2.451083e+03,1.025039e+03
2.452047e+03,1.027446e+03
2.453011e+03,1.026481e+03
2.453976e+03,1.021876e+03
2.454940e+03,1.025602e+03
2.455904e+03,1.033480e+03
2.456868e+03,1.027190e+03
2.457833e+03,1.011097e+03
2.458797e+03,1.001190e+03
2.459761e+03,9.977408e+02
2.460725e+03,1.002242e+03
2.461690e+03,1.008417e+03
2.462654e+03,1.007003e+03
2.463618e+03,1.004620e+03
2.464582e+03,1.006310e+03
2.465547e+03,1.008508e+03
2.466511e+03,1.004234e+03
2.467475e+03,1.003816e+03
2.468439e+03,1.009771e+03
2.469404e+03,1.012683e+03
2.470368e+03,1.005012e+03
2.471332e+03,1.002613e+03
2.472296e+03,1.004503e+03
2.473260e+03,1.000901e+03
2.474225e+03,9.888393e+02
2.475189e+03,9.960442e+02
2.476153e+03,1.014886e+03
2.477117e+03,1.016724e+03
2.478082e+03,1.006904e+03
2.479046e+03,1.009952e+03
2.480010e+03,1.015961e+03
2.480974e+03,1.011337e+03
2.481938e+03,1.002919e+03
2.482903e+03,9.967175e+02
2.483867e+03,9.955032e+02
2.484831e+03,1.000639e+03
2.485795e+03,1.005806e+03
2.486760e+03,1.008908e+03
2.487724e+03,1.005638e+03
2.488688e+03,9.959344e+02
2.489652e+03,9.881687e+02
2.490617e+03,9.871465e+02
2.491581e+03,9.824783e+02
2.492545e+03,9.758969e+02
2.493509e+03,9.762529e+02
2.494474e+03,9.833865e+02
2.495438e+03,9.872545e+02
2.496402e+03,9.881781e+02
2.497366e+03,9.849282e+02
2.498331e+03,9.815854e+02
2.499295e+03,9.891852e+02
2.500259e+03,9.961742e+02
2.501223e+03,9.933732e+02
2.502188e+03,9.881776e+02
2.503152e+03,9.885018e+02
2.504116e+03,9.871211e+02
2.505080e+03,9.818095e+02
2.506044e+03,9.770561e+02
2.507009e+03,9.740891e+02
2.507973e+03,9.754028e+02
2.508937e+03,9.809416e+02
2.509901e+03,9.839149e+02
2.510865e+03,9.822535e+02
2.511830e+03,9.806237e+02
2.512794e+03,9.780999e+02
2.513758e+03,9.742406e+02
2.514722e+03,9.699453e+02
2.515687e+03,9.639552e+02
2.516651e+03,9.594020e+02
2.517615e+03,9.601280e+02
2.518579e+03,9.613054e+02
2.519544e+03,9.536411e+02
2.520508e+03,9.508636e+02
2.521472e+03,9.586365e+02
2.522436e+03,9.662858e+02
2.523401e+03,9.661404e+02
2.524365e+03,9.645343e+02
2.525329e+03,9.613233e+02
2.526293e+03,9.623977e+02
2.527258e+03,9.703895e+02
2.528222e+03,9.713053e+02
2.529186e+03,9.666057e+02
2.530150e+03,9.614938e+02
2.531115e+03,9.566208e+02
2.532079e+03,9.469317e+02
2.533043e+03,9.414045e+02
2.534007e+03,9.492598e+02
2.534971e+03,9.599583e+02
2.535936e+03,9.657101e+02
2.536900e+03,9.613282e+02
2.537864e+03,9.427307e+02
2.538828e+03,9.307277e+02
2.539792e+03,9.363227e+02
2.540757e+03,9.412144e+02
2.541721e+03,9.432259e+02
2.542685e+03,9.448499e+02
2.543649e+03,9.469987e+02
2.544614e+03,9.513362e+02
2.545578e+03,9.547010e+02
2.546542e+03,9.500316e+02
2.547506e+03,9.414078e+02
2.548471e+03,9.360510e+02
2.549435e+03,9.346251e+02
2.550399e+03,9.394564e+02
2.551363e+03,9.441619e+02
2.552328e+03,9.431039e+02
2.553292e+03,9.438610e+02
2.554256e+03,9.503629e+02
2.555220e+03,9.510500e+02
2.556185e+03,9.440052e+02
2.557149e+03,9.366063e+02
2.558113e+03,9.306432e+02
2.559077e+03,9.316141e+02
2.560042e+03,9.367354e+02
2.561006e+03,9.384109e+02
2.561970e+03,9.388567e+02
2.562934e+03,9.418962e+02
2.563898e+03,9.430546e+02
2.564863e+03,9.332553e+02
2.565827e+03,9.253557e+02
2.566791e+03,9.358209e+02
2.567755e+03,9.426610e+02
2.568719e+03,9.391937e+02
2.569684e+03,9.344611e+02
2.570648e+03,9.320754e+02
2.571612e+03,9.316151e+02
2.572576e+03,9.334491e+02
2.573541e+03,9.358676e+02
2.574505e+03,9.364199e+02
2.575469e+03,9.264471e+02
2.576433e+03,9.144102e+02
2.577398e+03,9.158012e+02
2.578362e+03,9.209083e+02
2.579326e+03,9.137296e+02
2.580290e+03,9.125931e+02
2.581255e+03,9.258259e+02
2.582219e+03,9.337410e+02
2.583183e+03,9.149795e+02
2.584147e+03,9.062079e+02
2.585112e+03,9.097278e+02
2.586076e+03,9.126152e+02
2.587040e+03,9.123444e+02
2.588004e+03,9.182477e+02
2.588969e+03,9.248419e+02
2.589933e+03,9.208760e+02
2.590897e+03,9.131345e+02
2.591861e+03,9.182279e+02
2.592825e+03,9.218954e+02
2.593790e+03,9.136609e+02
2.594754e+03,9.043915e+02
2.595718e+03,9.003234e+02
2.596682e+03,9.034091e+02
2.597646e+03,9.144518e+02
2.598611e+03,9.096852e+02
2.599575e+03,8.905645e+02
2.600539e+03,8.888182e+02
2.601503e+03,9.018889e+02
2.602468e+03,9.053787e+02
2.603432e+03,9.024365e+02
2.604396e+03,8.975624e+02
2.605360e+03,8.944456e+02
2.606325e+03,8.968718e+02
2.607289e+03,8.992853e+02
2.608253e+03,8.996324e+02
2.609217e+03,8.986155e+02
2.610182e+03,8.943646e+02
2.611146e+03,8.910814e+02
2.612110e+03,8.894542e+02
2.613074e+03,8.907643e+02
2.614039e+03,8.949104e+02
2.615003e+03,8.983983e+02
2.615967e+03,9.001207e+02
2.616931e+03,9.004319e+02
2.617896e+03,9.002146e+02
2.618860e+03,9.020922e+02
2.619824e+03,8.982071e+02
2.620788e+03,8.849617e+02
2.621752e+03,8.751825e+02
2.622717e+03,8.773050e+02
2.623681e+03,8.845983e+02
2.624645e+03,8.950217e+02
2.625609e+03,8.972822e+02
2.626573e+03,8.927607e+02
2.627538e+03,8.954230e+02
2.628502e+03,8.998173e+02
2.629466e+03,8.969768e+02
2.630430e+03,8.898268e+02
2.631395e+03,8.773370e+02
2.632359e+03,8.696524e+02
2.633323e+03,8.714432e+02
2.634287e+03,8.776762e+02
2.635252e+03,8.870157e+02
2.636216e+03,8.887052e+02
2.637180e+03,8.809159e+02
2.638144e+03,8.817334e+02
2.639109e+03,8.878165e+02
2.640073e+03,8.932625e+02
2.641037e+03,8.961625e+02
2.642001e+03,8.899941e+02
2.642966e+03,8.808685e+02
2.643930e+03,8.713801e+02
2.644894e+03,8.669987e+02
2.645858e+03,8.744025e+02
2.646823e+03,8.852916e+02
2.647787e+03,8.970134e+02
2.648751e+03,8.949465e+02
2.649715e+03,8.793732e+02
2.650679e+03,8.747394e+02
2.651644e+03,8.743387e+02
2.652608e+03,8.658780e+02
2.653572e+03,8.573408e+02
2.654536e+03,8.634099e+02
2.655500e+03,8.714975e+02
2.656465e+03,8.775951e+02
2.657429e+03,8.797214e+02
2.658393e+03,8.767885e+02
2.659357e+03,8.709694e+02
2.660322e+03,8.645225e+02
2.661286e+03,8.635535e+02
2.662250e+03,8.652576e+02
2.663214e+03,8.610165e+02
2.664179e+03,8.544085e+02
2.665143e+03,8.479623e+02
2.666107e+03,8.463435e+02
2.667071e+03,8.526065e+02
2.668036e+03,8.568292e+02
2.669000e+03,8.493636e+02
2.669964e+03,8.514874e+02
2.670928e+03,8.615881e+02
2.671893e+03,8.669378e+02
2.672857e+03,8.671316e+02
2.673821e+03,8.626912e+02
2.674785e+03,8.554450e+02
2.675750e+03,8.475999e+02
2.676714e+03,8.421575e+02
2.677678e+03,8.432258e+02
2.678642e+03,8.460544e+02
2.679606e+03,8.501011e+02
2.680571e+03,8.505662e+02
2.681535e+03,8.468373e+02
2.682499e+03,8.427346e+02
2.683463e+03,8.399464e+02
2.684427e+03,8.460328e+02
2.685392e+03,8.539485e+02
2.686356e+03,8.479911e+02
2.687320e+03,8.398917e+02
2.688284e+03,8.364619e+02
2.689249e+03,8.356940e+02
2.690213e+03,8.362230e+02
2.691177e+03,8.397234e+02
2.692141e+03,8.482089e+02
2.693106e+03,8.563448e+02
2.694070e+03,8.597580e+02
2.695034e+03,8.408815e+02
2.695998e+03,8.194044e+02
2.696963e+03,8.359061e+02
2.697927e+03,8.557337e+02
2.698891e+03,8.614064e+02
2.699855e+03,8.577619e+02
2.700820e+03,8.456705e+02
2.701784e+03,8.387988e+02
2.702748e+03,8.380016e+02
2.703712e+03,8.421530e+02
2.704677e+03,8.473543e+02
2.705641e+03,8.414586e+02
2.706605e+03,8.333668e+02
2.707569e+03,8.302894e+02
2.708533e+03,8.309249e+02
2.709498e+03,8.343595e+02
2.710462e+03,8.365720e+02
2.711426e+03,8.369138e+02
2.712390e+03,8.321501e+02
2.713354e+03,8.250374e+02
2.714319e+03,8.310618e+02
2.715283e+03,8.427979e+02
2.716247e+03,8.427713e+02
2.717211e+03,8.379875e+02
2.718176e+03,8.338065e+02
2.719140e+03,8.308708e+02
2.720104e+03,8.308733e+02
2.721068e+03,8.239575e+02
2.722033e+03,8.105281e+02
2.722997e+03,8.131230e+02
2.723961e+03,8.269162e+02
2.724925e+03,8.326251e+02
2.725890e+03,8.314259e+02
2.726854e+03,8.224928e+02
2.727818e+03,8.136484e+02
2.728782e+03,8.073915e+02
2.729747e+03,8.067598e+02
2.730711e+03,8.180871e+02
2.731675e+03,8.225313e+02
2.732639e+03,8.211070e+02
2.733604e+03,8.165490e+02
2.734568e+03,8.121614e+02
2.735532e+03,8.199734e+02
2.736496e+03,8.253547e+02
2.737460e+03,8.172226e+02
2.738425e+03,8.101476e+02
2.739389e+03,8.137902e+02
2.740353e+03,8.127231e+02
2.741317e+03,8.056732e+02
2.742281e+03,8.035790e+02
2.743246e+03,8.066512e+02
2.744210e+03,8.147049e+02
2.745174e+03,8.224785e+02
2.746138e+03,8.284545e+02
2.747103e+03,8.255863e+02
2.748067e+03,8.121133e+02
2.749031e+03,8.027750e+02
2.749995e+03,8.050936e+02
2.750960e+03,8.129989e+02
2.751924e+03,8.228958e+02
2.752888e+03,8.217795e+02
2.753852e+03,8.151772e+02
2.754817e+03,8.171131e+02
2.755781e+03,8.184592e+02
2.756745e+03,8.133732e+02
2.757709e+03,8.084053e+02
2.758674e+03,8.049444e+02
2.759638e+03,7.992605e+02
2.760602e+03,7.923338e+02
2.761566e+03,7.959072e+02
2.762531e+03,8.050198e+02
2.763495e+03,8.112305e+02
2.764459e+03,8.122014e+02
2.765423e+03,8.015215e+02
2.766387e+03,7.933796e+02
2.767352e+03,7.912028e+02
2.768316e+03,7.940183e+02
2.769280e+03,8.008233e+02
2.770244e+03,7.988524e+02
2.771208e+03,7.931088e+02
2.772173e+03,7.944554e+02
2.773137e+03,7.953759e+02
2.774101e+03,7.862943e+02
2.775065e+03,7.829148e+02
2.776030e+03,7.936441e+02
2.776994e+03,7.931449e+02
2.777958e+03,7.829262e+02
2.778922e+03,7.920986e+02
2.779887e+03,8.118813e+02
2.780851e+03,8.140936e+02
2.781815e+03,8.051514e+02
2.782779e+03,7.916593e+02
2.783744e+03,7.795514e+02
2.784708e+03,7.701645e+02
2.785672e+03,7.715859e+02
2.786636e+03,7.822429e+02
2.787601e+03,7.841017e+02
2.788565e+03,7.814850e+02
2.789529e+03,7.873292e+02
2.790493e+03,7.951281e+02
2.791458e+03,8.037672e+02
2.792422e+03,7.966246e+02
2.793386e+03,7.730873e+02
2.794350e+03,7.714250e+02
2.795314e+03,8.000803e+02
2.796279e+03,8.055178e+02
2.797243e+03,7.971152e+02
2.798207e+03,7.925328e+02
2.799171e+03,7.901551e+02
2.800135e+03,7.883260e+02
2.801100e+03,7.828991e+02
2.802064e+03,7.730059e+02
2.803028e+03,7.635435e+02
2.803992e+03,7.571860e+02
2.804957e+03,7.747830e+02
2.805921e+03,7.979880e+02
2.806885e+03,7.856779e+02
2.807849e+03,7.738695e+02
2.808814e+03,7.809612e+02
2.809778e+03,7.876389e+02
2.810742e+03,7.855007e+02
2.811706e+03,7.786134e+02
2.812671e+03,7.689182e+02
2.813635e+03,7.644725e+02
2.814599e+03,7.637751e+02
2.815563e+03,7.667458e+02
2.816528e+03,7.689516e+02
2.817492e+03,7.675839e+02
2.818456e+03,7.661863e+02
2.819420e+03,7.654024e+02
2.820385e+03,7.757507e+02
2.821349e+03,7.931062e+02
2.822313e+03,7.995586e+02
2.823277e+03,7.949330e+02
2.824241e+03,7.791811e+02
2.825206e+03,7.671853e+02
2.826170e+03,7.694998e+02
2.827134e+03,7.736188e+02
2.828098e+03,7.765325e+02
2.829063e+03,7.701730e+02
2.830027e+03,7.626005e+02
2.830991e+03,7.790452e+02
2.831955e+03,7.923018e+02
2.832919e+03,7.665859e+02
2.833884e+03,7.615391e+02
2.834848e+03,7.829235e+02
2.835812e+03,7.933685e+02
2.836776e+03,7.894129e+02
2.837741e+03,7.770480e+02
2.838705e+03,7.670754e+02
2.839669e+03,7.724131e+02
2.840633e+03,7.763692e+02
2.841598e+03,7.694461e+02
2.842562e+03,7.675575e+02
2.843526e+03,7.753578e+02
2.844490e+03,7.734424e+02
2.845455e+03,7.674441e+02
2.846419e+03,7.693666e+02
2.847383e+03,7.735800e+02
2.848347e+03,7.733537e+02
2.849312e+03,7.747658e+02
2.850276e+03,7.786426e+02
2.851240e+03,7.812697e+02
2.852204e+03,7.816417e+02
2.853168e+03,7.799088e+02
2.854133e+03,7.764082e+02
2.855097e+03,7.679776e+02
2.856061e+03,7.689536e+02
2.857025e+03,7.817374e+02
2.857990e+03,7.842441e+02
2.858954e+03,7.698802e+02
2.859918e+03,7.692244e+02
2.860882e+03,7.756732e+02
2.861846e+03,7.776005e+02
2.862811e+03,7.778727e+02
2.863775e+03,7.791744e+02
2.864739e+03,7.794138e+02
2.865703e+03,7.780054e+02
2.866668e+03,7.830328e+02
2.867632e+03,7.902765e+02
2.868596e+03,7.870004e+02
2.869560e+03,7.789883e+02
2.870525e+03,7.700783e+02
2.871489e+03,7.678453e+02
2.872453e+03,7.734110e+02
2.873417e+03,7.814151e+02
2.874382e+03,7.892327e+02
2.875346e+03,7.920690e+02
2.876310e+03,7.900280e+02
2.877274e+03,7.766844e+02
2.878239e+03,7.702591e+02
2.879203e+03,7.764443e+02
2.880167e+03,7.786943e+02
2.881131e+03,7.727852e+02
2.882095e+03,7.726529e+02
2.883060e+03,7.767645e+02
2.884024e+03,7.818196e+02
2.884988e+03,7.857120e+02
2.885952e+03,7.855291e+02
2.886917e+03,7.881597e+02
2.887881e+03,7.961051e+02
2.888845e+03,7.972432e+02
2.889809e+03,7.943092e+02
2.890773e+03,7.918271e+02
2.891738e+03,7.915236e+02
2.892702e+03,8.023528e+02
2.893666e+03,8.032679e+02
2.894630e+03,7.915082e+02
2.895595e+03,7.934781e+02
2.896559e+03,8.047592e+02
2.897523e+03,7.953607e+02
2.898487e+03,7.824086e+02
2.899452e+03,7.865258e+02
2.900416e+03,7.881602e+02
2.901380e+03,7.826900e+02
2.902344e+03,7.834228e+02
2.903309e+03,7.908013e+02
2.904273e+03,7.879787e+02
2.905237e+03,7.813810e+02
2.906201e+03,7.773177e+02
2.907166e+03,7.761830e+02
2.908130e+03,7.776155e+02
2.909094e+03,7.877458e+02
2.910058e+03,8.037906e+02
2.911022e+03,7.892719e+02
2.911987e+03,7.657673e+02
2.912951e+03,7.558389e+02
2.913915e+03,7.552231e+02
2.914879e+03,7.652004e+02
2.915844e+03,7.633811e+02
2.916808e+03,7.511798e+02
2.917772e+03,7.509427e+02
2.918736e+03,7.577805e+02
2.919700e+03,7.652139e+02
2.920665e+03,7.671218e+02
2.921629e+03,7.545223e+02
2.922593e+03,7.442712e+02
2.923557e+03,7.389270e+02
2.924522e+03,7.436566e+02
2.925486e+03,7.531649e+02
2.926450e+03,7.608124e+02
2.927414e+03,7.598982e+02
2.928379e+03,7.419713e+02
2.929343e+03,7.425398e+02
2.930307e+03,7.586742e+02
2.931271e+03,7.611241e+02
2.932236e+03,7.544102e+02
2.933200e+03,7.423961e+02
2.934164e+03,7.325495e+02
2.935128e+03,7.267822e+02
2.936093e+03,7.265912e+02
2.937057e+03,7.318089e+02
2.938021e+03,7.500281e+02
2.938985e+03,7.671399e+02
2.939949e+03,7.546863e+02
2.940914e+03,7.380222e+02
2.941878e+03,7.269023e+02
2.942842e+03,7.325209e+02
2.943806e+03,7.521891e+02
2.944771e+03,7.540804e+02
2.945735e+03,7.457703e+02
2.946699e+03,7.337302e+02
2.947663e+03,7.317262e+02
2.948627e+03,7.417482e+02
2.949592e+03,7.449977e+02
2.950556e+03,7.395610e+02
2.951520e+03,7.393763e+02
2.952484e+03,7.407516e+02
2.953449e+03,7.401873e+02
2.954413e+03,7.393422e+02
2.955377e+03,7.392924e+02
2.956341e+03,7.581975e+02
2.957306e+03,7.888912e+02
2.958270e+03,7.843165e+02
2.959234e+03,7.601077e+02
2.960198e+03,7.305667e+02
2.961163e+03,7.219880e+02
2.962127e+03,7.477019e+02
2.963091e+03,7.537721e+02
2.964055e+03,7.414418e+02
2.965020e+03,7.364158e+02
2.965984e+03,7.324309e+02
2.966948e+03,7.226952e+02
2.967912e+03,7.203220e+02
2.968876e+03,7.359968e+02
2.969841e+03,7.203854e+02
2.970805e+03,6.929742e+02
2.971769e+03,6.940494e+02
2.972733e+03,7.018204e+02
2.973698e+03,6.996794e+02
2.974662e+03,6.998476e+02
2.975626e+03,7.061746e+02
2.976590e+03,7.282926e+02
2.977554e+03,7.458708e+02
2.978519e+03,7.321721e+02
2.979483e+03,7.086673e+02
2.980447e+03,6.879847e+02
2.981411e+03,6.782990e+02
2.982376e+03,6.825839e+02
2.983340e+03,6.997119e+02
2.984304e+03,7.133295e+02
2.985268e+03,7.064916e+02
2.986233e+03,7.021357e+02
2.987197e+03,7.136464e+02
2.988161e+03,7.331692e+02
2.989125e+03,7.499646e+02
2.990090e+03,7.324178e+02
2.991054e+03,7.074085e+02
2.992018e+03,6.960399e+02
2.992982e+03,6.913183e+02
2.993947e+03,6.928255e+02
2.994911e+03,7.032651e+02
2.995875e+03,7.136158e+02
2.996839e+03,7.059932e+02
2.997803e+03,7.007789e+02
2.998768e+03,7.133181e+02
2.999732e+03,7.116395e+02
3.000696e+03,6.909955e+02
3.001660e+03,6.699314e+02
3.002625e+03,6.584833e+02
3.003589e+03,6.653441e+02
3.004553e+03,6.786486e+02
3.005517e+03,6.939519e+02
3.006481e+03,6.989190e+02
3.007446e+03,6.930648e+02
3.008410e+03,6.817330e+02
3.009374e+03,6.760236e+02
3.010338e+03,6.830427e+02
3.011303e+03,6.864532e+02
3.012267e+03,6.795969e+02
3.013231e+03,6.845264e+02
3.014195e+03,6.899960e+02
3.015160e+03,6.683964e+02
3.016124e+03,6.635811e+02
3.017088e+03,6.881144e+02
3.018052e+03,6.935721e+02
3.019017e+03,6.748428e+02
3.019981e+03,6.627489e+02
3.020945e+03,6.604671e+02
3.021909e+03,6.705253e+02
3.022874e+03,6.837595e+02
3.023838e+03,6.961739e+02
3.024802e+03,6.999073e+02
3.025766e+03,6.954237e+02
3.026730e+03,6.740790e+02
3.027695e+03,6.666524e+02
3.028659e+03,6.867246e+02
3.029623e+03,6.905070e+02
3.030587e+03,6.784533e+02
3.031552e+03,6.848171e+02
3.032516e+03,6.926677e+02
3.033480e+03,6.763012e+02
3.034444e+03,6.722347e+02
3.035408e+03,6.855178e+02
3.036373e+03,6.943069e+02
3.037337e+03,6.974173e+02
3.038301e+03,7.003694e+02
3.039265e+03,6.970952e+02
3.040230e+03,6.787430e+02
3.041194e+03,6.585357e+02
3.042158e+03,6.435101e+02
3.043122e+03,6.544741e+02
3.044087e+03,6.745244e+02
3.045051e+03,6.836384e+02
3.046015e+03,6.834456e+02
3.046979e+03,6.728059e+02
3.047944e+03,6.607143e+02
3.048908e+03,6.561398e+02
3.049872e+03,6.719353e+02
3.050836e+03,6.882440e+02
3.051801e+03,6.924490e+02
3.052765e+03,6.865524e+02
3.053729e+03,6.737169e+02
3.054693e+03,6.766722e+02
3.055657e+03,6.795865e+02
3.056622e+03,6.704103e+02
3.057586e+03,6.610222e+02
3.058550e+03,6.559310e+02
3.059514e+03,6.669622e+02
3.060479e+03,6.806228e+02
3.061443e+03,6.704736e+02
3.062407e+03,6.605490e+02
3.063371e+03,6.576857e+02
3.064335e+03,6.500990e+02
3.065300e+03,6.423709e+02
3.066264e+03,6.708250e+02
3.067228e+03,6.926888e+02
3.068192e+03,6.758749e+02
3.069157e+03,6.715362e+02
3.070121e+03,6.810686e+02
3.071085e+03,6.817107e+02
3.072049e+03,6.790299e+02
3.073014e+03,6.843668e+02
3.073978e+03,6.864911e+02
3.074942e+03,6.828119e+02
3.075906e+03,6.842473e+02
3.076871e+03,6.826693e+02
3.077835e+03,6.623429e+02
3.078799e+03,6.482880e+02
3.079763e+03,6.590414e+02
3.080728e+03,6.619673e+02
3.081692e+03,6.586008e+02
3.082656e+03,6.621481e+02
3.083620e+03,6.653320e+02
3.084584e+03,6.646885e+02
3.085549e+03,6.575797e+02
3.086513e+03,6.456650e+02
3.087477e+03,6.648292e+02
3.088441e+03,6.832457e+02
3.089406e+03,6.606539e+02
3.090370e+03,6.608787e+02
3.091334e+03,6.880582e+02
3.092298e+03,6.778908e+02
3.093262e+03,6.546625e+02
3.094227e+03,6.872520e+02
3.095191e+03,7.003254e+02
3.096155e+03,6.653332e+02
3.097119e+03,6.607498e+02
3.098084e+03,6.739870e+02
3.099048e+03,6.670336e+02
3.100012e+03,6.633257e+02
3.100976e+03,6.865007e+02
3.101941e+03,6.874489e+02
3.102905e+03,6.653681e+02
3.103869e+03,6.449347e+02
3.104833e+03,6.406143e+02
3.105798e+03,6.597944e+02
3.106762e+03,6.669445e+02
3.107726e+03,6.567665e+02
3.108690e+03,6.629324e+02
3.109655e+03,6.702707e+02
3.110619e+03,6.541473e+02
3.111583e+03,6.498969e+02
3.112547e+03,6.609948e+02
3.113511e+03,6.684705e+02
3.114476e+03,6.731740e+02
3.115440e+03,6.833006e+02
3.116404e+03,6.868468e+02
3.117368e+03,6.788490e+02
3.118333e+03,6.629072e+02
3.119297e+03,6.507900e+02
3.120261e+03,6.611211e+02
3.121225e+03,6.739999e+02
3.122189e+03,6.781141e+02
3.123154e+03,6.761790e+02
3.124118e+03,6.709775e+02
3.125082e+03,6.759714e+02
3.126046e+03,6.791971e+02
3.127011e+03,6.746839e+02
3.127975e+03,6.619860e+02
3.128939e+03,6.463058e+02
3.129903e+03,6.476791e+02
3.130868e+03,6.562133e+02
3.131832e+03,6.629686e+02
3.132796e+03,6.904453e+02
3.133760e+03,7.234647e+02
3.134725e+03,6.832853e+02
3.135689e+03,6.407330e+02
3.136653e+03,6.646832e+02
3.137617e+03,6.833175e+02
3.138582e+03,6.763192e+02
3.139546e+03,6.808044e+02
3.140510e+03,6.814189e+02
3.141474e+03,6.585540e+02
3.142438e+03,6.589293e+02
3.143403e+03,6.831240e+02
3.144367e+03,6.723057e+02
3.145331e+03,6.513651e+02
3.146295e+03,6.725606e+02
3.147260e+03,6.833759e+02
3.148224e+03,6.693651e+02
3.149188e+03,6.677294e+02
3.150152e+03,6.663718e+02
3.151116e+03,6.451031e+02
3.152081e+03,6.379416e+02
3.153045e+03,6.585137e+02
3.154009e+03,6.542161e+02
3.154973e+03,6.391681e+02
3.155938e+03,6.460947e+02
3.156902e+03,6.593972e+02
3.157866e+03,6.717084e+02
3.158830e+03,6.786830e+02
3.159795e+03,6.806203e+02
3.160759e+03,6.691248e+02
3.161723e+03,6.579838e+02
3.162687e+03,6.572117e+02
3.163652e+03,6.481920e+02
3.164616e+03,6.434519e+02
3.165580e+03,6.682653e+02
3.166544e+03,6.786253e+02
3.167509e+03,6.593959e+02
3.168473e+03,6.618135e+02
3.169437e+03,6.782988e+02
3.170401e+03,6.629047e+02
3.171365e+03,6.468654e+02
3.172330e+03,6.442249e+02
3.173294e+03,6.638680e+02
3.174258e+03,6.899039e+02
3.175222e+03,6.930343e+02
3.176187e+03,6.847242e+02
3.177151e+03,6.720082e+02
3.178115e+03,6.614226e+02
3.179079e+03,6.572055e+02
3.180043e+03,6.741253e+02
3.181008e+03,6.785597e+02
3.181972e+03,6.613378e+02
3.182936e+03,6.618109e+02
3.183900e+03,6.746876e+02
3.184865e+03,6.735966e+02
3.185829e+03,6.740914e+02
3.186793e+03,6.966830e+02
3.187757e+03,6.830332e+02
3.188722e+03,6.585251e+02
3.189686e+03,6.845798e+02
3.190650e+03,7.054897e+02
3.191614e+03,6.989856e+02
3.192579e+03,6.656189e+02
3.193543e+03,6.259933e+02
3.194507e+03,6.397627e+02
3.195471e+03,6.607235e+02
3.196436e+03,6.703799e+02
3.197400e+03,6.727176e+02
3.198364e+03,6.750020e+02
3.199328e+03,6.914361e+02
3.200292e+03,6.911820e+02
3.201257e+03,0.000000e+00
3.202221e+03,0.000000e+00
3.203185e+03,0.000000e+00
3.204149e+03,0.000000e+00
3.205114e+03,0.000000e+00
3.206078e+03,0.000000e+00
3.207042e+03,0.000000e+00
3.208006e+03,0.000000e+00
3.208970e+03,0.000000e+00
3.209935e+03,0.000000e+00
3.210899e+03,0.000000e+00
3.211863e+03,0.000000e+00
3.212827e+03,0.000000e+00
3.213792e+03,0.000000e+00
3.214756e+03,0.000000e+00
3.215720e+03,0.000000e+00
3.216684e+03,0.000000e+00
3.217649e+03,0.000000e+00
3.218613e+03,0.000000e+00
3.219577e+03,0.000000e+00
3.220541e+03,0.000000e+00
3.221506e+03,0.000000e+00
3.222470e+03,0.000000e+00
3.223434e+03,0.000000e+00
3.224398e+03,0.000000e+00
3.225363e+03,0.000000e+00
3.226327e+03,0.000000e+00
3.227291e+03,0.000000e+00
3.228255e+03,0.000000e+00
3.229219e+03,0.000000e+00
3.230184e+03,0.000000e+00
3.231148e+03,0.000000e+00
3.232112e+03,0.000000e+00
3.233076e+03,0.000000e+00
3.234041e+03,0.000000e+00
3.235005e+03,0.000000e+00
3.235969e+03,0.000000e+00
3.236933e+03,0.000000e+00
3.237897e+03,0.000000e+00
3.238862e+03,0.000000e+00
3.239826e+03,0.000000e+00
3.240790e+03,0.000000e+00
3.241754e+03,0.000000e+00
3.242719e+03,0.000000e+00
3.243683e+03,0.000000e+00
3.244647e+03,0.000000e+00
3.245611e+03,0.000000e+00
3.246576e+03,0.000000e+00
3.247540e+03,0.000000e+00
3.248504e+03,0.000000e+00
3.249468e+03,0.000000e+00
3.250433e+03,0.000000e+00
3.251397e+03,0.000000e+00
3.252361e+03,0.000000e+00
3.253325e+03,0.000000e+00
3.254290e+03,0.000000e+00
3.255254e+03,0.000000e+00
3.256218e+03,0.000000e+00
3.257182e+03,0.000000e+00
3.258146e+03,0.000000e+00
3.259111e+03,0.000000e+00
3.260075e+03,0.000000e+00
3.261039e+03,0.000000e+00
3.262003e+03,0.000000e+00
3.262968e+03,0.000000e+00
3.263932e+03,0.000000e+00
3.264896e+03,0.000000e+00
3.265860e+03,0.000000e+00
3.266824e+03,0.000000e+00
3.267789e+03,0.000000e+00
3.268753e+03,0.000000e+00
3.269717e+03,0.000000e+00
3.270681e+03,0.000000e+00
3.271646e+03,0.000000e+00
3.272610e+03,0.000000e+00
3.273574e+03,0.000000e+00
3.274538e+03,0.000000e+00
3.275503e+03,0.000000e+00
3.276467e+03,0.000000e+00
3.277431e+03,0.000000e+00
3.278395e+03,0.000000e+00
3.279360e+03,0.000000e+00
3.280324e+03,0.000000e+00
3.281288e+03,0.000000e+00
3.282252e+03,0.000000e+00
3.283217e+03,0.000000e+00
3.284181e+03,0.000000e+00
3.285145e+03,0.000000e+00
3.286109e+03,0.000000e+00
3.287073e+03,0.000000e+00
3.288038e+03,0.000000e+00
3.289002e+03,0.000000e+00
3.289966e+03,0.000000e+00
3.290930e+03,0.000000e+00
3.291895e+03,0.000000e+00
3.292859e+03,0.000000e+00
3.293823e+03,0.000000e+00
3.294787e+03,0.000000e+00
3.295751e+03,0.000000e+00
3.296716e+03,0.000000e+00
3.297680e+03,0.000000e+00
3.298644e+03,0.000000e+00
3.299608e+03,0.000000e+00
3.300573e+03,0.000000e+00
3.301537e+03,0.000000e+00
3.302501e+03,0.000000e+00
3.303465e+03,0.000000e+00
3.304430e+03,0.000000e+00
3.305394e+03,0.000000e+00
3.306358e+03,0.000000e+00
3.307322e+03,0.000000e+00
3.308287e+03,0.000000e+00
3.309251e+03,0.000000e+00
3.310215e+03,0.000000e+00
3.311179e+03,0.000000e+00
3.312144e+03,0.000000e+00
3.313108e+03,0.000000e+00
3.314072e+03,0.000000e+00
3.315036e+03,0.000000e+00
3.316000e+03,0.000000e+00
3.316965e+03,0.000000e+00
3.317929e+03,0.000000e+00
3.318893e+03,0.000000e+00
3.319857e+03,0.000000e+00
3.320822e+03,0.000000e+00
3.321786e+03,0.000000e+00
3.322750e+03,0.000000e+00
3.323714e+03,0.000000e+00
3.324678e+03,0.000000e+00
3.325643e+03,0.000000e+00
3.326607e+03,0.000000e+00
3.327571e+03,0.000000e+00
3.328535e+03,0.000000e+00
3.329500e+03,0.000000e+00
3.330464e+03,0.000000e+00
3.331428e+03,0.000000e+00
3.332392e+03,0.000000e+00
3.333357e+03,0.000000e+00
3.334321e+03,0.000000e+00
3.335285e+03,0.000000e+00
3.336249e+03,0.000000e+00
3.337214e+03,0.000000e+00
3.338178e+03,0.000000e+00
3.339142e+03,0.000000e+00
3.340106e+03,0.000000e+00
3.341071e+03,0.000000e+00
3.342035e+03,0.000000e+00
3.342999e+03,0.000000e+00
3.343963e+03,0.000000e+00
3.344927e+03,0.000000e+00
3.345892e+03,0.000000e+00
3.346856e+03,0.000000e+00
3.347820e+03,0.000000e+00
3.348784e+03,0.000000e+00
3.349749e+03,0.000000e+00
3.350713e+03,0.000000e+00
3.351677e+03,0.000000e+00
3.352641e+03,0.000000e+00
3.353605e+03,0.000000e+00
3.354570e+03,0.000000e+00
3.355534e+03,0.000000e+00
3.356498e+03,0.000000e+00
3.357462e+03,0.000000e+00
3.358427e+03,0.000000e+00
3.359391e+03,0.000000e+00
3.360355e+03,0.000000e+00
3.361319e+03,0.000000e+00
3.362284e+03,0.000000e+00
3.363248e+03,0.000000e+00
3.364212e+03,0.000000e+00
3.365176e+03,0.000000e+00
3.366141e+03,0.000000e+00
3.367105e+03,0.000000e+00
3.368069e+03,0.000000e+00
3.369033e+03,0.000000e+00
3.369998e+03,0.000000e+00
3.370962e+03,0.000000e+00
3.371926e+03,0.000000e+00
3.372890e+03,0.000000e+00
3.373854e+03,0.000000e+00
3.374819e+03,0.000000e+00
3.375783e+03,0.000000e+00
3.376747e+03,0.000000e+00
3.377711e+03,0.000000e+00
3.378676e+03,0.000000e+00
3.379640e+03,0.000000e+00
3.380604e+03,0.000000e+00
3.381568e+03,0.000000e+00
3.382532e+03,0.000000e+00
3.383497e+03,0.000000e+00
3.384461e+03,0.000000e+00
3.385425e+03,0.000000e+00
3.386389e+03,0.000000e+00
3.387354e+03,0.000000e+00
3.388318e+03,0.000000e+00
3.389282e+03,0.000000e+00
3.390246e+03,0.000000e+00
3.391211e+03,0.000000e+00
3.392175e+03,0.000000e+00
3.393139e+03,0.000000e+00
3.394103e+03,0.000000e+00
3.395068e+03,0.000000e+00
3.396032e+03,0.000000e+00
3.396996e+03,0.000000e+00
3.397960e+03,0.000000e+00
3.398925e+03,0.000000e+00
3.399889e+03,0.000000e+00
3.400853e+03,0.000000e+00
3.401817e+03,0.000000e+00
3.402781e+03,0.000000e+00
3.403746e+03,0.000000e+00
3.404710e+03,0.000000e+00
3.405674e+03,0.000000e+00
3.406638e+03,0.000000e+00
3.407603e+03,0.000000e+00
3.408567e+03,0.000000e+00
3.409531e+03,0.000000e+00
3.410495e+03,0.000000e+00
3.411459e+03,0.000000e+00
3.412424e+03,0.000000e+00
3.413388e+03,0.000000e+00
3.414352e+03,0.000000e+00
3.415316e+03,0.000000e+00
3.416281e+03,0.000000e+00
3.417245e+03,0.000000e+00
3.418209e+03,0.000000e+00
3.419173e+03,0.000000e+00
3.420138e+03,0.000000e+00
3.421102e+03,0.000000e+00
3.422066e+03,0.000000e+00
3.423030e+03,0.000000e+00
3.423995e+03,0.000000e+00
3.424959e+03,0.000000e+00
3.425923e+03,0.000000e+00
3.426887e+03,0.000000e+00
3.427852e+03,0.000000e+00
3.428816e+03,0.000000e+00
3.429780e+03,0.000000e+00
3.430744e+03,0.000000e+00
3.431708e+03,0.000000e+00
3.432673e+03,0.000000e+00
3.433637e+03,0.000000e+00
3.434601e+03,0.000000e+00
3.435565e+03,0.000000e+00
3.436530e+03,0.000000e+00
3.437494e+03,0.000000e+00
3.438458e+03,0.000000e+00
3.439422e+03,0.000000e+00
3.440386e+03,0.000000e+00
3.441351e+03,0.000000e+00
3.442315e+03,0.000000e+00
3.443279e+03,0.000000e+00
3.444243e+03,0.000000e+00
3.445208e+03,0.000000e+00
3.446172e+03,0.000000e+00
3.447136e+03,0.000000e+00
3.448100e+03,0.000000e+00
3.449065e+03,0.000000e+00
3.450029e+03,0.000000e+00
3.450993e+03,0.000000e+00
3.451957e+03,0.000000e+00
3.452922e+03,0.000000e+00
3.453886e+03,0.000000e+00
3.454850e+03,0.000000e+00
3.455814e+03,0.000000e+00
3.456779e+03,0.000000e+00
3.457743e+03,0.000000e+00
3.458707e+03,0.000000e+00
3.459671e+03,0.000000e+00
3.460635e+03,0.000000e+00
3.461600e+03,0.000000e+00
3.462564e+03,0.000000e+00
3.463528e+03,0.000000e+00
3.464492e+03,0.000000e+00
3.465457e+03,0.000000e+00
3.466421e+03,0.000000e+00
3.467385e+03,0.000000e+00
3.468349e+03,0.000000e+00
3.469313e+03,0.000000e+00
3.470278e+03,0.000000e+00
3.471242e+03,0.000000e+00
3.472206e+03,0.000000e+00
3.473170e+03,0.000000e+00
3.474135e+03,0.000000e+00
3.475099e+03,0.000000e+00
3.476063e+03,0.000000e+00
3.477027e+03,0.000000e+00
3.477992e+03,0.000000e+00
3.478956e+03,0.000000e+00
3.479920e+03,0.000000e+00
3.480884e+03,0.000000e+00
3.481849e+03,0.000000e+00
3.482813e+03,0.000000e+00
3.483777e+03,0.000000e+00
3.484741e+03,0.000000e+00
3.485706e+03,0.000000e+00
3.486670e+03,0.000000e+00
3.487634e+03,0.000000e+00
3.488598e+03,0.000000e+00
3.489563e+03,0.000000e+00
3.490527e+03,0.000000e+00
3.491491e+03,0.000000e+00
3.492455e+03,0.000000e+00
3.493419e+03,0.000000e+00
3.494384e+03,0.000000e+00
3.495348e+03,0.000000e+00
3.496312e+03,0.000000e+00
3.497276e+03,0.000000e+00
3.498240e+03,0.000000e+00
3.499205e+03,0.000000e+00
3.500169e+03,0.000000e+00
