9.931763e+01,0.000000e+00
1.002819e+02,0.000000e+00
1.012461e+02,0.000000e+00
1.022103e+02,0.000000e+00
1.031746e+02,0.000000e+00
1.041388e+02,0.000000e+00
1.051030e+02,0.000000e+00
1.060673e+02,0.000000e+00
1.070315e+02,0.000000e+00
1.079957e+02,0.000000e+00
1.089600e+02,0.000000e+00
1.099242e+02,0.000000e+00
1.108884e+02,0.000000e+00
1.118527e+02,0.000000e+00
1.128169e+02,0.000000e+00
1.137811e+02,0.000000e+00
1.147454e+02,0.000000e+00
1.157096e+02,0.000000e+00
1.166738e+02,0.000000e+00
1.176381e+02,0.000000e+00
1.186023e+02,0.000000e+00
1.195665e+02,0.000000e+00
1.205308e+02,0.000000e+00
1.214950e+02,0.000000e+00
1.224592e+02,0.000000e+00
1.234235e+02,0.000000e+00
1.243877e+02,0.000000e+00
1.253519e+02,0.000000e+00
1.263162e+02,0.000000e+00
1.272804e+02,0.000000e+00
1.282446e+02,0.000000e+00
1.292089e+02,0.000000e+00
1.301731e+02,0.000000e+00
1.311373e+02,0.000000e+00
1.321016e+02,0.000000e+00
1.330658e+02,0.000000e+00
1.340300e+02,0.000000e+00
1.349943e+02,0.000000e+00
1.359585e+02,0.000000e+00
1.369227e+02,0.000000e+00
1.378870e+02,0.000000e+00
1.388512e+02,0.000000e+00
1.398154e+02,0.000000e+00
1.407797e+02,0.000000e+00
1.417439e+02,0.000000e+00
1.427081e+02,0.000000e+00
1.436724e+02,0.000000e+00
1.446366e+02,0.000000e+00
1.456008e+02,0.000000e+00
1.465651e+02,0.000000e+00
1.475293e+02,0.000000e+00
1.484935e+02,0.000000e+00
1.494578e+02,0.000000e+00
1.504220e+02,0.000000e+00
1.513862e+02,0.000000e+00
1.523505e+02,0.000000e+00
1.533147e+02,0.000000e+00
1.542789e+02,0.000000e+00
1.552432e+02,0.000000e+00
1.562074e+02,0.000000e+00
1.571716e+02,0.000000e+00
1.581359e+02,0.000000e+00
1.591001e+02,0.000000e+00
1.600643e+02,0.000000e+00
1.610286e+02,0.000000e+00
1.619928e+02,0.000000e+00
1.629570e+02,0.000000e+00
1.639213e+02,0.000000e+00
1.648855e+02,0.000000e+00
1.658497e+02,0.000000e+00
1.668140e+02,0.000000e+00
1.677782e+02,0.000000e+00
1.687424e+02,0.000000e+00
1.697067e+02,0.000000e+00
1.706709e+02,0.000000e+00
1.716351e+02,0.000000e+00
1.725994e+02,0.000000e+00
1.735636e+02,0.000000e+00
1.745278e+02,0.000000e+00
1.754921e+02,0.000000e+00
1.764563e+02,0.000000e+00
1.774205e+02,0.000000e+00
1.783848e+02,0.000000e+00
1.793490e+02,0.000000e+00
1.803132e+02,0.000000e+00
1.812775e+02,0.000000e+00
1.822417e+02,0.000000e+00
1.832059e+02,0.000000e+00
1.841702e+02,0.000000e+00
1.851344e+02,0.000000e+00
1.860986e+02,0.000000e+00
1.870629e+02,0.000000e+00
1.880271e+02,0.000000e+00
1.889913e+02,0.000000e+00
1.899556e+02,0.000000e+00
1.909198e+02,0.000000e+00
1.918840e+02,0.000000e+00
1.928483e+02,0.000000e+00
1.938125e+02,0.000000e+00
1.947767e+02,0.000000e+00
1.957410e+02,0.000000e+00
1.967052e+02,0.000000e+00
1.976694e+02,0.000000e+00
1.986337e+02,0.000000e+00
1.995979e+02,4.942983e+03
2.005621e+02,4.931024e+03
2.015264e+02,4.924693e+03
2.024906e+02,4.927428e+03
2.034548e+02,4.933383e+03
2.044191e+02,4.942794e+03
2.053833e+02,4.953475e+03
2.063475e+02,4.961586e+03
2.073118e+02,4.962821e+03
2.082760e+02,4.954619e+03
2.092402e+02,4.947344e+03
2.102045e+02,4.943880e+03
2.111687e+02,4.943722e+03
2.121329e+02,4.946327e+03
2.130972e+02,4.951016e+03
2.140614e+02,4.955792e+03
2.150256e+02,4.957106e+03
2.159899e+02,4.951526e+03
2.169541e+02,4.948841e+03
2.179183e+02,4.955287e+03
2.188826e+02,4.968404e+03
2.198468e+02,4.981030e+03
2.208110e+02,4.987525e+03
2.217753e+02,4.987398e+03
2.227395e+02,4.985314e+03
2.237037e+02,4.984820e+03
2.246680e+02,4.984192e+03
2.256322e+02,4.980204e+03
2.265964e+02,4.971142e+03
2.275607e+02,4.963603e+03
2.285249e+02,4.965959e+03
2.294892e+02,4.980023e+03
2.304534e+02,4.995633e+03
2.314176e+02,5.002279e+03
2.323819e+02,5.001167e+03
2.333461e+02,5.001266e+03
2.343103e+02,5.008658e+03
2.352746e+02,5.019875e+03
2.362388e+02,5.026640e+03
2.372030e+02,5.024660e+03
2.381673e+02,5.016872e+03
2.391315e+02,5.012361e+03
2.400957e+02,5.016468e+03
2.410600e+02,5.021311e+03
2.420242e+02,5.025398e+03
2.429884e+02,5.029816e+03
2.439527e+02,5.034870e+03
2.449169e+02,5.039267e+03
2.458811e+02,5.041997e+03
2.468454e+02,5.042796e+03
2.478096e+02,5.037377e+03
2.487738e+02,5.033008e+03
2.497381e+02,5.035874e+03
2.507023e+02,5.047006e+03
2.516665e+02,5.061748e+03
2.526308e+02,5.072343e+03
2.535950e+02,5.074391e+03
2.545592e+02,5.072526e+03
2.555235e+02,5.067299e+03
2.564877e+02,5.059703e+03
2.574519e+02,5.050409e+03
2.584161e+02,5.039427e+03
2.593804e+02,5.028333e+03
2.603446e+02,5.026283e+03
2.613088e+02,5.041242e+03
2.622731e+02,5.056231e+03
2.632373e+02,5.066214e+03
2.642015e+02,5.070167e+03
2.651658e+02,5.070808e+03
2.661300e+02,5.072356e+03
2.670942e+02,5.076892e+03
2.680585e+02,5.080244e+03
2.690227e+02,5.080002e+03
2.699869e+02,5.078748e+03
2.709512e+02,5.078215e+03
2.719154e+02,5.081549e+03
2.728796e+02,5.085931e+03
2.738439e+02,5.085851e+03
2.748081e+02,5.080621e+03
2.757723e+02,5.079173e+03
2.767366e+02,5.085551e+03
2.777008e+02,5.095600e+03
2.786650e+02,5.102697e+03
2.796293e+02,5.105938e+03
2.805935e+02,5.106947e+03
2.815577e+02,5.106695e+03
2.825220e+02,5.104396e+03
2.834862e+02,5.100618e+03
2.844504e+02,5.097512e+03
2.854147e+02,5.097551e+03
2.863789e+02,5.096896e+03
2.873431e+02,5.096153e+03
2.883074e+02,5.095753e+03
2.892716e+02,5.094289e+03
2.902358e+02,5.089336e+03
2.912001e+02,5.080203e+03
2.921643e+02,5.075565e+03
2.931285e+02,5.079636e+03
2.940928e+02,5.085839e+03
2.950570e+02,5.090914e+03
2.960212e+02,5.093764e+03
2.969855e+02,5.095149e+03
2.979497e+02,5.097376e+03
2.989139e+02,5.103099e+03
2.998782e+02,5.105978e+03
3.008424e+02,5.105862e+03
3.018066e+02,5.106188e+03
3.027709e+02,5.107729e+03
3.037351e+02,5.109995e+03
3.046993e+02,5.112369e+03
3.056636e+02,5.115314e+03
3.066278e+02,5.120511e+03
3.075920e+02,5.124826e+03
3.085563e+02,5.127413e+03
3.095205e+02,5.129262e+03
3.104847e+02,5.129823e+03
3.114490e+02,5.124104e+03
3.124132e+02,5.115294e+03
3.133774e+02,5.111881e+03
3.143417e+02,5.115780e+03
3.153059e+02,5.121700e+03
3.162701e+02,5.125063e+03
3.172344e+02,5.126891e+03
3.181986e+02,5.128853e+03
3.191628e+02,5.132072e+03
3.201271e+02,5.136146e+03
3.210913e+02,5.139834e+03
3.220555e+02,5.142182e+03
3.230198e+02,5.143001e+03
3.239840e+02,5.143407e+03
3.249482e+02,5.139836e+03
3.259125e+02,5.138652e+03
3.268767e+02,5.144891e+03
3.278409e+02,5.156236e+03
3.288052e+02,5.165911e+03
3.297694e+02,5.166979e+03
3.307336e+02,5.157320e+03
3.316979e+02,5.149888e+03
3.326621e+02,5.145518e+03
3.336263e+02,5.141810e+03
3.345906e+02,5.139155e+03
3.355548e+02,5.139258e+03
3.365190e+02,5.140254e+03
3.374833e+02,5.137545e+03
3.384475e+02,5.129851e+03
3.394117e+02,5.126070e+03
3.403760e+02,5.129708e+03
3.413402e+02,5.137733e+03
3.423044e+02,5.145195e+03
3.432687e+02,5.153070e+03
3.442329e+02,5.158623e+03
3.451971e+02,5.156767e+03
3.461614e+02,5.146069e+03
3.471256e+02,5.132590e+03
3.480898e+02,5.122961e+03
3.490541e+02,5.119971e+03
3.500183e+02,5.118843e+03
3.509825e+02,5.121742e+03
3.519468e+02,5.127696e+03
3.529110e+02,5.135845e+03
3.538752e+02,5.144838e+03
3.548395e+02,5.152206e+03
3.558037e+02,5.154493e+03
3.567680e+02,5.146217e+03
3.577322e+02,5.142349e+03
3.586964e+02,5.149176e+03
3.596607e+02,5.161528e+03
3.606249e+02,5.172200e+03
3.615891e+02,5.175517e+03
3.625534e+02,5.172164e+03
3.635176e+02,5.167694e+03
3.644818e+02,5.164277e+03
3.654461e+02,5.160124e+03
3.664103e+02,5.154559e+03
3.673745e+02,5.150398e+03
3.683388e+02,5.151267e+03
3.693030e+02,5.158117e+03
3.702672e+02,5.167177e+03
3.712315e+02,5.174328e+03
3.721957e+02,5.178371e+03
3.731599e+02,5.179306e+03
3.741242e+02,5.178843e+03
3.750884e+02,5.178810e+03
3.760526e+02,5.180704e+03
3.770169e+02,5.186973e+03
3.779811e+02,5.193341e+03
3.789453e+02,5.193584e+03
3.799096e+02,5.183571e+03
3.808738e+02,5.166364e+03
3.818380e+02,5.155469e+03
3.828023e+02,5.159134e+03
3.837665e+02,5.163118e+03
3.847307e+02,5.161578e+03
3.856950e+02,5.156218e+03
3.866592e+02,5.151106e+03
3.876234e+02,5.147018e+03
3.885877e+02,5.144369e+03
3.895519e+02,5.145718e+03
3.905161e+02,5.152639e+03
3.914804e+02,5.159186e+03
3.924446e+02,5.158447e+03
3.934088e+02,5.149828e+03
3.943731e+02,5.143297e+03
3.953373e+02,5.143857e+03
3.963015e+02,5.147092e+03
3.972658e+02,5.145752e+03
3.982300e+02,5.137343e+03
3.991942e+02,5.127264e+03
4.001585e+02,5.126442e+03
4.011227e+02,5.142134e+03
4.020869e+02,5.155521e+03
4.030512e+02,5.163326e+03
4.040154e+02,5.165352e+03
4.049796e+02,5.162873e+03
4.059439e+02,5.154079e+03
4.069081e+02,5.141437e+03
4.078723e+02,5.134710e+03
4.088366e+02,5.133941e+03
4.098008e+02,5.135371e+03
4.107650e+02,5.142148e+03
4.117293e+02,5.154263e+03
4.126935e+02,5.161362e+03
4.136577e+02,5.157526e+03
4.146220e+02,5.147051e+03
4.155862e+02,5.134088e+03
4.165504e+02,5.118951e+03
4.175147e+02,5.106771e+03
4.184789e+02,5.105549e+03
4.194431e+02,5.131651e+03
4.204074e+02,5.148818e+03
4.213716e+02,5.152088e+03
4.223358e+02,5.147753e+03
4.233001e+02,5.141989e+03
4.242643e+02,5.137622e+03
4.252285e+02,5.134663e+03
4.261928e+02,5.132185e+03
4.271570e+02,5.130095e+03
4.281212e+02,5.129998e+03
4.290855e+02,5.133554e+03
4.300497e+02,5.138569e+03
4.310139e+02,5.140969e+03
4.319782e+02,5.137979e+03
4.329424e+02,5.133776e+03
4.339066e+02,5.132349e+03
4.348709e+02,5.133397e+03
4.358351e+02,5.135104e+03
4.367993e+02,5.136016e+03
4.377636e+02,5.135872e+03
4.387278e+02,5.136581e+03
4.396920e+02,5.140908e+03
4.406563e+02,5.145586e+03
4.416205e+02,5.147028e+03
4.425847e+02,5.144147e+03
4.435490e+02,5.140152e+03
4.445132e+02,5.141378e+03
4.454774e+02,5.150602e+03
4.464417e+02,5.155370e+03
4.474059e+02,5.147951e+03
4.483701e+02,5.134390e+03
4.493344e+02,5.123261e+03
4.502986e+02,5.117558e+03
4.512628e+02,5.114874e+03
4.522271e+02,5.112981e+03
4.531913e+02,5.112271e+03
4.541555e+02,5.115006e+03
4.551198e+02,5.123535e+03
4.560840e+02,5.138117e+03
4.570482e+02,5.144083e+03
4.580125e+02,5.138558e+03
4.589767e+02,5.132026e+03
4.599409e+02,5.123992e+03
4.609052e+02,5.114549e+03
4.618694e+02,5.107068e+03
4.628336e+02,5.108017e+03
4.637979e+02,5.116346e+03
4.647621e+02,5.117888e+03
4.657263e+02,5.110128e+03
4.666906e+02,5.100706e+03
4.676548e+02,5.093724e+03
4.686190e+02,5.086469e+03
4.695833e+02,5.086250e+03
4.705475e+02,5.103353e+03
4.715117e+02,5.126248e+03
4.724760e+02,5.137987e+03
4.734402e+02,5.132853e+03
4.744044e+02,5.117453e+03
4.753687e+02,5.106205e+03
4.763329e+02,5.100670e+03
4.772971e+02,5.097517e+03
4.782614e+02,5.096102e+03
4.792256e+02,5.096909e+03
4.801898e+02,5.100398e+03
4.811541e+02,5.108417e+03
4.821183e+02,5.116596e+03
4.830826e+02,5.117720e+03
4.840468e+02,5.110938e+03
4.850110e+02,5.103617e+03
4.859753e+02,5.101158e+03
4.869395e+02,5.103670e+03
4.879037e+02,5.104330e+03
4.888680e+02,5.101550e+03
4.898322e+02,5.099399e+03
4.907964e+02,5.101130e+03
4.917607e+02,5.106567e+03
4.927249e+02,5.112581e+03
4.936891e+02,5.117211e+03
4.946534e+02,5.120507e+03
4.956176e+02,5.117759e+03
4.965818e+02,5.103463e+03
4.975461e+02,5.088516e+03
4.985103e+02,5.081546e+03
4.994745e+02,5.083203e+03
5.004388e+02,5.085156e+03
5.014030e+02,5.086065e+03
5.023672e+02,5.086297e+03
5.033315e+02,5.085392e+03
5.042957e+02,5.082833e+03
5.052599e+02,5.078636e+03
5.062242e+02,5.074239e+03
5.071884e+02,5.070573e+03
5.081526e+02,5.067434e+03
5.091169e+02,5.065529e+03
5.100811e+02,5.065216e+03
5.110453e+02,5.066005e+03
5.120095e+02,5.069168e+03
5.129738e+02,5.073034e+03
5.139380e+02,5.074211e+03
5.149022e+02,5.072948e+03
5.158665e+02,5.074117e+03
5.168307e+02,5.079934e+03
5.177949e+02,5.087619e+03
5.187592e+02,5.087092e+03
5.197234e+02,5.079554e+03
5.206876e+02,5.071572e+03
5.216519e+02,5.064750e+03
5.226161e+02,5.059821e+03
5.235803e+02,5.057074e+03
5.245446e+02,5.058328e+03
5.255088e+02,5.062538e+03
5.264730e+02,5.061881e+03
5.274373e+02,5.053816e+03
5.284015e+02,5.044860e+03
5.293657e+02,5.039843e+03
5.303300e+02,5.039141e+03
5.312942e+02,5.038813e+03
5.322584e+02,5.043647e+03
5.332227e+02,5.049205e+03
5.341869e+02,5.048284e+03
5.351511e+02,5.038886e+03
5.361154e+02,5.026952e+03
5.370796e+02,5.020921e+03
5.380438e+02,5.022106e+03
5.390081e+02,5.027227e+03
5.399723e+02,5.042000e+03
5.409365e+02,5.057922e+03
5.419008e+02,5.065173e+03
5.428650e+02,5.057386e+03
5.438292e+02,5.047686e+03
5.447935e+02,5.041884e+03
5.457577e+02,5.039539e+03
5.467219e+02,5.041069e+03
5.476862e+02,5.047668e+03
5.486504e+02,5.055844e+03
5.496146e+02,5.054968e+03
5.505789e+02,5.038039e+03
5.515431e+02,5.022199e+03
5.525073e+02,5.014159e+03
5.534716e+02,5.012002e+03
5.544358e+02,5.010243e+03
5.554000e+02,5.001310e+03
5.563643e+02,4.992771e+03
5.573285e+02,4.993811e+03
5.582927e+02,5.002807e+03
5.592570e+02,5.012457e+03
5.602212e+02,5.019587e+03
5.611854e+02,5.023757e+03
5.621497e+02,5.024281e+03
5.631139e+02,5.013765e+03
5.640781e+02,5.003896e+03
5.650424e+02,5.002723e+03
5.660066e+02,5.007838e+03
5.669708e+02,5.009054e+03
5.679351e+02,4.996957e+03
5.688993e+02,4.979255e+03
5.698635e+02,4.969306e+03
5.708278e+02,4.968721e+03
5.717920e+02,4.973808e+03
5.727562e+02,4.980775e+03
5.737205e+02,4.989690e+03
5.746847e+02,4.995804e+03
5.756489e+02,4.996449e+03
5.766132e+02,4.995461e+03
5.775774e+02,4.995844e+03
5.785416e+02,4.998051e+03
5.795059e+02,4.999381e+03
5.804701e+02,4.997554e+03
5.814343e+02,4.993134e+03
5.823986e+02,4.987779e+03
5.833628e+02,4.981849e+03
5.843270e+02,4.976190e+03
5.852913e+02,4.971373e+03
5.862555e+02,4.965731e+03
5.872197e+02,4.963781e+03
5.881840e+02,4.968660e+03
5.891482e+02,4.974294e+03
5.901124e+02,4.975445e+03
5.910767e+02,4.970161e+03
5.920409e+02,4.963443e+03
5.930051e+02,4.959982e+03
5.939694e+02,4.958842e+03
5.949336e+02,4.956466e+03
5.958978e+02,4.951029e+03
5.968621e+02,4.945117e+03
5.978263e+02,4.945092e+03
5.987905e+02,4.962779e+03
5.997548e+02,4.973881e+03
6.007190e+02,4.972056e+03
6.016832e+02,4.965270e+03
6.026475e+02,4.962012e+03
6.036117e+02,4.965623e+03
6.045759e+02,4.970861e+03
6.055402e+02,4.971482e+03
6.065044e+02,4.967217e+03
6.074686e+02,4.961727e+03
6.084329e+02,4.957813e+03
6.093971e+02,4.955214e+03
6.103613e+02,4.950202e+03
6.113256e+02,4.938803e+03
6.122899e+02,4.929773e+03
6.132541e+02,4.926346e+03
6.142183e+02,4.925908e+03
6.151826e+02,4.924306e+03
6.161468e+02,4.919438e+03
6.171110e+02,4.914762e+03
6.180753e+02,4.914930e+03
6.190395e+02,4.918822e+03
6.200037e+02,4.919459e+03
6.209680e+02,4.911018e+03
6.219322e+02,4.894989e+03
6.228964e+02,4.888566e+03
6.238607e+02,4.898987e+03
6.248249e+02,4.910977e+03
6.257891e+02,4.920756e+03
6.267534e+02,4.926524e+03
6.277176e+02,4.927110e+03
6.286818e+02,4.921419e+03
6.296461e+02,4.913377e+03
6.306103e+02,4.905243e+03
6.315745e+02,4.897807e+03
6.325388e+02,4.893942e+03
6.335030e+02,4.895980e+03
6.344672e+02,4.903472e+03
6.354315e+02,4.906856e+03
6.363957e+02,4.901631e+03
6.373599e+02,4.894864e+03
6.383242e+02,4.891184e+03
6.392884e+02,4.890931e+03
6.402526e+02,4.891476e+03
6.412169e+02,4.894740e+03
6.421811e+02,4.896404e+03
6.431453e+02,4.890563e+03
6.441096e+02,4.877836e+03
6.450738e+02,4.865086e+03
6.460380e+02,4.859657e+03
6.470023e+02,4.862750e+03
6.479665e+02,4.867696e+03
6.489307e+02,4.875265e+03
6.498950e+02,4.880843e+03
6.508592e+02,4.877772e+03
6.518234e+02,4.864149e+03
6.527877e+02,4.856284e+03
6.537519e+02,4.864581e+03
6.547161e+02,4.874653e+03
6.556804e+02,4.874274e+03
6.566446e+02,4.863365e+03
6.576088e+02,4.851936e+03
6.585731e+02,4.851134e+03
6.595373e+02,4.858617e+03
6.605015e+02,4.859647e+03
6.614658e+02,4.851327e+03
6.624300e+02,4.841029e+03
6.633942e+02,4.835765e+03
6.643585e+02,4.836903e+03
6.653227e+02,4.839234e+03
6.662869e+02,4.843254e+03
6.672512e+02,4.846625e+03
6.682154e+02,4.847786e+03
6.691796e+02,4.845969e+03
6.701439e+02,4.843128e+03
6.711081e+02,4.841861e+03
6.720723e+02,4.840642e+03
6.730366e+02,4.836083e+03
6.740008e+02,4.828045e+03
6.749650e+02,4.819209e+03
6.759293e+02,4.812663e+03
6.768935e+02,4.809651e+03
6.778577e+02,4.807422e+03
6.788220e+02,4.807381e+03
6.797862e+02,4.809833e+03
6.807504e+02,4.813389e+03
6.817147e+02,4.816887e+03
6.826789e+02,4.819615e+03
6.836431e+02,4.819189e+03
6.846074e+02,4.816952e+03
6.855716e+02,4.817032e+03
6.865358e+02,4.820725e+03
6.875001e+02,4.823268e+03
6.884643e+02,4.816722e+03
6.894285e+02,4.801404e+03
6.903928e+02,4.791406e+03
6.913570e+02,4.789086e+03
6.923212e+02,4.789800e+03
6.932855e+02,4.789218e+03
6.942497e+02,4.787860e+03
6.952139e+02,4.788408e+03
6.961782e+02,4.790745e+03
6.971424e+02,4.793937e+03
6.981066e+02,4.797016e+03
6.990709e+02,4.797995e+03
7.000351e+02,4.795045e+03
7.009993e+02,4.787589e+03
7.019636e+02,4.778785e+03
7.029278e+02,4.772044e+03
7.038920e+02,4.767484e+03
7.048563e+02,4.765127e+03
7.058205e+02,4.767745e+03
7.067847e+02,4.780702e+03
7.077490e+02,4.786927e+03
7.087132e+02,4.786680e+03
7.096774e+02,4.782960e+03
7.106417e+02,4.772687e+03
7.116059e+02,4.752220e+03
7.125701e+02,4.736466e+03
7.135344e+02,4.730715e+03
7.144986e+02,4.732292e+03
7.154628e+02,4.740274e+03
7.164271e+02,4.753251e+03
7.173913e+02,4.764878e+03
7.183555e+02,4.768574e+03
7.193198e+02,4.765296e+03
7.202840e+02,4.760225e+03
7.212482e+02,4.754155e+03
7.222125e+02,4.749061e+03
7.231767e+02,4.746277e+03
7.241409e+02,4.745062e+03
7.251052e+02,4.744340e+03
7.260694e+02,4.745065e+03
7.270336e+02,4.745041e+03
7.279979e+02,4.744248e+03
7.289621e+02,4.742537e+03
7.299263e+02,4.739561e+03
7.308906e+02,4.732872e+03
7.318548e+02,4.725170e+03
7.328190e+02,4.719714e+03
7.337833e+02,4.716981e+03
7.347475e+02,4.716080e+03
7.357117e+02,4.718475e+03
7.366760e+02,4.724430e+03
7.376402e+02,4.727426e+03
7.386044e+02,4.727019e+03
7.395687e+02,4.724773e+03
7.405329e+02,4.720772e+03
7.414971e+02,4.714197e+03
7.424614e+02,4.707936e+03
7.434256e+02,4.705174e+03
7.443898e+02,4.704696e+03
7.453541e+02,4.703418e+03
7.463183e+02,4.699217e+03
7.472825e+02,4.694947e+03
7.482468e+02,4.693293e+03
7.492110e+02,4.692188e+03
7.501752e+02,4.692602e+03
7.511395e+02,4.695498e+03
7.521037e+02,4.696927e+03
7.530679e+02,4.689577e+03
7.540322e+02,4.674170e+03
7.549964e+02,4.666260e+03
7.559606e+02,4.668798e+03
7.569249e+02,4.672373e+03
7.578891e+02,4.670065e+03
7.588533e+02,4.661700e+03
7.598176e+02,4.661850e+03
7.607818e+02,4.676419e+03
7.617460e+02,4.685692e+03
7.627103e+02,4.681528e+03
7.636745e+02,4.669421e+03
7.646387e+02,4.661727e+03
7.656030e+02,4.667716e+03
7.665672e+02,4.676219e+03
7.675314e+02,4.675026e+03
7.684957e+02,4.663664e+03
7.694599e+02,4.649502e+03
7.704241e+02,4.639201e+03
7.713884e+02,4.633722e+03
7.723526e+02,4.632479e+03
7.733168e+02,4.637057e+03
7.742811e+02,4.641588e+03
7.752453e+02,4.639841e+03
7.762095e+02,4.632172e+03
7.771738e+02,4.629791e+03
7.781380e+02,4.637162e+03
7.791022e+02,4.640613e+03
7.800665e+02,4.639863e+03
7.810307e+02,4.635171e+03
7.819949e+02,4.626416e+03
7.829592e+02,4.606929e+03
7.839234e+02,4.593222e+03
7.848876e+02,4.595232e+03
7.858519e+02,4.606542e+03
7.868161e+02,4.618656e+03
7.877803e+02,4.629300e+03
7.887446e+02,4.635136e+03
7.897088e+02,4.630787e+03
7.906730e+02,4.618976e+03
7.916373e+02,4.606913e+03
7.926015e+02,4.593490e+03
7.935657e+02,4.579131e+03
7.945300e+02,4.571253e+03
7.954942e+02,4.575274e+03
7.964584e+02,4.576892e+03
7.974227e+02,4.577438e+03
7.983869e+02,4.579859e+03
7.993511e+02,4.582425e+03
8.003154e+02,4.582453e+03
8.012796e+02,4.579042e+03
8.022438e+02,4.568609e+03
8.032081e+02,4.560437e+03
8.041723e+02,4.564662e+03
8.051365e+02,4.583345e+03
8.061008e+02,4.600306e+03
8.070650e+02,4.602303e+03
8.080292e+02,4.593316e+03
8.089935e+02,4.579603e+03
8.099577e+02,4.563797e+03
8.109219e+02,4.551783e+03
8.118862e+02,4.551453e+03
8.128504e+02,4.562278e+03
8.138146e+02,4.567997e+03
8.147789e+02,4.566472e+03
8.157431e+02,4.560994e+03
8.167073e+02,4.554417e+03
8.176716e+02,4.548264e+03
8.186358e+02,4.546635e+03
8.196000e+02,4.554478e+03
8.205643e+02,4.561607e+03
8.215285e+02,4.560525e+03
8.224927e+02,4.552028e+03
8.234570e+02,4.545326e+03
8.244212e+02,4.544612e+03
8.253854e+02,4.545036e+03
8.263497e+02,4.543651e+03
8.273139e+02,4.538968e+03
8.282781e+02,4.530895e+03
8.292424e+02,4.519005e+03
8.302066e+02,4.507834e+03
8.311708e+02,4.501936e+03
8.321351e+02,4.500920e+03
8.330993e+02,4.503456e+03
8.340635e+02,4.508747e+03
8.350278e+02,4.514985e+03
8.359920e+02,4.517470e+03
8.369562e+02,4.515386e+03
8.379205e+02,4.515135e+03
8.388847e+02,4.520298e+03
8.398489e+02,4.527882e+03
8.408132e+02,4.529448e+03
8.417774e+02,4.521220e+03
8.427416e+02,4.510690e+03
8.437059e+02,4.494368e+03
8.446701e+02,4.478480e+03
8.456343e+02,4.470197e+03
8.465986e+02,4.472862e+03
8.475628e+02,4.477173e+03
8.485270e+02,4.482548e+03
8.494913e+02,4.486586e+03
8.504555e+02,4.486998e+03
8.514197e+02,4.483703e+03
8.523840e+02,4.479821e+03
8.533482e+02,4.476993e+03
8.543124e+02,4.474097e+03
8.552767e+02,4.469250e+03
8.562409e+02,4.461981e+03
8.572051e+02,4.454618e+03
8.581694e+02,4.451597e+03
8.591336e+02,4.452959e+03
8.600978e+02,4.450842e+03
8.610621e+02,4.444678e+03
8.620263e+02,4.440543e+03
8.629905e+02,4.442795e+03
8.639548e+02,4.450495e+03
8.649190e+02,4.450386e+03
8.658832e+02,4.439880e+03
8.668475e+02,4.429311e+03
8.678117e+02,4.421083e+03
8.687759e+02,4.415235e+03
8.697402e+02,4.415766e+03
8.707044e+02,4.428854e+03
8.716686e+02,4.437259e+03
8.726329e+02,4.436650e+03
8.735971e+02,4.430302e+03
8.745613e+02,4.422630e+03
8.755256e+02,4.415159e+03
8.764898e+02,4.409714e+03
8.774540e+02,4.404976e+03
8.784183e+02,4.401874e+03
8.793825e+02,4.403877e+03
8.803467e+02,4.413303e+03
8.813110e+02,4.422940e+03
8.822752e+02,4.423225e+03
8.832394e+02,4.417418e+03
8.842037e+02,4.414117e+03
8.851679e+02,4.414361e+03
8.861321e+02,4.414668e+03
8.870964e+02,4.410229e+03
8.880606e+02,4.400328e+03
8.890248e+02,4.394085e+03
8.899891e+02,4.394998e+03
8.909533e+02,4.399089e+03
8.919175e+02,4.402493e+03
8.928818e+02,4.406365e+03
8.938460e+02,4.403539e+03
8.948102e+02,4.385839e+03
8.957745e+02,4.368042e+03
8.967387e+02,4.358846e+03
8.977029e+02,4.356919e+03
8.986672e+02,4.356857e+03
8.996314e+02,4.364823e+03
9.005956e+02,4.372822e+03
9.015599e+02,4.377796e+03
9.025241e+02,4.378757e+03
9.034883e+02,4.375450e+03
9.044526e+02,4.363281e+03
9.054168e+02,4.348935e+03
9.063810e+02,4.339204e+03
9.073453e+02,4.334714e+03
9.083095e+02,4.332225e+03
9.092737e+02,4.328271e+03
9.102380e+02,4.325217e+03
9.112022e+02,4.328859e+03
9.121664e+02,4.335683e+03
9.131307e+02,4.337149e+03
9.140949e+02,4.332024e+03
9.150591e+02,4.326746e+03
9.160234e+02,4.328233e+03
9.169876e+02,4.333093e+03
9.179518e+02,4.330890e+03
9.189161e+02,4.319493e+03
9.198803e+02,4.306046e+03
9.208445e+02,4.299972e+03
9.218088e+02,4.303846e+03
9.227730e+02,4.305395e+03
9.237372e+02,4.302151e+03
9.247015e+02,4.298848e+03
9.256657e+02,4.299381e+03
9.266299e+02,4.303705e+03
9.275942e+02,4.304463e+03
9.285584e+02,4.297027e+03
9.295226e+02,4.289641e+03
9.304869e+02,4.286847e+03
9.314511e+02,4.287688e+03
9.324153e+02,4.286875e+03
9.333796e+02,4.280611e+03
9.343438e+02,4.276258e+03
9.353080e+02,4.274624e+03
9.362723e+02,4.274365e+03
9.372365e+02,4.276135e+03
9.382007e+02,4.287319e+03
9.391650e+02,4.294296e+03
9.401292e+02,4.284724e+03
9.410934e+02,4.269803e+03
9.420577e+02,4.262167e+03
9.430219e+02,4.264943e+03
9.439861e+02,4.268327e+03
9.449504e+02,4.265508e+03
9.459146e+02,4.262104e+03
9.468788e+02,4.264420e+03
9.478431e+02,4.270158e+03
9.488073e+02,4.271756e+03
9.497715e+02,4.261842e+03
9.507358e+02,4.246673e+03
9.517000e+02,4.241123e+03
9.526642e+02,4.245771e+03
9.536285e+02,4.248898e+03
9.545927e+02,4.240663e+03
9.555569e+02,4.225485e+03
9.565212e+02,4.219756e+03
9.574854e+02,4.225221e+03
9.584496e+02,4.228972e+03
9.594139e+02,4.223076e+03
9.603781e+02,4.211550e+03
9.613423e+02,4.208818e+03
9.623066e+02,4.217738e+03
9.632708e+02,4.222884e+03
9.642350e+02,4.221494e+03
9.651993e+02,4.217324e+03
9.661635e+02,4.213910e+03
9.671277e+02,4.210237e+03
9.680920e+02,4.206163e+03
9.690562e+02,4.201969e+03
9.700204e+02,4.196391e+03
9.709847e+02,4.189146e+03
9.719489e+02,4.180538e+03
9.729131e+02,4.175583e+03
9.738774e+02,4.176524e+03
9.748416e+02,4.180832e+03
9.758058e+02,4.188230e+03
9.767701e+02,4.196319e+03
9.777343e+02,4.199283e+03
9.786985e+02,4.192933e+03
9.796628e+02,4.183957e+03
9.806270e+02,4.172819e+03
9.815912e+02,4.161654e+03
9.825555e+02,4.154237e+03
9.835197e+02,4.157277e+03
9.844839e+02,4.159762e+03
9.854482e+02,4.156671e+03
9.864124e+02,4.151619e+03
9.873766e+02,4.147030e+03
9.883409e+02,4.143660e+03
9.893051e+02,4.142656e+03
9.902693e+02,4.146628e+03
9.912336e+02,4.152578e+03
9.921978e+02,4.155883e+03
9.931620e+02,4.154979e+03
9.941263e+02,4.151873e+03
9.950905e+02,4.147986e+03
9.960547e+02,4.143669e+03
9.970190e+02,4.139411e+03
9.979832e+02,4.134532e+03
9.989474e+02,4.127826e+03
9.999117e+02,4.118648e+03
1.000876e+03,4.110546e+03
1.001840e+03,4.110491e+03
1.002804e+03,4.116758e+03
1.003769e+03,4.119363e+03
1.004733e+03,4.112805e+03
1.005697e+03,4.103631e+03
1.006661e+03,4.103824e+03
1.007626e+03,4.111254e+03
1.008590e+03,4.114363e+03
1.009554e+03,4.110014e+03
1.010518e+03,4.102360e+03
1.011482e+03,4.096596e+03
1.012447e+03,4.092526e+03
1.013411e+03,4.090097e+03
1.014375e+03,4.091490e+03
1.015339e+03,4.092745e+03
1.016304e+03,4.089268e+03
1.017268e+03,4.081784e+03
1.018232e+03,4.077397e+03
1.019196e+03,4.076121e+03
1.020161e+03,4.072915e+03
1.021125e+03,4.065469e+03
1.022089e+03,4.057895e+03
1.023053e+03,4.059170e+03
1.024018e+03,4.070061e+03
1.024982e+03,4.078439e+03
1.025946e+03,4.081590e+03
1.026910e+03,4.079129e+03
1.027875e+03,4.072212e+03
1.028839e+03,4.061253e+03
1.029803e+03,4.052524e+03
1.030767e+03,4.045724e+03
1.031731e+03,4.042365e+03
1.032696e+03,4.043437e+03
1.033660e+03,4.048779e+03
1.034624e+03,4.052366e+03
1.035588e+03,4.054435e+03
1.036552e+03,4.057376e+03
1.037517e+03,4.062543e+03
1.038481e+03,4.067264e+03
1.039445e+03,4.065336e+03
1.040409e+03,4.050036e+03
1.041374e+03,4.039812e+03
1.042338e+03,4.042593e+03
1.043302e+03,4.050702e+03
1.044266e+03,4.053061e+03
1.045231e+03,4.046112e+03
1.046195e+03,4.038694e+03
1.047159e+03,4.029977e+03
1.048123e+03,4.023115e+03
1.049088e+03,4.021234e+03
1.050052e+03,4.026633e+03
1.051016e+03,4.029160e+03
1.051980e+03,4.023414e+03
1.052945e+03,4.019433e+03
1.053909e+03,4.021304e+03
1.054873e+03,4.025196e+03
1.055837e+03,4.023796e+03
1.056802e+03,4.015601e+03
1.057766e+03,4.006362e+03
1.058730e+03,3.994737e+03
1.059694e+03,3.984652e+03
1.060658e+03,3.980621e+03
1.061623e+03,3.989059e+03
1.062587e+03,3.994212e+03
1.063551e+03,3.990002e+03
1.064515e+03,3.985724e+03
1.065479e+03,3.988854e+03
1.066444e+03,4.001400e+03
1.067408e+03,4.008339e+03
1.068372e+03,4.001172e+03
1.069336e+03,3.994184e+03
1.070301e+03,3.992455e+03
1.071265e+03,3.993721e+03
1.072229e+03,3.993539e+03
1.073193e+03,3.992437e+03
1.074158e+03,3.988087e+03
1.075122e+03,3.977063e+03
1.076086e+03,3.963957e+03
1.077050e+03,3.955190e+03
1.078015e+03,3.955686e+03
1.078979e+03,3.957606e+03
1.079943e+03,3.956942e+03
1.080907e+03,3.957741e+03
1.081872e+03,3.962594e+03
1.082836e+03,3.970629e+03
1.083800e+03,3.976679e+03
1.084764e+03,3.983110e+03
1.085729e+03,3.985947e+03
1.086693e+03,3.979279e+03
1.087657e+03,3.966850e+03
1.088621e+03,3.959267e+03
1.089585e+03,3.962690e+03
1.090550e+03,3.964341e+03
1.091514e+03,3.961810e+03
1.092478e+03,3.958651e+03
1.093442e+03,3.958408e+03
1.094406e+03,3.963766e+03
1.095371e+03,3.966701e+03
1.096335e+03,3.961786e+03
1.097299e+03,3.955614e+03
1.098263e+03,3.952865e+03
1.099228e+03,3.953106e+03
1.100192e+03,3.951640e+03
1.101156e+03,3.944672e+03
1.102120e+03,3.938313e+03
1.103085e+03,3.936597e+03
1.104049e+03,3.937288e+03
1.105013e+03,3.935708e+03
1.105977e+03,3.930532e+03
1.106942e+03,3.924597e+03
1.107906e+03,3.918177e+03
1.108870e+03,3.911722e+03
1.109834e+03,3.905298e+03
1.110799e+03,3.898662e+03
1.111763e+03,3.893341e+03
1.112727e+03,3.890579e+03
1.113691e+03,3.889339e+03
1.114656e+03,3.887596e+03
1.115620e+03,3.885848e+03
1.116584e+03,3.888139e+03
1.117548e+03,3.900176e+03
1.118512e+03,3.906503e+03
1.119477e+03,3.899360e+03
1.120441e+03,3.886342e+03
1.121405e+03,3.879571e+03
1.122369e+03,3.888343e+03
1.123334e+03,3.889653e+03
1.124298e+03,3.877515e+03
1.125262e+03,3.864472e+03
1.126226e+03,3.859929e+03
1.127191e+03,3.865332e+03
1.128155e+03,3.868777e+03
1.129119e+03,3.867691e+03
1.130083e+03,3.866336e+03
1.131047e+03,3.867091e+03
1.132012e+03,3.867550e+03
1.132976e+03,3.862380e+03
1.133940e+03,3.848207e+03
1.134904e+03,3.834366e+03
1.135869e+03,3.820632e+03
1.136833e+03,3.811796e+03
1.137797e+03,3.814837e+03
1.138761e+03,3.836805e+03
1.139726e+03,3.847717e+03
1.140690e+03,3.842222e+03
1.141654e+03,3.835118e+03
1.142618e+03,3.835245e+03
1.143583e+03,3.841498e+03
1.144547e+03,3.842965e+03
1.145511e+03,3.838670e+03
1.146475e+03,3.832381e+03
1.147439e+03,3.824096e+03
1.148404e+03,3.816292e+03
1.149368e+03,3.811729e+03
1.150332e+03,3.809898e+03
1.151296e+03,3.812907e+03
1.152261e+03,3.820432e+03
1.153225e+03,3.825019e+03
1.154189e+03,3.822870e+03
1.155153e+03,3.815953e+03
1.156118e+03,3.807141e+03
1.157082e+03,3.797606e+03
1.158046e+03,3.789403e+03
1.159010e+03,3.781488e+03
1.159974e+03,3.775374e+03
1.160939e+03,3.776920e+03
1.161903e+03,3.783649e+03
1.162867e+03,3.782819e+03
1.163831e+03,3.771247e+03
1.164796e+03,3.758680e+03
1.165760e+03,3.758943e+03
1.166724e+03,3.767335e+03
1.167688e+03,3.769259e+03
1.168653e+03,3.764968e+03
1.169617e+03,3.760625e+03
1.170581e+03,3.761554e+03
1.171545e+03,3.763813e+03
1.172510e+03,3.761147e+03
1.173474e+03,3.755270e+03
1.174438e+03,3.748464e+03
1.175402e+03,3.740611e+03
1.176366e+03,3.734057e+03
1.177331e+03,3.731288e+03
1.178295e+03,3.731666e+03
1.179259e+03,3.734825e+03
1.180223e+03,3.739372e+03
1.181188e+03,3.742276e+03
1.182152e+03,3.743288e+03
1.183116e+03,3.741074e+03
1.184080e+03,3.733834e+03
1.185045e+03,3.724491e+03
1.186009e+03,3.717040e+03
1.186973e+03,3.714635e+03
1.187937e+03,3.712727e+03
1.188901e+03,3.706366e+03
1.189866e+03,3.700992e+03
1.190830e+03,3.701656e+03
1.191794e+03,3.708214e+03
1.192758e+03,3.712257e+03
1.193723e+03,3.710661e+03
1.194687e+03,3.710844e+03
1.195651e+03,3.717640e+03
1.196615e+03,3.727251e+03
1.197580e+03,3.730224e+03
1.198544e+03,3.719940e+03
1.199508e+03,3.707730e+03
1.200472e+03,3.696400e+03
1.201437e+03,3.684863e+03
1.202401e+03,3.671498e+03
1.203365e+03,3.655979e+03
1.204329e+03,3.649068e+03
1.205293e+03,3.652236e+03
1.206258e+03,3.659351e+03
1.207222e+03,3.668547e+03
1.208186e+03,3.678107e+03
1.209150e+03,3.683530e+03
1.210115e+03,3.683382e+03
1.211079e+03,3.682079e+03
1.212043e+03,3.680626e+03
1.213007e+03,3.679076e+03
1.213972e+03,3.680043e+03
1.214936e+03,3.683343e+03
1.215900e+03,3.680964e+03
1.216864e+03,3.673137e+03
1.217828e+03,3.663892e+03
1.218793e+03,3.654886e+03
1.219757e+03,3.647116e+03
1.220721e+03,3.641919e+03
1.221685e+03,3.639516e+03
1.222650e+03,3.639619e+03
1.223614e+03,3.641121e+03
1.224578e+03,3.641085e+03
1.225542e+03,3.636175e+03
1.226507e+03,3.631338e+03
1.227471e+03,3.634008e+03
1.228435e+03,3.641198e+03
1.229399e+03,3.642529e+03
1.230364e+03,3.630365e+03
1.231328e+03,3.615842e+03
1.232292e+03,3.604256e+03
1.233256e+03,3.596846e+03
1.234220e+03,3.593412e+03
1.235185e+03,3.595753e+03
1.236149e+03,3.599022e+03
1.237113e+03,3.602907e+03
1.238077e+03,3.607751e+03
1.239042e+03,3.611706e+03
1.240006e+03,3.613306e+03
1.240970e+03,3.613896e+03
1.241934e+03,3.615393e+03
1.242899e+03,3.611590e+03
1.243863e+03,3.598688e+03
1.244827e+03,3.584726e+03
1.245791e+03,3.581204e+03
1.246755e+03,3.590745e+03
1.247720e+03,3.594987e+03
1.248684e+03,3.593152e+03
1.249648e+03,3.590637e+03
1.250612e+03,3.590711e+03
1.251577e+03,3.591547e+03
1.252541e+03,3.586903e+03
1.253505e+03,3.577583e+03
1.254469e+03,3.574166e+03
1.255434e+03,3.581012e+03
1.256398e+03,3.589758e+03
1.257362e+03,3.587688e+03
1.258326e+03,3.579873e+03
1.259291e+03,3.576991e+03
1.260255e+03,3.578680e+03
1.261219e+03,3.579984e+03
1.262183e+03,3.581676e+03
1.263147e+03,3.582240e+03
1.264112e+03,3.579223e+03
1.265076e+03,3.574013e+03
1.266040e+03,3.567385e+03
1.267004e+03,3.558511e+03
1.267969e+03,3.552985e+03
1.268933e+03,3.558360e+03
1.269897e+03,3.565458e+03
1.270861e+03,3.564275e+03
1.271826e+03,3.553438e+03
1.272790e+03,3.547884e+03
1.273754e+03,3.554546e+03
1.274718e+03,3.556963e+03
1.275682e+03,3.552420e+03
1.276647e+03,3.545364e+03
1.277611e+03,3.540751e+03
1.278575e+03,3.538945e+03
1.279539e+03,3.530832e+03
1.280504e+03,3.516595e+03
1.281468e+03,3.508854e+03
1.282432e+03,3.515750e+03
1.283396e+03,3.530986e+03
1.284361e+03,3.539619e+03
1.285325e+03,3.542041e+03
1.286289e+03,3.543144e+03
1.287253e+03,3.543926e+03
1.288218e+03,3.543374e+03
1.289182e+03,3.541071e+03
1.290146e+03,3.537709e+03
1.291110e+03,3.534939e+03
1.292074e+03,3.532574e+03
1.293039e+03,3.528165e+03
1.294003e+03,3.515549e+03
1.294967e+03,3.505286e+03
1.295931e+03,3.506721e+03
1.296896e+03,3.511967e+03
1.297860e+03,3.510855e+03
1.298824e+03,3.498801e+03
1.299788e+03,3.492873e+03
1.300753e+03,3.498363e+03
1.301717e+03,3.502235e+03
1.302681e+03,3.498191e+03
1.303645e+03,3.489784e+03
1.304609e+03,3.488558e+03
1.305574e+03,3.495017e+03
1.306538e+03,3.494267e+03
1.307502e+03,3.484796e+03
1.308466e+03,3.475344e+03
1.309431e+03,3.474382e+03
1.310395e+03,3.479378e+03
1.311359e+03,3.481722e+03
1.312323e+03,3.480214e+03
1.313288e+03,3.475618e+03
1.314252e+03,3.469265e+03
1.315216e+03,3.464170e+03
1.316180e+03,3.459940e+03
1.317145e+03,3.459004e+03
1.318109e+03,3.466110e+03
1.319073e+03,3.479736e+03
1.320037e+03,3.486663e+03
1.321001e+03,3.477089e+03
1.321966e+03,3.465704e+03
1.322930e+03,3.458967e+03
1.323894e+03,3.456540e+03
1.324858e+03,3.455495e+03
1.325823e+03,3.457760e+03
1.326787e+03,3.455809e+03
1.327751e+03,3.445977e+03
1.328715e+03,3.437340e+03
1.329680e+03,3.436952e+03
1.330644e+03,3.442993e+03
1.331608e+03,3.447242e+03
1.332572e+03,3.449402e+03
1.333536e+03,3.449074e+03
1.334501e+03,3.445286e+03
1.335465e+03,3.441197e+03
1.336429e+03,3.444490e+03
1.337393e+03,3.449874e+03
1.338358e+03,3.447418e+03
1.339322e+03,3.438349e+03
1.340286e+03,3.430351e+03
1.341250e+03,3.428942e+03
1.342215e+03,3.427053e+03
1.343179e+03,3.422539e+03
1.344143e+03,3.418793e+03
1.345107e+03,3.417580e+03
1.346072e+03,3.418645e+03
1.347036e+03,3.418290e+03
1.348000e+03,3.415593e+03
1.348964e+03,3.410931e+03
1.349928e+03,3.404738e+03
1.350893e+03,3.399020e+03
1.351857e+03,3.396074e+03
1.352821e+03,3.395102e+03
1.353785e+03,3.396160e+03
1.354750e+03,3.398855e+03
1.355714e+03,3.397563e+03
1.356678e+03,3.384505e+03
1.357642e+03,3.369630e+03
1.358607e+03,3.367523e+03
1.359571e+03,3.373112e+03
1.360535e+03,3.375806e+03
1.361499e+03,3.371663e+03
1.362464e+03,3.368010e+03
1.363428e+03,3.369086e+03
1.364392e+03,3.372214e+03
1.365356e+03,3.373993e+03
1.366320e+03,3.372954e+03
1.367285e+03,3.371586e+03
1.368249e+03,3.372279e+03
1.369213e+03,3.370319e+03
1.370177e+03,3.363914e+03
1.371142e+03,3.356713e+03
1.372106e+03,3.354000e+03
1.373070e+03,3.354873e+03
1.374034e+03,3.351540e+03
1.374999e+03,3.345348e+03
1.375963e+03,3.341951e+03
1.376927e+03,3.344514e+03
1.377891e+03,3.349421e+03
1.378855e+03,3.355789e+03
1.379820e+03,3.359718e+03
1.380784e+03,3.354056e+03
1.381748e+03,3.339020e+03
1.382712e+03,3.329757e+03
1.383677e+03,3.332968e+03
1.384641e+03,3.336795e+03
1.385605e+03,3.337871e+03
1.386569e+03,3.336354e+03
1.387534e+03,3.332997e+03
1.388498e+03,3.328064e+03
1.389462e+03,3.321086e+03
1.390426e+03,3.310639e+03
1.391391e+03,3.301849e+03
1.392355e+03,3.299271e+03
1.393319e+03,3.301211e+03
1.394283e+03,3.304298e+03
1.395247e+03,3.307414e+03
1.396212e+03,3.309000e+03
1.397176e+03,3.308750e+03
1.398140e+03,3.307161e+03
1.399104e+03,3.302263e+03
1.400069e+03,3.296887e+03
1.401033e+03,3.293456e+03
1.401997e+03,3.291182e+03
1.402961e+03,3.287475e+03
1.403926e+03,3.279542e+03
1.404890e+03,3.276475e+03
1.405854e+03,3.281567e+03
1.406818e+03,3.286180e+03
1.407782e+03,3.283281e+03
1.408747e+03,3.276155e+03
1.409711e+03,3.272884e+03
1.410675e+03,3.271433e+03
1.411639e+03,3.270951e+03
1.412604e+03,3.271848e+03
1.413568e+03,3.272837e+03
1.414532e+03,3.274657e+03
1.415496e+03,3.276624e+03
1.416461e+03,3.277078e+03
1.417425e+03,3.274977e+03
1.418389e+03,3.270411e+03
1.419353e+03,3.262262e+03
1.420318e+03,3.253529e+03
1.421282e+03,3.244610e+03
1.422246e+03,3.237849e+03
1.423210e+03,3.235078e+03
1.424174e+03,3.236150e+03
1.425139e+03,3.237310e+03
1.426103e+03,3.237585e+03
1.427067e+03,3.235684e+03
1.428031e+03,3.230860e+03
1.428996e+03,3.227756e+03
1.429960e+03,3.232889e+03
1.430924e+03,3.239258e+03
1.431888e+03,3.240492e+03
1.432853e+03,3.236580e+03
1.433817e+03,3.229680e+03
1.434781e+03,3.215453e+03
1.435745e+03,3.207106e+03
1.436709e+03,3.207138e+03
1.437674e+03,3.208758e+03
1.438638e+03,3.206615e+03
1.439602e+03,3.202372e+03
1.440566e+03,3.205648e+03
1.441531e+03,3.214948e+03
1.442495e+03,3.217411e+03
1.443459e+03,3.206215e+03
1.444423e+03,3.194568e+03
1.445388e+03,3.198209e+03
1.446352e+03,3.205188e+03
1.447316e+03,3.203915e+03
1.448280e+03,3.195851e+03
1.449245e+03,3.188280e+03
1.450209e+03,3.182500e+03
1.451173e+03,3.177175e+03
1.452137e+03,3.168812e+03
1.453101e+03,3.162190e+03
1.454066e+03,3.164520e+03
1.455030e+03,3.174295e+03
1.455994e+03,3.177646e+03
1.456958e+03,3.175416e+03
1.457923e+03,3.173841e+03
1.458887e+03,3.174674e+03
1.459851e+03,3.175008e+03
1.460815e+03,3.169815e+03
1.461780e+03,3.164037e+03
1.462744e+03,3.166559e+03
1.463708e+03,3.176273e+03
1.464672e+03,3.178110e+03
1.465636e+03,3.166380e+03
1.466601e+03,3.159461e+03
1.467565e+03,3.160263e+03
1.468529e+03,3.164338e+03
1.469493e+03,3.168007e+03
1.470458e+03,3.169842e+03
1.471422e+03,3.166215e+03
1.472386e+03,3.159093e+03
1.473350e+03,3.153504e+03
1.474315e+03,3.150770e+03
1.475279e+03,3.148537e+03
1.476243e+03,3.143618e+03
1.477207e+03,3.139161e+03
1.478172e+03,3.140688e+03
1.479136e+03,3.146415e+03
1.480100e+03,3.146057e+03
1.481064e+03,3.137313e+03
1.482028e+03,3.133611e+03
1.482993e+03,3.137712e+03
1.483957e+03,3.143642e+03
1.484921e+03,3.146211e+03
1.485885e+03,3.145649e+03
1.486850e+03,3.138707e+03
1.487814e+03,3.128654e+03
1.488778e+03,3.126042e+03
1.489742e+03,3.138055e+03
1.490707e+03,3.143683e+03
1.491671e+03,3.131617e+03
1.492635e+03,3.120440e+03
1.493599e+03,3.117862e+03
1.494563e+03,3.119623e+03
1.495528e+03,3.115542e+03
1.496492e+03,3.105451e+03
1.497456e+03,3.100491e+03
1.498420e+03,3.102764e+03
1.499385e+03,3.104450e+03
1.500349e+03,3.095875e+03
1.501313e+03,3.087800e+03
1.502277e+03,3.090497e+03
1.503242e+03,3.098611e+03
1.504206e+03,3.104973e+03
1.505170e+03,3.108417e+03
1.506134e+03,3.106863e+03
1.507099e+03,3.098718e+03
1.508063e+03,3.090910e+03
1.509027e+03,3.086293e+03
1.509991e+03,3.082716e+03
1.510955e+03,3.074865e+03
1.511920e+03,3.065827e+03
1.512884e+03,3.065172e+03
1.513848e+03,3.073358e+03
1.514812e+03,3.080605e+03
1.515777e+03,3.079003e+03
1.516741e+03,3.075130e+03
1.517705e+03,3.069560e+03
1.518669e+03,3.063370e+03
1.519634e+03,3.057508e+03
1.520598e+03,3.051668e+03
1.521562e+03,3.050468e+03
1.522526e+03,3.052890e+03
1.523490e+03,3.056486e+03
1.524455e+03,3.061392e+03
1.525419e+03,3.063815e+03
1.526383e+03,3.059400e+03
1.527347e+03,3.052032e+03
1.528312e+03,3.045716e+03
1.529276e+03,3.041595e+03
1.530240e+03,3.038193e+03
1.531204e+03,3.033881e+03
1.532169e+03,3.031088e+03
1.533133e+03,3.030267e+03
1.534097e+03,3.029971e+03
1.535061e+03,3.028513e+03
1.536026e+03,3.026630e+03
1.536990e+03,3.027819e+03
1.537954e+03,3.030468e+03
1.538918e+03,3.030930e+03
1.539882e+03,3.027870e+03
1.540847e+03,3.024425e+03
1.541811e+03,3.020806e+03
1.542775e+03,3.015580e+03
1.543739e+03,3.008601e+03
1.544704e+03,3.002277e+03
1.545668e+03,3.000097e+03
1.546632e+03,3.001847e+03
1.547596e+03,3.005844e+03
1.548561e+03,3.011429e+03
1.549525e+03,3.016191e+03
1.550489e+03,3.015289e+03
1.551453e+03,3.016222e+03
1.552417e+03,3.026972e+03
1.553382e+03,3.036828e+03
1.554346e+03,3.037969e+03
1.555310e+03,3.031628e+03
1.556274e+03,3.023054e+03
1.557239e+03,3.012031e+03
1.558203e+03,2.999471e+03
1.559167e+03,2.985299e+03
1.560131e+03,2.975555e+03
1.561096e+03,2.980424e+03
1.562060e+03,2.988229e+03
1.563024e+03,2.987357e+03
1.563988e+03,2.982244e+03
1.564953e+03,2.984179e+03
1.565917e+03,2.997033e+03
1.566881e+03,3.003957e+03
1.567845e+03,3.003468e+03
1.568809e+03,3.001423e+03
1.569774e+03,3.001841e+03
1.570738e+03,3.001719e+03
1.571702e+03,2.994619e+03
1.572666e+03,2.985552e+03
1.573631e+03,2.982802e+03
1.574595e+03,2.987955e+03
1.575559e+03,2.987546e+03
1.576523e+03,2.977766e+03
1.577488e+03,2.969981e+03
1.578452e+03,2.963961e+03
1.579416e+03,2.961431e+03
1.580380e+03,2.969774e+03
1.581344e+03,2.981280e+03
1.582309e+03,2.979459e+03
1.583273e+03,2.969238e+03
1.584237e+03,2.962198e+03
1.585201e+03,2.964391e+03
1.586166e+03,2.962411e+03
1.587130e+03,2.949624e+03
1.588094e+03,2.941013e+03
1.589058e+03,2.945713e+03
1.590023e+03,2.956018e+03
1.590987e+03,2.955113e+03
1.591951e+03,2.947915e+03
1.592915e+03,2.942223e+03
1.593880e+03,2.937970e+03
1.594844e+03,2.936656e+03
1.595808e+03,2.946226e+03
1.596772e+03,2.948937e+03
1.597736e+03,2.939171e+03
1.598701e+03,2.927732e+03
1.599665e+03,2.922987e+03
1.600629e+03,2.923925e+03
1.601593e+03,2.929922e+03
1.602558e+03,2.937817e+03
1.603522e+03,2.936555e+03
1.604486e+03,2.921039e+03
1.605450e+03,2.906894e+03
1.606415e+03,2.900740e+03
1.607379e+03,2.900097e+03
1.608343e+03,2.905333e+03
1.609307e+03,2.912312e+03
1.610271e+03,2.913139e+03
1.611236e+03,2.909173e+03
1.612200e+03,2.909924e+03
1.613164e+03,2.915335e+03
1.614128e+03,2.917529e+03
1.615093e+03,2.905000e+03
1.616057e+03,2.897550e+03
1.617021e+03,2.907011e+03
1.617985e+03,2.916406e+03
1.618950e+03,2.917030e+03
1.619914e+03,2.909972e+03
1.620878e+03,2.893521e+03
1.621842e+03,2.872868e+03
1.622807e+03,2.870489e+03
1.623771e+03,2.891597e+03
1.624735e+03,2.908163e+03
1.625699e+03,2.899067e+03
1.626663e+03,2.887836e+03
1.627628e+03,2.881948e+03
1.628592e+03,2.877371e+03
1.629556e+03,2.870791e+03
1.630520e+03,2.864241e+03
1.631485e+03,2.862689e+03
1.632449e+03,2.864474e+03
1.633413e+03,2.863139e+03
1.634377e+03,2.853933e+03
1.635342e+03,2.848215e+03
1.636306e+03,2.856739e+03
1.637270e+03,2.862501e+03
1.638234e+03,2.856542e+03
1.639198e+03,2.844288e+03
1.640163e+03,2.835365e+03
1.641127e+03,2.830711e+03
1.642091e+03,2.832575e+03
1.643055e+03,2.839464e+03
1.644020e+03,2.845364e+03
1.644984e+03,2.847047e+03
1.645948e+03,2.846045e+03
1.646912e+03,2.842760e+03
1.647877e+03,2.839112e+03
1.648841e+03,2.837614e+03
1.649805e+03,2.837084e+03
1.650769e+03,2.831952e+03
1.651734e+03,2.823743e+03
1.652698e+03,2.816501e+03
1.653662e+03,2.809919e+03
1.654626e+03,2.807106e+03
1.655590e+03,2.811259e+03
1.656555e+03,2.815860e+03
1.657519e+03,2.821254e+03
1.658483e+03,2.825586e+03
1.659447e+03,2.823664e+03
1.660412e+03,2.816526e+03
1.661376e+03,2.805524e+03
1.662340e+03,2.794303e+03
1.663304e+03,2.790844e+03
1.664269e+03,2.804196e+03
1.665233e+03,2.810703e+03
1.666197e+03,2.808448e+03
1.667161e+03,2.801324e+03
1.668125e+03,2.790239e+03
1.669090e+03,2.779779e+03
1.670054e+03,2.777633e+03
1.671018e+03,2.780450e+03
1.671982e+03,2.785183e+03
1.672947e+03,2.791450e+03
1.673911e+03,2.798326e+03
1.674875e+03,2.805981e+03
1.675839e+03,2.805504e+03
1.676804e+03,2.796501e+03
1.677768e+03,2.786551e+03
1.678732e+03,2.779276e+03
1.679696e+03,2.774332e+03
1.680661e+03,2.774004e+03
1.681625e+03,2.773181e+03
1.682589e+03,2.765062e+03
1.683553e+03,2.750105e+03
1.684517e+03,2.748035e+03
1.685482e+03,2.757980e+03
1.686446e+03,2.765065e+03
1.687410e+03,2.764430e+03
1.688374e+03,2.761587e+03
1.689339e+03,2.760240e+03
1.690303e+03,2.758013e+03
1.691267e+03,2.752181e+03
1.692231e+03,2.745906e+03
1.693196e+03,2.743781e+03
1.694160e+03,2.744446e+03
1.695124e+03,2.744309e+03
1.696088e+03,2.743783e+03
1.697052e+03,2.743748e+03
1.698017e+03,2.742616e+03
1.698981e+03,2.741222e+03
1.699945e+03,2.736955e+03
1.700909e+03,2.735054e+03
1.701874e+03,2.742668e+03
1.702838e+03,2.754176e+03
1.703802e+03,2.753445e+03
1.704766e+03,2.743429e+03
1.705731e+03,2.730935e+03
1.706695e+03,2.717895e+03
1.707659e+03,2.708427e+03
1.708623e+03,2.704624e+03
1.709588e+03,2.703091e+03
1.710552e+03,2.701786e+03
1.711516e+03,2.702720e+03
1.712480e+03,2.713351e+03
1.713444e+03,2.722986e+03
1.714409e+03,2.718649e+03
1.715373e+03,2.707622e+03
1.716337e+03,2.698581e+03
1.717301e+03,2.692663e+03
1.718266e+03,2.693475e+03
1.719230e+03,2.700128e+03
1.720194e+03,2.701970e+03
1.721158e+03,2.695005e+03
1.722123e+03,2.689058e+03
1.723087e+03,2.694176e+03
1.724051e+03,2.698871e+03
1.725015e+03,2.697173e+03
1.725979e+03,2.693235e+03
1.726944e+03,2.690878e+03
1.727908e+03,2.690347e+03
1.728872e+03,2.695170e+03
1.729836e+03,2.702074e+03
1.730801e+03,2.702680e+03
1.731765e+03,2.690787e+03
1.732729e+03,2.680597e+03
1.733693e+03,2.672458e+03
1.734658e+03,2.669689e+03
1.735622e+03,2.675092e+03
1.736586e+03,2.682300e+03
1.737550e+03,2.681977e+03
1.738515e+03,2.678407e+03
1.739479e+03,2.677234e+03
1.740443e+03,2.677945e+03
1.741407e+03,2.675406e+03
1.742371e+03,2.669099e+03
1.743336e+03,2.665486e+03
1.744300e+03,2.664822e+03
1.745264e+03,2.662788e+03
1.746228e+03,2.655531e+03
1.747193e+03,2.650442e+03
1.748157e+03,2.654485e+03
1.749121e+03,2.661380e+03
1.750085e+03,2.664205e+03
1.751050e+03,2.662050e+03
1.752014e+03,2.659533e+03
1.752978e+03,2.657160e+03
1.753942e+03,2.654668e+03
1.754906e+03,2.651503e+03
1.755871e+03,2.645935e+03
1.756835e+03,2.631896e+03
1.757799e+03,2.627119e+03
1.758763e+03,2.638809e+03
1.759728e+03,2.652901e+03
1.760692e+03,2.656676e+03
1.761656e+03,2.654754e+03
1.762620e+03,2.645279e+03
1.763585e+03,2.635098e+03
1.764549e+03,2.635048e+03
1.765513e+03,2.643790e+03
1.766477e+03,2.647104e+03
1.767442e+03,2.646267e+03
1.768406e+03,2.644904e+03
1.769370e+03,2.644400e+03
1.770334e+03,2.642589e+03
1.771298e+03,2.635513e+03
1.772263e+03,2.627896e+03
1.773227e+03,2.621396e+03
1.774191e+03,2.616437e+03
1.775155e+03,2.613171e+03
1.776120e+03,2.611095e+03
1.777084e+03,2.611300e+03
1.778048e+03,2.612591e+03
1.779012e+03,2.610667e+03
1.779977e+03,2.603849e+03
1.780941e+03,2.605931e+03
1.781905e+03,2.615473e+03
1.782869e+03,2.620524e+03
1.783833e+03,2.615239e+03
1.784798e+03,2.607630e+03
1.785762e+03,2.600382e+03
1.786726e+03,2.594151e+03
1.787690e+03,2.589510e+03
1.788655e+03,2.586752e+03
1.789619e+03,2.586758e+03
1.790583e+03,2.587787e+03
1.791547e+03,2.584358e+03
1.792512e+03,2.577773e+03
1.793476e+03,2.575013e+03
1.794440e+03,2.575081e+03
1.795404e+03,2.583326e+03
1.796369e+03,2.599741e+03
1.797333e+03,2.607478e+03
1.798297e+03,2.591371e+03
1.799261e+03,2.574416e+03
1.800225e+03,2.572804e+03
1.801190e+03,2.574404e+03
1.802154e+03,2.573128e+03
1.803118e+03,2.568560e+03
1.804082e+03,2.559186e+03
1.805047e+03,2.548139e+03
1.806011e+03,2.539010e+03
1.806975e+03,2.532673e+03
1.807939e+03,2.535899e+03
1.808904e+03,2.552337e+03
1.809868e+03,2.563119e+03
1.810832e+03,2.567154e+03
1.811796e+03,2.566785e+03
1.812760e+03,2.559172e+03
1.813725e+03,2.552133e+03
1.814689e+03,2.553349e+03
1.815653e+03,2.554860e+03
1.816617e+03,2.549388e+03
1.817582e+03,2.540634e+03
1.818546e+03,2.542643e+03
1.819510e+03,2.549302e+03
1.820474e+03,2.546324e+03
1.821439e+03,2.531991e+03
1.822403e+03,2.523036e+03
1.823367e+03,2.521191e+03
1.824331e+03,2.523500e+03
1.825296e+03,2.528988e+03
1.826260e+03,2.532815e+03
1.827224e+03,2.533261e+03
1.828188e+03,2.532813e+03
1.829152e+03,2.530556e+03
1.830117e+03,2.527059e+03
1.831081e+03,2.521988e+03
1.832045e+03,2.515883e+03
1.833009e+03,2.513676e+03
1.833974e+03,2.515402e+03
1.834938e+03,2.517594e+03
1.835902e+03,2.518620e+03
1.836866e+03,2.516073e+03
1.837831e+03,2.509540e+03
1.838795e+03,2.501931e+03
1.839759e+03,2.494832e+03
1.840723e+03,2.490308e+03
1.841688e+03,2.487599e+03
1.842652e+03,2.489057e+03
1.843616e+03,2.495609e+03
1.844580e+03,2.501798e+03
1.845544e+03,2.505120e+03
1.846509e+03,2.504604e+03
1.847473e+03,2.494027e+03
1.848437e+03,2.479226e+03
1.849401e+03,2.472418e+03
1.850366e+03,2.474273e+03
1.851330e+03,2.467027e+03
1.852294e+03,2.453282e+03
1.853258e+03,2.450645e+03
1.854223e+03,2.464567e+03
1.855187e+03,2.477134e+03
1.856151e+03,2.479443e+03
1.857115e+03,2.477906e+03
1.858079e+03,2.472364e+03
1.859044e+03,2.466701e+03
1.860008e+03,2.467810e+03
1.860972e+03,2.470434e+03
1.861936e+03,2.468919e+03
1.862901e+03,2.465203e+03
1.863865e+03,2.460147e+03
1.864829e+03,2.452919e+03
1.865793e+03,2.450877e+03
1.866758e+03,2.453287e+03
1.867722e+03,2.456173e+03
1.868686e+03,2.458531e+03
1.869650e+03,2.455706e+03
1.870615e+03,2.444855e+03
1.871579e+03,2.440370e+03
1.872543e+03,2.447991e+03
1.873507e+03,2.456622e+03
1.874471e+03,2.455788e+03
1.875436e+03,2.448875e+03
1.876400e+03,2.435735e+03
1.877364e+03,2.424375e+03
1.878328e+03,2.428009e+03
1.879293e+03,2.436806e+03
1.880257e+03,2.426190e+03
1.881221e+03,2.406879e+03
1.882185e+03,2.406224e+03
1.883150e+03,2.426411e+03
1.884114e+03,2.429097e+03
1.885078e+03,2.416381e+03
1.886042e+03,2.408470e+03
1.887006e+03,2.412003e+03
1.887971e+03,2.411156e+03
1.888935e+03,2.397625e+03
1.889899e+03,2.392034e+03
1.890863e+03,2.398682e+03
1.891828e+03,2.407733e+03
1.892792e+03,2.414513e+03
1.893756e+03,2.416499e+03
1.894720e+03,2.410971e+03
1.895685e+03,2.403898e+03
1.896649e+03,2.398263e+03
1.897613e+03,2.393123e+03
1.898577e+03,2.388920e+03
1.899542e+03,2.385681e+03
1.900506e+03,2.381740e+03
1.901470e+03,2.375894e+03
1.902434e+03,2.381306e+03
1.903398e+03,2.397169e+03
1.904363e+03,2.400882e+03
1.905327e+03,2.385722e+03
1.906291e+03,2.375157e+03
1.907255e+03,2.384686e+03
1.908220e+03,2.391454e+03
1.909184e+03,2.391834e+03
1.910148e+03,2.386922e+03
1.911112e+03,2.374375e+03
1.912077e+03,2.363003e+03
1.913041e+03,2.360888e+03
1.914005e+03,2.363560e+03
1.914969e+03,2.369120e+03
1.915933e+03,2.374119e+03
1.916898e+03,2.361436e+03
1.917862e+03,2.340442e+03
1.918826e+03,2.329904e+03
1.919790e+03,2.333863e+03
1.920755e+03,2.335268e+03
1.921719e+03,2.333086e+03
1.922683e+03,2.334817e+03
1.923647e+03,2.342927e+03
1.924612e+03,2.350065e+03
1.925576e+03,2.351653e+03
1.926540e+03,2.354416e+03
1.927504e+03,2.358572e+03
1.928469e+03,2.359229e+03
1.929433e+03,2.348052e+03
1.930397e+03,2.335796e+03
1.931361e+03,2.332040e+03
1.932325e+03,2.329402e+03
1.933290e+03,2.321949e+03
1.934254e+03,2.314638e+03
1.935218e+03,2.316148e+03
1.936182e+03,2.321297e+03
1.937147e+03,2.327094e+03
1.938111e+03,2.332583e+03
1.939075e+03,2.324648e+03
1.940039e+03,2.307319e+03
1.941004e+03,2.301620e+03
1.941968e+03,2.308348e+03
1.942932e+03,2.308425e+03
1.943896e+03,2.293438e+03
1.944860e+03,2.284904e+03
1.945825e+03,2.286048e+03
1.946789e+03,2.290088e+03
1.947753e+03,2.294209e+03
1.948717e+03,2.294779e+03
1.949682e+03,2.287533e+03
1.950646e+03,2.280937e+03
1.951610e+03,2.280017e+03
1.952574e+03,2.282827e+03
1.953539e+03,2.289100e+03
1.954503e+03,2.295134e+03
1.955467e+03,2.298934e+03
1.956431e+03,2.299657e+03
1.957396e+03,2.288128e+03
1.958360e+03,2.271536e+03
1.959324e+03,2.272296e+03
1.960288e+03,2.289361e+03
1.961252e+03,2.297647e+03
1.962217e+03,2.294239e+03
1.963181e+03,2.284156e+03
1.964145e+03,2.268779e+03
1.965109e+03,2.259139e+03
1.966074e+03,2.265594e+03
1.967038e+03,2.270945e+03
1.968002e+03,2.270949e+03
1.968966e+03,2.272598e+03
1.969931e+03,2.282566e+03
1.970895e+03,2.285828e+03
1.971859e+03,2.263509e+03
1.972823e+03,2.246802e+03
1.973787e+03,2.249884e+03
1.974752e+03,2.259070e+03
1.975716e+03,2.255221e+03
1.976680e+03,2.246978e+03
1.977644e+03,2.246752e+03
1.978609e+03,2.250355e+03
1.979573e+03,2.246861e+03
1.980537e+03,2.238782e+03
1.981501e+03,2.236196e+03
1.982466e+03,2.238924e+03
1.983430e+03,2.246356e+03
1.984394e+03,2.258859e+03
1.985358e+03,2.260337e+03
1.986323e+03,2.251835e+03
1.987287e+03,2.240655e+03
1.988251e+03,2.227211e+03
1.989215e+03,2.220490e+03
1.990179e+03,2.222986e+03
1.991144e+03,2.225131e+03
1.992108e+03,2.225593e+03
1.993072e+03,2.224624e+03
1.994036e+03,2.220942e+03
1.995001e+03,2.215037e+03
1.995965e+03,2.205938e+03
1.996929e+03,2.199577e+03
1.997893e+03,2.199279e+03
1.998858e+03,2.204027e+03
1.999822e+03,2.221273e+03
2.000786e+03,2.234720e+03
2.001750e+03,2.231004e+03
2.002714e+03,2.217353e+03
2.003679e+03,2.199265e+03
2.004643e+03,2.183395e+03
2.005607e+03,2.187113e+03
2.006571e+03,2.204049e+03
2.007536e+03,2.205812e+03
2.008500e+03,2.196867e+03
2.009464e+03,2.190838e+03
2.010428e+03,2.189180e+03
2.011393e+03,2.179993e+03
2.012357e+03,2.161338e+03
2.013321e+03,2.156858e+03
2.014285e+03,2.165735e+03
2.015250e+03,2.173794e+03
2.016214e+03,2.172224e+03
2.017178e+03,2.174722e+03
2.018142e+03,2.183034e+03
2.019106e+03,2.188189e+03
2.020071e+03,2.183605e+03
2.021035e+03,2.178625e+03
2.021999e+03,2.179250e+03
2.022963e+03,2.175644e+03
2.023928e+03,2.163403e+03
2.024892e+03,2.151285e+03
2.025856e+03,2.149400e+03
2.026820e+03,2.150776e+03
2.027785e+03,2.151080e+03
2.028749e+03,2.150175e+03
2.029713e+03,2.146792e+03
2.030677e+03,2.144978e+03
2.031641e+03,2.154862e+03
2.032606e+03,2.165903e+03
2.033570e+03,2.157847e+03
2.034534e+03,2.136612e+03
2.035498e+03,2.131569e+03
2.036463e+03,2.135866e+03
2.037427e+03,2.131067e+03
2.038391e+03,2.117659e+03
2.039355e+03,2.114617e+03
2.040320e+03,2.119531e+03
2.041284e+03,2.119296e+03
2.042248e+03,2.110219e+03
2.043212e+03,2.111594e+03
2.044177e+03,2.126343e+03
2.045141e+03,2.131152e+03
2.046105e+03,2.122352e+03
2.047069e+03,2.115065e+03
2.048033e+03,2.116751e+03
2.048998e+03,2.117680e+03
2.049962e+03,2.117844e+03
2.050926e+03,2.117807e+03
2.051890e+03,2.119166e+03
2.052854e+03,2.117827e+03
2.053819e+03,2.110827e+03
2.054783e+03,2.102648e+03
2.055747e+03,2.096599e+03
2.056711e+03,2.093243e+03
2.057676e+03,2.094935e+03
2.058640e+03,2.096110e+03
2.059604e+03,2.091055e+03
2.060568e+03,2.085198e+03
2.061533e+03,2.090005e+03
2.062497e+03,2.097555e+03
2.063461e+03,2.101228e+03
2.064425e+03,2.100826e+03
2.065390e+03,2.094923e+03
2.066354e+03,2.084921e+03
2.067318e+03,2.068146e+03
2.068282e+03,2.054323e+03
2.069247e+03,2.063092e+03
2.070211e+03,2.088009e+03
2.071175e+03,2.089047e+03
2.072139e+03,2.075095e+03
2.073104e+03,2.067077e+03
2.074068e+03,2.067049e+03
2.075032e+03,2.056757e+03
2.075996e+03,2.039769e+03
2.076960e+03,2.037728e+03
2.077925e+03,2.054371e+03
2.078889e+03,2.063719e+03
2.079853e+03,2.064250e+03
2.080817e+03,2.057659e+03
2.081782e+03,2.044676e+03
2.082746e+03,2.034626e+03
2.083710e+03,2.034400e+03
2.084674e+03,2.031019e+03
2.085639e+03,2.024949e+03
2.086603e+03,2.022486e+03
2.087567e+03,2.023779e+03
2.088531e+03,2.029435e+03
2.089496e+03,2.040114e+03
2.090460e+03,2.043297e+03
2.091424e+03,2.035217e+03
2.092388e+03,2.025936e+03
2.093353e+03,2.016012e+03
2.094317e+03,2.013902e+03
2.095281e+03,2.022030e+03
2.096245e+03,2.030081e+03
2.097209e+03,2.026179e+03
2.098174e+03,2.021974e+03
2.099138e+03,2.024213e+03
2.100102e+03,2.027230e+03
2.101066e+03,2.026424e+03
2.102031e+03,2.021316e+03
2.102995e+03,2.008092e+03
2.103959e+03,1.993722e+03
2.104923e+03,1.980322e+03
2.105887e+03,1.974250e+03
2.106852e+03,1.989590e+03
2.107816e+03,2.008588e+03
2.108780e+03,2.014125e+03
2.109744e+03,2.010130e+03
2.110708e+03,2.008291e+03
2.111673e+03,2.005620e+03
2.112637e+03,1.990481e+03
2.113601e+03,1.969567e+03
2.114565e+03,1.961553e+03
2.115530e+03,1.962920e+03
2.116494e+03,1.968382e+03
2.117458e+03,1.977834e+03
2.118422e+03,1.983572e+03
2.119387e+03,1.984881e+03
2.120351e+03,1.988815e+03
2.121315e+03,1.993056e+03
2.122279e+03,1.993214e+03
2.123244e+03,1.988837e+03
2.124208e+03,1.987301e+03
2.125172e+03,1.987615e+03
2.126136e+03,1.982403e+03
2.127101e+03,1.969343e+03
2.128065e+03,1.965939e+03
2.129029e+03,1.970188e+03
2.129993e+03,1.969760e+03
2.130958e+03,1.960323e+03
2.131922e+03,1.951881e+03
2.132886e+03,1.945680e+03
2.133850e+03,1.950396e+03
2.134814e+03,1.967445e+03
2.135779e+03,1.973928e+03
2.136743e+03,1.956058e+03
2.137707e+03,1.941510e+03
2.138671e+03,1.932458e+03
2.139636e+03,1.930197e+03
2.140600e+03,1.939370e+03
2.141564e+03,1.947801e+03
2.142528e+03,1.955277e+03
2.143493e+03,1.957666e+03
2.144457e+03,1.951587e+03
2.145421e+03,1.941436e+03
2.146385e+03,1.927205e+03
2.147350e+03,1.917885e+03
2.148314e+03,1.917014e+03
2.149278e+03,1.922120e+03
2.150242e+03,1.938258e+03
2.151207e+03,1.940964e+03
2.152171e+03,1.924258e+03
2.153135e+03,1.906122e+03
2.154099e+03,1.903164e+03
2.155063e+03,1.903037e+03
2.156028e+03,1.903683e+03
2.156992e+03,1.903590e+03
2.157956e+03,1.897163e+03
2.158920e+03,1.891583e+03
2.159885e+03,1.889144e+03
2.160849e+03,1.891387e+03
2.161813e+03,1.902082e+03
2.162777e+03,1.909615e+03
2.163741e+03,1.900015e+03
2.164706e+03,1.891632e+03
2.165670e+03,1.894571e+03
2.166634e+03,1.897913e+03
2.167598e+03,1.882956e+03
2.168563e+03,1.871094e+03
2.169527e+03,1.870805e+03
2.170491e+03,1.873343e+03
2.171455e+03,1.874172e+03
2.172420e+03,1.872790e+03
2.173384e+03,1.867093e+03
2.174348e+03,1.863403e+03
2.175312e+03,1.866793e+03
2.176277e+03,1.872789e+03
2.177241e+03,1.882962e+03
2.178205e+03,1.886498e+03
2.179169e+03,1.875331e+03
2.180134e+03,1.860133e+03
2.181098e+03,1.848414e+03
2.182062e+03,1.845966e+03
2.183026e+03,1.857391e+03
2.183990e+03,1.869697e+03
2.184955e+03,1.860766e+03
2.185919e+03,1.847386e+03
2.186883e+03,1.841056e+03
2.187847e+03,1.839471e+03
2.188812e+03,1.843099e+03
2.189776e+03,1.848838e+03
2.190740e+03,1.854007e+03
2.191704e+03,1.856364e+03
2.192668e+03,1.854355e+03
2.193633e+03,1.849689e+03
2.194597e+03,1.840942e+03
2.195561e+03,1.835044e+03
2.196525e+03,1.838846e+03
2.197490e+03,1.845299e+03
2.198454e+03,1.842611e+03
2.199418e+03,1.834964e+03
2.200382e+03,1.825781e+03
2.201347e+03,1.818871e+03
2.202311e+03,1.820152e+03
2.203275e+03,1.824113e+03
2.204239e+03,1.823373e+03
2.205204e+03,1.820440e+03
2.206168e+03,1.825687e+03
2.207132e+03,1.830047e+03
2.208096e+03,1.814335e+03
2.209061e+03,1.794472e+03
2.210025e+03,1.791255e+03
2.210989e+03,1.794628e+03
2.211953e+03,1.786985e+03
2.212917e+03,1.783050e+03
2.213882e+03,1.795056e+03
2.214846e+03,1.810631e+03
2.215810e+03,1.808935e+03
2.216774e+03,1.797898e+03
2.217739e+03,1.787824e+03
2.218703e+03,1.781301e+03
2.219667e+03,1.784904e+03
2.220631e+03,1.790539e+03
2.221595e+03,1.789952e+03
2.222560e+03,1.784888e+03
2.223524e+03,1.774606e+03
2.224488e+03,1.764952e+03
2.225452e+03,1.765208e+03
2.226417e+03,1.769411e+03
2.227381e+03,1.772651e+03
2.228345e+03,1.775680e+03
2.229309e+03,1.776535e+03
2.230274e+03,1.777217e+03
2.231238e+03,1.783254e+03
2.232202e+03,1.786138e+03
2.233166e+03,1.767560e+03
2.234131e+03,1.749839e+03
2.235095e+03,1.750169e+03
2.236059e+03,1.757416e+03
2.237023e+03,1.755810e+03
2.237988e+03,1.750340e+03
2.238952e+03,1.742525e+03
2.239916e+03,1.736941e+03
2.240880e+03,1.746475e+03
2.241844e+03,1.755781e+03
2.242809e+03,1.751522e+03
2.243773e+03,1.745831e+03
2.244737e+03,1.751478e+03
2.245701e+03,1.758171e+03
2.246666e+03,1.758501e+03
2.247630e+03,1.753240e+03
2.248594e+03,1.739300e+03
2.249558e+03,1.730006e+03
2.250522e+03,1.746119e+03
2.251487e+03,1.758183e+03
2.252451e+03,1.747889e+03
2.253415e+03,1.731533e+03
2.254379e+03,1.729866e+03
2.255344e+03,1.726286e+03
2.256308e+03,1.712523e+03
2.257272e+03,1.703451e+03
2.258236e+03,1.724077e+03
2.259201e+03,1.736444e+03
2.260165e+03,1.726130e+03
2.261129e+03,1.710968e+03
2.262093e+03,1.701179e+03
2.263058e+03,1.699533e+03
2.264022e+03,1.709052e+03
2.264986e+03,1.717431e+03
2.265950e+03,1.714412e+03
2.266915e+03,1.707504e+03
2.267879e+03,1.696094e+03
2.268843e+03,1.690486e+03
2.269807e+03,1.701803e+03
2.270771e+03,1.703976e+03
2.271736e+03,1.683209e+03
2.272700e+03,1.672403e+03
2.273664e+03,1.679660e+03
2.274628e+03,1.688848e+03
2.275593e+03,1.694943e+03
2.276557e+03,1.691532e+03
2.277521e+03,1.678616e+03
2.278485e+03,1.671607e+03
2.279449e+03,1.683917e+03
2.280414e+03,1.684861e+03
2.281378e+03,1.672791e+03
2.282342e+03,1.662695e+03
2.283306e+03,1.661483e+03
2.284271e+03,1.660560e+03
2.285235e+03,1.659465e+03
2.286199e+03,1.657412e+03
2.287163e+03,1.655926e+03
2.288128e+03,1.658394e+03
2.289092e+03,1.662734e+03
2.290056e+03,1.662961e+03
2.291020e+03,1.657948e+03
2.291985e+03,1.655202e+03
2.292949e+03,1.655641e+03
2.293913e+03,1.652641e+03
2.294877e+03,1.645804e+03
2.295842e+03,1.645357e+03
2.296806e+03,1.649827e+03
2.297770e+03,1.655474e+03
2.298734e+03,1.659616e+03
2.299698e+03,1.653753e+03
2.300663e+03,1.640504e+03
2.301627e+03,1.634426e+03
2.302591e+03,1.634289e+03
2.303555e+03,1.639262e+03
2.304520e+03,1.647015e+03
2.305484e+03,1.647594e+03
2.306448e+03,1.643574e+03
2.307412e+03,1.637648e+03
2.308376e+03,1.630231e+03
2.309341e+03,1.623017e+03
2.310305e+03,1.615446e+03
2.311269e+03,1.605534e+03
2.312233e+03,1.599167e+03
2.313198e+03,1.609415e+03
2.314162e+03,1.621693e+03
2.315126e+03,1.619144e+03
2.316090e+03,1.611858e+03
2.317055e+03,1.612131e+03
2.318019e+03,1.612653e+03
2.318983e+03,1.603035e+03
2.319947e+03,1.594134e+03
2.320912e+03,1.597543e+03
2.321876e+03,1.602246e+03
2.322840e+03,1.596079e+03
2.323804e+03,1.594142e+03
2.324769e+03,1.606913e+03
2.325733e+03,1.617856e+03
2.326697e+03,1.611774e+03
2.327661e+03,1.605507e+03
2.328625e+03,1.602275e+03
2.329590e+03,1.598473e+03
2.330554e+03,1.594646e+03
2.331518e+03,1.587447e+03
2.332482e+03,1.575798e+03
2.333447e+03,1.569189e+03
2.334411e+03,1.574959e+03
2.335375e+03,1.579550e+03
2.336339e+03,1.581904e+03
2.337303e+03,1.578210e+03
2.338268e+03,1.560956e+03
2.339232e+03,1.554380e+03
2.340196e+03,1.557789e+03
2.341160e+03,1.563914e+03
2.342125e+03,1.571432e+03
2.343089e+03,1.573404e+03
2.344053e+03,1.568744e+03
2.345017e+03,1.560055e+03
2.345982e+03,1.549657e+03
2.346946e+03,1.547619e+03
2.347910e+03,1.551899e+03
2.348874e+03,1.553404e+03
2.349839e+03,1.551675e+03
2.350803e+03,1.552886e+03
2.351767e+03,1.555132e+03
2.352731e+03,1.552931e+03
2.353696e+03,1.549008e+03
2.354660e+03,1.547203e+03
2.355624e+03,1.543535e+03
2.356588e+03,1.528503e+03
2.357552e+03,1.515971e+03
2.358517e+03,1.520099e+03
2.359481e+03,1.530179e+03
2.360445e+03,1.534597e+03
2.361409e+03,1.536669e+03
2.362374e+03,1.538676e+03
2.363338e+03,1.537745e+03
2.364302e+03,1.529856e+03
2.365266e+03,1.527375e+03
2.366230e+03,1.533994e+03
2.367195e+03,1.536639e+03
2.368159e+03,1.519520e+03
2.369123e+03,1.511285e+03
2.370087e+03,1.517620e+03
2.371052e+03,1.520331e+03
2.372016e+03,1.507477e+03
2.372980e+03,1.503273e+03
2.373944e+03,1.507668e+03
2.374909e+03,1.510734e+03
2.375873e+03,1.509706e+03
2.376837e+03,1.507642e+03
2.377801e+03,1.504871e+03
2.378766e+03,1.500259e+03
2.379730e+03,1.494243e+03
2.380694e+03,1.498518e+03
2.381658e+03,1.508619e+03
2.382623e+03,1.508372e+03
2.383587e+03,1.500772e+03
2.384551e+03,1.498823e+03
2.385515e+03,1.498060e+03
2.386479e+03,1.492031e+03
2.387444e+03,1.484255e+03
2.388408e+03,1.478722e+03
2.389372e+03,1.476525e+03
2.390336e+03,1.478695e+03
2.391301e+03,1.482157e+03
2.392265e+03,1.486155e+03
2.393229e+03,1.485858e+03
2.394193e+03,1.477308e+03
2.395157e+03,1.469183e+03
2.396122e+03,1.466882e+03
2.397086e+03,1.467776e+03
2.398050e+03,1.472133e+03
2.399014e+03,1.474340e+03
2.399979e+03,1.471582e+03
2.400943e+03,1.467614e+03
2.401907e+03,1.462633e+03
2.402871e+03,1.459542e+03
2.403836e+03,1.459571e+03
2.404800e+03,1.461113e+03
2.405764e+03,1.463234e+03
2.406728e+03,1.461418e+03
2.407693e+03,1.455393e+03
2.408657e+03,1.452625e+03
2.409621e+03,1.453137e+03
2.410585e+03,1.451738e+03
2.411550e+03,1.448920e+03
2.412514e+03,1.446570e+03
2.413478e+03,1.443561e+03
2.414442e+03,1.434216e+03
2.415406e+03,1.426488e+03
2.416371e+03,1.429345e+03
2.417335e+03,1.436439e+03
2.418299e+03,1.439873e+03
2.419263e+03,1.440894e+03
2.420228e+03,1.439880e+03
2.421192e+03,1.437239e+03
2.422156e+03,1.432516e+03
2.423120e+03,1.429096e+03
2.424084e+03,1.426471e+03
2.425049e+03,1.424669e+03
2.426013e+03,1.427821e+03
2.426977e+03,1.423596e+03
2.427941e+03,1.412336e+03
2.428906e+03,1.405621e+03
2.429870e+03,1.405720e+03
2.430834e+03,1.410375e+03
2.431798e+03,1.417489e+03
2.432763e+03,1.411589e+03
2.433727e+03,1.393936e+03
2.434691e+03,1.396268e+03
2.435655e+03,1.408036e+03
2.436620e+03,1.406338e+03
2.437584e+03,1.397458e+03
2.438548e+03,1.401123e+03
2.439512e+03,1.407126e+03
2.440477e+03,1.403665e+03
2.441441e+03,1.396992e+03
2.442405e+03,1.398357e+03
2.443369e+03,1.399853e+03
2.444333e+03,1.397907e+03
2.445298e+03,1.397052e+03
2.446262e+03,1.404452e+03
2.447226e+03,1.404774e+03
2.448190e+03,1.396011e+03
2.449155e+03,1.388963e+03
2.450119e+03,1.391971e+03
2.451083e+03,1.395321e+03
2.452047e+03,1.398053e+03
2.453011e+03,1.396224e+03
2.453976e+03,1.389329e+03
2.454940e+03,1.382290e+03
2.455904e+03,1.376388e+03
2.456868e+03,1.371979e+03
2.457833e+03,1.368218e+03
2.458797e+03,1.367868e+03
2.459761e+03,1.366896e+03
2.460725e+03,1.354791e+03
2.461690e+03,1.343942e+03
2.462654e+03,1.360542e+03
2.463618e+03,1.376009e+03
2.464582e+03,1.372687e+03
2.465547e+03,1.366407e+03
2.466511e+03,1.370456e+03
2.467475e+03,1.370128e+03
2.468439e+03,1.361681e+03
2.469404e+03,1.355930e+03
2.470368e+03,1.366927e+03
2.471332e+03,1.365990e+03
2.472296e+03,1.353027e+03
2.473260e+03,1.344517e+03
2.474225e+03,1.345217e+03
2.475189e+03,1.344144e+03
2.476153e+03,1.342873e+03
2.477117e+03,1.343447e+03
2.478082e+03,1.344422e+03
2.479046e+03,1.340012e+03
2.480010e+03,1.336521e+03
2.480974e+03,1.345489e+03
2.481938e+03,1.357040e+03
2.482903e+03,1.361153e+03
2.483867e+03,1.356112e+03
2.484831e+03,1.339015e+03
2.485795e+03,1.326597e+03
2.486760e+03,1.341868e+03
2.487724e+03,1.347306e+03
2.488688e+03,1.337055e+03
2.489652e+03,1.331893e+03
2.490617e+03,1.347475e+03
2.491581e+03,1.346286e+03
2.492545e+03,1.332175e+03
2.493509e+03,1.325654e+03
2.494474e+03,1.328320e+03
2.495438e+03,1.327795e+03
2.496402e+03,1.325303e+03
2.497366e+03,1.322088e+03
2.498331e+03,1.321072e+03
2.499295e+03,1.335761e+03
2.500259e+03,1.344844e+03
2.501223e+03,1.329785e+03
2.502188e+03,1.310871e+03
2.503152e+03,1.308982e+03
2.504116e+03,1.309100e+03
2.505080e+03,1.306413e+03
2.506044e+03,1.304236e+03
2.507009e+03,1.303273e+03
2.507973e+03,1.304664e+03
2.508937e+03,1.308776e+03
2.509901e+03,1.312314e+03
2.510865e+03,1.314125e+03
2.511830e+03,1.313454e+03
2.512794e+03,1.310383e+03
2.513758e+03,1.307965e+03
2.514722e+03,1.307187e+03
2.515687e+03,1.309665e+03
2.516651e+03,1.310734e+03
2.517615e+03,1.305049e+03
2.518579e+03,1.297666e+03
2.519544e+03,1.293582e+03
2.520508e+03,1.293599e+03
2.521472e+03,1.299072e+03
2.522436e+03,1.300191e+03
2.523401e+03,1.283366e+03
2.524365e+03,1.275903e+03
2.525329e+03,1.278273e+03
2.526293e+03,1.286770e+03
2.527258e+03,1.302538e+03
2.528222e+03,1.300263e+03
2.529186e+03,1.286537e+03
2.530150e+03,1.284342e+03
2.531115e+03,1.289267e+03
2.532079e+03,1.275389e+03
2.533043e+03,1.261712e+03
2.534007e+03,1.268249e+03
2.534971e+03,1.280555e+03
2.535936e+03,1.285191e+03
2.536900e+03,1.285100e+03
2.537864e+03,1.280352e+03
2.538828e+03,1.278100e+03
2.539792e+03,1.281612e+03
2.540757e+03,1.278494e+03
2.541721e+03,1.267836e+03
2.542685e+03,1.268201e+03
2.543649e+03,1.280261e+03
2.544614e+03,1.286545e+03
2.545578e+03,1.285572e+03
2.546542e+03,1.279051e+03
2.547506e+03,1.270963e+03
2.548471e+03,1.269557e+03
2.549435e+03,1.271212e+03
2.550399e+03,1.274211e+03
2.551363e+03,1.275376e+03
2.552328e+03,1.271868e+03
2.553292e+03,1.269186e+03
2.554256e+03,1.269795e+03
2.555220e+03,1.267963e+03
2.556185e+03,1.262520e+03
2.557149e+03,1.255425e+03
2.558113e+03,1.247747e+03
2.559077e+03,1.250100e+03
2.560042e+03,1.258574e+03
2.561006e+03,1.263128e+03
2.561970e+03,1.264436e+03
2.562934e+03,1.259157e+03
2.563898e+03,1.252844e+03
2.564863e+03,1.252162e+03
2.565827e+03,1.251050e+03
2.566791e+03,1.243800e+03
2.567755e+03,1.244844e+03
2.568719e+03,1.256420e+03
2.569684e+03,1.259049e+03
2.570648e+03,1.240292e+03
2.571612e+03,1.229838e+03
2.572576e+03,1.229262e+03
2.573541e+03,1.238764e+03
2.574505e+03,1.252430e+03
2.575469e+03,1.247440e+03
2.576433e+03,1.233744e+03
2.577398e+03,1.226854e+03
2.578362e+03,1.225091e+03
2.579326e+03,1.231661e+03
2.580290e+03,1.232199e+03
2.581255e+03,1.219390e+03
2.582219e+03,1.208804e+03
2.583183e+03,1.215327e+03
2.584147e+03,1.220536e+03
2.585112e+03,1.224793e+03
2.586076e+03,1.222085e+03
2.587040e+03,1.211733e+03
2.588004e+03,1.222301e+03
2.588969e+03,1.238115e+03
2.589933e+03,1.225704e+03
2.590897e+03,1.200806e+03
2.591861e+03,1.194061e+03
2.592825e+03,1.194559e+03
2.593790e+03,1.194522e+03
2.594754e+03,1.197149e+03
2.595718e+03,1.208184e+03
2.596682e+03,1.208789e+03
2.597646e+03,1.193775e+03
2.598611e+03,1.187803e+03
2.599575e+03,1.193512e+03
2.600539e+03,1.194407e+03
2.601503e+03,1.192652e+03
2.602468e+03,1.207007e+03
2.603432e+03,1.225651e+03
2.604396e+03,1.225263e+03
2.605360e+03,1.217357e+03
2.606325e+03,1.208416e+03
2.607289e+03,1.197311e+03
2.608253e+03,1.182752e+03
2.609217e+03,1.175064e+03
2.610182e+03,1.180042e+03
2.611146e+03,1.183687e+03
2.612110e+03,1.185338e+03
2.613074e+03,1.184441e+03
2.614039e+03,1.182136e+03
2.615003e+03,1.180654e+03
2.615967e+03,1.179891e+03
2.616931e+03,1.182983e+03
2.617896e+03,1.187412e+03
2.618860e+03,1.190091e+03
2.619824e+03,1.191179e+03
2.620788e+03,1.190379e+03
2.621752e+03,1.189328e+03
2.622717e+03,1.191351e+03
2.623681e+03,1.186135e+03
2.624645e+03,1.174244e+03
2.625609e+03,1.166859e+03
2.626573e+03,1.164858e+03
2.627538e+03,1.174562e+03
2.628502e+03,1.184908e+03
2.629466e+03,1.175273e+03
2.630430e+03,1.162742e+03
2.631395e+03,1.175078e+03
2.632359e+03,1.183108e+03
2.633323e+03,1.175388e+03
2.634287e+03,1.166944e+03
2.635252e+03,1.161932e+03
2.636216e+03,1.164935e+03
2.637180e+03,1.175073e+03
2.638144e+03,1.174427e+03
2.639109e+03,1.166464e+03
2.640073e+03,1.162570e+03
2.641037e+03,1.161814e+03
2.642001e+03,1.159278e+03
2.642966e+03,1.157507e+03
2.643930e+03,1.158090e+03
2.644894e+03,1.157933e+03
2.645858e+03,1.155369e+03
2.646823e+03,1.149950e+03
2.647787e+03,1.141524e+03
2.648751e+03,1.135520e+03
2.649715e+03,1.132696e+03
2.650679e+03,1.141331e+03
2.651644e+03,1.152857e+03
2.652608e+03,1.153680e+03
2.653572e+03,1.149631e+03
2.654536e+03,1.148078e+03
2.655500e+03,1.147989e+03
2.656465e+03,1.149003e+03
2.657429e+03,1.152051e+03
2.658393e+03,1.157158e+03
2.659357e+03,1.151056e+03
2.660322e+03,1.136305e+03
2.661286e+03,1.135186e+03
2.662250e+03,1.142247e+03
2.663214e+03,1.139397e+03
2.664179e+03,1.134637e+03
2.665143e+03,1.142722e+03
2.666107e+03,1.145982e+03
2.667071e+03,1.134094e+03
2.668036e+03,1.127121e+03
2.669000e+03,1.139631e+03
2.669964e+03,1.137933e+03
2.670928e+03,1.124237e+03
2.671893e+03,1.123546e+03
2.672857e+03,1.133959e+03
2.673821e+03,1.132366e+03
2.674785e+03,1.125837e+03
2.675750e+03,1.123308e+03
2.676714e+03,1.123086e+03
2.677678e+03,1.124027e+03
2.678642e+03,1.123512e+03
2.679606e+03,1.121335e+03
2.680571e+03,1.113768e+03
2.681535e+03,1.100826e+03
2.682499e+03,1.101603e+03
2.683463e+03,1.113209e+03
2.684427e+03,1.122615e+03
2.685392e+03,1.127832e+03
2.686356e+03,1.118399e+03
2.687320e+03,1.110238e+03
2.688284e+03,1.118673e+03
2.689249e+03,1.121964e+03
2.690213e+03,1.115153e+03
2.691177e+03,1.111352e+03
2.692141e+03,1.116459e+03
2.693106e+03,1.115055e+03
2.694070e+03,1.109465e+03
2.695034e+03,1.103773e+03
2.695998e+03,1.099203e+03
2.696963e+03,1.098265e+03
2.697927e+03,1.098877e+03
2.698891e+03,1.098713e+03
2.699855e+03,1.098902e+03
2.700820e+03,1.100945e+03
2.701784e+03,1.103698e+03
2.702748e+03,1.106056e+03
2.703712e+03,1.107151e+03
2.704677e+03,1.106189e+03
2.705641e+03,1.099922e+03
2.706605e+03,1.094136e+03
2.707569e+03,1.094172e+03
2.708533e+03,1.093350e+03
2.709498e+03,1.087510e+03
2.710462e+03,1.085151e+03
2.711426e+03,1.093581e+03
2.712390e+03,1.097260e+03
2.713354e+03,1.096505e+03
2.714319e+03,1.091634e+03
2.715283e+03,1.087286e+03
2.716247e+03,1.102375e+03
2.717211e+03,1.111142e+03
2.718176e+03,1.094194e+03
2.719140e+03,1.080464e+03
2.720104e+03,1.093870e+03
2.721068e+03,1.094121e+03
2.722033e+03,1.078156e+03
2.722997e+03,1.076515e+03
2.723961e+03,1.086400e+03
2.724925e+03,1.096267e+03
2.725890e+03,1.099238e+03
2.726854e+03,1.076540e+03
2.727818e+03,1.061343e+03
2.728782e+03,1.071277e+03
2.729747e+03,1.081480e+03
2.730711e+03,1.080288e+03
2.731675e+03,1.075431e+03
2.732639e+03,1.068670e+03
2.733604e+03,1.063871e+03
2.734568e+03,1.061951e+03
2.735532e+03,1.067728e+03
2.736496e+03,1.076645e+03
2.737460e+03,1.087469e+03
2.738425e+03,1.090759e+03
2.739389e+03,1.077730e+03
2.740353e+03,1.071422e+03
2.741317e+03,1.074386e+03
2.742281e+03,1.057617e+03
2.743246e+03,1.032470e+03
2.744210e+03,1.045089e+03
2.745174e+03,1.067656e+03
2.746138e+03,1.065903e+03
2.747103e+03,1.061557e+03
2.748067e+03,1.064851e+03
2.749031e+03,1.066373e+03
2.749995e+03,1.057666e+03
2.750960e+03,1.062334e+03
2.751924e+03,1.074324e+03
2.752888e+03,1.073098e+03
2.753852e+03,1.063490e+03
2.754817e+03,1.053390e+03
2.755781e+03,1.049606e+03
2.756745e+03,1.057069e+03
2.757709e+03,1.063320e+03
2.758674e+03,1.063279e+03
2.759638e+03,1.065514e+03
2.760602e+03,1.070234e+03
2.761566e+03,1.064061e+03
2.762531e+03,1.051801e+03
2.763495e+03,1.035833e+03
2.764459e+03,1.025443e+03
2.765423e+03,1.036316e+03
2.766387e+03,1.048348e+03
2.767352e+03,1.057537e+03
2.768316e+03,1.060980e+03
2.769280e+03,1.058395e+03
2.770244e+03,1.052491e+03
2.771208e+03,1.047916e+03
2.772173e+03,1.054008e+03
2.773137e+03,1.058404e+03
2.774101e+03,1.046613e+03
2.775065e+03,1.036725e+03
2.776030e+03,1.035825e+03
2.776994e+03,1.030337e+03
2.777958e+03,1.020189e+03
2.778922e+03,1.018353e+03
2.779887e+03,1.023166e+03
2.780851e+03,1.029391e+03
2.781815e+03,1.032778e+03
2.782779e+03,1.032434e+03
2.783744e+03,1.028632e+03
2.784708e+03,1.017887e+03
2.785672e+03,1.014574e+03
2.786636e+03,1.019296e+03
2.787601e+03,1.026454e+03
2.788565e+03,1.033722e+03
2.789529e+03,1.032489e+03
2.790493e+03,1.029850e+03
2.791458e+03,1.031386e+03
2.792422e+03,1.032725e+03
2.793386e+03,1.033941e+03
2.794350e+03,1.024505e+03
2.795314e+03,1.001704e+03
2.796279e+03,1.008928e+03
2.797243e+03,1.029772e+03
2.798207e+03,1.040939e+03
2.799171e+03,1.044019e+03
2.800135e+03,1.033095e+03
2.801100e+03,1.028032e+03
2.802064e+03,1.034765e+03
2.803028e+03,1.035535e+03
2.803992e+03,1.029543e+03
2.804957e+03,1.022058e+03
2.805921e+03,1.015333e+03
2.806885e+03,1.011930e+03
2.807849e+03,1.008085e+03
2.808814e+03,1.001477e+03
2.809778e+03,9.987618e+02
2.810742e+03,1.004376e+03
2.811706e+03,1.011642e+03
2.812671e+03,1.018859e+03
2.813635e+03,1.026365e+03
2.814599e+03,1.031020e+03
2.815563e+03,1.027321e+03
2.816528e+03,1.016497e+03
2.817492e+03,9.926332e+02
2.818456e+03,9.859887e+02
2.819420e+03,9.959159e+02
2.820385e+03,9.994393e+02
2.821349e+03,9.976522e+02
2.822313e+03,1.004474e+03
2.823277e+03,1.007789e+03
2.824241e+03,9.970766e+02
2.825206e+03,9.876533e+02
2.826170e+03,9.900021e+02
2.827134e+03,9.946911e+02
2.828098e+03,9.989238e+02
2.829063e+03,9.965587e+02
2.830027e+03,9.911981e+02
2.830991e+03,9.915670e+02
2.831955e+03,9.954768e+02
2.832919e+03,1.002177e+03
2.833884e+03,1.003973e+03
2.834848e+03,9.999250e+02
2.835812e+03,9.950543e+02
2.836776e+03,9.902206e+02
2.837741e+03,9.782714e+02
2.838705e+03,9.686517e+02
2.839669e+03,9.705023e+02
2.840633e+03,9.794196e+02
2.841598e+03,9.942631e+02
2.842562e+03,9.974329e+02
2.843526e+03,9.849694e+02
2.844490e+03,9.875007e+02
2.845455e+03,9.955527e+02
2.846419e+03,9.924232e+02
2.847383e+03,9.880543e+02
2.848347e+03,9.952133e+02
2.849312e+03,9.999036e+02
2.850276e+03,9.995649e+02
2.851240e+03,9.995757e+02
2.852204e+03,1.000493e+03
2.853168e+03,1.009846e+03
2.854133e+03,1.018399e+03
2.855097e+03,1.016092e+03
2.856061e+03,1.004720e+03
2.857025e+03,9.847653e+02
2.857990e+03,9.780132e+02
2.858954e+03,9.918523e+02
2.859918e+03,9.960145e+02
2.860882e+03,9.955258e+02
2.861846e+03,9.997096e+02
2.862811e+03,1.002099e+03
2.863775e+03,9.954147e+02
2.864739e+03,9.873961e+02
2.865703e+03,9.798735e+02
2.866668e+03,9.883253e+02
2.867632e+03,1.003004e+03
2.868596e+03,9.935651e+02
2.869560e+03,9.774231e+02
2.870525e+03,9.748189e+02
2.871489e+03,9.781949e+02
2.872453e+03,9.847618e+02
2.873417e+03,9.947337e+02
2.874382e+03,1.005525e+03
2.875346e+03,1.005565e+03
2.876310e+03,9.994700e+02
2.877274e+03,9.876537e+02
2.878239e+03,9.821490e+02
2.879203e+03,9.857773e+02
2.880167e+03,9.945856e+02
2.881131e+03,1.009220e+03
2.882095e+03,1.004555e+03
2.883060e+03,9.923005e+02
2.884024e+03,9.918224e+02
2.884988e+03,9.924597e+02
2.885952e+03,9.837990e+02
2.886917e+03,9.747680e+02
2.887881e+03,9.686375e+02
2.888845e+03,9.718574e+02
2.889809e+03,9.790768e+02
2.890773e+03,9.743287e+02
2.891738e+03,9.704838e+02
2.892702e+03,9.915200e+02
2.893666e+03,1.002110e+03
2.894630e+03,9.968112e+02
2.895595e+03,1.002668e+03
2.896559e+03,1.016962e+03
2.897523e+03,1.022736e+03
2.898487e+03,1.017393e+03
2.899452e+03,9.833643e+02
2.900416e+03,9.714905e+02
2.901380e+03,9.897272e+02
2.902344e+03,1.006143e+03
2.903309e+03,1.013957e+03
2.904273e+03,1.011584e+03
2.905237e+03,1.002778e+03
2.906201e+03,9.915727e+02
2.907166e+03,9.798548e+02
2.908130e+03,9.679223e+02
2.909094e+03,9.698867e+02
2.910058e+03,9.846494e+02
2.911022e+03,9.722516e+02
2.911987e+03,9.520485e+02
2.912951e+03,9.428026e+02
2.913915e+03,9.478456e+02
2.914879e+03,9.788708e+02
2.915844e+03,9.793449e+02
2.916808e+03,9.513831e+02
2.917772e+03,9.469631e+02
2.918736e+03,9.577975e+02
2.919700e+03,9.719527e+02
2.920665e+03,9.805684e+02
2.921629e+03,9.740096e+02
2.922593e+03,9.655026e+02
2.923557e+03,9.591309e+02
2.924522e+03,9.704632e+02
2.925486e+03,9.853949e+02
2.926450e+03,9.635667e+02
2.927414e+03,9.467431e+02
2.928379e+03,9.572549e+02
2.929343e+03,9.562304e+02
2.930307e+03,9.432637e+02
2.931271e+03,9.420516e+02
2.932236e+03,9.479672e+02
2.933200e+03,9.518649e+02
2.934164e+03,9.533152e+02
2.935128e+03,9.510698e+02
2.936093e+03,9.501719e+02
2.937057e+03,9.512543e+02
2.938021e+03,9.453365e+02
2.938985e+03,9.401025e+02
2.939949e+03,9.510877e+02
2.940914e+03,9.574094e+02
2.941878e+03,9.527870e+02
2.942842e+03,9.478411e+02
2.943806e+03,9.436454e+02
2.944771e+03,9.414910e+02
2.945735e+03,9.397158e+02
2.946699e+03,9.341004e+02
2.947663e+03,9.317432e+02
2.948627e+03,9.331662e+02
2.949592e+03,9.395077e+02
2.950556e+03,9.506843e+02
2.951520e+03,9.568865e+02
2.952484e+03,9.590446e+02
2.953449e+03,9.590192e+02
2.954413e+03,9.607873e+02
2.955377e+03,9.666534e+02
2.956341e+03,9.863901e+02
2.957306e+03,1.012361e+03
2.958270e+03,1.002405e+03
2.959234e+03,9.750016e+02
2.960198e+03,9.487286e+02
2.961163e+03,9.300186e+02
2.962127e+03,9.187128e+02
2.963091e+03,9.277111e+02
2.964055e+03,9.440831e+02
2.965020e+03,9.221344e+02
2.965984e+03,9.050630e+02
2.966948e+03,9.242497e+02
2.967912e+03,9.405790e+02
2.968876e+03,9.381785e+02
2.969841e+03,9.226500e+02
2.970805e+03,9.058343e+02
2.971769e+03,9.136014e+02
2.972733e+03,9.206681e+02
2.973698e+03,9.067596e+02
2.974662e+03,9.041598e+02
2.975626e+03,9.218054e+02
2.976590e+03,9.205439e+02
2.977554e+03,9.123348e+02
2.978519e+03,9.128171e+02
2.979483e+03,9.147720e+02
2.980447e+03,9.148071e+02
2.981411e+03,9.095770e+02
2.982376e+03,9.004021e+02
2.983340e+03,8.982411e+02
2.984304e+03,8.979847e+02
2.985268e+03,8.941319e+02
2.986233e+03,8.938032e+02
2.987197e+03,9.035551e+02
2.988161e+03,9.029481e+02
2.989125e+03,8.977045e+02
2.990090e+03,9.125256e+02
2.991054e+03,9.198774e+02
2.992018e+03,8.957878e+02
2.992982e+03,8.802687e+02
2.993947e+03,8.917577e+02
2.994911e+03,8.933148e+02
2.995875e+03,8.953712e+02
2.996839e+03,9.158491e+02
2.997803e+03,9.294100e+02
2.998768e+03,9.205687e+02
2.999732e+03,9.099734e+02
3.000696e+03,9.035000e+02
3.001660e+03,9.097621e+02
3.002625e+03,9.101262e+02
3.003589e+03,8.855948e+02
3.004553e+03,8.722658e+02
3.005517e+03,8.887958e+02
3.006481e+03,8.947666e+02
3.007446e+03,8.899410e+02
3.008410e+03,8.928685e+02
3.009374e+03,9.003397e+02
3.010338e+03,9.117012e+02
3.011303e+03,9.115685e+02
3.012267e+03,8.934257e+02
3.013231e+03,8.828474e+02
3.014195e+03,8.793685e+02
3.015160e+03,8.831800e+02
3.016124e+03,8.833947e+02
3.017088e+03,8.761877e+02
3.018052e+03,8.844698e+02
3.019017e+03,9.063358e+02
3.019981e+03,9.059915e+02
3.020945e+03,8.925609e+02
3.021909e+03,8.695073e+02
3.022874e+03,8.723429e+02
3.023838e+03,9.003502e+02
3.024802e+03,8.956531e+02
3.025766e+03,8.707719e+02
3.026730e+03,8.622798e+02
3.027695e+03,8.616664e+02
3.028659e+03,8.650443e+02
3.029623e+03,8.678066e+02
3.030587e+03,8.699030e+02
3.031552e+03,8.807728e+02
3.032516e+03,8.842377e+02
3.033480e+03,8.440507e+02
3.034444e+03,8.427150e+02
3.035408e+03,8.873976e+02
3.036373e+03,8.955413e+02
3.037337e+03,8.759503e+02
3.038301e+03,8.672205e+02
3.039265e+03,8.624275e+02
3.040230e+03,8.551104e+02
3.041194e+03,8.636188e+02
3.042158e+03,8.811949e+02
3.043122e+03,8.828280e+02
3.044087e+03,8.779980e+02
3.045051e+03,8.816353e+02
3.046015e+03,8.699187e+02
3.046979e+03,8.345121e+02
3.047944e+03,8.237318e+02
3.048908e+03,8.376762e+02
3.049872e+03,8.779254e+02
3.050836e+03,8.983995e+02
3.051801e+03,8.626130e+02
3.052765e+03,8.447994e+02
3.053729e+03,8.492457e+02
3.054693e+03,8.468605e+02
3.055657e+03,8.520066e+02
3.056622e+03,8.735554e+02
3.057586e+03,8.843641e+02
3.058550e+03,8.773795e+02
3.059514e+03,8.917910e+02
3.060479e+03,9.106436e+02
3.061443e+03,9.029862e+02
3.062407e+03,8.838467e+02
3.063371e+03,8.604235e+02
3.064335e+03,8.496270e+02
3.065300e+03,8.517354e+02
3.066264e+03,8.723792e+02
3.067228e+03,8.850861e+02
3.068192e+03,8.699968e+02
3.069157e+03,8.501691e+02
3.070121e+03,8.329069e+02
3.071085e+03,8.322935e+02
3.072049e+03,8.399993e+02
3.073014e+03,8.515899e+02
3.073978e+03,8.556137e+02
3.074942e+03,8.496075e+02
3.075906e+03,8.551104e+02
3.076871e+03,8.649125e+02
3.077835e+03,8.660307e+02
3.078799e+03,8.651234e+02
3.079763e+03,8.651874e+02
3.080728e+03,8.747819e+02
3.081692e+03,8.846266e+02
3.082656e+03,8.545237e+02
3.083620e+03,8.324935e+02
3.084584e+03,8.441127e+02
3.085549e+03,8.691346e+02
3.086513e+03,8.995020e+02
3.087477e+03,8.728013e+02
3.088441e+03,8.393375e+02
3.089406e+03,8.589964e+02
3.090370e+03,8.744424e+02
3.091334e+03,8.756701e+02
3.092298e+03,8.786559e+02
3.093262e+03,8.814023e+02
3.094227e+03,8.710160e+02
3.095191e+03,8.672737e+02
3.096155e+03,8.779830e+02
3.097119e+03,8.763113e+02
3.098084e+03,8.689266e+02
3.099048e+03,8.713068e+02
3.100012e+03,8.732930e+02
3.100976e+03,8.676288e+02
3.101941e+03,8.486366e+02
3.102905e+03,8.265466e+02
3.103869e+03,8.558919e+02
3.104833e+03,8.768104e+02
3.105798e+03,8.524561e+02
3.106762e+03,8.451373e+02
3.107726e+03,8.666450e+02
3.108690e+03,8.575988e+02
3.109655e+03,8.358896e+02
3.110619e+03,8.127722e+02
3.111583e+03,8.249370e+02
3.112547e+03,8.680500e+02
3.113511e+03,8.867458e+02
3.114476e+03,8.853965e+02
3.115440e+03,8.660526e+02
3.116404e+03,8.624763e+02
3.117368e+03,8.953825e+02
3.118333e+03,8.906642e+02
3.119297e+03,8.689332e+02
3.120261e+03,8.671547e+02
3.121225e+03,8.741571e+02
3.122189e+03,8.823888e+02
3.123154e+03,9.003350e+02
3.124118e+03,9.178773e+02
3.125082e+03,8.985792e+02
3.126046e+03,8.727259e+02
3.127011e+03,8.552069e+02
3.127975e+03,8.438995e+02
3.128939e+03,8.378118e+02
3.129903e+03,8.462158e+02
3.130868e+03,8.577155e+02
3.131832e+03,8.610909e+02
3.132796e+03,8.756917e+02
3.133760e+03,8.925880e+02
3.134725e+03,8.581582e+02
3.135689e+03,8.331115e+02
3.136653e+03,8.785934e+02
3.137617e+03,8.916251e+02
3.138582e+03,8.425801e+02
3.139546e+03,8.528140e+02
3.140510e+03,8.772645e+02
3.141474e+03,8.681790e+02
3.142438e+03,8.582721e+02
3.143403e+03,8.546806e+02
3.144367e+03,8.470802e+02
3.145331e+03,8.392566e+02
3.146295e+03,8.372446e+02
3.147260e+03,8.458795e+02
3.148224e+03,8.642156e+02
3.149188e+03,8.571632e+02
3.150152e+03,8.423923e+02
3.151116e+03,8.425325e+02
3.152081e+03,8.534300e+02
3.153045e+03,8.712228e+02
3.154009e+03,8.698541e+02
3.154973e+03,8.609997e+02
3.155938e+03,8.768052e+02
3.156902e+03,8.690602e+02
3.157866e+03,8.296022e+02
3.158830e+03,8.403963e+02
3.159795e+03,8.794094e+02
3.160759e+03,8.716544e+02
3.161723e+03,8.618879e+02
3.162687e+03,8.812673e+02
3.163652e+03,8.669258e+02
3.164616e+03,8.422028e+02
3.165580e+03,8.508484e+02
3.166544e+03,8.658156e+02
3.167509e+03,8.745593e+02
3.168473e+03,8.598850e+02
3.169437e+03,8.320235e+02
3.170401e+03,8.194845e+02
3.171365e+03,8.195104e+02
3.172330e+03,8.323246e+02
3.173294e+03,8.448914e+02
3.174258e+03,8.544880e+02
3.175222e+03,8.590026e+02
3.176187e+03,8.566497e+02
3.177151e+03,8.463196e+02
3.178115e+03,8.483272e+02
3.179079e+03,8.568149e+02
3.180043e+03,8.404719e+02
3.181008e+03,8.452664e+02
3.181972e+03,8.851015e+02
3.182936e+03,8.836361e+02
3.183900e+03,8.519426e+02
3.184865e+03,8.312626e+02
3.185829e+03,8.337534e+02
3.186793e+03,8.989119e+02
3.187757e+03,9.078257e+02
3.188722e+03,8.795449e+02
3.189686e+03,8.598309e+02
3.190650e+03,8.628478e+02
3.191614e+03,8.878052e+02
3.192579e+03,8.732897e+02
3.193543e+03,8.351407e+02
3.194507e+03,8.314905e+02
3.195471e+03,8.505868e+02
3.196436e+03,8.905879e+02
3.197400e+03,8.649986e+02
3.198364e+03,8.227336e+02
3.199328e+03,8.520686e+02
3.200292e+03,8.749597e+02
3.201257e+03,0.000000e+00
3.202221e+03,0.000000e+00
3.203185e+03,0.000000e+00
3.204149e+03,0.000000e+00
3.205114e+03,0.000000e+00
3.206078e+03,0.000000e+00
3.207042e+03,0.000000e+00
3.208006e+03,0.000000e+00
3.208970e+03,0.000000e+00
3.209935e+03,0.000000e+00
3.210899e+03,0.000000e+00
3.211863e+03,0.000000e+00
3.212827e+03,0.000000e+00
3.213792e+03,0.000000e+00
3.214756e+03,0.000000e+00
3.215720e+03,0.000000e+00
3.216684e+03,0.000000e+00
3.217649e+03,0.000000e+00
3.218613e+03,0.000000e+00
3.219577e+03,0.000000e+00
3.220541e+03,0.000000e+00
3.221506e+03,0.000000e+00
3.222470e+03,0.000000e+00
3.223434e+03,0.000000e+00
3.224398e+03,0.000000e+00
3.225363e+03,0.000000e+00
3.226327e+03,0.000000e+00
3.227291e+03,0.000000e+00
3.228255e+03,0.000000e+00
3.229219e+03,0.000000e+00
3.230184e+03,0.000000e+00
3.231148e+03,0.000000e+00
3.232112e+03,0.000000e+00
3.233076e+03,0.000000e+00
3.234041e+03,0.000000e+00
3.235005e+03,0.000000e+00
3.235969e+03,0.000000e+00
3.236933e+03,0.000000e+00
3.237897e+03,0.000000e+00
3.238862e+03,0.000000e+00
3.239826e+03,0.000000e+00
3.240790e+03,0.000000e+00
3.241754e+03,0.000000e+00
3.242719e+03,0.000000e+00
3.243683e+03,0.000000e+00
3.244647e+03,0.000000e+00
3.245611e+03,0.000000e+00
3.246576e+03,0.000000e+00
3.247540e+03,0.000000e+00
3.248504e+03,0.000000e+00
3.249468e+03,0.000000e+00
3.250433e+03,0.000000e+00
3.251397e+03,0.000000e+00
3.252361e+03,0.000000e+00
3.253325e+03,0.000000e+00
3.254290e+03,0.000000e+00
3.255254e+03,0.000000e+00
3.256218e+03,0.000000e+00
3.257182e+03,0.000000e+00
3.258146e+03,0.000000e+00
3.259111e+03,0.000000e+00
3.260075e+03,0.000000e+00
3.261039e+03,0.000000e+00
3.262003e+03,0.000000e+00
3.262968e+03,0.000000e+00
3.263932e+03,0.000000e+00
3.264896e+03,0.000000e+00
3.265860e+03,0.000000e+00
3.266824e+03,0.000000e+00
3.267789e+03,0.000000e+00
3.268753e+03,0.000000e+00
3.269717e+03,0.000000e+00
3.270681e+03,0.000000e+00
3.271646e+03,0.000000e+00
3.272610e+03,0.000000e+00
3.273574e+03,0.000000e+00
3.274538e+03,0.000000e+00
3.275503e+03,0.000000e+00
3.276467e+03,0.000000e+00
3.277431e+03,0.000000e+00
3.278395e+03,0.000000e+00
3.279360e+03,0.000000e+00
3.280324e+03,0.000000e+00
3.281288e+03,0.000000e+00
3.282252e+03,0.000000e+00
3.283217e+03,0.000000e+00
3.284181e+03,0.000000e+00
3.285145e+03,0.000000e+00
3.286109e+03,0.000000e+00
3.287073e+03,0.000000e+00
3.288038e+03,0.000000e+00
3.289002e+03,0.000000e+00
3.289966e+03,0.000000e+00
3.290930e+03,0.000000e+00
3.291895e+03,0.000000e+00
3.292859e+03,0.000000e+00
3.293823e+03,0.000000e+00
3.294787e+03,0.000000e+00
3.295751e+03,0.000000e+00
3.296716e+03,0.000000e+00
3.297680e+03,0.000000e+00
3.298644e+03,0.000000e+00
3.299608e+03,0.000000e+00
3.300573e+03,0.000000e+00
3.301537e+03,0.000000e+00
3.302501e+03,0.000000e+00
3.303465e+03,0.000000e+00
3.304430e+03,0.000000e+00
3.305394e+03,0.000000e+00
3.306358e+03,0.000000e+00
3.307322e+03,0.000000e+00
3.308287e+03,0.000000e+00
3.309251e+03,0.000000e+00
3.310215e+03,0.000000e+00
3.311179e+03,0.000000e+00
3.312144e+03,0.000000e+00
3.313108e+03,0.000000e+00
3.314072e+03,0.000000e+00
3.315036e+03,0.000000e+00
3.316000e+03,0.000000e+00
3.316965e+03,0.000000e+00
3.317929e+03,0.000000e+00
3.318893e+03,0.000000e+00
3.319857e+03,0.000000e+00
3.320822e+03,0.000000e+00
3.321786e+03,0.000000e+00
3.322750e+03,0.000000e+00
3.323714e+03,0.000000e+00
3.324678e+03,0.000000e+00
3.325643e+03,0.000000e+00
3.326607e+03,0.000000e+00
3.327571e+03,0.000000e+00
3.328535e+03,0.000000e+00
3.329500e+03,0.000000e+00
3.330464e+03,0.000000e+00
3.331428e+03,0.000000e+00
3.332392e+03,0.000000e+00
3.333357e+03,0.000000e+00
3.334321e+03,0.000000e+00
3.335285e+03,0.000000e+00
3.336249e+03,0.000000e+00
3.337214e+03,0.000000e+00
3.338178e+03,0.000000e+00
3.339142e+03,0.000000e+00
3.340106e+03,0.000000e+00
3.341071e+03,0.000000e+00
3.342035e+03,0.000000e+00
3.342999e+03,0.000000e+00
3.343963e+03,0.000000e+00
3.344927e+03,0.000000e+00
3.345892e+03,0.000000e+00
3.346856e+03,0.000000e+00
3.347820e+03,0.000000e+00
3.348784e+03,0.000000e+00
3.349749e+03,0.000000e+00
3.350713e+03,0.000000e+00
3.351677e+03,0.000000e+00
3.352641e+03,0.000000e+00
3.353605e+03,0.000000e+00
3.354570e+03,0.000000e+00
3.355534e+03,0.000000e+00
3.356498e+03,0.000000e+00
3.357462e+03,0.000000e+00
3.358427e+03,0.000000e+00
3.359391e+03,0.000000e+00
3.360355e+03,0.000000e+00
3.361319e+03,0.000000e+00
3.362284e+03,0.000000e+00
3.363248e+03,0.000000e+00
3.364212e+03,0.000000e+00
3.365176e+03,0.000000e+00
3.366141e+03,0.000000e+00
3.367105e+03,0.000000e+00
3.368069e+03,0.000000e+00
3.369033e+03,0.000000e+00
3.369998e+03,0.000000e+00
3.370962e+03,0.000000e+00
3.371926e+03,0.000000e+00
3.372890e+03,0.000000e+00
3.373854e+03,0.000000e+00
3.374819e+03,0.000000e+00
3.375783e+03,0.000000e+00
3.376747e+03,0.000000e+00
3.377711e+03,0.000000e+00
3.378676e+03,0.000000e+00
3.379640e+03,0.000000e+00
3.380604e+03,0.000000e+00
3.381568e+03,0.000000e+00
3.382532e+03,0.000000e+00
3.383497e+03,0.000000e+00
3.384461e+03,0.000000e+00
3.385425e+03,0.000000e+00
3.386389e+03,0.000000e+00
3.387354e+03,0.000000e+00
3.388318e+03,0.000000e+00
3.389282e+03,0.000000e+00
3.390246e+03,0.000000e+00
3.391211e+03,0.000000e+00
3.392175e+03,0.000000e+00
3.393139e+03,0.000000e+00
3.394103e+03,0.000000e+00
3.395068e+03,0.000000e+00
3.396032e+03,0.000000e+00
3.396996e+03,0.000000e+00
3.397960e+03,0.000000e+00
3.398925e+03,0.000000e+00
3.399889e+03,0.000000e+00
3.400853e+03,0.000000e+00
3.401817e+03,0.000000e+00
3.402781e+03,0.000000e+00
3.403746e+03,0.000000e+00
3.404710e+03,0.000000e+00
3.405674e+03,0.000000e+00
3.406638e+03,0.000000e+00
3.407603e+03,0.000000e+00
3.408567e+03,0.000000e+00
3.409531e+03,0.000000e+00
3.410495e+03,0.000000e+00
3.411459e+03,0.000000e+00
3.412424e+03,0.000000e+00
3.413388e+03,0.000000e+00
3.414352e+03,0.000000e+00
3.415316e+03,0.000000e+00
3.416281e+03,0.000000e+00
3.417245e+03,0.000000e+00
3.418209e+03,0.000000e+00
3.419173e+03,0.000000e+00
3.420138e+03,0.000000e+00
3.421102e+03,0.000000e+00
3.422066e+03,0.000000e+00
3.423030e+03,0.000000e+00
3.423995e+03,0.000000e+00
3.424959e+03,0.000000e+00
3.425923e+03,0.000000e+00
3.426887e+03,0.000000e+00
3.427852e+03,0.000000e+00
3.428816e+03,0.000000e+00
3.429780e+03,0.000000e+00
3.430744e+03,0.000000e+00
3.431708e+03,0.000000e+00
3.432673e+03,0.000000e+00
3.433637e+03,0.000000e+00
3.434601e+03,0.000000e+00
3.435565e+03,0.000000e+00
3.436530e+03,0.000000e+00
3.437494e+03,0.000000e+00
3.438458e+03,0.000000e+00
3.439422e+03,0.000000e+00
3.440386e+03,0.000000e+00
3.441351e+03,0.000000e+00
3.442315e+03,0.000000e+00
3.443279e+03,0.000000e+00
3.444243e+03,0.000000e+00
3.445208e+03,0.000000e+00
3.446172e+03,0.000000e+00
3.447136e+03,0.000000e+00
3.448100e+03,0.000000e+00
3.449065e+03,0.000000e+00
3.450029e+03,0.000000e+00
3.450993e+03,0.000000e+00
3.451957e+03,0.000000e+00
3.452922e+03,0.000000e+00
3.453886e+03,0.000000e+00
3.454850e+03,0.000000e+00
3.455814e+03,0.000000e+00
3.456779e+03,0.000000e+00
3.457743e+03,0.000000e+00
3.458707e+03,0.000000e+00
3.459671e+03,0.000000e+00
3.460635e+03,0.000000e+00
3.461600e+03,0.000000e+00
3.462564e+03,0.000000e+00
3.463528e+03,0.000000e+00
3.464492e+03,0.000000e+00
3.465457e+03,0.000000e+00
3.466421e+03,0.000000e+00
3.467385e+03,0.000000e+00
3.468349e+03,0.000000e+00
3.469313e+03,0.000000e+00
3.470278e+03,0.000000e+00
3.471242e+03,0.000000e+00
3.472206e+03,0.000000e+00
3.473170e+03,0.000000e+00
3.474135e+03,0.000000e+00
3.475099e+03,0.000000e+00
3.476063e+03,0.000000e+00
3.477027e+03,0.000000e+00
3.477992e+03,0.000000e+00
3.478956e+03,0.000000e+00
3.479920e+03,0.000000e+00
3.480884e+03,0.000000e+00
3.481849e+03,0.000000e+00
3.482813e+03,0.000000e+00
3.483777e+03,0.000000e+00
3.484741e+03,0.000000e+00
3.485706e+03,0.000000e+00
3.486670e+03,0.000000e+00
3.487634e+03,0.000000e+00
3.488598e+03,0.000000e+00
3.489563e+03,0.000000e+00
3.490527e+03,0.000000e+00
3.491491e+03,0.000000e+00
3.492455e+03,0.000000e+00
3.493419e+03,0.000000e+00
3.494384e+03,0.000000e+00
3.495348e+03,0.000000e+00
3.496312e+03,0.000000e+00
3.497276e+03,0.000000e+00
3.498240e+03,0.000000e+00
3.499205e+03,0.000000e+00
3.500169e+03,0.000000e+00
