9.931763e+01,0.000000e+00
1.002819e+02,0.000000e+00
1.012461e+02,0.000000e+00
1.022103e+02,0.000000e+00
1.031746e+02,0.000000e+00
1.041388e+02,0.000000e+00
1.051030e+02,0.000000e+00
1.060673e+02,0.000000e+00
1.070315e+02,0.000000e+00
1.079957e+02,0.000000e+00
1.089600e+02,0.000000e+00
1.099242e+02,0.000000e+00
1.108884e+02,0.000000e+00
1.118527e+02,0.000000e+00
1.128169e+02,0.000000e+00
1.137811e+02,0.000000e+00
1.147454e+02,0.000000e+00
1.157096e+02,0.000000e+00
1.166738e+02,0.000000e+00
1.176381e+02,0.000000e+00
1.186023e+02,0.000000e+00
1.195665e+02,0.000000e+00
1.205308e+02,0.000000e+00
1.214950e+02,0.000000e+00
1.224592e+02,0.000000e+00
1.234235e+02,0.000000e+00
1.243877e+02,0.000000e+00
1.253519e+02,0.000000e+00
1.263162e+02,0.000000e+00
1.272804e+02,0.000000e+00
1.282446e+02,0.000000e+00
1.292089e+02,0.000000e+00
1.301731e+02,0.000000e+00
1.311373e+02,0.000000e+00
1.321016e+02,0.000000e+00
1.330658e+02,0.000000e+00
1.340300e+02,0.000000e+00
1.349943e+02,0.000000e+00
1.359585e+02,0.000000e+00
1.369227e+02,0.000000e+00
1.378870e+02,0.000000e+00
1.388512e+02,0.000000e+00
1.398154e+02,0.000000e+00
1.407797e+02,0.000000e+00
1.417439e+02,0.000000e+00
1.427081e+02,0.000000e+00
1.436724e+02,0.000000e+00
1.446366e+02,0.000000e+00
1.456008e+02,0.000000e+00
1.465651e+02,0.000000e+00
1.475293e+02,0.000000e+00
1.484935e+02,0.000000e+00
1.494578e+02,0.000000e+00
1.504220e+02,0.000000e+00
1.513862e+02,0.000000e+00
1.523505e+02,0.000000e+00
1.533147e+02,0.000000e+00
1.542789e+02,0.000000e+00
1.552432e+02,0.000000e+00
1.562074e+02,0.000000e+00
1.571716e+02,0.000000e+00
1.581359e+02,0.000000e+00
1.591001e+02,0.000000e+00
1.600643e+02,0.000000e+00
1.610286e+02,0.000000e+00
1.619928e+02,0.000000e+00
1.629570e+02,0.000000e+00
1.639213e+02,0.000000e+00
1.648855e+02,0.000000e+00
1.658497e+02,0.000000e+00
1.668140e+02,0.000000e+00
1.677782e+02,0.000000e+00
1.687424e+02,0.000000e+00
1.697067e+02,0.000000e+00
1.706709e+02,0.000000e+00
1.716351e+02,0.000000e+00
1.725994e+02,0.000000e+00
1.735636e+02,0.000000e+00
1.745278e+02,0.000000e+00
1.754921e+02,0.000000e+00
1.764563e+02,0.000000e+00
1.774205e+02,0.000000e+00
1.783848e+02,0.000000e+00
1.793490e+02,0.000000e+00
1.803132e+02,0.000000e+00
1.812775e+02,0.000000e+00
1.822417e+02,0.000000e+00
1.832059e+02,0.000000e+00
1.841702e+02,0.000000e+00
1.851344e+02,0.000000e+00
1.860986e+02,0.000000e+00
1.870629e+02,0.000000e+00
1.880271e+02,0.000000e+00
1.889913e+02,0.000000e+00
1.899556e+02,0.000000e+00
1.909198e+02,0.000000e+00
1.918840e+02,0.000000e+00
1.928483e+02,0.000000e+00
1.938125e+02,0.000000e+00
1.947767e+02,0.000000e+00
1.957410e+02,0.000000e+00
1.967052e+02,0.000000e+00
1.976694e+02,0.000000e+00
1.986337e+02,0.000000e+00
1.995979e+02,1.281017e+03
2.005621e+02,1.273545e+03
2.015264e+02,1.270229e+03
2.024906e+02,1.276399e+03
2.034548e+02,1.282428e+03
2.044191e+02,1.285969e+03
2.053833e+02,1.286825e+03
2.063475e+02,1.286118e+03
2.073118e+02,1.284837e+03
2.082760e+02,1.282688e+03
2.092402e+02,1.280924e+03
2.102045e+02,1.280655e+03
2.111687e+02,1.281119e+03
2.121329e+02,1.281579e+03
2.130972e+02,1.281429e+03
2.140614e+02,1.280714e+03
2.150256e+02,1.280211e+03
2.159899e+02,1.280591e+03
2.169541e+02,1.280474e+03
2.179183e+02,1.278723e+03
2.188826e+02,1.275818e+03
2.198468e+02,1.273938e+03
2.208110e+02,1.275724e+03
2.217753e+02,1.280852e+03
2.227395e+02,1.283517e+03
2.237037e+02,1.281929e+03
2.246680e+02,1.278614e+03
2.256322e+02,1.275447e+03
2.265964e+02,1.272519e+03
2.275607e+02,1.270967e+03
2.285249e+02,1.272742e+03
2.294892e+02,1.278551e+03
2.304534e+02,1.284342e+03
2.314176e+02,1.286237e+03
2.323819e+02,1.284844e+03
2.333461e+02,1.283332e+03
2.343103e+02,1.283279e+03
2.352746e+02,1.283962e+03
2.362388e+02,1.283685e+03
2.372030e+02,1.281629e+03
2.381673e+02,1.278008e+03
2.391315e+02,1.273993e+03
2.400957e+02,1.268368e+03
2.410600e+02,1.264881e+03
2.420242e+02,1.267078e+03
2.429884e+02,1.273817e+03
2.439527e+02,1.280059e+03
2.449169e+02,1.281877e+03
2.458811e+02,1.278304e+03
2.468454e+02,1.276385e+03
2.478096e+02,1.276510e+03
2.487738e+02,1.277901e+03
2.497381e+02,1.280867e+03
2.507023e+02,1.285326e+03
2.516665e+02,1.289629e+03
2.526308e+02,1.291001e+03
2.535950e+02,1.285475e+03
2.545592e+02,1.280474e+03
2.555235e+02,1.275844e+03
2.564877e+02,1.272274e+03
2.574519e+02,1.270910e+03
2.584161e+02,1.272919e+03
2.593804e+02,1.278070e+03
2.603446e+02,1.281883e+03
2.613088e+02,1.281855e+03
2.622731e+02,1.281818e+03
2.632373e+02,1.283073e+03
2.642015e+02,1.285217e+03
2.651658e+02,1.286986e+03
2.661300e+02,1.287412e+03
2.670942e+02,1.286666e+03
2.680585e+02,1.286026e+03
2.690227e+02,1.285712e+03
2.699869e+02,1.285469e+03
2.709512e+02,1.285020e+03
2.719154e+02,1.284626e+03
2.728796e+02,1.284451e+03
2.738439e+02,1.284658e+03
2.748081e+02,1.285587e+03
2.757723e+02,1.287202e+03
2.767366e+02,1.289014e+03
2.777008e+02,1.290313e+03
2.786650e+02,1.290152e+03
2.796293e+02,1.287407e+03
2.805935e+02,1.283690e+03
2.815577e+02,1.281474e+03
2.825220e+02,1.281239e+03
2.834862e+02,1.282102e+03
2.844504e+02,1.282964e+03
2.854147e+02,1.285308e+03
2.863789e+02,1.286239e+03
2.873431e+02,1.283884e+03
2.883074e+02,1.279847e+03
2.892716e+02,1.277250e+03
2.902358e+02,1.277867e+03
2.912001e+02,1.281554e+03
2.921643e+02,1.283352e+03
2.931285e+02,1.282170e+03
2.940928e+02,1.280895e+03
2.950570e+02,1.280353e+03
2.960212e+02,1.280473e+03
2.969855e+02,1.281030e+03
2.979497e+02,1.282576e+03
2.989139e+02,1.287085e+03
2.998782e+02,1.288288e+03
3.008424e+02,1.282803e+03
3.018066e+02,1.276715e+03
3.027709e+02,1.274482e+03
3.037351e+02,1.278105e+03
3.046993e+02,1.284397e+03
3.056636e+02,1.287819e+03
3.066278e+02,1.287787e+03
3.075920e+02,1.286778e+03
3.085563e+02,1.285433e+03
3.095205e+02,1.284161e+03
3.104847e+02,1.283306e+03
3.114490e+02,1.282454e+03
3.124132e+02,1.281651e+03
3.133774e+02,1.281633e+03
3.143417e+02,1.282846e+03
3.153059e+02,1.283682e+03
3.162701e+02,1.282037e+03
3.172344e+02,1.276778e+03
3.181986e+02,1.273398e+03
3.191628e+02,1.275515e+03
3.201271e+02,1.280712e+03
3.210913e+02,1.284155e+03
3.220555e+02,1.283351e+03
3.230198e+02,1.278948e+03
3.239840e+02,1.275860e+03
3.249482e+02,1.273035e+03
3.259125e+02,1.272217e+03
3.268767e+02,1.275466e+03
3.278409e+02,1.281644e+03
3.288052e+02,1.287655e+03
3.297694e+02,1.290631e+03
3.307336e+02,1.289970e+03
3.316979e+02,1.289346e+03
3.326621e+02,1.289364e+03
3.336263e+02,1.288711e+03
3.345906e+02,1.286750e+03
3.355548e+02,1.283689e+03
3.365190e+02,1.280430e+03
3.374833e+02,1.277063e+03
3.384475e+02,1.273251e+03
3.394117e+02,1.271540e+03
3.403760e+02,1.274327e+03
3.413402e+02,1.279162e+03
3.423044e+02,1.281751e+03
3.432687e+02,1.278722e+03
3.442329e+02,1.274710e+03
3.451971e+02,1.274084e+03
3.461614e+02,1.276631e+03
3.471256e+02,1.279205e+03
3.480898e+02,1.279554e+03
3.490541e+02,1.276985e+03
3.500183e+02,1.275934e+03
3.509825e+02,1.278641e+03
3.519468e+02,1.282219e+03
3.529110e+02,1.283923e+03
3.538752e+02,1.282809e+03
3.548395e+02,1.280013e+03
3.558037e+02,1.277806e+03
3.567680e+02,1.276129e+03
3.577322e+02,1.275364e+03
3.586964e+02,1.276653e+03
3.596607e+02,1.278957e+03
3.606249e+02,1.280691e+03
3.615891e+02,1.280285e+03
3.625534e+02,1.278302e+03
3.635176e+02,1.277420e+03
3.644818e+02,1.279083e+03
3.654461e+02,1.279898e+03
3.664103e+02,1.276966e+03
3.673745e+02,1.271679e+03
3.683388e+02,1.268802e+03
3.693030e+02,1.270568e+03
3.702672e+02,1.274612e+03
3.712315e+02,1.277495e+03
3.721957e+02,1.278261e+03
3.731599e+02,1.278364e+03
3.741242e+02,1.280558e+03
3.750884e+02,1.290159e+03
3.760526e+02,1.296386e+03
3.770169e+02,1.295980e+03
3.779811e+02,1.292204e+03
3.789453e+02,1.289206e+03
3.799096e+02,1.289117e+03
3.808738e+02,1.290484e+03
3.818380e+02,1.287815e+03
3.828023e+02,1.277009e+03
3.837665e+02,1.268827e+03
3.847307e+02,1.267364e+03
3.856950e+02,1.270631e+03
3.866592e+02,1.273843e+03
3.876234e+02,1.274123e+03
3.885877e+02,1.272200e+03
3.895519e+02,1.270210e+03
3.905161e+02,1.268084e+03
3.914804e+02,1.265860e+03
3.924446e+02,1.263589e+03
3.934088e+02,1.261249e+03
3.943731e+02,1.259957e+03
3.953373e+02,1.260827e+03
3.963015e+02,1.262632e+03
3.972658e+02,1.263761e+03
3.982300e+02,1.263817e+03
3.991942e+02,1.263283e+03
4.001585e+02,1.262435e+03
4.011227e+02,1.259634e+03
4.020869e+02,1.257448e+03
4.030512e+02,1.255450e+03
4.040154e+02,1.253858e+03
4.049796e+02,1.253533e+03
4.059439e+02,1.255962e+03
4.069081e+02,1.259865e+03
4.078723e+02,1.260009e+03
4.088366e+02,1.253845e+03
4.098008e+02,1.247432e+03
4.107650e+02,1.246289e+03
4.117293e+02,1.250040e+03
4.126935e+02,1.252626e+03
4.136577e+02,1.250418e+03
4.146220e+02,1.246198e+03
4.155862e+02,1.244213e+03
4.165504e+02,1.245517e+03
4.175147e+02,1.248594e+03
4.184789e+02,1.251001e+03
4.194431e+02,1.253146e+03
4.204074e+02,1.253861e+03
4.213716e+02,1.251725e+03
4.223358e+02,1.248630e+03
4.233001e+02,1.246871e+03
4.242643e+02,1.247894e+03
4.252285e+02,1.250140e+03
4.261928e+02,1.249052e+03
4.271570e+02,1.242361e+03
4.281212e+02,1.237776e+03
4.290855e+02,1.240553e+03
4.300497e+02,1.247635e+03
4.310139e+02,1.252510e+03
4.319782e+02,1.252194e+03
4.329424e+02,1.249492e+03
4.339066e+02,1.246943e+03
4.348709e+02,1.244589e+03
4.358351e+02,1.242672e+03
4.367993e+02,1.241515e+03
4.377636e+02,1.241417e+03
4.387278e+02,1.241655e+03
4.396920e+02,1.243436e+03
4.406563e+02,1.245088e+03
4.416205e+02,1.244919e+03
4.425847e+02,1.242489e+03
4.435490e+02,1.239433e+03
4.445132e+02,1.238158e+03
4.454774e+02,1.239162e+03
4.464417e+02,1.240531e+03
4.474059e+02,1.242118e+03
4.483701e+02,1.243296e+03
4.493344e+02,1.243517e+03
4.502986e+02,1.242362e+03
4.512628e+02,1.241035e+03
4.522271e+02,1.240793e+03
4.531913e+02,1.241269e+03
4.541555e+02,1.240511e+03
4.551198e+02,1.236736e+03
4.560840e+02,1.229994e+03
4.570482e+02,1.226769e+03
4.580125e+02,1.232201e+03
4.589767e+02,1.237209e+03
4.599409e+02,1.237112e+03
4.609052e+02,1.232490e+03
4.618694e+02,1.227783e+03
4.628336e+02,1.227305e+03
4.637979e+02,1.230645e+03
4.647621e+02,1.232966e+03
4.657263e+02,1.234290e+03
4.666906e+02,1.234901e+03
4.676548e+02,1.234563e+03
4.686190e+02,1.233088e+03
4.695833e+02,1.230721e+03
4.705475e+02,1.226374e+03
4.715117e+02,1.221276e+03
4.724760e+02,1.217183e+03
4.734402e+02,1.214726e+03
4.744044e+02,1.213873e+03
4.753687e+02,1.214715e+03
4.763329e+02,1.219827e+03
4.772971e+02,1.222639e+03
4.782614e+02,1.220693e+03
4.792256e+02,1.216651e+03
4.801898e+02,1.213734e+03
4.811541e+02,1.213497e+03
4.821183e+02,1.214526e+03
4.830826e+02,1.215119e+03
4.840468e+02,1.215182e+03
4.850110e+02,1.214412e+03
4.859753e+02,1.212252e+03
4.869395e+02,1.208495e+03
4.879037e+02,1.207297e+03
4.888680e+02,1.212225e+03
4.898322e+02,1.216928e+03
4.907964e+02,1.217633e+03
4.917607e+02,1.214607e+03
4.927249e+02,1.210657e+03
4.936891e+02,1.207935e+03
4.946534e+02,1.206398e+03
4.956176e+02,1.206341e+03
4.965818e+02,1.208896e+03
4.975461e+02,1.212060e+03
4.985103e+02,1.214405e+03
4.994745e+02,1.215983e+03
5.004388e+02,1.215334e+03
5.014030e+02,1.209692e+03
5.023672e+02,1.202191e+03
5.033315e+02,1.198564e+03
5.042957e+02,1.200831e+03
5.052599e+02,1.205725e+03
5.062242e+02,1.206163e+03
5.071884e+02,1.197085e+03
5.081526e+02,1.191790e+03
5.091169e+02,1.195119e+03
5.100811e+02,1.201915e+03
5.110453e+02,1.205814e+03
5.120095e+02,1.202838e+03
5.129738e+02,1.198069e+03
5.139380e+02,1.198508e+03
5.149022e+02,1.204105e+03
5.158665e+02,1.209445e+03
5.168307e+02,1.211269e+03
5.177949e+02,1.209045e+03
5.187592e+02,1.206194e+03
5.197234e+02,1.202882e+03
5.206876e+02,1.200686e+03
5.216519e+02,1.201114e+03
5.226161e+02,1.203474e+03
5.235803e+02,1.205469e+03
5.245446e+02,1.205236e+03
5.255088e+02,1.202974e+03
5.264730e+02,1.199979e+03
5.274373e+02,1.195869e+03
5.284015e+02,1.191673e+03
5.293657e+02,1.187958e+03
5.303300e+02,1.184689e+03
5.312942e+02,1.182101e+03
5.322584e+02,1.180376e+03
5.332227e+02,1.180111e+03
5.341869e+02,1.182437e+03
5.351511e+02,1.187191e+03
5.361154e+02,1.191702e+03
5.370796e+02,1.192154e+03
5.380438e+02,1.187451e+03
5.390081e+02,1.183797e+03
5.399723e+02,1.181816e+03
5.409365e+02,1.181601e+03
5.419008e+02,1.183161e+03
5.428650e+02,1.187266e+03
5.438292e+02,1.190824e+03
5.447935e+02,1.192518e+03
5.457577e+02,1.192527e+03
5.467219e+02,1.190992e+03
5.476862e+02,1.187838e+03
5.486504e+02,1.183605e+03
5.496146e+02,1.180053e+03
5.505789e+02,1.177977e+03
5.515431e+02,1.175227e+03
5.525073e+02,1.170696e+03
5.534716e+02,1.166170e+03
5.544358e+02,1.163651e+03
5.554000e+02,1.163608e+03
5.563643e+02,1.165321e+03
5.573285e+02,1.169400e+03
5.582927e+02,1.175231e+03
5.592570e+02,1.179302e+03
5.602212e+02,1.179203e+03
5.611854e+02,1.174887e+03
5.621497e+02,1.172332e+03
5.631139e+02,1.173578e+03
5.640781e+02,1.174160e+03
5.650424e+02,1.173286e+03
5.660066e+02,1.171091e+03
5.669708e+02,1.168032e+03
5.679351e+02,1.164083e+03
5.688993e+02,1.159736e+03
5.698635e+02,1.154916e+03
5.708278e+02,1.149514e+03
5.717920e+02,1.146615e+03
5.727562e+02,1.149330e+03
5.737205e+02,1.159991e+03
5.746847e+02,1.167355e+03
5.756489e+02,1.170765e+03
5.766132e+02,1.171557e+03
5.775774e+02,1.169887e+03
5.785416e+02,1.165998e+03
5.795059e+02,1.161687e+03
5.804701e+02,1.158313e+03
5.814343e+02,1.155630e+03
5.823986e+02,1.152531e+03
5.833628e+02,1.148539e+03
5.843270e+02,1.145260e+03
5.852913e+02,1.144918e+03
5.862555e+02,1.151597e+03
5.872197e+02,1.155016e+03
5.881840e+02,1.152148e+03
5.891482e+02,1.147668e+03
5.901124e+02,1.145534e+03
5.910767e+02,1.147066e+03
5.920409e+02,1.149746e+03
5.930051e+02,1.151148e+03
5.939694e+02,1.151361e+03
5.949336e+02,1.151432e+03
5.958978e+02,1.151811e+03
5.968621e+02,1.152108e+03
5.978263e+02,1.151501e+03
5.987905e+02,1.150019e+03
5.997548e+02,1.147870e+03
6.007190e+02,1.143385e+03
6.016832e+02,1.139060e+03
6.026475e+02,1.137891e+03
6.036117e+02,1.142089e+03
6.045759e+02,1.147389e+03
6.055402e+02,1.148956e+03
6.065044e+02,1.146856e+03
6.074686e+02,1.142564e+03
6.084329e+02,1.136036e+03
6.093971e+02,1.128489e+03
6.103613e+02,1.125398e+03
6.113256e+02,1.132895e+03
6.122899e+02,1.138508e+03
6.132541e+02,1.138950e+03
6.142183e+02,1.136158e+03
6.151826e+02,1.133661e+03
6.161468e+02,1.134405e+03
6.171110e+02,1.135822e+03
6.180753e+02,1.133470e+03
6.190395e+02,1.127740e+03
6.200037e+02,1.123412e+03
6.209680e+02,1.123668e+03
6.219322e+02,1.128375e+03
6.228964e+02,1.131516e+03
6.238607e+02,1.131447e+03
6.248249e+02,1.131285e+03
6.257891e+02,1.131784e+03
6.267534e+02,1.132457e+03
6.277176e+02,1.132572e+03
6.286818e+02,1.132046e+03
6.296461e+02,1.131312e+03
6.306103e+02,1.131402e+03
6.315745e+02,1.132115e+03
6.325388e+02,1.131103e+03
6.335030e+02,1.125365e+03
6.344672e+02,1.114394e+03
6.354315e+02,1.109072e+03
6.363957e+02,1.113076e+03
6.373599e+02,1.118173e+03
6.383242e+02,1.121186e+03
6.392884e+02,1.122296e+03
6.402526e+02,1.121835e+03
6.412169e+02,1.117480e+03
6.421811e+02,1.113012e+03
6.431453e+02,1.112586e+03
6.441096e+02,1.116045e+03
6.450738e+02,1.120145e+03
6.460380e+02,1.122295e+03
6.470023e+02,1.122711e+03
6.479665e+02,1.122302e+03
6.489307e+02,1.120774e+03
6.498950e+02,1.118189e+03
6.508592e+02,1.113604e+03
6.518234e+02,1.106467e+03
6.527877e+02,1.101574e+03
6.537519e+02,1.101099e+03
6.547161e+02,1.102270e+03
6.556804e+02,1.103798e+03
6.566446e+02,1.105285e+03
6.576088e+02,1.105752e+03
6.585731e+02,1.103120e+03
6.595373e+02,1.098181e+03
6.605015e+02,1.096275e+03
6.614658e+02,1.098852e+03
6.624300e+02,1.101885e+03
6.633942e+02,1.101147e+03
6.643585e+02,1.093997e+03
6.653227e+02,1.089693e+03
6.662869e+02,1.089211e+03
6.672512e+02,1.090404e+03
6.682154e+02,1.092709e+03
6.691796e+02,1.095776e+03
6.701439e+02,1.097835e+03
6.711081e+02,1.097172e+03
6.720723e+02,1.094730e+03
6.730366e+02,1.092229e+03
6.740008e+02,1.090032e+03
6.749650e+02,1.088566e+03
6.759293e+02,1.088680e+03
6.768935e+02,1.091662e+03
6.778577e+02,1.092865e+03
6.788220e+02,1.090583e+03
6.797862e+02,1.088414e+03
6.807504e+02,1.088835e+03
6.817147e+02,1.092359e+03
6.826789e+02,1.094393e+03
6.836431e+02,1.091129e+03
6.846074e+02,1.086100e+03
6.855716e+02,1.083946e+03
6.865358e+02,1.085608e+03
6.875001e+02,1.087982e+03
6.884643e+02,1.086922e+03
6.894285e+02,1.082516e+03
6.903928e+02,1.079787e+03
6.913570e+02,1.079815e+03
6.923212e+02,1.080495e+03
6.932855e+02,1.079560e+03
6.942497e+02,1.075747e+03
6.952139e+02,1.073863e+03
6.961782e+02,1.074503e+03
6.971424e+02,1.076465e+03
6.981066e+02,1.079422e+03
6.990709e+02,1.082871e+03
7.000351e+02,1.084487e+03
7.009993e+02,1.081943e+03
7.019636e+02,1.077181e+03
7.029278e+02,1.073740e+03
7.038920e+02,1.072161e+03
7.048563e+02,1.071512e+03
7.058205e+02,1.071247e+03
7.067847e+02,1.072325e+03
7.077490e+02,1.071947e+03
7.087132e+02,1.069496e+03
7.096774e+02,1.066947e+03
7.106417e+02,1.064825e+03
7.116059e+02,1.062819e+03
7.125701e+02,1.061553e+03
7.135344e+02,1.061618e+03
7.144986e+02,1.062636e+03
7.154628e+02,1.064572e+03
7.164271e+02,1.067146e+03
7.173913e+02,1.068945e+03
7.183555e+02,1.068366e+03
7.193198e+02,1.065715e+03
7.202840e+02,1.062329e+03
7.212482e+02,1.058141e+03
7.222125e+02,1.054905e+03
7.231767e+02,1.054793e+03
7.241409e+02,1.060059e+03
7.251052e+02,1.061240e+03
7.260694e+02,1.053635e+03
7.270336e+02,1.045577e+03
7.279979e+02,1.042243e+03
7.289621e+02,1.044170e+03
7.299263e+02,1.046013e+03
7.308906e+02,1.044725e+03
7.318548e+02,1.042439e+03
7.328190e+02,1.041727e+03
7.337833e+02,1.042804e+03
7.347475e+02,1.044184e+03
7.357117e+02,1.044660e+03
7.366760e+02,1.044480e+03
7.376402e+02,1.044408e+03
7.386044e+02,1.044707e+03
7.395687e+02,1.044609e+03
7.405329e+02,1.043127e+03
7.414971e+02,1.039697e+03
7.424614e+02,1.036959e+03
7.434256e+02,1.035859e+03
7.443898e+02,1.035610e+03
7.453541e+02,1.035591e+03
7.463183e+02,1.035209e+03
7.472825e+02,1.034266e+03
7.482468e+02,1.032111e+03
7.492110e+02,1.029853e+03
7.501752e+02,1.029691e+03
7.511395e+02,1.031691e+03
7.521037e+02,1.033325e+03
7.530679e+02,1.031173e+03
7.540322e+02,1.025825e+03
7.549964e+02,1.024297e+03
7.559606e+02,1.027923e+03
7.569249e+02,1.031646e+03
7.578891e+02,1.032294e+03
7.588533e+02,1.029821e+03
7.598176e+02,1.027580e+03
7.607818e+02,1.023508e+03
7.617460e+02,1.020042e+03
7.627103e+02,1.018826e+03
7.636745e+02,1.019757e+03
7.646387e+02,1.021128e+03
7.656030e+02,1.022914e+03
7.665672e+02,1.024313e+03
7.675314e+02,1.023470e+03
7.684957e+02,1.020553e+03
7.694599e+02,1.017913e+03
7.704241e+02,1.017812e+03
7.713884e+02,1.019714e+03
7.723526e+02,1.021290e+03
7.733168e+02,1.022783e+03
7.742811e+02,1.024078e+03
7.752453e+02,1.024658e+03
7.762095e+02,1.024173e+03
7.771738e+02,1.022515e+03
7.781380e+02,1.015879e+03
7.791022e+02,1.012137e+03
7.800665e+02,1.016446e+03
7.810307e+02,1.024316e+03
7.819949e+02,1.028292e+03
7.829592e+02,1.024236e+03
7.839234e+02,1.019072e+03
7.848876e+02,1.014628e+03
7.858519e+02,1.011310e+03
7.868161e+02,1.010172e+03
7.877803e+02,1.011981e+03
7.887446e+02,1.015102e+03
7.897088e+02,1.018523e+03
7.906730e+02,1.022239e+03
7.916373e+02,1.023281e+03
7.926015e+02,1.019809e+03
7.935657e+02,1.013336e+03
7.945300e+02,1.008129e+03
7.954942e+02,1.005051e+03
7.964584e+02,1.002166e+03
7.974227e+02,9.997527e+02
7.983869e+02,9.986570e+02
7.993511e+02,9.987689e+02
8.003154e+02,1.000332e+03
8.012796e+02,1.000756e+03
8.022438e+02,9.993165e+02
8.032081e+02,9.975547e+02
8.041723e+02,9.963820e+02
8.051365e+02,9.958126e+02
8.061008e+02,9.965113e+02
8.070650e+02,1.000598e+03
8.080292e+02,1.005453e+03
8.089935e+02,1.006973e+03
8.099577e+02,1.004819e+03
8.109219e+02,1.000829e+03
8.118862e+02,9.958038e+02
8.128504e+02,9.898509e+02
8.138146e+02,9.869092e+02
8.147789e+02,9.878054e+02
8.157431e+02,9.892376e+02
8.167073e+02,9.884724e+02
8.176716e+02,9.852004e+02
8.186358e+02,9.846239e+02
8.196000e+02,9.910179e+02
8.205643e+02,9.959678e+02
8.215285e+02,9.940441e+02
8.224927e+02,9.861915e+02
8.234570e+02,9.807346e+02
8.244212e+02,9.828478e+02
8.253854e+02,9.853301e+02
8.263497e+02,9.822240e+02
8.273139e+02,9.751143e+02
8.282781e+02,9.697870e+02
8.292424e+02,9.715867e+02
8.302066e+02,9.766420e+02
8.311708e+02,9.791109e+02
8.321351e+02,9.794146e+02
8.330993e+02,9.797327e+02
8.340635e+02,9.811212e+02
8.350278e+02,9.828779e+02
8.359920e+02,9.831804e+02
8.369562e+02,9.819343e+02
8.379205e+02,9.797936e+02
8.388847e+02,9.764592e+02
8.398489e+02,9.727118e+02
8.408132e+02,9.703583e+02
8.417774e+02,9.697266e+02
8.427416e+02,9.697220e+02
8.437059e+02,9.707602e+02
8.446701e+02,9.721086e+02
8.456343e+02,9.732029e+02
8.465986e+02,9.744161e+02
8.475628e+02,9.742240e+02
8.485270e+02,9.707822e+02
8.494913e+02,9.663572e+02
8.504555e+02,9.634601e+02
8.514197e+02,9.628187e+02
8.523840e+02,9.629477e+02
8.533482e+02,9.621093e+02
8.543124e+02,9.610013e+02
8.552767e+02,9.614987e+02
8.562409e+02,9.637152e+02
8.572051e+02,9.658387e+02
8.581694e+02,9.661789e+02
8.591336e+02,9.649944e+02
8.600978e+02,9.635855e+02
8.610621e+02,9.620387e+02
8.620263e+02,9.608655e+02
8.629905e+02,9.600914e+02
8.639548e+02,9.593425e+02
8.649190e+02,9.593973e+02
8.658832e+02,9.616475e+02
8.668475e+02,9.637672e+02
8.678117e+02,9.641022e+02
8.687759e+02,9.630570e+02
8.697402e+02,9.634453e+02
8.707044e+02,9.681581e+02
8.716686e+02,9.703809e+02
8.726329e+02,9.666824e+02
8.735971e+02,9.597570e+02
8.745613e+02,9.541597e+02
8.755256e+02,9.515217e+02
8.764898e+02,9.512869e+02
8.774540e+02,9.552419e+02
8.784183e+02,9.605586e+02
8.793825e+02,9.617258e+02
8.803467e+02,9.559012e+02
8.813110e+02,9.487477e+02
8.822752e+02,9.482623e+02
8.832394e+02,9.528257e+02
8.842037e+02,9.556988e+02
8.851679e+02,9.548954e+02
8.861321e+02,9.528937e+02
8.870964e+02,9.541993e+02
8.880606e+02,9.590858e+02
8.890248e+02,9.594178e+02
8.899891e+02,9.534273e+02
8.909533e+02,9.465466e+02
8.919175e+02,9.437455e+02
8.928818e+02,9.460007e+02
8.938460e+02,9.477608e+02
8.948102e+02,9.484477e+02
8.957745e+02,9.487789e+02
8.967387e+02,9.496991e+02
8.977029e+02,9.509316e+02
8.986672e+02,9.502894e+02
8.996314e+02,9.463507e+02
9.005956e+02,9.428110e+02
9.015599e+02,9.410322e+02
9.025241e+02,9.405875e+02
9.034883e+02,9.404890e+02
9.044526e+02,9.416445e+02
9.054168e+02,9.413673e+02
9.063810e+02,9.374316e+02
9.073453e+02,9.320413e+02
9.083095e+02,9.283185e+02
9.092737e+02,9.274808e+02
9.102380e+02,9.277353e+02
9.112022e+02,9.281208e+02
9.121664e+02,9.280762e+02
9.131307e+02,9.258010e+02
9.140949e+02,9.209166e+02
9.150591e+02,9.164285e+02
9.160234e+02,9.162490e+02
9.169876e+02,9.193950e+02
9.179518e+02,9.218460e+02
9.189161e+02,9.231813e+02
9.198803e+02,9.231993e+02
9.208445e+02,9.215731e+02
9.218088e+02,9.182548e+02
9.227730e+02,9.163990e+02
9.237372e+02,9.160794e+02
9.247015e+02,9.164929e+02
9.256657e+02,9.176606e+02
9.266299e+02,9.196283e+02
9.275942e+02,9.191718e+02
9.285584e+02,9.137222e+02
9.295226e+02,9.085143e+02
9.304869e+02,9.052147e+02
9.314511e+02,9.038073e+02
9.324153e+02,9.038319e+02
9.333796e+02,9.063271e+02
9.343438e+02,9.089625e+02
9.353080e+02,9.121381e+02
9.362723e+02,9.142694e+02
9.372365e+02,9.133870e+02
9.382007e+02,9.076068e+02
9.391650e+02,9.024846e+02
9.401292e+02,9.004872e+02
9.410934e+02,9.003987e+02
9.420577e+02,9.009368e+02
9.430219e+02,9.017543e+02
9.439861e+02,9.021282e+02
9.449504e+02,9.020582e+02
9.459146e+02,9.017236e+02
9.468788e+02,9.003889e+02
9.478431e+02,8.976264e+02
9.488073e+02,8.944982e+02
9.497715e+02,8.920247e+02
9.507358e+02,8.904982e+02
9.517000e+02,8.908860e+02
9.526642e+02,8.932562e+02
9.536285e+02,8.954182e+02
9.545927e+02,8.956065e+02
9.555569e+02,8.944874e+02
9.565212e+02,8.944291e+02
9.574854e+02,8.957690e+02
9.584496e+02,8.973023e+02
9.594139e+02,8.982550e+02
9.603781e+02,8.984304e+02
9.613423e+02,8.976837e+02
9.623066e+02,8.956399e+02
9.632708e+02,8.950792e+02
9.642350e+02,8.979423e+02
9.651993e+02,9.010580e+02
9.661635e+02,8.991132e+02
9.671277e+02,8.876648e+02
9.680920e+02,8.813281e+02
9.690562e+02,8.833209e+02
9.700204e+02,8.870173e+02
9.709847e+02,8.874620e+02
9.719489e+02,8.838162e+02
9.729131e+02,8.827793e+02
9.738774e+02,8.885789e+02
9.748416e+02,8.931722e+02
9.758058e+02,8.918563e+02
9.767701e+02,8.855111e+02
9.777343e+02,8.805060e+02
9.786985e+02,8.765773e+02
9.796628e+02,8.751738e+02
9.806270e+02,8.799384e+02
9.815912e+02,8.869177e+02
9.825555e+02,8.895834e+02
9.835197e+02,8.836590e+02
9.844839e+02,8.775293e+02
9.854482e+02,8.735342e+02
9.864124e+02,8.718593e+02
9.873766e+02,8.734279e+02
9.883409e+02,8.791342e+02
9.893051e+02,8.834015e+02
9.902693e+02,8.803934e+02
9.912336e+02,8.756699e+02
9.921978e+02,8.760516e+02
9.931620e+02,8.813199e+02
9.941263e+02,8.850851e+02
9.950905e+02,8.811829e+02
9.960547e+02,8.745510e+02
9.970190e+02,8.711008e+02
9.979832e+02,8.704578e+02
9.989474e+02,8.705792e+02
9.999117e+02,8.708484e+02
1.000876e+03,8.712675e+02
1.001840e+03,8.719257e+02
1.002804e+03,8.728261e+02
1.003769e+03,8.732374e+02
1.004733e+03,8.726177e+02
1.005697e+03,8.712836e+02
1.006661e+03,8.694899e+02
1.007626e+03,8.675182e+02
1.008590e+03,8.665233e+02
1.009554e+03,8.665604e+02
1.010518e+03,8.665289e+02
1.011482e+03,8.653551e+02
1.012447e+03,8.631644e+02
1.013411e+03,8.609619e+02
1.014375e+03,8.591622e+02
1.015339e+03,8.581640e+02
1.016304e+03,8.579901e+02
1.017268e+03,8.585178e+02
1.018232e+03,8.597548e+02
1.019196e+03,8.617239e+02
1.020161e+03,8.634050e+02
1.021125e+03,8.648211e+02
1.022089e+03,8.656953e+02
1.023053e+03,8.639786e+02
1.024018e+03,8.583856e+02
1.024982e+03,8.553057e+02
1.025946e+03,8.567225e+02
1.026910e+03,8.591151e+02
1.027875e+03,8.578578e+02
1.028839e+03,8.514005e+02
1.029803e+03,8.491737e+02
1.030767e+03,8.531467e+02
1.031731e+03,8.581453e+02
1.032696e+03,8.604615e+02
1.033660e+03,8.599130e+02
1.034624e+03,8.589724e+02
1.035588e+03,8.577910e+02
1.036552e+03,8.565561e+02
1.037517e+03,8.549662e+02
1.038481e+03,8.529776e+02
1.039445e+03,8.514113e+02
1.040409e+03,8.511583e+02
1.041374e+03,8.498189e+02
1.042338e+03,8.452836e+02
1.043302e+03,8.408839e+02
1.044266e+03,8.410722e+02
1.045231e+03,8.511718e+02
1.046195e+03,8.559208e+02
1.047159e+03,8.509160e+02
1.048123e+03,8.446826e+02
1.049088e+03,8.432204e+02
1.050052e+03,8.475930e+02
1.051016e+03,8.504074e+02
1.051980e+03,8.504020e+02
1.052945e+03,8.499372e+02
1.053909e+03,8.496160e+02
1.054873e+03,8.489018e+02
1.055837e+03,8.472558e+02
1.056802e+03,8.434033e+02
1.057766e+03,8.407551e+02
1.058730e+03,8.409008e+02
1.059694e+03,8.423638e+02
1.060658e+03,8.433341e+02
1.061623e+03,8.449757e+02
1.062587e+03,8.440620e+02
1.063551e+03,8.362785e+02
1.064515e+03,8.289714e+02
1.065479e+03,8.280325e+02
1.066444e+03,8.344885e+02
1.067408e+03,8.389135e+02
1.068372e+03,8.386144e+02
1.069336e+03,8.373070e+02
1.070301e+03,8.349936e+02
1.071265e+03,8.324163e+02
1.072229e+03,8.322739e+02
1.073193e+03,8.383184e+02
1.074158e+03,8.428560e+02
1.075122e+03,8.432120e+02
1.076086e+03,8.413145e+02
1.077050e+03,8.397098e+02
1.078015e+03,8.397545e+02
1.078979e+03,8.391687e+02
1.079943e+03,8.361689e+02
1.080907e+03,8.331296e+02
1.081872e+03,8.312286e+02
1.082836e+03,8.303749e+02
1.083800e+03,8.307432e+02
1.084764e+03,8.339543e+02
1.085729e+03,8.372231e+02
1.086693e+03,8.388701e+02
1.087657e+03,8.394235e+02
1.088621e+03,8.405782e+02
1.089585e+03,8.435282e+02
1.090550e+03,8.456660e+02
1.091514e+03,8.474401e+02
1.092478e+03,8.481856e+02
1.093442e+03,8.464157e+02
1.094406e+03,8.401968e+02
1.095371e+03,8.370357e+02
1.096335e+03,8.422502e+02
1.097299e+03,8.474412e+02
1.098263e+03,8.463254e+02
1.099228e+03,8.389255e+02
1.100192e+03,8.333759e+02
1.101156e+03,8.323622e+02
1.102120e+03,8.319509e+02
1.103085e+03,8.312272e+02
1.104049e+03,8.300709e+02
1.105013e+03,8.283503e+02
1.105977e+03,8.243083e+02
1.106942e+03,8.221148e+02
1.107906e+03,8.238401e+02
1.108870e+03,8.268727e+02
1.109834e+03,8.288442e+02
1.110799e+03,8.293558e+02
1.111763e+03,8.297920e+02
1.112727e+03,8.303994e+02
1.113691e+03,8.311243e+02
1.114656e+03,8.318756e+02
1.115620e+03,8.326162e+02
1.116584e+03,8.331554e+02
1.117548e+03,8.329019e+02
1.118512e+03,8.324415e+02
1.119477e+03,8.321014e+02
1.120441e+03,8.316516e+02
1.121405e+03,8.308806e+02
1.122369e+03,8.312755e+02
1.123334e+03,8.291104e+02
1.124298e+03,8.213432e+02
1.125262e+03,8.139462e+02
1.126226e+03,8.112517e+02
1.127191e+03,8.137717e+02
1.128155e+03,8.169559e+02
1.129119e+03,8.224490e+02
1.130083e+03,8.259488e+02
1.131047e+03,8.256405e+02
1.132012e+03,8.219503e+02
1.132976e+03,8.165892e+02
1.133940e+03,8.075464e+02
1.134904e+03,8.008191e+02
1.135869e+03,7.976849e+02
1.136833e+03,7.972333e+02
1.137797e+03,7.987892e+02
1.138761e+03,8.035443e+02
1.139726e+03,8.068840e+02
1.140690e+03,8.088746e+02
1.141654e+03,8.087802e+02
1.142618e+03,8.051367e+02
1.143583e+03,7.988322e+02
1.144547e+03,7.969743e+02
1.145511e+03,8.008644e+02
1.146475e+03,8.040927e+02
1.147439e+03,8.045849e+02
1.148404e+03,8.038288e+02
1.149368e+03,8.044470e+02
1.150332e+03,8.066071e+02
1.151296e+03,8.074345e+02
1.152261e+03,8.063005e+02
1.153225e+03,8.032147e+02
1.154189e+03,7.980325e+02
1.155153e+03,7.915384e+02
1.156118e+03,7.877457e+02
1.157082e+03,7.869457e+02
1.158046e+03,7.878310e+02
1.159010e+03,7.899171e+02
1.159974e+03,7.922170e+02
1.160939e+03,7.923856e+02
1.161903e+03,7.906008e+02
1.162867e+03,7.891682e+02
1.163831e+03,7.885256e+02
1.164796e+03,7.880259e+02
1.165760e+03,7.871397e+02
1.166724e+03,7.861639e+02
1.167688e+03,7.855213e+02
1.168653e+03,7.852480e+02
1.169617e+03,7.852968e+02
1.170581e+03,7.856863e+02
1.171545e+03,7.865651e+02
1.172510e+03,7.888951e+02
1.173474e+03,7.917871e+02
1.174438e+03,7.926010e+02
1.175402e+03,7.901759e+02
1.176366e+03,7.875471e+02
1.177331e+03,7.878126e+02
1.178295e+03,7.893669e+02
1.179259e+03,7.905566e+02
1.180223e+03,7.908747e+02
1.181188e+03,7.897430e+02
1.182152e+03,7.850834e+02
1.183116e+03,7.806287e+02
1.184080e+03,7.794928e+02
1.185045e+03,7.806234e+02
1.186009e+03,7.819807e+02
1.186973e+03,7.835712e+02
1.187937e+03,7.844973e+02
1.188901e+03,7.844176e+02
1.189866e+03,7.833050e+02
1.190830e+03,7.800341e+02
1.191794e+03,7.743300e+02
1.192758e+03,7.713596e+02
1.193723e+03,7.756995e+02
1.194687e+03,7.797593e+02
1.195651e+03,7.800541e+02
1.196615e+03,7.777360e+02
1.197580e+03,7.758870e+02
1.198544e+03,7.738240e+02
1.199508e+03,7.723808e+02
1.200472e+03,7.733575e+02
1.201437e+03,7.739362e+02
1.202401e+03,7.712143e+02
1.203365e+03,7.645209e+02
1.204329e+03,7.616698e+02
1.205293e+03,7.636129e+02
1.206258e+03,7.668984e+02
1.207222e+03,7.704554e+02
1.208186e+03,7.737402e+02
1.209150e+03,7.748357e+02
1.210115e+03,7.731768e+02
1.211079e+03,7.730527e+02
1.212043e+03,7.756615e+02
1.213007e+03,7.783836e+02
1.213972e+03,7.779089e+02
1.214936e+03,7.751169e+02
1.215900e+03,7.749467e+02
1.216864e+03,7.772547e+02
1.217828e+03,7.774369e+02
1.218793e+03,7.716525e+02
1.219757e+03,7.640854e+02
1.220721e+03,7.622610e+02
1.221685e+03,7.644668e+02
1.222650e+03,7.657548e+02
1.223614e+03,7.645385e+02
1.224578e+03,7.632454e+02
1.225542e+03,7.647332e+02
1.226507e+03,7.673211e+02
1.227471e+03,7.691628e+02
1.228435e+03,7.699300e+02
1.229399e+03,7.697346e+02
1.230364e+03,7.681621e+02
1.231328e+03,7.665836e+02
1.232292e+03,7.663350e+02
1.233256e+03,7.668151e+02
1.234220e+03,7.667986e+02
1.235185e+03,7.661127e+02
1.236149e+03,7.653746e+02
1.237113e+03,7.640840e+02
1.238077e+03,7.635455e+02
1.239042e+03,7.647123e+02
1.240006e+03,7.668903e+02
1.240970e+03,7.669984e+02
1.241934e+03,7.628348e+02
1.242899e+03,7.606244e+02
1.243863e+03,7.629689e+02
1.244827e+03,7.666566e+02
1.245791e+03,7.671244e+02
1.246755e+03,7.638011e+02
1.247720e+03,7.603130e+02
1.248684e+03,7.565270e+02
1.249648e+03,7.539777e+02
1.250612e+03,7.534481e+02
1.251577e+03,7.547766e+02
1.252541e+03,7.592623e+02
1.253505e+03,7.660751e+02
1.254469e+03,7.688861e+02
1.255434e+03,7.657423e+02
1.256398e+03,7.606244e+02
1.257362e+03,7.570020e+02
1.258326e+03,7.546716e+02
1.259291e+03,7.545547e+02
1.260255e+03,7.559397e+02
1.261219e+03,7.556321e+02
1.262183e+03,7.497166e+02
1.263147e+03,7.442026e+02
1.264112e+03,7.443878e+02
1.265076e+03,7.474891e+02
1.266040e+03,7.493640e+02
1.267004e+03,7.488729e+02
1.267969e+03,7.477936e+02
1.268933e+03,7.454900e+02
1.269897e+03,7.444659e+02
1.270861e+03,7.468588e+02
1.271826e+03,7.515348e+02
1.272790e+03,7.530599e+02
1.273754e+03,7.498431e+02
1.274718e+03,7.466263e+02
1.275682e+03,7.443076e+02
1.276647e+03,7.429493e+02
1.277611e+03,7.425580e+02
1.278575e+03,7.431887e+02
1.279539e+03,7.434958e+02
1.280504e+03,7.438203e+02
1.281468e+03,7.443792e+02
1.282432e+03,7.453417e+02
1.283396e+03,7.461273e+02
1.284361e+03,7.443938e+02
1.285325e+03,7.408888e+02
1.286289e+03,7.395757e+02
1.287253e+03,7.414567e+02
1.288218e+03,7.444003e+02
1.289182e+03,7.476855e+02
1.290146e+03,7.502943e+02
1.291110e+03,7.508961e+02
1.292074e+03,7.497666e+02
1.293039e+03,7.478506e+02
1.294003e+03,7.447684e+02
1.294967e+03,7.416629e+02
1.295931e+03,7.389144e+02
1.296896e+03,7.368732e+02
1.297860e+03,7.356865e+02
1.298824e+03,7.351776e+02
1.299788e+03,7.359011e+02
1.300753e+03,7.393975e+02
1.301717e+03,7.416257e+02
1.302681e+03,7.403033e+02
1.303645e+03,7.369976e+02
1.304609e+03,7.364866e+02
1.305574e+03,7.389996e+02
1.306538e+03,7.408406e+02
1.307502e+03,7.419343e+02
1.308466e+03,7.421170e+02
1.309431e+03,7.397902e+02
1.310395e+03,7.363532e+02
1.311359e+03,7.376473e+02
1.312323e+03,7.422489e+02
1.313288e+03,7.447983e+02
1.314252e+03,7.429273e+02
1.315216e+03,7.396794e+02
1.316180e+03,7.360104e+02
1.317145e+03,7.334656e+02
1.318109e+03,7.344065e+02
1.319073e+03,7.386494e+02
1.320037e+03,7.422097e+02
1.321001e+03,7.435131e+02
1.321966e+03,7.440196e+02
1.322930e+03,7.434520e+02
1.323894e+03,7.432692e+02
1.324858e+03,7.457829e+02
1.325823e+03,7.539515e+02
1.326787e+03,7.577408e+02
1.327751e+03,7.558397e+02
1.328715e+03,7.514426e+02
1.329680e+03,7.457591e+02
1.330644e+03,7.397971e+02
1.331608e+03,7.388326e+02
1.332572e+03,7.423207e+02
1.333536e+03,7.441373e+02
1.334501e+03,7.423759e+02
1.335465e+03,7.392754e+02
1.336429e+03,7.369325e+02
1.337393e+03,7.355590e+02
1.338358e+03,7.358065e+02
1.339322e+03,7.372581e+02
1.340286e+03,7.382191e+02
1.341250e+03,7.381328e+02
1.342215e+03,7.370217e+02
1.343179e+03,7.342172e+02
1.344143e+03,7.315226e+02
1.345107e+03,7.306394e+02
1.346072e+03,7.320414e+02
1.347036e+03,7.323397e+02
1.348000e+03,7.304512e+02
1.348964e+03,7.291017e+02
1.349928e+03,7.297463e+02
1.350893e+03,7.316788e+02
1.351857e+03,7.327952e+02
1.352821e+03,7.329609e+02
1.353785e+03,7.327507e+02
1.354750e+03,7.321374e+02
1.355714e+03,7.316058e+02
1.356678e+03,7.326693e+02
1.357642e+03,7.340275e+02
1.358607e+03,7.327644e+02
1.359571e+03,7.298444e+02
1.360535e+03,7.276182e+02
1.361499e+03,7.271032e+02
1.362464e+03,7.271461e+02
1.363428e+03,7.275233e+02
1.364392e+03,7.282682e+02
1.365356e+03,7.295398e+02
1.366320e+03,7.307630e+02
1.367285e+03,7.298121e+02
1.368249e+03,7.251237e+02
1.369213e+03,7.229225e+02
1.370177e+03,7.248814e+02
1.371142e+03,7.284988e+02
1.372106e+03,7.316772e+02
1.373070e+03,7.341258e+02
1.374034e+03,7.328958e+02
1.374999e+03,7.285577e+02
1.375963e+03,7.246389e+02
1.376927e+03,7.226710e+02
1.377891e+03,7.221668e+02
1.378855e+03,7.237396e+02
1.379820e+03,7.256594e+02
1.380784e+03,7.254335e+02
1.381748e+03,7.229460e+02
1.382712e+03,7.212316e+02
1.383677e+03,7.216691e+02
1.384641e+03,7.217017e+02
1.385605e+03,7.199755e+02
1.386569e+03,7.175687e+02
1.387534e+03,7.163193e+02
1.388498e+03,7.165557e+02
1.389462e+03,7.165745e+02
1.390426e+03,7.161087e+02
1.391391e+03,7.155168e+02
1.392355e+03,7.153469e+02
1.393319e+03,7.153214e+02
1.394283e+03,7.138477e+02
1.395247e+03,7.118682e+02
1.396212e+03,7.125304e+02
1.397176e+03,7.167359e+02
1.398140e+03,7.194232e+02
1.399104e+03,7.146700e+02
1.400069e+03,7.099817e+02
1.401033e+03,7.114745e+02
1.401997e+03,7.167095e+02
1.402961e+03,7.183923e+02
1.403926e+03,7.142849e+02
1.404890e+03,7.110859e+02
1.405854e+03,7.093002e+02
1.406818e+03,7.085139e+02
1.407782e+03,7.088741e+02
1.408747e+03,7.099717e+02
1.409711e+03,7.091957e+02
1.410675e+03,7.066735e+02
1.411639e+03,7.048923e+02
1.412604e+03,7.048124e+02
1.413568e+03,7.045911e+02
1.414532e+03,7.023770e+02
1.415496e+03,7.000632e+02
1.416461e+03,6.989642e+02
1.417425e+03,6.987859e+02
1.418389e+03,6.988181e+02
1.419353e+03,6.996879e+02
1.420318e+03,6.995652e+02
1.421282e+03,6.978244e+02
1.422246e+03,6.965540e+02
1.423210e+03,6.976429e+02
1.424174e+03,7.007333e+02
1.425139e+03,7.029294e+02
1.426103e+03,7.040134e+02
1.427067e+03,7.039238e+02
1.428031e+03,7.027925e+02
1.428996e+03,6.999838e+02
1.429960e+03,6.921324e+02
1.430924e+03,6.840493e+02
1.431888e+03,6.809709e+02
1.432853e+03,6.825710e+02
1.433817e+03,6.850059e+02
1.434781e+03,6.890674e+02
1.435745e+03,6.917401e+02
1.436709e+03,6.916269e+02
1.437674e+03,6.909510e+02
1.438638e+03,6.925028e+02
1.439602e+03,6.959755e+02
1.440566e+03,6.954558e+02
1.441531e+03,6.912708e+02
1.442495e+03,6.873301e+02
1.443459e+03,6.847052e+02
1.444423e+03,6.838463e+02
1.445388e+03,6.866484e+02
1.446352e+03,6.901607e+02
1.447316e+03,6.915064e+02
1.448280e+03,6.909934e+02
1.449245e+03,6.904014e+02
1.450209e+03,6.903415e+02
1.451173e+03,6.896289e+02
1.452137e+03,6.867077e+02
1.453101e+03,6.845419e+02
1.454066e+03,6.875087e+02
1.455030e+03,6.943602e+02
1.455994e+03,6.934322e+02
1.456958e+03,6.859903e+02
1.457923e+03,6.809986e+02
1.458887e+03,6.821853e+02
1.459851e+03,6.841230e+02
1.460815e+03,6.809094e+02
1.461780e+03,6.769545e+02
1.462744e+03,6.780403e+02
1.463708e+03,6.833806e+02
1.464672e+03,6.842882e+02
1.465636e+03,6.765541e+02
1.466601e+03,6.726174e+02
1.467565e+03,6.748492e+02
1.468529e+03,6.789924e+02
1.469493e+03,6.813604e+02
1.470458e+03,6.819100e+02
1.471422e+03,6.806111e+02
1.472386e+03,6.780803e+02
1.473350e+03,6.760682e+02
1.474315e+03,6.750433e+02
1.475279e+03,6.745929e+02
1.476243e+03,6.750186e+02
1.477207e+03,6.752090e+02
1.478172e+03,6.742857e+02
1.479136e+03,6.726777e+02
1.480100e+03,6.722443e+02
1.481064e+03,6.737862e+02
1.482028e+03,6.732399e+02
1.482993e+03,6.698109e+02
1.483957e+03,6.665980e+02
1.484921e+03,6.666650e+02
1.485885e+03,6.684573e+02
1.486850e+03,6.689081e+02
1.487814e+03,6.685080e+02
1.488778e+03,6.690886e+02
1.489742e+03,6.720665e+02
1.490707e+03,6.730306e+02
1.491671e+03,6.686223e+02
1.492635e+03,6.648521e+02
1.493599e+03,6.642823e+02
1.494563e+03,6.656924e+02
1.495528e+03,6.664128e+02
1.496492e+03,6.663539e+02
1.497456e+03,6.661390e+02
1.498420e+03,6.660491e+02
1.499385e+03,6.657186e+02
1.500349e+03,6.639512e+02
1.501313e+03,6.627294e+02
1.502277e+03,6.650334e+02
1.503242e+03,6.682754e+02
1.504206e+03,6.682640e+02
1.505170e+03,6.626019e+02
1.506134e+03,6.601432e+02
1.507099e+03,6.621858e+02
1.508063e+03,6.642098e+02
1.509027e+03,6.647021e+02
1.509991e+03,6.638430e+02
1.510955e+03,6.614916e+02
1.511920e+03,6.581827e+02
1.512884e+03,6.549976e+02
1.513848e+03,6.524112e+02
1.514812e+03,6.509375e+02
1.515777e+03,6.507453e+02
1.516741e+03,6.508481e+02
1.517705e+03,6.508308e+02
1.518669e+03,6.509698e+02
1.519634e+03,6.518792e+02
1.520598e+03,6.533584e+02
1.521562e+03,6.531967e+02
1.522526e+03,6.513877e+02
1.523490e+03,6.512944e+02
1.524455e+03,6.546055e+02
1.525419e+03,6.568630e+02
1.526383e+03,6.520062e+02
1.527347e+03,6.459424e+02
1.528312e+03,6.447172e+02
1.529276e+03,6.475474e+02
1.530240e+03,6.486464e+02
1.531204e+03,6.463301e+02
1.532169e+03,6.456578e+02
1.533133e+03,6.473177e+02
1.534097e+03,6.492109e+02
1.535061e+03,6.492097e+02
1.536026e+03,6.487435e+02
1.536990e+03,6.521329e+02
1.537954e+03,6.568876e+02
1.538918e+03,6.576810e+02
1.539882e+03,6.526686e+02
1.540847e+03,6.484927e+02
1.541811e+03,6.469050e+02
1.542775e+03,6.461522e+02
1.543739e+03,6.462347e+02
1.544704e+03,6.468822e+02
1.545668e+03,6.478768e+02
1.546632e+03,6.490061e+02
1.547596e+03,6.486110e+02
1.548561e+03,6.468658e+02
1.549525e+03,6.454831e+02
1.550489e+03,6.461528e+02
1.551453e+03,6.458492e+02
1.552417e+03,6.410670e+02
1.553382e+03,6.365880e+02
1.554346e+03,6.370974e+02
1.555310e+03,6.418704e+02
1.556274e+03,6.430184e+02
1.557239e+03,6.405950e+02
1.558203e+03,6.402689e+02
1.559167e+03,6.435574e+02
1.560131e+03,6.465967e+02
1.561096e+03,6.456575e+02
1.562060e+03,6.434928e+02
1.563024e+03,6.418265e+02
1.563988e+03,6.407332e+02
1.564953e+03,6.400307e+02
1.565917e+03,6.395483e+02
1.566881e+03,6.400549e+02
1.567845e+03,6.416173e+02
1.568809e+03,6.424223e+02
1.569774e+03,6.410989e+02
1.570738e+03,6.395529e+02
1.571702e+03,6.415063e+02
1.572666e+03,6.440842e+02
1.573631e+03,6.430961e+02
1.574595e+03,6.383323e+02
1.575559e+03,6.349183e+02
1.576523e+03,6.339128e+02
1.577488e+03,6.326984e+02
1.578452e+03,6.301205e+02
1.579416e+03,6.282178e+02
1.580380e+03,6.309301e+02
1.581344e+03,6.351806e+02
1.582309e+03,6.339898e+02
1.583273e+03,6.296925e+02
1.584237e+03,6.281003e+02
1.585201e+03,6.328570e+02
1.586166e+03,6.350543e+02
1.587130e+03,6.325693e+02
1.588094e+03,6.291218e+02
1.589058e+03,6.258939e+02
1.590023e+03,6.238287e+02
1.590987e+03,6.259560e+02
1.591951e+03,6.303650e+02
1.592915e+03,6.315831e+02
1.593880e+03,6.291235e+02
1.594844e+03,6.267264e+02
1.595808e+03,6.257982e+02
1.596772e+03,6.256300e+02
1.597736e+03,6.265554e+02
1.598701e+03,6.278038e+02
1.599665e+03,6.286834e+02
1.600629e+03,6.291734e+02
1.601593e+03,6.293466e+02
1.602558e+03,6.290604e+02
1.603522e+03,6.276990e+02
1.604486e+03,6.248357e+02
1.605450e+03,6.221766e+02
1.606415e+03,6.201946e+02
1.607379e+03,6.194948e+02
1.608343e+03,6.206480e+02
1.609307e+03,6.224379e+02
1.610271e+03,6.223753e+02
1.611236e+03,6.210148e+02
1.612200e+03,6.219367e+02
1.613164e+03,6.249210e+02
1.614128e+03,6.266661e+02
1.615093e+03,6.236708e+02
1.616057e+03,6.213512e+02
1.617021e+03,6.226813e+02
1.617985e+03,6.235049e+02
1.618950e+03,6.208966e+02
1.619914e+03,6.162411e+02
1.620878e+03,6.156520e+02
1.621842e+03,6.179221e+02
1.622807e+03,6.173051e+02
1.623771e+03,6.127258e+02
1.624735e+03,6.102699e+02
1.625699e+03,6.155082e+02
1.626663e+03,6.199650e+02
1.627628e+03,6.201552e+02
1.628592e+03,6.182347e+02
1.629556e+03,6.173259e+02
1.630520e+03,6.174424e+02
1.631485e+03,6.168158e+02
1.632449e+03,6.154640e+02
1.633413e+03,6.137096e+02
1.634377e+03,6.111910e+02
1.635342e+03,6.097943e+02
1.636306e+03,6.121972e+02
1.637270e+03,6.136594e+02
1.638234e+03,6.118232e+02
1.639198e+03,6.079088e+02
1.640163e+03,6.029271e+02
1.641127e+03,5.983580e+02
1.642091e+03,6.003412e+02
1.643055e+03,6.082885e+02
1.644020e+03,6.133738e+02
1.644984e+03,6.080803e+02
1.645948e+03,6.039659e+02
1.646912e+03,6.045027e+02
1.647877e+03,6.054377e+02
1.648841e+03,6.025894e+02
1.649805e+03,5.977900e+02
1.650769e+03,5.970365e+02
1.651734e+03,5.989926e+02
1.652698e+03,6.006080e+02
1.653662e+03,6.009045e+02
1.654626e+03,6.010797e+02
1.655590e+03,6.017627e+02
1.656555e+03,6.017623e+02
1.657519e+03,6.007462e+02
1.658483e+03,5.998217e+02
1.659447e+03,6.007098e+02
1.660412e+03,6.019728e+02
1.661376e+03,6.011487e+02
1.662340e+03,5.988313e+02
1.663304e+03,5.967311e+02
1.664269e+03,5.939607e+02
1.665233e+03,5.938671e+02
1.666197e+03,5.977536e+02
1.667161e+03,5.988809e+02
1.668125e+03,5.919801e+02
1.669090e+03,5.840664e+02
1.670054e+03,5.883087e+02
1.671018e+03,5.969260e+02
1.671982e+03,5.989103e+02
1.672947e+03,5.936789e+02
1.673911e+03,5.922651e+02
1.674875e+03,5.961199e+02
1.675839e+03,5.979509e+02
1.676804e+03,5.969671e+02
1.677768e+03,5.948438e+02
1.678732e+03,5.911974e+02
1.679696e+03,5.883167e+02
1.680661e+03,5.893641e+02
1.681625e+03,5.917541e+02
1.682589e+03,5.922584e+02
1.683553e+03,5.909979e+02
1.684517e+03,5.889338e+02
1.685482e+03,5.860228e+02
1.686446e+03,5.833771e+02
1.687410e+03,5.811913e+02
1.688374e+03,5.803345e+02
1.689339e+03,5.833052e+02
1.690303e+03,5.857137e+02
1.691267e+03,5.841746e+02
1.692231e+03,5.810302e+02
1.693196e+03,5.798201e+02
1.694160e+03,5.802037e+02
1.695124e+03,5.813567e+02
1.696088e+03,5.831242e+02
1.697052e+03,5.845804e+02
1.698017e+03,5.853270e+02
1.698981e+03,5.846215e+02
1.699945e+03,5.808447e+02
1.700909e+03,5.775613e+02
1.701874e+03,5.777734e+02
1.702838e+03,5.792817e+02
1.703802e+03,5.743707e+02
1.704766e+03,5.671920e+02
1.705731e+03,5.675674e+02
1.706695e+03,5.761378e+02
1.707659e+03,5.820016e+02
1.708623e+03,5.829241e+02
1.709588e+03,5.830566e+02
1.710552e+03,5.824915e+02
1.711516e+03,5.814744e+02
1.712480e+03,5.806136e+02
1.713444e+03,5.792841e+02
1.714409e+03,5.771351e+02
1.715373e+03,5.742209e+02
1.716337e+03,5.695264e+02
1.717301e+03,5.631741e+02
1.718266e+03,5.620954e+02
1.719230e+03,5.660479e+02
1.720194e+03,5.707942e+02
1.721158e+03,5.754631e+02
1.722123e+03,5.770826e+02
1.723087e+03,5.691387e+02
1.724051e+03,5.628607e+02
1.725015e+03,5.653480e+02
1.725979e+03,5.712303e+02
1.726944e+03,5.725625e+02
1.727908e+03,5.704877e+02
1.728872e+03,5.701718e+02
1.729836e+03,5.708160e+02
1.730801e+03,5.695355e+02
1.731765e+03,5.636824e+02
1.732729e+03,5.599066e+02
1.733693e+03,5.590418e+02
1.734658e+03,5.597148e+02
1.735622e+03,5.617176e+02
1.736586e+03,5.637334e+02
1.737550e+03,5.636653e+02
1.738515e+03,5.626843e+02
1.739479e+03,5.619509e+02
1.740443e+03,5.616761e+02
1.741407e+03,5.621876e+02
1.742371e+03,5.636042e+02
1.743336e+03,5.650510e+02
1.744300e+03,5.663780e+02
1.745264e+03,5.665803e+02
1.746228e+03,5.645883e+02
1.747193e+03,5.624499e+02
1.748157e+03,5.613038e+02
1.749121e+03,5.608345e+02
1.750085e+03,5.604293e+02
1.751050e+03,5.594660e+02
1.752014e+03,5.567470e+02
1.752978e+03,5.535468e+02
1.753942e+03,5.528641e+02
1.754906e+03,5.551346e+02
1.755871e+03,5.576258e+02
1.756835e+03,5.598677e+02
1.757799e+03,5.613161e+02
1.758763e+03,5.625878e+02
1.759728e+03,5.626760e+02
1.760692e+03,5.598969e+02
1.761656e+03,5.559296e+02
1.762620e+03,5.508303e+02
1.763585e+03,5.462200e+02
1.764549e+03,5.444904e+02
1.765513e+03,5.453563e+02
1.766477e+03,5.463323e+02
1.767442e+03,5.473539e+02
1.768406e+03,5.468951e+02
1.769370e+03,5.442272e+02
1.770334e+03,5.421600e+02
1.771298e+03,5.420763e+02
1.772263e+03,5.420092e+02
1.773227e+03,5.413619e+02
1.774191e+03,5.412101e+02
1.775155e+03,5.438273e+02
1.776120e+03,5.470938e+02
1.777084e+03,5.476422e+02
1.778048e+03,5.463121e+02
1.779012e+03,5.456386e+02
1.779977e+03,5.461223e+02
1.780941e+03,5.466102e+02
1.781905e+03,5.468472e+02
1.782869e+03,5.464541e+02
1.783833e+03,5.452271e+02
1.784798e+03,5.436937e+02
1.785762e+03,5.413897e+02
1.786726e+03,5.398300e+02
1.787690e+03,5.403539e+02
1.788655e+03,5.413080e+02
1.789619e+03,5.387142e+02
1.790583e+03,5.343389e+02
1.791547e+03,5.305749e+02
1.792512e+03,5.282439e+02
1.793476e+03,5.303694e+02
1.794440e+03,5.393955e+02
1.795404e+03,5.437676e+02
1.796369e+03,5.426705e+02
1.797333e+03,5.404524e+02
1.798297e+03,5.394445e+02
1.799261e+03,5.386918e+02
1.800225e+03,5.367369e+02
1.801190e+03,5.354570e+02
1.802154e+03,5.371678e+02
1.803118e+03,5.395551e+02
1.804082e+03,5.350422e+02
1.805047e+03,5.273459e+02
1.806011e+03,5.250253e+02
1.806975e+03,5.285116e+02
1.807939e+03,5.312363e+02
1.808904e+03,5.318853e+02
1.809868e+03,5.328503e+02
1.810832e+03,5.345945e+02
1.811796e+03,5.354060e+02
1.812760e+03,5.336860e+02
1.813725e+03,5.307747e+02
1.814689e+03,5.255053e+02
1.815653e+03,5.216508e+02
1.816617e+03,5.225789e+02
1.817582e+03,5.267009e+02
1.818546e+03,5.301156e+02
1.819510e+03,5.320826e+02
1.820474e+03,5.301471e+02
1.821439e+03,5.240934e+02
1.822403e+03,5.210466e+02
1.823367e+03,5.223146e+02
1.824331e+03,5.220928e+02
1.825296e+03,5.192222e+02
1.826260e+03,5.174345e+02
1.827224e+03,5.222551e+02
1.828188e+03,5.267623e+02
1.829152e+03,5.261448e+02
1.830117e+03,5.239264e+02
1.831081e+03,5.229098e+02
1.832045e+03,5.222719e+02
1.833009e+03,5.192659e+02
1.833974e+03,5.159519e+02
1.834938e+03,5.159614e+02
1.835902e+03,5.202109e+02
1.836866e+03,5.219497e+02
1.837831e+03,5.210016e+02
1.838795e+03,5.191893e+02
1.839759e+03,5.170599e+02
1.840723e+03,5.156477e+02
1.841688e+03,5.163600e+02
1.842652e+03,5.164373e+02
1.843616e+03,5.144212e+02
1.844580e+03,5.118474e+02
1.845544e+03,5.103916e+02
1.846509e+03,5.098969e+02
1.847473e+03,5.103976e+02
1.848437e+03,5.113189e+02
1.849401e+03,5.121586e+02
1.850366e+03,5.129800e+02
1.851330e+03,5.084326e+02
1.852294e+03,4.996038e+02
1.853258e+03,4.944868e+02
1.854223e+03,4.951295e+02
1.855187e+03,4.992263e+02
1.856151e+03,5.116169e+02
1.857115e+03,5.165901e+02
1.858079e+03,5.094509e+02
1.859044e+03,4.994783e+02
1.860008e+03,4.949858e+02
1.860972e+03,4.945022e+02
1.861936e+03,4.995544e+02
1.862901e+03,5.056314e+02
1.863865e+03,5.059428e+02
1.864829e+03,5.010204e+02
1.865793e+03,4.972460e+02
1.866758e+03,4.949313e+02
1.867722e+03,4.948133e+02
1.868686e+03,4.975192e+02
1.869650e+03,4.990735e+02
1.870615e+03,4.988156e+02
1.871579e+03,4.987973e+02
1.872543e+03,4.998594e+02
1.873507e+03,5.009505e+02
1.874471e+03,4.994429e+02
1.875436e+03,4.990507e+02
1.876400e+03,5.028145e+02
1.877364e+03,5.068389e+02
1.878328e+03,5.066265e+02
1.879293e+03,5.034916e+02
1.880257e+03,4.987656e+02
1.881221e+03,4.933056e+02
1.882185e+03,4.885884e+02
1.883150e+03,4.846678e+02
1.884114e+03,4.865398e+02
1.885078e+03,4.929221e+02
1.886042e+03,4.950396e+02
1.887006e+03,4.895642e+02
1.887971e+03,4.867173e+02
1.888935e+03,4.920393e+02
1.889899e+03,4.949859e+02
1.890863e+03,4.925719e+02
1.891828e+03,4.888781e+02
1.892792e+03,4.882466e+02
1.893756e+03,4.882534e+02
1.894720e+03,4.875443e+02
1.895685e+03,4.867928e+02
1.896649e+03,4.859072e+02
1.897613e+03,4.850560e+02
1.898577e+03,4.865792e+02
1.899542e+03,4.889009e+02
1.900506e+03,4.879713e+02
1.901470e+03,4.827512e+02
1.902434e+03,4.788074e+02
1.903398e+03,4.762183e+02
1.904363e+03,4.766807e+02
1.905327e+03,4.810860e+02
1.906291e+03,4.834920e+02
1.907255e+03,4.776368e+02
1.908220e+03,4.741845e+02
1.909184e+03,4.753031e+02
1.910148e+03,4.782307e+02
1.911112e+03,4.812347e+02
1.912077e+03,4.842111e+02
1.913041e+03,4.888649e+02
1.914005e+03,4.915883e+02
1.914969e+03,4.873936e+02
1.915933e+03,4.787852e+02
1.916898e+03,4.740981e+02
1.917862e+03,4.723410e+02
1.918826e+03,4.717167e+02
1.919790e+03,4.721177e+02
1.920755e+03,4.703279e+02
1.921719e+03,4.663343e+02
1.922683e+03,4.667920e+02
1.923647e+03,4.733445e+02
1.924612e+03,4.785211e+02
1.925576e+03,4.782940e+02
1.926540e+03,4.766861e+02
1.927504e+03,4.734184e+02
1.928469e+03,4.714943e+02
1.929433e+03,4.761475e+02
1.930397e+03,4.800096e+02
1.931361e+03,4.765347e+02
1.932325e+03,4.707269e+02
1.933290e+03,4.656566e+02
1.934254e+03,4.624229e+02
1.935218e+03,4.634803e+02
1.936182e+03,4.670818e+02
1.937147e+03,4.729151e+02
1.938111e+03,4.797412e+02
1.939075e+03,4.762744e+02
1.940039e+03,4.647946e+02
1.941004e+03,4.587489e+02
1.941968e+03,4.596515e+02
1.942932e+03,4.617987e+02
1.943896e+03,4.644812e+02
1.944860e+03,4.666832e+02
1.945825e+03,4.685634e+02
1.946789e+03,4.689849e+02
1.947753e+03,4.658983e+02
1.948717e+03,4.623242e+02
1.949682e+03,4.586278e+02
1.950646e+03,4.561475e+02
1.951610e+03,4.554962e+02
1.952574e+03,4.569858e+02
1.953539e+03,4.639471e+02
1.954503e+03,4.707269e+02
1.955467e+03,4.714688e+02
1.956431e+03,4.677480e+02
1.957396e+03,4.621870e+02
1.958360e+03,4.554449e+02
1.959324e+03,4.476367e+02
1.960288e+03,4.405336e+02
1.961252e+03,4.428422e+02
1.962217e+03,4.557299e+02
1.963181e+03,4.587501e+02
1.964145e+03,4.519905e+02
1.965109e+03,4.468192e+02
1.966074e+03,4.492780e+02
1.967038e+03,4.536240e+02
1.968002e+03,4.595457e+02
1.968966e+03,4.629141e+02
1.969931e+03,4.615692e+02
1.970895e+03,4.580147e+02
1.971859e+03,4.534003e+02
1.972823e+03,4.488247e+02
1.973787e+03,4.441642e+02
1.974752e+03,4.404246e+02
1.975716e+03,4.392039e+02
1.976680e+03,4.398170e+02
1.977644e+03,4.435353e+02
1.978609e+03,4.479139e+02
1.979573e+03,4.478571e+02
1.980537e+03,4.448957e+02
1.981501e+03,4.448795e+02
1.982466e+03,4.469862e+02
1.983430e+03,4.483491e+02
1.984394e+03,4.486804e+02
1.985358e+03,4.470912e+02
1.986323e+03,4.438336e+02
1.987287e+03,4.406656e+02
1.988251e+03,4.377984e+02
1.989215e+03,4.368577e+02
1.990179e+03,4.384406e+02
1.991144e+03,4.395536e+02
1.992108e+03,4.396643e+02
1.993072e+03,4.391635e+02
1.994036e+03,4.369435e+02
1.995001e+03,4.358384e+02
1.995965e+03,4.365525e+02
1.996929e+03,4.386278e+02
1.997893e+03,4.434463e+02
1.998858e+03,4.468404e+02
1.999822e+03,4.431359e+02
2.000786e+03,4.380477e+02
2.001750e+03,4.373849e+02
2.002714e+03,4.388580e+02
2.003679e+03,4.355814e+02
2.004643e+03,4.304760e+02
2.005607e+03,4.282313e+02
2.006571e+03,4.287731e+02
2.007536e+03,4.324704e+02
2.008500e+03,4.378353e+02
2.009464e+03,4.398376e+02
2.010428e+03,4.381557e+02
2.011393e+03,4.358428e+02
2.012357e+03,4.329678e+02
2.013321e+03,4.328112e+02
2.014285e+03,4.349859e+02
2.015250e+03,4.358809e+02
2.016214e+03,4.329654e+02
2.017178e+03,4.297914e+02
2.018142e+03,4.265047e+02
2.019106e+03,4.245946e+02
2.020071e+03,4.252813e+02
2.021035e+03,4.262098e+02
2.021999e+03,4.267849e+02
2.022963e+03,4.258692e+02
2.023928e+03,4.225147e+02
2.024892e+03,4.197669e+02
2.025856e+03,4.215231e+02
2.026820e+03,4.247238e+02
2.027785e+03,4.278818e+02
2.028749e+03,4.300822e+02
2.029713e+03,4.294530e+02
2.030677e+03,4.279251e+02
2.031641e+03,4.287618e+02
2.032606e+03,4.298714e+02
2.033570e+03,4.269585e+02
2.034534e+03,4.214123e+02
2.035498e+03,4.208719e+02
2.036463e+03,4.226495e+02
2.037427e+03,4.192217e+02
2.038391e+03,4.107633e+02
2.039355e+03,4.070741e+02
2.040320e+03,4.075488e+02
2.041284e+03,4.100751e+02
2.042248e+03,4.142016e+02
2.043212e+03,4.156456e+02
2.044177e+03,4.141357e+02
2.045141e+03,4.135979e+02
2.046105e+03,4.145083e+02
2.047069e+03,4.153865e+02
2.048033e+03,4.140668e+02
2.048998e+03,4.160391e+02
2.049962e+03,4.223087e+02
2.050926e+03,4.258590e+02
2.051890e+03,4.190698e+02
2.052854e+03,4.132157e+02
2.053819e+03,4.117652e+02
2.054783e+03,4.104751e+02
2.055747e+03,4.067261e+02
2.056711e+03,4.043940e+02
2.057676e+03,4.095850e+02
2.058640e+03,4.141671e+02
2.059604e+03,4.130000e+02
2.060568e+03,4.099608e+02
2.061533e+03,4.111367e+02
2.062497e+03,4.136587e+02
2.063461e+03,4.160729e+02
2.064425e+03,4.164917e+02
2.065390e+03,4.091671e+02
2.066354e+03,3.997609e+02
2.067318e+03,4.015073e+02
2.068282e+03,4.084024e+02
2.069247e+03,4.063199e+02
2.070211e+03,3.972966e+02
2.071175e+03,3.961206e+02
2.072139e+03,4.002518e+02
2.073104e+03,4.044832e+02
2.074068e+03,4.079833e+02
2.075032e+03,4.061253e+02
2.075996e+03,4.001689e+02
2.076960e+03,3.958506e+02
2.077925e+03,3.943623e+02
2.078889e+03,3.970716e+02
2.079853e+03,4.041447e+02
2.080817e+03,4.057293e+02
2.081782e+03,4.010089e+02
2.082746e+03,3.974851e+02
2.083710e+03,3.992867e+02
2.084674e+03,3.987179e+02
2.085639e+03,3.956040e+02
2.086603e+03,3.942196e+02
2.087567e+03,3.986137e+02
2.088531e+03,3.997450e+02
2.089496e+03,3.957148e+02
2.090460e+03,3.917114e+02
2.091424e+03,3.904217e+02
2.092388e+03,3.910882e+02
2.093353e+03,3.961894e+02
2.094317e+03,3.966094e+02
2.095281e+03,3.873325e+02
2.096245e+03,3.800158e+02
2.097209e+03,3.927085e+02
2.098174e+03,4.019799e+02
2.099138e+03,3.966531e+02
2.100102e+03,3.880544e+02
2.101066e+03,3.882550e+02
2.102031e+03,3.909803e+02
2.102995e+03,3.918977e+02
2.103959e+03,3.909901e+02
2.104923e+03,3.866651e+02
2.105887e+03,3.822627e+02
2.106852e+03,3.827273e+02
2.107816e+03,3.858057e+02
2.108780e+03,3.901482e+02
2.109744e+03,3.937343e+02
2.110708e+03,3.900466e+02
2.111673e+03,3.839768e+02
2.112637e+03,3.829838e+02
2.113601e+03,3.847265e+02
2.114565e+03,3.842440e+02
2.115530e+03,3.821490e+02
2.116494e+03,3.791318e+02
2.117458e+03,3.762421e+02
2.118422e+03,3.740944e+02
2.119387e+03,3.728831e+02
2.120351e+03,3.780646e+02
2.121315e+03,3.865637e+02
2.122279e+03,3.879497e+02
2.123244e+03,3.816699e+02
2.124208e+03,3.784946e+02
2.125172e+03,3.779943e+02
2.126136e+03,3.785884e+02
2.127101e+03,3.801727e+02
2.128065e+03,3.797080e+02
2.129029e+03,3.774926e+02
2.129993e+03,3.765198e+02
2.130958e+03,3.770213e+02
2.131922e+03,3.784174e+02
2.132886e+03,3.808846e+02
2.133850e+03,3.810264e+02
2.134814e+03,3.789182e+02
2.135779e+03,3.761046e+02
2.136743e+03,3.717341e+02
2.137707e+03,3.706414e+02
2.138671e+03,3.729961e+02
2.139636e+03,3.746743e+02
2.140600e+03,3.731637e+02
2.141564e+03,3.718082e+02
2.142528e+03,3.709317e+02
2.143493e+03,3.700010e+02
2.144457e+03,3.686040e+02
2.145421e+03,3.669344e+02
2.146385e+03,3.648264e+02
2.147350e+03,3.639636e+02
2.148314e+03,3.651029e+02
2.149278e+03,3.670008e+02
2.150242e+03,3.691431e+02
2.151207e+03,3.701792e+02
2.152171e+03,3.696472e+02
2.153135e+03,3.690314e+02
2.154099e+03,3.713958e+02
2.155063e+03,3.714793e+02
2.156028e+03,3.679906e+02
2.156992e+03,3.640957e+02
2.157956e+03,3.603070e+02
2.158920e+03,3.586387e+02
2.159885e+03,3.604423e+02
2.160849e+03,3.635323e+02
2.161813e+03,3.678517e+02
2.162777e+03,3.705420e+02
2.163741e+03,3.685261e+02
2.164706e+03,3.645302e+02
2.165670e+03,3.589822e+02
2.166634e+03,3.556928e+02
2.167598e+03,3.617644e+02
2.168563e+03,3.663268e+02
2.169527e+03,3.638453e+02
2.170491e+03,3.594256e+02
2.171455e+03,3.585376e+02
2.172420e+03,3.587081e+02
2.173384e+03,3.587006e+02
2.174348e+03,3.584085e+02
2.175312e+03,3.568338e+02
2.176277e+03,3.556563e+02
2.177241e+03,3.577081e+02
2.178205e+03,3.597618e+02
2.179169e+03,3.601435e+02
2.180134e+03,3.594705e+02
2.181098e+03,3.575531e+02
2.182062e+03,3.554931e+02
2.183026e+03,3.536395e+02
2.183990e+03,3.521995e+02
2.184955e+03,3.518939e+02
2.185919e+03,3.518627e+02
2.186883e+03,3.513269e+02
2.187847e+03,3.503357e+02
2.188812e+03,3.485923e+02
2.189776e+03,3.472236e+02
2.190740e+03,3.479461e+02
2.191704e+03,3.488576e+02
2.192668e+03,3.476471e+02
2.193633e+03,3.464980e+02
2.194597e+03,3.507082e+02
2.195561e+03,3.539267e+02
2.196525e+03,3.484416e+02
2.197490e+03,3.413929e+02
2.198454e+03,3.490211e+02
2.199418e+03,3.579224e+02
2.200382e+03,3.550690e+02
2.201347e+03,3.480059e+02
2.202311e+03,3.498182e+02
2.203275e+03,3.540643e+02
2.204239e+03,3.544689e+02
2.205204e+03,3.518267e+02
2.206168e+03,3.456688e+02
2.207132e+03,3.395870e+02
2.208096e+03,3.384573e+02
2.209061e+03,3.392833e+02
2.210025e+03,3.397658e+02
2.210989e+03,3.398236e+02
2.211953e+03,3.392238e+02
2.212917e+03,3.388528e+02
2.213882e+03,3.382430e+02
2.214846e+03,3.379769e+02
2.215810e+03,3.414522e+02
2.216774e+03,3.438652e+02
2.217739e+03,3.409059e+02
2.218703e+03,3.362818e+02
2.219667e+03,3.364381e+02
2.220631e+03,3.383512e+02
2.221595e+03,3.393908e+02
2.222560e+03,3.393087e+02
2.223524e+03,3.368650e+02
2.224488e+03,3.341660e+02
2.225452e+03,3.328737e+02
2.226417e+03,3.340610e+02
2.227381e+03,3.421519e+02
2.228345e+03,3.504616e+02
2.229309e+03,3.488668e+02
2.230274e+03,3.427778e+02
2.231238e+03,3.352617e+02
2.232202e+03,3.293617e+02
2.233166e+03,3.323897e+02
2.234131e+03,3.368665e+02
2.235095e+03,3.368391e+02
2.236059e+03,3.347290e+02
2.237023e+03,3.328640e+02
2.237988e+03,3.320597e+02
2.238952e+03,3.327591e+02
2.239916e+03,3.341041e+02
2.240880e+03,3.373271e+02
2.241844e+03,3.381839e+02
2.242809e+03,3.318717e+02
2.243773e+03,3.256061e+02
2.244737e+03,3.277386e+02
2.245701e+03,3.313506e+02
2.246666e+03,3.313043e+02
2.247630e+03,3.290272e+02
2.248594e+03,3.240179e+02
2.249558e+03,3.201906e+02
2.250522e+03,3.226099e+02
2.251487e+03,3.257824e+02
2.252451e+03,3.271458e+02
2.253415e+03,3.267125e+02
2.254379e+03,3.234807e+02
2.255344e+03,3.209695e+02
2.256308e+03,3.205418e+02
2.257272e+03,3.215862e+02
2.258236e+03,3.257625e+02
2.259201e+03,3.272912e+02
2.260165e+03,3.237375e+02
2.261129e+03,3.198820e+02
2.262093e+03,3.200049e+02
2.263058e+03,3.205456e+02
2.264022e+03,3.206023e+02
2.264986e+03,3.211971e+02
2.265950e+03,3.239222e+02
2.266915e+03,3.244689e+02
2.267879e+03,3.205961e+02
2.268843e+03,3.186977e+02
2.269807e+03,3.232792e+02
2.270771e+03,3.257003e+02
2.271736e+03,3.221453e+02
2.272700e+03,3.195102e+02
2.273664e+03,3.196808e+02
2.274628e+03,3.171021e+02
2.275593e+03,3.065216e+02
2.276557e+03,3.019590e+02
2.277521e+03,3.058300e+02
2.278485e+03,3.112231e+02
2.279449e+03,3.166851e+02
2.280414e+03,3.176450e+02
2.281378e+03,3.139585e+02
2.282342e+03,3.109679e+02
2.283306e+03,3.113058e+02
2.284271e+03,3.120407e+02
2.285235e+03,3.130495e+02
2.286199e+03,3.137809e+02
2.287163e+03,3.143574e+02
2.288128e+03,3.156224e+02
2.289092e+03,3.172331e+02
2.290056e+03,3.190636e+02
2.291020e+03,3.211073e+02
2.291985e+03,3.178090e+02
2.292949e+03,3.105268e+02
2.293913e+03,3.105167e+02
2.294877e+03,3.175308e+02
2.295842e+03,3.158449e+02
2.296806e+03,3.065795e+02
2.297770e+03,3.052456e+02
2.298734e+03,3.104484e+02
2.299698e+03,3.127100e+02
2.300663e+03,3.119622e+02
2.301627e+03,3.097395e+02
2.302591e+03,3.066727e+02
2.303555e+03,3.044468e+02
2.304520e+03,3.029744e+02
2.305484e+03,3.003945e+02
2.306448e+03,2.987145e+02
2.307412e+03,3.024110e+02
2.308376e+03,3.081483e+02
2.309341e+03,3.069767e+02
2.310305e+03,3.030822e+02
2.311269e+03,3.021971e+02
2.312233e+03,3.030051e+02
2.313198e+03,3.022598e+02
2.314162e+03,3.022062e+02
2.315126e+03,3.075921e+02
2.316090e+03,3.119340e+02
2.317055e+03,3.054608e+02
2.318019e+03,2.978641e+02
2.318983e+03,2.976577e+02
2.319947e+03,3.005534e+02
2.320912e+03,3.062400e+02
2.321876e+03,3.104980e+02
2.322840e+03,3.089399e+02
2.323804e+03,3.063952e+02
2.324769e+03,3.049455e+02
2.325733e+03,3.034576e+02
2.326697e+03,2.992525e+02
2.327661e+03,2.993983e+02
2.328625e+03,3.070556e+02
2.329590e+03,3.108247e+02
2.330554e+03,3.007764e+02
2.331518e+03,2.942111e+02
2.332482e+03,2.936738e+02
2.333447e+03,2.953164e+02
2.334411e+03,2.990767e+02
2.335375e+03,2.992345e+02
2.336339e+03,2.956729e+02
2.337303e+03,2.931079e+02
2.338268e+03,2.936628e+02
2.339232e+03,2.934839e+02
2.340196e+03,2.928821e+02
2.341160e+03,2.937192e+02
2.342125e+03,2.966872e+02
2.343089e+03,2.974303e+02
2.344053e+03,2.962503e+02
2.345017e+03,2.964441e+02
2.345982e+03,2.979925e+02
2.346946e+03,2.954104e+02
2.347910e+03,2.906302e+02
2.348874e+03,2.882017e+02
2.349839e+03,2.873157e+02
2.350803e+03,2.843524e+02
2.351767e+03,2.814602e+02
2.352731e+03,2.840916e+02
2.353696e+03,2.889495e+02
2.354660e+03,2.905845e+02
2.355624e+03,2.902400e+02
2.356588e+03,2.902068e+02
2.357552e+03,2.892958e+02
2.358517e+03,2.855106e+02
2.359481e+03,2.815504e+02
2.360445e+03,2.807481e+02
2.361409e+03,2.806076e+02
2.362374e+03,2.796659e+02
2.363338e+03,2.795364e+02
2.364302e+03,2.832718e+02
2.365266e+03,2.867646e+02
2.366230e+03,2.886305e+02
2.367195e+03,2.901704e+02
2.368159e+03,2.926442e+02
2.369123e+03,2.933194e+02
2.370087e+03,2.920311e+02
2.371052e+03,2.903538e+02
2.372016e+03,2.889767e+02
2.372980e+03,2.869008e+02
2.373944e+03,2.842060e+02
2.374909e+03,2.841917e+02
2.375873e+03,2.894030e+02
2.376837e+03,2.887384e+02
2.377801e+03,2.837557e+02
2.378766e+03,2.814644e+02
2.379730e+03,2.826152e+02
2.380694e+03,2.813852e+02
2.381658e+03,2.791165e+02
2.382623e+03,2.789897e+02
2.383587e+03,2.804030e+02
2.384551e+03,2.815652e+02
2.385515e+03,2.822012e+02
2.386479e+03,2.817028e+02
2.387444e+03,2.811151e+02
2.388408e+03,2.835916e+02
2.389372e+03,2.849247e+02
2.390336e+03,2.788318e+02
2.391301e+03,2.723527e+02
2.392265e+03,2.721174e+02
2.393229e+03,2.743351e+02
2.394193e+03,2.776156e+02
2.395157e+03,2.796237e+02
2.396122e+03,2.783423e+02
2.397086e+03,2.766178e+02
2.398050e+03,2.752670e+02
2.399014e+03,2.755452e+02
2.399979e+03,2.787920e+02
2.400943e+03,2.788215e+02
2.401907e+03,2.745854e+02
2.402871e+03,2.711715e+02
2.403836e+03,2.698046e+02
2.404800e+03,2.718007e+02
2.405764e+03,2.765874e+02
2.406728e+03,2.794548e+02
2.407693e+03,2.793940e+02
2.408657e+03,2.749209e+02
2.409621e+03,2.681645e+02
2.410585e+03,2.693747e+02
2.411550e+03,2.752089e+02
2.412514e+03,2.759117e+02
2.413478e+03,2.735528e+02
2.414442e+03,2.735375e+02
2.415406e+03,2.742984e+02
2.416371e+03,2.736831e+02
2.417335e+03,2.731856e+02
2.418299e+03,2.765301e+02
2.419263e+03,2.783257e+02
2.420228e+03,2.753821e+02
2.421192e+03,2.709112e+02
2.422156e+03,2.661959e+02
2.423120e+03,2.643065e+02
2.424084e+03,2.660151e+02
2.425049e+03,2.680105e+02
2.426013e+03,2.693844e+02
2.426977e+03,2.688083e+02
2.427941e+03,2.664753e+02
2.428906e+03,2.657277e+02
2.429870e+03,2.676731e+02
2.430834e+03,2.673523e+02
2.431798e+03,2.651685e+02
2.432763e+03,2.632466e+02
2.433727e+03,2.617996e+02
2.434691e+03,2.626642e+02
2.435655e+03,2.644732e+02
2.436620e+03,2.640503e+02
2.437584e+03,2.627263e+02
2.438548e+03,2.650435e+02
2.439512e+03,2.677350e+02
2.440477e+03,2.671000e+02
2.441441e+03,2.654641e+02
2.442405e+03,2.672331e+02
2.443369e+03,2.678867e+02
2.444333e+03,2.652299e+02
2.445298e+03,2.626370e+02
2.446262e+03,2.638607e+02
2.447226e+03,2.634677e+02
2.448190e+03,2.605804e+02
2.449155e+03,2.588919e+02
2.450119e+03,2.611296e+02
2.451083e+03,2.650845e+02
2.452047e+03,2.700517e+02
2.453011e+03,2.702603e+02
2.453976e+03,2.642058e+02
2.454940e+03,2.611106e+02
2.455904e+03,2.601865e+02
2.456868e+03,2.581317e+02
2.457833e+03,2.553477e+02
2.458797e+03,2.551305e+02
2.459761e+03,2.557981e+02
2.460725e+03,2.544010e+02
2.461690e+03,2.527461e+02
2.462654e+03,2.540888e+02
2.463618e+03,2.559044e+02
2.464582e+03,2.569684e+02
2.465547e+03,2.570914e+02
2.466511e+03,2.541853e+02
2.467475e+03,2.529351e+02
2.468439e+03,2.543805e+02
2.469404e+03,2.559233e+02
2.470368e+03,2.566204e+02
2.471332e+03,2.565672e+02
2.472296e+03,2.558005e+02
2.473260e+03,2.565152e+02
2.474225e+03,2.594725e+02
2.475189e+03,2.589258e+02
2.476153e+03,2.564223e+02
2.477117e+03,2.566118e+02
2.478082e+03,2.582849e+02
2.479046e+03,2.556076e+02
2.480010e+03,2.529429e+02
2.480974e+03,2.579200e+02
2.481938e+03,2.638066e+02
2.482903e+03,2.606688e+02
2.483867e+03,2.561553e+02
2.484831e+03,2.546344e+02
2.485795e+03,2.529585e+02
2.486760e+03,2.470566e+02
2.487724e+03,2.444341e+02
2.488688e+03,2.463257e+02
2.489652e+03,2.481535e+02
2.490617e+03,2.464669e+02
2.491581e+03,2.491169e+02
2.492545e+03,2.549293e+02
2.493509e+03,2.548281e+02
2.494474e+03,2.481305e+02
2.495438e+03,2.471290e+02
2.496402e+03,2.491537e+02
2.497366e+03,2.478450e+02
2.498331e+03,2.454120e+02
2.499295e+03,2.479205e+02
2.500259e+03,2.500435e+02
2.501223e+03,2.467697e+02
2.502188e+03,2.436367e+02
2.503152e+03,2.480017e+02
2.504116e+03,2.515422e+02
2.505080e+03,2.518592e+02
2.506044e+03,2.505347e+02
2.507009e+03,2.465531e+02
2.507973e+03,2.452095e+02
2.508937e+03,2.465280e+02
2.509901e+03,2.467538e+02
2.510865e+03,2.447597e+02
2.511830e+03,2.450925e+02
2.512794e+03,2.466638e+02
2.513758e+03,2.468452e+02
2.514722e+03,2.462561e+02
2.515687e+03,2.467676e+02
2.516651e+03,2.469956e+02
2.517615e+03,2.456010e+02
2.518579e+03,2.431824e+02
2.519544e+03,2.382069e+02
2.520508e+03,2.370459e+02
2.521472e+03,2.424035e+02
2.522436e+03,2.468423e+02
2.523401e+03,2.434652e+02
2.524365e+03,2.419554e+02
2.525329e+03,2.426982e+02
2.526293e+03,2.453507e+02
2.527258e+03,2.505311e+02
2.528222e+03,2.462455e+02
2.529186e+03,2.365721e+02
2.530150e+03,2.351027e+02
2.531115e+03,2.391387e+02
2.532079e+03,2.377450e+02
2.533043e+03,2.346607e+02
2.534007e+03,2.336718e+02
2.534971e+03,2.340803e+02
2.535936e+03,2.362007e+02
2.536900e+03,2.387691e+02
2.537864e+03,2.417028e+02
2.538828e+03,2.420097e+02
2.539792e+03,2.362219e+02
2.540757e+03,2.349529e+02
2.541721e+03,2.392058e+02
2.542685e+03,2.414823e+02
2.543649e+03,2.413948e+02
2.544614e+03,2.465096e+02
2.545578e+03,2.537052e+02
2.546542e+03,2.538697e+02
2.547506e+03,2.494286e+02
2.548471e+03,2.435314e+02
2.549435e+03,2.400000e+02
2.550399e+03,2.435898e+02
2.551363e+03,2.476638e+02
2.552328e+03,2.466989e+02
2.553292e+03,2.449357e+02
2.554256e+03,2.432896e+02
2.555220e+03,2.436952e+02
2.556185e+03,2.462988e+02
2.557149e+03,2.464830e+02
2.558113e+03,2.436223e+02
2.559077e+03,2.432250e+02
2.560042e+03,2.447030e+02
2.561006e+03,2.471084e+02
2.561970e+03,2.488542e+02
2.562934e+03,2.450181e+02
2.563898e+03,2.400648e+02
2.564863e+03,2.392845e+02
2.565827e+03,2.394002e+02
2.566791e+03,2.375651e+02
2.567755e+03,2.388841e+02
2.568719e+03,2.444921e+02
2.569684e+03,2.459812e+02
2.570648e+03,2.378376e+02
2.571612e+03,2.322721e+02
2.572576e+03,2.301854e+02
2.573541e+03,2.349840e+02
2.574505e+03,2.441758e+02
2.575469e+03,2.449443e+02
2.576433e+03,2.412666e+02
2.577398e+03,2.395875e+02
2.578362e+03,2.379482e+02
2.579326e+03,2.307524e+02
2.580290e+03,2.277206e+02
2.581255e+03,2.331327e+02
2.582219e+03,2.372144e+02
2.583183e+03,2.306585e+02
2.584147e+03,2.277069e+02
2.585112e+03,2.289423e+02
2.586076e+03,2.266379e+02
2.587040e+03,2.195550e+02
2.588004e+03,2.245345e+02
2.588969e+03,2.357008e+02
2.589933e+03,2.417843e+02
2.590897e+03,2.423848e+02
2.591861e+03,2.318283e+02
2.592825e+03,2.232876e+02
2.593790e+03,2.258050e+02
2.594754e+03,2.294877e+02
2.595718e+03,2.272408e+02
2.596682e+03,2.264780e+02
2.597646e+03,2.286051e+02
2.598611e+03,2.302845e+02
2.599575e+03,2.312032e+02
2.600539e+03,2.291787e+02
2.601503e+03,2.259855e+02
2.602468e+03,2.303239e+02
2.603432e+03,2.372859e+02
2.604396e+03,2.371444e+02
2.605360e+03,2.341351e+02
2.606325e+03,2.297118e+02
2.607289e+03,2.273431e+02
2.608253e+03,2.289888e+02
2.609217e+03,2.290496e+02
2.610182e+03,2.237135e+02
2.611146e+03,2.195092e+02
2.612110e+03,2.171187e+02
2.613074e+03,2.183232e+02
2.614039e+03,2.224958e+02
2.615003e+03,2.236743e+02
2.615967e+03,2.242347e+02
2.616931e+03,2.295639e+02
2.617896e+03,2.342394e+02
2.618860e+03,2.280884e+02
2.619824e+03,2.234494e+02
2.620788e+03,2.248912e+02
2.621752e+03,2.273458e+02
2.622717e+03,2.284824e+02
2.623681e+03,2.299466e+02
2.624645e+03,2.314319e+02
2.625609e+03,2.304863e+02
2.626573e+03,2.274777e+02
2.627538e+03,2.233610e+02
2.628502e+03,2.208982e+02
2.629466e+03,2.247529e+02
2.630430e+03,2.289053e+02
2.631395e+03,2.243534e+02
2.632359e+03,2.177109e+02
2.633323e+03,2.097495e+02
2.634287e+03,2.073150e+02
2.635252e+03,2.113506e+02
2.636216e+03,2.182386e+02
2.637180e+03,2.262547e+02
2.638144e+03,2.239751e+02
2.639109e+03,2.159699e+02
2.640073e+03,2.158936e+02
2.641037e+03,2.191932e+02
2.642001e+03,2.184409e+02
2.642966e+03,2.178742e+02
2.643930e+03,2.202908e+02
2.644894e+03,2.213788e+02
2.645858e+03,2.161417e+02
2.646823e+03,2.138556e+02
2.647787e+03,2.147148e+02
2.648751e+03,2.175564e+02
2.649715e+03,2.216149e+02
2.650679e+03,2.237353e+02
2.651644e+03,2.238174e+02
2.652608e+03,2.214104e+02
2.653572e+03,2.188471e+02
2.654536e+03,2.196777e+02
2.655500e+03,2.223480e+02
2.656465e+03,2.271848e+02
2.657429e+03,2.257792e+02
2.658393e+03,2.147651e+02
2.659357e+03,2.119766e+02
2.660322e+03,2.184876e+02
2.661286e+03,2.199482e+02
2.662250e+03,2.177979e+02
2.663214e+03,2.170748e+02
2.664179e+03,2.172602e+02
2.665143e+03,2.180748e+02
2.666107e+03,2.187847e+02
2.667071e+03,2.191961e+02
2.668036e+03,2.185419e+02
2.669000e+03,2.150298e+02
2.669964e+03,2.133320e+02
2.670928e+03,2.136037e+02
2.671893e+03,2.180423e+02
2.672857e+03,2.240662e+02
2.673821e+03,2.163638e+02
2.674785e+03,2.058712e+02
2.675750e+03,2.045731e+02
2.676714e+03,2.078326e+02
2.677678e+03,2.139009e+02
2.678642e+03,2.159916e+02
2.679606e+03,2.124403e+02
2.680571e+03,2.102605e+02
2.681535e+03,2.106660e+02
2.682499e+03,2.142202e+02
2.683463e+03,2.188238e+02
2.684427e+03,2.174078e+02
2.685392e+03,2.138131e+02
2.686356e+03,2.150028e+02
2.687320e+03,2.166806e+02
2.688284e+03,2.173976e+02
2.689249e+03,2.138417e+02
2.690213e+03,2.056179e+02
2.691177e+03,2.040722e+02
2.692141e+03,2.141792e+02
2.693106e+03,2.152674e+02
2.694070e+03,2.109834e+02
2.695034e+03,2.097416e+02
2.695998e+03,2.105815e+02
2.696963e+03,2.133137e+02
2.697927e+03,2.133279e+02
2.698891e+03,2.078311e+02
2.699855e+03,2.038254e+02
2.700820e+03,2.052298e+02
2.701784e+03,2.067580e+02
2.702748e+03,2.077195e+02
2.703712e+03,2.078897e+02
2.704677e+03,2.077559e+02
2.705641e+03,2.102775e+02
2.706605e+03,2.122500e+02
2.707569e+03,2.074405e+02
2.708533e+03,2.044230e+02
2.709498e+03,2.071887e+02
2.710462e+03,2.098655e+02
2.711426e+03,2.101511e+02
2.712390e+03,2.105781e+02
2.713354e+03,2.108874e+02
2.714319e+03,2.091236e+02
2.715283e+03,2.065309e+02
2.716247e+03,2.060639e+02
2.717211e+03,2.067821e+02
2.718176e+03,2.079243e+02
2.719140e+03,2.092045e+02
2.720104e+03,2.104717e+02
2.721068e+03,2.116152e+02
2.722033e+03,2.124772e+02
2.722997e+03,2.105767e+02
2.723961e+03,2.075362e+02
2.724925e+03,2.131904e+02
2.725890e+03,2.199581e+02
2.726854e+03,2.152320e+02
2.727818e+03,2.092344e+02
2.728782e+03,2.074547e+02
2.729747e+03,2.060501e+02
2.730711e+03,2.020796e+02
2.731675e+03,2.042773e+02
2.732639e+03,2.109897e+02
2.733604e+03,2.139456e+02
2.734568e+03,2.134137e+02
2.735532e+03,2.086873e+02
2.736496e+03,2.048845e+02
2.737460e+03,2.063092e+02
2.738425e+03,2.069034e+02
2.739389e+03,2.017484e+02
2.740353e+03,2.021186e+02
2.741317e+03,2.093061e+02
2.742281e+03,2.112158e+02
2.743246e+03,2.092223e+02
2.744210e+03,2.089898e+02
2.745174e+03,2.092311e+02
2.746138e+03,2.081211e+02
2.747103e+03,2.080323e+02
2.748067e+03,2.101719e+02
2.749031e+03,2.100689e+02
2.749995e+03,2.028446e+02
2.750960e+03,2.042187e+02
2.751924e+03,2.111257e+02
2.752888e+03,2.141309e+02
2.753852e+03,2.131255e+02
2.754817e+03,2.057111e+02
2.755781e+03,1.992367e+02
2.756745e+03,1.974523e+02
2.757709e+03,1.996199e+02
2.758674e+03,2.049480e+02
2.759638e+03,2.080499e+02
2.760602e+03,2.082867e+02
2.761566e+03,2.130050e+02
2.762531e+03,2.161385e+02
2.763495e+03,2.033942e+02
2.764459e+03,1.896696e+02
2.765423e+03,1.908468e+02
2.766387e+03,1.947822e+02
2.767352e+03,1.985939e+02
2.768316e+03,2.027514e+02
2.769280e+03,2.072504e+02
2.770244e+03,2.069496e+02
2.771208e+03,2.042612e+02
2.772173e+03,2.045117e+02
2.773137e+03,2.050814e+02
2.774101e+03,2.032290e+02
2.775065e+03,2.013103e+02
2.776030e+03,2.000161e+02
2.776994e+03,1.976402e+02
2.777958e+03,1.950885e+02
2.778922e+03,2.029300e+02
2.779887e+03,2.148261e+02
2.780851e+03,2.100367e+02
2.781815e+03,2.015704e+02
2.782779e+03,1.987255e+02
2.783744e+03,2.002796e+02
2.784708e+03,2.079590e+02
2.785672e+03,2.057152e+02
2.786636e+03,1.948669e+02
2.787601e+03,1.975066e+02
2.788565e+03,2.075617e+02
2.789529e+03,2.043787e+02
2.790493e+03,2.001874e+02
2.791458e+03,2.105871e+02
2.792422e+03,2.110262e+02
2.793386e+03,1.974333e+02
2.794350e+03,1.885490e+02
2.795314e+03,1.889711e+02
2.796279e+03,1.944366e+02
2.797243e+03,2.017861e+02
2.798207e+03,2.074080e+02
2.799171e+03,2.094192e+02
2.800135e+03,2.012193e+02
2.801100e+03,1.961332e+02
2.802064e+03,1.975098e+02
2.803028e+03,2.041535e+02
2.803992e+03,2.130282e+02
2.804957e+03,2.113510e+02
2.805921e+03,2.043983e+02
2.806885e+03,2.010337e+02
2.807849e+03,2.001274e+02
2.808814e+03,2.007532e+02
2.809778e+03,2.012414e+02
2.810742e+03,2.007538e+02
2.811706e+03,2.016330e+02
2.812671e+03,2.025889e+02
2.813635e+03,1.989048e+02
2.814599e+03,1.945624e+02
2.815563e+03,2.003318e+02
2.816528e+03,2.039076e+02
2.817492e+03,1.978794e+02
2.818456e+03,1.949421e+02
2.819420e+03,1.962158e+02
2.820385e+03,1.991812e+02
2.821349e+03,2.018336e+02
2.822313e+03,1.948480e+02
2.823277e+03,1.894561e+02
2.824241e+03,1.944600e+02
2.825206e+03,2.001720e+02
2.826170e+03,2.014715e+02
2.827134e+03,1.985140e+02
2.828098e+03,1.924973e+02
2.829063e+03,1.937556e+02
2.830027e+03,1.986139e+02
2.830991e+03,1.990460e+02
2.831955e+03,1.994209e+02
2.832919e+03,2.051754e+02
2.833884e+03,2.037879e+02
2.834848e+03,1.947338e+02
2.835812e+03,1.973263e+02
2.836776e+03,2.102447e+02
2.837741e+03,2.048981e+02
2.838705e+03,1.935525e+02
2.839669e+03,1.888149e+02
2.840633e+03,1.898695e+02
2.841598e+03,1.966171e+02
2.842562e+03,2.008511e+02
2.843526e+03,2.006174e+02
2.844490e+03,2.030860e+02
2.845455e+03,2.045524e+02
2.846419e+03,1.971084e+02
2.847383e+03,1.896682e+02
2.848347e+03,1.940980e+02
2.849312e+03,1.962691e+02
2.850276e+03,1.939187e+02
2.851240e+03,1.989868e+02
2.852204e+03,2.088645e+02
2.853168e+03,2.044026e+02
2.854133e+03,1.959837e+02
2.855097e+03,1.992211e+02
2.856061e+03,2.000139e+02
2.857025e+03,1.936859e+02
2.857990e+03,1.904420e+02
2.858954e+03,1.934187e+02
2.859918e+03,2.009525e+02
2.860882e+03,2.091158e+02
2.861846e+03,2.122367e+02
2.862811e+03,2.114763e+02
2.863775e+03,2.062392e+02
2.864739e+03,2.036329e+02
2.865703e+03,2.057259e+02
2.866668e+03,2.069773e+02
2.867632e+03,2.067100e+02
2.868596e+03,2.024596e+02
2.869560e+03,1.987554e+02
2.870525e+03,2.041666e+02
2.871489e+03,2.050495e+02
2.872453e+03,1.980366e+02
2.873417e+03,2.022479e+02
2.874382e+03,2.160100e+02
2.875346e+03,2.154772e+02
2.876310e+03,2.095470e+02
2.877274e+03,2.122379e+02
2.878239e+03,2.150569e+02
2.879203e+03,2.146929e+02
2.880167e+03,2.101824e+02
2.881131e+03,2.010796e+02
2.882095e+03,2.059506e+02
2.883060e+03,2.170723e+02
2.884024e+03,2.219010e+02
2.884988e+03,2.227564e+02
2.885952e+03,2.213011e+02
2.886917e+03,2.177519e+02
2.887881e+03,2.121571e+02
2.888845e+03,2.085174e+02
2.889809e+03,2.068704e+02
2.890773e+03,2.072574e+02
2.891738e+03,2.077475e+02
2.892702e+03,2.072410e+02
2.893666e+03,2.042537e+02
2.894630e+03,1.990702e+02
2.895595e+03,2.042706e+02
2.896559e+03,2.156735e+02
2.897523e+03,2.114800e+02
2.898487e+03,2.035844e+02
2.899452e+03,2.040331e+02
2.900416e+03,2.085509e+02
2.901380e+03,2.150836e+02
2.902344e+03,2.127424e+02
2.903309e+03,2.019864e+02
2.904273e+03,2.022119e+02
2.905237e+03,2.067432e+02
2.906201e+03,2.090636e+02
2.907166e+03,2.066174e+02
2.908130e+03,1.983577e+02
2.909094e+03,1.974323e+02
2.910058e+03,2.045124e+02
2.911022e+03,1.972319e+02
2.911987e+03,1.897443e+02
2.912951e+03,1.979699e+02
2.913915e+03,2.081486e+02
2.914879e+03,2.114500e+02
2.915844e+03,2.093656e+02
2.916808e+03,2.036441e+02
2.917772e+03,2.049419e+02
2.918736e+03,2.086394e+02
2.919700e+03,2.070762e+02
2.920665e+03,2.043810e+02
2.921629e+03,2.027322e+02
2.922593e+03,2.022881e+02
2.923557e+03,2.023739e+02
2.924522e+03,1.985589e+02
2.925486e+03,1.938920e+02
2.926450e+03,1.986837e+02
2.927414e+03,1.989686e+02
2.928379e+03,1.849954e+02
2.929343e+03,1.842971e+02
2.930307e+03,1.954290e+02
2.931271e+03,1.987343e+02
2.932236e+03,1.966527e+02
2.933200e+03,1.930149e+02
2.934164e+03,1.886815e+02
2.935128e+03,1.833968e+02
2.936093e+03,1.861618e+02
2.937057e+03,1.953346e+02
2.938021e+03,1.945585e+02
2.938985e+03,1.910122e+02
2.939949e+03,1.992987e+02
2.940914e+03,2.047274e+02
2.941878e+03,2.025266e+02
2.942842e+03,2.043215e+02
2.943806e+03,2.111763e+02
2.944771e+03,2.084412e+02
2.945735e+03,2.021600e+02
2.946699e+03,2.020408e+02
2.947663e+03,1.980406e+02
2.948627e+03,1.869470e+02
2.949592e+03,1.893991e+02
2.950556e+03,2.062572e+02
2.951520e+03,2.005698e+02
2.952484e+03,1.886777e+02
2.953449e+03,1.862522e+02
2.954413e+03,1.962144e+02
2.955377e+03,2.192320e+02
2.956341e+03,2.353296e+02
2.957306e+03,2.407208e+02
2.958270e+03,2.374251e+02
2.959234e+03,2.240740e+02
2.960198e+03,1.999744e+02
2.961163e+03,1.849091e+02
2.962127e+03,1.882743e+02
2.963091e+03,1.933973e+02
2.964055e+03,1.962539e+02
2.965020e+03,1.876512e+02
2.965984e+03,1.818748e+02
2.966948e+03,1.897813e+02
2.967912e+03,1.938135e+02
2.968876e+03,1.850100e+02
2.969841e+03,1.807113e+02
2.970805e+03,1.811316e+02
2.971769e+03,1.875998e+02
2.972733e+03,1.903941e+02
2.973698e+03,1.817415e+02
2.974662e+03,1.752993e+02
2.975626e+03,1.750879e+02
2.976590e+03,1.825257e+02
2.977554e+03,1.916408e+02
2.978519e+03,1.952686e+02
2.979483e+03,1.922449e+02
2.980447e+03,1.801210e+02
2.981411e+03,1.739776e+02
2.982376e+03,1.763284e+02
2.983340e+03,1.837742e+02
2.984304e+03,1.884611e+02
2.985268e+03,1.814447e+02
2.986233e+03,1.811039e+02
2.987197e+03,2.029029e+02
2.988161e+03,1.952688e+02
2.989125e+03,1.699851e+02
2.990090e+03,1.735901e+02
2.991054e+03,1.850482e+02
2.992018e+03,1.872207e+02
2.992982e+03,1.860489e+02
2.993947e+03,1.831681e+02
2.994911e+03,1.792308e+02
2.995875e+03,1.794761e+02
2.996839e+03,1.952474e+02
2.997803e+03,1.999478e+02
2.998768e+03,1.758551e+02
2.999732e+03,1.568099e+02
3.000696e+03,1.509173e+02
3.001660e+03,1.619689e+02
3.002625e+03,1.729465e+02
3.003589e+03,1.661993e+02
3.004553e+03,1.631336e+02
3.005517e+03,1.744694e+02
3.006481e+03,1.824782e+02
3.007446e+03,1.837360e+02
3.008410e+03,1.702704e+02
3.009374e+03,1.652193e+02
3.010338e+03,1.826475e+02
3.011303e+03,1.906170e+02
3.012267e+03,1.784590e+02
3.013231e+03,1.795565e+02
3.014195e+03,1.849140e+02
3.015160e+03,1.738585e+02
3.016124e+03,1.695909e+02
3.017088e+03,1.791804e+02
3.018052e+03,1.864349e+02
3.019017e+03,1.873254e+02
3.019981e+03,1.722266e+02
3.020945e+03,1.596685e+02
3.021909e+03,1.662463e+02
3.022874e+03,1.732821e+02
3.023838e+03,1.759121e+02
3.024802e+03,1.789063e+02
3.025766e+03,1.791514e+02
3.026730e+03,1.593844e+02
3.027695e+03,1.500831e+02
3.028659e+03,1.642625e+02
3.029623e+03,1.749269e+02
3.030587e+03,1.782785e+02
3.031552e+03,1.747734e+02
3.032516e+03,1.704143e+02
3.033480e+03,1.731319e+02
3.034444e+03,1.741958e+02
3.035408e+03,1.724228e+02
3.036373e+03,1.713477e+02
3.037337e+03,1.726465e+02
3.038301e+03,1.873780e+02
3.039265e+03,1.956336e+02
3.040230e+03,1.790309e+02
3.041194e+03,1.743172e+02
3.042158e+03,1.779478e+02
3.043122e+03,1.663088e+02
3.044087e+03,1.557980e+02
3.045051e+03,1.750642e+02
3.046015e+03,1.878005e+02
3.046979e+03,1.830478e+02
3.047944e+03,1.730983e+02
3.048908e+03,1.637297e+02
3.049872e+03,1.625683e+02
3.050836e+03,1.639046e+02
3.051801e+03,1.638760e+02
3.052765e+03,1.677785e+02
3.053729e+03,1.735560e+02
3.054693e+03,1.674816e+02
3.055657e+03,1.631968e+02
3.056622e+03,1.696787e+02
3.057586e+03,1.783187e+02
3.058550e+03,1.861939e+02
3.059514e+03,1.884263e+02
3.060479e+03,1.858992e+02
3.061443e+03,1.784000e+02
3.062407e+03,1.725966e+02
3.063371e+03,1.699301e+02
3.064335e+03,1.592740e+02
3.065300e+03,1.462869e+02
3.066264e+03,1.673609e+02
3.067228e+03,1.887215e+02
3.068192e+03,1.886371e+02
3.069157e+03,1.820868e+02
3.070121e+03,1.746332e+02
3.071085e+03,1.797390e+02
3.072049e+03,1.840083e+02
3.073014e+03,1.567883e+02
3.073978e+03,1.490269e+02
3.074942e+03,1.706645e+02
3.075906e+03,1.669190e+02
3.076871e+03,1.562307e+02
3.077835e+03,1.720155e+02
3.078799e+03,1.863940e+02
3.079763e+03,1.810595e+02
3.080728e+03,1.708380e+02
3.081692e+03,1.616782e+02
3.082656e+03,1.683694e+02
3.083620e+03,1.775084e+02
3.084584e+03,1.812704e+02
3.085549e+03,1.840567e+02
3.086513e+03,1.868951e+02
3.087477e+03,1.805523e+02
3.088441e+03,1.722857e+02
3.089406e+03,1.683248e+02
3.090370e+03,1.745522e+02
3.091334e+03,1.882153e+02
3.092298e+03,1.852643e+02
3.093262e+03,1.759946e+02
3.094227e+03,1.882492e+02
3.095191e+03,1.898766e+02
3.096155e+03,1.682767e+02
3.097119e+03,1.672056e+02
3.098084e+03,1.787601e+02
3.099048e+03,1.812638e+02
3.100012e+03,1.851208e+02
3.100976e+03,2.030435e+02
3.101941e+03,1.944336e+02
3.102905e+03,1.635475e+02
3.103869e+03,1.602430e+02
3.104833e+03,1.611935e+02
3.105798e+03,1.501605e+02
3.106762e+03,1.509801e+02
3.107726e+03,1.670830e+02
3.108690e+03,1.763671e+02
3.109655e+03,1.773090e+02
3.110619e+03,1.599917e+02
3.111583e+03,1.620667e+02
3.112547e+03,1.830356e+02
3.113511e+03,1.764703e+02
3.114476e+03,1.602074e+02
3.115440e+03,1.837956e+02
3.116404e+03,2.009509e+02
3.117368e+03,1.936364e+02
3.118333e+03,1.882569e+02
3.119297e+03,1.877501e+02
3.120261e+03,1.968852e+02
3.121225e+03,1.979684e+02
3.122189e+03,1.808940e+02
3.123154e+03,1.777834e+02
3.124118e+03,1.852566e+02
3.125082e+03,1.758177e+02
3.126046e+03,1.677623e+02
3.127011e+03,1.698536e+02
3.127975e+03,1.706936e+02
3.128939e+03,1.693772e+02
3.129903e+03,1.712530e+02
3.130868e+03,1.741134e+02
3.131832e+03,1.757446e+02
3.132796e+03,1.791917e+02
3.133760e+03,1.839798e+02
3.134725e+03,1.879540e+02
3.135689e+03,1.884188e+02
3.136653e+03,1.821823e+02
3.137617e+03,1.833109e+02
3.138582e+03,1.960796e+02
3.139546e+03,1.977098e+02
3.140510e+03,1.953514e+02
3.141474e+03,1.995048e+02
3.142438e+03,1.921051e+02
3.143403e+03,1.738324e+02
3.144367e+03,1.691137e+02
3.145331e+03,1.712096e+02
3.146295e+03,1.678429e+02
3.147260e+03,1.683698e+02
3.148224e+03,1.755335e+02
3.149188e+03,1.944401e+02
3.150152e+03,2.049048e+02
3.151116e+03,1.807456e+02
3.152081e+03,1.615235e+02
3.153045e+03,1.642195e+02
3.154009e+03,1.645191e+02
3.154973e+03,1.609246e+02
3.155938e+03,1.478730e+02
3.156902e+03,1.482278e+02
3.157866e+03,1.654994e+02
3.158830e+03,1.770426e+02
3.159795e+03,1.822423e+02
3.160759e+03,1.800462e+02
3.161723e+03,1.832587e+02
3.162687e+03,2.104787e+02
3.163652e+03,1.905057e+02
3.164616e+03,1.571270e+02
3.165580e+03,1.804049e+02
3.166544e+03,1.957114e+02
3.167509e+03,1.772818e+02
3.168473e+03,1.780615e+02
3.169437e+03,1.913672e+02
3.170401e+03,1.678009e+02
3.171365e+03,1.560042e+02
3.172330e+03,1.780983e+02
3.173294e+03,1.994593e+02
3.174258e+03,2.108285e+02
3.175222e+03,1.999993e+02
3.176187e+03,1.914095e+02
3.177151e+03,2.016787e+02
3.178115e+03,2.046771e+02
3.179079e+03,1.975903e+02
3.180043e+03,1.704066e+02
3.181008e+03,1.653711e+02
3.181972e+03,1.940648e+02
3.182936e+03,1.974802e+02
3.183900e+03,1.791776e+02
3.184865e+03,1.554715e+02
3.185829e+03,1.489394e+02
3.186793e+03,1.974468e+02
3.187757e+03,1.961954e+02
3.188722e+03,1.641424e+02
3.189686e+03,1.430484e+02
3.190650e+03,1.494613e+02
3.191614e+03,1.831050e+02
3.192579e+03,1.876541e+02
3.193543e+03,1.712144e+02
3.194507e+03,1.719118e+02
3.195471e+03,1.743201e+02
3.196436e+03,1.721104e+02
3.197400e+03,1.822842e+02
3.198364e+03,1.999418e+02
3.199328e+03,2.180240e+02
3.200292e+03,2.228870e+02
3.201257e+03,0.000000e+00
3.202221e+03,0.000000e+00
3.203185e+03,0.000000e+00
3.204149e+03,0.000000e+00
3.205114e+03,0.000000e+00
3.206078e+03,0.000000e+00
3.207042e+03,0.000000e+00
3.208006e+03,0.000000e+00
3.208970e+03,0.000000e+00
3.209935e+03,0.000000e+00
3.210899e+03,0.000000e+00
3.211863e+03,0.000000e+00
3.212827e+03,0.000000e+00
3.213792e+03,0.000000e+00
3.214756e+03,0.000000e+00
3.215720e+03,0.000000e+00
3.216684e+03,0.000000e+00
3.217649e+03,0.000000e+00
3.218613e+03,0.000000e+00
3.219577e+03,0.000000e+00
3.220541e+03,0.000000e+00
3.221506e+03,0.000000e+00
3.222470e+03,0.000000e+00
3.223434e+03,0.000000e+00
3.224398e+03,0.000000e+00
3.225363e+03,0.000000e+00
3.226327e+03,0.000000e+00
3.227291e+03,0.000000e+00
3.228255e+03,0.000000e+00
3.229219e+03,0.000000e+00
3.230184e+03,0.000000e+00
3.231148e+03,0.000000e+00
3.232112e+03,0.000000e+00
3.233076e+03,0.000000e+00
3.234041e+03,0.000000e+00
3.235005e+03,0.000000e+00
3.235969e+03,0.000000e+00
3.236933e+03,0.000000e+00
3.237897e+03,0.000000e+00
3.238862e+03,0.000000e+00
3.239826e+03,0.000000e+00
3.240790e+03,0.000000e+00
3.241754e+03,0.000000e+00
3.242719e+03,0.000000e+00
3.243683e+03,0.000000e+00
3.244647e+03,0.000000e+00
3.245611e+03,0.000000e+00
3.246576e+03,0.000000e+00
3.247540e+03,0.000000e+00
3.248504e+03,0.000000e+00
3.249468e+03,0.000000e+00
3.250433e+03,0.000000e+00
3.251397e+03,0.000000e+00
3.252361e+03,0.000000e+00
3.253325e+03,0.000000e+00
3.254290e+03,0.000000e+00
3.255254e+03,0.000000e+00
3.256218e+03,0.000000e+00
3.257182e+03,0.000000e+00
3.258146e+03,0.000000e+00
3.259111e+03,0.000000e+00
3.260075e+03,0.000000e+00
3.261039e+03,0.000000e+00
3.262003e+03,0.000000e+00
3.262968e+03,0.000000e+00
3.263932e+03,0.000000e+00
3.264896e+03,0.000000e+00
3.265860e+03,0.000000e+00
3.266824e+03,0.000000e+00
3.267789e+03,0.000000e+00
3.268753e+03,0.000000e+00
3.269717e+03,0.000000e+00
3.270681e+03,0.000000e+00
3.271646e+03,0.000000e+00
3.272610e+03,0.000000e+00
3.273574e+03,0.000000e+00
3.274538e+03,0.000000e+00
3.275503e+03,0.000000e+00
3.276467e+03,0.000000e+00
3.277431e+03,0.000000e+00
3.278395e+03,0.000000e+00
3.279360e+03,0.000000e+00
3.280324e+03,0.000000e+00
3.281288e+03,0.000000e+00
3.282252e+03,0.000000e+00
3.283217e+03,0.000000e+00
3.284181e+03,0.000000e+00
3.285145e+03,0.000000e+00
3.286109e+03,0.000000e+00
3.287073e+03,0.000000e+00
3.288038e+03,0.000000e+00
3.289002e+03,0.000000e+00
3.289966e+03,0.000000e+00
3.290930e+03,0.000000e+00
3.291895e+03,0.000000e+00
3.292859e+03,0.000000e+00
3.293823e+03,0.000000e+00
3.294787e+03,0.000000e+00
3.295751e+03,0.000000e+00
3.296716e+03,0.000000e+00
3.297680e+03,0.000000e+00
3.298644e+03,0.000000e+00
3.299608e+03,0.000000e+00
3.300573e+03,0.000000e+00
3.301537e+03,0.000000e+00
3.302501e+03,0.000000e+00
3.303465e+03,0.000000e+00
3.304430e+03,0.000000e+00
3.305394e+03,0.000000e+00
3.306358e+03,0.000000e+00
3.307322e+03,0.000000e+00
3.308287e+03,0.000000e+00
3.309251e+03,0.000000e+00
3.310215e+03,0.000000e+00
3.311179e+03,0.000000e+00
3.312144e+03,0.000000e+00
3.313108e+03,0.000000e+00
3.314072e+03,0.000000e+00
3.315036e+03,0.000000e+00
3.316000e+03,0.000000e+00
3.316965e+03,0.000000e+00
3.317929e+03,0.000000e+00
3.318893e+03,0.000000e+00
3.319857e+03,0.000000e+00
3.320822e+03,0.000000e+00
3.321786e+03,0.000000e+00
3.322750e+03,0.000000e+00
3.323714e+03,0.000000e+00
3.324678e+03,0.000000e+00
3.325643e+03,0.000000e+00
3.326607e+03,0.000000e+00
3.327571e+03,0.000000e+00
3.328535e+03,0.000000e+00
3.329500e+03,0.000000e+00
3.330464e+03,0.000000e+00
3.331428e+03,0.000000e+00
3.332392e+03,0.000000e+00
3.333357e+03,0.000000e+00
3.334321e+03,0.000000e+00
3.335285e+03,0.000000e+00
3.336249e+03,0.000000e+00
3.337214e+03,0.000000e+00
3.338178e+03,0.000000e+00
3.339142e+03,0.000000e+00
3.340106e+03,0.000000e+00
3.341071e+03,0.000000e+00
3.342035e+03,0.000000e+00
3.342999e+03,0.000000e+00
3.343963e+03,0.000000e+00
3.344927e+03,0.000000e+00
3.345892e+03,0.000000e+00
3.346856e+03,0.000000e+00
3.347820e+03,0.000000e+00
3.348784e+03,0.000000e+00
3.349749e+03,0.000000e+00
3.350713e+03,0.000000e+00
3.351677e+03,0.000000e+00
3.352641e+03,0.000000e+00
3.353605e+03,0.000000e+00
3.354570e+03,0.000000e+00
3.355534e+03,0.000000e+00
3.356498e+03,0.000000e+00
3.357462e+03,0.000000e+00
3.358427e+03,0.000000e+00
3.359391e+03,0.000000e+00
3.360355e+03,0.000000e+00
3.361319e+03,0.000000e+00
3.362284e+03,0.000000e+00
3.363248e+03,0.000000e+00
3.364212e+03,0.000000e+00
3.365176e+03,0.000000e+00
3.366141e+03,0.000000e+00
3.367105e+03,0.000000e+00
3.368069e+03,0.000000e+00
3.369033e+03,0.000000e+00
3.369998e+03,0.000000e+00
3.370962e+03,0.000000e+00
3.371926e+03,0.000000e+00
3.372890e+03,0.000000e+00
3.373854e+03,0.000000e+00
3.374819e+03,0.000000e+00
3.375783e+03,0.000000e+00
3.376747e+03,0.000000e+00
3.377711e+03,0.000000e+00
3.378676e+03,0.000000e+00
3.379640e+03,0.000000e+00
3.380604e+03,0.000000e+00
3.381568e+03,0.000000e+00
3.382532e+03,0.000000e+00
3.383497e+03,0.000000e+00
3.384461e+03,0.000000e+00
3.385425e+03,0.000000e+00
3.386389e+03,0.000000e+00
3.387354e+03,0.000000e+00
3.388318e+03,0.000000e+00
3.389282e+03,0.000000e+00
3.390246e+03,0.000000e+00
3.391211e+03,0.000000e+00
3.392175e+03,0.000000e+00
3.393139e+03,0.000000e+00
3.394103e+03,0.000000e+00
3.395068e+03,0.000000e+00
3.396032e+03,0.000000e+00
3.396996e+03,0.000000e+00
3.397960e+03,0.000000e+00
3.398925e+03,0.000000e+00
3.399889e+03,0.000000e+00
3.400853e+03,0.000000e+00
3.401817e+03,0.000000e+00
3.402781e+03,0.000000e+00
3.403746e+03,0.000000e+00
3.404710e+03,0.000000e+00
3.405674e+03,0.000000e+00
3.406638e+03,0.000000e+00
3.407603e+03,0.000000e+00
3.408567e+03,0.000000e+00
3.409531e+03,0.000000e+00
3.410495e+03,0.000000e+00
3.411459e+03,0.000000e+00
3.412424e+03,0.000000e+00
3.413388e+03,0.000000e+00
3.414352e+03,0.000000e+00
3.415316e+03,0.000000e+00
3.416281e+03,0.000000e+00
3.417245e+03,0.000000e+00
3.418209e+03,0.000000e+00
3.419173e+03,0.000000e+00
3.420138e+03,0.000000e+00
3.421102e+03,0.000000e+00
3.422066e+03,0.000000e+00
3.423030e+03,0.000000e+00
3.423995e+03,0.000000e+00
3.424959e+03,0.000000e+00
3.425923e+03,0.000000e+00
3.426887e+03,0.000000e+00
3.427852e+03,0.000000e+00
3.428816e+03,0.000000e+00
3.429780e+03,0.000000e+00
3.430744e+03,0.000000e+00
3.431708e+03,0.000000e+00
3.432673e+03,0.000000e+00
3.433637e+03,0.000000e+00
3.434601e+03,0.000000e+00
3.435565e+03,0.000000e+00
3.436530e+03,0.000000e+00
3.437494e+03,0.000000e+00
3.438458e+03,0.000000e+00
3.439422e+03,0.000000e+00
3.440386e+03,0.000000e+00
3.441351e+03,0.000000e+00
3.442315e+03,0.000000e+00
3.443279e+03,0.000000e+00
3.444243e+03,0.000000e+00
3.445208e+03,0.000000e+00
3.446172e+03,0.000000e+00
3.447136e+03,0.000000e+00
3.448100e+03,0.000000e+00
3.449065e+03,0.000000e+00
3.450029e+03,0.000000e+00
3.450993e+03,0.000000e+00
3.451957e+03,0.000000e+00
3.452922e+03,0.000000e+00
3.453886e+03,0.000000e+00
3.454850e+03,0.000000e+00
3.455814e+03,0.000000e+00
3.456779e+03,0.000000e+00
3.457743e+03,0.000000e+00
3.458707e+03,0.000000e+00
3.459671e+03,0.000000e+00
3.460635e+03,0.000000e+00
3.461600e+03,0.000000e+00
3.462564e+03,0.000000e+00
3.463528e+03,0.000000e+00
3.464492e+03,0.000000e+00
3.465457e+03,0.000000e+00
3.466421e+03,0.000000e+00
3.467385e+03,0.000000e+00
3.468349e+03,0.000000e+00
3.469313e+03,0.000000e+00
3.470278e+03,0.000000e+00
3.471242e+03,0.000000e+00
3.472206e+03,0.000000e+00
3.473170e+03,0.000000e+00
3.474135e+03,0.000000e+00
3.475099e+03,0.000000e+00
3.476063e+03,0.000000e+00
3.477027e+03,0.000000e+00
3.477992e+03,0.000000e+00
3.478956e+03,0.000000e+00
3.479920e+03,0.000000e+00
3.480884e+03,0.000000e+00
3.481849e+03,0.000000e+00
3.482813e+03,0.000000e+00
3.483777e+03,0.000000e+00
3.484741e+03,0.000000e+00
3.485706e+03,0.000000e+00
3.486670e+03,0.000000e+00
3.487634e+03,0.000000e+00
3.488598e+03,0.000000e+00
3.489563e+03,0.000000e+00
3.490527e+03,0.000000e+00
3.491491e+03,0.000000e+00
3.492455e+03,0.000000e+00
3.493419e+03,0.000000e+00
3.494384e+03,0.000000e+00
3.495348e+03,0.000000e+00
3.496312e+03,0.000000e+00
3.497276e+03,0.000000e+00
3.498240e+03,0.000000e+00
3.499205e+03,0.000000e+00
3.500169e+03,0.000000e+00
