9.931763e+01,0.000000e+00
1.002819e+02,0.000000e+00
1.012461e+02,0.000000e+00
1.022103e+02,0.000000e+00
1.031746e+02,0.000000e+00
1.041388e+02,0.000000e+00
1.051030e+02,0.000000e+00
1.060673e+02,0.000000e+00
1.070315e+02,0.000000e+00
1.079957e+02,0.000000e+00
1.089600e+02,0.000000e+00
1.099242e+02,0.000000e+00
1.108884e+02,0.000000e+00
1.118527e+02,0.000000e+00
1.128169e+02,0.000000e+00
1.137811e+02,0.000000e+00
1.147454e+02,0.000000e+00
1.157096e+02,0.000000e+00
1.166738e+02,0.000000e+00
1.176381e+02,0.000000e+00
1.186023e+02,0.000000e+00
1.195665e+02,0.000000e+00
1.205308e+02,0.000000e+00
1.214950e+02,0.000000e+00
1.224592e+02,0.000000e+00
1.234235e+02,0.000000e+00
1.243877e+02,0.000000e+00
1.253519e+02,0.000000e+00
1.263162e+02,0.000000e+00
1.272804e+02,0.000000e+00
1.282446e+02,0.000000e+00
1.292089e+02,0.000000e+00
1.301731e+02,0.000000e+00
1.311373e+02,0.000000e+00
1.321016e+02,0.000000e+00
1.330658e+02,0.000000e+00
1.340300e+02,0.000000e+00
1.349943e+02,0.000000e+00
1.359585e+02,0.000000e+00
1.369227e+02,0.000000e+00
1.378870e+02,0.000000e+00
1.388512e+02,0.000000e+00
1.398154e+02,0.000000e+00
1.407797e+02,0.000000e+00
1.417439e+02,0.000000e+00
1.427081e+02,0.000000e+00
1.436724e+02,0.000000e+00
1.446366e+02,0.000000e+00
1.456008e+02,0.000000e+00
1.465651e+02,0.000000e+00
1.475293e+02,0.000000e+00
1.484935e+02,0.000000e+00
1.494578e+02,0.000000e+00
1.504220e+02,0.000000e+00
1.513862e+02,0.000000e+00
1.523505e+02,0.000000e+00
1.533147e+02,0.000000e+00
1.542789e+02,0.000000e+00
1.552432e+02,0.000000e+00
1.562074e+02,0.000000e+00
1.571716e+02,0.000000e+00
1.581359e+02,0.000000e+00
1.591001e+02,0.000000e+00
1.600643e+02,0.000000e+00
1.610286e+02,0.000000e+00
1.619928e+02,0.000000e+00
1.629570e+02,0.000000e+00
1.639213e+02,0.000000e+00
1.648855e+02,0.000000e+00
1.658497e+02,0.000000e+00
1.668140e+02,0.000000e+00
1.677782e+02,0.000000e+00
1.687424e+02,0.000000e+00
1.697067e+02,0.000000e+00
1.706709e+02,0.000000e+00
1.716351e+02,0.000000e+00
1.725994e+02,0.000000e+00
1.735636e+02,0.000000e+00
1.745278e+02,0.000000e+00
1.754921e+02,0.000000e+00
1.764563e+02,0.000000e+00
1.774205e+02,0.000000e+00
1.783848e+02,0.000000e+00
1.793490e+02,0.000000e+00
1.803132e+02,0.000000e+00
1.812775e+02,0.000000e+00
1.822417e+02,0.000000e+00
1.832059e+02,0.000000e+00
1.841702e+02,0.000000e+00
1.851344e+02,0.000000e+00
1.860986e+02,0.000000e+00
1.870629e+02,0.000000e+00
1.880271e+02,0.000000e+00
1.889913e+02,0.000000e+00
1.899556e+02,0.000000e+00
1.909198e+02,0.000000e+00
1.918840e+02,0.000000e+00
1.928483e+02,0.000000e+00
1.938125e+02,0.000000e+00
1.947767e+02,0.000000e+00
1.957410e+02,0.000000e+00
1.967052e+02,0.000000e+00
1.976694e+02,0.000000e+00
1.986337e+02,0.000000e+00
1.995979e+02,3.072563e+03
2.005621e+02,3.082743e+03
2.015264e+02,3.090641e+03
2.024906e+02,3.095073e+03
2.034548e+02,3.097786e+03
2.044191e+02,3.097688e+03
2.053833e+02,3.094760e+03
2.063475e+02,3.090408e+03
2.073118e+02,3.085849e+03
2.082760e+02,3.080471e+03
2.092402e+02,3.077030e+03
2.102045e+02,3.079855e+03
2.111687e+02,3.084546e+03
2.121329e+02,3.086716e+03
2.130972e+02,3.082739e+03
2.140614e+02,3.075842e+03
2.150256e+02,3.076555e+03
2.159899e+02,3.091416e+03
2.169541e+02,3.105450e+03
2.179183e+02,3.112615e+03
2.188826e+02,3.113865e+03
2.198468e+02,3.114085e+03
2.208110e+02,3.116706e+03
2.217753e+02,3.121242e+03
2.227395e+02,3.124132e+03
2.237037e+02,3.125653e+03
2.246680e+02,3.126746e+03
2.256322e+02,3.127482e+03
2.265964e+02,3.128347e+03
2.275607e+02,3.130494e+03
2.285249e+02,3.136229e+03
2.294892e+02,3.146666e+03
2.304534e+02,3.155545e+03
2.314176e+02,3.154879e+03
2.323819e+02,3.146281e+03
2.333461e+02,3.138495e+03
2.343103e+02,3.134511e+03
2.352746e+02,3.133756e+03
2.362388e+02,3.134551e+03
2.372030e+02,3.135946e+03
2.381673e+02,3.137034e+03
2.391315e+02,3.138399e+03
2.400957e+02,3.143595e+03
2.410600e+02,3.147642e+03
2.420242e+02,3.147633e+03
2.429884e+02,3.145499e+03
2.439527e+02,3.145895e+03
2.449169e+02,3.151108e+03
2.458811e+02,3.161263e+03
2.468454e+02,3.170465e+03
2.478096e+02,3.179260e+03
2.487738e+02,3.186961e+03
2.497381e+02,3.193086e+03
2.507023e+02,3.197583e+03
2.516665e+02,3.200651e+03
2.526308e+02,3.202272e+03
2.535950e+02,3.198097e+03
2.545592e+02,3.194987e+03
2.555235e+02,3.195122e+03
2.564877e+02,3.196833e+03
2.574519e+02,3.198543e+03
2.584161e+02,3.199980e+03
2.593804e+02,3.201486e+03
2.603446e+02,3.201646e+03
2.613088e+02,3.195457e+03
2.622731e+02,3.190363e+03
2.632373e+02,3.188849e+03
2.642015e+02,3.190007e+03
2.651658e+02,3.191501e+03
2.661300e+02,3.192136e+03
2.670942e+02,3.192827e+03
2.680585e+02,3.193539e+03
2.690227e+02,3.193402e+03
2.699869e+02,3.193468e+03
2.709512e+02,3.194468e+03
2.719154e+02,3.198145e+03
2.728796e+02,3.203101e+03
2.738439e+02,3.207587e+03
2.748081e+02,3.212582e+03
2.757723e+02,3.217425e+03
2.767366e+02,3.218216e+03
2.777008e+02,3.214643e+03
2.786650e+02,3.210362e+03
2.796293e+02,3.205829e+03
2.805935e+02,3.202781e+03
2.815577e+02,3.203861e+03
2.825220e+02,3.209949e+03
2.834862e+02,3.218224e+03
2.844504e+02,3.224590e+03
2.854147e+02,3.231849e+03
2.863789e+02,3.235468e+03
2.873431e+02,3.232276e+03
2.883074e+02,3.225408e+03
2.892716e+02,3.220455e+03
2.902358e+02,3.220104e+03
2.912001e+02,3.223965e+03
2.921643e+02,3.226766e+03
2.931285e+02,3.229683e+03
2.940928e+02,3.232084e+03
2.950570e+02,3.232305e+03
2.960212e+02,3.230206e+03
2.969855e+02,3.227727e+03
2.979497e+02,3.228329e+03
2.989139e+02,3.235242e+03
2.998782e+02,3.239120e+03
3.008424e+02,3.239286e+03
3.018066e+02,3.238795e+03
3.027709e+02,3.238756e+03
3.037351e+02,3.239124e+03
3.046993e+02,3.239225e+03
3.056636e+02,3.238145e+03
3.066278e+02,3.235341e+03
3.075920e+02,3.234311e+03
3.085563e+02,3.237926e+03
3.095205e+02,3.245139e+03
3.104847e+02,3.252115e+03
3.114490e+02,3.256018e+03
3.124132e+02,3.257406e+03
3.133774e+02,3.257832e+03
3.143417e+02,3.256689e+03
3.153059e+02,3.255066e+03
3.162701e+02,3.256493e+03
3.172344e+02,3.264170e+03
3.181986e+02,3.269378e+03
3.191628e+02,3.268460e+03
3.201271e+02,3.263542e+03
3.210913e+02,3.257493e+03
3.220555e+02,3.250520e+03
3.230198e+02,3.243424e+03
3.239840e+02,3.243462e+03
3.249482e+02,3.259383e+03
3.259125e+02,3.272908e+03
3.268767e+02,3.276785e+03
3.278409e+02,3.273126e+03
3.288052e+02,3.268618e+03
3.297694e+02,3.269331e+03
3.307336e+02,3.276478e+03
3.316979e+02,3.281816e+03
3.326621e+02,3.285502e+03
3.336263e+02,3.286435e+03
3.345906e+02,3.283112e+03
3.355548e+02,3.275949e+03
3.365190e+02,3.269864e+03
3.374833e+02,3.270643e+03
3.384475e+02,3.278833e+03
3.394117e+02,3.286305e+03
3.403760e+02,3.287818e+03
3.413402e+02,3.286165e+03
3.423044e+02,3.286847e+03
3.432687e+02,3.293053e+03
3.442329e+02,3.300189e+03
3.451971e+02,3.303406e+03
3.461614e+02,3.301721e+03
3.471256e+02,3.297121e+03
3.480898e+02,3.292074e+03
3.490541e+02,3.287155e+03
3.500183e+02,3.284191e+03
3.509825e+02,3.284574e+03
3.519468e+02,3.287657e+03
3.529110e+02,3.293583e+03
3.538752e+02,3.301578e+03
3.548395e+02,3.308367e+03
3.558037e+02,3.308464e+03
3.567680e+02,3.295377e+03
3.577322e+02,3.286477e+03
3.586964e+02,3.286625e+03
3.596607e+02,3.291976e+03
3.606249e+02,3.297311e+03
3.615891e+02,3.298570e+03
3.625534e+02,3.296544e+03
3.635176e+02,3.296081e+03
3.644818e+02,3.299687e+03
3.654461e+02,3.302597e+03
3.664103e+02,3.302790e+03
3.673745e+02,3.302174e+03
3.683388e+02,3.302311e+03
3.693030e+02,3.300622e+03
3.702672e+02,3.298452e+03
3.712315e+02,3.299135e+03
3.721957e+02,3.303381e+03
3.731599e+02,3.308575e+03
3.741242e+02,3.311867e+03
3.750884e+02,3.313871e+03
3.760526e+02,3.316789e+03
3.770169e+02,3.321737e+03
3.779811e+02,3.326612e+03
3.789453e+02,3.328339e+03
3.799096e+02,3.324813e+03
3.808738e+02,3.317511e+03
3.818380e+02,3.313044e+03
3.828023e+02,3.314692e+03
3.837665e+02,3.318102e+03
3.847307e+02,3.321980e+03
3.856950e+02,3.326018e+03
3.866592e+02,3.329483e+03
3.876234e+02,3.331225e+03
3.885877e+02,3.331757e+03
3.895519e+02,3.333073e+03
3.905161e+02,3.335510e+03
3.914804e+02,3.337212e+03
3.924446e+02,3.336073e+03
3.934088e+02,3.332101e+03
3.943731e+02,3.329242e+03
3.953373e+02,3.329505e+03
3.963015e+02,3.331000e+03
3.972658e+02,3.330987e+03
3.982300e+02,3.328801e+03
3.991942e+02,3.326260e+03
4.001585e+02,3.325621e+03
4.011227e+02,3.324575e+03
4.020869e+02,3.325888e+03
4.030512e+02,3.330696e+03
4.040154e+02,3.336593e+03
4.049796e+02,3.341141e+03
4.059439e+02,3.342641e+03
4.069081e+02,3.341612e+03
4.078723e+02,3.339949e+03
4.088366e+02,3.336239e+03
4.098008e+02,3.331875e+03
4.107650e+02,3.329543e+03
4.117293e+02,3.329438e+03
4.126935e+02,3.330208e+03
4.136577e+02,3.331339e+03
4.146220e+02,3.332979e+03
4.155862e+02,3.335784e+03
4.165504e+02,3.340122e+03
4.175147e+02,3.345034e+03
4.184789e+02,3.348822e+03
4.194431e+02,3.352712e+03
4.204074e+02,3.353371e+03
4.213716e+02,3.348013e+03
4.223358e+02,3.340319e+03
4.233001e+02,3.333916e+03
4.242643e+02,3.330488e+03
4.252285e+02,3.330065e+03
4.261928e+02,3.333091e+03
4.271570e+02,3.342001e+03
4.281212e+02,3.349656e+03
4.290855e+02,3.351874e+03
4.300497e+02,3.349926e+03
4.310139e+02,3.346882e+03
4.319782e+02,3.341378e+03
4.329424e+02,3.337132e+03
4.339066e+02,3.339379e+03
4.348709e+02,3.348177e+03
4.358351e+02,3.357350e+03
4.367993e+02,3.361151e+03
4.377636e+02,3.357523e+03
4.387278e+02,3.353911e+03
4.396920e+02,3.349333e+03
4.406563e+02,3.346210e+03
4.416205e+02,3.345994e+03
4.425847e+02,3.348862e+03
4.435490e+02,3.353666e+03
4.445132e+02,3.359727e+03
4.454774e+02,3.367909e+03
4.464417e+02,3.375825e+03
4.474059e+02,3.384921e+03
4.483701e+02,3.391369e+03
4.493344e+02,3.390835e+03
4.502986e+02,3.376567e+03
4.512628e+02,3.362278e+03
4.522271e+02,3.359063e+03
4.531913e+02,3.364859e+03
4.541555e+02,3.369971e+03
4.551198e+02,3.367882e+03
4.560840e+02,3.358718e+03
4.570482e+02,3.354016e+03
4.580125e+02,3.360115e+03
4.589767e+02,3.367344e+03
4.599409e+02,3.371874e+03
4.609052e+02,3.372579e+03
4.618694e+02,3.370247e+03
4.628336e+02,3.363669e+03
4.637979e+02,3.353945e+03
4.647621e+02,3.350056e+03
4.657263e+02,3.356160e+03
4.666906e+02,3.366289e+03
4.676548e+02,3.373015e+03
4.686190e+02,3.375051e+03
4.695833e+02,3.376428e+03
4.705475e+02,3.377779e+03
4.715117e+02,3.378908e+03
4.724760e+02,3.379359e+03
4.734402e+02,3.379034e+03
4.744044e+02,3.379478e+03
4.753687e+02,3.384190e+03
4.763329e+02,3.396866e+03
4.772971e+02,3.408408e+03
4.782614e+02,3.418961e+03
4.792256e+02,3.427589e+03
4.801898e+02,3.432764e+03
4.811541e+02,3.432801e+03
4.821183e+02,3.429049e+03
4.830826e+02,3.422515e+03
4.840468e+02,3.412737e+03
4.850110e+02,3.402726e+03
4.859753e+02,3.394473e+03
4.869395e+02,3.387895e+03
4.879037e+02,3.383199e+03
4.888680e+02,3.381750e+03
4.898322e+02,3.381656e+03
4.907964e+02,3.382351e+03
4.917607e+02,3.383846e+03
4.927249e+02,3.385998e+03
4.936891e+02,3.388415e+03
4.946534e+02,3.390953e+03
4.956176e+02,3.394583e+03
4.965818e+02,3.401555e+03
4.975461e+02,3.407778e+03
4.985103e+02,3.409659e+03
4.994745e+02,3.405947e+03
5.004388e+02,3.399584e+03
5.014030e+02,3.389442e+03
5.023672e+02,3.379022e+03
5.033315e+02,3.374592e+03
5.042957e+02,3.378345e+03
5.052599e+02,3.385793e+03
5.062242e+02,3.388009e+03
5.071884e+02,3.381833e+03
5.081526e+02,3.376459e+03
5.091169e+02,3.372022e+03
5.100811e+02,3.370136e+03
5.110453e+02,3.372509e+03
5.120095e+02,3.383241e+03
5.129738e+02,3.395471e+03
5.139380e+02,3.399094e+03
5.149022e+02,3.394368e+03
5.158665e+02,3.390021e+03
5.168307e+02,3.390082e+03
5.177949e+02,3.392693e+03
5.187592e+02,3.390576e+03
5.197234e+02,3.383809e+03
5.206876e+02,3.378036e+03
5.216519e+02,3.374895e+03
5.226161e+02,3.374780e+03
5.235803e+02,3.377463e+03
5.245446e+02,3.384331e+03
5.255088e+02,3.394447e+03
5.264730e+02,3.401761e+03
5.274373e+02,3.406398e+03
5.284015e+02,3.407691e+03
5.293657e+02,3.402862e+03
5.303300e+02,3.391410e+03
5.312942e+02,3.381022e+03
5.322584e+02,3.373268e+03
5.332227e+02,3.369452e+03
5.341869e+02,3.372159e+03
5.351511e+02,3.380842e+03
5.361154e+02,3.388810e+03
5.370796e+02,3.385914e+03
5.380438e+02,3.368496e+03
5.390081e+02,3.357125e+03
5.399723e+02,3.357391e+03
5.409365e+02,3.363926e+03
5.419008e+02,3.371067e+03
5.428650e+02,3.377811e+03
5.438292e+02,3.383673e+03
5.447935e+02,3.390359e+03
5.457577e+02,3.396114e+03
5.467219e+02,3.396086e+03
5.476862e+02,3.387487e+03
5.486504e+02,3.374261e+03
5.496146e+02,3.369142e+03
5.505789e+02,3.379742e+03
5.515431e+02,3.386313e+03
5.525073e+02,3.383383e+03
5.534716e+02,3.376687e+03
5.544358e+02,3.372781e+03
5.554000e+02,3.372476e+03
5.563643e+02,3.374874e+03
5.573285e+02,3.380457e+03
5.582927e+02,3.388390e+03
5.592570e+02,3.395675e+03
5.602212e+02,3.401314e+03
5.611854e+02,3.405002e+03
5.621497e+02,3.405387e+03
5.631139e+02,3.397076e+03
5.640781e+02,3.388676e+03
5.650424e+02,3.383706e+03
5.660066e+02,3.382098e+03
5.669708e+02,3.381961e+03
5.679351e+02,3.384830e+03
5.688993e+02,3.388521e+03
5.698635e+02,3.387755e+03
5.708278e+02,3.382162e+03
5.717920e+02,3.377134e+03
5.727562e+02,3.376702e+03
5.737205e+02,3.381169e+03
5.746847e+02,3.386524e+03
5.756489e+02,3.395028e+03
5.766132e+02,3.401721e+03
5.775774e+02,3.402903e+03
5.785416e+02,3.398592e+03
5.795059e+02,3.394813e+03
5.804701e+02,3.397446e+03
5.814343e+02,3.404492e+03
5.823986e+02,3.409802e+03
5.833628e+02,3.412525e+03
5.843270e+02,3.413479e+03
5.852913e+02,3.413489e+03
5.862555e+02,3.412387e+03
5.872197e+02,3.410504e+03
5.881840e+02,3.403881e+03
5.891482e+02,3.398042e+03
5.901124e+02,3.398738e+03
5.910767e+02,3.408422e+03
5.920409e+02,3.419490e+03
5.930051e+02,3.424786e+03
5.939694e+02,3.424478e+03
5.949336e+02,3.420323e+03
5.958978e+02,3.411979e+03
5.968621e+02,3.401513e+03
5.978263e+02,3.393904e+03
5.987905e+02,3.393246e+03
5.997548e+02,3.391767e+03
6.007190e+02,3.387072e+03
6.016832e+02,3.382562e+03
6.026475e+02,3.381982e+03
6.036117e+02,3.387708e+03
6.045759e+02,3.394327e+03
6.055402e+02,3.395048e+03
6.065044e+02,3.389950e+03
6.074686e+02,3.383491e+03
6.084329e+02,3.377801e+03
6.093971e+02,3.373407e+03
6.103613e+02,3.371280e+03
6.113256e+02,3.374303e+03
6.122899e+02,3.376945e+03
6.132541e+02,3.377895e+03
6.142183e+02,3.377742e+03
6.151826e+02,3.377817e+03
6.161468e+02,3.380282e+03
6.171110e+02,3.383714e+03
6.180753e+02,3.385616e+03
6.190395e+02,3.385775e+03
6.200037e+02,3.384950e+03
6.209680e+02,3.383176e+03
6.219322e+02,3.381014e+03
6.228964e+02,3.380653e+03
6.238607e+02,3.385291e+03
6.248249e+02,3.387699e+03
6.257891e+02,3.381470e+03
6.267534e+02,3.369247e+03
6.277176e+02,3.361438e+03
6.286818e+02,3.368645e+03
6.296461e+02,3.380686e+03
6.306103e+02,3.385572e+03
6.315745e+02,3.383656e+03
6.325388e+02,3.380831e+03
6.335030e+02,3.380779e+03
6.344672e+02,3.383038e+03
6.354315e+02,3.386218e+03
6.363957e+02,3.390289e+03
6.373599e+02,3.393629e+03
6.383242e+02,3.397830e+03
6.392884e+02,3.402770e+03
6.402526e+02,3.403274e+03
6.412169e+02,3.393585e+03
6.421811e+02,3.381069e+03
6.431453e+02,3.371478e+03
6.441096e+02,3.365513e+03
6.450738e+02,3.362980e+03
6.460380e+02,3.366051e+03
6.470023e+02,3.375674e+03
6.479665e+02,3.380856e+03
6.489307e+02,3.378327e+03
6.498950e+02,3.373969e+03
6.508592e+02,3.371909e+03
6.518234e+02,3.371845e+03
6.527877e+02,3.371412e+03
6.537519e+02,3.370089e+03
6.547161e+02,3.368926e+03
6.556804e+02,3.369281e+03
6.566446e+02,3.371203e+03
6.576088e+02,3.372836e+03
6.585731e+02,3.371647e+03
6.595373e+02,3.368261e+03
6.605015e+02,3.366541e+03
6.614658e+02,3.367043e+03
6.624300e+02,3.368865e+03
6.633942e+02,3.371044e+03
6.643585e+02,3.372754e+03
6.653227e+02,3.376593e+03
6.662869e+02,3.382767e+03
6.672512e+02,3.389809e+03
6.682154e+02,3.396684e+03
6.691796e+02,3.402867e+03
6.701439e+02,3.409833e+03
6.711081e+02,3.419039e+03
6.720723e+02,3.429834e+03
6.730366e+02,3.441233e+03
6.740008e+02,3.453434e+03
6.749650e+02,3.466609e+03
6.759293e+02,3.483282e+03
6.768935e+02,3.510450e+03
6.778577e+02,3.521731e+03
6.788220e+02,3.508468e+03
6.797862e+02,3.487238e+03
6.807504e+02,3.465432e+03
6.817147e+02,3.441325e+03
6.826789e+02,3.422767e+03
6.836431e+02,3.415926e+03
6.846074e+02,3.413241e+03
6.855716e+02,3.407395e+03
6.865358e+02,3.397638e+03
6.875001e+02,3.387246e+03
6.884643e+02,3.378649e+03
6.894285e+02,3.372011e+03
6.903928e+02,3.370496e+03
6.913570e+02,3.376140e+03
6.923212e+02,3.383365e+03
6.932855e+02,3.386474e+03
6.942497e+02,3.383694e+03
6.952139e+02,3.383280e+03
6.961782e+02,3.385501e+03
6.971424e+02,3.389182e+03
6.981066e+02,3.394061e+03
6.990709e+02,3.398765e+03
7.000351e+02,3.399161e+03
7.009993e+02,3.390878e+03
7.019636e+02,3.378755e+03
7.029278e+02,3.371754e+03
7.038920e+02,3.371299e+03
7.048563e+02,3.373054e+03
7.058205e+02,3.372121e+03
7.067847e+02,3.367958e+03
7.077490e+02,3.367969e+03
7.087132e+02,3.377772e+03
7.096774e+02,3.390308e+03
7.106417e+02,3.397394e+03
7.116059e+02,3.397606e+03
7.125701e+02,3.395125e+03
7.135344e+02,3.388544e+03
7.144986e+02,3.382446e+03
7.154628e+02,3.381414e+03
7.164271e+02,3.385489e+03
7.173913e+02,3.389462e+03
7.183555e+02,3.387721e+03
7.193198e+02,3.381200e+03
7.202840e+02,3.375038e+03
7.212482e+02,3.370138e+03
7.222125e+02,3.366956e+03
7.231767e+02,3.365525e+03
7.241409e+02,3.365386e+03
7.251052e+02,3.365523e+03
7.260694e+02,3.365840e+03
7.270336e+02,3.366160e+03
7.279979e+02,3.367599e+03
7.289621e+02,3.370202e+03
7.299263e+02,3.371498e+03
7.308906e+02,3.368834e+03
7.318548e+02,3.364563e+03
7.328190e+02,3.361422e+03
7.337833e+02,3.359815e+03
7.347475e+02,3.359056e+03
7.357117e+02,3.357455e+03
7.366760e+02,3.356244e+03
7.376402e+02,3.363508e+03
7.386044e+02,3.381676e+03
7.395687e+02,3.403224e+03
7.405329e+02,3.421886e+03
7.414971e+02,3.437664e+03
7.424614e+02,3.449536e+03
7.434256e+02,3.460717e+03
7.443898e+02,3.469086e+03
7.453541e+02,3.472389e+03
7.463183e+02,3.468792e+03
7.472825e+02,3.458706e+03
7.482468e+02,3.437545e+03
7.492110e+02,3.413413e+03
7.501752e+02,3.395745e+03
7.511395e+02,3.386049e+03
7.521037e+02,3.381056e+03
7.530679e+02,3.377686e+03
7.540322e+02,3.374897e+03
7.549964e+02,3.371666e+03
7.559606e+02,3.368808e+03
7.569249e+02,3.365231e+03
7.578891e+02,3.358968e+03
7.588533e+02,3.349843e+03
7.598176e+02,3.348999e+03
7.607818e+02,3.363944e+03
7.617460e+02,3.373903e+03
7.627103e+02,3.369618e+03
7.636745e+02,3.356368e+03
7.646387e+02,3.347525e+03
7.656030e+02,3.353786e+03
7.665672e+02,3.362030e+03
7.675314e+02,3.357325e+03
7.684957e+02,3.341374e+03
7.694599e+02,3.326300e+03
7.704241e+02,3.321278e+03
7.713884e+02,3.325398e+03
7.723526e+02,3.334707e+03
7.733168e+02,3.350711e+03
7.742811e+02,3.365987e+03
7.752453e+02,3.375603e+03
7.762095e+02,3.378976e+03
7.771738e+02,3.379319e+03
7.781380e+02,3.371881e+03
7.791022e+02,3.364669e+03
7.800665e+02,3.363222e+03
7.810307e+02,3.363849e+03
7.819949e+02,3.360083e+03
7.829592e+02,3.345732e+03
7.839234e+02,3.333708e+03
7.848876e+02,3.330704e+03
7.858519e+02,3.333078e+03
7.868161e+02,3.335601e+03
7.877803e+02,3.336168e+03
7.887446e+02,3.335645e+03
7.897088e+02,3.336632e+03
7.906730e+02,3.339870e+03
7.916373e+02,3.341911e+03
7.926015e+02,3.339544e+03
7.935657e+02,3.333606e+03
7.945300e+02,3.330501e+03
7.954942e+02,3.334096e+03
7.964584e+02,3.334146e+03
7.974227e+02,3.330403e+03
7.983869e+02,3.326971e+03
7.993511e+02,3.324551e+03
8.003154e+02,3.318974e+03
8.012796e+02,3.315934e+03
8.022438e+02,3.321652e+03
8.032081e+02,3.329852e+03
8.041723e+02,3.334361e+03
8.051365e+02,3.333158e+03
8.061008e+02,3.330979e+03
8.070650e+02,3.330895e+03
8.080292e+02,3.331068e+03
8.089935e+02,3.330214e+03
8.099577e+02,3.328985e+03
8.109219e+02,3.327298e+03
8.118862e+02,3.323860e+03
8.128504e+02,3.318761e+03
8.138146e+02,3.315536e+03
8.147789e+02,3.314129e+03
8.157431e+02,3.313234e+03
8.167073e+02,3.312625e+03
8.176716e+02,3.314016e+03
8.186358e+02,3.316234e+03
8.196000e+02,3.320095e+03
8.205643e+02,3.323550e+03
8.215285e+02,3.323000e+03
8.224927e+02,3.319033e+03
8.234570e+02,3.317849e+03
8.244212e+02,3.323441e+03
8.253854e+02,3.330378e+03
8.263497e+02,3.335821e+03
8.273139e+02,3.338417e+03
8.282781e+02,3.337696e+03
8.292424e+02,3.334027e+03
8.302066e+02,3.329392e+03
8.311708e+02,3.324215e+03
8.321351e+02,3.318960e+03
8.330993e+02,3.316310e+03
8.340635e+02,3.317325e+03
8.350278e+02,3.320654e+03
8.359920e+02,3.323929e+03
8.369562e+02,3.327786e+03
8.379205e+02,3.328703e+03
8.388847e+02,3.324692e+03
8.398489e+02,3.317676e+03
8.408132e+02,3.311780e+03
8.417774e+02,3.303061e+03
8.427416e+02,3.300091e+03
8.437059e+02,3.310656e+03
8.446701e+02,3.323824e+03
8.456343e+02,3.327887e+03
8.465986e+02,3.316560e+03
8.475628e+02,3.304730e+03
8.485270e+02,3.294209e+03
8.494913e+02,3.287138e+03
8.504555e+02,3.288007e+03
8.514197e+02,3.298452e+03
8.523840e+02,3.309118e+03
8.533482e+02,3.312203e+03
8.543124e+02,3.309113e+03
8.552767e+02,3.300895e+03
8.562409e+02,3.287888e+03
8.572051e+02,3.276223e+03
8.581694e+02,3.274809e+03
8.591336e+02,3.282983e+03
8.600978e+02,3.286819e+03
8.610621e+02,3.285651e+03
8.620263e+02,3.284199e+03
8.629905e+02,3.285492e+03
8.639548e+02,3.288695e+03
8.649190e+02,3.286849e+03
8.658832e+02,3.277246e+03
8.668475e+02,3.269399e+03
8.678117e+02,3.268909e+03
8.687759e+02,3.273833e+03
8.697402e+02,3.276242e+03
8.707044e+02,3.270027e+03
8.716686e+02,3.263740e+03
8.726329e+02,3.264678e+03
8.735971e+02,3.269417e+03
8.745613e+02,3.270056e+03
8.755256e+02,3.259533e+03
8.764898e+02,3.250941e+03
8.774540e+02,3.255033e+03
8.784183e+02,3.265427e+03
8.793825e+02,3.271194e+03
8.803467e+02,3.267629e+03
8.813110e+02,3.260507e+03
8.822752e+02,3.257405e+03
8.832394e+02,3.257863e+03
8.842037e+02,3.257234e+03
8.851679e+02,3.253336e+03
8.861321e+02,3.249015e+03
8.870964e+02,3.250009e+03
8.880606e+02,3.256507e+03
8.890248e+02,3.259066e+03
8.899891e+02,3.257592e+03
8.909533e+02,3.254440e+03
8.919175e+02,3.250564e+03
8.928818e+02,3.245156e+03
8.938460e+02,3.242520e+03
8.948102e+02,3.245160e+03
8.957745e+02,3.246210e+03
8.967387e+02,3.239654e+03
8.977029e+02,3.225327e+03
8.986672e+02,3.218072e+03
8.996314e+02,3.228227e+03
9.005956e+02,3.239941e+03
9.015599e+02,3.246172e+03
9.025241e+02,3.247629e+03
9.034883e+02,3.248430e+03
9.044526e+02,3.251542e+03
9.054168e+02,3.251417e+03
9.063810e+02,3.246234e+03
9.073453e+02,3.238765e+03
9.083095e+02,3.229891e+03
9.092737e+02,3.216487e+03
9.102380e+02,3.206001e+03
9.112022e+02,3.212199e+03
9.121664e+02,3.227907e+03
9.131307e+02,3.234911e+03
9.140949e+02,3.228731e+03
9.150591e+02,3.219324e+03
9.160234e+02,3.218505e+03
9.169876e+02,3.223414e+03
9.179518e+02,3.223651e+03
9.189161e+02,3.217408e+03
9.198803e+02,3.209333e+03
9.208445e+02,3.205114e+03
9.218088e+02,3.206075e+03
9.227730e+02,3.209272e+03
9.237372e+02,3.214987e+03
9.247015e+02,3.220125e+03
9.256657e+02,3.222770e+03
9.266299e+02,3.222604e+03
9.275942e+02,3.222338e+03
9.285584e+02,3.221351e+03
9.295226e+02,3.219565e+03
9.304869e+02,3.217024e+03
9.314511e+02,3.214509e+03
9.324153e+02,3.212931e+03
9.333796e+02,3.213655e+03
9.343438e+02,3.213607e+03
9.353080e+02,3.210435e+03
9.362723e+02,3.204877e+03
9.372365e+02,3.199568e+03
9.382007e+02,3.198219e+03
9.391650e+02,3.196703e+03
9.401292e+02,3.189667e+03
9.410934e+02,3.182557e+03
9.420577e+02,3.181507e+03
9.430219e+02,3.187983e+03
9.439861e+02,3.196156e+03
9.449504e+02,3.202487e+03
9.459146e+02,3.210134e+03
9.468788e+02,3.223747e+03
9.478431e+02,3.241011e+03
9.488073e+02,3.252506e+03
9.497715e+02,3.249974e+03
9.507358e+02,3.238455e+03
9.517000e+02,3.226836e+03
9.526642e+02,3.216632e+03
9.536285e+02,3.209901e+03
9.545927e+02,3.208975e+03
9.555569e+02,3.210711e+03
9.565212e+02,3.202297e+03
9.574854e+02,3.184359e+03
9.584496e+02,3.174741e+03
9.594139e+02,3.180524e+03
9.603781e+02,3.194624e+03
9.613423e+02,3.201926e+03
9.623066e+02,3.201897e+03
9.632708e+02,3.197885e+03
9.642350e+02,3.189324e+03
9.651993e+02,3.180612e+03
9.661635e+02,3.177010e+03
9.671277e+02,3.180243e+03
9.680920e+02,3.181684e+03
9.690562e+02,3.180968e+03
9.700204e+02,3.178234e+03
9.709847e+02,3.174303e+03
9.719489e+02,3.169829e+03
9.729131e+02,3.165976e+03
9.738774e+02,3.165774e+03
9.748416e+02,3.164764e+03
9.758058e+02,3.156465e+03
9.767701e+02,3.142564e+03
9.777343e+02,3.137021e+03
9.786985e+02,3.150181e+03
9.796628e+02,3.162020e+03
9.806270e+02,3.166407e+03
9.815912e+02,3.165086e+03
9.825555e+02,3.161538e+03
9.835197e+02,3.157794e+03
9.844839e+02,3.153255e+03
9.854482e+02,3.145852e+03
9.864124e+02,3.138973e+03
9.873766e+02,3.136344e+03
9.883409e+02,3.139732e+03
9.893051e+02,3.142888e+03
9.902693e+02,3.140290e+03
9.912336e+02,3.136731e+03
9.921978e+02,3.137627e+03
9.931620e+02,3.141914e+03
9.941263e+02,3.143293e+03
9.950905e+02,3.132740e+03
9.960547e+02,3.120385e+03
9.970190e+02,3.121081e+03
9.979832e+02,3.131756e+03
9.989474e+02,3.140417e+03
9.999117e+02,3.141338e+03
1.000876e+03,3.137656e+03
1.001840e+03,3.131685e+03
1.002804e+03,3.125164e+03
1.003769e+03,3.121434e+03
1.004733e+03,3.120879e+03
1.005697e+03,3.122366e+03
1.006661e+03,3.126745e+03
1.007626e+03,3.132938e+03
1.008590e+03,3.134053e+03
1.009554e+03,3.127938e+03
1.010518e+03,3.119491e+03
1.011482e+03,3.115120e+03
1.012447e+03,3.114231e+03
1.013411e+03,3.113092e+03
1.014375e+03,3.113156e+03
1.015339e+03,3.112493e+03
1.016304e+03,3.107911e+03
1.017268e+03,3.100339e+03
1.018232e+03,3.097309e+03
1.019196e+03,3.098830e+03
1.020161e+03,3.101725e+03
1.021125e+03,3.105871e+03
1.022089e+03,3.111137e+03
1.023053e+03,3.114962e+03
1.024018e+03,3.116249e+03
1.024982e+03,3.115270e+03
1.025946e+03,3.110652e+03
1.026910e+03,3.104013e+03
1.027875e+03,3.099531e+03
1.028839e+03,3.099891e+03
1.029803e+03,3.098606e+03
1.030767e+03,3.094465e+03
1.031731e+03,3.091075e+03
1.032696e+03,3.090784e+03
1.033660e+03,3.093486e+03
1.034624e+03,3.093974e+03
1.035588e+03,3.091381e+03
1.036552e+03,3.090333e+03
1.037517e+03,3.092224e+03
1.038481e+03,3.095539e+03
1.039445e+03,3.098159e+03
1.040409e+03,3.102652e+03
1.041374e+03,3.102206e+03
1.042338e+03,3.092411e+03
1.043302e+03,3.080521e+03
1.044266e+03,3.075539e+03
1.045231e+03,3.083853e+03
1.046195e+03,3.086606e+03
1.047159e+03,3.080250e+03
1.048123e+03,3.072634e+03
1.049088e+03,3.068717e+03
1.050052e+03,3.069790e+03
1.051016e+03,3.072254e+03
1.051980e+03,3.077399e+03
1.052945e+03,3.081868e+03
1.053909e+03,3.083089e+03
1.054873e+03,3.080295e+03
1.055837e+03,3.076121e+03
1.056802e+03,3.070527e+03
1.057766e+03,3.065987e+03
1.058730e+03,3.066394e+03
1.059694e+03,3.067313e+03
1.060658e+03,3.062160e+03
1.061623e+03,3.045120e+03
1.062587e+03,3.033658e+03
1.063551e+03,3.032422e+03
1.064515e+03,3.035612e+03
1.065479e+03,3.039406e+03
1.066444e+03,3.044175e+03
1.067408e+03,3.048769e+03
1.068372e+03,3.053013e+03
1.069336e+03,3.057013e+03
1.070301e+03,3.060413e+03
1.071265e+03,3.061850e+03
1.072229e+03,3.059803e+03
1.073193e+03,3.050491e+03
1.074158e+03,3.041769e+03
1.075122e+03,3.035373e+03
1.076086e+03,3.030967e+03
1.077050e+03,3.028969e+03
1.078015e+03,3.032519e+03
1.078979e+03,3.036157e+03
1.079943e+03,3.036499e+03
1.080907e+03,3.037338e+03
1.081872e+03,3.041707e+03
1.082836e+03,3.048989e+03
1.083800e+03,3.052159e+03
1.084764e+03,3.047193e+03
1.085729e+03,3.042035e+03
1.086693e+03,3.039645e+03
1.087657e+03,3.039195e+03
1.088621e+03,3.038926e+03
1.089585e+03,3.039823e+03
1.090550e+03,3.037767e+03
1.091514e+03,3.029829e+03
1.092478e+03,3.021869e+03
1.093442e+03,3.020197e+03
1.094406e+03,3.028494e+03
1.095371e+03,3.035484e+03
1.096335e+03,3.035871e+03
1.097299e+03,3.035650e+03
1.098263e+03,3.039546e+03
1.099228e+03,3.047114e+03
1.100192e+03,3.051979e+03
1.101156e+03,3.050564e+03
1.102120e+03,3.048332e+03
1.103085e+03,3.047441e+03
1.104049e+03,3.047531e+03
1.105013e+03,3.047655e+03
1.105977e+03,3.049940e+03
1.106942e+03,3.049845e+03
1.107906e+03,3.044832e+03
1.108870e+03,3.038648e+03
1.109834e+03,3.034655e+03
1.110799e+03,3.033749e+03
1.111763e+03,3.032621e+03
1.112727e+03,3.032226e+03
1.113691e+03,3.031225e+03
1.114656e+03,3.027760e+03
1.115620e+03,3.022239e+03
1.116584e+03,3.018060e+03
1.117548e+03,3.012449e+03
1.118512e+03,3.009257e+03
1.119477e+03,3.012574e+03
1.120441e+03,3.018043e+03
1.121405e+03,3.019471e+03
1.122369e+03,3.014056e+03
1.123334e+03,3.009042e+03
1.124298e+03,3.006083e+03
1.125262e+03,3.003085e+03
1.126226e+03,2.997350e+03
1.127191e+03,2.987968e+03
1.128155e+03,2.986504e+03
1.129119e+03,2.999206e+03
1.130083e+03,3.009672e+03
1.131047e+03,3.009397e+03
1.132012e+03,3.001826e+03
1.132976e+03,3.000958e+03
1.133940e+03,3.012089e+03
1.134904e+03,3.018536e+03
1.135869e+03,3.015403e+03
1.136833e+03,3.011267e+03
1.137797e+03,3.016975e+03
1.138761e+03,3.038778e+03
1.139726e+03,3.050120e+03
1.140690e+03,3.048080e+03
1.141654e+03,3.039903e+03
1.142618e+03,3.027579e+03
1.143583e+03,3.012480e+03
1.144547e+03,3.004481e+03
1.145511e+03,3.005308e+03
1.146475e+03,3.006483e+03
1.147439e+03,3.005823e+03
1.148404e+03,3.003878e+03
1.149368e+03,3.000484e+03
1.150332e+03,2.995214e+03
1.151296e+03,2.988353e+03
1.152261e+03,2.977840e+03
1.153225e+03,2.967192e+03
1.154189e+03,2.962069e+03
1.155153e+03,2.962944e+03
1.156118e+03,2.963877e+03
1.157082e+03,2.965849e+03
1.158046e+03,2.967750e+03
1.159010e+03,2.967844e+03
1.159974e+03,2.966828e+03
1.160939e+03,2.965168e+03
1.161903e+03,2.962836e+03
1.162867e+03,2.965560e+03
1.163831e+03,2.974715e+03
1.164796e+03,2.981574e+03
1.165760e+03,2.975153e+03
1.166724e+03,2.960758e+03
1.167688e+03,2.950586e+03
1.168653e+03,2.945118e+03
1.169617e+03,2.942721e+03
1.170581e+03,2.944482e+03
1.171545e+03,2.947179e+03
1.172510e+03,2.944530e+03
1.173474e+03,2.939240e+03
1.174438e+03,2.936586e+03
1.175402e+03,2.937760e+03
1.176366e+03,2.941448e+03
1.177331e+03,2.949590e+03
1.178295e+03,2.958471e+03
1.179259e+03,2.962272e+03
1.180223e+03,2.960591e+03
1.181188e+03,2.958013e+03
1.182152e+03,2.958058e+03
1.183116e+03,2.957573e+03
1.184080e+03,2.955560e+03
1.185045e+03,2.952341e+03
1.186009e+03,2.947048e+03
1.186973e+03,2.937145e+03
1.187937e+03,2.932406e+03
1.188901e+03,2.942954e+03
1.189866e+03,2.954948e+03
1.190830e+03,2.953931e+03
1.191794e+03,2.937642e+03
1.192758e+03,2.927406e+03
1.193723e+03,2.936801e+03
1.194687e+03,2.945341e+03
1.195651e+03,2.942335e+03
1.196615e+03,2.932067e+03
1.197580e+03,2.925858e+03
1.198544e+03,2.923596e+03
1.199508e+03,2.921794e+03
1.200472e+03,2.922862e+03
1.201437e+03,2.924635e+03
1.202401e+03,2.925994e+03
1.203365e+03,2.927985e+03
1.204329e+03,2.927055e+03
1.205293e+03,2.921036e+03
1.206258e+03,2.916446e+03
1.207222e+03,2.916004e+03
1.208186e+03,2.918191e+03
1.209150e+03,2.919264e+03
1.210115e+03,2.918223e+03
1.211079e+03,2.917630e+03
1.212043e+03,2.918593e+03
1.213007e+03,2.918566e+03
1.213972e+03,2.915241e+03
1.214936e+03,2.909794e+03
1.215900e+03,2.904479e+03
1.216864e+03,2.899439e+03
1.217828e+03,2.894118e+03
1.218793e+03,2.887913e+03
1.219757e+03,2.881908e+03
1.220721e+03,2.877429e+03
1.221685e+03,2.874806e+03
1.222650e+03,2.873779e+03
1.223614e+03,2.873372e+03
1.224578e+03,2.873309e+03
1.225542e+03,2.877156e+03
1.226507e+03,2.880709e+03
1.227471e+03,2.875989e+03
1.228435e+03,2.864358e+03
1.229399e+03,2.855546e+03
1.230364e+03,2.859829e+03
1.231328e+03,2.863658e+03
1.232292e+03,2.861573e+03
1.233256e+03,2.856101e+03
1.234220e+03,2.848063e+03
1.235185e+03,2.836323e+03
1.236149e+03,2.828746e+03
1.237113e+03,2.829577e+03
1.238077e+03,2.833354e+03
1.239042e+03,2.835235e+03
1.240006e+03,2.834365e+03
1.240970e+03,2.834873e+03
1.241934e+03,2.839473e+03
1.242899e+03,2.840119e+03
1.243863e+03,2.834115e+03
1.244827e+03,2.826225e+03
1.245791e+03,2.822590e+03
1.246755e+03,2.823942e+03
1.247720e+03,2.825953e+03
1.248684e+03,2.829516e+03
1.249648e+03,2.830381e+03
1.250612e+03,2.823418e+03
1.251577e+03,2.812588e+03
1.252541e+03,2.816681e+03
1.253505e+03,2.832501e+03
1.254469e+03,2.835030e+03
1.255434e+03,2.816249e+03
1.256398e+03,2.794544e+03
1.257362e+03,2.791732e+03
1.258326e+03,2.799224e+03
1.259291e+03,2.802711e+03
1.260255e+03,2.801335e+03
1.261219e+03,2.799910e+03
1.262183e+03,2.806344e+03
1.263147e+03,2.812140e+03
1.264112e+03,2.808591e+03
1.265076e+03,2.800440e+03
1.266040e+03,2.793097e+03
1.267004e+03,2.786318e+03
1.267969e+03,2.786981e+03
1.268933e+03,2.810415e+03
1.269897e+03,2.832570e+03
1.270861e+03,2.832013e+03
1.271826e+03,2.809548e+03
1.272790e+03,2.798526e+03
1.273754e+03,2.810785e+03
1.274718e+03,2.816005e+03
1.275682e+03,2.807179e+03
1.276647e+03,2.793508e+03
1.277611e+03,2.785652e+03
1.278575e+03,2.784010e+03
1.279539e+03,2.782130e+03
1.280504e+03,2.781392e+03
1.281468e+03,2.781224e+03
1.282432e+03,2.779891e+03
1.283396e+03,2.778953e+03
1.284361e+03,2.783501e+03
1.285325e+03,2.791495e+03
1.286289e+03,2.797248e+03
1.287253e+03,2.799178e+03
1.288218e+03,2.798206e+03
1.289182e+03,2.793125e+03
1.290146e+03,2.787899e+03
1.291110e+03,2.789803e+03
1.292074e+03,2.796874e+03
1.293039e+03,2.799978e+03
1.294003e+03,2.791065e+03
1.294967e+03,2.780819e+03
1.295931e+03,2.771562e+03
1.296896e+03,2.766167e+03
1.297860e+03,2.767758e+03
1.298824e+03,2.777790e+03
1.299788e+03,2.787899e+03
1.300753e+03,2.799354e+03
1.301717e+03,2.807692e+03
1.302681e+03,2.811096e+03
1.303645e+03,2.810347e+03
1.304609e+03,2.807503e+03
1.305574e+03,2.801295e+03
1.306538e+03,2.793676e+03
1.307502e+03,2.786062e+03
1.308466e+03,2.779203e+03
1.309431e+03,2.772760e+03
1.310395e+03,2.766953e+03
1.311359e+03,2.761716e+03
1.312323e+03,2.756259e+03
1.313288e+03,2.752392e+03
1.314252e+03,2.753239e+03
1.315216e+03,2.754933e+03
1.316180e+03,2.749722e+03
1.317145e+03,2.744234e+03
1.318109e+03,2.748052e+03
1.319073e+03,2.760647e+03
1.320037e+03,2.767719e+03
1.321001e+03,2.757821e+03
1.321966e+03,2.748504e+03
1.322930e+03,2.749066e+03
1.323894e+03,2.756128e+03
1.324858e+03,2.761516e+03
1.325823e+03,2.764046e+03
1.326787e+03,2.767298e+03
1.327751e+03,2.770825e+03
1.328715e+03,2.773594e+03
1.329680e+03,2.773884e+03
1.330644e+03,2.774023e+03
1.331608e+03,2.785556e+03
1.332572e+03,2.807318e+03
1.333536e+03,2.828117e+03
1.334501e+03,2.844801e+03
1.335465e+03,2.856308e+03
1.336429e+03,2.864661e+03
1.337393e+03,2.867461e+03
1.338358e+03,2.858022e+03
1.339322e+03,2.838401e+03
1.340286e+03,2.818043e+03
1.341250e+03,2.802634e+03
1.342215e+03,2.785961e+03
1.343179e+03,2.762212e+03
1.344143e+03,2.740344e+03
1.345107e+03,2.729766e+03
1.346072e+03,2.733909e+03
1.347036e+03,2.731655e+03
1.348000e+03,2.717429e+03
1.348964e+03,2.705945e+03
1.349928e+03,2.704888e+03
1.350893e+03,2.709838e+03
1.351857e+03,2.707684e+03
1.352821e+03,2.698232e+03
1.353785e+03,2.693200e+03
1.354750e+03,2.693746e+03
1.355714e+03,2.693393e+03
1.356678e+03,2.686680e+03
1.357642e+03,2.678172e+03
1.358607e+03,2.670944e+03
1.359571e+03,2.666017e+03
1.360535e+03,2.667423e+03
1.361499e+03,2.680138e+03
1.362464e+03,2.689673e+03
1.363428e+03,2.686510e+03
1.364392e+03,2.681238e+03
1.365356e+03,2.680928e+03
1.366320e+03,2.683753e+03
1.367285e+03,2.680729e+03
1.368249e+03,2.668563e+03
1.369213e+03,2.661590e+03
1.370177e+03,2.663516e+03
1.371142e+03,2.669056e+03
1.372106e+03,2.673531e+03
1.373070e+03,2.676523e+03
1.374034e+03,2.673519e+03
1.374999e+03,2.665858e+03
1.375963e+03,2.659996e+03
1.376927e+03,2.659695e+03
1.377891e+03,2.660618e+03
1.378855e+03,2.657186e+03
1.379820e+03,2.652078e+03
1.380784e+03,2.649013e+03
1.381748e+03,2.649276e+03
1.382712e+03,2.650533e+03
1.383677e+03,2.651260e+03
1.384641e+03,2.651028e+03
1.385605e+03,2.649344e+03
1.386569e+03,2.646467e+03
1.387534e+03,2.643017e+03
1.388498e+03,2.638967e+03
1.389462e+03,2.636581e+03
1.390426e+03,2.635558e+03
1.391391e+03,2.632984e+03
1.392355e+03,2.626534e+03
1.393319e+03,2.620047e+03
1.394283e+03,2.621260e+03
1.395247e+03,2.627061e+03
1.396212e+03,2.631497e+03
1.397176e+03,2.633265e+03
1.398140e+03,2.632620e+03
1.399104e+03,2.625471e+03
1.400069e+03,2.618951e+03
1.401033e+03,2.618763e+03
1.401997e+03,2.622903e+03
1.402961e+03,2.625299e+03
1.403926e+03,2.624380e+03
1.404890e+03,2.624718e+03
1.405854e+03,2.628207e+03
1.406818e+03,2.630130e+03
1.407782e+03,2.625854e+03
1.408747e+03,2.618589e+03
1.409711e+03,2.617875e+03
1.410675e+03,2.621157e+03
1.411639e+03,2.623806e+03
1.412604e+03,2.625044e+03
1.413568e+03,2.624144e+03
1.414532e+03,2.620105e+03
1.415496e+03,2.615600e+03
1.416461e+03,2.611073e+03
1.417425e+03,2.606348e+03
1.418389e+03,2.603079e+03
1.419353e+03,2.604637e+03
1.420318e+03,2.602819e+03
1.421282e+03,2.595178e+03
1.422246e+03,2.589656e+03
1.423210e+03,2.593617e+03
1.424174e+03,2.605536e+03
1.425139e+03,2.612730e+03
1.426103e+03,2.614719e+03
1.427067e+03,2.613279e+03
1.428031e+03,2.608959e+03
1.428996e+03,2.603290e+03
1.429960e+03,2.593754e+03
1.430924e+03,2.585559e+03
1.431888e+03,2.586212e+03
1.432853e+03,2.594171e+03
1.433817e+03,2.599432e+03
1.434781e+03,2.599697e+03
1.435745e+03,2.597965e+03
1.436709e+03,2.591630e+03
1.437674e+03,2.585148e+03
1.438638e+03,2.583793e+03
1.439602e+03,2.587769e+03
1.440566e+03,2.590807e+03
1.441531e+03,2.592963e+03
1.442495e+03,2.598035e+03
1.443459e+03,2.607535e+03
1.444423e+03,2.617523e+03
1.445388e+03,2.626170e+03
1.446352e+03,2.630856e+03
1.447316e+03,2.629270e+03
1.448280e+03,2.622742e+03
1.449245e+03,2.613970e+03
1.450209e+03,2.600902e+03
1.451173e+03,2.588837e+03
1.452137e+03,2.575338e+03
1.453101e+03,2.564485e+03
1.454066e+03,2.562718e+03
1.455030e+03,2.568483e+03
1.455994e+03,2.566539e+03
1.456958e+03,2.558427e+03
1.457923e+03,2.555802e+03
1.458887e+03,2.563783e+03
1.459851e+03,2.571577e+03
1.460815e+03,2.568667e+03
1.461780e+03,2.561308e+03
1.462744e+03,2.556428e+03
1.463708e+03,2.554560e+03
1.464672e+03,2.551851e+03
1.465636e+03,2.549914e+03
1.466601e+03,2.544885e+03
1.467565e+03,2.533936e+03
1.468529e+03,2.525203e+03
1.469493e+03,2.528024e+03
1.470458e+03,2.538057e+03
1.471422e+03,2.539653e+03
1.472386e+03,2.535378e+03
1.473350e+03,2.533317e+03
1.474315e+03,2.536807e+03
1.475279e+03,2.538407e+03
1.476243e+03,2.528887e+03
1.477207e+03,2.518967e+03
1.478172e+03,2.519449e+03
1.479136e+03,2.527949e+03
1.480100e+03,2.531169e+03
1.481064e+03,2.527914e+03
1.482028e+03,2.524901e+03
1.482993e+03,2.523108e+03
1.483957e+03,2.523214e+03
1.484921e+03,2.526536e+03
1.485885e+03,2.530845e+03
1.486850e+03,2.530388e+03
1.487814e+03,2.526961e+03
1.488778e+03,2.527142e+03
1.489742e+03,2.535766e+03
1.490707e+03,2.538295e+03
1.491671e+03,2.524134e+03
1.492635e+03,2.512510e+03
1.493599e+03,2.511698e+03
1.494563e+03,2.517331e+03
1.495528e+03,2.520100e+03
1.496492e+03,2.519630e+03
1.497456e+03,2.516960e+03
1.498420e+03,2.513045e+03
1.499385e+03,2.508090e+03
1.500349e+03,2.498846e+03
1.501313e+03,2.491988e+03
1.502277e+03,2.495890e+03
1.503242e+03,2.504156e+03
1.504206e+03,2.507059e+03
1.505170e+03,2.500242e+03
1.506134e+03,2.497504e+03
1.507099e+03,2.501246e+03
1.508063e+03,2.502737e+03
1.509027e+03,2.497506e+03
1.509991e+03,2.491116e+03
1.510955e+03,2.495302e+03
1.511920e+03,2.505141e+03
1.512884e+03,2.506541e+03
1.513848e+03,2.501785e+03
1.514812e+03,2.506816e+03
1.515777e+03,2.534742e+03
1.516741e+03,2.563337e+03
1.517705e+03,2.583976e+03
1.518669e+03,2.602721e+03
1.519634e+03,2.625820e+03
1.520598e+03,2.652367e+03
1.521562e+03,2.676454e+03
1.522526e+03,2.696633e+03
1.523490e+03,2.703031e+03
1.524455e+03,2.691982e+03
1.525419e+03,2.670529e+03
1.526383e+03,2.640606e+03
1.527347e+03,2.607520e+03
1.528312e+03,2.574265e+03
1.529276e+03,2.543636e+03
1.530240e+03,2.521251e+03
1.531204e+03,2.507305e+03
1.532169e+03,2.498368e+03
1.533133e+03,2.494859e+03
1.534097e+03,2.493851e+03
1.535061e+03,2.494374e+03
1.536026e+03,2.494143e+03
1.536990e+03,2.487943e+03
1.537954e+03,2.479284e+03
1.538918e+03,2.475110e+03
1.539882e+03,2.477509e+03
1.540847e+03,2.477938e+03
1.541811e+03,2.471123e+03
1.542775e+03,2.464387e+03
1.543739e+03,2.460870e+03
1.544704e+03,2.459246e+03
1.545668e+03,2.456609e+03
1.546632e+03,2.453660e+03
1.547596e+03,2.452350e+03
1.548561e+03,2.452664e+03
1.549525e+03,2.454094e+03
1.550489e+03,2.456110e+03
1.551453e+03,2.457861e+03
1.552417e+03,2.460564e+03
1.553382e+03,2.461107e+03
1.554346e+03,2.457171e+03
1.555310e+03,2.449816e+03
1.556274e+03,2.443613e+03
1.557239e+03,2.438402e+03
1.558203e+03,2.437021e+03
1.559167e+03,2.440522e+03
1.560131e+03,2.442901e+03
1.561096e+03,2.436590e+03
1.562060e+03,2.429666e+03
1.563024e+03,2.428927e+03
1.563988e+03,2.432460e+03
1.564953e+03,2.435165e+03
1.565917e+03,2.436917e+03
1.566881e+03,2.436455e+03
1.567845e+03,2.432781e+03
1.568809e+03,2.430209e+03
1.569774e+03,2.432544e+03
1.570738e+03,2.435095e+03
1.571702e+03,2.430558e+03
1.572666e+03,2.422625e+03
1.573631e+03,2.414708e+03
1.574595e+03,2.408258e+03
1.575559e+03,2.409142e+03
1.576523e+03,2.422133e+03
1.577488e+03,2.431946e+03
1.578452e+03,2.434479e+03
1.579416e+03,2.432640e+03
1.580380e+03,2.429181e+03
1.581344e+03,2.424882e+03
1.582309e+03,2.419240e+03
1.583273e+03,2.414734e+03
1.584237e+03,2.417235e+03
1.585201e+03,2.434244e+03
1.586166e+03,2.442621e+03
1.587130e+03,2.436777e+03
1.588094e+03,2.426424e+03
1.589058e+03,2.414925e+03
1.590023e+03,2.404573e+03
1.590987e+03,2.399051e+03
1.591951e+03,2.398364e+03
1.592915e+03,2.402057e+03
1.593880e+03,2.408102e+03
1.594844e+03,2.411121e+03
1.595808e+03,2.407234e+03
1.596772e+03,2.402935e+03
1.597736e+03,2.399576e+03
1.598701e+03,2.398096e+03
1.599665e+03,2.399868e+03
1.600629e+03,2.403449e+03
1.601593e+03,2.402607e+03
1.602558e+03,2.398383e+03
1.603522e+03,2.393878e+03
1.604486e+03,2.389800e+03
1.605450e+03,2.385598e+03
1.606415e+03,2.380594e+03
1.607379e+03,2.378083e+03
1.608343e+03,2.379576e+03
1.609307e+03,2.382715e+03
1.610271e+03,2.383933e+03
1.611236e+03,2.383132e+03
1.612200e+03,2.380681e+03
1.613164e+03,2.377695e+03
1.614128e+03,2.376326e+03
1.615093e+03,2.375981e+03
1.616057e+03,2.378677e+03
1.617021e+03,2.390871e+03
1.617985e+03,2.398281e+03
1.618950e+03,2.390505e+03
1.619914e+03,2.372731e+03
1.620878e+03,2.365829e+03
1.621842e+03,2.367214e+03
1.622807e+03,2.365116e+03
1.623771e+03,2.357548e+03
1.624735e+03,2.352051e+03
1.625699e+03,2.352617e+03
1.626663e+03,2.354043e+03
1.627628e+03,2.354166e+03
1.628592e+03,2.352695e+03
1.629556e+03,2.351387e+03
1.630520e+03,2.350966e+03
1.631485e+03,2.347995e+03
1.632449e+03,2.342927e+03
1.633413e+03,2.338938e+03
1.634377e+03,2.338477e+03
1.635342e+03,2.336858e+03
1.636306e+03,2.328853e+03
1.637270e+03,2.323962e+03
1.638234e+03,2.327192e+03
1.639198e+03,2.335459e+03
1.640163e+03,2.342215e+03
1.641127e+03,2.347046e+03
1.642091e+03,2.344720e+03
1.643055e+03,2.335014e+03
1.644020e+03,2.327384e+03
1.644984e+03,2.327153e+03
1.645948e+03,2.326784e+03
1.646912e+03,2.324323e+03
1.647877e+03,2.323333e+03
1.648841e+03,2.328963e+03
1.649805e+03,2.337738e+03
1.650769e+03,2.335604e+03
1.651734e+03,2.326785e+03
1.652698e+03,2.322625e+03
1.653662e+03,2.325749e+03
1.654626e+03,2.329158e+03
1.655590e+03,2.335132e+03
1.656555e+03,2.333363e+03
1.657519e+03,2.319149e+03
1.658483e+03,2.303938e+03
1.659447e+03,2.305042e+03
1.660412e+03,2.313223e+03
1.661376e+03,2.310836e+03
1.662340e+03,2.301792e+03
1.663304e+03,2.299053e+03
1.664269e+03,2.313177e+03
1.665233e+03,2.318649e+03
1.666197e+03,2.312027e+03
1.667161e+03,2.305238e+03
1.668125e+03,2.306496e+03
1.669090e+03,2.309118e+03
1.670054e+03,2.298805e+03
1.671018e+03,2.286075e+03
1.671982e+03,2.287826e+03
1.672947e+03,2.304693e+03
1.673911e+03,2.314781e+03
1.674875e+03,2.314842e+03
1.675839e+03,2.312492e+03
1.676804e+03,2.309922e+03
1.677768e+03,2.306563e+03
1.678732e+03,2.298278e+03
1.679696e+03,2.290387e+03
1.680661e+03,2.288357e+03
1.681625e+03,2.288715e+03
1.682589e+03,2.287881e+03
1.683553e+03,2.286457e+03
1.684517e+03,2.289862e+03
1.685482e+03,2.297468e+03
1.686446e+03,2.300043e+03
1.687410e+03,2.294143e+03
1.688374e+03,2.286381e+03
1.689339e+03,2.279409e+03
1.690303e+03,2.274406e+03
1.691267e+03,2.272555e+03
1.692231e+03,2.273000e+03
1.693196e+03,2.273233e+03
1.694160e+03,2.272994e+03
1.695124e+03,2.277049e+03
1.696088e+03,2.284677e+03
1.697052e+03,2.289169e+03
1.698017e+03,2.282468e+03
1.698981e+03,2.277792e+03
1.699945e+03,2.280096e+03
1.700909e+03,2.280261e+03
1.701874e+03,2.274407e+03
1.702838e+03,2.267199e+03
1.703802e+03,2.267399e+03
1.704766e+03,2.269912e+03
1.705731e+03,2.266762e+03
1.706695e+03,2.257835e+03
1.707659e+03,2.249959e+03
1.708623e+03,2.243159e+03
1.709588e+03,2.244033e+03
1.710552e+03,2.253861e+03
1.711516e+03,2.261379e+03
1.712480e+03,2.253268e+03
1.713444e+03,2.241889e+03
1.714409e+03,2.242966e+03
1.715373e+03,2.250347e+03
1.716337e+03,2.253632e+03
1.717301e+03,2.252947e+03
1.718266e+03,2.258296e+03
1.719230e+03,2.268777e+03
1.720194e+03,2.268667e+03
1.721158e+03,2.251915e+03
1.722123e+03,2.237000e+03
1.723087e+03,2.241035e+03
1.724051e+03,2.246188e+03
1.725015e+03,2.242845e+03
1.725979e+03,2.237109e+03
1.726944e+03,2.237899e+03
1.727908e+03,2.242914e+03
1.728872e+03,2.240857e+03
1.729836e+03,2.233182e+03
1.730801e+03,2.229157e+03
1.731765e+03,2.234886e+03
1.732729e+03,2.239392e+03
1.733693e+03,2.240742e+03
1.734658e+03,2.243840e+03
1.735622e+03,2.251934e+03
1.736586e+03,2.259385e+03
1.737550e+03,2.258074e+03
1.738515e+03,2.251521e+03
1.739479e+03,2.241442e+03
1.740443e+03,2.229923e+03
1.741407e+03,2.226481e+03
1.742371e+03,2.232683e+03
1.743336e+03,2.231398e+03
1.744300e+03,2.221355e+03
1.745264e+03,2.212432e+03
1.746228e+03,2.214237e+03
1.747193e+03,2.217494e+03
1.748157e+03,2.218536e+03
1.749121e+03,2.220284e+03
1.750085e+03,2.221880e+03
1.751050e+03,2.222357e+03
1.752014e+03,2.227428e+03
1.752978e+03,2.234400e+03
1.753942e+03,2.233296e+03
1.754906e+03,2.221924e+03
1.755871e+03,2.216662e+03
1.756835e+03,2.222946e+03
1.757799e+03,2.224127e+03
1.758763e+03,2.219014e+03
1.759728e+03,2.214309e+03
1.760692e+03,2.218659e+03
1.761656e+03,2.223265e+03
1.762620e+03,2.214606e+03
1.763585e+03,2.201958e+03
1.764549e+03,2.199771e+03
1.765513e+03,2.207010e+03
1.766477e+03,2.212823e+03
1.767442e+03,2.217531e+03
1.768406e+03,2.218815e+03
1.769370e+03,2.215302e+03
1.770334e+03,2.214003e+03
1.771298e+03,2.221519e+03
1.772263e+03,2.223760e+03
1.773227e+03,2.215803e+03
1.774191e+03,2.205762e+03
1.775155e+03,2.204749e+03
1.776120e+03,2.207736e+03
1.777084e+03,2.208867e+03
1.778048e+03,2.207954e+03
1.779012e+03,2.204976e+03
1.779977e+03,2.200550e+03
1.780941e+03,2.193129e+03
1.781905e+03,2.181949e+03
1.782869e+03,2.177414e+03
1.783833e+03,2.187319e+03
1.784798e+03,2.195535e+03
1.785762e+03,2.186872e+03
1.786726e+03,2.180064e+03
1.787690e+03,2.186353e+03
1.788655e+03,2.197393e+03
1.789619e+03,2.195650e+03
1.790583e+03,2.186555e+03
1.791547e+03,2.179138e+03
1.792512e+03,2.174490e+03
1.793476e+03,2.172829e+03
1.794440e+03,2.172848e+03
1.795404e+03,2.177755e+03
1.796369e+03,2.187352e+03
1.797333e+03,2.191177e+03
1.798297e+03,2.178855e+03
1.799261e+03,2.167639e+03
1.800225e+03,2.170128e+03
1.801190e+03,2.176322e+03
1.802154e+03,2.181413e+03
1.803118e+03,2.184480e+03
1.804082e+03,2.184052e+03
1.805047e+03,2.181293e+03
1.806011e+03,2.176271e+03
1.806975e+03,2.169254e+03
1.807939e+03,2.164377e+03
1.808904e+03,2.162076e+03
1.809868e+03,2.158894e+03
1.810832e+03,2.155060e+03
1.811796e+03,2.152619e+03
1.812760e+03,2.154503e+03
1.813725e+03,2.155703e+03
1.814689e+03,2.151008e+03
1.815653e+03,2.146602e+03
1.816617e+03,2.147314e+03
1.817582e+03,2.151910e+03
1.818546e+03,2.159425e+03
1.819510e+03,2.165973e+03
1.820474e+03,2.160759e+03
1.821439e+03,2.142707e+03
1.822403e+03,2.134891e+03
1.823367e+03,2.141647e+03
1.824331e+03,2.144349e+03
1.825296e+03,2.139298e+03
1.826260e+03,2.134523e+03
1.827224e+03,2.140280e+03
1.828188e+03,2.147106e+03
1.829152e+03,2.148119e+03
1.830117e+03,2.146971e+03
1.831081e+03,2.146770e+03
1.832045e+03,2.145952e+03
1.833009e+03,2.142103e+03
1.833974e+03,2.137583e+03
1.834938e+03,2.131568e+03
1.835902e+03,2.122481e+03
1.836866e+03,2.128181e+03
1.837831e+03,2.150367e+03
1.838795e+03,2.158359e+03
1.839759e+03,2.146157e+03
1.840723e+03,2.133056e+03
1.841688e+03,2.129905e+03
1.842652e+03,2.130458e+03
1.843616e+03,2.132292e+03
1.844580e+03,2.133471e+03
1.845544e+03,2.132345e+03
1.846509e+03,2.131099e+03
1.847473e+03,2.134963e+03
1.848437e+03,2.140294e+03
1.849401e+03,2.139769e+03
1.850366e+03,2.133620e+03
1.851330e+03,2.126860e+03
1.852294e+03,2.120415e+03
1.853258e+03,2.116069e+03
1.854223e+03,2.113964e+03
1.855187e+03,2.116539e+03
1.856151e+03,2.131218e+03
1.857115e+03,2.137705e+03
1.858079e+03,2.130252e+03
1.859044e+03,2.118433e+03
1.860008e+03,2.110921e+03
1.860972e+03,2.107485e+03
1.861936e+03,2.110776e+03
1.862901e+03,2.115733e+03
1.863865e+03,2.112914e+03
1.864829e+03,2.102754e+03
1.865793e+03,2.102843e+03
1.866758e+03,2.109580e+03
1.867722e+03,2.109159e+03
1.868686e+03,2.095404e+03
1.869650e+03,2.087301e+03
1.870615e+03,2.085663e+03
1.871579e+03,2.088270e+03
1.872543e+03,2.096164e+03
1.873507e+03,2.104720e+03
1.874471e+03,2.108620e+03
1.875436e+03,2.108999e+03
1.876400e+03,2.106646e+03
1.877364e+03,2.104036e+03
1.878328e+03,2.104564e+03
1.879293e+03,2.106030e+03
1.880257e+03,2.102374e+03
1.881221e+03,2.096056e+03
1.882185e+03,2.094200e+03
1.883150e+03,2.097698e+03
1.884114e+03,2.098636e+03
1.885078e+03,2.097040e+03
1.886042e+03,2.097932e+03
1.887006e+03,2.103421e+03
1.887971e+03,2.104808e+03
1.888935e+03,2.098193e+03
1.889899e+03,2.094249e+03
1.890863e+03,2.094962e+03
1.891828e+03,2.093522e+03
1.892792e+03,2.082109e+03
1.893756e+03,2.068932e+03
1.894720e+03,2.058848e+03
1.895685e+03,2.055521e+03
1.896649e+03,2.065326e+03
1.897613e+03,2.081407e+03
1.898577e+03,2.081534e+03
1.899542e+03,2.072545e+03
1.900506e+03,2.069248e+03
1.901470e+03,2.074252e+03
1.902434e+03,2.074828e+03
1.903398e+03,2.071327e+03
1.904363e+03,2.068892e+03
1.905327e+03,2.069092e+03
1.906291e+03,2.070195e+03
1.907255e+03,2.069875e+03
1.908220e+03,2.070556e+03
1.909184e+03,2.073197e+03
1.910148e+03,2.074947e+03
1.911112e+03,2.075147e+03
1.912077e+03,2.072909e+03
1.913041e+03,2.062920e+03
1.914005e+03,2.053784e+03
1.914969e+03,2.056404e+03
1.915933e+03,2.066082e+03
1.916898e+03,2.066604e+03
1.917862e+03,2.060878e+03
1.918826e+03,2.053424e+03
1.919790e+03,2.045454e+03
1.920755e+03,2.033725e+03
1.921719e+03,2.017844e+03
1.922683e+03,2.019159e+03
1.923647e+03,2.043256e+03
1.924612e+03,2.059477e+03
1.925576e+03,2.044615e+03
1.926540e+03,2.035761e+03
1.927504e+03,2.037343e+03
1.928469e+03,2.041360e+03
1.929433e+03,2.042859e+03
1.930397e+03,2.041162e+03
1.931361e+03,2.030974e+03
1.932325e+03,2.022796e+03
1.933290e+03,2.027637e+03
1.934254e+03,2.040780e+03
1.935218e+03,2.048793e+03
1.936182e+03,2.051241e+03
1.937147e+03,2.049417e+03
1.938111e+03,2.044619e+03
1.939075e+03,2.038630e+03
1.940039e+03,2.032581e+03
1.941004e+03,2.026592e+03
1.941968e+03,2.019637e+03
1.942932e+03,2.016854e+03
1.943896e+03,2.023330e+03
1.944860e+03,2.025490e+03
1.945825e+03,2.022876e+03
1.946789e+03,2.018068e+03
1.947753e+03,2.007762e+03
1.948717e+03,2.000850e+03
1.949682e+03,1.999620e+03
1.950646e+03,2.005009e+03
1.951610e+03,2.022631e+03
1.952574e+03,2.039395e+03
1.953539e+03,2.032394e+03
1.954503e+03,2.016800e+03
1.955467e+03,2.008423e+03
1.956431e+03,2.005786e+03
1.957396e+03,2.003555e+03
1.958360e+03,2.001303e+03
1.959324e+03,1.998617e+03
1.960288e+03,1.996892e+03
1.961252e+03,1.999732e+03
1.962217e+03,2.006979e+03
1.963181e+03,2.003724e+03
1.964145e+03,1.990574e+03
1.965109e+03,1.982119e+03
1.966074e+03,1.989418e+03
1.967038e+03,1.996429e+03
1.968002e+03,1.999615e+03
1.968966e+03,2.002936e+03
1.969931e+03,2.010300e+03
1.970895e+03,2.012980e+03
1.971859e+03,2.001488e+03
1.972823e+03,1.991754e+03
1.973787e+03,1.990506e+03
1.974752e+03,1.991208e+03
1.975716e+03,1.984526e+03
1.976680e+03,1.975364e+03
1.977644e+03,1.970998e+03
1.978609e+03,1.969722e+03
1.979573e+03,1.965783e+03
1.980537e+03,1.960341e+03
1.981501e+03,1.961147e+03
1.982466e+03,1.965572e+03
1.983430e+03,1.962423e+03
1.984394e+03,1.948371e+03
1.985358e+03,1.957799e+03
1.986323e+03,1.985307e+03
1.987287e+03,1.998085e+03
1.988251e+03,1.983295e+03
1.989215e+03,1.969518e+03
1.990179e+03,1.960266e+03
1.991144e+03,1.958184e+03
1.992108e+03,1.965539e+03
1.993072e+03,1.970532e+03
1.994036e+03,1.958609e+03
1.995001e+03,1.950189e+03
1.995965e+03,1.951207e+03
1.996929e+03,1.955826e+03
1.997893e+03,1.958349e+03
1.998858e+03,1.959395e+03
1.999822e+03,1.959906e+03
2.000786e+03,1.958861e+03
2.001750e+03,1.956782e+03
2.002714e+03,1.954920e+03
2.003679e+03,1.952243e+03
2.004643e+03,1.948729e+03
2.005607e+03,1.945091e+03
2.006571e+03,1.942439e+03
2.007536e+03,1.945117e+03
2.008500e+03,1.950638e+03
2.009464e+03,1.949933e+03
2.010428e+03,1.942832e+03
2.011393e+03,1.934707e+03
2.012357e+03,1.925186e+03
2.013321e+03,1.928297e+03
2.014285e+03,1.942188e+03
2.015250e+03,1.950094e+03
2.016214e+03,1.937374e+03
2.017178e+03,1.930909e+03
2.018142e+03,1.932844e+03
2.019106e+03,1.935518e+03
2.020071e+03,1.935779e+03
2.021035e+03,1.932714e+03
2.021999e+03,1.922025e+03
2.022963e+03,1.914574e+03
2.023928e+03,1.915860e+03
2.024892e+03,1.920451e+03
2.025856e+03,1.924407e+03
2.026820e+03,1.925728e+03
2.027785e+03,1.920904e+03
2.028749e+03,1.916456e+03
2.029713e+03,1.927688e+03
2.030677e+03,1.941657e+03
2.031641e+03,1.937277e+03
2.032606e+03,1.923573e+03
2.033570e+03,1.917891e+03
2.034534e+03,1.917348e+03
2.035498e+03,1.909152e+03
2.036463e+03,1.897730e+03
2.037427e+03,1.893665e+03
2.038391e+03,1.898202e+03
2.039355e+03,1.899354e+03
2.040320e+03,1.898791e+03
2.041284e+03,1.904245e+03
2.042248e+03,1.917005e+03
2.043212e+03,1.917014e+03
2.044177e+03,1.902932e+03
2.045141e+03,1.894473e+03
2.046105e+03,1.894023e+03
2.047069e+03,1.892486e+03
2.048033e+03,1.879483e+03
2.048998e+03,1.876553e+03
2.049962e+03,1.886939e+03
2.050926e+03,1.895058e+03
2.051890e+03,1.885897e+03
2.052854e+03,1.879794e+03
2.053819e+03,1.883268e+03
2.054783e+03,1.885378e+03
2.055747e+03,1.880634e+03
2.056711e+03,1.876825e+03
2.057676e+03,1.884171e+03
2.058640e+03,1.890487e+03
2.059604e+03,1.887003e+03
2.060568e+03,1.879952e+03
2.061533e+03,1.879174e+03
2.062497e+03,1.881471e+03
2.063461e+03,1.885881e+03
2.064425e+03,1.888876e+03
2.065390e+03,1.883881e+03
2.066354e+03,1.874716e+03
2.067318e+03,1.870194e+03
2.068282e+03,1.867502e+03
2.069247e+03,1.857608e+03
2.070211e+03,1.842537e+03
2.071175e+03,1.840961e+03
2.072139e+03,1.848060e+03
2.073104e+03,1.851199e+03
2.074068e+03,1.849496e+03
2.075032e+03,1.855318e+03
2.075996e+03,1.865688e+03
2.076960e+03,1.870687e+03
2.077925e+03,1.868113e+03
2.078889e+03,1.864541e+03
2.079853e+03,1.860586e+03
2.080817e+03,1.854215e+03
2.081782e+03,1.845305e+03
2.082746e+03,1.837810e+03
2.083710e+03,1.835276e+03
2.084674e+03,1.831436e+03
2.085639e+03,1.827011e+03
2.086603e+03,1.827516e+03
2.087567e+03,1.838252e+03
2.088531e+03,1.841983e+03
2.089496e+03,1.834586e+03
2.090460e+03,1.826510e+03
2.091424e+03,1.825326e+03
2.092388e+03,1.827085e+03
2.093353e+03,1.828620e+03
2.094317e+03,1.832168e+03
2.095281e+03,1.837375e+03
2.096245e+03,1.840283e+03
2.097209e+03,1.835231e+03
2.098174e+03,1.829515e+03
2.099138e+03,1.827074e+03
2.100102e+03,1.826427e+03
2.101066e+03,1.828253e+03
2.102031e+03,1.828129e+03
2.102995e+03,1.818236e+03
2.103959e+03,1.808581e+03
2.104923e+03,1.807257e+03
2.105887e+03,1.812807e+03
2.106852e+03,1.824267e+03
2.107816e+03,1.833764e+03
2.108780e+03,1.835668e+03
2.109744e+03,1.830816e+03
2.110708e+03,1.818783e+03
2.111673e+03,1.806017e+03
2.112637e+03,1.799414e+03
2.113601e+03,1.797413e+03
2.114565e+03,1.802727e+03
2.115530e+03,1.810681e+03
2.116494e+03,1.810242e+03
2.117458e+03,1.804531e+03
2.118422e+03,1.798760e+03
2.119387e+03,1.792820e+03
2.120351e+03,1.799081e+03
2.121315e+03,1.812123e+03
2.122279e+03,1.817385e+03
2.123244e+03,1.813920e+03
2.124208e+03,1.801670e+03
2.125172e+03,1.785018e+03
2.126136e+03,1.777214e+03
2.127101e+03,1.782399e+03
2.128065e+03,1.788603e+03
2.129029e+03,1.794904e+03
2.129993e+03,1.797118e+03
2.130958e+03,1.792558e+03
2.131922e+03,1.784181e+03
2.132886e+03,1.772677e+03
2.133850e+03,1.768387e+03
2.134814e+03,1.773481e+03
2.135779e+03,1.775914e+03
2.136743e+03,1.767781e+03
2.137707e+03,1.765544e+03
2.138671e+03,1.770362e+03
2.139636e+03,1.776082e+03
2.140600e+03,1.782461e+03
2.141564e+03,1.781383e+03
2.142528e+03,1.772358e+03
2.143493e+03,1.766811e+03
2.144457e+03,1.769891e+03
2.145421e+03,1.769453e+03
2.146385e+03,1.762011e+03
2.147350e+03,1.755434e+03
2.148314e+03,1.752849e+03
2.149278e+03,1.751917e+03
2.150242e+03,1.746432e+03
2.151207e+03,1.746898e+03
2.152171e+03,1.755520e+03
2.153135e+03,1.761072e+03
2.154099e+03,1.754664e+03
2.155063e+03,1.748922e+03
2.156028e+03,1.747262e+03
2.156992e+03,1.747802e+03
2.157956e+03,1.748278e+03
2.158920e+03,1.746962e+03
2.159885e+03,1.742360e+03
2.160849e+03,1.737782e+03
2.161813e+03,1.734661e+03
2.162777e+03,1.732066e+03
2.163741e+03,1.727850e+03
2.164706e+03,1.728254e+03
2.165670e+03,1.739325e+03
2.166634e+03,1.749975e+03
2.167598e+03,1.743607e+03
2.168563e+03,1.736159e+03
2.169527e+03,1.734379e+03
2.170491e+03,1.731198e+03
2.171455e+03,1.716532e+03
2.172420e+03,1.705809e+03
2.173384e+03,1.712013e+03
2.174348e+03,1.721346e+03
2.175312e+03,1.724048e+03
2.176277e+03,1.721224e+03
2.177241e+03,1.710967e+03
2.178205e+03,1.699839e+03
2.179169e+03,1.691632e+03
2.180134e+03,1.688727e+03
2.181098e+03,1.695942e+03
2.182062e+03,1.705981e+03
2.183026e+03,1.713631e+03
2.183990e+03,1.716911e+03
2.184955e+03,1.707707e+03
2.185919e+03,1.699823e+03
2.186883e+03,1.706837e+03
2.187847e+03,1.714376e+03
2.188812e+03,1.702365e+03
2.189776e+03,1.685269e+03
2.190740e+03,1.672905e+03
2.191704e+03,1.669111e+03
2.192668e+03,1.687663e+03
2.193633e+03,1.709954e+03
2.194597e+03,1.705779e+03
2.195561e+03,1.693518e+03
2.196525e+03,1.688457e+03
2.197490e+03,1.687271e+03
2.198454e+03,1.686247e+03
2.199418e+03,1.683714e+03
2.200382e+03,1.677211e+03
2.201347e+03,1.672609e+03
2.202311e+03,1.680493e+03
2.203275e+03,1.692319e+03
2.204239e+03,1.700392e+03
2.205204e+03,1.701831e+03
2.206168e+03,1.691052e+03
2.207132e+03,1.677662e+03
2.208096e+03,1.673160e+03
2.209061e+03,1.670636e+03
2.210025e+03,1.662015e+03
2.210989e+03,1.653499e+03
2.211953e+03,1.659962e+03
2.212917e+03,1.670079e+03
2.213882e+03,1.665710e+03
2.214846e+03,1.655389e+03
2.215810e+03,1.658756e+03
2.216774e+03,1.664816e+03
2.217739e+03,1.667567e+03
2.218703e+03,1.666615e+03
2.219667e+03,1.657152e+03
2.220631e+03,1.646246e+03
2.221595e+03,1.639562e+03
2.222560e+03,1.635541e+03
2.223524e+03,1.633077e+03
2.224488e+03,1.631742e+03
2.225452e+03,1.631001e+03
2.226417e+03,1.633016e+03
2.227381e+03,1.642983e+03
2.228345e+03,1.654351e+03
2.229309e+03,1.657324e+03
2.230274e+03,1.653813e+03
2.231238e+03,1.644064e+03
2.232202e+03,1.633114e+03
2.233166e+03,1.629802e+03
2.234131e+03,1.631585e+03
2.235095e+03,1.636877e+03
2.236059e+03,1.641207e+03
2.237023e+03,1.635449e+03
2.237988e+03,1.626769e+03
2.238952e+03,1.618713e+03
2.239916e+03,1.613112e+03
2.240880e+03,1.617438e+03
2.241844e+03,1.622478e+03
2.242809e+03,1.621153e+03
2.243773e+03,1.617588e+03
2.244737e+03,1.611359e+03
2.245701e+03,1.608235e+03
2.246666e+03,1.615614e+03
2.247630e+03,1.623757e+03
2.248594e+03,1.629518e+03
2.249558e+03,1.632512e+03
2.250522e+03,1.629519e+03
2.251487e+03,1.624333e+03
2.252451e+03,1.615255e+03
2.253415e+03,1.607195e+03
2.254379e+03,1.613159e+03
2.255344e+03,1.614611e+03
2.256308e+03,1.603264e+03
2.257272e+03,1.591520e+03
2.258236e+03,1.590451e+03
2.259201e+03,1.595331e+03
2.260165e+03,1.604262e+03
2.261129e+03,1.612083e+03
2.262093e+03,1.614463e+03
2.263058e+03,1.613188e+03
2.264022e+03,1.610782e+03
2.264986e+03,1.606032e+03
2.265950e+03,1.592259e+03
2.266915e+03,1.584043e+03
2.267879e+03,1.585198e+03
2.268843e+03,1.586324e+03
2.269807e+03,1.586070e+03
2.270771e+03,1.583574e+03
2.271736e+03,1.577584e+03
2.272700e+03,1.576321e+03
2.273664e+03,1.580980e+03
2.274628e+03,1.584775e+03
2.275593e+03,1.585292e+03
2.276557e+03,1.579747e+03
2.277521e+03,1.568712e+03
2.278485e+03,1.562138e+03
2.279449e+03,1.567166e+03
2.280414e+03,1.570788e+03
2.281378e+03,1.571998e+03
2.282342e+03,1.572200e+03
2.283306e+03,1.571093e+03
2.284271e+03,1.566233e+03
2.285235e+03,1.557745e+03
2.286199e+03,1.552056e+03
2.287163e+03,1.555073e+03
2.288128e+03,1.554799e+03
2.289092e+03,1.550172e+03
2.290056e+03,1.546170e+03
2.291020e+03,1.544502e+03
2.291985e+03,1.545271e+03
2.292949e+03,1.549108e+03
2.293913e+03,1.553466e+03
2.294877e+03,1.555954e+03
2.295842e+03,1.545594e+03
2.296806e+03,1.524792e+03
2.297770e+03,1.522753e+03
2.298734e+03,1.536063e+03
2.299698e+03,1.545288e+03
2.300663e+03,1.549509e+03
2.301627e+03,1.542359e+03
2.302591e+03,1.528823e+03
2.303555e+03,1.522257e+03
2.304520e+03,1.521819e+03
2.305484e+03,1.521861e+03
2.306448e+03,1.522102e+03
2.307412e+03,1.520028e+03
2.308376e+03,1.517327e+03
2.309341e+03,1.522628e+03
2.310305e+03,1.528947e+03
2.311269e+03,1.526842e+03
2.312233e+03,1.522080e+03
2.313198e+03,1.521629e+03
2.314162e+03,1.522692e+03
2.315126e+03,1.526508e+03
2.316090e+03,1.524840e+03
2.317055e+03,1.498859e+03
2.318019e+03,1.475826e+03
2.318983e+03,1.484001e+03
2.319947e+03,1.498770e+03
2.320912e+03,1.507900e+03
2.321876e+03,1.512059e+03
2.322840e+03,1.508045e+03
2.323804e+03,1.504410e+03
2.324769e+03,1.505983e+03
2.325733e+03,1.508145e+03
2.326697e+03,1.504964e+03
2.327661e+03,1.505825e+03
2.328625e+03,1.513669e+03
2.329590e+03,1.515625e+03
2.330554e+03,1.501268e+03
2.331518e+03,1.491458e+03
2.332482e+03,1.489171e+03
2.333447e+03,1.488367e+03
2.334411e+03,1.486511e+03
2.335375e+03,1.484027e+03
2.336339e+03,1.481036e+03
2.337303e+03,1.479054e+03
2.338268e+03,1.478678e+03
2.339232e+03,1.475814e+03
2.340196e+03,1.471262e+03
2.341160e+03,1.466796e+03
2.342125e+03,1.462272e+03
2.343089e+03,1.467965e+03
2.344053e+03,1.478700e+03
2.345017e+03,1.481764e+03
2.345982e+03,1.476862e+03
2.346946e+03,1.473687e+03
2.347910e+03,1.472741e+03
2.348874e+03,1.472367e+03
2.349839e+03,1.470759e+03
2.350803e+03,1.467402e+03
2.351767e+03,1.463087e+03
2.352731e+03,1.456456e+03
2.353696e+03,1.451461e+03
2.354660e+03,1.454145e+03
2.355624e+03,1.458538e+03
2.356588e+03,1.456106e+03
2.357552e+03,1.452826e+03
2.358517e+03,1.454804e+03
2.359481e+03,1.457419e+03
2.360445e+03,1.453797e+03
2.361409e+03,1.448396e+03
2.362374e+03,1.443090e+03
2.363338e+03,1.438429e+03
2.364302e+03,1.437075e+03
2.365266e+03,1.439413e+03
2.366230e+03,1.445397e+03
2.367195e+03,1.448578e+03
2.368159e+03,1.441146e+03
2.369123e+03,1.435882e+03
2.370087e+03,1.435979e+03
2.371052e+03,1.432856e+03
2.372016e+03,1.418356e+03
2.372980e+03,1.416406e+03
2.373944e+03,1.426439e+03
2.374909e+03,1.431605e+03
2.375873e+03,1.425027e+03
2.376837e+03,1.425030e+03
2.377801e+03,1.430243e+03
2.378766e+03,1.433422e+03
2.379730e+03,1.433495e+03
2.380694e+03,1.430024e+03
2.381658e+03,1.425272e+03
2.382623e+03,1.422560e+03
2.383587e+03,1.420981e+03
2.384551e+03,1.416869e+03
2.385515e+03,1.412073e+03
2.386479e+03,1.411819e+03
2.387444e+03,1.414482e+03
2.388408e+03,1.422132e+03
2.389372e+03,1.427114e+03
2.390336e+03,1.418045e+03
2.391301e+03,1.405864e+03
2.392265e+03,1.397236e+03
2.393229e+03,1.394164e+03
2.394193e+03,1.400279e+03
2.395157e+03,1.405127e+03
2.396122e+03,1.402452e+03
2.397086e+03,1.397289e+03
2.398050e+03,1.391751e+03
2.399014e+03,1.385880e+03
2.399979e+03,1.377644e+03
2.400943e+03,1.379518e+03
2.401907e+03,1.392820e+03
2.402871e+03,1.399395e+03
2.403836e+03,1.395701e+03
2.404800e+03,1.394951e+03
2.405764e+03,1.397739e+03
2.406728e+03,1.400865e+03
2.407693e+03,1.401379e+03
2.408657e+03,1.389146e+03
2.409621e+03,1.369832e+03
2.410585e+03,1.369488e+03
2.411550e+03,1.380734e+03
2.412514e+03,1.381938e+03
2.413478e+03,1.375917e+03
2.414442e+03,1.367626e+03
2.415406e+03,1.360893e+03
2.416371e+03,1.359077e+03
2.417335e+03,1.360947e+03
2.418299e+03,1.365059e+03
2.419263e+03,1.372262e+03
2.420228e+03,1.385010e+03
2.421192e+03,1.392630e+03
2.422156e+03,1.380785e+03
2.423120e+03,1.368779e+03
2.424084e+03,1.359297e+03
2.425049e+03,1.353386e+03
2.426013e+03,1.356096e+03
2.426977e+03,1.353637e+03
2.427941e+03,1.346109e+03
2.428906e+03,1.343416e+03
2.429870e+03,1.347802e+03
2.430834e+03,1.351739e+03
2.431798e+03,1.355188e+03
2.432763e+03,1.356777e+03
2.433727e+03,1.356341e+03
2.434691e+03,1.358908e+03
2.435655e+03,1.361266e+03
2.436620e+03,1.356490e+03
2.437584e+03,1.347556e+03
2.438548e+03,1.339747e+03
2.439512e+03,1.336018e+03
2.440477e+03,1.339042e+03
2.441441e+03,1.343190e+03
2.442405e+03,1.344599e+03
2.443369e+03,1.341652e+03
2.444333e+03,1.333416e+03
2.445298e+03,1.328233e+03
2.446262e+03,1.338963e+03
2.447226e+03,1.341323e+03
2.448190e+03,1.331747e+03
2.449155e+03,1.321708e+03
2.450119e+03,1.315561e+03
2.451083e+03,1.318208e+03
2.452047e+03,1.328208e+03
2.453011e+03,1.336433e+03
2.453976e+03,1.341445e+03
2.454940e+03,1.338386e+03
2.455904e+03,1.330776e+03
2.456868e+03,1.325722e+03
2.457833e+03,1.322025e+03
2.458797e+03,1.316189e+03
2.459761e+03,1.310757e+03
2.460725e+03,1.308450e+03
2.461690e+03,1.307353e+03
2.462654e+03,1.305722e+03
2.463618e+03,1.302473e+03
2.464582e+03,1.296173e+03
2.465547e+03,1.295193e+03
2.466511e+03,1.315439e+03
2.467475e+03,1.320264e+03
2.468439e+03,1.300903e+03
2.469404e+03,1.286226e+03
2.470368e+03,1.298433e+03
2.471332e+03,1.313213e+03
2.472296e+03,1.327363e+03
2.473260e+03,1.324339e+03
2.474225e+03,1.298580e+03
2.475189e+03,1.290089e+03
2.476153e+03,1.295225e+03
2.477117e+03,1.302880e+03
2.478082e+03,1.309315e+03
2.479046e+03,1.308237e+03
2.480010e+03,1.302734e+03
2.480974e+03,1.296163e+03
2.481938e+03,1.291718e+03
2.482903e+03,1.297168e+03
2.483867e+03,1.300355e+03
2.484831e+03,1.293795e+03
2.485795e+03,1.286721e+03
2.486760e+03,1.289913e+03
2.487724e+03,1.289233e+03
2.488688e+03,1.282786e+03
2.489652e+03,1.277570e+03
2.490617e+03,1.275783e+03
2.491581e+03,1.276731e+03
2.492545e+03,1.280268e+03
2.493509e+03,1.281934e+03
2.494474e+03,1.280131e+03
2.495438e+03,1.272409e+03
2.496402e+03,1.264587e+03
2.497366e+03,1.273869e+03
2.498331e+03,1.289708e+03
2.499295e+03,1.294598e+03
2.500259e+03,1.289776e+03
2.501223e+03,1.275553e+03
2.502188e+03,1.265064e+03
2.503152e+03,1.280084e+03
2.504116e+03,1.286971e+03
2.505080e+03,1.275500e+03
2.506044e+03,1.263581e+03
2.507009e+03,1.262921e+03
2.507973e+03,1.259363e+03
2.508937e+03,1.253391e+03
2.509901e+03,1.250464e+03
2.510865e+03,1.251477e+03
2.511830e+03,1.258732e+03
2.512794e+03,1.267218e+03
2.513758e+03,1.263159e+03
2.514722e+03,1.252878e+03
2.515687e+03,1.251403e+03
2.516651e+03,1.253404e+03
2.517615e+03,1.253272e+03
2.518579e+03,1.251864e+03
2.519544e+03,1.249307e+03
2.520508e+03,1.248042e+03
2.521472e+03,1.249446e+03
2.522436e+03,1.250492e+03
2.523401e+03,1.246625e+03
2.524365e+03,1.250516e+03
2.525329e+03,1.261135e+03
2.526293e+03,1.261527e+03
2.527258e+03,1.247965e+03
2.528222e+03,1.246614e+03
2.529186e+03,1.252888e+03
2.530150e+03,1.252736e+03
2.531115e+03,1.246961e+03
2.532079e+03,1.230755e+03
2.533043e+03,1.219182e+03
2.534007e+03,1.228357e+03
2.534971e+03,1.241420e+03
2.535936e+03,1.239548e+03
2.536900e+03,1.233656e+03
2.537864e+03,1.226906e+03
2.538828e+03,1.220941e+03
2.539792e+03,1.213076e+03
2.540757e+03,1.215143e+03
2.541721e+03,1.227622e+03
2.542685e+03,1.227691e+03
2.543649e+03,1.215751e+03
2.544614e+03,1.216684e+03
2.545578e+03,1.227108e+03
2.546542e+03,1.237088e+03
2.547506e+03,1.243985e+03
2.548471e+03,1.236842e+03
2.549435e+03,1.226806e+03
2.550399e+03,1.222883e+03
2.551363e+03,1.223968e+03
2.552328e+03,1.233399e+03
2.553292e+03,1.238870e+03
2.554256e+03,1.235510e+03
2.555220e+03,1.230236e+03
2.556185e+03,1.224402e+03
2.557149e+03,1.224297e+03
2.558113e+03,1.230235e+03
2.559077e+03,1.227693e+03
2.560042e+03,1.219573e+03
2.561006e+03,1.225154e+03
2.561970e+03,1.235606e+03
2.562934e+03,1.222455e+03
2.563898e+03,1.205172e+03
2.564863e+03,1.206525e+03
2.565827e+03,1.212825e+03
2.566791e+03,1.220724e+03
2.567755e+03,1.224388e+03
2.568719e+03,1.221422e+03
2.569684e+03,1.214950e+03
2.570648e+03,1.205325e+03
2.571612e+03,1.197487e+03
2.572576e+03,1.192639e+03
2.573541e+03,1.189498e+03
2.574505e+03,1.187239e+03
2.575469e+03,1.193983e+03
2.576433e+03,1.199751e+03
2.577398e+03,1.188122e+03
2.578362e+03,1.173181e+03
2.579326e+03,1.172351e+03
2.580290e+03,1.179675e+03
2.581255e+03,1.192223e+03
2.582219e+03,1.199360e+03
2.583183e+03,1.190674e+03
2.584147e+03,1.179599e+03
2.585112e+03,1.169115e+03
2.586076e+03,1.166407e+03
2.587040e+03,1.171940e+03
2.588004e+03,1.178658e+03
2.588969e+03,1.182138e+03
2.589933e+03,1.174440e+03
2.590897e+03,1.162312e+03
2.591861e+03,1.155282e+03
2.592825e+03,1.157147e+03
2.593790e+03,1.170903e+03
2.594754e+03,1.186333e+03
2.595718e+03,1.199615e+03
2.596682e+03,1.200831e+03
2.597646e+03,1.186348e+03
2.598611e+03,1.179901e+03
2.599575e+03,1.183874e+03
2.600539e+03,1.177679e+03
2.601503e+03,1.162876e+03
2.602468e+03,1.155193e+03
2.603432e+03,1.153820e+03
2.604396e+03,1.166115e+03
2.605360e+03,1.176226e+03
2.606325e+03,1.162237e+03
2.607289e+03,1.151293e+03
2.608253e+03,1.156393e+03
2.609217e+03,1.160602e+03
2.610182e+03,1.153374e+03
2.611146e+03,1.150029e+03
2.612110e+03,1.151238e+03
2.613074e+03,1.151814e+03
2.614039e+03,1.151966e+03
2.615003e+03,1.154632e+03
2.615967e+03,1.157484e+03
2.616931e+03,1.160898e+03
2.617896e+03,1.161981e+03
2.618860e+03,1.152103e+03
2.619824e+03,1.145316e+03
2.620788e+03,1.146652e+03
2.621752e+03,1.146744e+03
2.622717e+03,1.138062e+03
2.623681e+03,1.142495e+03
2.624645e+03,1.157855e+03
2.625609e+03,1.160656e+03
2.626573e+03,1.151946e+03
2.627538e+03,1.148527e+03
2.628502e+03,1.147570e+03
2.629466e+03,1.142133e+03
2.630430e+03,1.136338e+03
2.631395e+03,1.134144e+03
2.632359e+03,1.137380e+03
2.633323e+03,1.150728e+03
2.634287e+03,1.151479e+03
2.635252e+03,1.136040e+03
2.636216e+03,1.128922e+03
2.637180e+03,1.133309e+03
2.638144e+03,1.130255e+03
2.639109e+03,1.123593e+03
2.640073e+03,1.129649e+03
2.641037e+03,1.139887e+03
2.642001e+03,1.139632e+03
2.642966e+03,1.134673e+03
2.643930e+03,1.128106e+03
2.644894e+03,1.122952e+03
2.645858e+03,1.118955e+03
2.646823e+03,1.126672e+03
2.647787e+03,1.143500e+03
2.648751e+03,1.148419e+03
2.649715e+03,1.139914e+03
2.650679e+03,1.138413e+03
2.651644e+03,1.137323e+03
2.652608e+03,1.124262e+03
2.653572e+03,1.110539e+03
2.654536e+03,1.118198e+03
2.655500e+03,1.123727e+03
2.656465e+03,1.118144e+03
2.657429e+03,1.110359e+03
2.658393e+03,1.102072e+03
2.659357e+03,1.103004e+03
2.660322e+03,1.114201e+03
2.661286e+03,1.120224e+03
2.662250e+03,1.121480e+03
2.663214e+03,1.117690e+03
2.664179e+03,1.114559e+03
2.665143e+03,1.123594e+03
2.666107e+03,1.128408e+03
2.667071e+03,1.119695e+03
2.668036e+03,1.113926e+03
2.669000e+03,1.121093e+03
2.669964e+03,1.122828e+03
2.670928e+03,1.119115e+03
2.671893e+03,1.117215e+03
2.672857e+03,1.116692e+03
2.673821e+03,1.103839e+03
2.674785e+03,1.090982e+03
2.675750e+03,1.091823e+03
2.676714e+03,1.100103e+03
2.677678e+03,1.116021e+03
2.678642e+03,1.120939e+03
2.679606e+03,1.110573e+03
2.680571e+03,1.099590e+03
2.681535e+03,1.091011e+03
2.682499e+03,1.092225e+03
2.683463e+03,1.099902e+03
2.684427e+03,1.103431e+03
2.685392e+03,1.102910e+03
2.686356e+03,1.092161e+03
2.687320e+03,1.084087e+03
2.688284e+03,1.091705e+03
2.689249e+03,1.096907e+03
2.690213e+03,1.095222e+03
2.691177e+03,1.095260e+03
2.692141e+03,1.101387e+03
2.693106e+03,1.097198e+03
2.694070e+03,1.087484e+03
2.695034e+03,1.083300e+03
2.695998e+03,1.081968e+03
2.696963e+03,1.077617e+03
2.697927e+03,1.076042e+03
2.698891e+03,1.078681e+03
2.699855e+03,1.084138e+03
2.700820e+03,1.093883e+03
2.701784e+03,1.098371e+03
2.702748e+03,1.096190e+03
2.703712e+03,1.089626e+03
2.704677e+03,1.082800e+03
2.705641e+03,1.097108e+03
2.706605e+03,1.110640e+03
2.707569e+03,1.087866e+03
2.708533e+03,1.067422e+03
2.709498e+03,1.066491e+03
2.710462e+03,1.071723e+03
2.711426e+03,1.082279e+03
2.712390e+03,1.086418e+03
2.713354e+03,1.084460e+03
2.714319e+03,1.074477e+03
2.715283e+03,1.063793e+03
2.716247e+03,1.077796e+03
2.717211e+03,1.086752e+03
2.718176e+03,1.067585e+03
2.719140e+03,1.054630e+03
2.720104e+03,1.076672e+03
2.721068e+03,1.087411e+03
2.722033e+03,1.081658e+03
2.722997e+03,1.073344e+03
2.723961e+03,1.065326e+03
2.724925e+03,1.065244e+03
2.725890e+03,1.069371e+03
2.726854e+03,1.074882e+03
2.727818e+03,1.074328e+03
2.728782e+03,1.060949e+03
2.729747e+03,1.053778e+03
2.730711e+03,1.067125e+03
2.731675e+03,1.077892e+03
2.732639e+03,1.085408e+03
2.733604e+03,1.087152e+03
2.734568e+03,1.083572e+03
2.735532e+03,1.069775e+03
2.736496e+03,1.055832e+03
2.737460e+03,1.048969e+03
2.738425e+03,1.049008e+03
2.739389e+03,1.056960e+03
2.740353e+03,1.063692e+03
2.741317e+03,1.068026e+03
2.742281e+03,1.067427e+03
2.743246e+03,1.064616e+03
2.744210e+03,1.066527e+03
2.745174e+03,1.068344e+03
2.746138e+03,1.067789e+03
2.747103e+03,1.062527e+03
2.748067e+03,1.052861e+03
2.749031e+03,1.042562e+03
2.749995e+03,1.029169e+03
2.750960e+03,1.033607e+03
2.751924e+03,1.049133e+03
2.752888e+03,1.052154e+03
2.753852e+03,1.048492e+03
2.754817e+03,1.057441e+03
2.755781e+03,1.059972e+03
2.756745e+03,1.040729e+03
2.757709e+03,1.035634e+03
2.758674e+03,1.054182e+03
2.759638e+03,1.069680e+03
2.760602e+03,1.075867e+03
2.761566e+03,1.065604e+03
2.762531e+03,1.050693e+03
2.763495e+03,1.052519e+03
2.764459e+03,1.053667e+03
2.765423e+03,1.025660e+03
2.766387e+03,1.020292e+03
2.767352e+03,1.047558e+03
2.768316e+03,1.066726e+03
2.769280e+03,1.068834e+03
2.770244e+03,1.063772e+03
2.771208e+03,1.056510e+03
2.772173e+03,1.055616e+03
2.773137e+03,1.055506e+03
2.774101e+03,1.052428e+03
2.775065e+03,1.046698e+03
2.776030e+03,1.035885e+03
2.776994e+03,1.031541e+03
2.777958e+03,1.032405e+03
2.778922e+03,1.033098e+03
2.779887e+03,1.033034e+03
2.780851e+03,1.027921e+03
2.781815e+03,1.027927e+03
2.782779e+03,1.042067e+03
2.783744e+03,1.050050e+03
2.784708e+03,1.033872e+03
2.785672e+03,1.030009e+03
2.786636e+03,1.038789e+03
2.787601e+03,1.037649e+03
2.788565e+03,1.030289e+03
2.789529e+03,1.024082e+03
2.790493e+03,1.022984e+03
2.791458e+03,1.037074e+03
2.792422e+03,1.039735e+03
2.793386e+03,1.027458e+03
2.794350e+03,1.023587e+03
2.795314e+03,1.033059e+03
2.796279e+03,1.032600e+03
2.797243e+03,1.029229e+03
2.798207e+03,1.038436e+03
2.799171e+03,1.047251e+03
2.800135e+03,1.035535e+03
2.801100e+03,1.020496e+03
2.802064e+03,1.005695e+03
2.803028e+03,1.015004e+03
2.803992e+03,1.040145e+03
2.804957e+03,1.032555e+03
2.805921e+03,1.012265e+03
2.806885e+03,1.022106e+03
2.807849e+03,1.031213e+03
2.808814e+03,1.023277e+03
2.809778e+03,1.021510e+03
2.810742e+03,1.042433e+03
2.811706e+03,1.035823e+03
2.812671e+03,1.012824e+03
2.813635e+03,1.022344e+03
2.814599e+03,1.044061e+03
2.815563e+03,1.035909e+03
2.816528e+03,1.025611e+03
2.817492e+03,1.024562e+03
2.818456e+03,1.027564e+03
2.819420e+03,1.031400e+03
2.820385e+03,1.027899e+03
2.821349e+03,1.018996e+03
2.822313e+03,1.004981e+03
2.823277e+03,9.985197e+02
2.824241e+03,1.008001e+03
2.825206e+03,1.019620e+03
2.826170e+03,1.027324e+03
2.827134e+03,1.028098e+03
2.828098e+03,1.021772e+03
2.829063e+03,1.019736e+03
2.830027e+03,1.018976e+03
2.830991e+03,1.011747e+03
2.831955e+03,1.007306e+03
2.832919e+03,1.015444e+03
2.833884e+03,1.012474e+03
2.834848e+03,9.971496e+02
2.835812e+03,1.013305e+03
2.836776e+03,1.055765e+03
2.837741e+03,1.044577e+03
2.838705e+03,1.014333e+03
2.839669e+03,1.001002e+03
2.840633e+03,1.002111e+03
2.841598e+03,1.017446e+03
2.842562e+03,1.024714e+03
2.843526e+03,1.018895e+03
2.844490e+03,1.015979e+03
2.845455e+03,1.015842e+03
2.846419e+03,1.020474e+03
2.847383e+03,1.026269e+03
2.848347e+03,1.032110e+03
2.849312e+03,1.029702e+03
2.850276e+03,1.017796e+03
2.851240e+03,1.010810e+03
2.852204e+03,1.008319e+03
2.853168e+03,1.005042e+03
2.854133e+03,1.004264e+03
2.855097e+03,1.013386e+03
2.856061e+03,1.024307e+03
2.857025e+03,1.033111e+03
2.857990e+03,1.027604e+03
2.858954e+03,1.003954e+03
2.859918e+03,1.003980e+03
2.860882e+03,1.015809e+03
2.861846e+03,1.020131e+03
2.862811e+03,1.017157e+03
2.863775e+03,1.002217e+03
2.864739e+03,9.999141e+02
2.865703e+03,1.017991e+03
2.866668e+03,1.035196e+03
2.867632e+03,1.045764e+03
2.868596e+03,1.032955e+03
2.869560e+03,1.013471e+03
2.870525e+03,1.004850e+03
2.871489e+03,1.003036e+03
2.872453e+03,1.006057e+03
2.873417e+03,1.011929e+03
2.874382e+03,1.018658e+03
2.875346e+03,1.024977e+03
2.876310e+03,1.027490e+03
2.877274e+03,1.013309e+03
2.878239e+03,1.006047e+03
2.879203e+03,1.013150e+03
2.880167e+03,1.020493e+03
2.881131e+03,1.025297e+03
2.882095e+03,1.021990e+03
2.883060e+03,1.016992e+03
2.884024e+03,1.018691e+03
2.884988e+03,1.026325e+03
2.885952e+03,1.043615e+03
2.886917e+03,1.044891e+03
2.887881e+03,1.023138e+03
2.888845e+03,1.001526e+03
2.889809e+03,9.855374e+02
2.890773e+03,9.816969e+02
2.891738e+03,9.905805e+02
2.892702e+03,1.037342e+03
2.893666e+03,1.050161e+03
2.894630e+03,1.018780e+03
2.895595e+03,1.008588e+03
2.896559e+03,1.019267e+03
2.897523e+03,1.031284e+03
2.898487e+03,1.033697e+03
2.899452e+03,1.000920e+03
2.900416e+03,9.888405e+02
2.901380e+03,1.006790e+03
2.902344e+03,1.010593e+03
2.903309e+03,9.958445e+02
2.904273e+03,9.993860e+02
2.905237e+03,1.009388e+03
2.906201e+03,1.012573e+03
2.907166e+03,1.015718e+03
2.908130e+03,1.022366e+03
2.909094e+03,1.016733e+03
2.910058e+03,9.978044e+02
2.911022e+03,9.866190e+02
2.911987e+03,9.891813e+02
2.912951e+03,1.012733e+03
2.913915e+03,1.028904e+03
2.914879e+03,1.012074e+03
2.915844e+03,1.008519e+03
2.916808e+03,1.019285e+03
2.917772e+03,1.015294e+03
2.918736e+03,1.005477e+03
2.919700e+03,1.004081e+03
2.920665e+03,1.003178e+03
2.921629e+03,9.928722e+02
2.922593e+03,1.001954e+03
2.923557e+03,1.023289e+03
2.924522e+03,1.010239e+03
2.925486e+03,9.834017e+02
2.926450e+03,9.947967e+02
2.927414e+03,1.009014e+03
2.928379e+03,1.009769e+03
2.929343e+03,1.016780e+03
2.930307e+03,1.028707e+03
2.931271e+03,1.028499e+03
2.932236e+03,1.021623e+03
2.933200e+03,1.014292e+03
2.934164e+03,1.006464e+03
2.935128e+03,9.972238e+02
2.936093e+03,9.833279e+02
2.937057e+03,9.682914e+02
2.938021e+03,9.743766e+02
2.938985e+03,9.900515e+02
2.939949e+03,9.982758e+02
2.940914e+03,9.951163e+02
2.941878e+03,9.811117e+02
2.942842e+03,9.848738e+02
2.943806e+03,1.006776e+03
2.944771e+03,1.002955e+03
2.945735e+03,9.918334e+02
2.946699e+03,1.004132e+03
2.947663e+03,1.006019e+03
2.948627e+03,9.861594e+02
2.949592e+03,9.796631e+02
2.950556e+03,9.921675e+02
2.951520e+03,9.945247e+02
2.952484e+03,9.982756e+02
2.953449e+03,1.020018e+03
2.954413e+03,1.021941e+03
2.955377e+03,9.890333e+02
2.956341e+03,9.986315e+02
2.957306e+03,1.045784e+03
2.958270e+03,1.045481e+03
2.959234e+03,1.021431e+03
2.960198e+03,9.967841e+02
2.961163e+03,9.845419e+02
2.962127e+03,9.884831e+02
2.963091e+03,1.002780e+03
2.964055e+03,1.017715e+03
2.965020e+03,1.010211e+03
2.965984e+03,9.965037e+02
2.966948e+03,9.857468e+02
2.967912e+03,9.898137e+02
2.968876e+03,1.022520e+03
2.969841e+03,1.008610e+03
2.970805e+03,9.744625e+02
2.971769e+03,9.756874e+02
2.972733e+03,9.848139e+02
2.973698e+03,9.807272e+02
2.974662e+03,9.819658e+02
2.975626e+03,9.934769e+02
2.976590e+03,9.928228e+02
2.977554e+03,9.876668e+02
2.978519e+03,9.877835e+02
2.979483e+03,9.877762e+02
2.980447e+03,9.853222e+02
2.981411e+03,9.762848e+02
2.982376e+03,9.649163e+02
2.983340e+03,9.809330e+02
2.984304e+03,9.986545e+02
2.985268e+03,9.920412e+02
2.986233e+03,9.848683e+02
2.987197e+03,9.921175e+02
2.988161e+03,9.864040e+02
2.989125e+03,9.759369e+02
2.990090e+03,9.931855e+02
2.991054e+03,1.006662e+03
2.992018e+03,9.907387e+02
2.992982e+03,9.691441e+02
2.993947e+03,9.489343e+02
2.994911e+03,9.600804e+02
2.995875e+03,9.818136e+02
2.996839e+03,9.762806e+02
2.997803e+03,9.632953e+02
2.998768e+03,9.561859e+02
2.999732e+03,9.613840e+02
3.000696e+03,9.793436e+02
3.001660e+03,9.778594e+02
3.002625e+03,9.710597e+02
3.003589e+03,9.754290e+02
3.004553e+03,9.772430e+02
3.005517e+03,9.708495e+02
3.006481e+03,9.589273e+02
3.007446e+03,9.481550e+02
3.008410e+03,9.664380e+02
3.009374e+03,9.879290e+02
3.010338e+03,9.985045e+02
3.011303e+03,9.930018e+02
3.012267e+03,9.680906e+02
3.013231e+03,9.785732e+02
3.014195e+03,9.997795e+02
3.015160e+03,9.857745e+02
3.016124e+03,9.678727e+02
3.017088e+03,9.577540e+02
3.018052e+03,9.547383e+02
3.019017e+03,9.573907e+02
3.019981e+03,9.754301e+02
3.020945e+03,9.839456e+02
3.021909e+03,9.575916e+02
3.022874e+03,9.449059e+02
3.023838e+03,9.534777e+02
3.024802e+03,9.656757e+02
3.025766e+03,9.729167e+02
3.026730e+03,9.464440e+02
3.027695e+03,9.364785e+02
3.028659e+03,9.648544e+02
3.029623e+03,9.890269e+02
3.030587e+03,1.000324e+03
3.031552e+03,9.791266e+02
3.032516e+03,9.520801e+02
3.033480e+03,9.470357e+02
3.034444e+03,9.632541e+02
3.035408e+03,9.951448e+02
3.036373e+03,9.979346e+02
3.037337e+03,9.796692e+02
3.038301e+03,9.621758e+02
3.039265e+03,9.541975e+02
3.040230e+03,9.660939e+02
3.041194e+03,9.721855e+02
3.042158e+03,9.739091e+02
3.043122e+03,9.865674e+02
3.044087e+03,9.958174e+02
3.045051e+03,9.731588e+02
3.046015e+03,9.587477e+02
3.046979e+03,9.657912e+02
3.047944e+03,9.675200e+02
3.048908e+03,9.668137e+02
3.049872e+03,9.672590e+02
3.050836e+03,9.720813e+02
3.051801e+03,9.848966e+02
3.052765e+03,9.869656e+02
3.053729e+03,9.772927e+02
3.054693e+03,9.720309e+02
3.055657e+03,9.712631e+02
3.056622e+03,9.731261e+02
3.057586e+03,9.761590e+02
3.058550e+03,9.804450e+02
3.059514e+03,9.782036e+02
3.060479e+03,9.715316e+02
3.061443e+03,9.598625e+02
3.062407e+03,9.494444e+02
3.063371e+03,9.419291e+02
3.064335e+03,9.479366e+02
3.065300e+03,9.647123e+02
3.066264e+03,9.846725e+02
3.067228e+03,9.980605e+02
3.068192e+03,9.970762e+02
3.069157e+03,9.858484e+02
3.070121e+03,9.708035e+02
3.071085e+03,9.726325e+02
3.072049e+03,9.819890e+02
3.073014e+03,9.938060e+02
3.073978e+03,9.902614e+02
3.074942e+03,9.669288e+02
3.075906e+03,9.519944e+02
3.076871e+03,9.474552e+02
3.077835e+03,9.540648e+02
3.078799e+03,9.604628e+02
3.079763e+03,9.579679e+02
3.080728e+03,9.689861e+02
3.081692e+03,9.866379e+02
3.082656e+03,9.798419e+02
3.083620e+03,9.664421e+02
3.084584e+03,9.574024e+02
3.085549e+03,9.647979e+02
3.086513e+03,9.893355e+02
3.087477e+03,9.877095e+02
3.088441e+03,9.811009e+02
3.089406e+03,9.979618e+02
3.090370e+03,1.005418e+03
3.091334e+03,9.994113e+02
3.092298e+03,9.867568e+02
3.093262e+03,9.753350e+02
3.094227e+03,9.862757e+02
3.095191e+03,9.857737e+02
3.096155e+03,9.605757e+02
3.097119e+03,9.551559e+02
3.098084e+03,9.615782e+02
3.099048e+03,9.553393e+02
3.100012e+03,9.529194e+02
3.100976e+03,9.696207e+02
3.101941e+03,9.868106e+02
3.102905e+03,9.969005e+02
3.103869e+03,9.722428e+02
3.104833e+03,9.543958e+02
3.105798e+03,9.702960e+02
3.106762e+03,9.666630e+02
3.107726e+03,9.370726e+02
3.108690e+03,9.562357e+02
3.109655e+03,9.853954e+02
3.110619e+03,9.668333e+02
3.111583e+03,9.760516e+02
3.112547e+03,1.015294e+03
3.113511e+03,1.005862e+03
3.114476e+03,9.727070e+02
3.115440e+03,9.758584e+02
3.116404e+03,9.772656e+02
3.117368e+03,9.641581e+02
3.118333e+03,9.760878e+02
3.119297e+03,9.942399e+02
3.120261e+03,9.840975e+02
3.121225e+03,9.795793e+02
3.122189e+03,1.000126e+03
3.123154e+03,9.873844e+02
3.124118e+03,9.522297e+02
3.125082e+03,9.669971e+02
3.126046e+03,9.866085e+02
3.127011e+03,9.877357e+02
3.127975e+03,9.759662e+02
3.128939e+03,9.598718e+02
3.129903e+03,9.741897e+02
3.130868e+03,9.841439e+02
3.131832e+03,9.393949e+02
3.132796e+03,9.357188e+02
3.133760e+03,9.715549e+02
3.134725e+03,9.980692e+02
3.135689e+03,1.009802e+03
3.136653e+03,1.004282e+03
3.137617e+03,9.913064e+02
3.138582e+03,9.741617e+02
3.139546e+03,9.871127e+02
3.140510e+03,1.002224e+03
3.141474e+03,9.901085e+02
3.142438e+03,9.821658e+02
3.143403e+03,9.833658e+02
3.144367e+03,9.749733e+02
3.145331e+03,9.653351e+02
3.146295e+03,9.727483e+02
3.147260e+03,9.789984e+02
3.148224e+03,9.790245e+02
3.149188e+03,1.007843e+03
3.150152e+03,1.030354e+03
3.151116e+03,9.981768e+02
3.152081e+03,9.769083e+02
3.153045e+03,9.932681e+02
3.154009e+03,1.003303e+03
3.154973e+03,1.004219e+03
3.155938e+03,9.913691e+02
3.156902e+03,9.775992e+02
3.157866e+03,9.661934e+02
3.158830e+03,9.665084e+02
3.159795e+03,9.772693e+02
3.160759e+03,9.976057e+02
3.161723e+03,1.006765e+03
3.162687e+03,9.832090e+02
3.163652e+03,9.879642e+02
3.164616e+03,1.004445e+03
3.165580e+03,9.947056e+02
3.166544e+03,9.865006e+02
3.167509e+03,9.919938e+02
3.168473e+03,9.812159e+02
3.169437e+03,9.589237e+02
3.170401e+03,9.385548e+02
3.171365e+03,9.465343e+02
3.172330e+03,9.970020e+02
3.173294e+03,1.003855e+03
3.174258e+03,9.808021e+02
3.175222e+03,9.625263e+02
3.176187e+03,9.690008e+02
3.177151e+03,1.021438e+03
3.178115e+03,1.022512e+03
3.179079e+03,9.847503e+02
3.180043e+03,9.566161e+02
3.181008e+03,9.656844e+02
3.181972e+03,1.015432e+03
3.182936e+03,1.012523e+03
3.183900e+03,9.737174e+02
3.184865e+03,9.681558e+02
3.185829e+03,9.746562e+02
3.186793e+03,9.905925e+02
3.187757e+03,1.011975e+03
3.188722e+03,1.029712e+03
3.189686e+03,1.025053e+03
3.190650e+03,1.025068e+03
3.191614e+03,1.038334e+03
3.192579e+03,1.006889e+03
3.193543e+03,9.536448e+02
3.194507e+03,9.660882e+02
3.195471e+03,9.812907e+02
3.196436e+03,9.724589e+02
3.197400e+03,1.013031e+03
3.198364e+03,1.060964e+03
3.199328e+03,1.046094e+03
3.200292e+03,1.018050e+03
3.201257e+03,0.000000e+00
3.202221e+03,0.000000e+00
3.203185e+03,0.000000e+00
3.204149e+03,0.000000e+00
3.205114e+03,0.000000e+00
3.206078e+03,0.000000e+00
3.207042e+03,0.000000e+00
3.208006e+03,0.000000e+00
3.208970e+03,0.000000e+00
3.209935e+03,0.000000e+00
3.210899e+03,0.000000e+00
3.211863e+03,0.000000e+00
3.212827e+03,0.000000e+00
3.213792e+03,0.000000e+00
3.214756e+03,0.000000e+00
3.215720e+03,0.000000e+00
3.216684e+03,0.000000e+00
3.217649e+03,0.000000e+00
3.218613e+03,0.000000e+00
3.219577e+03,0.000000e+00
3.220541e+03,0.000000e+00
3.221506e+03,0.000000e+00
3.222470e+03,0.000000e+00
3.223434e+03,0.000000e+00
3.224398e+03,0.000000e+00
3.225363e+03,0.000000e+00
3.226327e+03,0.000000e+00
3.227291e+03,0.000000e+00
3.228255e+03,0.000000e+00
3.229219e+03,0.000000e+00
3.230184e+03,0.000000e+00
3.231148e+03,0.000000e+00
3.232112e+03,0.000000e+00
3.233076e+03,0.000000e+00
3.234041e+03,0.000000e+00
3.235005e+03,0.000000e+00
3.235969e+03,0.000000e+00
3.236933e+03,0.000000e+00
3.237897e+03,0.000000e+00
3.238862e+03,0.000000e+00
3.239826e+03,0.000000e+00
3.240790e+03,0.000000e+00
3.241754e+03,0.000000e+00
3.242719e+03,0.000000e+00
3.243683e+03,0.000000e+00
3.244647e+03,0.000000e+00
3.245611e+03,0.000000e+00
3.246576e+03,0.000000e+00
3.247540e+03,0.000000e+00
3.248504e+03,0.000000e+00
3.249468e+03,0.000000e+00
3.250433e+03,0.000000e+00
3.251397e+03,0.000000e+00
3.252361e+03,0.000000e+00
3.253325e+03,0.000000e+00
3.254290e+03,0.000000e+00
3.255254e+03,0.000000e+00
3.256218e+03,0.000000e+00
3.257182e+03,0.000000e+00
3.258146e+03,0.000000e+00
3.259111e+03,0.000000e+00
3.260075e+03,0.000000e+00
3.261039e+03,0.000000e+00
3.262003e+03,0.000000e+00
3.262968e+03,0.000000e+00
3.263932e+03,0.000000e+00
3.264896e+03,0.000000e+00
3.265860e+03,0.000000e+00
3.266824e+03,0.000000e+00
3.267789e+03,0.000000e+00
3.268753e+03,0.000000e+00
3.269717e+03,0.000000e+00
3.270681e+03,0.000000e+00
3.271646e+03,0.000000e+00
3.272610e+03,0.000000e+00
3.273574e+03,0.000000e+00
3.274538e+03,0.000000e+00
3.275503e+03,0.000000e+00
3.276467e+03,0.000000e+00
3.277431e+03,0.000000e+00
3.278395e+03,0.000000e+00
3.279360e+03,0.000000e+00
3.280324e+03,0.000000e+00
3.281288e+03,0.000000e+00
3.282252e+03,0.000000e+00
3.283217e+03,0.000000e+00
3.284181e+03,0.000000e+00
3.285145e+03,0.000000e+00
3.286109e+03,0.000000e+00
3.287073e+03,0.000000e+00
3.288038e+03,0.000000e+00
3.289002e+03,0.000000e+00
3.289966e+03,0.000000e+00
3.290930e+03,0.000000e+00
3.291895e+03,0.000000e+00
3.292859e+03,0.000000e+00
3.293823e+03,0.000000e+00
3.294787e+03,0.000000e+00
3.295751e+03,0.000000e+00
3.296716e+03,0.000000e+00
3.297680e+03,0.000000e+00
3.298644e+03,0.000000e+00
3.299608e+03,0.000000e+00
3.300573e+03,0.000000e+00
3.301537e+03,0.000000e+00
3.302501e+03,0.000000e+00
3.303465e+03,0.000000e+00
3.304430e+03,0.000000e+00
3.305394e+03,0.000000e+00
3.306358e+03,0.000000e+00
3.307322e+03,0.000000e+00
3.308287e+03,0.000000e+00
3.309251e+03,0.000000e+00
3.310215e+03,0.000000e+00
3.311179e+03,0.000000e+00
3.312144e+03,0.000000e+00
3.313108e+03,0.000000e+00
3.314072e+03,0.000000e+00
3.315036e+03,0.000000e+00
3.316000e+03,0.000000e+00
3.316965e+03,0.000000e+00
3.317929e+03,0.000000e+00
3.318893e+03,0.000000e+00
3.319857e+03,0.000000e+00
3.320822e+03,0.000000e+00
3.321786e+03,0.000000e+00
3.322750e+03,0.000000e+00
3.323714e+03,0.000000e+00
3.324678e+03,0.000000e+00
3.325643e+03,0.000000e+00
3.326607e+03,0.000000e+00
3.327571e+03,0.000000e+00
3.328535e+03,0.000000e+00
3.329500e+03,0.000000e+00
3.330464e+03,0.000000e+00
3.331428e+03,0.000000e+00
3.332392e+03,0.000000e+00
3.333357e+03,0.000000e+00
3.334321e+03,0.000000e+00
3.335285e+03,0.000000e+00
3.336249e+03,0.000000e+00
3.337214e+03,0.000000e+00
3.338178e+03,0.000000e+00
3.339142e+03,0.000000e+00
3.340106e+03,0.000000e+00
3.341071e+03,0.000000e+00
3.342035e+03,0.000000e+00
3.342999e+03,0.000000e+00
3.343963e+03,0.000000e+00
3.344927e+03,0.000000e+00
3.345892e+03,0.000000e+00
3.346856e+03,0.000000e+00
3.347820e+03,0.000000e+00
3.348784e+03,0.000000e+00
3.349749e+03,0.000000e+00
3.350713e+03,0.000000e+00
3.351677e+03,0.000000e+00
3.352641e+03,0.000000e+00
3.353605e+03,0.000000e+00
3.354570e+03,0.000000e+00
3.355534e+03,0.000000e+00
3.356498e+03,0.000000e+00
3.357462e+03,0.000000e+00
3.358427e+03,0.000000e+00
3.359391e+03,0.000000e+00
3.360355e+03,0.000000e+00
3.361319e+03,0.000000e+00
3.362284e+03,0.000000e+00
3.363248e+03,0.000000e+00
3.364212e+03,0.000000e+00
3.365176e+03,0.000000e+00
3.366141e+03,0.000000e+00
3.367105e+03,0.000000e+00
3.368069e+03,0.000000e+00
3.369033e+03,0.000000e+00
3.369998e+03,0.000000e+00
3.370962e+03,0.000000e+00
3.371926e+03,0.000000e+00
3.372890e+03,0.000000e+00
3.373854e+03,0.000000e+00
3.374819e+03,0.000000e+00
3.375783e+03,0.000000e+00
3.376747e+03,0.000000e+00
3.377711e+03,0.000000e+00
3.378676e+03,0.000000e+00
3.379640e+03,0.000000e+00
3.380604e+03,0.000000e+00
3.381568e+03,0.000000e+00
3.382532e+03,0.000000e+00
3.383497e+03,0.000000e+00
3.384461e+03,0.000000e+00
3.385425e+03,0.000000e+00
3.386389e+03,0.000000e+00
3.387354e+03,0.000000e+00
3.388318e+03,0.000000e+00
3.389282e+03,0.000000e+00
3.390246e+03,0.000000e+00
3.391211e+03,0.000000e+00
3.392175e+03,0.000000e+00
3.393139e+03,0.000000e+00
3.394103e+03,0.000000e+00
3.395068e+03,0.000000e+00
3.396032e+03,0.000000e+00
3.396996e+03,0.000000e+00
3.397960e+03,0.000000e+00
3.398925e+03,0.000000e+00
3.399889e+03,0.000000e+00
3.400853e+03,0.000000e+00
3.401817e+03,0.000000e+00
3.402781e+03,0.000000e+00
3.403746e+03,0.000000e+00
3.404710e+03,0.000000e+00
3.405674e+03,0.000000e+00
3.406638e+03,0.000000e+00
3.407603e+03,0.000000e+00
3.408567e+03,0.000000e+00
3.409531e+03,0.000000e+00
3.410495e+03,0.000000e+00
3.411459e+03,0.000000e+00
3.412424e+03,0.000000e+00
3.413388e+03,0.000000e+00
3.414352e+03,0.000000e+00
3.415316e+03,0.000000e+00
3.416281e+03,0.000000e+00
3.417245e+03,0.000000e+00
3.418209e+03,0.000000e+00
3.419173e+03,0.000000e+00
3.420138e+03,0.000000e+00
3.421102e+03,0.000000e+00
3.422066e+03,0.000000e+00
3.423030e+03,0.000000e+00
3.423995e+03,0.000000e+00
3.424959e+03,0.000000e+00
3.425923e+03,0.000000e+00
3.426887e+03,0.000000e+00
3.427852e+03,0.000000e+00
3.428816e+03,0.000000e+00
3.429780e+03,0.000000e+00
3.430744e+03,0.000000e+00
3.431708e+03,0.000000e+00
3.432673e+03,0.000000e+00
3.433637e+03,0.000000e+00
3.434601e+03,0.000000e+00
3.435565e+03,0.000000e+00
3.436530e+03,0.000000e+00
3.437494e+03,0.000000e+00
3.438458e+03,0.000000e+00
3.439422e+03,0.000000e+00
3.440386e+03,0.000000e+00
3.441351e+03,0.000000e+00
3.442315e+03,0.000000e+00
3.443279e+03,0.000000e+00
3.444243e+03,0.000000e+00
3.445208e+03,0.000000e+00
3.446172e+03,0.000000e+00
3.447136e+03,0.000000e+00
3.448100e+03,0.000000e+00
3.449065e+03,0.000000e+00
3.450029e+03,0.000000e+00
3.450993e+03,0.000000e+00
3.451957e+03,0.000000e+00
3.452922e+03,0.000000e+00
3.453886e+03,0.000000e+00
3.454850e+03,0.000000e+00
3.455814e+03,0.000000e+00
3.456779e+03,0.000000e+00
3.457743e+03,0.000000e+00
3.458707e+03,0.000000e+00
3.459671e+03,0.000000e+00
3.460635e+03,0.000000e+00
3.461600e+03,0.000000e+00
3.462564e+03,0.000000e+00
3.463528e+03,0.000000e+00
3.464492e+03,0.000000e+00
3.465457e+03,0.000000e+00
3.466421e+03,0.000000e+00
3.467385e+03,0.000000e+00
3.468349e+03,0.000000e+00
3.469313e+03,0.000000e+00
3.470278e+03,0.000000e+00
3.471242e+03,0.000000e+00
3.472206e+03,0.000000e+00
3.473170e+03,0.000000e+00
3.474135e+03,0.000000e+00
3.475099e+03,0.000000e+00
3.476063e+03,0.000000e+00
3.477027e+03,0.000000e+00
3.477992e+03,0.000000e+00
3.478956e+03,0.000000e+00
3.479920e+03,0.000000e+00
3.480884e+03,0.000000e+00
3.481849e+03,0.000000e+00
3.482813e+03,0.000000e+00
3.483777e+03,0.000000e+00
3.484741e+03,0.000000e+00
3.485706e+03,0.000000e+00
3.486670e+03,0.000000e+00
3.487634e+03,0.000000e+00
3.488598e+03,0.000000e+00
3.489563e+03,0.000000e+00
3.490527e+03,0.000000e+00
3.491491e+03,0.000000e+00
3.492455e+03,0.000000e+00
3.493419e+03,0.000000e+00
3.494384e+03,0.000000e+00
3.495348e+03,0.000000e+00
3.496312e+03,0.000000e+00
3.497276e+03,0.000000e+00
3.498240e+03,0.000000e+00
3.499205e+03,0.000000e+00
3.500169e+03,0.000000e+00
