9.931763e+01,0.000000e+00
1.002819e+02,0.000000e+00
1.012461e+02,0.000000e+00
1.022103e+02,0.000000e+00
1.031746e+02,0.000000e+00
1.041388e+02,0.000000e+00
1.051030e+02,0.000000e+00
1.060673e+02,0.000000e+00
1.070315e+02,0.000000e+00
1.079957e+02,0.000000e+00
1.089600e+02,0.000000e+00
1.099242e+02,0.000000e+00
1.108884e+02,0.000000e+00
1.118527e+02,0.000000e+00
1.128169e+02,0.000000e+00
1.137811e+02,0.000000e+00
1.147454e+02,0.000000e+00
1.157096e+02,0.000000e+00
1.166738e+02,0.000000e+00
1.176381e+02,0.000000e+00
1.186023e+02,0.000000e+00
1.195665e+02,0.000000e+00
1.205308e+02,0.000000e+00
1.214950e+02,0.000000e+00
1.224592e+02,0.000000e+00
1.234235e+02,0.000000e+00
1.243877e+02,0.000000e+00
1.253519e+02,0.000000e+00
1.263162e+02,0.000000e+00
1.272804e+02,0.000000e+00
1.282446e+02,0.000000e+00
1.292089e+02,0.000000e+00
1.301731e+02,0.000000e+00
1.311373e+02,0.000000e+00
1.321016e+02,0.000000e+00
1.330658e+02,0.000000e+00
1.340300e+02,0.000000e+00
1.349943e+02,0.000000e+00
1.359585e+02,0.000000e+00
1.369227e+02,0.000000e+00
1.378870e+02,0.000000e+00
1.388512e+02,0.000000e+00
1.398154e+02,0.000000e+00
1.407797e+02,0.000000e+00
1.417439e+02,0.000000e+00
1.427081e+02,0.000000e+00
1.436724e+02,0.000000e+00
1.446366e+02,0.000000e+00
1.456008e+02,0.000000e+00
1.465651e+02,0.000000e+00
1.475293e+02,0.000000e+00
1.484935e+02,0.000000e+00
1.494578e+02,0.000000e+00
1.504220e+02,0.000000e+00
1.513862e+02,0.000000e+00
1.523505e+02,0.000000e+00
1.533147e+02,0.000000e+00
1.542789e+02,0.000000e+00
1.552432e+02,0.000000e+00
1.562074e+02,0.000000e+00
1.571716e+02,0.000000e+00
1.581359e+02,0.000000e+00
1.591001e+02,0.000000e+00
1.600643e+02,0.000000e+00
1.610286e+02,0.000000e+00
1.619928e+02,0.000000e+00
1.629570e+02,0.000000e+00
1.639213e+02,0.000000e+00
1.648855e+02,0.000000e+00
1.658497e+02,0.000000e+00
1.668140e+02,0.000000e+00
1.677782e+02,0.000000e+00
1.687424e+02,0.000000e+00
1.697067e+02,0.000000e+00
1.706709e+02,0.000000e+00
1.716351e+02,0.000000e+00
1.725994e+02,0.000000e+00
1.735636e+02,0.000000e+00
1.745278e+02,0.000000e+00
1.754921e+02,0.000000e+00
1.764563e+02,0.000000e+00
1.774205e+02,0.000000e+00
1.783848e+02,0.000000e+00
1.793490e+02,0.000000e+00
1.803132e+02,0.000000e+00
1.812775e+02,0.000000e+00
1.822417e+02,0.000000e+00
1.832059e+02,0.000000e+00
1.841702e+02,0.000000e+00
1.851344e+02,0.000000e+00
1.860986e+02,0.000000e+00
1.870629e+02,0.000000e+00
1.880271e+02,0.000000e+00
1.889913e+02,0.000000e+00
1.899556e+02,0.000000e+00
1.909198e+02,0.000000e+00
1.918840e+02,0.000000e+00
1.928483e+02,0.000000e+00
1.938125e+02,0.000000e+00
1.947767e+02,0.000000e+00
1.957410e+02,0.000000e+00
1.967052e+02,0.000000e+00
1.976694e+02,0.000000e+00
1.986337e+02,0.000000e+00
1.995979e+02,1.046964e+04
2.005621e+02,1.047981e+04
2.015264e+02,1.049152e+04
2.024906e+02,1.050564e+04
2.034548e+02,1.052034e+04
2.044191e+02,1.053340e+04
2.053833e+02,1.054303e+04
2.063475e+02,1.054905e+04
2.073118e+02,1.055229e+04
2.082760e+02,1.055275e+04
2.092402e+02,1.055023e+04
2.102045e+02,1.054658e+04
2.111687e+02,1.054622e+04
2.121329e+02,1.055114e+04
2.130972e+02,1.056043e+04
2.140614e+02,1.057110e+04
2.150256e+02,1.057994e+04
2.159899e+02,1.058612e+04
2.169541e+02,1.059435e+04
2.179183e+02,1.060919e+04
2.188826e+02,1.062824e+04
2.198468e+02,1.064671e+04
2.208110e+02,1.066058e+04
2.217753e+02,1.066859e+04
2.227395e+02,1.067257e+04
2.237037e+02,1.067718e+04
2.246680e+02,1.068221e+04
2.256322e+02,1.068503e+04
2.265964e+02,1.068749e+04
2.275607e+02,1.069241e+04
2.285249e+02,1.070199e+04
2.294892e+02,1.071674e+04
2.304534e+02,1.073503e+04
2.314176e+02,1.075159e+04
2.323819e+02,1.076485e+04
2.333461e+02,1.077655e+04
2.343103e+02,1.078854e+04
2.352746e+02,1.080180e+04
2.362388e+02,1.081599e+04
2.372030e+02,1.082920e+04
2.381673e+02,1.083688e+04
2.391315e+02,1.083789e+04
2.400957e+02,1.083586e+04
2.410600e+02,1.083374e+04
2.420242e+02,1.083454e+04
2.429884e+02,1.084039e+04
2.439527e+02,1.085114e+04
2.449169e+02,1.086350e+04
2.458811e+02,1.087555e+04
2.468454e+02,1.088743e+04
2.478096e+02,1.089928e+04
2.487738e+02,1.091119e+04
2.497381e+02,1.092293e+04
2.507023e+02,1.093465e+04
2.516665e+02,1.094691e+04
2.526308e+02,1.095972e+04
2.535950e+02,1.096986e+04
2.545592e+02,1.097477e+04
2.555235e+02,1.097477e+04
2.564877e+02,1.097263e+04
2.574519e+02,1.097223e+04
2.584161e+02,1.097703e+04
2.593804e+02,1.098841e+04
2.603446e+02,1.100378e+04
2.613088e+02,1.102010e+04
2.622731e+02,1.103715e+04
2.632373e+02,1.105562e+04
2.642015e+02,1.107264e+04
2.651658e+02,1.108527e+04
2.661300e+02,1.109288e+04
2.670942e+02,1.109793e+04
2.680585e+02,1.110515e+04
2.690227e+02,1.111871e+04
2.699869e+02,1.113241e+04
2.709512e+02,1.114052e+04
2.719154e+02,1.114331e+04
2.728796e+02,1.114520e+04
2.738439e+02,1.115154e+04
2.748081e+02,1.116541e+04
2.757723e+02,1.118599e+04
2.767366e+02,1.120554e+04
2.777008e+02,1.121963e+04
2.786650e+02,1.122956e+04
2.796293e+02,1.123792e+04
2.805935e+02,1.124688e+04
2.815577e+02,1.125743e+04
2.825220e+02,1.126901e+04
2.834862e+02,1.127886e+04
2.844504e+02,1.128402e+04
2.854147e+02,1.128623e+04
2.863789e+02,1.128756e+04
2.873431e+02,1.129060e+04
2.883074e+02,1.129709e+04
2.892716e+02,1.130667e+04
2.902358e+02,1.131700e+04
2.912001e+02,1.132663e+04
2.921643e+02,1.133578e+04
2.931285e+02,1.134644e+04
2.940928e+02,1.135958e+04
2.950570e+02,1.137532e+04
2.960212e+02,1.139113e+04
2.969855e+02,1.140364e+04
2.979497e+02,1.141115e+04
2.989139e+02,1.141448e+04
2.998782e+02,1.141725e+04
3.008424e+02,1.142350e+04
3.018066e+02,1.143413e+04
3.027709e+02,1.144636e+04
3.037351e+02,1.145768e+04
3.046993e+02,1.146692e+04
3.056636e+02,1.147431e+04
3.066278e+02,1.148101e+04
3.075920e+02,1.148884e+04
3.085563e+02,1.149845e+04
3.095205e+02,1.151189e+04
3.104847e+02,1.152890e+04
3.114490e+02,1.154741e+04
3.124132e+02,1.156491e+04
3.133774e+02,1.157925e+04
3.143417e+02,1.158917e+04
3.153059e+02,1.159377e+04
3.162701e+02,1.159601e+04
3.172344e+02,1.159868e+04
3.181986e+02,1.160278e+04
3.191628e+02,1.160888e+04
3.201271e+02,1.161750e+04
3.210913e+02,1.162868e+04
3.220555e+02,1.164175e+04
3.230198e+02,1.165575e+04
3.239840e+02,1.167008e+04
3.249482e+02,1.168424e+04
3.259125e+02,1.169771e+04
3.268767e+02,1.171076e+04
3.278409e+02,1.172364e+04
3.288052e+02,1.173625e+04
3.297694e+02,1.174823e+04
3.307336e+02,1.175929e+04
3.316979e+02,1.176965e+04
3.326621e+02,1.177917e+04
3.336263e+02,1.178546e+04
3.345906e+02,1.178808e+04
3.355548e+02,1.179020e+04
3.365190e+02,1.179593e+04
3.374833e+02,1.180784e+04
3.384475e+02,1.182536e+04
3.394117e+02,1.184477e+04
3.403760e+02,1.186072e+04
3.413402e+02,1.187475e+04
3.423044e+02,1.189110e+04
3.432687e+02,1.191061e+04
3.442329e+02,1.193150e+04
3.451971e+02,1.195065e+04
3.461614e+02,1.196491e+04
3.471256e+02,1.197256e+04
3.480898e+02,1.197636e+04
3.490541e+02,1.197884e+04
3.500183e+02,1.198235e+04
3.509825e+02,1.198931e+04
3.519468e+02,1.200161e+04
3.529110e+02,1.201902e+04
3.538752e+02,1.203903e+04
3.548395e+02,1.205831e+04
3.558037e+02,1.207473e+04
3.567680e+02,1.208796e+04
3.577322e+02,1.209937e+04
3.586964e+02,1.211193e+04
3.596607e+02,1.212734e+04
3.606249e+02,1.214420e+04
3.615891e+02,1.215814e+04
3.625534e+02,1.216518e+04
3.635176e+02,1.216445e+04
3.644818e+02,1.215827e+04
3.654461e+02,1.215143e+04
3.664103e+02,1.215042e+04
3.673745e+02,1.215997e+04
3.683388e+02,1.217766e+04
3.693030e+02,1.219936e+04
3.702672e+02,1.222116e+04
3.712315e+02,1.224066e+04
3.721957e+02,1.225655e+04
3.731599e+02,1.226728e+04
3.741242e+02,1.227460e+04
3.750884e+02,1.228331e+04
3.760526e+02,1.229588e+04
3.770169e+02,1.231209e+04
3.779811e+02,1.232940e+04
3.789453e+02,1.234456e+04
3.799096e+02,1.235504e+04
3.808738e+02,1.236076e+04
3.818380e+02,1.236471e+04
3.828023e+02,1.237077e+04
3.837665e+02,1.238138e+04
3.847307e+02,1.239503e+04
3.856950e+02,1.241141e+04
3.866592e+02,1.242942e+04
3.876234e+02,1.244819e+04
3.885877e+02,1.246715e+04
3.895519e+02,1.248583e+04
3.905161e+02,1.250335e+04
3.914804e+02,1.251785e+04
3.924446e+02,1.252836e+04
3.934088e+02,1.253735e+04
3.943731e+02,1.254654e+04
3.953373e+02,1.255656e+04
3.963015e+02,1.256595e+04
3.972658e+02,1.257221e+04
3.982300e+02,1.257562e+04
3.991942e+02,1.258175e+04
4.001585e+02,1.259571e+04
4.011227e+02,1.261709e+04
4.020869e+02,1.263801e+04
4.030512e+02,1.265208e+04
4.040154e+02,1.266066e+04
4.049796e+02,1.267012e+04
4.059439e+02,1.268439e+04
4.069081e+02,1.270183e+04
4.078723e+02,1.271719e+04
4.088366e+02,1.272684e+04
4.098008e+02,1.273115e+04
4.107650e+02,1.273667e+04
4.117293e+02,1.274472e+04
4.126935e+02,1.275391e+04
4.136577e+02,1.276351e+04
4.146220e+02,1.277363e+04
4.155862e+02,1.278514e+04
4.165504e+02,1.279876e+04
4.175147e+02,1.281375e+04
4.184789e+02,1.282808e+04
4.194431e+02,1.284042e+04
4.204074e+02,1.285257e+04
4.213716e+02,1.286533e+04
4.223358e+02,1.287724e+04
4.233001e+02,1.288676e+04
4.242643e+02,1.289395e+04
4.252285e+02,1.290059e+04
4.261928e+02,1.290905e+04
4.271570e+02,1.292052e+04
4.281212e+02,1.293422e+04
4.290855e+02,1.294774e+04
4.300497e+02,1.296031e+04
4.310139e+02,1.297290e+04
4.319782e+02,1.298699e+04
4.329424e+02,1.300393e+04
4.339066e+02,1.302397e+04
4.348709e+02,1.304558e+04
4.358351e+02,1.306580e+04
4.367993e+02,1.308250e+04
4.377636e+02,1.309523e+04
4.387278e+02,1.310746e+04
4.396920e+02,1.312154e+04
4.406563e+02,1.313692e+04
4.416205e+02,1.315178e+04
4.425847e+02,1.316490e+04
4.435490e+02,1.317664e+04
4.445132e+02,1.318845e+04
4.454774e+02,1.320192e+04
4.464417e+02,1.321787e+04
4.474059e+02,1.323620e+04
4.483701e+02,1.325284e+04
4.493344e+02,1.326524e+04
4.502986e+02,1.327414e+04
4.512628e+02,1.328288e+04
4.522271e+02,1.329400e+04
4.531913e+02,1.330678e+04
4.541555e+02,1.331778e+04
4.551198e+02,1.332378e+04
4.560840e+02,1.332536e+04
4.570482e+02,1.332676e+04
4.580125e+02,1.333318e+04
4.589767e+02,1.334581e+04
4.599409e+02,1.336213e+04
4.609052e+02,1.337773e+04
4.618694e+02,1.338995e+04
4.628336e+02,1.339856e+04
4.637979e+02,1.340457e+04
4.647621e+02,1.340945e+04
4.657263e+02,1.341577e+04
4.666906e+02,1.342731e+04
4.676548e+02,1.344245e+04
4.686190e+02,1.345959e+04
4.695833e+02,1.347626e+04
4.705475e+02,1.349112e+04
4.715117e+02,1.350331e+04
4.724760e+02,1.351270e+04
4.734402e+02,1.352007e+04
4.744044e+02,1.352671e+04
4.753687e+02,1.353410e+04
4.763329e+02,1.354281e+04
4.772971e+02,1.355213e+04
4.782614e+02,1.356131e+04
4.792256e+02,1.357221e+04
4.801898e+02,1.358607e+04
4.811541e+02,1.360236e+04
4.821183e+02,1.361925e+04
4.830826e+02,1.363477e+04
4.840468e+02,1.364771e+04
4.850110e+02,1.365878e+04
4.859753e+02,1.367048e+04
4.869395e+02,1.368210e+04
4.879037e+02,1.369153e+04
4.888680e+02,1.369953e+04
4.898322e+02,1.370779e+04
4.907964e+02,1.371801e+04
4.917607e+02,1.373081e+04
4.927249e+02,1.374528e+04
4.936891e+02,1.376011e+04
4.946534e+02,1.377487e+04
4.956176e+02,1.378946e+04
4.965818e+02,1.380458e+04
4.975461e+02,1.382020e+04
4.985103e+02,1.383504e+04
4.994745e+02,1.384679e+04
5.004388e+02,1.385357e+04
5.014030e+02,1.385538e+04
5.023672e+02,1.385631e+04
5.033315e+02,1.386141e+04
5.042957e+02,1.387171e+04
5.052599e+02,1.388291e+04
5.062242e+02,1.388945e+04
5.071884e+02,1.389219e+04
5.081526e+02,1.389457e+04
5.091169e+02,1.389879e+04
5.100811e+02,1.390614e+04
5.110453e+02,1.391524e+04
5.120095e+02,1.392823e+04
5.129738e+02,1.394348e+04
5.139380e+02,1.395871e+04
5.149022e+02,1.397438e+04
5.158665e+02,1.398935e+04
5.168307e+02,1.399834e+04
5.177949e+02,1.399462e+04
5.187592e+02,1.398478e+04
5.197234e+02,1.398078e+04
5.206876e+02,1.398143e+04
5.216519e+02,1.398815e+04
5.226161e+02,1.400019e+04
5.235803e+02,1.401287e+04
5.245446e+02,1.402090e+04
5.255088e+02,1.402502e+04
5.264730e+02,1.403117e+04
5.274373e+02,1.403797e+04
5.284015e+02,1.404871e+04
5.293657e+02,1.406769e+04
5.303300e+02,1.409803e+04
5.312942e+02,1.411555e+04
5.322584e+02,1.411542e+04
5.332227e+02,1.411051e+04
5.341869e+02,1.410586e+04
5.351511e+02,1.410068e+04
5.361154e+02,1.409856e+04
5.370796e+02,1.410913e+04
5.380438e+02,1.413843e+04
5.390081e+02,1.416437e+04
5.399723e+02,1.418277e+04
5.409365e+02,1.420013e+04
5.419008e+02,1.421913e+04
5.428650e+02,1.423791e+04
5.438292e+02,1.425198e+04
5.447935e+02,1.425885e+04
5.457577e+02,1.426005e+04
5.467219e+02,1.425933e+04
5.476862e+02,1.425893e+04
5.486504e+02,1.425658e+04
5.496146e+02,1.424594e+04
5.505789e+02,1.421933e+04
5.515431e+02,1.419480e+04
5.525073e+02,1.418050e+04
5.534716e+02,1.417873e+04
5.544358e+02,1.418546e+04
5.554000e+02,1.419638e+04
5.563643e+02,1.420857e+04
5.573285e+02,1.421951e+04
5.582927e+02,1.422783e+04
5.592570e+02,1.423534e+04
5.602212e+02,1.424542e+04
5.611854e+02,1.425686e+04
5.621497e+02,1.426620e+04
5.631139e+02,1.426964e+04
5.640781e+02,1.426708e+04
5.650424e+02,1.426171e+04
5.660066e+02,1.425531e+04
5.669708e+02,1.424958e+04
5.679351e+02,1.424989e+04
5.688993e+02,1.425322e+04
5.698635e+02,1.425091e+04
5.708278e+02,1.424312e+04
5.717920e+02,1.424050e+04
5.727562e+02,1.425004e+04
5.737205e+02,1.427267e+04
5.746847e+02,1.429211e+04
5.756489e+02,1.430437e+04
5.766132e+02,1.431336e+04
5.775774e+02,1.432372e+04
5.785416e+02,1.433627e+04
5.795059e+02,1.434607e+04
5.804701e+02,1.434745e+04
5.814343e+02,1.434270e+04
5.823986e+02,1.433833e+04
5.833628e+02,1.433541e+04
5.843270e+02,1.433755e+04
5.852913e+02,1.434904e+04
5.862555e+02,1.438299e+04
5.872197e+02,1.440649e+04
5.881840e+02,1.440763e+04
5.891482e+02,1.440276e+04
5.901124e+02,1.440563e+04
5.910767e+02,1.442041e+04
5.920409e+02,1.444121e+04
5.930051e+02,1.446421e+04
5.939694e+02,1.448724e+04
5.949336e+02,1.450431e+04
5.958978e+02,1.451445e+04
5.968621e+02,1.451741e+04
5.978263e+02,1.451373e+04
5.987905e+02,1.450023e+04
5.997548e+02,1.448801e+04
6.007190e+02,1.447476e+04
6.016832e+02,1.446723e+04
6.026475e+02,1.447135e+04
6.036117e+02,1.449009e+04
6.045759e+02,1.451184e+04
6.055402e+02,1.452239e+04
6.065044e+02,1.452081e+04
6.074686e+02,1.451696e+04
6.084329e+02,1.451915e+04
6.093971e+02,1.452598e+04
6.103613e+02,1.452337e+04
6.113256e+02,1.449802e+04
6.122899e+02,1.447890e+04
6.132541e+02,1.447328e+04
6.142183e+02,1.447644e+04
6.151826e+02,1.448115e+04
6.161468e+02,1.448973e+04
6.171110e+02,1.450097e+04
6.180753e+02,1.450901e+04
6.190395e+02,1.451305e+04
6.200037e+02,1.451809e+04
6.209680e+02,1.452674e+04
6.219322e+02,1.454078e+04
6.228964e+02,1.455567e+04
6.238607e+02,1.457133e+04
6.248249e+02,1.458531e+04
6.257891e+02,1.459136e+04
6.267534e+02,1.458837e+04
6.277176e+02,1.458357e+04
6.286818e+02,1.458907e+04
6.296461e+02,1.459714e+04
6.306103e+02,1.459646e+04
6.315745e+02,1.458822e+04
6.325388e+02,1.457950e+04
6.335030e+02,1.457179e+04
6.344672e+02,1.456258e+04
6.354315e+02,1.456261e+04
6.363957e+02,1.457619e+04
6.373599e+02,1.458700e+04
6.383242e+02,1.459030e+04
6.392884e+02,1.458855e+04
6.402526e+02,1.458723e+04
6.412169e+02,1.458782e+04
6.421811e+02,1.458865e+04
6.431453e+02,1.458741e+04
6.441096e+02,1.458421e+04
6.450738e+02,1.458213e+04
6.460380e+02,1.458784e+04
6.470023e+02,1.460474e+04
6.479665e+02,1.461914e+04
6.489307e+02,1.462579e+04
6.498950e+02,1.462897e+04
6.508592e+02,1.462914e+04
6.518234e+02,1.462403e+04
6.527877e+02,1.461928e+04
6.537519e+02,1.462091e+04
6.547161e+02,1.462180e+04
6.556804e+02,1.461547e+04
6.566446e+02,1.460275e+04
6.576088e+02,1.459025e+04
6.585731e+02,1.458231e+04
6.595373e+02,1.457897e+04
6.605015e+02,1.458256e+04
6.614658e+02,1.459592e+04
6.624300e+02,1.460993e+04
6.633942e+02,1.461490e+04
6.643585e+02,1.460349e+04
6.653227e+02,1.459958e+04
6.662869e+02,1.459712e+04
6.672512e+02,1.460195e+04
6.682154e+02,1.462421e+04
6.691796e+02,1.466239e+04
6.701439e+02,1.469275e+04
6.711081e+02,1.469636e+04
6.720723e+02,1.468118e+04
6.730366e+02,1.466294e+04
6.740008e+02,1.464560e+04
6.749650e+02,1.463008e+04
6.759293e+02,1.461858e+04
6.768935e+02,1.461699e+04
6.778577e+02,1.460842e+04
6.788220e+02,1.458782e+04
6.797862e+02,1.457236e+04
6.807504e+02,1.456842e+04
6.817147e+02,1.457389e+04
6.826789e+02,1.458015e+04
6.836431e+02,1.457963e+04
6.846074e+02,1.457458e+04
6.855716e+02,1.457388e+04
6.865358e+02,1.458117e+04
6.875001e+02,1.458775e+04
6.884643e+02,1.457771e+04
6.894285e+02,1.455190e+04
6.903928e+02,1.454261e+04
6.913570e+02,1.455949e+04
6.923212e+02,1.457988e+04
6.932855e+02,1.457983e+04
6.942497e+02,1.454660e+04
6.952139e+02,1.453162e+04
6.961782e+02,1.454342e+04
6.971424e+02,1.456479e+04
6.981066e+02,1.458164e+04
6.990709e+02,1.458580e+04
7.000351e+02,1.458145e+04
7.009993e+02,1.458139e+04
7.019636e+02,1.458526e+04
7.029278e+02,1.458084e+04
7.038920e+02,1.456425e+04
7.048563e+02,1.454411e+04
7.058205e+02,1.453654e+04
7.067847e+02,1.455312e+04
7.077490e+02,1.456293e+04
7.087132e+02,1.456775e+04
7.096774e+02,1.457633e+04
7.106417e+02,1.458478e+04
7.116059e+02,1.459165e+04
7.125701e+02,1.459010e+04
7.135344e+02,1.457205e+04
7.144986e+02,1.455381e+04
7.154628e+02,1.454932e+04
7.164271e+02,1.455866e+04
7.173913e+02,1.456920e+04
7.183555e+02,1.456873e+04
7.193198e+02,1.455842e+04
7.202840e+02,1.454574e+04
7.212482e+02,1.453231e+04
7.222125e+02,1.452424e+04
7.231767e+02,1.452652e+04
7.241409e+02,1.454048e+04
7.251052e+02,1.454915e+04
7.260694e+02,1.454640e+04
7.270336e+02,1.454174e+04
7.279979e+02,1.454583e+04
7.289621e+02,1.455950e+04
7.299263e+02,1.456666e+04
7.308906e+02,1.455127e+04
7.318548e+02,1.452819e+04
7.328190e+02,1.451505e+04
7.337833e+02,1.451390e+04
7.347475e+02,1.451733e+04
7.357117e+02,1.452436e+04
7.366760e+02,1.453648e+04
7.376402e+02,1.454006e+04
7.386044e+02,1.453282e+04
7.395687e+02,1.452396e+04
7.405329e+02,1.451815e+04
7.414971e+02,1.451523e+04
7.424614e+02,1.451174e+04
7.434256e+02,1.451181e+04
7.443898e+02,1.452250e+04
7.453541e+02,1.454519e+04
7.463183e+02,1.457103e+04
7.472825e+02,1.458605e+04
7.482468e+02,1.458465e+04
7.492110e+02,1.457123e+04
7.501752e+02,1.455093e+04
7.511395e+02,1.453146e+04
7.521037e+02,1.452132e+04
7.530679e+02,1.452444e+04
7.540322e+02,1.453522e+04
7.549964e+02,1.453842e+04
7.559606e+02,1.453440e+04
7.569249e+02,1.453372e+04
7.578891e+02,1.454546e+04
7.588533e+02,1.457241e+04
7.598176e+02,1.459102e+04
7.607818e+02,1.457986e+04
7.617460e+02,1.455836e+04
7.627103e+02,1.453536e+04
7.636745e+02,1.451798e+04
7.646387e+02,1.450891e+04
7.656030e+02,1.451485e+04
7.665672e+02,1.452398e+04
7.675314e+02,1.451697e+04
7.684957e+02,1.449044e+04
7.694599e+02,1.445949e+04
7.704241e+02,1.444237e+04
7.713884e+02,1.443941e+04
7.723526e+02,1.443834e+04
7.733168e+02,1.444238e+04
7.742811e+02,1.445087e+04
7.752453e+02,1.445472e+04
7.762095e+02,1.445129e+04
7.771738e+02,1.445423e+04
7.781380e+02,1.446863e+04
7.791022e+02,1.447145e+04
7.800665e+02,1.445989e+04
7.810307e+02,1.444051e+04
7.819949e+02,1.442225e+04
7.829592e+02,1.441194e+04
7.839234e+02,1.440799e+04
7.848876e+02,1.440959e+04
7.858519e+02,1.441218e+04
7.868161e+02,1.440973e+04
7.877803e+02,1.439850e+04
7.887446e+02,1.438450e+04
7.897088e+02,1.438233e+04
7.906730e+02,1.439486e+04
7.916373e+02,1.440571e+04
7.926015e+02,1.440142e+04
7.935657e+02,1.438283e+04
7.945300e+02,1.437119e+04
7.954942e+02,1.437967e+04
7.964584e+02,1.437675e+04
7.974227e+02,1.436492e+04
7.983869e+02,1.435798e+04
7.993511e+02,1.435554e+04
8.003154e+02,1.434859e+04
8.012796e+02,1.433598e+04
8.022438e+02,1.431926e+04
8.032081e+02,1.430741e+04
8.041723e+02,1.430704e+04
8.051365e+02,1.431757e+04
8.061008e+02,1.433264e+04
8.070650e+02,1.435084e+04
8.080292e+02,1.436431e+04
8.089935e+02,1.436546e+04
8.099577e+02,1.435716e+04
8.109219e+02,1.434588e+04
8.118862e+02,1.433514e+04
8.128504e+02,1.432489e+04
8.138146e+02,1.431581e+04
8.147789e+02,1.430555e+04
8.157431e+02,1.429483e+04
8.167073e+02,1.428818e+04
8.176716e+02,1.429435e+04
8.186358e+02,1.429926e+04
8.196000e+02,1.429881e+04
8.205643e+02,1.429888e+04
8.215285e+02,1.429494e+04
8.224927e+02,1.428677e+04
8.234570e+02,1.427927e+04
8.244212e+02,1.427079e+04
8.253854e+02,1.426688e+04
8.263497e+02,1.427113e+04
8.273139e+02,1.427700e+04
8.282781e+02,1.427698e+04
8.292424e+02,1.427321e+04
8.302066e+02,1.426928e+04
8.311708e+02,1.426207e+04
8.321351e+02,1.425295e+04
8.330993e+02,1.424995e+04
8.340635e+02,1.425563e+04
8.350278e+02,1.426522e+04
8.359920e+02,1.426817e+04
8.369562e+02,1.426374e+04
8.379205e+02,1.425948e+04
8.388847e+02,1.425821e+04
8.398489e+02,1.425898e+04
8.408132e+02,1.425695e+04
8.417774e+02,1.425048e+04
8.427416e+02,1.423856e+04
8.437059e+02,1.421715e+04
8.446701e+02,1.419301e+04
8.456343e+02,1.417406e+04
8.465986e+02,1.415988e+04
8.475628e+02,1.415015e+04
8.485270e+02,1.414421e+04
8.494913e+02,1.414244e+04
8.504555e+02,1.414990e+04
8.514197e+02,1.416971e+04
8.523840e+02,1.418935e+04
8.533482e+02,1.419434e+04
8.543124e+02,1.418840e+04
8.552767e+02,1.418089e+04
8.562409e+02,1.417213e+04
8.572051e+02,1.415962e+04
8.581694e+02,1.414160e+04
8.591336e+02,1.412096e+04
8.600978e+02,1.411013e+04
8.610621e+02,1.411337e+04
8.620263e+02,1.412172e+04
8.629905e+02,1.412539e+04
8.639548e+02,1.411918e+04
8.649190e+02,1.410652e+04
8.658832e+02,1.408587e+04
8.668475e+02,1.407450e+04
8.678117e+02,1.408717e+04
8.687759e+02,1.411637e+04
8.697402e+02,1.413162e+04
8.707044e+02,1.411090e+04
8.716686e+02,1.408242e+04
8.726329e+02,1.406302e+04
8.735971e+02,1.405232e+04
8.745613e+02,1.404275e+04
8.755256e+02,1.403339e+04
8.764898e+02,1.403112e+04
8.774540e+02,1.404158e+04
8.784183e+02,1.405658e+04
8.793825e+02,1.406280e+04
8.803467e+02,1.405367e+04
8.813110e+02,1.403952e+04
8.822752e+02,1.403528e+04
8.832394e+02,1.404145e+04
8.842037e+02,1.405069e+04
8.851679e+02,1.405798e+04
8.861321e+02,1.405909e+04
8.870964e+02,1.405006e+04
8.880606e+02,1.402938e+04
8.890248e+02,1.400710e+04
8.899891e+02,1.398879e+04
8.909533e+02,1.397618e+04
8.919175e+02,1.396823e+04
8.928818e+02,1.396598e+04
8.938460e+02,1.396206e+04
8.948102e+02,1.394957e+04
8.957745e+02,1.393579e+04
8.967387e+02,1.392532e+04
8.977029e+02,1.391507e+04
8.986672e+02,1.390850e+04
8.996314e+02,1.392713e+04
9.005956e+02,1.394357e+04
9.015599e+02,1.394042e+04
9.025241e+02,1.392136e+04
9.034883e+02,1.390260e+04
9.044526e+02,1.388453e+04
9.054168e+02,1.386689e+04
9.063810e+02,1.386378e+04
9.073453e+02,1.387416e+04
9.083095e+02,1.388280e+04
9.092737e+02,1.387652e+04
9.102380e+02,1.386446e+04
9.112022e+02,1.385889e+04
9.121664e+02,1.385649e+04
9.131307e+02,1.385255e+04
9.140949e+02,1.385042e+04
9.150591e+02,1.385415e+04
9.160234e+02,1.386028e+04
9.169876e+02,1.386108e+04
9.179518e+02,1.385257e+04
9.189161e+02,1.383414e+04
9.198803e+02,1.381070e+04
9.208445e+02,1.379092e+04
9.218088e+02,1.377936e+04
9.227730e+02,1.377322e+04
9.237372e+02,1.377004e+04
9.247015e+02,1.376778e+04
9.256657e+02,1.376505e+04
9.266299e+02,1.376064e+04
9.275942e+02,1.376256e+04
9.285584e+02,1.377442e+04
9.295226e+02,1.378213e+04
9.304869e+02,1.378159e+04
9.314511e+02,1.377672e+04
9.324153e+02,1.377325e+04
9.333796e+02,1.376977e+04
9.343438e+02,1.376880e+04
9.353080e+02,1.377492e+04
9.362723e+02,1.377577e+04
9.372365e+02,1.375895e+04
9.382007e+02,1.371697e+04
9.391650e+02,1.368467e+04
9.401292e+02,1.368136e+04
9.410934e+02,1.369242e+04
9.420577e+02,1.369886e+04
9.430219e+02,1.369456e+04
9.439861e+02,1.368573e+04
9.449504e+02,1.368028e+04
9.459146e+02,1.368308e+04
9.468788e+02,1.369274e+04
9.478431e+02,1.370098e+04
9.488073e+02,1.370126e+04
9.497715e+02,1.369689e+04
9.507358e+02,1.368893e+04
9.517000e+02,1.367545e+04
9.526642e+02,1.366076e+04
9.536285e+02,1.364558e+04
9.545927e+02,1.362635e+04
9.555569e+02,1.360517e+04
9.565212e+02,1.358992e+04
9.574854e+02,1.358519e+04
9.584496e+02,1.359211e+04
9.594139e+02,1.360808e+04
9.603781e+02,1.362313e+04
9.613423e+02,1.361932e+04
9.623066e+02,1.359210e+04
9.632708e+02,1.357184e+04
9.642350e+02,1.356961e+04
9.651993e+02,1.357726e+04
9.661635e+02,1.357850e+04
9.671277e+02,1.356528e+04
9.680920e+02,1.355383e+04
9.690562e+02,1.354914e+04
9.700204e+02,1.353889e+04
9.709847e+02,1.351550e+04
9.719489e+02,1.347832e+04
9.729131e+02,1.345372e+04
9.738774e+02,1.345099e+04
9.748416e+02,1.345783e+04
9.758058e+02,1.346672e+04
9.767701e+02,1.347332e+04
9.777343e+02,1.347681e+04
9.786985e+02,1.347528e+04
9.796628e+02,1.346914e+04
9.806270e+02,1.346102e+04
9.815912e+02,1.344968e+04
9.825555e+02,1.343382e+04
9.835197e+02,1.341687e+04
9.844839e+02,1.340182e+04
9.854482e+02,1.339046e+04
9.864124e+02,1.338379e+04
9.873766e+02,1.337996e+04
9.883409e+02,1.338012e+04
9.893051e+02,1.338092e+04
9.902693e+02,1.337936e+04
9.912336e+02,1.337907e+04
9.921978e+02,1.337899e+04
9.931620e+02,1.337549e+04
9.941263e+02,1.337002e+04
9.950905e+02,1.336896e+04
9.960547e+02,1.336652e+04
9.970190e+02,1.335431e+04
9.979832e+02,1.333181e+04
9.989474e+02,1.330250e+04
9.999117e+02,1.326828e+04
1.000876e+03,1.323923e+04
1.001840e+03,1.323284e+04
1.002804e+03,1.324629e+04
1.003769e+03,1.325935e+04
1.004733e+03,1.326064e+04
1.005697e+03,1.325614e+04
1.006661e+03,1.325700e+04
1.007626e+03,1.326308e+04
1.008590e+03,1.327029e+04
1.009554e+03,1.327511e+04
1.010518e+03,1.327267e+04
1.011482e+03,1.326005e+04
1.012447e+03,1.323795e+04
1.013411e+03,1.321384e+04
1.014375e+03,1.319423e+04
1.015339e+03,1.317836e+04
1.016304e+03,1.315960e+04
1.017268e+03,1.313919e+04
1.018232e+03,1.313537e+04
1.019196e+03,1.314908e+04
1.020161e+03,1.315749e+04
1.021125e+03,1.315347e+04
1.022089e+03,1.314444e+04
1.023053e+03,1.313973e+04
1.024018e+03,1.313515e+04
1.024982e+03,1.313141e+04
1.025946e+03,1.312774e+04
1.026910e+03,1.311698e+04
1.027875e+03,1.309550e+04
1.028839e+03,1.306431e+04
1.029803e+03,1.304703e+04
1.030767e+03,1.305060e+04
1.031731e+03,1.305747e+04
1.032696e+03,1.305165e+04
1.033660e+03,1.303105e+04
1.034624e+03,1.301748e+04
1.035588e+03,1.301838e+04
1.036552e+03,1.302272e+04
1.037517e+03,1.302329e+04
1.038481e+03,1.301775e+04
1.039445e+03,1.301142e+04
1.040409e+03,1.300529e+04
1.041374e+03,1.299784e+04
1.042338e+03,1.299243e+04
1.043302e+03,1.298918e+04
1.044266e+03,1.298513e+04
1.045231e+03,1.298081e+04
1.046195e+03,1.297112e+04
1.047159e+03,1.295836e+04
1.048123e+03,1.294357e+04
1.049088e+03,1.292467e+04
1.050052e+03,1.290378e+04
1.051016e+03,1.289556e+04
1.051980e+03,1.290695e+04
1.052945e+03,1.292069e+04
1.053909e+03,1.292642e+04
1.054873e+03,1.291981e+04
1.055837e+03,1.290785e+04
1.056802e+03,1.289405e+04
1.057766e+03,1.288032e+04
1.058730e+03,1.287013e+04
1.059694e+03,1.286189e+04
1.060658e+03,1.285093e+04
1.061623e+03,1.283641e+04
1.062587e+03,1.282688e+04
1.063551e+03,1.283046e+04
1.064515e+03,1.283518e+04
1.065479e+03,1.282770e+04
1.066444e+03,1.280861e+04
1.067408e+03,1.279932e+04
1.068372e+03,1.280793e+04
1.069336e+03,1.282164e+04
1.070301e+03,1.283203e+04
1.071265e+03,1.283545e+04
1.072229e+03,1.283265e+04
1.073193e+03,1.282185e+04
1.074158e+03,1.280666e+04
1.075122e+03,1.278483e+04
1.076086e+03,1.276120e+04
1.077050e+03,1.274449e+04
1.078015e+03,1.274685e+04
1.078979e+03,1.275133e+04
1.079943e+03,1.274966e+04
1.080907e+03,1.274851e+04
1.081872e+03,1.274939e+04
1.082836e+03,1.274907e+04
1.083800e+03,1.274569e+04
1.084764e+03,1.274072e+04
1.085729e+03,1.273753e+04
1.086693e+03,1.273801e+04
1.087657e+03,1.273861e+04
1.088621e+03,1.273359e+04
1.089585e+03,1.271479e+04
1.090550e+03,1.269281e+04
1.091514e+03,1.267886e+04
1.092478e+03,1.266878e+04
1.093442e+03,1.265476e+04
1.094406e+03,1.263444e+04
1.095371e+03,1.261822e+04
1.096335e+03,1.260176e+04
1.097299e+03,1.259033e+04
1.098263e+03,1.259039e+04
1.099228e+03,1.259991e+04
1.100192e+03,1.260459e+04
1.101156e+03,1.259823e+04
1.102120e+03,1.258821e+04
1.103085e+03,1.257801e+04
1.104049e+03,1.256753e+04
1.105013e+03,1.255605e+04
1.105977e+03,1.254491e+04
1.106942e+03,1.253317e+04
1.107906e+03,1.251965e+04
1.108870e+03,1.250753e+04
1.109834e+03,1.249961e+04
1.110799e+03,1.249755e+04
1.111763e+03,1.249482e+04
1.112727e+03,1.248875e+04
1.113691e+03,1.248752e+04
1.114656e+03,1.249618e+04
1.115620e+03,1.251276e+04
1.116584e+03,1.252361e+04
1.117548e+03,1.251543e+04
1.118512e+03,1.250583e+04
1.119477e+03,1.250283e+04
1.120441e+03,1.250065e+04
1.121405e+03,1.249218e+04
1.122369e+03,1.247467e+04
1.123334e+03,1.245602e+04
1.124298e+03,1.243681e+04
1.125262e+03,1.242018e+04
1.126226e+03,1.240839e+04
1.127191e+03,1.240232e+04
1.128155e+03,1.240205e+04
1.129119e+03,1.240756e+04
1.130083e+03,1.241276e+04
1.131047e+03,1.241446e+04
1.132012e+03,1.241078e+04
1.132976e+03,1.240470e+04
1.133940e+03,1.239497e+04
1.134904e+03,1.238426e+04
1.135869e+03,1.237780e+04
1.136833e+03,1.237275e+04
1.137797e+03,1.236475e+04
1.138761e+03,1.235621e+04
1.139726e+03,1.235136e+04
1.140690e+03,1.234941e+04
1.141654e+03,1.234739e+04
1.142618e+03,1.234208e+04
1.143583e+03,1.233493e+04
1.144547e+03,1.233183e+04
1.145511e+03,1.233398e+04
1.146475e+03,1.233342e+04
1.147439e+03,1.232605e+04
1.148404e+03,1.231798e+04
1.149368e+03,1.231698e+04
1.150332e+03,1.232263e+04
1.151296e+03,1.232379e+04
1.152261e+03,1.231338e+04
1.153225e+03,1.229257e+04
1.154189e+03,1.227056e+04
1.155153e+03,1.225209e+04
1.156118e+03,1.223300e+04
1.157082e+03,1.221701e+04
1.158046e+03,1.221355e+04
1.159010e+03,1.222435e+04
1.159974e+03,1.224179e+04
1.160939e+03,1.225039e+04
1.161903e+03,1.224890e+04
1.162867e+03,1.224669e+04
1.163831e+03,1.224510e+04
1.164796e+03,1.223980e+04
1.165760e+03,1.222966e+04
1.166724e+03,1.221684e+04
1.167688e+03,1.220043e+04
1.168653e+03,1.218150e+04
1.169617e+03,1.216492e+04
1.170581e+03,1.215645e+04
1.171545e+03,1.215247e+04
1.172510e+03,1.214533e+04
1.173474e+03,1.213870e+04
1.174438e+03,1.213881e+04
1.175402e+03,1.214643e+04
1.176366e+03,1.215398e+04
1.177331e+03,1.215493e+04
1.178295e+03,1.215455e+04
1.179259e+03,1.215851e+04
1.180223e+03,1.216388e+04
1.181188e+03,1.216374e+04
1.182152e+03,1.215317e+04
1.183116e+03,1.213804e+04
1.184080e+03,1.212494e+04
1.185045e+03,1.211460e+04
1.186009e+03,1.210386e+04
1.186973e+03,1.209246e+04
1.187937e+03,1.208805e+04
1.188901e+03,1.209756e+04
1.189866e+03,1.210920e+04
1.190830e+03,1.210886e+04
1.191794e+03,1.209250e+04
1.192758e+03,1.208106e+04
1.193723e+03,1.209172e+04
1.194687e+03,1.210383e+04
1.195651e+03,1.210571e+04
1.196615e+03,1.210036e+04
1.197580e+03,1.209647e+04
1.198544e+03,1.208894e+04
1.199508e+03,1.207362e+04
1.200472e+03,1.205439e+04
1.201437e+03,1.203523e+04
1.202401e+03,1.202077e+04
1.203365e+03,1.201442e+04
1.204329e+03,1.201016e+04
1.205293e+03,1.200424e+04
1.206258e+03,1.200577e+04
1.207222e+03,1.201891e+04
1.208186e+03,1.203854e+04
1.209150e+03,1.205333e+04
1.210115e+03,1.205971e+04
1.211079e+03,1.206024e+04
1.212043e+03,1.205667e+04
1.213007e+03,1.204730e+04
1.213972e+03,1.203077e+04
1.214936e+03,1.201223e+04
1.215900e+03,1.200517e+04
1.216864e+03,1.200961e+04
1.217828e+03,1.201436e+04
1.218793e+03,1.201163e+04
1.219757e+03,1.200831e+04
1.220721e+03,1.201712e+04
1.221685e+03,1.203544e+04
1.222650e+03,1.205197e+04
1.223614e+03,1.206004e+04
1.224578e+03,1.206097e+04
1.225542e+03,1.206053e+04
1.226507e+03,1.205886e+04
1.227471e+03,1.205160e+04
1.228435e+03,1.203727e+04
1.229399e+03,1.202112e+04
1.230364e+03,1.201186e+04
1.231328e+03,1.200128e+04
1.232292e+03,1.199082e+04
1.233256e+03,1.198278e+04
1.234220e+03,1.197217e+04
1.235185e+03,1.195801e+04
1.236149e+03,1.195157e+04
1.237113e+03,1.196031e+04
1.238077e+03,1.197584e+04
1.239042e+03,1.198550e+04
1.240006e+03,1.198539e+04
1.240970e+03,1.198858e+04
1.241934e+03,1.200218e+04
1.242899e+03,1.200463e+04
1.243863e+03,1.198906e+04
1.244827e+03,1.196980e+04
1.245791e+03,1.196695e+04
1.246755e+03,1.198573e+04
1.247720e+03,1.198843e+04
1.248684e+03,1.197254e+04
1.249648e+03,1.195750e+04
1.250612e+03,1.195438e+04
1.251577e+03,1.195823e+04
1.252541e+03,1.195850e+04
1.253505e+03,1.195434e+04
1.254469e+03,1.194907e+04
1.255434e+03,1.194567e+04
1.256398e+03,1.194574e+04
1.257362e+03,1.194728e+04
1.258326e+03,1.194837e+04
1.259291e+03,1.195200e+04
1.260255e+03,1.195522e+04
1.261219e+03,1.195001e+04
1.262183e+03,1.193392e+04
1.263147e+03,1.191895e+04
1.264112e+03,1.190967e+04
1.265076e+03,1.190649e+04
1.266040e+03,1.190955e+04
1.267004e+03,1.192270e+04
1.267969e+03,1.193093e+04
1.268933e+03,1.192848e+04
1.269897e+03,1.193101e+04
1.270861e+03,1.194117e+04
1.271826e+03,1.194947e+04
1.272790e+03,1.195085e+04
1.273754e+03,1.194789e+04
1.274718e+03,1.194162e+04
1.275682e+03,1.193693e+04
1.276647e+03,1.193417e+04
1.277611e+03,1.193085e+04
1.278575e+03,1.192603e+04
1.279539e+03,1.191147e+04
1.280504e+03,1.189106e+04
1.281468e+03,1.188113e+04
1.282432e+03,1.188968e+04
1.283396e+03,1.190976e+04
1.284361e+03,1.192666e+04
1.285325e+03,1.193757e+04
1.286289e+03,1.194077e+04
1.287253e+03,1.193483e+04
1.288218e+03,1.192611e+04
1.289182e+03,1.192536e+04
1.290146e+03,1.192602e+04
1.291110e+03,1.191847e+04
1.292074e+03,1.190645e+04
1.293039e+03,1.189941e+04
1.294003e+03,1.190273e+04
1.294967e+03,1.190596e+04
1.295931e+03,1.190942e+04
1.296896e+03,1.191474e+04
1.297860e+03,1.192057e+04
1.298824e+03,1.192360e+04
1.299788e+03,1.193121e+04
1.300753e+03,1.194463e+04
1.301717e+03,1.195792e+04
1.302681e+03,1.197034e+04
1.303645e+03,1.198093e+04
1.304609e+03,1.198740e+04
1.305574e+03,1.198495e+04
1.306538e+03,1.197743e+04
1.307502e+03,1.197066e+04
1.308466e+03,1.196617e+04
1.309431e+03,1.196011e+04
1.310395e+03,1.195465e+04
1.311359e+03,1.195674e+04
1.312323e+03,1.196037e+04
1.313288e+03,1.195984e+04
1.314252e+03,1.195844e+04
1.315216e+03,1.195965e+04
1.316180e+03,1.196026e+04
1.317145e+03,1.196374e+04
1.318109e+03,1.197228e+04
1.319073e+03,1.198137e+04
1.320037e+03,1.198492e+04
1.321001e+03,1.198436e+04
1.321966e+03,1.197532e+04
1.322930e+03,1.195436e+04
1.323894e+03,1.193188e+04
1.324858e+03,1.191894e+04
1.325823e+03,1.191579e+04
1.326787e+03,1.192148e+04
1.327751e+03,1.193728e+04
1.328715e+03,1.194879e+04
1.329680e+03,1.194683e+04
1.330644e+03,1.193602e+04
1.331608e+03,1.193400e+04
1.332572e+03,1.193924e+04
1.333536e+03,1.194781e+04
1.334501e+03,1.195753e+04
1.335465e+03,1.196125e+04
1.336429e+03,1.195591e+04
1.337393e+03,1.194563e+04
1.338358e+03,1.193167e+04
1.339322e+03,1.191551e+04
1.340286e+03,1.190139e+04
1.341250e+03,1.189225e+04
1.342215e+03,1.188384e+04
1.343179e+03,1.188250e+04
1.344143e+03,1.188795e+04
1.345107e+03,1.189139e+04
1.346072e+03,1.188604e+04
1.347036e+03,1.188749e+04
1.348000e+03,1.189596e+04
1.348964e+03,1.190379e+04
1.349928e+03,1.191210e+04
1.350893e+03,1.192288e+04
1.351857e+03,1.193348e+04
1.352821e+03,1.194109e+04
1.353785e+03,1.193962e+04
1.354750e+03,1.192672e+04
1.355714e+03,1.190924e+04
1.356678e+03,1.189730e+04
1.357642e+03,1.189256e+04
1.358607e+03,1.189048e+04
1.359571e+03,1.188992e+04
1.360535e+03,1.189248e+04
1.361499e+03,1.190295e+04
1.362464e+03,1.191168e+04
1.363428e+03,1.191484e+04
1.364392e+03,1.191829e+04
1.365356e+03,1.191978e+04
1.366320e+03,1.191430e+04
1.367285e+03,1.190638e+04
1.368249e+03,1.190096e+04
1.369213e+03,1.189456e+04
1.370177e+03,1.188700e+04
1.371142e+03,1.187750e+04
1.372106e+03,1.186484e+04
1.373070e+03,1.184964e+04
1.374034e+03,1.183575e+04
1.374999e+03,1.182623e+04
1.375963e+03,1.182252e+04
1.376927e+03,1.182524e+04
1.377891e+03,1.183123e+04
1.378855e+03,1.183655e+04
1.379820e+03,1.184036e+04
1.380784e+03,1.184071e+04
1.381748e+03,1.184090e+04
1.382712e+03,1.185076e+04
1.383677e+03,1.188219e+04
1.384641e+03,1.190026e+04
1.385605e+03,1.188556e+04
1.386569e+03,1.185425e+04
1.387534e+03,1.183174e+04
1.388498e+03,1.181953e+04
1.389462e+03,1.181609e+04
1.390426e+03,1.181886e+04
1.391391e+03,1.182434e+04
1.392355e+03,1.183642e+04
1.393319e+03,1.185101e+04
1.394283e+03,1.185132e+04
1.395247e+03,1.184250e+04
1.396212e+03,1.184023e+04
1.397176e+03,1.184849e+04
1.398140e+03,1.186060e+04
1.399104e+03,1.187570e+04
1.400069e+03,1.188512e+04
1.401033e+03,1.188065e+04
1.401997e+03,1.186733e+04
1.402961e+03,1.185947e+04
1.403926e+03,1.185957e+04
1.404890e+03,1.185855e+04
1.405854e+03,1.185875e+04
1.406818e+03,1.185797e+04
1.407782e+03,1.185384e+04
1.408747e+03,1.185112e+04
1.409711e+03,1.185408e+04
1.410675e+03,1.185678e+04
1.411639e+03,1.186390e+04
1.412604e+03,1.187985e+04
1.413568e+03,1.189071e+04
1.414532e+03,1.188379e+04
1.415496e+03,1.187501e+04
1.416461e+03,1.187270e+04
1.417425e+03,1.187301e+04
1.418389e+03,1.187171e+04
1.419353e+03,1.186731e+04
1.420318e+03,1.186449e+04
1.421282e+03,1.187086e+04
1.422246e+03,1.187751e+04
1.423210e+03,1.187344e+04
1.424174e+03,1.186282e+04
1.425139e+03,1.186446e+04
1.426103e+03,1.187372e+04
1.427067e+03,1.187775e+04
1.428031e+03,1.187180e+04
1.428996e+03,1.186999e+04
1.429960e+03,1.189124e+04
1.430924e+03,1.191503e+04
1.431888e+03,1.191943e+04
1.432853e+03,1.190715e+04
1.433817e+03,1.189618e+04
1.434781e+03,1.189485e+04
1.435745e+03,1.189504e+04
1.436709e+03,1.189097e+04
1.437674e+03,1.188352e+04
1.438638e+03,1.187736e+04
1.439602e+03,1.187607e+04
1.440566e+03,1.188228e+04
1.441531e+03,1.189388e+04
1.442495e+03,1.190322e+04
1.443459e+03,1.190576e+04
1.444423e+03,1.190357e+04
1.445388e+03,1.189414e+04
1.446352e+03,1.188025e+04
1.447316e+03,1.186658e+04
1.448280e+03,1.185901e+04
1.449245e+03,1.186058e+04
1.450209e+03,1.187919e+04
1.451173e+03,1.189642e+04
1.452137e+03,1.190441e+04
1.453101e+03,1.190469e+04
1.454066e+03,1.190044e+04
1.455030e+03,1.189383e+04
1.455994e+03,1.190072e+04
1.456958e+03,1.191855e+04
1.457923e+03,1.193184e+04
1.458887e+03,1.193153e+04
1.459851e+03,1.192323e+04
1.460815e+03,1.190952e+04
1.461780e+03,1.188874e+04
1.462744e+03,1.186378e+04
1.463708e+03,1.183821e+04
1.464672e+03,1.181695e+04
1.465636e+03,1.180808e+04
1.466601e+03,1.179852e+04
1.467565e+03,1.178525e+04
1.468529e+03,1.177353e+04
1.469493e+03,1.176595e+04
1.470458e+03,1.175869e+04
1.471422e+03,1.174676e+04
1.472386e+03,1.173453e+04
1.473350e+03,1.173008e+04
1.474315e+03,1.173453e+04
1.475279e+03,1.174231e+04
1.476243e+03,1.175233e+04
1.477207e+03,1.175854e+04
1.478172e+03,1.176165e+04
1.479136e+03,1.176247e+04
1.480100e+03,1.175997e+04
1.481064e+03,1.175586e+04
1.482028e+03,1.174624e+04
1.482993e+03,1.173166e+04
1.483957e+03,1.171695e+04
1.484921e+03,1.170071e+04
1.485885e+03,1.168613e+04
1.486850e+03,1.167983e+04
1.487814e+03,1.167617e+04
1.488778e+03,1.167023e+04
1.489742e+03,1.166218e+04
1.490707e+03,1.165155e+04
1.491671e+03,1.164313e+04
1.492635e+03,1.164014e+04
1.493599e+03,1.164129e+04
1.494563e+03,1.164076e+04
1.495528e+03,1.162759e+04
1.496492e+03,1.160069e+04
1.497456e+03,1.158582e+04
1.498420e+03,1.158933e+04
1.499385e+03,1.159436e+04
1.500349e+03,1.158319e+04
1.501313e+03,1.157298e+04
1.502277e+03,1.157853e+04
1.503242e+03,1.159139e+04
1.504206e+03,1.160058e+04
1.505170e+03,1.160304e+04
1.506134e+03,1.159576e+04
1.507099e+03,1.157522e+04
1.508063e+03,1.155837e+04
1.509027e+03,1.155249e+04
1.509991e+03,1.155132e+04
1.510955e+03,1.154962e+04
1.511920e+03,1.154318e+04
1.512884e+03,1.151794e+04
1.513848e+03,1.148166e+04
1.514812e+03,1.146123e+04
1.515777e+03,1.146429e+04
1.516741e+03,1.147525e+04
1.517705e+03,1.149749e+04
1.518669e+03,1.151618e+04
1.519634e+03,1.151977e+04
1.520598e+03,1.150757e+04
1.521562e+03,1.150838e+04
1.522526e+03,1.151790e+04
1.523490e+03,1.151706e+04
1.524455e+03,1.150010e+04
1.525419e+03,1.147706e+04
1.526383e+03,1.145583e+04
1.527347e+03,1.143567e+04
1.528312e+03,1.141857e+04
1.529276e+03,1.140981e+04
1.530240e+03,1.141237e+04
1.531204e+03,1.142820e+04
1.532169e+03,1.143412e+04
1.533133e+03,1.142606e+04
1.534097e+03,1.141992e+04
1.535061e+03,1.143062e+04
1.536026e+03,1.144527e+04
1.536990e+03,1.144251e+04
1.537954e+03,1.143014e+04
1.538918e+03,1.142068e+04
1.539882e+03,1.141610e+04
1.540847e+03,1.141225e+04
1.541811e+03,1.140398e+04
1.542775e+03,1.139471e+04
1.543739e+03,1.139080e+04
1.544704e+03,1.138960e+04
1.545668e+03,1.138139e+04
1.546632e+03,1.137065e+04
1.547596e+03,1.137355e+04
1.548561e+03,1.138925e+04
1.549525e+03,1.140821e+04
1.550489e+03,1.142081e+04
1.551453e+03,1.143412e+04
1.552417e+03,1.145829e+04
1.553382e+03,1.147716e+04
1.554346e+03,1.147749e+04
1.555310e+03,1.146474e+04
1.556274e+03,1.146974e+04
1.557239e+03,1.149106e+04
1.558203e+03,1.150875e+04
1.559167e+03,1.151764e+04
1.560131e+03,1.153232e+04
1.561096e+03,1.157003e+04
1.562060e+03,1.161764e+04
1.563024e+03,1.165913e+04
1.563988e+03,1.170251e+04
1.564953e+03,1.176731e+04
1.565917e+03,1.186403e+04
1.566881e+03,1.194676e+04
1.567845e+03,1.201245e+04
1.568809e+03,1.206098e+04
1.569774e+03,1.209532e+04
1.570738e+03,1.211109e+04
1.571702e+03,1.209669e+04
1.572666e+03,1.206213e+04
1.573631e+03,1.201722e+04
1.574595e+03,1.196756e+04
1.575559e+03,1.192463e+04
1.576523e+03,1.188907e+04
1.577488e+03,1.186505e+04
1.578452e+03,1.184854e+04
1.579416e+03,1.183351e+04
1.580380e+03,1.182045e+04
1.581344e+03,1.180613e+04
1.582309e+03,1.178981e+04
1.583273e+03,1.176807e+04
1.584237e+03,1.172801e+04
1.585201e+03,1.165791e+04
1.586166e+03,1.159192e+04
1.587130e+03,1.153288e+04
1.588094e+03,1.147075e+04
1.589058e+03,1.139972e+04
1.590023e+03,1.133478e+04
1.590987e+03,1.130788e+04
1.591951e+03,1.130920e+04
1.592915e+03,1.130680e+04
1.593880e+03,1.129245e+04
1.594844e+03,1.127617e+04
1.595808e+03,1.126783e+04
1.596772e+03,1.125308e+04
1.597736e+03,1.122904e+04
1.598701e+03,1.120687e+04
1.599665e+03,1.119369e+04
1.600629e+03,1.118827e+04
1.601593e+03,1.119015e+04
1.602558e+03,1.119519e+04
1.603522e+03,1.118958e+04
1.604486e+03,1.116701e+04
1.605450e+03,1.114325e+04
1.606415e+03,1.112482e+04
1.607379e+03,1.111660e+04
1.608343e+03,1.112292e+04
1.609307e+03,1.113195e+04
1.610271e+03,1.112097e+04
1.611236e+03,1.109399e+04
1.612200e+03,1.107568e+04
1.613164e+03,1.106986e+04
1.614128e+03,1.107063e+04
1.615093e+03,1.107687e+04
1.616057e+03,1.108099e+04
1.617021e+03,1.107479e+04
1.617985e+03,1.106521e+04
1.618950e+03,1.106106e+04
1.619914e+03,1.105956e+04
1.620878e+03,1.104667e+04
1.621842e+03,1.102609e+04
1.622807e+03,1.100359e+04
1.623771e+03,1.098239e+04
1.624735e+03,1.097470e+04
1.625699e+03,1.099220e+04
1.626663e+03,1.100884e+04
1.627628e+03,1.101486e+04
1.628592e+03,1.100790e+04
1.629556e+03,1.099127e+04
1.630520e+03,1.097147e+04
1.631485e+03,1.095573e+04
1.632449e+03,1.094143e+04
1.633413e+03,1.092041e+04
1.634377e+03,1.088442e+04
1.635342e+03,1.085850e+04
1.636306e+03,1.086672e+04
1.637270e+03,1.087154e+04
1.638234e+03,1.085163e+04
1.639198e+03,1.082226e+04
1.640163e+03,1.081649e+04
1.641127e+03,1.082973e+04
1.642091e+03,1.084036e+04
1.643055e+03,1.084183e+04
1.644020e+03,1.083512e+04
1.644984e+03,1.080269e+04
1.645948e+03,1.078282e+04
1.646912e+03,1.079512e+04
1.647877e+03,1.080757e+04
1.648841e+03,1.079015e+04
1.649805e+03,1.075557e+04
1.650769e+03,1.073803e+04
1.651734e+03,1.073419e+04
1.652698e+03,1.074291e+04
1.653662e+03,1.076386e+04
1.654626e+03,1.076995e+04
1.655590e+03,1.074443e+04
1.656555e+03,1.072205e+04
1.657519e+03,1.071741e+04
1.658483e+03,1.072287e+04
1.659447e+03,1.072050e+04
1.660412e+03,1.071071e+04
1.661376e+03,1.070289e+04
1.662340e+03,1.070041e+04
1.663304e+03,1.070270e+04
1.664269e+03,1.070981e+04
1.665233e+03,1.070750e+04
1.666197e+03,1.068963e+04
1.667161e+03,1.067216e+04
1.668125e+03,1.066970e+04
1.669090e+03,1.066803e+04
1.670054e+03,1.063647e+04
1.671018e+03,1.059830e+04
1.671982e+03,1.059021e+04
1.672947e+03,1.061469e+04
1.673911e+03,1.063305e+04
1.674875e+03,1.063851e+04
1.675839e+03,1.063238e+04
1.676804e+03,1.061954e+04
1.677768e+03,1.060767e+04
1.678732e+03,1.059586e+04
1.679696e+03,1.058549e+04
1.680661e+03,1.057750e+04
1.681625e+03,1.056763e+04
1.682589e+03,1.055877e+04
1.683553e+03,1.055512e+04
1.684517e+03,1.054646e+04
1.685482e+03,1.053182e+04
1.686446e+03,1.052995e+04
1.687410e+03,1.054919e+04
1.688374e+03,1.056492e+04
1.689339e+03,1.055245e+04
1.690303e+03,1.053559e+04
1.691267e+03,1.052494e+04
1.692231e+03,1.052333e+04
1.693196e+03,1.053709e+04
1.694160e+03,1.055911e+04
1.695124e+03,1.055757e+04
1.696088e+03,1.053743e+04
1.697052e+03,1.052334e+04
1.698017e+03,1.052221e+04
1.698981e+03,1.052011e+04
1.699945e+03,1.050897e+04
1.700909e+03,1.049427e+04
1.701874e+03,1.048829e+04
1.702838e+03,1.049007e+04
1.703802e+03,1.048195e+04
1.704766e+03,1.046543e+04
1.705731e+03,1.045663e+04
1.706695e+03,1.045849e+04
1.707659e+03,1.045183e+04
1.708623e+03,1.043073e+04
1.709588e+03,1.042226e+04
1.710552e+03,1.042626e+04
1.711516e+03,1.042751e+04
1.712480e+03,1.041211e+04
1.713444e+03,1.039193e+04
1.714409e+03,1.038571e+04
1.715373e+03,1.038722e+04
1.716337e+03,1.038300e+04
1.717301e+03,1.037540e+04
1.718266e+03,1.036852e+04
1.719230e+03,1.036013e+04
1.720194e+03,1.036142e+04
1.721158e+03,1.037573e+04
1.722123e+03,1.038316e+04
1.723087e+03,1.036312e+04
1.724051e+03,1.034020e+04
1.725015e+03,1.032890e+04
1.725979e+03,1.032437e+04
1.726944e+03,1.031256e+04
1.727908e+03,1.029745e+04
1.728872e+03,1.030034e+04
1.729836e+03,1.031250e+04
1.730801e+03,1.031329e+04
1.731765e+03,1.028789e+04
1.732729e+03,1.027519e+04
1.733693e+03,1.028639e+04
1.734658e+03,1.028819e+04
1.735622e+03,1.025954e+04
1.736586e+03,1.022597e+04
1.737550e+03,1.022838e+04
1.738515e+03,1.024614e+04
1.739479e+03,1.025987e+04
1.740443e+03,1.026559e+04
1.741407e+03,1.025894e+04
1.742371e+03,1.023839e+04
1.743336e+03,1.022187e+04
1.744300e+03,1.021034e+04
1.745264e+03,1.020204e+04
1.746228e+03,1.021158e+04
1.747193e+03,1.021563e+04
1.748157e+03,1.019900e+04
1.749121e+03,1.018498e+04
1.750085e+03,1.017811e+04
1.751050e+03,1.016938e+04
1.752014e+03,1.015670e+04
1.752978e+03,1.014678e+04
1.753942e+03,1.015342e+04
1.754906e+03,1.017721e+04
1.755871e+03,1.018830e+04
1.756835e+03,1.017036e+04
1.757799e+03,1.015121e+04
1.758763e+03,1.014643e+04
1.759728e+03,1.014463e+04
1.760692e+03,1.012676e+04
1.761656e+03,1.011028e+04
1.762620e+03,1.010692e+04
1.763585e+03,1.011316e+04
1.764549e+03,1.012651e+04
1.765513e+03,1.014213e+04
1.766477e+03,1.013419e+04
1.767442e+03,1.010949e+04
1.768406e+03,1.009508e+04
1.769370e+03,1.010225e+04
1.770334e+03,1.010311e+04
1.771298e+03,1.005949e+04
1.772263e+03,1.003505e+04
1.773227e+03,1.005729e+04
1.774191e+03,1.009071e+04
1.775155e+03,1.008270e+04
1.776120e+03,1.005441e+04
1.777084e+03,1.003815e+04
1.778048e+03,1.003197e+04
1.779012e+03,1.002248e+04
1.779977e+03,1.000586e+04
1.780941e+03,1.001746e+04
1.781905e+03,1.005186e+04
1.782869e+03,1.006795e+04
1.783833e+03,1.004293e+04
1.784798e+03,1.001595e+04
1.785762e+03,1.000778e+04
1.786726e+03,1.000692e+04
1.787690e+03,1.001268e+04
1.788655e+03,1.001881e+04
1.789619e+03,1.000653e+04
1.790583e+03,9.984507e+03
1.791547e+03,9.964745e+03
1.792512e+03,9.950168e+03
1.793476e+03,9.945560e+03
1.794440e+03,9.947849e+03
1.795404e+03,9.957338e+03
1.796369e+03,9.971396e+03
1.797333e+03,9.974228e+03
1.798297e+03,9.951271e+03
1.799261e+03,9.928259e+03
1.800225e+03,9.922385e+03
1.801190e+03,9.915972e+03
1.802154e+03,9.898546e+03
1.803118e+03,9.876979e+03
1.804082e+03,9.879566e+03
1.805047e+03,9.897975e+03
1.806011e+03,9.908530e+03
1.806975e+03,9.907364e+03
1.807939e+03,9.892557e+03
1.808904e+03,9.853546e+03
1.809868e+03,9.829465e+03
1.810832e+03,9.827444e+03
1.811796e+03,9.836331e+03
1.812760e+03,9.854560e+03
1.813725e+03,9.868879e+03
1.814689e+03,9.868145e+03
1.815653e+03,9.863801e+03
1.816617e+03,9.867141e+03
1.817582e+03,9.872307e+03
1.818546e+03,9.854235e+03
1.819510e+03,9.821901e+03
1.820474e+03,9.796812e+03
1.821439e+03,9.784449e+03
1.822403e+03,9.775358e+03
1.823367e+03,9.769062e+03
1.824331e+03,9.768119e+03
1.825296e+03,9.770381e+03
1.826260e+03,9.766870e+03
1.827224e+03,9.752080e+03
1.828188e+03,9.744882e+03
1.829152e+03,9.752728e+03
1.830117e+03,9.763567e+03
1.831081e+03,9.769520e+03
1.832045e+03,9.767984e+03
1.833009e+03,9.761119e+03
1.833974e+03,9.756737e+03
1.834938e+03,9.755452e+03
1.835902e+03,9.753616e+03
1.836866e+03,9.734134e+03
1.837831e+03,9.694021e+03
1.838795e+03,9.668691e+03
1.839759e+03,9.670042e+03
1.840723e+03,9.684441e+03
1.841688e+03,9.710168e+03
1.842652e+03,9.726562e+03
1.843616e+03,9.719597e+03
1.844580e+03,9.703188e+03
1.845544e+03,9.699080e+03
1.846509e+03,9.699715e+03
1.847473e+03,9.685944e+03
1.848437e+03,9.665341e+03
1.849401e+03,9.653677e+03
1.850366e+03,9.652839e+03
1.851330e+03,9.642497e+03
1.852294e+03,9.626854e+03
1.853258e+03,9.616112e+03
1.854223e+03,9.612479e+03
1.855187e+03,9.612868e+03
1.856151e+03,9.616662e+03
1.857115e+03,9.612663e+03
1.858079e+03,9.594991e+03
1.859044e+03,9.576213e+03
1.860008e+03,9.576844e+03
1.860972e+03,9.584843e+03
1.861936e+03,9.587614e+03
1.862901e+03,9.588579e+03
1.863865e+03,9.587923e+03
1.864829e+03,9.579998e+03
1.865793e+03,9.570376e+03
1.866758e+03,9.562405e+03
1.867722e+03,9.556044e+03
1.868686e+03,9.548323e+03
1.869650e+03,9.548099e+03
1.870615e+03,9.554423e+03
1.871579e+03,9.556157e+03
1.872543e+03,9.555085e+03
1.873507e+03,9.556404e+03
1.874471e+03,9.556694e+03
1.875436e+03,9.548207e+03
1.876400e+03,9.528409e+03
1.877364e+03,9.510443e+03
1.878328e+03,9.515566e+03
1.879293e+03,9.527402e+03
1.880257e+03,9.505326e+03
1.881221e+03,9.464265e+03
1.882185e+03,9.443622e+03
1.883150e+03,9.447896e+03
1.884114e+03,9.447678e+03
1.885078e+03,9.441095e+03
1.886042e+03,9.433653e+03
1.887006e+03,9.426646e+03
1.887971e+03,9.416628e+03
1.888935e+03,9.401575e+03
1.889899e+03,9.402297e+03
1.890863e+03,9.420847e+03
1.891828e+03,9.437694e+03
1.892792e+03,9.443454e+03
1.893756e+03,9.438058e+03
1.894720e+03,9.422657e+03
1.895685e+03,9.410128e+03
1.896649e+03,9.405771e+03
1.897613e+03,9.402660e+03
1.898577e+03,9.387303e+03
1.899542e+03,9.367606e+03
1.900506e+03,9.358843e+03
1.901470e+03,9.362693e+03
1.902434e+03,9.364816e+03
1.903398e+03,9.365670e+03
1.904363e+03,9.363497e+03
1.905327e+03,9.358701e+03
1.906291e+03,9.355084e+03
1.907255e+03,9.352738e+03
1.908220e+03,9.341823e+03
1.909184e+03,9.319825e+03
1.910148e+03,9.292750e+03
1.911112e+03,9.264199e+03
1.912077e+03,9.244771e+03
1.913041e+03,9.252960e+03
1.914005e+03,9.265482e+03
1.914969e+03,9.253607e+03
1.915933e+03,9.227540e+03
1.916898e+03,9.226038e+03
1.917862e+03,9.239384e+03
1.918826e+03,9.241170e+03
1.919790e+03,9.229314e+03
1.920755e+03,9.237662e+03
1.921719e+03,9.259577e+03
1.922683e+03,9.260259e+03
1.923647e+03,9.235327e+03
1.924612e+03,9.219351e+03
1.925576e+03,9.234983e+03
1.926540e+03,9.251854e+03
1.927504e+03,9.262335e+03
1.928469e+03,9.259686e+03
1.929433e+03,9.219135e+03
1.930397e+03,9.182564e+03
1.931361e+03,9.199760e+03
1.932325e+03,9.216283e+03
1.933290e+03,9.185426e+03
1.934254e+03,9.138813e+03
1.935218e+03,9.142706e+03
1.936182e+03,9.164829e+03
1.937147e+03,9.162701e+03
1.938111e+03,9.139833e+03
1.939075e+03,9.125576e+03
1.940039e+03,9.124161e+03
1.941004e+03,9.142329e+03
1.941968e+03,9.172887e+03
1.942932e+03,9.172878e+03
1.943896e+03,9.118757e+03
1.944860e+03,9.083037e+03
1.945825e+03,9.077054e+03
1.946789e+03,9.080979e+03
1.947753e+03,9.082916e+03
1.948717e+03,9.079048e+03
1.949682e+03,9.060796e+03
1.950646e+03,9.047142e+03
1.951610e+03,9.052542e+03
1.952574e+03,9.064854e+03
1.953539e+03,9.067378e+03
1.954503e+03,9.065153e+03
1.955467e+03,9.066910e+03
1.956431e+03,9.071540e+03
1.957396e+03,9.069595e+03
1.958360e+03,9.060626e+03
1.959324e+03,9.047387e+03
1.960288e+03,9.035187e+03
1.961252e+03,9.029085e+03
1.962217e+03,9.024838e+03
1.963181e+03,9.012860e+03
1.964145e+03,8.993177e+03
1.965109e+03,8.982507e+03
1.966074e+03,9.002113e+03
1.967038e+03,9.015466e+03
1.968002e+03,9.009499e+03
1.968966e+03,8.998779e+03
1.969931e+03,8.990194e+03
1.970895e+03,8.981973e+03
1.971859e+03,8.990846e+03
1.972823e+03,8.994013e+03
1.973787e+03,8.974731e+03
1.974752e+03,8.946697e+03
1.975716e+03,8.932767e+03
1.976680e+03,8.922218e+03
1.977644e+03,8.911199e+03
1.978609e+03,8.902797e+03
1.979573e+03,8.891731e+03
1.980537e+03,8.878995e+03
1.981501e+03,8.879326e+03
1.982466e+03,8.889217e+03
1.983430e+03,8.892323e+03
1.984394e+03,8.883750e+03
1.985358e+03,8.894543e+03
1.986323e+03,8.918435e+03
1.987287e+03,8.923088e+03
1.988251e+03,8.894426e+03
1.989215e+03,8.863277e+03
1.990179e+03,8.834197e+03
1.991144e+03,8.814503e+03
1.992108e+03,8.808949e+03
1.993072e+03,8.816143e+03
1.994036e+03,8.848823e+03
1.995001e+03,8.862009e+03
1.995965e+03,8.838906e+03
1.996929e+03,8.815359e+03
1.997893e+03,8.825634e+03
1.998858e+03,8.839629e+03
1.999822e+03,8.831815e+03
2.000786e+03,8.813707e+03
2.001750e+03,8.802677e+03
2.002714e+03,8.798581e+03
2.003679e+03,8.780322e+03
2.004643e+03,8.756825e+03
2.005607e+03,8.753679e+03
2.006571e+03,8.765497e+03
2.007536e+03,8.754003e+03
2.008500e+03,8.729166e+03
2.009464e+03,8.719856e+03
2.010428e+03,8.730724e+03
2.011393e+03,8.741465e+03
2.012357e+03,8.750448e+03
2.013321e+03,8.751098e+03
2.014285e+03,8.737974e+03
2.015250e+03,8.723121e+03
2.016214e+03,8.715585e+03
2.017178e+03,8.699969e+03
2.018142e+03,8.676792e+03
2.019106e+03,8.660049e+03
2.020071e+03,8.659022e+03
2.021035e+03,8.655881e+03
2.021999e+03,8.638166e+03
2.022963e+03,8.618799e+03
2.023928e+03,8.603320e+03
2.024892e+03,8.599383e+03
2.025856e+03,8.625150e+03
2.026820e+03,8.652397e+03
2.027785e+03,8.663634e+03
2.028749e+03,8.661985e+03
2.029713e+03,8.648276e+03
2.030677e+03,8.634784e+03
2.031641e+03,8.643911e+03
2.032606e+03,8.656270e+03
2.033570e+03,8.635522e+03
2.034534e+03,8.590572e+03
2.035498e+03,8.565919e+03
2.036463e+03,8.556568e+03
2.037427e+03,8.549296e+03
2.038391e+03,8.546928e+03
2.039355e+03,8.537823e+03
2.040320e+03,8.525983e+03
2.041284e+03,8.526292e+03
2.042248e+03,8.539649e+03
2.043212e+03,8.524729e+03
2.044177e+03,8.479286e+03
2.045141e+03,8.461157e+03
2.046105e+03,8.476619e+03
2.047069e+03,8.494942e+03
2.048033e+03,8.500395e+03
2.048998e+03,8.496256e+03
2.049962e+03,8.484442e+03
2.050926e+03,8.481340e+03
2.051890e+03,8.513752e+03
2.052854e+03,8.529378e+03
2.053819e+03,8.505621e+03
2.054783e+03,8.470135e+03
2.055747e+03,8.437755e+03
2.056711e+03,8.418975e+03
2.057676e+03,8.431436e+03
2.058640e+03,8.449178e+03
2.059604e+03,8.452154e+03
2.060568e+03,8.445326e+03
2.061533e+03,8.442412e+03
2.062497e+03,8.437666e+03
2.063461e+03,8.419925e+03
2.064425e+03,8.400636e+03
2.065390e+03,8.400318e+03
2.066354e+03,8.405619e+03
2.067318e+03,8.394181e+03
2.068282e+03,8.373302e+03
2.069247e+03,8.353087e+03
2.070211e+03,8.332845e+03
2.071175e+03,8.322614e+03
2.072139e+03,8.321759e+03
2.073104e+03,8.327722e+03
2.074068e+03,8.340223e+03
2.075032e+03,8.356212e+03
2.075996e+03,8.369502e+03
2.076960e+03,8.363481e+03
2.077925e+03,8.334415e+03
2.078889e+03,8.323485e+03
2.079853e+03,8.333835e+03
2.080817e+03,8.332417e+03
2.081782e+03,8.314882e+03
2.082746e+03,8.288064e+03
2.083710e+03,8.249876e+03
2.084674e+03,8.236665e+03
2.085639e+03,8.254901e+03
2.086603e+03,8.271496e+03
2.087567e+03,8.245647e+03
2.088531e+03,8.229265e+03
2.089496e+03,8.227271e+03
2.090460e+03,8.220917e+03
2.091424e+03,8.214628e+03
2.092388e+03,8.214890e+03
2.093353e+03,8.223368e+03
2.094317e+03,8.231435e+03
2.095281e+03,8.226767e+03
2.096245e+03,8.221868e+03
2.097209e+03,8.240503e+03
2.098174e+03,8.250041e+03
2.099138e+03,8.239980e+03
2.100102e+03,8.221161e+03
2.101066e+03,8.203749e+03
2.102031e+03,8.182435e+03
2.102995e+03,8.138375e+03
2.103959e+03,8.104922e+03
2.104923e+03,8.122747e+03
2.105887e+03,8.162149e+03
2.106852e+03,8.158170e+03
2.107816e+03,8.134369e+03
2.108780e+03,8.126545e+03
2.109744e+03,8.126542e+03
2.110708e+03,8.123185e+03
2.111673e+03,8.120013e+03
2.112637e+03,8.107540e+03
2.113601e+03,8.088232e+03
2.114565e+03,8.085124e+03
2.115530e+03,8.087870e+03
2.116494e+03,8.062641e+03
2.117458e+03,8.033364e+03
2.118422e+03,8.053654e+03
2.119387e+03,8.105952e+03
2.120351e+03,8.135365e+03
2.121315e+03,8.137986e+03
2.122279e+03,8.125515e+03
2.123244e+03,8.099612e+03
2.124208e+03,8.060492e+03
2.125172e+03,8.017079e+03
2.126136e+03,7.988563e+03
2.127101e+03,7.981240e+03
2.128065e+03,7.995706e+03
2.129029e+03,8.026427e+03
2.129993e+03,8.045205e+03
2.130958e+03,8.038423e+03
2.131922e+03,8.019516e+03
2.132886e+03,7.992553e+03
2.133850e+03,7.976974e+03
2.134814e+03,7.981400e+03
2.135779e+03,7.982907e+03
2.136743e+03,7.961369e+03
2.137707e+03,7.962658e+03
2.138671e+03,7.989733e+03
2.139636e+03,7.997541e+03
2.140600e+03,7.943371e+03
2.141564e+03,7.913681e+03
2.142528e+03,7.916033e+03
2.143493e+03,7.928425e+03
2.144457e+03,7.945472e+03
2.145421e+03,7.936355e+03
2.146385e+03,7.890067e+03
2.147350e+03,7.846275e+03
2.148314e+03,7.817317e+03
2.149278e+03,7.816663e+03
2.150242e+03,7.867716e+03
2.151207e+03,7.902012e+03
2.152171e+03,7.906134e+03
2.153135e+03,7.893260e+03
2.154099e+03,7.880330e+03
2.155063e+03,7.861327e+03
2.156028e+03,7.834913e+03
2.156992e+03,7.818527e+03
2.157956e+03,7.815834e+03
2.158920e+03,7.818373e+03
2.159885e+03,7.820774e+03
2.160849e+03,7.833480e+03
2.161813e+03,7.871724e+03
2.162777e+03,7.893519e+03
2.163741e+03,7.847686e+03
2.164706e+03,7.799021e+03
2.165670e+03,7.778121e+03
2.166634e+03,7.775140e+03
2.167598e+03,7.773376e+03
2.168563e+03,7.782999e+03
2.169527e+03,7.806493e+03
2.170491e+03,7.818307e+03
2.171455e+03,7.790547e+03
2.172420e+03,7.762308e+03
2.173384e+03,7.763995e+03
2.174348e+03,7.770168e+03
2.175312e+03,7.752743e+03
2.176277e+03,7.730762e+03
2.177241e+03,7.729541e+03
2.178205e+03,7.729406e+03
2.179169e+03,7.723569e+03
2.180134e+03,7.716603e+03
2.181098e+03,7.701575e+03
2.182062e+03,7.691818e+03
2.183026e+03,7.690725e+03
2.183990e+03,7.692248e+03
2.184955e+03,7.691130e+03
2.185919e+03,7.687163e+03
2.186883e+03,7.674420e+03
2.187847e+03,7.659234e+03
2.188812e+03,7.656410e+03
2.189776e+03,7.657972e+03
2.190740e+03,7.652317e+03
2.191704e+03,7.639975e+03
2.192668e+03,7.623896e+03
2.193633e+03,7.607609e+03
2.194597e+03,7.590954e+03
2.195561e+03,7.581850e+03
2.196525e+03,7.585271e+03
2.197490e+03,7.592444e+03
2.198454e+03,7.590529e+03
2.199418e+03,7.582180e+03
2.200382e+03,7.571886e+03
2.201347e+03,7.564896e+03
2.202311e+03,7.557875e+03
2.203275e+03,7.556034e+03
2.204239e+03,7.564150e+03
2.205204e+03,7.567060e+03
2.206168e+03,7.552639e+03
2.207132e+03,7.535366e+03
2.208096e+03,7.529697e+03
2.209061e+03,7.520427e+03
2.210025e+03,7.491750e+03
2.210989e+03,7.459596e+03
2.211953e+03,7.453789e+03
2.212917e+03,7.470027e+03
2.213882e+03,7.481463e+03
2.214846e+03,7.487780e+03
2.215810e+03,7.506354e+03
2.216774e+03,7.513558e+03
2.217739e+03,7.501929e+03
2.218703e+03,7.484022e+03
2.219667e+03,7.478901e+03
2.220631e+03,7.475023e+03
2.221595e+03,7.456219e+03
2.222560e+03,7.430347e+03
2.223524e+03,7.406052e+03
2.224488e+03,7.386287e+03
2.225452e+03,7.382635e+03
2.226417e+03,7.384660e+03
2.227381e+03,7.374649e+03
2.228345e+03,7.371256e+03
2.229309e+03,7.404633e+03
2.230274e+03,7.435079e+03
2.231238e+03,7.428908e+03
2.232202e+03,7.404140e+03
2.233166e+03,7.389820e+03
2.234131e+03,7.383621e+03
2.235095e+03,7.381618e+03
2.236059e+03,7.378985e+03
2.237023e+03,7.360795e+03
2.237988e+03,7.343322e+03
2.238952e+03,7.337644e+03
2.239916e+03,7.329833e+03
2.240880e+03,7.304872e+03
2.241844e+03,7.281225e+03
2.242809e+03,7.269474e+03
2.243773e+03,7.267978e+03
2.244737e+03,7.278954e+03
2.245701e+03,7.286124e+03
2.246666e+03,7.270085e+03
2.247630e+03,7.251259e+03
2.248594e+03,7.249497e+03
2.249558e+03,7.261974e+03
2.250522e+03,7.296955e+03
2.251487e+03,7.319079e+03
2.252451e+03,7.299244e+03
2.253415e+03,7.260622e+03
2.254379e+03,7.231600e+03
2.255344e+03,7.209454e+03
2.256308e+03,7.194532e+03
2.257272e+03,7.185976e+03
2.258236e+03,7.183545e+03
2.259201e+03,7.187300e+03
2.260165e+03,7.193956e+03
2.261129e+03,7.199756e+03
2.262093e+03,7.201200e+03
2.263058e+03,7.198053e+03
2.264022e+03,7.198071e+03
2.264986e+03,7.193636e+03
2.265950e+03,7.164437e+03
2.266915e+03,7.143240e+03
2.267879e+03,7.135771e+03
2.268843e+03,7.125281e+03
2.269807e+03,7.114688e+03
2.270771e+03,7.100674e+03
2.271736e+03,7.079644e+03
2.272700e+03,7.076160e+03
2.273664e+03,7.090487e+03
2.274628e+03,7.112032e+03
2.275593e+03,7.144626e+03
2.276557e+03,7.145921e+03
2.277521e+03,7.114515e+03
2.278485e+03,7.086238e+03
2.279449e+03,7.076313e+03
2.280414e+03,7.075454e+03
2.281378e+03,7.081597e+03
2.282342e+03,7.083089e+03
2.283306e+03,7.064303e+03
2.284271e+03,7.043315e+03
2.285235e+03,7.019549e+03
2.286199e+03,7.007174e+03
2.287163e+03,7.027026e+03
2.288128e+03,7.037071e+03
2.289092e+03,7.031062e+03
2.290056e+03,7.014522e+03
2.291020e+03,6.990275e+03
2.291985e+03,6.978703e+03
2.292949e+03,6.984161e+03
2.293913e+03,6.994316e+03
2.294877e+03,7.004756e+03
2.295842e+03,7.019839e+03
2.296806e+03,7.033635e+03
2.297770e+03,7.031455e+03
2.298734e+03,7.014429e+03
2.299698e+03,6.994368e+03
2.300663e+03,6.975475e+03
2.301627e+03,6.967913e+03
2.302591e+03,6.963381e+03
2.303555e+03,6.947194e+03
2.304520e+03,6.923661e+03
2.305484e+03,6.902376e+03
2.306448e+03,6.890707e+03
2.307412e+03,6.901481e+03
2.308376e+03,6.919831e+03
2.309341e+03,6.919615e+03
2.310305e+03,6.903545e+03
2.311269e+03,6.873881e+03
2.312233e+03,6.845815e+03
2.313198e+03,6.829022e+03
2.314162e+03,6.825031e+03
2.315126e+03,6.850809e+03
2.316090e+03,6.873368e+03
2.317055e+03,6.852329e+03
2.318019e+03,6.823240e+03
2.318983e+03,6.811776e+03
2.319947e+03,6.806600e+03
2.320912e+03,6.810227e+03
2.321876e+03,6.815048e+03
2.322840e+03,6.809314e+03
2.323804e+03,6.806379e+03
2.324769e+03,6.815359e+03
2.325733e+03,6.829952e+03
2.326697e+03,6.846312e+03
2.327661e+03,6.851667e+03
2.328625e+03,6.834104e+03
2.329590e+03,6.816076e+03
2.330554e+03,6.826323e+03
2.331518e+03,6.821719e+03
2.332482e+03,6.794364e+03
2.333447e+03,6.766447e+03
2.334411e+03,6.744625e+03
2.335375e+03,6.734759e+03
2.336339e+03,6.736387e+03
2.337303e+03,6.731611e+03
2.338268e+03,6.701239e+03
2.339232e+03,6.693114e+03
2.340196e+03,6.706088e+03
2.341160e+03,6.719716e+03
2.342125e+03,6.728819e+03
2.343089e+03,6.727846e+03
2.344053e+03,6.712442e+03
2.345017e+03,6.702712e+03
2.345982e+03,6.703220e+03
2.346946e+03,6.711142e+03
2.347910e+03,6.720904e+03
2.348874e+03,6.686783e+03
2.349839e+03,6.626286e+03
2.350803e+03,6.621402e+03
2.351767e+03,6.646895e+03
2.352731e+03,6.647884e+03
2.353696e+03,6.641351e+03
2.354660e+03,6.656640e+03
2.355624e+03,6.668546e+03
2.356588e+03,6.630031e+03
2.357552e+03,6.590804e+03
2.358517e+03,6.596635e+03
2.359481e+03,6.621841e+03
2.360445e+03,6.645045e+03
2.361409e+03,6.654402e+03
2.362374e+03,6.644409e+03
2.363338e+03,6.618491e+03
2.364302e+03,6.572839e+03
2.365266e+03,6.549946e+03
2.366230e+03,6.559491e+03
2.367195e+03,6.571096e+03
2.368159e+03,6.557515e+03
2.369123e+03,6.550748e+03
2.370087e+03,6.561585e+03
2.371052e+03,6.565486e+03
2.372016e+03,6.547604e+03
2.372980e+03,6.533258e+03
2.373944e+03,6.522020e+03
2.374909e+03,6.523822e+03
2.375873e+03,6.550701e+03
2.376837e+03,6.548394e+03
2.377801e+03,6.524190e+03
2.378766e+03,6.504024e+03
2.379730e+03,6.491440e+03
2.380694e+03,6.466914e+03
2.381658e+03,6.442883e+03
2.382623e+03,6.444628e+03
2.383587e+03,6.461998e+03
2.384551e+03,6.462094e+03
2.385515e+03,6.455577e+03
2.386479e+03,6.479549e+03
2.387444e+03,6.505300e+03
2.388408e+03,6.483173e+03
2.389372e+03,6.445843e+03
2.390336e+03,6.412113e+03
2.391301e+03,6.396443e+03
2.392265e+03,6.431616e+03
2.393229e+03,6.459709e+03
2.394193e+03,6.444976e+03
2.395157e+03,6.423180e+03
2.396122e+03,6.419135e+03
2.397086e+03,6.407646e+03
2.398050e+03,6.379589e+03
2.399014e+03,6.368957e+03
2.399979e+03,6.395330e+03
2.400943e+03,6.396713e+03
2.401907e+03,6.360833e+03
2.402871e+03,6.330493e+03
2.403836e+03,6.317370e+03
2.404800e+03,6.329406e+03
2.405764e+03,6.361144e+03
2.406728e+03,6.375583e+03
2.407693e+03,6.367580e+03
2.408657e+03,6.361767e+03
2.409621e+03,6.360630e+03
2.410585e+03,6.351641e+03
2.411550e+03,6.335662e+03
2.412514e+03,6.309706e+03
2.413478e+03,6.282641e+03
2.414442e+03,6.289917e+03
2.415406e+03,6.301417e+03
2.416371e+03,6.277549e+03
2.417335e+03,6.247800e+03
2.418299e+03,6.257458e+03
2.419263e+03,6.274321e+03
2.420228e+03,6.282333e+03
2.421192e+03,6.280224e+03
2.422156e+03,6.256305e+03
2.423120e+03,6.249922e+03
2.424084e+03,6.267507e+03
2.425049e+03,6.272678e+03
2.426013e+03,6.246724e+03
2.426977e+03,6.229883e+03
2.427941e+03,6.230251e+03
2.428906e+03,6.229262e+03
2.429870e+03,6.215287e+03
2.430834e+03,6.223808e+03
2.431798e+03,6.249601e+03
2.432763e+03,6.249486e+03
2.433727e+03,6.221491e+03
2.434691e+03,6.188072e+03
2.435655e+03,6.156384e+03
2.436620e+03,6.141979e+03
2.437584e+03,6.141613e+03
2.438548e+03,6.158792e+03
2.439512e+03,6.177867e+03
2.440477e+03,6.180737e+03
2.441441e+03,6.170470e+03
2.442405e+03,6.154058e+03
2.443369e+03,6.139313e+03
2.444333e+03,6.130911e+03
2.445298e+03,6.132467e+03
2.446262e+03,6.158124e+03
2.447226e+03,6.166285e+03
2.448190e+03,6.153052e+03
2.449155e+03,6.136299e+03
2.450119e+03,6.122891e+03
2.451083e+03,6.129090e+03
2.452047e+03,6.149023e+03
2.453011e+03,6.141669e+03
2.453976e+03,6.098193e+03
2.454940e+03,6.082971e+03
2.455904e+03,6.090983e+03
2.456868e+03,6.093834e+03
2.457833e+03,6.086572e+03
2.458797e+03,6.070179e+03
2.459761e+03,6.054184e+03
2.460725e+03,6.046188e+03
2.461690e+03,6.043804e+03
2.462654e+03,6.050114e+03
2.463618e+03,6.054025e+03
2.464582e+03,6.052662e+03
2.465547e+03,6.050073e+03
2.466511e+03,6.034326e+03
2.467475e+03,6.024358e+03
2.468439e+03,6.024006e+03
2.469404e+03,6.023817e+03
2.470368e+03,6.031922e+03
2.471332e+03,6.024688e+03
2.472296e+03,6.000321e+03
2.473260e+03,5.987276e+03
2.474225e+03,5.994804e+03
2.475189e+03,5.993331e+03
2.476153e+03,5.989526e+03
2.477117e+03,5.985960e+03
2.478082e+03,5.984314e+03
2.479046e+03,6.006810e+03
2.480010e+03,6.027773e+03
2.480974e+03,6.011995e+03
2.481938e+03,5.983506e+03
2.482903e+03,5.966509e+03
2.483867e+03,5.960538e+03
2.484831e+03,5.965395e+03
2.485795e+03,5.962409e+03
2.486760e+03,5.930891e+03
2.487724e+03,5.909793e+03
2.488688e+03,5.907348e+03
2.489652e+03,5.913528e+03
2.490617e+03,5.925548e+03
2.491581e+03,5.920758e+03
2.492545e+03,5.905855e+03
2.493509e+03,5.904520e+03
2.494474e+03,5.915515e+03
2.495438e+03,5.928737e+03
2.496402e+03,5.940328e+03
2.497366e+03,5.944542e+03
2.498331e+03,5.939800e+03
2.499295e+03,5.910914e+03
2.500259e+03,5.882110e+03
2.501223e+03,5.883102e+03
2.502188e+03,5.891850e+03
2.503152e+03,5.892124e+03
2.504116e+03,5.871773e+03
2.505080e+03,5.825609e+03
2.506044e+03,5.801068e+03
2.507009e+03,5.852892e+03
2.507973e+03,5.862542e+03
2.508937e+03,5.832834e+03
2.509901e+03,5.822232e+03
2.510865e+03,5.844993e+03
2.511830e+03,5.837818e+03
2.512794e+03,5.810287e+03
2.513758e+03,5.807917e+03
2.514722e+03,5.822470e+03
2.515687e+03,5.809353e+03
2.516651e+03,5.792394e+03
2.517615e+03,5.798552e+03
2.518579e+03,5.808552e+03
2.519544e+03,5.800158e+03
2.520508e+03,5.781593e+03
2.521472e+03,5.756947e+03
2.522436e+03,5.737365e+03
2.523401e+03,5.731403e+03
2.524365e+03,5.738073e+03
2.525329e+03,5.751505e+03
2.526293e+03,5.752833e+03
2.527258e+03,5.742105e+03
2.528222e+03,5.731888e+03
2.529186e+03,5.722223e+03
2.530150e+03,5.711166e+03
2.531115e+03,5.704988e+03
2.532079e+03,5.719422e+03
2.533043e+03,5.740970e+03
2.534007e+03,5.755081e+03
2.534971e+03,5.754004e+03
2.535936e+03,5.725017e+03
2.536900e+03,5.702286e+03
2.537864e+03,5.698350e+03
2.538828e+03,5.692491e+03
2.539792e+03,5.659264e+03
2.540757e+03,5.650352e+03
2.541721e+03,5.670264e+03
2.542685e+03,5.687621e+03
2.543649e+03,5.700479e+03
2.544614e+03,5.699119e+03
2.545578e+03,5.681763e+03
2.546542e+03,5.655006e+03
2.547506e+03,5.630819e+03
2.548471e+03,5.640019e+03
2.549435e+03,5.655899e+03
2.550399e+03,5.659282e+03
2.551363e+03,5.649357e+03
2.552328e+03,5.622482e+03
2.553292e+03,5.600932e+03
2.554256e+03,5.591106e+03
2.555220e+03,5.598578e+03
2.556185e+03,5.621281e+03
2.557149e+03,5.629750e+03
2.558113e+03,5.618785e+03
2.559077e+03,5.620780e+03
2.560042e+03,5.626856e+03
2.561006e+03,5.611542e+03
2.561970e+03,5.590133e+03
2.562934e+03,5.571702e+03
2.563898e+03,5.562037e+03
2.564863e+03,5.571354e+03
2.565827e+03,5.575998e+03
2.566791e+03,5.566282e+03
2.567755e+03,5.555412e+03
2.568719e+03,5.538468e+03
2.569684e+03,5.535048e+03
2.570648e+03,5.566122e+03
2.571612e+03,5.564811e+03
2.572576e+03,5.540322e+03
2.573541e+03,5.514392e+03
2.574505e+03,5.490146e+03
2.575469e+03,5.508892e+03
2.576433e+03,5.536866e+03
2.577398e+03,5.527819e+03
2.578362e+03,5.504304e+03
2.579326e+03,5.491263e+03
2.580290e+03,5.484547e+03
2.581255e+03,5.478055e+03
2.582219e+03,5.475421e+03
2.583183e+03,5.493449e+03
2.584147e+03,5.484663e+03
2.585112e+03,5.457438e+03
2.586076e+03,5.452943e+03
2.587040e+03,5.476337e+03
2.588004e+03,5.486903e+03
2.588969e+03,5.486361e+03
2.589933e+03,5.490733e+03
2.590897e+03,5.495930e+03
2.591861e+03,5.484631e+03
2.592825e+03,5.478338e+03
2.593790e+03,5.491543e+03
2.594754e+03,5.497114e+03
2.595718e+03,5.474556e+03
2.596682e+03,5.447922e+03
2.597646e+03,5.418368e+03
2.598611e+03,5.398283e+03
2.599575e+03,5.392329e+03
2.600539e+03,5.386836e+03
2.601503e+03,5.385101e+03
2.602468e+03,5.413096e+03
2.603432e+03,5.449073e+03
2.604396e+03,5.460482e+03
2.605360e+03,5.453808e+03
2.606325e+03,5.407800e+03
2.607289e+03,5.377329e+03
2.608253e+03,5.388814e+03
2.609217e+03,5.405409e+03
2.610182e+03,5.404871e+03
2.611146e+03,5.399570e+03
2.612110e+03,5.392464e+03
2.613074e+03,5.378262e+03
2.614039e+03,5.363123e+03
2.615003e+03,5.378326e+03
2.615967e+03,5.394051e+03
2.616931e+03,5.373851e+03
2.617896e+03,5.345963e+03
2.618860e+03,5.341987e+03
2.619824e+03,5.347292e+03
2.620788e+03,5.354552e+03
2.621752e+03,5.353839e+03
2.622717e+03,5.340376e+03
2.623681e+03,5.327747e+03
2.624645e+03,5.315784e+03
2.625609e+03,5.314459e+03
2.626573e+03,5.320767e+03
2.627538e+03,5.308577e+03
2.628502e+03,5.294632e+03
2.629466e+03,5.299483e+03
2.630430e+03,5.306679e+03
2.631395e+03,5.288132e+03
2.632359e+03,5.269758e+03
2.633323e+03,5.258703e+03
2.634287e+03,5.269532e+03
2.635252e+03,5.305420e+03
2.636216e+03,5.326471e+03
2.637180e+03,5.320234e+03
2.638144e+03,5.298716e+03
2.639109e+03,5.270429e+03
2.640073e+03,5.275908e+03
2.641037e+03,5.292327e+03
2.642001e+03,5.271667e+03
2.642966e+03,5.238701e+03
2.643930e+03,5.204277e+03
2.644894e+03,5.188078e+03
2.645858e+03,5.228541e+03
2.646823e+03,5.229649e+03
2.647787e+03,5.189055e+03
2.648751e+03,5.174621e+03
2.649715e+03,5.191095e+03
2.650679e+03,5.194648e+03
2.651644e+03,5.196469e+03
2.652608e+03,5.215921e+03
2.653572e+03,5.235818e+03
2.654536e+03,5.230750e+03
2.655500e+03,5.220061e+03
2.656465e+03,5.209666e+03
2.657429e+03,5.205724e+03
2.658393e+03,5.206471e+03
2.659357e+03,5.204278e+03
2.660322e+03,5.204230e+03
2.661286e+03,5.197623e+03
2.662250e+03,5.188305e+03
2.663214e+03,5.192334e+03
2.664179e+03,5.197491e+03
2.665143e+03,5.188493e+03
2.666107e+03,5.181821e+03
2.667071e+03,5.188059e+03
2.668036e+03,5.188763e+03
2.669000e+03,5.159156e+03
2.669964e+03,5.151133e+03
2.670928e+03,5.160633e+03
2.671893e+03,5.156851e+03
2.672857e+03,5.143889e+03
2.673821e+03,5.138839e+03
2.674785e+03,5.137229e+03
2.675750e+03,5.138060e+03
2.676714e+03,5.141944e+03
2.677678e+03,5.153208e+03
2.678642e+03,5.146810e+03
2.679606e+03,5.116960e+03
2.680571e+03,5.103623e+03
2.681535e+03,5.110956e+03
2.682499e+03,5.130372e+03
2.683463e+03,5.147804e+03
2.684427e+03,5.131181e+03
2.685392e+03,5.103147e+03
2.686356e+03,5.101422e+03
2.687320e+03,5.099012e+03
2.688284e+03,5.075097e+03
2.689249e+03,5.058689e+03
2.690213e+03,5.052794e+03
2.691177e+03,5.060175e+03
2.692141e+03,5.090231e+03
2.693106e+03,5.089770e+03
2.694070e+03,5.071898e+03
2.695034e+03,5.061920e+03
2.695998e+03,5.061679e+03
2.696963e+03,5.090801e+03
2.697927e+03,5.100958e+03
2.698891e+03,5.060837e+03
2.699855e+03,5.028644e+03
2.700820e+03,5.040495e+03
2.701784e+03,5.044727e+03
2.702748e+03,5.032781e+03
2.703712e+03,5.005177e+03
2.704677e+03,4.972458e+03
2.705641e+03,4.980011e+03
2.706605e+03,5.001669e+03
2.707569e+03,4.994415e+03
2.708533e+03,4.987097e+03
2.709498e+03,4.992297e+03
2.710462e+03,4.987103e+03
2.711426e+03,4.958846e+03
2.712390e+03,4.969934e+03
2.713354e+03,5.005984e+03
2.714319e+03,4.996164e+03
2.715283e+03,4.963271e+03
2.716247e+03,4.975255e+03
2.717211e+03,4.992020e+03
2.718176e+03,4.985210e+03
2.719140e+03,4.972651e+03
2.720104e+03,4.961787e+03
2.721068e+03,4.959084e+03
2.722033e+03,4.965441e+03
2.722997e+03,4.971244e+03
2.723961e+03,4.973101e+03
2.724925e+03,4.973335e+03
2.725890e+03,4.967899e+03
2.726854e+03,4.936959e+03
2.727818e+03,4.917879e+03
2.728782e+03,4.926082e+03
2.729747e+03,4.931340e+03
2.730711e+03,4.916963e+03
2.731675e+03,4.909815e+03
2.732639e+03,4.911001e+03
2.733604e+03,4.918289e+03
2.734568e+03,4.923904e+03
2.735532e+03,4.899776e+03
2.736496e+03,4.880451e+03
2.737460e+03,4.896944e+03
2.738425e+03,4.912663e+03
2.739389e+03,4.903117e+03
2.740353e+03,4.885879e+03
2.741317e+03,4.867063e+03
2.742281e+03,4.857275e+03
2.743246e+03,4.858833e+03
2.744210e+03,4.877326e+03
2.745174e+03,4.889707e+03
2.746138e+03,4.873375e+03
2.747103e+03,4.855067e+03
2.748067e+03,4.848907e+03
2.749031e+03,4.844988e+03
2.749995e+03,4.835361e+03
2.750960e+03,4.825634e+03
2.751924e+03,4.819241e+03
2.752888e+03,4.826229e+03
2.753852e+03,4.837163e+03
2.754817e+03,4.834130e+03
2.755781e+03,4.829949e+03
2.756745e+03,4.829768e+03
2.757709e+03,4.833542e+03
2.758674e+03,4.836255e+03
2.759638e+03,4.832370e+03
2.760602e+03,4.822760e+03
2.761566e+03,4.817042e+03
2.762531e+03,4.816430e+03
2.763495e+03,4.813883e+03
2.764459e+03,4.807385e+03
2.765423e+03,4.793560e+03
2.766387e+03,4.792459e+03
2.767352e+03,4.810222e+03
2.768316e+03,4.814967e+03
2.769280e+03,4.799671e+03
2.770244e+03,4.791928e+03
2.771208e+03,4.793029e+03
2.772173e+03,4.799385e+03
2.773137e+03,4.797091e+03
2.774101e+03,4.773467e+03
2.775065e+03,4.756907e+03
2.776030e+03,4.755338e+03
2.776994e+03,4.769686e+03
2.777958e+03,4.789345e+03
2.778922e+03,4.779492e+03
2.779887e+03,4.755086e+03
2.780851e+03,4.760451e+03
2.781815e+03,4.764376e+03
2.782779e+03,4.748911e+03
2.783744e+03,4.740307e+03
2.784708e+03,4.754875e+03
2.785672e+03,4.748232e+03
2.786636e+03,4.720961e+03
2.787601e+03,4.719122e+03
2.788565e+03,4.733117e+03
2.789529e+03,4.718458e+03
2.790493e+03,4.702989e+03
2.791458e+03,4.710079e+03
2.792422e+03,4.714465e+03
2.793386e+03,4.715147e+03
2.794350e+03,4.724409e+03
2.795314e+03,4.741751e+03
2.796279e+03,4.738028e+03
2.797243e+03,4.719688e+03
2.798207e+03,4.705933e+03
2.799171e+03,4.701314e+03
2.800135e+03,4.714267e+03
2.801100e+03,4.715138e+03
2.802064e+03,4.699333e+03
2.803028e+03,4.687532e+03
2.803992e+03,4.681471e+03
2.804957e+03,4.697141e+03
2.805921e+03,4.716203e+03
2.806885e+03,4.692336e+03
2.807849e+03,4.663674e+03
2.808814e+03,4.648101e+03
2.809778e+03,4.654693e+03
2.810742e+03,4.704968e+03
2.811706e+03,4.678955e+03
2.812671e+03,4.604932e+03
2.813635e+03,4.611673e+03
2.814599e+03,4.652278e+03
2.815563e+03,4.632424e+03
2.816528e+03,4.613244e+03
2.817492e+03,4.622228e+03
2.818456e+03,4.637123e+03
2.819420e+03,4.648023e+03
2.820385e+03,4.645708e+03
2.821349e+03,4.635438e+03
2.822313e+03,4.613226e+03
2.823277e+03,4.597753e+03
2.824241e+03,4.601614e+03
2.825206e+03,4.596927e+03
2.826170e+03,4.564173e+03
2.827134e+03,4.568697e+03
2.828098e+03,4.608877e+03
2.829063e+03,4.638253e+03
2.830027e+03,4.648018e+03
2.830991e+03,4.615961e+03
2.831955e+03,4.587666e+03
2.832919e+03,4.590481e+03
2.833884e+03,4.594333e+03
2.834848e+03,4.592078e+03
2.835812e+03,4.581750e+03
2.836776e+03,4.569079e+03
2.837741e+03,4.598055e+03
2.838705e+03,4.624542e+03
2.839669e+03,4.594719e+03
2.840633e+03,4.567787e+03
2.841598e+03,4.578663e+03
2.842562e+03,4.572405e+03
2.843526e+03,4.540000e+03
2.844490e+03,4.534352e+03
2.845455e+03,4.539638e+03
2.846419e+03,4.534610e+03
2.847383e+03,4.527564e+03
2.848347e+03,4.518281e+03
2.849312e+03,4.536781e+03
2.850276e+03,4.585125e+03
2.851240e+03,4.587556e+03
2.852204e+03,4.549124e+03
2.853168e+03,4.541898e+03
2.854133e+03,4.545756e+03
2.855097e+03,4.539151e+03
2.856061e+03,4.524136e+03
2.857025e+03,4.496071e+03
2.857990e+03,4.492561e+03
2.858954e+03,4.527791e+03
2.859918e+03,4.533389e+03
2.860882e+03,4.519096e+03
2.861846e+03,4.498502e+03
2.862811e+03,4.485499e+03
2.863775e+03,4.497813e+03
2.864739e+03,4.498668e+03
2.865703e+03,4.477827e+03
2.866668e+03,4.474679e+03
2.867632e+03,4.485128e+03
2.868596e+03,4.500941e+03
2.869560e+03,4.509461e+03
2.870525e+03,4.496097e+03
2.871489e+03,4.485012e+03
2.872453e+03,4.479914e+03
2.873417e+03,4.488522e+03
2.874382e+03,4.502726e+03
2.875346e+03,4.481239e+03
2.876310e+03,4.454553e+03
2.877274e+03,4.462400e+03
2.878239e+03,4.470778e+03
2.879203e+03,4.463643e+03
2.880167e+03,4.446684e+03
2.881131e+03,4.426388e+03
2.882095e+03,4.421706e+03
2.883060e+03,4.433413e+03
2.884024e+03,4.463848e+03
2.884988e+03,4.475132e+03
2.885952e+03,4.420177e+03
2.886917e+03,4.388327e+03
2.887881e+03,4.408155e+03
2.888845e+03,4.453537e+03
2.889809e+03,4.495549e+03
2.890773e+03,4.455912e+03
2.891738e+03,4.399185e+03
2.892702e+03,4.410623e+03
2.893666e+03,4.417602e+03
2.894630e+03,4.406788e+03
2.895595e+03,4.389804e+03
2.896559e+03,4.374708e+03
2.897523e+03,4.409505e+03
2.898487e+03,4.446050e+03
2.899452e+03,4.420572e+03
2.900416e+03,4.403262e+03
2.901380e+03,4.408126e+03
2.902344e+03,4.406580e+03
2.903309e+03,4.393842e+03
2.904273e+03,4.375717e+03
2.905237e+03,4.366693e+03
2.906201e+03,4.384641e+03
2.907166e+03,4.394039e+03
2.908130e+03,4.379200e+03
2.909094e+03,4.373844e+03
2.910058e+03,4.381659e+03
2.911022e+03,4.377148e+03
2.911987e+03,4.366592e+03
2.912951e+03,4.348807e+03
2.913915e+03,4.350141e+03
2.914879e+03,4.400130e+03
2.915844e+03,4.422489e+03
2.916808e+03,4.413272e+03
2.917772e+03,4.396654e+03
2.918736e+03,4.380300e+03
2.919700e+03,4.368608e+03
2.920665e+03,4.363142e+03
2.921629e+03,4.370860e+03
2.922593e+03,4.383536e+03
2.923557e+03,4.394895e+03
2.924522e+03,4.362581e+03
2.925486e+03,4.311880e+03
2.926450e+03,4.294687e+03
2.927414e+03,4.291906e+03
2.928379e+03,4.297630e+03
2.929343e+03,4.316028e+03
2.930307e+03,4.338833e+03
2.931271e+03,4.328538e+03
2.932236e+03,4.310174e+03
2.933200e+03,4.333539e+03
2.934164e+03,4.337674e+03
2.935128e+03,4.291294e+03
2.936093e+03,4.276645e+03
2.937057e+03,4.299844e+03
2.938021e+03,4.315930e+03
2.938985e+03,4.321060e+03
2.939949e+03,4.292333e+03
2.940914e+03,4.277726e+03
2.941878e+03,4.294075e+03
2.942842e+03,4.303468e+03
2.943806e+03,4.293310e+03
2.944771e+03,4.307483e+03
2.945735e+03,4.327560e+03
2.946699e+03,4.330704e+03
2.947663e+03,4.314714e+03
2.948627e+03,4.276434e+03
2.949592e+03,4.257244e+03
2.950556e+03,4.266647e+03
2.951520e+03,4.280970e+03
2.952484e+03,4.279926e+03
2.953449e+03,4.245277e+03
2.954413e+03,4.225823e+03
2.955377e+03,4.246464e+03
2.956341e+03,4.257582e+03
2.957306e+03,4.255684e+03
2.958270e+03,4.284944e+03
2.959234e+03,4.284889e+03
2.960198e+03,4.214011e+03
2.961163e+03,4.183847e+03
2.962127e+03,4.241633e+03
2.963091e+03,4.261320e+03
2.964055e+03,4.240135e+03
2.965020e+03,4.235001e+03
2.965984e+03,4.228462e+03
2.966948e+03,4.198094e+03
2.967912e+03,4.187075e+03
2.968876e+03,4.222779e+03
2.969841e+03,4.224391e+03
2.970805e+03,4.206812e+03
2.971769e+03,4.208009e+03
2.972733e+03,4.212779e+03
2.973698e+03,4.210521e+03
2.974662e+03,4.198600e+03
2.975626e+03,4.176750e+03
2.976590e+03,4.185319e+03
2.977554e+03,4.212108e+03
2.978519e+03,4.238177e+03
2.979483e+03,4.244359e+03
2.980447e+03,4.218060e+03
2.981411e+03,4.201290e+03
2.982376e+03,4.199137e+03
2.983340e+03,4.183968e+03
2.984304e+03,4.163525e+03
2.985268e+03,4.146049e+03
2.986233e+03,4.140132e+03
2.987197e+03,4.160718e+03
2.988161e+03,4.133806e+03
2.989125e+03,4.091035e+03
2.990090e+03,4.143697e+03
2.991054e+03,4.196126e+03
2.992018e+03,4.168958e+03
2.992982e+03,4.138597e+03
2.993947e+03,4.137416e+03
2.994911e+03,4.153676e+03
2.995875e+03,4.183314e+03
2.996839e+03,4.219149e+03
2.997803e+03,4.212018e+03
2.998768e+03,4.131229e+03
2.999732e+03,4.091833e+03
3.000696e+03,4.119840e+03
3.001660e+03,4.150989e+03
3.002625e+03,4.158678e+03
3.003589e+03,4.124132e+03
3.004553e+03,4.082457e+03
3.005517e+03,4.052696e+03
3.006481e+03,4.055284e+03
3.007446e+03,4.078903e+03
3.008410e+03,4.093810e+03
3.009374e+03,4.105044e+03
3.010338e+03,4.121255e+03
3.011303e+03,4.137422e+03
3.012267e+03,4.144034e+03
3.013231e+03,4.143598e+03
3.014195e+03,4.128597e+03
3.015160e+03,4.082074e+03
3.016124e+03,4.043575e+03
3.017088e+03,4.023467e+03
3.018052e+03,4.055092e+03
3.019017e+03,4.123821e+03
3.019981e+03,4.118661e+03
3.020945e+03,4.090114e+03
3.021909e+03,4.076891e+03
3.022874e+03,4.098659e+03
3.023838e+03,4.145794e+03
3.024802e+03,4.136144e+03
3.025766e+03,4.096125e+03
3.026730e+03,4.104478e+03
3.027695e+03,4.102080e+03
3.028659e+03,4.064579e+03
3.029623e+03,4.043076e+03
3.030587e+03,4.042102e+03
3.031552e+03,4.055843e+03
3.032516e+03,4.067642e+03
3.033480e+03,4.071022e+03
3.034444e+03,4.060217e+03
3.035408e+03,4.040063e+03
3.036373e+03,4.040531e+03
3.037337e+03,4.053498e+03
3.038301e+03,4.064103e+03
3.039265e+03,4.076940e+03
3.040230e+03,4.091122e+03
3.041194e+03,4.107458e+03
3.042158e+03,4.115333e+03
3.043122e+03,4.075544e+03
3.044087e+03,4.033884e+03
3.045051e+03,4.053230e+03
3.046015e+03,4.068278e+03
3.046979e+03,4.063883e+03
3.047944e+03,4.015360e+03
3.048908e+03,3.965703e+03
3.049872e+03,3.972881e+03
3.050836e+03,4.003836e+03
3.051801e+03,4.041078e+03
3.052765e+03,4.046899e+03
3.053729e+03,4.024997e+03
3.054693e+03,4.055604e+03
3.055657e+03,4.090090e+03
3.056622e+03,4.090173e+03
3.057586e+03,4.075707e+03
3.058550e+03,4.057215e+03
3.059514e+03,4.009722e+03
3.060479e+03,3.966662e+03
3.061443e+03,3.978064e+03
3.062407e+03,3.995982e+03
3.063371e+03,4.003911e+03
3.064335e+03,3.991802e+03
3.065300e+03,3.968859e+03
3.066264e+03,3.953871e+03
3.067228e+03,3.945856e+03
3.068192e+03,3.939308e+03
3.069157e+03,3.952815e+03
3.070121e+03,3.979588e+03
3.071085e+03,3.994304e+03
3.072049e+03,3.994502e+03
3.073014e+03,3.960770e+03
3.073978e+03,3.952955e+03
3.074942e+03,3.983233e+03
3.075906e+03,4.022491e+03
3.076871e+03,4.042184e+03
3.077835e+03,3.995504e+03
3.078799e+03,3.953866e+03
3.079763e+03,3.965272e+03
3.080728e+03,3.956995e+03
3.081692e+03,3.937860e+03
3.082656e+03,3.945865e+03
3.083620e+03,3.954581e+03
3.084584e+03,3.950868e+03
3.085549e+03,3.952259e+03
3.086513e+03,3.963913e+03
3.087477e+03,3.929261e+03
3.088441e+03,3.894760e+03
3.089406e+03,3.924052e+03
3.090370e+03,3.954648e+03
3.091334e+03,3.973161e+03
3.092298e+03,3.971406e+03
3.093262e+03,3.956706e+03
3.094227e+03,3.921757e+03
3.095191e+03,3.914153e+03
3.096155e+03,3.954662e+03
3.097119e+03,3.969671e+03
3.098084e+03,3.969242e+03
3.099048e+03,3.975428e+03
3.100012e+03,3.984348e+03
3.100976e+03,3.997986e+03
3.101941e+03,3.974323e+03
3.102905e+03,3.922344e+03
3.103869e+03,3.908317e+03
3.104833e+03,3.901972e+03
3.105798e+03,3.884357e+03
3.106762e+03,3.885103e+03
3.107726e+03,3.910807e+03
3.108690e+03,3.910644e+03
3.109655e+03,3.901625e+03
3.110619e+03,3.914101e+03
3.111583e+03,3.904375e+03
3.112547e+03,3.875967e+03
3.113511e+03,3.880598e+03
3.114476e+03,3.905384e+03
3.115440e+03,3.929040e+03
3.116404e+03,3.944116e+03
3.117368e+03,3.954222e+03
3.118333e+03,3.927445e+03
3.119297e+03,3.890258e+03
3.120261e+03,3.884925e+03
3.121225e+03,3.896344e+03
3.122189e+03,3.913196e+03
3.123154e+03,3.929321e+03
3.124118e+03,3.944479e+03
3.125082e+03,3.999319e+03
3.126046e+03,4.013838e+03
3.127011e+03,3.950230e+03
3.127975e+03,3.908626e+03
3.128939e+03,3.894320e+03
3.129903e+03,3.862051e+03
3.130868e+03,3.843518e+03
3.131832e+03,3.879749e+03
3.132796e+03,3.912125e+03
3.133760e+03,3.931047e+03
3.134725e+03,3.932991e+03
3.135689e+03,3.912535e+03
3.136653e+03,3.858703e+03
3.137617e+03,3.854235e+03
3.138582e+03,3.925713e+03
3.139546e+03,3.912582e+03
3.140510e+03,3.880315e+03
3.141474e+03,3.919817e+03
3.142438e+03,3.911969e+03
3.143403e+03,3.850853e+03
3.144367e+03,3.859261e+03
3.145331e+03,3.892242e+03
3.146295e+03,3.856633e+03
3.147260e+03,3.844758e+03
3.148224e+03,3.871425e+03
3.149188e+03,3.856448e+03
3.150152e+03,3.842032e+03
3.151116e+03,3.885438e+03
3.152081e+03,3.919464e+03
3.153045e+03,3.906106e+03
3.154009e+03,3.898849e+03
3.154973e+03,3.899080e+03
3.155938e+03,3.895127e+03
3.156902e+03,3.879537e+03
3.157866e+03,3.846867e+03
3.158830e+03,3.817786e+03
3.159795e+03,3.806688e+03
3.160759e+03,3.834147e+03
3.161723e+03,3.850335e+03
3.162687e+03,3.826099e+03
3.163652e+03,3.808831e+03
3.164616e+03,3.806507e+03
3.165580e+03,3.822171e+03
3.166544e+03,3.827570e+03
3.167509e+03,3.815823e+03
3.168473e+03,3.830573e+03
3.169437e+03,3.856284e+03
3.170401e+03,3.818118e+03
3.171365e+03,3.780111e+03
3.172330e+03,3.772997e+03
3.173294e+03,3.794101e+03
3.174258e+03,3.828963e+03
3.175222e+03,3.855828e+03
3.176187e+03,3.856865e+03
3.177151e+03,3.823018e+03
3.178115e+03,3.841511e+03
3.179079e+03,3.882312e+03
3.180043e+03,3.815110e+03
3.181008e+03,3.773505e+03
3.181972e+03,3.809185e+03
3.182936e+03,3.828176e+03
3.183900e+03,3.821190e+03
3.184865e+03,3.787920e+03
3.185829e+03,3.780211e+03
3.186793e+03,3.879655e+03
3.187757e+03,3.902648e+03
3.188722e+03,3.872039e+03
3.189686e+03,3.844380e+03
3.190650e+03,3.855285e+03
3.191614e+03,3.906469e+03
3.192579e+03,3.885923e+03
3.193543e+03,3.820313e+03
3.194507e+03,3.814502e+03
3.195471e+03,3.831013e+03
3.196436e+03,3.853065e+03
3.197400e+03,3.853694e+03
3.198364e+03,3.841679e+03
3.199328e+03,3.839079e+03
3.200292e+03,3.838961e+03
3.201257e+03,0.000000e+00
3.202221e+03,0.000000e+00
3.203185e+03,0.000000e+00
3.204149e+03,0.000000e+00
3.205114e+03,0.000000e+00
3.206078e+03,0.000000e+00
3.207042e+03,0.000000e+00
3.208006e+03,0.000000e+00
3.208970e+03,0.000000e+00
3.209935e+03,0.000000e+00
3.210899e+03,0.000000e+00
3.211863e+03,0.000000e+00
3.212827e+03,0.000000e+00
3.213792e+03,0.000000e+00
3.214756e+03,0.000000e+00
3.215720e+03,0.000000e+00
3.216684e+03,0.000000e+00
3.217649e+03,0.000000e+00
3.218613e+03,0.000000e+00
3.219577e+03,0.000000e+00
3.220541e+03,0.000000e+00
3.221506e+03,0.000000e+00
3.222470e+03,0.000000e+00
3.223434e+03,0.000000e+00
3.224398e+03,0.000000e+00
3.225363e+03,0.000000e+00
3.226327e+03,0.000000e+00
3.227291e+03,0.000000e+00
3.228255e+03,0.000000e+00
3.229219e+03,0.000000e+00
3.230184e+03,0.000000e+00
3.231148e+03,0.000000e+00
3.232112e+03,0.000000e+00
3.233076e+03,0.000000e+00
3.234041e+03,0.000000e+00
3.235005e+03,0.000000e+00
3.235969e+03,0.000000e+00
3.236933e+03,0.000000e+00
3.237897e+03,0.000000e+00
3.238862e+03,0.000000e+00
3.239826e+03,0.000000e+00
3.240790e+03,0.000000e+00
3.241754e+03,0.000000e+00
3.242719e+03,0.000000e+00
3.243683e+03,0.000000e+00
3.244647e+03,0.000000e+00
3.245611e+03,0.000000e+00
3.246576e+03,0.000000e+00
3.247540e+03,0.000000e+00
3.248504e+03,0.000000e+00
3.249468e+03,0.000000e+00
3.250433e+03,0.000000e+00
3.251397e+03,0.000000e+00
3.252361e+03,0.000000e+00
3.253325e+03,0.000000e+00
3.254290e+03,0.000000e+00
3.255254e+03,0.000000e+00
3.256218e+03,0.000000e+00
3.257182e+03,0.000000e+00
3.258146e+03,0.000000e+00
3.259111e+03,0.000000e+00
3.260075e+03,0.000000e+00
3.261039e+03,0.000000e+00
3.262003e+03,0.000000e+00
3.262968e+03,0.000000e+00
3.263932e+03,0.000000e+00
3.264896e+03,0.000000e+00
3.265860e+03,0.000000e+00
3.266824e+03,0.000000e+00
3.267789e+03,0.000000e+00
3.268753e+03,0.000000e+00
3.269717e+03,0.000000e+00
3.270681e+03,0.000000e+00
3.271646e+03,0.000000e+00
3.272610e+03,0.000000e+00
3.273574e+03,0.000000e+00
3.274538e+03,0.000000e+00
3.275503e+03,0.000000e+00
3.276467e+03,0.000000e+00
3.277431e+03,0.000000e+00
3.278395e+03,0.000000e+00
3.279360e+03,0.000000e+00
3.280324e+03,0.000000e+00
3.281288e+03,0.000000e+00
3.282252e+03,0.000000e+00
3.283217e+03,0.000000e+00
3.284181e+03,0.000000e+00
3.285145e+03,0.000000e+00
3.286109e+03,0.000000e+00
3.287073e+03,0.000000e+00
3.288038e+03,0.000000e+00
3.289002e+03,0.000000e+00
3.289966e+03,0.000000e+00
3.290930e+03,0.000000e+00
3.291895e+03,0.000000e+00
3.292859e+03,0.000000e+00
3.293823e+03,0.000000e+00
3.294787e+03,0.000000e+00
3.295751e+03,0.000000e+00
3.296716e+03,0.000000e+00
3.297680e+03,0.000000e+00
3.298644e+03,0.000000e+00
3.299608e+03,0.000000e+00
3.300573e+03,0.000000e+00
3.301537e+03,0.000000e+00
3.302501e+03,0.000000e+00
3.303465e+03,0.000000e+00
3.304430e+03,0.000000e+00
3.305394e+03,0.000000e+00
3.306358e+03,0.000000e+00
3.307322e+03,0.000000e+00
3.308287e+03,0.000000e+00
3.309251e+03,0.000000e+00
3.310215e+03,0.000000e+00
3.311179e+03,0.000000e+00
3.312144e+03,0.000000e+00
3.313108e+03,0.000000e+00
3.314072e+03,0.000000e+00
3.315036e+03,0.000000e+00
3.316000e+03,0.000000e+00
3.316965e+03,0.000000e+00
3.317929e+03,0.000000e+00
3.318893e+03,0.000000e+00
3.319857e+03,0.000000e+00
3.320822e+03,0.000000e+00
3.321786e+03,0.000000e+00
3.322750e+03,0.000000e+00
3.323714e+03,0.000000e+00
3.324678e+03,0.000000e+00
3.325643e+03,0.000000e+00
3.326607e+03,0.000000e+00
3.327571e+03,0.000000e+00
3.328535e+03,0.000000e+00
3.329500e+03,0.000000e+00
3.330464e+03,0.000000e+00
3.331428e+03,0.000000e+00
3.332392e+03,0.000000e+00
3.333357e+03,0.000000e+00
3.334321e+03,0.000000e+00
3.335285e+03,0.000000e+00
3.336249e+03,0.000000e+00
3.337214e+03,0.000000e+00
3.338178e+03,0.000000e+00
3.339142e+03,0.000000e+00
3.340106e+03,0.000000e+00
3.341071e+03,0.000000e+00
3.342035e+03,0.000000e+00
3.342999e+03,0.000000e+00
3.343963e+03,0.000000e+00
3.344927e+03,0.000000e+00
3.345892e+03,0.000000e+00
3.346856e+03,0.000000e+00
3.347820e+03,0.000000e+00
3.348784e+03,0.000000e+00
3.349749e+03,0.000000e+00
3.350713e+03,0.000000e+00
3.351677e+03,0.000000e+00
3.352641e+03,0.000000e+00
3.353605e+03,0.000000e+00
3.354570e+03,0.000000e+00
3.355534e+03,0.000000e+00
3.356498e+03,0.000000e+00
3.357462e+03,0.000000e+00
3.358427e+03,0.000000e+00
3.359391e+03,0.000000e+00
3.360355e+03,0.000000e+00
3.361319e+03,0.000000e+00
3.362284e+03,0.000000e+00
3.363248e+03,0.000000e+00
3.364212e+03,0.000000e+00
3.365176e+03,0.000000e+00
3.366141e+03,0.000000e+00
3.367105e+03,0.000000e+00
3.368069e+03,0.000000e+00
3.369033e+03,0.000000e+00
3.369998e+03,0.000000e+00
3.370962e+03,0.000000e+00
3.371926e+03,0.000000e+00
3.372890e+03,0.000000e+00
3.373854e+03,0.000000e+00
3.374819e+03,0.000000e+00
3.375783e+03,0.000000e+00
3.376747e+03,0.000000e+00
3.377711e+03,0.000000e+00
3.378676e+03,0.000000e+00
3.379640e+03,0.000000e+00
3.380604e+03,0.000000e+00
3.381568e+03,0.000000e+00
3.382532e+03,0.000000e+00
3.383497e+03,0.000000e+00
3.384461e+03,0.000000e+00
3.385425e+03,0.000000e+00
3.386389e+03,0.000000e+00
3.387354e+03,0.000000e+00
3.388318e+03,0.000000e+00
3.389282e+03,0.000000e+00
3.390246e+03,0.000000e+00
3.391211e+03,0.000000e+00
3.392175e+03,0.000000e+00
3.393139e+03,0.000000e+00
3.394103e+03,0.000000e+00
3.395068e+03,0.000000e+00
3.396032e+03,0.000000e+00
3.396996e+03,0.000000e+00
3.397960e+03,0.000000e+00
3.398925e+03,0.000000e+00
3.399889e+03,0.000000e+00
3.400853e+03,0.000000e+00
3.401817e+03,0.000000e+00
3.402781e+03,0.000000e+00
3.403746e+03,0.000000e+00
3.404710e+03,0.000000e+00
3.405674e+03,0.000000e+00
3.406638e+03,0.000000e+00
3.407603e+03,0.000000e+00
3.408567e+03,0.000000e+00
3.409531e+03,0.000000e+00
3.410495e+03,0.000000e+00
3.411459e+03,0.000000e+00
3.412424e+03,0.000000e+00
3.413388e+03,0.000000e+00
3.414352e+03,0.000000e+00
3.415316e+03,0.000000e+00
3.416281e+03,0.000000e+00
3.417245e+03,0.000000e+00
3.418209e+03,0.000000e+00
3.419173e+03,0.000000e+00
3.420138e+03,0.000000e+00
3.421102e+03,0.000000e+00
3.422066e+03,0.000000e+00
3.423030e+03,0.000000e+00
3.423995e+03,0.000000e+00
3.424959e+03,0.000000e+00
3.425923e+03,0.000000e+00
3.426887e+03,0.000000e+00
3.427852e+03,0.000000e+00
3.428816e+03,0.000000e+00
3.429780e+03,0.000000e+00
3.430744e+03,0.000000e+00
3.431708e+03,0.000000e+00
3.432673e+03,0.000000e+00
3.433637e+03,0.000000e+00
3.434601e+03,0.000000e+00
3.435565e+03,0.000000e+00
3.436530e+03,0.000000e+00
3.437494e+03,0.000000e+00
3.438458e+03,0.000000e+00
3.439422e+03,0.000000e+00
3.440386e+03,0.000000e+00
3.441351e+03,0.000000e+00
3.442315e+03,0.000000e+00
3.443279e+03,0.000000e+00
3.444243e+03,0.000000e+00
3.445208e+03,0.000000e+00
3.446172e+03,0.000000e+00
3.447136e+03,0.000000e+00
3.448100e+03,0.000000e+00
3.449065e+03,0.000000e+00
3.450029e+03,0.000000e+00
3.450993e+03,0.000000e+00
3.451957e+03,0.000000e+00
3.452922e+03,0.000000e+00
3.453886e+03,0.000000e+00
3.454850e+03,0.000000e+00
3.455814e+03,0.000000e+00
3.456779e+03,0.000000e+00
3.457743e+03,0.000000e+00
3.458707e+03,0.000000e+00
3.459671e+03,0.000000e+00
3.460635e+03,0.000000e+00
3.461600e+03,0.000000e+00
3.462564e+03,0.000000e+00
3.463528e+03,0.000000e+00
3.464492e+03,0.000000e+00
3.465457e+03,0.000000e+00
3.466421e+03,0.000000e+00
3.467385e+03,0.000000e+00
3.468349e+03,0.000000e+00
3.469313e+03,0.000000e+00
3.470278e+03,0.000000e+00
3.471242e+03,0.000000e+00
3.472206e+03,0.000000e+00
3.473170e+03,0.000000e+00
3.474135e+03,0.000000e+00
3.475099e+03,0.000000e+00
3.476063e+03,0.000000e+00
3.477027e+03,0.000000e+00
3.477992e+03,0.000000e+00
3.478956e+03,0.000000e+00
3.479920e+03,0.000000e+00
3.480884e+03,0.000000e+00
3.481849e+03,0.000000e+00
3.482813e+03,0.000000e+00
3.483777e+03,0.000000e+00
3.484741e+03,0.000000e+00
3.485706e+03,0.000000e+00
3.486670e+03,0.000000e+00
3.487634e+03,0.000000e+00
3.488598e+03,0.000000e+00
3.489563e+03,0.000000e+00
3.490527e+03,0.000000e+00
3.491491e+03,0.000000e+00
3.492455e+03,0.000000e+00
3.493419e+03,0.000000e+00
3.494384e+03,0.000000e+00
3.495348e+03,0.000000e+00
3.496312e+03,0.000000e+00
3.497276e+03,0.000000e+00
3.498240e+03,0.000000e+00
3.499205e+03,0.000000e+00
3.500169e+03,0.000000e+00
