9.931763e+01,0.000000e+00
1.002819e+02,0.000000e+00
1.012461e+02,0.000000e+00
1.022103e+02,0.000000e+00
1.031746e+02,0.000000e+00
1.041388e+02,0.000000e+00
1.051030e+02,0.000000e+00
1.060673e+02,0.000000e+00
1.070315e+02,0.000000e+00
1.079957e+02,0.000000e+00
1.089600e+02,0.000000e+00
1.099242e+02,0.000000e+00
1.108884e+02,0.000000e+00
1.118527e+02,0.000000e+00
1.128169e+02,0.000000e+00
1.137811e+02,0.000000e+00
1.147454e+02,0.000000e+00
1.157096e+02,0.000000e+00
1.166738e+02,0.000000e+00
1.176381e+02,0.000000e+00
1.186023e+02,0.000000e+00
1.195665e+02,0.000000e+00
1.205308e+02,0.000000e+00
1.214950e+02,0.000000e+00
1.224592e+02,0.000000e+00
1.234235e+02,0.000000e+00
1.243877e+02,0.000000e+00
1.253519e+02,0.000000e+00
1.263162e+02,0.000000e+00
1.272804e+02,0.000000e+00
1.282446e+02,0.000000e+00
1.292089e+02,0.000000e+00
1.301731e+02,0.000000e+00
1.311373e+02,0.000000e+00
1.321016e+02,0.000000e+00
1.330658e+02,0.000000e+00
1.340300e+02,0.000000e+00
1.349943e+02,0.000000e+00
1.359585e+02,0.000000e+00
1.369227e+02,0.000000e+00
1.378870e+02,0.000000e+00
1.388512e+02,0.000000e+00
1.398154e+02,0.000000e+00
1.407797e+02,0.000000e+00
1.417439e+02,0.000000e+00
1.427081e+02,0.000000e+00
1.436724e+02,0.000000e+00
1.446366e+02,0.000000e+00
1.456008e+02,0.000000e+00
1.465651e+02,0.000000e+00
1.475293e+02,0.000000e+00
1.484935e+02,0.000000e+00
1.494578e+02,0.000000e+00
1.504220e+02,0.000000e+00
1.513862e+02,0.000000e+00
1.523505e+02,0.000000e+00
1.533147e+02,0.000000e+00
1.542789e+02,0.000000e+00
1.552432e+02,0.000000e+00
1.562074e+02,0.000000e+00
1.571716e+02,0.000000e+00
1.581359e+02,0.000000e+00
1.591001e+02,0.000000e+00
1.600643e+02,0.000000e+00
1.610286e+02,0.000000e+00
1.619928e+02,0.000000e+00
1.629570e+02,0.000000e+00
1.639213e+02,0.000000e+00
1.648855e+02,0.000000e+00
1.658497e+02,0.000000e+00
1.668140e+02,0.000000e+00
1.677782e+02,0.000000e+00
1.687424e+02,0.000000e+00
1.697067e+02,0.000000e+00
1.706709e+02,0.000000e+00
1.716351e+02,0.000000e+00
1.725994e+02,0.000000e+00
1.735636e+02,0.000000e+00
1.745278e+02,0.000000e+00
1.754921e+02,0.000000e+00
1.764563e+02,0.000000e+00
1.774205e+02,0.000000e+00
1.783848e+02,0.000000e+00
1.793490e+02,0.000000e+00
1.803132e+02,0.000000e+00
1.812775e+02,0.000000e+00
1.822417e+02,0.000000e+00
1.832059e+02,0.000000e+00
1.841702e+02,0.000000e+00
1.851344e+02,0.000000e+00
1.860986e+02,0.000000e+00
1.870629e+02,0.000000e+00
1.880271e+02,0.000000e+00
1.889913e+02,0.000000e+00
1.899556e+02,0.000000e+00
1.909198e+02,0.000000e+00
1.918840e+02,0.000000e+00
1.928483e+02,0.000000e+00
1.938125e+02,0.000000e+00
1.947767e+02,0.000000e+00
1.957410e+02,0.000000e+00
1.967052e+02,0.000000e+00
1.976694e+02,0.000000e+00
1.986337e+02,0.000000e+00
1.995979e+02,1.046068e+04
2.005621e+02,1.047531e+04
2.015264e+02,1.048996e+04
2.024906e+02,1.050463e+04
2.034548e+02,1.051888e+04
2.044191e+02,1.052996e+04
2.053833e+02,1.053656e+04
2.063475e+02,1.053996e+04
2.073118e+02,1.054298e+04
2.082760e+02,1.054708e+04
2.092402e+02,1.054614e+04
2.102045e+02,1.053988e+04
2.111687e+02,1.053573e+04
2.121329e+02,1.053789e+04
2.130972e+02,1.054647e+04
2.140614e+02,1.055777e+04
2.150256e+02,1.056710e+04
2.159899e+02,1.057452e+04
2.169541e+02,1.058235e+04
2.179183e+02,1.059342e+04
2.188826e+02,1.060614e+04
2.198468e+02,1.061867e+04
2.208110e+02,1.062956e+04
2.217753e+02,1.063746e+04
2.227395e+02,1.064081e+04
2.237037e+02,1.064362e+04
2.246680e+02,1.064604e+04
2.256322e+02,1.064557e+04
2.265964e+02,1.064326e+04
2.275607e+02,1.064374e+04
2.285249e+02,1.065219e+04
2.294892e+02,1.066999e+04
2.304534e+02,1.069033e+04
2.314176e+02,1.070260e+04
2.323819e+02,1.070682e+04
2.333461e+02,1.071157e+04
2.343103e+02,1.072281e+04
2.352746e+02,1.073854e+04
2.362388e+02,1.075264e+04
2.372030e+02,1.076129e+04
2.381673e+02,1.076232e+04
2.391315e+02,1.075920e+04
2.400957e+02,1.075846e+04
2.410600e+02,1.075625e+04
2.420242e+02,1.075090e+04
2.429884e+02,1.074622e+04
2.439527e+02,1.074824e+04
2.449169e+02,1.075814e+04
2.458811e+02,1.077508e+04
2.468454e+02,1.078934e+04
2.478096e+02,1.080055e+04
2.487738e+02,1.080992e+04
2.497381e+02,1.081691e+04
2.507023e+02,1.082180e+04
2.516665e+02,1.082725e+04
2.526308e+02,1.083674e+04
2.535950e+02,1.085177e+04
2.545592e+02,1.085959e+04
2.555235e+02,1.085900e+04
2.564877e+02,1.085445e+04
2.574519e+02,1.085189e+04
2.584161e+02,1.085604e+04
2.593804e+02,1.086805e+04
2.603446e+02,1.088299e+04
2.613088e+02,1.089771e+04
2.622731e+02,1.091212e+04
2.632373e+02,1.092637e+04
2.642015e+02,1.093787e+04
2.651658e+02,1.094494e+04
2.661300e+02,1.094810e+04
2.670942e+02,1.094985e+04
2.680585e+02,1.095431e+04
2.690227e+02,1.096603e+04
2.699869e+02,1.097820e+04
2.709512e+02,1.098500e+04
2.719154e+02,1.098731e+04
2.728796e+02,1.098796e+04
2.738439e+02,1.098885e+04
2.748081e+02,1.099130e+04
2.757723e+02,1.100199e+04
2.767366e+02,1.102100e+04
2.777008e+02,1.104128e+04
2.786650e+02,1.105413e+04
2.796293e+02,1.105535e+04
2.805935e+02,1.105241e+04
2.815577e+02,1.105594e+04
2.825220e+02,1.106810e+04
2.834862e+02,1.108241e+04
2.844504e+02,1.108944e+04
2.854147e+02,1.109121e+04
2.863789e+02,1.108991e+04
2.873431e+02,1.108598e+04
2.883074e+02,1.108308e+04
2.892716e+02,1.108558e+04
2.902358e+02,1.109483e+04
2.912001e+02,1.110945e+04
2.921643e+02,1.111553e+04
2.931285e+02,1.110668e+04
2.940928e+02,1.110071e+04
2.950570e+02,1.110579e+04
2.960212e+02,1.111931e+04
2.969855e+02,1.113246e+04
2.979497e+02,1.113679e+04
2.989139e+02,1.113007e+04
2.998782e+02,1.112646e+04
3.008424e+02,1.113450e+04
3.018066e+02,1.114798e+04
3.027709e+02,1.115879e+04
3.037351e+02,1.116201e+04
3.046993e+02,1.115946e+04
3.056636e+02,1.115642e+04
3.066278e+02,1.115394e+04
3.075920e+02,1.115413e+04
3.085563e+02,1.115852e+04
3.095205e+02,1.116830e+04
3.104847e+02,1.118139e+04
3.114490e+02,1.119463e+04
3.124132e+02,1.120627e+04
3.133774e+02,1.121661e+04
3.143417e+02,1.122608e+04
3.153059e+02,1.122941e+04
3.162701e+02,1.122219e+04
3.172344e+02,1.120315e+04
3.181986e+02,1.118896e+04
3.191628e+02,1.118644e+04
3.201271e+02,1.119304e+04
3.210913e+02,1.120378e+04
3.220555e+02,1.121640e+04
3.230198e+02,1.122945e+04
3.239840e+02,1.123854e+04
3.249482e+02,1.123697e+04
3.259125e+02,1.123687e+04
3.268767e+02,1.124451e+04
3.278409e+02,1.125805e+04
3.288052e+02,1.127097e+04
3.297694e+02,1.127661e+04
3.307336e+02,1.127300e+04
3.316979e+02,1.127140e+04
3.326621e+02,1.127479e+04
3.336263e+02,1.127577e+04
3.345906e+02,1.127108e+04
3.355548e+02,1.126309e+04
3.365190e+02,1.125814e+04
3.374833e+02,1.126189e+04
3.384475e+02,1.127425e+04
3.394117e+02,1.128711e+04
3.403760e+02,1.129158e+04
3.413402e+02,1.129233e+04
3.423044e+02,1.129920e+04
3.432687e+02,1.131942e+04
3.442329e+02,1.134186e+04
3.451971e+02,1.135348e+04
3.461614e+02,1.135104e+04
3.471256e+02,1.134157e+04
3.480898e+02,1.133505e+04
3.490541e+02,1.133683e+04
3.500183e+02,1.133720e+04
3.509825e+02,1.133759e+04
3.519468e+02,1.134118e+04
3.529110e+02,1.134804e+04
3.538752e+02,1.135601e+04
3.548395e+02,1.136341e+04
3.558037e+02,1.137112e+04
3.567680e+02,1.138192e+04
3.577322e+02,1.138898e+04
3.586964e+02,1.139466e+04
3.596607e+02,1.140063e+04
3.606249e+02,1.140491e+04
3.615891e+02,1.140025e+04
3.625534e+02,1.138781e+04
3.635176e+02,1.138010e+04
3.644818e+02,1.138434e+04
3.654461e+02,1.138879e+04
3.664103e+02,1.138922e+04
3.673745e+02,1.139163e+04
3.683388e+02,1.140062e+04
3.693030e+02,1.141527e+04
3.702672e+02,1.143007e+04
3.712315e+02,1.143912e+04
3.721957e+02,1.143995e+04
3.731599e+02,1.143457e+04
3.741242e+02,1.142997e+04
3.750884e+02,1.143511e+04
3.760526e+02,1.144206e+04
3.770169e+02,1.144871e+04
3.779811e+02,1.145458e+04
3.789453e+02,1.145900e+04
3.799096e+02,1.146090e+04
3.808738e+02,1.145945e+04
3.818380e+02,1.145459e+04
3.828023e+02,1.144772e+04
3.837665e+02,1.144619e+04
3.847307e+02,1.145131e+04
3.856950e+02,1.146126e+04
3.866592e+02,1.147140e+04
3.876234e+02,1.147635e+04
3.885877e+02,1.147841e+04
3.895519e+02,1.148676e+04
3.905161e+02,1.150438e+04
3.914804e+02,1.152003e+04
3.924446e+02,1.152143e+04
3.934088e+02,1.150923e+04
3.943731e+02,1.149663e+04
3.953373e+02,1.148423e+04
3.963015e+02,1.147314e+04
3.972658e+02,1.146573e+04
3.982300e+02,1.146443e+04
3.991942e+02,1.147088e+04
4.001585e+02,1.148031e+04
4.011227e+02,1.148889e+04
4.020869e+02,1.149636e+04
4.030512e+02,1.149747e+04
4.040154e+02,1.149350e+04
4.049796e+02,1.149026e+04
4.059439e+02,1.149157e+04
4.069081e+02,1.149564e+04
4.078723e+02,1.149717e+04
4.088366e+02,1.149394e+04
4.098008e+02,1.148322e+04
4.107650e+02,1.146593e+04
4.117293e+02,1.144403e+04
4.126935e+02,1.142872e+04
4.136577e+02,1.142729e+04
4.146220e+02,1.143337e+04
4.155862e+02,1.143851e+04
4.165504e+02,1.144132e+04
4.175147e+02,1.144318e+04
4.184789e+02,1.144556e+04
4.194431e+02,1.144654e+04
4.204074e+02,1.144958e+04
4.213716e+02,1.146029e+04
4.223358e+02,1.147075e+04
4.233001e+02,1.147171e+04
4.242643e+02,1.145873e+04
4.252285e+02,1.143858e+04
4.261928e+02,1.142486e+04
4.271570e+02,1.141947e+04
4.281212e+02,1.141931e+04
4.290855e+02,1.142452e+04
4.300497e+02,1.143165e+04
4.310139e+02,1.143499e+04
4.319782e+02,1.143023e+04
4.329424e+02,1.142492e+04
4.339066e+02,1.142759e+04
4.348709e+02,1.143759e+04
4.358351e+02,1.144650e+04
4.367993e+02,1.144657e+04
4.377636e+02,1.143415e+04
4.387278e+02,1.142386e+04
4.396920e+02,1.141891e+04
4.406563e+02,1.141680e+04
4.416205e+02,1.141517e+04
4.425847e+02,1.141273e+04
4.435490e+02,1.140854e+04
4.445132e+02,1.140102e+04
4.454774e+02,1.139025e+04
4.464417e+02,1.138476e+04
4.474059e+02,1.138797e+04
4.483701e+02,1.139340e+04
4.493344e+02,1.139522e+04
4.502986e+02,1.139371e+04
4.512628e+02,1.139185e+04
4.522271e+02,1.138972e+04
4.531913e+02,1.138796e+04
4.541555e+02,1.139014e+04
4.551198e+02,1.139951e+04
4.560840e+02,1.141667e+04
4.570482e+02,1.142018e+04
4.580125e+02,1.140338e+04
4.589767e+02,1.138966e+04
4.599409e+02,1.138323e+04
4.609052e+02,1.138083e+04
4.618694e+02,1.137839e+04
4.628336e+02,1.137576e+04
4.637979e+02,1.137338e+04
4.647621e+02,1.136734e+04
4.657263e+02,1.135757e+04
4.666906e+02,1.135176e+04
4.676548e+02,1.135363e+04
4.686190e+02,1.136350e+04
4.695833e+02,1.137133e+04
4.705475e+02,1.137289e+04
4.715117e+02,1.136917e+04
4.724760e+02,1.136162e+04
4.734402e+02,1.135114e+04
4.744044e+02,1.134072e+04
4.753687e+02,1.133688e+04
4.763329e+02,1.134835e+04
4.772971e+02,1.135336e+04
4.782614e+02,1.134342e+04
4.792256e+02,1.132822e+04
4.801898e+02,1.131909e+04
4.811541e+02,1.132188e+04
4.821183e+02,1.132915e+04
4.830826e+02,1.132936e+04
4.840468e+02,1.132102e+04
4.850110e+02,1.131423e+04
4.859753e+02,1.131906e+04
4.869395e+02,1.133591e+04
4.879037e+02,1.134014e+04
4.888680e+02,1.132458e+04
4.898322e+02,1.130546e+04
4.907964e+02,1.128932e+04
4.917607e+02,1.127828e+04
4.927249e+02,1.127359e+04
4.936891e+02,1.127815e+04
4.946534e+02,1.129230e+04
4.956176e+02,1.130336e+04
4.965818e+02,1.131076e+04
4.975461e+02,1.131587e+04
4.985103e+02,1.131962e+04
4.994745e+02,1.132073e+04
5.004388e+02,1.131448e+04
5.014030e+02,1.129309e+04
5.023672e+02,1.126784e+04
5.033315e+02,1.125849e+04
5.042957e+02,1.127180e+04
5.052599e+02,1.129443e+04
5.062242e+02,1.129990e+04
5.071884e+02,1.127604e+04
5.081526e+02,1.125781e+04
5.091169e+02,1.125756e+04
5.100811e+02,1.126498e+04
5.110453e+02,1.126494e+04
5.120095e+02,1.124681e+04
5.129738e+02,1.122736e+04
5.139380e+02,1.123136e+04
5.149022e+02,1.125875e+04
5.158665e+02,1.128380e+04
5.168307e+02,1.128820e+04
5.177949e+02,1.126696e+04
5.187592e+02,1.124586e+04
5.197234e+02,1.123879e+04
5.206876e+02,1.123577e+04
5.216519e+02,1.123295e+04
5.226161e+02,1.123120e+04
5.235803e+02,1.123181e+04
5.245446e+02,1.123815e+04
5.255088e+02,1.124844e+04
5.264730e+02,1.124977e+04
5.274373e+02,1.123810e+04
5.284015e+02,1.122363e+04
5.293657e+02,1.121369e+04
5.303300e+02,1.120961e+04
5.312942e+02,1.120186e+04
5.322584e+02,1.119150e+04
5.332227e+02,1.118306e+04
5.341869e+02,1.117666e+04
5.351511e+02,1.117056e+04
5.361154e+02,1.116600e+04
5.370796e+02,1.116920e+04
5.380438e+02,1.118579e+04
5.390081e+02,1.119367e+04
5.399723e+02,1.118173e+04
5.409365e+02,1.116676e+04
5.419008e+02,1.116189e+04
5.428650e+02,1.116944e+04
5.438292e+02,1.117691e+04
5.447935e+02,1.117775e+04
5.457577e+02,1.117433e+04
5.467219e+02,1.117234e+04
5.476862e+02,1.117487e+04
5.486504e+02,1.117884e+04
5.496146e+02,1.117538e+04
5.505789e+02,1.115736e+04
5.515431e+02,1.114170e+04
5.525073e+02,1.114162e+04
5.534716e+02,1.115117e+04
5.544358e+02,1.115553e+04
5.554000e+02,1.113503e+04
5.563643e+02,1.111024e+04
5.573285e+02,1.110283e+04
5.582927e+02,1.110997e+04
5.592570e+02,1.112083e+04
5.602212e+02,1.113188e+04
5.611854e+02,1.114210e+04
5.621497e+02,1.114464e+04
5.631139e+02,1.112447e+04
5.640781e+02,1.110486e+04
5.650424e+02,1.109828e+04
5.660066e+02,1.110295e+04
5.669708e+02,1.110797e+04
5.679351e+02,1.111093e+04
5.688993e+02,1.111167e+04
5.698635e+02,1.110683e+04
5.708278e+02,1.109674e+04
5.717920e+02,1.109029e+04
5.727562e+02,1.109392e+04
5.737205e+02,1.110999e+04
5.746847e+02,1.111837e+04
5.756489e+02,1.111253e+04
5.766132e+02,1.110226e+04
5.775774e+02,1.109282e+04
5.785416e+02,1.108560e+04
5.795059e+02,1.108107e+04
5.804701e+02,1.108303e+04
5.814343e+02,1.108838e+04
5.823986e+02,1.108668e+04
5.833628e+02,1.107574e+04
5.843270e+02,1.106135e+04
5.852913e+02,1.105017e+04
5.862555e+02,1.104171e+04
5.872197e+02,1.103777e+04
5.881840e+02,1.104187e+04
5.891482e+02,1.104607e+04
5.901124e+02,1.104249e+04
5.910767e+02,1.102760e+04
5.920409e+02,1.101357e+04
5.930051e+02,1.101514e+04
5.939694e+02,1.102831e+04
5.949336e+02,1.103472e+04
5.958978e+02,1.102777e+04
5.968621e+02,1.101305e+04
5.978263e+02,1.100426e+04
5.987905e+02,1.101197e+04
5.997548e+02,1.101669e+04
6.007190e+02,1.101185e+04
6.016832e+02,1.100723e+04
6.026475e+02,1.101397e+04
6.036117e+02,1.104065e+04
6.045759e+02,1.106658e+04
6.055402e+02,1.106188e+04
6.065044e+02,1.102859e+04
6.074686e+02,1.099830e+04
6.084329e+02,1.098858e+04
6.093971e+02,1.099520e+04
6.103613e+02,1.099174e+04
6.113256e+02,1.096258e+04
6.122899e+02,1.094116e+04
6.132541e+02,1.093886e+04
6.142183e+02,1.094708e+04
6.151826e+02,1.095176e+04
6.161468e+02,1.094683e+04
6.171110e+02,1.093983e+04
6.180753e+02,1.093751e+04
6.190395e+02,1.093850e+04
6.200037e+02,1.093906e+04
6.209680e+02,1.093586e+04
6.219322e+02,1.093082e+04
6.228964e+02,1.093243e+04
6.238607e+02,1.094761e+04
6.248249e+02,1.096033e+04
6.257891e+02,1.096142e+04
6.267534e+02,1.095108e+04
6.277176e+02,1.093844e+04
6.286818e+02,1.092926e+04
6.296461e+02,1.092452e+04
6.306103e+02,1.092656e+04
6.315745e+02,1.093500e+04
6.325388e+02,1.094255e+04
6.335030e+02,1.094119e+04
6.344672e+02,1.092889e+04
6.354315e+02,1.091768e+04
6.363957e+02,1.090464e+04
6.373599e+02,1.089068e+04
6.383242e+02,1.087902e+04
6.392884e+02,1.087083e+04
6.402526e+02,1.086418e+04
6.412169e+02,1.086265e+04
6.421811e+02,1.085902e+04
6.431453e+02,1.084144e+04
6.441096e+02,1.081179e+04
6.450738e+02,1.078688e+04
6.460380e+02,1.078825e+04
6.470023e+02,1.081906e+04
6.479665e+02,1.083984e+04
6.489307e+02,1.084222e+04
6.498950e+02,1.083999e+04
6.508592e+02,1.084354e+04
6.518234e+02,1.085248e+04
6.527877e+02,1.085508e+04
6.537519e+02,1.084932e+04
6.547161e+02,1.083855e+04
6.556804e+02,1.082258e+04
6.566446e+02,1.080327e+04
6.576088e+02,1.078714e+04
6.585731e+02,1.078128e+04
6.595373e+02,1.078411e+04
6.605015e+02,1.078772e+04
6.614658e+02,1.079288e+04
6.624300e+02,1.079522e+04
6.633942e+02,1.078884e+04
6.643585e+02,1.076442e+04
6.653227e+02,1.075413e+04
6.662869e+02,1.076803e+04
6.672512e+02,1.078484e+04
6.682154e+02,1.079080e+04
6.691796e+02,1.078283e+04
6.701439e+02,1.077263e+04
6.711081e+02,1.077044e+04
6.720723e+02,1.077225e+04
6.730366e+02,1.077107e+04
6.740008e+02,1.076701e+04
6.749650e+02,1.076043e+04
6.759293e+02,1.075198e+04
6.768935e+02,1.074383e+04
6.778577e+02,1.073191e+04
6.788220e+02,1.071262e+04
6.797862e+02,1.069847e+04
6.807504e+02,1.069359e+04
6.817147e+02,1.069603e+04
6.826789e+02,1.070219e+04
6.836431e+02,1.071343e+04
6.846074e+02,1.072216e+04
6.855716e+02,1.072296e+04
6.865358e+02,1.071672e+04
6.875001e+02,1.070690e+04
6.884643e+02,1.069431e+04
6.894285e+02,1.067945e+04
6.903928e+02,1.067144e+04
6.913570e+02,1.067249e+04
6.923212e+02,1.067560e+04
6.932855e+02,1.067421e+04
6.942497e+02,1.066700e+04
6.952139e+02,1.066760e+04
6.961782e+02,1.068400e+04
6.971424e+02,1.070043e+04
6.981066e+02,1.070147e+04
6.990709e+02,1.068029e+04
7.000351e+02,1.065234e+04
7.009993e+02,1.063092e+04
7.019636e+02,1.061924e+04
7.029278e+02,1.062231e+04
7.038920e+02,1.064102e+04
7.048563e+02,1.065768e+04
7.058205e+02,1.064992e+04
7.067847e+02,1.061069e+04
7.077490e+02,1.058673e+04
7.087132e+02,1.059322e+04
7.096774e+02,1.061337e+04
7.106417e+02,1.062602e+04
7.116059e+02,1.062831e+04
7.125701e+02,1.062467e+04
7.135344e+02,1.061171e+04
7.144986e+02,1.059986e+04
7.154628e+02,1.059802e+04
7.164271e+02,1.060604e+04
7.173913e+02,1.061493e+04
7.183555e+02,1.061645e+04
7.193198e+02,1.061113e+04
7.202840e+02,1.060397e+04
7.212482e+02,1.059712e+04
7.222125e+02,1.058994e+04
7.231767e+02,1.057911e+04
7.241409e+02,1.055739e+04
7.251052e+02,1.054359e+04
7.260694e+02,1.054282e+04
7.270336e+02,1.054477e+04
7.279979e+02,1.054600e+04
7.289621e+02,1.054575e+04
7.299263e+02,1.054803e+04
7.308906e+02,1.055863e+04
7.318548e+02,1.056837e+04
7.328190e+02,1.056878e+04
7.337833e+02,1.055911e+04
7.347475e+02,1.054300e+04
7.357117e+02,1.052157e+04
7.366760e+02,1.049796e+04
7.376402e+02,1.048968e+04
7.386044e+02,1.050248e+04
7.395687e+02,1.051820e+04
7.405329e+02,1.051933e+04
7.414971e+02,1.050095e+04
7.424614e+02,1.048580e+04
7.434256e+02,1.047673e+04
7.443898e+02,1.047874e+04
7.453541e+02,1.049547e+04
7.463183e+02,1.051941e+04
7.472825e+02,1.053178e+04
7.482468e+02,1.051700e+04
7.492110e+02,1.049228e+04
7.501752e+02,1.047966e+04
7.511395e+02,1.048317e+04
7.521037e+02,1.049294e+04
7.530679e+02,1.049965e+04
7.540322e+02,1.050008e+04
7.549964e+02,1.048714e+04
7.559606e+02,1.045837e+04
7.569249e+02,1.043336e+04
7.578891e+02,1.042586e+04
7.588533e+02,1.043803e+04
7.598176e+02,1.044822e+04
7.607818e+02,1.044637e+04
7.617460e+02,1.043570e+04
7.627103e+02,1.041712e+04
7.636745e+02,1.039779e+04
7.646387e+02,1.038667e+04
7.656030e+02,1.038940e+04
7.665672e+02,1.039916e+04
7.675314e+02,1.040851e+04
7.684957e+02,1.041081e+04
7.694599e+02,1.040298e+04
7.704241e+02,1.038635e+04
7.713884e+02,1.036924e+04
7.723526e+02,1.036818e+04
7.733168e+02,1.038740e+04
7.742811e+02,1.040782e+04
7.752453e+02,1.041501e+04
7.762095e+02,1.040788e+04
7.771738e+02,1.040032e+04
7.781380e+02,1.038328e+04
7.791022e+02,1.036919e+04
7.800665e+02,1.037096e+04
7.810307e+02,1.037992e+04
7.819949e+02,1.038064e+04
7.829592e+02,1.036828e+04
7.839234e+02,1.035522e+04
7.848876e+02,1.034362e+04
7.858519e+02,1.033265e+04
7.868161e+02,1.032200e+04
7.877803e+02,1.031082e+04
7.887446e+02,1.030187e+04
7.897088e+02,1.030497e+04
7.906730e+02,1.032161e+04
7.916373e+02,1.033602e+04
7.926015e+02,1.033757e+04
7.935657e+02,1.032668e+04
7.945300e+02,1.031766e+04
7.954942e+02,1.031770e+04
7.964584e+02,1.031241e+04
7.974227e+02,1.030810e+04
7.983869e+02,1.030854e+04
7.993511e+02,1.030573e+04
8.003154e+02,1.028813e+04
8.012796e+02,1.026958e+04
8.022438e+02,1.025252e+04
8.032081e+02,1.024367e+04
8.041723e+02,1.025130e+04
8.051365e+02,1.027631e+04
8.061008e+02,1.029924e+04
8.070650e+02,1.030568e+04
8.080292e+02,1.029674e+04
8.089935e+02,1.027379e+04
8.099577e+02,1.024067e+04
8.109219e+02,1.021318e+04
8.118862e+02,1.021159e+04
8.128504e+02,1.023468e+04
8.138146e+02,1.024385e+04
8.147789e+02,1.023216e+04
8.157431e+02,1.021517e+04
8.167073e+02,1.020831e+04
8.176716e+02,1.021962e+04
8.186358e+02,1.022684e+04
8.196000e+02,1.022207e+04
8.205643e+02,1.021912e+04
8.215285e+02,1.022035e+04
8.224927e+02,1.022455e+04
8.234570e+02,1.022649e+04
8.244212e+02,1.022519e+04
8.253854e+02,1.022175e+04
8.263497e+02,1.021354e+04
8.273139e+02,1.019921e+04
8.282781e+02,1.018221e+04
8.292424e+02,1.016741e+04
8.302066e+02,1.015803e+04
8.311708e+02,1.015642e+04
8.321351e+02,1.016130e+04
8.330993e+02,1.016661e+04
8.340635e+02,1.016740e+04
8.350278e+02,1.016393e+04
8.359920e+02,1.015919e+04
8.369562e+02,1.015268e+04
8.379205e+02,1.015010e+04
8.388847e+02,1.015544e+04
8.398489e+02,1.016499e+04
8.408132e+02,1.016747e+04
8.417774e+02,1.015496e+04
8.427416e+02,1.014309e+04
8.437059e+02,1.013413e+04
8.446701e+02,1.012661e+04
8.456343e+02,1.011897e+04
8.465986e+02,1.010579e+04
8.475628e+02,1.010035e+04
8.485270e+02,1.011657e+04
8.494913e+02,1.013738e+04
8.504555e+02,1.014609e+04
8.514197e+02,1.013979e+04
8.523840e+02,1.012947e+04
8.533482e+02,1.012075e+04
8.543124e+02,1.011179e+04
8.552767e+02,1.010055e+04
8.562409e+02,1.008611e+04
8.572051e+02,1.007028e+04
8.581694e+02,1.005608e+04
8.591336e+02,1.004513e+04
8.600978e+02,1.004054e+04
8.610621e+02,1.004454e+04
8.620263e+02,1.005453e+04
8.629905e+02,1.006742e+04
8.639548e+02,1.008014e+04
8.649190e+02,1.008295e+04
8.658832e+02,1.007642e+04
8.668475e+02,1.006895e+04
8.678117e+02,1.006252e+04
8.687759e+02,1.005624e+04
8.697402e+02,1.005269e+04
8.707044e+02,1.005235e+04
8.716686e+02,1.004361e+04
8.726329e+02,1.002312e+04
8.735971e+02,9.998981e+03
8.745613e+02,9.981965e+03
8.755256e+02,9.984138e+03
8.764898e+02,9.991502e+03
8.774540e+02,9.989926e+03
8.784183e+02,9.984088e+03
8.793825e+02,9.985092e+03
8.803467e+02,9.998502e+03
8.813110e+02,1.001227e+04
8.822752e+02,1.001053e+04
8.832394e+02,9.999443e+03
8.842037e+02,9.993842e+03
8.851679e+02,9.994834e+03
8.861321e+02,9.996819e+03
8.870964e+02,9.994906e+03
8.880606e+02,9.988313e+03
8.890248e+02,9.977707e+03
8.899891e+02,9.966234e+03
8.909533e+02,9.956431e+03
8.919175e+02,9.948534e+03
8.928818e+02,9.942937e+03
8.938460e+02,9.935989e+03
8.948102e+02,9.918379e+03
8.957745e+02,9.904469e+03
8.967387e+02,9.907956e+03
8.977029e+02,9.925588e+03
8.986672e+02,9.932316e+03
8.996314e+02,9.924562e+03
9.005956e+02,9.918213e+03
9.015599e+02,9.919691e+03
9.025241e+02,9.924767e+03
9.034883e+02,9.925410e+03
9.044526e+02,9.912630e+03
9.054168e+02,9.895410e+03
9.063810e+02,9.888331e+03
9.073453e+02,9.890405e+03
9.083095e+02,9.889339e+03
9.092737e+02,9.873354e+03
9.102380e+02,9.855478e+03
9.112022e+02,9.853940e+03
9.121664e+02,9.862509e+03
9.131307e+02,9.868054e+03
9.140949e+02,9.870101e+03
9.150591e+02,9.874660e+03
9.160234e+02,9.885028e+03
9.169876e+02,9.894649e+03
9.179518e+02,9.891772e+03
9.189161e+02,9.874546e+03
9.198803e+02,9.848661e+03
9.208445e+02,9.819576e+03
9.218088e+02,9.788122e+03
9.227730e+02,9.776780e+03
9.237372e+02,9.790834e+03
9.247015e+02,9.806940e+03
9.256657e+02,9.809325e+03
9.266299e+02,9.796482e+03
9.275942e+02,9.792157e+03
9.285584e+02,9.800847e+03
9.295226e+02,9.808343e+03
9.304869e+02,9.811861e+03
9.314511e+02,9.813085e+03
9.324153e+02,9.812450e+03
9.333796e+02,9.807017e+03
9.343438e+02,9.802406e+03
9.353080e+02,9.800518e+03
9.362723e+02,9.795346e+03
9.372365e+02,9.782107e+03
9.382007e+02,9.758854e+03
9.391650e+02,9.743091e+03
9.401292e+02,9.746038e+03
9.410934e+02,9.757634e+03
9.420577e+02,9.765491e+03
9.430219e+02,9.765728e+03
9.439861e+02,9.758900e+03
9.449504e+02,9.741022e+03
9.459146e+02,9.726345e+03
9.468788e+02,9.732746e+03
9.478431e+02,9.754717e+03
9.488073e+02,9.769371e+03
9.497715e+02,9.758878e+03
9.507358e+02,9.734161e+03
9.517000e+02,9.716947e+03
9.526642e+02,9.710216e+03
9.536285e+02,9.706728e+03
9.545927e+02,9.700838e+03
9.555569e+02,9.692138e+03
9.565212e+02,9.676504e+03
9.574854e+02,9.656712e+03
9.584496e+02,9.652518e+03
9.594139e+02,9.670327e+03
9.603781e+02,9.698018e+03
9.613423e+02,9.713356e+03
9.623066e+02,9.716721e+03
9.632708e+02,9.706395e+03
9.642350e+02,9.677121e+03
9.651993e+02,9.646614e+03
9.661635e+02,9.637915e+03
9.671277e+02,9.662996e+03
9.680920e+02,9.671870e+03
9.690562e+02,9.653795e+03
9.700204e+02,9.628875e+03
9.709847e+02,9.615776e+03
9.719489e+02,9.620754e+03
9.729131e+02,9.620666e+03
9.738774e+02,9.612116e+03
9.748416e+02,9.606806e+03
9.758058e+02,9.605296e+03
9.767701e+02,9.605034e+03
9.777343e+02,9.607154e+03
9.786985e+02,9.616913e+03
9.796628e+02,9.621046e+03
9.806270e+02,9.613544e+03
9.815912e+02,9.599050e+03
9.825555e+02,9.586174e+03
9.835197e+02,9.584743e+03
9.844839e+02,9.583091e+03
9.854482e+02,9.575510e+03
9.864124e+02,9.567338e+03
9.873766e+02,9.562580e+03
9.883409e+02,9.563588e+03
9.893051e+02,9.564462e+03
9.902693e+02,9.557076e+03
9.912336e+02,9.551137e+03
9.921978e+02,9.556558e+03
9.931620e+02,9.570188e+03
9.941263e+02,9.579595e+03
9.950905e+02,9.577382e+03
9.960547e+02,9.567715e+03
9.970190e+02,9.550774e+03
9.979832e+02,9.528692e+03
9.989474e+02,9.512140e+03
9.999117e+02,9.514491e+03
1.000876e+03,9.525002e+03
1.001840e+03,9.524755e+03
1.002804e+03,9.518960e+03
1.003769e+03,9.517171e+03
1.004733e+03,9.520099e+03
1.005697e+03,9.525786e+03
1.006661e+03,9.537937e+03
1.007626e+03,9.553825e+03
1.008590e+03,9.554489e+03
1.009554e+03,9.533652e+03
1.010518e+03,9.507615e+03
1.011482e+03,9.502260e+03
1.012447e+03,9.513029e+03
1.013411e+03,9.499803e+03
1.014375e+03,9.463718e+03
1.015339e+03,9.434595e+03
1.016304e+03,9.432440e+03
1.017268e+03,9.451006e+03
1.018232e+03,9.458428e+03
1.019196e+03,9.451926e+03
1.020161e+03,9.445506e+03
1.021125e+03,9.446561e+03
1.022089e+03,9.455144e+03
1.023053e+03,9.466693e+03
1.024018e+03,9.480647e+03
1.024982e+03,9.480146e+03
1.025946e+03,9.454766e+03
1.026910e+03,9.419583e+03
1.027875e+03,9.400130e+03
1.028839e+03,9.405560e+03
1.029803e+03,9.412507e+03
1.030767e+03,9.421435e+03
1.031731e+03,9.431584e+03
1.032696e+03,9.441473e+03
1.033660e+03,9.450381e+03
1.034624e+03,9.453229e+03
1.035588e+03,9.452543e+03
1.036552e+03,9.447646e+03
1.037517e+03,9.431215e+03
1.038481e+03,9.406118e+03
1.039445e+03,9.394214e+03
1.040409e+03,9.407822e+03
1.041374e+03,9.414771e+03
1.042338e+03,9.407331e+03
1.043302e+03,9.396435e+03
1.044266e+03,9.394622e+03
1.045231e+03,9.412718e+03
1.046195e+03,9.417604e+03
1.047159e+03,9.404666e+03
1.048123e+03,9.386354e+03
1.049088e+03,9.368739e+03
1.050052e+03,9.353958e+03
1.051016e+03,9.347297e+03
1.051980e+03,9.348746e+03
1.052945e+03,9.356065e+03
1.053909e+03,9.368785e+03
1.054873e+03,9.380321e+03
1.055837e+03,9.382740e+03
1.056802e+03,9.373707e+03
1.057766e+03,9.364649e+03
1.058730e+03,9.360698e+03
1.059694e+03,9.358772e+03
1.060658e+03,9.352959e+03
1.061623e+03,9.340960e+03
1.062587e+03,9.333459e+03
1.063551e+03,9.337044e+03
1.064515e+03,9.342346e+03
1.065479e+03,9.340069e+03
1.066444e+03,9.330884e+03
1.067408e+03,9.325785e+03
1.068372e+03,9.327511e+03
1.069336e+03,9.332283e+03
1.070301e+03,9.334949e+03
1.071265e+03,9.333767e+03
1.072229e+03,9.331669e+03
1.073193e+03,9.331707e+03
1.074158e+03,9.327434e+03
1.075122e+03,9.315490e+03
1.076086e+03,9.299534e+03
1.077050e+03,9.285139e+03
1.078015e+03,9.276452e+03
1.078979e+03,9.276651e+03
1.079943e+03,9.289996e+03
1.080907e+03,9.306554e+03
1.081872e+03,9.316731e+03
1.082836e+03,9.317210e+03
1.083800e+03,9.315990e+03
1.084764e+03,9.318143e+03
1.085729e+03,9.320463e+03
1.086693e+03,9.316892e+03
1.087657e+03,9.310412e+03
1.088621e+03,9.311056e+03
1.089585e+03,9.338260e+03
1.090550e+03,9.346963e+03
1.091514e+03,9.316541e+03
1.092478e+03,9.274451e+03
1.093442e+03,9.248741e+03
1.094406e+03,9.248502e+03
1.095371e+03,9.251625e+03
1.096335e+03,9.250944e+03
1.097299e+03,9.250941e+03
1.098263e+03,9.256837e+03
1.099228e+03,9.267142e+03
1.100192e+03,9.270736e+03
1.101156e+03,9.260003e+03
1.102120e+03,9.246597e+03
1.103085e+03,9.233943e+03
1.104049e+03,9.222991e+03
1.105013e+03,9.215085e+03
1.105977e+03,9.215654e+03
1.106942e+03,9.214090e+03
1.107906e+03,9.206155e+03
1.108870e+03,9.198058e+03
1.109834e+03,9.195662e+03
1.110799e+03,9.201463e+03
1.111763e+03,9.205325e+03
1.112727e+03,9.205938e+03
1.113691e+03,9.207418e+03
1.114656e+03,9.209174e+03
1.115620e+03,9.211630e+03
1.116584e+03,9.218116e+03
1.117548e+03,9.231080e+03
1.118512e+03,9.237712e+03
1.119477e+03,9.235484e+03
1.120441e+03,9.226072e+03
1.121405e+03,9.213150e+03
1.122369e+03,9.193844e+03
1.123334e+03,9.176342e+03
1.124298e+03,9.161974e+03
1.125262e+03,9.151386e+03
1.126226e+03,9.145361e+03
1.127191e+03,9.144661e+03
1.128155e+03,9.148214e+03
1.129119e+03,9.154530e+03
1.130083e+03,9.162743e+03
1.131047e+03,9.173106e+03
1.132012e+03,9.182440e+03
1.132976e+03,9.187412e+03
1.133940e+03,9.189160e+03
1.134904e+03,9.182646e+03
1.135869e+03,9.165656e+03
1.136833e+03,9.147346e+03
1.137797e+03,9.138459e+03
1.138761e+03,9.146304e+03
1.139726e+03,9.146188e+03
1.140690e+03,9.131618e+03
1.141654e+03,9.118787e+03
1.142618e+03,9.117640e+03
1.143583e+03,9.126793e+03
1.144547e+03,9.130060e+03
1.145511e+03,9.125434e+03
1.146475e+03,9.120901e+03
1.147439e+03,9.117364e+03
1.148404e+03,9.117658e+03
1.149368e+03,9.126411e+03
1.150332e+03,9.144311e+03
1.151296e+03,9.150937e+03
1.152261e+03,9.138846e+03
1.153225e+03,9.115520e+03
1.154189e+03,9.091356e+03
1.155153e+03,9.070846e+03
1.156118e+03,9.063325e+03
1.157082e+03,9.072083e+03
1.158046e+03,9.081740e+03
1.159010e+03,9.081269e+03
1.159974e+03,9.075891e+03
1.160939e+03,9.075970e+03
1.161903e+03,9.079475e+03
1.162867e+03,9.088402e+03
1.163831e+03,9.103212e+03
1.164796e+03,9.111747e+03
1.165760e+03,9.099675e+03
1.166724e+03,9.075400e+03
1.167688e+03,9.056027e+03
1.168653e+03,9.042595e+03
1.169617e+03,9.034369e+03
1.170581e+03,9.035375e+03
1.171545e+03,9.038781e+03
1.172510e+03,9.029775e+03
1.173474e+03,9.015710e+03
1.174438e+03,9.012753e+03
1.175402e+03,9.025653e+03
1.176366e+03,9.039455e+03
1.177331e+03,9.044917e+03
1.178295e+03,9.043405e+03
1.179259e+03,9.029167e+03
1.180223e+03,9.003706e+03
1.181188e+03,8.985736e+03
1.182152e+03,8.998231e+03
1.183116e+03,9.011122e+03
1.184080e+03,9.003175e+03
1.185045e+03,8.984229e+03
1.186009e+03,8.968843e+03
1.186973e+03,8.962538e+03
1.187937e+03,8.964587e+03
1.188901e+03,8.978278e+03
1.189866e+03,8.995177e+03
1.190830e+03,9.007736e+03
1.191794e+03,9.013270e+03
1.192758e+03,9.013456e+03
1.193723e+03,9.010418e+03
1.194687e+03,9.007527e+03
1.195651e+03,9.001620e+03
1.196615e+03,8.994900e+03
1.197580e+03,8.993382e+03
1.198544e+03,8.998897e+03
1.199508e+03,8.993844e+03
1.200472e+03,8.978967e+03
1.201437e+03,8.960259e+03
1.202401e+03,8.941631e+03
1.203365e+03,8.923581e+03
1.204329e+03,8.922310e+03
1.205293e+03,8.944721e+03
1.206258e+03,8.962894e+03
1.207222e+03,8.961255e+03
1.208186e+03,8.946882e+03
1.209150e+03,8.945247e+03
1.210115e+03,8.955366e+03
1.211079e+03,8.960478e+03
1.212043e+03,8.958054e+03
1.213007e+03,8.951997e+03
1.213972e+03,8.950416e+03
1.214936e+03,8.954238e+03
1.215900e+03,8.953566e+03
1.216864e+03,8.948760e+03
1.217828e+03,8.944056e+03
1.218793e+03,8.942890e+03
1.219757e+03,8.942338e+03
1.220721e+03,8.933545e+03
1.221685e+03,8.921949e+03
1.222650e+03,8.918903e+03
1.223614e+03,8.924731e+03
1.224578e+03,8.931400e+03
1.225542e+03,8.937766e+03
1.226507e+03,8.943515e+03
1.227471e+03,8.948928e+03
1.228435e+03,8.949871e+03
1.229399e+03,8.938527e+03
1.230364e+03,8.899498e+03
1.231328e+03,8.864796e+03
1.232292e+03,8.860793e+03
1.233256e+03,8.873619e+03
1.234220e+03,8.880391e+03
1.235185e+03,8.877155e+03
1.236149e+03,8.873942e+03
1.237113e+03,8.870543e+03
1.238077e+03,8.872145e+03
1.239042e+03,8.877612e+03
1.240006e+03,8.882702e+03
1.240970e+03,8.884388e+03
1.241934e+03,8.878705e+03
1.242899e+03,8.876947e+03
1.243863e+03,8.889597e+03
1.244827e+03,8.902672e+03
1.245791e+03,8.892576e+03
1.246755e+03,8.852594e+03
1.247720e+03,8.829964e+03
1.248684e+03,8.828677e+03
1.249648e+03,8.835434e+03
1.250612e+03,8.842155e+03
1.251577e+03,8.847231e+03
1.252541e+03,8.848209e+03
1.253505e+03,8.844835e+03
1.254469e+03,8.843538e+03
1.255434e+03,8.848250e+03
1.256398e+03,8.853730e+03
1.257362e+03,8.847686e+03
1.258326e+03,8.835607e+03
1.259291e+03,8.833314e+03
1.260255e+03,8.838280e+03
1.261219e+03,8.836266e+03
1.262183e+03,8.818193e+03
1.263147e+03,8.800501e+03
1.264112e+03,8.794136e+03
1.265076e+03,8.794847e+03
1.266040e+03,8.794675e+03
1.267004e+03,8.791187e+03
1.267969e+03,8.790893e+03
1.268933e+03,8.807109e+03
1.269897e+03,8.824624e+03
1.270861e+03,8.823019e+03
1.271826e+03,8.798808e+03
1.272790e+03,8.786090e+03
1.273754e+03,8.798107e+03
1.274718e+03,8.805354e+03
1.275682e+03,8.806544e+03
1.276647e+03,8.804020e+03
1.277611e+03,8.797545e+03
1.278575e+03,8.785649e+03
1.279539e+03,8.769732e+03
1.280504e+03,8.753121e+03
1.281468e+03,8.744448e+03
1.282432e+03,8.747021e+03
1.283396e+03,8.757729e+03
1.284361e+03,8.770282e+03
1.285325e+03,8.782456e+03
1.286289e+03,8.794238e+03
1.287253e+03,8.805285e+03
1.288218e+03,8.810844e+03
1.289182e+03,8.806776e+03
1.290146e+03,8.797330e+03
1.291110e+03,8.788361e+03
1.292074e+03,8.780356e+03
1.293039e+03,8.769581e+03
1.294003e+03,8.745790e+03
1.294967e+03,8.725612e+03
1.295931e+03,8.720486e+03
1.296896e+03,8.725034e+03
1.297860e+03,8.734200e+03
1.298824e+03,8.749748e+03
1.299788e+03,8.751122e+03
1.300753e+03,8.721433e+03
1.301717e+03,8.698568e+03
1.302681e+03,8.700616e+03
1.303645e+03,8.718639e+03
1.304609e+03,8.727286e+03
1.305574e+03,8.721924e+03
1.306538e+03,8.713874e+03
1.307502e+03,8.708344e+03
1.308466e+03,8.706669e+03
1.309431e+03,8.710600e+03
1.310395e+03,8.716921e+03
1.311359e+03,8.709995e+03
1.312323e+03,8.689569e+03
1.313288e+03,8.670453e+03
1.314252e+03,8.663505e+03
1.315216e+03,8.665496e+03
1.316180e+03,8.673577e+03
1.317145e+03,8.684767e+03
1.318109e+03,8.692851e+03
1.319073e+03,8.693932e+03
1.320037e+03,8.692396e+03
1.321001e+03,8.692504e+03
1.321966e+03,8.688563e+03
1.322930e+03,8.679234e+03
1.323894e+03,8.669487e+03
1.324858e+03,8.662957e+03
1.325823e+03,8.658510e+03
1.326787e+03,8.659579e+03
1.327751e+03,8.666529e+03
1.328715e+03,8.670996e+03
1.329680e+03,8.668396e+03
1.330644e+03,8.660824e+03
1.331608e+03,8.654237e+03
1.332572e+03,8.648112e+03
1.333536e+03,8.646532e+03
1.334501e+03,8.649494e+03
1.335465e+03,8.653435e+03
1.336429e+03,8.664235e+03
1.337393e+03,8.674377e+03
1.338358e+03,8.667939e+03
1.339322e+03,8.647433e+03
1.340286e+03,8.626994e+03
1.341250e+03,8.609097e+03
1.342215e+03,8.597410e+03
1.343179e+03,8.607967e+03
1.344143e+03,8.625620e+03
1.345107e+03,8.625938e+03
1.346072e+03,8.597395e+03
1.347036e+03,8.581932e+03
1.348000e+03,8.583329e+03
1.348964e+03,8.586098e+03
1.349928e+03,8.588587e+03
1.350893e+03,8.590893e+03
1.351857e+03,8.584790e+03
1.352821e+03,8.568951e+03
1.353785e+03,8.559537e+03
1.354750e+03,8.557509e+03
1.355714e+03,8.555604e+03
1.356678e+03,8.553917e+03
1.357642e+03,8.552440e+03
1.358607e+03,8.543443e+03
1.359571e+03,8.529563e+03
1.360535e+03,8.519181e+03
1.361499e+03,8.517465e+03
1.362464e+03,8.518123e+03
1.363428e+03,8.520721e+03
1.364392e+03,8.525540e+03
1.365356e+03,8.527713e+03
1.366320e+03,8.524034e+03
1.367285e+03,8.522608e+03
1.368249e+03,8.530476e+03
1.369213e+03,8.533069e+03
1.370177e+03,8.527178e+03
1.371142e+03,8.516631e+03
1.372106e+03,8.504960e+03
1.373070e+03,8.492675e+03
1.374034e+03,8.483486e+03
1.374999e+03,8.479390e+03
1.375963e+03,8.479854e+03
1.376927e+03,8.485240e+03
1.377891e+03,8.491529e+03
1.378855e+03,8.494717e+03
1.379820e+03,8.493901e+03
1.380784e+03,8.487975e+03
1.381748e+03,8.479247e+03
1.382712e+03,8.471792e+03
1.383677e+03,8.459926e+03
1.384641e+03,8.448899e+03
1.385605e+03,8.442033e+03
1.386569e+03,8.434724e+03
1.387534e+03,8.420036e+03
1.388498e+03,8.396136e+03
1.389462e+03,8.380188e+03
1.390426e+03,8.370718e+03
1.391391e+03,8.366900e+03
1.392355e+03,8.372819e+03
1.393319e+03,8.384558e+03
1.394283e+03,8.391852e+03
1.395247e+03,8.394502e+03
1.396212e+03,8.393006e+03
1.397176e+03,8.387375e+03
1.398140e+03,8.385357e+03
1.399104e+03,8.396042e+03
1.400069e+03,8.403753e+03
1.401033e+03,8.397010e+03
1.401997e+03,8.380275e+03
1.402961e+03,8.366984e+03
1.403926e+03,8.358984e+03
1.404890e+03,8.349553e+03
1.405854e+03,8.339262e+03
1.406818e+03,8.330536e+03
1.407782e+03,8.325883e+03
1.408747e+03,8.326147e+03
1.409711e+03,8.325182e+03
1.410675e+03,8.319653e+03
1.411639e+03,8.315767e+03
1.412604e+03,8.317021e+03
1.413568e+03,8.317955e+03
1.414532e+03,8.315931e+03
1.415496e+03,8.315183e+03
1.416461e+03,8.316802e+03
1.417425e+03,8.317566e+03
1.418389e+03,8.314245e+03
1.419353e+03,8.302808e+03
1.420318e+03,8.293835e+03
1.421282e+03,8.292832e+03
1.422246e+03,8.294128e+03
1.423210e+03,8.291708e+03
1.424174e+03,8.287334e+03
1.425139e+03,8.284604e+03
1.426103e+03,8.281286e+03
1.427067e+03,8.278652e+03
1.428031e+03,8.278463e+03
1.428996e+03,8.276279e+03
1.429960e+03,8.261373e+03
1.430924e+03,8.243726e+03
1.431888e+03,8.236421e+03
1.432853e+03,8.237854e+03
1.433817e+03,8.233970e+03
1.434781e+03,8.215918e+03
1.435745e+03,8.204722e+03
1.436709e+03,8.202051e+03
1.437674e+03,8.199760e+03
1.438638e+03,8.192544e+03
1.439602e+03,8.183924e+03
1.440566e+03,8.187990e+03
1.441531e+03,8.202391e+03
1.442495e+03,8.212619e+03
1.443459e+03,8.212080e+03
1.444423e+03,8.205196e+03
1.445388e+03,8.188782e+03
1.446352e+03,8.170983e+03
1.447316e+03,8.167067e+03
1.448280e+03,8.177292e+03
1.449245e+03,8.179872e+03
1.450209e+03,8.159693e+03
1.451173e+03,8.146221e+03
1.452137e+03,8.138242e+03
1.453101e+03,8.134437e+03
1.454066e+03,8.138665e+03
1.455030e+03,8.149688e+03
1.455994e+03,8.153862e+03
1.456958e+03,8.151962e+03
1.457923e+03,8.149944e+03
1.458887e+03,8.147416e+03
1.459851e+03,8.145846e+03
1.460815e+03,8.149918e+03
1.461780e+03,8.150706e+03
1.462744e+03,8.143733e+03
1.463708e+03,8.131144e+03
1.464672e+03,8.118096e+03
1.465636e+03,8.106562e+03
1.466601e+03,8.099403e+03
1.467565e+03,8.097011e+03
1.468529e+03,8.098379e+03
1.469493e+03,8.101999e+03
1.470458e+03,8.104744e+03
1.471422e+03,8.101925e+03
1.472386e+03,8.096109e+03
1.473350e+03,8.090495e+03
1.474315e+03,8.083791e+03
1.475279e+03,8.079106e+03
1.476243e+03,8.081995e+03
1.477207e+03,8.081861e+03
1.478172e+03,8.070664e+03
1.479136e+03,8.052889e+03
1.480100e+03,8.046279e+03
1.481064e+03,8.056869e+03
1.482028e+03,8.056097e+03
1.482993e+03,8.039248e+03
1.483957e+03,8.025547e+03
1.484921e+03,8.034423e+03
1.485885e+03,8.054142e+03
1.486850e+03,8.064123e+03
1.487814e+03,8.063990e+03
1.488778e+03,8.057437e+03
1.489742e+03,8.045407e+03
1.490707e+03,8.031669e+03
1.491671e+03,8.016433e+03
1.492635e+03,8.010972e+03
1.493599e+03,8.022291e+03
1.494563e+03,8.038721e+03
1.495528e+03,8.029169e+03
1.496492e+03,7.993805e+03
1.497456e+03,7.978946e+03
1.498420e+03,7.992026e+03
1.499385e+03,8.009127e+03
1.500349e+03,8.014589e+03
1.501313e+03,8.013890e+03
1.502277e+03,8.004985e+03
1.503242e+03,7.993536e+03
1.504206e+03,7.988316e+03
1.505170e+03,7.991104e+03
1.506134e+03,7.993847e+03
1.507099e+03,7.999084e+03
1.508063e+03,7.999384e+03
1.509027e+03,7.991249e+03
1.509991e+03,7.978163e+03
1.510955e+03,7.965075e+03
1.511920e+03,7.952267e+03
1.512884e+03,7.941206e+03
1.513848e+03,7.935417e+03
1.514812e+03,7.936771e+03
1.515777e+03,7.943728e+03
1.516741e+03,7.949353e+03
1.517705e+03,7.952375e+03
1.518669e+03,7.950494e+03
1.519634e+03,7.941565e+03
1.520598e+03,7.925061e+03
1.521562e+03,7.918116e+03
1.522526e+03,7.918192e+03
1.523490e+03,7.920382e+03
1.524455e+03,7.925284e+03
1.525419e+03,7.924475e+03
1.526383e+03,7.904189e+03
1.527347e+03,7.880829e+03
1.528312e+03,7.872757e+03
1.529276e+03,7.880419e+03
1.530240e+03,7.888670e+03
1.531204e+03,7.894701e+03
1.532169e+03,7.897994e+03
1.533133e+03,7.899231e+03
1.534097e+03,7.894420e+03
1.535061e+03,7.874417e+03
1.536026e+03,7.850066e+03
1.536990e+03,7.848662e+03
1.537954e+03,7.860096e+03
1.538918e+03,7.863038e+03
1.539882e+03,7.850383e+03
1.540847e+03,7.841996e+03
1.541811e+03,7.843729e+03
1.542775e+03,7.845158e+03
1.543739e+03,7.847091e+03
1.544704e+03,7.849575e+03
1.545668e+03,7.851555e+03
1.546632e+03,7.853436e+03
1.547596e+03,7.850674e+03
1.548561e+03,7.844507e+03
1.549525e+03,7.844609e+03
1.550489e+03,7.862250e+03
1.551453e+03,7.873299e+03
1.552417e+03,7.859333e+03
1.553382e+03,7.839581e+03
1.554346e+03,7.832121e+03
1.555310e+03,7.836842e+03
1.556274e+03,7.841471e+03
1.557239e+03,7.845161e+03
1.558203e+03,7.842419e+03
1.559167e+03,7.831683e+03
1.560131e+03,7.820754e+03
1.561096e+03,7.817788e+03
1.562060e+03,7.818313e+03
1.563024e+03,7.819181e+03
1.563988e+03,7.819823e+03
1.564953e+03,7.818306e+03
1.565917e+03,7.811416e+03
1.566881e+03,7.812503e+03
1.567845e+03,7.821024e+03
1.568809e+03,7.829220e+03
1.569774e+03,7.836346e+03
1.570738e+03,7.836943e+03
1.571702e+03,7.814039e+03
1.572666e+03,7.784868e+03
1.573631e+03,7.775373e+03
1.574595e+03,7.790437e+03
1.575559e+03,7.798318e+03
1.576523e+03,7.794771e+03
1.577488e+03,7.789638e+03
1.578452e+03,7.778573e+03
1.579416e+03,7.769805e+03
1.580380e+03,7.779434e+03
1.581344e+03,7.797227e+03
1.582309e+03,7.804756e+03
1.583273e+03,7.805181e+03
1.584237e+03,7.804718e+03
1.585201e+03,7.807275e+03
1.586166e+03,7.803522e+03
1.587130e+03,7.787107e+03
1.588094e+03,7.769424e+03
1.589058e+03,7.756940e+03
1.590023e+03,7.749399e+03
1.590987e+03,7.744188e+03
1.591951e+03,7.743618e+03
1.592915e+03,7.747514e+03
1.593880e+03,7.751694e+03
1.594844e+03,7.752955e+03
1.595808e+03,7.752756e+03
1.596772e+03,7.747843e+03
1.597736e+03,7.739922e+03
1.598701e+03,7.729859e+03
1.599665e+03,7.714378e+03
1.600629e+03,7.696449e+03
1.601593e+03,7.691907e+03
1.602558e+03,7.695704e+03
1.603522e+03,7.691130e+03
1.604486e+03,7.671132e+03
1.605450e+03,7.653227e+03
1.606415e+03,7.643947e+03
1.607379e+03,7.647278e+03
1.608343e+03,7.671325e+03
1.609307e+03,7.696827e+03
1.610271e+03,7.682276e+03
1.611236e+03,7.638392e+03
1.612200e+03,7.622611e+03
1.613164e+03,7.635487e+03
1.614128e+03,7.646552e+03
1.615093e+03,7.634298e+03
1.616057e+03,7.621964e+03
1.617021e+03,7.617331e+03
1.617985e+03,7.610130e+03
1.618950e+03,7.596172e+03
1.619914e+03,7.577108e+03
1.620878e+03,7.553407e+03
1.621842e+03,7.529801e+03
1.622807e+03,7.524366e+03
1.623771e+03,7.542279e+03
1.624735e+03,7.558499e+03
1.625699e+03,7.556425e+03
1.626663e+03,7.547036e+03
1.627628e+03,7.528078e+03
1.628592e+03,7.506329e+03
1.629556e+03,7.496033e+03
1.630520e+03,7.499318e+03
1.631485e+03,7.511713e+03
1.632449e+03,7.528367e+03
1.633413e+03,7.532604e+03
1.634377e+03,7.516173e+03
1.635342e+03,7.493715e+03
1.636306e+03,7.461260e+03
1.637270e+03,7.437007e+03
1.638234e+03,7.430643e+03
1.639198e+03,7.436054e+03
1.640163e+03,7.435374e+03
1.641127e+03,7.432315e+03
1.642091e+03,7.431964e+03
1.643055e+03,7.432831e+03
1.644020e+03,7.437569e+03
1.644984e+03,7.458844e+03
1.645948e+03,7.461632e+03
1.646912e+03,7.433333e+03
1.647877e+03,7.400952e+03
1.648841e+03,7.387579e+03
1.649805e+03,7.388938e+03
1.650769e+03,7.392443e+03
1.651734e+03,7.396012e+03
1.652698e+03,7.396923e+03
1.653662e+03,7.392257e+03
1.654626e+03,7.382514e+03
1.655590e+03,7.360758e+03
1.656555e+03,7.348347e+03
1.657519e+03,7.357217e+03
1.658483e+03,7.374076e+03
1.659447e+03,7.375246e+03
1.660412e+03,7.364271e+03
1.661376e+03,7.352341e+03
1.662340e+03,7.342773e+03
1.663304e+03,7.336988e+03
1.664269e+03,7.331458e+03
1.665233e+03,7.329579e+03
1.666197e+03,7.331990e+03
1.667161e+03,7.327202e+03
1.668125e+03,7.307490e+03
1.669090e+03,7.285577e+03
1.670054e+03,7.286740e+03
1.671018e+03,7.295184e+03
1.671982e+03,7.287301e+03
1.672947e+03,7.263312e+03
1.673911e+03,7.259014e+03
1.674875e+03,7.278333e+03
1.675839e+03,7.287796e+03
1.676804e+03,7.286019e+03
1.677768e+03,7.281202e+03
1.678732e+03,7.275322e+03
1.679696e+03,7.267741e+03
1.680661e+03,7.257031e+03
1.681625e+03,7.241555e+03
1.682589e+03,7.222870e+03
1.683553e+03,7.203357e+03
1.684517e+03,7.201623e+03
1.685482e+03,7.215762e+03
1.686446e+03,7.217242e+03
1.687410e+03,7.194523e+03
1.688374e+03,7.175279e+03
1.689339e+03,7.184507e+03
1.690303e+03,7.198644e+03
1.691267e+03,7.205893e+03
1.692231e+03,7.207910e+03
1.693196e+03,7.202179e+03
1.694160e+03,7.188398e+03
1.695124e+03,7.181743e+03
1.696088e+03,7.182608e+03
1.697052e+03,7.182791e+03
1.698017e+03,7.168253e+03
1.698981e+03,7.160298e+03
1.699945e+03,7.165520e+03
1.700909e+03,7.170121e+03
1.701874e+03,7.173559e+03
1.702838e+03,7.178322e+03
1.703802e+03,7.179825e+03
1.704766e+03,7.176427e+03
1.705731e+03,7.173778e+03
1.706695e+03,7.173432e+03
1.707659e+03,7.165868e+03
1.708623e+03,7.145904e+03
1.709588e+03,7.138563e+03
1.710552e+03,7.145409e+03
1.711516e+03,7.149627e+03
1.712480e+03,7.136464e+03
1.713444e+03,7.116035e+03
1.714409e+03,7.101087e+03
1.715373e+03,7.090086e+03
1.716337e+03,7.076091e+03
1.717301e+03,7.060570e+03
1.718266e+03,7.062066e+03
1.719230e+03,7.078405e+03
1.720194e+03,7.089383e+03
1.721158e+03,7.088231e+03
1.722123e+03,7.082273e+03
1.723087e+03,7.075392e+03
1.724051e+03,7.066894e+03
1.725015e+03,7.055037e+03
1.725979e+03,7.046136e+03
1.726944e+03,7.047987e+03
1.727908e+03,7.057721e+03
1.728872e+03,7.066981e+03
1.729836e+03,7.070869e+03
1.730801e+03,7.061564e+03
1.731765e+03,7.024281e+03
1.732729e+03,7.007250e+03
1.733693e+03,7.023065e+03
1.734658e+03,7.034961e+03
1.735622e+03,7.023514e+03
1.736586e+03,7.005079e+03
1.737550e+03,7.002750e+03
1.738515e+03,7.008702e+03
1.739479e+03,7.018212e+03
1.740443e+03,7.027636e+03
1.741407e+03,7.024206e+03
1.742371e+03,7.006097e+03
1.743336e+03,6.994529e+03
1.744300e+03,6.990635e+03
1.745264e+03,6.985296e+03
1.746228e+03,6.978342e+03
1.747193e+03,6.968865e+03
1.748157e+03,6.953788e+03
1.749121e+03,6.945120e+03
1.750085e+03,6.943494e+03
1.751050e+03,6.943208e+03
1.752014e+03,6.950048e+03
1.752978e+03,6.961064e+03
1.753942e+03,6.962917e+03
1.754906e+03,6.951933e+03
1.755871e+03,6.944331e+03
1.756835e+03,6.943455e+03
1.757799e+03,6.931724e+03
1.758763e+03,6.912057e+03
1.759728e+03,6.893577e+03
1.760692e+03,6.877395e+03
1.761656e+03,6.870760e+03
1.762620e+03,6.886028e+03
1.763585e+03,6.908016e+03
1.764549e+03,6.914425e+03
1.765513e+03,6.902614e+03
1.766477e+03,6.891009e+03
1.767442e+03,6.882144e+03
1.768406e+03,6.881979e+03
1.769370e+03,6.894710e+03
1.770334e+03,6.903383e+03
1.771298e+03,6.895394e+03
1.772263e+03,6.879009e+03
1.773227e+03,6.854338e+03
1.774191e+03,6.833689e+03
1.775155e+03,6.837384e+03
1.776120e+03,6.850580e+03
1.777084e+03,6.853385e+03
1.778048e+03,6.848403e+03
1.779012e+03,6.843408e+03
1.779977e+03,6.839563e+03
1.780941e+03,6.844442e+03
1.781905e+03,6.854693e+03
1.782869e+03,6.857971e+03
1.783833e+03,6.847986e+03
1.784798e+03,6.835872e+03
1.785762e+03,6.823310e+03
1.786726e+03,6.815982e+03
1.787690e+03,6.820964e+03
1.788655e+03,6.828806e+03
1.789619e+03,6.813032e+03
1.790583e+03,6.787531e+03
1.791547e+03,6.782529e+03
1.792512e+03,6.795068e+03
1.793476e+03,6.795944e+03
1.794440e+03,6.771228e+03
1.795404e+03,6.760461e+03
1.796369e+03,6.763476e+03
1.797333e+03,6.770927e+03
1.798297e+03,6.783541e+03
1.799261e+03,6.790517e+03
1.800225e+03,6.778515e+03
1.801190e+03,6.758316e+03
1.802154e+03,6.738139e+03
1.803118e+03,6.718758e+03
1.804082e+03,6.704425e+03
1.805047e+03,6.697951e+03
1.806011e+03,6.705334e+03
1.806975e+03,6.724501e+03
1.807939e+03,6.731709e+03
1.808904e+03,6.718911e+03
1.809868e+03,6.704772e+03
1.810832e+03,6.692764e+03
1.811796e+03,6.687103e+03
1.812760e+03,6.692189e+03
1.813725e+03,6.700450e+03
1.814689e+03,6.715622e+03
1.815653e+03,6.723394e+03
1.816617e+03,6.709803e+03
1.817582e+03,6.683536e+03
1.818546e+03,6.670788e+03
1.819510e+03,6.666025e+03
1.820474e+03,6.657771e+03
1.821439e+03,6.645618e+03
1.822403e+03,6.642789e+03
1.823367e+03,6.652929e+03
1.824331e+03,6.660460e+03
1.825296e+03,6.661078e+03
1.826260e+03,6.655586e+03
1.827224e+03,6.645231e+03
1.828188e+03,6.639972e+03
1.829152e+03,6.645022e+03
1.830117e+03,6.649193e+03
1.831081e+03,6.642812e+03
1.832045e+03,6.627508e+03
1.833009e+03,6.613568e+03
1.833974e+03,6.605559e+03
1.834938e+03,6.602192e+03
1.835902e+03,6.600897e+03
1.836866e+03,6.596250e+03
1.837831e+03,6.587509e+03
1.838795e+03,6.577514e+03
1.839759e+03,6.569537e+03
1.840723e+03,6.567791e+03
1.841688e+03,6.576461e+03
1.842652e+03,6.584165e+03
1.843616e+03,6.583905e+03
1.844580e+03,6.578326e+03
1.845544e+03,6.575032e+03
1.846509e+03,6.571416e+03
1.847473e+03,6.556370e+03
1.848437e+03,6.537655e+03
1.849401e+03,6.533822e+03
1.850366e+03,6.546067e+03
1.851330e+03,6.533107e+03
1.852294e+03,6.500803e+03
1.853258e+03,6.483793e+03
1.854223e+03,6.491670e+03
1.855187e+03,6.502325e+03
1.856151e+03,6.503809e+03
1.857115e+03,6.505186e+03
1.858079e+03,6.508212e+03
1.859044e+03,6.507118e+03
1.860008e+03,6.494049e+03
1.860972e+03,6.481466e+03
1.861936e+03,6.482478e+03
1.862901e+03,6.490677e+03
1.863865e+03,6.492856e+03
1.864829e+03,6.485919e+03
1.865793e+03,6.480118e+03
1.866758e+03,6.476623e+03
1.867722e+03,6.472693e+03
1.868686e+03,6.466065e+03
1.869650e+03,6.457369e+03
1.870615e+03,6.443352e+03
1.871579e+03,6.433423e+03
1.872543e+03,6.433229e+03
1.873507e+03,6.441207e+03
1.874471e+03,6.455158e+03
1.875436e+03,6.463955e+03
1.876400e+03,6.467678e+03
1.877364e+03,6.464887e+03
1.878328e+03,6.447938e+03
1.879293e+03,6.425725e+03
1.880257e+03,6.416351e+03
1.881221e+03,6.411876e+03
1.882185e+03,6.398117e+03
1.883150e+03,6.375756e+03
1.884114e+03,6.360714e+03
1.885078e+03,6.351616e+03
1.886042e+03,6.354747e+03
1.887006e+03,6.374806e+03
1.887971e+03,6.380474e+03
1.888935e+03,6.353417e+03
1.889899e+03,6.345330e+03
1.890863e+03,6.368324e+03
1.891828e+03,6.387843e+03
1.892792e+03,6.367147e+03
1.893756e+03,6.337412e+03
1.894720e+03,6.323400e+03
1.895685e+03,6.323995e+03
1.896649e+03,6.338728e+03
1.897613e+03,6.357325e+03
1.898577e+03,6.350067e+03
1.899542e+03,6.328164e+03
1.900506e+03,6.313793e+03
1.901470e+03,6.309806e+03
1.902434e+03,6.308817e+03
1.903398e+03,6.310853e+03
1.904363e+03,6.307417e+03
1.905327e+03,6.296381e+03
1.906291e+03,6.289796e+03
1.907255e+03,6.294740e+03
1.908220e+03,6.295079e+03
1.909184e+03,6.287706e+03
1.910148e+03,6.276733e+03
1.911112e+03,6.270306e+03
1.912077e+03,6.263877e+03
1.913041e+03,6.249140e+03
1.914005e+03,6.235067e+03
1.914969e+03,6.231136e+03
1.915933e+03,6.234924e+03
1.916898e+03,6.242412e+03
1.917862e+03,6.249674e+03
1.918826e+03,6.241591e+03
1.919790e+03,6.216902e+03
1.920755e+03,6.217391e+03
1.921719e+03,6.237976e+03
1.922683e+03,6.240833e+03
1.923647e+03,6.219984e+03
1.924612e+03,6.205858e+03
1.925576e+03,6.218789e+03
1.926540e+03,6.229908e+03
1.927504e+03,6.232266e+03
1.928469e+03,6.226622e+03
1.929433e+03,6.204872e+03
1.930397e+03,6.183872e+03
1.931361e+03,6.178007e+03
1.932325e+03,6.178351e+03
1.933290e+03,6.185244e+03
1.934254e+03,6.195253e+03
1.935218e+03,6.181717e+03
1.936182e+03,6.155157e+03
1.937147e+03,6.144128e+03
1.938111e+03,6.149774e+03
1.939075e+03,6.145787e+03
1.940039e+03,6.136369e+03
1.941004e+03,6.129058e+03
1.941968e+03,6.121109e+03
1.942932e+03,6.113255e+03
1.943896e+03,6.109427e+03
1.944860e+03,6.102229e+03
1.945825e+03,6.093525e+03
1.946789e+03,6.085923e+03
1.947753e+03,6.078617e+03
1.948717e+03,6.070058e+03
1.949682e+03,6.054631e+03
1.950646e+03,6.045804e+03
1.951610e+03,6.056454e+03
1.952574e+03,6.071115e+03
1.953539e+03,6.062021e+03
1.954503e+03,6.048428e+03
1.955467e+03,6.053088e+03
1.956431e+03,6.071026e+03
1.957396e+03,6.090814e+03
1.958360e+03,6.106108e+03
1.959324e+03,6.100864e+03
1.960288e+03,6.080367e+03
1.961252e+03,6.069651e+03
1.962217e+03,6.067869e+03
1.963181e+03,6.055970e+03
1.964145e+03,6.033893e+03
1.965109e+03,6.018349e+03
1.966074e+03,6.022061e+03
1.967038e+03,6.033024e+03
1.968002e+03,6.046171e+03
1.968966e+03,6.049638e+03
1.969931e+03,6.038958e+03
1.970895e+03,6.016299e+03
1.971859e+03,5.973604e+03
1.972823e+03,5.946575e+03
1.973787e+03,5.950242e+03
1.974752e+03,5.965801e+03
1.975716e+03,5.973242e+03
1.976680e+03,5.973836e+03
1.977644e+03,5.970883e+03
1.978609e+03,5.969276e+03
1.979573e+03,5.972581e+03
1.980537e+03,5.976638e+03
1.981501e+03,5.971406e+03
1.982466e+03,5.960375e+03
1.983430e+03,5.950633e+03
1.984394e+03,5.941138e+03
1.985358e+03,5.942224e+03
1.986323e+03,5.951014e+03
1.987287e+03,5.955602e+03
1.988251e+03,5.952201e+03
1.989215e+03,5.938219e+03
1.990179e+03,5.911890e+03
1.991144e+03,5.898728e+03
1.992108e+03,5.908446e+03
1.993072e+03,5.916336e+03
1.994036e+03,5.891556e+03
1.995001e+03,5.877181e+03
1.995965e+03,5.887248e+03
1.996929e+03,5.902373e+03
1.997893e+03,5.900510e+03
1.998858e+03,5.891001e+03
1.999822e+03,5.879423e+03
2.000786e+03,5.867724e+03
2.001750e+03,5.862834e+03
2.002714e+03,5.864953e+03
2.003679e+03,5.866263e+03
2.004643e+03,5.863678e+03
2.005607e+03,5.855627e+03
2.006571e+03,5.844675e+03
2.007536e+03,5.830330e+03
2.008500e+03,5.815781e+03
2.009464e+03,5.810566e+03
2.010428e+03,5.816209e+03
2.011393e+03,5.817039e+03
2.012357e+03,5.811048e+03
2.013321e+03,5.812360e+03
2.014285e+03,5.817466e+03
2.015250e+03,5.819322e+03
2.016214e+03,5.813919e+03
2.017178e+03,5.806472e+03
2.018142e+03,5.798533e+03
2.019106e+03,5.791594e+03
2.020071e+03,5.785672e+03
2.021035e+03,5.779463e+03
2.021999e+03,5.769657e+03
2.022963e+03,5.762297e+03
2.023928e+03,5.763192e+03
2.024892e+03,5.765489e+03
2.025856e+03,5.757690e+03
2.026820e+03,5.751655e+03
2.027785e+03,5.756232e+03
2.028749e+03,5.760777e+03
2.029713e+03,5.746197e+03
2.030677e+03,5.730700e+03
2.031641e+03,5.745396e+03
2.032606e+03,5.769818e+03
2.033570e+03,5.767266e+03
2.034534e+03,5.743708e+03
2.035498e+03,5.729018e+03
2.036463e+03,5.719945e+03
2.037427e+03,5.706304e+03
2.038391e+03,5.690657e+03
2.039355e+03,5.671164e+03
2.040320e+03,5.651771e+03
2.041284e+03,5.647110e+03
2.042248e+03,5.659188e+03
2.043212e+03,5.667929e+03
2.044177e+03,5.674083e+03
2.045141e+03,5.672458e+03
2.046105e+03,5.661288e+03
2.047069e+03,5.651411e+03
2.048033e+03,5.644841e+03
2.048998e+03,5.640248e+03
2.049962e+03,5.639910e+03
2.050926e+03,5.637008e+03
2.051890e+03,5.621666e+03
2.052854e+03,5.611206e+03
2.053819e+03,5.610794e+03
2.054783e+03,5.604583e+03
2.055747e+03,5.584948e+03
2.056711e+03,5.569302e+03
2.057676e+03,5.576080e+03
2.058640e+03,5.589426e+03
2.059604e+03,5.598155e+03
2.060568e+03,5.599893e+03
2.061533e+03,5.588201e+03
2.062497e+03,5.577456e+03
2.063461e+03,5.585400e+03
2.064425e+03,5.600075e+03
2.065390e+03,5.611126e+03
2.066354e+03,5.612291e+03
2.067318e+03,5.582556e+03
2.068282e+03,5.543013e+03
2.069247e+03,5.535452e+03
2.070211e+03,5.551250e+03
2.071175e+03,5.539118e+03
2.072139e+03,5.512571e+03
2.073104e+03,5.503226e+03
2.074068e+03,5.514011e+03
2.075032e+03,5.525898e+03
2.075996e+03,5.535486e+03
2.076960e+03,5.536376e+03
2.077925e+03,5.526672e+03
2.078889e+03,5.520025e+03
2.079853e+03,5.517644e+03
2.080817e+03,5.509326e+03
2.081782e+03,5.493782e+03
2.082746e+03,5.476674e+03
2.083710e+03,5.461696e+03
2.084674e+03,5.451570e+03
2.085639e+03,5.449542e+03
2.086603e+03,5.457597e+03
2.087567e+03,5.476333e+03
2.088531e+03,5.484692e+03
2.089496e+03,5.477015e+03
2.090460e+03,5.460936e+03
2.091424e+03,5.446017e+03
2.092388e+03,5.439525e+03
2.093353e+03,5.446775e+03
2.094317e+03,5.455477e+03
2.095281e+03,5.457033e+03
2.096245e+03,5.453702e+03
2.097209e+03,5.448253e+03
2.098174e+03,5.439925e+03
2.099138e+03,5.431370e+03
2.100102e+03,5.421321e+03
2.101066e+03,5.403588e+03
2.102031e+03,5.387430e+03
2.102995e+03,5.384015e+03
2.103959e+03,5.384216e+03
2.104923e+03,5.380587e+03
2.105887e+03,5.380397e+03
2.106852e+03,5.388148e+03
2.107816e+03,5.394791e+03
2.108780e+03,5.397128e+03
2.109744e+03,5.394083e+03
2.110708e+03,5.385569e+03
2.111673e+03,5.376663e+03
2.112637e+03,5.368490e+03
2.113601e+03,5.356969e+03
2.114565e+03,5.334395e+03
2.115530e+03,5.310202e+03
2.116494e+03,5.306265e+03
2.117458e+03,5.326295e+03
2.118422e+03,5.350572e+03
2.119387e+03,5.372287e+03
2.120351e+03,5.376545e+03
2.121315e+03,5.365738e+03
2.122279e+03,5.363828e+03
2.123244e+03,5.372146e+03
2.124208e+03,5.355632e+03
2.125172e+03,5.322683e+03
2.126136e+03,5.293112e+03
2.127101e+03,5.271719e+03
2.128065e+03,5.264092e+03
2.129029e+03,5.267563e+03
2.129993e+03,5.270531e+03
2.130958e+03,5.265781e+03
2.131922e+03,5.270804e+03
2.132886e+03,5.289907e+03
2.133850e+03,5.295923e+03
2.134814e+03,5.290970e+03
2.135779e+03,5.277621e+03
2.136743e+03,5.244006e+03
2.137707e+03,5.231184e+03
2.138671e+03,5.242114e+03
2.139636e+03,5.256701e+03
2.140600e+03,5.274398e+03
2.141564e+03,5.268180e+03
2.142528e+03,5.236304e+03
2.143493e+03,5.215464e+03
2.144457e+03,5.221371e+03
2.145421e+03,5.221396e+03
2.146385e+03,5.207995e+03
2.147350e+03,5.189753e+03
2.148314e+03,5.169778e+03
2.149278e+03,5.164568e+03
2.150242e+03,5.192300e+03
2.151207e+03,5.208047e+03
2.152171e+03,5.202547e+03
2.153135e+03,5.188975e+03
2.154099e+03,5.183404e+03
2.155063e+03,5.175628e+03
2.156028e+03,5.163058e+03
2.156992e+03,5.158436e+03
2.157956e+03,5.170705e+03
2.158920e+03,5.177836e+03
2.159885e+03,5.166069e+03
2.160849e+03,5.157846e+03
2.161813e+03,5.167878e+03
2.162777e+03,5.173191e+03
2.163741e+03,5.148379e+03
2.164706e+03,5.124012e+03
2.165670e+03,5.116688e+03
2.166634e+03,5.118217e+03
2.167598e+03,5.115862e+03
2.168563e+03,5.115958e+03
2.169527e+03,5.118266e+03
2.170491e+03,5.115870e+03
2.171455e+03,5.108672e+03
2.172420e+03,5.097654e+03
2.173384e+03,5.083135e+03
2.174348e+03,5.068095e+03
2.175312e+03,5.045145e+03
2.176277e+03,5.029087e+03
2.177241e+03,5.050490e+03
2.178205e+03,5.068666e+03
2.179169e+03,5.057508e+03
2.180134e+03,5.040570e+03
2.181098e+03,5.046747e+03
2.182062e+03,5.056508e+03
2.183026e+03,5.051621e+03
2.183990e+03,5.041439e+03
2.184955e+03,5.042132e+03
2.185919e+03,5.043352e+03
2.186883e+03,5.032778e+03
2.187847e+03,5.018514e+03
2.188812e+03,5.014050e+03
2.189776e+03,5.014342e+03
2.190740e+03,5.014689e+03
2.191704e+03,5.009840e+03
2.192668e+03,4.992626e+03
2.193633e+03,4.974954e+03
2.194597e+03,4.976051e+03
2.195561e+03,4.983165e+03
2.196525e+03,4.982286e+03
2.197490e+03,4.976646e+03
2.198454e+03,4.973359e+03
2.199418e+03,4.967088e+03
2.200382e+03,4.951906e+03
2.201347e+03,4.940073e+03
2.202311e+03,4.954562e+03
2.203275e+03,4.971947e+03
2.204239e+03,4.960680e+03
2.205204e+03,4.937511e+03
2.206168e+03,4.932093e+03
2.207132e+03,4.936846e+03
2.208096e+03,4.947292e+03
2.209061e+03,4.946830e+03
2.210025e+03,4.911163e+03
2.210989e+03,4.866679e+03
2.211953e+03,4.853597e+03
2.212917e+03,4.868995e+03
2.213882e+03,4.899780e+03
2.214846e+03,4.930665e+03
2.215810e+03,4.940856e+03
2.216774e+03,4.934702e+03
2.217739e+03,4.928233e+03
2.218703e+03,4.920034e+03
2.219667e+03,4.897242e+03
2.220631e+03,4.877017e+03
2.221595e+03,4.875590e+03
2.222560e+03,4.880970e+03
2.223524e+03,4.883131e+03
2.224488e+03,4.878431e+03
2.225452e+03,4.856319e+03
2.226417e+03,4.835830e+03
2.227381e+03,4.834834e+03
2.228345e+03,4.846938e+03
2.229309e+03,4.865992e+03
2.230274e+03,4.880553e+03
2.231238e+03,4.883799e+03
2.232202e+03,4.876748e+03
2.233166e+03,4.859790e+03
2.234131e+03,4.844792e+03
2.235095e+03,4.840773e+03
2.236059e+03,4.837130e+03
2.237023e+03,4.806534e+03
2.237988e+03,4.780249e+03
2.238952e+03,4.779620e+03
2.239916e+03,4.787184e+03
2.240880e+03,4.789443e+03
2.241844e+03,4.788313e+03
2.242809e+03,4.782496e+03
2.243773e+03,4.778351e+03
2.244737e+03,4.782818e+03
2.245701e+03,4.784817e+03
2.246666e+03,4.771349e+03
2.247630e+03,4.755964e+03
2.248594e+03,4.753333e+03
2.249558e+03,4.757533e+03
2.250522e+03,4.758442e+03
2.251487e+03,4.765894e+03
2.252451e+03,4.784057e+03
2.253415e+03,4.792460e+03
2.254379e+03,4.771977e+03
2.255344e+03,4.745439e+03
2.256308e+03,4.720350e+03
2.257272e+03,4.705451e+03
2.258236e+03,4.719654e+03
2.259201e+03,4.729939e+03
2.260165e+03,4.721438e+03
2.261129e+03,4.712320e+03
2.262093e+03,4.726000e+03
2.263058e+03,4.725753e+03
2.264022e+03,4.703179e+03
2.264986e+03,4.685576e+03
2.265950e+03,4.689809e+03
2.266915e+03,4.695714e+03
2.267879e+03,4.694408e+03
2.268843e+03,4.687666e+03
2.269807e+03,4.682336e+03
2.270771e+03,4.674214e+03
2.271736e+03,4.661150e+03
2.272700e+03,4.656245e+03
2.273664e+03,4.659382e+03
2.274628e+03,4.657184e+03
2.275593e+03,4.638350e+03
2.276557e+03,4.626515e+03
2.277521e+03,4.628927e+03
2.278485e+03,4.636140e+03
2.279449e+03,4.648487e+03
2.280414e+03,4.648108e+03
2.281378e+03,4.633774e+03
2.282342e+03,4.621725e+03
2.283306e+03,4.617894e+03
2.284271e+03,4.611442e+03
2.285235e+03,4.601342e+03
2.286199e+03,4.588246e+03
2.287163e+03,4.577692e+03
2.288128e+03,4.572662e+03
2.289092e+03,4.568849e+03
2.290056e+03,4.565086e+03
2.291020e+03,4.562639e+03
2.291985e+03,4.561865e+03
2.292949e+03,4.566429e+03
2.293913e+03,4.580104e+03
2.294877e+03,4.599047e+03
2.295842e+03,4.604528e+03
2.296806e+03,4.595278e+03
2.297770e+03,4.586039e+03
2.298734e+03,4.577240e+03
2.299698e+03,4.569467e+03
2.300663e+03,4.563285e+03
2.301627e+03,4.550597e+03
2.302591e+03,4.531965e+03
2.303555e+03,4.511302e+03
2.304520e+03,4.491978e+03
2.305484e+03,4.486945e+03
2.306448e+03,4.489905e+03
2.307412e+03,4.483360e+03
2.308376e+03,4.474808e+03
2.309341e+03,4.503995e+03
2.310305e+03,4.535583e+03
2.311269e+03,4.516512e+03
2.312233e+03,4.482359e+03
2.313198e+03,4.487910e+03
2.314162e+03,4.503090e+03
2.315126e+03,4.495470e+03
2.316090e+03,4.481161e+03
2.317055e+03,4.481583e+03
2.318019e+03,4.484048e+03
2.318983e+03,4.473034e+03
2.319947e+03,4.457359e+03
2.320912e+03,4.444058e+03
2.321876e+03,4.436305e+03
2.322840e+03,4.436479e+03
2.323804e+03,4.438743e+03
2.324769e+03,4.442732e+03
2.325733e+03,4.448222e+03
2.326697e+03,4.453352e+03
2.327661e+03,4.455034e+03
2.328625e+03,4.448344e+03
2.329590e+03,4.437199e+03
2.330554e+03,4.428507e+03
2.331518e+03,4.418360e+03
2.332482e+03,4.405371e+03
2.333447e+03,4.396634e+03
2.334411e+03,4.399053e+03
2.335375e+03,4.391788e+03
2.336339e+03,4.374655e+03
2.337303e+03,4.368409e+03
2.338268e+03,4.386361e+03
2.339232e+03,4.385860e+03
2.340196e+03,4.371804e+03
2.341160e+03,4.370884e+03
2.342125e+03,4.391423e+03
2.343089e+03,4.395970e+03
2.344053e+03,4.383745e+03
2.345017e+03,4.375570e+03
2.345982e+03,4.375336e+03
2.346946e+03,4.375306e+03
2.347910e+03,4.376693e+03
2.348874e+03,4.369514e+03
2.349839e+03,4.354363e+03
2.350803e+03,4.347677e+03
2.351767e+03,4.346099e+03
2.352731e+03,4.337030e+03
2.353696e+03,4.330101e+03
2.354660e+03,4.339699e+03
2.355624e+03,4.351395e+03
2.356588e+03,4.345858e+03
2.357552e+03,4.336357e+03
2.358517e+03,4.335837e+03
2.359481e+03,4.335320e+03
2.360445e+03,4.316757e+03
2.361409e+03,4.299500e+03
2.362374e+03,4.296472e+03
2.363338e+03,4.291434e+03
2.364302e+03,4.268365e+03
2.365266e+03,4.259282e+03
2.366230e+03,4.271431e+03
2.367195e+03,4.285958e+03
2.368159e+03,4.292634e+03
2.369123e+03,4.284341e+03
2.370087e+03,4.263088e+03
2.371052e+03,4.252000e+03
2.372016e+03,4.267842e+03
2.372980e+03,4.280179e+03
2.373944e+03,4.285157e+03
2.374909e+03,4.275559e+03
2.375873e+03,4.243631e+03
2.376837e+03,4.233377e+03
2.377801e+03,4.240364e+03
2.378766e+03,4.241585e+03
2.379730e+03,4.233654e+03
2.380694e+03,4.212865e+03
2.381658e+03,4.190482e+03
2.382623e+03,4.193647e+03
2.383587e+03,4.211748e+03
2.384551e+03,4.211437e+03
2.385515e+03,4.199899e+03
2.386479e+03,4.190630e+03
2.387444e+03,4.187054e+03
2.388408e+03,4.203255e+03
2.389372e+03,4.218603e+03
2.390336e+03,4.202624e+03
2.391301e+03,4.183425e+03
2.392265e+03,4.190331e+03
2.393229e+03,4.197408e+03
2.394193e+03,4.190163e+03
2.395157e+03,4.179007e+03
2.396122e+03,4.169750e+03
2.397086e+03,4.162601e+03
2.398050e+03,4.160658e+03
2.399014e+03,4.150299e+03
2.399979e+03,4.119288e+03
2.400943e+03,4.112749e+03
2.401907e+03,4.136112e+03
2.402871e+03,4.148594e+03
2.403836e+03,4.142831e+03
2.404800e+03,4.146392e+03
2.405764e+03,4.159662e+03
2.406728e+03,4.172334e+03
2.407693e+03,4.177619e+03
2.408657e+03,4.160829e+03
2.409621e+03,4.130863e+03
2.410585e+03,4.118761e+03
2.411550e+03,4.118581e+03
2.412514e+03,4.106968e+03
2.413478e+03,4.090698e+03
2.414442e+03,4.093992e+03
2.415406e+03,4.100127e+03
2.416371e+03,4.086292e+03
2.417335e+03,4.070565e+03
2.418299e+03,4.082572e+03
2.419263e+03,4.097916e+03
2.420228e+03,4.104114e+03
2.421192e+03,4.102584e+03
2.422156e+03,4.091103e+03
2.423120e+03,4.082078e+03
2.424084e+03,4.075093e+03
2.425049e+03,4.064245e+03
2.426013e+03,4.049310e+03
2.426977e+03,4.037197e+03
2.427941e+03,4.031854e+03
2.428906e+03,4.037441e+03
2.429870e+03,4.054959e+03
2.430834e+03,4.054461e+03
2.431798e+03,4.040700e+03
2.432763e+03,4.037107e+03
2.433727e+03,4.042774e+03
2.434691e+03,4.047171e+03
2.435655e+03,4.045301e+03
2.436620e+03,4.021913e+03
2.437584e+03,3.992788e+03
2.438548e+03,4.008767e+03
2.439512e+03,4.033144e+03
2.440477e+03,4.023954e+03
2.441441e+03,4.004051e+03
2.442405e+03,4.016101e+03
2.443369e+03,4.023476e+03
2.444333e+03,4.009921e+03
2.445298e+03,3.994456e+03
2.446262e+03,3.991534e+03
2.447226e+03,3.989872e+03
2.448190e+03,3.989456e+03
2.449155e+03,3.989016e+03
2.450119e+03,3.992703e+03
2.451083e+03,3.988201e+03
2.452047e+03,3.975594e+03
2.453011e+03,3.968382e+03
2.453976e+03,3.971848e+03
2.454940e+03,3.969035e+03
2.455904e+03,3.963554e+03
2.456868e+03,3.952278e+03
2.457833e+03,3.938084e+03
2.458797e+03,3.943008e+03
2.459761e+03,3.955546e+03
2.460725e+03,3.956788e+03
2.461690e+03,3.951043e+03
2.462654e+03,3.944492e+03
2.463618e+03,3.934324e+03
2.464582e+03,3.919218e+03
2.465547e+03,3.911211e+03
2.466511e+03,3.922243e+03
2.467475e+03,3.925953e+03
2.468439e+03,3.915711e+03
2.469404e+03,3.907499e+03
2.470368e+03,3.922836e+03
2.471332e+03,3.922611e+03
2.472296e+03,3.905730e+03
2.473260e+03,3.900340e+03
2.474225e+03,3.915345e+03
2.475189e+03,3.912997e+03
2.476153e+03,3.902476e+03
2.477117e+03,3.904520e+03
2.478082e+03,3.912832e+03
2.479046e+03,3.906307e+03
2.480010e+03,3.894759e+03
2.480974e+03,3.895553e+03
2.481938e+03,3.898604e+03
2.482903e+03,3.887398e+03
2.483867e+03,3.876902e+03
2.484831e+03,3.874712e+03
2.485795e+03,3.871419e+03
2.486760e+03,3.856387e+03
2.487724e+03,3.854991e+03
2.488688e+03,3.872550e+03
2.489652e+03,3.884041e+03
2.490617e+03,3.868934e+03
2.491581e+03,3.857491e+03
2.492545e+03,3.851284e+03
2.493509e+03,3.846637e+03
2.494474e+03,3.840675e+03
2.495438e+03,3.839917e+03
2.496402e+03,3.842387e+03
2.497366e+03,3.847086e+03
2.498331e+03,3.849780e+03
2.499295e+03,3.836440e+03
2.500259e+03,3.823837e+03
2.501223e+03,3.835352e+03
2.502188e+03,3.843847e+03
2.503152e+03,3.804481e+03
2.504116e+03,3.781318e+03
2.505080e+03,3.793846e+03
2.506044e+03,3.810622e+03
2.507009e+03,3.817686e+03
2.507973e+03,3.798898e+03
2.508937e+03,3.759508e+03
2.509901e+03,3.740580e+03
2.510865e+03,3.751565e+03
2.511830e+03,3.771914e+03
2.512794e+03,3.792168e+03
2.513758e+03,3.790128e+03
2.514722e+03,3.777405e+03
2.515687e+03,3.779023e+03
2.516651e+03,3.782980e+03
2.517615e+03,3.775316e+03
2.518579e+03,3.765868e+03
2.519544e+03,3.771466e+03
2.520508e+03,3.771528e+03
2.521472e+03,3.758810e+03
2.522436e+03,3.748403e+03
2.523401e+03,3.752427e+03
2.524365e+03,3.761210e+03
2.525329e+03,3.770550e+03
2.526293e+03,3.774167e+03
2.527258e+03,3.774815e+03
2.528222e+03,3.751844e+03
2.529186e+03,3.716320e+03
2.530150e+03,3.701729e+03
2.531115e+03,3.707207e+03
2.532079e+03,3.734894e+03
2.533043e+03,3.756258e+03
2.534007e+03,3.738209e+03
2.534971e+03,3.707515e+03
2.535936e+03,3.704257e+03
2.536900e+03,3.701180e+03
2.537864e+03,3.686661e+03
2.538828e+03,3.683123e+03
2.539792e+03,3.701599e+03
2.540757e+03,3.705110e+03
2.541721e+03,3.689840e+03
2.542685e+03,3.683648e+03
2.543649e+03,3.690304e+03
2.544614e+03,3.699353e+03
2.545578e+03,3.703211e+03
2.546542e+03,3.691525e+03
2.547506e+03,3.671748e+03
2.548471e+03,3.651125e+03
2.549435e+03,3.640693e+03
2.550399e+03,3.657224e+03
2.551363e+03,3.672401e+03
2.552328e+03,3.661767e+03
2.553292e+03,3.653522e+03
2.554256e+03,3.658125e+03
2.555220e+03,3.660465e+03
2.556185e+03,3.656811e+03
2.557149e+03,3.649558e+03
2.558113e+03,3.639924e+03
2.559077e+03,3.645594e+03
2.560042e+03,3.659406e+03
2.561006e+03,3.666029e+03
2.561970e+03,3.667919e+03
2.562934e+03,3.652858e+03
2.563898e+03,3.639719e+03
2.564863e+03,3.656769e+03
2.565827e+03,3.667100e+03
2.566791e+03,3.636367e+03
2.567755e+03,3.622170e+03
2.568719e+03,3.634498e+03
2.569684e+03,3.635927e+03
2.570648e+03,3.604706e+03
2.571612e+03,3.597591e+03
2.572576e+03,3.614155e+03
2.573541e+03,3.622076e+03
2.574505e+03,3.616227e+03
2.575469e+03,3.619230e+03
2.576433e+03,3.618710e+03
2.577398e+03,3.594979e+03
2.578362e+03,3.570813e+03
2.579326e+03,3.583366e+03
2.580290e+03,3.598227e+03
2.581255e+03,3.598611e+03
2.582219e+03,3.592351e+03
2.583183e+03,3.582321e+03
2.584147e+03,3.575571e+03
2.585112e+03,3.576991e+03
2.586076e+03,3.579222e+03
2.587040e+03,3.580444e+03
2.588004e+03,3.587327e+03
2.588969e+03,3.590940e+03
2.589933e+03,3.576630e+03
2.590897e+03,3.557063e+03
2.591861e+03,3.560305e+03
2.592825e+03,3.565927e+03
2.593790e+03,3.558095e+03
2.594754e+03,3.550077e+03
2.595718e+03,3.553998e+03
2.596682e+03,3.548392e+03
2.597646e+03,3.526394e+03
2.598611e+03,3.517962e+03
2.599575e+03,3.527182e+03
2.600539e+03,3.525952e+03
2.601503e+03,3.514255e+03
2.602468e+03,3.510058e+03
2.603432e+03,3.509866e+03
2.604396e+03,3.511940e+03
2.605360e+03,3.518124e+03
2.606325e+03,3.533249e+03
2.607289e+03,3.538119e+03
2.608253e+03,3.524380e+03
2.609217e+03,3.513513e+03
2.610182e+03,3.512149e+03
2.611146e+03,3.502136e+03
2.612110e+03,3.485952e+03
2.613074e+03,3.481303e+03
2.614039e+03,3.488492e+03
2.615003e+03,3.480955e+03
2.615967e+03,3.466738e+03
2.616931e+03,3.466402e+03
2.617896e+03,3.473504e+03
2.618860e+03,3.482369e+03
2.619824e+03,3.485911e+03
2.620788e+03,3.480021e+03
2.621752e+03,3.475937e+03
2.622717e+03,3.485184e+03
2.623681e+03,3.487763e+03
2.624645e+03,3.482461e+03
2.625609e+03,3.477172e+03
2.626573e+03,3.473470e+03
2.627538e+03,3.481332e+03
2.628502e+03,3.488317e+03
2.629466e+03,3.467965e+03
2.630430e+03,3.443394e+03
2.631395e+03,3.447858e+03
2.632359e+03,3.453736e+03
2.633323e+03,3.452420e+03
2.634287e+03,3.450952e+03
2.635252e+03,3.452443e+03
2.636216e+03,3.460899e+03
2.637180e+03,3.472515e+03
2.638144e+03,3.463376e+03
2.639109e+03,3.438540e+03
2.640073e+03,3.410173e+03
2.641037e+03,3.392568e+03
2.642001e+03,3.402758e+03
2.642966e+03,3.417712e+03
2.643930e+03,3.423254e+03
2.644894e+03,3.428742e+03
2.645858e+03,3.450369e+03
2.646823e+03,3.444315e+03
2.647787e+03,3.410361e+03
2.648751e+03,3.390226e+03
2.649715e+03,3.388078e+03
2.650679e+03,3.397271e+03
2.651644e+03,3.407337e+03
2.652608e+03,3.399517e+03
2.653572e+03,3.388198e+03
2.654536e+03,3.401034e+03
2.655500e+03,3.410117e+03
2.656465e+03,3.403943e+03
2.657429e+03,3.402874e+03
2.658393e+03,3.412049e+03
2.659357e+03,3.405862e+03
2.660322e+03,3.388414e+03
2.661286e+03,3.381460e+03
2.662250e+03,3.383451e+03
2.663214e+03,3.397934e+03
2.664179e+03,3.406540e+03
2.665143e+03,3.380622e+03
2.666107e+03,3.354141e+03
2.667071e+03,3.343602e+03
2.668036e+03,3.347263e+03
2.669000e+03,3.370891e+03
2.669964e+03,3.375703e+03
2.670928e+03,3.362954e+03
2.671893e+03,3.350142e+03
2.672857e+03,3.343584e+03
2.673821e+03,3.362238e+03
2.674785e+03,3.374486e+03
2.675750e+03,3.345566e+03
2.676714e+03,3.314070e+03
2.677678e+03,3.329126e+03
2.678642e+03,3.333989e+03
2.679606e+03,3.316482e+03
2.680571e+03,3.312626e+03
2.681535e+03,3.326601e+03
2.682499e+03,3.332963e+03
2.683463e+03,3.330536e+03
2.684427e+03,3.333792e+03
2.685392e+03,3.339227e+03
2.686356e+03,3.335284e+03
2.687320e+03,3.329906e+03
2.688284e+03,3.330075e+03
2.689249e+03,3.332423e+03
2.690213e+03,3.334531e+03
2.691177e+03,3.325306e+03
2.692141e+03,3.302892e+03
2.693106e+03,3.300013e+03
2.694070e+03,3.308147e+03
2.695034e+03,3.301329e+03
2.695998e+03,3.291794e+03
2.696963e+03,3.314757e+03
2.697927e+03,3.324429e+03
2.698891e+03,3.293277e+03
2.699855e+03,3.265772e+03
2.700820e+03,3.268259e+03
2.701784e+03,3.262967e+03
2.702748e+03,3.248656e+03
2.703712e+03,3.260792e+03
2.704677e+03,3.286687e+03
2.705641e+03,3.288208e+03
2.706605e+03,3.278112e+03
2.707569e+03,3.253509e+03
2.708533e+03,3.241918e+03
2.709498e+03,3.255325e+03
2.710462e+03,3.264156e+03
2.711426e+03,3.257604e+03
2.712390e+03,3.253170e+03
2.713354e+03,3.250545e+03
2.714319e+03,3.245839e+03
2.715283e+03,3.243381e+03
2.716247e+03,3.266436e+03
2.717211e+03,3.285073e+03
2.718176e+03,3.277704e+03
2.719140e+03,3.270528e+03
2.720104e+03,3.285293e+03
2.721068e+03,3.279210e+03
2.722033e+03,3.249959e+03
2.722997e+03,3.245813e+03
2.723961e+03,3.257942e+03
2.724925e+03,3.239839e+03
2.725890e+03,3.214740e+03
2.726854e+03,3.216270e+03
2.727818e+03,3.225320e+03
2.728782e+03,3.227718e+03
2.729747e+03,3.223495e+03
2.730711e+03,3.207223e+03
2.731675e+03,3.209177e+03
2.732639e+03,3.225625e+03
2.733604e+03,3.231431e+03
2.734568e+03,3.228320e+03
2.735532e+03,3.222694e+03
2.736496e+03,3.216876e+03
2.737460e+03,3.214674e+03
2.738425e+03,3.215099e+03
2.739389e+03,3.219206e+03
2.740353e+03,3.202583e+03
2.741317e+03,3.166980e+03
2.742281e+03,3.175316e+03
2.743246e+03,3.212323e+03
2.744210e+03,3.213151e+03
2.745174e+03,3.195013e+03
2.746138e+03,3.186724e+03
2.747103e+03,3.177997e+03
2.748067e+03,3.165681e+03
2.749031e+03,3.161386e+03
2.749995e+03,3.175395e+03
2.750960e+03,3.167897e+03
2.751924e+03,3.149580e+03
2.752888e+03,3.155402e+03
2.753852e+03,3.172441e+03
2.754817e+03,3.173145e+03
2.755781e+03,3.171344e+03
2.756745e+03,3.174412e+03
2.757709e+03,3.174142e+03
2.758674e+03,3.165025e+03
2.759638e+03,3.155232e+03
2.760602e+03,3.147992e+03
2.761566e+03,3.146715e+03
2.762531e+03,3.151857e+03
2.763495e+03,3.160903e+03
2.764459e+03,3.164169e+03
2.765423e+03,3.145999e+03
2.766387e+03,3.141331e+03
2.767352e+03,3.158551e+03
2.768316e+03,3.154329e+03
2.769280e+03,3.120395e+03
2.770244e+03,3.125401e+03
2.771208e+03,3.146943e+03
2.772173e+03,3.129263e+03
2.773137e+03,3.100328e+03
2.774101e+03,3.094935e+03
2.775065e+03,3.100531e+03
2.776030e+03,3.114698e+03
2.776994e+03,3.122415e+03
2.777958e+03,3.120982e+03
2.778922e+03,3.116827e+03
2.779887e+03,3.112788e+03
2.780851e+03,3.110236e+03
2.781815e+03,3.107049e+03
2.782779e+03,3.104904e+03
2.783744e+03,3.105286e+03
2.784708e+03,3.105316e+03
2.785672e+03,3.111618e+03
2.786636e+03,3.121061e+03
2.787601e+03,3.110157e+03
2.788565e+03,3.092867e+03
2.789529e+03,3.109649e+03
2.790493e+03,3.129491e+03
2.791458e+03,3.118582e+03
2.792422e+03,3.108957e+03
2.793386e+03,3.111440e+03
2.794350e+03,3.106538e+03
2.795314e+03,3.087504e+03
2.796279e+03,3.074953e+03
2.797243e+03,3.068242e+03
2.798207e+03,3.074371e+03
2.799171e+03,3.079985e+03
2.800135e+03,3.058129e+03
2.801100e+03,3.043696e+03
2.802064e+03,3.047404e+03
2.803028e+03,3.053321e+03
2.803992e+03,3.057261e+03
2.804957e+03,3.053917e+03
2.805921e+03,3.050653e+03
2.806885e+03,3.060701e+03
2.807849e+03,3.068497e+03
2.808814e+03,3.066424e+03
2.809778e+03,3.063716e+03
2.810742e+03,3.065933e+03
2.811706e+03,3.074335e+03
2.812671e+03,3.079789e+03
2.813635e+03,3.061665e+03
2.814599e+03,3.034948e+03
2.815563e+03,3.031068e+03
2.816528e+03,3.033753e+03
2.817492e+03,3.039718e+03
2.818456e+03,3.031431e+03
2.819420e+03,3.008477e+03
2.820385e+03,3.008780e+03
2.821349e+03,3.027022e+03
2.822313e+03,3.010248e+03
2.823277e+03,2.997500e+03
2.824241e+03,3.018821e+03
2.825206e+03,3.036930e+03
2.826170e+03,3.030990e+03
2.827134e+03,3.028422e+03
2.828098e+03,3.028137e+03
2.829063e+03,3.020739e+03
2.830027e+03,3.006054e+03
2.830991e+03,2.978416e+03
2.831955e+03,2.966653e+03
2.832919e+03,3.006266e+03
2.833884e+03,3.021565e+03
2.834848e+03,3.003263e+03
2.835812e+03,3.001046e+03
2.836776e+03,3.015945e+03
2.837741e+03,2.977735e+03
2.838705e+03,2.942254e+03
2.839669e+03,2.973938e+03
2.840633e+03,3.008953e+03
2.841598e+03,3.013112e+03
2.842562e+03,3.013056e+03
2.843526e+03,3.017038e+03
2.844490e+03,3.019513e+03
2.845455e+03,3.015089e+03
2.846419e+03,2.995784e+03
2.847383e+03,2.979039e+03
2.848347e+03,2.986834e+03
2.849312e+03,2.997531e+03
2.850276e+03,3.006138e+03
2.851240e+03,2.998481e+03
2.852204e+03,2.979176e+03
2.853168e+03,2.990378e+03
2.854133e+03,3.011691e+03
2.855097e+03,3.025016e+03
2.856061e+03,3.023767e+03
2.857025e+03,3.004502e+03
2.857990e+03,2.984254e+03
2.858954e+03,2.969324e+03
2.859918e+03,2.956677e+03
2.860882e+03,2.949543e+03
2.861846e+03,2.951920e+03
2.862811e+03,2.955276e+03
2.863775e+03,2.950876e+03
2.864739e+03,2.946673e+03
2.865703e+03,2.944675e+03
2.866668e+03,2.956512e+03
2.867632e+03,2.971708e+03
2.868596e+03,2.957953e+03
2.869560e+03,2.935290e+03
2.870525e+03,2.923524e+03
2.871489e+03,2.936630e+03
2.872453e+03,2.975385e+03
2.873417e+03,2.988943e+03
2.874382e+03,2.974809e+03
2.875346e+03,2.952846e+03
2.876310e+03,2.935016e+03
2.877274e+03,2.924844e+03
2.878239e+03,2.936381e+03
2.879203e+03,2.970940e+03
2.880167e+03,2.978972e+03
2.881131e+03,2.947667e+03
2.882095e+03,2.941153e+03
2.883060e+03,2.952313e+03
2.884024e+03,2.967108e+03
2.884988e+03,2.975144e+03
2.885952e+03,2.962988e+03
2.886917e+03,2.957102e+03
2.887881e+03,2.967434e+03
2.888845e+03,2.985120e+03
2.889809e+03,2.998281e+03
2.890773e+03,2.969223e+03
2.891738e+03,2.935915e+03
2.892702e+03,2.957255e+03
2.893666e+03,2.966853e+03
2.894630e+03,2.952645e+03
2.895595e+03,2.927542e+03
2.896559e+03,2.899067e+03
2.897523e+03,2.887312e+03
2.898487e+03,2.891059e+03
2.899452e+03,2.921935e+03
2.900416e+03,2.936795e+03
2.901380e+03,2.926874e+03
2.902344e+03,2.925059e+03
2.903309e+03,2.933558e+03
2.904273e+03,2.917236e+03
2.905237e+03,2.886790e+03
2.906201e+03,2.846934e+03
2.907166e+03,2.834448e+03
2.908130e+03,2.863433e+03
2.909094e+03,2.895390e+03
2.910058e+03,2.919267e+03
2.911022e+03,2.915185e+03
2.911987e+03,2.892908e+03
2.912951e+03,2.858877e+03
2.913915e+03,2.834528e+03
2.914879e+03,2.834088e+03
2.915844e+03,2.857323e+03
2.916808e+03,2.896817e+03
2.917772e+03,2.898565e+03
2.918736e+03,2.880449e+03
2.919700e+03,2.866897e+03
2.920665e+03,2.853642e+03
2.921629e+03,2.825482e+03
2.922593e+03,2.847052e+03
2.923557e+03,2.903804e+03
2.924522e+03,2.903745e+03
2.925486e+03,2.871614e+03
2.926450e+03,2.858176e+03
2.927414e+03,2.860517e+03
2.928379e+03,2.884576e+03
2.929343e+03,2.892003e+03
2.930307e+03,2.881178e+03
2.931271e+03,2.863175e+03
2.932236e+03,2.849941e+03
2.933200e+03,2.859988e+03
2.934164e+03,2.876426e+03
2.935128e+03,2.890718e+03
2.936093e+03,2.878928e+03
2.937057e+03,2.848599e+03
2.938021e+03,2.833354e+03
2.938985e+03,2.831222e+03
2.939949e+03,2.835217e+03
2.940914e+03,2.838115e+03
2.941878e+03,2.838962e+03
2.942842e+03,2.829060e+03
2.943806e+03,2.805246e+03
2.944771e+03,2.801273e+03
2.945735e+03,2.808477e+03
2.946699e+03,2.814458e+03
2.947663e+03,2.820013e+03
2.948627e+03,2.821782e+03
2.949592e+03,2.820522e+03
2.950556e+03,2.819077e+03
2.951520e+03,2.817676e+03
2.952484e+03,2.813723e+03
2.953449e+03,2.807454e+03
2.954413e+03,2.801234e+03
2.955377e+03,2.798541e+03
2.956341e+03,2.817804e+03
2.957306e+03,2.849757e+03
2.958270e+03,2.834729e+03
2.959234e+03,2.808407e+03
2.960198e+03,2.808175e+03
2.961163e+03,2.810999e+03
2.962127e+03,2.798094e+03
2.963091e+03,2.796824e+03
2.964055e+03,2.798894e+03
2.965020e+03,2.784840e+03
2.965984e+03,2.772032e+03
2.966948e+03,2.769340e+03
2.967912e+03,2.763590e+03
2.968876e+03,2.748999e+03
2.969841e+03,2.727240e+03
2.970805e+03,2.710847e+03
2.971769e+03,2.726059e+03
2.972733e+03,2.748771e+03
2.973698e+03,2.762257e+03
2.974662e+03,2.768533e+03
2.975626e+03,2.767140e+03
2.976590e+03,2.755666e+03
2.977554e+03,2.752405e+03
2.978519e+03,2.782018e+03
2.979483e+03,2.796862e+03
2.980447e+03,2.762543e+03
2.981411e+03,2.745751e+03
2.982376e+03,2.752218e+03
2.983340e+03,2.730781e+03
2.984304e+03,2.712689e+03
2.985268e+03,2.733083e+03
2.986233e+03,2.742539e+03
2.987197e+03,2.708135e+03
2.988161e+03,2.710727e+03
2.989125e+03,2.737115e+03
2.990090e+03,2.724501e+03
2.991054e+03,2.703755e+03
2.992018e+03,2.699376e+03
2.992982e+03,2.700676e+03
2.993947e+03,2.707840e+03
2.994911e+03,2.743077e+03
2.995875e+03,2.778081e+03
2.996839e+03,2.764513e+03
2.997803e+03,2.722283e+03
2.998768e+03,2.664323e+03
2.999732e+03,2.646341e+03
3.000696e+03,2.680652e+03
3.001660e+03,2.706987e+03
3.002625e+03,2.713617e+03
3.003589e+03,2.692934e+03
3.004553e+03,2.678629e+03
3.005517e+03,2.689502e+03
3.006481e+03,2.696844e+03
3.007446e+03,2.696171e+03
3.008410e+03,2.694810e+03
3.009374e+03,2.696976e+03
3.010338e+03,2.707794e+03
3.011303e+03,2.723333e+03
3.012267e+03,2.737293e+03
3.013231e+03,2.703625e+03
3.014195e+03,2.651980e+03
3.015160e+03,2.633552e+03
3.016124e+03,2.632487e+03
3.017088e+03,2.638131e+03
3.018052e+03,2.658828e+03
3.019017e+03,2.686368e+03
3.019981e+03,2.662733e+03
3.020945e+03,2.638334e+03
3.021909e+03,2.659291e+03
3.022874e+03,2.674567e+03
3.023838e+03,2.671878e+03
3.024802e+03,2.656822e+03
3.025766e+03,2.644519e+03
3.026730e+03,2.676871e+03
3.027695e+03,2.699100e+03
3.028659e+03,2.688798e+03
3.029623e+03,2.682037e+03
3.030587e+03,2.682149e+03
3.031552e+03,2.668772e+03
3.032516e+03,2.650373e+03
3.033480e+03,2.643744e+03
3.034444e+03,2.635342e+03
3.035408e+03,2.624532e+03
3.036373e+03,2.621161e+03
3.037337e+03,2.619613e+03
3.038301e+03,2.599425e+03
3.039265e+03,2.592977e+03
3.040230e+03,2.629411e+03
3.041194e+03,2.641737e+03
3.042158e+03,2.632555e+03
3.043122e+03,2.625501e+03
3.044087e+03,2.627587e+03
3.045051e+03,2.645675e+03
3.046015e+03,2.666648e+03
3.046979e+03,2.689281e+03
3.047944e+03,2.674803e+03
3.048908e+03,2.650310e+03
3.049872e+03,2.657042e+03
3.050836e+03,2.659010e+03
3.051801e+03,2.625828e+03
3.052765e+03,2.628744e+03
3.053729e+03,2.659087e+03
3.054693e+03,2.637527e+03
3.055657e+03,2.620052e+03
3.056622e+03,2.643961e+03
3.057586e+03,2.645849e+03
3.058550e+03,2.609461e+03
3.059514e+03,2.627603e+03
3.060479e+03,2.661908e+03
3.061443e+03,2.623911e+03
3.062407e+03,2.616145e+03
3.063371e+03,2.660000e+03
3.064335e+03,2.636508e+03
3.065300e+03,2.567099e+03
3.066264e+03,2.595052e+03
3.067228e+03,2.634274e+03
3.068192e+03,2.627552e+03
3.069157e+03,2.620820e+03
3.070121e+03,2.621440e+03
3.071085e+03,2.635812e+03
3.072049e+03,2.646522e+03
3.073014e+03,2.618597e+03
3.073978e+03,2.604132e+03
3.074942e+03,2.613530e+03
3.075906e+03,2.627210e+03
3.076871e+03,2.637153e+03
3.077835e+03,2.632948e+03
3.078799e+03,2.618028e+03
3.079763e+03,2.586955e+03
3.080728e+03,2.591656e+03
3.081692e+03,2.620500e+03
3.082656e+03,2.611808e+03
3.083620e+03,2.587177e+03
3.084584e+03,2.560526e+03
3.085549e+03,2.586859e+03
3.086513e+03,2.671560e+03
3.087477e+03,2.663298e+03
3.088441e+03,2.626097e+03
3.089406e+03,2.638069e+03
3.090370e+03,2.632042e+03
3.091334e+03,2.603412e+03
3.092298e+03,2.616130e+03
3.093262e+03,2.646465e+03
3.094227e+03,2.643536e+03
3.095191e+03,2.630316e+03
3.096155e+03,2.612878e+03
3.097119e+03,2.599281e+03
3.098084e+03,2.592993e+03
3.099048e+03,2.595651e+03
3.100012e+03,2.598474e+03
3.100976e+03,2.594438e+03
3.101941e+03,2.596243e+03
3.102905e+03,2.602065e+03
3.103869e+03,2.587015e+03
3.104833e+03,2.578500e+03
3.105798e+03,2.596425e+03
3.106762e+03,2.580712e+03
3.107726e+03,2.529588e+03
3.108690e+03,2.574289e+03
3.109655e+03,2.626473e+03
3.110619e+03,2.548958e+03
3.111583e+03,2.535914e+03
3.112547e+03,2.598879e+03
3.113511e+03,2.570149e+03
3.114476e+03,2.504522e+03
3.115440e+03,2.557170e+03
3.116404e+03,2.584025e+03
3.117368e+03,2.528739e+03
3.118333e+03,2.531594e+03
3.119297e+03,2.558956e+03
3.120261e+03,2.540524e+03
3.121225e+03,2.551458e+03
3.122189e+03,2.634551e+03
3.123154e+03,2.653922e+03
3.124118e+03,2.607979e+03
3.125082e+03,2.544159e+03
3.126046e+03,2.529004e+03
3.127011e+03,2.588323e+03
3.127975e+03,2.607849e+03
3.128939e+03,2.584465e+03
3.129903e+03,2.556932e+03
3.130868e+03,2.540694e+03
3.131832e+03,2.553964e+03
3.132796e+03,2.566927e+03
3.133760e+03,2.579032e+03
3.134725e+03,2.610284e+03
3.135689e+03,2.626842e+03
3.136653e+03,2.595706e+03
3.137617e+03,2.561754e+03
3.138582e+03,2.539302e+03
3.139546e+03,2.540110e+03
3.140510e+03,2.564509e+03
3.141474e+03,2.636233e+03
3.142438e+03,2.614518e+03
3.143403e+03,2.506826e+03
3.144367e+03,2.517428e+03
3.145331e+03,2.580942e+03
3.146295e+03,2.591274e+03
3.147260e+03,2.586800e+03
3.148224e+03,2.571732e+03
3.149188e+03,2.593515e+03
3.150152e+03,2.611345e+03
3.151116e+03,2.568739e+03
3.152081e+03,2.527053e+03
3.153045e+03,2.507522e+03
3.154009e+03,2.546387e+03
3.154973e+03,2.600198e+03
3.155938e+03,2.561290e+03
3.156902e+03,2.525728e+03
3.157866e+03,2.519467e+03
3.158830e+03,2.555730e+03
3.159795e+03,2.605258e+03
3.160759e+03,2.580631e+03
3.161723e+03,2.541172e+03
3.162687e+03,2.510710e+03
3.163652e+03,2.500802e+03
3.164616e+03,2.515616e+03
3.165580e+03,2.550653e+03
3.166544e+03,2.590002e+03
3.167509e+03,2.627362e+03
3.168473e+03,2.603680e+03
3.169437e+03,2.544512e+03
3.170401e+03,2.539289e+03
3.171365e+03,2.537875e+03
3.172330e+03,2.520509e+03
3.173294e+03,2.515972e+03
3.174258e+03,2.520940e+03
3.175222e+03,2.524701e+03
3.176187e+03,2.514144e+03
3.177151e+03,2.480760e+03
3.178115e+03,2.508118e+03
3.179079e+03,2.571182e+03
3.180043e+03,2.564796e+03
3.181008e+03,2.574100e+03
3.181972e+03,2.630944e+03
3.182936e+03,2.600153e+03
3.183900e+03,2.515586e+03
3.184865e+03,2.510518e+03
3.185829e+03,2.523346e+03
3.186793e+03,2.539825e+03
3.187757e+03,2.537323e+03
3.188722e+03,2.523262e+03
3.189686e+03,2.510157e+03
3.190650e+03,2.529589e+03
3.191614e+03,2.584115e+03
3.192579e+03,2.570843e+03
3.193543e+03,2.509859e+03
3.194507e+03,2.464110e+03
3.195471e+03,2.465496e+03
3.196436e+03,2.531684e+03
3.197400e+03,2.542690e+03
3.198364e+03,2.530563e+03
3.199328e+03,2.567211e+03
3.200292e+03,2.581304e+03
3.201257e+03,0.000000e+00
3.202221e+03,0.000000e+00
3.203185e+03,0.000000e+00
3.204149e+03,0.000000e+00
3.205114e+03,0.000000e+00
3.206078e+03,0.000000e+00
3.207042e+03,0.000000e+00
3.208006e+03,0.000000e+00
3.208970e+03,0.000000e+00
3.209935e+03,0.000000e+00
3.210899e+03,0.000000e+00
3.211863e+03,0.000000e+00
3.212827e+03,0.000000e+00
3.213792e+03,0.000000e+00
3.214756e+03,0.000000e+00
3.215720e+03,0.000000e+00
3.216684e+03,0.000000e+00
3.217649e+03,0.000000e+00
3.218613e+03,0.000000e+00
3.219577e+03,0.000000e+00
3.220541e+03,0.000000e+00
3.221506e+03,0.000000e+00
3.222470e+03,0.000000e+00
3.223434e+03,0.000000e+00
3.224398e+03,0.000000e+00
3.225363e+03,0.000000e+00
3.226327e+03,0.000000e+00
3.227291e+03,0.000000e+00
3.228255e+03,0.000000e+00
3.229219e+03,0.000000e+00
3.230184e+03,0.000000e+00
3.231148e+03,0.000000e+00
3.232112e+03,0.000000e+00
3.233076e+03,0.000000e+00
3.234041e+03,0.000000e+00
3.235005e+03,0.000000e+00
3.235969e+03,0.000000e+00
3.236933e+03,0.000000e+00
3.237897e+03,0.000000e+00
3.238862e+03,0.000000e+00
3.239826e+03,0.000000e+00
3.240790e+03,0.000000e+00
3.241754e+03,0.000000e+00
3.242719e+03,0.000000e+00
3.243683e+03,0.000000e+00
3.244647e+03,0.000000e+00
3.245611e+03,0.000000e+00
3.246576e+03,0.000000e+00
3.247540e+03,0.000000e+00
3.248504e+03,0.000000e+00
3.249468e+03,0.000000e+00
3.250433e+03,0.000000e+00
3.251397e+03,0.000000e+00
3.252361e+03,0.000000e+00
3.253325e+03,0.000000e+00
3.254290e+03,0.000000e+00
3.255254e+03,0.000000e+00
3.256218e+03,0.000000e+00
3.257182e+03,0.000000e+00
3.258146e+03,0.000000e+00
3.259111e+03,0.000000e+00
3.260075e+03,0.000000e+00
3.261039e+03,0.000000e+00
3.262003e+03,0.000000e+00
3.262968e+03,0.000000e+00
3.263932e+03,0.000000e+00
3.264896e+03,0.000000e+00
3.265860e+03,0.000000e+00
3.266824e+03,0.000000e+00
3.267789e+03,0.000000e+00
3.268753e+03,0.000000e+00
3.269717e+03,0.000000e+00
3.270681e+03,0.000000e+00
3.271646e+03,0.000000e+00
3.272610e+03,0.000000e+00
3.273574e+03,0.000000e+00
3.274538e+03,0.000000e+00
3.275503e+03,0.000000e+00
3.276467e+03,0.000000e+00
3.277431e+03,0.000000e+00
3.278395e+03,0.000000e+00
3.279360e+03,0.000000e+00
3.280324e+03,0.000000e+00
3.281288e+03,0.000000e+00
3.282252e+03,0.000000e+00
3.283217e+03,0.000000e+00
3.284181e+03,0.000000e+00
3.285145e+03,0.000000e+00
3.286109e+03,0.000000e+00
3.287073e+03,0.000000e+00
3.288038e+03,0.000000e+00
3.289002e+03,0.000000e+00
3.289966e+03,0.000000e+00
3.290930e+03,0.000000e+00
3.291895e+03,0.000000e+00
3.292859e+03,0.000000e+00
3.293823e+03,0.000000e+00
3.294787e+03,0.000000e+00
3.295751e+03,0.000000e+00
3.296716e+03,0.000000e+00
3.297680e+03,0.000000e+00
3.298644e+03,0.000000e+00
3.299608e+03,0.000000e+00
3.300573e+03,0.000000e+00
3.301537e+03,0.000000e+00
3.302501e+03,0.000000e+00
3.303465e+03,0.000000e+00
3.304430e+03,0.000000e+00
3.305394e+03,0.000000e+00
3.306358e+03,0.000000e+00
3.307322e+03,0.000000e+00
3.308287e+03,0.000000e+00
3.309251e+03,0.000000e+00
3.310215e+03,0.000000e+00
3.311179e+03,0.000000e+00
3.312144e+03,0.000000e+00
3.313108e+03,0.000000e+00
3.314072e+03,0.000000e+00
3.315036e+03,0.000000e+00
3.316000e+03,0.000000e+00
3.316965e+03,0.000000e+00
3.317929e+03,0.000000e+00
3.318893e+03,0.000000e+00
3.319857e+03,0.000000e+00
3.320822e+03,0.000000e+00
3.321786e+03,0.000000e+00
3.322750e+03,0.000000e+00
3.323714e+03,0.000000e+00
3.324678e+03,0.000000e+00
3.325643e+03,0.000000e+00
3.326607e+03,0.000000e+00
3.327571e+03,0.000000e+00
3.328535e+03,0.000000e+00
3.329500e+03,0.000000e+00
3.330464e+03,0.000000e+00
3.331428e+03,0.000000e+00
3.332392e+03,0.000000e+00
3.333357e+03,0.000000e+00
3.334321e+03,0.000000e+00
3.335285e+03,0.000000e+00
3.336249e+03,0.000000e+00
3.337214e+03,0.000000e+00
3.338178e+03,0.000000e+00
3.339142e+03,0.000000e+00
3.340106e+03,0.000000e+00
3.341071e+03,0.000000e+00
3.342035e+03,0.000000e+00
3.342999e+03,0.000000e+00
3.343963e+03,0.000000e+00
3.344927e+03,0.000000e+00
3.345892e+03,0.000000e+00
3.346856e+03,0.000000e+00
3.347820e+03,0.000000e+00
3.348784e+03,0.000000e+00
3.349749e+03,0.000000e+00
3.350713e+03,0.000000e+00
3.351677e+03,0.000000e+00
3.352641e+03,0.000000e+00
3.353605e+03,0.000000e+00
3.354570e+03,0.000000e+00
3.355534e+03,0.000000e+00
3.356498e+03,0.000000e+00
3.357462e+03,0.000000e+00
3.358427e+03,0.000000e+00
3.359391e+03,0.000000e+00
3.360355e+03,0.000000e+00
3.361319e+03,0.000000e+00
3.362284e+03,0.000000e+00
3.363248e+03,0.000000e+00
3.364212e+03,0.000000e+00
3.365176e+03,0.000000e+00
3.366141e+03,0.000000e+00
3.367105e+03,0.000000e+00
3.368069e+03,0.000000e+00
3.369033e+03,0.000000e+00
3.369998e+03,0.000000e+00
3.370962e+03,0.000000e+00
3.371926e+03,0.000000e+00
3.372890e+03,0.000000e+00
3.373854e+03,0.000000e+00
3.374819e+03,0.000000e+00
3.375783e+03,0.000000e+00
3.376747e+03,0.000000e+00
3.377711e+03,0.000000e+00
3.378676e+03,0.000000e+00
3.379640e+03,0.000000e+00
3.380604e+03,0.000000e+00
3.381568e+03,0.000000e+00
3.382532e+03,0.000000e+00
3.383497e+03,0.000000e+00
3.384461e+03,0.000000e+00
3.385425e+03,0.000000e+00
3.386389e+03,0.000000e+00
3.387354e+03,0.000000e+00
3.388318e+03,0.000000e+00
3.389282e+03,0.000000e+00
3.390246e+03,0.000000e+00
3.391211e+03,0.000000e+00
3.392175e+03,0.000000e+00
3.393139e+03,0.000000e+00
3.394103e+03,0.000000e+00
3.395068e+03,0.000000e+00
3.396032e+03,0.000000e+00
3.396996e+03,0.000000e+00
3.397960e+03,0.000000e+00
3.398925e+03,0.000000e+00
3.399889e+03,0.000000e+00
3.400853e+03,0.000000e+00
3.401817e+03,0.000000e+00
3.402781e+03,0.000000e+00
3.403746e+03,0.000000e+00
3.404710e+03,0.000000e+00
3.405674e+03,0.000000e+00
3.406638e+03,0.000000e+00
3.407603e+03,0.000000e+00
3.408567e+03,0.000000e+00
3.409531e+03,0.000000e+00
3.410495e+03,0.000000e+00
3.411459e+03,0.000000e+00
3.412424e+03,0.000000e+00
3.413388e+03,0.000000e+00
3.414352e+03,0.000000e+00
3.415316e+03,0.000000e+00
3.416281e+03,0.000000e+00
3.417245e+03,0.000000e+00
3.418209e+03,0.000000e+00
3.419173e+03,0.000000e+00
3.420138e+03,0.000000e+00
3.421102e+03,0.000000e+00
3.422066e+03,0.000000e+00
3.423030e+03,0.000000e+00
3.423995e+03,0.000000e+00
3.424959e+03,0.000000e+00
3.425923e+03,0.000000e+00
3.426887e+03,0.000000e+00
3.427852e+03,0.000000e+00
3.428816e+03,0.000000e+00
3.429780e+03,0.000000e+00
3.430744e+03,0.000000e+00
3.431708e+03,0.000000e+00
3.432673e+03,0.000000e+00
3.433637e+03,0.000000e+00
3.434601e+03,0.000000e+00
3.435565e+03,0.000000e+00
3.436530e+03,0.000000e+00
3.437494e+03,0.000000e+00
3.438458e+03,0.000000e+00
3.439422e+03,0.000000e+00
3.440386e+03,0.000000e+00
3.441351e+03,0.000000e+00
3.442315e+03,0.000000e+00
3.443279e+03,0.000000e+00
3.444243e+03,0.000000e+00
3.445208e+03,0.000000e+00
3.446172e+03,0.000000e+00
3.447136e+03,0.000000e+00
3.448100e+03,0.000000e+00
3.449065e+03,0.000000e+00
3.450029e+03,0.000000e+00
3.450993e+03,0.000000e+00
3.451957e+03,0.000000e+00
3.452922e+03,0.000000e+00
3.453886e+03,0.000000e+00
3.454850e+03,0.000000e+00
3.455814e+03,0.000000e+00
3.456779e+03,0.000000e+00
3.457743e+03,0.000000e+00
3.458707e+03,0.000000e+00
3.459671e+03,0.000000e+00
3.460635e+03,0.000000e+00
3.461600e+03,0.000000e+00
3.462564e+03,0.000000e+00
3.463528e+03,0.000000e+00
3.464492e+03,0.000000e+00
3.465457e+03,0.000000e+00
3.466421e+03,0.000000e+00
3.467385e+03,0.000000e+00
3.468349e+03,0.000000e+00
3.469313e+03,0.000000e+00
3.470278e+03,0.000000e+00
3.471242e+03,0.000000e+00
3.472206e+03,0.000000e+00
3.473170e+03,0.000000e+00
3.474135e+03,0.000000e+00
3.475099e+03,0.000000e+00
3.476063e+03,0.000000e+00
3.477027e+03,0.000000e+00
3.477992e+03,0.000000e+00
3.478956e+03,0.000000e+00
3.479920e+03,0.000000e+00
3.480884e+03,0.000000e+00
3.481849e+03,0.000000e+00
3.482813e+03,0.000000e+00
3.483777e+03,0.000000e+00
3.484741e+03,0.000000e+00
3.485706e+03,0.000000e+00
3.486670e+03,0.000000e+00
3.487634e+03,0.000000e+00
3.488598e+03,0.000000e+00
3.489563e+03,0.000000e+00
3.490527e+03,0.000000e+00
3.491491e+03,0.000000e+00
3.492455e+03,0.000000e+00
3.493419e+03,0.000000e+00
3.494384e+03,0.000000e+00
3.495348e+03,0.000000e+00
3.496312e+03,0.000000e+00
3.497276e+03,0.000000e+00
3.498240e+03,0.000000e+00
3.499205e+03,0.000000e+00
3.500169e+03,0.000000e+00
