9.931763e+01,0.000000e+00
1.002819e+02,0.000000e+00
1.012461e+02,0.000000e+00
1.022103e+02,0.000000e+00
1.031746e+02,0.000000e+00
1.041388e+02,0.000000e+00
1.051030e+02,0.000000e+00
1.060673e+02,0.000000e+00
1.070315e+02,0.000000e+00
1.079957e+02,0.000000e+00
1.089600e+02,0.000000e+00
1.099242e+02,0.000000e+00
1.108884e+02,0.000000e+00
1.118527e+02,0.000000e+00
1.128169e+02,0.000000e+00
1.137811e+02,0.000000e+00
1.147454e+02,0.000000e+00
1.157096e+02,0.000000e+00
1.166738e+02,0.000000e+00
1.176381e+02,0.000000e+00
1.186023e+02,0.000000e+00
1.195665e+02,0.000000e+00
1.205308e+02,0.000000e+00
1.214950e+02,0.000000e+00
1.224592e+02,0.000000e+00
1.234235e+02,0.000000e+00
1.243877e+02,0.000000e+00
1.253519e+02,0.000000e+00
1.263162e+02,0.000000e+00
1.272804e+02,0.000000e+00
1.282446e+02,0.000000e+00
1.292089e+02,0.000000e+00
1.301731e+02,0.000000e+00
1.311373e+02,0.000000e+00
1.321016e+02,0.000000e+00
1.330658e+02,0.000000e+00
1.340300e+02,0.000000e+00
1.349943e+02,0.000000e+00
1.359585e+02,0.000000e+00
1.369227e+02,0.000000e+00
1.378870e+02,0.000000e+00
1.388512e+02,0.000000e+00
1.398154e+02,0.000000e+00
1.407797e+02,0.000000e+00
1.417439e+02,0.000000e+00
1.427081e+02,0.000000e+00
1.436724e+02,0.000000e+00
1.446366e+02,0.000000e+00
1.456008e+02,0.000000e+00
1.465651e+02,0.000000e+00
1.475293e+02,0.000000e+00
1.484935e+02,0.000000e+00
1.494578e+02,0.000000e+00
1.504220e+02,0.000000e+00
1.513862e+02,0.000000e+00
1.523505e+02,0.000000e+00
1.533147e+02,0.000000e+00
1.542789e+02,0.000000e+00
1.552432e+02,0.000000e+00
1.562074e+02,0.000000e+00
1.571716e+02,0.000000e+00
1.581359e+02,0.000000e+00
1.591001e+02,0.000000e+00
1.600643e+02,0.000000e+00
1.610286e+02,0.000000e+00
1.619928e+02,0.000000e+00
1.629570e+02,0.000000e+00
1.639213e+02,0.000000e+00
1.648855e+02,0.000000e+00
1.658497e+02,0.000000e+00
1.668140e+02,0.000000e+00
1.677782e+02,0.000000e+00
1.687424e+02,0.000000e+00
1.697067e+02,0.000000e+00
1.706709e+02,0.000000e+00
1.716351e+02,0.000000e+00
1.725994e+02,0.000000e+00
1.735636e+02,0.000000e+00
1.745278e+02,0.000000e+00
1.754921e+02,0.000000e+00
1.764563e+02,0.000000e+00
1.774205e+02,0.000000e+00
1.783848e+02,0.000000e+00
1.793490e+02,0.000000e+00
1.803132e+02,0.000000e+00
1.812775e+02,0.000000e+00
1.822417e+02,0.000000e+00
1.832059e+02,0.000000e+00
1.841702e+02,0.000000e+00
1.851344e+02,0.000000e+00
1.860986e+02,0.000000e+00
1.870629e+02,0.000000e+00
1.880271e+02,0.000000e+00
1.889913e+02,0.000000e+00
1.899556e+02,0.000000e+00
1.909198e+02,0.000000e+00
1.918840e+02,0.000000e+00
1.928483e+02,0.000000e+00
1.938125e+02,0.000000e+00
1.947767e+02,0.000000e+00
1.957410e+02,0.000000e+00
1.967052e+02,0.000000e+00
1.976694e+02,0.000000e+00
1.986337e+02,0.000000e+00
1.995979e+02,1.046964e+04
2.005621e+02,1.047981e+04
2.015264e+02,1.049152e+04
2.024906e+02,1.050564e+04
2.034548e+02,1.052034e+04
2.044191e+02,1.053340e+04
2.053833e+02,1.054303e+04
2.063475e+02,1.054905e+04
2.073118e+02,1.055229e+04
2.082760e+02,1.055275e+04
2.092402e+02,1.055023e+04
2.102045e+02,1.054658e+04
2.111687e+02,1.054622e+04
2.121329e+02,1.055114e+04
2.130972e+02,1.056043e+04
2.140614e+02,1.057110e+04
2.150256e+02,1.057994e+04
2.159899e+02,1.058612e+04
2.169541e+02,1.059435e+04
2.179183e+02,1.060919e+04
2.188826e+02,1.062824e+04
2.198468e+02,1.064671e+04
2.208110e+02,1.066058e+04
2.217753e+02,1.066859e+04
2.227395e+02,1.067257e+04
2.237037e+02,1.067718e+04
2.246680e+02,1.068221e+04
2.256322e+02,1.068503e+04
2.265964e+02,1.068749e+04
2.275607e+02,1.069241e+04
2.285249e+02,1.070199e+04
2.294892e+02,1.071674e+04
2.304534e+02,1.073503e+04
2.314176e+02,1.075159e+04
2.323819e+02,1.076485e+04
2.333461e+02,1.077655e+04
2.343103e+02,1.078854e+04
2.352746e+02,1.080180e+04
2.362388e+02,1.081599e+04
2.372030e+02,1.082920e+04
2.381673e+02,1.083688e+04
2.391315e+02,1.083789e+04
2.400957e+02,1.083586e+04
2.410600e+02,1.083374e+04
2.420242e+02,1.083454e+04
2.429884e+02,1.084039e+04
2.439527e+02,1.085114e+04
2.449169e+02,1.086350e+04
2.458811e+02,1.087555e+04
2.468454e+02,1.088743e+04
2.478096e+02,1.089928e+04
2.487738e+02,1.091119e+04
2.497381e+02,1.092293e+04
2.507023e+02,1.093465e+04
2.516665e+02,1.094691e+04
2.526308e+02,1.095972e+04
2.535950e+02,1.096986e+04
2.545592e+02,1.097477e+04
2.555235e+02,1.097477e+04
2.564877e+02,1.097263e+04
2.574519e+02,1.097223e+04
2.584161e+02,1.097703e+04
2.593804e+02,1.098841e+04
2.603446e+02,1.100378e+04
2.613088e+02,1.102015e+04
2.622731e+02,1.103721e+04
2.632373e+02,1.105639e+04
2.642015e+02,1.107444e+04
2.651658e+02,1.108670e+04
2.661300e+02,1.109058e+04
2.670942e+02,1.108804e+04
2.680585e+02,1.108704e+04
2.690227e+02,1.109171e+04
2.699869e+02,1.109620e+04
2.709512e+02,1.109492e+04
2.719154e+02,1.108782e+04
2.728796e+02,1.108008e+04
2.738439e+02,1.107831e+04
2.748081e+02,1.108591e+04
2.757723e+02,1.110038e+04
2.767366e+02,1.111288e+04
2.777008e+02,1.111924e+04
2.786650e+02,1.112165e+04
2.796293e+02,1.112388e+04
2.805935e+02,1.112690e+04
2.815577e+02,1.112872e+04
2.825220e+02,1.112699e+04
2.834862e+02,1.112299e+04
2.844504e+02,1.112197e+04
2.854147e+02,1.113358e+04
2.863789e+02,1.113916e+04
2.873431e+02,1.113097e+04
2.883074e+02,1.111635e+04
2.892716e+02,1.110748e+04
2.902358e+02,1.110997e+04
2.912001e+02,1.112244e+04
2.921643e+02,1.112728e+04
2.931285e+02,1.111966e+04
2.940928e+02,1.111439e+04
2.950570e+02,1.111821e+04
2.960212e+02,1.112855e+04
2.969855e+02,1.113755e+04
2.979497e+02,1.113794e+04
2.989139e+02,1.112784e+04
2.998782e+02,1.112011e+04
3.008424e+02,1.112069e+04
3.018066e+02,1.112731e+04
3.027709e+02,1.113531e+04
3.037351e+02,1.114158e+04
3.046993e+02,1.114510e+04
3.056636e+02,1.114583e+04
3.066278e+02,1.114400e+04
3.075920e+02,1.114450e+04
3.085563e+02,1.115396e+04
3.095205e+02,1.117000e+04
3.104847e+02,1.118134e+04
3.114490e+02,1.117421e+04
3.124132e+02,1.115551e+04
3.133774e+02,1.114329e+04
3.143417e+02,1.114104e+04
3.153059e+02,1.113906e+04
3.162701e+02,1.112827e+04
3.172344e+02,1.110823e+04
3.181986e+02,1.109226e+04
3.191628e+02,1.108787e+04
3.201271e+02,1.109109e+04
3.210913e+02,1.109314e+04
3.220555e+02,1.108871e+04
3.230198e+02,1.107861e+04
3.239840e+02,1.107363e+04
3.249482e+02,1.108266e+04
3.259125e+02,1.108647e+04
3.268767e+02,1.107549e+04
3.278409e+02,1.105377e+04
3.288052e+02,1.103244e+04
3.297694e+02,1.102155e+04
3.307336e+02,1.102316e+04
3.316979e+02,1.102275e+04
3.326621e+02,1.101684e+04
3.336263e+02,1.100884e+04
3.345906e+02,1.100308e+04
3.355548e+02,1.100394e+04
3.365190e+02,1.100695e+04
3.374833e+02,1.100350e+04
3.384475e+02,1.099163e+04
3.394117e+02,1.098245e+04
3.403760e+02,1.097769e+04
3.413402e+02,1.097507e+04
3.423044e+02,1.097172e+04
3.432687e+02,1.096012e+04
3.442329e+02,1.095088e+04
3.451971e+02,1.095673e+04
3.461614e+02,1.097508e+04
3.471256e+02,1.098564e+04
3.480898e+02,1.097386e+04
3.490541e+02,1.093291e+04
3.500183e+02,1.090396e+04
3.509825e+02,1.089668e+04
3.519468e+02,1.090096e+04
3.529110e+02,1.090782e+04
3.538752e+02,1.091268e+04
3.548395e+02,1.091421e+04
3.558037e+02,1.091353e+04
3.567680e+02,1.091148e+04
3.577322e+02,1.090614e+04
3.586964e+02,1.089705e+04
3.596607e+02,1.088974e+04
3.606249e+02,1.088779e+04
3.615891e+02,1.089135e+04
3.625534e+02,1.089302e+04
3.635176e+02,1.088251e+04
3.644818e+02,1.085981e+04
3.654461e+02,1.083586e+04
3.664103e+02,1.082181e+04
3.673745e+02,1.082075e+04
3.683388e+02,1.082381e+04
3.693030e+02,1.082150e+04
3.702672e+02,1.081567e+04
3.712315e+02,1.081177e+04
3.721957e+02,1.081006e+04
3.731599e+02,1.080825e+04
3.741242e+02,1.080674e+04
3.750884e+02,1.081747e+04
3.760526e+02,1.082487e+04
3.770169e+02,1.082351e+04
3.779811e+02,1.081682e+04
3.789453e+02,1.080784e+04
3.799096e+02,1.079674e+04
3.808738e+02,1.078405e+04
3.818380e+02,1.077602e+04
3.828023e+02,1.078664e+04
3.837665e+02,1.079280e+04
3.847307e+02,1.077975e+04
3.856950e+02,1.075504e+04
3.866592e+02,1.073642e+04
3.876234e+02,1.073651e+04
3.885877e+02,1.074956e+04
3.895519e+02,1.076048e+04
3.905161e+02,1.076804e+04
3.914804e+02,1.077000e+04
3.924446e+02,1.076315e+04
3.934088e+02,1.074767e+04
3.943731e+02,1.073560e+04
3.953373e+02,1.073392e+04
3.963015e+02,1.073581e+04
3.972658e+02,1.073057e+04
3.982300e+02,1.071508e+04
3.991942e+02,1.069728e+04
4.001585e+02,1.069048e+04
4.011227e+02,1.069751e+04
4.020869e+02,1.070514e+04
4.030512e+02,1.070867e+04
4.040154e+02,1.070778e+04
4.049796e+02,1.070589e+04
4.059439e+02,1.070582e+04
4.069081e+02,1.070572e+04
4.078723e+02,1.069808e+04
4.088366e+02,1.067489e+04
4.098008e+02,1.065021e+04
4.107650e+02,1.064106e+04
4.117293e+02,1.064715e+04
4.126935e+02,1.065229e+04
4.136577e+02,1.064799e+04
4.146220e+02,1.063990e+04
4.155862e+02,1.063798e+04
4.165504e+02,1.064532e+04
4.175147e+02,1.065578e+04
4.184789e+02,1.065907e+04
4.194431e+02,1.064587e+04
4.204074e+02,1.063540e+04
4.213716e+02,1.062999e+04
4.223358e+02,1.062636e+04
4.233001e+02,1.062127e+04
4.242643e+02,1.061406e+04
4.252285e+02,1.060611e+04
4.261928e+02,1.059824e+04
4.271570e+02,1.058950e+04
4.281212e+02,1.058567e+04
4.290855e+02,1.059218e+04
4.300497e+02,1.060332e+04
4.310139e+02,1.060808e+04
4.319782e+02,1.059735e+04
4.329424e+02,1.058397e+04
4.339066e+02,1.058256e+04
4.348709e+02,1.059305e+04
4.358351e+02,1.060534e+04
4.367993e+02,1.061144e+04
4.377636e+02,1.061342e+04
4.387278e+02,1.060346e+04
4.396920e+02,1.057269e+04
4.406563e+02,1.053912e+04
4.416205e+02,1.051227e+04
4.425847e+02,1.049429e+04
4.435490e+02,1.048461e+04
4.445132e+02,1.048780e+04
4.454774e+02,1.050981e+04
4.464417e+02,1.052370e+04
4.474059e+02,1.051543e+04
4.483701e+02,1.049458e+04
4.493344e+02,1.047515e+04
4.502986e+02,1.046052e+04
4.512628e+02,1.045048e+04
4.522271e+02,1.044784e+04
4.531913e+02,1.045066e+04
4.541555e+02,1.045029e+04
4.551198e+02,1.044130e+04
4.560840e+02,1.042421e+04
4.570482e+02,1.039984e+04
4.580125e+02,1.035654e+04
4.589767e+02,1.032598e+04
4.599409e+02,1.032139e+04
4.609052e+02,1.033595e+04
4.618694e+02,1.035114e+04
4.628336e+02,1.035634e+04
4.637979e+02,1.035228e+04
4.647621e+02,1.033842e+04
4.657263e+02,1.031187e+04
4.666906e+02,1.028604e+04
4.676548e+02,1.027046e+04
4.686190e+02,1.026566e+04
4.695833e+02,1.026067e+04
4.705475e+02,1.024897e+04
4.715117e+02,1.023423e+04
4.724760e+02,1.022225e+04
4.734402e+02,1.021552e+04
4.744044e+02,1.021438e+04
4.753687e+02,1.021942e+04
4.763329e+02,1.023844e+04
4.772971e+02,1.025202e+04
4.782614e+02,1.025652e+04
4.792256e+02,1.025554e+04
4.801898e+02,1.025272e+04
4.811541e+02,1.024858e+04
4.821183e+02,1.024142e+04
4.830826e+02,1.022662e+04
4.840468e+02,1.020277e+04
4.850110e+02,1.018056e+04
4.859753e+02,1.016951e+04
4.869395e+02,1.016996e+04
4.879037e+02,1.016289e+04
4.888680e+02,1.014453e+04
4.898322e+02,1.012431e+04
4.907964e+02,1.010658e+04
4.917607e+02,1.009253e+04
4.927249e+02,1.008196e+04
4.936891e+02,1.007508e+04
4.946534e+02,1.007180e+04
4.956176e+02,1.006784e+04
4.965818e+02,1.006253e+04
4.975461e+02,1.005801e+04
4.985103e+02,1.005551e+04
4.994745e+02,1.005415e+04
5.004388e+02,1.004838e+04
5.014030e+02,1.003675e+04
5.023672e+02,1.002243e+04
5.033315e+02,1.000935e+04
5.042957e+02,9.998392e+03
5.052599e+02,9.986263e+03
5.062242e+02,9.968138e+03
5.071884e+02,9.937985e+03
5.081526e+02,9.915331e+03
5.091169e+02,9.908587e+03
5.100811e+02,9.910417e+03
5.110453e+02,9.910515e+03
5.120095e+02,9.905828e+03
5.129738e+02,9.899412e+03
5.139380e+02,9.893918e+03
5.149022e+02,9.889685e+03
5.158665e+02,9.887142e+03
5.168307e+02,9.883923e+03
5.177949e+02,9.875119e+03
5.187592e+02,9.860060e+03
5.197234e+02,9.848689e+03
5.206876e+02,9.837590e+03
5.216519e+02,9.823750e+03
5.226161e+02,9.809058e+03
5.235803e+02,9.797214e+03
5.245446e+02,9.792300e+03
5.255088e+02,9.793029e+03
5.264730e+02,9.790791e+03
5.274373e+02,9.784721e+03
5.284015e+02,9.776661e+03
5.293657e+02,9.766068e+03
5.303300e+02,9.753420e+03
5.312942e+02,9.738813e+03
5.322584e+02,9.724998e+03
5.332227e+02,9.714584e+03
5.341869e+02,9.709385e+03
5.351511e+02,9.707612e+03
5.361154e+02,9.702784e+03
5.370796e+02,9.685221e+03
5.380438e+02,9.650791e+03
5.390081e+02,9.626369e+03
5.399723e+02,9.622149e+03
5.409365e+02,9.627538e+03
5.419008e+02,9.630019e+03
5.428650e+02,9.623993e+03
5.438292e+02,9.616689e+03
5.447935e+02,9.613411e+03
5.457577e+02,9.612165e+03
5.467219e+02,9.609220e+03
5.476862e+02,9.603479e+03
5.486504e+02,9.594601e+03
5.496146e+02,9.582167e+03
5.505789e+02,9.564471e+03
5.515431e+02,9.544696e+03
5.525073e+02,9.524975e+03
5.534716e+02,9.509712e+03
5.544358e+02,9.500355e+03
5.554000e+02,9.496826e+03
5.563643e+02,9.494024e+03
5.573285e+02,9.485280e+03
5.582927e+02,9.470703e+03
5.592570e+02,9.458534e+03
5.602212e+02,9.455949e+03
5.611854e+02,9.462062e+03
5.621497e+02,9.464927e+03
5.631139e+02,9.462412e+03
5.640781e+02,9.453534e+03
5.650424e+02,9.439728e+03
5.660066e+02,9.422488e+03
5.669708e+02,9.404011e+03
5.679351e+02,9.384311e+03
5.688993e+02,9.366377e+03
5.698635e+02,9.355751e+03
5.708278e+02,9.354015e+03
5.717920e+02,9.356955e+03
5.727562e+02,9.359114e+03
5.737205e+02,9.358796e+03
5.746847e+02,9.355035e+03
5.756489e+02,9.345429e+03
5.766132e+02,9.332292e+03
5.775774e+02,9.315713e+03
5.785416e+02,9.296632e+03
5.795059e+02,9.280907e+03
5.804701e+02,9.275215e+03
5.814343e+02,9.276795e+03
5.823986e+02,9.278093e+03
5.833628e+02,9.279159e+03
5.843270e+02,9.277768e+03
5.852913e+02,9.269641e+03
5.862555e+02,9.244043e+03
5.872197e+02,9.228214e+03
5.881840e+02,9.225243e+03
5.891482e+02,9.227907e+03
5.901124e+02,9.233062e+03
5.910767e+02,9.241037e+03
5.920409e+02,9.243870e+03
5.930051e+02,9.226811e+03
5.939694e+02,9.193411e+03
5.949336e+02,9.169408e+03
5.958978e+02,9.164938e+03
5.968621e+02,9.171456e+03
5.978263e+02,9.169753e+03
5.987905e+02,9.150697e+03
5.997548e+02,9.136837e+03
6.007190e+02,9.136282e+03
6.016832e+02,9.141393e+03
6.026475e+02,9.140880e+03
6.036117e+02,9.125925e+03
6.045759e+02,9.106199e+03
6.055402e+02,9.091420e+03
6.065044e+02,9.080359e+03
6.074686e+02,9.074087e+03
6.084329e+02,9.076715e+03
6.093971e+02,9.086271e+03
6.103613e+02,9.088573e+03
6.113256e+02,9.080897e+03
6.122899e+02,9.069306e+03
6.132541e+02,9.051491e+03
6.142183e+02,9.030521e+03
6.151826e+02,9.012010e+03
6.161468e+02,9.000982e+03
6.171110e+02,8.995891e+03
6.180753e+02,8.994810e+03
6.190395e+02,8.996390e+03
6.200037e+02,8.995167e+03
6.209680e+02,8.986524e+03
6.219322e+02,8.972285e+03
6.228964e+02,8.964900e+03
6.238607e+02,8.969869e+03
6.248249e+02,8.974590e+03
6.257891e+02,8.973419e+03
6.267534e+02,8.965045e+03
6.277176e+02,8.952525e+03
6.286818e+02,8.939325e+03
6.296461e+02,8.926280e+03
6.306103e+02,8.912157e+03
6.315745e+02,8.897811e+03
6.325388e+02,8.886667e+03
6.335030e+02,8.881080e+03
6.344672e+02,8.880034e+03
6.354315e+02,8.871344e+03
6.363957e+02,8.841579e+03
6.373599e+02,8.815296e+03
6.383242e+02,8.810337e+03
6.392884e+02,8.825234e+03
6.402526e+02,8.836007e+03
6.412169e+02,8.832188e+03
6.421811e+02,8.822246e+03
6.431453e+02,8.812333e+03
6.441096e+02,8.803381e+03
6.450738e+02,8.796421e+03
6.460380e+02,8.796717e+03
6.470023e+02,8.806559e+03
6.479665e+02,8.805254e+03
6.489307e+02,8.781493e+03
6.498950e+02,8.757373e+03
6.508592e+02,8.752791e+03
6.518234e+02,8.768699e+03
6.527877e+02,8.775943e+03
6.537519e+02,8.766105e+03
6.547161e+02,8.750441e+03
6.556804e+02,8.735970e+03
6.566446e+02,8.724438e+03
6.576088e+02,8.715537e+03
6.585731e+02,8.709372e+03
6.595373e+02,8.705567e+03
6.605015e+02,8.702671e+03
6.614658e+02,8.701410e+03
6.624300e+02,8.699136e+03
6.633942e+02,8.692240e+03
6.643585e+02,8.675038e+03
6.653227e+02,8.666956e+03
6.662869e+02,8.673494e+03
6.672512e+02,8.682133e+03
6.682154e+02,8.686534e+03
6.691796e+02,8.684527e+03
6.701439e+02,8.676999e+03
6.711081e+02,8.661027e+03
6.720723e+02,8.641006e+03
6.730366e+02,8.627876e+03
6.740008e+02,8.624723e+03
6.749650e+02,8.624123e+03
6.759293e+02,8.616733e+03
6.768935e+02,8.600232e+03
6.778577e+02,8.587511e+03
6.788220e+02,8.581263e+03
6.797862e+02,8.581902e+03
6.807504e+02,8.589119e+03
6.817147e+02,8.603008e+03
6.826789e+02,8.608190e+03
6.836431e+02,8.587283e+03
6.846074e+02,8.557009e+03
6.855716e+02,8.540069e+03
6.865358e+02,8.541712e+03
6.875001e+02,8.547740e+03
6.884643e+02,8.538229e+03
6.894285e+02,8.513746e+03
6.903928e+02,8.501214e+03
6.913570e+02,8.507596e+03
6.923212e+02,8.517855e+03
6.932855e+02,8.516307e+03
6.942497e+02,8.496723e+03
6.952139e+02,8.485306e+03
6.961782e+02,8.484180e+03
6.971424e+02,8.488011e+03
6.981066e+02,8.493225e+03
6.990709e+02,8.495917e+03
7.000351e+02,8.491370e+03
7.009993e+02,8.477492e+03
7.019636e+02,8.460126e+03
7.029278e+02,8.446898e+03
7.038920e+02,8.438493e+03
7.048563e+02,8.431300e+03
7.058205e+02,8.423583e+03
7.067847e+02,8.419113e+03
7.077490e+02,8.412957e+03
7.087132e+02,8.406709e+03
7.096774e+02,8.404818e+03
7.106417e+02,8.404978e+03
7.116059e+02,8.407044e+03
7.125701e+02,8.403255e+03
7.135344e+02,8.387858e+03
7.144986e+02,8.370949e+03
7.154628e+02,8.359843e+03
7.164271e+02,8.354884e+03
7.173913e+02,8.352756e+03
7.183555e+02,8.351146e+03
7.193198e+02,8.349646e+03
7.202840e+02,8.348996e+03
7.212482e+02,8.351429e+03
7.222125e+02,8.352469e+03
7.231767e+02,8.345425e+03
7.241409e+02,8.323745e+03
7.251052e+02,8.305360e+03
7.260694e+02,8.287055e+03
7.270336e+02,8.273691e+03
7.279979e+02,8.273407e+03
7.289621e+02,8.287028e+03
7.299263e+02,8.295557e+03
7.308906e+02,8.285278e+03
7.318548e+02,8.267360e+03
7.328190e+02,8.252906e+03
7.337833e+02,8.243903e+03
7.347475e+02,8.240142e+03
7.357117e+02,8.247380e+03
7.366760e+02,8.265263e+03
7.376402e+02,8.272738e+03
7.386044e+02,8.267404e+03
7.395687e+02,8.256868e+03
7.405329e+02,8.244495e+03
7.414971e+02,8.227851e+03
7.424614e+02,8.217420e+03
7.434256e+02,8.224604e+03
7.443898e+02,8.235813e+03
7.453541e+02,8.241070e+03
7.463183e+02,8.236304e+03
7.472825e+02,8.227465e+03
7.482468e+02,8.217825e+03
7.492110e+02,8.206541e+03
7.501752e+02,8.194576e+03
7.511395e+02,8.185440e+03
7.521037e+02,8.181180e+03
7.530679e+02,8.180940e+03
7.540322e+02,8.182328e+03
7.549964e+02,8.183673e+03
7.559606e+02,8.187128e+03
7.569249e+02,8.189901e+03
7.578891e+02,8.190751e+03
7.588533e+02,8.190628e+03
7.598176e+02,8.188517e+03
7.607818e+02,8.173147e+03
7.617460e+02,8.153806e+03
7.627103e+02,8.135659e+03
7.636745e+02,8.122172e+03
7.646387e+02,8.113408e+03
7.656030e+02,8.109014e+03
7.665672e+02,8.108927e+03
7.675314e+02,8.112367e+03
7.684957e+02,8.113139e+03
7.694599e+02,8.105222e+03
7.704241e+02,8.087510e+03
7.713884e+02,8.067014e+03
7.723526e+02,8.056851e+03
7.733168e+02,8.059697e+03
7.742811e+02,8.066597e+03
7.752453e+02,8.069022e+03
7.762095e+02,8.065684e+03
7.771738e+02,8.065255e+03
7.781380e+02,8.071665e+03
7.791022e+02,8.069520e+03
7.800665e+02,8.053925e+03
7.810307e+02,8.032236e+03
7.819949e+02,8.015447e+03
7.829592e+02,8.012096e+03
7.839234e+02,8.013451e+03
7.848876e+02,8.014671e+03
7.858519e+02,8.015146e+03
7.868161e+02,8.015794e+03
7.877803e+02,8.017829e+03
7.887446e+02,8.017304e+03
7.897088e+02,8.008720e+03
7.906730e+02,7.996011e+03
7.916373e+02,7.987577e+03
7.926015e+02,7.982012e+03
7.935657e+02,7.974464e+03
7.945300e+02,7.965354e+03
7.954942e+02,7.958013e+03
7.964584e+02,7.949314e+03
7.974227e+02,7.945625e+03
7.983869e+02,7.948633e+03
7.993511e+02,7.951411e+03
8.003154e+02,7.950776e+03
8.012796e+02,7.940962e+03
8.022438e+02,7.912962e+03
8.032081e+02,7.886622e+03
8.041723e+02,7.880969e+03
8.051365e+02,7.899670e+03
8.061008e+02,7.920750e+03
8.070650e+02,7.928516e+03
8.080292e+02,7.924862e+03
8.089935e+02,7.915856e+03
8.099577e+02,7.904699e+03
8.109219e+02,7.892377e+03
8.118862e+02,7.876906e+03
8.128504e+02,7.858491e+03
8.138146e+02,7.845372e+03
8.147789e+02,7.837492e+03
8.157431e+02,7.831383e+03
8.167073e+02,7.825985e+03
8.176716e+02,7.824993e+03
8.186358e+02,7.828113e+03
8.196000e+02,7.844615e+03
8.205643e+02,7.855335e+03
8.215285e+02,7.844237e+03
8.224927e+02,7.813915e+03
8.234570e+02,7.789263e+03
8.244212e+02,7.776534e+03
8.253854e+02,7.771778e+03
8.263497e+02,7.773134e+03
8.273139e+02,7.777208e+03
8.282781e+02,7.781326e+03
8.292424e+02,7.792774e+03
8.302066e+02,7.804545e+03
8.311708e+02,7.801036e+03
8.321351e+02,7.784688e+03
8.330993e+02,7.767588e+03
8.340635e+02,7.753763e+03
8.350278e+02,7.742570e+03
8.359920e+02,7.735171e+03
8.369562e+02,7.732583e+03
8.379205e+02,7.729989e+03
8.388847e+02,7.726147e+03
8.398489e+02,7.721435e+03
8.408132e+02,7.715295e+03
8.417774e+02,7.702833e+03
8.427416e+02,7.693345e+03
8.437059e+02,7.690592e+03
8.446701e+02,7.690007e+03
8.456343e+02,7.686872e+03
8.465986e+02,7.676521e+03
8.475628e+02,7.669709e+03
8.485270e+02,7.673626e+03
8.494913e+02,7.680686e+03
8.504555e+02,7.683529e+03
8.514197e+02,7.681200e+03
8.523840e+02,7.680158e+03
8.533482e+02,7.688148e+03
8.543124e+02,7.697958e+03
8.552767e+02,7.697307e+03
8.562409e+02,7.683969e+03
8.572051e+02,7.662791e+03
8.581694e+02,7.635480e+03
8.591336e+02,7.604596e+03
8.600978e+02,7.591024e+03
8.610621e+02,7.599665e+03
8.620263e+02,7.613550e+03
8.629905e+02,7.618383e+03
8.639548e+02,7.610909e+03
8.649190e+02,7.602740e+03
8.658832e+02,7.596174e+03
8.668475e+02,7.593226e+03
8.678117e+02,7.596650e+03
8.687759e+02,7.604095e+03
8.697402e+02,7.608149e+03
8.707044e+02,7.602258e+03
8.716686e+02,7.591277e+03
8.726329e+02,7.581257e+03
8.735971e+02,7.572419e+03
8.745613e+02,7.561735e+03
8.755256e+02,7.547565e+03
8.764898e+02,7.536595e+03
8.774540e+02,7.531584e+03
8.784183e+02,7.530231e+03
8.793825e+02,7.530087e+03
8.803467e+02,7.530387e+03
8.813110e+02,7.529908e+03
8.822752e+02,7.529263e+03
8.832394e+02,7.529189e+03
8.842037e+02,7.525022e+03
8.851679e+02,7.513064e+03
8.861321e+02,7.499809e+03
8.870964e+02,7.498045e+03
8.880606e+02,7.508130e+03
8.890248e+02,7.510835e+03
8.899891e+02,7.507253e+03
8.909533e+02,7.498896e+03
8.919175e+02,7.483732e+03
8.928818e+02,7.458066e+03
8.938460e+02,7.441500e+03
8.948102e+02,7.434945e+03
8.957745e+02,7.432765e+03
8.967387e+02,7.435533e+03
8.977029e+02,7.441254e+03
8.986672e+02,7.440735e+03
8.996314e+02,7.435507e+03
9.005956e+02,7.429889e+03
9.015599e+02,7.422072e+03
9.025241e+02,7.412868e+03
9.034883e+02,7.406694e+03
9.044526e+02,7.410034e+03
9.054168e+02,7.408571e+03
9.063810e+02,7.395675e+03
9.073453e+02,7.379639e+03
9.083095e+02,7.368435e+03
9.092737e+02,7.362947e+03
9.102380e+02,7.359605e+03
9.112022e+02,7.356875e+03
9.121664e+02,7.353658e+03
9.131307e+02,7.348989e+03
9.140949e+02,7.345055e+03
9.150591e+02,7.343904e+03
9.160234e+02,7.343645e+03
9.169876e+02,7.340138e+03
9.179518e+02,7.330597e+03
9.189161e+02,7.314383e+03
9.198803e+02,7.295702e+03
9.208445e+02,7.281283e+03
9.218088e+02,7.274055e+03
9.227730e+02,7.266945e+03
9.237372e+02,7.256750e+03
9.247015e+02,7.248393e+03
9.256657e+02,7.246141e+03
9.266299e+02,7.249768e+03
9.275942e+02,7.251207e+03
9.285584e+02,7.245355e+03
9.295226e+02,7.240187e+03
9.304869e+02,7.241599e+03
9.314511e+02,7.248136e+03
9.324153e+02,7.251435e+03
9.333796e+02,7.250601e+03
9.343438e+02,7.246257e+03
9.353080e+02,7.234654e+03
9.362723e+02,7.217317e+03
9.372365e+02,7.199541e+03
9.382007e+02,7.187206e+03
9.391650e+02,7.177500e+03
9.401292e+02,7.166012e+03
9.410934e+02,7.156718e+03
9.420577e+02,7.153677e+03
9.430219e+02,7.157565e+03
9.439861e+02,7.161369e+03
9.449504e+02,7.164196e+03
9.459146e+02,7.167744e+03
9.468788e+02,7.168820e+03
9.478431e+02,7.163361e+03
9.488073e+02,7.152515e+03
9.497715e+02,7.140034e+03
9.507358e+02,7.127710e+03
9.517000e+02,7.116729e+03
9.526642e+02,7.109499e+03
9.536285e+02,7.108156e+03
9.545927e+02,7.115485e+03
9.555569e+02,7.126335e+03
9.565212e+02,7.121557e+03
9.574854e+02,7.103061e+03
9.584496e+02,7.091247e+03
9.594139e+02,7.092029e+03
9.603781e+02,7.098557e+03
9.613423e+02,7.098911e+03
9.623066e+02,7.092520e+03
9.632708e+02,7.084755e+03
9.642350e+02,7.078719e+03
9.651993e+02,7.072978e+03
9.661635e+02,7.061723e+03
9.671277e+02,7.035078e+03
9.680920e+02,7.021558e+03
9.690562e+02,7.032282e+03
9.700204e+02,7.043404e+03
9.709847e+02,7.037173e+03
9.719489e+02,7.010216e+03
9.729131e+02,6.995174e+03
9.738774e+02,7.002202e+03
9.748416e+02,7.014142e+03
9.758058e+02,7.023545e+03
9.767701e+02,7.028140e+03
9.777343e+02,7.027966e+03
9.786985e+02,7.023257e+03
9.796628e+02,7.011754e+03
9.806270e+02,6.986077e+03
9.815912e+02,6.955695e+03
9.825555e+02,6.937102e+03
9.835197e+02,6.949462e+03
9.844839e+02,6.959416e+03
9.854482e+02,6.948933e+03
9.864124e+02,6.932120e+03
9.873766e+02,6.924097e+03
9.883409e+02,6.930377e+03
9.893051e+02,6.936218e+03
9.902693e+02,6.929315e+03
9.912336e+02,6.919794e+03
9.921978e+02,6.915503e+03
9.931620e+02,6.915521e+03
9.941263e+02,6.917958e+03
9.950905e+02,6.929196e+03
9.960547e+02,6.939180e+03
9.970190e+02,6.931872e+03
9.979832e+02,6.909888e+03
9.989474e+02,6.887124e+03
9.999117e+02,6.873899e+03
1.000876e+03,6.867185e+03
1.001840e+03,6.862359e+03
1.002804e+03,6.860623e+03
1.003769e+03,6.860773e+03
1.004733e+03,6.860640e+03
1.005697e+03,6.859034e+03
1.006661e+03,6.855259e+03
1.007626e+03,6.850127e+03
1.008590e+03,6.844108e+03
1.009554e+03,6.835603e+03
1.010518e+03,6.826755e+03
1.011482e+03,6.824036e+03
1.012447e+03,6.825843e+03
1.013411e+03,6.819805e+03
1.014375e+03,6.808368e+03
1.015339e+03,6.796415e+03
1.016304e+03,6.783841e+03
1.017268e+03,6.771132e+03
1.018232e+03,6.766158e+03
1.019196e+03,6.768972e+03
1.020161e+03,6.772151e+03
1.021125e+03,6.774836e+03
1.022089e+03,6.777729e+03
1.023053e+03,6.777423e+03
1.024018e+03,6.771183e+03
1.024982e+03,6.761310e+03
1.025946e+03,6.744245e+03
1.026910e+03,6.725836e+03
1.027875e+03,6.720152e+03
1.028839e+03,6.738342e+03
1.029803e+03,6.740157e+03
1.030767e+03,6.717180e+03
1.031731e+03,6.692840e+03
1.032696e+03,6.683419e+03
1.033660e+03,6.689150e+03
1.034624e+03,6.686819e+03
1.035588e+03,6.670060e+03
1.036552e+03,6.661736e+03
1.037517e+03,6.674697e+03
1.038481e+03,6.699393e+03
1.039445e+03,6.706344e+03
1.040409e+03,6.684368e+03
1.041374e+03,6.663739e+03
1.042338e+03,6.651381e+03
1.043302e+03,6.644461e+03
1.044266e+03,6.637679e+03
1.045231e+03,6.630812e+03
1.046195e+03,6.622667e+03
1.047159e+03,6.615240e+03
1.048123e+03,6.607521e+03
1.049088e+03,6.597206e+03
1.050052e+03,6.585127e+03
1.051016e+03,6.581080e+03
1.051980e+03,6.593524e+03
1.052945e+03,6.603653e+03
1.053909e+03,6.598104e+03
1.054873e+03,6.579061e+03
1.055837e+03,6.566489e+03
1.056802e+03,6.573756e+03
1.057766e+03,6.577084e+03
1.058730e+03,6.572350e+03
1.059694e+03,6.562736e+03
1.060658e+03,6.550672e+03
1.061623e+03,6.535326e+03
1.062587e+03,6.523047e+03
1.063551e+03,6.515525e+03
1.064515e+03,6.511228e+03
1.065479e+03,6.509488e+03
1.066444e+03,6.511928e+03
1.067408e+03,6.510240e+03
1.068372e+03,6.495145e+03
1.069336e+03,6.483563e+03
1.070301e+03,6.480542e+03
1.071265e+03,6.483310e+03
1.072229e+03,6.487789e+03
1.073193e+03,6.501659e+03
1.074158e+03,6.506843e+03
1.075122e+03,6.495040e+03
1.076086e+03,6.473968e+03
1.077050e+03,6.453619e+03
1.078015e+03,6.437998e+03
1.078979e+03,6.427688e+03
1.079943e+03,6.420485e+03
1.080907e+03,6.418250e+03
1.081872e+03,6.422645e+03
1.082836e+03,6.431994e+03
1.083800e+03,6.436515e+03
1.084764e+03,6.431810e+03
1.085729e+03,6.427662e+03
1.086693e+03,6.429210e+03
1.087657e+03,6.433300e+03
1.088621e+03,6.433138e+03
1.089585e+03,6.426814e+03
1.090550e+03,6.413724e+03
1.091514e+03,6.390810e+03
1.092478e+03,6.367767e+03
1.093442e+03,6.354189e+03
1.094406e+03,6.354711e+03
1.095371e+03,6.356563e+03
1.096335e+03,6.355598e+03
1.097299e+03,6.354025e+03
1.098263e+03,6.353985e+03
1.099228e+03,6.354667e+03
1.100192e+03,6.352673e+03
1.101156e+03,6.344995e+03
1.102120e+03,6.335948e+03
1.103085e+03,6.327888e+03
1.104049e+03,6.320252e+03
1.105013e+03,6.311688e+03
1.105977e+03,6.300990e+03
1.106942e+03,6.291784e+03
1.107906e+03,6.287109e+03
1.108870e+03,6.283278e+03
1.109834e+03,6.276117e+03
1.110799e+03,6.263924e+03
1.111763e+03,6.254580e+03
1.112727e+03,6.250814e+03
1.113691e+03,6.250205e+03
1.114656e+03,6.251854e+03
1.115620e+03,6.255136e+03
1.116584e+03,6.256486e+03
1.117548e+03,6.250762e+03
1.118512e+03,6.243736e+03
1.119477e+03,6.236883e+03
1.120441e+03,6.230097e+03
1.121405e+03,6.224114e+03
1.122369e+03,6.222756e+03
1.123334e+03,6.216899e+03
1.124298e+03,6.204736e+03
1.125262e+03,6.191763e+03
1.126226e+03,6.181210e+03
1.127191e+03,6.173259e+03
1.128155e+03,6.170549e+03
1.129119e+03,6.175174e+03
1.130083e+03,6.179236e+03
1.131047e+03,6.180330e+03
1.132012e+03,6.176892e+03
1.132976e+03,6.167956e+03
1.133940e+03,6.149774e+03
1.134904e+03,6.133126e+03
1.135869e+03,6.122400e+03
1.136833e+03,6.114436e+03
1.137797e+03,6.104958e+03
1.138761e+03,6.094427e+03
1.139726e+03,6.088784e+03
1.140690e+03,6.089241e+03
1.141654e+03,6.089485e+03
1.142618e+03,6.085149e+03
1.143583e+03,6.077231e+03
1.144547e+03,6.070360e+03
1.145511e+03,6.064630e+03
1.146475e+03,6.058444e+03
1.147439e+03,6.050241e+03
1.148404e+03,6.043323e+03
1.149368e+03,6.042445e+03
1.150332e+03,6.047672e+03
1.151296e+03,6.050256e+03
1.152261e+03,6.046115e+03
1.153225e+03,6.037907e+03
1.154189e+03,6.033765e+03
1.155153e+03,6.034661e+03
1.156118e+03,6.026601e+03
1.157082e+03,6.011351e+03
1.158046e+03,5.995112e+03
1.159010e+03,5.976372e+03
1.159974e+03,5.960744e+03
1.160939e+03,5.964625e+03
1.161903e+03,5.983390e+03
1.162867e+03,5.994027e+03
1.163831e+03,5.991284e+03
1.164796e+03,5.983509e+03
1.165760e+03,5.983788e+03
1.166724e+03,5.987859e+03
1.167688e+03,5.979503e+03
1.168653e+03,5.959994e+03
1.169617e+03,5.941553e+03
1.170581e+03,5.933536e+03
1.171545e+03,5.930365e+03
1.172510e+03,5.921635e+03
1.173474e+03,5.911547e+03
1.174438e+03,5.909682e+03
1.175402e+03,5.919047e+03
1.176366e+03,5.928138e+03
1.177331e+03,5.925982e+03
1.178295e+03,5.919474e+03
1.179259e+03,5.916511e+03
1.180223e+03,5.916015e+03
1.181188e+03,5.912783e+03
1.182152e+03,5.903769e+03
1.183116e+03,5.891773e+03
1.184080e+03,5.877148e+03
1.185045e+03,5.863792e+03
1.186009e+03,5.857311e+03
1.186973e+03,5.865699e+03
1.187937e+03,5.871512e+03
1.188901e+03,5.863467e+03
1.189866e+03,5.851539e+03
1.190830e+03,5.842673e+03
1.191794e+03,5.836546e+03
1.192758e+03,5.830295e+03
1.193723e+03,5.824694e+03
1.194687e+03,5.822151e+03
1.195651e+03,5.823619e+03
1.196615e+03,5.827362e+03
1.197580e+03,5.829419e+03
1.198544e+03,5.828700e+03
1.199508e+03,5.819089e+03
1.200472e+03,5.796319e+03
1.201437e+03,5.774467e+03
1.202401e+03,5.767880e+03
1.203365e+03,5.781125e+03
1.204329e+03,5.784239e+03
1.205293e+03,5.771919e+03
1.206258e+03,5.760247e+03
1.207222e+03,5.754729e+03
1.208186e+03,5.754193e+03
1.209150e+03,5.758245e+03
1.210115e+03,5.765969e+03
1.211079e+03,5.769959e+03
1.212043e+03,5.769509e+03
1.213007e+03,5.764932e+03
1.213972e+03,5.758190e+03
1.214936e+03,5.750678e+03
1.215900e+03,5.739586e+03
1.216864e+03,5.725539e+03
1.217828e+03,5.715448e+03
1.218793e+03,5.714372e+03
1.219757e+03,5.718352e+03
1.220721e+03,5.721412e+03
1.221685e+03,5.724250e+03
1.222650e+03,5.726835e+03
1.223614e+03,5.727437e+03
1.224578e+03,5.723691e+03
1.225542e+03,5.711603e+03
1.226507e+03,5.699203e+03
1.227471e+03,5.697044e+03
1.228435e+03,5.701509e+03
1.229399e+03,5.700420e+03
1.230364e+03,5.685103e+03
1.231328e+03,5.668789e+03
1.232292e+03,5.663969e+03
1.233256e+03,5.664125e+03
1.234220e+03,5.656384e+03
1.235185e+03,5.635544e+03
1.236149e+03,5.620648e+03
1.237113e+03,5.616928e+03
1.238077e+03,5.620500e+03
1.239042e+03,5.628257e+03
1.240006e+03,5.636904e+03
1.240970e+03,5.640745e+03
1.241934e+03,5.638063e+03
1.242899e+03,5.633241e+03
1.243863e+03,5.629220e+03
1.244827e+03,5.624096e+03
1.245791e+03,5.613745e+03
1.246755e+03,5.596791e+03
1.247720e+03,5.582154e+03
1.248684e+03,5.570237e+03
1.249648e+03,5.563303e+03
1.250612e+03,5.563399e+03
1.251577e+03,5.567161e+03
1.252541e+03,5.566202e+03
1.253505e+03,5.560282e+03
1.254469e+03,5.551686e+03
1.255434e+03,5.541821e+03
1.256398e+03,5.533217e+03
1.257362e+03,5.527585e+03
1.258326e+03,5.522679e+03
1.259291e+03,5.515700e+03
1.260255e+03,5.506311e+03
1.261219e+03,5.497423e+03
1.262183e+03,5.496203e+03
1.263147e+03,5.497158e+03
1.264112e+03,5.495460e+03
1.265076e+03,5.492252e+03
1.266040e+03,5.488444e+03
1.267004e+03,5.484934e+03
1.267969e+03,5.479790e+03
1.268933e+03,5.471643e+03
1.269897e+03,5.467078e+03
1.270861e+03,5.466950e+03
1.271826e+03,5.466967e+03
1.272790e+03,5.465196e+03
1.273754e+03,5.464338e+03
1.274718e+03,5.460803e+03
1.275682e+03,5.456441e+03
1.276647e+03,5.451124e+03
1.277611e+03,5.442893e+03
1.278575e+03,5.430884e+03
1.279539e+03,5.415382e+03
1.280504e+03,5.398215e+03
1.281468e+03,5.386666e+03
1.282432e+03,5.384386e+03
1.283396e+03,5.387964e+03
1.284361e+03,5.390041e+03
1.285325e+03,5.389459e+03
1.286289e+03,5.385856e+03
1.287253e+03,5.378699e+03
1.288218e+03,5.370666e+03
1.289182e+03,5.367022e+03
1.290146e+03,5.363925e+03
1.291110e+03,5.356157e+03
1.292074e+03,5.345308e+03
1.293039e+03,5.335583e+03
1.294003e+03,5.324368e+03
1.294967e+03,5.317997e+03
1.295931e+03,5.326883e+03
1.296896e+03,5.340553e+03
1.297860e+03,5.346078e+03
1.298824e+03,5.338515e+03
1.299788e+03,5.333560e+03
1.300753e+03,5.331519e+03
1.301717e+03,5.331232e+03
1.302681e+03,5.333407e+03
1.303645e+03,5.336767e+03
1.304609e+03,5.337640e+03
1.305574e+03,5.333619e+03
1.306538e+03,5.328747e+03
1.307502e+03,5.326093e+03
1.308466e+03,5.324952e+03
1.309431e+03,5.322491e+03
1.310395e+03,5.319668e+03
1.311359e+03,5.320237e+03
1.312323e+03,5.321022e+03
1.313288e+03,5.316439e+03
1.314252e+03,5.304885e+03
1.315216e+03,5.295460e+03
1.316180e+03,5.297119e+03
1.317145e+03,5.303553e+03
1.318109e+03,5.305128e+03
1.319073e+03,5.298894e+03
1.320037e+03,5.292354e+03
1.321001e+03,5.289515e+03
1.321966e+03,5.286327e+03
1.322930e+03,5.284750e+03
1.323894e+03,5.283853e+03
1.324858e+03,5.278788e+03
1.325823e+03,5.265096e+03
1.326787e+03,5.256969e+03
1.327751e+03,5.254244e+03
1.328715e+03,5.253737e+03
1.329680e+03,5.255460e+03
1.330644e+03,5.258275e+03
1.331608e+03,5.254099e+03
1.332572e+03,5.243277e+03
1.333536e+03,5.237688e+03
1.334501e+03,5.240448e+03
1.335465e+03,5.242074e+03
1.336429e+03,5.232380e+03
1.337393e+03,5.218531e+03
1.338358e+03,5.210093e+03
1.339322e+03,5.206638e+03
1.340286e+03,5.203110e+03
1.341250e+03,5.198839e+03
1.342215e+03,5.191547e+03
1.343179e+03,5.179367e+03
1.344143e+03,5.169307e+03
1.345107e+03,5.166264e+03
1.346072e+03,5.170680e+03
1.347036e+03,5.173090e+03
1.348000e+03,5.170524e+03
1.348964e+03,5.168780e+03
1.349928e+03,5.173015e+03
1.350893e+03,5.180229e+03
1.351857e+03,5.178466e+03
1.352821e+03,5.167028e+03
1.353785e+03,5.158532e+03
1.354750e+03,5.153925e+03
1.355714e+03,5.148032e+03
1.356678e+03,5.138814e+03
1.357642e+03,5.128852e+03
1.358607e+03,5.117548e+03
1.359571e+03,5.105492e+03
1.360535e+03,5.095200e+03
1.361499e+03,5.088055e+03
1.362464e+03,5.084722e+03
1.363428e+03,5.089909e+03
1.364392e+03,5.097014e+03
1.365356e+03,5.098345e+03
1.366320e+03,5.092055e+03
1.367285e+03,5.086390e+03
1.368249e+03,5.084913e+03
1.369213e+03,5.081091e+03
1.370177e+03,5.073400e+03
1.371142e+03,5.063857e+03
1.372106e+03,5.054947e+03
1.373070e+03,5.046558e+03
1.374034e+03,5.037972e+03
1.374999e+03,5.030315e+03
1.375963e+03,5.022744e+03
1.376927e+03,5.013517e+03
1.377891e+03,5.005854e+03
1.378855e+03,5.004024e+03
1.379820e+03,5.004016e+03
1.380784e+03,5.001504e+03
1.381748e+03,4.997216e+03
1.382712e+03,4.992498e+03
1.383677e+03,4.982411e+03
1.384641e+03,4.973033e+03
1.385605e+03,4.966356e+03
1.386569e+03,4.960800e+03
1.387534e+03,4.954501e+03
1.388498e+03,4.947281e+03
1.389462e+03,4.943548e+03
1.390426e+03,4.942309e+03
1.391391e+03,4.942780e+03
1.392355e+03,4.947731e+03
1.393319e+03,4.953646e+03
1.394283e+03,4.948011e+03
1.395247e+03,4.935978e+03
1.396212e+03,4.933445e+03
1.397176e+03,4.944750e+03
1.398140e+03,4.950974e+03
1.399104e+03,4.930862e+03
1.400069e+03,4.909747e+03
1.401033e+03,4.904979e+03
1.401997e+03,4.912187e+03
1.402961e+03,4.917822e+03
1.403926e+03,4.924201e+03
1.404890e+03,4.920747e+03
1.405854e+03,4.905087e+03
1.406818e+03,4.887240e+03
1.407782e+03,4.873612e+03
1.408747e+03,4.865420e+03
1.409711e+03,4.862618e+03
1.410675e+03,4.862330e+03
1.411639e+03,4.864555e+03
1.412604e+03,4.870575e+03
1.413568e+03,4.874875e+03
1.414532e+03,4.876402e+03
1.415496e+03,4.874302e+03
1.416461e+03,4.861573e+03
1.417425e+03,4.840781e+03
1.418389e+03,4.826693e+03
1.419353e+03,4.830677e+03
1.420318e+03,4.828196e+03
1.421282e+03,4.815253e+03
1.422246e+03,4.804001e+03
1.423210e+03,4.805659e+03
1.424174e+03,4.817921e+03
1.425139e+03,4.819185e+03
1.426103e+03,4.809295e+03
1.427067e+03,4.797224e+03
1.428031e+03,4.785506e+03
1.428996e+03,4.778342e+03
1.429960e+03,4.782691e+03
1.430924e+03,4.789649e+03
1.431888e+03,4.790325e+03
1.432853e+03,4.785370e+03
1.433817e+03,4.780321e+03
1.434781e+03,4.778299e+03
1.435745e+03,4.775833e+03
1.436709e+03,4.769868e+03
1.437674e+03,4.762592e+03
1.438638e+03,4.758756e+03
1.439602e+03,4.758874e+03
1.440566e+03,4.752345e+03
1.441531e+03,4.739487e+03
1.442495e+03,4.728892e+03
1.443459e+03,4.722755e+03
1.444423e+03,4.720218e+03
1.445388e+03,4.723447e+03
1.446352e+03,4.726022e+03
1.447316e+03,4.722288e+03
1.448280e+03,4.714448e+03
1.449245e+03,4.707227e+03
1.450209e+03,4.700654e+03
1.451173e+03,4.695876e+03
1.452137e+03,4.690102e+03
1.453101e+03,4.684833e+03
1.454066e+03,4.683861e+03
1.455030e+03,4.686680e+03
1.455994e+03,4.688203e+03
1.456958e+03,4.688125e+03
1.457923e+03,4.684295e+03
1.458887e+03,4.673520e+03
1.459851e+03,4.662915e+03
1.460815e+03,4.657833e+03
1.461780e+03,4.655284e+03
1.462744e+03,4.657802e+03
1.463708e+03,4.664602e+03
1.464672e+03,4.664665e+03
1.465636e+03,4.656004e+03
1.466601e+03,4.647800e+03
1.467565e+03,4.641302e+03
1.468529e+03,4.634580e+03
1.469493e+03,4.622424e+03
1.470458e+03,4.606694e+03
1.471422e+03,4.601618e+03
1.472386e+03,4.605291e+03
1.473350e+03,4.607239e+03
1.474315e+03,4.602037e+03
1.475279e+03,4.596612e+03
1.476243e+03,4.594481e+03
1.477207e+03,4.593028e+03
1.478172e+03,4.593720e+03
1.479136e+03,4.595686e+03
1.480100e+03,4.593048e+03
1.481064e+03,4.584769e+03
1.482028e+03,4.578331e+03
1.482993e+03,4.575612e+03
1.483957e+03,4.573655e+03
1.484921e+03,4.566581e+03
1.485885e+03,4.558508e+03
1.486850e+03,4.558688e+03
1.487814e+03,4.562405e+03
1.488778e+03,4.561569e+03
1.489742e+03,4.552719e+03
1.490707e+03,4.545708e+03
1.491671e+03,4.553884e+03
1.492635e+03,4.557615e+03
1.493599e+03,4.542310e+03
1.494563e+03,4.516468e+03
1.495528e+03,4.507048e+03
1.496492e+03,4.512707e+03
1.497456e+03,4.515117e+03
1.498420e+03,4.513653e+03
1.499385e+03,4.511783e+03
1.500349e+03,4.514288e+03
1.501313e+03,4.515570e+03
1.502277e+03,4.507174e+03
1.503242e+03,4.494377e+03
1.504206e+03,4.484603e+03
1.505170e+03,4.477944e+03
1.506134e+03,4.476667e+03
1.507099e+03,4.483976e+03
1.508063e+03,4.489132e+03
1.509027e+03,4.487716e+03
1.509991e+03,4.482848e+03
1.510955e+03,4.480959e+03
1.511920e+03,4.479589e+03
1.512884e+03,4.471657e+03
1.513848e+03,4.459921e+03
1.514812e+03,4.454540e+03
1.515777e+03,4.467169e+03
1.516741e+03,4.471856e+03
1.517705e+03,4.447802e+03
1.518669e+03,4.421588e+03
1.519634e+03,4.418046e+03
1.520598e+03,4.434833e+03
1.521562e+03,4.438892e+03
1.522526e+03,4.429805e+03
1.523490e+03,4.421743e+03
1.524455e+03,4.420283e+03
1.525419e+03,4.419158e+03
1.526383e+03,4.414381e+03
1.527347e+03,4.406471e+03
1.528312e+03,4.395453e+03
1.529276e+03,4.384533e+03
1.530240e+03,4.379045e+03
1.531204e+03,4.378289e+03
1.532169e+03,4.380726e+03
1.533133e+03,4.387252e+03
1.534097e+03,4.392695e+03
1.535061e+03,4.392291e+03
1.536026e+03,4.387841e+03
1.536990e+03,4.383456e+03
1.537954e+03,4.379547e+03
1.538918e+03,4.376505e+03
1.539882e+03,4.374229e+03
1.540847e+03,4.370775e+03
1.541811e+03,4.364008e+03
1.542775e+03,4.354804e+03
1.543739e+03,4.343073e+03
1.544704e+03,4.333561e+03
1.545668e+03,4.336274e+03
1.546632e+03,4.348057e+03
1.547596e+03,4.351718e+03
1.548561e+03,4.347049e+03
1.549525e+03,4.340421e+03
1.550489e+03,4.329107e+03
1.551453e+03,4.322349e+03
1.552417e+03,4.329867e+03
1.553382e+03,4.338921e+03
1.554346e+03,4.340219e+03
1.555310e+03,4.335295e+03
1.556274e+03,4.329385e+03
1.557239e+03,4.322220e+03
1.558203e+03,4.319720e+03
1.559167e+03,4.323733e+03
1.560131e+03,4.327152e+03
1.561096e+03,4.325979e+03
1.562060e+03,4.320531e+03
1.563024e+03,4.304871e+03
1.563988e+03,4.286189e+03
1.564953e+03,4.280936e+03
1.565917e+03,4.295307e+03
1.566881e+03,4.301754e+03
1.567845e+03,4.297968e+03
1.568809e+03,4.293899e+03
1.569774e+03,4.296567e+03
1.570738e+03,4.299989e+03
1.571702e+03,4.295986e+03
1.572666e+03,4.287325e+03
1.573631e+03,4.276821e+03
1.574595e+03,4.266311e+03
1.575559e+03,4.259155e+03
1.576523e+03,4.257882e+03
1.577488e+03,4.254686e+03
1.578452e+03,4.244388e+03
1.579416e+03,4.235458e+03
1.580380e+03,4.242219e+03
1.581344e+03,4.255821e+03
1.582309e+03,4.260537e+03
1.583273e+03,4.258426e+03
1.584237e+03,4.253511e+03
1.585201e+03,4.245693e+03
1.586166e+03,4.238936e+03
1.587130e+03,4.232456e+03
1.588094e+03,4.226242e+03
1.589058e+03,4.221274e+03
1.590023e+03,4.218199e+03
1.590987e+03,4.217942e+03
1.591951e+03,4.220449e+03
1.592915e+03,4.221979e+03
1.593880e+03,4.220265e+03
1.594844e+03,4.216963e+03
1.595808e+03,4.213130e+03
1.596772e+03,4.208561e+03
1.597736e+03,4.203952e+03
1.598701e+03,4.200743e+03
1.599665e+03,4.200116e+03
1.600629e+03,4.200886e+03
1.601593e+03,4.198293e+03
1.602558e+03,4.192862e+03
1.603522e+03,4.185688e+03
1.604486e+03,4.176275e+03
1.605450e+03,4.168419e+03
1.606415e+03,4.167042e+03
1.607379e+03,4.166926e+03
1.608343e+03,4.165890e+03
1.609307e+03,4.163324e+03
1.610271e+03,4.157084e+03
1.611236e+03,4.148312e+03
1.612200e+03,4.147087e+03
1.613164e+03,4.153135e+03
1.614128e+03,4.155634e+03
1.615093e+03,4.142150e+03
1.616057e+03,4.131690e+03
1.617021e+03,4.133798e+03
1.617985e+03,4.134795e+03
1.618950e+03,4.126605e+03
1.619914e+03,4.112479e+03
1.620878e+03,4.104694e+03
1.621842e+03,4.102282e+03
1.622807e+03,4.098950e+03
1.623771e+03,4.094161e+03
1.624735e+03,4.092755e+03
1.625699e+03,4.098181e+03
1.626663e+03,4.102803e+03
1.627628e+03,4.102663e+03
1.628592e+03,4.098854e+03
1.629556e+03,4.096400e+03
1.630520e+03,4.096383e+03
1.631485e+03,4.091870e+03
1.632449e+03,4.083611e+03
1.633413e+03,4.076625e+03
1.634377e+03,4.073211e+03
1.635342e+03,4.071873e+03
1.636306e+03,4.076824e+03
1.637270e+03,4.078283e+03
1.638234e+03,4.069612e+03
1.639198e+03,4.056960e+03
1.640163e+03,4.055206e+03
1.641127e+03,4.060842e+03
1.642091e+03,4.057665e+03
1.643055e+03,4.043680e+03
1.644020e+03,4.030736e+03
1.644984e+03,4.021954e+03
1.645948e+03,4.016390e+03
1.646912e+03,4.017093e+03
1.647877e+03,4.017327e+03
1.648841e+03,4.010525e+03
1.649805e+03,4.000070e+03
1.650769e+03,3.996720e+03
1.651734e+03,3.997156e+03
1.652698e+03,3.993166e+03
1.653662e+03,3.980084e+03
1.654626e+03,3.972612e+03
1.655590e+03,3.979696e+03
1.656555e+03,3.984472e+03
1.657519e+03,3.984472e+03
1.658483e+03,3.981321e+03
1.659447e+03,3.970667e+03
1.660412e+03,3.956809e+03
1.661376e+03,3.953867e+03
1.662340e+03,3.959812e+03
1.663304e+03,3.962905e+03
1.664269e+03,3.951239e+03
1.665233e+03,3.947678e+03
1.666197e+03,3.953992e+03
1.667161e+03,3.959238e+03
1.668125e+03,3.959160e+03
1.669090e+03,3.954407e+03
1.670054e+03,3.942712e+03
1.671018e+03,3.929257e+03
1.671982e+03,3.922174e+03
1.672947e+03,3.922276e+03
1.673911e+03,3.922573e+03
1.674875e+03,3.920633e+03
1.675839e+03,3.918605e+03
1.676804e+03,3.918955e+03
1.677768e+03,3.919123e+03
1.678732e+03,3.912805e+03
1.679696e+03,3.905591e+03
1.680661e+03,3.903670e+03
1.681625e+03,3.901962e+03
1.682589e+03,3.895305e+03
1.683553e+03,3.884800e+03
1.684517e+03,3.881866e+03
1.685482e+03,3.885582e+03
1.686446e+03,3.883923e+03
1.687410e+03,3.871947e+03
1.688374e+03,3.861866e+03
1.689339e+03,3.863656e+03
1.690303e+03,3.869136e+03
1.691267e+03,3.876175e+03
1.692231e+03,3.882011e+03
1.693196e+03,3.878714e+03
1.694160e+03,3.866893e+03
1.695124e+03,3.861125e+03
1.696088e+03,3.861063e+03
1.697052e+03,3.857698e+03
1.698017e+03,3.838740e+03
1.698981e+03,3.824837e+03
1.699945e+03,3.822301e+03
1.700909e+03,3.820479e+03
1.701874e+03,3.816238e+03
1.702838e+03,3.814379e+03
1.703802e+03,3.824420e+03
1.704766e+03,3.837449e+03
1.705731e+03,3.839590e+03
1.706695e+03,3.830499e+03
1.707659e+03,3.820853e+03
1.708623e+03,3.812511e+03
1.709588e+03,3.808269e+03
1.710552e+03,3.806987e+03
1.711516e+03,3.805272e+03
1.712480e+03,3.802068e+03
1.713444e+03,3.796693e+03
1.714409e+03,3.789930e+03
1.715373e+03,3.782034e+03
1.716337e+03,3.769491e+03
1.717301e+03,3.753179e+03
1.718266e+03,3.753927e+03
1.719230e+03,3.770300e+03
1.720194e+03,3.778732e+03
1.721158e+03,3.771181e+03
1.722123e+03,3.764192e+03
1.723087e+03,3.776367e+03
1.724051e+03,3.784421e+03
1.725015e+03,3.775790e+03
1.725979e+03,3.759478e+03
1.726944e+03,3.743056e+03
1.727908e+03,3.728530e+03
1.728872e+03,3.726874e+03
1.729836e+03,3.733848e+03
1.730801e+03,3.738354e+03
1.731765e+03,3.737503e+03
1.732729e+03,3.732406e+03
1.733693e+03,3.720480e+03
1.734658e+03,3.713609e+03
1.735622e+03,3.718677e+03
1.736586e+03,3.726068e+03
1.737550e+03,3.720199e+03
1.738515e+03,3.710042e+03
1.739479e+03,3.709592e+03
1.740443e+03,3.715891e+03
1.741407e+03,3.706277e+03
1.742371e+03,3.677208e+03
1.743336e+03,3.670339e+03
1.744300e+03,3.688084e+03
1.745264e+03,3.702094e+03
1.746228e+03,3.695569e+03
1.747193e+03,3.682120e+03
1.748157e+03,3.659698e+03
1.749121e+03,3.645971e+03
1.750085e+03,3.652536e+03
1.751050e+03,3.668785e+03
1.752014e+03,3.670361e+03
1.752978e+03,3.662565e+03
1.753942e+03,3.654666e+03
1.754906e+03,3.647642e+03
1.755871e+03,3.644892e+03
1.756835e+03,3.647801e+03
1.757799e+03,3.646040e+03
1.758763e+03,3.641483e+03
1.759728e+03,3.635598e+03
1.760692e+03,3.623042e+03
1.761656e+03,3.614736e+03
1.762620e+03,3.627686e+03
1.763585e+03,3.645674e+03
1.764549e+03,3.643083e+03
1.765513e+03,3.618953e+03
1.766477e+03,3.608259e+03
1.767442e+03,3.610103e+03
1.768406e+03,3.613386e+03
1.769370e+03,3.615180e+03
1.770334e+03,3.617650e+03
1.771298e+03,3.622072e+03
1.772263e+03,3.622737e+03
1.773227e+03,3.619261e+03
1.774191e+03,3.611928e+03
1.775155e+03,3.594995e+03
1.776120e+03,3.577302e+03
1.777084e+03,3.574747e+03
1.778048e+03,3.583622e+03
1.779012e+03,3.592376e+03
1.779977e+03,3.602459e+03
1.780941e+03,3.604515e+03
1.781905e+03,3.597094e+03
1.782869e+03,3.587845e+03
1.783833e+03,3.579580e+03
1.784798e+03,3.573278e+03
1.785762e+03,3.567878e+03
1.786726e+03,3.566646e+03
1.787690e+03,3.574267e+03
1.788655e+03,3.583454e+03
1.789619e+03,3.576228e+03
1.790583e+03,3.560479e+03
1.791547e+03,3.550807e+03
1.792512e+03,3.547597e+03
1.793476e+03,3.544858e+03
1.794440e+03,3.537934e+03
1.795404e+03,3.540737e+03
1.796369e+03,3.553274e+03
1.797333e+03,3.559657e+03
1.798297e+03,3.547178e+03
1.799261e+03,3.533491e+03
1.800225e+03,3.530530e+03
1.801190e+03,3.528576e+03
1.802154e+03,3.522238e+03
1.803118e+03,3.513281e+03
1.804082e+03,3.508391e+03
1.805047e+03,3.507122e+03
1.806011e+03,3.507344e+03
1.806975e+03,3.507938e+03
1.807939e+03,3.502193e+03
1.808904e+03,3.483305e+03
1.809868e+03,3.478682e+03
1.810832e+03,3.493019e+03
1.811796e+03,3.504823e+03
1.812760e+03,3.487913e+03
1.813725e+03,3.474071e+03
1.814689e+03,3.493680e+03
1.815653e+03,3.515719e+03
1.816617e+03,3.516615e+03
1.817582e+03,3.501985e+03
1.818546e+03,3.485651e+03
1.819510e+03,3.468515e+03
1.820474e+03,3.451710e+03
1.821439e+03,3.436434e+03
1.822403e+03,3.433002e+03
1.823367e+03,3.444847e+03
1.824331e+03,3.454250e+03
1.825296e+03,3.457531e+03
1.826260e+03,3.455926e+03
1.827224e+03,3.452364e+03
1.828188e+03,3.447735e+03
1.829152e+03,3.436177e+03
1.830117e+03,3.426385e+03
1.831081e+03,3.427743e+03
1.832045e+03,3.434278e+03
1.833009e+03,3.432816e+03
1.833974e+03,3.428238e+03
1.834938e+03,3.424071e+03
1.835902e+03,3.419455e+03
1.836866e+03,3.412475e+03
1.837831e+03,3.402386e+03
1.838795e+03,3.397727e+03
1.839759e+03,3.402024e+03
1.840723e+03,3.407420e+03
1.841688e+03,3.405797e+03
1.842652e+03,3.404719e+03
1.843616e+03,3.405936e+03
1.844580e+03,3.405634e+03
1.845544e+03,3.400521e+03
1.846509e+03,3.394164e+03
1.847473e+03,3.393817e+03
1.848437e+03,3.395375e+03
1.849401e+03,3.390351e+03
1.850366e+03,3.379101e+03
1.851330e+03,3.368962e+03
1.852294e+03,3.361387e+03
1.853258e+03,3.361079e+03
1.854223e+03,3.369822e+03
1.855187e+03,3.377151e+03
1.856151e+03,3.374780e+03
1.857115e+03,3.373943e+03
1.858079e+03,3.377804e+03
1.859044e+03,3.377717e+03
1.860008e+03,3.360947e+03
1.860972e+03,3.342180e+03
1.861936e+03,3.336104e+03
1.862901e+03,3.337190e+03
1.863865e+03,3.334690e+03
1.864829e+03,3.327390e+03
1.865793e+03,3.324703e+03
1.866758e+03,3.325638e+03
1.867722e+03,3.324084e+03
1.868686e+03,3.317417e+03
1.869650e+03,3.307940e+03
1.870615e+03,3.293544e+03
1.871579e+03,3.283409e+03
1.872543e+03,3.281590e+03
1.873507e+03,3.285741e+03
1.874471e+03,3.297175e+03
1.875436e+03,3.302015e+03
1.876400e+03,3.292418e+03
1.877364e+03,3.280957e+03
1.878328e+03,3.285074e+03
1.879293e+03,3.294831e+03
1.880257e+03,3.288543e+03
1.881221e+03,3.272327e+03
1.882185e+03,3.260653e+03
1.883150e+03,3.255072e+03
1.884114e+03,3.257305e+03
1.885078e+03,3.265208e+03
1.886042e+03,3.270971e+03
1.887006e+03,3.272887e+03
1.887971e+03,3.266773e+03
1.888935e+03,3.246280e+03
1.889899e+03,3.235615e+03
1.890863e+03,3.239575e+03
1.891828e+03,3.246693e+03
1.892792e+03,3.250694e+03
1.893756e+03,3.250800e+03
1.894720e+03,3.247849e+03
1.895685e+03,3.244540e+03
1.896649e+03,3.239184e+03
1.897613e+03,3.231805e+03
1.898577e+03,3.225953e+03
1.899542e+03,3.222711e+03
1.900506e+03,3.224528e+03
1.901470e+03,3.231836e+03
1.902434e+03,3.234932e+03
1.903398e+03,3.234003e+03
1.904363e+03,3.228821e+03
1.905327e+03,3.219390e+03
1.906291e+03,3.209938e+03
1.907255e+03,3.197548e+03
1.908220e+03,3.190376e+03
1.909184e+03,3.191226e+03
1.910148e+03,3.192489e+03
1.911112e+03,3.188907e+03
1.912077e+03,3.183027e+03
1.913041e+03,3.171664e+03
1.914005e+03,3.163595e+03
1.914969e+03,3.170552e+03
1.915933e+03,3.186677e+03
1.916898e+03,3.191140e+03
1.917862e+03,3.188507e+03
1.918826e+03,3.186438e+03
1.919790e+03,3.187034e+03
1.920755e+03,3.186197e+03
1.921719e+03,3.182203e+03
1.922683e+03,3.177488e+03
1.923647e+03,3.173702e+03
1.924612e+03,3.169406e+03
1.925576e+03,3.160359e+03
1.926540e+03,3.158417e+03
1.927504e+03,3.165176e+03
1.928469e+03,3.168090e+03
1.929433e+03,3.146993e+03
1.930397e+03,3.127599e+03
1.931361e+03,3.136662e+03
1.932325e+03,3.148649e+03
1.933290e+03,3.143672e+03
1.934254e+03,3.131248e+03
1.935218e+03,3.126245e+03
1.936182e+03,3.125408e+03
1.937147e+03,3.131487e+03
1.938111e+03,3.142978e+03
1.939075e+03,3.139646e+03
1.940039e+03,3.124971e+03
1.941004e+03,3.109350e+03
1.941968e+03,3.092915e+03
1.942932e+03,3.084867e+03
1.943896e+03,3.092839e+03
1.944860e+03,3.097431e+03
1.945825e+03,3.098079e+03
1.946789e+03,3.098594e+03
1.947753e+03,3.100864e+03
1.948717e+03,3.101597e+03
1.949682e+03,3.099489e+03
1.950646e+03,3.094302e+03
1.951610e+03,3.084137e+03
1.952574e+03,3.073983e+03
1.953539e+03,3.070676e+03
1.954503e+03,3.071723e+03
1.955467e+03,3.077880e+03
1.956431e+03,3.085517e+03
1.957396e+03,3.081756e+03
1.958360e+03,3.070159e+03
1.959324e+03,3.059673e+03
1.960288e+03,3.053240e+03
1.961252e+03,3.053502e+03
1.962217e+03,3.059404e+03
1.963181e+03,3.059640e+03
1.964145e+03,3.053836e+03
1.965109e+03,3.048644e+03
1.966074e+03,3.046269e+03
1.967038e+03,3.052147e+03
1.968002e+03,3.065714e+03
1.968966e+03,3.071031e+03
1.969931e+03,3.058731e+03
1.970895e+03,3.043099e+03
1.971859e+03,3.035096e+03
1.972823e+03,3.034117e+03
1.973787e+03,3.040278e+03
1.974752e+03,3.046183e+03
1.975716e+03,3.043587e+03
1.976680e+03,3.033922e+03
1.977644e+03,3.013405e+03
1.978609e+03,2.994804e+03
1.979573e+03,2.999940e+03
1.980537e+03,3.019946e+03
1.981501e+03,3.028346e+03
1.982466e+03,3.027536e+03
1.983430e+03,3.025113e+03
1.984394e+03,3.021828e+03
1.985358e+03,3.012157e+03
1.986323e+03,2.997651e+03
1.987287e+03,2.991765e+03
1.988251e+03,3.000312e+03
1.989215e+03,3.004128e+03
1.990179e+03,3.001402e+03
1.991144e+03,2.996319e+03
1.992108e+03,2.990849e+03
1.993072e+03,2.984643e+03
1.994036e+03,2.970286e+03
1.995001e+03,2.964460e+03
1.995965e+03,2.973608e+03
1.996929e+03,2.984592e+03
1.997893e+03,2.982078e+03
1.998858e+03,2.974572e+03
1.999822e+03,2.969010e+03
2.000786e+03,2.963016e+03
2.001750e+03,2.955903e+03
2.002714e+03,2.951087e+03
2.003679e+03,2.954528e+03
2.004643e+03,2.958772e+03
2.005607e+03,2.950840e+03
2.006571e+03,2.936100e+03
2.007536e+03,2.936586e+03
2.008500e+03,2.946729e+03
2.009464e+03,2.946243e+03
2.010428e+03,2.934903e+03
2.011393e+03,2.932067e+03
2.012357e+03,2.939668e+03
2.013321e+03,2.937095e+03
2.014285e+03,2.921890e+03
2.015250e+03,2.908152e+03
2.016214e+03,2.903835e+03
2.017178e+03,2.900079e+03
2.018142e+03,2.897179e+03
2.019106e+03,2.895278e+03
2.020071e+03,2.892246e+03
2.021035e+03,2.894551e+03
2.021999e+03,2.911220e+03
2.022963e+03,2.920876e+03
2.023928e+03,2.916148e+03
2.024892e+03,2.904071e+03
2.025856e+03,2.884729e+03
2.026820e+03,2.869966e+03
2.027785e+03,2.868269e+03
2.028749e+03,2.870412e+03
2.029713e+03,2.863012e+03
2.030677e+03,2.854435e+03
2.031641e+03,2.858825e+03
2.032606e+03,2.866794e+03
2.033570e+03,2.859742e+03
2.034534e+03,2.842626e+03
2.035498e+03,2.840216e+03
2.036463e+03,2.847668e+03
2.037427e+03,2.852377e+03
2.038391e+03,2.854950e+03
2.039355e+03,2.866170e+03
2.040320e+03,2.882153e+03
2.041284e+03,2.880411e+03
2.042248e+03,2.854325e+03
2.043212e+03,2.847007e+03
2.044177e+03,2.863663e+03
2.045141e+03,2.870244e+03
2.046105e+03,2.861212e+03
2.047069e+03,2.849960e+03
2.048033e+03,2.840025e+03
2.048998e+03,2.829320e+03
2.049962e+03,2.818417e+03
2.050926e+03,2.811222e+03
2.051890e+03,2.813151e+03
2.052854e+03,2.814533e+03
2.053819e+03,2.810865e+03
2.054783e+03,2.805659e+03
2.055747e+03,2.801990e+03
2.056711e+03,2.801663e+03
2.057676e+03,2.809320e+03
2.058640e+03,2.816169e+03
2.059604e+03,2.815472e+03
2.060568e+03,2.809558e+03
2.061533e+03,2.799842e+03
2.062497e+03,2.792184e+03
2.063461e+03,2.794317e+03
2.064425e+03,2.800383e+03
2.065390e+03,2.804792e+03
2.066354e+03,2.805583e+03
2.067318e+03,2.797305e+03
2.068282e+03,2.785546e+03
2.069247e+03,2.781411e+03
2.070211e+03,2.781903e+03
2.071175e+03,2.767770e+03
2.072139e+03,2.747429e+03
2.073104e+03,2.741207e+03
2.074068e+03,2.750717e+03
2.075032e+03,2.764215e+03
2.075996e+03,2.778171e+03
2.076960e+03,2.780471e+03
2.077925e+03,2.768429e+03
2.078889e+03,2.758998e+03
2.079853e+03,2.753413e+03
2.080817e+03,2.747992e+03
2.081782e+03,2.742023e+03
2.082746e+03,2.734633e+03
2.083710e+03,2.725697e+03
2.084674e+03,2.721159e+03
2.085639e+03,2.722854e+03
2.086603e+03,2.725989e+03
2.087567e+03,2.723091e+03
2.088531e+03,2.720659e+03
2.089496e+03,2.719062e+03
2.090460e+03,2.712201e+03
2.091424e+03,2.698813e+03
2.092388e+03,2.692828e+03
2.093353e+03,2.708670e+03
2.094317e+03,2.719641e+03
2.095281e+03,2.713479e+03
2.096245e+03,2.705393e+03
2.097209e+03,2.718637e+03
2.098174e+03,2.723111e+03
2.099138e+03,2.703853e+03
2.100102e+03,2.683154e+03
2.101066e+03,2.689125e+03
2.102031e+03,2.699777e+03
2.102995e+03,2.694309e+03
2.103959e+03,2.684594e+03
2.104923e+03,2.679528e+03
2.105887e+03,2.678843e+03
2.106852e+03,2.675396e+03
2.107816e+03,2.673964e+03
2.108780e+03,2.684495e+03
2.109744e+03,2.698506e+03
2.110708e+03,2.697393e+03
2.111673e+03,2.688295e+03
2.112637e+03,2.674893e+03
2.113601e+03,2.659375e+03
2.114565e+03,2.649033e+03
2.115530e+03,2.643240e+03
2.116494e+03,2.641316e+03
2.117458e+03,2.645565e+03
2.118422e+03,2.652157e+03
2.119387e+03,2.657825e+03
2.120351e+03,2.655858e+03
2.121315e+03,2.647439e+03
2.122279e+03,2.643434e+03
2.123244e+03,2.644141e+03
2.124208e+03,2.643891e+03
2.125172e+03,2.643196e+03
2.126136e+03,2.639655e+03
2.127101e+03,2.632621e+03
2.128065e+03,2.628233e+03
2.129029e+03,2.625769e+03
2.129993e+03,2.625131e+03
2.130958e+03,2.623710e+03
2.131922e+03,2.619397e+03
2.132886e+03,2.612778e+03
2.133850e+03,2.608947e+03
2.134814e+03,2.610745e+03
2.135779e+03,2.613554e+03
2.136743e+03,2.614648e+03
2.137707e+03,2.613626e+03
2.138671e+03,2.611393e+03
2.139636e+03,2.606931e+03
2.140600e+03,2.596387e+03
2.141564e+03,2.590957e+03
2.142528e+03,2.591866e+03
2.143493e+03,2.595670e+03
2.144457e+03,2.602207e+03
2.145421e+03,2.599176e+03
2.146385e+03,2.582105e+03
2.147350e+03,2.566758e+03
2.148314e+03,2.558269e+03
2.149278e+03,2.557120e+03
2.150242e+03,2.565681e+03
2.151207e+03,2.571117e+03
2.152171e+03,2.570645e+03
2.153135e+03,2.566408e+03
2.154099e+03,2.563329e+03
2.155063e+03,2.557918e+03
2.156028e+03,2.549026e+03
2.156992e+03,2.544813e+03
2.157956e+03,2.551033e+03
2.158920e+03,2.556061e+03
2.159885e+03,2.554052e+03
2.160849e+03,2.550870e+03
2.161813e+03,2.547710e+03
2.162777e+03,2.547854e+03
2.163741e+03,2.566581e+03
2.164706e+03,2.569713e+03
2.165670e+03,2.542471e+03
2.166634e+03,2.515003e+03
2.167598e+03,2.518637e+03
2.168563e+03,2.530098e+03
2.169527e+03,2.537818e+03
2.170491e+03,2.539317e+03
2.171455e+03,2.531348e+03
2.172420e+03,2.523622e+03
2.173384e+03,2.524040e+03
2.174348e+03,2.525522e+03
2.175312e+03,2.520649e+03
2.176277e+03,2.513425e+03
2.177241e+03,2.510253e+03
2.178205e+03,2.504085e+03
2.179169e+03,2.488172e+03
2.180134e+03,2.476337e+03
2.181098e+03,2.495274e+03
2.182062e+03,2.512174e+03
2.183026e+03,2.500530e+03
2.183990e+03,2.480302e+03
2.184955e+03,2.481822e+03
2.185919e+03,2.489305e+03
2.186883e+03,2.490624e+03
2.187847e+03,2.485688e+03
2.188812e+03,2.471234e+03
2.189776e+03,2.456784e+03
2.190740e+03,2.450325e+03
2.191704e+03,2.449974e+03
2.192668e+03,2.462211e+03
2.193633e+03,2.475199e+03
2.194597e+03,2.466199e+03
2.195561e+03,2.454175e+03
2.196525e+03,2.455280e+03
2.197490e+03,2.462781e+03
2.198454e+03,2.471504e+03
2.199418e+03,2.472341e+03
2.200382e+03,2.455152e+03
2.201347e+03,2.435257e+03
2.202311e+03,2.437808e+03
2.203275e+03,2.448650e+03
2.204239e+03,2.453091e+03
2.205204e+03,2.451671e+03
2.206168e+03,2.449006e+03
2.207132e+03,2.445110e+03
2.208096e+03,2.437252e+03
2.209061e+03,2.425610e+03
2.210025e+03,2.407884e+03
2.210989e+03,2.392353e+03
2.211953e+03,2.394990e+03
2.212917e+03,2.410369e+03
2.213882e+03,2.428139e+03
2.214846e+03,2.442577e+03
2.215810e+03,2.448715e+03
2.216774e+03,2.442096e+03
2.217739e+03,2.421148e+03
2.218703e+03,2.399269e+03
2.219667e+03,2.402608e+03
2.220631e+03,2.412875e+03
2.221595e+03,2.411921e+03
2.222560e+03,2.403999e+03
2.223524e+03,2.392372e+03
2.224488e+03,2.381036e+03
2.225452e+03,2.375300e+03
2.226417e+03,2.374458e+03
2.227381e+03,2.380083e+03
2.228345e+03,2.388430e+03
2.229309e+03,2.392957e+03
2.230274e+03,2.393674e+03
2.231238e+03,2.391145e+03
2.232202e+03,2.386484e+03
2.233166e+03,2.383425e+03
2.234131e+03,2.381666e+03
2.235095e+03,2.380891e+03
2.236059e+03,2.378206e+03
2.237023e+03,2.365442e+03
2.237988e+03,2.351369e+03
2.238952e+03,2.340567e+03
2.239916e+03,2.332857e+03
2.240880e+03,2.331452e+03
2.241844e+03,2.334184e+03
2.242809e+03,2.339828e+03
2.243773e+03,2.346559e+03
2.244737e+03,2.353623e+03
2.245701e+03,2.356776e+03
2.246666e+03,2.349763e+03
2.247630e+03,2.340636e+03
2.248594e+03,2.336156e+03
2.249558e+03,2.336264e+03
2.250522e+03,2.343195e+03
2.251487e+03,2.348516e+03
2.252451e+03,2.345314e+03
2.253415e+03,2.336593e+03
2.254379e+03,2.325922e+03
2.255344e+03,2.318348e+03
2.256308e+03,2.317033e+03
2.257272e+03,2.316500e+03
2.258236e+03,2.309622e+03
2.259201e+03,2.304271e+03
2.260165e+03,2.301186e+03
2.261129e+03,2.302523e+03
2.262093e+03,2.319359e+03
2.263058e+03,2.322552e+03
2.264022e+03,2.303538e+03
2.264986e+03,2.290606e+03
2.265950e+03,2.310802e+03
2.266915e+03,2.318758e+03
2.267879e+03,2.296364e+03
2.268843e+03,2.277020e+03
2.269807e+03,2.279413e+03
2.270771e+03,2.284938e+03
2.271736e+03,2.287958e+03
2.272700e+03,2.290447e+03
2.273664e+03,2.290126e+03
2.274628e+03,2.290795e+03
2.275593e+03,2.296634e+03
2.276557e+03,2.291333e+03
2.277521e+03,2.273888e+03
2.278485e+03,2.263074e+03
2.279449e+03,2.272061e+03
2.280414e+03,2.276935e+03
2.281378e+03,2.276041e+03
2.282342e+03,2.274790e+03
2.283306e+03,2.274000e+03
2.284271e+03,2.271041e+03
2.285235e+03,2.265738e+03
2.286199e+03,2.263778e+03
2.287163e+03,2.273898e+03
2.288128e+03,2.265914e+03
2.289092e+03,2.240501e+03
2.290056e+03,2.228397e+03
2.291020e+03,2.238104e+03
2.291985e+03,2.235241e+03
2.292949e+03,2.223178e+03
2.293913e+03,2.226167e+03
2.294877e+03,2.244370e+03
2.295842e+03,2.257035e+03
2.296806e+03,2.261651e+03
2.297770e+03,2.252638e+03
2.298734e+03,2.234862e+03
2.299698e+03,2.230032e+03
2.300663e+03,2.236940e+03
2.301627e+03,2.236024e+03
2.302591e+03,2.228424e+03
2.303555e+03,2.218491e+03
2.304520e+03,2.208646e+03
2.305484e+03,2.208665e+03
2.306448e+03,2.212889e+03
2.307412e+03,2.208804e+03
2.308376e+03,2.200181e+03
2.309341e+03,2.201980e+03
2.310305e+03,2.205502e+03
2.311269e+03,2.198401e+03
2.312233e+03,2.189677e+03
2.313198e+03,2.192557e+03
2.314162e+03,2.198728e+03
2.315126e+03,2.203427e+03
2.316090e+03,2.201363e+03
2.317055e+03,2.178694e+03
2.318019e+03,2.157727e+03
2.318983e+03,2.159343e+03
2.319947e+03,2.167780e+03
2.320912e+03,2.177485e+03
2.321876e+03,2.186172e+03
2.322840e+03,2.192631e+03
2.323804e+03,2.193153e+03
2.324769e+03,2.184309e+03
2.325733e+03,2.175924e+03
2.326697e+03,2.172020e+03
2.327661e+03,2.173916e+03
2.328625e+03,2.182371e+03
2.329590e+03,2.183167e+03
2.330554e+03,2.164396e+03
2.331518e+03,2.151926e+03
2.332482e+03,2.149370e+03
2.333447e+03,2.150721e+03
2.334411e+03,2.155096e+03
2.335375e+03,2.157545e+03
2.336339e+03,2.157634e+03
2.337303e+03,2.152800e+03
2.338268e+03,2.137077e+03
2.339232e+03,2.128185e+03
2.340196e+03,2.125968e+03
2.341160e+03,2.124064e+03
2.342125e+03,2.120149e+03
2.343089e+03,2.129474e+03
2.344053e+03,2.145463e+03
2.345017e+03,2.156206e+03
2.345982e+03,2.159339e+03
2.346946e+03,2.142514e+03
2.347910e+03,2.117708e+03
2.348874e+03,2.116538e+03
2.349839e+03,2.128115e+03
2.350803e+03,2.116007e+03
2.351767e+03,2.094911e+03
2.352731e+03,2.095504e+03
2.353696e+03,2.106387e+03
2.354660e+03,2.105020e+03
2.355624e+03,2.098257e+03
2.356588e+03,2.099572e+03
2.357552e+03,2.103335e+03
2.358517e+03,2.103470e+03
2.359481e+03,2.103990e+03
2.360445e+03,2.114334e+03
2.361409e+03,2.115917e+03
2.362374e+03,2.094694e+03
2.363338e+03,2.074319e+03
2.364302e+03,2.085513e+03
2.365266e+03,2.096595e+03
2.366230e+03,2.097440e+03
2.367195e+03,2.094453e+03
2.368159e+03,2.087874e+03
2.369123e+03,2.083285e+03
2.370087e+03,2.083367e+03
2.371052e+03,2.086802e+03
2.372016e+03,2.099144e+03
2.372980e+03,2.091819e+03
2.373944e+03,2.064866e+03
2.374909e+03,2.048496e+03
2.375873e+03,2.054991e+03
2.376837e+03,2.060022e+03
2.377801e+03,2.063342e+03
2.378766e+03,2.059833e+03
2.379730e+03,2.049814e+03
2.380694e+03,2.047842e+03
2.381658e+03,2.052031e+03
2.382623e+03,2.052049e+03
2.383587e+03,2.050377e+03
2.384551e+03,2.061520e+03
2.385515e+03,2.076116e+03
2.386479e+03,2.082168e+03
2.387444e+03,2.081101e+03
2.388408e+03,2.070166e+03
2.389372e+03,2.058499e+03
2.390336e+03,2.054229e+03
2.391301e+03,2.052727e+03
2.392265e+03,2.048143e+03
2.393229e+03,2.046203e+03
2.394193e+03,2.053166e+03
2.395157e+03,2.056573e+03
2.396122e+03,2.045744e+03
2.397086e+03,2.038083e+03
2.398050e+03,2.041024e+03
2.399014e+03,2.041135e+03
2.399979e+03,2.031761e+03
2.400943e+03,2.024684e+03
2.401907e+03,2.021048e+03
2.402871e+03,2.020180e+03
2.403836e+03,2.022806e+03
2.404800e+03,2.026042e+03
2.405764e+03,2.028864e+03
2.406728e+03,2.029184e+03
2.407693e+03,2.025903e+03
2.408657e+03,2.021740e+03
2.409621e+03,2.018503e+03
2.410585e+03,2.020044e+03
2.411550e+03,2.023232e+03
2.412514e+03,2.018548e+03
2.413478e+03,2.009766e+03
2.414442e+03,2.009569e+03
2.415406e+03,2.009624e+03
2.416371e+03,1.998380e+03
2.417335e+03,1.985895e+03
2.418299e+03,1.987298e+03
2.419263e+03,1.992897e+03
2.420228e+03,1.998356e+03
2.421192e+03,2.000573e+03
2.422156e+03,1.995524e+03
2.423120e+03,1.989860e+03
2.424084e+03,1.983239e+03
2.425049e+03,1.975130e+03
2.426013e+03,1.966665e+03
2.426977e+03,1.959857e+03
2.427941e+03,1.956602e+03
2.428906e+03,1.962198e+03
2.429870e+03,1.978986e+03
2.430834e+03,1.981051e+03
2.431798e+03,1.971459e+03
2.432763e+03,1.966780e+03
2.433727e+03,1.967194e+03
2.434691e+03,1.963196e+03
2.435655e+03,1.958183e+03
2.436620e+03,1.962113e+03
2.437584e+03,1.968407e+03
2.438548e+03,1.955815e+03
2.439512e+03,1.940292e+03
2.440477e+03,1.936489e+03
2.441441e+03,1.938600e+03
2.442405e+03,1.946994e+03
2.443369e+03,1.951331e+03
2.444333e+03,1.947723e+03
2.445298e+03,1.942118e+03
2.446262e+03,1.935636e+03
2.447226e+03,1.934243e+03
2.448190e+03,1.939854e+03
2.449155e+03,1.947398e+03
2.450119e+03,1.959856e+03
2.451083e+03,1.961799e+03
2.452047e+03,1.953587e+03
2.453011e+03,1.944840e+03
2.453976e+03,1.938543e+03
2.454940e+03,1.936453e+03
2.455904e+03,1.937827e+03
2.456868e+03,1.935125e+03
2.457833e+03,1.928005e+03
2.458797e+03,1.917821e+03
2.459761e+03,1.910011e+03
2.460725e+03,1.911502e+03
2.461690e+03,1.916859e+03
2.462654e+03,1.920425e+03
2.463618e+03,1.922545e+03
2.464582e+03,1.925199e+03
2.465547e+03,1.926441e+03
2.466511e+03,1.916890e+03
2.467475e+03,1.913407e+03
2.468439e+03,1.920052e+03
2.469404e+03,1.922204e+03
2.470368e+03,1.905432e+03
2.471332e+03,1.908191e+03
2.472296e+03,1.927156e+03
2.473260e+03,1.929636e+03
2.474225e+03,1.906351e+03
2.475189e+03,1.889224e+03
2.476153e+03,1.880536e+03
2.477117e+03,1.887672e+03
2.478082e+03,1.903162e+03
2.479046e+03,1.909078e+03
2.480010e+03,1.908644e+03
2.480974e+03,1.905257e+03
2.481938e+03,1.903614e+03
2.482903e+03,1.915904e+03
2.483867e+03,1.921538e+03
2.484831e+03,1.907886e+03
2.485795e+03,1.893341e+03
2.486760e+03,1.897906e+03
2.487724e+03,1.897465e+03
2.488688e+03,1.888698e+03
2.489652e+03,1.878455e+03
2.490617e+03,1.864828e+03
2.491581e+03,1.862415e+03
2.492545e+03,1.869630e+03
2.493509e+03,1.868791e+03
2.494474e+03,1.857839e+03
2.495438e+03,1.867622e+03
2.496402e+03,1.886275e+03
2.497366e+03,1.886961e+03
2.498331e+03,1.876871e+03
2.499295e+03,1.865307e+03
2.500259e+03,1.857177e+03
2.501223e+03,1.860352e+03
2.502188e+03,1.864035e+03
2.503152e+03,1.852623e+03
2.504116e+03,1.845655e+03
2.505080e+03,1.849375e+03
2.506044e+03,1.852401e+03
2.507009e+03,1.843948e+03
2.507973e+03,1.838557e+03
2.508937e+03,1.837478e+03
2.509901e+03,1.836857e+03
2.510865e+03,1.835296e+03
2.511830e+03,1.830725e+03
2.512794e+03,1.822792e+03
2.513758e+03,1.812760e+03
2.514722e+03,1.805026e+03
2.515687e+03,1.810369e+03
2.516651e+03,1.820930e+03
2.517615e+03,1.829021e+03
2.518579e+03,1.833842e+03
2.519544e+03,1.833766e+03
2.520508e+03,1.830607e+03
2.521472e+03,1.825510e+03
2.522436e+03,1.820984e+03
2.523401e+03,1.823008e+03
2.524365e+03,1.812316e+03
2.525329e+03,1.787716e+03
2.526293e+03,1.783243e+03
2.527258e+03,1.809173e+03
2.528222e+03,1.824396e+03
2.529186e+03,1.830100e+03
2.530150e+03,1.832804e+03
2.531115e+03,1.832842e+03
2.532079e+03,1.819065e+03
2.533043e+03,1.805090e+03
2.534007e+03,1.804960e+03
2.534971e+03,1.807989e+03
2.535936e+03,1.800404e+03
2.536900e+03,1.800945e+03
2.537864e+03,1.818354e+03
2.538828e+03,1.826679e+03
2.539792e+03,1.805381e+03
2.540757e+03,1.793289e+03
2.541721e+03,1.794393e+03
2.542685e+03,1.794185e+03
2.543649e+03,1.791953e+03
2.544614e+03,1.797988e+03
2.545578e+03,1.807215e+03
2.546542e+03,1.808320e+03
2.547506e+03,1.803901e+03
2.548471e+03,1.797680e+03
2.549435e+03,1.789057e+03
2.550399e+03,1.773149e+03
2.551363e+03,1.765957e+03
2.552328e+03,1.789974e+03
2.553292e+03,1.805637e+03
2.554256e+03,1.797594e+03
2.555220e+03,1.789820e+03
2.556185e+03,1.787059e+03
2.557149e+03,1.787587e+03
2.558113e+03,1.790313e+03
2.559077e+03,1.785964e+03
2.560042e+03,1.776575e+03
2.561006e+03,1.775313e+03
2.561970e+03,1.781180e+03
2.562934e+03,1.785670e+03
2.563898e+03,1.788479e+03
2.564863e+03,1.788633e+03
2.565827e+03,1.784829e+03
2.566791e+03,1.774887e+03
2.567755e+03,1.771113e+03
2.568719e+03,1.773925e+03
2.569684e+03,1.776130e+03
2.570648e+03,1.776754e+03
2.571612e+03,1.764986e+03
2.572576e+03,1.746812e+03
2.573541e+03,1.749536e+03
2.574505e+03,1.768011e+03
2.575469e+03,1.768367e+03
2.576433e+03,1.759947e+03
2.577398e+03,1.759987e+03
2.578362e+03,1.761218e+03
2.579326e+03,1.747977e+03
2.580290e+03,1.742996e+03
2.581255e+03,1.755621e+03
2.582219e+03,1.765219e+03
2.583183e+03,1.754357e+03
2.584147e+03,1.744855e+03
2.585112e+03,1.740431e+03
2.586076e+03,1.741709e+03
2.587040e+03,1.748089e+03
2.588004e+03,1.752334e+03
2.588969e+03,1.753667e+03
2.589933e+03,1.754851e+03
2.590897e+03,1.754313e+03
2.591861e+03,1.742443e+03
2.592825e+03,1.735670e+03
2.593790e+03,1.745927e+03
2.594754e+03,1.753193e+03
2.595718e+03,1.741332e+03
2.596682e+03,1.733560e+03
2.597646e+03,1.733720e+03
2.598611e+03,1.731319e+03
2.599575e+03,1.726807e+03
2.600539e+03,1.720864e+03
2.601503e+03,1.715549e+03
2.602468e+03,1.721773e+03
2.603432e+03,1.730876e+03
2.604396e+03,1.724202e+03
2.605360e+03,1.716645e+03
2.606325e+03,1.722698e+03
2.607289e+03,1.726542e+03
2.608253e+03,1.721673e+03
2.609217e+03,1.714778e+03
2.610182e+03,1.703526e+03
2.611146e+03,1.704576e+03
2.612110e+03,1.716049e+03
2.613074e+03,1.714214e+03
2.614039e+03,1.700872e+03
2.615003e+03,1.702058e+03
2.615967e+03,1.709852e+03
2.616931e+03,1.719504e+03
2.617896e+03,1.723418e+03
2.618860e+03,1.703179e+03
2.619824e+03,1.684446e+03
2.620788e+03,1.675513e+03
2.621752e+03,1.675824e+03
2.622717e+03,1.689981e+03
2.623681e+03,1.705631e+03
2.624645e+03,1.720127e+03
2.625609e+03,1.721944e+03
2.626573e+03,1.713605e+03
2.627538e+03,1.713878e+03
2.628502e+03,1.713541e+03
2.629466e+03,1.694440e+03
2.630430e+03,1.672012e+03
2.631395e+03,1.663030e+03
2.632359e+03,1.666891e+03
2.633323e+03,1.689677e+03
2.634287e+03,1.701068e+03
2.635252e+03,1.695735e+03
2.636216e+03,1.695242e+03
2.637180e+03,1.701436e+03
2.638144e+03,1.697596e+03
2.639109e+03,1.688073e+03
2.640073e+03,1.691537e+03
2.641037e+03,1.698663e+03
2.642001e+03,1.683890e+03
2.642966e+03,1.678425e+03
2.643930e+03,1.702450e+03
2.644894e+03,1.718950e+03
2.645858e+03,1.691525e+03
2.646823e+03,1.679935e+03
2.647787e+03,1.684817e+03
2.648751e+03,1.692120e+03
2.649715e+03,1.697590e+03
2.650679e+03,1.686653e+03
2.651644e+03,1.669418e+03
2.652608e+03,1.661145e+03
2.653572e+03,1.657795e+03
2.654536e+03,1.653477e+03
2.655500e+03,1.656450e+03
2.656465e+03,1.672362e+03
2.657429e+03,1.674038e+03
2.658393e+03,1.650483e+03
2.659357e+03,1.639753e+03
2.660322e+03,1.647517e+03
2.661286e+03,1.655717e+03
2.662250e+03,1.662537e+03
2.663214e+03,1.666559e+03
2.664179e+03,1.666422e+03
2.665143e+03,1.657412e+03
2.666107e+03,1.650785e+03
2.667071e+03,1.652555e+03
2.668036e+03,1.656545e+03
2.669000e+03,1.659459e+03
2.669964e+03,1.655090e+03
2.670928e+03,1.645661e+03
2.671893e+03,1.651424e+03
2.672857e+03,1.667910e+03
2.673821e+03,1.662410e+03
2.674785e+03,1.644720e+03
2.675750e+03,1.625691e+03
2.676714e+03,1.613777e+03
2.677678e+03,1.625089e+03
2.678642e+03,1.630414e+03
2.679606e+03,1.623406e+03
2.680571e+03,1.624612e+03
2.681535e+03,1.636322e+03
2.682499e+03,1.635137e+03
2.683463e+03,1.623460e+03
2.684427e+03,1.621595e+03
2.685392e+03,1.625839e+03
2.686356e+03,1.630768e+03
2.687320e+03,1.633034e+03
2.688284e+03,1.631270e+03
2.689249e+03,1.624168e+03
2.690213e+03,1.611291e+03
2.691177e+03,1.605299e+03
2.692141e+03,1.613009e+03
2.693106e+03,1.622328e+03
2.694070e+03,1.629236e+03
2.695034e+03,1.618323e+03
2.695998e+03,1.604151e+03
2.696963e+03,1.615696e+03
2.697927e+03,1.631656e+03
2.698891e+03,1.641285e+03
2.699855e+03,1.635389e+03
2.700820e+03,1.605205e+03
2.701784e+03,1.597200e+03
2.702748e+03,1.612183e+03
2.703712e+03,1.624186e+03
2.704677e+03,1.630226e+03
2.705641e+03,1.626112e+03
2.706605e+03,1.620108e+03
2.707569e+03,1.614484e+03
2.708533e+03,1.616677e+03
2.709498e+03,1.630480e+03
2.710462e+03,1.635354e+03
2.711426e+03,1.619888e+03
2.712390e+03,1.610299e+03
2.713354e+03,1.606295e+03
2.714319e+03,1.608209e+03
2.715283e+03,1.610798e+03
2.716247e+03,1.598765e+03
2.717211e+03,1.590153e+03
2.718176e+03,1.598798e+03
2.719140e+03,1.605816e+03
2.720104e+03,1.595379e+03
2.721068e+03,1.590212e+03
2.722033e+03,1.593171e+03
2.722997e+03,1.599379e+03
2.723961e+03,1.605508e+03
2.724925e+03,1.601967e+03
2.725890e+03,1.596667e+03
2.726854e+03,1.602935e+03
2.727818e+03,1.606709e+03
2.728782e+03,1.597936e+03
2.729747e+03,1.588125e+03
2.730711e+03,1.583974e+03
2.731675e+03,1.574925e+03
2.732639e+03,1.564827e+03
2.733604e+03,1.574973e+03
2.734568e+03,1.594587e+03
2.735532e+03,1.594570e+03
2.736496e+03,1.589031e+03
2.737460e+03,1.590755e+03
2.738425e+03,1.590205e+03
2.739389e+03,1.579471e+03
2.740353e+03,1.572699e+03
2.741317e+03,1.572844e+03
2.742281e+03,1.573276e+03
2.743246e+03,1.574334e+03
2.744210e+03,1.576200e+03
2.745174e+03,1.576031e+03
2.746138e+03,1.571424e+03
2.747103e+03,1.570397e+03
2.748067e+03,1.576519e+03
2.749031e+03,1.585564e+03
2.749995e+03,1.598925e+03
2.750960e+03,1.592783e+03
2.751924e+03,1.575786e+03
2.752888e+03,1.579069e+03
2.753852e+03,1.588070e+03
2.754817e+03,1.559508e+03
2.755781e+03,1.536270e+03
2.756745e+03,1.542974e+03
2.757709e+03,1.558144e+03
2.758674e+03,1.572829e+03
2.759638e+03,1.568702e+03
2.760602e+03,1.545652e+03
2.761566e+03,1.543626e+03
2.762531e+03,1.554380e+03
2.763495e+03,1.562412e+03
2.764459e+03,1.566865e+03
2.765423e+03,1.571825e+03
2.766387e+03,1.561053e+03
2.767352e+03,1.533464e+03
2.768316e+03,1.532863e+03
2.769280e+03,1.566087e+03
2.770244e+03,1.579466e+03
2.771208e+03,1.578307e+03
2.772173e+03,1.578026e+03
2.773137e+03,1.571856e+03
2.774101e+03,1.548249e+03
2.775065e+03,1.539032e+03
2.776030e+03,1.562621e+03
2.776994e+03,1.563025e+03
2.777958e+03,1.540818e+03
2.778922e+03,1.536347e+03
2.779887e+03,1.543655e+03
2.780851e+03,1.532869e+03
2.781815e+03,1.521279e+03
2.782779e+03,1.522380e+03
2.783744e+03,1.528306e+03
2.784708e+03,1.535020e+03
2.785672e+03,1.531215e+03
2.786636e+03,1.519175e+03
2.787601e+03,1.526071e+03
2.788565e+03,1.543920e+03
2.789529e+03,1.544392e+03
2.790493e+03,1.542873e+03
2.791458e+03,1.559721e+03
2.792422e+03,1.556434e+03
2.793386e+03,1.528629e+03
2.794350e+03,1.514893e+03
2.795314e+03,1.523630e+03
2.796279e+03,1.526754e+03
2.797243e+03,1.525325e+03
2.798207e+03,1.523798e+03
2.799171e+03,1.525017e+03
2.800135e+03,1.534850e+03
2.801100e+03,1.536767e+03
2.802064e+03,1.527139e+03
2.803028e+03,1.524723e+03
2.803992e+03,1.529428e+03
2.804957e+03,1.538076e+03
2.805921e+03,1.546559e+03
2.806885e+03,1.545303e+03
2.807849e+03,1.542512e+03
2.808814e+03,1.543177e+03
2.809778e+03,1.538071e+03
2.810742e+03,1.519707e+03
2.811706e+03,1.520480e+03
2.812671e+03,1.532438e+03
2.813635e+03,1.528347e+03
2.814599e+03,1.519057e+03
2.815563e+03,1.537661e+03
2.816528e+03,1.543454e+03
2.817492e+03,1.508698e+03
2.818456e+03,1.486863e+03
2.819420e+03,1.482533e+03
2.820385e+03,1.487409e+03
2.821349e+03,1.497500e+03
2.822313e+03,1.502195e+03
2.823277e+03,1.499378e+03
2.824241e+03,1.486083e+03
2.825206e+03,1.478068e+03
2.826170e+03,1.486679e+03
2.827134e+03,1.503095e+03
2.828098e+03,1.522613e+03
2.829063e+03,1.531369e+03
2.830027e+03,1.528663e+03
2.830991e+03,1.505214e+03
2.831955e+03,1.489913e+03
2.832919e+03,1.513241e+03
2.833884e+03,1.525225e+03
2.834848e+03,1.518593e+03
2.835812e+03,1.506110e+03
2.836776e+03,1.493637e+03
2.837741e+03,1.509076e+03
2.838705e+03,1.525374e+03
2.839669e+03,1.510484e+03
2.840633e+03,1.495219e+03
2.841598e+03,1.497418e+03
2.842562e+03,1.491897e+03
2.843526e+03,1.474351e+03
2.844490e+03,1.478108e+03
2.845455e+03,1.488752e+03
2.846419e+03,1.479824e+03
2.847383e+03,1.470931e+03
2.848347e+03,1.492669e+03
2.849312e+03,1.497513e+03
2.850276e+03,1.477932e+03
2.851240e+03,1.478164e+03
2.852204e+03,1.495226e+03
2.853168e+03,1.504648e+03
2.854133e+03,1.506961e+03
2.855097e+03,1.506072e+03
2.856061e+03,1.495726e+03
2.857025e+03,1.473062e+03
2.857990e+03,1.465398e+03
2.858954e+03,1.482052e+03
2.859918e+03,1.484887e+03
2.860882e+03,1.482235e+03
2.861846e+03,1.488318e+03
2.862811e+03,1.494848e+03
2.863775e+03,1.494022e+03
2.864739e+03,1.489361e+03
2.865703e+03,1.481155e+03
2.866668e+03,1.480694e+03
2.867632e+03,1.485250e+03
2.868596e+03,1.488988e+03
2.869560e+03,1.488604e+03
2.870525e+03,1.476797e+03
2.871489e+03,1.472395e+03
2.872453e+03,1.478999e+03
2.873417e+03,1.488559e+03
2.874382e+03,1.496185e+03
2.875346e+03,1.477860e+03
2.876310e+03,1.456357e+03
2.877274e+03,1.465220e+03
2.878239e+03,1.476477e+03
2.879203e+03,1.478008e+03
2.880167e+03,1.474670e+03
2.881131e+03,1.469332e+03
2.882095e+03,1.476582e+03
2.883060e+03,1.487260e+03
2.884024e+03,1.485913e+03
2.884988e+03,1.477930e+03
2.885952e+03,1.463566e+03
2.886917e+03,1.465640e+03
2.887881e+03,1.492211e+03
2.888845e+03,1.490222e+03
2.889809e+03,1.472889e+03
2.890773e+03,1.470114e+03
2.891738e+03,1.474181e+03
2.892702e+03,1.486699e+03
2.893666e+03,1.488231e+03
2.894630e+03,1.476320e+03
2.895595e+03,1.477208e+03
2.896559e+03,1.486199e+03
2.897523e+03,1.471889e+03
2.898487e+03,1.452985e+03
2.899452e+03,1.446554e+03
2.900416e+03,1.451298e+03
2.901380e+03,1.464035e+03
2.902344e+03,1.468994e+03
2.903309e+03,1.464377e+03
2.904273e+03,1.454541e+03
2.905237e+03,1.452574e+03
2.906201e+03,1.478620e+03
2.907166e+03,1.480658e+03
2.908130e+03,1.435926e+03
2.909094e+03,1.423151e+03
2.910058e+03,1.452890e+03
2.911022e+03,1.465030e+03
2.911987e+03,1.467670e+03
2.912951e+03,1.469379e+03
2.913915e+03,1.468685e+03
2.914879e+03,1.460881e+03
2.915844e+03,1.467216e+03
2.916808e+03,1.485525e+03
2.917772e+03,1.484664e+03
2.918736e+03,1.471974e+03
2.919700e+03,1.454333e+03
2.920665e+03,1.443643e+03
2.921629e+03,1.457014e+03
2.922593e+03,1.458364e+03
2.923557e+03,1.449504e+03
2.924522e+03,1.442822e+03
2.925486e+03,1.440802e+03
2.926450e+03,1.455611e+03
2.927414e+03,1.460738e+03
2.928379e+03,1.439336e+03
2.929343e+03,1.424097e+03
2.930307e+03,1.417717e+03
2.931271e+03,1.419001e+03
2.932236e+03,1.425655e+03
2.933200e+03,1.437558e+03
2.934164e+03,1.446269e+03
2.935128e+03,1.447105e+03
2.936093e+03,1.443695e+03
2.937057e+03,1.437862e+03
2.938021e+03,1.412556e+03
2.938985e+03,1.392129e+03
2.939949e+03,1.430522e+03
2.940914e+03,1.451054e+03
2.941878e+03,1.429728e+03
2.942842e+03,1.413234e+03
2.943806e+03,1.409778e+03
2.944771e+03,1.426963e+03
2.945735e+03,1.446794e+03
2.946699e+03,1.442754e+03
2.947663e+03,1.437234e+03
2.948627e+03,1.436415e+03
2.949592e+03,1.434767e+03
2.950556e+03,1.432294e+03
2.951520e+03,1.428707e+03
2.952484e+03,1.420829e+03
2.953449e+03,1.402716e+03
2.954413e+03,1.409357e+03
2.955377e+03,1.456653e+03
2.956341e+03,1.463522e+03
2.957306e+03,1.429616e+03
2.958270e+03,1.424289e+03
2.959234e+03,1.428164e+03
2.960198e+03,1.427129e+03
2.961163e+03,1.430563e+03
2.962127e+03,1.440590e+03
2.963091e+03,1.435209e+03
2.964055e+03,1.417072e+03
2.965020e+03,1.407314e+03
2.965984e+03,1.408652e+03
2.966948e+03,1.422294e+03
2.967912e+03,1.420349e+03
2.968876e+03,1.385183e+03
2.969841e+03,1.360398e+03
2.970805e+03,1.357061e+03
2.971769e+03,1.399461e+03
2.972733e+03,1.435933e+03
2.973698e+03,1.428724e+03
2.974662e+03,1.408645e+03
2.975626e+03,1.383350e+03
2.976590e+03,1.398094e+03
2.977554e+03,1.427446e+03
2.978519e+03,1.436168e+03
2.979483e+03,1.432365e+03
2.980447e+03,1.420961e+03
2.981411e+03,1.412217e+03
2.982376e+03,1.411342e+03
2.983340e+03,1.433820e+03
2.984304e+03,1.453261e+03
2.985268e+03,1.443488e+03
2.986233e+03,1.432260e+03
2.987197e+03,1.438957e+03
2.988161e+03,1.411735e+03
2.989125e+03,1.370697e+03
2.990090e+03,1.381891e+03
2.991054e+03,1.411601e+03
2.992018e+03,1.434271e+03
2.992982e+03,1.436005e+03
2.993947e+03,1.407656e+03
2.994911e+03,1.399614e+03
2.995875e+03,1.406899e+03
2.996839e+03,1.417401e+03
2.997803e+03,1.421262e+03
2.998768e+03,1.413879e+03
2.999732e+03,1.404708e+03
3.000696e+03,1.398941e+03
3.001660e+03,1.415271e+03
3.002625e+03,1.425141e+03
3.003589e+03,1.400940e+03
3.004553e+03,1.382067e+03
3.005517e+03,1.388575e+03
3.006481e+03,1.401265e+03
3.007446e+03,1.412457e+03
3.008410e+03,1.411140e+03
3.009374e+03,1.402510e+03
3.010338e+03,1.391677e+03
3.011303e+03,1.391525e+03
3.012267e+03,1.403344e+03
3.013231e+03,1.401316e+03
3.014195e+03,1.393986e+03
3.015160e+03,1.401092e+03
3.016124e+03,1.405152e+03
3.017088e+03,1.399859e+03
3.018052e+03,1.386347e+03
3.019017e+03,1.366969e+03
3.019981e+03,1.367091e+03
3.020945e+03,1.371129e+03
3.021909e+03,1.360804e+03
3.022874e+03,1.376671e+03
3.023838e+03,1.418272e+03
3.024802e+03,1.417242e+03
3.025766e+03,1.385580e+03
3.026730e+03,1.341248e+03
3.027695e+03,1.336398e+03
3.028659e+03,1.393544e+03
3.029623e+03,1.416293e+03
3.030587e+03,1.400553e+03
3.031552e+03,1.376361e+03
3.032516e+03,1.355983e+03
3.033480e+03,1.356006e+03
3.034444e+03,1.365002e+03
3.035408e+03,1.379032e+03
3.036373e+03,1.379158e+03
3.037337e+03,1.373278e+03
3.038301e+03,1.403826e+03
3.039265e+03,1.417799e+03
3.040230e+03,1.359578e+03
3.041194e+03,1.358943e+03
3.042158e+03,1.399577e+03
3.043122e+03,1.398460e+03
3.044087e+03,1.379453e+03
3.045051e+03,1.372177e+03
3.046015e+03,1.373742e+03
3.046979e+03,1.386380e+03
3.047944e+03,1.381087e+03
3.048908e+03,1.371356e+03
3.049872e+03,1.377379e+03
3.050836e+03,1.385359e+03
3.051801e+03,1.386047e+03
3.052765e+03,1.378388e+03
3.053729e+03,1.366374e+03
3.054693e+03,1.383315e+03
3.055657e+03,1.397331e+03
3.056622e+03,1.384720e+03
3.057586e+03,1.371266e+03
3.058550e+03,1.366524e+03
3.059514e+03,1.367284e+03
3.060479e+03,1.378521e+03
3.061443e+03,1.419578e+03
3.062407e+03,1.428826e+03
3.063371e+03,1.395748e+03
3.064335e+03,1.378561e+03
3.065300e+03,1.380870e+03
3.066264e+03,1.388515e+03
3.067228e+03,1.389436e+03
3.068192e+03,1.369820e+03
3.069157e+03,1.374747e+03
3.070121e+03,1.397709e+03
3.071085e+03,1.391791e+03
3.072049e+03,1.374059e+03
3.073014e+03,1.363510e+03
3.073978e+03,1.374463e+03
3.074942e+03,1.407285e+03
3.075906e+03,1.385590e+03
3.076871e+03,1.346464e+03
3.077835e+03,1.348365e+03
3.078799e+03,1.366871e+03
3.079763e+03,1.393309e+03
3.080728e+03,1.390791e+03
3.081692e+03,1.367585e+03
3.082656e+03,1.355162e+03
3.083620e+03,1.359984e+03
3.084584e+03,1.383586e+03
3.085549e+03,1.405441e+03
3.086513e+03,1.419989e+03
3.087477e+03,1.381910e+03
3.088441e+03,1.342852e+03
3.089406e+03,1.369323e+03
3.090370e+03,1.377694e+03
3.091334e+03,1.359177e+03
3.092298e+03,1.380561e+03
3.093262e+03,1.410743e+03
3.094227e+03,1.355831e+03
3.095191e+03,1.329095e+03
3.096155e+03,1.373368e+03
3.097119e+03,1.369250e+03
3.098084e+03,1.339880e+03
3.099048e+03,1.342115e+03
3.100012e+03,1.358872e+03
3.100976e+03,1.382674e+03
3.101941e+03,1.382928e+03
3.102905e+03,1.364371e+03
3.103869e+03,1.370774e+03
3.104833e+03,1.379896e+03
3.105798e+03,1.378064e+03
3.106762e+03,1.378200e+03
3.107726e+03,1.383383e+03
3.108690e+03,1.362552e+03
3.109655e+03,1.337967e+03
3.110619e+03,1.334982e+03
3.111583e+03,1.350050e+03
3.112547e+03,1.376964e+03
3.113511e+03,1.386184e+03
3.114476e+03,1.383066e+03
3.115440e+03,1.376634e+03
3.116404e+03,1.371175e+03
3.117368e+03,1.371282e+03
3.118333e+03,1.369516e+03
3.119297e+03,1.369521e+03
3.120261e+03,1.379932e+03
3.121225e+03,1.377236e+03
3.122189e+03,1.346578e+03
3.123154e+03,1.362654e+03
3.124118e+03,1.407123e+03
3.125082e+03,1.381744e+03
3.126046e+03,1.360401e+03
3.127011e+03,1.378878e+03
3.127975e+03,1.370861e+03
3.128939e+03,1.341612e+03
3.129903e+03,1.362288e+03
3.130868e+03,1.388139e+03
3.131832e+03,1.371208e+03
3.132796e+03,1.375080e+03
3.133760e+03,1.395724e+03
3.134725e+03,1.383609e+03
3.135689e+03,1.370485e+03
3.136653e+03,1.387901e+03
3.137617e+03,1.403195e+03
3.138582e+03,1.407488e+03
3.139546e+03,1.400656e+03
3.140510e+03,1.386796e+03
3.141474e+03,1.370243e+03
3.142438e+03,1.374556e+03
3.143403e+03,1.396072e+03
3.144367e+03,1.383050e+03
3.145331e+03,1.359419e+03
3.146295e+03,1.372468e+03
3.147260e+03,1.375509e+03
3.148224e+03,1.355571e+03
3.149188e+03,1.368777e+03
3.150152e+03,1.391863e+03
3.151116e+03,1.389870e+03
3.152081e+03,1.395326e+03
3.153045e+03,1.419957e+03
3.154009e+03,1.415397e+03
3.154973e+03,1.389780e+03
3.155938e+03,1.342449e+03
3.156902e+03,1.343018e+03
3.157866e+03,1.398290e+03
3.158830e+03,1.416351e+03
3.159795e+03,1.406759e+03
3.160759e+03,1.396356e+03
3.161723e+03,1.390007e+03
3.162687e+03,1.395378e+03
3.163652e+03,1.407593e+03
3.164616e+03,1.412760e+03
3.165580e+03,1.375055e+03
3.166544e+03,1.358463e+03
3.167509e+03,1.386779e+03
3.168473e+03,1.400181e+03
3.169437e+03,1.394169e+03
3.170401e+03,1.363315e+03
3.171365e+03,1.351136e+03
3.172330e+03,1.378857e+03
3.173294e+03,1.400418e+03
3.174258e+03,1.414033e+03
3.175222e+03,1.426152e+03
3.176187e+03,1.431745e+03
3.177151e+03,1.431403e+03
3.178115e+03,1.401099e+03
3.179079e+03,1.359803e+03
3.180043e+03,1.357536e+03
3.181008e+03,1.393865e+03
3.181972e+03,1.460992e+03
3.182936e+03,1.436285e+03
3.183900e+03,1.357625e+03
3.184865e+03,1.359406e+03
3.185829e+03,1.377944e+03
3.186793e+03,1.385093e+03
3.187757e+03,1.413619e+03
3.188722e+03,1.443195e+03
3.189686e+03,1.433044e+03
3.190650e+03,1.409224e+03
3.191614e+03,1.384995e+03
3.192579e+03,1.396867e+03
3.193543e+03,1.426808e+03
3.194507e+03,1.409595e+03
3.195471e+03,1.403998e+03
3.196436e+03,1.434208e+03
3.197400e+03,1.424742e+03
3.198364e+03,1.399522e+03
3.199328e+03,1.406273e+03
3.200292e+03,1.417518e+03
3.201257e+03,0.000000e+00
3.202221e+03,0.000000e+00
3.203185e+03,0.000000e+00
3.204149e+03,0.000000e+00
3.205114e+03,0.000000e+00
3.206078e+03,0.000000e+00
3.207042e+03,0.000000e+00
3.208006e+03,0.000000e+00
3.208970e+03,0.000000e+00
3.209935e+03,0.000000e+00
3.210899e+03,0.000000e+00
3.211863e+03,0.000000e+00
3.212827e+03,0.000000e+00
3.213792e+03,0.000000e+00
3.214756e+03,0.000000e+00
3.215720e+03,0.000000e+00
3.216684e+03,0.000000e+00
3.217649e+03,0.000000e+00
3.218613e+03,0.000000e+00
3.219577e+03,0.000000e+00
3.220541e+03,0.000000e+00
3.221506e+03,0.000000e+00
3.222470e+03,0.000000e+00
3.223434e+03,0.000000e+00
3.224398e+03,0.000000e+00
3.225363e+03,0.000000e+00
3.226327e+03,0.000000e+00
3.227291e+03,0.000000e+00
3.228255e+03,0.000000e+00
3.229219e+03,0.000000e+00
3.230184e+03,0.000000e+00
3.231148e+03,0.000000e+00
3.232112e+03,0.000000e+00
3.233076e+03,0.000000e+00
3.234041e+03,0.000000e+00
3.235005e+03,0.000000e+00
3.235969e+03,0.000000e+00
3.236933e+03,0.000000e+00
3.237897e+03,0.000000e+00
3.238862e+03,0.000000e+00
3.239826e+03,0.000000e+00
3.240790e+03,0.000000e+00
3.241754e+03,0.000000e+00
3.242719e+03,0.000000e+00
3.243683e+03,0.000000e+00
3.244647e+03,0.000000e+00
3.245611e+03,0.000000e+00
3.246576e+03,0.000000e+00
3.247540e+03,0.000000e+00
3.248504e+03,0.000000e+00
3.249468e+03,0.000000e+00
3.250433e+03,0.000000e+00
3.251397e+03,0.000000e+00
3.252361e+03,0.000000e+00
3.253325e+03,0.000000e+00
3.254290e+03,0.000000e+00
3.255254e+03,0.000000e+00
3.256218e+03,0.000000e+00
3.257182e+03,0.000000e+00
3.258146e+03,0.000000e+00
3.259111e+03,0.000000e+00
3.260075e+03,0.000000e+00
3.261039e+03,0.000000e+00
3.262003e+03,0.000000e+00
3.262968e+03,0.000000e+00
3.263932e+03,0.000000e+00
3.264896e+03,0.000000e+00
3.265860e+03,0.000000e+00
3.266824e+03,0.000000e+00
3.267789e+03,0.000000e+00
3.268753e+03,0.000000e+00
3.269717e+03,0.000000e+00
3.270681e+03,0.000000e+00
3.271646e+03,0.000000e+00
3.272610e+03,0.000000e+00
3.273574e+03,0.000000e+00
3.274538e+03,0.000000e+00
3.275503e+03,0.000000e+00
3.276467e+03,0.000000e+00
3.277431e+03,0.000000e+00
3.278395e+03,0.000000e+00
3.279360e+03,0.000000e+00
3.280324e+03,0.000000e+00
3.281288e+03,0.000000e+00
3.282252e+03,0.000000e+00
3.283217e+03,0.000000e+00
3.284181e+03,0.000000e+00
3.285145e+03,0.000000e+00
3.286109e+03,0.000000e+00
3.287073e+03,0.000000e+00
3.288038e+03,0.000000e+00
3.289002e+03,0.000000e+00
3.289966e+03,0.000000e+00
3.290930e+03,0.000000e+00
3.291895e+03,0.000000e+00
3.292859e+03,0.000000e+00
3.293823e+03,0.000000e+00
3.294787e+03,0.000000e+00
3.295751e+03,0.000000e+00
3.296716e+03,0.000000e+00
3.297680e+03,0.000000e+00
3.298644e+03,0.000000e+00
3.299608e+03,0.000000e+00
3.300573e+03,0.000000e+00
3.301537e+03,0.000000e+00
3.302501e+03,0.000000e+00
3.303465e+03,0.000000e+00
3.304430e+03,0.000000e+00
3.305394e+03,0.000000e+00
3.306358e+03,0.000000e+00
3.307322e+03,0.000000e+00
3.308287e+03,0.000000e+00
3.309251e+03,0.000000e+00
3.310215e+03,0.000000e+00
3.311179e+03,0.000000e+00
3.312144e+03,0.000000e+00
3.313108e+03,0.000000e+00
3.314072e+03,0.000000e+00
3.315036e+03,0.000000e+00
3.316000e+03,0.000000e+00
3.316965e+03,0.000000e+00
3.317929e+03,0.000000e+00
3.318893e+03,0.000000e+00
3.319857e+03,0.000000e+00
3.320822e+03,0.000000e+00
3.321786e+03,0.000000e+00
3.322750e+03,0.000000e+00
3.323714e+03,0.000000e+00
3.324678e+03,0.000000e+00
3.325643e+03,0.000000e+00
3.326607e+03,0.000000e+00
3.327571e+03,0.000000e+00
3.328535e+03,0.000000e+00
3.329500e+03,0.000000e+00
3.330464e+03,0.000000e+00
3.331428e+03,0.000000e+00
3.332392e+03,0.000000e+00
3.333357e+03,0.000000e+00
3.334321e+03,0.000000e+00
3.335285e+03,0.000000e+00
3.336249e+03,0.000000e+00
3.337214e+03,0.000000e+00
3.338178e+03,0.000000e+00
3.339142e+03,0.000000e+00
3.340106e+03,0.000000e+00
3.341071e+03,0.000000e+00
3.342035e+03,0.000000e+00
3.342999e+03,0.000000e+00
3.343963e+03,0.000000e+00
3.344927e+03,0.000000e+00
3.345892e+03,0.000000e+00
3.346856e+03,0.000000e+00
3.347820e+03,0.000000e+00
3.348784e+03,0.000000e+00
3.349749e+03,0.000000e+00
3.350713e+03,0.000000e+00
3.351677e+03,0.000000e+00
3.352641e+03,0.000000e+00
3.353605e+03,0.000000e+00
3.354570e+03,0.000000e+00
3.355534e+03,0.000000e+00
3.356498e+03,0.000000e+00
3.357462e+03,0.000000e+00
3.358427e+03,0.000000e+00
3.359391e+03,0.000000e+00
3.360355e+03,0.000000e+00
3.361319e+03,0.000000e+00
3.362284e+03,0.000000e+00
3.363248e+03,0.000000e+00
3.364212e+03,0.000000e+00
3.365176e+03,0.000000e+00
3.366141e+03,0.000000e+00
3.367105e+03,0.000000e+00
3.368069e+03,0.000000e+00
3.369033e+03,0.000000e+00
3.369998e+03,0.000000e+00
3.370962e+03,0.000000e+00
3.371926e+03,0.000000e+00
3.372890e+03,0.000000e+00
3.373854e+03,0.000000e+00
3.374819e+03,0.000000e+00
3.375783e+03,0.000000e+00
3.376747e+03,0.000000e+00
3.377711e+03,0.000000e+00
3.378676e+03,0.000000e+00
3.379640e+03,0.000000e+00
3.380604e+03,0.000000e+00
3.381568e+03,0.000000e+00
3.382532e+03,0.000000e+00
3.383497e+03,0.000000e+00
3.384461e+03,0.000000e+00
3.385425e+03,0.000000e+00
3.386389e+03,0.000000e+00
3.387354e+03,0.000000e+00
3.388318e+03,0.000000e+00
3.389282e+03,0.000000e+00
3.390246e+03,0.000000e+00
3.391211e+03,0.000000e+00
3.392175e+03,0.000000e+00
3.393139e+03,0.000000e+00
3.394103e+03,0.000000e+00
3.395068e+03,0.000000e+00
3.396032e+03,0.000000e+00
3.396996e+03,0.000000e+00
3.397960e+03,0.000000e+00
3.398925e+03,0.000000e+00
3.399889e+03,0.000000e+00
3.400853e+03,0.000000e+00
3.401817e+03,0.000000e+00
3.402781e+03,0.000000e+00
3.403746e+03,0.000000e+00
3.404710e+03,0.000000e+00
3.405674e+03,0.000000e+00
3.406638e+03,0.000000e+00
3.407603e+03,0.000000e+00
3.408567e+03,0.000000e+00
3.409531e+03,0.000000e+00
3.410495e+03,0.000000e+00
3.411459e+03,0.000000e+00
3.412424e+03,0.000000e+00
3.413388e+03,0.000000e+00
3.414352e+03,0.000000e+00
3.415316e+03,0.000000e+00
3.416281e+03,0.000000e+00
3.417245e+03,0.000000e+00
3.418209e+03,0.000000e+00
3.419173e+03,0.000000e+00
3.420138e+03,0.000000e+00
3.421102e+03,0.000000e+00
3.422066e+03,0.000000e+00
3.423030e+03,0.000000e+00
3.423995e+03,0.000000e+00
3.424959e+03,0.000000e+00
3.425923e+03,0.000000e+00
3.426887e+03,0.000000e+00
3.427852e+03,0.000000e+00
3.428816e+03,0.000000e+00
3.429780e+03,0.000000e+00
3.430744e+03,0.000000e+00
3.431708e+03,0.000000e+00
3.432673e+03,0.000000e+00
3.433637e+03,0.000000e+00
3.434601e+03,0.000000e+00
3.435565e+03,0.000000e+00
3.436530e+03,0.000000e+00
3.437494e+03,0.000000e+00
3.438458e+03,0.000000e+00
3.439422e+03,0.000000e+00
3.440386e+03,0.000000e+00
3.441351e+03,0.000000e+00
3.442315e+03,0.000000e+00
3.443279e+03,0.000000e+00
3.444243e+03,0.000000e+00
3.445208e+03,0.000000e+00
3.446172e+03,0.000000e+00
3.447136e+03,0.000000e+00
3.448100e+03,0.000000e+00
3.449065e+03,0.000000e+00
3.450029e+03,0.000000e+00
3.450993e+03,0.000000e+00
3.451957e+03,0.000000e+00
3.452922e+03,0.000000e+00
3.453886e+03,0.000000e+00
3.454850e+03,0.000000e+00
3.455814e+03,0.000000e+00
3.456779e+03,0.000000e+00
3.457743e+03,0.000000e+00
3.458707e+03,0.000000e+00
3.459671e+03,0.000000e+00
3.460635e+03,0.000000e+00
3.461600e+03,0.000000e+00
3.462564e+03,0.000000e+00
3.463528e+03,0.000000e+00
3.464492e+03,0.000000e+00
3.465457e+03,0.000000e+00
3.466421e+03,0.000000e+00
3.467385e+03,0.000000e+00
3.468349e+03,0.000000e+00
3.469313e+03,0.000000e+00
3.470278e+03,0.000000e+00
3.471242e+03,0.000000e+00
3.472206e+03,0.000000e+00
3.473170e+03,0.000000e+00
3.474135e+03,0.000000e+00
3.475099e+03,0.000000e+00
3.476063e+03,0.000000e+00
3.477027e+03,0.000000e+00
3.477992e+03,0.000000e+00
3.478956e+03,0.000000e+00
3.479920e+03,0.000000e+00
3.480884e+03,0.000000e+00
3.481849e+03,0.000000e+00
3.482813e+03,0.000000e+00
3.483777e+03,0.000000e+00
3.484741e+03,0.000000e+00
3.485706e+03,0.000000e+00
3.486670e+03,0.000000e+00
3.487634e+03,0.000000e+00
3.488598e+03,0.000000e+00
3.489563e+03,0.000000e+00
3.490527e+03,0.000000e+00
3.491491e+03,0.000000e+00
3.492455e+03,0.000000e+00
3.493419e+03,0.000000e+00
3.494384e+03,0.000000e+00
3.495348e+03,0.000000e+00
3.496312e+03,0.000000e+00
3.497276e+03,0.000000e+00
3.498240e+03,0.000000e+00
3.499205e+03,0.000000e+00
3.500169e+03,0.000000e+00
