9.931763e+01,0.000000e+00
1.002819e+02,0.000000e+00
1.012461e+02,0.000000e+00
1.022103e+02,0.000000e+00
1.031746e+02,0.000000e+00
1.041388e+02,0.000000e+00
1.051030e+02,0.000000e+00
1.060673e+02,0.000000e+00
1.070315e+02,0.000000e+00
1.079957e+02,0.000000e+00
1.089600e+02,0.000000e+00
1.099242e+02,0.000000e+00
1.108884e+02,0.000000e+00
1.118527e+02,0.000000e+00
1.128169e+02,0.000000e+00
1.137811e+02,0.000000e+00
1.147454e+02,0.000000e+00
1.157096e+02,0.000000e+00
1.166738e+02,0.000000e+00
1.176381e+02,0.000000e+00
1.186023e+02,0.000000e+00
1.195665e+02,0.000000e+00
1.205308e+02,0.000000e+00
1.214950e+02,0.000000e+00
1.224592e+02,0.000000e+00
1.234235e+02,0.000000e+00
1.243877e+02,0.000000e+00
1.253519e+02,0.000000e+00
1.263162e+02,0.000000e+00
1.272804e+02,0.000000e+00
1.282446e+02,0.000000e+00
1.292089e+02,0.000000e+00
1.301731e+02,0.000000e+00
1.311373e+02,0.000000e+00
1.321016e+02,0.000000e+00
1.330658e+02,0.000000e+00
1.340300e+02,0.000000e+00
1.349943e+02,0.000000e+00
1.359585e+02,0.000000e+00
1.369227e+02,0.000000e+00
1.378870e+02,0.000000e+00
1.388512e+02,0.000000e+00
1.398154e+02,0.000000e+00
1.407797e+02,0.000000e+00
1.417439e+02,0.000000e+00
1.427081e+02,0.000000e+00
1.436724e+02,0.000000e+00
1.446366e+02,0.000000e+00
1.456008e+02,0.000000e+00
1.465651e+02,0.000000e+00
1.475293e+02,0.000000e+00
1.484935e+02,0.000000e+00
1.494578e+02,0.000000e+00
1.504220e+02,0.000000e+00
1.513862e+02,0.000000e+00
1.523505e+02,0.000000e+00
1.533147e+02,0.000000e+00
1.542789e+02,0.000000e+00
1.552432e+02,0.000000e+00
1.562074e+02,0.000000e+00
1.571716e+02,0.000000e+00
1.581359e+02,0.000000e+00
1.591001e+02,0.000000e+00
1.600643e+02,0.000000e+00
1.610286e+02,0.000000e+00
1.619928e+02,0.000000e+00
1.629570e+02,0.000000e+00
1.639213e+02,0.000000e+00
1.648855e+02,0.000000e+00
1.658497e+02,0.000000e+00
1.668140e+02,0.000000e+00
1.677782e+02,0.000000e+00
1.687424e+02,0.000000e+00
1.697067e+02,0.000000e+00
1.706709e+02,0.000000e+00
1.716351e+02,0.000000e+00
1.725994e+02,0.000000e+00
1.735636e+02,0.000000e+00
1.745278e+02,0.000000e+00
1.754921e+02,0.000000e+00
1.764563e+02,0.000000e+00
1.774205e+02,0.000000e+00
1.783848e+02,0.000000e+00
1.793490e+02,0.000000e+00
1.803132e+02,0.000000e+00
1.812775e+02,0.000000e+00
1.822417e+02,0.000000e+00
1.832059e+02,0.000000e+00
1.841702e+02,0.000000e+00
1.851344e+02,0.000000e+00
1.860986e+02,0.000000e+00
1.870629e+02,0.000000e+00
1.880271e+02,0.000000e+00
1.889913e+02,0.000000e+00
1.899556e+02,0.000000e+00
1.909198e+02,0.000000e+00
1.918840e+02,0.000000e+00
1.928483e+02,0.000000e+00
1.938125e+02,0.000000e+00
1.947767e+02,0.000000e+00
1.957410e+02,0.000000e+00
1.967052e+02,0.000000e+00
1.976694e+02,0.000000e+00
1.986337e+02,0.000000e+00
1.995979e+02,7.276226e+03
2.005621e+02,7.282299e+03
2.015264e+02,7.293331e+03
2.024906e+02,7.316989e+03
2.034548e+02,7.339019e+03
2.044191e+02,7.355875e+03
2.053833e+02,7.365745e+03
2.063475e+02,7.368305e+03
2.073118e+02,7.360946e+03
2.082760e+02,7.337657e+03
2.092402e+02,7.323517e+03
2.102045e+02,7.330152e+03
2.111687e+02,7.345765e+03
2.121329e+02,7.361620e+03
2.130972e+02,7.373027e+03
2.140614e+02,7.379484e+03
2.150256e+02,7.382544e+03
2.159899e+02,7.380551e+03
2.169541e+02,7.379252e+03
2.179183e+02,7.382305e+03
2.188826e+02,7.388290e+03
2.198468e+02,7.394706e+03
2.208110e+02,7.399708e+03
2.217753e+02,7.402375e+03
2.227395e+02,7.402173e+03
2.237037e+02,7.401128e+03
2.246680e+02,7.400790e+03
2.256322e+02,7.400968e+03
2.265964e+02,7.404124e+03
2.275607e+02,7.410026e+03
2.285249e+02,7.417701e+03
2.294892e+02,7.427247e+03
2.304534e+02,7.439090e+03
2.314176e+02,7.452256e+03
2.323819e+02,7.464710e+03
2.333461e+02,7.472035e+03
2.343103e+02,7.470035e+03
2.352746e+02,7.464125e+03
2.362388e+02,7.463316e+03
2.372030e+02,7.469538e+03
2.381673e+02,7.475529e+03
2.391315e+02,7.472486e+03
2.400957e+02,7.456507e+03
2.410600e+02,7.444251e+03
2.420242e+02,7.446685e+03
2.429884e+02,7.462368e+03
2.439527e+02,7.480958e+03
2.449169e+02,7.493629e+03
2.458811e+02,7.498060e+03
2.468454e+02,7.502069e+03
2.478096e+02,7.505880e+03
2.487738e+02,7.509374e+03
2.497381e+02,7.511201e+03
2.507023e+02,7.511428e+03
2.516665e+02,7.512885e+03
2.526308e+02,7.519727e+03
2.535950e+02,7.539123e+03
2.545592e+02,7.548406e+03
2.555235e+02,7.543335e+03
2.564877e+02,7.531054e+03
2.574519e+02,7.520117e+03
2.584161e+02,7.515883e+03
2.593804e+02,7.519245e+03
2.603446e+02,7.528035e+03
2.613088e+02,7.543571e+03
2.622731e+02,7.559609e+03
2.632373e+02,7.575757e+03
2.642015e+02,7.589612e+03
2.651658e+02,7.598297e+03
2.661300e+02,7.599490e+03
2.670942e+02,7.593830e+03
2.680585e+02,7.591430e+03
2.690227e+02,7.598221e+03
2.699869e+02,7.606378e+03
2.709512e+02,7.609349e+03
2.719154e+02,7.605763e+03
2.728796e+02,7.600930e+03
2.738439e+02,7.602417e+03
2.748081e+02,7.613492e+03
2.757723e+02,7.628320e+03
2.767366e+02,7.636994e+03
2.777008e+02,7.637912e+03
2.786650e+02,7.636916e+03
2.796293e+02,7.637696e+03
2.805935e+02,7.640700e+03
2.815577e+02,7.644584e+03
2.825220e+02,7.648241e+03
2.834862e+02,7.651054e+03
2.844504e+02,7.653750e+03
2.854147e+02,7.661265e+03
2.863789e+02,7.665374e+03
2.873431e+02,7.662757e+03
2.883074e+02,7.657483e+03
2.892716e+02,7.655700e+03
2.902358e+02,7.659852e+03
2.912001e+02,7.668993e+03
2.921643e+02,7.674208e+03
2.931285e+02,7.673792e+03
2.940928e+02,7.674710e+03
2.950570e+02,7.680521e+03
2.960212e+02,7.689245e+03
2.969855e+02,7.695583e+03
2.979497e+02,7.693724e+03
2.989139e+02,7.679521e+03
2.998782e+02,7.672021e+03
3.008424e+02,7.681674e+03
3.018066e+02,7.697034e+03
3.027709e+02,7.706526e+03
3.037351e+02,7.703617e+03
3.046993e+02,7.694400e+03
3.056636e+02,7.692609e+03
3.066278e+02,7.702998e+03
3.075920e+02,7.713623e+03
3.085563e+02,7.719705e+03
3.095205e+02,7.723744e+03
3.104847e+02,7.727419e+03
3.114490e+02,7.726032e+03
3.124132e+02,7.722093e+03
3.133774e+02,7.723720e+03
3.143417e+02,7.732995e+03
3.153059e+02,7.743055e+03
3.162701e+02,7.748271e+03
3.172344e+02,7.750640e+03
3.181986e+02,7.751641e+03
3.191628e+02,7.752224e+03
3.201271e+02,7.752314e+03
3.210913e+02,7.749346e+03
3.220555e+02,7.739777e+03
3.230198e+02,7.726014e+03
3.239840e+02,7.728650e+03
3.249482e+02,7.770322e+03
3.259125e+02,7.804061e+03
3.268767e+02,7.810851e+03
3.278409e+02,7.796356e+03
3.288052e+02,7.778314e+03
3.297694e+02,7.772017e+03
3.307336e+02,7.779671e+03
3.316979e+02,7.786156e+03
3.326621e+02,7.793905e+03
3.336263e+02,7.796986e+03
3.345906e+02,7.791128e+03
3.355548e+02,7.777286e+03
3.365190e+02,7.765129e+03
3.374833e+02,7.764904e+03
3.384475e+02,7.777171e+03
3.394117e+02,7.790339e+03
3.403760e+02,7.799134e+03
3.413402e+02,7.803867e+03
3.423044e+02,7.806178e+03
3.432687e+02,7.799854e+03
3.442329e+02,7.794290e+03
3.451971e+02,7.799511e+03
3.461614e+02,7.813722e+03
3.471256e+02,7.823951e+03
3.480898e+02,7.821644e+03
3.490541e+02,7.803901e+03
3.500183e+02,7.791237e+03
3.509825e+02,7.786712e+03
3.519468e+02,7.789138e+03
3.529110e+02,7.797391e+03
3.538752e+02,7.809498e+03
3.548395e+02,7.821671e+03
3.558037e+02,7.829841e+03
3.567680e+02,7.834211e+03
3.577322e+02,7.834131e+03
3.586964e+02,7.827972e+03
3.596607e+02,7.821775e+03
3.606249e+02,7.820233e+03
3.615891e+02,7.823962e+03
3.625534e+02,7.828078e+03
3.635176e+02,7.826758e+03
3.644818e+02,7.821383e+03
3.654461e+02,7.815388e+03
3.664103e+02,7.813634e+03
3.673745e+02,7.818946e+03
3.683388e+02,7.828056e+03
3.693030e+02,7.836539e+03
3.702672e+02,7.843594e+03
3.712315e+02,7.850742e+03
3.721957e+02,7.858048e+03
3.731599e+02,7.862250e+03
3.741242e+02,7.860919e+03
3.750884e+02,7.853634e+03
3.760526e+02,7.849899e+03
3.770169e+02,7.848148e+03
3.779811e+02,7.848946e+03
3.789453e+02,7.854169e+03
3.799096e+02,7.865185e+03
3.808738e+02,7.878107e+03
3.818380e+02,7.879658e+03
3.828023e+02,7.862214e+03
3.837665e+02,7.850618e+03
3.847307e+02,7.855495e+03
3.856950e+02,7.870564e+03
3.866592e+02,7.880732e+03
3.876234e+02,7.869938e+03
3.885877e+02,7.846595e+03
3.895519e+02,7.838042e+03
3.905161e+02,7.850599e+03
3.914804e+02,7.867114e+03
3.924446e+02,7.868441e+03
3.934088e+02,7.852909e+03
3.943731e+02,7.840772e+03
3.953373e+02,7.838946e+03
3.963015e+02,7.842638e+03
3.972658e+02,7.845408e+03
3.982300e+02,7.845909e+03
3.991942e+02,7.847344e+03
4.001585e+02,7.852151e+03
4.011227e+02,7.859620e+03
4.020869e+02,7.865543e+03
4.030512e+02,7.864930e+03
4.040154e+02,7.859868e+03
4.049796e+02,7.856302e+03
4.059439e+02,7.859217e+03
4.069081e+02,7.865740e+03
4.078723e+02,7.864657e+03
4.088366e+02,7.849117e+03
4.098008e+02,7.832057e+03
4.107650e+02,7.827929e+03
4.117293e+02,7.836366e+03
4.126935e+02,7.843549e+03
4.136577e+02,7.841197e+03
4.146220e+02,7.835501e+03
4.155862e+02,7.837530e+03
4.165504e+02,7.850663e+03
4.175147e+02,7.867334e+03
4.184789e+02,7.875070e+03
4.194431e+02,7.862885e+03
4.204074e+02,7.853815e+03
4.213716e+02,7.849084e+03
4.223358e+02,7.847021e+03
4.233001e+02,7.846137e+03
4.242643e+02,7.846462e+03
4.252285e+02,7.848412e+03
4.261928e+02,7.852194e+03
4.271570e+02,7.859336e+03
4.281212e+02,7.866742e+03
4.290855e+02,7.871955e+03
4.300497e+02,7.874773e+03
4.310139e+02,7.875969e+03
4.319782e+02,7.877204e+03
4.329424e+02,7.878217e+03
4.339066e+02,7.876197e+03
4.348709e+02,7.869925e+03
4.358351e+02,7.863543e+03
4.367993e+02,7.861945e+03
4.377636e+02,7.869233e+03
4.387278e+02,7.871932e+03
4.396920e+02,7.868067e+03
4.406563e+02,7.863160e+03
4.416205e+02,7.860063e+03
4.425847e+02,7.859093e+03
4.435490e+02,7.858873e+03
4.445132e+02,7.857231e+03
4.454774e+02,7.853938e+03
4.464417e+02,7.856663e+03
4.474059e+02,7.872872e+03
4.483701e+02,7.891377e+03
4.493344e+02,7.899653e+03
4.502986e+02,7.892023e+03
4.512628e+02,7.880531e+03
4.522271e+02,7.871377e+03
4.531913e+02,7.864663e+03
4.541555e+02,7.861172e+03
4.551198e+02,7.862116e+03
4.560840e+02,7.867906e+03
4.570482e+02,7.865411e+03
4.580125e+02,7.846802e+03
4.589767e+02,7.834309e+03
4.599409e+02,7.835355e+03
4.609052e+02,7.846057e+03
4.618694e+02,7.857122e+03
4.628336e+02,7.863988e+03
4.637979e+02,7.867032e+03
4.647621e+02,7.864344e+03
4.657263e+02,7.854455e+03
4.666906e+02,7.845869e+03
4.676548e+02,7.843779e+03
4.686190e+02,7.847710e+03
4.695833e+02,7.853269e+03
4.705475e+02,7.861607e+03
4.715117e+02,7.869038e+03
4.724760e+02,7.871123e+03
4.734402e+02,7.866880e+03
4.744044e+02,7.857690e+03
4.753687e+02,7.844937e+03
4.763329e+02,7.821244e+03
4.772971e+02,7.806204e+03
4.782614e+02,7.805219e+03
4.792256e+02,7.813465e+03
4.801898e+02,7.824494e+03
4.811541e+02,7.836018e+03
4.821183e+02,7.846811e+03
4.830826e+02,7.856502e+03
4.840468e+02,7.864616e+03
4.850110e+02,7.867335e+03
4.859753e+02,7.861857e+03
4.869395e+02,7.846995e+03
4.879037e+02,7.836904e+03
4.888680e+02,7.837870e+03
4.898322e+02,7.839853e+03
4.907964e+02,7.838603e+03
4.917607e+02,7.834055e+03
4.927249e+02,7.827274e+03
4.936891e+02,7.814875e+03
4.946534e+02,7.795479e+03
4.956176e+02,7.791491e+03
4.965818e+02,7.817865e+03
4.975461e+02,7.847603e+03
4.985103e+02,7.855788e+03
4.994745e+02,7.835392e+03
5.004388e+02,7.814204e+03
5.014030e+02,7.805843e+03
5.023672e+02,7.806791e+03
5.033315e+02,7.810794e+03
5.042957e+02,7.815821e+03
5.052599e+02,7.819675e+03
5.062242e+02,7.819377e+03
5.071884e+02,7.812075e+03
5.081526e+02,7.808288e+03
5.091169e+02,7.815226e+03
5.100811e+02,7.826133e+03
5.110453e+02,7.831220e+03
5.120095e+02,7.824847e+03
5.129738e+02,7.815368e+03
5.139380e+02,7.811956e+03
5.149022e+02,7.814851e+03
5.158665e+02,7.822838e+03
5.168307e+02,7.834954e+03
5.177949e+02,7.846977e+03
5.187592e+02,7.846619e+03
5.197234e+02,7.836805e+03
5.206876e+02,7.825563e+03
5.216519e+02,7.813118e+03
5.226161e+02,7.801788e+03
5.235803e+02,7.795495e+03
5.245446e+02,7.800088e+03
5.255088e+02,7.813471e+03
5.264730e+02,7.821231e+03
5.274373e+02,7.821921e+03
5.284015e+02,7.818802e+03
5.293657e+02,7.812101e+03
5.303300e+02,7.801866e+03
5.312942e+02,7.791306e+03
5.322584e+02,7.783215e+03
5.332227e+02,7.779326e+03
5.341869e+02,7.780227e+03
5.351511e+02,7.784438e+03
5.361154e+02,7.788276e+03
5.370796e+02,7.787643e+03
5.380438e+02,7.781965e+03
5.390081e+02,7.778858e+03
5.399723e+02,7.781377e+03
5.409365e+02,7.787196e+03
5.419008e+02,7.791693e+03
5.428650e+02,7.790335e+03
5.438292e+02,7.789934e+03
5.447935e+02,7.798548e+03
5.457577e+02,7.811093e+03
5.467219e+02,7.816220e+03
5.476862e+02,7.808819e+03
5.486504e+02,7.792951e+03
5.496146e+02,7.781447e+03
5.505789e+02,7.777206e+03
5.515431e+02,7.772171e+03
5.525073e+02,7.767669e+03
5.534716e+02,7.765803e+03
5.544358e+02,7.765515e+03
5.554000e+02,7.762773e+03
5.563643e+02,7.759202e+03
5.573285e+02,7.755610e+03
5.582927e+02,7.751502e+03
5.592570e+02,7.749516e+03
5.602212e+02,7.752874e+03
5.611854e+02,7.760878e+03
5.621497e+02,7.767531e+03
5.631139e+02,7.770138e+03
5.640781e+02,7.769843e+03
5.650424e+02,7.770103e+03
5.660066e+02,7.770819e+03
5.669708e+02,7.769400e+03
5.679351e+02,7.765150e+03
5.688993e+02,7.759206e+03
5.698635e+02,7.752150e+03
5.708278e+02,7.744588e+03
5.717920e+02,7.739441e+03
5.727562e+02,7.737546e+03
5.737205e+02,7.737727e+03
5.746847e+02,7.738612e+03
5.756489e+02,7.740004e+03
5.766132e+02,7.740184e+03
5.775774e+02,7.739202e+03
5.785416e+02,7.737310e+03
5.795059e+02,7.734266e+03
5.804701e+02,7.728116e+03
5.814343e+02,7.720427e+03
5.823986e+02,7.717529e+03
5.833628e+02,7.722210e+03
5.843270e+02,7.728882e+03
5.852913e+02,7.729050e+03
5.862555e+02,7.713288e+03
5.872197e+02,7.705423e+03
5.881840e+02,7.709510e+03
5.891482e+02,7.717251e+03
5.901124e+02,7.721937e+03
5.910767e+02,7.721271e+03
5.920409e+02,7.720174e+03
5.930051e+02,7.723707e+03
5.939694e+02,7.730378e+03
5.949336e+02,7.735850e+03
5.958978e+02,7.740027e+03
5.968621e+02,7.741047e+03
5.978263e+02,7.735118e+03
5.987905e+02,7.709392e+03
5.997548e+02,7.694452e+03
6.007190e+02,7.703414e+03
6.016832e+02,7.722119e+03
6.026475e+02,7.731690e+03
6.036117e+02,7.719114e+03
6.045759e+02,7.700313e+03
6.055402e+02,7.695368e+03
6.065044e+02,7.701682e+03
6.074686e+02,7.705607e+03
6.084329e+02,7.702391e+03
6.093971e+02,7.694283e+03
6.103613e+02,7.688644e+03
6.113256e+02,7.689812e+03
6.122899e+02,7.689664e+03
6.132541e+02,7.685701e+03
6.142183e+02,7.679327e+03
6.151826e+02,7.673606e+03
6.161468e+02,7.673546e+03
6.171110e+02,7.675761e+03
6.180753e+02,7.673009e+03
6.190395e+02,7.665276e+03
6.200037e+02,7.658992e+03
6.209680e+02,7.657856e+03
6.219322e+02,7.662684e+03
6.228964e+02,7.668607e+03
6.238607e+02,7.675752e+03
6.248249e+02,7.682552e+03
6.257891e+02,7.687894e+03
6.267534e+02,7.689304e+03
6.277176e+02,7.685104e+03
6.286818e+02,7.670736e+03
6.296461e+02,7.656825e+03
6.306103e+02,7.658141e+03
6.315745e+02,7.673560e+03
6.325388e+02,7.686853e+03
6.335030e+02,7.682537e+03
6.344672e+02,7.658562e+03
6.354315e+02,7.643481e+03
6.363957e+02,7.641675e+03
6.373599e+02,7.640245e+03
6.383242e+02,7.634065e+03
6.392884e+02,7.624725e+03
6.402526e+02,7.617917e+03
6.412169e+02,7.614831e+03
6.421811e+02,7.614853e+03
6.431453e+02,7.620859e+03
6.441096e+02,7.631264e+03
6.450738e+02,7.637580e+03
6.460380e+02,7.629733e+03
6.470023e+02,7.608815e+03
6.479665e+02,7.599997e+03
6.489307e+02,7.607167e+03
6.498950e+02,7.616793e+03
6.508592e+02,7.615352e+03
6.518234e+02,7.600292e+03
6.527877e+02,7.591953e+03
6.537519e+02,7.603869e+03
6.547161e+02,7.617378e+03
6.556804e+02,7.617435e+03
6.566446e+02,7.603705e+03
6.576088e+02,7.586992e+03
6.585731e+02,7.576058e+03
6.595373e+02,7.570308e+03
6.605015e+02,7.566771e+03
6.614658e+02,7.565837e+03
6.624300e+02,7.565782e+03
6.633942e+02,7.564775e+03
6.643585e+02,7.561311e+03
6.653227e+02,7.559668e+03
6.662869e+02,7.557922e+03
6.672512e+02,7.557124e+03
6.682154e+02,7.557789e+03
6.691796e+02,7.559134e+03
6.701439e+02,7.562319e+03
6.711081e+02,7.574943e+03
6.720723e+02,7.589381e+03
6.730366e+02,7.587905e+03
6.740008e+02,7.567854e+03
6.749650e+02,7.542268e+03
6.759293e+02,7.526653e+03
6.768935e+02,7.526052e+03
6.778577e+02,7.523872e+03
6.788220e+02,7.516231e+03
6.797862e+02,7.514419e+03
6.807504e+02,7.526254e+03
6.817147e+02,7.553733e+03
6.826789e+02,7.572879e+03
6.836431e+02,7.566811e+03
6.846074e+02,7.548737e+03
6.855716e+02,7.533925e+03
6.865358e+02,7.526854e+03
6.875001e+02,7.525042e+03
6.884643e+02,7.528162e+03
6.894285e+02,7.536394e+03
6.903928e+02,7.535635e+03
6.913570e+02,7.519799e+03
6.923212e+02,7.499528e+03
6.932855e+02,7.487140e+03
6.942497e+02,7.488484e+03
6.952139e+02,7.493112e+03
6.961782e+02,7.505303e+03
6.971424e+02,7.516008e+03
6.981066e+02,7.515462e+03
6.990709e+02,7.499101e+03
7.000351e+02,7.478354e+03
7.009993e+02,7.464791e+03
7.019636e+02,7.458553e+03
7.029278e+02,7.455760e+03
7.038920e+02,7.455174e+03
7.048563e+02,7.455063e+03
7.058205e+02,7.457102e+03
7.067847e+02,7.468217e+03
7.077490e+02,7.467429e+03
7.087132e+02,7.444821e+03
7.096774e+02,7.424665e+03
7.106417e+02,7.421621e+03
7.116059e+02,7.438948e+03
7.125701e+02,7.451713e+03
7.135344e+02,7.449811e+03
7.144986e+02,7.445344e+03
7.154628e+02,7.450316e+03
7.164271e+02,7.465109e+03
7.173913e+02,7.477102e+03
7.183555e+02,7.469851e+03
7.193198e+02,7.447575e+03
7.202840e+02,7.433915e+03
7.212482e+02,7.433790e+03
7.222125e+02,7.439844e+03
7.231767e+02,7.443662e+03
7.241409e+02,7.442972e+03
7.251052e+02,7.440258e+03
7.260694e+02,7.432252e+03
7.270336e+02,7.424047e+03
7.279979e+02,7.421545e+03
7.289621e+02,7.425221e+03
7.299263e+02,7.425415e+03
7.308906e+02,7.412281e+03
7.318548e+02,7.395289e+03
7.328190e+02,7.385798e+03
7.337833e+02,7.384942e+03
7.347475e+02,7.387050e+03
7.357117e+02,7.389916e+03
7.366760e+02,7.394358e+03
7.376402e+02,7.393218e+03
7.386044e+02,7.383889e+03
7.395687e+02,7.376743e+03
7.405329e+02,7.380991e+03
7.414971e+02,7.402199e+03
7.424614e+02,7.408701e+03
7.434256e+02,7.392399e+03
7.443898e+02,7.377369e+03
7.453541e+02,7.374197e+03
7.463183e+02,7.378281e+03
7.472825e+02,7.375192e+03
7.482468e+02,7.350746e+03
7.492110e+02,7.321543e+03
7.501752e+02,7.309298e+03
7.511395e+02,7.316141e+03
7.521037e+02,7.328958e+03
7.530679e+02,7.334078e+03
7.540322e+02,7.331104e+03
7.549964e+02,7.331127e+03
7.559606e+02,7.336330e+03
7.569249e+02,7.343233e+03
7.578891e+02,7.350925e+03
7.588533e+02,7.360558e+03
7.598176e+02,7.365591e+03
7.607818e+02,7.354600e+03
7.617460e+02,7.338620e+03
7.627103e+02,7.322295e+03
7.636745e+02,7.309354e+03
7.646387e+02,7.301528e+03
7.656030e+02,7.301008e+03
7.665672e+02,7.304078e+03
7.675314e+02,7.304792e+03
7.684957e+02,7.299691e+03
7.694599e+02,7.290838e+03
7.704241e+02,7.284229e+03
7.713884e+02,7.280688e+03
7.723526e+02,7.274161e+03
7.733168e+02,7.265446e+03
7.742811e+02,7.262797e+03
7.752453e+02,7.266998e+03
7.762095e+02,7.274558e+03
7.771738e+02,7.280002e+03
7.781380e+02,7.282167e+03
7.791022e+02,7.277661e+03
7.800665e+02,7.266427e+03
7.810307e+02,7.251646e+03
7.819949e+02,7.237581e+03
7.829592e+02,7.224773e+03
7.839234e+02,7.218186e+03
7.848876e+02,7.222807e+03
7.858519e+02,7.232349e+03
7.868161e+02,7.237228e+03
7.877803e+02,7.232571e+03
7.887446e+02,7.224068e+03
7.897088e+02,7.221315e+03
7.906730e+02,7.226224e+03
7.916373e+02,7.235577e+03
7.926015e+02,7.245984e+03
7.935657e+02,7.250585e+03
7.945300e+02,7.243848e+03
7.954942e+02,7.224531e+03
7.964584e+02,7.204859e+03
7.974227e+02,7.190687e+03
7.983869e+02,7.185595e+03
7.993511e+02,7.185401e+03
8.003154e+02,7.187447e+03
8.012796e+02,7.185798e+03
8.022438e+02,7.179851e+03
8.032081e+02,7.175429e+03
8.041723e+02,7.178496e+03
8.051365e+02,7.189595e+03
8.061008e+02,7.198244e+03
8.070650e+02,7.192405e+03
8.080292e+02,7.177604e+03
8.089935e+02,7.165874e+03
8.099577e+02,7.161115e+03
8.109219e+02,7.161795e+03
8.118862e+02,7.167536e+03
8.128504e+02,7.177962e+03
8.138146e+02,7.182196e+03
8.147789e+02,7.177750e+03
8.157431e+02,7.168406e+03
8.167073e+02,7.158247e+03
8.176716e+02,7.150603e+03
8.186358e+02,7.145547e+03
8.196000e+02,7.140553e+03
8.205643e+02,7.139614e+03
8.215285e+02,7.143282e+03
8.224927e+02,7.150291e+03
8.234570e+02,7.154511e+03
8.244212e+02,7.153001e+03
8.253854e+02,7.150021e+03
8.263497e+02,7.146948e+03
8.273139e+02,7.141583e+03
8.282781e+02,7.132704e+03
8.292424e+02,7.121424e+03
8.302066e+02,7.111219e+03
8.311708e+02,7.103667e+03
8.321351e+02,7.098801e+03
8.330993e+02,7.096966e+03
8.340635e+02,7.096855e+03
8.350278e+02,7.098398e+03
8.359920e+02,7.105699e+03
8.369562e+02,7.121334e+03
8.379205e+02,7.130203e+03
8.388847e+02,7.125722e+03
8.398489e+02,7.112725e+03
8.408132e+02,7.102218e+03
8.417774e+02,7.093875e+03
8.427416e+02,7.086110e+03
8.437059e+02,7.079118e+03
8.446701e+02,7.072664e+03
8.456343e+02,7.066732e+03
8.465986e+02,7.059139e+03
8.475628e+02,7.054612e+03
8.485270e+02,7.058625e+03
8.494913e+02,7.064200e+03
8.504555e+02,7.064045e+03
8.514197e+02,7.057107e+03
8.523840e+02,7.051589e+03
8.533482e+02,7.054373e+03
8.543124e+02,7.060883e+03
8.552767e+02,7.064552e+03
8.562409e+02,7.063808e+03
8.572051e+02,7.058837e+03
8.581694e+02,7.050825e+03
8.591336e+02,7.040900e+03
8.600978e+02,7.029523e+03
8.610621e+02,7.016623e+03
8.620263e+02,7.009010e+03
8.629905e+02,7.011439e+03
8.639548e+02,7.022298e+03
8.649190e+02,7.023596e+03
8.658832e+02,7.013194e+03
8.668475e+02,7.002858e+03
8.678117e+02,6.995226e+03
8.687759e+02,6.990131e+03
8.697402e+02,6.992314e+03
8.707044e+02,7.008166e+03
8.716686e+02,7.017282e+03
8.726329e+02,7.015713e+03
8.735971e+02,7.007323e+03
8.745613e+02,6.996445e+03
8.755256e+02,6.981982e+03
8.764898e+02,6.972939e+03
8.774540e+02,6.978444e+03
8.784183e+02,6.990182e+03
8.793825e+02,6.993088e+03
8.803467e+02,6.979598e+03
8.813110e+02,6.963450e+03
8.822752e+02,6.967306e+03
8.832394e+02,6.985910e+03
8.842037e+02,6.993279e+03
8.851679e+02,6.980511e+03
8.861321e+02,6.960723e+03
8.870964e+02,6.954863e+03
8.880606e+02,6.963401e+03
8.890248e+02,6.965281e+03
8.899891e+02,6.960062e+03
8.909533e+02,6.953522e+03
8.919175e+02,6.949369e+03
8.928818e+02,6.948052e+03
8.938460e+02,6.946289e+03
8.948102e+02,6.941085e+03
8.957745e+02,6.935142e+03
8.967387e+02,6.932473e+03
8.977029e+02,6.931268e+03
8.986672e+02,6.923562e+03
8.996314e+02,6.907060e+03
9.005956e+02,6.893266e+03
9.015599e+02,6.884706e+03
9.025241e+02,6.880478e+03
9.034883e+02,6.880008e+03
9.044526e+02,6.888222e+03
9.054168e+02,6.891830e+03
9.063810e+02,6.884148e+03
9.073453e+02,6.873501e+03
9.083095e+02,6.868538e+03
9.092737e+02,6.871002e+03
9.102380e+02,6.875853e+03
9.112022e+02,6.881189e+03
9.121664e+02,6.884893e+03
9.131307e+02,6.881974e+03
9.140949e+02,6.872935e+03
9.150591e+02,6.865820e+03
9.160234e+02,6.867929e+03
9.169876e+02,6.874438e+03
9.179518e+02,6.875222e+03
9.189161e+02,6.868942e+03
9.198803e+02,6.858298e+03
9.208445e+02,6.847583e+03
9.218088e+02,6.838805e+03
9.227730e+02,6.832908e+03
9.237372e+02,6.828866e+03
9.247015e+02,6.825078e+03
9.256657e+02,6.820846e+03
9.266299e+02,6.815653e+03
9.275942e+02,6.810833e+03
9.285584e+02,6.804555e+03
9.295226e+02,6.797835e+03
9.304869e+02,6.790021e+03
9.314511e+02,6.783659e+03
9.324153e+02,6.783740e+03
9.333796e+02,6.801181e+03
9.343438e+02,6.812529e+03
9.353080e+02,6.805181e+03
9.362723e+02,6.786510e+03
9.372365e+02,6.770138e+03
9.382007e+02,6.765305e+03
9.391650e+02,6.763428e+03
9.401292e+02,6.757684e+03
9.410934e+02,6.753013e+03
9.420577e+02,6.755103e+03
9.430219e+02,6.765183e+03
9.439861e+02,6.773627e+03
9.449504e+02,6.774383e+03
9.459146e+02,6.774204e+03
9.468788e+02,6.779112e+03
9.478431e+02,6.785442e+03
9.488073e+02,6.785518e+03
9.497715e+02,6.775428e+03
9.507358e+02,6.758982e+03
9.517000e+02,6.741441e+03
9.526642e+02,6.725312e+03
9.536285e+02,6.712510e+03
9.545927e+02,6.702896e+03
9.555569e+02,6.696196e+03
9.565212e+02,6.692664e+03
9.574854e+02,6.694626e+03
9.584496e+02,6.700272e+03
9.594139e+02,6.706438e+03
9.603781e+02,6.711098e+03
9.613423e+02,6.715001e+03
9.623066e+02,6.719783e+03
9.632708e+02,6.716989e+03
9.642350e+02,6.703498e+03
9.651993e+02,6.687810e+03
9.661635e+02,6.679594e+03
9.671277e+02,6.680506e+03
9.680920e+02,6.678991e+03
9.690562e+02,6.673290e+03
9.700204e+02,6.665847e+03
9.709847e+02,6.660776e+03
9.719489e+02,6.660802e+03
9.729131e+02,6.659929e+03
9.738774e+02,6.658747e+03
9.748416e+02,6.659424e+03
9.758058e+02,6.659195e+03
9.767701e+02,6.657067e+03
9.777343e+02,6.658109e+03
9.786985e+02,6.670545e+03
9.796628e+02,6.676342e+03
9.806270e+02,6.666380e+03
9.815912e+02,6.647260e+03
9.825555e+02,6.630563e+03
9.835197e+02,6.623517e+03
9.844839e+02,6.619404e+03
9.854482e+02,6.618389e+03
9.864124e+02,6.618575e+03
9.873766e+02,6.614687e+03
9.883409e+02,6.605078e+03
9.893051e+02,6.599416e+03
9.902693e+02,6.607362e+03
9.912336e+02,6.620708e+03
9.921978e+02,6.628786e+03
9.931620e+02,6.628626e+03
9.941263e+02,6.623890e+03
9.950905e+02,6.615129e+03
9.960547e+02,6.606008e+03
9.970190e+02,6.601758e+03
9.979832e+02,6.600573e+03
9.989474e+02,6.597684e+03
9.999117e+02,6.593081e+03
1.000876e+03,6.587451e+03
1.001840e+03,6.578896e+03
1.002804e+03,6.570353e+03
1.003769e+03,6.566890e+03
1.004733e+03,6.568918e+03
1.005697e+03,6.572506e+03
1.006661e+03,6.572852e+03
1.007626e+03,6.571253e+03
1.008590e+03,6.571913e+03
1.009554e+03,6.574229e+03
1.010518e+03,6.574295e+03
1.011482e+03,6.569555e+03
1.012447e+03,6.560185e+03
1.013411e+03,6.548239e+03
1.014375e+03,6.536779e+03
1.015339e+03,6.527077e+03
1.016304e+03,6.516758e+03
1.017268e+03,6.506526e+03
1.018232e+03,6.506208e+03
1.019196e+03,6.516451e+03
1.020161e+03,6.524287e+03
1.021125e+03,6.525406e+03
1.022089e+03,6.523967e+03
1.023053e+03,6.526139e+03
1.024018e+03,6.530333e+03
1.024982e+03,6.534045e+03
1.025946e+03,6.536643e+03
1.026910e+03,6.534073e+03
1.027875e+03,6.523412e+03
1.028839e+03,6.503915e+03
1.029803e+03,6.493576e+03
1.030767e+03,6.497514e+03
1.031731e+03,6.502322e+03
1.032696e+03,6.495486e+03
1.033660e+03,6.475452e+03
1.034624e+03,6.466675e+03
1.035588e+03,6.477370e+03
1.036552e+03,6.489733e+03
1.037517e+03,6.495829e+03
1.038481e+03,6.495132e+03
1.039445e+03,6.492577e+03
1.040409e+03,6.487115e+03
1.041374e+03,6.482208e+03
1.042338e+03,6.482047e+03
1.043302e+03,6.483404e+03
1.044266e+03,6.480112e+03
1.045231e+03,6.465972e+03
1.046195e+03,6.456685e+03
1.047159e+03,6.459073e+03
1.048123e+03,6.463113e+03
1.049088e+03,6.461862e+03
1.050052e+03,6.456584e+03
1.051016e+03,6.452960e+03
1.051980e+03,6.450093e+03
1.052945e+03,6.448286e+03
1.053909e+03,6.444657e+03
1.054873e+03,6.437233e+03
1.055837e+03,6.429945e+03
1.056802e+03,6.428646e+03
1.057766e+03,6.425150e+03
1.058730e+03,6.416287e+03
1.059694e+03,6.406655e+03
1.060658e+03,6.400875e+03
1.061623e+03,6.402916e+03
1.062587e+03,6.405425e+03
1.063551e+03,6.408132e+03
1.064515e+03,6.411319e+03
1.065479e+03,6.414310e+03
1.066444e+03,6.418399e+03
1.067408e+03,6.421659e+03
1.068372e+03,6.424353e+03
1.069336e+03,6.425471e+03
1.070301e+03,6.420140e+03
1.071265e+03,6.408901e+03
1.072229e+03,6.398968e+03
1.073193e+03,6.394174e+03
1.074158e+03,6.387392e+03
1.075122e+03,6.374437e+03
1.076086e+03,6.359843e+03
1.077050e+03,6.350204e+03
1.078015e+03,6.350724e+03
1.078979e+03,6.356587e+03
1.079943e+03,6.371295e+03
1.080907e+03,6.385451e+03
1.081872e+03,6.388598e+03
1.082836e+03,6.378253e+03
1.083800e+03,6.371315e+03
1.084764e+03,6.374013e+03
1.085729e+03,6.381509e+03
1.086693e+03,6.396604e+03
1.087657e+03,6.413240e+03
1.088621e+03,6.418270e+03
1.089585e+03,6.398565e+03
1.090550e+03,6.376853e+03
1.091514e+03,6.359436e+03
1.092478e+03,6.347702e+03
1.093442e+03,6.342882e+03
1.094406e+03,6.349273e+03
1.095371e+03,6.352019e+03
1.096335e+03,6.338978e+03
1.097299e+03,6.326573e+03
1.098263e+03,6.327757e+03
1.099228e+03,6.341489e+03
1.100192e+03,6.349980e+03
1.101156e+03,6.349170e+03
1.102120e+03,6.342362e+03
1.103085e+03,6.326197e+03
1.104049e+03,6.306473e+03
1.105013e+03,6.294424e+03
1.105977e+03,6.301186e+03
1.106942e+03,6.304414e+03
1.107906e+03,6.295861e+03
1.108870e+03,6.286022e+03
1.109834e+03,6.285385e+03
1.110799e+03,6.298358e+03
1.111763e+03,6.306219e+03
1.112727e+03,6.303939e+03
1.113691e+03,6.300920e+03
1.114656e+03,6.300265e+03
1.115620e+03,6.301868e+03
1.116584e+03,6.304551e+03
1.117548e+03,6.309498e+03
1.118512e+03,6.308736e+03
1.119477e+03,6.297748e+03
1.120441e+03,6.281606e+03
1.121405e+03,6.268765e+03
1.122369e+03,6.258027e+03
1.123334e+03,6.253258e+03
1.124298e+03,6.264206e+03
1.125262e+03,6.274755e+03
1.126226e+03,6.272426e+03
1.127191e+03,6.255678e+03
1.128155e+03,6.244766e+03
1.129119e+03,6.240523e+03
1.130083e+03,6.237890e+03
1.131047e+03,6.234174e+03
1.132012e+03,6.229031e+03
1.132976e+03,6.226273e+03
1.133940e+03,6.228197e+03
1.134904e+03,6.227253e+03
1.135869e+03,6.224032e+03
1.136833e+03,6.219491e+03
1.137797e+03,6.213756e+03
1.138761e+03,6.207403e+03
1.139726e+03,6.205808e+03
1.140690e+03,6.209647e+03
1.141654e+03,6.214290e+03
1.142618e+03,6.216878e+03
1.143583e+03,6.217854e+03
1.144547e+03,6.217574e+03
1.145511e+03,6.216158e+03
1.146475e+03,6.211410e+03
1.147439e+03,6.200524e+03
1.148404e+03,6.189718e+03
1.149368e+03,6.190045e+03
1.150332e+03,6.202515e+03
1.151296e+03,6.207086e+03
1.152261e+03,6.197982e+03
1.153225e+03,6.181649e+03
1.154189e+03,6.166486e+03
1.155153e+03,6.155329e+03
1.156118e+03,6.153229e+03
1.157082e+03,6.162467e+03
1.158046e+03,6.171072e+03
1.159010e+03,6.171239e+03
1.159974e+03,6.165601e+03
1.160939e+03,6.157596e+03
1.161903e+03,6.146987e+03
1.162867e+03,6.141614e+03
1.163831e+03,6.142935e+03
1.164796e+03,6.145486e+03
1.165760e+03,6.148103e+03
1.166724e+03,6.149225e+03
1.167688e+03,6.138510e+03
1.168653e+03,6.117935e+03
1.169617e+03,6.102160e+03
1.170581e+03,6.105150e+03
1.171545e+03,6.113829e+03
1.172510e+03,6.105555e+03
1.173474e+03,6.088224e+03
1.174438e+03,6.078716e+03
1.175402e+03,6.081777e+03
1.176366e+03,6.088750e+03
1.177331e+03,6.094701e+03
1.178295e+03,6.099994e+03
1.179259e+03,6.103659e+03
1.180223e+03,6.104668e+03
1.181188e+03,6.104148e+03
1.182152e+03,6.104512e+03
1.183116e+03,6.102564e+03
1.184080e+03,6.097868e+03
1.185045e+03,6.091316e+03
1.186009e+03,6.081870e+03
1.186973e+03,6.066981e+03
1.187937e+03,6.058698e+03
1.188901e+03,6.065045e+03
1.189866e+03,6.075947e+03
1.190830e+03,6.083122e+03
1.191794e+03,6.084379e+03
1.192758e+03,6.081066e+03
1.193723e+03,6.072659e+03
1.194687e+03,6.065541e+03
1.195651e+03,6.060595e+03
1.196615e+03,6.057353e+03
1.197580e+03,6.054802e+03
1.198544e+03,6.047504e+03
1.199508e+03,6.040811e+03
1.200472e+03,6.042335e+03
1.201437e+03,6.043126e+03
1.202401e+03,6.034599e+03
1.203365e+03,6.015839e+03
1.204329e+03,6.008616e+03
1.205293e+03,6.016136e+03
1.206258e+03,6.024990e+03
1.207222e+03,6.028521e+03
1.208186e+03,6.028144e+03
1.209150e+03,6.030474e+03
1.210115e+03,6.034274e+03
1.211079e+03,6.034548e+03
1.212043e+03,6.030751e+03
1.213007e+03,6.024566e+03
1.213972e+03,6.019592e+03
1.214936e+03,6.017125e+03
1.215900e+03,6.015047e+03
1.216864e+03,6.013544e+03
1.217828e+03,6.013068e+03
1.218793e+03,6.014944e+03
1.219757e+03,6.016775e+03
1.220721e+03,6.011084e+03
1.221685e+03,6.002510e+03
1.222650e+03,6.002507e+03
1.223614e+03,6.012570e+03
1.224578e+03,6.020179e+03
1.225542e+03,6.013771e+03
1.226507e+03,6.003585e+03
1.227471e+03,6.001610e+03
1.228435e+03,6.004894e+03
1.229399e+03,6.003177e+03
1.230364e+03,5.990617e+03
1.231328e+03,5.975932e+03
1.232292e+03,5.965576e+03
1.233256e+03,5.959524e+03
1.234220e+03,5.953951e+03
1.235185e+03,5.948553e+03
1.236149e+03,5.947250e+03
1.237113e+03,5.954405e+03
1.238077e+03,5.964194e+03
1.239042e+03,5.970583e+03
1.240006e+03,5.971040e+03
1.240970e+03,5.967311e+03
1.241934e+03,5.957567e+03
1.242899e+03,5.946038e+03
1.243863e+03,5.933154e+03
1.244827e+03,5.922394e+03
1.245791e+03,5.918506e+03
1.246755e+03,5.923153e+03
1.247720e+03,5.925196e+03
1.248684e+03,5.925055e+03
1.249648e+03,5.922773e+03
1.250612e+03,5.915930e+03
1.251577e+03,5.906757e+03
1.252541e+03,5.907126e+03
1.253505e+03,5.915084e+03
1.254469e+03,5.920409e+03
1.255434e+03,5.921188e+03
1.256398e+03,5.920470e+03
1.257362e+03,5.918647e+03
1.258326e+03,5.915700e+03
1.259291e+03,5.914783e+03
1.260255e+03,5.914497e+03
1.261219e+03,5.910289e+03
1.262183e+03,5.900964e+03
1.263147e+03,5.891951e+03
1.264112e+03,5.885039e+03
1.265076e+03,5.880681e+03
1.266040e+03,5.878860e+03
1.267004e+03,5.880582e+03
1.267969e+03,5.882639e+03
1.268933e+03,5.883776e+03
1.269897e+03,5.890289e+03
1.270861e+03,5.905504e+03
1.271826e+03,5.923324e+03
1.272790e+03,5.929553e+03
1.273754e+03,5.921329e+03
1.274718e+03,5.910138e+03
1.275682e+03,5.899229e+03
1.276647e+03,5.890104e+03
1.277611e+03,5.883342e+03
1.278575e+03,5.878769e+03
1.279539e+03,5.870325e+03
1.280504e+03,5.860161e+03
1.281468e+03,5.854147e+03
1.282432e+03,5.854308e+03
1.283396e+03,5.859075e+03
1.284361e+03,5.866467e+03
1.285325e+03,5.874053e+03
1.286289e+03,5.877025e+03
1.287253e+03,5.873758e+03
1.288218e+03,5.866700e+03
1.289182e+03,5.857333e+03
1.290146e+03,5.847964e+03
1.291110e+03,5.841787e+03
1.292074e+03,5.839214e+03
1.293039e+03,5.838240e+03
1.294003e+03,5.840833e+03
1.294967e+03,5.839100e+03
1.295931e+03,5.827150e+03
1.296896e+03,5.814064e+03
1.297860e+03,5.808461e+03
1.298824e+03,5.811644e+03
1.299788e+03,5.816104e+03
1.300753e+03,5.821604e+03
1.301717e+03,5.826584e+03
1.302681e+03,5.831390e+03
1.303645e+03,5.835108e+03
1.304609e+03,5.834818e+03
1.305574e+03,5.827612e+03
1.306538e+03,5.820732e+03
1.307502e+03,5.818503e+03
1.308466e+03,5.816029e+03
1.309431e+03,5.803852e+03
1.310395e+03,5.786317e+03
1.311359e+03,5.777947e+03
1.312323e+03,5.775245e+03
1.313288e+03,5.772585e+03
1.314252e+03,5.770517e+03
1.315216e+03,5.770702e+03
1.316180e+03,5.773358e+03
1.317145e+03,5.777385e+03
1.318109e+03,5.778747e+03
1.319073e+03,5.775167e+03
1.320037e+03,5.773201e+03
1.321001e+03,5.782289e+03
1.321966e+03,5.786455e+03
1.322930e+03,5.777812e+03
1.323894e+03,5.763937e+03
1.324858e+03,5.755300e+03
1.325823e+03,5.753292e+03
1.326787e+03,5.752832e+03
1.327751e+03,5.752787e+03
1.328715e+03,5.751897e+03
1.329680e+03,5.749858e+03
1.330644e+03,5.747607e+03
1.331608e+03,5.748948e+03
1.332572e+03,5.752924e+03
1.333536e+03,5.753333e+03
1.334501e+03,5.747063e+03
1.335465e+03,5.740085e+03
1.336429e+03,5.744857e+03
1.337393e+03,5.754011e+03
1.338358e+03,5.754265e+03
1.339322e+03,5.746731e+03
1.340286e+03,5.739843e+03
1.341250e+03,5.741588e+03
1.342215e+03,5.739856e+03
1.343179e+03,5.730088e+03
1.344143e+03,5.719365e+03
1.345107e+03,5.710320e+03
1.346072e+03,5.699629e+03
1.347036e+03,5.699258e+03
1.348000e+03,5.715076e+03
1.348964e+03,5.726417e+03
1.349928e+03,5.725755e+03
1.350893e+03,5.719893e+03
1.351857e+03,5.721783e+03
1.352821e+03,5.729698e+03
1.353785e+03,5.730823e+03
1.354750e+03,5.722787e+03
1.355714e+03,5.711006e+03
1.356678e+03,5.702481e+03
1.357642e+03,5.696729e+03
1.358607e+03,5.687597e+03
1.359571e+03,5.677282e+03
1.360535e+03,5.672852e+03
1.361499e+03,5.679558e+03
1.362464e+03,5.687262e+03
1.363428e+03,5.695954e+03
1.364392e+03,5.702030e+03
1.365356e+03,5.697169e+03
1.366320e+03,5.680381e+03
1.367285e+03,5.669166e+03
1.368249e+03,5.668097e+03
1.369213e+03,5.668646e+03
1.370177e+03,5.670750e+03
1.371142e+03,5.670929e+03
1.372106e+03,5.662500e+03
1.373070e+03,5.647654e+03
1.374034e+03,5.644960e+03
1.374999e+03,5.654554e+03
1.375963e+03,5.664155e+03
1.376927e+03,5.667936e+03
1.377891e+03,5.667086e+03
1.378855e+03,5.659017e+03
1.379820e+03,5.647690e+03
1.380784e+03,5.637758e+03
1.381748e+03,5.631606e+03
1.382712e+03,5.630842e+03
1.383677e+03,5.638962e+03
1.384641e+03,5.642937e+03
1.385605e+03,5.635944e+03
1.386569e+03,5.623126e+03
1.387534e+03,5.612860e+03
1.388498e+03,5.605780e+03
1.389462e+03,5.601966e+03
1.390426e+03,5.600433e+03
1.391391e+03,5.597268e+03
1.392355e+03,5.590768e+03
1.393319e+03,5.584404e+03
1.394283e+03,5.581646e+03
1.395247e+03,5.582053e+03
1.396212e+03,5.588140e+03
1.397176e+03,5.600947e+03
1.398140e+03,5.610285e+03
1.399104e+03,5.604700e+03
1.400069e+03,5.596541e+03
1.401033e+03,5.593904e+03
1.401997e+03,5.595287e+03
1.402961e+03,5.595994e+03
1.403926e+03,5.598902e+03
1.404890e+03,5.591541e+03
1.405854e+03,5.569562e+03
1.406818e+03,5.550650e+03
1.407782e+03,5.549540e+03
1.408747e+03,5.562411e+03
1.409711e+03,5.572655e+03
1.410675e+03,5.576643e+03
1.411639e+03,5.569327e+03
1.412604e+03,5.548528e+03
1.413568e+03,5.532070e+03
1.414532e+03,5.544413e+03
1.415496e+03,5.562854e+03
1.416461e+03,5.562363e+03
1.417425e+03,5.546049e+03
1.418389e+03,5.536573e+03
1.419353e+03,5.547881e+03
1.420318e+03,5.551297e+03
1.421282e+03,5.543911e+03
1.422246e+03,5.534845e+03
1.423210e+03,5.530204e+03
1.424174e+03,5.530341e+03
1.425139e+03,5.533589e+03
1.426103e+03,5.537845e+03
1.427067e+03,5.538060e+03
1.428031e+03,5.532693e+03
1.428996e+03,5.525469e+03
1.429960e+03,5.516608e+03
1.430924e+03,5.508036e+03
1.431888e+03,5.502900e+03
1.432853e+03,5.500847e+03
1.433817e+03,5.497792e+03
1.434781e+03,5.492360e+03
1.435745e+03,5.489295e+03
1.436709e+03,5.487597e+03
1.437674e+03,5.485218e+03
1.438638e+03,5.481857e+03
1.439602e+03,5.479505e+03
1.440566e+03,5.483656e+03
1.441531e+03,5.492901e+03
1.442495e+03,5.498802e+03
1.443459e+03,5.497025e+03
1.444423e+03,5.492460e+03
1.445388e+03,5.487892e+03
1.446352e+03,5.482657e+03
1.447316e+03,5.480073e+03
1.448280e+03,5.480741e+03
1.449245e+03,5.475786e+03
1.450209e+03,5.454361e+03
1.451173e+03,5.439657e+03
1.452137e+03,5.430539e+03
1.453101e+03,5.427753e+03
1.454066e+03,5.437420e+03
1.455030e+03,5.457064e+03
1.455994e+03,5.462674e+03
1.456958e+03,5.456353e+03
1.457923e+03,5.453603e+03
1.458887e+03,5.459837e+03
1.459851e+03,5.465464e+03
1.460815e+03,5.462315e+03
1.461780e+03,5.453006e+03
1.462744e+03,5.440737e+03
1.463708e+03,5.427868e+03
1.464672e+03,5.419811e+03
1.465636e+03,5.424271e+03
1.466601e+03,5.422625e+03
1.467565e+03,5.409382e+03
1.468529e+03,5.396953e+03
1.469493e+03,5.396621e+03
1.470458e+03,5.404366e+03
1.471422e+03,5.411757e+03
1.472386e+03,5.418922e+03
1.473350e+03,5.421647e+03
1.474315e+03,5.415853e+03
1.475279e+03,5.410343e+03
1.476243e+03,5.411675e+03
1.477207e+03,5.412722e+03
1.478172e+03,5.411384e+03
1.479136e+03,5.407686e+03
1.480100e+03,5.399514e+03
1.481064e+03,5.385222e+03
1.482028e+03,5.375466e+03
1.482993e+03,5.372463e+03
1.483957e+03,5.374064e+03
1.484921e+03,5.378786e+03
1.485885e+03,5.384542e+03
1.486850e+03,5.386660e+03
1.487814e+03,5.384976e+03
1.488778e+03,5.382564e+03
1.489742e+03,5.381298e+03
1.490707e+03,5.378403e+03
1.491671e+03,5.374369e+03
1.492635e+03,5.373285e+03
1.493599e+03,5.375846e+03
1.494563e+03,5.378779e+03
1.495528e+03,5.375320e+03
1.496492e+03,5.365015e+03
1.497456e+03,5.362536e+03
1.498420e+03,5.370940e+03
1.499385e+03,5.376195e+03
1.500349e+03,5.358588e+03
1.501313e+03,5.342056e+03
1.502277e+03,5.354070e+03
1.503242e+03,5.376523e+03
1.504206e+03,5.382191e+03
1.505170e+03,5.360042e+03
1.506134e+03,5.341098e+03
1.507099e+03,5.324155e+03
1.508063e+03,5.316511e+03
1.509027e+03,5.323315e+03
1.509991e+03,5.335143e+03
1.510955e+03,5.335669e+03
1.511920e+03,5.328978e+03
1.512884e+03,5.326056e+03
1.513848e+03,5.329046e+03
1.514812e+03,5.331600e+03
1.515777e+03,5.322780e+03
1.516741e+03,5.315033e+03
1.517705e+03,5.313102e+03
1.518669e+03,5.312760e+03
1.519634e+03,5.312392e+03
1.520598e+03,5.311052e+03
1.521562e+03,5.307612e+03
1.522526e+03,5.300839e+03
1.523490e+03,5.295200e+03
1.524455e+03,5.293524e+03
1.525419e+03,5.289315e+03
1.526383e+03,5.273227e+03
1.527347e+03,5.255495e+03
1.528312e+03,5.246374e+03
1.529276e+03,5.247492e+03
1.530240e+03,5.254452e+03
1.531204e+03,5.268441e+03
1.532169e+03,5.277540e+03
1.533133e+03,5.280868e+03
1.534097e+03,5.279302e+03
1.535061e+03,5.270500e+03
1.536026e+03,5.258611e+03
1.536990e+03,5.253502e+03
1.537954e+03,5.253198e+03
1.538918e+03,5.253900e+03
1.539882e+03,5.254670e+03
1.540847e+03,5.252880e+03
1.541811e+03,5.242717e+03
1.542775e+03,5.233646e+03
1.543739e+03,5.231847e+03
1.544704e+03,5.232495e+03
1.545668e+03,5.223408e+03
1.546632e+03,5.208885e+03
1.547596e+03,5.207840e+03
1.548561e+03,5.219389e+03
1.549525e+03,5.232089e+03
1.550489e+03,5.240423e+03
1.551453e+03,5.243981e+03
1.552417e+03,5.239007e+03
1.553382e+03,5.231673e+03
1.554346e+03,5.228531e+03
1.555310e+03,5.229958e+03
1.556274e+03,5.231303e+03
1.557239e+03,5.232037e+03
1.558203e+03,5.230405e+03
1.559167e+03,5.226024e+03
1.560131e+03,5.220270e+03
1.561096e+03,5.214517e+03
1.562060e+03,5.209060e+03
1.563024e+03,5.202545e+03
1.563988e+03,5.196414e+03
1.564953e+03,5.193280e+03
1.565917e+03,5.192688e+03
1.566881e+03,5.196664e+03
1.567845e+03,5.204938e+03
1.568809e+03,5.210470e+03
1.569774e+03,5.210077e+03
1.570738e+03,5.205678e+03
1.571702e+03,5.197066e+03
1.572666e+03,5.187154e+03
1.573631e+03,5.180943e+03
1.574595e+03,5.180441e+03
1.575559e+03,5.177922e+03
1.576523e+03,5.172251e+03
1.577488e+03,5.167268e+03
1.578452e+03,5.160260e+03
1.579416e+03,5.154174e+03
1.580380e+03,5.156594e+03
1.581344e+03,5.162166e+03
1.582309e+03,5.160568e+03
1.583273e+03,5.154425e+03
1.584237e+03,5.148276e+03
1.585201e+03,5.141938e+03
1.586166e+03,5.141014e+03
1.587130e+03,5.148743e+03
1.588094e+03,5.152153e+03
1.589058e+03,5.145709e+03
1.590023e+03,5.135642e+03
1.590987e+03,5.133119e+03
1.591951e+03,5.136850e+03
1.592915e+03,5.140024e+03
1.593880e+03,5.139359e+03
1.594844e+03,5.135532e+03
1.595808e+03,5.124481e+03
1.596772e+03,5.118641e+03
1.597736e+03,5.124587e+03
1.598701e+03,5.133292e+03
1.599665e+03,5.135380e+03
1.600629e+03,5.132782e+03
1.601593e+03,5.136310e+03
1.602558e+03,5.142142e+03
1.603522e+03,5.136458e+03
1.604486e+03,5.112370e+03
1.605450e+03,5.092582e+03
1.606415e+03,5.094619e+03
1.607379e+03,5.096943e+03
1.608343e+03,5.089216e+03
1.609307e+03,5.077472e+03
1.610271e+03,5.073914e+03
1.611236e+03,5.075997e+03
1.612200e+03,5.074898e+03
1.613164e+03,5.072040e+03
1.614128e+03,5.071291e+03
1.615093e+03,5.073672e+03
1.616057e+03,5.077288e+03
1.617021e+03,5.083884e+03
1.617985e+03,5.085689e+03
1.618950e+03,5.078437e+03
1.619914e+03,5.064498e+03
1.620878e+03,5.050398e+03
1.621842e+03,5.037657e+03
1.622807e+03,5.029833e+03
1.623771e+03,5.028608e+03
1.624735e+03,5.031463e+03
1.625699e+03,5.039732e+03
1.626663e+03,5.043858e+03
1.627628e+03,5.037600e+03
1.628592e+03,5.025627e+03
1.629556e+03,5.016992e+03
1.630520e+03,5.013633e+03
1.631485e+03,5.012945e+03
1.632449e+03,5.013837e+03
1.633413e+03,5.014560e+03
1.634377e+03,5.017117e+03
1.635342e+03,5.014049e+03
1.636306e+03,4.993002e+03
1.637270e+03,4.978361e+03
1.638234e+03,4.984321e+03
1.639198e+03,5.000121e+03
1.640163e+03,4.995514e+03
1.641127e+03,4.977925e+03
1.642091e+03,4.966236e+03
1.643055e+03,4.961134e+03
1.644020e+03,4.961363e+03
1.644984e+03,4.975370e+03
1.645948e+03,4.977882e+03
1.646912e+03,4.960760e+03
1.647877e+03,4.940267e+03
1.648841e+03,4.929151e+03
1.649805e+03,4.926676e+03
1.650769e+03,4.931551e+03
1.651734e+03,4.940922e+03
1.652698e+03,4.949528e+03
1.653662e+03,4.954679e+03
1.654626e+03,4.957227e+03
1.655590e+03,4.959557e+03
1.656555e+03,4.955612e+03
1.657519e+03,4.944393e+03
1.658483e+03,4.931848e+03
1.659447e+03,4.921275e+03
1.660412e+03,4.911750e+03
1.661376e+03,4.907541e+03
1.662340e+03,4.908309e+03
1.663304e+03,4.908407e+03
1.664269e+03,4.900201e+03
1.665233e+03,4.896431e+03
1.666197e+03,4.897069e+03
1.667161e+03,4.897837e+03
1.668125e+03,4.898904e+03
1.669090e+03,4.897451e+03
1.670054e+03,4.885989e+03
1.671018e+03,4.871602e+03
1.671982e+03,4.864380e+03
1.672947e+03,4.865746e+03
1.673911e+03,4.871323e+03
1.674875e+03,4.879576e+03
1.675839e+03,4.886208e+03
1.676804e+03,4.893449e+03
1.677768e+03,4.897114e+03
1.678732e+03,4.887894e+03
1.679696e+03,4.874316e+03
1.680661e+03,4.859729e+03
1.681625e+03,4.846467e+03
1.682589e+03,4.842642e+03
1.683553e+03,4.850429e+03
1.684517e+03,4.854939e+03
1.685482e+03,4.855607e+03
1.686446e+03,4.857615e+03
1.687410e+03,4.863188e+03
1.688374e+03,4.865932e+03
1.689339e+03,4.857864e+03
1.690303e+03,4.848164e+03
1.691267e+03,4.843079e+03
1.692231e+03,4.840034e+03
1.693196e+03,4.830176e+03
1.694160e+03,4.814353e+03
1.695124e+03,4.812523e+03
1.696088e+03,4.823334e+03
1.697052e+03,4.830736e+03
1.698017e+03,4.818940e+03
1.698981e+03,4.810668e+03
1.699945e+03,4.812528e+03
1.700909e+03,4.813505e+03
1.701874e+03,4.812353e+03
1.702838e+03,4.810977e+03
1.703802e+03,4.806376e+03
1.704766e+03,4.797938e+03
1.705731e+03,4.789506e+03
1.706695e+03,4.782480e+03
1.707659e+03,4.774311e+03
1.708623e+03,4.760200e+03
1.709588e+03,4.765085e+03
1.710552e+03,4.793823e+03
1.711516e+03,4.816086e+03
1.712480e+03,4.800181e+03
1.713444e+03,4.770833e+03
1.714409e+03,4.752198e+03
1.715373e+03,4.743336e+03
1.716337e+03,4.742908e+03
1.717301e+03,4.751687e+03
1.718266e+03,4.756287e+03
1.719230e+03,4.755772e+03
1.720194e+03,4.760810e+03
1.721158e+03,4.775291e+03
1.722123e+03,4.779796e+03
1.723087e+03,4.745005e+03
1.724051e+03,4.715183e+03
1.725015e+03,4.717524e+03
1.725979e+03,4.733772e+03
1.726944e+03,4.736287e+03
1.727908e+03,4.728445e+03
1.728872e+03,4.723933e+03
1.729836e+03,4.720924e+03
1.730801e+03,4.716847e+03
1.731765e+03,4.710703e+03
1.732729e+03,4.706172e+03
1.733693e+03,4.702885e+03
1.734658e+03,4.704101e+03
1.735622e+03,4.712624e+03
1.736586e+03,4.721267e+03
1.737550e+03,4.718749e+03
1.738515e+03,4.711376e+03
1.739479e+03,4.706646e+03
1.740443e+03,4.704594e+03
1.741407e+03,4.702775e+03
1.742371e+03,4.702000e+03
1.743336e+03,4.692864e+03
1.744300e+03,4.674601e+03
1.745264e+03,4.656296e+03
1.746228e+03,4.643417e+03
1.747193e+03,4.638061e+03
1.748157e+03,4.649031e+03
1.749121e+03,4.664706e+03
1.750085e+03,4.672548e+03
1.751050e+03,4.671030e+03
1.752014e+03,4.667525e+03
1.752978e+03,4.664063e+03
1.753942e+03,4.664064e+03
1.754906e+03,4.667253e+03
1.755871e+03,4.662935e+03
1.756835e+03,4.641872e+03
1.757799e+03,4.625083e+03
1.758763e+03,4.621426e+03
1.759728e+03,4.622000e+03
1.760692e+03,4.614920e+03
1.761656e+03,4.609336e+03
1.762620e+03,4.614882e+03
1.763585e+03,4.624399e+03
1.764549e+03,4.626928e+03
1.765513e+03,4.620703e+03
1.766477e+03,4.619884e+03
1.767442e+03,4.623935e+03
1.768406e+03,4.620813e+03
1.769370e+03,4.605620e+03
1.770334e+03,4.594211e+03
1.771298e+03,4.592383e+03
1.772263e+03,4.593524e+03
1.773227e+03,4.599369e+03
1.774191e+03,4.603422e+03
1.775155e+03,4.592533e+03
1.776120e+03,4.575472e+03
1.777084e+03,4.565587e+03
1.778048e+03,4.562313e+03
1.779012e+03,4.561978e+03
1.779977e+03,4.566922e+03
1.780941e+03,4.565620e+03
1.781905e+03,4.556253e+03
1.782869e+03,4.548687e+03
1.783833e+03,4.546811e+03
1.784798e+03,4.550852e+03
1.785762e+03,4.570780e+03
1.786726e+03,4.583274e+03
1.787690e+03,4.577307e+03
1.788655e+03,4.560007e+03
1.789619e+03,4.536188e+03
1.790583e+03,4.513177e+03
1.791547e+03,4.507990e+03
1.792512e+03,4.518185e+03
1.793476e+03,4.524866e+03
1.794440e+03,4.523037e+03
1.795404e+03,4.517348e+03
1.796369e+03,4.506140e+03
1.797333e+03,4.500959e+03
1.798297e+03,4.516575e+03
1.799261e+03,4.527499e+03
1.800225e+03,4.507928e+03
1.801190e+03,4.481635e+03
1.802154e+03,4.464190e+03
1.803118e+03,4.454717e+03
1.804082e+03,4.457380e+03
1.805047e+03,4.468059e+03
1.806011e+03,4.475303e+03
1.806975e+03,4.477288e+03
1.807939e+03,4.473287e+03
1.808904e+03,4.458372e+03
1.809868e+03,4.451416e+03
1.810832e+03,4.455916e+03
1.811796e+03,4.463718e+03
1.812760e+03,4.469986e+03
1.813725e+03,4.474252e+03
1.814689e+03,4.479242e+03
1.815653e+03,4.478833e+03
1.816617e+03,4.465409e+03
1.817582e+03,4.445741e+03
1.818546e+03,4.442373e+03
1.819510e+03,4.448359e+03
1.820474e+03,4.449552e+03
1.821439e+03,4.444470e+03
1.822403e+03,4.441253e+03
1.823367e+03,4.440868e+03
1.824331e+03,4.443788e+03
1.825296e+03,4.449138e+03
1.826260e+03,4.447875e+03
1.827224e+03,4.425544e+03
1.828188e+03,4.411523e+03
1.829152e+03,4.429323e+03
1.830117e+03,4.448673e+03
1.831081e+03,4.442599e+03
1.832045e+03,4.419955e+03
1.833009e+03,4.410844e+03
1.833974e+03,4.412456e+03
1.834938e+03,4.413416e+03
1.835902e+03,4.409696e+03
1.836866e+03,4.397908e+03
1.837831e+03,4.376595e+03
1.838795e+03,4.364568e+03
1.839759e+03,4.368053e+03
1.840723e+03,4.373828e+03
1.841688e+03,4.371823e+03
1.842652e+03,4.366656e+03
1.843616e+03,4.355623e+03
1.844580e+03,4.345219e+03
1.845544e+03,4.346268e+03
1.846509e+03,4.353985e+03
1.847473e+03,4.361978e+03
1.848437e+03,4.367593e+03
1.849401e+03,4.364833e+03
1.850366e+03,4.354601e+03
1.851330e+03,4.344240e+03
1.852294e+03,4.334982e+03
1.853258e+03,4.323976e+03
1.854223e+03,4.309358e+03
1.855187e+03,4.303829e+03
1.856151e+03,4.320424e+03
1.857115e+03,4.330891e+03
1.858079e+03,4.328464e+03
1.859044e+03,4.320012e+03
1.860008e+03,4.312385e+03
1.860972e+03,4.306764e+03
1.861936e+03,4.304703e+03
1.862901e+03,4.304430e+03
1.863865e+03,4.300389e+03
1.864829e+03,4.290880e+03
1.865793e+03,4.285331e+03
1.866758e+03,4.284350e+03
1.867722e+03,4.286688e+03
1.868686e+03,4.292512e+03
1.869650e+03,4.289553e+03
1.870615e+03,4.272762e+03
1.871579e+03,4.266357e+03
1.872543e+03,4.280374e+03
1.873507e+03,4.293241e+03
1.874471e+03,4.274809e+03
1.875436e+03,4.256625e+03
1.876400e+03,4.257454e+03
1.877364e+03,4.264371e+03
1.878328e+03,4.261719e+03
1.879293e+03,4.254599e+03
1.880257e+03,4.250752e+03
1.881221e+03,4.249010e+03
1.882185e+03,4.251437e+03
1.883150e+03,4.259344e+03
1.884114e+03,4.252458e+03
1.885078e+03,4.232545e+03
1.886042e+03,4.220982e+03
1.887006e+03,4.224546e+03
1.887971e+03,4.229117e+03
1.888935e+03,4.234805e+03
1.889899e+03,4.236981e+03
1.890863e+03,4.231523e+03
1.891828e+03,4.223542e+03
1.892792e+03,4.224427e+03
1.893756e+03,4.222478e+03
1.894720e+03,4.206310e+03
1.895685e+03,4.191135e+03
1.896649e+03,4.191108e+03
1.897613e+03,4.199156e+03
1.898577e+03,4.197827e+03
1.899542e+03,4.190560e+03
1.900506e+03,4.182277e+03
1.901470e+03,4.172539e+03
1.902434e+03,4.171958e+03
1.903398e+03,4.180208e+03
1.904363e+03,4.185013e+03
1.905327e+03,4.183667e+03
1.906291e+03,4.180612e+03
1.907255e+03,4.171661e+03
1.908220e+03,4.167216e+03
1.909184e+03,4.171020e+03
1.910148e+03,4.172258e+03
1.911112e+03,4.158972e+03
1.912077e+03,4.143701e+03
1.913041e+03,4.135041e+03
1.914005e+03,4.131628e+03
1.914969e+03,4.132451e+03
1.915933e+03,4.136490e+03
1.916898e+03,4.145050e+03
1.917862e+03,4.152608e+03
1.918826e+03,4.142210e+03
1.919790e+03,4.111620e+03
1.920755e+03,4.096596e+03
1.921719e+03,4.094199e+03
1.922683e+03,4.089950e+03
1.923647e+03,4.082193e+03
1.924612e+03,4.082333e+03
1.925576e+03,4.109109e+03
1.926540e+03,4.118643e+03
1.927504e+03,4.099283e+03
1.928469e+03,4.077728e+03
1.929433e+03,4.078191e+03
1.930397e+03,4.083381e+03
1.931361e+03,4.084262e+03
1.932325e+03,4.080542e+03
1.933290e+03,4.071488e+03
1.934254e+03,4.063624e+03
1.935218e+03,4.068724e+03
1.936182e+03,4.076217e+03
1.937147e+03,4.072331e+03
1.938111e+03,4.059545e+03
1.939075e+03,4.055381e+03
1.940039e+03,4.059945e+03
1.941004e+03,4.060019e+03
1.941968e+03,4.051548e+03
1.942932e+03,4.047391e+03
1.943896e+03,4.058391e+03
1.944860e+03,4.055269e+03
1.945825e+03,4.036363e+03
1.946789e+03,4.018836e+03
1.947753e+03,4.012310e+03
1.948717e+03,4.009627e+03
1.949682e+03,4.008053e+03
1.950646e+03,4.008244e+03
1.951610e+03,4.013195e+03
1.952574e+03,4.016399e+03
1.953539e+03,4.002456e+03
1.954503e+03,3.986322e+03
1.955467e+03,3.986800e+03
1.956431e+03,3.997595e+03
1.957396e+03,3.999319e+03
1.958360e+03,3.994536e+03
1.959324e+03,3.992983e+03
1.960288e+03,3.995698e+03
1.961252e+03,3.991460e+03
1.962217e+03,3.976342e+03
1.963181e+03,3.972476e+03
1.964145e+03,3.979164e+03
1.965109e+03,3.985340e+03
1.966074e+03,3.988307e+03
1.967038e+03,3.989431e+03
1.968002e+03,3.984115e+03
1.968966e+03,3.979867e+03
1.969931e+03,3.983181e+03
1.970895e+03,3.981213e+03
1.971859e+03,3.963637e+03
1.972823e+03,3.946699e+03
1.973787e+03,3.933798e+03
1.974752e+03,3.926897e+03
1.975716e+03,3.936060e+03
1.976680e+03,3.948230e+03
1.977644e+03,3.951280e+03
1.978609e+03,3.951067e+03
1.979573e+03,3.957134e+03
1.980537e+03,3.963496e+03
1.981501e+03,3.947839e+03
1.982466e+03,3.919122e+03
1.983430e+03,3.903514e+03
1.984394e+03,3.903524e+03
1.985358e+03,3.901672e+03
1.986323e+03,3.897760e+03
1.987287e+03,3.893580e+03
1.988251e+03,3.888601e+03
1.989215e+03,3.887047e+03
1.990179e+03,3.890795e+03
1.991144e+03,3.896193e+03
1.992108e+03,3.904663e+03
1.993072e+03,3.906178e+03
1.994036e+03,3.879367e+03
1.995001e+03,3.863092e+03
1.995965e+03,3.870527e+03
1.996929e+03,3.881271e+03
1.997893e+03,3.866558e+03
1.998858e+03,3.851027e+03
1.999822e+03,3.863378e+03
2.000786e+03,3.880004e+03
2.001750e+03,3.884725e+03
2.002714e+03,3.882435e+03
2.003679e+03,3.873806e+03
2.004643e+03,3.861661e+03
2.005607e+03,3.854196e+03
2.006571e+03,3.850708e+03
2.007536e+03,3.841823e+03
2.008500e+03,3.829916e+03
2.009464e+03,3.820611e+03
2.010428e+03,3.815714e+03
2.011393e+03,3.812856e+03
2.012357e+03,3.811309e+03
2.013321e+03,3.814168e+03
2.014285e+03,3.819054e+03
2.015250e+03,3.825822e+03
2.016214e+03,3.846361e+03
2.017178e+03,3.842847e+03
2.018142e+03,3.812600e+03
2.019106e+03,3.784764e+03
2.020071e+03,3.771682e+03
2.021035e+03,3.769189e+03
2.021999e+03,3.783066e+03
2.022963e+03,3.790362e+03
2.023928e+03,3.783115e+03
2.024892e+03,3.770276e+03
2.025856e+03,3.754705e+03
2.026820e+03,3.745312e+03
2.027785e+03,3.747394e+03
2.028749e+03,3.755259e+03
2.029713e+03,3.766840e+03
2.030677e+03,3.777921e+03
2.031641e+03,3.782048e+03
2.032606e+03,3.779201e+03
2.033570e+03,3.769564e+03
2.034534e+03,3.754332e+03
2.035498e+03,3.739854e+03
2.036463e+03,3.727705e+03
2.037427e+03,3.721531e+03
2.038391e+03,3.722913e+03
2.039355e+03,3.718320e+03
2.040320e+03,3.710191e+03
2.041284e+03,3.706956e+03
2.042248e+03,3.709399e+03
2.043212e+03,3.706096e+03
2.044177e+03,3.696535e+03
2.045141e+03,3.703513e+03
2.046105e+03,3.728858e+03
2.047069e+03,3.740230e+03
2.048033e+03,3.703493e+03
2.048998e+03,3.683148e+03
2.049962e+03,3.686456e+03
2.050926e+03,3.692667e+03
2.051890e+03,3.689615e+03
2.052854e+03,3.682706e+03
2.053819e+03,3.668427e+03
2.054783e+03,3.660363e+03
2.055747e+03,3.673960e+03
2.056711e+03,3.686160e+03
2.057676e+03,3.662839e+03
2.058640e+03,3.645616e+03
2.059604e+03,3.657392e+03
2.060568e+03,3.674614e+03
2.061533e+03,3.658994e+03
2.062497e+03,3.638449e+03
2.063461e+03,3.645916e+03
2.064425e+03,3.661760e+03
2.065390e+03,3.657532e+03
2.066354e+03,3.641907e+03
2.067318e+03,3.631288e+03
2.068282e+03,3.624657e+03
2.069247e+03,3.614340e+03
2.070211e+03,3.601362e+03
2.071175e+03,3.601830e+03
2.072139e+03,3.610985e+03
2.073104e+03,3.616679e+03
2.074068e+03,3.617917e+03
2.075032e+03,3.618043e+03
2.075996e+03,3.616124e+03
2.076960e+03,3.616492e+03
2.077925e+03,3.619028e+03
2.078889e+03,3.606521e+03
2.079853e+03,3.577695e+03
2.080817e+03,3.560078e+03
2.081782e+03,3.556450e+03
2.082746e+03,3.558245e+03
2.083710e+03,3.570176e+03
2.084674e+03,3.571836e+03
2.085639e+03,3.564179e+03
2.086603e+03,3.561143e+03
2.087567e+03,3.565231e+03
2.088531e+03,3.573107e+03
2.089496e+03,3.584558e+03
2.090460e+03,3.584742e+03
2.091424e+03,3.569873e+03
2.092388e+03,3.556737e+03
2.093353e+03,3.553964e+03
2.094317e+03,3.553209e+03
2.095281e+03,3.548927e+03
2.096245e+03,3.542063e+03
2.097209e+03,3.528689e+03
2.098174e+03,3.522638e+03
2.099138e+03,3.533236e+03
2.100102e+03,3.546047e+03
2.101066e+03,3.548724e+03
2.102031e+03,3.541811e+03
2.102995e+03,3.516833e+03
2.103959e+03,3.491892e+03
2.104923e+03,3.479018e+03
2.105887e+03,3.480716e+03
2.106852e+03,3.510033e+03
2.107816e+03,3.535604e+03
2.108780e+03,3.525717e+03
2.109744e+03,3.495240e+03
2.110708e+03,3.478840e+03
2.111673e+03,3.473767e+03
2.112637e+03,3.476116e+03
2.113601e+03,3.478606e+03
2.114565e+03,3.467699e+03
2.115530e+03,3.450908e+03
2.116494e+03,3.444306e+03
2.117458e+03,3.451230e+03
2.118422e+03,3.460735e+03
2.119387e+03,3.469148e+03
2.120351e+03,3.474139e+03
2.121315e+03,3.473523e+03
2.122279e+03,3.466796e+03
2.123244e+03,3.453716e+03
2.124208e+03,3.450032e+03
2.125172e+03,3.454005e+03
2.126136e+03,3.454669e+03
2.127101e+03,3.449565e+03
2.128065e+03,3.448337e+03
2.129029e+03,3.449832e+03
2.129993e+03,3.451539e+03
2.130958e+03,3.449603e+03
2.131922e+03,3.448224e+03
2.132886e+03,3.449378e+03
2.133850e+03,3.445337e+03
2.134814e+03,3.438576e+03
2.135779e+03,3.429633e+03
2.136743e+03,3.414046e+03
2.137707e+03,3.403004e+03
2.138671e+03,3.397918e+03
2.139636e+03,3.390371e+03
2.140600e+03,3.369296e+03
2.141564e+03,3.363250e+03
2.142528e+03,3.375234e+03
2.143493e+03,3.384588e+03
2.144457e+03,3.380791e+03
2.145421e+03,3.375177e+03
2.146385e+03,3.372430e+03
2.147350e+03,3.365315e+03
2.148314e+03,3.352750e+03
2.149278e+03,3.346156e+03
2.150242e+03,3.352988e+03
2.151207e+03,3.356888e+03
2.152171e+03,3.354289e+03
2.153135e+03,3.348224e+03
2.154099e+03,3.344010e+03
2.155063e+03,3.342203e+03
2.156028e+03,3.344535e+03
2.156992e+03,3.345957e+03
2.157956e+03,3.331935e+03
2.158920e+03,3.325633e+03
2.159885e+03,3.343174e+03
2.160849e+03,3.356117e+03
2.161813e+03,3.349579e+03
2.162777e+03,3.336583e+03
2.163741e+03,3.326430e+03
2.164706e+03,3.317409e+03
2.165670e+03,3.312293e+03
2.166634e+03,3.310621e+03
2.167598e+03,3.308874e+03
2.168563e+03,3.308524e+03
2.169527e+03,3.308077e+03
2.170491e+03,3.304469e+03
2.171455e+03,3.295144e+03
2.172420e+03,3.289493e+03
2.173384e+03,3.296820e+03
2.174348e+03,3.305609e+03
2.175312e+03,3.307169e+03
2.176277e+03,3.301451e+03
2.177241e+03,3.283980e+03
2.178205e+03,3.266239e+03
2.179169e+03,3.257359e+03
2.180134e+03,3.254735e+03
2.181098e+03,3.253766e+03
2.182062e+03,3.253292e+03
2.183026e+03,3.248414e+03
2.183990e+03,3.245166e+03
2.184955e+03,3.260738e+03
2.185919e+03,3.273583e+03
2.186883e+03,3.261703e+03
2.187847e+03,3.242132e+03
2.188812e+03,3.235814e+03
2.189776e+03,3.237470e+03
2.190740e+03,3.244929e+03
2.191704e+03,3.249881e+03
2.192668e+03,3.244188e+03
2.193633e+03,3.235526e+03
2.194597e+03,3.236394e+03
2.195561e+03,3.237585e+03
2.196525e+03,3.227254e+03
2.197490e+03,3.213647e+03
2.198454e+03,3.215146e+03
2.199418e+03,3.217377e+03
2.200382e+03,3.205860e+03
2.201347e+03,3.193672e+03
2.202311e+03,3.205442e+03
2.203275e+03,3.220438e+03
2.204239e+03,3.211558e+03
2.205204e+03,3.193898e+03
2.206168e+03,3.198114e+03
2.207132e+03,3.206214e+03
2.208096e+03,3.186364e+03
2.209061e+03,3.158937e+03
2.210025e+03,3.149705e+03
2.210989e+03,3.149044e+03
2.211953e+03,3.141130e+03
2.212917e+03,3.141267e+03
2.213882e+03,3.158629e+03
2.214846e+03,3.179124e+03
2.215810e+03,3.183702e+03
2.216774e+03,3.172965e+03
2.217739e+03,3.151242e+03
2.218703e+03,3.131538e+03
2.219667e+03,3.142363e+03
2.220631e+03,3.158418e+03
2.221595e+03,3.151847e+03
2.222560e+03,3.136348e+03
2.223524e+03,3.130731e+03
2.224488e+03,3.129126e+03
2.225452e+03,3.127774e+03
2.226417e+03,3.126545e+03
2.227381e+03,3.121537e+03
2.228345e+03,3.120039e+03
2.229309e+03,3.134898e+03
2.230274e+03,3.147718e+03
2.231238e+03,3.142223e+03
2.232202e+03,3.128273e+03
2.233166e+03,3.122026e+03
2.234131e+03,3.119719e+03
2.235095e+03,3.117582e+03
2.236059e+03,3.114324e+03
2.237023e+03,3.107440e+03
2.237988e+03,3.095653e+03
2.238952e+03,3.073242e+03
2.239916e+03,3.055203e+03
2.240880e+03,3.077290e+03
2.241844e+03,3.098590e+03
2.242809e+03,3.085648e+03
2.243773e+03,3.065036e+03
2.244737e+03,3.055307e+03
2.245701e+03,3.055750e+03
2.246666e+03,3.075921e+03
2.247630e+03,3.088447e+03
2.248594e+03,3.071921e+03
2.249558e+03,3.052138e+03
2.250522e+03,3.053362e+03
2.251487e+03,3.058025e+03
2.252451e+03,3.055498e+03
2.253415e+03,3.046449e+03
2.254379e+03,3.031206e+03
2.255344e+03,3.020927e+03
2.256308e+03,3.021050e+03
2.257272e+03,3.025487e+03
2.258236e+03,3.032771e+03
2.259201e+03,3.034270e+03
2.260165e+03,3.024402e+03
2.261129e+03,3.015845e+03
2.262093e+03,3.024315e+03
2.263058e+03,3.027251e+03
2.264022e+03,3.020559e+03
2.264986e+03,3.013090e+03
2.265950e+03,3.006456e+03
2.266915e+03,3.001953e+03
2.267879e+03,2.998055e+03
2.268843e+03,2.992838e+03
2.269807e+03,2.991032e+03
2.270771e+03,2.982299e+03
2.271736e+03,2.957918e+03
2.272700e+03,2.952806e+03
2.273664e+03,2.976400e+03
2.274628e+03,2.994314e+03
2.275593e+03,2.988825e+03
2.276557e+03,2.979812e+03
2.277521e+03,2.972358e+03
2.278485e+03,2.966322e+03
2.279449e+03,2.959826e+03
2.280414e+03,2.958973e+03
2.281378e+03,2.963560e+03
2.282342e+03,2.968844e+03
2.283306e+03,2.975575e+03
2.284271e+03,2.965464e+03
2.285235e+03,2.939510e+03
2.286199e+03,2.918873e+03
2.287163e+03,2.916270e+03
2.288128e+03,2.918135e+03
2.289092e+03,2.921409e+03
2.290056e+03,2.927385e+03
2.291020e+03,2.937307e+03
2.291985e+03,2.936602e+03
2.292949e+03,2.929119e+03
2.293913e+03,2.930918e+03
2.294877e+03,2.941167e+03
2.295842e+03,2.943780e+03
2.296806e+03,2.937497e+03
2.297770e+03,2.928352e+03
2.298734e+03,2.919470e+03
2.299698e+03,2.924901e+03
2.300663e+03,2.941400e+03
2.301627e+03,2.929567e+03
2.302591e+03,2.902190e+03
2.303555e+03,2.895534e+03
2.304520e+03,2.904641e+03
2.305484e+03,2.901383e+03
2.306448e+03,2.890119e+03
2.307412e+03,2.873042e+03
2.308376e+03,2.855174e+03
2.309341e+03,2.853633e+03
2.310305e+03,2.859049e+03
2.311269e+03,2.860369e+03
2.312233e+03,2.862804e+03
2.313198e+03,2.877935e+03
2.314162e+03,2.889709e+03
2.315126e+03,2.877417e+03
2.316090e+03,2.858461e+03
2.317055e+03,2.848234e+03
2.318019e+03,2.847306e+03
2.318983e+03,2.861986e+03
2.319947e+03,2.871724e+03
2.320912e+03,2.861749e+03
2.321876e+03,2.846016e+03
2.322840e+03,2.828619e+03
2.323804e+03,2.819350e+03
2.324769e+03,2.827051e+03
2.325733e+03,2.836640e+03
2.326697e+03,2.833095e+03
2.327661e+03,2.835222e+03
2.328625e+03,2.848295e+03
2.329590e+03,2.851228e+03
2.330554e+03,2.825055e+03
2.331518e+03,2.813670e+03
2.332482e+03,2.823927e+03
2.333447e+03,2.831150e+03
2.334411e+03,2.822733e+03
2.335375e+03,2.806989e+03
2.336339e+03,2.785344e+03
2.337303e+03,2.773953e+03
2.338268e+03,2.782812e+03
2.339232e+03,2.784018e+03
2.340196e+03,2.779580e+03
2.341160e+03,2.777976e+03
2.342125e+03,2.781155e+03
2.343089e+03,2.788295e+03
2.344053e+03,2.794831e+03
2.345017e+03,2.799882e+03
2.345982e+03,2.802851e+03
2.346946e+03,2.791151e+03
2.347910e+03,2.773023e+03
2.348874e+03,2.763604e+03
2.349839e+03,2.759471e+03
2.350803e+03,2.755914e+03
2.351767e+03,2.752072e+03
2.352731e+03,2.740910e+03
2.353696e+03,2.730552e+03
2.354660e+03,2.731347e+03
2.355624e+03,2.736382e+03
2.356588e+03,2.738888e+03
2.357552e+03,2.742138e+03
2.358517e+03,2.752259e+03
2.359481e+03,2.759411e+03
2.360445e+03,2.743404e+03
2.361409e+03,2.728314e+03
2.362374e+03,2.728846e+03
2.363338e+03,2.729133e+03
2.364302e+03,2.713548e+03
2.365266e+03,2.707403e+03
2.366230e+03,2.716786e+03
2.367195e+03,2.727700e+03
2.368159e+03,2.731850e+03
2.369123e+03,2.729018e+03
2.370087e+03,2.721445e+03
2.371052e+03,2.710054e+03
2.372016e+03,2.688759e+03
2.372980e+03,2.689773e+03
2.373944e+03,2.711375e+03
2.374909e+03,2.723136e+03
2.375873e+03,2.714250e+03
2.376837e+03,2.706185e+03
2.377801e+03,2.699106e+03
2.378766e+03,2.691234e+03
2.379730e+03,2.682333e+03
2.380694e+03,2.670078e+03
2.381658e+03,2.658448e+03
2.382623e+03,2.652689e+03
2.383587e+03,2.651947e+03
2.384551e+03,2.659378e+03
2.385515e+03,2.666448e+03
2.386479e+03,2.656379e+03
2.387444e+03,2.644171e+03
2.388408e+03,2.657826e+03
2.389372e+03,2.676833e+03
2.390336e+03,2.678531e+03
2.391301e+03,2.671962e+03
2.392265e+03,2.658961e+03
2.393229e+03,2.648013e+03
2.394193e+03,2.645679e+03
2.395157e+03,2.644819e+03
2.396122e+03,2.642135e+03
2.397086e+03,2.640355e+03
2.398050e+03,2.642381e+03
2.399014e+03,2.639792e+03
2.399979e+03,2.627585e+03
2.400943e+03,2.614065e+03
2.401907e+03,2.599103e+03
2.402871e+03,2.600133e+03
2.403836e+03,2.622331e+03
2.404800e+03,2.632513e+03
2.405764e+03,2.628174e+03
2.406728e+03,2.620729e+03
2.407693e+03,2.611354e+03
2.408657e+03,2.609065e+03
2.409621e+03,2.612903e+03
2.410585e+03,2.610060e+03
2.411550e+03,2.602133e+03
2.412514e+03,2.593513e+03
2.413478e+03,2.584592e+03
2.414442e+03,2.576054e+03
2.415406e+03,2.570099e+03
2.416371e+03,2.568820e+03
2.417335e+03,2.569597e+03
2.418299e+03,2.567278e+03
2.419263e+03,2.565957e+03
2.420228e+03,2.566708e+03
2.421192e+03,2.570910e+03
2.422156e+03,2.588583e+03
2.423120e+03,2.596435e+03
2.424084e+03,2.585849e+03
2.425049e+03,2.571109e+03
2.426013e+03,2.560029e+03
2.426977e+03,2.558660e+03
2.427941e+03,2.568902e+03
2.428906e+03,2.570442e+03
2.429870e+03,2.555254e+03
2.430834e+03,2.535409e+03
2.431798e+03,2.516092e+03
2.432763e+03,2.523490e+03
2.433727e+03,2.553150e+03
2.434691e+03,2.562650e+03
2.435655e+03,2.556413e+03
2.436620e+03,2.540485e+03
2.437584e+03,2.523533e+03
2.438548e+03,2.530574e+03
2.439512e+03,2.544367e+03
2.440477e+03,2.546419e+03
2.441441e+03,2.540604e+03
2.442405e+03,2.535452e+03
2.443369e+03,2.525368e+03
2.444333e+03,2.506828e+03
2.445298e+03,2.496219e+03
2.446262e+03,2.518893e+03
2.447226e+03,2.527668e+03
2.448190e+03,2.515443e+03
2.449155e+03,2.504206e+03
2.450119e+03,2.509351e+03
2.451083e+03,2.514204e+03
2.452047e+03,2.517357e+03
2.453011e+03,2.514420e+03
2.453976e+03,2.505128e+03
2.454940e+03,2.497857e+03
2.455904e+03,2.494245e+03
2.456868e+03,2.495525e+03
2.457833e+03,2.496535e+03
2.458797e+03,2.481907e+03
2.459761e+03,2.464589e+03
2.460725e+03,2.460913e+03
2.461690e+03,2.464034e+03
2.462654e+03,2.468523e+03
2.463618e+03,2.469313e+03
2.464582e+03,2.463641e+03
2.465547e+03,2.461055e+03
2.466511e+03,2.475244e+03
2.467475e+03,2.471710e+03
2.468439e+03,2.441622e+03
2.469404e+03,2.423434e+03
2.470368e+03,2.458778e+03
2.471332e+03,2.471539e+03
2.472296e+03,2.460330e+03
2.473260e+03,2.451719e+03
2.474225e+03,2.453160e+03
2.475189e+03,2.441371e+03
2.476153e+03,2.424985e+03
2.477117e+03,2.427775e+03
2.478082e+03,2.442932e+03
2.479046e+03,2.451645e+03
2.480010e+03,2.455275e+03
2.480974e+03,2.456419e+03
2.481938e+03,2.456608e+03
2.482903e+03,2.457205e+03
2.483867e+03,2.457530e+03
2.484831e+03,2.456865e+03
2.485795e+03,2.453882e+03
2.486760e+03,2.449026e+03
2.487724e+03,2.442384e+03
2.488688e+03,2.434938e+03
2.489652e+03,2.428697e+03
2.490617e+03,2.424890e+03
2.491581e+03,2.409656e+03
2.492545e+03,2.388191e+03
2.493509e+03,2.388938e+03
2.494474e+03,2.411267e+03
2.495438e+03,2.410276e+03
2.496402e+03,2.397476e+03
2.497366e+03,2.399845e+03
2.498331e+03,2.410221e+03
2.499295e+03,2.420459e+03
2.500259e+03,2.418637e+03
2.501223e+03,2.393350e+03
2.502188e+03,2.371801e+03
2.503152e+03,2.390938e+03
2.504116e+03,2.405969e+03
2.505080e+03,2.403179e+03
2.506044e+03,2.398937e+03
2.507009e+03,2.407484e+03
2.507973e+03,2.395796e+03
2.508937e+03,2.367065e+03
2.509901e+03,2.360055e+03
2.510865e+03,2.385050e+03
2.511830e+03,2.393633e+03
2.512794e+03,2.388909e+03
2.513758e+03,2.383390e+03
2.514722e+03,2.380481e+03
2.515687e+03,2.386414e+03
2.516651e+03,2.388618e+03
2.517615e+03,2.371768e+03
2.518579e+03,2.352780e+03
2.519544e+03,2.358064e+03
2.520508e+03,2.358768e+03
2.521472e+03,2.343624e+03
2.522436e+03,2.333565e+03
2.523401e+03,2.349132e+03
2.524365e+03,2.363117e+03
2.525329e+03,2.371482e+03
2.526293e+03,2.368649e+03
2.527258e+03,2.354823e+03
2.528222e+03,2.348675e+03
2.529186e+03,2.346497e+03
2.530150e+03,2.334128e+03
2.531115e+03,2.318613e+03
2.532079e+03,2.324739e+03
2.533043e+03,2.336219e+03
2.534007e+03,2.334251e+03
2.534971e+03,2.325054e+03
2.535936e+03,2.316080e+03
2.536900e+03,2.311187e+03
2.537864e+03,2.311156e+03
2.538828e+03,2.317864e+03
2.539792e+03,2.332744e+03
2.540757e+03,2.334105e+03
2.541721e+03,2.319783e+03
2.542685e+03,2.309874e+03
2.543649e+03,2.307510e+03
2.544614e+03,2.307828e+03
2.545578e+03,2.309001e+03
2.546542e+03,2.312505e+03
2.547506e+03,2.316556e+03
2.548471e+03,2.313285e+03
2.549435e+03,2.307957e+03
2.550399e+03,2.306103e+03
2.551363e+03,2.303767e+03
2.552328e+03,2.296784e+03
2.553292e+03,2.297330e+03
2.554256e+03,2.313288e+03
2.555220e+03,2.317207e+03
2.556185e+03,2.304109e+03
2.557149e+03,2.296066e+03
2.558113e+03,2.297001e+03
2.559077e+03,2.303983e+03
2.560042e+03,2.311228e+03
2.561006e+03,2.301108e+03
2.561970e+03,2.285030e+03
2.562934e+03,2.277239e+03
2.563898e+03,2.276763e+03
2.564863e+03,2.284868e+03
2.565827e+03,2.290909e+03
2.566791e+03,2.289253e+03
2.567755e+03,2.291099e+03
2.568719e+03,2.297222e+03
2.569684e+03,2.291300e+03
2.570648e+03,2.260645e+03
2.571612e+03,2.244663e+03
2.572576e+03,2.244993e+03
2.573541e+03,2.255292e+03
2.574505e+03,2.268470e+03
2.575469e+03,2.269535e+03
2.576433e+03,2.261279e+03
2.577398e+03,2.248175e+03
2.578362e+03,2.237023e+03
2.579326e+03,2.240630e+03
2.580290e+03,2.243097e+03
2.581255e+03,2.236000e+03
2.582219e+03,2.228460e+03
2.583183e+03,2.227628e+03
2.584147e+03,2.230243e+03
2.585112e+03,2.238480e+03
2.586076e+03,2.241419e+03
2.587040e+03,2.237266e+03
2.588004e+03,2.244108e+03
2.588969e+03,2.252396e+03
2.589933e+03,2.245341e+03
2.590897e+03,2.230507e+03
2.591861e+03,2.218746e+03
2.592825e+03,2.213803e+03
2.593790e+03,2.218987e+03
2.594754e+03,2.220152e+03
2.595718e+03,2.204044e+03
2.596682e+03,2.196984e+03
2.597646e+03,2.203697e+03
2.598611e+03,2.201684e+03
2.599575e+03,2.191621e+03
2.600539e+03,2.185576e+03
2.601503e+03,2.186019e+03
2.602468e+03,2.202271e+03
2.603432e+03,2.219623e+03
2.604396e+03,2.204717e+03
2.605360e+03,2.183569e+03
2.606325e+03,2.176238e+03
2.607289e+03,2.169868e+03
2.608253e+03,2.157642e+03
2.609217e+03,2.156013e+03
2.610182e+03,2.175588e+03
2.611146e+03,2.180708e+03
2.612110e+03,2.172884e+03
2.613074e+03,2.173523e+03
2.614039e+03,2.182911e+03
2.615003e+03,2.174423e+03
2.615967e+03,2.157367e+03
2.616931e+03,2.150173e+03
2.617896e+03,2.149962e+03
2.618860e+03,2.158099e+03
2.619824e+03,2.158533e+03
2.620788e+03,2.143822e+03
2.621752e+03,2.134672e+03
2.622717e+03,2.146597e+03
2.623681e+03,2.162323e+03
2.624645e+03,2.177808e+03
2.625609e+03,2.173247e+03
2.626573e+03,2.152880e+03
2.627538e+03,2.145102e+03
2.628502e+03,2.146211e+03
2.629466e+03,2.146853e+03
2.630430e+03,2.146394e+03
2.631395e+03,2.141783e+03
2.632359e+03,2.137807e+03
2.633323e+03,2.136208e+03
2.634287e+03,2.138831e+03
2.635252e+03,2.146464e+03
2.636216e+03,2.154551e+03
2.637180e+03,2.159212e+03
2.638144e+03,2.147474e+03
2.639109e+03,2.126491e+03
2.640073e+03,2.119090e+03
2.641037e+03,2.122293e+03
2.642001e+03,2.131031e+03
2.642966e+03,2.138187e+03
2.643930e+03,2.141741e+03
2.644894e+03,2.133043e+03
2.645858e+03,2.089764e+03
2.646823e+03,2.071987e+03
2.647787e+03,2.078824e+03
2.648751e+03,2.086159e+03
2.649715e+03,2.089718e+03
2.650679e+03,2.106633e+03
2.651644e+03,2.122231e+03
2.652608e+03,2.112595e+03
2.653572e+03,2.094050e+03
2.654536e+03,2.087276e+03
2.655500e+03,2.089870e+03
2.656465e+03,2.102882e+03
2.657429e+03,2.109071e+03
2.658393e+03,2.100945e+03
2.659357e+03,2.096016e+03
2.660322e+03,2.098310e+03
2.661286e+03,2.098886e+03
2.662250e+03,2.096455e+03
2.663214e+03,2.084870e+03
2.664179e+03,2.072864e+03
2.665143e+03,2.072255e+03
2.666107e+03,2.076667e+03
2.667071e+03,2.083229e+03
2.668036e+03,2.088567e+03
2.669000e+03,2.087734e+03
2.669964e+03,2.084279e+03
2.670928e+03,2.079111e+03
2.671893e+03,2.080895e+03
2.672857e+03,2.088014e+03
2.673821e+03,2.083150e+03
2.674785e+03,2.072903e+03
2.675750e+03,2.066452e+03
2.676714e+03,2.062819e+03
2.677678e+03,2.057647e+03
2.678642e+03,2.061675e+03
2.679606e+03,2.079038e+03
2.680571e+03,2.071728e+03
2.681535e+03,2.035899e+03
2.682499e+03,2.037010e+03
2.683463e+03,2.065218e+03
2.684427e+03,2.068072e+03
2.685392e+03,2.058757e+03
2.686356e+03,2.054892e+03
2.687320e+03,2.054157e+03
2.688284e+03,2.059601e+03
2.689249e+03,2.060760e+03
2.690213e+03,2.054755e+03
2.691177e+03,2.053351e+03
2.692141e+03,2.063719e+03
2.693106e+03,2.049767e+03
2.694070e+03,2.024038e+03
2.695034e+03,2.014962e+03
2.695998e+03,2.017745e+03
2.696963e+03,2.032804e+03
2.697927e+03,2.041455e+03
2.698891e+03,2.031718e+03
2.699855e+03,2.023226e+03
2.700820e+03,2.027406e+03
2.701784e+03,2.035208e+03
2.702748e+03,2.043151e+03
2.703712e+03,2.043743e+03
2.704677e+03,2.037905e+03
2.705641e+03,2.031575e+03
2.706605e+03,2.023689e+03
2.707569e+03,2.000365e+03
2.708533e+03,1.987966e+03
2.709498e+03,1.997588e+03
2.710462e+03,2.010853e+03
2.711426e+03,2.026940e+03
2.712390e+03,2.019086e+03
2.713354e+03,1.995524e+03
2.714319e+03,1.995669e+03
2.715283e+03,2.010268e+03
2.716247e+03,2.020240e+03
2.717211e+03,2.025862e+03
2.718176e+03,2.029953e+03
2.719140e+03,2.023700e+03
2.720104e+03,1.992878e+03
2.721068e+03,1.980150e+03
2.722033e+03,1.989887e+03
2.722997e+03,1.995324e+03
2.723961e+03,1.994598e+03
2.724925e+03,1.993146e+03
2.725890e+03,1.992409e+03
2.726854e+03,1.991594e+03
2.727818e+03,1.993970e+03
2.728782e+03,1.999034e+03
2.729747e+03,2.002643e+03
2.730711e+03,2.003261e+03
2.731675e+03,2.003723e+03
2.732639e+03,2.003069e+03
2.733604e+03,1.987626e+03
2.734568e+03,1.966748e+03
2.735532e+03,1.970923e+03
2.736496e+03,1.976957e+03
2.737460e+03,1.967224e+03
2.738425e+03,1.961855e+03
2.739389e+03,1.975787e+03
2.740353e+03,1.973060e+03
2.741317e+03,1.951540e+03
2.742281e+03,1.954102e+03
2.743246e+03,1.974019e+03
2.744210e+03,1.982822e+03
2.745174e+03,1.979324e+03
2.746138e+03,1.960827e+03
2.747103e+03,1.944076e+03
2.748067e+03,1.935729e+03
2.749031e+03,1.940196e+03
2.749995e+03,1.968243e+03
2.750960e+03,1.970363e+03
2.751924e+03,1.956086e+03
2.752888e+03,1.955856e+03
2.753852e+03,1.963961e+03
2.754817e+03,1.971050e+03
2.755781e+03,1.971672e+03
2.756745e+03,1.960614e+03
2.757709e+03,1.950174e+03
2.758674e+03,1.942246e+03
2.759638e+03,1.940642e+03
2.760602e+03,1.944783e+03
2.761566e+03,1.931349e+03
2.762531e+03,1.915146e+03
2.763495e+03,1.920155e+03
2.764459e+03,1.929717e+03
2.765423e+03,1.932233e+03
2.766387e+03,1.926658e+03
2.767352e+03,1.914761e+03
2.768316e+03,1.917734e+03
2.769280e+03,1.938389e+03
2.770244e+03,1.943026e+03
2.771208e+03,1.936371e+03
2.772173e+03,1.925828e+03
2.773137e+03,1.918442e+03
2.774101e+03,1.928908e+03
2.775065e+03,1.938813e+03
2.776030e+03,1.941502e+03
2.776994e+03,1.926587e+03
2.777958e+03,1.898079e+03
2.778922e+03,1.887543e+03
2.779887e+03,1.893175e+03
2.780851e+03,1.910730e+03
2.781815e+03,1.920176e+03
2.782779e+03,1.909595e+03
2.783744e+03,1.903041e+03
2.784708e+03,1.915218e+03
2.785672e+03,1.926229e+03
2.786636e+03,1.932407e+03
2.787601e+03,1.927314e+03
2.788565e+03,1.916625e+03
2.789529e+03,1.911714e+03
2.790493e+03,1.905883e+03
2.791458e+03,1.884777e+03
2.792422e+03,1.874181e+03
2.793386e+03,1.880442e+03
2.794350e+03,1.891504e+03
2.795314e+03,1.902756e+03
2.796279e+03,1.894389e+03
2.797243e+03,1.880197e+03
2.798207e+03,1.887352e+03
2.799171e+03,1.900414e+03
2.800135e+03,1.899005e+03
2.801100e+03,1.892956e+03
2.802064e+03,1.884860e+03
2.803028e+03,1.894074e+03
2.803992e+03,1.913314e+03
2.804957e+03,1.898651e+03
2.805921e+03,1.871105e+03
2.806885e+03,1.869659e+03
2.807849e+03,1.875801e+03
2.808814e+03,1.879547e+03
2.809778e+03,1.877922e+03
2.810742e+03,1.869334e+03
2.811706e+03,1.857316e+03
2.812671e+03,1.845358e+03
2.813635e+03,1.849890e+03
2.814599e+03,1.862941e+03
2.815563e+03,1.879510e+03
2.816528e+03,1.882919e+03
2.817492e+03,1.855934e+03
2.818456e+03,1.848355e+03
2.819420e+03,1.860603e+03
2.820385e+03,1.857580e+03
2.821349e+03,1.843132e+03
2.822313e+03,1.834244e+03
2.823277e+03,1.837871e+03
2.824241e+03,1.858560e+03
2.825206e+03,1.869832e+03
2.826170e+03,1.854017e+03
2.827134e+03,1.849219e+03
2.828098e+03,1.855285e+03
2.829063e+03,1.845475e+03
2.830027e+03,1.830461e+03
2.830991e+03,1.841034e+03
2.831955e+03,1.855635e+03
2.832919e+03,1.853735e+03
2.833884e+03,1.846348e+03
2.834848e+03,1.835964e+03
2.835812e+03,1.836204e+03
2.836776e+03,1.845885e+03
2.837741e+03,1.843754e+03
2.838705e+03,1.833457e+03
2.839669e+03,1.817295e+03
2.840633e+03,1.804934e+03
2.841598e+03,1.801400e+03
2.842562e+03,1.805415e+03
2.843526e+03,1.819179e+03
2.844490e+03,1.826012e+03
2.845455e+03,1.824636e+03
2.846419e+03,1.812742e+03
2.847383e+03,1.804332e+03
2.848347e+03,1.821443e+03
2.849312e+03,1.829957e+03
2.850276e+03,1.823961e+03
2.851240e+03,1.825614e+03
2.852204e+03,1.832496e+03
2.853168e+03,1.827749e+03
2.854133e+03,1.818518e+03
2.855097e+03,1.812065e+03
2.856061e+03,1.814896e+03
2.857025e+03,1.824962e+03
2.857990e+03,1.838381e+03
2.858954e+03,1.855232e+03
2.859918e+03,1.834523e+03
2.860882e+03,1.805560e+03
2.861846e+03,1.816205e+03
2.862811e+03,1.836911e+03
2.863775e+03,1.842897e+03
2.864739e+03,1.837356e+03
2.865703e+03,1.819243e+03
2.866668e+03,1.808719e+03
2.867632e+03,1.807292e+03
2.868596e+03,1.825171e+03
2.869560e+03,1.839989e+03
2.870525e+03,1.820860e+03
2.871489e+03,1.803083e+03
2.872453e+03,1.794582e+03
2.873417e+03,1.795412e+03
2.874382e+03,1.801659e+03
2.875346e+03,1.808828e+03
2.876310e+03,1.814206e+03
2.877274e+03,1.807456e+03
2.878239e+03,1.801293e+03
2.879203e+03,1.799022e+03
2.880167e+03,1.802540e+03
2.881131e+03,1.815061e+03
2.882095e+03,1.832630e+03
2.883060e+03,1.839270e+03
2.884024e+03,1.806274e+03
2.884988e+03,1.772114e+03
2.885952e+03,1.770349e+03
2.886917e+03,1.781071e+03
2.887881e+03,1.803235e+03
2.888845e+03,1.821566e+03
2.889809e+03,1.830208e+03
2.890773e+03,1.808768e+03
2.891738e+03,1.782818e+03
2.892702e+03,1.787365e+03
2.893666e+03,1.787940e+03
2.894630e+03,1.778990e+03
2.895595e+03,1.785502e+03
2.896559e+03,1.801954e+03
2.897523e+03,1.801862e+03
2.898487e+03,1.791415e+03
2.899452e+03,1.766279e+03
2.900416e+03,1.758447e+03
2.901380e+03,1.771783e+03
2.902344e+03,1.781552e+03
2.903309e+03,1.783238e+03
2.904273e+03,1.782093e+03
2.905237e+03,1.779149e+03
2.906201e+03,1.774206e+03
2.907166e+03,1.774617e+03
2.908130e+03,1.783620e+03
2.909094e+03,1.782936e+03
2.910058e+03,1.769969e+03
2.911022e+03,1.761607e+03
2.911987e+03,1.755076e+03
2.912951e+03,1.744651e+03
2.913915e+03,1.736674e+03
2.914879e+03,1.734738e+03
2.915844e+03,1.742547e+03
2.916808e+03,1.757383e+03
2.917772e+03,1.751654e+03
2.918736e+03,1.742283e+03
2.919700e+03,1.758059e+03
2.920665e+03,1.771025e+03
2.921629e+03,1.755665e+03
2.922593e+03,1.754205e+03
2.923557e+03,1.763994e+03
2.924522e+03,1.753347e+03
2.925486e+03,1.735164e+03
2.926450e+03,1.746137e+03
2.927414e+03,1.754027e+03
2.928379e+03,1.741707e+03
2.929343e+03,1.732403e+03
2.930307e+03,1.729960e+03
2.931271e+03,1.755809e+03
2.932236e+03,1.785298e+03
2.933200e+03,1.763596e+03
2.934164e+03,1.734622e+03
2.935128e+03,1.712962e+03
2.936093e+03,1.720574e+03
2.937057e+03,1.750360e+03
2.938021e+03,1.747209e+03
2.938985e+03,1.730570e+03
2.939949e+03,1.734473e+03
2.940914e+03,1.731379e+03
2.941878e+03,1.713093e+03
2.942842e+03,1.708008e+03
2.943806e+03,1.717058e+03
2.944771e+03,1.719333e+03
2.945735e+03,1.718829e+03
2.946699e+03,1.720493e+03
2.947663e+03,1.724555e+03
2.948627e+03,1.728437e+03
2.949592e+03,1.725265e+03
2.950556e+03,1.716740e+03
2.951520e+03,1.719316e+03
2.952484e+03,1.721045e+03
2.953449e+03,1.711514e+03
2.954413e+03,1.698536e+03
2.955377e+03,1.686843e+03
2.956341e+03,1.705820e+03
2.957306e+03,1.747707e+03
2.958270e+03,1.753786e+03
2.959234e+03,1.739268e+03
2.960198e+03,1.723238e+03
2.961163e+03,1.708820e+03
2.962127e+03,1.692379e+03
2.963091e+03,1.681518e+03
2.964055e+03,1.676706e+03
2.965020e+03,1.685714e+03
2.965984e+03,1.695227e+03
2.966948e+03,1.692848e+03
2.967912e+03,1.686301e+03
2.968876e+03,1.676825e+03
2.969841e+03,1.681133e+03
2.970805e+03,1.685275e+03
2.971769e+03,1.661370e+03
2.972733e+03,1.640331e+03
2.973698e+03,1.645007e+03
2.974662e+03,1.656074e+03
2.975626e+03,1.669404e+03
2.976590e+03,1.675346e+03
2.977554e+03,1.677657e+03
2.978519e+03,1.680661e+03
2.979483e+03,1.679344e+03
2.980447e+03,1.670938e+03
2.981411e+03,1.665048e+03
2.982376e+03,1.663740e+03
2.983340e+03,1.666367e+03
2.984304e+03,1.661238e+03
2.985268e+03,1.635322e+03
2.986233e+03,1.620192e+03
2.987197e+03,1.636607e+03
2.988161e+03,1.661773e+03
2.989125e+03,1.684590e+03
2.990090e+03,1.670197e+03
2.991054e+03,1.654051e+03
2.992018e+03,1.666031e+03
2.992982e+03,1.670126e+03
2.993947e+03,1.653024e+03
2.994911e+03,1.645641e+03
2.995875e+03,1.649523e+03
2.996839e+03,1.663287e+03
2.997803e+03,1.672859e+03
2.998768e+03,1.672047e+03
2.999732e+03,1.657719e+03
3.000696e+03,1.633773e+03
3.001660e+03,1.635314e+03
3.002625e+03,1.641307e+03
3.003589e+03,1.631659e+03
3.004553e+03,1.621114e+03
3.005517e+03,1.618005e+03
3.006481e+03,1.625157e+03
3.007446e+03,1.633682e+03
3.008410e+03,1.616381e+03
3.009374e+03,1.601417e+03
3.010338e+03,1.607545e+03
3.011303e+03,1.616125e+03
3.012267e+03,1.617724e+03
3.013231e+03,1.630274e+03
3.014195e+03,1.646088e+03
3.015160e+03,1.653637e+03
3.016124e+03,1.655201e+03
3.017088e+03,1.651905e+03
3.018052e+03,1.667000e+03
3.019017e+03,1.694611e+03
3.019981e+03,1.669246e+03
3.020945e+03,1.628115e+03
3.021909e+03,1.597903e+03
3.022874e+03,1.603041e+03
3.023838e+03,1.636992e+03
3.024802e+03,1.634598e+03
3.025766e+03,1.611977e+03
3.026730e+03,1.622199e+03
3.027695e+03,1.627785e+03
3.028659e+03,1.612610e+03
3.029623e+03,1.613828e+03
3.030587e+03,1.629601e+03
3.031552e+03,1.623686e+03
3.032516e+03,1.611736e+03
3.033480e+03,1.624266e+03
3.034444e+03,1.611774e+03
3.035408e+03,1.572690e+03
3.036373e+03,1.575474e+03
3.037337e+03,1.602635e+03
3.038301e+03,1.595305e+03
3.039265e+03,1.586534e+03
3.040230e+03,1.592108e+03
3.041194e+03,1.603661e+03
3.042158e+03,1.616990e+03
3.043122e+03,1.623003e+03
3.044087e+03,1.624993e+03
3.045051e+03,1.624840e+03
3.046015e+03,1.618719e+03
3.046979e+03,1.605829e+03
3.047944e+03,1.598419e+03
3.048908e+03,1.596563e+03
3.049872e+03,1.598052e+03
3.050836e+03,1.598234e+03
3.051801e+03,1.592369e+03
3.052765e+03,1.595305e+03
3.053729e+03,1.603428e+03
3.054693e+03,1.597333e+03
3.055657e+03,1.594975e+03
3.056622e+03,1.606618e+03
3.057586e+03,1.617748e+03
3.058550e+03,1.624753e+03
3.059514e+03,1.617272e+03
3.060479e+03,1.605710e+03
3.061443e+03,1.598903e+03
3.062407e+03,1.608468e+03
3.063371e+03,1.633151e+03
3.064335e+03,1.625528e+03
3.065300e+03,1.593765e+03
3.066264e+03,1.575853e+03
3.067228e+03,1.572377e+03
3.068192e+03,1.586476e+03
3.069157e+03,1.593937e+03
3.070121e+03,1.592532e+03
3.071085e+03,1.586563e+03
3.072049e+03,1.577227e+03
3.073014e+03,1.551115e+03
3.073978e+03,1.565385e+03
3.074942e+03,1.629655e+03
3.075906e+03,1.636689e+03
3.076871e+03,1.610275e+03
3.077835e+03,1.591031e+03
3.078799e+03,1.580641e+03
3.079763e+03,1.582986e+03
3.080728e+03,1.568269e+03
3.081692e+03,1.546069e+03
3.082656e+03,1.552486e+03
3.083620e+03,1.557427e+03
3.084584e+03,1.543039e+03
3.085549e+03,1.572581e+03
3.086513e+03,1.654021e+03
3.087477e+03,1.650022e+03
3.088441e+03,1.609554e+03
3.089406e+03,1.579993e+03
3.090370e+03,1.574474e+03
3.091334e+03,1.588348e+03
3.092298e+03,1.590041e+03
3.093262e+03,1.579159e+03
3.094227e+03,1.542997e+03
3.095191e+03,1.524234e+03
3.096155e+03,1.540153e+03
3.097119e+03,1.551363e+03
3.098084e+03,1.555081e+03
3.099048e+03,1.546884e+03
3.100012e+03,1.545391e+03
3.100976e+03,1.569124e+03
3.101941e+03,1.581174e+03
3.102905e+03,1.576219e+03
3.103869e+03,1.544931e+03
3.104833e+03,1.534295e+03
3.105798e+03,1.573778e+03
3.106762e+03,1.572478e+03
3.107726e+03,1.520775e+03
3.108690e+03,1.546007e+03
3.109655e+03,1.596191e+03
3.110619e+03,1.621379e+03
3.111583e+03,1.599340e+03
3.112547e+03,1.544010e+03
3.113511e+03,1.541769e+03
3.114476e+03,1.567682e+03
3.115440e+03,1.562700e+03
3.116404e+03,1.564345e+03
3.117368e+03,1.592006e+03
3.118333e+03,1.602041e+03
3.119297e+03,1.593551e+03
3.120261e+03,1.565645e+03
3.121225e+03,1.549820e+03
3.122189e+03,1.562211e+03
3.123154e+03,1.572278e+03
3.124118e+03,1.574885e+03
3.125082e+03,1.573832e+03
3.126046e+03,1.572494e+03
3.127011e+03,1.571664e+03
3.127975e+03,1.562262e+03
3.128939e+03,1.547763e+03
3.129903e+03,1.548930e+03
3.130868e+03,1.554185e+03
3.131832e+03,1.551001e+03
3.132796e+03,1.559383e+03
3.133760e+03,1.572916e+03
3.134725e+03,1.552194e+03
3.135689e+03,1.531325e+03
3.136653e+03,1.541544e+03
3.137617e+03,1.571259e+03
3.138582e+03,1.618080e+03
3.139546e+03,1.610237e+03
3.140510e+03,1.583430e+03
3.141474e+03,1.581175e+03
3.142438e+03,1.581688e+03
3.143403e+03,1.577719e+03
3.144367e+03,1.547024e+03
3.145331e+03,1.513370e+03
3.146295e+03,1.522157e+03
3.147260e+03,1.529438e+03
3.148224e+03,1.523305e+03
3.149188e+03,1.551879e+03
3.150152e+03,1.579831e+03
3.151116e+03,1.559109e+03
3.152081e+03,1.533748e+03
3.153045e+03,1.519820e+03
3.154009e+03,1.531859e+03
3.154973e+03,1.558645e+03
3.155938e+03,1.580975e+03
3.156902e+03,1.581039e+03
3.157866e+03,1.555367e+03
3.158830e+03,1.523361e+03
3.159795e+03,1.501536e+03
3.160759e+03,1.522835e+03
3.161723e+03,1.546217e+03
3.162687e+03,1.555089e+03
3.163652e+03,1.555119e+03
3.164616e+03,1.550138e+03
3.165580e+03,1.544698e+03
3.166544e+03,1.535565e+03
3.167509e+03,1.523227e+03
3.168473e+03,1.516458e+03
3.169437e+03,1.512211e+03
3.170401e+03,1.490713e+03
3.171365e+03,1.479952e+03
3.172330e+03,1.493902e+03
3.173294e+03,1.532464e+03
3.174258e+03,1.571666e+03
3.175222e+03,1.569477e+03
3.176187e+03,1.541306e+03
3.177151e+03,1.493422e+03
3.178115e+03,1.487302e+03
3.179079e+03,1.515182e+03
3.180043e+03,1.540482e+03
3.181008e+03,1.556447e+03
3.181972e+03,1.564058e+03
3.182936e+03,1.540058e+03
3.183900e+03,1.504737e+03
3.184865e+03,1.529287e+03
3.185829e+03,1.558002e+03
3.186793e+03,1.565121e+03
3.187757e+03,1.568625e+03
3.188722e+03,1.566119e+03
3.189686e+03,1.551030e+03
3.190650e+03,1.548354e+03
3.191614e+03,1.564085e+03
3.192579e+03,1.560537e+03
3.193543e+03,1.548444e+03
3.194507e+03,1.587749e+03
3.195471e+03,1.606285e+03
3.196436e+03,1.568822e+03
3.197400e+03,1.557409e+03
3.198364e+03,1.565021e+03
3.199328e+03,1.574465e+03
3.200292e+03,1.572306e+03
3.201257e+03,0.000000e+00
3.202221e+03,0.000000e+00
3.203185e+03,0.000000e+00
3.204149e+03,0.000000e+00
3.205114e+03,0.000000e+00
3.206078e+03,0.000000e+00
3.207042e+03,0.000000e+00
3.208006e+03,0.000000e+00
3.208970e+03,0.000000e+00
3.209935e+03,0.000000e+00
3.210899e+03,0.000000e+00
3.211863e+03,0.000000e+00
3.212827e+03,0.000000e+00
3.213792e+03,0.000000e+00
3.214756e+03,0.000000e+00
3.215720e+03,0.000000e+00
3.216684e+03,0.000000e+00
3.217649e+03,0.000000e+00
3.218613e+03,0.000000e+00
3.219577e+03,0.000000e+00
3.220541e+03,0.000000e+00
3.221506e+03,0.000000e+00
3.222470e+03,0.000000e+00
3.223434e+03,0.000000e+00
3.224398e+03,0.000000e+00
3.225363e+03,0.000000e+00
3.226327e+03,0.000000e+00
3.227291e+03,0.000000e+00
3.228255e+03,0.000000e+00
3.229219e+03,0.000000e+00
3.230184e+03,0.000000e+00
3.231148e+03,0.000000e+00
3.232112e+03,0.000000e+00
3.233076e+03,0.000000e+00
3.234041e+03,0.000000e+00
3.235005e+03,0.000000e+00
3.235969e+03,0.000000e+00
3.236933e+03,0.000000e+00
3.237897e+03,0.000000e+00
3.238862e+03,0.000000e+00
3.239826e+03,0.000000e+00
3.240790e+03,0.000000e+00
3.241754e+03,0.000000e+00
3.242719e+03,0.000000e+00
3.243683e+03,0.000000e+00
3.244647e+03,0.000000e+00
3.245611e+03,0.000000e+00
3.246576e+03,0.000000e+00
3.247540e+03,0.000000e+00
3.248504e+03,0.000000e+00
3.249468e+03,0.000000e+00
3.250433e+03,0.000000e+00
3.251397e+03,0.000000e+00
3.252361e+03,0.000000e+00
3.253325e+03,0.000000e+00
3.254290e+03,0.000000e+00
3.255254e+03,0.000000e+00
3.256218e+03,0.000000e+00
3.257182e+03,0.000000e+00
3.258146e+03,0.000000e+00
3.259111e+03,0.000000e+00
3.260075e+03,0.000000e+00
3.261039e+03,0.000000e+00
3.262003e+03,0.000000e+00
3.262968e+03,0.000000e+00
3.263932e+03,0.000000e+00
3.264896e+03,0.000000e+00
3.265860e+03,0.000000e+00
3.266824e+03,0.000000e+00
3.267789e+03,0.000000e+00
3.268753e+03,0.000000e+00
3.269717e+03,0.000000e+00
3.270681e+03,0.000000e+00
3.271646e+03,0.000000e+00
3.272610e+03,0.000000e+00
3.273574e+03,0.000000e+00
3.274538e+03,0.000000e+00
3.275503e+03,0.000000e+00
3.276467e+03,0.000000e+00
3.277431e+03,0.000000e+00
3.278395e+03,0.000000e+00
3.279360e+03,0.000000e+00
3.280324e+03,0.000000e+00
3.281288e+03,0.000000e+00
3.282252e+03,0.000000e+00
3.283217e+03,0.000000e+00
3.284181e+03,0.000000e+00
3.285145e+03,0.000000e+00
3.286109e+03,0.000000e+00
3.287073e+03,0.000000e+00
3.288038e+03,0.000000e+00
3.289002e+03,0.000000e+00
3.289966e+03,0.000000e+00
3.290930e+03,0.000000e+00
3.291895e+03,0.000000e+00
3.292859e+03,0.000000e+00
3.293823e+03,0.000000e+00
3.294787e+03,0.000000e+00
3.295751e+03,0.000000e+00
3.296716e+03,0.000000e+00
3.297680e+03,0.000000e+00
3.298644e+03,0.000000e+00
3.299608e+03,0.000000e+00
3.300573e+03,0.000000e+00
3.301537e+03,0.000000e+00
3.302501e+03,0.000000e+00
3.303465e+03,0.000000e+00
3.304430e+03,0.000000e+00
3.305394e+03,0.000000e+00
3.306358e+03,0.000000e+00
3.307322e+03,0.000000e+00
3.308287e+03,0.000000e+00
3.309251e+03,0.000000e+00
3.310215e+03,0.000000e+00
3.311179e+03,0.000000e+00
3.312144e+03,0.000000e+00
3.313108e+03,0.000000e+00
3.314072e+03,0.000000e+00
3.315036e+03,0.000000e+00
3.316000e+03,0.000000e+00
3.316965e+03,0.000000e+00
3.317929e+03,0.000000e+00
3.318893e+03,0.000000e+00
3.319857e+03,0.000000e+00
3.320822e+03,0.000000e+00
3.321786e+03,0.000000e+00
3.322750e+03,0.000000e+00
3.323714e+03,0.000000e+00
3.324678e+03,0.000000e+00
3.325643e+03,0.000000e+00
3.326607e+03,0.000000e+00
3.327571e+03,0.000000e+00
3.328535e+03,0.000000e+00
3.329500e+03,0.000000e+00
3.330464e+03,0.000000e+00
3.331428e+03,0.000000e+00
3.332392e+03,0.000000e+00
3.333357e+03,0.000000e+00
3.334321e+03,0.000000e+00
3.335285e+03,0.000000e+00
3.336249e+03,0.000000e+00
3.337214e+03,0.000000e+00
3.338178e+03,0.000000e+00
3.339142e+03,0.000000e+00
3.340106e+03,0.000000e+00
3.341071e+03,0.000000e+00
3.342035e+03,0.000000e+00
3.342999e+03,0.000000e+00
3.343963e+03,0.000000e+00
3.344927e+03,0.000000e+00
3.345892e+03,0.000000e+00
3.346856e+03,0.000000e+00
3.347820e+03,0.000000e+00
3.348784e+03,0.000000e+00
3.349749e+03,0.000000e+00
3.350713e+03,0.000000e+00
3.351677e+03,0.000000e+00
3.352641e+03,0.000000e+00
3.353605e+03,0.000000e+00
3.354570e+03,0.000000e+00
3.355534e+03,0.000000e+00
3.356498e+03,0.000000e+00
3.357462e+03,0.000000e+00
3.358427e+03,0.000000e+00
3.359391e+03,0.000000e+00
3.360355e+03,0.000000e+00
3.361319e+03,0.000000e+00
3.362284e+03,0.000000e+00
3.363248e+03,0.000000e+00
3.364212e+03,0.000000e+00
3.365176e+03,0.000000e+00
3.366141e+03,0.000000e+00
3.367105e+03,0.000000e+00
3.368069e+03,0.000000e+00
3.369033e+03,0.000000e+00
3.369998e+03,0.000000e+00
3.370962e+03,0.000000e+00
3.371926e+03,0.000000e+00
3.372890e+03,0.000000e+00
3.373854e+03,0.000000e+00
3.374819e+03,0.000000e+00
3.375783e+03,0.000000e+00
3.376747e+03,0.000000e+00
3.377711e+03,0.000000e+00
3.378676e+03,0.000000e+00
3.379640e+03,0.000000e+00
3.380604e+03,0.000000e+00
3.381568e+03,0.000000e+00
3.382532e+03,0.000000e+00
3.383497e+03,0.000000e+00
3.384461e+03,0.000000e+00
3.385425e+03,0.000000e+00
3.386389e+03,0.000000e+00
3.387354e+03,0.000000e+00
3.388318e+03,0.000000e+00
3.389282e+03,0.000000e+00
3.390246e+03,0.000000e+00
3.391211e+03,0.000000e+00
3.392175e+03,0.000000e+00
3.393139e+03,0.000000e+00
3.394103e+03,0.000000e+00
3.395068e+03,0.000000e+00
3.396032e+03,0.000000e+00
3.396996e+03,0.000000e+00
3.397960e+03,0.000000e+00
3.398925e+03,0.000000e+00
3.399889e+03,0.000000e+00
3.400853e+03,0.000000e+00
3.401817e+03,0.000000e+00
3.402781e+03,0.000000e+00
3.403746e+03,0.000000e+00
3.404710e+03,0.000000e+00
3.405674e+03,0.000000e+00
3.406638e+03,0.000000e+00
3.407603e+03,0.000000e+00
3.408567e+03,0.000000e+00
3.409531e+03,0.000000e+00
3.410495e+03,0.000000e+00
3.411459e+03,0.000000e+00
3.412424e+03,0.000000e+00
3.413388e+03,0.000000e+00
3.414352e+03,0.000000e+00
3.415316e+03,0.000000e+00
3.416281e+03,0.000000e+00
3.417245e+03,0.000000e+00
3.418209e+03,0.000000e+00
3.419173e+03,0.000000e+00
3.420138e+03,0.000000e+00
3.421102e+03,0.000000e+00
3.422066e+03,0.000000e+00
3.423030e+03,0.000000e+00
3.423995e+03,0.000000e+00
3.424959e+03,0.000000e+00
3.425923e+03,0.000000e+00
3.426887e+03,0.000000e+00
3.427852e+03,0.000000e+00
3.428816e+03,0.000000e+00
3.429780e+03,0.000000e+00
3.430744e+03,0.000000e+00
3.431708e+03,0.000000e+00
3.432673e+03,0.000000e+00
3.433637e+03,0.000000e+00
3.434601e+03,0.000000e+00
3.435565e+03,0.000000e+00
3.436530e+03,0.000000e+00
3.437494e+03,0.000000e+00
3.438458e+03,0.000000e+00
3.439422e+03,0.000000e+00
3.440386e+03,0.000000e+00
3.441351e+03,0.000000e+00
3.442315e+03,0.000000e+00
3.443279e+03,0.000000e+00
3.444243e+03,0.000000e+00
3.445208e+03,0.000000e+00
3.446172e+03,0.000000e+00
3.447136e+03,0.000000e+00
3.448100e+03,0.000000e+00
3.449065e+03,0.000000e+00
3.450029e+03,0.000000e+00
3.450993e+03,0.000000e+00
3.451957e+03,0.000000e+00
3.452922e+03,0.000000e+00
3.453886e+03,0.000000e+00
3.454850e+03,0.000000e+00
3.455814e+03,0.000000e+00
3.456779e+03,0.000000e+00
3.457743e+03,0.000000e+00
3.458707e+03,0.000000e+00
3.459671e+03,0.000000e+00
3.460635e+03,0.000000e+00
3.461600e+03,0.000000e+00
3.462564e+03,0.000000e+00
3.463528e+03,0.000000e+00
3.464492e+03,0.000000e+00
3.465457e+03,0.000000e+00
3.466421e+03,0.000000e+00
3.467385e+03,0.000000e+00
3.468349e+03,0.000000e+00
3.469313e+03,0.000000e+00
3.470278e+03,0.000000e+00
3.471242e+03,0.000000e+00
3.472206e+03,0.000000e+00
3.473170e+03,0.000000e+00
3.474135e+03,0.000000e+00
3.475099e+03,0.000000e+00
3.476063e+03,0.000000e+00
3.477027e+03,0.000000e+00
3.477992e+03,0.000000e+00
3.478956e+03,0.000000e+00
3.479920e+03,0.000000e+00
3.480884e+03,0.000000e+00
3.481849e+03,0.000000e+00
3.482813e+03,0.000000e+00
3.483777e+03,0.000000e+00
3.484741e+03,0.000000e+00
3.485706e+03,0.000000e+00
3.486670e+03,0.000000e+00
3.487634e+03,0.000000e+00
3.488598e+03,0.000000e+00
3.489563e+03,0.000000e+00
3.490527e+03,0.000000e+00
3.491491e+03,0.000000e+00
3.492455e+03,0.000000e+00
3.493419e+03,0.000000e+00
3.494384e+03,0.000000e+00
3.495348e+03,0.000000e+00
3.496312e+03,0.000000e+00
3.497276e+03,0.000000e+00
3.498240e+03,0.000000e+00
3.499205e+03,0.000000e+00
3.500169e+03,0.000000e+00
