9.931763e+01,0.000000e+00
1.002819e+02,0.000000e+00
1.012461e+02,0.000000e+00
1.022103e+02,0.000000e+00
1.031746e+02,0.000000e+00
1.041388e+02,0.000000e+00
1.051030e+02,0.000000e+00
1.060673e+02,0.000000e+00
1.070315e+02,0.000000e+00
1.079957e+02,0.000000e+00
1.089600e+02,0.000000e+00
1.099242e+02,0.000000e+00
1.108884e+02,0.000000e+00
1.118527e+02,0.000000e+00
1.128169e+02,0.000000e+00
1.137811e+02,0.000000e+00
1.147454e+02,0.000000e+00
1.157096e+02,0.000000e+00
1.166738e+02,0.000000e+00
1.176381e+02,0.000000e+00
1.186023e+02,0.000000e+00
1.195665e+02,0.000000e+00
1.205308e+02,0.000000e+00
1.214950e+02,0.000000e+00
1.224592e+02,0.000000e+00
1.234235e+02,0.000000e+00
1.243877e+02,0.000000e+00
1.253519e+02,0.000000e+00
1.263162e+02,0.000000e+00
1.272804e+02,0.000000e+00
1.282446e+02,0.000000e+00
1.292089e+02,0.000000e+00
1.301731e+02,0.000000e+00
1.311373e+02,0.000000e+00
1.321016e+02,0.000000e+00
1.330658e+02,0.000000e+00
1.340300e+02,0.000000e+00
1.349943e+02,0.000000e+00
1.359585e+02,0.000000e+00
1.369227e+02,0.000000e+00
1.378870e+02,0.000000e+00
1.388512e+02,0.000000e+00
1.398154e+02,0.000000e+00
1.407797e+02,0.000000e+00
1.417439e+02,0.000000e+00
1.427081e+02,0.000000e+00
1.436724e+02,0.000000e+00
1.446366e+02,0.000000e+00
1.456008e+02,0.000000e+00
1.465651e+02,0.000000e+00
1.475293e+02,0.000000e+00
1.484935e+02,0.000000e+00
1.494578e+02,0.000000e+00
1.504220e+02,0.000000e+00
1.513862e+02,0.000000e+00
1.523505e+02,0.000000e+00
1.533147e+02,0.000000e+00
1.542789e+02,0.000000e+00
1.552432e+02,0.000000e+00
1.562074e+02,0.000000e+00
1.571716e+02,0.000000e+00
1.581359e+02,0.000000e+00
1.591001e+02,0.000000e+00
1.600643e+02,0.000000e+00
1.610286e+02,0.000000e+00
1.619928e+02,0.000000e+00
1.629570e+02,0.000000e+00
1.639213e+02,0.000000e+00
1.648855e+02,0.000000e+00
1.658497e+02,0.000000e+00
1.668140e+02,0.000000e+00
1.677782e+02,0.000000e+00
1.687424e+02,0.000000e+00
1.697067e+02,0.000000e+00
1.706709e+02,0.000000e+00
1.716351e+02,0.000000e+00
1.725994e+02,0.000000e+00
1.735636e+02,0.000000e+00
1.745278e+02,0.000000e+00
1.754921e+02,0.000000e+00
1.764563e+02,0.000000e+00
1.774205e+02,0.000000e+00
1.783848e+02,0.000000e+00
1.793490e+02,0.000000e+00
1.803132e+02,0.000000e+00
1.812775e+02,0.000000e+00
1.822417e+02,0.000000e+00
1.832059e+02,0.000000e+00
1.841702e+02,0.000000e+00
1.851344e+02,0.000000e+00
1.860986e+02,0.000000e+00
1.870629e+02,0.000000e+00
1.880271e+02,0.000000e+00
1.889913e+02,0.000000e+00
1.899556e+02,0.000000e+00
1.909198e+02,0.000000e+00
1.918840e+02,0.000000e+00
1.928483e+02,0.000000e+00
1.938125e+02,0.000000e+00
1.947767e+02,0.000000e+00
1.957410e+02,0.000000e+00
1.967052e+02,0.000000e+00
1.976694e+02,0.000000e+00
1.986337e+02,0.000000e+00
1.995979e+02,3.465583e+03
2.005621e+02,3.466934e+03
2.015264e+02,3.469174e+03
2.024906e+02,3.472229e+03
2.034548e+02,3.476263e+03
2.044191e+02,3.481531e+03
2.053833e+02,3.486961e+03
2.063475e+02,3.490891e+03
2.073118e+02,3.491430e+03
2.082760e+02,3.487168e+03
2.092402e+02,3.483866e+03
2.102045e+02,3.484085e+03
2.111687e+02,3.486564e+03
2.121329e+02,3.490431e+03
2.130972e+02,3.495215e+03
2.140614e+02,3.499085e+03
2.150256e+02,3.498337e+03
2.159899e+02,3.489728e+03
2.169541e+02,3.481917e+03
2.179183e+02,3.477861e+03
2.188826e+02,3.477207e+03
2.198468e+02,3.479724e+03
2.208110e+02,3.488163e+03
2.217753e+02,3.501737e+03
2.227395e+02,3.508053e+03
2.237037e+02,3.500339e+03
2.246680e+02,3.489249e+03
2.256322e+02,3.483938e+03
2.265964e+02,3.488671e+03
2.275607e+02,3.498613e+03
2.285249e+02,3.509614e+03
2.294892e+02,3.522370e+03
2.304534e+02,3.533207e+03
2.314176e+02,3.536051e+03
2.323819e+02,3.532021e+03
2.333461e+02,3.527907e+03
2.343103e+02,3.526426e+03
2.352746e+02,3.526954e+03
2.362388e+02,3.527641e+03
2.372030e+02,3.527426e+03
2.381673e+02,3.525198e+03
2.391315e+02,3.521271e+03
2.400957e+02,3.516550e+03
2.410600e+02,3.512480e+03
2.420242e+02,3.509768e+03
2.429884e+02,3.509370e+03
2.439527e+02,3.512351e+03
2.449169e+02,3.518892e+03
2.458811e+02,3.528932e+03
2.468454e+02,3.536363e+03
2.478096e+02,3.540156e+03
2.487738e+02,3.542354e+03
2.497381e+02,3.544367e+03
2.507023e+02,3.546503e+03
2.516665e+02,3.548168e+03
2.526308e+02,3.547988e+03
2.535950e+02,3.539157e+03
2.545592e+02,3.533880e+03
2.555235e+02,3.536241e+03
2.564877e+02,3.542363e+03
2.574519e+02,3.547962e+03
2.584161e+02,3.551104e+03
2.593804e+02,3.552524e+03
2.603446e+02,3.554345e+03
2.613088e+02,3.552825e+03
2.622731e+02,3.553066e+03
2.632373e+02,3.558832e+03
2.642015e+02,3.568170e+03
2.651658e+02,3.574837e+03
2.661300e+02,3.571593e+03
2.670942e+02,3.556937e+03
2.680585e+02,3.547528e+03
2.690227e+02,3.551345e+03
2.699869e+02,3.558797e+03
2.709512e+02,3.562954e+03
2.719154e+02,3.562070e+03
2.728796e+02,3.559328e+03
2.738439e+02,3.558949e+03
2.748081e+02,3.562222e+03
2.757723e+02,3.567479e+03
2.767366e+02,3.570968e+03
2.777008e+02,3.571676e+03
2.786650e+02,3.571505e+03
2.796293e+02,3.570927e+03
2.805935e+02,3.571395e+03
2.815577e+02,3.575410e+03
2.825220e+02,3.584259e+03
2.834862e+02,3.593665e+03
2.844504e+02,3.596155e+03
2.854147e+02,3.589437e+03
2.863789e+02,3.582469e+03
2.873431e+02,3.577404e+03
2.883074e+02,3.575063e+03
2.892716e+02,3.576500e+03
2.902358e+02,3.582478e+03
2.912001e+02,3.592581e+03
2.921643e+02,3.596380e+03
2.931285e+02,3.588722e+03
2.940928e+02,3.581709e+03
2.950570e+02,3.580703e+03
2.960212e+02,3.584964e+03
2.969855e+02,3.590216e+03
2.979497e+02,3.592207e+03
2.989139e+02,3.590080e+03
2.998782e+02,3.588841e+03
3.008424e+02,3.590081e+03
3.018066e+02,3.593579e+03
3.027709e+02,3.598580e+03
3.037351e+02,3.604747e+03
3.046993e+02,3.610165e+03
3.056636e+02,3.611642e+03
3.066278e+02,3.608171e+03
3.075920e+02,3.604852e+03
3.085563e+02,3.603759e+03
3.095205e+02,3.605119e+03
3.104847e+02,3.608004e+03
3.114490e+02,3.612171e+03
3.124132e+02,3.616138e+03
3.133774e+02,3.618007e+03
3.143417e+02,3.617414e+03
3.153059e+02,3.613647e+03
3.162701e+02,3.605882e+03
3.172344e+02,3.592009e+03
3.181986e+02,3.582967e+03
3.191628e+02,3.586125e+03
3.201271e+02,3.596593e+03
3.210913e+02,3.604293e+03
3.220555e+02,3.603758e+03
3.230198e+02,3.596579e+03
3.239840e+02,3.595311e+03
3.249482e+02,3.606241e+03
3.259125e+02,3.615991e+03
3.268767e+02,3.619929e+03
3.278409e+02,3.619160e+03
3.288052e+02,3.617421e+03
3.297694e+02,3.618497e+03
3.307336e+02,3.623566e+03
3.316979e+02,3.624477e+03
3.326621e+02,3.616324e+03
3.336263e+02,3.606441e+03
3.345906e+02,3.597961e+03
3.355548e+02,3.592522e+03
3.365190e+02,3.591453e+03
3.374833e+02,3.598075e+03
3.384475e+02,3.613355e+03
3.394117e+02,3.624514e+03
3.403760e+02,3.622471e+03
3.413402e+02,3.612927e+03
3.423044e+02,3.606769e+03
3.432687e+02,3.607758e+03
3.442329e+02,3.611118e+03
3.451971e+02,3.611779e+03
3.461614e+02,3.608673e+03
3.471256e+02,3.603947e+03
3.480898e+02,3.600602e+03
3.490541e+02,3.600210e+03
3.500183e+02,3.600669e+03
3.509825e+02,3.605987e+03
3.519468e+02,3.611668e+03
3.529110e+02,3.612483e+03
3.538752e+02,3.606470e+03
3.548395e+02,3.596739e+03
3.558037e+02,3.589311e+03
3.567680e+02,3.582666e+03
3.577322e+02,3.581825e+03
3.586964e+02,3.593500e+03
3.596607e+02,3.610126e+03
3.606249e+02,3.622004e+03
3.615891e+02,3.621535e+03
3.625534e+02,3.612427e+03
3.635176e+02,3.606409e+03
3.644818e+02,3.606295e+03
3.654461e+02,3.606698e+03
3.664103e+02,3.605190e+03
3.673745e+02,3.603809e+03
3.683388e+02,3.604857e+03
3.693030e+02,3.607647e+03
3.702672e+02,3.611164e+03
3.712315e+02,3.615241e+03
3.721957e+02,3.619779e+03
3.731599e+02,3.623200e+03
3.741242e+02,3.624240e+03
3.750884e+02,3.620789e+03
3.760526e+02,3.621686e+03
3.770169e+02,3.632947e+03
3.779811e+02,3.646539e+03
3.789453e+02,3.651530e+03
3.799096e+02,3.641397e+03
3.808738e+02,3.620763e+03
3.818380e+02,3.608350e+03
3.828023e+02,3.611260e+03
3.837665e+02,3.616849e+03
3.847307e+02,3.622680e+03
3.856950e+02,3.627739e+03
3.866592e+02,3.629782e+03
3.876234e+02,3.624055e+03
3.885877e+02,3.613780e+03
3.895519e+02,3.609292e+03
3.905161e+02,3.612611e+03
3.914804e+02,3.618099e+03
3.924446e+02,3.620739e+03
3.934088e+02,3.621884e+03
3.943731e+02,3.620169e+03
3.953373e+02,3.611769e+03
3.963015e+02,3.600766e+03
3.972658e+02,3.593413e+03
3.982300e+02,3.592590e+03
3.991942e+02,3.597121e+03
4.001585e+02,3.600770e+03
4.011227e+02,3.599510e+03
4.020869e+02,3.599276e+03
4.030512e+02,3.601193e+03
4.040154e+02,3.603097e+03
4.049796e+02,3.602694e+03
4.059439e+02,3.596844e+03
4.069081e+02,3.587745e+03
4.078723e+02,3.584160e+03
4.088366e+02,3.586938e+03
4.098008e+02,3.591200e+03
4.107650e+02,3.597719e+03
4.117293e+02,3.606617e+03
4.126935e+02,3.611389e+03
4.136577e+02,3.605416e+03
4.146220e+02,3.595059e+03
4.155862e+02,3.590572e+03
4.165504e+02,3.594687e+03
4.175147e+02,3.602447e+03
4.184789e+02,3.605811e+03
4.194431e+02,3.598749e+03
4.204074e+02,3.594058e+03
4.213716e+02,3.593828e+03
4.223358e+02,3.595232e+03
4.233001e+02,3.595192e+03
4.242643e+02,3.592381e+03
4.252285e+02,3.588449e+03
4.261928e+02,3.586767e+03
4.271570e+02,3.588216e+03
4.281212e+02,3.590856e+03
4.290855e+02,3.594133e+03
4.300497e+02,3.597262e+03
4.310139e+02,3.599062e+03
4.319782e+02,3.599016e+03
4.329424e+02,3.598432e+03
4.339066e+02,3.598713e+03
4.348709e+02,3.599541e+03
4.358351e+02,3.598751e+03
4.367993e+02,3.593861e+03
4.377636e+02,3.581574e+03
4.387278e+02,3.574755e+03
4.396920e+02,3.577910e+03
4.406563e+02,3.584193e+03
4.416205e+02,3.589061e+03
4.425847e+02,3.591094e+03
4.435490e+02,3.590737e+03
4.445132e+02,3.587831e+03
4.454774e+02,3.581788e+03
4.464417e+02,3.578867e+03
4.474059e+02,3.582094e+03
4.483701e+02,3.587571e+03
4.493344e+02,3.591145e+03
4.502986e+02,3.592397e+03
4.512628e+02,3.592874e+03
4.522271e+02,3.593667e+03
4.531913e+02,3.594553e+03
4.541555e+02,3.594559e+03
4.551198e+02,3.593010e+03
4.560840e+02,3.590084e+03
4.570482e+02,3.584719e+03
4.580125e+02,3.575523e+03
4.589767e+02,3.568375e+03
4.599409e+02,3.564146e+03
4.609052e+02,3.561825e+03
4.618694e+02,3.560322e+03
4.628336e+02,3.560339e+03
4.637979e+02,3.561764e+03
4.647621e+02,3.560803e+03
4.657263e+02,3.556428e+03
4.666906e+02,3.553040e+03
4.676548e+02,3.554121e+03
4.686190e+02,3.560604e+03
4.695833e+02,3.565479e+03
4.705475e+02,3.565245e+03
4.715117e+02,3.561894e+03
4.724760e+02,3.558542e+03
4.734402e+02,3.556444e+03
4.744044e+02,3.555315e+03
4.753687e+02,3.554071e+03
4.763329e+02,3.552259e+03
4.772971e+02,3.551259e+03
4.782614e+02,3.552841e+03
4.792256e+02,3.555110e+03
4.801898e+02,3.555169e+03
4.811541e+02,3.549304e+03
4.821183e+02,3.541758e+03
4.830826e+02,3.539339e+03
4.840468e+02,3.542059e+03
4.850110e+02,3.544469e+03
4.859753e+02,3.543284e+03
4.869395e+02,3.537978e+03
4.879037e+02,3.535753e+03
4.888680e+02,3.540685e+03
4.898322e+02,3.545956e+03
4.907964e+02,3.548434e+03
4.917607e+02,3.548076e+03
4.927249e+02,3.546002e+03
4.936891e+02,3.541975e+03
4.946534e+02,3.535600e+03
4.956176e+02,3.532231e+03
4.965818e+02,3.533836e+03
4.975461e+02,3.537358e+03
4.985103e+02,3.540267e+03
4.994745e+02,3.542309e+03
5.004388e+02,3.541278e+03
5.014030e+02,3.533273e+03
5.023672e+02,3.523285e+03
5.033315e+02,3.520381e+03
5.042957e+02,3.527754e+03
5.052599e+02,3.539457e+03
5.062242e+02,3.543232e+03
5.071884e+02,3.533111e+03
5.081526e+02,3.525413e+03
5.091169e+02,3.524141e+03
5.100811e+02,3.526367e+03
5.110453e+02,3.527956e+03
5.120095e+02,3.527195e+03
5.129738e+02,3.526247e+03
5.139380e+02,3.528691e+03
5.149022e+02,3.534561e+03
5.158665e+02,3.538419e+03
5.168307e+02,3.535088e+03
5.177949e+02,3.523159e+03
5.187592e+02,3.515336e+03
5.197234e+02,3.521041e+03
5.206876e+02,3.526762e+03
5.216519e+02,3.526992e+03
5.226161e+02,3.522584e+03
5.235803e+02,3.516695e+03
5.245446e+02,3.510510e+03
5.255088e+02,3.504310e+03
5.264730e+02,3.500392e+03
5.274373e+02,3.499212e+03
5.284015e+02,3.499516e+03
5.293657e+02,3.500124e+03
5.303300e+02,3.501371e+03
5.312942e+02,3.501361e+03
5.322584e+02,3.501773e+03
5.332227e+02,3.502154e+03
5.341869e+02,3.500032e+03
5.351511e+02,3.494518e+03
5.361154e+02,3.488659e+03
5.370796e+02,3.488526e+03
5.380438e+02,3.497283e+03
5.390081e+02,3.500789e+03
5.399723e+02,3.491753e+03
5.409365e+02,3.480547e+03
5.419008e+02,3.476279e+03
5.428650e+02,3.481915e+03
5.438292e+02,3.487921e+03
5.447935e+02,3.490203e+03
5.457577e+02,3.489361e+03
5.467219e+02,3.485957e+03
5.476862e+02,3.479811e+03
5.486504e+02,3.472550e+03
5.496146e+02,3.469815e+03
5.505789e+02,3.476494e+03
5.515431e+02,3.479701e+03
5.525073e+02,3.476641e+03
5.534716e+02,3.471043e+03
5.544358e+02,3.466443e+03
5.554000e+02,3.460213e+03
5.563643e+02,3.456015e+03
5.573285e+02,3.459368e+03
5.582927e+02,3.468947e+03
5.592570e+02,3.478239e+03
5.602212e+02,3.483933e+03
5.611854e+02,3.485747e+03
5.621497e+02,3.486085e+03
5.631139e+02,3.482094e+03
5.640781e+02,3.477477e+03
5.650424e+02,3.474970e+03
5.660066e+02,3.474229e+03
5.669708e+02,3.472839e+03
5.679351e+02,3.470548e+03
5.688993e+02,3.467164e+03
5.698635e+02,3.460581e+03
5.708278e+02,3.450597e+03
5.717920e+02,3.443039e+03
5.727562e+02,3.442902e+03
5.737205e+02,3.452480e+03
5.746847e+02,3.458792e+03
5.756489e+02,3.461595e+03
5.766132e+02,3.460900e+03
5.775774e+02,3.455376e+03
5.785416e+02,3.445431e+03
5.795059e+02,3.436508e+03
5.804701e+02,3.433718e+03
5.814343e+02,3.435442e+03
5.823986e+02,3.437038e+03
5.833628e+02,3.438223e+03
5.843270e+02,3.438312e+03
5.852913e+02,3.435868e+03
5.862555e+02,3.426091e+03
5.872197e+02,3.421224e+03
5.881840e+02,3.425092e+03
5.891482e+02,3.430779e+03
5.901124e+02,3.431780e+03
5.910767e+02,3.425466e+03
5.920409e+02,3.419573e+03
5.930051e+02,3.424632e+03
5.939694e+02,3.437859e+03
5.949336e+02,3.443968e+03
5.958978e+02,3.436684e+03
5.968621e+02,3.422220e+03
5.978263e+02,3.415179e+03
5.987905e+02,3.424630e+03
5.997548e+02,3.432156e+03
6.007190e+02,3.438113e+03
6.016832e+02,3.441501e+03
6.026475e+02,3.439634e+03
6.036117e+02,3.427674e+03
6.045759e+02,3.414543e+03
6.055402e+02,3.412675e+03
6.065044e+02,3.420284e+03
6.074686e+02,3.425743e+03
6.084329e+02,3.424374e+03
6.093971e+02,3.417870e+03
6.103613e+02,3.412935e+03
6.113256e+02,3.412181e+03
6.122899e+02,3.410591e+03
6.132541e+02,3.406002e+03
6.142183e+02,3.400030e+03
6.151826e+02,3.395705e+03
6.161468e+02,3.396379e+03
6.171110e+02,3.399541e+03
6.180753e+02,3.401885e+03
6.190395e+02,3.403085e+03
6.200037e+02,3.402800e+03
6.209680e+02,3.400333e+03
6.219322e+02,3.396313e+03
6.228964e+02,3.394110e+03
6.238607e+02,3.393220e+03
6.248249e+02,3.394292e+03
6.257891e+02,3.398590e+03
6.267534e+02,3.403783e+03
6.277176e+02,3.405453e+03
6.286818e+02,3.402730e+03
6.296461e+02,3.396921e+03
6.306103e+02,3.386356e+03
6.315745e+02,3.372211e+03
6.325388e+02,3.361967e+03
6.335030e+02,3.361843e+03
6.344672e+02,3.371759e+03
6.354315e+02,3.377818e+03
6.363957e+02,3.376392e+03
6.373599e+02,3.373425e+03
6.383242e+02,3.373303e+03
6.392884e+02,3.375986e+03
6.402526e+02,3.377083e+03
6.412169e+02,3.373656e+03
6.421811e+02,3.368781e+03
6.431453e+02,3.365393e+03
6.441096e+02,3.363535e+03
6.450738e+02,3.361770e+03
6.460380e+02,3.359343e+03
6.470023e+02,3.356967e+03
6.479665e+02,3.354418e+03
6.489307e+02,3.348974e+03
6.498950e+02,3.345284e+03
6.508592e+02,3.348326e+03
6.518234e+02,3.358460e+03
6.527877e+02,3.364965e+03
6.537519e+02,3.364791e+03
6.547161e+02,3.362001e+03
6.556804e+02,3.359056e+03
6.566446e+02,3.356616e+03
6.576088e+02,3.354736e+03
6.585731e+02,3.354184e+03
6.595373e+02,3.354448e+03
6.605015e+02,3.352207e+03
6.614658e+02,3.346602e+03
6.624300e+02,3.340155e+03
6.633942e+02,3.334981e+03
6.643585e+02,3.330288e+03
6.653227e+02,3.328743e+03
6.662869e+02,3.331711e+03
6.672512e+02,3.335695e+03
6.682154e+02,3.338621e+03
6.691796e+02,3.339789e+03
6.701439e+02,3.340663e+03
6.711081e+02,3.344617e+03
6.720723e+02,3.348841e+03
6.730366e+02,3.346538e+03
6.740008e+02,3.336692e+03
6.749650e+02,3.325105e+03
6.759293e+02,3.319193e+03
6.768935e+02,3.322711e+03
6.778577e+02,3.322291e+03
6.788220e+02,3.314652e+03
6.797862e+02,3.307382e+03
6.807504e+02,3.304395e+03
6.817147e+02,3.305592e+03
6.826789e+02,3.307189e+03
6.836431e+02,3.306385e+03
6.846074e+02,3.304640e+03
6.855716e+02,3.305935e+03
6.865358e+02,3.311237e+03
6.875001e+02,3.315344e+03
6.884643e+02,3.310327e+03
6.894285e+02,3.296427e+03
6.903928e+02,3.286064e+03
6.913570e+02,3.281215e+03
6.923212e+02,3.278266e+03
6.932855e+02,3.273327e+03
6.942497e+02,3.263695e+03
6.952139e+02,3.260756e+03
6.961782e+02,3.270139e+03
6.971424e+02,3.281799e+03
6.981066e+02,3.287969e+03
6.990709e+02,3.285919e+03
7.000351e+02,3.279910e+03
7.009993e+02,3.274009e+03
7.019636e+02,3.268922e+03
7.029278e+02,3.263702e+03
7.038920e+02,3.257818e+03
7.048563e+02,3.252417e+03
7.058205e+02,3.250385e+03
7.067847e+02,3.254676e+03
7.077490e+02,3.256770e+03
7.087132e+02,3.257223e+03
7.096774e+02,3.257600e+03
7.106417e+02,3.256098e+03
7.116059e+02,3.251380e+03
7.125701e+02,3.247395e+03
7.135344e+02,3.245499e+03
7.144986e+02,3.245791e+03
7.154628e+02,3.248907e+03
7.164271e+02,3.254237e+03
7.173913e+02,3.258139e+03
7.183555e+02,3.256569e+03
7.193198e+02,3.250247e+03
7.202840e+02,3.242681e+03
7.212482e+02,3.234054e+03
7.222125e+02,3.227437e+03
7.231767e+02,3.225670e+03
7.241409e+02,3.229284e+03
7.251052e+02,3.233657e+03
7.260694e+02,3.242462e+03
7.270336e+02,3.248793e+03
7.279979e+02,3.248994e+03
7.289621e+02,3.242529e+03
7.299263e+02,3.234327e+03
7.308906e+02,3.223095e+03
7.318548e+02,3.212357e+03
7.328190e+02,3.206690e+03
7.337833e+02,3.206430e+03
7.347475e+02,3.208525e+03
7.357117e+02,3.211942e+03
7.366760e+02,3.216884e+03
7.376402e+02,3.218760e+03
7.386044e+02,3.216755e+03
7.395687e+02,3.213917e+03
7.405329e+02,3.212356e+03
7.414971e+02,3.212745e+03
7.424614e+02,3.210536e+03
7.434256e+02,3.204206e+03
7.443898e+02,3.200106e+03
7.453541e+02,3.201073e+03
7.463183e+02,3.205042e+03
7.472825e+02,3.206516e+03
7.482468e+02,3.201032e+03
7.492110e+02,3.193482e+03
7.501752e+02,3.190624e+03
7.511395e+02,3.193474e+03
7.521037e+02,3.198093e+03
7.530679e+02,3.201116e+03
7.540322e+02,3.201496e+03
7.549964e+02,3.195987e+03
7.559606e+02,3.183100e+03
7.569249e+02,3.172177e+03
7.578891e+02,3.170017e+03
7.588533e+02,3.177563e+03
7.598176e+02,3.182308e+03
7.607818e+02,3.178966e+03
7.617460e+02,3.173042e+03
7.627103e+02,3.166463e+03
7.636745e+02,3.161071e+03
7.646387e+02,3.158251e+03
7.656030e+02,3.160163e+03
7.665672e+02,3.163359e+03
7.675314e+02,3.162899e+03
7.684957e+02,3.158137e+03
7.694599e+02,3.152797e+03
7.704241e+02,3.151417e+03
7.713884e+02,3.153490e+03
7.723526e+02,3.154416e+03
7.733168e+02,3.154705e+03
7.742811e+02,3.156243e+03
7.752453e+02,3.158220e+03
7.762095e+02,3.159643e+03
7.771738e+02,3.161153e+03
7.781380e+02,3.164011e+03
7.791022e+02,3.162745e+03
7.800665e+02,3.155303e+03
7.810307e+02,3.144866e+03
7.819949e+02,3.136222e+03
7.829592e+02,3.133459e+03
7.839234e+02,3.131794e+03
7.848876e+02,3.127570e+03
7.858519e+02,3.122085e+03
7.868161e+02,3.117792e+03
7.877803e+02,3.115587e+03
7.887446e+02,3.115281e+03
7.897088e+02,3.119245e+03
7.906730e+02,3.127620e+03
7.916373e+02,3.133398e+03
7.926015e+02,3.132662e+03
7.935657e+02,3.125915e+03
7.945300e+02,3.117374e+03
7.954942e+02,3.106406e+03
7.964584e+02,3.098943e+03
7.974227e+02,3.101195e+03
7.983869e+02,3.108870e+03
7.993511e+02,3.113161e+03
8.003154e+02,3.110428e+03
8.012796e+02,3.105325e+03
8.022438e+02,3.096595e+03
8.032081e+02,3.089543e+03
8.041723e+02,3.089324e+03
8.051365e+02,3.096808e+03
8.061008e+02,3.105324e+03
8.070650e+02,3.111260e+03
8.080292e+02,3.113445e+03
8.089935e+02,3.110322e+03
8.099577e+02,3.102657e+03
8.109219e+02,3.094183e+03
8.118862e+02,3.088290e+03
8.128504e+02,3.084888e+03
8.138146e+02,3.081136e+03
8.147789e+02,3.075704e+03
8.157431e+02,3.071637e+03
8.167073e+02,3.073268e+03
8.176716e+02,3.084371e+03
8.186358e+02,3.089060e+03
8.196000e+02,3.077634e+03
8.205643e+02,3.068391e+03
8.215285e+02,3.069823e+03
8.224927e+02,3.080226e+03
8.234570e+02,3.086656e+03
8.244212e+02,3.082879e+03
8.253854e+02,3.077048e+03
8.263497e+02,3.072592e+03
8.273139e+02,3.068961e+03
8.282781e+02,3.065905e+03
8.292424e+02,3.066631e+03
8.302066e+02,3.068358e+03
8.311708e+02,3.064917e+03
8.321351e+02,3.057253e+03
8.330993e+02,3.050189e+03
8.340635e+02,3.045518e+03
8.350278e+02,3.042553e+03
8.359920e+02,3.040048e+03
8.369562e+02,3.037916e+03
8.379205e+02,3.037525e+03
8.388847e+02,3.040203e+03
8.398489e+02,3.044493e+03
8.408132e+02,3.046089e+03
8.417774e+02,3.042027e+03
8.427416e+02,3.038443e+03
8.437059e+02,3.035969e+03
8.446701e+02,3.034357e+03
8.456343e+02,3.033783e+03
8.465986e+02,3.035044e+03
8.475628e+02,3.035000e+03
8.485270e+02,3.029988e+03
8.494913e+02,3.024425e+03
8.504555e+02,3.024538e+03
8.514197e+02,3.032309e+03
8.523840e+02,3.039742e+03
8.533482e+02,3.038457e+03
8.543124e+02,3.031723e+03
8.552767e+02,3.025421e+03
8.562409e+02,3.020309e+03
8.572051e+02,3.016696e+03
8.581694e+02,3.017464e+03
8.591336e+02,3.022283e+03
8.600978e+02,3.021118e+03
8.610621e+02,3.013030e+03
8.620263e+02,3.004249e+03
8.629905e+02,2.997924e+03
8.639548e+02,2.992898e+03
8.649190e+02,2.991284e+03
8.658832e+02,2.997611e+03
8.668475e+02,3.004210e+03
8.678117e+02,3.008237e+03
8.687759e+02,3.009433e+03
8.697402e+02,3.008045e+03
8.707044e+02,2.998624e+03
8.716686e+02,2.989212e+03
8.726329e+02,2.984519e+03
8.735971e+02,2.983755e+03
8.745613e+02,2.984115e+03
8.755256e+02,2.987272e+03
8.764898e+02,2.990085e+03
8.774540e+02,2.987714e+03
8.784183e+02,2.982898e+03
8.793825e+02,2.981292e+03
8.803467e+02,2.985492e+03
8.813110e+02,2.990973e+03
8.822752e+02,2.992792e+03
8.832394e+02,2.992161e+03
8.842037e+02,2.990637e+03
8.851679e+02,2.987628e+03
8.861321e+02,2.984449e+03
8.870964e+02,2.985086e+03
8.880606e+02,2.989796e+03
8.890248e+02,2.987224e+03
8.899891e+02,2.975196e+03
8.909533e+02,2.962486e+03
8.919175e+02,2.957003e+03
8.928818e+02,2.960729e+03
8.938460e+02,2.962297e+03
8.948102e+02,2.959945e+03
8.957745e+02,2.955823e+03
8.967387e+02,2.950155e+03
8.977029e+02,2.942452e+03
8.986672e+02,2.938049e+03
8.996314e+02,2.942969e+03
9.005956e+02,2.948860e+03
9.015599e+02,2.952428e+03
9.025241e+02,2.953250e+03
9.034883e+02,2.951973e+03
9.044526e+02,2.946537e+03
9.054168e+02,2.939791e+03
9.063810e+02,2.935722e+03
9.073453e+02,2.934543e+03
9.083095e+02,2.933800e+03
9.092737e+02,2.931208e+03
9.102380e+02,2.927862e+03
9.112022e+02,2.925106e+03
9.121664e+02,2.922765e+03
9.131307e+02,2.921482e+03
9.140949e+02,2.922520e+03
9.150591e+02,2.925066e+03
9.160234e+02,2.925697e+03
9.169876e+02,2.923143e+03
9.179518e+02,2.919759e+03
9.189161e+02,2.915957e+03
9.198803e+02,2.911707e+03
9.208445e+02,2.907434e+03
9.218088e+02,2.903756e+03
9.227730e+02,2.903805e+03
9.237372e+02,2.908901e+03
9.247015e+02,2.912847e+03
9.256657e+02,2.911026e+03
9.266299e+02,2.902903e+03
9.275942e+02,2.898071e+03
9.285584e+02,2.897223e+03
9.295226e+02,2.897591e+03
9.304869e+02,2.900442e+03
9.314511e+02,2.904762e+03
9.324153e+02,2.905757e+03
9.333796e+02,2.902078e+03
9.343438e+02,2.895966e+03
9.353080e+02,2.884188e+03
9.362723e+02,2.870177e+03
9.372365e+02,2.859883e+03
9.382007e+02,2.857080e+03
9.391650e+02,2.858600e+03
9.401292e+02,2.865948e+03
9.410934e+02,2.874946e+03
9.420577e+02,2.880160e+03
9.430219e+02,2.879866e+03
9.439861e+02,2.876940e+03
9.449504e+02,2.873161e+03
9.459146e+02,2.870610e+03
9.468788e+02,2.870862e+03
9.478431e+02,2.872211e+03
9.488073e+02,2.871433e+03
9.497715e+02,2.866434e+03
9.507358e+02,2.859388e+03
9.517000e+02,2.854657e+03
9.526642e+02,2.853002e+03
9.536285e+02,2.851774e+03
9.545927e+02,2.848219e+03
9.555569e+02,2.843589e+03
9.565212e+02,2.843037e+03
9.574854e+02,2.847666e+03
9.584496e+02,2.852323e+03
9.594139e+02,2.853752e+03
9.603781e+02,2.852266e+03
9.613423e+02,2.850816e+03
9.623066e+02,2.849855e+03
9.632708e+02,2.847252e+03
9.642350e+02,2.842250e+03
9.651993e+02,2.837589e+03
9.661635e+02,2.836541e+03
9.671277e+02,2.841466e+03
9.680920e+02,2.841528e+03
9.690562e+02,2.832691e+03
9.700204e+02,2.822740e+03
9.709847e+02,2.818704e+03
9.719489e+02,2.822822e+03
9.729131e+02,2.825778e+03
9.738774e+02,2.827449e+03
9.748416e+02,2.829531e+03
9.758058e+02,2.833401e+03
9.767701e+02,2.837144e+03
9.777343e+02,2.835143e+03
9.786985e+02,2.816847e+03
9.796628e+02,2.802657e+03
9.806270e+02,2.804429e+03
9.815912e+02,2.814260e+03
9.825555e+02,2.818962e+03
9.835197e+02,2.814174e+03
9.844839e+02,2.807332e+03
9.854482e+02,2.798833e+03
9.864124e+02,2.791722e+03
9.873766e+02,2.788883e+03
9.883409e+02,2.791484e+03
9.893051e+02,2.796730e+03
9.902693e+02,2.805875e+03
9.912336e+02,2.815302e+03
9.921978e+02,2.819628e+03
9.931620e+02,2.817864e+03
9.941263e+02,2.813910e+03
9.950905e+02,2.811993e+03
9.960547e+02,2.809175e+03
9.970190e+02,2.799105e+03
9.979832e+02,2.783695e+03
9.989474e+02,2.771601e+03
9.999117e+02,2.769914e+03
1.000876e+03,2.774030e+03
1.001840e+03,2.777730e+03
1.002804e+03,2.781517e+03
1.003769e+03,2.784849e+03
1.004733e+03,2.786756e+03
1.005697e+03,2.787177e+03
1.006661e+03,2.786394e+03
1.007626e+03,2.784703e+03
1.008590e+03,2.781806e+03
1.009554e+03,2.776899e+03
1.010518e+03,2.772273e+03
1.011482e+03,2.773642e+03
1.012447e+03,2.779403e+03
1.013411e+03,2.775212e+03
1.014375e+03,2.761130e+03
1.015339e+03,2.748573e+03
1.016304e+03,2.745270e+03
1.017268e+03,2.749107e+03
1.018232e+03,2.748585e+03
1.019196e+03,2.742525e+03
1.020161e+03,2.738741e+03
1.021125e+03,2.741863e+03
1.022089e+03,2.749105e+03
1.023053e+03,2.749970e+03
1.024018e+03,2.741325e+03
1.024982e+03,2.737063e+03
1.025946e+03,2.740494e+03
1.026910e+03,2.746040e+03
1.027875e+03,2.748198e+03
1.028839e+03,2.747796e+03
1.029803e+03,2.746405e+03
1.030767e+03,2.743476e+03
1.031731e+03,2.740872e+03
1.032696e+03,2.739378e+03
1.033660e+03,2.738759e+03
1.034624e+03,2.738408e+03
1.035588e+03,2.740088e+03
1.036552e+03,2.740808e+03
1.037517e+03,2.737651e+03
1.038481e+03,2.731390e+03
1.039445e+03,2.728096e+03
1.040409e+03,2.730679e+03
1.041374e+03,2.731618e+03
1.042338e+03,2.729780e+03
1.043302e+03,2.726873e+03
1.044266e+03,2.724425e+03
1.045231e+03,2.722475e+03
1.046195e+03,2.720143e+03
1.047159e+03,2.717144e+03
1.048123e+03,2.715104e+03
1.049088e+03,2.715609e+03
1.050052e+03,2.720033e+03
1.051016e+03,2.723153e+03
1.051980e+03,2.722071e+03
1.052945e+03,2.722051e+03
1.053909e+03,2.726234e+03
1.054873e+03,2.731354e+03
1.055837e+03,2.730018e+03
1.056802e+03,2.714078e+03
1.057766e+03,2.703171e+03
1.058730e+03,2.706657e+03
1.059694e+03,2.715248e+03
1.060658e+03,2.716893e+03
1.061623e+03,2.708421e+03
1.062587e+03,2.698525e+03
1.063551e+03,2.683444e+03
1.064515e+03,2.671184e+03
1.065479e+03,2.667037e+03
1.066444e+03,2.672196e+03
1.067408e+03,2.680772e+03
1.068372e+03,2.698928e+03
1.069336e+03,2.713261e+03
1.070301e+03,2.713738e+03
1.071265e+03,2.703696e+03
1.072229e+03,2.696504e+03
1.073193e+03,2.698346e+03
1.074158e+03,2.698480e+03
1.075122e+03,2.691631e+03
1.076086e+03,2.682808e+03
1.077050e+03,2.679012e+03
1.078015e+03,2.685781e+03
1.078979e+03,2.691340e+03
1.079943e+03,2.691523e+03
1.080907e+03,2.690205e+03
1.081872e+03,2.688996e+03
1.082836e+03,2.687355e+03
1.083800e+03,2.685757e+03
1.084764e+03,2.683550e+03
1.085729e+03,2.683593e+03
1.086693e+03,2.687646e+03
1.087657e+03,2.694344e+03
1.088621e+03,2.700792e+03
1.089585e+03,2.710945e+03
1.090550e+03,2.713934e+03
1.091514e+03,2.702350e+03
1.092478e+03,2.686933e+03
1.093442e+03,2.679236e+03
1.094406e+03,2.683982e+03
1.095371e+03,2.687727e+03
1.096335e+03,2.686142e+03
1.097299e+03,2.683069e+03
1.098263e+03,2.681445e+03
1.099228e+03,2.680925e+03
1.100192e+03,2.677930e+03
1.101156e+03,2.667135e+03
1.102120e+03,2.658324e+03
1.103085e+03,2.657298e+03
1.104049e+03,2.660796e+03
1.105013e+03,2.662039e+03
1.105977e+03,2.658730e+03
1.106942e+03,2.655301e+03
1.107906e+03,2.650730e+03
1.108870e+03,2.647706e+03
1.109834e+03,2.649947e+03
1.110799e+03,2.660632e+03
1.111763e+03,2.664861e+03
1.112727e+03,2.654368e+03
1.113691e+03,2.644207e+03
1.114656e+03,2.641799e+03
1.115620e+03,2.646335e+03
1.116584e+03,2.650724e+03
1.117548e+03,2.655091e+03
1.118512e+03,2.656361e+03
1.119477e+03,2.650837e+03
1.120441e+03,2.643103e+03
1.121405e+03,2.640583e+03
1.122369e+03,2.653185e+03
1.123334e+03,2.656112e+03
1.124298e+03,2.640532e+03
1.125262e+03,2.623894e+03
1.126226e+03,2.619300e+03
1.127191e+03,2.628625e+03
1.128155e+03,2.634729e+03
1.129119e+03,2.635509e+03
1.130083e+03,2.634602e+03
1.131047e+03,2.632685e+03
1.132012e+03,2.629396e+03
1.132976e+03,2.625515e+03
1.133940e+03,2.621041e+03
1.134904e+03,2.615490e+03
1.135869e+03,2.608020e+03
1.136833e+03,2.601898e+03
1.137797e+03,2.601300e+03
1.138761e+03,2.609431e+03
1.139726e+03,2.614138e+03
1.140690e+03,2.614403e+03
1.141654e+03,2.611962e+03
1.142618e+03,2.606288e+03
1.143583e+03,2.598529e+03
1.144547e+03,2.597858e+03
1.145511e+03,2.607375e+03
1.146475e+03,2.610999e+03
1.147439e+03,2.601847e+03
1.148404e+03,2.588129e+03
1.149368e+03,2.584586e+03
1.150332e+03,2.592195e+03
1.151296e+03,2.596684e+03
1.152261e+03,2.595360e+03
1.153225e+03,2.589912e+03
1.154189e+03,2.582775e+03
1.155153e+03,2.575357e+03
1.156118e+03,2.570938e+03
1.157082e+03,2.570396e+03
1.158046e+03,2.571906e+03
1.159010e+03,2.574087e+03
1.159974e+03,2.576098e+03
1.160939e+03,2.575374e+03
1.161903e+03,2.572073e+03
1.162867e+03,2.571749e+03
1.163831e+03,2.575586e+03
1.164796e+03,2.578495e+03
1.165760e+03,2.574772e+03
1.166724e+03,2.567038e+03
1.167688e+03,2.560828e+03
1.168653e+03,2.556414e+03
1.169617e+03,2.553046e+03
1.170581e+03,2.550478e+03
1.171545e+03,2.549256e+03
1.172510e+03,2.550870e+03
1.173474e+03,2.554348e+03
1.174438e+03,2.556701e+03
1.175402e+03,2.556559e+03
1.176366e+03,2.555537e+03
1.177331e+03,2.555360e+03
1.178295e+03,2.555528e+03
1.179259e+03,2.554807e+03
1.180223e+03,2.552744e+03
1.181188e+03,2.550261e+03
1.182152e+03,2.548659e+03
1.183116e+03,2.546368e+03
1.184080e+03,2.542288e+03
1.185045e+03,2.537776e+03
1.186009e+03,2.534527e+03
1.186973e+03,2.534397e+03
1.187937e+03,2.534497e+03
1.188901e+03,2.533504e+03
1.189866e+03,2.531697e+03
1.190830e+03,2.527998e+03
1.191794e+03,2.521792e+03
1.192758e+03,2.517971e+03
1.193723e+03,2.520981e+03
1.194687e+03,2.524855e+03
1.195651e+03,2.526007e+03
1.196615e+03,2.525778e+03
1.197580e+03,2.527880e+03
1.198544e+03,2.535846e+03
1.199508e+03,2.536964e+03
1.200472e+03,2.528264e+03
1.201437e+03,2.517239e+03
1.202401e+03,2.510140e+03
1.203365e+03,2.507796e+03
1.204329e+03,2.508165e+03
1.205293e+03,2.511978e+03
1.206258e+03,2.515651e+03
1.207222e+03,2.516889e+03
1.208186e+03,2.516725e+03
1.209150e+03,2.519766e+03
1.210115e+03,2.525853e+03
1.211079e+03,2.529230e+03
1.212043e+03,2.529288e+03
1.213007e+03,2.525645e+03
1.213972e+03,2.515525e+03
1.214936e+03,2.501764e+03
1.215900e+03,2.500272e+03
1.216864e+03,2.510583e+03
1.217828e+03,2.518801e+03
1.218793e+03,2.516129e+03
1.219757e+03,2.508087e+03
1.220721e+03,2.502070e+03
1.221685e+03,2.498590e+03
1.222650e+03,2.498145e+03
1.223614e+03,2.500111e+03
1.224578e+03,2.503287e+03
1.225542e+03,2.511786e+03
1.226507e+03,2.519305e+03
1.227471e+03,2.515511e+03
1.228435e+03,2.501943e+03
1.229399e+03,2.489566e+03
1.230364e+03,2.484917e+03
1.231328e+03,2.482908e+03
1.232292e+03,2.482756e+03
1.233256e+03,2.484593e+03
1.234220e+03,2.487930e+03
1.235185e+03,2.495061e+03
1.236149e+03,2.497901e+03
1.237113e+03,2.488947e+03
1.238077e+03,2.481192e+03
1.239042e+03,2.482950e+03
1.240006e+03,2.491507e+03
1.240970e+03,2.492127e+03
1.241934e+03,2.476656e+03
1.242899e+03,2.467870e+03
1.243863e+03,2.473503e+03
1.244827e+03,2.485391e+03
1.245791e+03,2.493189e+03
1.246755e+03,2.497365e+03
1.247720e+03,2.492955e+03
1.248684e+03,2.477884e+03
1.249648e+03,2.465661e+03
1.250612e+03,2.465476e+03
1.251577e+03,2.473266e+03
1.252541e+03,2.477452e+03
1.253505e+03,2.478001e+03
1.254469e+03,2.476554e+03
1.255434e+03,2.473935e+03
1.256398e+03,2.470932e+03
1.257362e+03,2.466553e+03
1.258326e+03,2.461800e+03
1.259291e+03,2.460324e+03
1.260255e+03,2.461289e+03
1.261219e+03,2.460527e+03
1.262183e+03,2.454023e+03
1.263147e+03,2.449137e+03
1.264112e+03,2.453458e+03
1.265076e+03,2.461709e+03
1.266040e+03,2.465289e+03
1.267004e+03,2.460712e+03
1.267969e+03,2.457198e+03
1.268933e+03,2.460855e+03
1.269897e+03,2.465634e+03
1.270861e+03,2.465316e+03
1.271826e+03,2.458671e+03
1.272790e+03,2.453443e+03
1.273754e+03,2.450472e+03
1.274718e+03,2.449471e+03
1.275682e+03,2.452368e+03
1.276647e+03,2.457085e+03
1.277611e+03,2.460892e+03
1.278575e+03,2.463892e+03
1.279539e+03,2.460851e+03
1.280504e+03,2.451840e+03
1.281468e+03,2.446159e+03
1.282432e+03,2.449666e+03
1.283396e+03,2.458121e+03
1.284361e+03,2.460813e+03
1.285325e+03,2.458535e+03
1.286289e+03,2.456956e+03
1.287253e+03,2.457376e+03
1.288218e+03,2.457704e+03
1.289182e+03,2.457207e+03
1.290146e+03,2.455501e+03
1.291110e+03,2.450424e+03
1.292074e+03,2.443849e+03
1.293039e+03,2.441062e+03
1.294003e+03,2.450713e+03
1.294967e+03,2.456280e+03
1.295931e+03,2.447901e+03
1.296896e+03,2.434989e+03
1.297860e+03,2.426666e+03
1.298824e+03,2.423903e+03
1.299788e+03,2.424153e+03
1.300753e+03,2.429062e+03
1.301717e+03,2.433627e+03
1.302681e+03,2.435817e+03
1.303645e+03,2.436488e+03
1.304609e+03,2.438823e+03
1.305574e+03,2.442651e+03
1.306538e+03,2.441568e+03
1.307502e+03,2.435071e+03
1.308466e+03,2.428800e+03
1.309431e+03,2.429571e+03
1.310395e+03,2.434212e+03
1.311359e+03,2.428837e+03
1.312323e+03,2.415138e+03
1.313288e+03,2.405885e+03
1.314252e+03,2.409081e+03
1.315216e+03,2.416857e+03
1.316180e+03,2.423234e+03
1.317145e+03,2.427771e+03
1.318109e+03,2.428018e+03
1.319073e+03,2.423151e+03
1.320037e+03,2.419347e+03
1.321001e+03,2.421622e+03
1.321966e+03,2.422734e+03
1.322930e+03,2.420333e+03
1.323894e+03,2.416089e+03
1.324858e+03,2.411716e+03
1.325823e+03,2.406450e+03
1.326787e+03,2.402141e+03
1.327751e+03,2.397046e+03
1.328715e+03,2.395264e+03
1.329680e+03,2.401371e+03
1.330644e+03,2.412834e+03
1.331608e+03,2.417496e+03
1.332572e+03,2.415604e+03
1.333536e+03,2.412896e+03
1.334501e+03,2.410501e+03
1.335465e+03,2.407840e+03
1.336429e+03,2.404719e+03
1.337393e+03,2.402413e+03
1.338358e+03,2.403173e+03
1.339322e+03,2.406223e+03
1.340286e+03,2.408014e+03
1.341250e+03,2.407968e+03
1.342215e+03,2.404793e+03
1.343179e+03,2.395556e+03
1.344143e+03,2.386673e+03
1.345107e+03,2.383803e+03
1.346072e+03,2.387795e+03
1.347036e+03,2.392684e+03
1.348000e+03,2.400402e+03
1.348964e+03,2.403456e+03
1.349928e+03,2.398008e+03
1.350893e+03,2.389104e+03
1.351857e+03,2.387997e+03
1.352821e+03,2.393727e+03
1.353785e+03,2.393798e+03
1.354750e+03,2.386297e+03
1.355714e+03,2.378854e+03
1.356678e+03,2.381596e+03
1.357642e+03,2.388186e+03
1.358607e+03,2.386415e+03
1.359571e+03,2.379533e+03
1.360535e+03,2.375990e+03
1.361499e+03,2.380647e+03
1.362464e+03,2.384121e+03
1.363428e+03,2.379985e+03
1.364392e+03,2.375813e+03
1.365356e+03,2.376883e+03
1.366320e+03,2.381500e+03
1.367285e+03,2.381702e+03
1.368249e+03,2.376085e+03
1.369213e+03,2.371943e+03
1.370177e+03,2.370733e+03
1.371142e+03,2.371149e+03
1.372106e+03,2.372850e+03
1.373070e+03,2.375252e+03
1.374034e+03,2.372994e+03
1.374999e+03,2.367167e+03
1.375963e+03,2.362793e+03
1.376927e+03,2.362419e+03
1.377891e+03,2.363834e+03
1.378855e+03,2.365542e+03
1.379820e+03,2.366559e+03
1.380784e+03,2.365285e+03
1.381748e+03,2.362222e+03
1.382712e+03,2.360821e+03
1.383677e+03,2.362846e+03
1.384641e+03,2.363316e+03
1.385605e+03,2.359824e+03
1.386569e+03,2.353981e+03
1.387534e+03,2.348082e+03
1.388498e+03,2.341704e+03
1.389462e+03,2.340093e+03
1.390426e+03,2.343541e+03
1.391391e+03,2.345344e+03
1.392355e+03,2.340806e+03
1.393319e+03,2.334395e+03
1.394283e+03,2.334293e+03
1.395247e+03,2.338231e+03
1.396212e+03,2.342656e+03
1.397176e+03,2.346928e+03
1.398140e+03,2.347606e+03
1.399104e+03,2.337585e+03
1.400069e+03,2.327232e+03
1.401033e+03,2.323066e+03
1.401997e+03,2.323980e+03
1.402961e+03,2.326255e+03
1.403926e+03,2.331403e+03
1.404890e+03,2.333233e+03
1.405854e+03,2.330798e+03
1.406818e+03,2.328220e+03
1.407782e+03,2.329190e+03
1.408747e+03,2.332705e+03
1.409711e+03,2.330789e+03
1.410675e+03,2.324269e+03
1.411639e+03,2.324524e+03
1.412604e+03,2.336426e+03
1.413568e+03,2.344807e+03
1.414532e+03,2.331925e+03
1.415496e+03,2.315817e+03
1.416461e+03,2.312880e+03
1.417425e+03,2.319559e+03
1.418389e+03,2.321508e+03
1.419353e+03,2.311874e+03
1.420318e+03,2.304083e+03
1.421282e+03,2.299316e+03
1.422246e+03,2.298411e+03
1.423210e+03,2.303421e+03
1.424174e+03,2.313039e+03
1.425139e+03,2.315251e+03
1.426103e+03,2.310161e+03
1.427067e+03,2.303488e+03
1.428031e+03,2.296833e+03
1.428996e+03,2.292478e+03
1.429960e+03,2.292738e+03
1.430924e+03,2.295450e+03
1.431888e+03,2.301426e+03
1.432853e+03,2.308702e+03
1.433817e+03,2.308792e+03
1.434781e+03,2.288354e+03
1.435745e+03,2.278770e+03
1.436709e+03,2.288087e+03
1.437674e+03,2.300422e+03
1.438638e+03,2.302034e+03
1.439602e+03,2.294911e+03
1.440566e+03,2.293152e+03
1.441531e+03,2.295920e+03
1.442495e+03,2.296994e+03
1.443459e+03,2.293275e+03
1.444423e+03,2.289331e+03
1.445388e+03,2.291622e+03
1.446352e+03,2.293848e+03
1.447316e+03,2.288862e+03
1.448280e+03,2.278499e+03
1.449245e+03,2.270935e+03
1.450209e+03,2.268922e+03
1.451173e+03,2.268455e+03
1.452137e+03,2.268513e+03
1.453101e+03,2.268071e+03
1.454066e+03,2.266425e+03
1.455030e+03,2.264158e+03
1.455994e+03,2.265931e+03
1.456958e+03,2.271037e+03
1.457923e+03,2.274778e+03
1.458887e+03,2.274426e+03
1.459851e+03,2.273445e+03
1.460815e+03,2.276726e+03
1.461780e+03,2.278720e+03
1.462744e+03,2.274467e+03
1.463708e+03,2.265179e+03
1.464672e+03,2.257721e+03
1.465636e+03,2.252940e+03
1.466601e+03,2.251849e+03
1.467565e+03,2.255489e+03
1.468529e+03,2.260565e+03
1.469493e+03,2.264305e+03
1.470458e+03,2.265746e+03
1.471422e+03,2.261744e+03
1.472386e+03,2.254379e+03
1.473350e+03,2.249795e+03
1.474315e+03,2.250036e+03
1.475279e+03,2.251706e+03
1.476243e+03,2.254764e+03
1.477207e+03,2.255879e+03
1.478172e+03,2.252331e+03
1.479136e+03,2.245550e+03
1.480100e+03,2.240667e+03
1.481064e+03,2.237697e+03
1.482028e+03,2.238552e+03
1.482993e+03,2.244604e+03
1.483957e+03,2.250121e+03
1.484921e+03,2.248544e+03
1.485885e+03,2.242819e+03
1.486850e+03,2.236326e+03
1.487814e+03,2.229882e+03
1.488778e+03,2.227207e+03
1.489742e+03,2.231145e+03
1.490707e+03,2.233392e+03
1.491671e+03,2.230961e+03
1.492635e+03,2.229265e+03
1.493599e+03,2.230551e+03
1.494563e+03,2.232483e+03
1.495528e+03,2.228923e+03
1.496492e+03,2.219867e+03
1.497456e+03,2.217058e+03
1.498420e+03,2.222363e+03
1.499385e+03,2.227339e+03
1.500349e+03,2.224547e+03
1.501313e+03,2.219658e+03
1.502277e+03,2.214968e+03
1.503242e+03,2.211952e+03
1.504206e+03,2.213656e+03
1.505170e+03,2.222741e+03
1.506134e+03,2.226502e+03
1.507099e+03,2.224825e+03
1.508063e+03,2.217577e+03
1.509027e+03,2.202323e+03
1.509991e+03,2.187100e+03
1.510955e+03,2.188172e+03
1.511920e+03,2.199318e+03
1.512884e+03,2.207517e+03
1.513848e+03,2.212439e+03
1.514812e+03,2.216326e+03
1.515777e+03,2.219150e+03
1.516741e+03,2.219228e+03
1.517705e+03,2.213620e+03
1.518669e+03,2.206513e+03
1.519634e+03,2.201446e+03
1.520598e+03,2.198049e+03
1.521562e+03,2.196945e+03
1.522526e+03,2.197367e+03
1.523490e+03,2.196405e+03
1.524455e+03,2.193151e+03
1.525419e+03,2.189733e+03
1.526383e+03,2.189490e+03
1.527347e+03,2.189160e+03
1.528312e+03,2.187102e+03
1.529276e+03,2.183849e+03
1.530240e+03,2.178342e+03
1.531204e+03,2.166389e+03
1.532169e+03,2.162122e+03
1.533133e+03,2.167782e+03
1.534097e+03,2.176057e+03
1.535061e+03,2.181986e+03
1.536026e+03,2.185790e+03
1.536990e+03,2.189736e+03
1.537954e+03,2.192344e+03
1.538918e+03,2.189188e+03
1.539882e+03,2.177939e+03
1.540847e+03,2.170131e+03
1.541811e+03,2.170682e+03
1.542775e+03,2.171487e+03
1.543739e+03,2.171129e+03
1.544704e+03,2.170825e+03
1.545668e+03,2.172617e+03
1.546632e+03,2.176084e+03
1.547596e+03,2.179052e+03
1.548561e+03,2.180862e+03
1.549525e+03,2.179142e+03
1.550489e+03,2.166273e+03
1.551453e+03,2.157078e+03
1.552417e+03,2.161343e+03
1.553382e+03,2.169885e+03
1.554346e+03,2.177302e+03
1.555310e+03,2.183229e+03
1.556274e+03,2.178710e+03
1.557239e+03,2.163907e+03
1.558203e+03,2.155254e+03
1.559167e+03,2.156993e+03
1.560131e+03,2.160980e+03
1.561096e+03,2.160189e+03
1.562060e+03,2.159046e+03
1.563024e+03,2.162970e+03
1.563988e+03,2.168653e+03
1.564953e+03,2.167536e+03
1.565917e+03,2.155195e+03
1.566881e+03,2.150802e+03
1.567845e+03,2.155156e+03
1.568809e+03,2.158970e+03
1.569774e+03,2.156986e+03
1.570738e+03,2.153183e+03
1.571702e+03,2.153205e+03
1.572666e+03,2.154354e+03
1.573631e+03,2.152979e+03
1.574595e+03,2.149358e+03
1.575559e+03,2.147305e+03
1.576523e+03,2.148160e+03
1.577488e+03,2.148396e+03
1.578452e+03,2.145622e+03
1.579416e+03,2.143403e+03
1.580380e+03,2.149357e+03
1.581344e+03,2.157478e+03
1.582309e+03,2.153919e+03
1.583273e+03,2.143663e+03
1.584237e+03,2.138820e+03
1.585201e+03,2.147249e+03
1.586166e+03,2.149229e+03
1.587130e+03,2.138065e+03
1.588094e+03,2.127774e+03
1.589058e+03,2.125024e+03
1.590023e+03,2.127203e+03
1.590987e+03,2.129767e+03
1.591951e+03,2.132828e+03
1.592915e+03,2.134802e+03
1.593880e+03,2.134576e+03
1.594844e+03,2.132954e+03
1.595808e+03,2.131036e+03
1.596772e+03,2.127037e+03
1.597736e+03,2.119554e+03
1.598701e+03,2.113392e+03
1.599665e+03,2.112861e+03
1.600629e+03,2.116570e+03
1.601593e+03,2.120360e+03
1.602558e+03,2.123294e+03
1.603522e+03,2.121917e+03
1.604486e+03,2.114392e+03
1.605450e+03,2.106823e+03
1.606415e+03,2.100708e+03
1.607379e+03,2.098437e+03
1.608343e+03,2.101839e+03
1.609307e+03,2.107288e+03
1.610271e+03,2.108351e+03
1.611236e+03,2.105757e+03
1.612200e+03,2.104423e+03
1.613164e+03,2.104822e+03
1.614128e+03,2.104527e+03
1.615093e+03,2.100270e+03
1.616057e+03,2.096872e+03
1.617021e+03,2.096562e+03
1.617985e+03,2.095564e+03
1.618950e+03,2.091459e+03
1.619914e+03,2.085851e+03
1.620878e+03,2.085828e+03
1.621842e+03,2.089925e+03
1.622807e+03,2.090947e+03
1.623771e+03,2.087795e+03
1.624735e+03,2.085517e+03
1.625699e+03,2.087130e+03
1.626663e+03,2.087706e+03
1.627628e+03,2.083817e+03
1.628592e+03,2.078524e+03
1.629556e+03,2.078343e+03
1.630520e+03,2.082826e+03
1.631485e+03,2.082451e+03
1.632449e+03,2.077901e+03
1.633413e+03,2.073283e+03
1.634377e+03,2.069981e+03
1.635342e+03,2.068135e+03
1.636306e+03,2.069902e+03
1.637270e+03,2.070936e+03
1.638234e+03,2.068648e+03
1.639198e+03,2.065030e+03
1.640163e+03,2.064529e+03
1.641127e+03,2.066214e+03
1.642091e+03,2.064191e+03
1.643055e+03,2.057883e+03
1.644020e+03,2.054093e+03
1.644984e+03,2.059649e+03
1.645948e+03,2.061306e+03
1.646912e+03,2.054854e+03
1.647877e+03,2.047988e+03
1.648841e+03,2.048232e+03
1.649805e+03,2.052935e+03
1.650769e+03,2.052362e+03
1.651734e+03,2.048495e+03
1.652698e+03,2.047454e+03
1.653662e+03,2.050837e+03
1.654626e+03,2.050996e+03
1.655590e+03,2.043914e+03
1.656555e+03,2.037014e+03
1.657519e+03,2.032538e+03
1.658483e+03,2.031470e+03
1.659447e+03,2.037247e+03
1.660412e+03,2.043881e+03
1.661376e+03,2.039360e+03
1.662340e+03,2.027375e+03
1.663304e+03,2.019255e+03
1.664269e+03,2.018360e+03
1.665233e+03,2.020194e+03
1.666197e+03,2.025590e+03
1.667161e+03,2.028202e+03
1.668125e+03,2.024031e+03
1.669090e+03,2.017834e+03
1.670054e+03,2.017857e+03
1.671018e+03,2.020046e+03
1.671982e+03,2.019526e+03
1.672947e+03,2.015897e+03
1.673911e+03,2.011406e+03
1.674875e+03,2.004012e+03
1.675839e+03,2.000921e+03
1.676804e+03,2.004647e+03
1.677768e+03,2.008533e+03
1.678732e+03,2.004521e+03
1.679696e+03,1.998368e+03
1.680661e+03,1.992428e+03
1.681625e+03,1.988728e+03
1.682589e+03,1.993432e+03
1.683553e+03,2.007789e+03
1.684517e+03,2.011506e+03
1.685482e+03,2.004619e+03
1.686446e+03,1.997517e+03
1.687410e+03,1.993279e+03
1.688374e+03,1.990242e+03
1.689339e+03,1.986585e+03
1.690303e+03,1.984130e+03
1.691267e+03,1.984085e+03
1.692231e+03,1.986074e+03
1.693196e+03,1.990750e+03
1.694160e+03,1.996238e+03
1.695124e+03,1.989672e+03
1.696088e+03,1.974155e+03
1.697052e+03,1.966940e+03
1.698017e+03,1.982039e+03
1.698981e+03,1.992316e+03
1.699945e+03,1.988292e+03
1.700909e+03,1.980206e+03
1.701874e+03,1.973540e+03
1.702838e+03,1.970064e+03
1.703802e+03,1.972962e+03
1.704766e+03,1.978290e+03
1.705731e+03,1.980814e+03
1.706695e+03,1.980301e+03
1.707659e+03,1.978418e+03
1.708623e+03,1.976174e+03
1.709588e+03,1.972537e+03
1.710552e+03,1.965675e+03
1.711516e+03,1.960194e+03
1.712480e+03,1.964152e+03
1.713444e+03,1.968658e+03
1.714409e+03,1.961126e+03
1.715373e+03,1.950237e+03
1.716337e+03,1.950325e+03
1.717301e+03,1.962399e+03
1.718266e+03,1.961987e+03
1.719230e+03,1.948986e+03
1.720194e+03,1.939165e+03
1.721158e+03,1.936754e+03
1.722123e+03,1.936511e+03
1.723087e+03,1.933140e+03
1.724051e+03,1.933323e+03
1.725015e+03,1.944017e+03
1.725979e+03,1.956851e+03
1.726944e+03,1.957994e+03
1.727908e+03,1.950244e+03
1.728872e+03,1.943846e+03
1.729836e+03,1.938934e+03
1.730801e+03,1.937107e+03
1.731765e+03,1.943379e+03
1.732729e+03,1.942912e+03
1.733693e+03,1.931668e+03
1.734658e+03,1.921808e+03
1.735622e+03,1.918479e+03
1.736586e+03,1.919219e+03
1.737550e+03,1.923197e+03
1.738515e+03,1.927404e+03
1.739479e+03,1.928312e+03
1.740443e+03,1.925812e+03
1.741407e+03,1.922131e+03
1.742371e+03,1.916974e+03
1.743336e+03,1.914056e+03
1.744300e+03,1.913565e+03
1.745264e+03,1.914443e+03
1.746228e+03,1.917796e+03
1.747193e+03,1.922231e+03
1.748157e+03,1.932717e+03
1.749121e+03,1.939276e+03
1.750085e+03,1.929529e+03
1.751050e+03,1.909700e+03
1.752014e+03,1.909129e+03
1.752978e+03,1.920473e+03
1.753942e+03,1.923961e+03
1.754906e+03,1.915702e+03
1.755871e+03,1.908495e+03
1.756835e+03,1.904000e+03
1.757799e+03,1.898847e+03
1.758763e+03,1.894135e+03
1.759728e+03,1.891798e+03
1.760692e+03,1.894136e+03
1.761656e+03,1.898456e+03
1.762620e+03,1.902464e+03
1.763585e+03,1.905208e+03
1.764549e+03,1.905701e+03
1.765513e+03,1.903216e+03
1.766477e+03,1.899365e+03
1.767442e+03,1.894911e+03
1.768406e+03,1.891446e+03
1.769370e+03,1.889664e+03
1.770334e+03,1.888349e+03
1.771298e+03,1.888631e+03
1.772263e+03,1.883545e+03
1.773227e+03,1.868787e+03
1.774191e+03,1.855471e+03
1.775155e+03,1.862244e+03
1.776120e+03,1.876860e+03
1.777084e+03,1.882267e+03
1.778048e+03,1.880114e+03
1.779012e+03,1.876381e+03
1.779977e+03,1.871243e+03
1.780941e+03,1.869752e+03
1.781905e+03,1.870991e+03
1.782869e+03,1.871850e+03
1.783833e+03,1.871495e+03
1.784798e+03,1.869709e+03
1.785762e+03,1.863022e+03
1.786726e+03,1.858777e+03
1.787690e+03,1.861922e+03
1.788655e+03,1.868053e+03
1.789619e+03,1.868791e+03
1.790583e+03,1.865404e+03
1.791547e+03,1.856884e+03
1.792512e+03,1.845791e+03
1.793476e+03,1.843752e+03
1.794440e+03,1.854203e+03
1.795404e+03,1.863703e+03
1.796369e+03,1.871256e+03
1.797333e+03,1.872203e+03
1.798297e+03,1.860356e+03
1.799261e+03,1.848181e+03
1.800225e+03,1.843829e+03
1.801190e+03,1.841709e+03
1.802154e+03,1.839071e+03
1.803118e+03,1.835876e+03
1.804082e+03,1.833834e+03
1.805047e+03,1.832215e+03
1.806011e+03,1.826473e+03
1.806975e+03,1.816802e+03
1.807939e+03,1.812787e+03
1.808904e+03,1.816718e+03
1.809868e+03,1.818901e+03
1.810832e+03,1.818853e+03
1.811796e+03,1.819350e+03
1.812760e+03,1.823887e+03
1.813725e+03,1.827152e+03
1.814689e+03,1.824264e+03
1.815653e+03,1.820271e+03
1.816617e+03,1.819062e+03
1.817582e+03,1.819796e+03
1.818546e+03,1.818829e+03
1.819510e+03,1.817370e+03
1.820474e+03,1.820902e+03
1.821439e+03,1.830279e+03
1.822403e+03,1.826472e+03
1.823367e+03,1.803528e+03
1.824331e+03,1.794690e+03
1.825296e+03,1.805107e+03
1.826260e+03,1.815751e+03
1.827224e+03,1.812114e+03
1.828188e+03,1.807012e+03
1.829152e+03,1.805221e+03
1.830117e+03,1.805248e+03
1.831081e+03,1.807316e+03
1.832045e+03,1.809096e+03
1.833009e+03,1.804966e+03
1.833974e+03,1.798459e+03
1.834938e+03,1.793379e+03
1.835902e+03,1.789785e+03
1.836866e+03,1.784000e+03
1.837831e+03,1.775275e+03
1.838795e+03,1.774691e+03
1.839759e+03,1.785734e+03
1.840723e+03,1.796716e+03
1.841688e+03,1.798227e+03
1.842652e+03,1.797871e+03
1.843616e+03,1.797460e+03
1.844580e+03,1.795920e+03
1.845544e+03,1.793896e+03
1.846509e+03,1.790561e+03
1.847473e+03,1.781549e+03
1.848437e+03,1.770632e+03
1.849401e+03,1.765812e+03
1.850366e+03,1.767453e+03
1.851330e+03,1.764738e+03
1.852294e+03,1.759066e+03
1.853258e+03,1.759008e+03
1.854223e+03,1.767390e+03
1.855187e+03,1.772910e+03
1.856151e+03,1.766154e+03
1.857115e+03,1.761752e+03
1.858079e+03,1.763170e+03
1.859044e+03,1.764229e+03
1.860008e+03,1.757437e+03
1.860972e+03,1.749539e+03
1.861936e+03,1.747019e+03
1.862901e+03,1.747724e+03
1.863865e+03,1.746854e+03
1.864829e+03,1.743907e+03
1.865793e+03,1.745149e+03
1.866758e+03,1.749699e+03
1.867722e+03,1.753113e+03
1.868686e+03,1.753430e+03
1.869650e+03,1.755468e+03
1.870615e+03,1.759684e+03
1.871579e+03,1.761060e+03
1.872543e+03,1.759052e+03
1.873507e+03,1.756370e+03
1.874471e+03,1.753351e+03
1.875436e+03,1.748638e+03
1.876400e+03,1.742197e+03
1.877364e+03,1.735433e+03
1.878328e+03,1.728539e+03
1.879293e+03,1.722980e+03
1.880257e+03,1.722375e+03
1.881221e+03,1.724255e+03
1.882185e+03,1.725191e+03
1.883150e+03,1.725500e+03
1.884114e+03,1.719650e+03
1.885078e+03,1.708882e+03
1.886042e+03,1.706910e+03
1.887006e+03,1.719265e+03
1.887971e+03,1.726090e+03
1.888935e+03,1.717764e+03
1.889899e+03,1.716026e+03
1.890863e+03,1.726485e+03
1.891828e+03,1.734593e+03
1.892792e+03,1.722762e+03
1.893756e+03,1.707546e+03
1.894720e+03,1.701142e+03
1.895685e+03,1.702070e+03
1.896649e+03,1.712495e+03
1.897613e+03,1.725456e+03
1.898577e+03,1.714006e+03
1.899542e+03,1.690133e+03
1.900506e+03,1.680523e+03
1.901470e+03,1.690288e+03
1.902434e+03,1.696804e+03
1.903398e+03,1.700245e+03
1.904363e+03,1.703186e+03
1.905327e+03,1.706730e+03
1.906291e+03,1.706600e+03
1.907255e+03,1.694261e+03
1.908220e+03,1.686542e+03
1.909184e+03,1.687571e+03
1.910148e+03,1.689345e+03
1.911112e+03,1.682736e+03
1.912077e+03,1.676229e+03
1.913041e+03,1.680569e+03
1.914005e+03,1.685467e+03
1.914969e+03,1.677346e+03
1.915933e+03,1.662052e+03
1.916898e+03,1.660905e+03
1.917862e+03,1.669119e+03
1.918826e+03,1.677743e+03
1.919790e+03,1.685814e+03
1.920755e+03,1.684860e+03
1.921719e+03,1.674487e+03
1.922683e+03,1.668056e+03
1.923647e+03,1.668986e+03
1.924612e+03,1.670783e+03
1.925576e+03,1.671205e+03
1.926540e+03,1.670798e+03
1.927504e+03,1.668491e+03
1.928469e+03,1.665488e+03
1.929433e+03,1.663549e+03
1.930397e+03,1.660047e+03
1.931361e+03,1.650030e+03
1.932325e+03,1.641091e+03
1.933290e+03,1.641515e+03
1.934254e+03,1.647488e+03
1.935218e+03,1.645822e+03
1.936182e+03,1.639738e+03
1.937147e+03,1.636440e+03
1.938111e+03,1.637006e+03
1.939075e+03,1.642008e+03
1.940039e+03,1.650780e+03
1.941004e+03,1.653255e+03
1.941968e+03,1.647156e+03
1.942932e+03,1.639105e+03
1.943896e+03,1.629167e+03
1.944860e+03,1.624639e+03
1.945825e+03,1.627032e+03
1.946789e+03,1.633281e+03
1.947753e+03,1.648028e+03
1.948717e+03,1.654292e+03
1.949682e+03,1.640515e+03
1.950646e+03,1.624790e+03
1.951610e+03,1.616025e+03
1.952574e+03,1.614281e+03
1.953539e+03,1.626629e+03
1.954503e+03,1.639802e+03
1.955467e+03,1.639170e+03
1.956431e+03,1.630092e+03
1.957396e+03,1.623908e+03
1.958360e+03,1.620230e+03
1.959324e+03,1.621202e+03
1.960288e+03,1.625927e+03
1.961252e+03,1.623613e+03
1.962217e+03,1.611868e+03
1.963181e+03,1.608834e+03
1.964145e+03,1.614238e+03
1.965109e+03,1.619102e+03
1.966074e+03,1.619439e+03
1.967038e+03,1.620616e+03
1.968002e+03,1.621820e+03
1.968966e+03,1.620569e+03
1.969931e+03,1.615551e+03
1.970895e+03,1.608850e+03
1.971859e+03,1.601497e+03
1.972823e+03,1.597368e+03
1.973787e+03,1.597698e+03
1.974752e+03,1.599923e+03
1.975716e+03,1.603611e+03
1.976680e+03,1.604949e+03
1.977644e+03,1.598416e+03
1.978609e+03,1.589492e+03
1.979573e+03,1.584811e+03
1.980537e+03,1.583809e+03
1.981501e+03,1.589768e+03
1.982466e+03,1.598679e+03
1.983430e+03,1.596365e+03
1.984394e+03,1.579896e+03
1.985358e+03,1.576666e+03
1.986323e+03,1.583877e+03
1.987287e+03,1.584813e+03
1.988251e+03,1.572399e+03
1.989215e+03,1.565941e+03
1.990179e+03,1.569459e+03
1.991144e+03,1.570775e+03
1.992108e+03,1.567407e+03
1.993072e+03,1.563684e+03
1.994036e+03,1.561734e+03
1.995001e+03,1.559693e+03
1.995965e+03,1.556597e+03
1.996929e+03,1.555155e+03
1.997893e+03,1.558365e+03
1.998858e+03,1.561914e+03
1.999822e+03,1.563029e+03
2.000786e+03,1.561435e+03
2.001750e+03,1.557508e+03
2.002714e+03,1.553202e+03
2.003679e+03,1.548710e+03
2.004643e+03,1.545265e+03
2.005607e+03,1.547307e+03
2.006571e+03,1.553415e+03
2.007536e+03,1.557571e+03
2.008500e+03,1.559539e+03
2.009464e+03,1.557195e+03
2.010428e+03,1.551083e+03
2.011393e+03,1.545526e+03
2.012357e+03,1.540697e+03
2.013321e+03,1.535776e+03
2.014285e+03,1.530165e+03
2.015250e+03,1.528844e+03
2.016214e+03,1.542500e+03
2.017178e+03,1.543227e+03
2.018142e+03,1.528807e+03
2.019106e+03,1.519640e+03
2.020071e+03,1.529746e+03
2.021035e+03,1.537623e+03
2.021999e+03,1.530636e+03
2.022963e+03,1.523106e+03
2.023928e+03,1.520960e+03
2.024892e+03,1.520407e+03
2.025856e+03,1.517188e+03
2.026820e+03,1.513308e+03
2.027785e+03,1.508910e+03
2.028749e+03,1.505843e+03
2.029713e+03,1.508602e+03
2.030677e+03,1.514146e+03
2.031641e+03,1.519204e+03
2.032606e+03,1.522528e+03
2.033570e+03,1.523016e+03
2.034534e+03,1.520439e+03
2.035498e+03,1.512951e+03
2.036463e+03,1.503510e+03
2.037427e+03,1.498744e+03
2.038391e+03,1.499654e+03
2.039355e+03,1.502832e+03
2.040320e+03,1.506815e+03
2.041284e+03,1.502232e+03
2.042248e+03,1.486156e+03
2.043212e+03,1.478929e+03
2.044177e+03,1.482509e+03
2.045141e+03,1.491319e+03
2.046105e+03,1.503890e+03
2.047069e+03,1.509898e+03
2.048033e+03,1.496830e+03
2.048998e+03,1.489270e+03
2.049962e+03,1.489975e+03
2.050926e+03,1.491551e+03
2.051890e+03,1.489937e+03
2.052854e+03,1.486289e+03
2.053819e+03,1.479127e+03
2.054783e+03,1.473122e+03
2.055747e+03,1.472590e+03
2.056711e+03,1.473460e+03
2.057676e+03,1.471778e+03
2.058640e+03,1.469273e+03
2.059604e+03,1.464610e+03
2.060568e+03,1.461349e+03
2.061533e+03,1.469409e+03
2.062497e+03,1.478986e+03
2.063461e+03,1.480141e+03
2.064425e+03,1.476171e+03
2.065390e+03,1.469738e+03
2.066354e+03,1.462151e+03
2.067318e+03,1.455080e+03
2.068282e+03,1.450520e+03
2.069247e+03,1.451933e+03
2.070211e+03,1.457152e+03
2.071175e+03,1.453085e+03
2.072139e+03,1.444107e+03
2.073104e+03,1.439858e+03
2.074068e+03,1.441452e+03
2.075032e+03,1.449492e+03
2.075996e+03,1.461115e+03
2.076960e+03,1.465582e+03
2.077925e+03,1.460657e+03
2.078889e+03,1.457824e+03
2.079853e+03,1.458083e+03
2.080817e+03,1.452205e+03
2.081782e+03,1.439629e+03
2.082746e+03,1.431829e+03
2.083710e+03,1.438726e+03
2.084674e+03,1.435891e+03
2.085639e+03,1.422858e+03
2.086603e+03,1.413581e+03
2.087567e+03,1.414818e+03
2.088531e+03,1.417983e+03
2.089496e+03,1.421679e+03
2.090460e+03,1.421974e+03
2.091424e+03,1.418412e+03
2.092388e+03,1.416251e+03
2.093353e+03,1.419625e+03
2.094317e+03,1.420802e+03
2.095281e+03,1.414666e+03
2.096245e+03,1.410553e+03
2.097209e+03,1.423580e+03
2.098174e+03,1.434205e+03
2.099138e+03,1.434656e+03
2.100102e+03,1.430100e+03
2.101066e+03,1.423066e+03
2.102031e+03,1.416569e+03
2.102995e+03,1.415351e+03
2.103959e+03,1.413966e+03
2.104923e+03,1.407215e+03
2.105887e+03,1.399253e+03
2.106852e+03,1.390101e+03
2.107816e+03,1.386099e+03
2.108780e+03,1.397201e+03
2.109744e+03,1.414309e+03
2.110708e+03,1.415998e+03
2.111673e+03,1.410095e+03
2.112637e+03,1.404391e+03
2.113601e+03,1.399325e+03
2.114565e+03,1.398102e+03
2.115530e+03,1.398451e+03
2.116494e+03,1.393891e+03
2.117458e+03,1.388034e+03
2.118422e+03,1.388385e+03
2.119387e+03,1.392760e+03
2.120351e+03,1.397933e+03
2.121315e+03,1.401347e+03
2.122279e+03,1.397655e+03
2.123244e+03,1.386753e+03
2.124208e+03,1.374307e+03
2.125172e+03,1.363004e+03
2.126136e+03,1.362035e+03
2.127101e+03,1.375063e+03
2.128065e+03,1.379625e+03
2.129029e+03,1.376784e+03
2.129993e+03,1.377913e+03
2.130958e+03,1.383809e+03
2.131922e+03,1.384651e+03
2.132886e+03,1.380000e+03
2.133850e+03,1.374649e+03
2.134814e+03,1.370571e+03
2.135779e+03,1.368343e+03
2.136743e+03,1.367828e+03
2.137707e+03,1.366848e+03
2.138671e+03,1.365701e+03
2.139636e+03,1.362252e+03
2.140600e+03,1.350708e+03
2.141564e+03,1.349506e+03
2.142528e+03,1.360686e+03
2.143493e+03,1.365794e+03
2.144457e+03,1.354940e+03
2.145421e+03,1.343783e+03
2.146385e+03,1.334515e+03
2.147350e+03,1.337849e+03
2.148314e+03,1.360121e+03
2.149278e+03,1.375191e+03
2.150242e+03,1.353833e+03
2.151207e+03,1.339776e+03
2.152171e+03,1.340139e+03
2.153135e+03,1.342568e+03
2.154099e+03,1.338409e+03
2.155063e+03,1.338192e+03
2.156028e+03,1.345606e+03
2.156992e+03,1.352042e+03
2.157956e+03,1.348345e+03
2.158920e+03,1.343034e+03
2.159885e+03,1.339127e+03
2.160849e+03,1.337047e+03
2.161813e+03,1.337976e+03
2.162777e+03,1.338080e+03
2.163741e+03,1.335002e+03
2.164706e+03,1.328680e+03
2.165670e+03,1.319204e+03
2.166634e+03,1.312244e+03
2.167598e+03,1.315475e+03
2.168563e+03,1.318220e+03
2.169527e+03,1.314000e+03
2.170491e+03,1.308285e+03
2.171455e+03,1.309798e+03
2.172420e+03,1.311629e+03
2.173384e+03,1.308823e+03
2.174348e+03,1.305828e+03
2.175312e+03,1.307309e+03
2.176277e+03,1.307590e+03
2.177241e+03,1.298480e+03
2.178205e+03,1.289502e+03
2.179169e+03,1.287732e+03
2.180134e+03,1.289678e+03
2.181098e+03,1.290974e+03
2.182062e+03,1.291168e+03
2.183026e+03,1.288471e+03
2.183990e+03,1.285493e+03
2.184955e+03,1.287471e+03
2.185919e+03,1.289943e+03
2.186883e+03,1.288200e+03
2.187847e+03,1.285177e+03
2.188812e+03,1.284123e+03
2.189776e+03,1.285830e+03
2.190740e+03,1.294731e+03
2.191704e+03,1.301597e+03
2.192668e+03,1.296003e+03
2.193633e+03,1.286219e+03
2.194597e+03,1.283397e+03
2.195561e+03,1.283394e+03
2.196525e+03,1.281738e+03
2.197490e+03,1.279459e+03
2.198454e+03,1.279712e+03
2.199418e+03,1.278929e+03
2.200382e+03,1.273662e+03
2.201347e+03,1.267926e+03
2.202311e+03,1.266112e+03
2.203275e+03,1.267804e+03
2.204239e+03,1.273603e+03
2.205204e+03,1.278646e+03
2.206168e+03,1.278082e+03
2.207132e+03,1.275199e+03
2.208096e+03,1.273272e+03
2.209061e+03,1.269553e+03
2.210025e+03,1.260013e+03
2.210989e+03,1.249459e+03
2.211953e+03,1.245473e+03
2.212917e+03,1.247846e+03
2.213882e+03,1.253773e+03
2.214846e+03,1.259394e+03
2.215810e+03,1.258236e+03
2.216774e+03,1.254034e+03
2.217739e+03,1.252408e+03
2.218703e+03,1.253713e+03
2.219667e+03,1.261114e+03
2.220631e+03,1.267855e+03
2.221595e+03,1.267041e+03
2.222560e+03,1.260786e+03
2.223524e+03,1.247579e+03
2.224488e+03,1.235002e+03
2.225452e+03,1.234614e+03
2.226417e+03,1.238560e+03
2.227381e+03,1.239789e+03
2.228345e+03,1.240459e+03
2.229309e+03,1.242471e+03
2.230274e+03,1.243562e+03
2.231238e+03,1.242046e+03
2.232202e+03,1.239123e+03
2.233166e+03,1.238539e+03
2.234131e+03,1.237178e+03
2.235095e+03,1.230619e+03
2.236059e+03,1.225225e+03
2.237023e+03,1.235826e+03
2.237988e+03,1.244410e+03
2.238952e+03,1.237201e+03
2.239916e+03,1.224000e+03
2.240880e+03,1.216843e+03
2.241844e+03,1.212952e+03
2.242809e+03,1.209926e+03
2.243773e+03,1.208927e+03
2.244737e+03,1.212420e+03
2.245701e+03,1.215589e+03
2.246666e+03,1.212187e+03
2.247630e+03,1.210235e+03
2.248594e+03,1.219793e+03
2.249558e+03,1.229541e+03
2.250522e+03,1.225963e+03
2.251487e+03,1.219503e+03
2.252451e+03,1.212402e+03
2.253415e+03,1.206489e+03
2.254379e+03,1.209227e+03
2.255344e+03,1.208896e+03
2.256308e+03,1.199868e+03
2.257272e+03,1.192159e+03
2.258236e+03,1.199692e+03
2.259201e+03,1.204411e+03
2.260165e+03,1.198868e+03
2.261129e+03,1.193118e+03
2.262093e+03,1.199227e+03
2.263058e+03,1.200462e+03
2.264022e+03,1.192391e+03
2.264986e+03,1.185346e+03
2.265950e+03,1.185637e+03
2.266915e+03,1.187240e+03
2.267879e+03,1.187920e+03
2.268843e+03,1.186098e+03
2.269807e+03,1.181735e+03
2.270771e+03,1.178976e+03
2.271736e+03,1.180788e+03
2.272700e+03,1.179296e+03
2.273664e+03,1.169686e+03
2.274628e+03,1.167787e+03
2.275593e+03,1.186223e+03
2.276557e+03,1.193380e+03
2.277521e+03,1.185351e+03
2.278485e+03,1.176439e+03
2.279449e+03,1.172578e+03
2.280414e+03,1.170223e+03
2.281378e+03,1.168985e+03
2.282342e+03,1.168873e+03
2.283306e+03,1.170170e+03
2.284271e+03,1.168973e+03
2.285235e+03,1.165319e+03
2.286199e+03,1.163562e+03
2.287163e+03,1.168276e+03
2.288128e+03,1.167196e+03
2.289092e+03,1.160224e+03
2.290056e+03,1.159365e+03
2.291020e+03,1.167988e+03
2.291985e+03,1.166003e+03
2.292949e+03,1.155576e+03
2.293913e+03,1.151040e+03
2.294877e+03,1.153451e+03
2.295842e+03,1.157128e+03
2.296806e+03,1.160536e+03
2.297770e+03,1.160483e+03
2.298734e+03,1.156847e+03
2.299698e+03,1.149605e+03
2.300663e+03,1.140748e+03
2.301627e+03,1.145453e+03
2.302591e+03,1.155392e+03
2.303555e+03,1.149333e+03
2.304520e+03,1.132579e+03
2.305484e+03,1.130450e+03
2.306448e+03,1.136805e+03
2.307412e+03,1.141790e+03
2.308376e+03,1.143773e+03
2.309341e+03,1.138295e+03
2.310305e+03,1.130940e+03
2.311269e+03,1.130180e+03
2.312233e+03,1.133574e+03
2.313198e+03,1.136393e+03
2.314162e+03,1.139247e+03
2.315126e+03,1.145324e+03
2.316090e+03,1.148984e+03
2.317055e+03,1.143356e+03
2.318019e+03,1.133722e+03
2.318983e+03,1.119930e+03
2.319947e+03,1.110759e+03
2.320912e+03,1.117008e+03
2.321876e+03,1.126447e+03
2.322840e+03,1.130133e+03
2.323804e+03,1.131580e+03
2.324769e+03,1.132969e+03
2.325733e+03,1.131676e+03
2.326697e+03,1.122186e+03
2.327661e+03,1.115193e+03
2.328625e+03,1.113003e+03
2.329590e+03,1.111660e+03
2.330554e+03,1.109980e+03
2.331518e+03,1.110785e+03
2.332482e+03,1.114612e+03
2.333447e+03,1.114707e+03
2.334411e+03,1.104778e+03
2.335375e+03,1.098238e+03
2.336339e+03,1.095865e+03
2.337303e+03,1.095681e+03
2.338268e+03,1.096842e+03
2.339232e+03,1.099351e+03
2.340196e+03,1.102918e+03
2.341160e+03,1.102632e+03
2.342125e+03,1.096345e+03
2.343089e+03,1.100407e+03
2.344053e+03,1.109327e+03
2.345017e+03,1.105162e+03
2.345982e+03,1.088669e+03
2.346946e+03,1.086370e+03
2.347910e+03,1.092959e+03
2.348874e+03,1.090498e+03
2.349839e+03,1.081340e+03
2.350803e+03,1.078809e+03
2.351767e+03,1.081600e+03
2.352731e+03,1.090821e+03
2.353696e+03,1.099580e+03
2.354660e+03,1.092584e+03
2.355624e+03,1.080540e+03
2.356588e+03,1.083902e+03
2.357552e+03,1.089958e+03
2.358517e+03,1.086386e+03
2.359481e+03,1.080183e+03
2.360445e+03,1.078568e+03
2.361409e+03,1.078133e+03
2.362374e+03,1.078365e+03
2.363338e+03,1.076054e+03
2.364302e+03,1.064835e+03
2.365266e+03,1.061147e+03
2.366230e+03,1.070093e+03
2.367195e+03,1.078726e+03
2.368159e+03,1.077317e+03
2.369123e+03,1.074158e+03
2.370087e+03,1.071204e+03
2.371052e+03,1.069572e+03
2.372016e+03,1.070469e+03
2.372980e+03,1.070929e+03
2.373944e+03,1.070522e+03
2.374909e+03,1.071224e+03
2.375873e+03,1.074700e+03
2.376837e+03,1.075280e+03
2.377801e+03,1.073263e+03
2.378766e+03,1.067870e+03
2.379730e+03,1.059549e+03
2.380694e+03,1.054173e+03
2.381658e+03,1.052266e+03
2.382623e+03,1.055205e+03
2.383587e+03,1.060085e+03
2.384551e+03,1.058996e+03
2.385515e+03,1.053844e+03
2.386479e+03,1.046579e+03
2.387444e+03,1.041233e+03
2.388408e+03,1.047083e+03
2.389372e+03,1.054877e+03
2.390336e+03,1.053549e+03
2.391301e+03,1.049880e+03
2.392265e+03,1.049790e+03
2.393229e+03,1.049579e+03
2.394193e+03,1.047042e+03
2.395157e+03,1.044798e+03
2.396122e+03,1.045993e+03
2.397086e+03,1.044856e+03
2.398050e+03,1.039585e+03
2.399014e+03,1.034827e+03
2.399979e+03,1.031497e+03
2.400943e+03,1.032670e+03
2.401907e+03,1.038426e+03
2.402871e+03,1.039373e+03
2.403836e+03,1.033724e+03
2.404800e+03,1.027738e+03
2.405764e+03,1.022253e+03
2.406728e+03,1.025728e+03
2.407693e+03,1.035657e+03
2.408657e+03,1.034146e+03
2.409621e+03,1.025038e+03
2.410585e+03,1.028985e+03
2.411550e+03,1.039377e+03
2.412514e+03,1.036974e+03
2.413478e+03,1.027009e+03
2.414442e+03,1.022918e+03
2.415406e+03,1.021325e+03
2.416371e+03,1.018198e+03
2.417335e+03,1.014527e+03
2.418299e+03,1.009225e+03
2.419263e+03,1.007876e+03
2.420228e+03,1.014484e+03
2.421192e+03,1.021178e+03
2.422156e+03,1.022304e+03
2.423120e+03,1.018046e+03
2.424084e+03,1.006369e+03
2.425049e+03,9.989188e+02
2.426013e+03,1.006892e+03
2.426977e+03,1.008223e+03
2.427941e+03,1.001988e+03
2.428906e+03,9.989778e+02
2.429870e+03,1.001887e+03
2.430834e+03,1.003371e+03
2.431798e+03,1.003670e+03
2.432763e+03,1.004275e+03
2.433727e+03,1.004654e+03
2.434691e+03,9.963975e+02
2.435655e+03,9.857092e+02
2.436620e+03,9.861885e+02
2.437584e+03,9.939084e+02
2.438548e+03,1.002555e+03
2.439512e+03,1.008030e+03
2.440477e+03,1.005353e+03
2.441441e+03,9.995078e+02
2.442405e+03,1.000196e+03
2.443369e+03,9.977911e+02
2.444333e+03,9.875683e+02
2.445298e+03,9.785037e+02
2.446262e+03,9.809395e+02
2.447226e+03,9.794590e+02
2.448190e+03,9.717082e+02
2.449155e+03,9.666708e+02
2.450119e+03,9.718528e+02
2.451083e+03,9.781881e+02
2.452047e+03,9.845149e+02
2.453011e+03,9.831058e+02
2.453976e+03,9.720315e+02
2.454940e+03,9.688737e+02
2.455904e+03,9.723033e+02
2.456868e+03,9.780253e+02
2.457833e+03,9.828653e+02
2.458797e+03,9.785017e+02
2.459761e+03,9.712247e+02
2.460725e+03,9.692901e+02
2.461690e+03,9.692717e+02
2.462654e+03,9.654587e+02
2.463618e+03,9.625638e+02
2.464582e+03,9.643977e+02
2.465547e+03,9.668105e+02
2.466511e+03,9.624933e+02
2.467475e+03,9.614021e+02
2.468439e+03,9.657987e+02
2.469404e+03,9.694802e+02
2.470368e+03,9.708185e+02
2.471332e+03,9.690205e+02
2.472296e+03,9.638604e+02
2.473260e+03,9.584397e+02
2.474225e+03,9.536148e+02
2.475189e+03,9.532132e+02
2.476153e+03,9.571246e+02
2.477117e+03,9.651288e+02
2.478082e+03,9.735750e+02
2.479046e+03,9.737879e+02
2.480010e+03,9.673452e+02
2.480974e+03,9.541266e+02
2.481938e+03,9.419431e+02
2.482903e+03,9.421174e+02
2.483867e+03,9.460528e+02
2.484831e+03,9.489120e+02
2.485795e+03,9.500882e+02
2.486760e+03,9.485831e+02
2.487724e+03,9.487589e+02
2.488688e+03,9.518118e+02
2.489652e+03,9.497413e+02
2.490617e+03,9.292764e+02
2.491581e+03,9.335761e+02
2.492545e+03,9.573800e+02
2.493509e+03,9.627940e+02
2.494474e+03,9.456711e+02
2.495438e+03,9.422348e+02
2.496402e+03,9.461796e+02
2.497366e+03,9.432656e+02
2.498331e+03,9.372858e+02
2.499295e+03,9.364625e+02
2.500259e+03,9.375189e+02
2.501223e+03,9.393307e+02
2.502188e+03,9.398560e+02
2.503152e+03,9.351856e+02
2.504116e+03,9.309799e+02
2.505080e+03,9.290494e+02
2.506044e+03,9.273941e+02
2.507009e+03,9.220637e+02
2.507973e+03,9.233431e+02
2.508937e+03,9.310380e+02
2.509901e+03,9.321213e+02
2.510865e+03,9.224080e+02
2.511830e+03,9.247729e+02
2.512794e+03,9.335365e+02
2.513758e+03,9.339425e+02
2.514722e+03,9.294372e+02
2.515687e+03,9.298029e+02
2.516651e+03,9.299340e+02
2.517615e+03,9.237159e+02
2.518579e+03,9.168201e+02
2.519544e+03,9.161267e+02
2.520508e+03,9.191086e+02
2.521472e+03,9.257172e+02
2.522436e+03,9.279619e+02
2.523401e+03,9.127504e+02
2.524365e+03,9.110222e+02
2.525329e+03,9.230468e+02
2.526293e+03,9.290678e+02
2.527258e+03,9.253645e+02
2.528222e+03,9.151069e+02
2.529186e+03,9.027990e+02
2.530150e+03,9.030939e+02
2.531115e+03,9.119677e+02
2.532079e+03,9.156784e+02
2.533043e+03,9.156031e+02
2.534007e+03,9.131559e+02
2.534971e+03,9.094629e+02
2.535936e+03,9.074615e+02
2.536900e+03,9.051545e+02
2.537864e+03,9.015245e+02
2.538828e+03,8.989984e+02
2.539792e+03,8.973004e+02
2.540757e+03,8.970628e+02
2.541721e+03,8.982629e+02
2.542685e+03,8.999670e+02
2.543649e+03,9.024345e+02
2.544614e+03,9.086074e+02
2.545578e+03,9.144929e+02
2.546542e+03,9.089902e+02
2.547506e+03,8.993446e+02
2.548471e+03,9.049214e+02
2.549435e+03,9.133066e+02
2.550399e+03,9.137189e+02
2.551363e+03,9.111191e+02
2.552328e+03,9.099373e+02
2.553292e+03,9.078694e+02
2.554256e+03,9.040313e+02
2.555220e+03,8.986965e+02
2.556185e+03,8.916672e+02
2.557149e+03,8.940379e+02
2.558113e+03,9.064814e+02
2.559077e+03,9.050511e+02
2.560042e+03,8.935970e+02
2.561006e+03,8.903470e+02
2.561970e+03,8.939005e+02
2.562934e+03,8.968065e+02
2.563898e+03,8.989717e+02
2.564863e+03,9.000537e+02
2.565827e+03,8.991014e+02
2.566791e+03,8.948278e+02
2.567755e+03,8.941035e+02
2.568719e+03,8.977842e+02
2.569684e+03,8.954792e+02
2.570648e+03,8.795806e+02
2.571612e+03,8.728019e+02
2.572576e+03,8.750802e+02
2.573541e+03,8.776794e+02
2.574505e+03,8.790964e+02
2.575469e+03,8.864991e+02
2.576433e+03,8.929767e+02
2.577398e+03,8.874371e+02
2.578362e+03,8.790751e+02
2.579326e+03,8.815427e+02
2.580290e+03,8.833370e+02
2.581255e+03,8.790327e+02
2.582219e+03,8.729659e+02
2.583183e+03,8.659578e+02
2.584147e+03,8.652786e+02
2.585112e+03,8.716259e+02
2.586076e+03,8.731862e+02
2.587040e+03,8.681017e+02
2.588004e+03,8.642575e+02
2.588969e+03,8.623157e+02
2.589933e+03,8.655508e+02
2.590897e+03,8.709617e+02
2.591861e+03,8.740900e+02
2.592825e+03,8.729698e+02
2.593790e+03,8.651566e+02
2.594754e+03,8.566232e+02
2.595718e+03,8.490837e+02
2.596682e+03,8.530508e+02
2.597646e+03,8.713387e+02
2.598611e+03,8.739764e+02
2.599575e+03,8.609587e+02
2.600539e+03,8.550634e+02
2.601503e+03,8.571732e+02
2.602468e+03,8.619716e+02
2.603432e+03,8.654404e+02
2.604396e+03,8.576222e+02
2.605360e+03,8.480986e+02
2.606325e+03,8.413817e+02
2.607289e+03,8.421852e+02
2.608253e+03,8.538148e+02
2.609217e+03,8.609799e+02
2.610182e+03,8.530828e+02
2.611146e+03,8.483408e+02
2.612110e+03,8.478037e+02
2.613074e+03,8.486337e+02
2.614039e+03,8.499190e+02
2.615003e+03,8.435452e+02
2.615967e+03,8.375648e+02
2.616931e+03,8.500402e+02
2.617896e+03,8.630488e+02
2.618860e+03,8.449568e+02
2.619824e+03,8.326531e+02
2.620788e+03,8.400015e+02
2.621752e+03,8.474048e+02
2.622717e+03,8.435504e+02
2.623681e+03,8.438588e+02
2.624645e+03,8.477211e+02
2.625609e+03,8.452487e+02
2.626573e+03,8.378488e+02
2.627538e+03,8.409167e+02
2.628502e+03,8.482590e+02
2.629466e+03,8.476867e+02
2.630430e+03,8.463492e+02
2.631395e+03,8.597345e+02
2.632359e+03,8.631209e+02
2.633323e+03,8.436351e+02
2.634287e+03,8.306826e+02
2.635252e+03,8.309532e+02
2.636216e+03,8.345198e+02
2.637180e+03,8.383404e+02
2.638144e+03,8.344642e+02
2.639109e+03,8.255066e+02
2.640073e+03,8.166895e+02
2.641037e+03,8.138356e+02
2.642001e+03,8.298008e+02
2.642966e+03,8.432191e+02
2.643930e+03,8.419410e+02
2.644894e+03,8.365411e+02
2.645858e+03,8.333965e+02
2.646823e+03,8.254079e+02
2.647787e+03,8.129714e+02
2.648751e+03,8.105202e+02
2.649715e+03,8.180943e+02
2.650679e+03,8.179166e+02
2.651644e+03,8.153848e+02
2.652608e+03,8.195452e+02
2.653572e+03,8.249252e+02
2.654536e+03,8.234138e+02
2.655500e+03,8.203225e+02
2.656465e+03,8.171959e+02
2.657429e+03,8.165383e+02
2.658393e+03,8.186705e+02
2.659357e+03,8.186327e+02
2.660322e+03,8.169618e+02
2.661286e+03,8.151261e+02
2.662250e+03,8.130080e+02
2.663214e+03,8.067744e+02
2.664179e+03,8.041404e+02
2.665143e+03,8.224580e+02
2.666107e+03,8.351105e+02
2.667071e+03,8.278005e+02
2.668036e+03,8.197567e+02
2.669000e+03,8.205490e+02
2.669964e+03,8.169670e+02
2.670928e+03,8.098698e+02
2.671893e+03,8.112050e+02
2.672857e+03,8.186754e+02
2.673821e+03,8.129141e+02
2.674785e+03,8.043251e+02
2.675750e+03,8.059224e+02
2.676714e+03,8.092151e+02
2.677678e+03,8.020526e+02
2.678642e+03,7.978615e+02
2.679606e+03,7.997639e+02
2.680571e+03,8.017156e+02
2.681535e+03,8.022756e+02
2.682499e+03,8.116407e+02
2.683463e+03,8.247069e+02
2.684427e+03,8.239383e+02
2.685392e+03,8.159814e+02
2.686356e+03,8.091239e+02
2.687320e+03,8.037547e+02
2.688284e+03,8.028595e+02
2.689249e+03,7.976298e+02
2.690213e+03,7.860452e+02
2.691177e+03,7.829559e+02
2.692141e+03,7.953043e+02
2.693106e+03,8.006328e+02
2.694070e+03,8.019822e+02
2.695034e+03,8.079075e+02
2.695998e+03,8.125992e+02
2.696963e+03,8.003630e+02
2.697927e+03,7.902267e+02
2.698891e+03,7.908709e+02
2.699855e+03,7.931152e+02
2.700820e+03,7.934707e+02
2.701784e+03,7.920489e+02
2.702748e+03,7.890392e+02
2.703712e+03,7.894144e+02
2.704677e+03,7.919705e+02
2.705641e+03,7.936003e+02
2.706605e+03,7.959089e+02
2.707569e+03,8.011236e+02
2.708533e+03,8.030831e+02
2.709498e+03,7.989335e+02
2.710462e+03,7.909959e+02
2.711426e+03,7.776458e+02
2.712390e+03,7.805168e+02
2.713354e+03,7.942175e+02
2.714319e+03,7.936371e+02
2.715283e+03,7.846691e+02
2.716247e+03,7.826557e+02
2.717211e+03,7.838721e+02
2.718176e+03,7.855328e+02
2.719140e+03,7.871243e+02
2.720104e+03,7.893142e+02
2.721068e+03,7.838778e+02
2.722033e+03,7.712596e+02
2.722997e+03,7.729651e+02
2.723961e+03,7.846141e+02
2.724925e+03,7.887141e+02
2.725890e+03,7.851699e+02
2.726854e+03,7.647468e+02
2.727818e+03,7.566907e+02
2.728782e+03,7.775089e+02
2.729747e+03,7.944003e+02
2.730711e+03,7.883920e+02
2.731675e+03,7.827269e+02
2.732639e+03,7.788314e+02
2.733604e+03,7.817812e+02
2.734568e+03,7.859216e+02
2.735532e+03,7.708752e+02
2.736496e+03,7.567785e+02
2.737460e+03,7.590739e+02
2.738425e+03,7.660251e+02
2.739389e+03,7.714915e+02
2.740353e+03,7.726374e+02
2.741317e+03,7.695704e+02
2.742281e+03,7.679548e+02
2.743246e+03,7.682216e+02
2.744210e+03,7.686107e+02
2.745174e+03,7.696454e+02
2.746138e+03,7.781301e+02
2.747103e+03,7.801105e+02
2.748067e+03,7.708842e+02
2.749031e+03,7.631484e+02
2.749995e+03,7.624946e+02
2.750960e+03,7.665881e+02
2.751924e+03,7.725365e+02
2.752888e+03,7.701793e+02
2.753852e+03,7.630279e+02
2.754817e+03,7.577056e+02
2.755781e+03,7.555926e+02
2.756745e+03,7.585832e+02
2.757709e+03,7.566133e+02
2.758674e+03,7.459270e+02
2.759638e+03,7.406678e+02
2.760602e+03,7.440566e+02
2.761566e+03,7.521924e+02
2.762531e+03,7.614587e+02
2.763495e+03,7.639980e+02
2.764459e+03,7.626693e+02
2.765423e+03,7.606983e+02
2.766387e+03,7.532966e+02
2.767352e+03,7.404048e+02
2.768316e+03,7.372216e+02
2.769280e+03,7.460820e+02
2.770244e+03,7.570656e+02
2.771208e+03,7.663555e+02
2.772173e+03,7.676588e+02
2.773137e+03,7.627764e+02
2.774101e+03,7.525891e+02
2.775065e+03,7.448221e+02
2.776030e+03,7.427599e+02
2.776994e+03,7.395517e+02
2.777958e+03,7.342110e+02
2.778922e+03,7.268262e+02
2.779887e+03,7.215524e+02
2.780851e+03,7.353418e+02
2.781815e+03,7.442663e+02
2.782779e+03,7.316379e+02
2.783744e+03,7.241684e+02
2.784708e+03,7.414814e+02
2.785672e+03,7.482677e+02
2.786636e+03,7.422636e+02
2.787601e+03,7.342253e+02
2.788565e+03,7.284813e+02
2.789529e+03,7.375894e+02
2.790493e+03,7.473096e+02
2.791458e+03,7.427399e+02
2.792422e+03,7.382926e+02
2.793386e+03,7.382385e+02
2.794350e+03,7.361227e+02
2.795314e+03,7.299796e+02
2.796279e+03,7.312012e+02
2.797243e+03,7.354808e+02
2.798207e+03,7.373967e+02
2.799171e+03,7.382654e+02
2.800135e+03,7.385956e+02
2.801100e+03,7.382949e+02
2.802064e+03,7.378505e+02
2.803028e+03,7.348040e+02
2.803992e+03,7.295279e+02
2.804957e+03,7.245714e+02
2.805921e+03,7.215022e+02
2.806885e+03,7.219990e+02
2.807849e+03,7.255885e+02
2.808814e+03,7.320646e+02
2.809778e+03,7.340031e+02
2.810742e+03,7.265638e+02
2.811706e+03,7.234199e+02
2.812671e+03,7.230634e+02
2.813635e+03,7.196018e+02
2.814599e+03,7.171404e+02
2.815563e+03,7.292896e+02
2.816528e+03,7.394918e+02
2.817492e+03,7.411750e+02
2.818456e+03,7.297228e+02
2.819420e+03,7.080378e+02
2.820385e+03,7.003009e+02
2.821349e+03,7.070529e+02
2.822313e+03,7.260710e+02
2.823277e+03,7.388698e+02
2.824241e+03,7.308948e+02
2.825206e+03,7.205187e+02
2.826170e+03,7.188738e+02
2.827134e+03,7.211448e+02
2.828098e+03,7.251781e+02
2.829063e+03,7.233434e+02
2.830027e+03,7.182178e+02
2.830991e+03,7.152307e+02
2.831955e+03,7.156204e+02
2.832919e+03,7.218732e+02
2.833884e+03,7.238832e+02
2.834848e+03,7.205909e+02
2.835812e+03,7.222078e+02
2.836776e+03,7.289651e+02
2.837741e+03,7.333972e+02
2.838705e+03,7.331446e+02
2.839669e+03,7.241412e+02
2.840633e+03,7.185961e+02
2.841598e+03,7.236340e+02
2.842562e+03,7.262366e+02
2.843526e+03,7.238956e+02
2.844490e+03,7.238079e+02
2.845455e+03,7.230588e+02
2.846419e+03,7.153975e+02
2.847383e+03,7.108929e+02
2.848347e+03,7.267036e+02
2.849312e+03,7.369673e+02
2.850276e+03,7.369456e+02
2.851240e+03,7.304965e+02
2.852204e+03,7.208949e+02
2.853168e+03,7.225412e+02
2.854133e+03,7.276835e+02
2.855097e+03,7.287039e+02
2.856061e+03,7.242024e+02
2.857025e+03,7.136373e+02
2.857990e+03,7.072441e+02
2.858954e+03,7.085323e+02
2.859918e+03,7.028740e+02
2.860882e+03,7.011539e+02
2.861846e+03,7.231414e+02
2.862811e+03,7.424543e+02
2.863775e+03,7.316865e+02
2.864739e+03,7.192038e+02
2.865703e+03,7.116188e+02
2.866668e+03,7.223769e+02
2.867632e+03,7.398916e+02
2.868596e+03,7.271244e+02
2.869560e+03,7.091431e+02
2.870525e+03,7.205358e+02
2.871489e+03,7.317979e+02
2.872453e+03,7.350988e+02
2.873417e+03,7.357892e+02
2.874382e+03,7.348225e+02
2.875346e+03,7.271156e+02
2.876310e+03,7.226819e+02
2.877274e+03,7.402908e+02
2.878239e+03,7.534642e+02
2.879203e+03,7.525319e+02
2.880167e+03,7.401693e+02
2.881131e+03,7.171359e+02
2.882095e+03,7.166274e+02
2.883060e+03,7.266516e+02
2.884024e+03,7.253964e+02
2.884988e+03,7.234536e+02
2.885952e+03,7.320531e+02
2.886917e+03,7.341617e+02
2.887881e+03,7.260378e+02
2.888845e+03,7.282752e+02
2.889809e+03,7.336186e+02
2.890773e+03,7.194735e+02
2.891738e+03,7.049542e+02
2.892702e+03,7.207419e+02
2.893666e+03,7.244049e+02
2.894630e+03,7.094446e+02
2.895595e+03,7.085554e+02
2.896559e+03,7.200051e+02
2.897523e+03,7.286027e+02
2.898487e+03,7.334816e+02
2.899452e+03,7.298112e+02
2.900416e+03,7.339222e+02
2.901380e+03,7.478046e+02
2.902344e+03,7.417766e+02
2.903309e+03,7.158812e+02
2.904273e+03,7.144824e+02
2.905237e+03,7.238983e+02
2.906201e+03,7.307318e+02
2.907166e+03,7.280761e+02
2.908130e+03,7.131693e+02
2.909094e+03,7.082745e+02
2.910058e+03,7.160309e+02
2.911022e+03,7.190311e+02
2.911987e+03,7.131049e+02
2.912951e+03,6.897900e+02
2.913915e+03,6.809778e+02
2.914879e+03,7.197660e+02
2.915844e+03,7.286065e+02
2.916808e+03,7.065228e+02
2.917772e+03,7.052235e+02
2.918736e+03,7.115417e+02
2.919700e+03,7.012385e+02
2.920665e+03,6.897390e+02
2.921629e+03,6.829496e+02
2.922593e+03,6.968434e+02
2.923557e+03,7.237205e+02
2.924522e+03,7.221119e+02
2.925486e+03,7.050552e+02
2.926450e+03,7.000469e+02
2.927414e+03,7.005674e+02
2.928379e+03,7.061024e+02
2.929343e+03,7.062307e+02
2.930307e+03,7.009496e+02
2.931271e+03,6.935945e+02
2.932236e+03,6.897274e+02
2.933200e+03,7.068006e+02
2.934164e+03,7.121984e+02
2.935128e+03,6.910172e+02
2.936093e+03,6.854983e+02
2.937057e+03,6.971105e+02
2.938021e+03,6.909257e+02
2.938985e+03,6.804220e+02
2.939949e+03,6.959333e+02
2.940914e+03,6.994767e+02
2.941878e+03,6.795119e+02
2.942842e+03,6.706654e+02
2.943806e+03,6.773666e+02
2.944771e+03,6.805377e+02
2.945735e+03,6.817135e+02
2.946699e+03,6.846273e+02
2.947663e+03,6.829329e+02
2.948627e+03,6.742551e+02
2.949592e+03,6.760643e+02
2.950556e+03,6.890446e+02
2.951520e+03,6.720465e+02
2.952484e+03,6.543660e+02
2.953449e+03,6.667239e+02
2.954413e+03,6.838018e+02
2.955377e+03,6.947391e+02
2.956341e+03,7.075192e+02
2.957306e+03,7.201260e+02
2.958270e+03,7.215079e+02
2.959234e+03,7.112688e+02
2.960198e+03,6.918975e+02
2.961163e+03,6.742197e+02
2.962127e+03,6.607723e+02
2.963091e+03,6.563069e+02
2.964055e+03,6.616178e+02
2.965020e+03,6.855775e+02
2.965984e+03,6.965401e+02
2.966948e+03,6.688486e+02
2.967912e+03,6.498731e+02
2.968876e+03,6.634209e+02
2.969841e+03,6.592549e+02
2.970805e+03,6.501793e+02
2.971769e+03,6.652549e+02
2.972733e+03,6.777158e+02
2.973698e+03,6.672307e+02
2.974662e+03,6.550875e+02
2.975626e+03,6.470494e+02
2.976590e+03,6.563050e+02
2.977554e+03,6.675921e+02
2.978519e+03,6.592241e+02
2.979483e+03,6.486547e+02
2.980447e+03,6.484325e+02
2.981411e+03,6.476663e+02
2.982376e+03,6.471588e+02
2.983340e+03,6.620862e+02
2.984304e+03,6.704210e+02
2.985268e+03,6.478775e+02
2.986233e+03,6.380324e+02
2.987197e+03,6.732344e+02
2.988161e+03,6.733365e+02
2.989125e+03,6.465223e+02
2.990090e+03,6.306038e+02
2.991054e+03,6.273499e+02
2.992018e+03,6.385433e+02
2.992982e+03,6.437579e+02
2.993947e+03,6.344609e+02
2.994911e+03,6.335315e+02
2.995875e+03,6.412914e+02
2.996839e+03,6.589373e+02
2.997803e+03,6.650756e+02
2.998768e+03,6.459355e+02
2.999732e+03,6.338291e+02
3.000696e+03,6.354743e+02
3.001660e+03,6.348145e+02
3.002625e+03,6.350096e+02
3.003589e+03,6.400550e+02
3.004553e+03,6.442037e+02
3.005517e+03,6.456238e+02
3.006481e+03,6.390209e+02
3.007446e+03,6.275273e+02
3.008410e+03,6.263503e+02
3.009374e+03,6.308018e+02
3.010338e+03,6.382883e+02
3.011303e+03,6.403563e+02
3.012267e+03,6.330974e+02
3.013231e+03,6.387578e+02
3.014195e+03,6.457875e+02
3.015160e+03,6.274215e+02
3.016124e+03,6.211058e+02
3.017088e+03,6.378661e+02
3.018052e+03,6.503453e+02
3.019017e+03,6.525979e+02
3.019981e+03,6.432189e+02
3.020945e+03,6.332727e+02
3.021909e+03,6.320371e+02
3.022874e+03,6.342927e+02
3.023838e+03,6.371631e+02
3.024802e+03,6.312967e+02
3.025766e+03,6.232390e+02
3.026730e+03,6.317962e+02
3.027695e+03,6.415476e+02
3.028659e+03,6.461976e+02
3.029623e+03,6.423051e+02
3.030587e+03,6.336368e+02
3.031552e+03,6.358788e+02
3.032516e+03,6.428898e+02
3.033480e+03,6.567283e+02
3.034444e+03,6.494611e+02
3.035408e+03,6.219969e+02
3.036373e+03,6.280654e+02
3.037337e+03,6.537140e+02
3.038301e+03,6.528908e+02
3.039265e+03,6.461406e+02
3.040230e+03,6.393315e+02
3.041194e+03,6.444844e+02
3.042158e+03,6.554453e+02
3.043122e+03,6.495878e+02
3.044087e+03,6.384798e+02
3.045051e+03,6.371357e+02
3.046015e+03,6.367881e+02
3.046979e+03,6.357309e+02
3.047944e+03,6.176226e+02
3.048908e+03,6.014557e+02
3.049872e+03,6.170226e+02
3.050836e+03,6.322399e+02
3.051801e+03,6.253182e+02
3.052765e+03,6.101345e+02
3.053729e+03,5.948428e+02
3.054693e+03,6.140229e+02
3.055657e+03,6.378076e+02
3.056622e+03,6.443847e+02
3.057586e+03,6.445787e+02
3.058550e+03,6.429173e+02
3.059514e+03,6.355879e+02
3.060479e+03,6.322925e+02
3.061443e+03,6.570555e+02
3.062407e+03,6.639697e+02
3.063371e+03,6.435670e+02
3.064335e+03,6.111615e+02
3.065300e+03,5.814755e+02
3.066264e+03,6.162955e+02
3.067228e+03,6.493140e+02
3.068192e+03,6.355868e+02
3.069157e+03,6.206259e+02
3.070121e+03,6.124652e+02
3.071085e+03,6.187858e+02
3.072049e+03,6.218652e+02
3.073014e+03,5.790053e+02
3.073978e+03,5.667757e+02
3.074942e+03,6.013553e+02
3.075906e+03,6.221553e+02
3.076871e+03,6.282521e+02
3.077835e+03,6.223893e+02
3.078799e+03,6.167920e+02
3.079763e+03,6.198531e+02
3.080728e+03,6.138040e+02
3.081692e+03,6.021663e+02
3.082656e+03,5.967849e+02
3.083620e+03,6.005919e+02
3.084584e+03,6.139490e+02
3.085549e+03,6.281542e+02
3.086513e+03,6.406034e+02
3.087477e+03,6.273445e+02
3.088441e+03,6.156049e+02
3.089406e+03,6.457932e+02
3.090370e+03,6.438842e+02
3.091334e+03,6.071669e+02
3.092298e+03,6.117513e+02
3.093262e+03,6.361662e+02
3.094227e+03,6.323625e+02
3.095191e+03,6.206143e+02
3.096155e+03,6.063900e+02
3.097119e+03,5.946024e+02
3.098084e+03,5.905570e+02
3.099048e+03,6.035285e+02
3.100012e+03,6.208674e+02
3.100976e+03,6.370334e+02
3.101941e+03,6.288858e+02
3.102905e+03,6.047554e+02
3.103869e+03,6.258860e+02
3.104833e+03,6.405668e+02
3.105798e+03,6.171357e+02
3.106762e+03,5.996376e+02
3.107726e+03,5.995173e+02
3.108690e+03,6.174732e+02
3.109655e+03,6.324023e+02
3.110619e+03,6.099372e+02
3.111583e+03,6.063206e+02
3.112547e+03,6.247108e+02
3.113511e+03,6.158661e+02
3.114476e+03,5.960771e+02
3.115440e+03,6.092449e+02
3.116404e+03,6.206823e+02
3.117368e+03,6.189498e+02
3.118333e+03,6.181279e+02
3.119297e+03,6.208121e+02
3.120261e+03,6.314944e+02
3.121225e+03,6.365950e+02
3.122189e+03,6.282752e+02
3.123154e+03,6.239559e+02
3.124118e+03,6.236140e+02
3.125082e+03,6.212238e+02
3.126046e+03,6.222039e+02
3.127011e+03,6.287051e+02
3.127975e+03,6.241205e+02
3.128939e+03,6.103264e+02
3.129903e+03,5.947472e+02
3.130868e+03,5.893807e+02
3.131832e+03,6.171159e+02
3.132796e+03,6.272326e+02
3.133760e+03,6.208129e+02
3.134725e+03,6.295655e+02
3.135689e+03,6.365461e+02
3.136653e+03,6.238341e+02
3.137617e+03,6.165367e+02
3.138582e+03,6.222438e+02
3.139546e+03,6.145099e+02
3.140510e+03,6.125023e+02
3.141474e+03,6.453947e+02
3.142438e+03,6.459799e+02
3.143403e+03,6.114355e+02
3.144367e+03,5.974562e+02
3.145331e+03,5.990464e+02
3.146295e+03,6.087521e+02
3.147260e+03,6.279814e+02
3.148224e+03,6.539943e+02
3.149188e+03,6.358051e+02
3.150152e+03,6.020179e+02
3.151116e+03,5.906976e+02
3.152081e+03,5.844084e+02
3.153045e+03,5.735375e+02
3.154009e+03,5.951221e+02
3.154973e+03,6.279028e+02
3.155938e+03,6.169683e+02
3.156902e+03,6.174758e+02
3.157866e+03,6.412245e+02
3.158830e+03,6.453213e+02
3.159795e+03,6.341166e+02
3.160759e+03,6.145203e+02
3.161723e+03,6.049857e+02
3.162687e+03,6.229570e+02
3.163652e+03,6.488996e+02
3.164616e+03,6.672197e+02
3.165580e+03,6.457493e+02
3.166544e+03,6.292421e+02
3.167509e+03,6.360610e+02
3.168473e+03,6.294814e+02
3.169437e+03,6.123318e+02
3.170401e+03,6.042859e+02
3.171365e+03,6.025333e+02
3.172330e+03,6.067035e+02
3.173294e+03,6.132663e+02
3.174258e+03,6.194558e+02
3.175222e+03,6.215983e+02
3.176187e+03,6.166441e+02
3.177151e+03,6.019159e+02
3.178115e+03,5.989451e+02
3.179079e+03,6.099576e+02
3.180043e+03,6.435370e+02
3.181008e+03,6.572781e+02
3.181972e+03,6.396087e+02
3.182936e+03,6.139515e+02
3.183900e+03,5.909787e+02
3.184865e+03,5.903243e+02
3.185829e+03,6.029114e+02
3.186793e+03,6.472356e+02
3.187757e+03,6.352310e+02
3.188722e+03,5.895948e+02
3.189686e+03,5.572219e+02
3.190650e+03,5.642677e+02
3.191614e+03,6.113400e+02
3.192579e+03,6.302899e+02
3.193543e+03,6.253101e+02
3.194507e+03,6.234572e+02
3.195471e+03,6.340194e+02
3.196436e+03,6.622891e+02
3.197400e+03,6.317380e+02
3.198364e+03,5.873010e+02
3.199328e+03,6.072506e+02
3.200292e+03,6.343485e+02
3.201257e+03,0.000000e+00
3.202221e+03,0.000000e+00
3.203185e+03,0.000000e+00
3.204149e+03,0.000000e+00
3.205114e+03,0.000000e+00
3.206078e+03,0.000000e+00
3.207042e+03,0.000000e+00
3.208006e+03,0.000000e+00
3.208970e+03,0.000000e+00
3.209935e+03,0.000000e+00
3.210899e+03,0.000000e+00
3.211863e+03,0.000000e+00
3.212827e+03,0.000000e+00
3.213792e+03,0.000000e+00
3.214756e+03,0.000000e+00
3.215720e+03,0.000000e+00
3.216684e+03,0.000000e+00
3.217649e+03,0.000000e+00
3.218613e+03,0.000000e+00
3.219577e+03,0.000000e+00
3.220541e+03,0.000000e+00
3.221506e+03,0.000000e+00
3.222470e+03,0.000000e+00
3.223434e+03,0.000000e+00
3.224398e+03,0.000000e+00
3.225363e+03,0.000000e+00
3.226327e+03,0.000000e+00
3.227291e+03,0.000000e+00
3.228255e+03,0.000000e+00
3.229219e+03,0.000000e+00
3.230184e+03,0.000000e+00
3.231148e+03,0.000000e+00
3.232112e+03,0.000000e+00
3.233076e+03,0.000000e+00
3.234041e+03,0.000000e+00
3.235005e+03,0.000000e+00
3.235969e+03,0.000000e+00
3.236933e+03,0.000000e+00
3.237897e+03,0.000000e+00
3.238862e+03,0.000000e+00
3.239826e+03,0.000000e+00
3.240790e+03,0.000000e+00
3.241754e+03,0.000000e+00
3.242719e+03,0.000000e+00
3.243683e+03,0.000000e+00
3.244647e+03,0.000000e+00
3.245611e+03,0.000000e+00
3.246576e+03,0.000000e+00
3.247540e+03,0.000000e+00
3.248504e+03,0.000000e+00
3.249468e+03,0.000000e+00
3.250433e+03,0.000000e+00
3.251397e+03,0.000000e+00
3.252361e+03,0.000000e+00
3.253325e+03,0.000000e+00
3.254290e+03,0.000000e+00
3.255254e+03,0.000000e+00
3.256218e+03,0.000000e+00
3.257182e+03,0.000000e+00
3.258146e+03,0.000000e+00
3.259111e+03,0.000000e+00
3.260075e+03,0.000000e+00
3.261039e+03,0.000000e+00
3.262003e+03,0.000000e+00
3.262968e+03,0.000000e+00
3.263932e+03,0.000000e+00
3.264896e+03,0.000000e+00
3.265860e+03,0.000000e+00
3.266824e+03,0.000000e+00
3.267789e+03,0.000000e+00
3.268753e+03,0.000000e+00
3.269717e+03,0.000000e+00
3.270681e+03,0.000000e+00
3.271646e+03,0.000000e+00
3.272610e+03,0.000000e+00
3.273574e+03,0.000000e+00
3.274538e+03,0.000000e+00
3.275503e+03,0.000000e+00
3.276467e+03,0.000000e+00
3.277431e+03,0.000000e+00
3.278395e+03,0.000000e+00
3.279360e+03,0.000000e+00
3.280324e+03,0.000000e+00
3.281288e+03,0.000000e+00
3.282252e+03,0.000000e+00
3.283217e+03,0.000000e+00
3.284181e+03,0.000000e+00
3.285145e+03,0.000000e+00
3.286109e+03,0.000000e+00
3.287073e+03,0.000000e+00
3.288038e+03,0.000000e+00
3.289002e+03,0.000000e+00
3.289966e+03,0.000000e+00
3.290930e+03,0.000000e+00
3.291895e+03,0.000000e+00
3.292859e+03,0.000000e+00
3.293823e+03,0.000000e+00
3.294787e+03,0.000000e+00
3.295751e+03,0.000000e+00
3.296716e+03,0.000000e+00
3.297680e+03,0.000000e+00
3.298644e+03,0.000000e+00
3.299608e+03,0.000000e+00
3.300573e+03,0.000000e+00
3.301537e+03,0.000000e+00
3.302501e+03,0.000000e+00
3.303465e+03,0.000000e+00
3.304430e+03,0.000000e+00
3.305394e+03,0.000000e+00
3.306358e+03,0.000000e+00
3.307322e+03,0.000000e+00
3.308287e+03,0.000000e+00
3.309251e+03,0.000000e+00
3.310215e+03,0.000000e+00
3.311179e+03,0.000000e+00
3.312144e+03,0.000000e+00
3.313108e+03,0.000000e+00
3.314072e+03,0.000000e+00
3.315036e+03,0.000000e+00
3.316000e+03,0.000000e+00
3.316965e+03,0.000000e+00
3.317929e+03,0.000000e+00
3.318893e+03,0.000000e+00
3.319857e+03,0.000000e+00
3.320822e+03,0.000000e+00
3.321786e+03,0.000000e+00
3.322750e+03,0.000000e+00
3.323714e+03,0.000000e+00
3.324678e+03,0.000000e+00
3.325643e+03,0.000000e+00
3.326607e+03,0.000000e+00
3.327571e+03,0.000000e+00
3.328535e+03,0.000000e+00
3.329500e+03,0.000000e+00
3.330464e+03,0.000000e+00
3.331428e+03,0.000000e+00
3.332392e+03,0.000000e+00
3.333357e+03,0.000000e+00
3.334321e+03,0.000000e+00
3.335285e+03,0.000000e+00
3.336249e+03,0.000000e+00
3.337214e+03,0.000000e+00
3.338178e+03,0.000000e+00
3.339142e+03,0.000000e+00
3.340106e+03,0.000000e+00
3.341071e+03,0.000000e+00
3.342035e+03,0.000000e+00
3.342999e+03,0.000000e+00
3.343963e+03,0.000000e+00
3.344927e+03,0.000000e+00
3.345892e+03,0.000000e+00
3.346856e+03,0.000000e+00
3.347820e+03,0.000000e+00
3.348784e+03,0.000000e+00
3.349749e+03,0.000000e+00
3.350713e+03,0.000000e+00
3.351677e+03,0.000000e+00
3.352641e+03,0.000000e+00
3.353605e+03,0.000000e+00
3.354570e+03,0.000000e+00
3.355534e+03,0.000000e+00
3.356498e+03,0.000000e+00
3.357462e+03,0.000000e+00
3.358427e+03,0.000000e+00
3.359391e+03,0.000000e+00
3.360355e+03,0.000000e+00
3.361319e+03,0.000000e+00
3.362284e+03,0.000000e+00
3.363248e+03,0.000000e+00
3.364212e+03,0.000000e+00
3.365176e+03,0.000000e+00
3.366141e+03,0.000000e+00
3.367105e+03,0.000000e+00
3.368069e+03,0.000000e+00
3.369033e+03,0.000000e+00
3.369998e+03,0.000000e+00
3.370962e+03,0.000000e+00
3.371926e+03,0.000000e+00
3.372890e+03,0.000000e+00
3.373854e+03,0.000000e+00
3.374819e+03,0.000000e+00
3.375783e+03,0.000000e+00
3.376747e+03,0.000000e+00
3.377711e+03,0.000000e+00
3.378676e+03,0.000000e+00
3.379640e+03,0.000000e+00
3.380604e+03,0.000000e+00
3.381568e+03,0.000000e+00
3.382532e+03,0.000000e+00
3.383497e+03,0.000000e+00
3.384461e+03,0.000000e+00
3.385425e+03,0.000000e+00
3.386389e+03,0.000000e+00
3.387354e+03,0.000000e+00
3.388318e+03,0.000000e+00
3.389282e+03,0.000000e+00
3.390246e+03,0.000000e+00
3.391211e+03,0.000000e+00
3.392175e+03,0.000000e+00
3.393139e+03,0.000000e+00
3.394103e+03,0.000000e+00
3.395068e+03,0.000000e+00
3.396032e+03,0.000000e+00
3.396996e+03,0.000000e+00
3.397960e+03,0.000000e+00
3.398925e+03,0.000000e+00
3.399889e+03,0.000000e+00
3.400853e+03,0.000000e+00
3.401817e+03,0.000000e+00
3.402781e+03,0.000000e+00
3.403746e+03,0.000000e+00
3.404710e+03,0.000000e+00
3.405674e+03,0.000000e+00
3.406638e+03,0.000000e+00
3.407603e+03,0.000000e+00
3.408567e+03,0.000000e+00
3.409531e+03,0.000000e+00
3.410495e+03,0.000000e+00
3.411459e+03,0.000000e+00
3.412424e+03,0.000000e+00
3.413388e+03,0.000000e+00
3.414352e+03,0.000000e+00
3.415316e+03,0.000000e+00
3.416281e+03,0.000000e+00
3.417245e+03,0.000000e+00
3.418209e+03,0.000000e+00
3.419173e+03,0.000000e+00
3.420138e+03,0.000000e+00
3.421102e+03,0.000000e+00
3.422066e+03,0.000000e+00
3.423030e+03,0.000000e+00
3.423995e+03,0.000000e+00
3.424959e+03,0.000000e+00
3.425923e+03,0.000000e+00
3.426887e+03,0.000000e+00
3.427852e+03,0.000000e+00
3.428816e+03,0.000000e+00
3.429780e+03,0.000000e+00
3.430744e+03,0.000000e+00
3.431708e+03,0.000000e+00
3.432673e+03,0.000000e+00
3.433637e+03,0.000000e+00
3.434601e+03,0.000000e+00
3.435565e+03,0.000000e+00
3.436530e+03,0.000000e+00
3.437494e+03,0.000000e+00
3.438458e+03,0.000000e+00
3.439422e+03,0.000000e+00
3.440386e+03,0.000000e+00
3.441351e+03,0.000000e+00
3.442315e+03,0.000000e+00
3.443279e+03,0.000000e+00
3.444243e+03,0.000000e+00
3.445208e+03,0.000000e+00
3.446172e+03,0.000000e+00
3.447136e+03,0.000000e+00
3.448100e+03,0.000000e+00
3.449065e+03,0.000000e+00
3.450029e+03,0.000000e+00
3.450993e+03,0.000000e+00
3.451957e+03,0.000000e+00
3.452922e+03,0.000000e+00
3.453886e+03,0.000000e+00
3.454850e+03,0.000000e+00
3.455814e+03,0.000000e+00
3.456779e+03,0.000000e+00
3.457743e+03,0.000000e+00
3.458707e+03,0.000000e+00
3.459671e+03,0.000000e+00
3.460635e+03,0.000000e+00
3.461600e+03,0.000000e+00
3.462564e+03,0.000000e+00
3.463528e+03,0.000000e+00
3.464492e+03,0.000000e+00
3.465457e+03,0.000000e+00
3.466421e+03,0.000000e+00
3.467385e+03,0.000000e+00
3.468349e+03,0.000000e+00
3.469313e+03,0.000000e+00
3.470278e+03,0.000000e+00
3.471242e+03,0.000000e+00
3.472206e+03,0.000000e+00
3.473170e+03,0.000000e+00
3.474135e+03,0.000000e+00
3.475099e+03,0.000000e+00
3.476063e+03,0.000000e+00
3.477027e+03,0.000000e+00
3.477992e+03,0.000000e+00
3.478956e+03,0.000000e+00
3.479920e+03,0.000000e+00
3.480884e+03,0.000000e+00
3.481849e+03,0.000000e+00
3.482813e+03,0.000000e+00
3.483777e+03,0.000000e+00
3.484741e+03,0.000000e+00
3.485706e+03,0.000000e+00
3.486670e+03,0.000000e+00
3.487634e+03,0.000000e+00
3.488598e+03,0.000000e+00
3.489563e+03,0.000000e+00
3.490527e+03,0.000000e+00
3.491491e+03,0.000000e+00
3.492455e+03,0.000000e+00
3.493419e+03,0.000000e+00
3.494384e+03,0.000000e+00
3.495348e+03,0.000000e+00
3.496312e+03,0.000000e+00
3.497276e+03,0.000000e+00
3.498240e+03,0.000000e+00
3.499205e+03,0.000000e+00
3.500169e+03,0.000000e+00
