9.931763e+01,0.000000e+00
1.002819e+02,0.000000e+00
1.012461e+02,0.000000e+00
1.022103e+02,0.000000e+00
1.031746e+02,0.000000e+00
1.041388e+02,0.000000e+00
1.051030e+02,0.000000e+00
1.060673e+02,0.000000e+00
1.070315e+02,0.000000e+00
1.079957e+02,0.000000e+00
1.089600e+02,0.000000e+00
1.099242e+02,0.000000e+00
1.108884e+02,0.000000e+00
1.118527e+02,0.000000e+00
1.128169e+02,0.000000e+00
1.137811e+02,0.000000e+00
1.147454e+02,0.000000e+00
1.157096e+02,0.000000e+00
1.166738e+02,0.000000e+00
1.176381e+02,0.000000e+00
1.186023e+02,0.000000e+00
1.195665e+02,0.000000e+00
1.205308e+02,0.000000e+00
1.214950e+02,0.000000e+00
1.224592e+02,0.000000e+00
1.234235e+02,0.000000e+00
1.243877e+02,0.000000e+00
1.253519e+02,0.000000e+00
1.263162e+02,0.000000e+00
1.272804e+02,0.000000e+00
1.282446e+02,0.000000e+00
1.292089e+02,0.000000e+00
1.301731e+02,0.000000e+00
1.311373e+02,0.000000e+00
1.321016e+02,0.000000e+00
1.330658e+02,0.000000e+00
1.340300e+02,0.000000e+00
1.349943e+02,0.000000e+00
1.359585e+02,0.000000e+00
1.369227e+02,0.000000e+00
1.378870e+02,0.000000e+00
1.388512e+02,0.000000e+00
1.398154e+02,0.000000e+00
1.407797e+02,0.000000e+00
1.417439e+02,0.000000e+00
1.427081e+02,0.000000e+00
1.436724e+02,0.000000e+00
1.446366e+02,0.000000e+00
1.456008e+02,0.000000e+00
1.465651e+02,0.000000e+00
1.475293e+02,0.000000e+00
1.484935e+02,0.000000e+00
1.494578e+02,0.000000e+00
1.504220e+02,0.000000e+00
1.513862e+02,0.000000e+00
1.523505e+02,0.000000e+00
1.533147e+02,0.000000e+00
1.542789e+02,0.000000e+00
1.552432e+02,0.000000e+00
1.562074e+02,0.000000e+00
1.571716e+02,0.000000e+00
1.581359e+02,0.000000e+00
1.591001e+02,0.000000e+00
1.600643e+02,0.000000e+00
1.610286e+02,0.000000e+00
1.619928e+02,0.000000e+00
1.629570e+02,0.000000e+00
1.639213e+02,0.000000e+00
1.648855e+02,0.000000e+00
1.658497e+02,0.000000e+00
1.668140e+02,0.000000e+00
1.677782e+02,0.000000e+00
1.687424e+02,0.000000e+00
1.697067e+02,0.000000e+00
1.706709e+02,0.000000e+00
1.716351e+02,0.000000e+00
1.725994e+02,0.000000e+00
1.735636e+02,0.000000e+00
1.745278e+02,0.000000e+00
1.754921e+02,0.000000e+00
1.764563e+02,0.000000e+00
1.774205e+02,0.000000e+00
1.783848e+02,0.000000e+00
1.793490e+02,0.000000e+00
1.803132e+02,0.000000e+00
1.812775e+02,0.000000e+00
1.822417e+02,0.000000e+00
1.832059e+02,0.000000e+00
1.841702e+02,0.000000e+00
1.851344e+02,0.000000e+00
1.860986e+02,0.000000e+00
1.870629e+02,0.000000e+00
1.880271e+02,0.000000e+00
1.889913e+02,0.000000e+00
1.899556e+02,0.000000e+00
1.909198e+02,0.000000e+00
1.918840e+02,0.000000e+00
1.928483e+02,0.000000e+00
1.938125e+02,0.000000e+00
1.947767e+02,0.000000e+00
1.957410e+02,0.000000e+00
1.967052e+02,0.000000e+00
1.976694e+02,0.000000e+00
1.986337e+02,0.000000e+00
1.995979e+02,3.483739e+03
2.005621e+02,3.470633e+03
2.015264e+02,3.463256e+03
2.024906e+02,3.469132e+03
2.034548e+02,3.474563e+03
2.044191e+02,3.475276e+03
2.053833e+02,3.471099e+03
2.063475e+02,3.464853e+03
2.073118e+02,3.460199e+03
2.082760e+02,3.458815e+03
2.092402e+02,3.453812e+03
2.102045e+02,3.441007e+03
2.111687e+02,3.428776e+03
2.121329e+02,3.423631e+03
2.130972e+02,3.428978e+03
2.140614e+02,3.439629e+03
2.150256e+02,3.443390e+03
2.159899e+02,3.436151e+03
2.169541e+02,3.428361e+03
2.179183e+02,3.425256e+03
2.188826e+02,3.425547e+03
2.198468e+02,3.425616e+03
2.208110e+02,3.422624e+03
2.217753e+02,3.416224e+03
2.227395e+02,3.408472e+03
2.237037e+02,3.399989e+03
2.246680e+02,3.392468e+03
2.256322e+02,3.386774e+03
2.265964e+02,3.384847e+03
2.275607e+02,3.385055e+03
2.285249e+02,3.385563e+03
2.294892e+02,3.386467e+03
2.304534e+02,3.387605e+03
2.314176e+02,3.386933e+03
2.323819e+02,3.384280e+03
2.333461e+02,3.381446e+03
2.343103e+02,3.379517e+03
2.352746e+02,3.378540e+03
2.362388e+02,3.377774e+03
2.372030e+02,3.376248e+03
2.381673e+02,3.373247e+03
2.391315e+02,3.369853e+03
2.400957e+02,3.369377e+03
2.410600e+02,3.367731e+03
2.420242e+02,3.363999e+03
2.429884e+02,3.359078e+03
2.439527e+02,3.353479e+03
2.449169e+02,3.345965e+03
2.458811e+02,3.335492e+03
2.468454e+02,3.327302e+03
2.478096e+02,3.322223e+03
2.487738e+02,3.318745e+03
2.497381e+02,3.315494e+03
2.507023e+02,3.312308e+03
2.516665e+02,3.310344e+03
2.526308e+02,3.311322e+03
2.535950e+02,3.319642e+03
2.545592e+02,3.322530e+03
2.555235e+02,3.316995e+03
2.564877e+02,3.307527e+03
2.574519e+02,3.299697e+03
2.584161e+02,3.297186e+03
2.593804e+02,3.299983e+03
2.603446e+02,3.302977e+03
2.613088e+02,3.306956e+03
2.622731e+02,3.308378e+03
2.632373e+02,3.303308e+03
2.642015e+02,3.292415e+03
2.651658e+02,3.282226e+03
2.661300e+02,3.282345e+03
2.670942e+02,3.296652e+03
2.680585e+02,3.305683e+03
2.690227e+02,3.304057e+03
2.699869e+02,3.296615e+03
2.709512e+02,3.285042e+03
2.719154e+02,3.268232e+03
2.728796e+02,3.251746e+03
2.738439e+02,3.244186e+03
2.748081e+02,3.248335e+03
2.757723e+02,3.255409e+03
2.767366e+02,3.257299e+03
2.777008e+02,3.253969e+03
2.786650e+02,3.250065e+03
2.796293e+02,3.248331e+03
2.805935e+02,3.248128e+03
2.815577e+02,3.247594e+03
2.825220e+02,3.246108e+03
2.834862e+02,3.243256e+03
2.844504e+02,3.238765e+03
2.854147e+02,3.232962e+03
2.863789e+02,3.226936e+03
2.873431e+02,3.221021e+03
2.883074e+02,3.216154e+03
2.892716e+02,3.213353e+03
2.902358e+02,3.212849e+03
2.912001e+02,3.214242e+03
2.921643e+02,3.213899e+03
2.931285e+02,3.211737e+03
2.940928e+02,3.209542e+03
2.950570e+02,3.207854e+03
2.960212e+02,3.206035e+03
2.969855e+02,3.203097e+03
2.979497e+02,3.198705e+03
2.989139e+02,3.193724e+03
2.998782e+02,3.186880e+03
3.008424e+02,3.175563e+03
3.018066e+02,3.165774e+03
3.027709e+02,3.161848e+03
3.037351e+02,3.165857e+03
3.046993e+02,3.172962e+03
3.056636e+02,3.174471e+03
3.066278e+02,3.168465e+03
3.075920e+02,3.162859e+03
3.085563e+02,3.162103e+03
3.095205e+02,3.165027e+03
3.104847e+02,3.167508e+03
3.114490e+02,3.166282e+03
3.124132e+02,3.162330e+03
3.133774e+02,3.158673e+03
3.143417e+02,3.155843e+03
3.153059e+02,3.151927e+03
3.162701e+02,3.145115e+03
3.172344e+02,3.134712e+03
3.181986e+02,3.126449e+03
3.191628e+02,3.123301e+03
3.201271e+02,3.123703e+03
3.210913e+02,3.124353e+03
3.220555e+02,3.123409e+03
3.230198e+02,3.121139e+03
3.239840e+02,3.120900e+03
3.249482e+02,3.127232e+03
3.259125e+02,3.130674e+03
3.268767e+02,3.127356e+03
3.278409e+02,3.118507e+03
3.288052e+02,3.107779e+03
3.297694e+02,3.097718e+03
3.307336e+02,3.088052e+03
3.316979e+02,3.080199e+03
3.326621e+02,3.074137e+03
3.336263e+02,3.069355e+03
3.345906e+02,3.066727e+03
3.355548e+02,3.067435e+03
3.365190e+02,3.069651e+03
3.374833e+02,3.070972e+03
3.384475e+02,3.071100e+03
3.394117e+02,3.070476e+03
3.403760e+02,3.066992e+03
3.413402e+02,3.062275e+03
3.423044e+02,3.059647e+03
3.432687e+02,3.060896e+03
3.442329e+02,3.063379e+03
3.451971e+02,3.064992e+03
3.461614e+02,3.064861e+03
3.471256e+02,3.061301e+03
3.480898e+02,3.053359e+03
3.490541e+02,3.039734e+03
3.500183e+02,3.029813e+03
3.509825e+02,3.026541e+03
3.519468e+02,3.026698e+03
3.529110e+02,3.027172e+03
3.538752e+02,3.026564e+03
3.548395e+02,3.025308e+03
3.558037e+02,3.025209e+03
3.567680e+02,3.027720e+03
3.577322e+02,3.029211e+03
3.586964e+02,3.031392e+03
3.596607e+02,3.033126e+03
3.606249e+02,3.032003e+03
3.615891e+02,3.024541e+03
3.625534e+02,3.012490e+03
3.635176e+02,3.002267e+03
3.644818e+02,2.995490e+03
3.654461e+02,2.990047e+03
3.664103e+02,2.985133e+03
3.673745e+02,2.982233e+03
3.683388e+02,2.983287e+03
3.693030e+02,2.991786e+03
3.702672e+02,3.001828e+03
3.712315e+02,3.004140e+03
3.721957e+02,2.995828e+03
3.731599e+02,2.982640e+03
3.741242e+02,2.974430e+03
3.750884e+02,2.978574e+03
3.760526e+02,2.981517e+03
3.770169e+02,2.981654e+03
3.779811e+02,2.979620e+03
3.789453e+02,2.975569e+03
3.799096e+02,2.968988e+03
3.808738e+02,2.960841e+03
3.818380e+02,2.956005e+03
3.828023e+02,2.959612e+03
3.837665e+02,2.962449e+03
3.847307e+02,2.960808e+03
3.856950e+02,2.955868e+03
3.866592e+02,2.950464e+03
3.876234e+02,2.944890e+03
3.885877e+02,2.939705e+03
3.895519e+02,2.937235e+03
3.905161e+02,2.938345e+03
3.914804e+02,2.939855e+03
3.924446e+02,2.939236e+03
3.934088e+02,2.937995e+03
3.943731e+02,2.933242e+03
3.953373e+02,2.920079e+03
3.963015e+02,2.903633e+03
3.972658e+02,2.891134e+03
3.982300e+02,2.885532e+03
3.991942e+02,2.886331e+03
4.001585e+02,2.889960e+03
4.011227e+02,2.901020e+03
4.020869e+02,2.907389e+03
4.030512e+02,2.902759e+03
4.040154e+02,2.891994e+03
4.049796e+02,2.883445e+03
4.059439e+02,2.883266e+03
4.069081e+02,2.888716e+03
4.078723e+02,2.889553e+03
4.088366e+02,2.882776e+03
4.098008e+02,2.874413e+03
4.107650e+02,2.869964e+03
4.117293e+02,2.869386e+03
4.126935e+02,2.869476e+03
4.136577e+02,2.870177e+03
4.146220e+02,2.870523e+03
4.155862e+02,2.868849e+03
4.165504e+02,2.864754e+03
4.175147e+02,2.859684e+03
4.184789e+02,2.855802e+03
4.194431e+02,2.855560e+03
4.204074e+02,2.853239e+03
4.213716e+02,2.846958e+03
4.223358e+02,2.839155e+03
4.233001e+02,2.832296e+03
4.242643e+02,2.827617e+03
4.252285e+02,2.825010e+03
4.261928e+02,2.824186e+03
4.271570e+02,2.826349e+03
4.281212e+02,2.828273e+03
4.290855e+02,2.828315e+03
4.300497e+02,2.826552e+03
4.310139e+02,2.823402e+03
4.319782e+02,2.817415e+03
4.329424e+02,2.811541e+03
4.339066e+02,2.809241e+03
4.348709e+02,2.810468e+03
4.358351e+02,2.812388e+03
4.367993e+02,2.812450e+03
4.377636e+02,2.809894e+03
4.387278e+02,2.807844e+03
4.396920e+02,2.809719e+03
4.406563e+02,2.810656e+03
4.416205e+02,2.805468e+03
4.425847e+02,2.792906e+03
4.435490e+02,2.778733e+03
4.445132e+02,2.771398e+03
4.454774e+02,2.772571e+03
4.464417e+02,2.774820e+03
4.474059e+02,2.777421e+03
4.483701e+02,2.778839e+03
4.493344e+02,2.777697e+03
4.502986e+02,2.773310e+03
4.512628e+02,2.767854e+03
4.522271e+02,2.761857e+03
4.531913e+02,2.755644e+03
4.541555e+02,2.750681e+03
4.551198e+02,2.747965e+03
4.560840e+02,2.747648e+03
4.570482e+02,2.745693e+03
4.580125e+02,2.741148e+03
4.589767e+02,2.738269e+03
4.599409e+02,2.738322e+03
4.609052e+02,2.740076e+03
4.618694e+02,2.741243e+03
4.628336e+02,2.741213e+03
4.637979e+02,2.739977e+03
4.647621e+02,2.735238e+03
4.657263e+02,2.725563e+03
4.666906e+02,2.715772e+03
4.676548e+02,2.709254e+03
4.686190e+02,2.705540e+03
4.695833e+02,2.704092e+03
4.705475e+02,2.707952e+03
4.715117e+02,2.712817e+03
4.724760e+02,2.711773e+03
4.734402e+02,2.702321e+03
4.744044e+02,2.688744e+03
4.753687e+02,2.680702e+03
4.763329e+02,2.681366e+03
4.772971e+02,2.683169e+03
4.782614e+02,2.686258e+03
4.792256e+02,2.689539e+03
4.801898e+02,2.691416e+03
4.811541e+02,2.690596e+03
4.821183e+02,2.687871e+03
4.830826e+02,2.683753e+03
4.840468e+02,2.677895e+03
4.850110e+02,2.672576e+03
4.859753e+02,2.670054e+03
4.869395e+02,2.670411e+03
4.879037e+02,2.668441e+03
4.888680e+02,2.661953e+03
4.898322e+02,2.655617e+03
4.907964e+02,2.652116e+03
4.917607e+02,2.651577e+03
4.927249e+02,2.652490e+03
4.936891e+02,2.654301e+03
4.946534e+02,2.657147e+03
4.956176e+02,2.656539e+03
4.965818e+02,2.648929e+03
4.975461e+02,2.641256e+03
4.985103e+02,2.639542e+03
4.994745e+02,2.644987e+03
5.004388e+02,2.648899e+03
5.014030e+02,2.647778e+03
5.023672e+02,2.643565e+03
5.033315e+02,2.638535e+03
5.042957e+02,2.633054e+03
5.052599e+02,2.627642e+03
5.062242e+02,2.624271e+03
5.071884e+02,2.624737e+03
5.081526e+02,2.625753e+03
5.091169e+02,2.629662e+03
5.100811e+02,2.633660e+03
5.110453e+02,2.633671e+03
5.120095e+02,2.626509e+03
5.129738e+02,2.617263e+03
5.139380e+02,2.612458e+03
5.149022e+02,2.612117e+03
5.158665e+02,2.612167e+03
5.168307e+02,2.609524e+03
5.177949e+02,2.602996e+03
5.187592e+02,2.596578e+03
5.197234e+02,2.594468e+03
5.206876e+02,2.592458e+03
5.216519e+02,2.588286e+03
5.226161e+02,2.582711e+03
5.235803e+02,2.577806e+03
5.245446e+02,2.575258e+03
5.255088e+02,2.574762e+03
5.264730e+02,2.574276e+03
5.274373e+02,2.573584e+03
5.284015e+02,2.573152e+03
5.293657e+02,2.573309e+03
5.303300e+02,2.574425e+03
5.312942e+02,2.574035e+03
5.322584e+02,2.573578e+03
5.332227e+02,2.572223e+03
5.341869e+02,2.567615e+03
5.351511e+02,2.559002e+03
5.361154e+02,2.549020e+03
5.370796e+02,2.541329e+03
5.380438e+02,2.536358e+03
5.390081e+02,2.533638e+03
5.399723e+02,2.536453e+03
5.409365e+02,2.540021e+03
5.419008e+02,2.538681e+03
5.428650e+02,2.528137e+03
5.438292e+02,2.518102e+03
5.447935e+02,2.514597e+03
5.457577e+02,2.515481e+03
5.467219e+02,2.516547e+03
5.476862e+02,2.516261e+03
5.486504e+02,2.514802e+03
5.496146e+02,2.512726e+03
5.505789e+02,2.508647e+03
5.515431e+02,2.505912e+03
5.525073e+02,2.507860e+03
5.534716e+02,2.512541e+03
5.544358e+02,2.515742e+03
5.554000e+02,2.513052e+03
5.563643e+02,2.508732e+03
5.573285e+02,2.507467e+03
5.582927e+02,2.508567e+03
5.592570e+02,2.509156e+03
5.602212e+02,2.507949e+03
5.611854e+02,2.504741e+03
5.621497e+02,2.500209e+03
5.631139e+02,2.489395e+03
5.640781e+02,2.480717e+03
5.650424e+02,2.480007e+03
5.660066e+02,2.485199e+03
5.669708e+02,2.488172e+03
5.679351e+02,2.483110e+03
5.688993e+02,2.473741e+03
5.698635e+02,2.465492e+03
5.708278e+02,2.458807e+03
5.717920e+02,2.455763e+03
5.727562e+02,2.458562e+03
5.737205e+02,2.469946e+03
5.746847e+02,2.475565e+03
5.756489e+02,2.471572e+03
5.766132e+02,2.464928e+03
5.775774e+02,2.459033e+03
5.785416e+02,2.454573e+03
5.795059e+02,2.451242e+03
5.804701e+02,2.448469e+03
5.814343e+02,2.446603e+03
5.823986e+02,2.447819e+03
5.833628e+02,2.453640e+03
5.843270e+02,2.459757e+03
5.852913e+02,2.459968e+03
5.862555e+02,2.447846e+03
5.872197e+02,2.439421e+03
5.881840e+02,2.434855e+03
5.891482e+02,2.433183e+03
5.901124e+02,2.434966e+03
5.910767e+02,2.441096e+03
5.920409e+02,2.446092e+03
5.930051e+02,2.442397e+03
5.939694e+02,2.431469e+03
5.949336e+02,2.422829e+03
5.958978e+02,2.419700e+03
5.968621e+02,2.420133e+03
5.978263e+02,2.419757e+03
5.987905e+02,2.417167e+03
5.997548e+02,2.416212e+03
6.007190e+02,2.419455e+03
6.016832e+02,2.424173e+03
6.026475e+02,2.426742e+03
6.036117e+02,2.424952e+03
6.045759e+02,2.420527e+03
6.055402e+02,2.413656e+03
6.065044e+02,2.404597e+03
6.074686e+02,2.399169e+03
6.084329e+02,2.401689e+03
6.093971e+02,2.410011e+03
6.103613e+02,2.412313e+03
6.113256e+02,2.401233e+03
6.122899e+02,2.392095e+03
6.132541e+02,2.388644e+03
6.142183e+02,2.388686e+03
6.151826e+02,2.388504e+03
6.161468e+02,2.387034e+03
6.171110e+02,2.385163e+03
6.180753e+02,2.382807e+03
6.190395e+02,2.379921e+03
6.200037e+02,2.378333e+03
6.209680e+02,2.379586e+03
6.219322e+02,2.383735e+03
6.228964e+02,2.385026e+03
6.238607e+02,2.379153e+03
6.248249e+02,2.374544e+03
6.257891e+02,2.374230e+03
6.267534e+02,2.376331e+03
6.277176e+02,2.376722e+03
6.286818e+02,2.373004e+03
6.296461e+02,2.368431e+03
6.306103e+02,2.367341e+03
6.315745e+02,2.369458e+03
6.325388e+02,2.370321e+03
6.335030e+02,2.365500e+03
6.344672e+02,2.354348e+03
6.354315e+02,2.345761e+03
6.363957e+02,2.339628e+03
6.373599e+02,2.335216e+03
6.383242e+02,2.333233e+03
6.392884e+02,2.333716e+03
6.402526e+02,2.334278e+03
6.412169e+02,2.335417e+03
6.421811e+02,2.335377e+03
6.431453e+02,2.331655e+03
6.441096e+02,2.324544e+03
6.450738e+02,2.317094e+03
6.460380e+02,2.312049e+03
6.470023e+02,2.309912e+03
6.479665e+02,2.311006e+03
6.489307e+02,2.316866e+03
6.498950e+02,2.322519e+03
6.508592e+02,2.323387e+03
6.518234e+02,2.318948e+03
6.527877e+02,2.314009e+03
6.537519e+02,2.308314e+03
6.547161e+02,2.303350e+03
6.556804e+02,2.300801e+03
6.566446e+02,2.300691e+03
6.576088e+02,2.300996e+03
6.585731e+02,2.299751e+03
6.595373e+02,2.297186e+03
6.605015e+02,2.294476e+03
6.614658e+02,2.291454e+03
6.624300e+02,2.289216e+03
6.633942e+02,2.289134e+03
6.643585e+02,2.292816e+03
6.653227e+02,2.294092e+03
6.662869e+02,2.289241e+03
6.672512e+02,2.284172e+03
6.682154e+02,2.283337e+03
6.691796e+02,2.286948e+03
6.701439e+02,2.290202e+03
6.711081e+02,2.289949e+03
6.720723e+02,2.287004e+03
6.730366e+02,2.282863e+03
6.740008e+02,2.277973e+03
6.749650e+02,2.272954e+03
6.759293e+02,2.268272e+03
6.768935e+02,2.263725e+03
6.778577e+02,2.261169e+03
6.788220e+02,2.262642e+03
6.797862e+02,2.265909e+03
6.807504e+02,2.269225e+03
6.817147e+02,2.272266e+03
6.826789e+02,2.272822e+03
6.836431e+02,2.268469e+03
6.846074e+02,2.261083e+03
6.855716e+02,2.252357e+03
6.865358e+02,2.243250e+03
6.875001e+02,2.235765e+03
6.884643e+02,2.232127e+03
6.894285e+02,2.232411e+03
6.903928e+02,2.235421e+03
6.913570e+02,2.243069e+03
6.923212e+02,2.249522e+03
6.932855e+02,2.248196e+03
6.942497e+02,2.233683e+03
6.952139e+02,2.224219e+03
6.961782e+02,2.221021e+03
6.971424e+02,2.221702e+03
6.981066e+02,2.225899e+03
6.990709e+02,2.232634e+03
7.000351e+02,2.236080e+03
7.009993e+02,2.229464e+03
7.019636e+02,2.218324e+03
7.029278e+02,2.214952e+03
7.038920e+02,2.221668e+03
7.048563e+02,2.230099e+03
7.058205e+02,2.229649e+03
7.067847e+02,2.217511e+03
7.077490e+02,2.209472e+03
7.087132e+02,2.210697e+03
7.096774e+02,2.214109e+03
7.106417e+02,2.211849e+03
7.116059e+02,2.201917e+03
7.125701e+02,2.192804e+03
7.135344e+02,2.185910e+03
7.144986e+02,2.182076e+03
7.154628e+02,2.182754e+03
7.164271e+02,2.187598e+03
7.173913e+02,2.192841e+03
7.183555e+02,2.195450e+03
7.193198e+02,2.195412e+03
7.202840e+02,2.192383e+03
7.212482e+02,2.185973e+03
7.222125e+02,2.179458e+03
7.231767e+02,2.175822e+03
7.241409e+02,2.174929e+03
7.251052e+02,2.175515e+03
7.260694e+02,2.180878e+03
7.270336e+02,2.184879e+03
7.279979e+02,2.183866e+03
7.289621e+02,2.177318e+03
7.299263e+02,2.170927e+03
7.308906e+02,2.166162e+03
7.318548e+02,2.162838e+03
7.328190e+02,2.162184e+03
7.337833e+02,2.163887e+03
7.347475e+02,2.164577e+03
7.357117e+02,2.159640e+03
7.366760e+02,2.150312e+03
7.376402e+02,2.147211e+03
7.386044e+02,2.152941e+03
7.395687e+02,2.159161e+03
7.405329e+02,2.157976e+03
7.414971e+02,2.146536e+03
7.424614e+02,2.139181e+03
7.434256e+02,2.140047e+03
7.443898e+02,2.143171e+03
7.453541e+02,2.145137e+03
7.463183e+02,2.144751e+03
7.472825e+02,2.143295e+03
7.482468e+02,2.141655e+03
7.492110e+02,2.139424e+03
7.501752e+02,2.136594e+03
7.511395e+02,2.134112e+03
7.521037e+02,2.132799e+03
7.530679e+02,2.133088e+03
7.540322e+02,2.134068e+03
7.549964e+02,2.132382e+03
7.559606e+02,2.127427e+03
7.569249e+02,2.123749e+03
7.578891e+02,2.125065e+03
7.588533e+02,2.132053e+03
7.598176e+02,2.135529e+03
7.607818e+02,2.130486e+03
7.617460e+02,2.123599e+03
7.627103e+02,2.116727e+03
7.636745e+02,2.111319e+03
7.646387e+02,2.108776e+03
7.656030e+02,2.111321e+03
7.665672e+02,2.115487e+03
7.675314e+02,2.117481e+03
7.684957e+02,2.116600e+03
7.694599e+02,2.114784e+03
7.704241e+02,2.115255e+03
7.713884e+02,2.116887e+03
7.723526e+02,2.113224e+03
7.733168e+02,2.103970e+03
7.742811e+02,2.096706e+03
7.752453e+02,2.093914e+03
7.762095e+02,2.094306e+03
7.771738e+02,2.094694e+03
7.781380e+02,2.095167e+03
7.791022e+02,2.093822e+03
7.800665e+02,2.090172e+03
7.810307e+02,2.085531e+03
7.819949e+02,2.081776e+03
7.829592e+02,2.079822e+03
7.839234e+02,2.079752e+03
7.848876e+02,2.082579e+03
7.858519e+02,2.086427e+03
7.868161e+02,2.088192e+03
7.877803e+02,2.086016e+03
7.887446e+02,2.082888e+03
7.897088e+02,2.085422e+03
7.906730e+02,2.093093e+03
7.916373e+02,2.096221e+03
7.926015e+02,2.090039e+03
7.935657e+02,2.077825e+03
7.945300e+02,2.068616e+03
7.954942e+02,2.064047e+03
7.964584e+02,2.060760e+03
7.974227e+02,2.061544e+03
7.983869e+02,2.064641e+03
7.993511e+02,2.065474e+03
8.003154e+02,2.061268e+03
8.012796e+02,2.056147e+03
8.022438e+02,2.048254e+03
8.032081e+02,2.042898e+03
8.041723e+02,2.046445e+03
8.051365e+02,2.060373e+03
8.061008e+02,2.073115e+03
8.070650e+02,2.075213e+03
8.080292e+02,2.069935e+03
8.089935e+02,2.062047e+03
8.099577e+02,2.053130e+03
8.109219e+02,2.046762e+03
8.118862e+02,2.048577e+03
8.128504e+02,2.058144e+03
8.138146e+02,2.061616e+03
8.147789e+02,2.056779e+03
8.157431e+02,2.049066e+03
8.167073e+02,2.042910e+03
8.176716e+02,2.039405e+03
8.186358e+02,2.037656e+03
8.196000e+02,2.037969e+03
8.205643e+02,2.039515e+03
8.215285e+02,2.041648e+03
8.224927e+02,2.044058e+03
8.234570e+02,2.045613e+03
8.244212e+02,2.046786e+03
8.253854e+02,2.046518e+03
8.263497e+02,2.041949e+03
8.273139e+02,2.034309e+03
8.282781e+02,2.028474e+03
8.292424e+02,2.031262e+03
8.302066e+02,2.036668e+03
8.311708e+02,2.033318e+03
8.321351e+02,2.023103e+03
8.330993e+02,2.015878e+03
8.340635e+02,2.016618e+03
8.350278e+02,2.022893e+03
8.359920e+02,2.029247e+03
8.369562e+02,2.036686e+03
8.379205e+02,2.038664e+03
8.388847e+02,2.030379e+03
8.398489e+02,2.017009e+03
8.408132e+02,2.011630e+03
8.417774e+02,2.022437e+03
8.427416e+02,2.028878e+03
8.437059e+02,2.026172e+03
8.446701e+02,2.019711e+03
8.456343e+02,2.015380e+03
8.465986e+02,2.014948e+03
8.475628e+02,2.014175e+03
8.485270e+02,2.010119e+03
8.494913e+02,2.005759e+03
8.504555e+02,2.005152e+03
8.514197e+02,2.009582e+03
8.523840e+02,2.014253e+03
8.533482e+02,2.013779e+03
8.543124e+02,2.010506e+03
8.552767e+02,2.009649e+03
8.562409e+02,2.011701e+03
8.572051e+02,2.013523e+03
8.581694e+02,2.011690e+03
8.591336e+02,2.006908e+03
8.600978e+02,2.004424e+03
8.610621e+02,2.005002e+03
8.620263e+02,2.007074e+03
8.629905e+02,2.009565e+03
8.639548e+02,2.011960e+03
8.649190e+02,2.010121e+03
8.658832e+02,2.002163e+03
8.668475e+02,1.994429e+03
8.678117e+02,1.988040e+03
8.687759e+02,1.983337e+03
8.697402e+02,1.984133e+03
8.707044e+02,1.996642e+03
8.716686e+02,2.006148e+03
8.726329e+02,2.007464e+03
8.735971e+02,2.003755e+03
8.745613e+02,2.000186e+03
8.755256e+02,1.998360e+03
8.764898e+02,1.998794e+03
8.774540e+02,2.003944e+03
8.784183e+02,2.010403e+03
8.793825e+02,2.011811e+03
8.803467e+02,2.004971e+03
8.813110e+02,1.995827e+03
8.822752e+02,1.992113e+03
8.832394e+02,1.992991e+03
8.842037e+02,1.994265e+03
8.851679e+02,1.994486e+03
8.861321e+02,1.993452e+03
8.870964e+02,1.991308e+03
8.880606e+02,1.987906e+03
8.890248e+02,1.983207e+03
8.899891e+02,1.977574e+03
8.909533e+02,1.972383e+03
8.919175e+02,1.968505e+03
8.928818e+02,1.966137e+03
8.938460e+02,1.963776e+03
8.948102e+02,1.958331e+03
8.957745e+02,1.955255e+03
8.967387e+02,1.960312e+03
8.977029e+02,1.972540e+03
8.986672e+02,1.978748e+03
8.996314e+02,1.975789e+03
9.005956e+02,1.970990e+03
9.015599e+02,1.964268e+03
9.025241e+02,1.957443e+03
9.034883e+02,1.955224e+03
9.044526e+02,1.966322e+03
9.054168e+02,1.974896e+03
9.063810e+02,1.969366e+03
9.073453e+02,1.956849e+03
9.083095e+02,1.948340e+03
9.092737e+02,1.948124e+03
9.102380e+02,1.951677e+03
9.112022e+02,1.956489e+03
9.121664e+02,1.961188e+03
9.131307e+02,1.962256e+03
9.140949e+02,1.959188e+03
9.150591e+02,1.955483e+03
9.160234e+02,1.954706e+03
9.169876e+02,1.955439e+03
9.179518e+02,1.954112e+03
9.189161e+02,1.950046e+03
9.198803e+02,1.945489e+03
9.208445e+02,1.943695e+03
9.218088e+02,1.945766e+03
9.227730e+02,1.946703e+03
9.237372e+02,1.945288e+03
9.247015e+02,1.943970e+03
9.256657e+02,1.944662e+03
9.266299e+02,1.947337e+03
9.275942e+02,1.948968e+03
9.285584e+02,1.950007e+03
9.295226e+02,1.948559e+03
9.304869e+02,1.941860e+03
9.314511e+02,1.932416e+03
9.324153e+02,1.927408e+03
9.333796e+02,1.931540e+03
9.343438e+02,1.935244e+03
9.353080e+02,1.935089e+03
9.362723e+02,1.932233e+03
9.372365e+02,1.929199e+03
9.382007e+02,1.927416e+03
9.391650e+02,1.927070e+03
9.401292e+02,1.928741e+03
9.410934e+02,1.931340e+03
9.420577e+02,1.933153e+03
9.430219e+02,1.933533e+03
9.439861e+02,1.933514e+03
9.449504e+02,1.934764e+03
9.459146e+02,1.937300e+03
9.468788e+02,1.940046e+03
9.478431e+02,1.941714e+03
9.488073e+02,1.941568e+03
9.497715e+02,1.939549e+03
9.507358e+02,1.936620e+03
9.517000e+02,1.935136e+03
9.526642e+02,1.935429e+03
9.536285e+02,1.934031e+03
9.545927e+02,1.927183e+03
9.555569e+02,1.917399e+03
9.565212e+02,1.913715e+03
9.574854e+02,1.916922e+03
9.584496e+02,1.921366e+03
9.594139e+02,1.924213e+03
9.603781e+02,1.925428e+03
9.613423e+02,1.926295e+03
9.623066e+02,1.926989e+03
9.632708e+02,1.926840e+03
9.642350e+02,1.925519e+03
9.651993e+02,1.924702e+03
9.661635e+02,1.926389e+03
9.671277e+02,1.932365e+03
9.680920e+02,1.934884e+03
9.690562e+02,1.933420e+03
9.700204e+02,1.928611e+03
9.709847e+02,1.920036e+03
9.719489e+02,1.906236e+03
9.729131e+02,1.899432e+03
9.738774e+02,1.906331e+03
9.748416e+02,1.914289e+03
9.758058e+02,1.917203e+03
9.767701e+02,1.915385e+03
9.777343e+02,1.914058e+03
9.786985e+02,1.913526e+03
9.796628e+02,1.913580e+03
9.806270e+02,1.915611e+03
9.815912e+02,1.918092e+03
9.825555e+02,1.918682e+03
9.835197e+02,1.917585e+03
9.844839e+02,1.915023e+03
9.854482e+02,1.908930e+03
9.864124e+02,1.902823e+03
9.873766e+02,1.900300e+03
9.883409e+02,1.902621e+03
9.893051e+02,1.906893e+03
9.902693e+02,1.913921e+03
9.912336e+02,1.920651e+03
9.921978e+02,1.921909e+03
9.931620e+02,1.917318e+03
9.941263e+02,1.912675e+03
9.950905e+02,1.912620e+03
9.960547e+02,1.914849e+03
9.970190e+02,1.916900e+03
9.979832e+02,1.918377e+03
9.989474e+02,1.919227e+03
9.999117e+02,1.921109e+03
1.000876e+03,1.921969e+03
1.001840e+03,1.915678e+03
1.002804e+03,1.905384e+03
1.003769e+03,1.900799e+03
1.004733e+03,1.905499e+03
1.005697e+03,1.913654e+03
1.006661e+03,1.917385e+03
1.007626e+03,1.917602e+03
1.008590e+03,1.917885e+03
1.009554e+03,1.918470e+03
1.010518e+03,1.917958e+03
1.011482e+03,1.915029e+03
1.012447e+03,1.909918e+03
1.013411e+03,1.904482e+03
1.014375e+03,1.899623e+03
1.015339e+03,1.896196e+03
1.016304e+03,1.893804e+03
1.017268e+03,1.892647e+03
1.018232e+03,1.896295e+03
1.019196e+03,1.905407e+03
1.020161e+03,1.911911e+03
1.021125e+03,1.912551e+03
1.022089e+03,1.909807e+03
1.023053e+03,1.908526e+03
1.024018e+03,1.908143e+03
1.024982e+03,1.908672e+03
1.025946e+03,1.910395e+03
1.026910e+03,1.911142e+03
1.027875e+03,1.908547e+03
1.028839e+03,1.901630e+03
1.029803e+03,1.899421e+03
1.030767e+03,1.904361e+03
1.031731e+03,1.910004e+03
1.032696e+03,1.911099e+03
1.033660e+03,1.907188e+03
1.034624e+03,1.905273e+03
1.035588e+03,1.906485e+03
1.036552e+03,1.909215e+03
1.037517e+03,1.913464e+03
1.038481e+03,1.917773e+03
1.039445e+03,1.918449e+03
1.040409e+03,1.912017e+03
1.041374e+03,1.907972e+03
1.042338e+03,1.909993e+03
1.043302e+03,1.914701e+03
1.044266e+03,1.917277e+03
1.045231e+03,1.917323e+03
1.046195e+03,1.915372e+03
1.047159e+03,1.908776e+03
1.048123e+03,1.903205e+03
1.049088e+03,1.903271e+03
1.050052e+03,1.910594e+03
1.051016e+03,1.915559e+03
1.051980e+03,1.915912e+03
1.052945e+03,1.915792e+03
1.053909e+03,1.915648e+03
1.054873e+03,1.914755e+03
1.055837e+03,1.913685e+03
1.056802e+03,1.912047e+03
1.057766e+03,1.912117e+03
1.058730e+03,1.917233e+03
1.059694e+03,1.923452e+03
1.060658e+03,1.925383e+03
1.061623e+03,1.920268e+03
1.062587e+03,1.916241e+03
1.063551e+03,1.914192e+03
1.064515e+03,1.913742e+03
1.065479e+03,1.914721e+03
1.066444e+03,1.917601e+03
1.067408e+03,1.920047e+03
1.068372e+03,1.919695e+03
1.069336e+03,1.920832e+03
1.070301e+03,1.926278e+03
1.071265e+03,1.933752e+03
1.072229e+03,1.937676e+03
1.073193e+03,1.934556e+03
1.074158e+03,1.930773e+03
1.075122e+03,1.927185e+03
1.076086e+03,1.924303e+03
1.077050e+03,1.923485e+03
1.078015e+03,1.928127e+03
1.078979e+03,1.930446e+03
1.079943e+03,1.923910e+03
1.080907e+03,1.917742e+03
1.081872e+03,1.918993e+03
1.082836e+03,1.927718e+03
1.083800e+03,1.934148e+03
1.084764e+03,1.935489e+03
1.085729e+03,1.935901e+03
1.086693e+03,1.935672e+03
1.087657e+03,1.935592e+03
1.088621e+03,1.937862e+03
1.089585e+03,1.947089e+03
1.090550e+03,1.952661e+03
1.091514e+03,1.951142e+03
1.092478e+03,1.946633e+03
1.093442e+03,1.942914e+03
1.094406e+03,1.940427e+03
1.095371e+03,1.939617e+03
1.096335e+03,1.941722e+03
1.097299e+03,1.943801e+03
1.098263e+03,1.943469e+03
1.099228e+03,1.940612e+03
1.100192e+03,1.939080e+03
1.101156e+03,1.941919e+03
1.102120e+03,1.943285e+03
1.103085e+03,1.938854e+03
1.104049e+03,1.932007e+03
1.105013e+03,1.929551e+03
1.105977e+03,1.937707e+03
1.106942e+03,1.943822e+03
1.107906e+03,1.945076e+03
1.108870e+03,1.944227e+03
1.109834e+03,1.943276e+03
1.110799e+03,1.942006e+03
1.111763e+03,1.942368e+03
1.112727e+03,1.946467e+03
1.113691e+03,1.951047e+03
1.114656e+03,1.953799e+03
1.115620e+03,1.955053e+03
1.116584e+03,1.957629e+03
1.117548e+03,1.962690e+03
1.118512e+03,1.966272e+03
1.119477e+03,1.967874e+03
1.120441e+03,1.967535e+03
1.121405e+03,1.965552e+03
1.122369e+03,1.960931e+03
1.123334e+03,1.956342e+03
1.124298e+03,1.950255e+03
1.125262e+03,1.946220e+03
1.126226e+03,1.947856e+03
1.127191e+03,1.956344e+03
1.128155e+03,1.961232e+03
1.129119e+03,1.960658e+03
1.130083e+03,1.957911e+03
1.131047e+03,1.952238e+03
1.132012e+03,1.944957e+03
1.132976e+03,1.942310e+03
1.133940e+03,1.948358e+03
1.134904e+03,1.950411e+03
1.135869e+03,1.944989e+03
1.136833e+03,1.937901e+03
1.137797e+03,1.935915e+03
1.138761e+03,1.941610e+03
1.139726e+03,1.944812e+03
1.140690e+03,1.943996e+03
1.141654e+03,1.943040e+03
1.142618e+03,1.944290e+03
1.143583e+03,1.947433e+03
1.144547e+03,1.948699e+03
1.145511e+03,1.947338e+03
1.146475e+03,1.946842e+03
1.147439e+03,1.948517e+03
1.148404e+03,1.951138e+03
1.149368e+03,1.951210e+03
1.150332e+03,1.947955e+03
1.151296e+03,1.948363e+03
1.152261e+03,1.953009e+03
1.153225e+03,1.956503e+03
1.154189e+03,1.955133e+03
1.155153e+03,1.950284e+03
1.156118e+03,1.946806e+03
1.157082e+03,1.945316e+03
1.158046e+03,1.946213e+03
1.159010e+03,1.949178e+03
1.159974e+03,1.953508e+03
1.160939e+03,1.958495e+03
1.161903e+03,1.963451e+03
1.162867e+03,1.966598e+03
1.163831e+03,1.967460e+03
1.164796e+03,1.966279e+03
1.165760e+03,1.961882e+03
1.166724e+03,1.956743e+03
1.167688e+03,1.958279e+03
1.168653e+03,1.965702e+03
1.169617e+03,1.971659e+03
1.170581e+03,1.971703e+03
1.171545e+03,1.968317e+03
1.172510e+03,1.962606e+03
1.173474e+03,1.956573e+03
1.174438e+03,1.955270e+03
1.175402e+03,1.960542e+03
1.176366e+03,1.965410e+03
1.177331e+03,1.961837e+03
1.178295e+03,1.955804e+03
1.179259e+03,1.954805e+03
1.180223e+03,1.958506e+03
1.181188e+03,1.962020e+03
1.182152e+03,1.962721e+03
1.183116e+03,1.962344e+03
1.184080e+03,1.963524e+03
1.185045e+03,1.964960e+03
1.186009e+03,1.963345e+03
1.186973e+03,1.955835e+03
1.187937e+03,1.950719e+03
1.188901e+03,1.952501e+03
1.189866e+03,1.956603e+03
1.190830e+03,1.959167e+03
1.191794e+03,1.959348e+03
1.192758e+03,1.958781e+03
1.193723e+03,1.958317e+03
1.194687e+03,1.958195e+03
1.195651e+03,1.958094e+03
1.196615e+03,1.957940e+03
1.197580e+03,1.957613e+03
1.198544e+03,1.953706e+03
1.199508e+03,1.952277e+03
1.200472e+03,1.958004e+03
1.201437e+03,1.963874e+03
1.202401e+03,1.963714e+03
1.203365e+03,1.957017e+03
1.204329e+03,1.952551e+03
1.205293e+03,1.950314e+03
1.206258e+03,1.949649e+03
1.207222e+03,1.950314e+03
1.208186e+03,1.951732e+03
1.209150e+03,1.952129e+03
1.210115e+03,1.950532e+03
1.211079e+03,1.952963e+03
1.212043e+03,1.961703e+03
1.213007e+03,1.970099e+03
1.213972e+03,1.970146e+03
1.214936e+03,1.963791e+03
1.215900e+03,1.959118e+03
1.216864e+03,1.956433e+03
1.217828e+03,1.955928e+03
1.218793e+03,1.958084e+03
1.219757e+03,1.962056e+03
1.220721e+03,1.966842e+03
1.221685e+03,1.972346e+03
1.222650e+03,1.977916e+03
1.223614e+03,1.982848e+03
1.224578e+03,1.985422e+03
1.225542e+03,1.983590e+03
1.226507e+03,1.980322e+03
1.227471e+03,1.978140e+03
1.228435e+03,1.976824e+03
1.229399e+03,1.976094e+03
1.230364e+03,1.978050e+03
1.231328e+03,1.979169e+03
1.232292e+03,1.977676e+03
1.233256e+03,1.975680e+03
1.234220e+03,1.975130e+03
1.235185e+03,1.978010e+03
1.236149e+03,1.978693e+03
1.237113e+03,1.971647e+03
1.238077e+03,1.966568e+03
1.239042e+03,1.969410e+03
1.240006e+03,1.978213e+03
1.240970e+03,1.983271e+03
1.241934e+03,1.983281e+03
1.242899e+03,1.981421e+03
1.243863e+03,1.977381e+03
1.244827e+03,1.973810e+03
1.245791e+03,1.974276e+03
1.246755e+03,1.979506e+03
1.247720e+03,1.985535e+03
1.248684e+03,1.993475e+03
1.249648e+03,1.997467e+03
1.250612e+03,1.992032e+03
1.251577e+03,1.980480e+03
1.252541e+03,1.974664e+03
1.253505e+03,1.973850e+03
1.254469e+03,1.974083e+03
1.255434e+03,1.974601e+03
1.256398e+03,1.976243e+03
1.257362e+03,1.981053e+03
1.258326e+03,1.986129e+03
1.259291e+03,1.986000e+03
1.260255e+03,1.980832e+03
1.261219e+03,1.975142e+03
1.262183e+03,1.972249e+03
1.263147e+03,1.971584e+03
1.264112e+03,1.973452e+03
1.265076e+03,1.976552e+03
1.266040e+03,1.978903e+03
1.267004e+03,1.980481e+03
1.267969e+03,1.980101e+03
1.268933e+03,1.973635e+03
1.269897e+03,1.970174e+03
1.270861e+03,1.976102e+03
1.271826e+03,1.988777e+03
1.272790e+03,1.996112e+03
1.273754e+03,1.997059e+03
1.274718e+03,1.995450e+03
1.275682e+03,1.991752e+03
1.276647e+03,1.987829e+03
1.277611e+03,1.985625e+03
1.278575e+03,1.985240e+03
1.279539e+03,1.983269e+03
1.280504e+03,1.980447e+03
1.281468e+03,1.978619e+03
1.282432e+03,1.978419e+03
1.283396e+03,1.979273e+03
1.284361e+03,1.978905e+03
1.285325e+03,1.977749e+03
1.286289e+03,1.980810e+03
1.287253e+03,1.989509e+03
1.288218e+03,1.995955e+03
1.289182e+03,1.989434e+03
1.290146e+03,1.979239e+03
1.291110e+03,1.977344e+03
1.292074e+03,1.982806e+03
1.293039e+03,1.988439e+03
1.294003e+03,1.991285e+03
1.294967e+03,1.992442e+03
1.295931e+03,1.993740e+03
1.296896e+03,1.993969e+03
1.297860e+03,1.990669e+03
1.298824e+03,1.981667e+03
1.299788e+03,1.975854e+03
1.300753e+03,1.974598e+03
1.301717e+03,1.974497e+03
1.302681e+03,1.974245e+03
1.303645e+03,1.974339e+03
1.304609e+03,1.977084e+03
1.305574e+03,1.982639e+03
1.306538e+03,1.983615e+03
1.307502e+03,1.979413e+03
1.308466e+03,1.974147e+03
1.309431e+03,1.970189e+03
1.310395e+03,1.968022e+03
1.311359e+03,1.970783e+03
1.312323e+03,1.976332e+03
1.313288e+03,1.978072e+03
1.314252e+03,1.972972e+03
1.315216e+03,1.967381e+03
1.316180e+03,1.965354e+03
1.317145e+03,1.966703e+03
1.318109e+03,1.971932e+03
1.319073e+03,1.979994e+03
1.320037e+03,1.985783e+03
1.321001e+03,1.987333e+03
1.321966e+03,1.986524e+03
1.322930e+03,1.982850e+03
1.323894e+03,1.979023e+03
1.324858e+03,1.978674e+03
1.325823e+03,1.983725e+03
1.326787e+03,1.987806e+03
1.327751e+03,1.990741e+03
1.328715e+03,1.991080e+03
1.329680e+03,1.987163e+03
1.330644e+03,1.980686e+03
1.331608e+03,1.979125e+03
1.332572e+03,1.981952e+03
1.333536e+03,1.985012e+03
1.334501e+03,1.986939e+03
1.335465e+03,1.987639e+03
1.336429e+03,1.988125e+03
1.337393e+03,1.988146e+03
1.338358e+03,1.986739e+03
1.339322e+03,1.984021e+03
1.340286e+03,1.980694e+03
1.341250e+03,1.975905e+03
1.342215e+03,1.971874e+03
1.343179e+03,1.972410e+03
1.344143e+03,1.974494e+03
1.345107e+03,1.972825e+03
1.346072e+03,1.964537e+03
1.347036e+03,1.960915e+03
1.348000e+03,1.963948e+03
1.348964e+03,1.966912e+03
1.349928e+03,1.968400e+03
1.350893e+03,1.968526e+03
1.351857e+03,1.965196e+03
1.352821e+03,1.958185e+03
1.353785e+03,1.952945e+03
1.354750e+03,1.949908e+03
1.355714e+03,1.948837e+03
1.356678e+03,1.952422e+03
1.357642e+03,1.957787e+03
1.358607e+03,1.959490e+03
1.359571e+03,1.958267e+03
1.360535e+03,1.956158e+03
1.361499e+03,1.953785e+03
1.362464e+03,1.952193e+03
1.363428e+03,1.952600e+03
1.364392e+03,1.954000e+03
1.365356e+03,1.954706e+03
1.366320e+03,1.953911e+03
1.367285e+03,1.953282e+03
1.368249e+03,1.954552e+03
1.369213e+03,1.953764e+03
1.370177e+03,1.949508e+03
1.371142e+03,1.944531e+03
1.372106e+03,1.942509e+03
1.373070e+03,1.942941e+03
1.374034e+03,1.941621e+03
1.374999e+03,1.939267e+03
1.375963e+03,1.938717e+03
1.376927e+03,1.941889e+03
1.377891e+03,1.945841e+03
1.378855e+03,1.948218e+03
1.379820e+03,1.948590e+03
1.380784e+03,1.945472e+03
1.381748e+03,1.939336e+03
1.382712e+03,1.935962e+03
1.383677e+03,1.940008e+03
1.384641e+03,1.941496e+03
1.385605e+03,1.934920e+03
1.386569e+03,1.925026e+03
1.387534e+03,1.919132e+03
1.388498e+03,1.917674e+03
1.389462e+03,1.920166e+03
1.390426e+03,1.926845e+03
1.391391e+03,1.931103e+03
1.392355e+03,1.928713e+03
1.393319e+03,1.922848e+03
1.394283e+03,1.917970e+03
1.395247e+03,1.913902e+03
1.396212e+03,1.911123e+03
1.397176e+03,1.909832e+03
1.398140e+03,1.908460e+03
1.399104e+03,1.903813e+03
1.400069e+03,1.900186e+03
1.401033e+03,1.901677e+03
1.401997e+03,1.906384e+03
1.402961e+03,1.908761e+03
1.403926e+03,1.907236e+03
1.404890e+03,1.906229e+03
1.405854e+03,1.906426e+03
1.406818e+03,1.907197e+03
1.407782e+03,1.908464e+03
1.408747e+03,1.910275e+03
1.409711e+03,1.910596e+03
1.410675e+03,1.908775e+03
1.411639e+03,1.906893e+03
1.412604e+03,1.906028e+03
1.413568e+03,1.903910e+03
1.414532e+03,1.896367e+03
1.415496e+03,1.889831e+03
1.416461e+03,1.890648e+03
1.417425e+03,1.896463e+03
1.418389e+03,1.899490e+03
1.419353e+03,1.897676e+03
1.420318e+03,1.893911e+03
1.421282e+03,1.887727e+03
1.422246e+03,1.882470e+03
1.423210e+03,1.880982e+03
1.424174e+03,1.882854e+03
1.425139e+03,1.883294e+03
1.426103e+03,1.881995e+03
1.427067e+03,1.880799e+03
1.428031e+03,1.880535e+03
1.428996e+03,1.880457e+03
1.429960e+03,1.879650e+03
1.430924e+03,1.878050e+03
1.431888e+03,1.874926e+03
1.432853e+03,1.870987e+03
1.433817e+03,1.868916e+03
1.434781e+03,1.872015e+03
1.435745e+03,1.874097e+03
1.436709e+03,1.873400e+03
1.437674e+03,1.871215e+03
1.438638e+03,1.869352e+03
1.439602e+03,1.868264e+03
1.440566e+03,1.867439e+03
1.441531e+03,1.866495e+03
1.442495e+03,1.863001e+03
1.443459e+03,1.854886e+03
1.444423e+03,1.848158e+03
1.445388e+03,1.851060e+03
1.446352e+03,1.856150e+03
1.447316e+03,1.855985e+03
1.448280e+03,1.851540e+03
1.449245e+03,1.848045e+03
1.450209e+03,1.846626e+03
1.451173e+03,1.846172e+03
1.452137e+03,1.845747e+03
1.453101e+03,1.845211e+03
1.454066e+03,1.844898e+03
1.455030e+03,1.845032e+03
1.455994e+03,1.847798e+03
1.456958e+03,1.852474e+03
1.457923e+03,1.854116e+03
1.458887e+03,1.849838e+03
1.459851e+03,1.844059e+03
1.460815e+03,1.838937e+03
1.461780e+03,1.834971e+03
1.462744e+03,1.835564e+03
1.463708e+03,1.839842e+03
1.464672e+03,1.838739e+03
1.465636e+03,1.828667e+03
1.466601e+03,1.821097e+03
1.467565e+03,1.817532e+03
1.468529e+03,1.816189e+03
1.469493e+03,1.815253e+03
1.470458e+03,1.814270e+03
1.471422e+03,1.813021e+03
1.472386e+03,1.812117e+03
1.473350e+03,1.813192e+03
1.474315e+03,1.817570e+03
1.475279e+03,1.818961e+03
1.476243e+03,1.808230e+03
1.477207e+03,1.797058e+03
1.478172e+03,1.796176e+03
1.479136e+03,1.803524e+03
1.480100e+03,1.807599e+03
1.481064e+03,1.808012e+03
1.482028e+03,1.807881e+03
1.482993e+03,1.808226e+03
1.483957e+03,1.806101e+03
1.484921e+03,1.794106e+03
1.485885e+03,1.779760e+03
1.486850e+03,1.779387e+03
1.487814e+03,1.787217e+03
1.488778e+03,1.791335e+03
1.489742e+03,1.787126e+03
1.490707e+03,1.784233e+03
1.491671e+03,1.789494e+03
1.492635e+03,1.794561e+03
1.493599e+03,1.795111e+03
1.494563e+03,1.791814e+03
1.495528e+03,1.787414e+03
1.496492e+03,1.781624e+03
1.497456e+03,1.773515e+03
1.498420e+03,1.763736e+03
1.499385e+03,1.757473e+03
1.500349e+03,1.762183e+03
1.501313e+03,1.768792e+03
1.502277e+03,1.768280e+03
1.503242e+03,1.764268e+03
1.504206e+03,1.762484e+03
1.505170e+03,1.764810e+03
1.506134e+03,1.763770e+03
1.507099e+03,1.758198e+03
1.508063e+03,1.752865e+03
1.509027e+03,1.749426e+03
1.509991e+03,1.747461e+03
1.510955e+03,1.747428e+03
1.511920e+03,1.748050e+03
1.512884e+03,1.746268e+03
1.513848e+03,1.742873e+03
1.514812e+03,1.740533e+03
1.515777e+03,1.738594e+03
1.516741e+03,1.737798e+03
1.517705e+03,1.738889e+03
1.518669e+03,1.740622e+03
1.519634e+03,1.742960e+03
1.520598e+03,1.745450e+03
1.521562e+03,1.743990e+03
1.522526e+03,1.738514e+03
1.523490e+03,1.736753e+03
1.524455e+03,1.742461e+03
1.525419e+03,1.746544e+03
1.526383e+03,1.738350e+03
1.527347e+03,1.726843e+03
1.528312e+03,1.719880e+03
1.529276e+03,1.717941e+03
1.530240e+03,1.718040e+03
1.531204e+03,1.720886e+03
1.532169e+03,1.720402e+03
1.533133e+03,1.715244e+03
1.534097e+03,1.711073e+03
1.535061e+03,1.713559e+03
1.536026e+03,1.718061e+03
1.536990e+03,1.716137e+03
1.537954e+03,1.710393e+03
1.538918e+03,1.705003e+03
1.539882e+03,1.700530e+03
1.540847e+03,1.698074e+03
1.541811e+03,1.700990e+03
1.542775e+03,1.700435e+03
1.543739e+03,1.692924e+03
1.544704e+03,1.683657e+03
1.545668e+03,1.681699e+03
1.546632e+03,1.685571e+03
1.547596e+03,1.687768e+03
1.548561e+03,1.687964e+03
1.549525e+03,1.687642e+03
1.550489e+03,1.685241e+03
1.551453e+03,1.684689e+03
1.552417e+03,1.691803e+03
1.553382e+03,1.697831e+03
1.554346e+03,1.695198e+03
1.555310e+03,1.685523e+03
1.556274e+03,1.680522e+03
1.557239e+03,1.679931e+03
1.558203e+03,1.677834e+03
1.559167e+03,1.672718e+03
1.560131e+03,1.668263e+03
1.561096e+03,1.669104e+03
1.562060e+03,1.671100e+03
1.563024e+03,1.670242e+03
1.563988e+03,1.667899e+03
1.564953e+03,1.667620e+03
1.565917e+03,1.670788e+03
1.566881e+03,1.671034e+03
1.567845e+03,1.667533e+03
1.568809e+03,1.663728e+03
1.569774e+03,1.661662e+03
1.570738e+03,1.660482e+03
1.571702e+03,1.658577e+03
1.572666e+03,1.656931e+03
1.573631e+03,1.658509e+03
1.574595e+03,1.663855e+03
1.575559e+03,1.662863e+03
1.576523e+03,1.651231e+03
1.577488e+03,1.642784e+03
1.578452e+03,1.638975e+03
1.579416e+03,1.638621e+03
1.580380e+03,1.643969e+03
1.581344e+03,1.650751e+03
1.582309e+03,1.649782e+03
1.583273e+03,1.643855e+03
1.584237e+03,1.639567e+03
1.585201e+03,1.640483e+03
1.586166e+03,1.638468e+03
1.587130e+03,1.629531e+03
1.588094e+03,1.622814e+03
1.589058e+03,1.623713e+03
1.590023e+03,1.627870e+03
1.590987e+03,1.625435e+03
1.591951e+03,1.619620e+03
1.592915e+03,1.616758e+03
1.593880e+03,1.616503e+03
1.594844e+03,1.615839e+03
1.595808e+03,1.613078e+03
1.596772e+03,1.610953e+03
1.597736e+03,1.610585e+03
1.598701e+03,1.611263e+03
1.599665e+03,1.612256e+03
1.600629e+03,1.613397e+03
1.601593e+03,1.614408e+03
1.602558e+03,1.614973e+03
1.603522e+03,1.613623e+03
1.604486e+03,1.609266e+03
1.605450e+03,1.606481e+03
1.606415e+03,1.609971e+03
1.607379e+03,1.613140e+03
1.608343e+03,1.612258e+03
1.609307e+03,1.610424e+03
1.610271e+03,1.615740e+03
1.611236e+03,1.625173e+03
1.612200e+03,1.624424e+03
1.613164e+03,1.614687e+03
1.614128e+03,1.605428e+03
1.615093e+03,1.601874e+03
1.616057e+03,1.598260e+03
1.617021e+03,1.590210e+03
1.617985e+03,1.583532e+03
1.618950e+03,1.583799e+03
1.619914e+03,1.588061e+03
1.620878e+03,1.583369e+03
1.621842e+03,1.572105e+03
1.622807e+03,1.561616e+03
1.623771e+03,1.553702e+03
1.624735e+03,1.550834e+03
1.625699e+03,1.558170e+03
1.626663e+03,1.564741e+03
1.627628e+03,1.566588e+03
1.628592e+03,1.564726e+03
1.629556e+03,1.560985e+03
1.630520e+03,1.556381e+03
1.631485e+03,1.552162e+03
1.632449e+03,1.548223e+03
1.633413e+03,1.544801e+03
1.634377e+03,1.542660e+03
1.635342e+03,1.539794e+03
1.636306e+03,1.533693e+03
1.637270e+03,1.529239e+03
1.638234e+03,1.529630e+03
1.639198e+03,1.531958e+03
1.640163e+03,1.526896e+03
1.641127e+03,1.517662e+03
1.642091e+03,1.513710e+03
1.643055e+03,1.515279e+03
1.644020e+03,1.518512e+03
1.644984e+03,1.525297e+03
1.645948e+03,1.526891e+03
1.646912e+03,1.519734e+03
1.647877e+03,1.511590e+03
1.648841e+03,1.509354e+03
1.649805e+03,1.511294e+03
1.650769e+03,1.512034e+03
1.651734e+03,1.511647e+03
1.652698e+03,1.510844e+03
1.653662e+03,1.509413e+03
1.654626e+03,1.506503e+03
1.655590e+03,1.500893e+03
1.656555e+03,1.495520e+03
1.657519e+03,1.491294e+03
1.658483e+03,1.489590e+03
1.659447e+03,1.494069e+03
1.660412e+03,1.499749e+03
1.661376e+03,1.497086e+03
1.662340e+03,1.488481e+03
1.663304e+03,1.481514e+03
1.664269e+03,1.476895e+03
1.665233e+03,1.475890e+03
1.666197e+03,1.479691e+03
1.667161e+03,1.481306e+03
1.668125e+03,1.476555e+03
1.669090e+03,1.469475e+03
1.670054e+03,1.466199e+03
1.671018e+03,1.464664e+03
1.671982e+03,1.462606e+03
1.672947e+03,1.459844e+03
1.673911e+03,1.456918e+03
1.674875e+03,1.452561e+03
1.675839e+03,1.450158e+03
1.676804e+03,1.451041e+03
1.677768e+03,1.453395e+03
1.678732e+03,1.456386e+03
1.679696e+03,1.458018e+03
1.680661e+03,1.455981e+03
1.681625e+03,1.450934e+03
1.682589e+03,1.444241e+03
1.683553e+03,1.436373e+03
1.684517e+03,1.434352e+03
1.685482e+03,1.437737e+03
1.686446e+03,1.438646e+03
1.687410e+03,1.434014e+03
1.688374e+03,1.430593e+03
1.689339e+03,1.434791e+03
1.690303e+03,1.440299e+03
1.691267e+03,1.444571e+03
1.692231e+03,1.446914e+03
1.693196e+03,1.445051e+03
1.694160e+03,1.439047e+03
1.695124e+03,1.431245e+03
1.696088e+03,1.422917e+03
1.697052e+03,1.418423e+03
1.698017e+03,1.420039e+03
1.698981e+03,1.423359e+03
1.699945e+03,1.429620e+03
1.700909e+03,1.431902e+03
1.701874e+03,1.426225e+03
1.702838e+03,1.417861e+03
1.703802e+03,1.417771e+03
1.704766e+03,1.421006e+03
1.705731e+03,1.419160e+03
1.706695e+03,1.411833e+03
1.707659e+03,1.405364e+03
1.708623e+03,1.400422e+03
1.709588e+03,1.399762e+03
1.710552e+03,1.404066e+03
1.711516e+03,1.406093e+03
1.712480e+03,1.396053e+03
1.713444e+03,1.384227e+03
1.714409e+03,1.383402e+03
1.715373e+03,1.388623e+03
1.716337e+03,1.392761e+03
1.717301e+03,1.395836e+03
1.718266e+03,1.395547e+03
1.719230e+03,1.391668e+03
1.720194e+03,1.388723e+03
1.721158e+03,1.387696e+03
1.722123e+03,1.388363e+03
1.723087e+03,1.392634e+03
1.724051e+03,1.396304e+03
1.725015e+03,1.398445e+03
1.725979e+03,1.398235e+03
1.726944e+03,1.392195e+03
1.727908e+03,1.382221e+03
1.728872e+03,1.375984e+03
1.729836e+03,1.372807e+03
1.730801e+03,1.371066e+03
1.731765e+03,1.372084e+03
1.732729e+03,1.370646e+03
1.733693e+03,1.365150e+03
1.734658e+03,1.360762e+03
1.735622e+03,1.359975e+03
1.736586e+03,1.360452e+03
1.737550e+03,1.359439e+03
1.738515e+03,1.357396e+03
1.739479e+03,1.354266e+03
1.740443e+03,1.350598e+03
1.741407e+03,1.349377e+03
1.742371e+03,1.351142e+03
1.743336e+03,1.350564e+03
1.744300e+03,1.347134e+03
1.745264e+03,1.342108e+03
1.746228e+03,1.334788e+03
1.747193e+03,1.329549e+03
1.748157e+03,1.330441e+03
1.749121e+03,1.333855e+03
1.750085e+03,1.336857e+03
1.751050e+03,1.337641e+03
1.752014e+03,1.331920e+03
1.752978e+03,1.323361e+03
1.753942e+03,1.321617e+03
1.754906e+03,1.328154e+03
1.755871e+03,1.329174e+03
1.756835e+03,1.318493e+03
1.757799e+03,1.309941e+03
1.758763e+03,1.307358e+03
1.759728e+03,1.306796e+03
1.760692e+03,1.304281e+03
1.761656e+03,1.301633e+03
1.762620e+03,1.299206e+03
1.763585e+03,1.297887e+03
1.764549e+03,1.299342e+03
1.765513e+03,1.302918e+03
1.766477e+03,1.303473e+03
1.767442e+03,1.301879e+03
1.768406e+03,1.301504e+03
1.769370e+03,1.303655e+03
1.770334e+03,1.305636e+03
1.771298e+03,1.305744e+03
1.772263e+03,1.304629e+03
1.773227e+03,1.302884e+03
1.774191e+03,1.300176e+03
1.775155e+03,1.294331e+03
1.776120e+03,1.287932e+03
1.777084e+03,1.286884e+03
1.778048e+03,1.288680e+03
1.779012e+03,1.285229e+03
1.779977e+03,1.274254e+03
1.780941e+03,1.268686e+03
1.781905e+03,1.267893e+03
1.782869e+03,1.269435e+03
1.783833e+03,1.273403e+03
1.784798e+03,1.276492e+03
1.785762e+03,1.276875e+03
1.786726e+03,1.274924e+03
1.787690e+03,1.270471e+03
1.788655e+03,1.265224e+03
1.789619e+03,1.261864e+03
1.790583e+03,1.259860e+03
1.791547e+03,1.257927e+03
1.792512e+03,1.256115e+03
1.793476e+03,1.254783e+03
1.794440e+03,1.253187e+03
1.795404e+03,1.252725e+03
1.796369e+03,1.253080e+03
1.797333e+03,1.253711e+03
1.798297e+03,1.255061e+03
1.799261e+03,1.255741e+03
1.800225e+03,1.254963e+03
1.801190e+03,1.251709e+03
1.802154e+03,1.245083e+03
1.803118e+03,1.236833e+03
1.804082e+03,1.231898e+03
1.805047e+03,1.230051e+03
1.806011e+03,1.230792e+03
1.806975e+03,1.233575e+03
1.807939e+03,1.234780e+03
1.808904e+03,1.233584e+03
1.809868e+03,1.230511e+03
1.810832e+03,1.225844e+03
1.811796e+03,1.222025e+03
1.812760e+03,1.220489e+03
1.813725e+03,1.220378e+03
1.814689e+03,1.222849e+03
1.815653e+03,1.225006e+03
1.816617e+03,1.224663e+03
1.817582e+03,1.222395e+03
1.818546e+03,1.219754e+03
1.819510e+03,1.216371e+03
1.820474e+03,1.211225e+03
1.821439e+03,1.204434e+03
1.822403e+03,1.199330e+03
1.823367e+03,1.195991e+03
1.824331e+03,1.195594e+03
1.825296e+03,1.198082e+03
1.826260e+03,1.200510e+03
1.827224e+03,1.203320e+03
1.828188e+03,1.204077e+03
1.829152e+03,1.197867e+03
1.830117e+03,1.191327e+03
1.831081e+03,1.190241e+03
1.832045e+03,1.192417e+03
1.833009e+03,1.194364e+03
1.833974e+03,1.195873e+03
1.834938e+03,1.194485e+03
1.835902e+03,1.188849e+03
1.836866e+03,1.180458e+03
1.837831e+03,1.168698e+03
1.838795e+03,1.162067e+03
1.839759e+03,1.162955e+03
1.840723e+03,1.167127e+03
1.841688e+03,1.175179e+03
1.842652e+03,1.179561e+03
1.843616e+03,1.175665e+03
1.844580e+03,1.170336e+03
1.845544e+03,1.172908e+03
1.846509e+03,1.178404e+03
1.847473e+03,1.176141e+03
1.848437e+03,1.170371e+03
1.849401e+03,1.170228e+03
1.850366e+03,1.176163e+03
1.851330e+03,1.175054e+03
1.852294e+03,1.167985e+03
1.853258e+03,1.160993e+03
1.854223e+03,1.155497e+03
1.855187e+03,1.150674e+03
1.856151e+03,1.142444e+03
1.857115e+03,1.141382e+03
1.858079e+03,1.151594e+03
1.859044e+03,1.161387e+03
1.860008e+03,1.155877e+03
1.860972e+03,1.147235e+03
1.861936e+03,1.148822e+03
1.862901e+03,1.154095e+03
1.863865e+03,1.151904e+03
1.864829e+03,1.142979e+03
1.865793e+03,1.139359e+03
1.866758e+03,1.140452e+03
1.867722e+03,1.144514e+03
1.868686e+03,1.152324e+03
1.869650e+03,1.151917e+03
1.870615e+03,1.140312e+03
1.871579e+03,1.132934e+03
1.872543e+03,1.134919e+03
1.873507e+03,1.136764e+03
1.874471e+03,1.126322e+03
1.875436e+03,1.116530e+03
1.876400e+03,1.113718e+03
1.877364e+03,1.115173e+03
1.878328e+03,1.121201e+03
1.879293e+03,1.127046e+03
1.880257e+03,1.120822e+03
1.881221e+03,1.107714e+03
1.882185e+03,1.098685e+03
1.883150e+03,1.094505e+03
1.884114e+03,1.097534e+03
1.885078e+03,1.106051e+03
1.886042e+03,1.109978e+03
1.887006e+03,1.106083e+03
1.887971e+03,1.099994e+03
1.888935e+03,1.091401e+03
1.889899e+03,1.087885e+03
1.890863e+03,1.091442e+03
1.891828e+03,1.095230e+03
1.892792e+03,1.091920e+03
1.893756e+03,1.087620e+03
1.894720e+03,1.087889e+03
1.895685e+03,1.090962e+03
1.896649e+03,1.095359e+03
1.897613e+03,1.099303e+03
1.898577e+03,1.097068e+03
1.899542e+03,1.091359e+03
1.900506e+03,1.087543e+03
1.901470e+03,1.086321e+03
1.902434e+03,1.087264e+03
1.903398e+03,1.090258e+03
1.904363e+03,1.091615e+03
1.905327e+03,1.090541e+03
1.906291e+03,1.087840e+03
1.907255e+03,1.080209e+03
1.908220e+03,1.076033e+03
1.909184e+03,1.077708e+03
1.910148e+03,1.079550e+03
1.911112e+03,1.075605e+03
1.912077e+03,1.070691e+03
1.913041e+03,1.068784e+03
1.914005e+03,1.068118e+03
1.914969e+03,1.066892e+03
1.915933e+03,1.065194e+03
1.916898e+03,1.063463e+03
1.917862e+03,1.061568e+03
1.918826e+03,1.057865e+03
1.919790e+03,1.052326e+03
1.920755e+03,1.053123e+03
1.921719e+03,1.059289e+03
1.922683e+03,1.062155e+03
1.923647e+03,1.060253e+03
1.924612e+03,1.058431e+03
1.925576e+03,1.059874e+03
1.926540e+03,1.059521e+03
1.927504e+03,1.055655e+03
1.928469e+03,1.051667e+03
1.929433e+03,1.051466e+03
1.930397e+03,1.050907e+03
1.931361e+03,1.047534e+03
1.932325e+03,1.041491e+03
1.933290e+03,1.030231e+03
1.934254e+03,1.020069e+03
1.935218e+03,1.031154e+03
1.936182e+03,1.049126e+03
1.937147e+03,1.048328e+03
1.938111e+03,1.030831e+03
1.939075e+03,1.027127e+03
1.940039e+03,1.034788e+03
1.941004e+03,1.032819e+03
1.941968e+03,1.018286e+03
1.942932e+03,1.010527e+03
1.943896e+03,1.017752e+03
1.944860e+03,1.025089e+03
1.945825e+03,1.031864e+03
1.946789e+03,1.033632e+03
1.947753e+03,1.021034e+03
1.948717e+03,1.010432e+03
1.949682e+03,1.008973e+03
1.950646e+03,1.009919e+03
1.951610e+03,1.010465e+03
1.952574e+03,1.009590e+03
1.953539e+03,1.003039e+03
1.954503e+03,9.966315e+02
1.955467e+03,9.979564e+02
1.956431e+03,1.003679e+03
1.957396e+03,1.004387e+03
1.958360e+03,1.001526e+03
1.959324e+03,9.985935e+02
1.960288e+03,9.966168e+02
1.961252e+03,9.962330e+02
1.962217e+03,9.968959e+02
1.963181e+03,9.991674e+02
1.964145e+03,1.002382e+03
1.965109e+03,1.002479e+03
1.966074e+03,9.952969e+02
1.967038e+03,9.897721e+02
1.968002e+03,9.851257e+02
1.968966e+03,9.847347e+02
1.969931e+03,9.930639e+02
1.970895e+03,9.979046e+02
1.971859e+03,9.853904e+02
1.972823e+03,9.751877e+02
1.973787e+03,9.756568e+02
1.974752e+03,9.810709e+02
1.975716e+03,9.874413e+02
1.976680e+03,9.908556e+02
1.977644e+03,9.837919e+02
1.978609e+03,9.740026e+02
1.979573e+03,9.748336e+02
1.980537e+03,9.821790e+02
1.981501e+03,9.820645e+02
1.982466e+03,9.771388e+02
1.983430e+03,9.765939e+02
1.984394e+03,9.819821e+02
1.985358e+03,9.785533e+02
1.986323e+03,9.679452e+02
1.987287e+03,9.617078e+02
1.988251e+03,9.643556e+02
1.989215e+03,9.632715e+02
1.990179e+03,9.558535e+02
1.991144e+03,9.530547e+02
1.992108e+03,9.583319e+02
1.993072e+03,9.630651e+02
1.994036e+03,9.566868e+02
1.995001e+03,9.554122e+02
1.995965e+03,9.654725e+02
1.996929e+03,9.747858e+02
1.997893e+03,9.675704e+02
1.998858e+03,9.575222e+02
1.999822e+03,9.585261e+02
2.000786e+03,9.612323e+02
2.001750e+03,9.580164e+02
2.002714e+03,9.520043e+02
2.003679e+03,9.464135e+02
2.004643e+03,9.428137e+02
2.005607e+03,9.478771e+02
2.006571e+03,9.576600e+02
2.007536e+03,9.520670e+02
2.008500e+03,9.369040e+02
2.009464e+03,9.300974e+02
2.010428e+03,9.336627e+02
2.011393e+03,9.382916e+02
2.012357e+03,9.433438e+02
2.013321e+03,9.463344e+02
2.014285e+03,9.464453e+02
2.015250e+03,9.444559e+02
2.016214e+03,9.397108e+02
2.017178e+03,9.342697e+02
2.018142e+03,9.282907e+02
2.019106e+03,9.239802e+02
2.020071e+03,9.227221e+02
2.021035e+03,9.223549e+02
2.021999e+03,9.228865e+02
2.022963e+03,9.213488e+02
2.023928e+03,9.161813e+02
2.024892e+03,9.113539e+02
2.025856e+03,9.115201e+02
2.026820e+03,9.134056e+02
2.027785e+03,9.149030e+02
2.028749e+03,9.161265e+02
2.029713e+03,9.185604e+02
2.030677e+03,9.205858e+02
2.031641e+03,9.179507e+02
2.032606e+03,9.140802e+02
2.033570e+03,9.164001e+02
2.034534e+03,9.220854e+02
2.035498e+03,9.183704e+02
2.036463e+03,9.089725e+02
2.037427e+03,9.016223e+02
2.038391e+03,8.975214e+02
2.039355e+03,8.962935e+02
2.040320e+03,8.979825e+02
2.041284e+03,9.039841e+02
2.042248e+03,9.145232e+02
2.043212e+03,9.140969e+02
2.044177e+03,9.013099e+02
2.045141e+03,8.949305e+02
2.046105e+03,8.974773e+02
2.047069e+03,9.018732e+02
2.048033e+03,9.082225e+02
2.048998e+03,9.072012e+02
2.049962e+03,8.978716e+02
2.050926e+03,8.882931e+02
2.051890e+03,8.815203e+02
2.052854e+03,8.797226e+02
2.053819e+03,8.845023e+02
2.054783e+03,8.890394e+02
2.055747e+03,8.911718e+02
2.056711e+03,8.907986e+02
2.057676e+03,8.854257e+02
2.058640e+03,8.798191e+02
2.059604e+03,8.751027e+02
2.060568e+03,8.725908e+02
2.061533e+03,8.781791e+02
2.062497e+03,8.842643e+02
2.063461e+03,8.821146e+02
2.064425e+03,8.763176e+02
2.065390e+03,8.723203e+02
2.066354e+03,8.695250e+02
2.067318e+03,8.671812e+02
2.068282e+03,8.656905e+02
2.069247e+03,8.649921e+02
2.070211e+03,8.649482e+02
2.071175e+03,8.670616e+02
2.072139e+03,8.703881e+02
2.073104e+03,8.731680e+02
2.074068e+03,8.750492e+02
2.075032e+03,8.686469e+02
2.075996e+03,8.565535e+02
2.076960e+03,8.527848e+02
2.077925e+03,8.598471e+02
2.078889e+03,8.631970e+02
2.079853e+03,8.618456e+02
2.080817e+03,8.607211e+02
2.081782e+03,8.602949e+02
2.082746e+03,8.586085e+02
2.083710e+03,8.551381e+02
2.084674e+03,8.510537e+02
2.085639e+03,8.469144e+02
2.086603e+03,8.458687e+02
2.087567e+03,8.505226e+02
2.088531e+03,8.537596e+02
2.089496e+03,8.543848e+02
2.090460e+03,8.523235e+02
2.091424e+03,8.483907e+02
2.092388e+03,8.445950e+02
2.093353e+03,8.394808e+02
2.094317e+03,8.389442e+02
2.095281e+03,8.451491e+02
2.096245e+03,8.510727e+02
2.097209e+03,8.492224e+02
2.098174e+03,8.455603e+02
2.099138e+03,8.431632e+02
2.100102e+03,8.412094e+02
2.101066e+03,8.377922e+02
2.102031e+03,8.352703e+02
2.102995e+03,8.372943e+02
2.103959e+03,8.397891e+02
2.104923e+03,8.387714e+02
2.105887e+03,8.375043e+02
2.106852e+03,8.416039e+02
2.107816e+03,8.452617e+02
2.108780e+03,8.429641e+02
2.109744e+03,8.369142e+02
2.110708e+03,8.329971e+02
2.111673e+03,8.300389e+02
2.112637e+03,8.233821e+02
2.113601e+03,8.157678e+02
2.114565e+03,8.175727e+02
2.115530e+03,8.238332e+02
2.116494e+03,8.233902e+02
2.117458e+03,8.179363e+02
2.118422e+03,8.125172e+02
2.119387e+03,8.075173e+02
2.120351e+03,8.122398e+02
2.121315e+03,8.227078e+02
2.122279e+03,8.265530e+02
2.123244e+03,8.229535e+02
2.124208e+03,8.191212e+02
2.125172e+03,8.157537e+02
2.126136e+03,8.144081e+02
2.127101e+03,8.157818e+02
2.128065e+03,8.168978e+02
2.129029e+03,8.174834e+02
2.129993e+03,8.165174e+02
2.130958e+03,8.129905e+02
2.131922e+03,8.107770e+02
2.132886e+03,8.106571e+02
2.133850e+03,8.088206e+02
2.134814e+03,8.056506e+02
2.135779e+03,8.019708e+02
2.136743e+03,7.962082e+02
2.137707e+03,7.941942e+02
2.138671e+03,7.963250e+02
2.139636e+03,7.988002e+02
2.140600e+03,7.994776e+02
2.141564e+03,8.014290e+02
2.142528e+03,8.051550e+02
2.143493e+03,8.070551e+02
2.144457e+03,8.050423e+02
2.145421e+03,8.013746e+02
2.146385e+03,7.961262e+02
2.147350e+03,7.936634e+02
2.148314e+03,7.961270e+02
2.149278e+03,7.978607e+02
2.150242e+03,7.918615e+02
2.151207e+03,7.883719e+02
2.152171e+03,7.891658e+02
2.153135e+03,7.891321e+02
2.154099e+03,7.852339e+02
2.155063e+03,7.802179e+02
2.156028e+03,7.745639e+02
2.156992e+03,7.707824e+02
2.157956e+03,7.704266e+02
2.158920e+03,7.705197e+02
2.159885e+03,7.690016e+02
2.160849e+03,7.695461e+02
2.161813e+03,7.747891e+02
2.162777e+03,7.803008e+02
2.163741e+03,7.838483e+02
2.164706e+03,7.842625e+02
2.165670e+03,7.815079e+02
2.166634e+03,7.777959e+02
2.167598e+03,7.746624e+02
2.168563e+03,7.704268e+02
2.169527e+03,7.627729e+02
2.170491e+03,7.564830e+02
2.171455e+03,7.597725e+02
2.172420e+03,7.643025e+02
2.173384e+03,7.641528e+02
2.174348e+03,7.641164e+02
2.175312e+03,7.704138e+02
2.176277e+03,7.750377e+02
2.177241e+03,7.664839e+02
2.178205e+03,7.573173e+02
2.179169e+03,7.562742e+02
2.180134e+03,7.586600e+02
2.181098e+03,7.571943e+02
2.182062e+03,7.566027e+02
2.183026e+03,7.602679e+02
2.183990e+03,7.639479e+02
2.184955e+03,7.599510e+02
2.185919e+03,7.548627e+02
2.186883e+03,7.533546e+02
2.187847e+03,7.539128e+02
2.188812e+03,7.575701e+02
2.189776e+03,7.603095e+02
2.190740e+03,7.555273e+02
2.191704e+03,7.485599e+02
2.192668e+03,7.433851e+02
2.193633e+03,7.406613e+02
2.194597e+03,7.429221e+02
2.195561e+03,7.465827e+02
2.196525e+03,7.484340e+02
2.197490e+03,7.484281e+02
2.198454e+03,7.453578e+02
2.199418e+03,7.416049e+02
2.200382e+03,7.392998e+02
2.201347e+03,7.387552e+02
2.202311e+03,7.400980e+02
2.203275e+03,7.424348e+02
2.204239e+03,7.445951e+02
2.205204e+03,7.460211e+02
2.206168e+03,7.486946e+02
2.207132e+03,7.499330e+02
2.208096e+03,7.428217e+02
2.209061e+03,7.340192e+02
2.210025e+03,7.320942e+02
2.210989e+03,7.329867e+02
2.211953e+03,7.311078e+02
2.212917e+03,7.288964e+02
2.213882e+03,7.256614e+02
2.214846e+03,7.232568e+02
2.215810e+03,7.289507e+02
2.216774e+03,7.348248e+02
2.217739e+03,7.349287e+02
2.218703e+03,7.320552e+02
2.219667e+03,7.306498e+02
2.220631e+03,7.285374e+02
2.221595e+03,7.216248e+02
2.222560e+03,7.149766e+02
2.223524e+03,7.183729e+02
2.224488e+03,7.239814e+02
2.225452e+03,7.215726e+02
2.226417e+03,7.180966e+02
2.227381e+03,7.214577e+02
2.228345e+03,7.268289e+02
2.229309e+03,7.270768e+02
2.230274e+03,7.249852e+02
2.231238e+03,7.233686e+02
2.232202e+03,7.212528e+02
2.233166e+03,7.169526e+02
2.234131e+03,7.131534e+02
2.235095e+03,7.115609e+02
2.236059e+03,7.111785e+02
2.237023e+03,7.102894e+02
2.237988e+03,7.098494e+02
2.238952e+03,7.106199e+02
2.239916e+03,7.108647e+02
2.240880e+03,7.082766e+02
2.241844e+03,7.056870e+02
2.242809e+03,7.048278e+02
2.243773e+03,7.053041e+02
2.244737e+03,7.077697e+02
2.245701e+03,7.092794e+02
2.246666e+03,7.064471e+02
2.247630e+03,7.027927e+02
2.248594e+03,7.010079e+02
2.249558e+03,7.008545e+02
2.250522e+03,7.034219e+02
2.251487e+03,7.045842e+02
2.252451e+03,7.008727e+02
2.253415e+03,6.959134e+02
2.254379e+03,6.950672e+02
2.255344e+03,6.941174e+02
2.256308e+03,6.915241e+02
2.257272e+03,6.884597e+02
2.258236e+03,6.854715e+02
2.259201e+03,6.829529e+02
2.260165e+03,6.801359e+02
2.261129e+03,6.798747e+02
2.262093e+03,6.888914e+02
2.263058e+03,6.932672e+02
2.264022e+03,6.891298e+02
2.264986e+03,6.853179e+02
2.265950e+03,6.881583e+02
2.266915e+03,6.902381e+02
2.267879e+03,6.888804e+02
2.268843e+03,6.859520e+02
2.269807e+03,6.822196e+02
2.270771e+03,6.809757e+02
2.271736e+03,6.840681e+02
2.272700e+03,6.887512e+02
2.273664e+03,6.943822e+02
2.274628e+03,6.943029e+02
2.275593e+03,6.816400e+02
2.276557e+03,6.756734e+02
2.277521e+03,6.799503e+02
2.278485e+03,6.829006e+02
2.279449e+03,6.758088e+02
2.280414e+03,6.762553e+02
2.281378e+03,6.848713e+02
2.282342e+03,6.911776e+02
2.283306e+03,6.879369e+02
2.284271e+03,6.846661e+02
2.285235e+03,6.812168e+02
2.286199e+03,6.774184e+02
2.287163e+03,6.740842e+02
2.288128e+03,6.704602e+02
2.289092e+03,6.663121e+02
2.290056e+03,6.659370e+02
2.291020e+03,6.707874e+02
2.291985e+03,6.733989e+02
2.292949e+03,6.742245e+02
2.293913e+03,6.742522e+02
2.294877e+03,6.734752e+02
2.295842e+03,6.737106e+02
2.296806e+03,6.742260e+02
2.297770e+03,6.704274e+02
2.298734e+03,6.641592e+02
2.299698e+03,6.643717e+02
2.300663e+03,6.701449e+02
2.301627e+03,6.709506e+02
2.302591e+03,6.683145e+02
2.303555e+03,6.666435e+02
2.304520e+03,6.662875e+02
2.305484e+03,6.682474e+02
2.306448e+03,6.709782e+02
2.307412e+03,6.717420e+02
2.308376e+03,6.702502e+02
2.309341e+03,6.633806e+02
2.310305e+03,6.569486e+02
2.311269e+03,6.617078e+02
2.312233e+03,6.696935e+02
2.313198e+03,6.664229e+02
2.314162e+03,6.588159e+02
2.315126e+03,6.537825e+02
2.316090e+03,6.504576e+02
2.317055e+03,6.472178e+02
2.318019e+03,6.467987e+02
2.318983e+03,6.543647e+02
2.319947e+03,6.603704e+02
2.320912e+03,6.581569e+02
2.321876e+03,6.522773e+02
2.322840e+03,6.419450e+02
2.323804e+03,6.370873e+02
2.324769e+03,6.449263e+02
2.325733e+03,6.534454e+02
2.326697e+03,6.543558e+02
2.327661e+03,6.517601e+02
2.328625e+03,6.452561e+02
2.329590e+03,6.400831e+02
2.330554e+03,6.409608e+02
2.331518e+03,6.422864e+02
2.332482e+03,6.432204e+02
2.333447e+03,6.436508e+02
2.334411e+03,6.428136e+02
2.335375e+03,6.434620e+02
2.336339e+03,6.456575e+02
2.337303e+03,6.470946e+02
2.338268e+03,6.467374e+02
2.339232e+03,6.437265e+02
2.340196e+03,6.388925e+02
2.341160e+03,6.367258e+02
2.342125e+03,6.386514e+02
2.343089e+03,6.382737e+02
2.344053e+03,6.356849e+02
2.345017e+03,6.350699e+02
2.345982e+03,6.368290e+02
2.346946e+03,6.368319e+02
2.347910e+03,6.361503e+02
2.348874e+03,6.362712e+02
2.349839e+03,6.362686e+02
2.350803e+03,6.336586e+02
2.351767e+03,6.310662e+02
2.352731e+03,6.358162e+02
2.353696e+03,6.423048e+02
2.354660e+03,6.391506e+02
2.355624e+03,6.325851e+02
2.356588e+03,6.325269e+02
2.357552e+03,6.362117e+02
2.358517e+03,6.435518e+02
2.359481e+03,6.493020e+02
2.360445e+03,6.446475e+02
2.361409e+03,6.381105e+02
2.362374e+03,6.336306e+02
2.363338e+03,6.302477e+02
2.364302e+03,6.287116e+02
2.365266e+03,6.277903e+02
2.366230e+03,6.264427e+02
2.367195e+03,6.264502e+02
2.368159e+03,6.292490e+02
2.369123e+03,6.334811e+02
2.370087e+03,6.397709e+02
2.371052e+03,6.409127e+02
2.372016e+03,6.306860e+02
2.372980e+03,6.234435e+02
2.373944e+03,6.197841e+02
2.374909e+03,6.206501e+02
2.375873e+03,6.286570e+02
2.376837e+03,6.294525e+02
2.377801e+03,6.244258e+02
2.378766e+03,6.177461e+02
2.379730e+03,6.106744e+02
2.380694e+03,6.133821e+02
2.381658e+03,6.216059e+02
2.382623e+03,6.218158e+02
2.383587e+03,6.165724e+02
2.384551e+03,6.163397e+02
2.385515e+03,6.184766e+02
2.386479e+03,6.196009e+02
2.387444e+03,6.203950e+02
2.388408e+03,6.232665e+02
2.389372e+03,6.252914e+02
2.390336e+03,6.214529e+02
2.391301e+03,6.176710e+02
2.392265e+03,6.208765e+02
2.393229e+03,6.240644e+02
2.394193e+03,6.232227e+02
2.395157e+03,6.211150e+02
2.396122e+03,6.199806e+02
2.397086e+03,6.163827e+02
2.398050e+03,6.086954e+02
2.399014e+03,6.041884e+02
2.399979e+03,6.060731e+02
2.400943e+03,6.090452e+02
2.401907e+03,6.119189e+02
2.402871e+03,6.124307e+02
2.403836e+03,6.102078e+02
2.404800e+03,6.057082e+02
2.405764e+03,5.995467e+02
2.406728e+03,6.021432e+02
2.407693e+03,6.118654e+02
2.408657e+03,6.141539e+02
2.409621e+03,6.102921e+02
2.410585e+03,6.054553e+02
2.411550e+03,6.012338e+02
2.412514e+03,5.997512e+02
2.413478e+03,6.004249e+02
2.414442e+03,6.042033e+02
2.415406e+03,6.067285e+02
2.416371e+03,6.019891e+02
2.417335e+03,5.960911e+02
2.418299e+03,5.988639e+02
2.419263e+03,6.027365e+02
2.420228e+03,6.035303e+02
2.421192e+03,6.034721e+02
2.422156e+03,6.036839e+02
2.423120e+03,6.069393e+02
2.424084e+03,6.141857e+02
2.425049e+03,6.164520e+02
2.426013e+03,6.069285e+02
2.426977e+03,5.996237e+02
2.427941e+03,5.963264e+02
2.428906e+03,5.974346e+02
2.429870e+03,6.037987e+02
2.430834e+03,6.018339e+02
2.431798e+03,5.936572e+02
2.432763e+03,5.918193e+02
2.433727e+03,5.961672e+02
2.434691e+03,5.980403e+02
2.435655e+03,5.976609e+02
2.436620e+03,5.952957e+02
2.437584e+03,5.920148e+02
2.438548e+03,5.893925e+02
2.439512e+03,5.887144e+02
2.440477e+03,5.916577e+02
2.441441e+03,5.940004e+02
2.442405e+03,5.875967e+02
2.443369e+03,5.847505e+02
2.444333e+03,5.922746e+02
2.445298e+03,5.987646e+02
2.446262e+03,5.917715e+02
2.447226e+03,5.857067e+02
2.448190e+03,5.834864e+02
2.449155e+03,5.817731e+02
2.450119e+03,5.775461e+02
2.451083e+03,5.787984e+02
2.452047e+03,5.846925e+02
2.453011e+03,5.883060e+02
2.453976e+03,5.881356e+02
2.454940e+03,5.904787e+02
2.455904e+03,5.935012e+02
2.456868e+03,5.870307e+02
2.457833e+03,5.753816e+02
2.458797e+03,5.766730e+02
2.459761e+03,5.829005e+02
2.460725e+03,5.818773e+02
2.461690e+03,5.784841e+02
2.462654e+03,5.813369e+02
2.463618e+03,5.835881e+02
2.464582e+03,5.810676e+02
2.465547e+03,5.781995e+02
2.466511e+03,5.788152e+02
2.467475e+03,5.773517e+02
2.468439e+03,5.722401e+02
2.469404e+03,5.701414e+02
2.470368e+03,5.779308e+02
2.471332e+03,5.864310e+02
2.472296e+03,5.942679e+02
2.473260e+03,5.938947e+02
2.474225e+03,5.827784e+02
2.475189e+03,5.765540e+02
2.476153e+03,5.750222e+02
2.477117e+03,5.785586e+02
2.478082e+03,5.838406e+02
2.479046e+03,5.802711e+02
2.480010e+03,5.749550e+02
2.480974e+03,5.795088e+02
2.481938e+03,5.857073e+02
2.482903e+03,5.809151e+02
2.483867e+03,5.755090e+02
2.484831e+03,5.747895e+02
2.485795e+03,5.761237e+02
2.486760e+03,5.799215e+02
2.487724e+03,5.814525e+02
2.488688e+03,5.802114e+02
2.489652e+03,5.792112e+02
2.490617e+03,5.800150e+02
2.491581e+03,5.787106e+02
2.492545e+03,5.759296e+02
2.493509e+03,5.731508e+02
2.494474e+03,5.706542e+02
2.495438e+03,5.744473e+02
2.496402e+03,5.810607e+02
2.497366e+03,5.836348e+02
2.498331e+03,5.823197e+02
2.499295e+03,5.735114e+02
2.500259e+03,5.658801e+02
2.501223e+03,5.687222e+02
2.502188e+03,5.722948e+02
2.503152e+03,5.632328e+02
2.504116e+03,5.572832e+02
2.505080e+03,5.590798e+02
2.506044e+03,5.633187e+02
2.507009e+03,5.692077e+02
2.507973e+03,5.698229e+02
2.508937e+03,5.657674e+02
2.509901e+03,5.630602e+02
2.510865e+03,5.629193e+02
2.511830e+03,5.670731e+02
2.512794e+03,5.726829e+02
2.513758e+03,5.722175e+02
2.514722e+03,5.681364e+02
2.515687e+03,5.654569e+02
2.516651e+03,5.636076e+02
2.517615e+03,5.618288e+02
2.518579e+03,5.603980e+02
2.519544e+03,5.608126e+02
2.520508e+03,5.594069e+02
2.521472e+03,5.546648e+02
2.522436e+03,5.516159e+02
2.523401e+03,5.554666e+02
2.524365e+03,5.588281e+02
2.525329e+03,5.607375e+02
2.526293e+03,5.609996e+02
2.527258e+03,5.600026e+02
2.528222e+03,5.588599e+02
2.529186e+03,5.581707e+02
2.530150e+03,5.600887e+02
2.531115e+03,5.637479e+02
2.532079e+03,5.660959e+02
2.533043e+03,5.666701e+02
2.534007e+03,5.650141e+02
2.534971e+03,5.619493e+02
2.535936e+03,5.576019e+02
2.536900e+03,5.561500e+02
2.537864e+03,5.593162e+02
2.538828e+03,5.632739e+02
2.539792e+03,5.667023e+02
2.540757e+03,5.619950e+02
2.541721e+03,5.488508e+02
2.542685e+03,5.447621e+02
2.543649e+03,5.506442e+02
2.544614e+03,5.592999e+02
2.545578e+03,5.672266e+02
2.546542e+03,5.680615e+02
2.547506e+03,5.639020e+02
2.548471e+03,5.561652e+02
2.549435e+03,5.498849e+02
2.550399e+03,5.504659e+02
2.551363e+03,5.523210e+02
2.552328e+03,5.505173e+02
2.553292e+03,5.513164e+02
2.554256e+03,5.583030e+02
2.555220e+03,5.595544e+02
2.556185e+03,5.529677e+02
2.557149e+03,5.528164e+02
2.558113e+03,5.609357e+02
2.559077e+03,5.618109e+02
2.560042e+03,5.573087e+02
2.561006e+03,5.579695e+02
2.561970e+03,5.616942e+02
2.562934e+03,5.603625e+02
2.563898e+03,5.579744e+02
2.564863e+03,5.597737e+02
2.565827e+03,5.605664e+02
2.566791e+03,5.569453e+02
2.567755e+03,5.521231e+02
2.568719e+03,5.461370e+02
2.569684e+03,5.423915e+02
2.570648e+03,5.438966e+02
2.571612e+03,5.413817e+02
2.572576e+03,5.364781e+02
2.573541e+03,5.367297e+02
2.574505e+03,5.419321e+02
2.575469e+03,5.530990e+02
2.576433e+03,5.622953e+02
2.577398e+03,5.564583e+02
2.578362e+03,5.458292e+02
2.579326e+03,5.430671e+02
2.580290e+03,5.414320e+02
2.581255e+03,5.373141e+02
2.582219e+03,5.342629e+02
2.583183e+03,5.359641e+02
2.584147e+03,5.385291e+02
2.585112e+03,5.420769e+02
2.586076e+03,5.400378e+02
2.587040e+03,5.315847e+02
2.588004e+03,5.359673e+02
2.588969e+03,5.457167e+02
2.589933e+03,5.450657e+02
2.590897e+03,5.392025e+02
2.591861e+03,5.384456e+02
2.592825e+03,5.391697e+02
2.593790e+03,5.389287e+02
2.594754e+03,5.380396e+02
2.595718e+03,5.366050e+02
2.596682e+03,5.347682e+02
2.597646e+03,5.321786e+02
2.598611e+03,5.334213e+02
2.599575e+03,5.386617e+02
2.600539e+03,5.408112e+02
2.601503e+03,5.400762e+02
2.602468e+03,5.425084e+02
2.603432e+03,5.451901e+02
2.604396e+03,5.416140e+02
2.605360e+03,5.370199e+02
2.606325e+03,5.362946e+02
2.607289e+03,5.337933e+02
2.608253e+03,5.262076e+02
2.609217e+03,5.241637e+02
2.610182e+03,5.351853e+02
2.611146e+03,5.379752e+02
2.612110e+03,5.331077e+02
2.613074e+03,5.322701e+02
2.614039e+03,5.361379e+02
2.615003e+03,5.362631e+02
2.615967e+03,5.341586e+02
2.616931e+03,5.334259e+02
2.617896e+03,5.331773e+02
2.618860e+03,5.305212e+02
2.619824e+03,5.303353e+02
2.620788e+03,5.341176e+02
2.621752e+03,5.390899e+02
2.622717e+03,5.466522e+02
2.623681e+03,5.442344e+02
2.624645e+03,5.329406e+02
2.625609e+03,5.280358e+02
2.626573e+03,5.296683e+02
2.627538e+03,5.320792e+02
2.628502e+03,5.350486e+02
2.629466e+03,5.394052e+02
2.630430e+03,5.404628e+02
2.631395e+03,5.261041e+02
2.632359e+03,5.153419e+02
2.633323e+03,5.158901e+02
2.634287e+03,5.183361e+02
2.635252e+03,5.202935e+02
2.636216e+03,5.210691e+02
2.637180e+03,5.203948e+02
2.638144e+03,5.222128e+02
2.639109e+03,5.251863e+02
2.640073e+03,5.264084e+02
2.641037e+03,5.271866e+02
2.642001e+03,5.307203e+02
2.642966e+03,5.283279e+02
2.643930e+03,5.138960e+02
2.644894e+03,5.036270e+02
2.645858e+03,5.117606e+02
2.646823e+03,5.208238e+02
2.647787e+03,5.287279e+02
2.648751e+03,5.305187e+02
2.649715e+03,5.263669e+02
2.650679e+03,5.237865e+02
2.651644e+03,5.222906e+02
2.652608e+03,5.206348e+02
2.653572e+03,5.196332e+02
2.654536e+03,5.222553e+02
2.655500e+03,5.235435e+02
2.656465e+03,5.213456e+02
2.657429e+03,5.202530e+02
2.658393e+03,5.215582e+02
2.659357e+03,5.204245e+02
2.660322e+03,5.173402e+02
2.661286e+03,5.151097e+02
2.662250e+03,5.143735e+02
2.663214e+03,5.189537e+02
2.664179e+03,5.237376e+02
2.665143e+03,5.221467e+02
2.666107e+03,5.196398e+02
2.667071e+03,5.196160e+02
2.668036e+03,5.171571e+02
2.669000e+03,5.049262e+02
2.669964e+03,5.050423e+02
2.670928e+03,5.154030e+02
2.671893e+03,5.201120e+02
2.672857e+03,5.187326e+02
2.673821e+03,5.127460e+02
2.674785e+03,5.076810e+02
2.675750e+03,5.103895e+02
2.676714e+03,5.146467e+02
2.677678e+03,5.122454e+02
2.678642e+03,5.118334e+02
2.679606e+03,5.156484e+02
2.680571e+03,5.138551e+02
2.681535e+03,5.053051e+02
2.682499e+03,5.036507e+02
2.683463e+03,5.082563e+02
2.684427e+03,5.139310e+02
2.685392e+03,5.181883e+02
2.686356e+03,5.141321e+02
2.687320e+03,5.084859e+02
2.688284e+03,5.069197e+02
2.689249e+03,5.008321e+02
2.690213e+03,4.884433e+02
2.691177e+03,4.835732e+02
2.692141e+03,4.922719e+02
2.693106e+03,4.985100e+02
2.694070e+03,5.023720e+02
2.695034e+03,5.027232e+02
2.695998e+03,5.023043e+02
2.696963e+03,5.077276e+02
2.697927e+03,5.102144e+02
2.698891e+03,5.043587e+02
2.699855e+03,5.013506e+02
2.700820e+03,5.083875e+02
2.701784e+03,5.100396e+02
2.702748e+03,5.055763e+02
2.703712e+03,5.048660e+02
2.704677e+03,5.067447e+02
2.705641e+03,5.071434e+02
2.706605e+03,5.064575e+02
2.707569e+03,5.043914e+02
2.708533e+03,4.996889e+02
2.709498e+03,4.908697e+02
2.710462e+03,4.876450e+02
2.711426e+03,4.988989e+02
2.712390e+03,4.964379e+02
2.713354e+03,4.848419e+02
2.714319e+03,4.882375e+02
2.715283e+03,4.997884e+02
2.716247e+03,5.023629e+02
2.717211e+03,5.024067e+02
2.718176e+03,5.054691e+02
2.719140e+03,5.060466e+02
2.720104e+03,4.989468e+02
2.721068e+03,4.924073e+02
2.722033e+03,4.879118e+02
2.722997e+03,4.897210e+02
2.723961e+03,4.950921e+02
2.724925e+03,4.937819e+02
2.725890e+03,4.900039e+02
2.726854e+03,4.866950e+02
2.727818e+03,4.911220e+02
2.728782e+03,5.084260e+02
2.729747e+03,5.158887e+02
2.730711e+03,4.934800e+02
2.731675e+03,4.875464e+02
2.732639e+03,4.953043e+02
2.733604e+03,4.989221e+02
2.734568e+03,4.992916e+02
2.735532e+03,5.056641e+02
2.736496e+03,5.081181e+02
2.737460e+03,4.996646e+02
2.738425e+03,4.889600e+02
2.739389e+03,4.796076e+02
2.740353e+03,4.767311e+02
2.741317e+03,4.815985e+02
2.742281e+03,4.910844e+02
2.743246e+03,5.006879e+02
2.744210e+03,4.910352e+02
2.745174e+03,4.765446e+02
2.746138e+03,4.773686e+02
2.747103e+03,4.815652e+02
2.748067e+03,4.843311e+02
2.749031e+03,4.836848e+02
2.749995e+03,4.751573e+02
2.750960e+03,4.758009e+02
2.751924e+03,4.826269e+02
2.752888e+03,4.861674e+02
2.753852e+03,4.862045e+02
2.754817e+03,4.807426e+02
2.755781e+03,4.767691e+02
2.756745e+03,4.782510e+02
2.757709e+03,4.816295e+02
2.758674e+03,4.852052e+02
2.759638e+03,4.833951e+02
2.760602e+03,4.765430e+02
2.761566e+03,4.803989e+02
2.762531e+03,4.877644e+02
2.763495e+03,4.841481e+02
2.764459e+03,4.776827e+02
2.765423e+03,4.770626e+02
2.766387e+03,4.748466e+02
2.767352e+03,4.698212e+02
2.768316e+03,4.705520e+02
2.769280e+03,4.782736e+02
2.770244e+03,4.804284e+02
2.771208e+03,4.782309e+02
2.772173e+03,4.744159e+02
2.773137e+03,4.703966e+02
2.774101e+03,4.684406e+02
2.775065e+03,4.680653e+02
2.776030e+03,4.695572e+02
2.776994e+03,4.675304e+02
2.777958e+03,4.629884e+02
2.778922e+03,4.689103e+02
2.779887e+03,4.802381e+02
2.780851e+03,4.828427e+02
2.781815e+03,4.768631e+02
2.782779e+03,4.633502e+02
2.783744e+03,4.529991e+02
2.784708e+03,4.514816e+02
2.785672e+03,4.591376e+02
2.786636e+03,4.734936e+02
2.787601e+03,4.770515e+02
2.788565e+03,4.737220e+02
2.789529e+03,4.724720e+02
2.790493e+03,4.736324e+02
2.791458e+03,4.815060e+02
2.792422e+03,4.805213e+02
2.793386e+03,4.688681e+02
2.794350e+03,4.646617e+02
2.795314e+03,4.719414e+02
2.796279e+03,4.717235e+02
2.797243e+03,4.692326e+02
2.798207e+03,4.746917e+02
2.799171e+03,4.811452e+02
2.800135e+03,4.789551e+02
2.801100e+03,4.746156e+02
2.802064e+03,4.694283e+02
2.803028e+03,4.726216e+02
2.803992e+03,4.809073e+02
2.804957e+03,4.733011e+02
2.805921e+03,4.601395e+02
2.806885e+03,4.623402e+02
2.807849e+03,4.668036e+02
2.808814e+03,4.666127e+02
2.809778e+03,4.655361e+02
2.810742e+03,4.660739e+02
2.811706e+03,4.602552e+02
2.812671e+03,4.518548e+02
2.813635e+03,4.557475e+02
2.814599e+03,4.654000e+02
2.815563e+03,4.710675e+02
2.816528e+03,4.726324e+02
2.817492e+03,4.689197e+02
2.818456e+03,4.605461e+02
2.819420e+03,4.489961e+02
2.820385e+03,4.467422e+02
2.821349e+03,4.520834e+02
2.822313e+03,4.538957e+02
2.823277e+03,4.538934e+02
2.824241e+03,4.536831e+02
2.825206e+03,4.517118e+02
2.826170e+03,4.463537e+02
2.827134e+03,4.458174e+02
2.828098e+03,4.507037e+02
2.829063e+03,4.597250e+02
2.830027e+03,4.677032e+02
2.830991e+03,4.609686e+02
2.831955e+03,4.550519e+02
2.832919e+03,4.644258e+02
2.833884e+03,4.689534e+02
2.834848e+03,4.659431e+02
2.835812e+03,4.643869e+02
2.836776e+03,4.654503e+02
2.837741e+03,4.701602e+02
2.838705e+03,4.681042e+02
2.839669e+03,4.436618e+02
2.840633e+03,4.296601e+02
2.841598e+03,4.447912e+02
2.842562e+03,4.561987e+02
2.843526e+03,4.561557e+02
2.844490e+03,4.519619e+02
2.845455e+03,4.475904e+02
2.846419e+03,4.524526e+02
2.847383e+03,4.572798e+02
2.848347e+03,4.490947e+02
2.849312e+03,4.424207e+02
2.850276e+03,4.399486e+02
2.851240e+03,4.458161e+02
2.852204e+03,4.561796e+02
2.853168e+03,4.546137e+02
2.854133e+03,4.494507e+02
2.855097e+03,4.550624e+02
2.856061e+03,4.541944e+02
2.857025e+03,4.413321e+02
2.857990e+03,4.373700e+02
2.858954e+03,4.490096e+02
2.859918e+03,4.511926e+02
2.860882e+03,4.491249e+02
2.861846e+03,4.519663e+02
2.862811e+03,4.549119e+02
2.863775e+03,4.533166e+02
2.864739e+03,4.495136e+02
2.865703e+03,4.438362e+02
2.866668e+03,4.484545e+02
2.867632e+03,4.569456e+02
2.868596e+03,4.471804e+02
2.869560e+03,4.353611e+02
2.870525e+03,4.446884e+02
2.871489e+03,4.543542e+02
2.872453e+03,4.588556e+02
2.873417e+03,4.592210e+02
2.874382e+03,4.567368e+02
2.875346e+03,4.558100e+02
2.876310e+03,4.553934e+02
2.877274e+03,4.506914e+02
2.878239e+03,4.503970e+02
2.879203e+03,4.571932e+02
2.880167e+03,4.578045e+02
2.881131e+03,4.483955e+02
2.882095e+03,4.480109e+02
2.883060e+03,4.527356e+02
2.884024e+03,4.562904e+02
2.884988e+03,4.558675e+02
2.885952e+03,4.459185e+02
2.886917e+03,4.462895e+02
2.887881e+03,4.627950e+02
2.888845e+03,4.626155e+02
2.889809e+03,4.515909e+02
2.890773e+03,4.410431e+02
2.891738e+03,4.372100e+02
2.892702e+03,4.577335e+02
2.893666e+03,4.656267e+02
2.894630e+03,4.551771e+02
2.895595e+03,4.533178e+02
2.896559e+03,4.593574e+02
2.897523e+03,4.609061e+02
2.898487e+03,4.582925e+02
2.899452e+03,4.471317e+02
2.900416e+03,4.437849e+02
2.901380e+03,4.505777e+02
2.902344e+03,4.537371e+02
2.903309e+03,4.508688e+02
2.904273e+03,4.417957e+02
2.905237e+03,4.322739e+02
2.906201e+03,4.272997e+02
2.907166e+03,4.284360e+02
2.908130e+03,4.361153e+02
2.909094e+03,4.384160e+02
2.910058e+03,4.333478e+02
2.911022e+03,4.249200e+02
2.911987e+03,4.226967e+02
2.912951e+03,4.379379e+02
2.913915e+03,4.501077e+02
2.914879e+03,4.426540e+02
2.915844e+03,4.364708e+02
2.916808e+03,4.339153e+02
2.917772e+03,4.334552e+02
2.918736e+03,4.344455e+02
2.919700e+03,4.357846e+02
2.920665e+03,4.379365e+02
2.921629e+03,4.435171e+02
2.922593e+03,4.439619e+02
2.923557e+03,4.400484e+02
2.924522e+03,4.359837e+02
2.925486e+03,4.324962e+02
2.926450e+03,4.318133e+02
2.927414e+03,4.284960e+02
2.928379e+03,4.177750e+02
2.929343e+03,4.166797e+02
2.930307e+03,4.239763e+02
2.931271e+03,4.277208e+02
2.932236e+03,4.289813e+02
2.933200e+03,4.295240e+02
2.934164e+03,4.297982e+02
2.935128e+03,4.295499e+02
2.936093e+03,4.288749e+02
2.937057e+03,4.282552e+02
2.938021e+03,4.282529e+02
2.938985e+03,4.284896e+02
2.939949e+03,4.247701e+02
2.940914e+03,4.285638e+02
2.941878e+03,4.432191e+02
2.942842e+03,4.430552e+02
2.943806e+03,4.252130e+02
2.944771e+03,4.228864e+02
2.945735e+03,4.269911e+02
2.946699e+03,4.208147e+02
2.947663e+03,4.241237e+02
2.948627e+03,4.415829e+02
2.949592e+03,4.492286e+02
2.950556e+03,4.431596e+02
2.951520e+03,4.257257e+02
2.952484e+03,4.130424e+02
2.953449e+03,4.211483e+02
2.954413e+03,4.332140e+02
2.955377e+03,4.417982e+02
2.956341e+03,4.571554e+02
2.957306e+03,4.755612e+02
2.958270e+03,4.745223e+02
2.959234e+03,4.595645e+02
2.960198e+03,4.371832e+02
2.961163e+03,4.200964e+02
2.962127e+03,4.124886e+02
2.963091e+03,4.218949e+02
2.964055e+03,4.380175e+02
2.965020e+03,4.257786e+02
2.965984e+03,4.115397e+02
2.966948e+03,4.142545e+02
2.967912e+03,4.198916e+02
2.968876e+03,4.238093e+02
2.969841e+03,4.233479e+02
2.970805e+03,4.214111e+02
2.971769e+03,4.270591e+02
2.972733e+03,4.257270e+02
2.973698e+03,4.046715e+02
2.974662e+03,3.954458e+02
2.975626e+03,4.075001e+02
2.976590e+03,4.212694e+02
2.977554e+03,4.263689e+02
2.978519e+03,4.070669e+02
2.979483e+03,3.940997e+02
2.980447e+03,4.117537e+02
2.981411e+03,4.163232e+02
2.982376e+03,4.047518e+02
2.983340e+03,4.062383e+02
2.984304e+03,4.093846e+02
2.985268e+03,4.019909e+02
2.986233e+03,3.977103e+02
2.987197e+03,4.054204e+02
2.988161e+03,4.126962e+02
2.989125e+03,4.174493e+02
2.990090e+03,4.175192e+02
2.991054e+03,4.108444e+02
2.992018e+03,3.946070e+02
2.992982e+03,3.861837e+02
2.993947e+03,3.942892e+02
2.994911e+03,4.038765e+02
2.995875e+03,4.125043e+02
2.996839e+03,4.165255e+02
2.997803e+03,4.159553e+02
2.998768e+03,4.116808e+02
2.999732e+03,4.007095e+02
3.000696e+03,3.847158e+02
3.001660e+03,3.846078e+02
3.002625e+03,3.921206e+02
3.003589e+03,3.997311e+02
3.004553e+03,3.986638e+02
3.005517e+03,3.847842e+02
3.006481e+03,3.752765e+02
3.007446e+03,3.744635e+02
3.008410e+03,3.932851e+02
3.009374e+03,4.122711e+02
3.010338e+03,4.207242e+02
3.011303e+03,4.182943e+02
3.012267e+03,4.043735e+02
3.013231e+03,3.957519e+02
3.014195e+03,3.934555e+02
3.015160e+03,3.994589e+02
3.016124e+03,4.056448e+02
3.017088e+03,4.088394e+02
3.018052e+03,4.120453e+02
3.019017e+03,4.148878e+02
3.019981e+03,4.127403e+02
3.020945e+03,4.075551e+02
3.021909e+03,3.993590e+02
3.022874e+03,4.004510e+02
3.023838e+03,4.105230e+02
3.024802e+03,4.119481e+02
3.025766e+03,4.060015e+02
3.026730e+03,3.935182e+02
3.027695e+03,3.884355e+02
3.028659e+03,3.966058e+02
3.029623e+03,4.058055e+02
3.030587e+03,4.124612e+02
3.031552e+03,4.060626e+02
3.032516e+03,3.981767e+02
3.033480e+03,4.063722e+02
3.034444e+03,4.091628e+02
3.035408e+03,4.034122e+02
3.036373e+03,3.967278e+02
3.037337e+03,3.915179e+02
3.038301e+03,3.953385e+02
3.039265e+03,3.993131e+02
3.040230e+03,3.976229e+02
3.041194e+03,3.967416e+02
3.042158e+03,3.956220e+02
3.043122e+03,3.890531e+02
3.044087e+03,3.806007e+02
3.045051e+03,3.708680e+02
3.046015e+03,3.746107e+02
3.046979e+03,3.986601e+02
3.047944e+03,3.978916e+02
3.048908e+03,3.861597e+02
3.049872e+03,3.858805e+02
3.050836e+03,3.881666e+02
3.051801e+03,3.863644e+02
3.052765e+03,3.894712e+02
3.053729e+03,3.962388e+02
3.054693e+03,3.980288e+02
3.055657e+03,3.961938e+02
3.056622e+03,3.914130e+02
3.057586e+03,3.906543e+02
3.058550e+03,3.960066e+02
3.059514e+03,3.880856e+02
3.060479e+03,3.790978e+02
3.061443e+03,3.911817e+02
3.062407e+03,4.050799e+02
3.063371e+03,4.142851e+02
3.064335e+03,3.998272e+02
3.065300e+03,3.717184e+02
3.066264e+03,3.728742e+02
3.067228e+03,3.817468e+02
3.068192e+03,3.854966e+02
3.069157e+03,3.897506e+02
3.070121e+03,3.939258e+02
3.071085e+03,3.916938e+02
3.072049e+03,3.863195e+02
3.073014e+03,3.784367e+02
3.073978e+03,3.789460e+02
3.074942e+03,3.903387e+02
3.075906e+03,4.007953e+02
3.076871e+03,4.061037e+02
3.077835e+03,3.995913e+02
3.078799e+03,3.963841e+02
3.079763e+03,4.094938e+02
3.080728e+03,3.992968e+02
3.081692e+03,3.741757e+02
3.082656e+03,3.694275e+02
3.083620e+03,3.778534e+02
3.084584e+03,3.934258e+02
3.085549e+03,4.083835e+02
3.086513e+03,4.197275e+02
3.087477e+03,3.830606e+02
3.088441e+03,3.523078e+02
3.089406e+03,3.980907e+02
3.090370e+03,4.190576e+02
3.091334e+03,4.024613e+02
3.092298e+03,3.944389e+02
3.093262e+03,3.924632e+02
3.094227e+03,3.817230e+02
3.095191e+03,3.710663e+02
3.096155e+03,3.634536e+02
3.097119e+03,3.614068e+02
3.098084e+03,3.686930e+02
3.099048e+03,3.953078e+02
3.100012e+03,4.160388e+02
3.100976e+03,4.102388e+02
3.101941e+03,3.983925e+02
3.102905e+03,3.851991e+02
3.103869e+03,3.844511e+02
3.104833e+03,3.796285e+02
3.105798e+03,3.606523e+02
3.106762e+03,3.505216e+02
3.107726e+03,3.542696e+02
3.108690e+03,3.725683e+02
3.109655e+03,3.861916e+02
3.110619e+03,3.618837e+02
3.111583e+03,3.569549e+02
3.112547e+03,3.754771e+02
3.113511e+03,3.778495e+02
3.114476e+03,3.707758e+02
3.115440e+03,3.717129e+02
3.116404e+03,3.775796e+02
3.117368e+03,3.905135e+02
3.118333e+03,3.882394e+02
3.119297e+03,3.793472e+02
3.120261e+03,3.784540e+02
3.121225e+03,3.831343e+02
3.122189e+03,3.917633e+02
3.123154e+03,3.932633e+02
3.124118e+03,3.877458e+02
3.125082e+03,3.779507e+02
3.126046e+03,3.798210e+02
3.127011e+03,4.000775e+02
3.127975e+03,3.979079e+02
3.128939e+03,3.788795e+02
3.129903e+03,3.911620e+02
3.130868e+03,4.050239e+02
3.131832e+03,3.903515e+02
3.132796e+03,3.760819e+02
3.133760e+03,3.672298e+02
3.134725e+03,3.689976e+02
3.135689e+03,3.777681e+02
3.136653e+03,3.911851e+02
3.137617e+03,3.931747e+02
3.138582e+03,3.792634e+02
3.139546e+03,3.980670e+02
3.140510e+03,4.227568e+02
3.141474e+03,4.269093e+02
3.142438e+03,4.191200e+02
3.143403e+03,4.050213e+02
3.144367e+03,3.903758e+02
3.145331e+03,3.798247e+02
3.146295e+03,3.874890e+02
3.147260e+03,3.862093e+02
3.148224e+03,3.697564e+02
3.149188e+03,3.875711e+02
3.150152e+03,4.122523e+02
3.151116e+03,4.070947e+02
3.152081e+03,3.931131e+02
3.153045e+03,3.791219e+02
3.154009e+03,3.578368e+02
3.154973e+03,3.420291e+02
3.155938e+03,3.631226e+02
3.156902e+03,3.784695e+02
3.157866e+03,3.767235e+02
3.158830e+03,3.881768e+02
3.159795e+03,4.094056e+02
3.160759e+03,4.277151e+02
3.161723e+03,4.346483e+02
3.162687e+03,4.202164e+02
3.163652e+03,3.937699e+02
3.164616e+03,3.741013e+02
3.165580e+03,3.988183e+02
3.166544e+03,4.096276e+02
3.167509e+03,3.850591e+02
3.168473e+03,3.870595e+02
3.169437e+03,4.062228e+02
3.170401e+03,3.846301e+02
3.171365e+03,3.687956e+02
3.172330e+03,3.796836e+02
3.173294e+03,3.883145e+02
3.174258e+03,3.931834e+02
3.175222e+03,3.986225e+02
3.176187e+03,3.983898e+02
3.177151e+03,3.888698e+02
3.178115e+03,3.706916e+02
3.179079e+03,3.522158e+02
3.180043e+03,3.528876e+02
3.181008e+03,3.695233e+02
3.181972e+03,3.977484e+02
3.182936e+03,4.071348e+02
3.183900e+03,4.011645e+02
3.184865e+03,3.900493e+02
3.185829e+03,3.849451e+02
3.186793e+03,4.066093e+02
3.187757e+03,3.856649e+02
3.188722e+03,3.504254e+02
3.189686e+03,3.662441e+02
3.190650e+03,3.863875e+02
3.191614e+03,3.903647e+02
3.192579e+03,3.778813e+02
3.193543e+03,3.587028e+02
3.194507e+03,3.524831e+02
3.195471e+03,3.629645e+02
3.196436e+03,3.941232e+02
3.197400e+03,3.975195e+02
3.198364e+03,3.904835e+02
3.199328e+03,4.076880e+02
3.200292e+03,4.174872e+02
3.201257e+03,0.000000e+00
3.202221e+03,0.000000e+00
3.203185e+03,0.000000e+00
3.204149e+03,0.000000e+00
3.205114e+03,0.000000e+00
3.206078e+03,0.000000e+00
3.207042e+03,0.000000e+00
3.208006e+03,0.000000e+00
3.208970e+03,0.000000e+00
3.209935e+03,0.000000e+00
3.210899e+03,0.000000e+00
3.211863e+03,0.000000e+00
3.212827e+03,0.000000e+00
3.213792e+03,0.000000e+00
3.214756e+03,0.000000e+00
3.215720e+03,0.000000e+00
3.216684e+03,0.000000e+00
3.217649e+03,0.000000e+00
3.218613e+03,0.000000e+00
3.219577e+03,0.000000e+00
3.220541e+03,0.000000e+00
3.221506e+03,0.000000e+00
3.222470e+03,0.000000e+00
3.223434e+03,0.000000e+00
3.224398e+03,0.000000e+00
3.225363e+03,0.000000e+00
3.226327e+03,0.000000e+00
3.227291e+03,0.000000e+00
3.228255e+03,0.000000e+00
3.229219e+03,0.000000e+00
3.230184e+03,0.000000e+00
3.231148e+03,0.000000e+00
3.232112e+03,0.000000e+00
3.233076e+03,0.000000e+00
3.234041e+03,0.000000e+00
3.235005e+03,0.000000e+00
3.235969e+03,0.000000e+00
3.236933e+03,0.000000e+00
3.237897e+03,0.000000e+00
3.238862e+03,0.000000e+00
3.239826e+03,0.000000e+00
3.240790e+03,0.000000e+00
3.241754e+03,0.000000e+00
3.242719e+03,0.000000e+00
3.243683e+03,0.000000e+00
3.244647e+03,0.000000e+00
3.245611e+03,0.000000e+00
3.246576e+03,0.000000e+00
3.247540e+03,0.000000e+00
3.248504e+03,0.000000e+00
3.249468e+03,0.000000e+00
3.250433e+03,0.000000e+00
3.251397e+03,0.000000e+00
3.252361e+03,0.000000e+00
3.253325e+03,0.000000e+00
3.254290e+03,0.000000e+00
3.255254e+03,0.000000e+00
3.256218e+03,0.000000e+00
3.257182e+03,0.000000e+00
3.258146e+03,0.000000e+00
3.259111e+03,0.000000e+00
3.260075e+03,0.000000e+00
3.261039e+03,0.000000e+00
3.262003e+03,0.000000e+00
3.262968e+03,0.000000e+00
3.263932e+03,0.000000e+00
3.264896e+03,0.000000e+00
3.265860e+03,0.000000e+00
3.266824e+03,0.000000e+00
3.267789e+03,0.000000e+00
3.268753e+03,0.000000e+00
3.269717e+03,0.000000e+00
3.270681e+03,0.000000e+00
3.271646e+03,0.000000e+00
3.272610e+03,0.000000e+00
3.273574e+03,0.000000e+00
3.274538e+03,0.000000e+00
3.275503e+03,0.000000e+00
3.276467e+03,0.000000e+00
3.277431e+03,0.000000e+00
3.278395e+03,0.000000e+00
3.279360e+03,0.000000e+00
3.280324e+03,0.000000e+00
3.281288e+03,0.000000e+00
3.282252e+03,0.000000e+00
3.283217e+03,0.000000e+00
3.284181e+03,0.000000e+00
3.285145e+03,0.000000e+00
3.286109e+03,0.000000e+00
3.287073e+03,0.000000e+00
3.288038e+03,0.000000e+00
3.289002e+03,0.000000e+00
3.289966e+03,0.000000e+00
3.290930e+03,0.000000e+00
3.291895e+03,0.000000e+00
3.292859e+03,0.000000e+00
3.293823e+03,0.000000e+00
3.294787e+03,0.000000e+00
3.295751e+03,0.000000e+00
3.296716e+03,0.000000e+00
3.297680e+03,0.000000e+00
3.298644e+03,0.000000e+00
3.299608e+03,0.000000e+00
3.300573e+03,0.000000e+00
3.301537e+03,0.000000e+00
3.302501e+03,0.000000e+00
3.303465e+03,0.000000e+00
3.304430e+03,0.000000e+00
3.305394e+03,0.000000e+00
3.306358e+03,0.000000e+00
3.307322e+03,0.000000e+00
3.308287e+03,0.000000e+00
3.309251e+03,0.000000e+00
3.310215e+03,0.000000e+00
3.311179e+03,0.000000e+00
3.312144e+03,0.000000e+00
3.313108e+03,0.000000e+00
3.314072e+03,0.000000e+00
3.315036e+03,0.000000e+00
3.316000e+03,0.000000e+00
3.316965e+03,0.000000e+00
3.317929e+03,0.000000e+00
3.318893e+03,0.000000e+00
3.319857e+03,0.000000e+00
3.320822e+03,0.000000e+00
3.321786e+03,0.000000e+00
3.322750e+03,0.000000e+00
3.323714e+03,0.000000e+00
3.324678e+03,0.000000e+00
3.325643e+03,0.000000e+00
3.326607e+03,0.000000e+00
3.327571e+03,0.000000e+00
3.328535e+03,0.000000e+00
3.329500e+03,0.000000e+00
3.330464e+03,0.000000e+00
3.331428e+03,0.000000e+00
3.332392e+03,0.000000e+00
3.333357e+03,0.000000e+00
3.334321e+03,0.000000e+00
3.335285e+03,0.000000e+00
3.336249e+03,0.000000e+00
3.337214e+03,0.000000e+00
3.338178e+03,0.000000e+00
3.339142e+03,0.000000e+00
3.340106e+03,0.000000e+00
3.341071e+03,0.000000e+00
3.342035e+03,0.000000e+00
3.342999e+03,0.000000e+00
3.343963e+03,0.000000e+00
3.344927e+03,0.000000e+00
3.345892e+03,0.000000e+00
3.346856e+03,0.000000e+00
3.347820e+03,0.000000e+00
3.348784e+03,0.000000e+00
3.349749e+03,0.000000e+00
3.350713e+03,0.000000e+00
3.351677e+03,0.000000e+00
3.352641e+03,0.000000e+00
3.353605e+03,0.000000e+00
3.354570e+03,0.000000e+00
3.355534e+03,0.000000e+00
3.356498e+03,0.000000e+00
3.357462e+03,0.000000e+00
3.358427e+03,0.000000e+00
3.359391e+03,0.000000e+00
3.360355e+03,0.000000e+00
3.361319e+03,0.000000e+00
3.362284e+03,0.000000e+00
3.363248e+03,0.000000e+00
3.364212e+03,0.000000e+00
3.365176e+03,0.000000e+00
3.366141e+03,0.000000e+00
3.367105e+03,0.000000e+00
3.368069e+03,0.000000e+00
3.369033e+03,0.000000e+00
3.369998e+03,0.000000e+00
3.370962e+03,0.000000e+00
3.371926e+03,0.000000e+00
3.372890e+03,0.000000e+00
3.373854e+03,0.000000e+00
3.374819e+03,0.000000e+00
3.375783e+03,0.000000e+00
3.376747e+03,0.000000e+00
3.377711e+03,0.000000e+00
3.378676e+03,0.000000e+00
3.379640e+03,0.000000e+00
3.380604e+03,0.000000e+00
3.381568e+03,0.000000e+00
3.382532e+03,0.000000e+00
3.383497e+03,0.000000e+00
3.384461e+03,0.000000e+00
3.385425e+03,0.000000e+00
3.386389e+03,0.000000e+00
3.387354e+03,0.000000e+00
3.388318e+03,0.000000e+00
3.389282e+03,0.000000e+00
3.390246e+03,0.000000e+00
3.391211e+03,0.000000e+00
3.392175e+03,0.000000e+00
3.393139e+03,0.000000e+00
3.394103e+03,0.000000e+00
3.395068e+03,0.000000e+00
3.396032e+03,0.000000e+00
3.396996e+03,0.000000e+00
3.397960e+03,0.000000e+00
3.398925e+03,0.000000e+00
3.399889e+03,0.000000e+00
3.400853e+03,0.000000e+00
3.401817e+03,0.000000e+00
3.402781e+03,0.000000e+00
3.403746e+03,0.000000e+00
3.404710e+03,0.000000e+00
3.405674e+03,0.000000e+00
3.406638e+03,0.000000e+00
3.407603e+03,0.000000e+00
3.408567e+03,0.000000e+00
3.409531e+03,0.000000e+00
3.410495e+03,0.000000e+00
3.411459e+03,0.000000e+00
3.412424e+03,0.000000e+00
3.413388e+03,0.000000e+00
3.414352e+03,0.000000e+00
3.415316e+03,0.000000e+00
3.416281e+03,0.000000e+00
3.417245e+03,0.000000e+00
3.418209e+03,0.000000e+00
3.419173e+03,0.000000e+00
3.420138e+03,0.000000e+00
3.421102e+03,0.000000e+00
3.422066e+03,0.000000e+00
3.423030e+03,0.000000e+00
3.423995e+03,0.000000e+00
3.424959e+03,0.000000e+00
3.425923e+03,0.000000e+00
3.426887e+03,0.000000e+00
3.427852e+03,0.000000e+00
3.428816e+03,0.000000e+00
3.429780e+03,0.000000e+00
3.430744e+03,0.000000e+00
3.431708e+03,0.000000e+00
3.432673e+03,0.000000e+00
3.433637e+03,0.000000e+00
3.434601e+03,0.000000e+00
3.435565e+03,0.000000e+00
3.436530e+03,0.000000e+00
3.437494e+03,0.000000e+00
3.438458e+03,0.000000e+00
3.439422e+03,0.000000e+00
3.440386e+03,0.000000e+00
3.441351e+03,0.000000e+00
3.442315e+03,0.000000e+00
3.443279e+03,0.000000e+00
3.444243e+03,0.000000e+00
3.445208e+03,0.000000e+00
3.446172e+03,0.000000e+00
3.447136e+03,0.000000e+00
3.448100e+03,0.000000e+00
3.449065e+03,0.000000e+00
3.450029e+03,0.000000e+00
3.450993e+03,0.000000e+00
3.451957e+03,0.000000e+00
3.452922e+03,0.000000e+00
3.453886e+03,0.000000e+00
3.454850e+03,0.000000e+00
3.455814e+03,0.000000e+00
3.456779e+03,0.000000e+00
3.457743e+03,0.000000e+00
3.458707e+03,0.000000e+00
3.459671e+03,0.000000e+00
3.460635e+03,0.000000e+00
3.461600e+03,0.000000e+00
3.462564e+03,0.000000e+00
3.463528e+03,0.000000e+00
3.464492e+03,0.000000e+00
3.465457e+03,0.000000e+00
3.466421e+03,0.000000e+00
3.467385e+03,0.000000e+00
3.468349e+03,0.000000e+00
3.469313e+03,0.000000e+00
3.470278e+03,0.000000e+00
3.471242e+03,0.000000e+00
3.472206e+03,0.000000e+00
3.473170e+03,0.000000e+00
3.474135e+03,0.000000e+00
3.475099e+03,0.000000e+00
3.476063e+03,0.000000e+00
3.477027e+03,0.000000e+00
3.477992e+03,0.000000e+00
3.478956e+03,0.000000e+00
3.479920e+03,0.000000e+00
3.480884e+03,0.000000e+00
3.481849e+03,0.000000e+00
3.482813e+03,0.000000e+00
3.483777e+03,0.000000e+00
3.484741e+03,0.000000e+00
3.485706e+03,0.000000e+00
3.486670e+03,0.000000e+00
3.487634e+03,0.000000e+00
3.488598e+03,0.000000e+00
3.489563e+03,0.000000e+00
3.490527e+03,0.000000e+00
3.491491e+03,0.000000e+00
3.492455e+03,0.000000e+00
3.493419e+03,0.000000e+00
3.494384e+03,0.000000e+00
3.495348e+03,0.000000e+00
3.496312e+03,0.000000e+00
3.497276e+03,0.000000e+00
3.498240e+03,0.000000e+00
3.499205e+03,0.000000e+00
3.500169e+03,0.000000e+00
