9.931763e+01,0.000000e+00
1.002819e+02,0.000000e+00
1.012461e+02,0.000000e+00
1.022103e+02,0.000000e+00
1.031746e+02,0.000000e+00
1.041388e+02,0.000000e+00
1.051030e+02,0.000000e+00
1.060673e+02,0.000000e+00
1.070315e+02,0.000000e+00
1.079957e+02,0.000000e+00
1.089600e+02,0.000000e+00
1.099242e+02,0.000000e+00
1.108884e+02,0.000000e+00
1.118527e+02,0.000000e+00
1.128169e+02,0.000000e+00
1.137811e+02,0.000000e+00
1.147454e+02,0.000000e+00
1.157096e+02,0.000000e+00
1.166738e+02,0.000000e+00
1.176381e+02,0.000000e+00
1.186023e+02,0.000000e+00
1.195665e+02,0.000000e+00
1.205308e+02,0.000000e+00
1.214950e+02,0.000000e+00
1.224592e+02,0.000000e+00
1.234235e+02,0.000000e+00
1.243877e+02,0.000000e+00
1.253519e+02,0.000000e+00
1.263162e+02,0.000000e+00
1.272804e+02,0.000000e+00
1.282446e+02,0.000000e+00
1.292089e+02,0.000000e+00
1.301731e+02,0.000000e+00
1.311373e+02,0.000000e+00
1.321016e+02,0.000000e+00
1.330658e+02,0.000000e+00
1.340300e+02,0.000000e+00
1.349943e+02,0.000000e+00
1.359585e+02,0.000000e+00
1.369227e+02,0.000000e+00
1.378870e+02,0.000000e+00
1.388512e+02,0.000000e+00
1.398154e+02,0.000000e+00
1.407797e+02,0.000000e+00
1.417439e+02,0.000000e+00
1.427081e+02,0.000000e+00
1.436724e+02,0.000000e+00
1.446366e+02,0.000000e+00
1.456008e+02,0.000000e+00
1.465651e+02,0.000000e+00
1.475293e+02,0.000000e+00
1.484935e+02,0.000000e+00
1.494578e+02,0.000000e+00
1.504220e+02,0.000000e+00
1.513862e+02,0.000000e+00
1.523505e+02,0.000000e+00
1.533147e+02,0.000000e+00
1.542789e+02,0.000000e+00
1.552432e+02,0.000000e+00
1.562074e+02,0.000000e+00
1.571716e+02,0.000000e+00
1.581359e+02,0.000000e+00
1.591001e+02,0.000000e+00
1.600643e+02,0.000000e+00
1.610286e+02,0.000000e+00
1.619928e+02,0.000000e+00
1.629570e+02,0.000000e+00
1.639213e+02,0.000000e+00
1.648855e+02,0.000000e+00
1.658497e+02,0.000000e+00
1.668140e+02,0.000000e+00
1.677782e+02,0.000000e+00
1.687424e+02,0.000000e+00
1.697067e+02,0.000000e+00
1.706709e+02,0.000000e+00
1.716351e+02,0.000000e+00
1.725994e+02,0.000000e+00
1.735636e+02,0.000000e+00
1.745278e+02,0.000000e+00
1.754921e+02,0.000000e+00
1.764563e+02,0.000000e+00
1.774205e+02,0.000000e+00
1.783848e+02,0.000000e+00
1.793490e+02,0.000000e+00
1.803132e+02,0.000000e+00
1.812775e+02,0.000000e+00
1.822417e+02,0.000000e+00
1.832059e+02,0.000000e+00
1.841702e+02,0.000000e+00
1.851344e+02,0.000000e+00
1.860986e+02,0.000000e+00
1.870629e+02,0.000000e+00
1.880271e+02,0.000000e+00
1.889913e+02,0.000000e+00
1.899556e+02,0.000000e+00
1.909198e+02,0.000000e+00
1.918840e+02,0.000000e+00
1.928483e+02,0.000000e+00
1.938125e+02,0.000000e+00
1.947767e+02,0.000000e+00
1.957410e+02,0.000000e+00
1.967052e+02,0.000000e+00
1.976694e+02,0.000000e+00
1.986337e+02,0.000000e+00
1.995979e+02,8.616923e+03
2.005621e+02,8.601184e+03
2.015264e+02,8.589278e+03
2.024906e+02,8.587282e+03
2.034548e+02,8.583709e+03
2.044191e+02,8.571166e+03
2.053833e+02,8.550235e+03
2.063475e+02,8.528584e+03
2.073118e+02,8.516601e+03
2.082760e+02,8.519962e+03
2.092402e+02,8.515684e+03
2.102045e+02,8.501607e+03
2.111687e+02,8.485902e+03
2.121329e+02,8.473259e+03
2.130972e+02,8.464269e+03
2.140614e+02,8.455793e+03
2.150256e+02,8.442895e+03
2.159899e+02,8.422847e+03
2.169541e+02,8.404465e+03
2.179183e+02,8.393450e+03
2.188826e+02,8.387566e+03
2.198468e+02,8.381485e+03
2.208110e+02,8.370231e+03
2.217753e+02,8.352970e+03
2.227395e+02,8.335489e+03
2.237037e+02,8.326873e+03
2.246680e+02,8.319063e+03
2.256322e+02,8.302228e+03
2.265964e+02,8.273327e+03
2.275607e+02,8.242759e+03
2.285249e+02,8.221226e+03
2.294892e+02,8.209796e+03
2.304534e+02,8.203030e+03
2.314176e+02,8.194566e+03
2.323819e+02,8.183397e+03
2.333461e+02,8.171337e+03
2.343103e+02,8.159048e+03
2.352746e+02,8.148253e+03
2.362388e+02,8.140953e+03
2.372030e+02,8.137008e+03
2.381673e+02,8.130778e+03
2.391315e+02,8.117345e+03
2.400957e+02,8.100197e+03
2.410600e+02,8.080487e+03
2.420242e+02,8.056310e+03
2.429884e+02,8.031691e+03
2.439527e+02,8.015490e+03
2.449169e+02,8.012561e+03
2.458811e+02,8.023584e+03
2.468454e+02,8.026553e+03
2.478096e+02,8.017454e+03
2.487738e+02,8.003846e+03
2.497381e+02,7.989312e+03
2.507023e+02,7.974912e+03
2.516665e+02,7.962092e+03
2.526308e+02,7.952729e+03
2.535950e+02,7.951286e+03
2.545592e+02,7.940512e+03
2.555235e+02,7.916447e+03
2.564877e+02,7.886082e+03
2.574519e+02,7.858008e+03
2.584161e+02,7.837921e+03
2.593804e+02,7.826442e+03
2.603446e+02,7.818613e+03
2.613088e+02,7.811399e+03
2.622731e+02,7.806377e+03
2.632373e+02,7.805433e+03
2.642015e+02,7.806079e+03
2.651658e+02,7.804233e+03
2.661300e+02,7.799172e+03
2.670942e+02,7.793822e+03
2.680585e+02,7.783361e+03
2.690227e+02,7.759903e+03
2.699869e+02,7.733482e+03
2.709512e+02,7.711057e+03
2.719154e+02,7.698807e+03
2.728796e+02,7.691279e+03
2.738439e+02,7.679087e+03
2.748081e+02,7.661688e+03
2.757723e+02,7.650153e+03
2.767366e+02,7.650193e+03
2.777008e+02,7.655221e+03
2.786650e+02,7.652767e+03
2.796293e+02,7.636194e+03
2.805935e+02,7.613357e+03
2.815577e+02,7.595858e+03
2.825220e+02,7.585682e+03
2.834862e+02,7.578758e+03
2.844504e+02,7.570020e+03
2.854147e+02,7.564776e+03
2.863789e+02,7.554458e+03
2.873431e+02,7.534250e+03
2.883074e+02,7.509427e+03
2.892716e+02,7.488909e+03
2.902358e+02,7.476868e+03
2.912001e+02,7.472364e+03
2.921643e+02,7.463200e+03
2.931285e+02,7.446835e+03
2.940928e+02,7.431791e+03
2.950570e+02,7.421908e+03
2.960212e+02,7.415455e+03
2.969855e+02,7.407736e+03
2.979497e+02,7.394600e+03
2.989139e+02,7.375289e+03
2.998782e+02,7.356674e+03
3.008424e+02,7.342647e+03
3.018066e+02,7.331792e+03
3.027709e+02,7.320447e+03
3.037351e+02,7.305636e+03
3.046993e+02,7.289363e+03
3.056636e+02,7.277809e+03
3.066278e+02,7.274679e+03
3.075920e+02,7.271255e+03
3.085563e+02,7.262962e+03
3.095205e+02,7.252898e+03
3.104847e+02,7.244609e+03
3.114490e+02,7.237467e+03
3.124132e+02,7.230370e+03
3.133774e+02,7.224289e+03
3.143417e+02,7.220622e+03
3.153059e+02,7.212890e+03
3.162701e+02,7.193421e+03
3.172344e+02,7.159083e+03
3.181986e+02,7.129804e+03
3.191628e+02,7.115037e+03
3.201271e+02,7.109942e+03
3.210913e+02,7.104463e+03
3.220555e+02,7.093028e+03
3.230198e+02,7.076803e+03
3.239840e+02,7.067030e+03
3.249482e+02,7.071578e+03
3.259125e+02,7.073525e+03
3.268767e+02,7.065072e+03
3.278409e+02,7.049212e+03
3.288052e+02,7.034633e+03
3.297694e+02,7.031126e+03
3.307336e+02,7.042630e+03
3.316979e+02,7.042606e+03
3.326621e+02,7.019983e+03
3.336263e+02,6.991432e+03
3.345906e+02,6.964224e+03
3.355548e+02,6.941828e+03
3.365190e+02,6.925736e+03
3.374833e+02,6.918323e+03
3.384475e+02,6.920075e+03
3.394117e+02,6.920477e+03
3.403760e+02,6.911486e+03
3.413402e+02,6.897324e+03
3.423044e+02,6.886547e+03
3.432687e+02,6.882093e+03
3.442329e+02,6.879866e+03
3.451971e+02,6.876148e+03
3.461614e+02,6.869015e+03
3.471256e+02,6.856188e+03
3.480898e+02,6.837594e+03
3.490541e+02,6.812985e+03
3.500183e+02,6.791208e+03
3.509825e+02,6.774928e+03
3.519468e+02,6.763126e+03
3.529110e+02,6.753881e+03
3.538752e+02,6.745368e+03
3.548395e+02,6.736422e+03
3.558037e+02,6.726741e+03
3.567680e+02,6.714553e+03
3.577322e+02,6.705307e+03
3.586964e+02,6.704446e+03
3.596607e+02,6.707835e+03
3.606249e+02,6.709133e+03
3.615891e+02,6.702987e+03
3.625534e+02,6.688725e+03
3.635176e+02,6.668802e+03
3.644818e+02,6.643414e+03
3.654461e+02,6.618712e+03
3.664103e+02,6.600935e+03
3.673745e+02,6.591984e+03
3.683388e+02,6.587540e+03
3.693030e+02,6.584164e+03
3.702672e+02,6.580360e+03
3.712315e+02,6.575946e+03
3.721957e+02,6.570542e+03
3.731599e+02,6.562472e+03
3.741242e+02,6.551317e+03
3.750884e+02,6.536781e+03
3.760526e+02,6.526695e+03
3.770169e+02,6.524920e+03
3.779811e+02,6.525374e+03
3.789453e+02,6.519630e+03
3.799096e+02,6.502438e+03
3.808738e+02,6.477124e+03
3.818380e+02,6.458653e+03
3.828023e+02,6.456577e+03
3.837665e+02,6.454813e+03
3.847307e+02,6.446269e+03
3.856950e+02,6.433216e+03
3.866592e+02,6.421104e+03
3.876234e+02,6.413159e+03
3.885877e+02,6.407937e+03
3.895519e+02,6.402095e+03
3.905161e+02,6.395325e+03
3.914804e+02,6.385812e+03
3.924446e+02,6.371484e+03
3.934088e+02,6.352773e+03
3.943731e+02,6.335188e+03
3.953373e+02,6.320644e+03
3.963015e+02,6.307463e+03
3.972658e+02,6.292712e+03
3.982300e+02,6.275808e+03
3.991942e+02,6.260640e+03
4.001585e+02,6.253088e+03
4.011227e+02,6.258231e+03
4.020869e+02,6.260835e+03
4.030512e+02,6.255506e+03
4.040154e+02,6.244370e+03
4.049796e+02,6.232674e+03
4.059439e+02,6.222830e+03
4.069081e+02,6.214554e+03
4.078723e+02,6.207829e+03
4.088366e+02,6.201964e+03
4.098008e+02,6.194185e+03
4.107650e+02,6.186226e+03
4.117293e+02,6.178751e+03
4.126935e+02,6.170549e+03
4.136577e+02,6.161043e+03
4.146220e+02,6.150375e+03
4.155862e+02,6.138114e+03
4.165504e+02,6.124064e+03
4.175147e+02,6.110788e+03
4.184789e+02,6.102135e+03
4.194431e+02,6.106555e+03
4.204074e+02,6.104805e+03
4.213716e+02,6.091366e+03
4.223358e+02,6.073425e+03
4.233001e+02,6.059407e+03
4.242643e+02,6.054431e+03
4.252285e+02,6.053890e+03
4.261928e+02,6.045303e+03
4.271570e+02,6.025650e+03
4.281212e+02,6.006125e+03
4.290855e+02,5.989110e+03
4.300497e+02,5.974215e+03
4.310139e+02,5.962112e+03
4.319782e+02,5.954744e+03
4.329424e+02,5.951021e+03
4.339066e+02,5.949891e+03
4.348709e+02,5.950566e+03
4.358351e+02,5.950139e+03
4.367993e+02,5.946194e+03
4.377636e+02,5.938172e+03
4.387278e+02,5.928606e+03
4.396920e+02,5.917619e+03
4.406563e+02,5.906639e+03
4.416205e+02,5.895658e+03
4.425847e+02,5.884442e+03
4.435490e+02,5.873448e+03
4.445132e+02,5.863529e+03
4.454774e+02,5.855224e+03
4.464417e+02,5.850056e+03
4.474059e+02,5.850520e+03
4.483701e+02,5.851603e+03
4.493344e+02,5.848224e+03
4.502986e+02,5.839552e+03
4.512628e+02,5.828651e+03
4.522271e+02,5.816092e+03
4.531913e+02,5.802386e+03
4.541555e+02,5.789787e+03
4.551198e+02,5.779715e+03
4.560840e+02,5.772503e+03
4.570482e+02,5.761841e+03
4.580125e+02,5.745148e+03
4.589767e+02,5.732495e+03
4.599409e+02,5.727623e+03
4.609052e+02,5.727484e+03
4.618694e+02,5.725483e+03
4.628336e+02,5.715722e+03
4.637979e+02,5.699570e+03
4.647621e+02,5.687019e+03
4.657263e+02,5.682565e+03
4.666906e+02,5.681063e+03
4.676548e+02,5.674233e+03
4.686190e+02,5.659239e+03
4.695833e+02,5.645409e+03
4.705475e+02,5.634011e+03
4.715117e+02,5.625096e+03
4.724760e+02,5.620801e+03
4.734402e+02,5.622675e+03
4.744044e+02,5.626914e+03
4.753687e+02,5.623708e+03
4.763329e+02,5.607149e+03
4.772971e+02,5.592280e+03
4.782614e+02,5.580866e+03
4.792256e+02,5.572814e+03
4.801898e+02,5.567829e+03
4.811541e+02,5.567333e+03
4.821183e+02,5.567167e+03
4.830826e+02,5.560242e+03
4.840468e+02,5.545645e+03
4.850110e+02,5.531250e+03
4.859753e+02,5.523094e+03
4.869395e+02,5.521364e+03
4.879037e+02,5.517068e+03
4.888680e+02,5.510929e+03
4.898322e+02,5.502980e+03
4.907964e+02,5.492079e+03
4.917607e+02,5.479276e+03
4.927249e+02,5.467722e+03
4.936891e+02,5.460795e+03
4.946534e+02,5.458658e+03
4.956176e+02,5.455438e+03
4.965818e+02,5.451047e+03
4.975461e+02,5.445839e+03
4.985103e+02,5.439002e+03
4.994745e+02,5.428649e+03
5.004388e+02,5.418907e+03
5.014030e+02,5.413828e+03
5.023672e+02,5.411950e+03
5.033315e+02,5.409729e+03
5.042957e+02,5.405679e+03
5.052599e+02,5.400301e+03
5.062242e+02,5.396525e+03
5.071884e+02,5.399165e+03
5.081526e+02,5.398181e+03
5.091169e+02,5.392524e+03
5.100811e+02,5.384429e+03
5.110453e+02,5.375242e+03
5.120095e+02,5.365877e+03
5.129738e+02,5.356541e+03
5.139380e+02,5.347731e+03
5.149022e+02,5.339592e+03
5.158665e+02,5.329416e+03
5.168307e+02,5.312623e+03
5.177949e+02,5.286975e+03
5.187592e+02,5.266619e+03
5.197234e+02,5.263749e+03
5.206876e+02,5.261965e+03
5.216519e+02,5.253333e+03
5.226161e+02,5.239912e+03
5.235803e+02,5.228231e+03
5.245446e+02,5.224994e+03
5.255088e+02,5.228599e+03
5.264730e+02,5.227929e+03
5.274373e+02,5.222134e+03
5.284015e+02,5.213103e+03
5.293657e+02,5.200093e+03
5.303300e+02,5.182746e+03
5.312942e+02,5.167005e+03
5.322584e+02,5.156513e+03
5.332227e+02,5.150383e+03
5.341869e+02,5.146979e+03
5.351511e+02,5.144934e+03
5.361154e+02,5.142944e+03
5.370796e+02,5.141042e+03
5.380438e+02,5.140927e+03
5.390081e+02,5.136911e+03
5.399723e+02,5.125389e+03
5.409365e+02,5.112179e+03
5.419008e+02,5.101306e+03
5.428650e+02,5.092296e+03
5.438292e+02,5.083608e+03
5.447935e+02,5.073989e+03
5.457577e+02,5.064421e+03
5.467219e+02,5.057461e+03
5.476862e+02,5.054607e+03
5.486504e+02,5.054131e+03
5.496146e+02,5.051485e+03
5.505789e+02,5.047062e+03
5.515431e+02,5.039072e+03
5.525073e+02,5.026671e+03
5.534716e+02,5.014217e+03
5.544358e+02,5.005442e+03
5.554000e+02,5.002296e+03
5.563643e+02,4.999876e+03
5.573285e+02,4.991706e+03
5.582927e+02,4.978306e+03
5.592570e+02,4.967437e+03
5.602212e+02,4.965476e+03
5.611854e+02,4.971904e+03
5.621497e+02,4.973735e+03
5.631139e+02,4.965641e+03
5.640781e+02,4.955165e+03
5.650424e+02,4.946601e+03
5.660066e+02,4.939549e+03
5.669708e+02,4.930650e+03
5.679351e+02,4.915960e+03
5.688993e+02,4.899744e+03
5.698635e+02,4.890081e+03
5.708278e+02,4.888305e+03
5.717920e+02,4.889379e+03
5.727562e+02,4.887302e+03
5.737205e+02,4.878695e+03
5.746847e+02,4.874322e+03
5.756489e+02,4.878474e+03
5.766132e+02,4.881744e+03
5.775774e+02,4.879580e+03
5.785416e+02,4.871593e+03
5.795059e+02,4.860552e+03
5.804701e+02,4.847267e+03
5.814343e+02,4.832470e+03
5.823986e+02,4.818150e+03
5.833628e+02,4.804528e+03
5.843270e+02,4.793077e+03
5.852913e+02,4.785388e+03
5.862555e+02,4.784266e+03
5.872197e+02,4.782924e+03
5.881840e+02,4.780150e+03
5.891482e+02,4.776895e+03
5.901124e+02,4.774883e+03
5.910767e+02,4.775092e+03
5.920409e+02,4.773556e+03
5.930051e+02,4.763846e+03
5.939694e+02,4.747200e+03
5.949336e+02,4.732963e+03
5.958978e+02,4.724201e+03
5.968621e+02,4.719365e+03
5.978263e+02,4.715174e+03
5.987905e+02,4.716358e+03
5.997548e+02,4.713889e+03
6.007190e+02,4.703981e+03
6.016832e+02,4.692094e+03
6.026475e+02,4.683772e+03
6.036117e+02,4.681032e+03
6.045759e+02,4.680033e+03
6.055402e+02,4.677080e+03
6.065044e+02,4.671501e+03
6.074686e+02,4.662335e+03
6.084329e+02,4.648756e+03
6.093971e+02,4.633046e+03
6.103613e+02,4.624228e+03
6.113256e+02,4.633885e+03
6.122899e+02,4.638582e+03
6.132541e+02,4.631720e+03
6.142183e+02,4.617314e+03
6.151826e+02,4.602681e+03
6.161468e+02,4.590621e+03
6.171110e+02,4.582212e+03
6.180753e+02,4.579519e+03
6.190395e+02,4.581497e+03
6.200037e+02,4.582135e+03
6.209680e+02,4.577420e+03
6.219322e+02,4.568266e+03
6.228964e+02,4.560651e+03
6.238607e+02,4.553531e+03
6.248249e+02,4.548484e+03
6.257891e+02,4.544747e+03
6.267534e+02,4.541417e+03
6.277176e+02,4.539017e+03
6.286818e+02,4.543700e+03
6.296461e+02,4.548566e+03
6.306103e+02,4.543970e+03
6.315745e+02,4.530732e+03
6.325388e+02,4.516502e+03
6.335030e+02,4.506274e+03
6.344672e+02,4.499456e+03
6.354315e+02,4.492542e+03
6.363957e+02,4.486130e+03
6.373599e+02,4.476535e+03
6.383242e+02,4.459118e+03
6.392884e+02,4.436117e+03
6.402526e+02,4.423120e+03
6.412169e+02,4.436450e+03
6.421811e+02,4.454474e+03
6.431453e+02,4.456337e+03
6.441096e+02,4.441586e+03
6.450738e+02,4.421589e+03
6.460380e+02,4.405352e+03
6.470023e+02,4.393769e+03
6.479665e+02,4.390983e+03
6.489307e+02,4.401107e+03
6.498950e+02,4.411844e+03
6.508592e+02,4.412109e+03
6.518234e+02,4.400690e+03
6.527877e+02,4.389425e+03
6.537519e+02,4.378417e+03
6.547161e+02,4.369900e+03
6.556804e+02,4.368679e+03
6.566446e+02,4.374006e+03
6.576088e+02,4.376657e+03
6.585731e+02,4.364561e+03
6.595373e+02,4.340783e+03
6.605015e+02,4.324074e+03
6.614658e+02,4.317259e+03
6.624300e+02,4.314758e+03
6.633942e+02,4.311107e+03
6.643585e+02,4.304510e+03
6.653227e+02,4.300896e+03
6.662869e+02,4.300171e+03
6.672512e+02,4.301099e+03
6.682154e+02,4.304855e+03
6.691796e+02,4.310739e+03
6.701439e+02,4.312838e+03
6.711081e+02,4.304702e+03
6.720723e+02,4.290374e+03
6.730366e+02,4.278371e+03
6.740008e+02,4.270616e+03
6.749650e+02,4.264892e+03
6.759293e+02,4.258420e+03
6.768935e+02,4.250890e+03
6.778577e+02,4.245471e+03
6.788220e+02,4.245061e+03
6.797862e+02,4.247032e+03
6.807504e+02,4.248154e+03
6.817147e+02,4.247028e+03
6.826789e+02,4.244928e+03
6.836431e+02,4.242109e+03
6.846074e+02,4.236971e+03
6.855716e+02,4.227973e+03
6.865358e+02,4.215816e+03
6.875001e+02,4.203966e+03
6.884643e+02,4.197658e+03
6.894285e+02,4.196967e+03
6.903928e+02,4.190306e+03
6.913570e+02,4.172360e+03
6.923212e+02,4.153288e+03
6.932855e+02,4.145177e+03
6.942497e+02,4.157499e+03
6.952139e+02,4.165576e+03
6.961782e+02,4.164966e+03
6.971424e+02,4.161804e+03
6.981066e+02,4.160400e+03
6.990709e+02,4.160021e+03
7.000351e+02,4.155400e+03
7.009993e+02,4.140565e+03
7.019636e+02,4.121988e+03
7.029278e+02,4.113181e+03
7.038920e+02,4.116593e+03
7.048563e+02,4.121984e+03
7.058205e+02,4.116670e+03
7.067847e+02,4.097540e+03
7.077490e+02,4.084352e+03
7.087132e+02,4.082937e+03
7.096774e+02,4.086895e+03
7.106417e+02,4.088328e+03
7.116059e+02,4.086401e+03
7.125701e+02,4.081353e+03
7.135344e+02,4.069844e+03
7.144986e+02,4.058699e+03
7.154628e+02,4.054732e+03
7.164271e+02,4.058167e+03
7.173913e+02,4.061876e+03
7.183555e+02,4.057897e+03
7.193198e+02,4.047708e+03
7.202840e+02,4.039779e+03
7.212482e+02,4.035955e+03
7.222125e+02,4.034210e+03
7.231767e+02,4.032213e+03
7.241409e+02,4.030007e+03
7.251052e+02,4.024035e+03
7.260694e+02,4.007756e+03
7.270336e+02,3.992486e+03
7.279979e+02,3.986531e+03
7.289621e+02,3.990710e+03
7.299263e+02,3.994442e+03
7.308906e+02,3.992717e+03
7.318548e+02,3.987821e+03
7.328190e+02,3.983036e+03
7.337833e+02,3.978616e+03
7.347475e+02,3.972367e+03
7.357117e+02,3.959927e+03
7.366760e+02,3.943220e+03
7.376402e+02,3.937784e+03
7.386044e+02,3.947660e+03
7.395687e+02,3.960035e+03
7.405329e+02,3.963709e+03
7.414971e+02,3.956593e+03
7.424614e+02,3.948348e+03
7.434256e+02,3.940120e+03
7.443898e+02,3.933872e+03
7.453541e+02,3.928220e+03
7.463183e+02,3.921477e+03
7.472825e+02,3.915809e+03
7.482468e+02,3.916235e+03
7.492110e+02,3.916504e+03
7.501752e+02,3.910052e+03
7.511395e+02,3.898890e+03
7.521037e+02,3.888983e+03
7.530679e+02,3.883792e+03
7.540322e+02,3.881872e+03
7.549964e+02,3.880052e+03
7.559606e+02,3.878926e+03
7.569249e+02,3.879271e+03
7.578891e+02,3.883035e+03
7.588533e+02,3.891180e+03
7.598176e+02,3.892614e+03
7.607818e+02,3.875158e+03
7.617460e+02,3.857082e+03
7.627103e+02,3.846495e+03
7.636745e+02,3.843497e+03
7.646387e+02,3.842509e+03
7.656030e+02,3.842068e+03
7.665672e+02,3.841919e+03
7.675314e+02,3.840243e+03
7.684957e+02,3.835131e+03
7.694599e+02,3.826846e+03
7.704241e+02,3.816630e+03
7.713884e+02,3.807469e+03
7.723526e+02,3.805640e+03
7.733168e+02,3.812890e+03
7.742811e+02,3.820075e+03
7.752453e+02,3.820406e+03
7.762095e+02,3.814191e+03
7.771738e+02,3.810737e+03
7.781380e+02,3.813368e+03
7.791022e+02,3.811543e+03
7.800665e+02,3.801735e+03
7.810307e+02,3.788334e+03
7.819949e+02,3.778035e+03
7.829592e+02,3.778243e+03
7.839234e+02,3.778450e+03
7.848876e+02,3.768860e+03
7.858519e+02,3.755473e+03
7.868161e+02,3.749515e+03
7.877803e+02,3.757051e+03
7.887446e+02,3.769481e+03
7.897088e+02,3.776831e+03
7.906730e+02,3.780605e+03
7.916373e+02,3.782135e+03
7.926015e+02,3.779858e+03
7.935657e+02,3.772232e+03
7.945300e+02,3.760049e+03
7.954942e+02,3.741952e+03
7.964584e+02,3.727125e+03
7.974227e+02,3.721646e+03
7.983869e+02,3.722872e+03
7.993511e+02,3.723058e+03
8.003154e+02,3.718146e+03
8.012796e+02,3.712807e+03
8.022438e+02,3.709820e+03
8.032081e+02,3.708548e+03
8.041723e+02,3.707528e+03
8.051365e+02,3.705776e+03
8.061008e+02,3.705793e+03
8.070650e+02,3.711688e+03
8.080292e+02,3.718599e+03
8.089935e+02,3.719741e+03
8.099577e+02,3.715118e+03
8.109219e+02,3.708123e+03
8.118862e+02,3.700460e+03
8.128504e+02,3.692237e+03
8.138146e+02,3.687923e+03
8.147789e+02,3.688091e+03
8.157431e+02,3.688978e+03
8.167073e+02,3.688830e+03
8.176716e+02,3.689839e+03
8.186358e+02,3.688767e+03
8.196000e+02,3.682942e+03
8.205643e+02,3.676956e+03
8.215285e+02,3.670384e+03
8.224927e+02,3.663347e+03
8.234570e+02,3.657911e+03
8.244212e+02,3.656115e+03
8.253854e+02,3.655018e+03
8.263497e+02,3.652605e+03
8.273139e+02,3.647806e+03
8.282781e+02,3.640752e+03
8.292424e+02,3.630931e+03
8.302066e+02,3.622399e+03
8.311708e+02,3.621081e+03
8.321351e+02,3.625635e+03
8.330993e+02,3.629061e+03
8.340635e+02,3.626583e+03
8.350278e+02,3.620364e+03
8.359920e+02,3.619113e+03
8.369562e+02,3.624498e+03
8.379205e+02,3.626236e+03
8.388847e+02,3.618950e+03
8.398489e+02,3.607308e+03
8.408132e+02,3.602739e+03
8.417774e+02,3.611321e+03
8.427416e+02,3.617121e+03
8.437059e+02,3.618749e+03
8.446701e+02,3.616991e+03
8.456343e+02,3.612602e+03
8.465986e+02,3.603552e+03
8.475628e+02,3.595232e+03
8.485270e+02,3.588886e+03
8.494913e+02,3.584308e+03
8.504555e+02,3.582036e+03
8.514197e+02,3.582640e+03
8.523840e+02,3.584885e+03
8.533482e+02,3.588284e+03
8.543124e+02,3.591301e+03
8.552767e+02,3.591345e+03
8.562409e+02,3.587868e+03
8.572051e+02,3.582878e+03
8.581694e+02,3.579912e+03
8.591336e+02,3.579062e+03
8.600978e+02,3.574498e+03
8.610621e+02,3.565632e+03
8.620263e+02,3.558029e+03
8.629905e+02,3.555220e+03
8.639548e+02,3.556268e+03
8.649190e+02,3.554373e+03
8.658832e+02,3.548732e+03
8.668475e+02,3.544668e+03
8.678117e+02,3.545713e+03
8.687759e+02,3.550296e+03
8.697402e+02,3.552500e+03
8.707044e+02,3.548344e+03
8.716686e+02,3.541834e+03
8.726329e+02,3.534530e+03
8.735971e+02,3.528521e+03
8.745613e+02,3.526079e+03
8.755256e+02,3.533440e+03
8.764898e+02,3.540672e+03
8.774540e+02,3.537873e+03
8.784183e+02,3.529595e+03
8.793825e+02,3.524275e+03
8.803467e+02,3.525228e+03
8.813110e+02,3.528984e+03
8.822752e+02,3.532928e+03
8.832394e+02,3.537376e+03
8.842037e+02,3.541293e+03
8.851679e+02,3.543651e+03
8.861321e+02,3.542742e+03
8.870964e+02,3.535035e+03
8.880606e+02,3.519703e+03
8.890248e+02,3.510487e+03
8.899891e+02,3.512067e+03
8.909533e+02,3.516237e+03
8.919175e+02,3.514270e+03
8.928818e+02,3.504343e+03
8.938460e+02,3.495997e+03
8.948102e+02,3.485635e+03
8.957745e+02,3.479001e+03
8.967387e+02,3.482603e+03
8.977029e+02,3.495045e+03
8.986672e+02,3.501509e+03
8.996314e+02,3.499539e+03
9.005956e+02,3.496604e+03
9.015599e+02,3.494625e+03
9.025241e+02,3.493040e+03
9.034883e+02,3.491194e+03
9.044526e+02,3.488524e+03
9.054168e+02,3.484101e+03
9.063810e+02,3.477892e+03
9.073453e+02,3.473362e+03
9.083095e+02,3.474165e+03
9.092737e+02,3.482356e+03
9.102380e+02,3.490520e+03
9.112022e+02,3.490843e+03
9.121664e+02,3.484893e+03
9.131307e+02,3.476282e+03
9.140949e+02,3.466918e+03
9.150591e+02,3.460744e+03
9.160234e+02,3.461683e+03
9.169876e+02,3.467125e+03
9.179518e+02,3.470804e+03
9.189161e+02,3.472125e+03
9.198803e+02,3.470923e+03
9.208445e+02,3.467336e+03
9.218088e+02,3.461880e+03
9.227730e+02,3.459961e+03
9.237372e+02,3.461854e+03
9.247015e+02,3.464260e+03
9.256657e+02,3.464973e+03
9.266299e+02,3.463608e+03
9.275942e+02,3.464467e+03
9.285584e+02,3.471746e+03
9.295226e+02,3.474647e+03
9.304869e+02,3.466762e+03
9.314511e+02,3.452143e+03
9.324153e+02,3.442113e+03
9.333796e+02,3.441206e+03
9.343438e+02,3.440497e+03
9.353080e+02,3.434716e+03
9.362723e+02,3.426882e+03
9.372365e+02,3.423211e+03
9.382007e+02,3.430665e+03
9.391650e+02,3.438276e+03
9.401292e+02,3.440395e+03
9.410934e+02,3.439709e+03
9.420577e+02,3.438051e+03
9.430219e+02,3.435461e+03
9.439861e+02,3.433097e+03
9.449504e+02,3.433727e+03
9.459146e+02,3.437116e+03
9.468788e+02,3.440793e+03
9.478431e+02,3.442491e+03
9.488073e+02,3.441677e+03
9.497715e+02,3.440090e+03
9.507358e+02,3.437776e+03
9.517000e+02,3.432788e+03
9.526642e+02,3.426537e+03
9.536285e+02,3.423008e+03
9.545927e+02,3.425457e+03
9.555569e+02,3.430885e+03
9.565212e+02,3.428248e+03
9.574854e+02,3.418433e+03
9.584496e+02,3.412302e+03
9.594139e+02,3.412913e+03
9.603781e+02,3.417332e+03
9.613423e+02,3.421349e+03
9.623066e+02,3.425644e+03
9.632708e+02,3.426743e+03
9.642350e+02,3.423025e+03
9.651993e+02,3.419172e+03
9.661635e+02,3.421181e+03
9.671277e+02,3.433215e+03
9.680920e+02,3.437657e+03
9.690562e+02,3.428620e+03
9.700204e+02,3.417563e+03
9.709847e+02,3.415110e+03
9.719489e+02,3.425049e+03
9.729131e+02,3.429396e+03
9.738774e+02,3.422095e+03
9.748416e+02,3.417075e+03
9.758058e+02,3.420137e+03
9.767701e+02,3.428846e+03
9.777343e+02,3.435147e+03
9.786985e+02,3.438182e+03
9.796628e+02,3.437459e+03
9.806270e+02,3.431390e+03
9.815912e+02,3.422290e+03
9.825555e+02,3.414099e+03
9.835197e+02,3.409226e+03
9.844839e+02,3.406524e+03
9.854482e+02,3.406244e+03
9.864124e+02,3.408128e+03
9.873766e+02,3.411909e+03
9.883409e+02,3.418400e+03
9.893051e+02,3.422477e+03
9.902693e+02,3.416288e+03
9.912336e+02,3.409108e+03
9.921978e+02,3.411407e+03
9.931620e+02,3.422321e+03
9.941263e+02,3.432274e+03
9.950905e+02,3.434406e+03
9.960547e+02,3.432827e+03
9.970190e+02,3.431928e+03
9.979832e+02,3.431443e+03
9.989474e+02,3.430909e+03
9.999117e+02,3.432743e+03
1.000876e+03,3.434074e+03
1.001840e+03,3.428018e+03
1.002804e+03,3.417614e+03
1.003769e+03,3.409904e+03
1.004733e+03,3.406285e+03
1.005697e+03,3.406366e+03
1.006661e+03,3.412040e+03
1.007626e+03,3.422193e+03
1.008590e+03,3.431124e+03
1.009554e+03,3.437095e+03
1.010518e+03,3.439288e+03
1.011482e+03,3.437269e+03
1.012447e+03,3.431266e+03
1.013411e+03,3.422425e+03
1.014375e+03,3.412046e+03
1.015339e+03,3.405520e+03
1.016304e+03,3.405959e+03
1.017268e+03,3.412070e+03
1.018232e+03,3.419054e+03
1.019196e+03,3.426784e+03
1.020161e+03,3.432622e+03
1.021125e+03,3.436226e+03
1.022089e+03,3.438575e+03
1.023053e+03,3.439357e+03
1.024018e+03,3.437004e+03
1.024982e+03,3.433959e+03
1.025946e+03,3.429198e+03
1.026910e+03,3.424020e+03
1.027875e+03,3.422617e+03
1.028839e+03,3.428376e+03
1.029803e+03,3.432630e+03
1.030767e+03,3.435904e+03
1.031731e+03,3.436683e+03
1.032696e+03,3.431606e+03
1.033660e+03,3.419780e+03
1.034624e+03,3.416308e+03
1.035588e+03,3.427669e+03
1.036552e+03,3.438460e+03
1.037517e+03,3.441045e+03
1.038481e+03,3.436859e+03
1.039445e+03,3.435134e+03
1.040409e+03,3.437973e+03
1.041374e+03,3.440102e+03
1.042338e+03,3.441756e+03
1.043302e+03,3.443172e+03
1.044266e+03,3.443933e+03
1.045231e+03,3.445406e+03
1.046195e+03,3.442702e+03
1.047159e+03,3.430730e+03
1.048123e+03,3.420299e+03
1.049088e+03,3.419344e+03
1.050052e+03,3.430240e+03
1.051016e+03,3.440571e+03
1.051980e+03,3.449556e+03
1.052945e+03,3.457997e+03
1.053909e+03,3.465079e+03
1.054873e+03,3.469290e+03
1.055837e+03,3.471075e+03
1.056802e+03,3.471715e+03
1.057766e+03,3.470890e+03
1.058730e+03,3.467676e+03
1.059694e+03,3.464181e+03
1.060658e+03,3.462355e+03
1.061623e+03,3.463595e+03
1.062587e+03,3.465996e+03
1.063551e+03,3.469418e+03
1.064515e+03,3.474254e+03
1.065479e+03,3.481426e+03
1.066444e+03,3.492011e+03
1.067408e+03,3.498590e+03
1.068372e+03,3.496108e+03
1.069336e+03,3.493324e+03
1.070301e+03,3.490767e+03
1.071265e+03,3.488846e+03
1.072229e+03,3.491154e+03
1.073193e+03,3.505481e+03
1.074158e+03,3.515338e+03
1.075122e+03,3.514742e+03
1.076086e+03,3.508276e+03
1.077050e+03,3.501703e+03
1.078015e+03,3.496492e+03
1.078979e+03,3.495464e+03
1.079943e+03,3.499807e+03
1.080907e+03,3.506881e+03
1.081872e+03,3.515477e+03
1.082836e+03,3.524446e+03
1.083800e+03,3.528327e+03
1.084764e+03,3.520440e+03
1.085729e+03,3.514747e+03
1.086693e+03,3.518527e+03
1.087657e+03,3.528598e+03
1.088621e+03,3.537087e+03
1.089585e+03,3.542088e+03
1.090550e+03,3.544030e+03
1.091514e+03,3.543265e+03
1.092478e+03,3.542257e+03
1.093442e+03,3.542927e+03
1.094406e+03,3.546215e+03
1.095371e+03,3.550349e+03
1.096335e+03,3.555591e+03
1.097299e+03,3.559679e+03
1.098263e+03,3.560348e+03
1.099228e+03,3.557415e+03
1.100192e+03,3.555960e+03
1.101156e+03,3.555797e+03
1.102120e+03,3.557789e+03
1.103085e+03,3.565970e+03
1.104049e+03,3.576340e+03
1.105013e+03,3.580867e+03
1.105977e+03,3.574803e+03
1.106942e+03,3.568181e+03
1.107906e+03,3.560400e+03
1.108870e+03,3.554485e+03
1.109834e+03,3.553411e+03
1.110799e+03,3.558504e+03
1.111763e+03,3.564155e+03
1.112727e+03,3.569830e+03
1.113691e+03,3.576960e+03
1.114656e+03,3.586376e+03
1.115620e+03,3.597657e+03
1.116584e+03,3.607781e+03
1.117548e+03,3.614227e+03
1.118512e+03,3.619263e+03
1.119477e+03,3.624698e+03
1.120441e+03,3.628909e+03
1.121405e+03,3.629853e+03
1.122369e+03,3.624407e+03
1.123334e+03,3.620770e+03
1.124298e+03,3.621836e+03
1.125262e+03,3.623422e+03
1.126226e+03,3.622282e+03
1.127191e+03,3.618120e+03
1.128155e+03,3.616573e+03
1.129119e+03,3.616827e+03
1.130083e+03,3.619126e+03
1.131047e+03,3.624447e+03
1.132012e+03,3.630748e+03
1.132976e+03,3.633888e+03
1.133940e+03,3.632074e+03
1.134904e+03,3.630337e+03
1.135869e+03,3.630892e+03
1.136833e+03,3.632359e+03
1.137797e+03,3.633144e+03
1.138761e+03,3.634693e+03
1.139726e+03,3.634123e+03
1.140690e+03,3.628899e+03
1.141654e+03,3.625357e+03
1.142618e+03,3.627626e+03
1.143583e+03,3.634965e+03
1.144547e+03,3.639546e+03
1.145511e+03,3.640677e+03
1.146475e+03,3.640839e+03
1.147439e+03,3.639759e+03
1.148404e+03,3.639794e+03
1.149368e+03,3.644383e+03
1.150332e+03,3.653529e+03
1.151296e+03,3.663467e+03
1.152261e+03,3.673022e+03
1.153225e+03,3.677124e+03
1.154189e+03,3.672197e+03
1.155153e+03,3.661145e+03
1.156118e+03,3.657056e+03
1.157082e+03,3.661263e+03
1.158046e+03,3.667339e+03
1.159010e+03,3.671054e+03
1.159974e+03,3.673547e+03
1.160939e+03,3.676285e+03
1.161903e+03,3.678997e+03
1.162867e+03,3.686018e+03
1.163831e+03,3.698236e+03
1.164796e+03,3.710365e+03
1.165760e+03,3.719584e+03
1.166724e+03,3.725449e+03
1.167688e+03,3.722856e+03
1.168653e+03,3.713138e+03
1.169617e+03,3.705307e+03
1.170581e+03,3.705877e+03
1.171545e+03,3.711341e+03
1.172510e+03,3.719112e+03
1.173474e+03,3.727399e+03
1.174438e+03,3.729942e+03
1.175402e+03,3.723597e+03
1.176366e+03,3.716770e+03
1.177331e+03,3.718368e+03
1.178295e+03,3.723775e+03
1.179259e+03,3.726689e+03
1.180223e+03,3.726077e+03
1.181188e+03,3.724562e+03
1.182152e+03,3.723493e+03
1.183116e+03,3.722589e+03
1.184080e+03,3.723008e+03
1.185045e+03,3.724632e+03
1.186009e+03,3.726197e+03
1.186973e+03,3.728461e+03
1.187937e+03,3.730849e+03
1.188901e+03,3.731360e+03
1.189866e+03,3.732167e+03
1.190830e+03,3.734523e+03
1.191794e+03,3.737833e+03
1.192758e+03,3.741188e+03
1.193723e+03,3.749048e+03
1.194687e+03,3.754973e+03
1.195651e+03,3.753464e+03
1.196615e+03,3.747463e+03
1.197580e+03,3.744576e+03
1.198544e+03,3.741590e+03
1.199508e+03,3.741798e+03
1.200472e+03,3.751677e+03
1.201437e+03,3.762187e+03
1.202401e+03,3.765925e+03
1.203365e+03,3.763032e+03
1.204329e+03,3.760094e+03
1.205293e+03,3.755553e+03
1.206258e+03,3.753490e+03
1.207222e+03,3.755459e+03
1.208186e+03,3.760197e+03
1.209150e+03,3.765653e+03
1.210115e+03,3.771031e+03
1.211079e+03,3.773371e+03
1.212043e+03,3.772275e+03
1.213007e+03,3.769244e+03
1.213972e+03,3.765911e+03
1.214936e+03,3.763836e+03
1.215900e+03,3.767442e+03
1.216864e+03,3.776591e+03
1.217828e+03,3.785829e+03
1.218793e+03,3.792101e+03
1.219757e+03,3.796728e+03
1.220721e+03,3.802094e+03
1.221685e+03,3.807835e+03
1.222650e+03,3.810589e+03
1.223614e+03,3.808079e+03
1.224578e+03,3.805347e+03
1.225542e+03,3.809787e+03
1.226507e+03,3.817021e+03
1.227471e+03,3.821352e+03
1.228435e+03,3.821863e+03
1.229399e+03,3.820255e+03
1.230364e+03,3.819606e+03
1.231328e+03,3.816698e+03
1.232292e+03,3.807684e+03
1.233256e+03,3.799244e+03
1.234220e+03,3.798533e+03
1.235185e+03,3.810568e+03
1.236149e+03,3.821497e+03
1.237113e+03,3.827461e+03
1.238077e+03,3.833449e+03
1.239042e+03,3.840107e+03
1.240006e+03,3.845714e+03
1.240970e+03,3.849782e+03
1.241934e+03,3.853249e+03
1.242899e+03,3.852918e+03
1.243863e+03,3.847512e+03
1.244827e+03,3.840795e+03
1.245791e+03,3.837263e+03
1.246755e+03,3.837312e+03
1.247720e+03,3.838771e+03
1.248684e+03,3.842520e+03
1.249648e+03,3.845472e+03
1.250612e+03,3.844073e+03
1.251577e+03,3.840279e+03
1.252541e+03,3.843017e+03
1.253505e+03,3.851153e+03
1.254469e+03,3.859836e+03
1.255434e+03,3.868711e+03
1.256398e+03,3.875738e+03
1.257362e+03,3.875777e+03
1.258326e+03,3.871180e+03
1.259291e+03,3.867217e+03
1.260255e+03,3.863724e+03
1.261219e+03,3.859460e+03
1.262183e+03,3.855122e+03
1.263147e+03,3.852747e+03
1.264112e+03,3.853558e+03
1.265076e+03,3.856603e+03
1.266040e+03,3.860143e+03
1.267004e+03,3.864457e+03
1.267969e+03,3.867622e+03
1.268933e+03,3.867884e+03
1.269897e+03,3.871212e+03
1.270861e+03,3.880270e+03
1.271826e+03,3.891347e+03
1.272790e+03,3.896957e+03
1.273754e+03,3.895498e+03
1.274718e+03,3.894145e+03
1.275682e+03,3.897285e+03
1.276647e+03,3.900890e+03
1.277611e+03,3.897569e+03
1.278575e+03,3.885306e+03
1.279539e+03,3.877531e+03
1.280504e+03,3.876578e+03
1.281468e+03,3.880210e+03
1.282432e+03,3.886804e+03
1.283396e+03,3.895188e+03
1.284361e+03,3.902750e+03
1.285325e+03,3.908737e+03
1.286289e+03,3.914312e+03
1.287253e+03,3.919647e+03
1.288218e+03,3.921574e+03
1.289182e+03,3.915175e+03
1.290146e+03,3.906221e+03
1.291110e+03,3.902394e+03
1.292074e+03,3.903323e+03
1.293039e+03,3.904069e+03
1.294003e+03,3.902108e+03
1.294967e+03,3.898276e+03
1.295931e+03,3.892138e+03
1.296896e+03,3.887043e+03
1.297860e+03,3.885895e+03
1.298824e+03,3.889008e+03
1.299788e+03,3.892927e+03
1.300753e+03,3.896994e+03
1.301717e+03,3.901602e+03
1.302681e+03,3.908471e+03
1.303645e+03,3.915446e+03
1.304609e+03,3.915151e+03
1.305574e+03,3.904362e+03
1.306538e+03,3.898457e+03
1.307502e+03,3.902237e+03
1.308466e+03,3.908272e+03
1.309431e+03,3.906819e+03
1.310395e+03,3.900858e+03
1.311359e+03,3.900628e+03
1.312323e+03,3.903526e+03
1.313288e+03,3.904117e+03
1.314252e+03,3.900813e+03
1.315216e+03,3.899953e+03
1.316180e+03,3.909761e+03
1.317145e+03,3.922608e+03
1.318109e+03,3.926111e+03
1.319073e+03,3.917927e+03
1.320037e+03,3.913038e+03
1.321001e+03,3.923910e+03
1.321966e+03,3.932048e+03
1.322930e+03,3.928364e+03
1.323894e+03,3.919859e+03
1.324858e+03,3.917217e+03
1.325823e+03,3.923007e+03
1.326787e+03,3.928774e+03
1.327751e+03,3.934646e+03
1.328715e+03,3.936313e+03
1.329680e+03,3.929592e+03
1.330644e+03,3.917964e+03
1.331608e+03,3.918579e+03
1.332572e+03,3.929731e+03
1.333536e+03,3.933425e+03
1.334501e+03,3.923419e+03
1.335465e+03,3.909835e+03
1.336429e+03,3.906436e+03
1.337393e+03,3.907946e+03
1.338358e+03,3.903825e+03
1.339322e+03,3.895677e+03
1.340286e+03,3.892633e+03
1.341250e+03,3.908892e+03
1.342215e+03,3.919332e+03
1.343179e+03,3.909218e+03
1.344143e+03,3.893711e+03
1.345107e+03,3.886780e+03
1.346072e+03,3.890098e+03
1.347036e+03,3.893759e+03
1.348000e+03,3.898808e+03
1.348964e+03,3.899674e+03
1.349928e+03,3.894714e+03
1.350893e+03,3.886795e+03
1.351857e+03,3.877504e+03
1.352821e+03,3.866388e+03
1.353785e+03,3.866452e+03
1.354750e+03,3.878897e+03
1.355714e+03,3.890724e+03
1.356678e+03,3.893171e+03
1.357642e+03,3.890380e+03
1.358607e+03,3.882803e+03
1.359571e+03,3.873027e+03
1.360535e+03,3.868647e+03
1.361499e+03,3.875705e+03
1.362464e+03,3.880003e+03
1.363428e+03,3.869382e+03
1.364392e+03,3.859898e+03
1.365356e+03,3.863840e+03
1.366320e+03,3.877906e+03
1.367285e+03,3.882476e+03
1.368249e+03,3.873958e+03
1.369213e+03,3.869060e+03
1.370177e+03,3.872230e+03
1.371142e+03,3.876884e+03
1.372106e+03,3.875333e+03
1.373070e+03,3.868291e+03
1.374034e+03,3.860384e+03
1.374999e+03,3.852804e+03
1.375963e+03,3.846730e+03
1.376927e+03,3.841876e+03
1.377891e+03,3.839740e+03
1.378855e+03,3.845063e+03
1.379820e+03,3.851317e+03
1.380784e+03,3.848903e+03
1.381748e+03,3.837704e+03
1.382712e+03,3.830628e+03
1.383677e+03,3.831556e+03
1.384641e+03,3.833355e+03
1.385605e+03,3.834928e+03
1.386569e+03,3.834560e+03
1.387534e+03,3.829528e+03
1.388498e+03,3.818784e+03
1.389462e+03,3.811442e+03
1.390426e+03,3.806836e+03
1.391391e+03,3.804824e+03
1.392355e+03,3.807234e+03
1.393319e+03,3.812643e+03
1.394283e+03,3.818277e+03
1.395247e+03,3.822512e+03
1.396212e+03,3.821286e+03
1.397176e+03,3.813442e+03
1.398140e+03,3.807983e+03
1.399104e+03,3.814318e+03
1.400069e+03,3.819103e+03
1.401033e+03,3.811811e+03
1.401997e+03,3.796816e+03
1.402961e+03,3.786985e+03
1.403926e+03,3.783771e+03
1.404890e+03,3.783252e+03
1.405854e+03,3.787739e+03
1.406818e+03,3.790563e+03
1.407782e+03,3.785077e+03
1.408747e+03,3.775983e+03
1.409711e+03,3.778948e+03
1.410675e+03,3.788953e+03
1.411639e+03,3.792242e+03
1.412604e+03,3.784880e+03
1.413568e+03,3.775277e+03
1.414532e+03,3.770574e+03
1.415496e+03,3.768813e+03
1.416461e+03,3.767588e+03
1.417425e+03,3.765366e+03
1.418389e+03,3.761347e+03
1.419353e+03,3.752536e+03
1.420318e+03,3.746996e+03
1.421282e+03,3.747885e+03
1.422246e+03,3.751387e+03
1.423210e+03,3.754750e+03
1.424174e+03,3.757994e+03
1.425139e+03,3.756940e+03
1.426103e+03,3.750999e+03
1.427067e+03,3.743742e+03
1.428031e+03,3.736430e+03
1.428996e+03,3.730138e+03
1.429960e+03,3.722284e+03
1.430924e+03,3.717198e+03
1.431888e+03,3.723817e+03
1.432853e+03,3.738997e+03
1.433817e+03,3.745648e+03
1.434781e+03,3.732832e+03
1.435745e+03,3.722946e+03
1.436709e+03,3.717942e+03
1.437674e+03,3.713807e+03
1.438638e+03,3.708799e+03
1.439602e+03,3.703923e+03
1.440566e+03,3.696109e+03
1.441531e+03,3.685907e+03
1.442495e+03,3.685079e+03
1.443459e+03,3.699640e+03
1.444423e+03,3.713129e+03
1.445388e+03,3.705484e+03
1.446352e+03,3.689723e+03
1.447316e+03,3.680703e+03
1.448280e+03,3.679648e+03
1.449245e+03,3.677375e+03
1.450209e+03,3.669032e+03
1.451173e+03,3.663413e+03
1.452137e+03,3.659522e+03
1.453101e+03,3.657067e+03
1.454066e+03,3.658265e+03
1.455030e+03,3.662377e+03
1.455994e+03,3.661796e+03
1.456958e+03,3.656951e+03
1.457923e+03,3.650692e+03
1.458887e+03,3.642313e+03
1.459851e+03,3.635660e+03
1.460815e+03,3.636966e+03
1.461780e+03,3.638356e+03
1.462744e+03,3.633992e+03
1.463708e+03,3.625050e+03
1.464672e+03,3.617339e+03
1.465636e+03,3.613240e+03
1.466601e+03,3.610053e+03
1.467565e+03,3.607531e+03
1.468529e+03,3.605381e+03
1.469493e+03,3.601759e+03
1.470458e+03,3.596732e+03
1.471422e+03,3.595107e+03
1.472386e+03,3.596560e+03
1.473350e+03,3.597169e+03
1.474315e+03,3.594347e+03
1.475279e+03,3.591582e+03
1.476243e+03,3.592746e+03
1.477207e+03,3.592149e+03
1.478172e+03,3.585399e+03
1.479136e+03,3.574635e+03
1.480100e+03,3.568588e+03
1.481064e+03,3.570103e+03
1.482028e+03,3.565632e+03
1.482993e+03,3.552932e+03
1.483957e+03,3.540844e+03
1.484921e+03,3.537875e+03
1.485885e+03,3.539334e+03
1.486850e+03,3.534960e+03
1.487814e+03,3.526940e+03
1.488778e+03,3.523161e+03
1.489742e+03,3.528695e+03
1.490707e+03,3.529898e+03
1.491671e+03,3.520155e+03
1.492635e+03,3.511754e+03
1.493599e+03,3.509656e+03
1.494563e+03,3.510043e+03
1.495528e+03,3.504343e+03
1.496492e+03,3.492263e+03
1.497456e+03,3.481981e+03
1.498420e+03,3.475594e+03
1.499385e+03,3.471855e+03
1.500349e+03,3.469243e+03
1.501313e+03,3.469529e+03
1.502277e+03,3.476921e+03
1.503242e+03,3.485951e+03
1.504206e+03,3.488389e+03
1.505170e+03,3.480063e+03
1.506134e+03,3.473146e+03
1.507099e+03,3.468694e+03
1.508063e+03,3.463905e+03
1.509027e+03,3.457919e+03
1.509991e+03,3.450562e+03
1.510955e+03,3.441207e+03
1.511920e+03,3.430508e+03
1.512884e+03,3.419629e+03
1.513848e+03,3.410560e+03
1.514812e+03,3.406273e+03
1.515777e+03,3.406890e+03
1.516741e+03,3.409172e+03
1.517705e+03,3.414078e+03
1.518669e+03,3.417937e+03
1.519634e+03,3.418961e+03
1.520598e+03,3.416523e+03
1.521562e+03,3.408563e+03
1.522526e+03,3.394659e+03
1.523490e+03,3.383003e+03
1.524455e+03,3.376876e+03
1.525419e+03,3.373136e+03
1.526383e+03,3.372004e+03
1.527347e+03,3.369873e+03
1.528312e+03,3.364602e+03
1.529276e+03,3.357685e+03
1.530240e+03,3.350214e+03
1.531204e+03,3.338924e+03
1.532169e+03,3.333105e+03
1.533133e+03,3.334436e+03
1.534097e+03,3.337190e+03
1.535061e+03,3.337688e+03
1.536026e+03,3.335290e+03
1.536990e+03,3.327144e+03
1.537954e+03,3.317383e+03
1.538918e+03,3.314377e+03
1.539882e+03,3.320801e+03
1.540847e+03,3.324727e+03
1.541811e+03,3.323168e+03
1.542775e+03,3.315246e+03
1.543739e+03,3.298772e+03
1.544704e+03,3.281446e+03
1.545668e+03,3.277905e+03
1.546632e+03,3.284793e+03
1.547596e+03,3.283425e+03
1.548561e+03,3.274267e+03
1.549525e+03,3.267836e+03
1.550489e+03,3.272211e+03
1.551453e+03,3.274900e+03
1.552417e+03,3.270739e+03
1.553382e+03,3.261314e+03
1.554346e+03,3.246714e+03
1.555310e+03,3.229165e+03
1.556274e+03,3.224559e+03
1.557239e+03,3.232267e+03
1.558203e+03,3.236604e+03
1.559167e+03,3.233883e+03
1.560131e+03,3.227716e+03
1.561096e+03,3.218835e+03
1.562060e+03,3.210938e+03
1.563024e+03,3.207554e+03
1.563988e+03,3.207124e+03
1.564953e+03,3.205618e+03
1.565917e+03,3.202551e+03
1.566881e+03,3.198364e+03
1.567845e+03,3.192007e+03
1.568809e+03,3.186704e+03
1.569774e+03,3.184636e+03
1.570738e+03,3.184804e+03
1.571702e+03,3.189215e+03
1.572666e+03,3.192692e+03
1.573631e+03,3.186919e+03
1.574595e+03,3.172216e+03
1.575559e+03,3.162653e+03
1.576523e+03,3.161167e+03
1.577488e+03,3.161770e+03
1.578452e+03,3.162543e+03
1.579416e+03,3.161038e+03
1.580380e+03,3.154172e+03
1.581344e+03,3.144948e+03
1.582309e+03,3.140148e+03
1.583273e+03,3.138148e+03
1.584237e+03,3.133641e+03
1.585201e+03,3.123887e+03
1.586166e+03,3.115224e+03
1.587130e+03,3.108186e+03
1.588094e+03,3.100292e+03
1.589058e+03,3.090905e+03
1.590023e+03,3.081746e+03
1.590987e+03,3.075069e+03
1.591951e+03,3.071458e+03
1.592915e+03,3.069864e+03
1.593880e+03,3.068669e+03
1.594844e+03,3.067718e+03
1.595808e+03,3.070552e+03
1.596772e+03,3.069182e+03
1.597736e+03,3.061263e+03
1.598701e+03,3.052722e+03
1.599665e+03,3.048796e+03
1.600629e+03,3.047736e+03
1.601593e+03,3.041326e+03
1.602558e+03,3.031513e+03
1.603522e+03,3.023978e+03
1.604486e+03,3.019985e+03
1.605450e+03,3.019461e+03
1.606415e+03,3.026684e+03
1.607379e+03,3.034840e+03
1.608343e+03,3.042076e+03
1.609307e+03,3.046598e+03
1.610271e+03,3.044286e+03
1.611236e+03,3.036404e+03
1.612200e+03,3.031614e+03
1.613164e+03,3.030217e+03
1.614128e+03,3.026188e+03
1.615093e+03,3.011451e+03
1.616057e+03,2.998994e+03
1.617021e+03,2.994223e+03
1.617985e+03,2.990292e+03
1.618950e+03,2.984753e+03
1.619914e+03,2.977380e+03
1.620878e+03,2.965161e+03
1.621842e+03,2.950071e+03
1.622807e+03,2.938444e+03
1.623771e+03,2.932137e+03
1.624735e+03,2.927864e+03
1.625699e+03,2.923385e+03
1.626663e+03,2.918682e+03
1.627628e+03,2.912592e+03
1.628592e+03,2.905458e+03
1.629556e+03,2.900645e+03
1.630520e+03,2.898688e+03
1.631485e+03,2.893813e+03
1.632449e+03,2.886210e+03
1.633413e+03,2.877883e+03
1.634377e+03,2.868419e+03
1.635342e+03,2.862503e+03
1.636306e+03,2.866706e+03
1.637270e+03,2.869729e+03
1.638234e+03,2.865773e+03
1.639198e+03,2.858115e+03
1.640163e+03,2.852378e+03
1.641127e+03,2.849026e+03
1.642091e+03,2.848302e+03
1.643055e+03,2.848750e+03
1.644020e+03,2.846780e+03
1.644984e+03,2.837208e+03
1.645948e+03,2.828304e+03
1.646912e+03,2.823043e+03
1.647877e+03,2.818655e+03
1.648841e+03,2.813464e+03
1.649805e+03,2.807548e+03
1.650769e+03,2.797715e+03
1.651734e+03,2.786841e+03
1.652698e+03,2.784626e+03
1.653662e+03,2.794424e+03
1.654626e+03,2.798344e+03
1.655590e+03,2.789210e+03
1.656555e+03,2.778465e+03
1.657519e+03,2.769873e+03
1.658483e+03,2.763227e+03
1.659447e+03,2.756033e+03
1.660412e+03,2.748258e+03
1.661376e+03,2.743649e+03
1.662340e+03,2.741530e+03
1.663304e+03,2.737054e+03
1.664269e+03,2.720155e+03
1.665233e+03,2.714138e+03
1.666197e+03,2.721735e+03
1.667161e+03,2.728920e+03
1.668125e+03,2.728631e+03
1.669090e+03,2.724863e+03
1.670054e+03,2.724812e+03
1.671018e+03,2.724691e+03
1.671982e+03,2.718617e+03
1.672947e+03,2.706782e+03
1.673911e+03,2.699281e+03
1.674875e+03,2.695499e+03
1.675839e+03,2.694980e+03
1.676804e+03,2.699680e+03
1.677768e+03,2.701813e+03
1.678732e+03,2.689510e+03
1.679696e+03,2.673999e+03
1.680661e+03,2.665926e+03
1.681625e+03,2.660055e+03
1.682589e+03,2.649072e+03
1.683553e+03,2.633264e+03
1.684517e+03,2.634194e+03
1.685482e+03,2.650653e+03
1.686446e+03,2.656372e+03
1.687410e+03,2.641831e+03
1.688374e+03,2.623980e+03
1.689339e+03,2.611959e+03
1.690303e+03,2.604356e+03
1.691267e+03,2.601819e+03
1.692231e+03,2.602221e+03
1.693196e+03,2.602033e+03
1.694160e+03,2.600260e+03
1.695124e+03,2.594980e+03
1.696088e+03,2.587095e+03
1.697052e+03,2.579262e+03
1.698017e+03,2.567241e+03
1.698981e+03,2.561806e+03
1.699945e+03,2.570706e+03
1.700909e+03,2.575959e+03
1.701874e+03,2.569051e+03
1.702838e+03,2.557036e+03
1.703802e+03,2.551375e+03
1.704766e+03,2.548653e+03
1.705731e+03,2.546140e+03
1.706695e+03,2.543666e+03
1.707659e+03,2.537330e+03
1.708623e+03,2.522919e+03
1.709588e+03,2.518354e+03
1.710552e+03,2.526244e+03
1.711516e+03,2.533669e+03
1.712480e+03,2.527813e+03
1.713444e+03,2.518089e+03
1.714409e+03,2.516469e+03
1.715373e+03,2.518769e+03
1.716337e+03,2.517608e+03
1.717301e+03,2.513388e+03
1.718266e+03,2.510169e+03
1.719230e+03,2.507367e+03
1.720194e+03,2.505532e+03
1.721158e+03,2.504432e+03
1.722123e+03,2.504467e+03
1.723087e+03,2.511237e+03
1.724051e+03,2.512695e+03
1.725015e+03,2.499963e+03
1.725979e+03,2.483167e+03
1.726944e+03,2.476160e+03
1.727908e+03,2.476427e+03
1.728872e+03,2.473359e+03
1.729836e+03,2.466836e+03
1.730801e+03,2.460846e+03
1.731765e+03,2.457156e+03
1.732729e+03,2.455063e+03
1.733693e+03,2.455137e+03
1.734658e+03,2.455488e+03
1.735622e+03,2.456282e+03
1.736586e+03,2.453436e+03
1.737550e+03,2.436311e+03
1.738515e+03,2.415706e+03
1.739479e+03,2.405607e+03
1.740443e+03,2.405248e+03
1.741407e+03,2.402411e+03
1.742371e+03,2.396899e+03
1.743336e+03,2.390392e+03
1.744300e+03,2.382934e+03
1.745264e+03,2.375440e+03
1.746228e+03,2.368090e+03
1.747193e+03,2.364112e+03
1.748157e+03,2.368970e+03
1.749121e+03,2.376382e+03
1.750085e+03,2.380612e+03
1.751050e+03,2.379401e+03
1.752014e+03,2.370304e+03
1.752978e+03,2.356834e+03
1.753942e+03,2.344287e+03
1.754906e+03,2.333177e+03
1.755871e+03,2.332041e+03
1.756835e+03,2.348207e+03
1.757799e+03,2.353609e+03
1.758763e+03,2.345094e+03
1.759728e+03,2.332353e+03
1.760692e+03,2.320108e+03
1.761656e+03,2.311286e+03
1.762620e+03,2.308351e+03
1.763585e+03,2.309744e+03
1.764549e+03,2.314982e+03
1.765513e+03,2.322684e+03
1.766477e+03,2.313763e+03
1.767442e+03,2.292102e+03
1.768406e+03,2.277750e+03
1.769370e+03,2.277487e+03
1.770334e+03,2.280462e+03
1.771298e+03,2.285711e+03
1.772263e+03,2.284433e+03
1.773227e+03,2.272426e+03
1.774191e+03,2.259380e+03
1.775155e+03,2.259726e+03
1.776120e+03,2.265644e+03
1.777084e+03,2.266609e+03
1.778048e+03,2.263611e+03
1.779012e+03,2.260330e+03
1.779977e+03,2.257878e+03
1.780941e+03,2.254084e+03
1.781905e+03,2.248007e+03
1.782869e+03,2.243618e+03
1.783833e+03,2.244658e+03
1.784798e+03,2.242412e+03
1.785762e+03,2.223661e+03
1.786726e+03,2.209754e+03
1.787690e+03,2.213667e+03
1.788655e+03,2.224979e+03
1.789619e+03,2.222633e+03
1.790583e+03,2.212439e+03
1.791547e+03,2.204411e+03
1.792512e+03,2.199451e+03
1.793476e+03,2.196412e+03
1.794440e+03,2.193298e+03
1.795404e+03,2.196184e+03
1.796369e+03,2.205064e+03
1.797333e+03,2.207148e+03
1.798297e+03,2.189617e+03
1.799261e+03,2.173721e+03
1.800225e+03,2.179425e+03
1.801190e+03,2.184810e+03
1.802154e+03,2.175211e+03
1.803118e+03,2.156694e+03
1.804082e+03,2.143907e+03
1.805047e+03,2.137412e+03
1.806011e+03,2.140543e+03
1.806975e+03,2.151766e+03
1.807939e+03,2.152561e+03
1.808904e+03,2.135127e+03
1.809868e+03,2.126690e+03
1.810832e+03,2.130943e+03
1.811796e+03,2.137144e+03
1.812760e+03,2.136844e+03
1.813725e+03,2.135566e+03
1.814689e+03,2.139068e+03
1.815653e+03,2.140932e+03
1.816617e+03,2.135796e+03
1.817582e+03,2.125855e+03
1.818546e+03,2.116601e+03
1.819510e+03,2.107977e+03
1.820474e+03,2.100026e+03
1.821439e+03,2.093254e+03
1.822403e+03,2.090214e+03
1.823367e+03,2.092300e+03
1.824331e+03,2.092244e+03
1.825296e+03,2.088333e+03
1.826260e+03,2.081288e+03
1.827224e+03,2.069333e+03
1.828188e+03,2.060955e+03
1.829152e+03,2.060168e+03
1.830117e+03,2.063380e+03
1.831081e+03,2.070242e+03
1.832045e+03,2.077205e+03
1.833009e+03,2.075587e+03
1.833974e+03,2.069574e+03
1.834938e+03,2.063778e+03
1.835902e+03,2.058153e+03
1.836866e+03,2.048262e+03
1.837831e+03,2.033231e+03
1.838795e+03,2.025393e+03
1.839759e+03,2.028524e+03
1.840723e+03,2.032498e+03
1.841688e+03,2.026834e+03
1.842652e+03,2.023977e+03
1.843616e+03,2.029630e+03
1.844580e+03,2.033636e+03
1.845544e+03,2.022693e+03
1.846509e+03,2.006983e+03
1.847473e+03,2.006885e+03
1.848437e+03,2.014099e+03
1.849401e+03,2.012413e+03
1.850366e+03,2.001542e+03
1.851330e+03,1.993332e+03
1.852294e+03,1.988274e+03
1.853258e+03,1.985295e+03
1.854223e+03,1.984085e+03
1.855187e+03,1.984281e+03
1.856151e+03,1.987984e+03
1.857115e+03,1.986843e+03
1.858079e+03,1.977851e+03
1.859044e+03,1.967207e+03
1.860008e+03,1.961894e+03
1.860972e+03,1.959599e+03
1.861936e+03,1.958190e+03
1.862901e+03,1.958025e+03
1.863865e+03,1.959616e+03
1.864829e+03,1.960930e+03
1.865793e+03,1.954982e+03
1.866758e+03,1.944281e+03
1.867722e+03,1.933630e+03
1.868686e+03,1.923122e+03
1.869650e+03,1.917527e+03
1.870615e+03,1.916604e+03
1.871579e+03,1.919904e+03
1.872543e+03,1.929160e+03
1.873507e+03,1.936201e+03
1.874471e+03,1.929199e+03
1.875436e+03,1.920039e+03
1.876400e+03,1.915416e+03
1.877364e+03,1.912322e+03
1.878328e+03,1.906107e+03
1.879293e+03,1.899365e+03
1.880257e+03,1.899650e+03
1.881221e+03,1.901516e+03
1.882185e+03,1.892265e+03
1.883150e+03,1.871567e+03
1.884114e+03,1.866646e+03
1.885078e+03,1.874806e+03
1.886042e+03,1.881268e+03
1.887006e+03,1.881912e+03
1.887971e+03,1.879964e+03
1.888935e+03,1.876653e+03
1.889899e+03,1.872793e+03
1.890863e+03,1.866934e+03
1.891828e+03,1.862552e+03
1.892792e+03,1.869365e+03
1.893756e+03,1.874307e+03
1.894720e+03,1.863911e+03
1.895685e+03,1.851849e+03
1.896649e+03,1.852050e+03
1.897613e+03,1.859504e+03
1.898577e+03,1.860381e+03
1.899542e+03,1.857097e+03
1.900506e+03,1.854215e+03
1.901470e+03,1.852185e+03
1.902434e+03,1.850203e+03
1.903398e+03,1.848305e+03
1.904363e+03,1.844338e+03
1.905327e+03,1.837659e+03
1.906291e+03,1.833150e+03
1.907255e+03,1.833380e+03
1.908220e+03,1.834482e+03
1.909184e+03,1.836876e+03
1.910148e+03,1.835448e+03
1.911112e+03,1.820204e+03
1.912077e+03,1.805902e+03
1.913041e+03,1.810084e+03
1.914005e+03,1.817498e+03
1.914969e+03,1.810111e+03
1.915933e+03,1.793574e+03
1.916898e+03,1.787729e+03
1.917862e+03,1.789030e+03
1.918826e+03,1.789912e+03
1.919790e+03,1.789652e+03
1.920755e+03,1.788427e+03
1.921719e+03,1.785236e+03
1.922683e+03,1.781269e+03
1.923647e+03,1.777465e+03
1.924612e+03,1.770432e+03
1.925576e+03,1.749072e+03
1.926540e+03,1.743317e+03
1.927504e+03,1.759366e+03
1.928469e+03,1.774099e+03
1.929433e+03,1.762723e+03
1.930397e+03,1.747031e+03
1.931361e+03,1.742496e+03
1.932325e+03,1.741945e+03
1.933290e+03,1.740733e+03
1.934254e+03,1.740885e+03
1.935218e+03,1.747194e+03
1.936182e+03,1.753127e+03
1.937147e+03,1.747534e+03
1.938111e+03,1.732709e+03
1.939075e+03,1.729323e+03
1.940039e+03,1.735511e+03
1.941004e+03,1.731333e+03
1.941968e+03,1.713667e+03
1.942932e+03,1.703778e+03
1.943896e+03,1.712090e+03
1.944860e+03,1.716514e+03
1.945825e+03,1.715717e+03
1.946789e+03,1.712137e+03
1.947753e+03,1.703070e+03
1.948717e+03,1.696221e+03
1.949682e+03,1.695589e+03
1.950646e+03,1.695626e+03
1.951610e+03,1.692849e+03
1.952574e+03,1.689612e+03
1.953539e+03,1.691632e+03
1.954503e+03,1.692726e+03
1.955467e+03,1.685515e+03
1.956431e+03,1.674132e+03
1.957396e+03,1.666965e+03
1.958360e+03,1.663724e+03
1.959324e+03,1.667654e+03
1.960288e+03,1.677272e+03
1.961252e+03,1.678594e+03
1.962217e+03,1.669414e+03
1.963181e+03,1.662308e+03
1.964145e+03,1.657320e+03
1.965109e+03,1.650560e+03
1.966074e+03,1.633584e+03
1.967038e+03,1.632626e+03
1.968002e+03,1.651304e+03
1.968966e+03,1.662080e+03
1.969931e+03,1.649647e+03
1.970895e+03,1.633775e+03
1.971859e+03,1.629648e+03
1.972823e+03,1.629737e+03
1.973787e+03,1.630334e+03
1.974752e+03,1.631143e+03
1.975716e+03,1.633279e+03
1.976680e+03,1.634716e+03
1.977644e+03,1.635949e+03
1.978609e+03,1.635255e+03
1.979573e+03,1.625613e+03
1.980537e+03,1.610580e+03
1.981501e+03,1.604139e+03
1.982466e+03,1.604665e+03
1.983430e+03,1.606783e+03
1.984394e+03,1.610001e+03
1.985358e+03,1.605673e+03
1.986323e+03,1.595353e+03
1.987287e+03,1.591198e+03
1.988251e+03,1.598705e+03
1.989215e+03,1.598459e+03
1.990179e+03,1.586809e+03
1.991144e+03,1.579579e+03
1.992108e+03,1.581615e+03
1.993072e+03,1.582925e+03
1.994036e+03,1.573787e+03
1.995001e+03,1.564123e+03
1.995965e+03,1.555200e+03
1.996929e+03,1.552045e+03
1.997893e+03,1.566631e+03
1.998858e+03,1.579349e+03
1.999822e+03,1.567868e+03
2.000786e+03,1.550268e+03
2.001750e+03,1.542559e+03
2.002714e+03,1.542562e+03
2.003679e+03,1.543977e+03
2.004643e+03,1.546106e+03
2.005607e+03,1.550853e+03
2.006571e+03,1.556472e+03
2.007536e+03,1.551651e+03
2.008500e+03,1.540113e+03
2.009464e+03,1.532979e+03
2.010428e+03,1.531716e+03
2.011393e+03,1.529981e+03
2.012357e+03,1.527098e+03
2.013321e+03,1.525083e+03
2.014285e+03,1.523162e+03
2.015250e+03,1.522236e+03
2.016214e+03,1.527425e+03
2.017178e+03,1.523180e+03
2.018142e+03,1.508197e+03
2.019106e+03,1.496996e+03
2.020071e+03,1.497729e+03
2.021035e+03,1.501513e+03
2.021999e+03,1.506312e+03
2.022963e+03,1.508289e+03
2.023928e+03,1.506219e+03
2.024892e+03,1.502396e+03
2.025856e+03,1.497796e+03
2.026820e+03,1.493863e+03
2.027785e+03,1.491081e+03
2.028749e+03,1.489194e+03
2.029713e+03,1.489746e+03
2.030677e+03,1.490785e+03
2.031641e+03,1.488527e+03
2.032606e+03,1.484604e+03
2.033570e+03,1.482304e+03
2.034534e+03,1.480818e+03
2.035498e+03,1.477866e+03
2.036463e+03,1.473968e+03
2.037427e+03,1.469386e+03
2.038391e+03,1.465091e+03
2.039355e+03,1.463599e+03
2.040320e+03,1.463812e+03
2.041284e+03,1.458584e+03
2.042248e+03,1.445650e+03
2.043212e+03,1.439543e+03
2.044177e+03,1.441776e+03
2.045141e+03,1.448231e+03
2.046105e+03,1.457717e+03
2.047069e+03,1.461536e+03
2.048033e+03,1.448390e+03
2.048998e+03,1.441794e+03
2.049962e+03,1.444703e+03
2.050926e+03,1.445463e+03
2.051890e+03,1.432166e+03
2.052854e+03,1.421587e+03
2.053819e+03,1.418058e+03
2.054783e+03,1.416815e+03
2.055747e+03,1.416652e+03
2.056711e+03,1.418656e+03
2.057676e+03,1.427455e+03
2.058640e+03,1.433302e+03
2.059604e+03,1.429401e+03
2.060568e+03,1.420794e+03
2.061533e+03,1.411786e+03
2.062497e+03,1.406910e+03
2.063461e+03,1.414975e+03
2.064425e+03,1.426047e+03
2.065390e+03,1.427797e+03
2.066354e+03,1.421772e+03
2.067318e+03,1.404850e+03
2.068282e+03,1.386960e+03
2.069247e+03,1.387844e+03
2.070211e+03,1.402775e+03
2.071175e+03,1.402773e+03
2.072139e+03,1.393213e+03
2.073104e+03,1.385558e+03
2.074068e+03,1.381357e+03
2.075032e+03,1.380987e+03
2.075996e+03,1.382976e+03
2.076960e+03,1.384398e+03
2.077925e+03,1.384241e+03
2.078889e+03,1.374901e+03
2.079853e+03,1.355589e+03
2.080817e+03,1.351480e+03
2.081782e+03,1.364305e+03
2.082746e+03,1.371962e+03
2.083710e+03,1.365718e+03
2.084674e+03,1.358062e+03
2.085639e+03,1.350447e+03
2.086603e+03,1.346346e+03
2.087567e+03,1.345479e+03
2.088531e+03,1.348729e+03
2.089496e+03,1.356457e+03
2.090460e+03,1.360648e+03
2.091424e+03,1.359767e+03
2.092388e+03,1.356870e+03
2.093353e+03,1.349799e+03
2.094317e+03,1.346466e+03
2.095281e+03,1.348948e+03
2.096245e+03,1.350629e+03
2.097209e+03,1.342791e+03
2.098174e+03,1.335571e+03
2.099138e+03,1.334129e+03
2.100102e+03,1.334973e+03
2.101066e+03,1.335519e+03
2.102031e+03,1.334916e+03
2.102995e+03,1.332780e+03
2.103959e+03,1.328474e+03
2.104923e+03,1.318658e+03
2.105887e+03,1.309883e+03
2.106852e+03,1.313373e+03
2.107816e+03,1.319380e+03
2.108780e+03,1.318789e+03
2.109744e+03,1.313323e+03
2.110708e+03,1.305481e+03
2.111673e+03,1.299009e+03
2.112637e+03,1.299113e+03
2.113601e+03,1.302594e+03
2.114565e+03,1.306629e+03
2.115530e+03,1.308924e+03
2.116494e+03,1.302051e+03
2.117458e+03,1.290258e+03
2.118422e+03,1.282987e+03
2.119387e+03,1.279656e+03
2.120351e+03,1.287892e+03
2.121315e+03,1.302179e+03
2.122279e+03,1.306639e+03
2.123244e+03,1.300406e+03
2.124208e+03,1.288625e+03
2.125172e+03,1.274837e+03
2.126136e+03,1.271010e+03
2.127101e+03,1.281320e+03
2.128065e+03,1.284945e+03
2.129029e+03,1.282097e+03
2.129993e+03,1.274984e+03
2.130958e+03,1.262786e+03
2.131922e+03,1.257501e+03
2.132886e+03,1.260829e+03
2.133850e+03,1.261003e+03
2.134814e+03,1.258195e+03
2.135779e+03,1.258500e+03
2.136743e+03,1.265336e+03
2.137707e+03,1.266686e+03
2.138671e+03,1.262663e+03
2.139636e+03,1.258058e+03
2.140600e+03,1.254795e+03
2.141564e+03,1.251870e+03
2.142528e+03,1.249507e+03
2.143493e+03,1.246052e+03
2.144457e+03,1.239305e+03
2.145421e+03,1.234737e+03
2.146385e+03,1.234038e+03
2.147350e+03,1.235713e+03
2.148314e+03,1.240555e+03
2.149278e+03,1.244911e+03
2.150242e+03,1.244546e+03
2.151207e+03,1.242164e+03
2.152171e+03,1.237610e+03
2.153135e+03,1.232517e+03
2.154099e+03,1.229553e+03
2.155063e+03,1.227843e+03
2.156028e+03,1.227634e+03
2.156992e+03,1.227802e+03
2.157956e+03,1.226364e+03
2.158920e+03,1.223210e+03
2.159885e+03,1.216741e+03
2.160849e+03,1.212999e+03
2.161813e+03,1.216527e+03
2.162777e+03,1.219245e+03
2.163741e+03,1.213352e+03
2.164706e+03,1.205971e+03
2.165670e+03,1.200001e+03
2.166634e+03,1.198120e+03
2.167598e+03,1.206782e+03
2.168563e+03,1.212819e+03
2.169527e+03,1.208827e+03
2.170491e+03,1.201847e+03
2.171455e+03,1.200009e+03
2.172420e+03,1.200425e+03
2.173384e+03,1.201759e+03
2.174348e+03,1.203878e+03
2.175312e+03,1.208541e+03
2.176277e+03,1.210452e+03
2.177241e+03,1.201930e+03
2.178205e+03,1.191468e+03
2.179169e+03,1.184396e+03
2.180134e+03,1.180578e+03
2.181098e+03,1.179750e+03
2.182062e+03,1.180634e+03
2.183026e+03,1.181659e+03
2.183990e+03,1.181994e+03
2.184955e+03,1.181125e+03
2.185919e+03,1.178397e+03
2.186883e+03,1.171382e+03
2.187847e+03,1.164362e+03
2.188812e+03,1.163924e+03
2.189776e+03,1.166587e+03
2.190740e+03,1.169286e+03
2.191704e+03,1.170938e+03
2.192668e+03,1.171485e+03
2.193633e+03,1.170854e+03
2.194597e+03,1.168575e+03
2.195561e+03,1.164912e+03
2.196525e+03,1.158985e+03
2.197490e+03,1.152492e+03
2.198454e+03,1.147952e+03
2.199418e+03,1.145372e+03
2.200382e+03,1.144407e+03
2.201347e+03,1.146404e+03
2.202311e+03,1.156781e+03
2.203275e+03,1.165950e+03
2.204239e+03,1.160945e+03
2.205204e+03,1.150468e+03
2.206168e+03,1.148651e+03
2.207132e+03,1.149453e+03
2.208096e+03,1.143346e+03
2.209061e+03,1.134786e+03
2.210025e+03,1.128698e+03
2.210989e+03,1.125123e+03
2.211953e+03,1.124816e+03
2.212917e+03,1.129135e+03
2.213882e+03,1.136969e+03
2.214846e+03,1.144945e+03
2.215810e+03,1.150035e+03
2.216774e+03,1.149688e+03
2.217739e+03,1.143433e+03
2.218703e+03,1.135629e+03
2.219667e+03,1.133610e+03
2.220631e+03,1.133347e+03
2.221595e+03,1.130201e+03
2.222560e+03,1.125955e+03
2.223524e+03,1.123953e+03
2.224488e+03,1.122095e+03
2.225452e+03,1.116568e+03
2.226417e+03,1.112402e+03
2.227381e+03,1.117857e+03
2.228345e+03,1.124571e+03
2.229309e+03,1.118537e+03
2.230274e+03,1.107960e+03
2.231238e+03,1.098166e+03
2.232202e+03,1.092353e+03
2.233166e+03,1.102666e+03
2.234131e+03,1.112617e+03
2.235095e+03,1.108157e+03
2.236059e+03,1.098805e+03
2.237023e+03,1.098561e+03
2.237988e+03,1.099728e+03
2.238952e+03,1.096323e+03
2.239916e+03,1.090927e+03
2.240880e+03,1.087072e+03
2.241844e+03,1.084864e+03
2.242809e+03,1.083389e+03
2.243773e+03,1.084882e+03
2.244737e+03,1.095664e+03
2.245701e+03,1.104349e+03
2.246666e+03,1.100027e+03
2.247630e+03,1.091032e+03
2.248594e+03,1.081619e+03
2.249558e+03,1.074634e+03
2.250522e+03,1.072712e+03
2.251487e+03,1.073758e+03
2.252451e+03,1.076692e+03
2.253415e+03,1.078118e+03
2.254379e+03,1.075759e+03
2.255344e+03,1.072380e+03
2.256308e+03,1.069396e+03
2.257272e+03,1.066003e+03
2.258236e+03,1.058440e+03
2.259201e+03,1.055969e+03
2.260165e+03,1.062194e+03
2.261129e+03,1.066559e+03
2.262093e+03,1.054243e+03
2.263058e+03,1.046921e+03
2.264022e+03,1.051747e+03
2.264986e+03,1.060104e+03
2.265950e+03,1.070436e+03
2.266915e+03,1.071267e+03
2.267879e+03,1.056197e+03
2.268843e+03,1.045737e+03
2.269807e+03,1.052903e+03
2.270771e+03,1.056908e+03
2.271736e+03,1.048919e+03
2.272700e+03,1.042545e+03
2.273664e+03,1.040067e+03
2.274628e+03,1.040716e+03
2.275593e+03,1.045221e+03
2.276557e+03,1.048982e+03
2.277521e+03,1.052243e+03
2.278485e+03,1.052091e+03
2.279449e+03,1.044018e+03
2.280414e+03,1.040132e+03
2.281378e+03,1.040880e+03
2.282342e+03,1.041537e+03
2.283306e+03,1.038740e+03
2.284271e+03,1.035271e+03
2.285235e+03,1.031116e+03
2.286199e+03,1.029426e+03
2.287163e+03,1.034368e+03
2.288128e+03,1.033413e+03
2.289092e+03,1.026512e+03
2.290056e+03,1.023817e+03
2.291020e+03,1.028287e+03
2.291985e+03,1.033637e+03
2.292949e+03,1.039687e+03
2.293913e+03,1.039546e+03
2.294877e+03,1.032720e+03
2.295842e+03,1.027899e+03
2.296806e+03,1.025050e+03
2.297770e+03,1.027349e+03
2.298734e+03,1.032575e+03
2.299698e+03,1.032415e+03
2.300663e+03,1.027588e+03
2.301627e+03,1.020566e+03
2.302591e+03,1.013367e+03
2.303555e+03,1.012203e+03
2.304520e+03,1.015324e+03
2.305484e+03,1.013259e+03
2.306448e+03,1.009479e+03
2.307412e+03,1.008590e+03
2.308376e+03,1.010483e+03
2.309341e+03,1.019975e+03
2.310305e+03,1.028961e+03
2.311269e+03,1.025604e+03
2.312233e+03,1.017359e+03
2.313198e+03,1.014160e+03
2.314162e+03,1.012152e+03
2.315126e+03,1.006636e+03
2.316090e+03,1.001441e+03
2.317055e+03,1.001396e+03
2.318019e+03,1.004324e+03
2.318983e+03,1.009430e+03
2.319947e+03,1.012939e+03
2.320912e+03,1.012814e+03
2.321876e+03,1.010857e+03
2.322840e+03,1.007720e+03
2.323804e+03,1.002856e+03
2.324769e+03,9.944825e+02
2.325733e+03,9.900319e+02
2.326697e+03,9.970357e+02
2.327661e+03,1.003269e+03
2.328625e+03,1.005166e+03
2.329590e+03,1.001377e+03
2.330554e+03,9.874571e+02
2.331518e+03,9.799249e+02
2.332482e+03,9.812693e+02
2.333447e+03,9.853416e+02
2.334411e+03,9.915036e+02
2.335375e+03,9.923436e+02
2.336339e+03,9.877762e+02
2.337303e+03,9.851025e+02
2.338268e+03,9.887480e+02
2.339232e+03,9.844479e+02
2.340196e+03,9.746141e+02
2.341160e+03,9.755263e+02
2.342125e+03,9.931110e+02
2.343089e+03,9.915629e+02
2.344053e+03,9.760382e+02
2.345017e+03,9.739033e+02
2.345982e+03,9.867162e+02
2.346946e+03,9.891116e+02
2.347910e+03,9.849478e+02
2.348874e+03,9.808402e+02
2.349839e+03,9.768690e+02
2.350803e+03,9.730570e+02
2.351767e+03,9.707233e+02
2.352731e+03,9.739027e+02
2.353696e+03,9.787291e+02
2.354660e+03,9.780859e+02
2.355624e+03,9.736755e+02
2.356588e+03,9.654893e+02
2.357552e+03,9.607587e+02
2.358517e+03,9.682325e+02
2.359481e+03,9.786832e+02
2.360445e+03,9.823840e+02
2.361409e+03,9.811339e+02
2.362374e+03,9.752967e+02
2.363338e+03,9.666063e+02
2.364302e+03,9.536732e+02
2.365266e+03,9.475163e+02
2.366230e+03,9.512302e+02
2.367195e+03,9.573522e+02
2.368159e+03,9.618001e+02
2.369123e+03,9.650911e+02
2.370087e+03,9.682131e+02
2.371052e+03,9.682181e+02
2.372016e+03,9.616316e+02
2.372980e+03,9.591718e+02
2.373944e+03,9.606732e+02
2.374909e+03,9.614770e+02
2.375873e+03,9.606406e+02
2.376837e+03,9.575628e+02
2.377801e+03,9.527375e+02
2.378766e+03,9.464337e+02
2.379730e+03,9.392148e+02
2.380694e+03,9.402640e+02
2.381658e+03,9.463359e+02
2.382623e+03,9.466276e+02
2.383587e+03,9.424629e+02
2.384551e+03,9.392398e+02
2.385515e+03,9.370411e+02
2.386479e+03,9.383949e+02
2.387444e+03,9.408126e+02
2.388408e+03,9.407349e+02
2.389372e+03,9.400941e+02
2.390336e+03,9.391295e+02
2.391301e+03,9.400984e+02
2.392265e+03,9.492020e+02
2.393229e+03,9.542695e+02
2.394193e+03,9.466317e+02
2.395157e+03,9.386339e+02
2.396122e+03,9.382634e+02
2.397086e+03,9.391634e+02
2.398050e+03,9.398793e+02
2.399014e+03,9.389343e+02
2.399979e+03,9.347348e+02
2.400943e+03,9.328244e+02
2.401907e+03,9.337115e+02
2.402871e+03,9.345268e+02
2.403836e+03,9.350189e+02
2.404800e+03,9.361967e+02
2.405764e+03,9.378544e+02
2.406728e+03,9.405902e+02
2.407693e+03,9.431116e+02
2.408657e+03,9.421182e+02
2.409621e+03,9.383377e+02
2.410585e+03,9.304673e+02
2.411550e+03,9.217547e+02
2.412514e+03,9.189690e+02
2.413478e+03,9.201857e+02
2.414442e+03,9.216084e+02
2.415406e+03,9.233288e+02
2.416371e+03,9.258098e+02
2.417335e+03,9.276181e+02
2.418299e+03,9.245431e+02
2.419263e+03,9.228011e+02
2.420228e+03,9.265977e+02
2.421192e+03,9.291667e+02
2.422156e+03,9.224960e+02
2.423120e+03,9.161500e+02
2.424084e+03,9.109959e+02
2.425049e+03,9.105921e+02
2.426013e+03,9.223968e+02
2.426977e+03,9.246650e+02
2.427941e+03,9.165671e+02
2.428906e+03,9.129216e+02
2.429870e+03,9.178707e+02
2.430834e+03,9.202727e+02
2.431798e+03,9.201060e+02
2.432763e+03,9.170847e+02
2.433727e+03,9.114913e+02
2.434691e+03,9.047142e+02
2.435655e+03,8.991208e+02
2.436620e+03,9.008676e+02
2.437584e+03,9.062463e+02
2.438548e+03,9.070374e+02
2.439512e+03,9.047049e+02
2.440477e+03,8.988887e+02
2.441441e+03,8.949199e+02
2.442405e+03,9.061418e+02
2.443369e+03,9.154063e+02
2.444333e+03,9.150068e+02
2.445298e+03,9.121900e+02
2.446262e+03,9.115730e+02
2.447226e+03,9.122324e+02
2.448190e+03,9.145656e+02
2.449155e+03,9.141547e+02
2.450119e+03,9.058430e+02
2.451083e+03,9.014332e+02
2.452047e+03,9.006354e+02
2.453011e+03,9.025250e+02
2.453976e+03,9.075057e+02
2.454940e+03,9.074620e+02
2.455904e+03,9.046736e+02
2.456868e+03,9.038251e+02
2.457833e+03,9.038835e+02
2.458797e+03,9.017448e+02
2.459761e+03,8.995855e+02
2.460725e+03,8.999199e+02
2.461690e+03,9.011548e+02
2.462654e+03,9.021355e+02
2.463618e+03,9.013223e+02
2.464582e+03,8.979141e+02
2.465547e+03,8.955396e+02
2.466511e+03,8.959217e+02
2.467475e+03,8.987287e+02
2.468439e+03,9.040159e+02
2.469404e+03,9.053864e+02
2.470368e+03,8.970651e+02
2.471332e+03,8.907070e+02
2.472296e+03,8.863334e+02
2.473260e+03,8.871635e+02
2.474225e+03,8.946809e+02
2.475189e+03,8.949997e+02
2.476153e+03,8.916151e+02
2.477117e+03,8.948365e+02
2.478082e+03,9.010071e+02
2.479046e+03,8.947464e+02
2.480010e+03,8.862286e+02
2.480974e+03,8.925300e+02
2.481938e+03,9.007058e+02
2.482903e+03,8.901135e+02
2.483867e+03,8.788759e+02
2.484831e+03,8.761596e+02
2.485795e+03,8.776089e+02
2.486760e+03,8.817541e+02
2.487724e+03,8.898259e+02
2.488688e+03,9.024372e+02
2.489652e+03,9.056660e+02
2.490617e+03,8.827095e+02
2.491581e+03,8.766523e+02
2.492545e+03,8.848304e+02
2.493509e+03,8.867494e+02
2.494474e+03,8.794008e+02
2.495438e+03,8.762917e+02
2.496402e+03,8.768400e+02
2.497366e+03,8.825596e+02
2.498331e+03,8.885665e+02
2.499295e+03,8.850080e+02
2.500259e+03,8.765280e+02
2.501223e+03,8.664938e+02
2.502188e+03,8.613105e+02
2.503152e+03,8.729120e+02
2.504116e+03,8.824396e+02
2.505080e+03,8.844572e+02
2.506044e+03,8.830286e+02
2.507009e+03,8.764026e+02
2.507973e+03,8.739734e+02
2.508937e+03,8.763864e+02
2.509901e+03,8.829402e+02
2.510865e+03,8.939607e+02
2.511830e+03,8.873756e+02
2.512794e+03,8.706754e+02
2.513758e+03,8.696887e+02
2.514722e+03,8.783364e+02
2.515687e+03,8.729738e+02
2.516651e+03,8.671744e+02
2.517615e+03,8.771251e+02
2.518579e+03,8.882206e+02
2.519544e+03,8.798148e+02
2.520508e+03,8.687810e+02
2.521472e+03,8.613743e+02
2.522436e+03,8.576146e+02
2.523401e+03,8.584876e+02
2.524365e+03,8.637672e+02
2.525329e+03,8.724075e+02
2.526293e+03,8.787022e+02
2.527258e+03,8.826296e+02
2.528222e+03,8.746074e+02
2.529186e+03,8.599767e+02
2.530150e+03,8.558366e+02
2.531115e+03,8.597155e+02
2.532079e+03,8.604521e+02
2.533043e+03,8.616699e+02
2.534007e+03,8.676150e+02
2.534971e+03,8.725588e+02
2.535936e+03,8.695571e+02
2.536900e+03,8.653257e+02
2.537864e+03,8.622836e+02
2.538828e+03,8.569634e+02
2.539792e+03,8.432181e+02
2.540757e+03,8.419755e+02
2.541721e+03,8.549411e+02
2.542685e+03,8.616484e+02
2.543649e+03,8.608898e+02
2.544614e+03,8.610802e+02
2.545578e+03,8.608401e+02
2.546542e+03,8.549111e+02
2.547506e+03,8.486230e+02
2.548471e+03,8.582801e+02
2.549435e+03,8.697919e+02
2.550399e+03,8.694532e+02
2.551363e+03,8.681000e+02
2.552328e+03,8.782436e+02
2.553292e+03,8.814455e+02
2.554256e+03,8.691474e+02
2.555220e+03,8.610266e+02
2.556185e+03,8.606510e+02
2.557149e+03,8.578604e+02
2.558113e+03,8.515598e+02
2.559077e+03,8.542559e+02
2.560042e+03,8.625989e+02
2.561006e+03,8.667521e+02
2.561970e+03,8.674048e+02
2.562934e+03,8.623519e+02
2.563898e+03,8.569729e+02
2.564863e+03,8.567343e+02
2.565827e+03,8.595421e+02
2.566791e+03,8.717802e+02
2.567755e+03,8.756625e+02
2.568719e+03,8.663213e+02
2.569684e+03,8.545745e+02
2.570648e+03,8.434013e+02
2.571612e+03,8.390988e+02
2.572576e+03,8.420595e+02
2.573541e+03,8.536298e+02
2.574505e+03,8.683502e+02
2.575469e+03,8.597457e+02
2.576433e+03,8.435833e+02
2.577398e+03,8.463683e+02
2.578362e+03,8.549494e+02
2.579326e+03,8.509312e+02
2.580290e+03,8.477692e+02
2.581255e+03,8.513752e+02
2.582219e+03,8.527421e+02
2.583183e+03,8.424799e+02
2.584147e+03,8.373757e+02
2.585112e+03,8.387678e+02
2.586076e+03,8.353909e+02
2.587040e+03,8.253558e+02
2.588004e+03,8.329922e+02
2.588969e+03,8.489947e+02
2.589933e+03,8.543407e+02
2.590897e+03,8.536009e+02
2.591861e+03,8.573663e+02
2.592825e+03,8.581628e+02
2.593790e+03,8.495231e+02
2.594754e+03,8.420549e+02
2.595718e+03,8.438795e+02
2.596682e+03,8.464996e+02
2.597646e+03,8.480804e+02
2.598611e+03,8.439192e+02
2.599575e+03,8.354977e+02
2.600539e+03,8.305243e+02
2.601503e+03,8.300717e+02
2.602468e+03,8.364698e+02
2.603432e+03,8.433536e+02
2.604396e+03,8.351631e+02
2.605360e+03,8.255149e+02
2.606325e+03,8.275527e+02
2.607289e+03,8.283774e+02
2.608253e+03,8.216480e+02
2.609217e+03,8.191660e+02
2.610182e+03,8.274457e+02
2.611146e+03,8.310460e+02
2.612110e+03,8.301483e+02
2.613074e+03,8.312787e+02
2.614039e+03,8.348254e+02
2.615003e+03,8.329231e+02
2.615967e+03,8.298244e+02
2.616931e+03,8.352304e+02
2.617896e+03,8.420903e+02
2.618860e+03,8.398210e+02
2.619824e+03,8.369821e+02
2.620788e+03,8.368143e+02
2.621752e+03,8.346148e+02
2.622717e+03,8.253340e+02
2.623681e+03,8.277333e+02
2.624645e+03,8.396842e+02
2.625609e+03,8.367703e+02
2.626573e+03,8.220280e+02
2.627538e+03,8.323771e+02
2.628502e+03,8.495081e+02
2.629466e+03,8.424793e+02
2.630430e+03,8.287792e+02
2.631395e+03,8.327856e+02
2.632359e+03,8.353816e+02
2.633323e+03,8.293713e+02
2.634287e+03,8.231444e+02
2.635252e+03,8.188986e+02
2.636216e+03,8.260422e+02
2.637180e+03,8.441276e+02
2.638144e+03,8.449173e+02
2.639109e+03,8.336713e+02
2.640073e+03,8.239665e+02
2.641037e+03,8.181154e+02
2.642001e+03,8.193602e+02
2.642966e+03,8.185433e+02
2.643930e+03,8.091402e+02
2.644894e+03,8.044343e+02
2.645858e+03,8.173117e+02
2.646823e+03,8.316160e+02
2.647787e+03,8.443240e+02
2.648751e+03,8.408434e+02
2.649715e+03,8.220168e+02
2.650679e+03,8.154726e+02
2.651644e+03,8.150060e+02
2.652608e+03,8.099182e+02
2.653572e+03,8.040225e+02
2.654536e+03,8.016320e+02
2.655500e+03,8.066808e+02
2.656465e+03,8.225966e+02
2.657429e+03,8.303154e+02
2.658393e+03,8.230351e+02
2.659357e+03,8.129897e+02
2.660322e+03,8.040728e+02
2.661286e+03,8.030966e+02
2.662250e+03,8.076436e+02
2.663214e+03,8.129088e+02
2.664179e+03,8.172278e+02
2.665143e+03,8.189993e+02
2.666107e+03,8.202609e+02
2.667071e+03,8.228130e+02
2.668036e+03,8.217803e+02
2.669000e+03,8.096271e+02
2.669964e+03,8.055955e+02
2.670928e+03,8.089449e+02
2.671893e+03,8.141954e+02
2.672857e+03,8.186245e+02
2.673821e+03,8.057830e+02
2.674785e+03,7.928824e+02
2.675750e+03,7.999484e+02
2.676714e+03,8.127991e+02
2.677678e+03,8.186462e+02
2.678642e+03,8.172802e+02
2.679606e+03,8.082435e+02
2.680571e+03,8.036881e+02
2.681535e+03,8.051283e+02
2.682499e+03,8.045961e+02
2.683463e+03,8.003260e+02
2.684427e+03,7.895146e+02
2.685392e+03,7.792969e+02
2.686356e+03,7.837573e+02
2.687320e+03,7.921423e+02
2.688284e+03,8.016447e+02
2.689249e+03,8.055839e+02
2.690213e+03,8.028256e+02
2.691177e+03,8.015255e+02
2.692141e+03,8.054157e+02
2.693106e+03,8.048728e+02
2.694070e+03,8.013660e+02
2.695034e+03,7.966402e+02
2.695998e+03,7.934362e+02
2.696963e+03,7.997141e+02
2.697927e+03,8.040007e+02
2.698891e+03,7.990436e+02
2.699855e+03,7.981573e+02
2.700820e+03,8.106232e+02
2.701784e+03,8.148527e+02
2.702748e+03,8.084869e+02
2.703712e+03,7.953451e+02
2.704677e+03,7.813511e+02
2.705641e+03,7.879700e+02
2.706605e+03,8.018019e+02
2.707569e+03,8.097195e+02
2.708533e+03,8.088878e+02
2.709498e+03,7.972178e+02
2.710462e+03,7.892883e+02
2.711426e+03,7.947346e+02
2.712390e+03,7.940129e+02
2.713354e+03,7.892916e+02
2.714319e+03,7.952570e+02
2.715283e+03,8.047463e+02
2.716247e+03,7.960575e+02
2.717211e+03,7.868498e+02
2.718176e+03,7.902426e+02
2.719140e+03,7.946214e+02
2.720104e+03,7.917147e+02
2.721068e+03,7.894682e+02
2.722033e+03,7.884208e+02
2.722997e+03,7.798391e+02
2.723961e+03,7.680661e+02
2.724925e+03,7.797748e+02
2.725890e+03,7.967333e+02
2.726854e+03,7.888093e+02
2.727818e+03,7.793660e+02
2.728782e+03,7.808272e+02
2.729747e+03,7.816490e+02
2.730711e+03,7.739053e+02
2.731675e+03,7.764027e+02
2.732639e+03,7.862623e+02
2.733604e+03,7.859101e+02
2.734568e+03,7.790762e+02
2.735532e+03,7.768727e+02
2.736496e+03,7.763976e+02
2.737460e+03,7.763878e+02
2.738425e+03,7.742202e+02
2.739389e+03,7.673132e+02
2.740353e+03,7.594747e+02
2.741317e+03,7.529682e+02
2.742281e+03,7.629498e+02
2.743246e+03,7.818800e+02
2.744210e+03,7.810609e+02
2.745174e+03,7.712489e+02
2.746138e+03,7.616808e+02
2.747103e+03,7.655298e+02
2.748067e+03,7.878339e+02
2.749031e+03,8.026207e+02
2.749995e+03,7.931776e+02
2.750960e+03,7.853195e+02
2.751924e+03,7.786868e+02
2.752888e+03,7.707938e+02
2.753852e+03,7.634228e+02
2.754817e+03,7.632506e+02
2.755781e+03,7.635411e+02
2.756745e+03,7.593029e+02
2.757709e+03,7.593978e+02
2.758674e+03,7.656147e+02
2.759638e+03,7.696976e+02
2.760602e+03,7.702636e+02
2.761566e+03,7.691029e+02
2.762531e+03,7.684407e+02
2.763495e+03,7.715340e+02
2.764459e+03,7.739732e+02
2.765423e+03,7.697629e+02
2.766387e+03,7.694940e+02
2.767352e+03,7.756138e+02
2.768316e+03,7.764785e+02
2.769280e+03,7.698017e+02
2.770244e+03,7.706324e+02
2.771208e+03,7.728227e+02
2.772173e+03,7.601077e+02
2.773137e+03,7.469732e+02
2.774101e+03,7.529705e+02
2.775065e+03,7.599664e+02
2.776030e+03,7.610860e+02
2.776994e+03,7.604596e+02
2.777958e+03,7.586631e+02
2.778922e+03,7.602881e+02
2.779887e+03,7.635927e+02
2.780851e+03,7.619932e+02
2.781815e+03,7.583908e+02
2.782779e+03,7.559547e+02
2.783744e+03,7.538161e+02
2.784708e+03,7.506589e+02
2.785672e+03,7.456423e+02
2.786636e+03,7.402068e+02
2.787601e+03,7.448040e+02
2.788565e+03,7.556709e+02
2.789529e+03,7.648642e+02
2.790493e+03,7.678439e+02
2.791458e+03,7.540616e+02
2.792422e+03,7.426419e+02
2.793386e+03,7.385836e+02
2.794350e+03,7.406634e+02
2.795314e+03,7.478381e+02
2.796279e+03,7.434688e+02
2.797243e+03,7.351228e+02
2.798207e+03,7.365059e+02
2.799171e+03,7.421169e+02
2.800135e+03,7.474443e+02
2.801100e+03,7.468934e+02
2.802064e+03,7.388930e+02
2.803028e+03,7.361556e+02
2.803992e+03,7.384286e+02
2.804957e+03,7.420856e+02
2.805921e+03,7.446308e+02
2.806885e+03,7.389523e+02
2.807849e+03,7.342980e+02
2.808814e+03,7.349234e+02
2.809778e+03,7.387755e+02
2.810742e+03,7.479603e+02
2.811706e+03,7.418535e+02
2.812671e+03,7.259703e+02
2.813635e+03,7.228981e+02
2.814599e+03,7.278135e+02
2.815563e+03,7.365061e+02
2.816528e+03,7.400277e+02
2.817492e+03,7.313096e+02
2.818456e+03,7.249413e+02
2.819420e+03,7.221863e+02
2.820385e+03,7.218130e+02
2.821349e+03,7.236143e+02
2.822313e+03,7.271627e+02
2.823277e+03,7.287274e+02
2.824241e+03,7.256239e+02
2.825206e+03,7.184337e+02
2.826170e+03,7.051002e+02
2.827134e+03,7.089491e+02
2.828098e+03,7.286542e+02
2.829063e+03,7.354748e+02
2.830027e+03,7.322744e+02
2.830991e+03,7.244922e+02
2.831955e+03,7.177545e+02
2.832919e+03,7.120118e+02
2.833884e+03,7.150588e+02
2.834848e+03,7.263779e+02
2.835812e+03,7.366495e+02
2.836776e+03,7.436111e+02
2.837741e+03,7.333527e+02
2.838705e+03,7.220510e+02
2.839669e+03,7.290585e+02
2.840633e+03,7.343417e+02
2.841598e+03,7.268049e+02
2.842562e+03,7.212223e+02
2.843526e+03,7.218607e+02
2.844490e+03,7.203644e+02
2.845455e+03,7.177314e+02
2.846419e+03,7.167383e+02
2.847383e+03,7.175347e+02
2.848347e+03,7.227463e+02
2.849312e+03,7.240183e+02
2.850276e+03,7.198047e+02
2.851240e+03,7.132938e+02
2.852204e+03,7.063652e+02
2.853168e+03,7.102959e+02
2.854133e+03,7.181888e+02
2.855097e+03,7.216642e+02
2.856061e+03,7.270184e+02
2.857025e+03,7.354562e+02
2.857990e+03,7.326742e+02
2.858954e+03,7.142851e+02
2.859918e+03,7.104117e+02
2.860882e+03,7.157501e+02
2.861846e+03,7.207728e+02
2.862811e+03,7.246894e+02
2.863775e+03,7.277640e+02
2.864739e+03,7.254615e+02
2.865703e+03,7.158591e+02
2.866668e+03,7.094543e+02
2.867632e+03,7.052018e+02
2.868596e+03,6.973832e+02
2.869560e+03,6.918058e+02
2.870525e+03,7.026896e+02
2.871489e+03,7.066328e+02
2.872453e+03,6.977081e+02
2.873417e+03,6.970706e+02
2.874382e+03,7.041985e+02
2.875346e+03,6.989196e+02
2.876310e+03,6.900137e+02
2.877274e+03,6.867927e+02
2.878239e+03,6.925067e+02
2.879203e+03,7.069954e+02
2.880167e+03,7.120738e+02
2.881131e+03,7.025729e+02
2.882095e+03,7.064359e+02
2.883060e+03,7.107086e+02
2.884024e+03,6.909283e+02
2.884988e+03,6.747556e+02
2.885952e+03,6.898702e+02
2.886917e+03,7.035627e+02
2.887881e+03,7.088929e+02
2.888845e+03,7.129650e+02
2.889809e+03,7.138945e+02
2.890773e+03,7.020569e+02
2.891738e+03,6.909854e+02
2.892702e+03,7.021990e+02
2.893666e+03,7.095129e+02
2.894630e+03,7.080129e+02
2.895595e+03,6.993712e+02
2.896559e+03,6.874860e+02
2.897523e+03,6.860806e+02
2.898487e+03,6.880507e+02
2.899452e+03,6.815235e+02
2.900416e+03,6.888298e+02
2.901380e+03,7.122279e+02
2.902344e+03,7.111442e+02
2.903309e+03,6.841447e+02
2.904273e+03,6.779630e+02
2.905237e+03,6.813816e+02
2.906201e+03,6.812855e+02
2.907166e+03,6.822731e+02
2.908130e+03,6.863362e+02
2.909094e+03,6.907066e+02
2.910058e+03,6.935691e+02
2.911022e+03,6.823538e+02
2.911987e+03,6.739711e+02
2.912951e+03,6.876330e+02
2.913915e+03,7.002981e+02
2.914879e+03,6.949414e+02
2.915844e+03,6.860186e+02
2.916808e+03,6.760184e+02
2.917772e+03,6.691994e+02
2.918736e+03,6.648661e+02
2.919700e+03,6.595184e+02
2.920665e+03,6.608727e+02
2.921629e+03,6.852719e+02
2.922593e+03,6.884469e+02
2.923557e+03,6.747686e+02
2.924522e+03,6.752770e+02
2.925486e+03,6.825218e+02
2.926450e+03,6.732559e+02
2.927414e+03,6.668569e+02
2.928379e+03,6.734620e+02
2.929343e+03,6.785563e+02
2.930307e+03,6.801373e+02
2.931271e+03,6.798134e+02
2.932236e+03,6.767529e+02
2.933200e+03,6.606667e+02
2.934164e+03,6.523746e+02
2.935128e+03,6.597064e+02
2.936093e+03,6.681115e+02
2.937057e+03,6.742648e+02
2.938021e+03,6.704306e+02
2.938985e+03,6.625485e+02
2.939949e+03,6.564813e+02
2.940914e+03,6.554508e+02
2.941878e+03,6.600955e+02
2.942842e+03,6.635927e+02
2.943806e+03,6.637751e+02
2.944771e+03,6.665577e+02
2.945735e+03,6.712234e+02
2.946699e+03,6.779674e+02
2.947663e+03,6.810920e+02
2.948627e+03,6.783395e+02
2.949592e+03,6.810349e+02
2.950556e+03,6.895057e+02
2.951520e+03,6.713528e+02
2.952484e+03,6.535875e+02
2.953449e+03,6.653428e+02
2.954413e+03,6.766482e+02
2.955377e+03,6.747416e+02
2.956341e+03,6.840414e+02
2.957306e+03,7.039280e+02
2.958270e+03,7.194807e+02
2.959234e+03,7.164565e+02
2.960198e+03,6.865855e+02
2.961163e+03,6.589803e+02
2.962127e+03,6.444281e+02
2.963091e+03,6.496693e+02
2.964055e+03,6.639701e+02
2.965020e+03,6.505615e+02
2.965984e+03,6.373173e+02
2.966948e+03,6.441863e+02
2.967912e+03,6.514732e+02
2.968876e+03,6.510866e+02
2.969841e+03,6.526331e+02
2.970805e+03,6.517936e+02
2.971769e+03,6.385551e+02
2.972733e+03,6.318691e+02
2.973698e+03,6.472062e+02
2.974662e+03,6.545808e+02
2.975626e+03,6.459314e+02
2.976590e+03,6.493468e+02
2.977554e+03,6.568031e+02
2.978519e+03,6.566527e+02
2.979483e+03,6.540070e+02
2.980447e+03,6.530923e+02
2.981411e+03,6.505830e+02
2.982376e+03,6.460502e+02
2.983340e+03,6.363420e+02
2.984304e+03,6.320978e+02
2.985268e+03,6.460275e+02
2.986233e+03,6.499637e+02
2.987197e+03,6.231539e+02
2.988161e+03,6.194545e+02
2.989125e+03,6.337818e+02
2.990090e+03,6.371234e+02
2.991054e+03,6.379426e+02
2.992018e+03,6.434001e+02
2.992982e+03,6.489268e+02
2.993947e+03,6.545179e+02
2.994911e+03,6.474870e+02
2.995875e+03,6.380521e+02
2.996839e+03,6.430945e+02
2.997803e+03,6.465038e+02
2.998768e+03,6.383200e+02
2.999732e+03,6.315847e+02
3.000696e+03,6.297957e+02
3.001660e+03,6.331105e+02
3.002625e+03,6.320052e+02
3.003589e+03,6.169570e+02
3.004553e+03,6.084498e+02
3.005517e+03,6.170266e+02
3.006481e+03,6.236846e+02
3.007446e+03,6.256534e+02
3.008410e+03,6.226780e+02
3.009374e+03,6.212326e+02
3.010338e+03,6.256090e+02
3.011303e+03,6.339955e+02
3.012267e+03,6.446170e+02
3.013231e+03,6.339041e+02
3.014195e+03,6.158520e+02
3.015160e+03,6.178568e+02
3.016124e+03,6.193945e+02
3.017088e+03,6.127420e+02
3.018052e+03,6.092137e+02
3.019017e+03,6.096719e+02
3.019981e+03,6.073077e+02
3.020945e+03,6.086796e+02
3.021909e+03,6.216741e+02
3.022874e+03,6.225279e+02
3.023838e+03,6.095062e+02
3.024802e+03,6.136507e+02
3.025766e+03,6.282896e+02
3.026730e+03,6.350695e+02
3.027695e+03,6.289104e+02
3.028659e+03,6.079290e+02
3.029623e+03,6.064229e+02
3.030587e+03,6.217950e+02
3.031552e+03,6.274359e+02
3.032516e+03,6.231296e+02
3.033480e+03,5.976643e+02
3.034444e+03,5.993054e+02
3.035408e+03,6.304417e+02
3.036373e+03,6.213652e+02
3.037337e+03,5.916428e+02
3.038301e+03,6.262764e+02
3.039265e+03,6.512632e+02
3.040230e+03,6.060087e+02
3.041194e+03,6.057767e+02
3.042158e+03,6.390456e+02
3.043122e+03,6.419221e+02
3.044087e+03,6.287034e+02
3.045051e+03,6.163693e+02
3.046015e+03,6.082991e+02
3.046979e+03,6.069755e+02
3.047944e+03,6.056415e+02
3.048908e+03,6.031699e+02
3.049872e+03,5.966640e+02
3.050836e+03,5.930419e+02
3.051801e+03,5.973564e+02
3.052765e+03,5.996251e+02
3.053729e+03,6.000113e+02
3.054693e+03,6.100320e+02
3.055657e+03,6.205550e+02
3.056622e+03,6.250578e+02
3.057586e+03,6.210593e+02
3.058550e+03,6.090649e+02
3.059514e+03,6.091168e+02
3.060479e+03,6.152137e+02
3.061443e+03,6.133181e+02
3.062407e+03,6.176991e+02
3.063371e+03,6.305636e+02
3.064335e+03,6.181695e+02
3.065300e+03,5.907935e+02
3.066264e+03,6.118088e+02
3.067228e+03,6.267451e+02
3.068192e+03,5.943986e+02
3.069157e+03,5.862239e+02
3.070121e+03,6.016923e+02
3.071085e+03,6.016004e+02
3.072049e+03,5.960827e+02
3.073014e+03,6.063854e+02
3.073978e+03,6.071440e+02
3.074942e+03,5.934754e+02
3.075906e+03,5.930238e+02
3.076871e+03,6.050178e+02
3.077835e+03,6.295743e+02
3.078799e+03,6.391482e+02
3.079763e+03,6.101160e+02
3.080728e+03,5.976046e+02
3.081692e+03,5.992423e+02
3.082656e+03,5.830545e+02
3.083620e+03,5.775715e+02
3.084584e+03,5.974594e+02
3.085549e+03,6.135633e+02
3.086513e+03,6.196765e+02
3.087477e+03,6.335663e+02
3.088441e+03,6.385198e+02
3.089406e+03,6.129279e+02
3.090370e+03,5.931427e+02
3.091334e+03,5.861125e+02
3.092298e+03,5.934524e+02
3.093262e+03,6.052972e+02
3.094227e+03,6.061787e+02
3.095191e+03,6.010911e+02
3.096155e+03,5.907006e+02
3.097119e+03,5.943392e+02
3.098084e+03,6.022369e+02
3.099048e+03,5.897775e+02
3.100012e+03,5.830152e+02
3.100976e+03,6.078181e+02
3.101941e+03,6.074946e+02
3.102905e+03,5.848082e+02
3.103869e+03,5.894891e+02
3.104833e+03,6.007330e+02
3.105798e+03,6.057314e+02
3.106762e+03,5.883094e+02
3.107726e+03,5.525364e+02
3.108690e+03,5.828194e+02
3.109655e+03,6.245676e+02
3.110619e+03,6.054705e+02
3.111583e+03,5.878304e+02
3.112547e+03,5.834323e+02
3.113511e+03,5.826487e+02
3.114476e+03,5.877145e+02
3.115440e+03,6.154889e+02
3.116404e+03,6.402797e+02
3.117368e+03,6.549543e+02
3.118333e+03,6.311217e+02
3.119297e+03,5.968069e+02
3.120261e+03,5.976194e+02
3.121225e+03,6.128016e+02
3.122189e+03,6.304563e+02
3.123154e+03,6.236723e+02
3.124118e+03,6.012851e+02
3.125082e+03,6.148074e+02
3.126046e+03,6.203251e+02
3.127011e+03,5.960084e+02
3.127975e+03,5.914984e+02
3.128939e+03,6.066719e+02
3.129903e+03,6.264697e+02
3.130868e+03,6.334315e+02
3.131832e+03,5.943537e+02
3.132796e+03,5.800437e+02
3.133760e+03,5.913625e+02
3.134725e+03,5.948679e+02
3.135689e+03,6.016673e+02
3.136653e+03,6.254780e+02
3.137617e+03,6.310984e+02
3.138582e+03,6.082465e+02
3.139546e+03,6.020094e+02
3.140510e+03,6.034007e+02
3.141474e+03,6.043743e+02
3.142438e+03,6.040655e+02
3.143403e+03,6.022660e+02
3.144367e+03,5.929604e+02
3.145331e+03,5.837951e+02
3.146295e+03,5.944756e+02
3.147260e+03,5.912006e+02
3.148224e+03,5.654835e+02
3.149188e+03,5.802562e+02
3.150152e+03,6.000419e+02
3.151116e+03,5.734255e+02
3.152081e+03,5.632930e+02
3.153045e+03,5.963282e+02
3.154009e+03,5.938965e+02
3.154973e+03,5.765782e+02
3.155938e+03,5.991149e+02
3.156902e+03,6.151722e+02
3.157866e+03,6.113708e+02
3.158830e+03,6.064763e+02
3.159795e+03,6.075402e+02
3.160759e+03,6.291309e+02
3.161723e+03,6.414951e+02
3.162687e+03,6.218368e+02
3.163652e+03,6.076117e+02
3.164616e+03,6.039277e+02
3.165580e+03,6.202557e+02
3.166544e+03,6.237940e+02
3.167509e+03,6.037355e+02
3.168473e+03,5.898861e+02
3.169437e+03,5.854433e+02
3.170401e+03,5.948375e+02
3.171365e+03,5.944922e+02
3.172330e+03,5.738758e+02
3.173294e+03,5.791829e+02
3.174258e+03,6.032104e+02
3.175222e+03,6.301580e+02
3.176187e+03,6.303457e+02
3.177151e+03,5.808497e+02
3.178115e+03,5.602906e+02
3.179079e+03,5.657345e+02
3.180043e+03,5.642529e+02
3.181008e+03,5.707414e+02
3.181972e+03,5.901784e+02
3.182936e+03,6.138965e+02
3.183900e+03,6.326394e+02
3.184865e+03,6.128029e+02
3.185829e+03,6.017955e+02
3.186793e+03,6.529186e+02
3.187757e+03,6.299617e+02
3.188722e+03,5.776964e+02
3.189686e+03,6.025831e+02
3.190650e+03,6.285467e+02
3.191614e+03,6.238432e+02
3.192579e+03,6.104694e+02
3.193543e+03,5.981082e+02
3.194507e+03,6.057089e+02
3.195471e+03,6.192418e+02
3.196436e+03,6.333046e+02
3.197400e+03,6.091784e+02
3.198364e+03,5.878868e+02
3.199328e+03,6.404669e+02
3.200292e+03,6.807880e+02
3.201257e+03,0.000000e+00
3.202221e+03,0.000000e+00
3.203185e+03,0.000000e+00
3.204149e+03,0.000000e+00
3.205114e+03,0.000000e+00
3.206078e+03,0.000000e+00
3.207042e+03,0.000000e+00
3.208006e+03,0.000000e+00
3.208970e+03,0.000000e+00
3.209935e+03,0.000000e+00
3.210899e+03,0.000000e+00
3.211863e+03,0.000000e+00
3.212827e+03,0.000000e+00
3.213792e+03,0.000000e+00
3.214756e+03,0.000000e+00
3.215720e+03,0.000000e+00
3.216684e+03,0.000000e+00
3.217649e+03,0.000000e+00
3.218613e+03,0.000000e+00
3.219577e+03,0.000000e+00
3.220541e+03,0.000000e+00
3.221506e+03,0.000000e+00
3.222470e+03,0.000000e+00
3.223434e+03,0.000000e+00
3.224398e+03,0.000000e+00
3.225363e+03,0.000000e+00
3.226327e+03,0.000000e+00
3.227291e+03,0.000000e+00
3.228255e+03,0.000000e+00
3.229219e+03,0.000000e+00
3.230184e+03,0.000000e+00
3.231148e+03,0.000000e+00
3.232112e+03,0.000000e+00
3.233076e+03,0.000000e+00
3.234041e+03,0.000000e+00
3.235005e+03,0.000000e+00
3.235969e+03,0.000000e+00
3.236933e+03,0.000000e+00
3.237897e+03,0.000000e+00
3.238862e+03,0.000000e+00
3.239826e+03,0.000000e+00
3.240790e+03,0.000000e+00
3.241754e+03,0.000000e+00
3.242719e+03,0.000000e+00
3.243683e+03,0.000000e+00
3.244647e+03,0.000000e+00
3.245611e+03,0.000000e+00
3.246576e+03,0.000000e+00
3.247540e+03,0.000000e+00
3.248504e+03,0.000000e+00
3.249468e+03,0.000000e+00
3.250433e+03,0.000000e+00
3.251397e+03,0.000000e+00
3.252361e+03,0.000000e+00
3.253325e+03,0.000000e+00
3.254290e+03,0.000000e+00
3.255254e+03,0.000000e+00
3.256218e+03,0.000000e+00
3.257182e+03,0.000000e+00
3.258146e+03,0.000000e+00
3.259111e+03,0.000000e+00
3.260075e+03,0.000000e+00
3.261039e+03,0.000000e+00
3.262003e+03,0.000000e+00
3.262968e+03,0.000000e+00
3.263932e+03,0.000000e+00
3.264896e+03,0.000000e+00
3.265860e+03,0.000000e+00
3.266824e+03,0.000000e+00
3.267789e+03,0.000000e+00
3.268753e+03,0.000000e+00
3.269717e+03,0.000000e+00
3.270681e+03,0.000000e+00
3.271646e+03,0.000000e+00
3.272610e+03,0.000000e+00
3.273574e+03,0.000000e+00
3.274538e+03,0.000000e+00
3.275503e+03,0.000000e+00
3.276467e+03,0.000000e+00
3.277431e+03,0.000000e+00
3.278395e+03,0.000000e+00
3.279360e+03,0.000000e+00
3.280324e+03,0.000000e+00
3.281288e+03,0.000000e+00
3.282252e+03,0.000000e+00
3.283217e+03,0.000000e+00
3.284181e+03,0.000000e+00
3.285145e+03,0.000000e+00
3.286109e+03,0.000000e+00
3.287073e+03,0.000000e+00
3.288038e+03,0.000000e+00
3.289002e+03,0.000000e+00
3.289966e+03,0.000000e+00
3.290930e+03,0.000000e+00
3.291895e+03,0.000000e+00
3.292859e+03,0.000000e+00
3.293823e+03,0.000000e+00
3.294787e+03,0.000000e+00
3.295751e+03,0.000000e+00
3.296716e+03,0.000000e+00
3.297680e+03,0.000000e+00
3.298644e+03,0.000000e+00
3.299608e+03,0.000000e+00
3.300573e+03,0.000000e+00
3.301537e+03,0.000000e+00
3.302501e+03,0.000000e+00
3.303465e+03,0.000000e+00
3.304430e+03,0.000000e+00
3.305394e+03,0.000000e+00
3.306358e+03,0.000000e+00
3.307322e+03,0.000000e+00
3.308287e+03,0.000000e+00
3.309251e+03,0.000000e+00
3.310215e+03,0.000000e+00
3.311179e+03,0.000000e+00
3.312144e+03,0.000000e+00
3.313108e+03,0.000000e+00
3.314072e+03,0.000000e+00
3.315036e+03,0.000000e+00
3.316000e+03,0.000000e+00
3.316965e+03,0.000000e+00
3.317929e+03,0.000000e+00
3.318893e+03,0.000000e+00
3.319857e+03,0.000000e+00
3.320822e+03,0.000000e+00
3.321786e+03,0.000000e+00
3.322750e+03,0.000000e+00
3.323714e+03,0.000000e+00
3.324678e+03,0.000000e+00
3.325643e+03,0.000000e+00
3.326607e+03,0.000000e+00
3.327571e+03,0.000000e+00
3.328535e+03,0.000000e+00
3.329500e+03,0.000000e+00
3.330464e+03,0.000000e+00
3.331428e+03,0.000000e+00
3.332392e+03,0.000000e+00
3.333357e+03,0.000000e+00
3.334321e+03,0.000000e+00
3.335285e+03,0.000000e+00
3.336249e+03,0.000000e+00
3.337214e+03,0.000000e+00
3.338178e+03,0.000000e+00
3.339142e+03,0.000000e+00
3.340106e+03,0.000000e+00
3.341071e+03,0.000000e+00
3.342035e+03,0.000000e+00
3.342999e+03,0.000000e+00
3.343963e+03,0.000000e+00
3.344927e+03,0.000000e+00
3.345892e+03,0.000000e+00
3.346856e+03,0.000000e+00
3.347820e+03,0.000000e+00
3.348784e+03,0.000000e+00
3.349749e+03,0.000000e+00
3.350713e+03,0.000000e+00
3.351677e+03,0.000000e+00
3.352641e+03,0.000000e+00
3.353605e+03,0.000000e+00
3.354570e+03,0.000000e+00
3.355534e+03,0.000000e+00
3.356498e+03,0.000000e+00
3.357462e+03,0.000000e+00
3.358427e+03,0.000000e+00
3.359391e+03,0.000000e+00
3.360355e+03,0.000000e+00
3.361319e+03,0.000000e+00
3.362284e+03,0.000000e+00
3.363248e+03,0.000000e+00
3.364212e+03,0.000000e+00
3.365176e+03,0.000000e+00
3.366141e+03,0.000000e+00
3.367105e+03,0.000000e+00
3.368069e+03,0.000000e+00
3.369033e+03,0.000000e+00
3.369998e+03,0.000000e+00
3.370962e+03,0.000000e+00
3.371926e+03,0.000000e+00
3.372890e+03,0.000000e+00
3.373854e+03,0.000000e+00
3.374819e+03,0.000000e+00
3.375783e+03,0.000000e+00
3.376747e+03,0.000000e+00
3.377711e+03,0.000000e+00
3.378676e+03,0.000000e+00
3.379640e+03,0.000000e+00
3.380604e+03,0.000000e+00
3.381568e+03,0.000000e+00
3.382532e+03,0.000000e+00
3.383497e+03,0.000000e+00
3.384461e+03,0.000000e+00
3.385425e+03,0.000000e+00
3.386389e+03,0.000000e+00
3.387354e+03,0.000000e+00
3.388318e+03,0.000000e+00
3.389282e+03,0.000000e+00
3.390246e+03,0.000000e+00
3.391211e+03,0.000000e+00
3.392175e+03,0.000000e+00
3.393139e+03,0.000000e+00
3.394103e+03,0.000000e+00
3.395068e+03,0.000000e+00
3.396032e+03,0.000000e+00
3.396996e+03,0.000000e+00
3.397960e+03,0.000000e+00
3.398925e+03,0.000000e+00
3.399889e+03,0.000000e+00
3.400853e+03,0.000000e+00
3.401817e+03,0.000000e+00
3.402781e+03,0.000000e+00
3.403746e+03,0.000000e+00
3.404710e+03,0.000000e+00
3.405674e+03,0.000000e+00
3.406638e+03,0.000000e+00
3.407603e+03,0.000000e+00
3.408567e+03,0.000000e+00
3.409531e+03,0.000000e+00
3.410495e+03,0.000000e+00
3.411459e+03,0.000000e+00
3.412424e+03,0.000000e+00
3.413388e+03,0.000000e+00
3.414352e+03,0.000000e+00
3.415316e+03,0.000000e+00
3.416281e+03,0.000000e+00
3.417245e+03,0.000000e+00
3.418209e+03,0.000000e+00
3.419173e+03,0.000000e+00
3.420138e+03,0.000000e+00
3.421102e+03,0.000000e+00
3.422066e+03,0.000000e+00
3.423030e+03,0.000000e+00
3.423995e+03,0.000000e+00
3.424959e+03,0.000000e+00
3.425923e+03,0.000000e+00
3.426887e+03,0.000000e+00
3.427852e+03,0.000000e+00
3.428816e+03,0.000000e+00
3.429780e+03,0.000000e+00
3.430744e+03,0.000000e+00
3.431708e+03,0.000000e+00
3.432673e+03,0.000000e+00
3.433637e+03,0.000000e+00
3.434601e+03,0.000000e+00
3.435565e+03,0.000000e+00
3.436530e+03,0.000000e+00
3.437494e+03,0.000000e+00
3.438458e+03,0.000000e+00
3.439422e+03,0.000000e+00
3.440386e+03,0.000000e+00
3.441351e+03,0.000000e+00
3.442315e+03,0.000000e+00
3.443279e+03,0.000000e+00
3.444243e+03,0.000000e+00
3.445208e+03,0.000000e+00
3.446172e+03,0.000000e+00
3.447136e+03,0.000000e+00
3.448100e+03,0.000000e+00
3.449065e+03,0.000000e+00
3.450029e+03,0.000000e+00
3.450993e+03,0.000000e+00
3.451957e+03,0.000000e+00
3.452922e+03,0.000000e+00
3.453886e+03,0.000000e+00
3.454850e+03,0.000000e+00
3.455814e+03,0.000000e+00
3.456779e+03,0.000000e+00
3.457743e+03,0.000000e+00
3.458707e+03,0.000000e+00
3.459671e+03,0.000000e+00
3.460635e+03,0.000000e+00
3.461600e+03,0.000000e+00
3.462564e+03,0.000000e+00
3.463528e+03,0.000000e+00
3.464492e+03,0.000000e+00
3.465457e+03,0.000000e+00
3.466421e+03,0.000000e+00
3.467385e+03,0.000000e+00
3.468349e+03,0.000000e+00
3.469313e+03,0.000000e+00
3.470278e+03,0.000000e+00
3.471242e+03,0.000000e+00
3.472206e+03,0.000000e+00
3.473170e+03,0.000000e+00
3.474135e+03,0.000000e+00
3.475099e+03,0.000000e+00
3.476063e+03,0.000000e+00
3.477027e+03,0.000000e+00
3.477992e+03,0.000000e+00
3.478956e+03,0.000000e+00
3.479920e+03,0.000000e+00
3.480884e+03,0.000000e+00
3.481849e+03,0.000000e+00
3.482813e+03,0.000000e+00
3.483777e+03,0.000000e+00
3.484741e+03,0.000000e+00
3.485706e+03,0.000000e+00
3.486670e+03,0.000000e+00
3.487634e+03,0.000000e+00
3.488598e+03,0.000000e+00
3.489563e+03,0.000000e+00
3.490527e+03,0.000000e+00
3.491491e+03,0.000000e+00
3.492455e+03,0.000000e+00
3.493419e+03,0.000000e+00
3.494384e+03,0.000000e+00
3.495348e+03,0.000000e+00
3.496312e+03,0.000000e+00
3.497276e+03,0.000000e+00
3.498240e+03,0.000000e+00
3.499205e+03,0.000000e+00
3.500169e+03,0.000000e+00
