9.931763e+01,0.000000e+00
1.002819e+02,0.000000e+00
1.012461e+02,0.000000e+00
1.022103e+02,0.000000e+00
1.031746e+02,0.000000e+00
1.041388e+02,0.000000e+00
1.051030e+02,0.000000e+00
1.060673e+02,0.000000e+00
1.070315e+02,0.000000e+00
1.079957e+02,0.000000e+00
1.089600e+02,0.000000e+00
1.099242e+02,0.000000e+00
1.108884e+02,0.000000e+00
1.118527e+02,0.000000e+00
1.128169e+02,0.000000e+00
1.137811e+02,0.000000e+00
1.147454e+02,0.000000e+00
1.157096e+02,0.000000e+00
1.166738e+02,0.000000e+00
1.176381e+02,0.000000e+00
1.186023e+02,0.000000e+00
1.195665e+02,0.000000e+00
1.205308e+02,0.000000e+00
1.214950e+02,0.000000e+00
1.224592e+02,0.000000e+00
1.234235e+02,0.000000e+00
1.243877e+02,0.000000e+00
1.253519e+02,0.000000e+00
1.263162e+02,0.000000e+00
1.272804e+02,0.000000e+00
1.282446e+02,0.000000e+00
1.292089e+02,0.000000e+00
1.301731e+02,0.000000e+00
1.311373e+02,0.000000e+00
1.321016e+02,0.000000e+00
1.330658e+02,0.000000e+00
1.340300e+02,0.000000e+00
1.349943e+02,0.000000e+00
1.359585e+02,0.000000e+00
1.369227e+02,0.000000e+00
1.378870e+02,0.000000e+00
1.388512e+02,0.000000e+00
1.398154e+02,0.000000e+00
1.407797e+02,0.000000e+00
1.417439e+02,0.000000e+00
1.427081e+02,0.000000e+00
1.436724e+02,0.000000e+00
1.446366e+02,0.000000e+00
1.456008e+02,0.000000e+00
1.465651e+02,0.000000e+00
1.475293e+02,0.000000e+00
1.484935e+02,0.000000e+00
1.494578e+02,0.000000e+00
1.504220e+02,0.000000e+00
1.513862e+02,0.000000e+00
1.523505e+02,0.000000e+00
1.533147e+02,0.000000e+00
1.542789e+02,0.000000e+00
1.552432e+02,0.000000e+00
1.562074e+02,0.000000e+00
1.571716e+02,0.000000e+00
1.581359e+02,0.000000e+00
1.591001e+02,0.000000e+00
1.600643e+02,0.000000e+00
1.610286e+02,0.000000e+00
1.619928e+02,0.000000e+00
1.629570e+02,0.000000e+00
1.639213e+02,0.000000e+00
1.648855e+02,0.000000e+00
1.658497e+02,0.000000e+00
1.668140e+02,0.000000e+00
1.677782e+02,0.000000e+00
1.687424e+02,0.000000e+00
1.697067e+02,0.000000e+00
1.706709e+02,0.000000e+00
1.716351e+02,0.000000e+00
1.725994e+02,0.000000e+00
1.735636e+02,0.000000e+00
1.745278e+02,0.000000e+00
1.754921e+02,0.000000e+00
1.764563e+02,0.000000e+00
1.774205e+02,0.000000e+00
1.783848e+02,0.000000e+00
1.793490e+02,0.000000e+00
1.803132e+02,0.000000e+00
1.812775e+02,0.000000e+00
1.822417e+02,0.000000e+00
1.832059e+02,0.000000e+00
1.841702e+02,0.000000e+00
1.851344e+02,0.000000e+00
1.860986e+02,0.000000e+00
1.870629e+02,0.000000e+00
1.880271e+02,0.000000e+00
1.889913e+02,0.000000e+00
1.899556e+02,0.000000e+00
1.909198e+02,0.000000e+00
1.918840e+02,0.000000e+00
1.928483e+02,0.000000e+00
1.938125e+02,0.000000e+00
1.947767e+02,0.000000e+00
1.957410e+02,0.000000e+00
1.967052e+02,0.000000e+00
1.976694e+02,0.000000e+00
1.986337e+02,0.000000e+00
1.995979e+02,4.935620e+03
2.005621e+02,4.943776e+03
2.015264e+02,4.951345e+03
2.024906e+02,4.957421e+03
2.034548e+02,4.963451e+03
2.044191e+02,4.968767e+03
2.053833e+02,4.972583e+03
2.063475e+02,4.974788e+03
2.073118e+02,4.975868e+03
2.082760e+02,4.976127e+03
2.092402e+02,4.974233e+03
2.102045e+02,4.969822e+03
2.111687e+02,4.966811e+03
2.121329e+02,4.967578e+03
2.130972e+02,4.972481e+03
2.140614e+02,4.979377e+03
2.150256e+02,4.985072e+03
2.159899e+02,4.989636e+03
2.169541e+02,4.993986e+03
2.179183e+02,4.999553e+03
2.188826e+02,5.005538e+03
2.198468e+02,5.010924e+03
2.208110e+02,5.015721e+03
2.217753e+02,5.019198e+03
2.227395e+02,5.017234e+03
2.237037e+02,5.006145e+03
2.246680e+02,4.994314e+03
2.256322e+02,4.988728e+03
2.265964e+02,4.994905e+03
2.275607e+02,5.005830e+03
2.285249e+02,5.012885e+03
2.294892e+02,5.015218e+03
2.304534e+02,5.018608e+03
2.314176e+02,5.025923e+03
2.323819e+02,5.035253e+03
2.333461e+02,5.042192e+03
2.343103e+02,5.045046e+03
2.352746e+02,5.045922e+03
2.362388e+02,5.047648e+03
2.372030e+02,5.050076e+03
2.381673e+02,5.050499e+03
2.391315e+02,5.047336e+03
2.400957e+02,5.042589e+03
2.410600e+02,5.037099e+03
2.420242e+02,5.031025e+03
2.429884e+02,5.026050e+03
2.439527e+02,5.024432e+03
2.449169e+02,5.026077e+03
2.458811e+02,5.030405e+03
2.468454e+02,5.036261e+03
2.478096e+02,5.045533e+03
2.487738e+02,5.055144e+03
2.497381e+02,5.063143e+03
2.507023e+02,5.069186e+03
2.516665e+02,5.073773e+03
2.526308e+02,5.077292e+03
2.535950e+02,5.077076e+03
2.545592e+02,5.074354e+03
2.555235e+02,5.068828e+03
2.564877e+02,5.062385e+03
2.574519e+02,5.057386e+03
2.584161e+02,5.055595e+03
2.593804e+02,5.057752e+03
2.603446e+02,5.063920e+03
2.613088e+02,5.076623e+03
2.622731e+02,5.088544e+03
2.632373e+02,5.097428e+03
2.642015e+02,5.102197e+03
2.651658e+02,5.103806e+03
2.661300e+02,5.103802e+03
2.670942e+02,5.103224e+03
2.680585e+02,5.104876e+03
2.690227e+02,5.113979e+03
2.699869e+02,5.122940e+03
2.709512e+02,5.125214e+03
2.719154e+02,5.118219e+03
2.728796e+02,5.108290e+03
2.738439e+02,5.103628e+03
2.748081e+02,5.106000e+03
2.757723e+02,5.113379e+03
2.767366e+02,5.122550e+03
2.777008e+02,5.130814e+03
2.786650e+02,5.136185e+03
2.796293e+02,5.140531e+03
2.805935e+02,5.143422e+03
2.815577e+02,5.141166e+03
2.825220e+02,5.130655e+03
2.834862e+02,5.117272e+03
2.844504e+02,5.112576e+03
2.854147e+02,5.124633e+03
2.863789e+02,5.134151e+03
2.873431e+02,5.135530e+03
2.883074e+02,5.132096e+03
2.892716e+02,5.128881e+03
2.902358e+02,5.127545e+03
2.912001e+02,5.127431e+03
2.921643e+02,5.127643e+03
2.931285e+02,5.129454e+03
2.940928e+02,5.132523e+03
2.950570e+02,5.135365e+03
2.960212e+02,5.137382e+03
2.969855e+02,5.139735e+03
2.979497e+02,5.146576e+03
2.989139e+02,5.165095e+03
2.998782e+02,5.172858e+03
3.008424e+02,5.162713e+03
3.018066e+02,5.149186e+03
3.027709e+02,5.141290e+03
3.037351e+02,5.142047e+03
3.046993e+02,5.147118e+03
3.056636e+02,5.150016e+03
3.066278e+02,5.151177e+03
3.075920e+02,5.151616e+03
3.085563e+02,5.150651e+03
3.095205e+02,5.150171e+03
3.104847e+02,5.152312e+03
3.114490e+02,5.157074e+03
3.124132e+02,5.163056e+03
3.133774e+02,5.169638e+03
3.143417e+02,5.177519e+03
3.153059e+02,5.182552e+03
3.162701e+02,5.179629e+03
3.172344e+02,5.165635e+03
3.181986e+02,5.157364e+03
3.191628e+02,5.165400e+03
3.201271e+02,5.182933e+03
3.210913e+02,5.196161e+03
3.220555e+02,5.197849e+03
3.230198e+02,5.189757e+03
3.239840e+02,5.186185e+03
3.249482e+02,5.191459e+03
3.259125e+02,5.195993e+03
3.268767e+02,5.196412e+03
3.278409e+02,5.193682e+03
3.288052e+02,5.190750e+03
3.297694e+02,5.190534e+03
3.307336e+02,5.193903e+03
3.316979e+02,5.194529e+03
3.326621e+02,5.189335e+03
3.336263e+02,5.182275e+03
3.345906e+02,5.175538e+03
3.355548e+02,5.171073e+03
3.365190e+02,5.169477e+03
3.374833e+02,5.169609e+03
3.384475e+02,5.170722e+03
3.394117e+02,5.176631e+03
3.403760e+02,5.191649e+03
3.413402e+02,5.210193e+03
3.423044e+02,5.222799e+03
3.432687e+02,5.224308e+03
3.442329e+02,5.221058e+03
3.451971e+02,5.215732e+03
3.461614e+02,5.207117e+03
3.471256e+02,5.199083e+03
3.480898e+02,5.197325e+03
3.490541e+02,5.206403e+03
3.500183e+02,5.213247e+03
3.509825e+02,5.219258e+03
3.519468e+02,5.224806e+03
3.529110e+02,5.228611e+03
3.538752e+02,5.229370e+03
3.548395e+02,5.227695e+03
3.558037e+02,5.226164e+03
3.567680e+02,5.225100e+03
3.577322e+02,5.224056e+03
3.586964e+02,5.224295e+03
3.596607e+02,5.226345e+03
3.606249e+02,5.229343e+03
3.615891e+02,5.231115e+03
3.625534e+02,5.230289e+03
3.635176e+02,5.227563e+03
3.644818e+02,5.224567e+03
3.654461e+02,5.221328e+03
3.664103e+02,5.219396e+03
3.673745e+02,5.220976e+03
3.683388e+02,5.225684e+03
3.693030e+02,5.232095e+03
3.702672e+02,5.238254e+03
3.712315e+02,5.241790e+03
3.721957e+02,5.241364e+03
3.731599e+02,5.239373e+03
3.741242e+02,5.241477e+03
3.750884e+02,5.259704e+03
3.760526e+02,5.272247e+03
3.770169e+02,5.274138e+03
3.779811e+02,5.269276e+03
3.789453e+02,5.261582e+03
3.799096e+02,5.252148e+03
3.808738e+02,5.241302e+03
3.818380e+02,5.231708e+03
3.828023e+02,5.224716e+03
3.837665e+02,5.222391e+03
3.847307e+02,5.226605e+03
3.856950e+02,5.234940e+03
3.866592e+02,5.241646e+03
3.876234e+02,5.241337e+03
3.885877e+02,5.236365e+03
3.895519e+02,5.234147e+03
3.905161e+02,5.235311e+03
3.914804e+02,5.237261e+03
3.924446e+02,5.237813e+03
3.934088e+02,5.237702e+03
3.943731e+02,5.238726e+03
3.953373e+02,5.241822e+03
3.963015e+02,5.245791e+03
3.972658e+02,5.249773e+03
3.982300e+02,5.254373e+03
3.991942e+02,5.259661e+03
4.001585e+02,5.261346e+03
4.011227e+02,5.250051e+03
4.020869e+02,5.241819e+03
4.030512e+02,5.237368e+03
4.040154e+02,5.235297e+03
4.049796e+02,5.235105e+03
4.059439e+02,5.236417e+03
4.069081e+02,5.239190e+03
4.078723e+02,5.244669e+03
4.088366e+02,5.254468e+03
4.098008e+02,5.260065e+03
4.107650e+02,5.257647e+03
4.117293e+02,5.248515e+03
4.126935e+02,5.238759e+03
4.136577e+02,5.226180e+03
4.146220e+02,5.215154e+03
4.155862e+02,5.213955e+03
4.165504e+02,5.225220e+03
4.175147e+02,5.242291e+03
4.184789e+02,5.254359e+03
4.194431e+02,5.258199e+03
4.204074e+02,5.259901e+03
4.213716e+02,5.258098e+03
4.223358e+02,5.254576e+03
4.233001e+02,5.250993e+03
4.242643e+02,5.248263e+03
4.252285e+02,5.247086e+03
4.261928e+02,5.249429e+03
4.271570e+02,5.258589e+03
4.281212e+02,5.265019e+03
4.290855e+02,5.260543e+03
4.300497e+02,5.249089e+03
4.310139e+02,5.240240e+03
4.319782e+02,5.239511e+03
4.329424e+02,5.242906e+03
4.339066e+02,5.244765e+03
4.348709e+02,5.243984e+03
4.358351e+02,5.243206e+03
4.367993e+02,5.245597e+03
4.377636e+02,5.253944e+03
4.387278e+02,5.259036e+03
4.396920e+02,5.261660e+03
4.406563e+02,5.262112e+03
4.416205e+02,5.258341e+03
4.425847e+02,5.249770e+03
4.435490e+02,5.241089e+03
4.445132e+02,5.240806e+03
4.454774e+02,5.252099e+03
4.464417e+02,5.260320e+03
4.474059e+02,5.257768e+03
4.483701e+02,5.250033e+03
4.493344e+02,5.245129e+03
4.502986e+02,5.246131e+03
4.512628e+02,5.250429e+03
4.522271e+02,5.257833e+03
4.531913e+02,5.267493e+03
4.541555e+02,5.275917e+03
4.551198e+02,5.281352e+03
4.560840e+02,5.284041e+03
4.570482e+02,5.279263e+03
4.580125e+02,5.261166e+03
4.589767e+02,5.245981e+03
4.599409e+02,5.237151e+03
4.609052e+02,5.233375e+03
4.618694e+02,5.232508e+03
4.628336e+02,5.235880e+03
4.637979e+02,5.243070e+03
4.647621e+02,5.246365e+03
4.657263e+02,5.245021e+03
4.666906e+02,5.243515e+03
4.676548e+02,5.244203e+03
4.686190e+02,5.246807e+03
4.695833e+02,5.248768e+03
4.705475e+02,5.248042e+03
4.715117e+02,5.245744e+03
4.724760e+02,5.244069e+03
4.734402e+02,5.244120e+03
4.744044e+02,5.245512e+03
4.753687e+02,5.246557e+03
4.763329e+02,5.245295e+03
4.772971e+02,5.247188e+03
4.782614e+02,5.252292e+03
4.792256e+02,5.261253e+03
4.801898e+02,5.274705e+03
4.811541e+02,5.294822e+03
4.821183e+02,5.316755e+03
4.830826e+02,5.333994e+03
4.840468e+02,5.345939e+03
4.850110e+02,5.355179e+03
4.859753e+02,5.364706e+03
4.869395e+02,5.374292e+03
4.879037e+02,5.377015e+03
4.888680e+02,5.373259e+03
4.898322e+02,5.363970e+03
4.907964e+02,5.345296e+03
4.917607e+02,5.320027e+03
4.927249e+02,5.298336e+03
4.936891e+02,5.292923e+03
4.946534e+02,5.305058e+03
4.956176e+02,5.308292e+03
4.965818e+02,5.295061e+03
4.975461e+02,5.279171e+03
4.985103e+02,5.272747e+03
4.994745e+02,5.277789e+03
5.004388e+02,5.278917e+03
5.014030e+02,5.267081e+03
5.023672e+02,5.249240e+03
5.033315e+02,5.235949e+03
5.042957e+02,5.230192e+03
5.052599e+02,5.229349e+03
5.062242e+02,5.229507e+03
5.071884e+02,5.233138e+03
5.081526e+02,5.236234e+03
5.091169e+02,5.238762e+03
5.100811e+02,5.241847e+03
5.110453e+02,5.245940e+03
5.120095e+02,5.253396e+03
5.129738e+02,5.260843e+03
5.139380e+02,5.263185e+03
5.149022e+02,5.260665e+03
5.158665e+02,5.257106e+03
5.168307e+02,5.252560e+03
5.177949e+02,5.244482e+03
5.187592e+02,5.234698e+03
5.197234e+02,5.227650e+03
5.206876e+02,5.222870e+03
5.216519e+02,5.220749e+03
5.226161e+02,5.221118e+03
5.235803e+02,5.222557e+03
5.245446e+02,5.225484e+03
5.255088e+02,5.229031e+03
5.264730e+02,5.226303e+03
5.274373e+02,5.213925e+03
5.284015e+02,5.200684e+03
5.293657e+02,5.193874e+03
5.303300e+02,5.194264e+03
5.312942e+02,5.193827e+03
5.322584e+02,5.193135e+03
5.332227e+02,5.193548e+03
5.341869e+02,5.195487e+03
5.351511e+02,5.198005e+03
5.361154e+02,5.198941e+03
5.370796e+02,5.195610e+03
5.380438e+02,5.187161e+03
5.390081e+02,5.180915e+03
5.399723e+02,5.176966e+03
5.409365e+02,5.177292e+03
5.419008e+02,5.183045e+03
5.428650e+02,5.196217e+03
5.438292e+02,5.207464e+03
5.447935e+02,5.212030e+03
5.457577e+02,5.211348e+03
5.467219e+02,5.208119e+03
5.476862e+02,5.203359e+03
5.486504e+02,5.197259e+03
5.496146e+02,5.190652e+03
5.505789e+02,5.182462e+03
5.515431e+02,5.174956e+03
5.525073e+02,5.171525e+03
5.534716e+02,5.171766e+03
5.544358e+02,5.172318e+03
5.554000e+02,5.167499e+03
5.563643e+02,5.162413e+03
5.573285e+02,5.163042e+03
5.582927e+02,5.168209e+03
5.592570e+02,5.173746e+03
5.602212e+02,5.178195e+03
5.611854e+02,5.181113e+03
5.621497e+02,5.181902e+03
5.631139e+02,5.177256e+03
5.640781e+02,5.170837e+03
5.650424e+02,5.164255e+03
5.660066e+02,5.158492e+03
5.669708e+02,5.154941e+03
5.679351e+02,5.157488e+03
5.688993e+02,5.163010e+03
5.698635e+02,5.165062e+03
5.708278e+02,5.163510e+03
5.717920e+02,5.161979e+03
5.727562e+02,5.162226e+03
5.737205e+02,5.162829e+03
5.746847e+02,5.165789e+03
5.756489e+02,5.175083e+03
5.766132e+02,5.182063e+03
5.775774e+02,5.181103e+03
5.785416e+02,5.172079e+03
5.795059e+02,5.162524e+03
5.804701e+02,5.158256e+03
5.814343e+02,5.158119e+03
5.823986e+02,5.158999e+03
5.833628e+02,5.161042e+03
5.843270e+02,5.163197e+03
5.852913e+02,5.163444e+03
5.862555e+02,5.157754e+03
5.872197e+02,5.156445e+03
5.881840e+02,5.164404e+03
5.891482e+02,5.172758e+03
5.901124e+02,5.173197e+03
5.910767e+02,5.162345e+03
5.920409e+02,5.150158e+03
5.930051e+02,5.147122e+03
5.939694e+02,5.151279e+03
5.949336e+02,5.153871e+03
5.958978e+02,5.152187e+03
5.968621e+02,5.147861e+03
5.978263e+02,5.145034e+03
5.987905e+02,5.145591e+03
5.997548e+02,5.147137e+03
6.007190e+02,5.151737e+03
6.016832e+02,5.157479e+03
6.026475e+02,5.160607e+03
6.036117e+02,5.156633e+03
6.045759e+02,5.151765e+03
6.055402e+02,5.155285e+03
6.065044e+02,5.165352e+03
6.074686e+02,5.171726e+03
6.084329e+02,5.170403e+03
6.093971e+02,5.163463e+03
6.103613e+02,5.158702e+03
6.113256e+02,5.162521e+03
6.122899e+02,5.162085e+03
6.132541e+02,5.151952e+03
6.142183e+02,5.136275e+03
6.151826e+02,5.122515e+03
6.161468e+02,5.115413e+03
6.171110e+02,5.113155e+03
6.180753e+02,5.113919e+03
6.190395e+02,5.116853e+03
6.200037e+02,5.118158e+03
6.209680e+02,5.115007e+03
6.219322e+02,5.108369e+03
6.228964e+02,5.103761e+03
6.238607e+02,5.100912e+03
6.248249e+02,5.099694e+03
6.257891e+02,5.099345e+03
6.267534e+02,5.098410e+03
6.277176e+02,5.096260e+03
6.286818e+02,5.093871e+03
6.296461e+02,5.092248e+03
6.306103e+02,5.092583e+03
6.315745e+02,5.094883e+03
6.325388e+02,5.096774e+03
6.335030e+02,5.094747e+03
6.344672e+02,5.087728e+03
6.354315e+02,5.085766e+03
6.363957e+02,5.091396e+03
6.373599e+02,5.096798e+03
6.383242e+02,5.100342e+03
6.392884e+02,5.102546e+03
6.402526e+02,5.102097e+03
6.412169e+02,5.095897e+03
6.421811e+02,5.088155e+03
6.431453e+02,5.082390e+03
6.441096e+02,5.078868e+03
6.450738e+02,5.076966e+03
6.460380e+02,5.078111e+03
6.470023e+02,5.083542e+03
6.479665e+02,5.085903e+03
6.489307e+02,5.082687e+03
6.498950e+02,5.076981e+03
6.508592e+02,5.068274e+03
6.518234e+02,5.054740e+03
6.527877e+02,5.048547e+03
6.537519e+02,5.061964e+03
6.547161e+02,5.076901e+03
6.556804e+02,5.078318e+03
6.566446e+02,5.065923e+03
6.576088e+02,5.051317e+03
6.585731e+02,5.046522e+03
6.595373e+02,5.049380e+03
6.605015e+02,5.045445e+03
6.614658e+02,5.030800e+03
6.624300e+02,5.016795e+03
6.633942e+02,5.015167e+03
6.643585e+02,5.032317e+03
6.653227e+02,5.044997e+03
6.662869e+02,5.051323e+03
6.672512e+02,5.053296e+03
6.682154e+02,5.051219e+03
6.691796e+02,5.044720e+03
6.701439e+02,5.037000e+03
6.711081e+02,5.028625e+03
6.720723e+02,5.021194e+03
6.730366e+02,5.020503e+03
6.740008e+02,5.028491e+03
6.749650e+02,5.036688e+03
6.759293e+02,5.033802e+03
6.768935e+02,5.014532e+03
6.778577e+02,5.002023e+03
6.788220e+02,5.002542e+03
6.797862e+02,5.008162e+03
6.807504e+02,5.012066e+03
6.817147e+02,5.012351e+03
6.826789e+02,5.011381e+03
6.836431e+02,5.006420e+03
6.846074e+02,5.000391e+03
6.855716e+02,4.999079e+03
6.865358e+02,5.004153e+03
6.875001e+02,5.010456e+03
6.884643e+02,5.010653e+03
6.894285e+02,5.005020e+03
6.903928e+02,5.003427e+03
6.913570e+02,5.008974e+03
6.923212e+02,5.014171e+03
6.932855e+02,5.010959e+03
6.942497e+02,4.994091e+03
6.952139e+02,4.983808e+03
6.961782e+02,4.983922e+03
6.971424e+02,4.987070e+03
6.981066e+02,4.986990e+03
6.990709e+02,4.980650e+03
7.000351e+02,4.971509e+03
7.009993e+02,4.962416e+03
7.019636e+02,4.956209e+03
7.029278e+02,4.958200e+03
7.038920e+02,4.969337e+03
7.048563e+02,4.980560e+03
7.058205e+02,4.981468e+03
7.067847e+02,4.971009e+03
7.077490e+02,4.960556e+03
7.087132e+02,4.948679e+03
7.096774e+02,4.942930e+03
7.106417e+02,4.946784e+03
7.116059e+02,4.962521e+03
7.125701e+02,4.972819e+03
7.135344e+02,4.969909e+03
7.144986e+02,4.963303e+03
7.154628e+02,4.961218e+03
7.164271e+02,4.964280e+03
7.173913e+02,4.966897e+03
7.183555e+02,4.961936e+03
7.193198e+02,4.951122e+03
7.202840e+02,4.945014e+03
7.212482e+02,4.946454e+03
7.222125e+02,4.950151e+03
7.231767e+02,4.949345e+03
7.241409e+02,4.939331e+03
7.251052e+02,4.933927e+03
7.260694e+02,4.937538e+03
7.270336e+02,4.941737e+03
7.279979e+02,4.943056e+03
7.289621e+02,4.940965e+03
7.299263e+02,4.938178e+03
7.308906e+02,4.936491e+03
7.318548e+02,4.933391e+03
7.328190e+02,4.924911e+03
7.337833e+02,4.911451e+03
7.347475e+02,4.899358e+03
7.357117e+02,4.898471e+03
7.366760e+02,4.908108e+03
7.376402e+02,4.910692e+03
7.386044e+02,4.904207e+03
7.395687e+02,4.894745e+03
7.405329e+02,4.885531e+03
7.414971e+02,4.875189e+03
7.424614e+02,4.869632e+03
7.434256e+02,4.875901e+03
7.443898e+02,4.885306e+03
7.453541e+02,4.891373e+03
7.463183e+02,4.891800e+03
7.472825e+02,4.891178e+03
7.482468e+02,4.894253e+03
7.492110e+02,4.896586e+03
7.501752e+02,4.894657e+03
7.511395e+02,4.890485e+03
7.521037e+02,4.886927e+03
7.530679e+02,4.884640e+03
7.540322e+02,4.882156e+03
7.549964e+02,4.877029e+03
7.559606e+02,4.868858e+03
7.569249e+02,4.863638e+03
7.578891e+02,4.866650e+03
7.588533e+02,4.879148e+03
7.598176e+02,4.886452e+03
7.607818e+02,4.881968e+03
7.617460e+02,4.871146e+03
7.627103e+02,4.853606e+03
7.636745e+02,4.834275e+03
7.646387e+02,4.821940e+03
7.656030e+02,4.821773e+03
7.665672e+02,4.828161e+03
7.675314e+02,4.837436e+03
7.684957e+02,4.845319e+03
7.694599e+02,4.847163e+03
7.704241e+02,4.842198e+03
7.713884e+02,4.833907e+03
7.723526e+02,4.826729e+03
7.733168e+02,4.821492e+03
7.742811e+02,4.820667e+03
7.752453e+02,4.823333e+03
7.762095e+02,4.827481e+03
7.771738e+02,4.831284e+03
7.781380e+02,4.835741e+03
7.791022e+02,4.834591e+03
7.800665e+02,4.825772e+03
7.810307e+02,4.813180e+03
7.819949e+02,4.802557e+03
7.829592e+02,4.797214e+03
7.839234e+02,4.795313e+03
7.848876e+02,4.797374e+03
7.858519e+02,4.800384e+03
7.868161e+02,4.799479e+03
7.877803e+02,4.791601e+03
7.887446e+02,4.782023e+03
7.897088e+02,4.779917e+03
7.906730e+02,4.786062e+03
7.916373e+02,4.794884e+03
7.926015e+02,4.803173e+03
7.935657e+02,4.806612e+03
7.945300e+02,4.801572e+03
7.954942e+02,4.785861e+03
7.964584e+02,4.772587e+03
7.974227e+02,4.768038e+03
7.983869e+02,4.771461e+03
7.993511e+02,4.776678e+03
8.003154e+02,4.783559e+03
8.012796e+02,4.783478e+03
8.022438e+02,4.771491e+03
8.032081e+02,4.757948e+03
8.041723e+02,4.751865e+03
8.051365e+02,4.754712e+03
8.061008e+02,4.758822e+03
8.070650e+02,4.756432e+03
8.080292e+02,4.750449e+03
8.089935e+02,4.748971e+03
8.099577e+02,4.754374e+03
8.109219e+02,4.761467e+03
8.118862e+02,4.763912e+03
8.128504e+02,4.761814e+03
8.138146e+02,4.759167e+03
8.147789e+02,4.754951e+03
8.157431e+02,4.750778e+03
8.167073e+02,4.749414e+03
8.176716e+02,4.754147e+03
8.186358e+02,4.757711e+03
8.196000e+02,4.761073e+03
8.205643e+02,4.761581e+03
8.215285e+02,4.752437e+03
8.224927e+02,4.735325e+03
8.234570e+02,4.725110e+03
8.244212e+02,4.732210e+03
8.253854e+02,4.741791e+03
8.263497e+02,4.744192e+03
8.273139e+02,4.739217e+03
8.282781e+02,4.731614e+03
8.292424e+02,4.725455e+03
8.302066e+02,4.721495e+03
8.311708e+02,4.717761e+03
8.321351e+02,4.714931e+03
8.330993e+02,4.717593e+03
8.340635e+02,4.728849e+03
8.350278e+02,4.743718e+03
8.359920e+02,4.747653e+03
8.369562e+02,4.738895e+03
8.379205e+02,4.729167e+03
8.388847e+02,4.721388e+03
8.398489e+02,4.715757e+03
8.408132e+02,4.711960e+03
8.417774e+02,4.710350e+03
8.427416e+02,4.708490e+03
8.437059e+02,4.706844e+03
8.446701e+02,4.704667e+03
8.456343e+02,4.701261e+03
8.465986e+02,4.694543e+03
8.475628e+02,4.689373e+03
8.485270e+02,4.689213e+03
8.494913e+02,4.690271e+03
8.504555e+02,4.689562e+03
8.514197e+02,4.686919e+03
8.523840e+02,4.683038e+03
8.533482e+02,4.674500e+03
8.543124e+02,4.664558e+03
8.552767e+02,4.662479e+03
8.562409e+02,4.668766e+03
8.572051e+02,4.673285e+03
8.581694e+02,4.663824e+03
8.591336e+02,4.642703e+03
8.600978e+02,4.630207e+03
8.610621e+02,4.628373e+03
8.620263e+02,4.633228e+03
8.629905e+02,4.642518e+03
8.639548e+02,4.655255e+03
8.649190e+02,4.657960e+03
8.658832e+02,4.646714e+03
8.668475e+02,4.635165e+03
8.678117e+02,4.628429e+03
8.687759e+02,4.625531e+03
8.697402e+02,4.625013e+03
8.707044e+02,4.624471e+03
8.716686e+02,4.623791e+03
8.726329e+02,4.629043e+03
8.735971e+02,4.636678e+03
8.745613e+02,4.638319e+03
8.755256e+02,4.627961e+03
8.764898e+02,4.617097e+03
8.774540e+02,4.611879e+03
8.784183e+02,4.609930e+03
8.793825e+02,4.607333e+03
8.803467e+02,4.602007e+03
8.813110e+02,4.597795e+03
8.822752e+02,4.603070e+03
8.832394e+02,4.615447e+03
8.842037e+02,4.622107e+03
8.851679e+02,4.618379e+03
8.861321e+02,4.610292e+03
8.870964e+02,4.608244e+03
8.880606e+02,4.612472e+03
8.890248e+02,4.609786e+03
8.899891e+02,4.598618e+03
8.909533e+02,4.587345e+03
8.919175e+02,4.582938e+03
8.928818e+02,4.586884e+03
8.938460e+02,4.590517e+03
8.948102e+02,4.593326e+03
8.957745e+02,4.594025e+03
8.967387e+02,4.592370e+03
8.977029e+02,4.587438e+03
8.986672e+02,4.580483e+03
8.996314e+02,4.568643e+03
9.005956e+02,4.562757e+03
9.015599e+02,4.572997e+03
9.025241e+02,4.591552e+03
9.034883e+02,4.599912e+03
9.044526e+02,4.580343e+03
9.054168e+02,4.556766e+03
9.063810e+02,4.546885e+03
9.073453e+02,4.548219e+03
9.083095e+02,4.552122e+03
9.092737e+02,4.553875e+03
9.102380e+02,4.553577e+03
9.112022e+02,4.551827e+03
9.121664e+02,4.548426e+03
9.131307e+02,4.543519e+03
9.140949e+02,4.538549e+03
9.150591e+02,4.536225e+03
9.160234e+02,4.538927e+03
9.169876e+02,4.543194e+03
9.179518e+02,4.538172e+03
9.189161e+02,4.521149e+03
9.198803e+02,4.502972e+03
9.208445e+02,4.498458e+03
9.218088e+02,4.511808e+03
9.227730e+02,4.515136e+03
9.237372e+02,4.502571e+03
9.247015e+02,4.489119e+03
9.256657e+02,4.484557e+03
9.266299e+02,4.488847e+03
9.275942e+02,4.494308e+03
9.285584e+02,4.501371e+03
9.295226e+02,4.507045e+03
9.304869e+02,4.513082e+03
9.314511e+02,4.518442e+03
9.324153e+02,4.517326e+03
9.333796e+02,4.498854e+03
9.343438e+02,4.485498e+03
9.353080e+02,4.487943e+03
9.362723e+02,4.495455e+03
9.372365e+02,4.494398e+03
9.382007e+02,4.478597e+03
9.391650e+02,4.464940e+03
9.401292e+02,4.462521e+03
9.410934e+02,4.465023e+03
9.420577e+02,4.463684e+03
9.430219e+02,4.455651e+03
9.439861e+02,4.447611e+03
9.449504e+02,4.446759e+03
9.459146e+02,4.451670e+03
9.468788e+02,4.457885e+03
9.478431e+02,4.462211e+03
9.488073e+02,4.463597e+03
9.497715e+02,4.463593e+03
9.507358e+02,4.462831e+03
9.517000e+02,4.463279e+03
9.526642e+02,4.465679e+03
9.536285e+02,4.462821e+03
9.545927e+02,4.446433e+03
9.555569e+02,4.422372e+03
9.565212e+02,4.411294e+03
9.574854e+02,4.414966e+03
9.584496e+02,4.422336e+03
9.594139e+02,4.428120e+03
9.603781e+02,4.430692e+03
9.613423e+02,4.428781e+03
9.623066e+02,4.421961e+03
9.632708e+02,4.413243e+03
9.642350e+02,4.402233e+03
9.651993e+02,4.393497e+03
9.661635e+02,4.392506e+03
9.671277e+02,4.402727e+03
9.680920e+02,4.408531e+03
9.690562e+02,4.408891e+03
9.700204e+02,4.404990e+03
9.709847e+02,4.397752e+03
9.719489e+02,4.386840e+03
9.729131e+02,4.381608e+03
9.738774e+02,4.388422e+03
9.748416e+02,4.396601e+03
9.758058e+02,4.400214e+03
9.767701e+02,4.398667e+03
9.777343e+02,4.396250e+03
9.786985e+02,4.393521e+03
9.796628e+02,4.388945e+03
9.806270e+02,4.381333e+03
9.815912e+02,4.372298e+03
9.825555e+02,4.364814e+03
9.835197e+02,4.362361e+03
9.844839e+02,4.361604e+03
9.854482e+02,4.362021e+03
9.864124e+02,4.363778e+03
9.873766e+02,4.366475e+03
9.883409e+02,4.370772e+03
9.893051e+02,4.373417e+03
9.902693e+02,4.370085e+03
9.912336e+02,4.365810e+03
9.921978e+02,4.364939e+03
9.931620e+02,4.366419e+03
9.941263e+02,4.366954e+03
9.950905e+02,4.362944e+03
9.960547e+02,4.358546e+03
9.970190e+02,4.361336e+03
9.979832e+02,4.368473e+03
9.989474e+02,4.369986e+03
9.999117e+02,4.358532e+03
1.000876e+03,4.343755e+03
1.001840e+03,4.340770e+03
1.002804e+03,4.347594e+03
1.003769e+03,4.354280e+03
1.004733e+03,4.356026e+03
1.005697e+03,4.354680e+03
1.006661e+03,4.353390e+03
1.007626e+03,4.352379e+03
1.008590e+03,4.351424e+03
1.009554e+03,4.349561e+03
1.010518e+03,4.345286e+03
1.011482e+03,4.338061e+03
1.012447e+03,4.327947e+03
1.013411e+03,4.314681e+03
1.014375e+03,4.299894e+03
1.015339e+03,4.289818e+03
1.016304e+03,4.288616e+03
1.017268e+03,4.294027e+03
1.018232e+03,4.294394e+03
1.019196e+03,4.288189e+03
1.020161e+03,4.284823e+03
1.021125e+03,4.290386e+03
1.022089e+03,4.300986e+03
1.023053e+03,4.301497e+03
1.024018e+03,4.287213e+03
1.024982e+03,4.278535e+03
1.025946e+03,4.279960e+03
1.026910e+03,4.284141e+03
1.027875e+03,4.284694e+03
1.028839e+03,4.284275e+03
1.029803e+03,4.278209e+03
1.030767e+03,4.262387e+03
1.031731e+03,4.248712e+03
1.032696e+03,4.245344e+03
1.033660e+03,4.252314e+03
1.034624e+03,4.258535e+03
1.035588e+03,4.266601e+03
1.036552e+03,4.272231e+03
1.037517e+03,4.270979e+03
1.038481e+03,4.264065e+03
1.039445e+03,4.261019e+03
1.040409e+03,4.266315e+03
1.041374e+03,4.268452e+03
1.042338e+03,4.266928e+03
1.043302e+03,4.262432e+03
1.044266e+03,4.254439e+03
1.045231e+03,4.238108e+03
1.046195e+03,4.225903e+03
1.047159e+03,4.220269e+03
1.048123e+03,4.218336e+03
1.049088e+03,4.218560e+03
1.050052e+03,4.222420e+03
1.051016e+03,4.227716e+03
1.051980e+03,4.238065e+03
1.052945e+03,4.245125e+03
1.053909e+03,4.242664e+03
1.054873e+03,4.230993e+03
1.055837e+03,4.218886e+03
1.056802e+03,4.204730e+03
1.057766e+03,4.195726e+03
1.058730e+03,4.197905e+03
1.059694e+03,4.204848e+03
1.060658e+03,4.207655e+03
1.061623e+03,4.202988e+03
1.062587e+03,4.201295e+03
1.063551e+03,4.207302e+03
1.064515e+03,4.214365e+03
1.065479e+03,4.217154e+03
1.066444e+03,4.215958e+03
1.067408e+03,4.214091e+03
1.068372e+03,4.209778e+03
1.069336e+03,4.207050e+03
1.070301e+03,4.206475e+03
1.071265e+03,4.206476e+03
1.072229e+03,4.205588e+03
1.073193e+03,4.203843e+03
1.074158e+03,4.200658e+03
1.075122e+03,4.193564e+03
1.076086e+03,4.186206e+03
1.077050e+03,4.184445e+03
1.078015e+03,4.195597e+03
1.078979e+03,4.203998e+03
1.079943e+03,4.202539e+03
1.080907e+03,4.198965e+03
1.081872e+03,4.198013e+03
1.082836e+03,4.198967e+03
1.083800e+03,4.196657e+03
1.084764e+03,4.186807e+03
1.085729e+03,4.178942e+03
1.086693e+03,4.175901e+03
1.087657e+03,4.177294e+03
1.088621e+03,4.182647e+03
1.089585e+03,4.199999e+03
1.090550e+03,4.209291e+03
1.091514e+03,4.202807e+03
1.092478e+03,4.190593e+03
1.093442e+03,4.182701e+03
1.094406e+03,4.182294e+03
1.095371e+03,4.182174e+03
1.096335e+03,4.180360e+03
1.097299e+03,4.177199e+03
1.098263e+03,4.171575e+03
1.099228e+03,4.163404e+03
1.100192e+03,4.158790e+03
1.101156e+03,4.162037e+03
1.102120e+03,4.164763e+03
1.103085e+03,4.164081e+03
1.104049e+03,4.161132e+03
1.105013e+03,4.158324e+03
1.105977e+03,4.157417e+03
1.106942e+03,4.155583e+03
1.107906e+03,4.149700e+03
1.108870e+03,4.144860e+03
1.109834e+03,4.146662e+03
1.110799e+03,4.158325e+03
1.111763e+03,4.165477e+03
1.112727e+03,4.159921e+03
1.113691e+03,4.157097e+03
1.114656e+03,4.166952e+03
1.115620e+03,4.187303e+03
1.116584e+03,4.201200e+03
1.117548e+03,4.201917e+03
1.118512e+03,4.199313e+03
1.119477e+03,4.194057e+03
1.120441e+03,4.187710e+03
1.121405e+03,4.183153e+03
1.122369e+03,4.180687e+03
1.123334e+03,4.179995e+03
1.124298e+03,4.184600e+03
1.125262e+03,4.189341e+03
1.126226e+03,4.190499e+03
1.127191e+03,4.187918e+03
1.128155e+03,4.186251e+03
1.129119e+03,4.183412e+03
1.130083e+03,4.182392e+03
1.131047e+03,4.185377e+03
1.132012e+03,4.189692e+03
1.132976e+03,4.189293e+03
1.133940e+03,4.180288e+03
1.134904e+03,4.174273e+03
1.135869e+03,4.176689e+03
1.136833e+03,4.181126e+03
1.137797e+03,4.179836e+03
1.138761e+03,4.172319e+03
1.139726e+03,4.166375e+03
1.140690e+03,4.162226e+03
1.141654e+03,4.157166e+03
1.142618e+03,4.147872e+03
1.143583e+03,4.135969e+03
1.144547e+03,4.133167e+03
1.145511e+03,4.141927e+03
1.146475e+03,4.149470e+03
1.147439e+03,4.150820e+03
1.148404e+03,4.151216e+03
1.149368e+03,4.160752e+03
1.150332e+03,4.180658e+03
1.151296e+03,4.191317e+03
1.152261e+03,4.188260e+03
1.153225e+03,4.176372e+03
1.154189e+03,4.162102e+03
1.155153e+03,4.147165e+03
1.156118e+03,4.130163e+03
1.157082e+03,4.112304e+03
1.158046e+03,4.098906e+03
1.159010e+03,4.091062e+03
1.159974e+03,4.087294e+03
1.160939e+03,4.086129e+03
1.161903e+03,4.086137e+03
1.162867e+03,4.083223e+03
1.163831e+03,4.076241e+03
1.164796e+03,4.067569e+03
1.165760e+03,4.060909e+03
1.166724e+03,4.056069e+03
1.167688e+03,4.050329e+03
1.168653e+03,4.044003e+03
1.169617e+03,4.039212e+03
1.170581e+03,4.037460e+03
1.171545e+03,4.038985e+03
1.172510e+03,4.046334e+03
1.173474e+03,4.056933e+03
1.174438e+03,4.063278e+03
1.175402e+03,4.062097e+03
1.176366e+03,4.059058e+03
1.177331e+03,4.059929e+03
1.178295e+03,4.062300e+03
1.179259e+03,4.061707e+03
1.180223e+03,4.057629e+03
1.181188e+03,4.054123e+03
1.182152e+03,4.056811e+03
1.183116e+03,4.058165e+03
1.184080e+03,4.053883e+03
1.185045e+03,4.045903e+03
1.186009e+03,4.035875e+03
1.186973e+03,4.022323e+03
1.187937e+03,4.014220e+03
1.188901e+03,4.019758e+03
1.189866e+03,4.027750e+03
1.190830e+03,4.027704e+03
1.191794e+03,4.017602e+03
1.192758e+03,4.007410e+03
1.193723e+03,3.999345e+03
1.194687e+03,3.994553e+03
1.195651e+03,3.993890e+03
1.196615e+03,3.995782e+03
1.197580e+03,3.996479e+03
1.198544e+03,3.989998e+03
1.199508e+03,3.985937e+03
1.200472e+03,3.990791e+03
1.201437e+03,3.996193e+03
1.202401e+03,3.994809e+03
1.203365e+03,3.986310e+03
1.204329e+03,3.982101e+03
1.205293e+03,3.981836e+03
1.206258e+03,3.985761e+03
1.207222e+03,3.995337e+03
1.208186e+03,4.006927e+03
1.209150e+03,4.008988e+03
1.210115e+03,3.998992e+03
1.211079e+03,3.994214e+03
1.212043e+03,3.999551e+03
1.213007e+03,4.004538e+03
1.213972e+03,3.996220e+03
1.214936e+03,3.978328e+03
1.215900e+03,3.966797e+03
1.216864e+03,3.962003e+03
1.217828e+03,3.961544e+03
1.218793e+03,3.965899e+03
1.219757e+03,3.971208e+03
1.220721e+03,3.968698e+03
1.221685e+03,3.962104e+03
1.222650e+03,3.960642e+03
1.223614e+03,3.965707e+03
1.224578e+03,3.968992e+03
1.225542e+03,3.962664e+03
1.226507e+03,3.953752e+03
1.227471e+03,3.949724e+03
1.228435e+03,3.949210e+03
1.229399e+03,3.947572e+03
1.230364e+03,3.944110e+03
1.231328e+03,3.939365e+03
1.232292e+03,3.935700e+03
1.233256e+03,3.932952e+03
1.234220e+03,3.928130e+03
1.235185e+03,3.920142e+03
1.236149e+03,3.915161e+03
1.237113e+03,3.914157e+03
1.238077e+03,3.917813e+03
1.239042e+03,3.927177e+03
1.240006e+03,3.939143e+03
1.240970e+03,3.942823e+03
1.241934e+03,3.934246e+03
1.242899e+03,3.923692e+03
1.243863e+03,3.912189e+03
1.244827e+03,3.902714e+03
1.245791e+03,3.900327e+03
1.246755e+03,3.907647e+03
1.247720e+03,3.905334e+03
1.248684e+03,3.891461e+03
1.249648e+03,3.877950e+03
1.250612e+03,3.871140e+03
1.251577e+03,3.869973e+03
1.252541e+03,3.874603e+03
1.253505e+03,3.883795e+03
1.254469e+03,3.891535e+03
1.255434e+03,3.896926e+03
1.256398e+03,3.900218e+03
1.257362e+03,3.898459e+03
1.258326e+03,3.893855e+03
1.259291e+03,3.892861e+03
1.260255e+03,3.894430e+03
1.261219e+03,3.892843e+03
1.262183e+03,3.884458e+03
1.263147e+03,3.876268e+03
1.264112e+03,3.872944e+03
1.265076e+03,3.872628e+03
1.266040e+03,3.871757e+03
1.267004e+03,3.869073e+03
1.267969e+03,3.868273e+03
1.268933e+03,3.871198e+03
1.269897e+03,3.879092e+03
1.270861e+03,3.892533e+03
1.271826e+03,3.907511e+03
1.272790e+03,3.915268e+03
1.273754e+03,3.912599e+03
1.274718e+03,3.911052e+03
1.275682e+03,3.915890e+03
1.276647e+03,3.922430e+03
1.277611e+03,3.922995e+03
1.278575e+03,3.916040e+03
1.279539e+03,3.910344e+03
1.280504e+03,3.907851e+03
1.281468e+03,3.909619e+03
1.282432e+03,3.916964e+03
1.283396e+03,3.925780e+03
1.284361e+03,3.925091e+03
1.285325e+03,3.915837e+03
1.286289e+03,3.905292e+03
1.287253e+03,3.895010e+03
1.288218e+03,3.884009e+03
1.289182e+03,3.870270e+03
1.290146e+03,3.857325e+03
1.291110e+03,3.850601e+03
1.292074e+03,3.849460e+03
1.293039e+03,3.848820e+03
1.294003e+03,3.850051e+03
1.294967e+03,3.845397e+03
1.295931e+03,3.824961e+03
1.296896e+03,3.803059e+03
1.297860e+03,3.795209e+03
1.298824e+03,3.806206e+03
1.299788e+03,3.814789e+03
1.300753e+03,3.819034e+03
1.301717e+03,3.821215e+03
1.302681e+03,3.822800e+03
1.303645e+03,3.822852e+03
1.304609e+03,3.817359e+03
1.305574e+03,3.803245e+03
1.306538e+03,3.795567e+03
1.307502e+03,3.799422e+03
1.308466e+03,3.804872e+03
1.309431e+03,3.798048e+03
1.310395e+03,3.784251e+03
1.311359e+03,3.783519e+03
1.312323e+03,3.791477e+03
1.313288e+03,3.793762e+03
1.314252e+03,3.783520e+03
1.315216e+03,3.774559e+03
1.316180e+03,3.782074e+03
1.317145e+03,3.795877e+03
1.318109e+03,3.803107e+03
1.319073e+03,3.800631e+03
1.320037e+03,3.793785e+03
1.321001e+03,3.779713e+03
1.321966e+03,3.767599e+03
1.322930e+03,3.763801e+03
1.323894e+03,3.766102e+03
1.324858e+03,3.768074e+03
1.325823e+03,3.770010e+03
1.326787e+03,3.769800e+03
1.327751e+03,3.764177e+03
1.328715e+03,3.760817e+03
1.329680e+03,3.766022e+03
1.330644e+03,3.778007e+03
1.331608e+03,3.789048e+03
1.332572e+03,3.798676e+03
1.333536e+03,3.804910e+03
1.334501e+03,3.806480e+03
1.335465e+03,3.805022e+03
1.336429e+03,3.803375e+03
1.337393e+03,3.802038e+03
1.338358e+03,3.802009e+03
1.339322e+03,3.802377e+03
1.340286e+03,3.799550e+03
1.341250e+03,3.789849e+03
1.342215e+03,3.778657e+03
1.343179e+03,3.768025e+03
1.344143e+03,3.761032e+03
1.345107e+03,3.759180e+03
1.346072e+03,3.762609e+03
1.347036e+03,3.764582e+03
1.348000e+03,3.762463e+03
1.348964e+03,3.762101e+03
1.349928e+03,3.768819e+03
1.350893e+03,3.778207e+03
1.351857e+03,3.775777e+03
1.352821e+03,3.761230e+03
1.353785e+03,3.748663e+03
1.354750e+03,3.739366e+03
1.355714e+03,3.731769e+03
1.356678e+03,3.726723e+03
1.357642e+03,3.724599e+03
1.358607e+03,3.722973e+03
1.359571e+03,3.722429e+03
1.360535e+03,3.726875e+03
1.361499e+03,3.742441e+03
1.362464e+03,3.750392e+03
1.363428e+03,3.733435e+03
1.364392e+03,3.714573e+03
1.365356e+03,3.709334e+03
1.366320e+03,3.715260e+03
1.367285e+03,3.717402e+03
1.368249e+03,3.716977e+03
1.369213e+03,3.713502e+03
1.370177e+03,3.705894e+03
1.371142e+03,3.697437e+03
1.372106e+03,3.692853e+03
1.373070e+03,3.691378e+03
1.374034e+03,3.686667e+03
1.374999e+03,3.679929e+03
1.375963e+03,3.674765e+03
1.376927e+03,3.672888e+03
1.377891e+03,3.672557e+03
1.378855e+03,3.673219e+03
1.379820e+03,3.672651e+03
1.380784e+03,3.667091e+03
1.381748e+03,3.657178e+03
1.382712e+03,3.650852e+03
1.383677e+03,3.651281e+03
1.384641e+03,3.650926e+03
1.385605e+03,3.646472e+03
1.386569e+03,3.639741e+03
1.387534e+03,3.634246e+03
1.388498e+03,3.630801e+03
1.389462e+03,3.625526e+03
1.390426e+03,3.616745e+03
1.391391e+03,3.610514e+03
1.392355e+03,3.613076e+03
1.393319e+03,3.620220e+03
1.394283e+03,3.622462e+03
1.395247e+03,3.620805e+03
1.396212e+03,3.618597e+03
1.397176e+03,3.616692e+03
1.398140e+03,3.614113e+03
1.399104e+03,3.605108e+03
1.400069e+03,3.598746e+03
1.401033e+03,3.605266e+03
1.401997e+03,3.618867e+03
1.402961e+03,3.622743e+03
1.403926e+03,3.609185e+03
1.404890e+03,3.602416e+03
1.405854e+03,3.606519e+03
1.406818e+03,3.612342e+03
1.407782e+03,3.613381e+03
1.408747e+03,3.611742e+03
1.409711e+03,3.610425e+03
1.410675e+03,3.607970e+03
1.411639e+03,3.607551e+03
1.412604e+03,3.611135e+03
1.413568e+03,3.612946e+03
1.414532e+03,3.609251e+03
1.415496e+03,3.603047e+03
1.416461e+03,3.592343e+03
1.417425e+03,3.578721e+03
1.418389e+03,3.571123e+03
1.419353e+03,3.578063e+03
1.420318e+03,3.581214e+03
1.421282e+03,3.580873e+03
1.422246e+03,3.577011e+03
1.423210e+03,3.566831e+03
1.424174e+03,3.552822e+03
1.425139e+03,3.549897e+03
1.426103e+03,3.555968e+03
1.427067e+03,3.562321e+03
1.428031e+03,3.566831e+03
1.428996e+03,3.568333e+03
1.429960e+03,3.564817e+03
1.430924e+03,3.556922e+03
1.431888e+03,3.542488e+03
1.432853e+03,3.524006e+03
1.433817e+03,3.511301e+03
1.434781e+03,3.510959e+03
1.435745e+03,3.512456e+03
1.436709e+03,3.514023e+03
1.437674e+03,3.514493e+03
1.438638e+03,3.514553e+03
1.439602e+03,3.514990e+03
1.440566e+03,3.512709e+03
1.441531e+03,3.507609e+03
1.442495e+03,3.502327e+03
1.443459e+03,3.496829e+03
1.444423e+03,3.493257e+03
1.445388e+03,3.496559e+03
1.446352e+03,3.499639e+03
1.447316e+03,3.496086e+03
1.448280e+03,3.487413e+03
1.449245e+03,3.477780e+03
1.450209e+03,3.462908e+03
1.451173e+03,3.454855e+03
1.452137e+03,3.455171e+03
1.453101e+03,3.457852e+03
1.454066e+03,3.457822e+03
1.455030e+03,3.456242e+03
1.455994e+03,3.463694e+03
1.456958e+03,3.478246e+03
1.457923e+03,3.486752e+03
1.458887e+03,3.482374e+03
1.459851e+03,3.474313e+03
1.460815e+03,3.467630e+03
1.461780e+03,3.462442e+03
1.462744e+03,3.463774e+03
1.463708e+03,3.470391e+03
1.464672e+03,3.468304e+03
1.465636e+03,3.451491e+03
1.466601e+03,3.439727e+03
1.467565e+03,3.435518e+03
1.468529e+03,3.436120e+03
1.469493e+03,3.439315e+03
1.470458e+03,3.443458e+03
1.471422e+03,3.445362e+03
1.472386e+03,3.446148e+03
1.473350e+03,3.447353e+03
1.474315e+03,3.448651e+03
1.475279e+03,3.450482e+03
1.476243e+03,3.455086e+03
1.477207e+03,3.457492e+03
1.478172e+03,3.454934e+03
1.479136e+03,3.448422e+03
1.480100e+03,3.440769e+03
1.481064e+03,3.431094e+03
1.482028e+03,3.426057e+03
1.482993e+03,3.427644e+03
1.483957e+03,3.430499e+03
1.484921e+03,3.426729e+03
1.485885e+03,3.421345e+03
1.486850e+03,3.426230e+03
1.487814e+03,3.435595e+03
1.488778e+03,3.438518e+03
1.489742e+03,3.430813e+03
1.490707e+03,3.421967e+03
1.491671e+03,3.414161e+03
1.492635e+03,3.411060e+03
1.493599e+03,3.414557e+03
1.494563e+03,3.420749e+03
1.495528e+03,3.421508e+03
1.496492e+03,3.416409e+03
1.497456e+03,3.408030e+03
1.498420e+03,3.398004e+03
1.499385e+03,3.392194e+03
1.500349e+03,3.399820e+03
1.501313e+03,3.409111e+03
1.502277e+03,3.408626e+03
1.503242e+03,3.402321e+03
1.504206e+03,3.396036e+03
1.505170e+03,3.390121e+03
1.506134e+03,3.383220e+03
1.507099e+03,3.374112e+03
1.508063e+03,3.368770e+03
1.509027e+03,3.370296e+03
1.509991e+03,3.374699e+03
1.510955e+03,3.376945e+03
1.511920e+03,3.376375e+03
1.512884e+03,3.370561e+03
1.513848e+03,3.361600e+03
1.514812e+03,3.355378e+03
1.515777e+03,3.352117e+03
1.516741e+03,3.350403e+03
1.517705e+03,3.350562e+03
1.518669e+03,3.350841e+03
1.519634e+03,3.349893e+03
1.520598e+03,3.347489e+03
1.521562e+03,3.352951e+03
1.522526e+03,3.364515e+03
1.523490e+03,3.367829e+03
1.524455e+03,3.357353e+03
1.525419e+03,3.344895e+03
1.526383e+03,3.343291e+03
1.527347e+03,3.343565e+03
1.528312e+03,3.338167e+03
1.529276e+03,3.329658e+03
1.530240e+03,3.325089e+03
1.531204e+03,3.324505e+03
1.532169e+03,3.325211e+03
1.533133e+03,3.327896e+03
1.534097e+03,3.327884e+03
1.535061e+03,3.319165e+03
1.536026e+03,3.306883e+03
1.536990e+03,3.301055e+03
1.537954e+03,3.300541e+03
1.538918e+03,3.304129e+03
1.539882e+03,3.312279e+03
1.540847e+03,3.315859e+03
1.541811e+03,3.306930e+03
1.542775e+03,3.298080e+03
1.543739e+03,3.294043e+03
1.544704e+03,3.293228e+03
1.545668e+03,3.290515e+03
1.546632e+03,3.288206e+03
1.547596e+03,3.298723e+03
1.548561e+03,3.320031e+03
1.549525e+03,3.336957e+03
1.550489e+03,3.340419e+03
1.551453e+03,3.336575e+03
1.552417e+03,3.320229e+03
1.553382e+03,3.304483e+03
1.554346e+03,3.302403e+03
1.555310e+03,3.312394e+03
1.556274e+03,3.314391e+03
1.557239e+03,3.308296e+03
1.558203e+03,3.304375e+03
1.559167e+03,3.305270e+03
1.560131e+03,3.306452e+03
1.561096e+03,3.301736e+03
1.562060e+03,3.298524e+03
1.563024e+03,3.303789e+03
1.563988e+03,3.314801e+03
1.564953e+03,3.325145e+03
1.565917e+03,3.336794e+03
1.566881e+03,3.337745e+03
1.567845e+03,3.325500e+03
1.568809e+03,3.314216e+03
1.569774e+03,3.312017e+03
1.570738e+03,3.314978e+03
1.571702e+03,3.322109e+03
1.572666e+03,3.328197e+03
1.573631e+03,3.325072e+03
1.574595e+03,3.313066e+03
1.575559e+03,3.305108e+03
1.576523e+03,3.302617e+03
1.577488e+03,3.304672e+03
1.578452e+03,3.310188e+03
1.579416e+03,3.316077e+03
1.580380e+03,3.320651e+03
1.581344e+03,3.323998e+03
1.582309e+03,3.328500e+03
1.583273e+03,3.332134e+03
1.584237e+03,3.328333e+03
1.585201e+03,3.310597e+03
1.586166e+03,3.298159e+03
1.587130e+03,3.293092e+03
1.588094e+03,3.291448e+03
1.589058e+03,3.294149e+03
1.590023e+03,3.297401e+03
1.590987e+03,3.291278e+03
1.591951e+03,3.280208e+03
1.592915e+03,3.270928e+03
1.593880e+03,3.262931e+03
1.594844e+03,3.256843e+03
1.595808e+03,3.255984e+03
1.596772e+03,3.253980e+03
1.597736e+03,3.250989e+03
1.598701e+03,3.246757e+03
1.599665e+03,3.239527e+03
1.600629e+03,3.230436e+03
1.601593e+03,3.223919e+03
1.602558e+03,3.219738e+03
1.603522e+03,3.218079e+03
1.604486e+03,3.219716e+03
1.605450e+03,3.217876e+03
1.606415e+03,3.205451e+03
1.607379e+03,3.197229e+03
1.608343e+03,3.200535e+03
1.609307e+03,3.207433e+03
1.610271e+03,3.201623e+03
1.611236e+03,3.186756e+03
1.612200e+03,3.183368e+03
1.613164e+03,3.191389e+03
1.614128e+03,3.198068e+03
1.615093e+03,3.195352e+03
1.616057e+03,3.190642e+03
1.617021e+03,3.183599e+03
1.617985e+03,3.176270e+03
1.618950e+03,3.170767e+03
1.619914e+03,3.167019e+03
1.620878e+03,3.165216e+03
1.621842e+03,3.164801e+03
1.622807e+03,3.161883e+03
1.623771e+03,3.156244e+03
1.624735e+03,3.149981e+03
1.625699e+03,3.140056e+03
1.626663e+03,3.132334e+03
1.627628e+03,3.129118e+03
1.628592e+03,3.126254e+03
1.629556e+03,3.119321e+03
1.630520e+03,3.111439e+03
1.631485e+03,3.114099e+03
1.632449e+03,3.124676e+03
1.633413e+03,3.132929e+03
1.634377e+03,3.135003e+03
1.635342e+03,3.134992e+03
1.636306e+03,3.134906e+03
1.637270e+03,3.132618e+03
1.638234e+03,3.125745e+03
1.639198e+03,3.117526e+03
1.640163e+03,3.114829e+03
1.641127e+03,3.116604e+03
1.642091e+03,3.117621e+03
1.643055e+03,3.116018e+03
1.644020e+03,3.111387e+03
1.644984e+03,3.095487e+03
1.645948e+03,3.086796e+03
1.646912e+03,3.092997e+03
1.647877e+03,3.101947e+03
1.648841e+03,3.104381e+03
1.649805e+03,3.101754e+03
1.650769e+03,3.097318e+03
1.651734e+03,3.090640e+03
1.652698e+03,3.079579e+03
1.653662e+03,3.060717e+03
1.654626e+03,3.051882e+03
1.655590e+03,3.067433e+03
1.656555e+03,3.075883e+03
1.657519e+03,3.067385e+03
1.658483e+03,3.056251e+03
1.659447e+03,3.064927e+03
1.660412e+03,3.080397e+03
1.661376e+03,3.077586e+03
1.662340e+03,3.061979e+03
1.663304e+03,3.051882e+03
1.664269e+03,3.057231e+03
1.665233e+03,3.056241e+03
1.666197e+03,3.045629e+03
1.667161e+03,3.035820e+03
1.668125e+03,3.033594e+03
1.669090e+03,3.035063e+03
1.670054e+03,3.034444e+03
1.671018e+03,3.033942e+03
1.671982e+03,3.039088e+03
1.672947e+03,3.049609e+03
1.673911e+03,3.052409e+03
1.674875e+03,3.043208e+03
1.675839e+03,3.035181e+03
1.676804e+03,3.031785e+03
1.677768e+03,3.030521e+03
1.678732e+03,3.025982e+03
1.679696e+03,3.022934e+03
1.680661e+03,3.028805e+03
1.681625e+03,3.036070e+03
1.682589e+03,3.035473e+03
1.683553e+03,3.027711e+03
1.684517e+03,3.024629e+03
1.685482e+03,3.025625e+03
1.686446e+03,3.025394e+03
1.687410e+03,3.021994e+03
1.688374e+03,3.018889e+03
1.689339e+03,3.021945e+03
1.690303e+03,3.021962e+03
1.691267e+03,3.009671e+03
1.692231e+03,2.994086e+03
1.693196e+03,2.990785e+03
1.694160e+03,2.996690e+03
1.695124e+03,2.994511e+03
1.696088e+03,2.986015e+03
1.697052e+03,2.982461e+03
1.698017e+03,2.992003e+03
1.698981e+03,2.996911e+03
1.699945e+03,2.988967e+03
1.700909e+03,2.978797e+03
1.701874e+03,2.973921e+03
1.702838e+03,2.973874e+03
1.703802e+03,2.973412e+03
1.704766e+03,2.972811e+03
1.705731e+03,2.978769e+03
1.706695e+03,2.991399e+03
1.707659e+03,2.992594e+03
1.708623e+03,2.974325e+03
1.709588e+03,2.962824e+03
1.710552e+03,2.960741e+03
1.711516e+03,2.959042e+03
1.712480e+03,2.949823e+03
1.713444e+03,2.938101e+03
1.714409e+03,2.927507e+03
1.715373e+03,2.921087e+03
1.716337e+03,2.924403e+03
1.717301e+03,2.938163e+03
1.718266e+03,2.944540e+03
1.719230e+03,2.942984e+03
1.720194e+03,2.940455e+03
1.721158e+03,2.938443e+03
1.722123e+03,2.935659e+03
1.723087e+03,2.929134e+03
1.724051e+03,2.924507e+03
1.725015e+03,2.928146e+03
1.725979e+03,2.932680e+03
1.726944e+03,2.922902e+03
1.727908e+03,2.903881e+03
1.728872e+03,2.897234e+03
1.729836e+03,2.900377e+03
1.730801e+03,2.905153e+03
1.731765e+03,2.910696e+03
1.732729e+03,2.914755e+03
1.733693e+03,2.917576e+03
1.734658e+03,2.918159e+03
1.735622e+03,2.915297e+03
1.736586e+03,2.910832e+03
1.737550e+03,2.905077e+03
1.738515e+03,2.901325e+03
1.739479e+03,2.908528e+03
1.740443e+03,2.922410e+03
1.741407e+03,2.917672e+03
1.742371e+03,2.890965e+03
1.743336e+03,2.879886e+03
1.744300e+03,2.886856e+03
1.745264e+03,2.892106e+03
1.746228e+03,2.881692e+03
1.747193e+03,2.870515e+03
1.748157e+03,2.864647e+03
1.749121e+03,2.865491e+03
1.750085e+03,2.873357e+03
1.751050e+03,2.882353e+03
1.752014e+03,2.879694e+03
1.752978e+03,2.870453e+03
1.753942e+03,2.864794e+03
1.754906e+03,2.864003e+03
1.755871e+03,2.865942e+03
1.756835e+03,2.872437e+03
1.757799e+03,2.868977e+03
1.758763e+03,2.854342e+03
1.759728e+03,2.841662e+03
1.760692e+03,2.843277e+03
1.761656e+03,2.851653e+03
1.762620e+03,2.864818e+03
1.763585e+03,2.874471e+03
1.764549e+03,2.867113e+03
1.765513e+03,2.842251e+03
1.766477e+03,2.831847e+03
1.767442e+03,2.835045e+03
1.768406e+03,2.844401e+03
1.769370e+03,2.860246e+03
1.770334e+03,2.866467e+03
1.771298e+03,2.842500e+03
1.772263e+03,2.822616e+03
1.773227e+03,2.817417e+03
1.774191e+03,2.819535e+03
1.775155e+03,2.819591e+03
1.776120e+03,2.819075e+03
1.777084e+03,2.823036e+03
1.778048e+03,2.828765e+03
1.779012e+03,2.827150e+03
1.779977e+03,2.815211e+03
1.780941e+03,2.814105e+03
1.781905e+03,2.822233e+03
1.782869e+03,2.824974e+03
1.783833e+03,2.814230e+03
1.784798e+03,2.803513e+03
1.785762e+03,2.802139e+03
1.786726e+03,2.801198e+03
1.787690e+03,2.796906e+03
1.788655e+03,2.790947e+03
1.789619e+03,2.784111e+03
1.790583e+03,2.777898e+03
1.791547e+03,2.775383e+03
1.792512e+03,2.776176e+03
1.793476e+03,2.776034e+03
1.794440e+03,2.770971e+03
1.795404e+03,2.773926e+03
1.796369e+03,2.784991e+03
1.797333e+03,2.791699e+03
1.798297e+03,2.784125e+03
1.799261e+03,2.776003e+03
1.800225e+03,2.778114e+03
1.801190e+03,2.779556e+03
1.802154e+03,2.773328e+03
1.803118e+03,2.762895e+03
1.804082e+03,2.757981e+03
1.805047e+03,2.758464e+03
1.806011e+03,2.764773e+03
1.806975e+03,2.775490e+03
1.807939e+03,2.777672e+03
1.808904e+03,2.766546e+03
1.809868e+03,2.755863e+03
1.810832e+03,2.747640e+03
1.811796e+03,2.742977e+03
1.812760e+03,2.744084e+03
1.813725e+03,2.746274e+03
1.814689e+03,2.749239e+03
1.815653e+03,2.749320e+03
1.816617e+03,2.742133e+03
1.817582e+03,2.731429e+03
1.818546e+03,2.729518e+03
1.819510e+03,2.732727e+03
1.820474e+03,2.734280e+03
1.821439e+03,2.733477e+03
1.822403e+03,2.730340e+03
1.823367e+03,2.724354e+03
1.824331e+03,2.720281e+03
1.825296e+03,2.718066e+03
1.826260e+03,2.716563e+03
1.827224e+03,2.721477e+03
1.828188e+03,2.723449e+03
1.829152e+03,2.708582e+03
1.830117e+03,2.694787e+03
1.831081e+03,2.700288e+03
1.832045e+03,2.715223e+03
1.833009e+03,2.713875e+03
1.833974e+03,2.703909e+03
1.834938e+03,2.694033e+03
1.835902e+03,2.684445e+03
1.836866e+03,2.681413e+03
1.837831e+03,2.685198e+03
1.838795e+03,2.689624e+03
1.839759e+03,2.694774e+03
1.840723e+03,2.697306e+03
1.841688e+03,2.690668e+03
1.842652e+03,2.683887e+03
1.843616e+03,2.678457e+03
1.844580e+03,2.673632e+03
1.845544e+03,2.669368e+03
1.846509e+03,2.667384e+03
1.847473e+03,2.673624e+03
1.848437e+03,2.682239e+03
1.849401e+03,2.680542e+03
1.850366e+03,2.668759e+03
1.851330e+03,2.664589e+03
1.852294e+03,2.667962e+03
1.853258e+03,2.671234e+03
1.854223e+03,2.672412e+03
1.855187e+03,2.672472e+03
1.856151e+03,2.672069e+03
1.857115e+03,2.666298e+03
1.858079e+03,2.652073e+03
1.859044e+03,2.638287e+03
1.860008e+03,2.635937e+03
1.860972e+03,2.639627e+03
1.861936e+03,2.646953e+03
1.862901e+03,2.654397e+03
1.863865e+03,2.656041e+03
1.864829e+03,2.650802e+03
1.865793e+03,2.644656e+03
1.866758e+03,2.637710e+03
1.867722e+03,2.625727e+03
1.868686e+03,2.604266e+03
1.869650e+03,2.597658e+03
1.870615e+03,2.609658e+03
1.871579e+03,2.615269e+03
1.872543e+03,2.608401e+03
1.873507e+03,2.604939e+03
1.874471e+03,2.621573e+03
1.875436e+03,2.634999e+03
1.876400e+03,2.637064e+03
1.877364e+03,2.630657e+03
1.878328e+03,2.612165e+03
1.879293e+03,2.591198e+03
1.880257e+03,2.588909e+03
1.881221e+03,2.596527e+03
1.882185e+03,2.596279e+03
1.883150e+03,2.587553e+03
1.884114e+03,2.587160e+03
1.885078e+03,2.593167e+03
1.886042e+03,2.597489e+03
1.887006e+03,2.597933e+03
1.887971e+03,2.594940e+03
1.888935e+03,2.588483e+03
1.889899e+03,2.582702e+03
1.890863e+03,2.576591e+03
1.891828e+03,2.572476e+03
1.892792e+03,2.579915e+03
1.893756e+03,2.585185e+03
1.894720e+03,2.575581e+03
1.895685e+03,2.563734e+03
1.896649e+03,2.560958e+03
1.897613e+03,2.563218e+03
1.898577e+03,2.560487e+03
1.899542e+03,2.555110e+03
1.900506e+03,2.551742e+03
1.901470e+03,2.550968e+03
1.902434e+03,2.546333e+03
1.903398e+03,2.538377e+03
1.904363e+03,2.536340e+03
1.905327e+03,2.543341e+03
1.906291e+03,2.550414e+03
1.907255e+03,2.553345e+03
1.908220e+03,2.551707e+03
1.909184e+03,2.544902e+03
1.910148e+03,2.535693e+03
1.911112e+03,2.527559e+03
1.912077e+03,2.519929e+03
1.913041e+03,2.509597e+03
1.914005e+03,2.501661e+03
1.914969e+03,2.502881e+03
1.915933e+03,2.509912e+03
1.916898e+03,2.510375e+03
1.917862e+03,2.507567e+03
1.918826e+03,2.506985e+03
1.919790e+03,2.510273e+03
1.920755e+03,2.515743e+03
1.921719e+03,2.521659e+03
1.922683e+03,2.519904e+03
1.923647e+03,2.509527e+03
1.924612e+03,2.501611e+03
1.925576e+03,2.503490e+03
1.926540e+03,2.504692e+03
1.927504e+03,2.502410e+03
1.928469e+03,2.497875e+03
1.929433e+03,2.489387e+03
1.930397e+03,2.481600e+03
1.931361e+03,2.477108e+03
1.932325e+03,2.476734e+03
1.933290e+03,2.485446e+03
1.934254e+03,2.498411e+03
1.935218e+03,2.498609e+03
1.936182e+03,2.489198e+03
1.937147e+03,2.476684e+03
1.938111e+03,2.463672e+03
1.939075e+03,2.457083e+03
1.940039e+03,2.457342e+03
1.941004e+03,2.460427e+03
1.941968e+03,2.463958e+03
1.942932e+03,2.465586e+03
1.943896e+03,2.465923e+03
1.944860e+03,2.463640e+03
1.945825e+03,2.459582e+03
1.946789e+03,2.455804e+03
1.947753e+03,2.452502e+03
1.948717e+03,2.448948e+03
1.949682e+03,2.442745e+03
1.950646e+03,2.439805e+03
1.951610e+03,2.446909e+03
1.952574e+03,2.454203e+03
1.953539e+03,2.444230e+03
1.954503e+03,2.428644e+03
1.955467e+03,2.417382e+03
1.956431e+03,2.413407e+03
1.957396e+03,2.430676e+03
1.958360e+03,2.456888e+03
1.959324e+03,2.460954e+03
1.960288e+03,2.444844e+03
1.961252e+03,2.433655e+03
1.962217e+03,2.427861e+03
1.963181e+03,2.423769e+03
1.964145e+03,2.420400e+03
1.965109e+03,2.415060e+03
1.966074e+03,2.400149e+03
1.967038e+03,2.401630e+03
1.968002e+03,2.422596e+03
1.968966e+03,2.433345e+03
1.969931e+03,2.415612e+03
1.970895e+03,2.397948e+03
1.971859e+03,2.411812e+03
1.972823e+03,2.423376e+03
1.973787e+03,2.415674e+03
1.974752e+03,2.400062e+03
1.975716e+03,2.391431e+03
1.976680e+03,2.386318e+03
1.977644e+03,2.382231e+03
1.978609e+03,2.381782e+03
1.979573e+03,2.389680e+03
1.980537e+03,2.401914e+03
1.981501e+03,2.409374e+03
1.982466e+03,2.410941e+03
1.983430e+03,2.400076e+03
1.984394e+03,2.374233e+03
1.985358e+03,2.366520e+03
1.986323e+03,2.373562e+03
1.987287e+03,2.376206e+03
1.988251e+03,2.367083e+03
1.989215e+03,2.362622e+03
1.990179e+03,2.366582e+03
1.991144e+03,2.368081e+03
1.992108e+03,2.365159e+03
1.993072e+03,2.362613e+03
1.994036e+03,2.364215e+03
1.995001e+03,2.363787e+03
1.995965e+03,2.359569e+03
1.996929e+03,2.354197e+03
1.997893e+03,2.346420e+03
1.998858e+03,2.339643e+03
1.999822e+03,2.337089e+03
2.000786e+03,2.337856e+03
2.001750e+03,2.346438e+03
2.002714e+03,2.357130e+03
2.003679e+03,2.348692e+03
2.004643e+03,2.331464e+03
2.005607e+03,2.324012e+03
2.006571e+03,2.324668e+03
2.007536e+03,2.320249e+03
2.008500e+03,2.313726e+03
2.009464e+03,2.316067e+03
2.010428e+03,2.327453e+03
2.011393e+03,2.327898e+03
2.012357e+03,2.315212e+03
2.013321e+03,2.310238e+03
2.014285e+03,2.312466e+03
2.015250e+03,2.314040e+03
2.016214e+03,2.309069e+03
2.017178e+03,2.308801e+03
2.018142e+03,2.314883e+03
2.019106e+03,2.319069e+03
2.020071e+03,2.317703e+03
2.021035e+03,2.310300e+03
2.021999e+03,2.289200e+03
2.022963e+03,2.275952e+03
2.023928e+03,2.281771e+03
2.024892e+03,2.292220e+03
2.025856e+03,2.292008e+03
2.026820e+03,2.288237e+03
2.027785e+03,2.285337e+03
2.028749e+03,2.281296e+03
2.029713e+03,2.272016e+03
2.030677e+03,2.262753e+03
2.031641e+03,2.259610e+03
2.032606e+03,2.261348e+03
2.033570e+03,2.266275e+03
2.034534e+03,2.272816e+03
2.035498e+03,2.277261e+03
2.036463e+03,2.279141e+03
2.037427e+03,2.275802e+03
2.038391e+03,2.268802e+03
2.039355e+03,2.258496e+03
2.040320e+03,2.246928e+03
2.041284e+03,2.242561e+03
2.042248e+03,2.246813e+03
2.043212e+03,2.244339e+03
2.044177e+03,2.234302e+03
2.045141e+03,2.228552e+03
2.046105e+03,2.228419e+03
2.047069e+03,2.233169e+03
2.048033e+03,2.248766e+03
2.048998e+03,2.252867e+03
2.049962e+03,2.243691e+03
2.050926e+03,2.234491e+03
2.051890e+03,2.234309e+03
2.052854e+03,2.235520e+03
2.053819e+03,2.235745e+03
2.054783e+03,2.232826e+03
2.055747e+03,2.226266e+03
2.056711e+03,2.220291e+03
2.057676e+03,2.219559e+03
2.058640e+03,2.219060e+03
2.059604e+03,2.214081e+03
2.060568e+03,2.207098e+03
2.061533e+03,2.200521e+03
2.062497e+03,2.197941e+03
2.063461e+03,2.207896e+03
2.064425e+03,2.219306e+03
2.065390e+03,2.214819e+03
2.066354e+03,2.201736e+03
2.067318e+03,2.191673e+03
2.068282e+03,2.186816e+03
2.069247e+03,2.189360e+03
2.070211e+03,2.196692e+03
2.071175e+03,2.196208e+03
2.072139e+03,2.190271e+03
2.073104e+03,2.181647e+03
2.074068e+03,2.171568e+03
2.075032e+03,2.174875e+03
2.075996e+03,2.187208e+03
2.076960e+03,2.193126e+03
2.077925e+03,2.189401e+03
2.078889e+03,2.185205e+03
2.079853e+03,2.181149e+03
2.080817e+03,2.181861e+03
2.081782e+03,2.187145e+03
2.082746e+03,2.187051e+03
2.083710e+03,2.178814e+03
2.084674e+03,2.164800e+03
2.085639e+03,2.146412e+03
2.086603e+03,2.137268e+03
2.087567e+03,2.148287e+03
2.088531e+03,2.154237e+03
2.089496e+03,2.149378e+03
2.090460e+03,2.146468e+03
2.091424e+03,2.157853e+03
2.092388e+03,2.164849e+03
2.093353e+03,2.146035e+03
2.094317e+03,2.134515e+03
2.095281e+03,2.138782e+03
2.096245e+03,2.148089e+03
2.097209e+03,2.158664e+03
2.098174e+03,2.161160e+03
2.099138e+03,2.151774e+03
2.100102e+03,2.139413e+03
2.101066e+03,2.134912e+03
2.102031e+03,2.130005e+03
2.102995e+03,2.111220e+03
2.103959e+03,2.095184e+03
2.104923e+03,2.097904e+03
2.105887e+03,2.111505e+03
2.106852e+03,2.126343e+03
2.107816e+03,2.133736e+03
2.108780e+03,2.125451e+03
2.109744e+03,2.109319e+03
2.110708e+03,2.105359e+03
2.111673e+03,2.109409e+03
2.112637e+03,2.115841e+03
2.113601e+03,2.120138e+03
2.114565e+03,2.114752e+03
2.115530e+03,2.102903e+03
2.116494e+03,2.087824e+03
2.117458e+03,2.075979e+03
2.118422e+03,2.076372e+03
2.119387e+03,2.085413e+03
2.120351e+03,2.097542e+03
2.121315e+03,2.107798e+03
2.122279e+03,2.103223e+03
2.123244e+03,2.083240e+03
2.124208e+03,2.077844e+03
2.125172e+03,2.083517e+03
2.126136e+03,2.085458e+03
2.127101e+03,2.080251e+03
2.128065e+03,2.074939e+03
2.129029e+03,2.069547e+03
2.129993e+03,2.069532e+03
2.130958e+03,2.073902e+03
2.131922e+03,2.072715e+03
2.132886e+03,2.065803e+03
2.133850e+03,2.057076e+03
2.134814e+03,2.049283e+03
2.135779e+03,2.046372e+03
2.136743e+03,2.049512e+03
2.137707e+03,2.052557e+03
2.138671e+03,2.055915e+03
2.139636e+03,2.058747e+03
2.140600e+03,2.063683e+03
2.141564e+03,2.057964e+03
2.142528e+03,2.040607e+03
2.143493e+03,2.029810e+03
2.144457e+03,2.033852e+03
2.145421e+03,2.035270e+03
2.146385e+03,2.028872e+03
2.147350e+03,2.025435e+03
2.148314e+03,2.029352e+03
2.149278e+03,2.034679e+03
2.150242e+03,2.036092e+03
2.151207e+03,2.034065e+03
2.152171e+03,2.027698e+03
2.153135e+03,2.020526e+03
2.154099e+03,2.017894e+03
2.155063e+03,2.017006e+03
2.156028e+03,2.018031e+03
2.156992e+03,2.019040e+03
2.157956e+03,2.014884e+03
2.158920e+03,2.010945e+03
2.159885e+03,2.010996e+03
2.160849e+03,2.008044e+03
2.161813e+03,1.996198e+03
2.162777e+03,1.986455e+03
2.163741e+03,1.992709e+03
2.164706e+03,1.999080e+03
2.165670e+03,2.002319e+03
2.166634e+03,2.002959e+03
2.167598e+03,1.994686e+03
2.168563e+03,1.989920e+03
2.169527e+03,1.992782e+03
2.170491e+03,1.997426e+03
2.171455e+03,2.004601e+03
2.172420e+03,2.007068e+03
2.173384e+03,1.998288e+03
2.174348e+03,1.987481e+03
2.175312e+03,1.978581e+03
2.176277e+03,1.973074e+03
2.177241e+03,1.977880e+03
2.178205e+03,1.981090e+03
2.179169e+03,1.975103e+03
2.180134e+03,1.967680e+03
2.181098e+03,1.967893e+03
2.182062e+03,1.970009e+03
2.183026e+03,1.968775e+03
2.183990e+03,1.965127e+03
2.184955e+03,1.956963e+03
2.185919e+03,1.952390e+03
2.186883e+03,1.959686e+03
2.187847e+03,1.967761e+03
2.188812e+03,1.962092e+03
2.189776e+03,1.952905e+03
2.190740e+03,1.949103e+03
2.191704e+03,1.948176e+03
2.192668e+03,1.951432e+03
2.193633e+03,1.955085e+03
2.194597e+03,1.952235e+03
2.195561e+03,1.947793e+03
2.196525e+03,1.944844e+03
2.197490e+03,1.943030e+03
2.198454e+03,1.944727e+03
2.199418e+03,1.943868e+03
2.200382e+03,1.933854e+03
2.201347e+03,1.923547e+03
2.202311e+03,1.927737e+03
2.203275e+03,1.936907e+03
2.204239e+03,1.942137e+03
2.205204e+03,1.940981e+03
2.206168e+03,1.929096e+03
2.207132e+03,1.915482e+03
2.208096e+03,1.910734e+03
2.209061e+03,1.908099e+03
2.210025e+03,1.901474e+03
2.210989e+03,1.894013e+03
2.211953e+03,1.890523e+03
2.212917e+03,1.893573e+03
2.213882e+03,1.901610e+03
2.214846e+03,1.909101e+03
2.215810e+03,1.905390e+03
2.216774e+03,1.899503e+03
2.217739e+03,1.905209e+03
2.218703e+03,1.914747e+03
2.219667e+03,1.914260e+03
2.220631e+03,1.907897e+03
2.221595e+03,1.896476e+03
2.222560e+03,1.885029e+03
2.223524e+03,1.883508e+03
2.224488e+03,1.883638e+03
2.225452e+03,1.873064e+03
2.226417e+03,1.863440e+03
2.227381e+03,1.868588e+03
2.228345e+03,1.879494e+03
2.229309e+03,1.882729e+03
2.230274e+03,1.882887e+03
2.231238e+03,1.885719e+03
2.232202e+03,1.887383e+03
2.233166e+03,1.883139e+03
2.234131e+03,1.877130e+03
2.235095e+03,1.871588e+03
2.236059e+03,1.866603e+03
2.237023e+03,1.861249e+03
2.237988e+03,1.856658e+03
2.238952e+03,1.853004e+03
2.239916e+03,1.849250e+03
2.240880e+03,1.846271e+03
2.241844e+03,1.843886e+03
2.242809e+03,1.842003e+03
2.243773e+03,1.839804e+03
2.244737e+03,1.833217e+03
2.245701e+03,1.827583e+03
2.246666e+03,1.828295e+03
2.247630e+03,1.829869e+03
2.248594e+03,1.830331e+03
2.249558e+03,1.832711e+03
2.250522e+03,1.840065e+03
2.251487e+03,1.848510e+03
2.252451e+03,1.855849e+03
2.253415e+03,1.856682e+03
2.254379e+03,1.844425e+03
2.255344e+03,1.830663e+03
2.256308e+03,1.819758e+03
2.257272e+03,1.812278e+03
2.258236e+03,1.806238e+03
2.259201e+03,1.810360e+03
2.260165e+03,1.828542e+03
2.261129e+03,1.842615e+03
2.262093e+03,1.830191e+03
2.263058e+03,1.819316e+03
2.264022e+03,1.819925e+03
2.264986e+03,1.823346e+03
2.265950e+03,1.824105e+03
2.266915e+03,1.821416e+03
2.267879e+03,1.813334e+03
2.268843e+03,1.804324e+03
2.269807e+03,1.798372e+03
2.270771e+03,1.794259e+03
2.271736e+03,1.792108e+03
2.272700e+03,1.791984e+03
2.273664e+03,1.792228e+03
2.274628e+03,1.791757e+03
2.275593e+03,1.790268e+03
2.276557e+03,1.785211e+03
2.277521e+03,1.777508e+03
2.278485e+03,1.771168e+03
2.279449e+03,1.767963e+03
2.280414e+03,1.766173e+03
2.281378e+03,1.765407e+03
2.282342e+03,1.764843e+03
2.283306e+03,1.761457e+03
2.284271e+03,1.761684e+03
2.285235e+03,1.764548e+03
2.286199e+03,1.762255e+03
2.287163e+03,1.751993e+03
2.288128e+03,1.751158e+03
2.289092e+03,1.757231e+03
2.290056e+03,1.759762e+03
2.291020e+03,1.756597e+03
2.291985e+03,1.747978e+03
2.292949e+03,1.737197e+03
2.293913e+03,1.742535e+03
2.294877e+03,1.762039e+03
2.295842e+03,1.761420e+03
2.296806e+03,1.742716e+03
2.297770e+03,1.741910e+03
2.298734e+03,1.755039e+03
2.299698e+03,1.757297e+03
2.300663e+03,1.750054e+03
2.301627e+03,1.746713e+03
2.302591e+03,1.745643e+03
2.303555e+03,1.743777e+03
2.304520e+03,1.741679e+03
2.305484e+03,1.741992e+03
2.306448e+03,1.743543e+03
2.307412e+03,1.742984e+03
2.308376e+03,1.740592e+03
2.309341e+03,1.739138e+03
2.310305e+03,1.737326e+03
2.311269e+03,1.732901e+03
2.312233e+03,1.730690e+03
2.313198e+03,1.742511e+03
2.314162e+03,1.752775e+03
2.315126e+03,1.741878e+03
2.316090e+03,1.724563e+03
2.317055e+03,1.714339e+03
2.318019e+03,1.709626e+03
2.318983e+03,1.709489e+03
2.319947e+03,1.710737e+03
2.320912e+03,1.714934e+03
2.321876e+03,1.717388e+03
2.322840e+03,1.710844e+03
2.323804e+03,1.706109e+03
2.324769e+03,1.708771e+03
2.325733e+03,1.715410e+03
2.326697e+03,1.727344e+03
2.327661e+03,1.730923e+03
2.328625e+03,1.719636e+03
2.329590e+03,1.704791e+03
2.330554e+03,1.692861e+03
2.331518e+03,1.684422e+03
2.332482e+03,1.679375e+03
2.333447e+03,1.678314e+03
2.334411e+03,1.684560e+03
2.335375e+03,1.685557e+03
2.336339e+03,1.680760e+03
2.337303e+03,1.674739e+03
2.338268e+03,1.665729e+03
2.339232e+03,1.666498e+03
2.340196e+03,1.675100e+03
2.341160e+03,1.672824e+03
2.342125e+03,1.652547e+03
2.343089e+03,1.657757e+03
2.344053e+03,1.678902e+03
2.345017e+03,1.687810e+03
2.345982e+03,1.682293e+03
2.346946e+03,1.676945e+03
2.347910e+03,1.672705e+03
2.348874e+03,1.666539e+03
2.349839e+03,1.659459e+03
2.350803e+03,1.660915e+03
2.351767e+03,1.666552e+03
2.352731e+03,1.667797e+03
2.353696e+03,1.665154e+03
2.354660e+03,1.653245e+03
2.355624e+03,1.640977e+03
2.356588e+03,1.649861e+03
2.357552e+03,1.661847e+03
2.358517e+03,1.659435e+03
2.359481e+03,1.652853e+03
2.360445e+03,1.655860e+03
2.361409e+03,1.653903e+03
2.362374e+03,1.636980e+03
2.363338e+03,1.619900e+03
2.364302e+03,1.619959e+03
2.365266e+03,1.624587e+03
2.366230e+03,1.630156e+03
2.367195e+03,1.632901e+03
2.368159e+03,1.626948e+03
2.369123e+03,1.623001e+03
2.370087e+03,1.624176e+03
2.371052e+03,1.621096e+03
2.372016e+03,1.604387e+03
2.372980e+03,1.601881e+03
2.373944e+03,1.613089e+03
2.374909e+03,1.620492e+03
2.375873e+03,1.617779e+03
2.376837e+03,1.618929e+03
2.377801e+03,1.622926e+03
2.378766e+03,1.623921e+03
2.379730e+03,1.621020e+03
2.380694e+03,1.608477e+03
2.381658e+03,1.593395e+03
2.382623e+03,1.594771e+03
2.383587e+03,1.606206e+03
2.384551e+03,1.605768e+03
2.385515e+03,1.599865e+03
2.386479e+03,1.604426e+03
2.387444e+03,1.609569e+03
2.388408e+03,1.593611e+03
2.389372e+03,1.577346e+03
2.390336e+03,1.583590e+03
2.391301e+03,1.595385e+03
2.392265e+03,1.598625e+03
2.393229e+03,1.597155e+03
2.394193e+03,1.592554e+03
2.395157e+03,1.588952e+03
2.396122e+03,1.591343e+03
2.397086e+03,1.590817e+03
2.398050e+03,1.585085e+03
2.399014e+03,1.577748e+03
2.399979e+03,1.568734e+03
2.400943e+03,1.563212e+03
2.401907e+03,1.561250e+03
2.402871e+03,1.558959e+03
2.403836e+03,1.556145e+03
2.404800e+03,1.559276e+03
2.405764e+03,1.567642e+03
2.406728e+03,1.575545e+03
2.407693e+03,1.579822e+03
2.408657e+03,1.572195e+03
2.409621e+03,1.557794e+03
2.410585e+03,1.558984e+03
2.411550e+03,1.569055e+03
2.412514e+03,1.567594e+03
2.413478e+03,1.559366e+03
2.414442e+03,1.559344e+03
2.415406e+03,1.558767e+03
2.416371e+03,1.546023e+03
2.417335e+03,1.530871e+03
2.418299e+03,1.524818e+03
2.419263e+03,1.527107e+03
2.420228e+03,1.539252e+03
2.421192e+03,1.550004e+03
2.422156e+03,1.545881e+03
2.423120e+03,1.545863e+03
2.424084e+03,1.554104e+03
2.425049e+03,1.554395e+03
2.426013e+03,1.533771e+03
2.426977e+03,1.524838e+03
2.427941e+03,1.531282e+03
2.428906e+03,1.535641e+03
2.429870e+03,1.531734e+03
2.430834e+03,1.528714e+03
2.431798e+03,1.527179e+03
2.432763e+03,1.526610e+03
2.433727e+03,1.526215e+03
2.434691e+03,1.527154e+03
2.435655e+03,1.527000e+03
2.436620e+03,1.518326e+03
2.437584e+03,1.508168e+03
2.438548e+03,1.520976e+03
2.439512e+03,1.537526e+03
2.440477e+03,1.538173e+03
2.441441e+03,1.528883e+03
2.442405e+03,1.511867e+03
2.443369e+03,1.502553e+03
2.444333e+03,1.508958e+03
2.445298e+03,1.518142e+03
2.446262e+03,1.522685e+03
2.447226e+03,1.516406e+03
2.448190e+03,1.498952e+03
2.449155e+03,1.487159e+03
2.450119e+03,1.495448e+03
2.451083e+03,1.505184e+03
2.452047e+03,1.514408e+03
2.453011e+03,1.509601e+03
2.453976e+03,1.487132e+03
2.454940e+03,1.486674e+03
2.455904e+03,1.500539e+03
2.456868e+03,1.500236e+03
2.457833e+03,1.488498e+03
2.458797e+03,1.482369e+03
2.459761e+03,1.478925e+03
2.460725e+03,1.471594e+03
2.461690e+03,1.465005e+03
2.462654e+03,1.468371e+03
2.463618e+03,1.473787e+03
2.464582e+03,1.477490e+03
2.465547e+03,1.479848e+03
2.466511e+03,1.474430e+03
2.467475e+03,1.477047e+03
2.468439e+03,1.491916e+03
2.469404e+03,1.496683e+03
2.470368e+03,1.466827e+03
2.471332e+03,1.459444e+03
2.472296e+03,1.472388e+03
2.473260e+03,1.475982e+03
2.474225e+03,1.462105e+03
2.475189e+03,1.463946e+03
2.476153e+03,1.475842e+03
2.477117e+03,1.474479e+03
2.478082e+03,1.464098e+03
2.479046e+03,1.464458e+03
2.480010e+03,1.468937e+03
2.480974e+03,1.469102e+03
2.481938e+03,1.468544e+03
2.482903e+03,1.475929e+03
2.483867e+03,1.477786e+03
2.484831e+03,1.465261e+03
2.485795e+03,1.454045e+03
2.486760e+03,1.462968e+03
2.487724e+03,1.466212e+03
2.488688e+03,1.460052e+03
2.489652e+03,1.452120e+03
2.490617e+03,1.442941e+03
2.491581e+03,1.436773e+03
2.492545e+03,1.434093e+03
2.493509e+03,1.432920e+03
2.494474e+03,1.432343e+03
2.495438e+03,1.441774e+03
2.496402e+03,1.453598e+03
2.497366e+03,1.448317e+03
2.498331e+03,1.435081e+03
2.499295e+03,1.431056e+03
2.500259e+03,1.428590e+03
2.501223e+03,1.421653e+03
2.502188e+03,1.416811e+03
2.503152e+03,1.424488e+03
2.504116e+03,1.429230e+03
2.505080e+03,1.426306e+03
2.506044e+03,1.423774e+03
2.507009e+03,1.427510e+03
2.507973e+03,1.426725e+03
2.508937e+03,1.422404e+03
2.509901e+03,1.423945e+03
2.510865e+03,1.434040e+03
2.511830e+03,1.426347e+03
2.512794e+03,1.408176e+03
2.513758e+03,1.405642e+03
2.514722e+03,1.413755e+03
2.515687e+03,1.415825e+03
2.516651e+03,1.413018e+03
2.517615e+03,1.405740e+03
2.518579e+03,1.399017e+03
2.519544e+03,1.400817e+03
2.520508e+03,1.403055e+03
2.521472e+03,1.403386e+03
2.522436e+03,1.401159e+03
2.523401e+03,1.391207e+03
2.524365e+03,1.391536e+03
2.525329e+03,1.401341e+03
2.526293e+03,1.403665e+03
2.527258e+03,1.395017e+03
2.528222e+03,1.396519e+03
2.529186e+03,1.403961e+03
2.530150e+03,1.403521e+03
2.531115e+03,1.398078e+03
2.532079e+03,1.396517e+03
2.533043e+03,1.394450e+03
2.534007e+03,1.385522e+03
2.534971e+03,1.376038e+03
2.535936e+03,1.378634e+03
2.536900e+03,1.380119e+03
2.537864e+03,1.374898e+03
2.538828e+03,1.373904e+03
2.539792e+03,1.382022e+03
2.540757e+03,1.388481e+03
2.541721e+03,1.391783e+03
2.542685e+03,1.391999e+03
2.543649e+03,1.390256e+03
2.544614e+03,1.383874e+03
2.545578e+03,1.373895e+03
2.546542e+03,1.364034e+03
2.547506e+03,1.358673e+03
2.548471e+03,1.374391e+03
2.549435e+03,1.391038e+03
2.550399e+03,1.390074e+03
2.551363e+03,1.383866e+03
2.552328e+03,1.384379e+03
2.553292e+03,1.379680e+03
2.554256e+03,1.363113e+03
2.555220e+03,1.355046e+03
2.556185e+03,1.358403e+03
2.557149e+03,1.362666e+03
2.558113e+03,1.365342e+03
2.559077e+03,1.362349e+03
2.560042e+03,1.355315e+03
2.561006e+03,1.353806e+03
2.561970e+03,1.357309e+03
2.562934e+03,1.359904e+03
2.563898e+03,1.361110e+03
2.564863e+03,1.359632e+03
2.565827e+03,1.355466e+03
2.566791e+03,1.349959e+03
2.567755e+03,1.344337e+03
2.568719e+03,1.336804e+03
2.569684e+03,1.332609e+03
2.570648e+03,1.335957e+03
2.571612e+03,1.338372e+03
2.572576e+03,1.341109e+03
2.573541e+03,1.347293e+03
2.574505e+03,1.353148e+03
2.575469e+03,1.342530e+03
2.576433e+03,1.325632e+03
2.577398e+03,1.318849e+03
2.578362e+03,1.318614e+03
2.579326e+03,1.324326e+03
2.580290e+03,1.328165e+03
2.581255e+03,1.325546e+03
2.582219e+03,1.325031e+03
2.583183e+03,1.340573e+03
2.584147e+03,1.340237e+03
2.585112e+03,1.325782e+03
2.586076e+03,1.316361e+03
2.587040e+03,1.314912e+03
2.588004e+03,1.324903e+03
2.588969e+03,1.336123e+03
2.589933e+03,1.328031e+03
2.590897e+03,1.311211e+03
2.591861e+03,1.303369e+03
2.592825e+03,1.304445e+03
2.593790e+03,1.315407e+03
2.594754e+03,1.324924e+03
2.595718e+03,1.325536e+03
2.596682e+03,1.322728e+03
2.597646e+03,1.316658e+03
2.598611e+03,1.304106e+03
2.599575e+03,1.287759e+03
2.600539e+03,1.283570e+03
2.601503e+03,1.290684e+03
2.602468e+03,1.298254e+03
2.603432e+03,1.304403e+03
2.604396e+03,1.306062e+03
2.605360e+03,1.306573e+03
2.606325e+03,1.305565e+03
2.607289e+03,1.307645e+03
2.608253e+03,1.316354e+03
2.609217e+03,1.318810e+03
2.610182e+03,1.302919e+03
2.611146e+03,1.297759e+03
2.612110e+03,1.303139e+03
2.613074e+03,1.302279e+03
2.614039e+03,1.294907e+03
2.615003e+03,1.290061e+03
2.615967e+03,1.285980e+03
2.616931e+03,1.281953e+03
2.617896e+03,1.281352e+03
2.618860e+03,1.294340e+03
2.619824e+03,1.300408e+03
2.620788e+03,1.291080e+03
2.621752e+03,1.283887e+03
2.622717e+03,1.292616e+03
2.623681e+03,1.292115e+03
2.624645e+03,1.282738e+03
2.625609e+03,1.282245e+03
2.626573e+03,1.289628e+03
2.627538e+03,1.290152e+03
2.628502e+03,1.285441e+03
2.629466e+03,1.276129e+03
2.630430e+03,1.266639e+03
2.631395e+03,1.262840e+03
2.632359e+03,1.260790e+03
2.633323e+03,1.259630e+03
2.634287e+03,1.259703e+03
2.635252e+03,1.261300e+03
2.636216e+03,1.268863e+03
2.637180e+03,1.281417e+03
2.638144e+03,1.286275e+03
2.639109e+03,1.282870e+03
2.640073e+03,1.264069e+03
2.641037e+03,1.247113e+03
2.642001e+03,1.258371e+03
2.642966e+03,1.271409e+03
2.643930e+03,1.270812e+03
2.644894e+03,1.267113e+03
2.645858e+03,1.265184e+03
2.646823e+03,1.267332e+03
2.647787e+03,1.271730e+03
2.648751e+03,1.268166e+03
2.649715e+03,1.256607e+03
2.650679e+03,1.257788e+03
2.651644e+03,1.262985e+03
2.652608e+03,1.258315e+03
2.653572e+03,1.248987e+03
2.654536e+03,1.240177e+03
2.655500e+03,1.236265e+03
2.656465e+03,1.239845e+03
2.657429e+03,1.240449e+03
2.658393e+03,1.233430e+03
2.659357e+03,1.230245e+03
2.660322e+03,1.233013e+03
2.661286e+03,1.230488e+03
2.662250e+03,1.226423e+03
2.663214e+03,1.236878e+03
2.664179e+03,1.249503e+03
2.665143e+03,1.249632e+03
2.666107e+03,1.245803e+03
2.667071e+03,1.242902e+03
2.668036e+03,1.239132e+03
2.669000e+03,1.231111e+03
2.669964e+03,1.221554e+03
2.670928e+03,1.212394e+03
2.671893e+03,1.219474e+03
2.672857e+03,1.238730e+03
2.673821e+03,1.247923e+03
2.674785e+03,1.246892e+03
2.675750e+03,1.236968e+03
2.676714e+03,1.225531e+03
2.677678e+03,1.218244e+03
2.678642e+03,1.214667e+03
2.679606e+03,1.215218e+03
2.680571e+03,1.215559e+03
2.681535e+03,1.214455e+03
2.682499e+03,1.212413e+03
2.683463e+03,1.210344e+03
2.684427e+03,1.215350e+03
2.685392e+03,1.221702e+03
2.686356e+03,1.217300e+03
2.687320e+03,1.208247e+03
2.688284e+03,1.192561e+03
2.689249e+03,1.188202e+03
2.690213e+03,1.197132e+03
2.691177e+03,1.205389e+03
2.692141e+03,1.210044e+03
2.693106e+03,1.212021e+03
2.694070e+03,1.211302e+03
2.695034e+03,1.206195e+03
2.695998e+03,1.199326e+03
2.696963e+03,1.190936e+03
2.697927e+03,1.192047e+03
2.698891e+03,1.208199e+03
2.699855e+03,1.214975e+03
2.700820e+03,1.198385e+03
2.701784e+03,1.190662e+03
2.702748e+03,1.193449e+03
2.703712e+03,1.198111e+03
2.704677e+03,1.201896e+03
2.705641e+03,1.200486e+03
2.706605e+03,1.195876e+03
2.707569e+03,1.180356e+03
2.708533e+03,1.176987e+03
2.709498e+03,1.197421e+03
2.710462e+03,1.207287e+03
2.711426e+03,1.187896e+03
2.712390e+03,1.173907e+03
2.713354e+03,1.165958e+03
2.714319e+03,1.165865e+03
2.715283e+03,1.170327e+03
2.716247e+03,1.177687e+03
2.717211e+03,1.181597e+03
2.718176e+03,1.176735e+03
2.719140e+03,1.176631e+03
2.720104e+03,1.195268e+03
2.721068e+03,1.199021e+03
2.722033e+03,1.184874e+03
2.722997e+03,1.175234e+03
2.723961e+03,1.171231e+03
2.724925e+03,1.174874e+03
2.725890e+03,1.180337e+03
2.726854e+03,1.177799e+03
2.727818e+03,1.175228e+03
2.728782e+03,1.175851e+03
2.729747e+03,1.175115e+03
2.730711e+03,1.170486e+03
2.731675e+03,1.164763e+03
2.732639e+03,1.159686e+03
2.733604e+03,1.163728e+03
2.734568e+03,1.171058e+03
2.735532e+03,1.164615e+03
2.736496e+03,1.155112e+03
2.737460e+03,1.150980e+03
2.738425e+03,1.150691e+03
2.739389e+03,1.152678e+03
2.740353e+03,1.161711e+03
2.741317e+03,1.177212e+03
2.742281e+03,1.169404e+03
2.743246e+03,1.148421e+03
2.744210e+03,1.151346e+03
2.745174e+03,1.159030e+03
2.746138e+03,1.142737e+03
2.747103e+03,1.135272e+03
2.748067e+03,1.150736e+03
2.749031e+03,1.157994e+03
2.749995e+03,1.132957e+03
2.750960e+03,1.130604e+03
2.751924e+03,1.145022e+03
2.752888e+03,1.158209e+03
2.753852e+03,1.165795e+03
2.754817e+03,1.156794e+03
2.755781e+03,1.146082e+03
2.756745e+03,1.140407e+03
2.757709e+03,1.143523e+03
2.758674e+03,1.155022e+03
2.759638e+03,1.152255e+03
2.760602e+03,1.134509e+03
2.761566e+03,1.142377e+03
2.762531e+03,1.159189e+03
2.763495e+03,1.151547e+03
2.764459e+03,1.137523e+03
2.765423e+03,1.134827e+03
2.766387e+03,1.134840e+03
2.767352e+03,1.136041e+03
2.768316e+03,1.134426e+03
2.769280e+03,1.129137e+03
2.770244e+03,1.121516e+03
2.771208e+03,1.118411e+03
2.772173e+03,1.132871e+03
2.773137e+03,1.147857e+03
2.774101e+03,1.146112e+03
2.775065e+03,1.138981e+03
2.776030e+03,1.127234e+03
2.776994e+03,1.122481e+03
2.777958e+03,1.122649e+03
2.778922e+03,1.115227e+03
2.779887e+03,1.105124e+03
2.780851e+03,1.109603e+03
2.781815e+03,1.114588e+03
2.782779e+03,1.110363e+03
2.783744e+03,1.110850e+03
2.784708e+03,1.127206e+03
2.785672e+03,1.131530e+03
2.786636e+03,1.122201e+03
2.787601e+03,1.110657e+03
2.788565e+03,1.101590e+03
2.789529e+03,1.105826e+03
2.790493e+03,1.113798e+03
2.791458e+03,1.118212e+03
2.792422e+03,1.120089e+03
2.793386e+03,1.121298e+03
2.794350e+03,1.115273e+03
2.795314e+03,1.100062e+03
2.796279e+03,1.108977e+03
2.797243e+03,1.124182e+03
2.798207e+03,1.119907e+03
2.799171e+03,1.107029e+03
2.800135e+03,1.091240e+03
2.801100e+03,1.082749e+03
2.802064e+03,1.085536e+03
2.803028e+03,1.091936e+03
2.803992e+03,1.098886e+03
2.804957e+03,1.099695e+03
2.805921e+03,1.097665e+03
2.806885e+03,1.095982e+03
2.807849e+03,1.097884e+03
2.808814e+03,1.104646e+03
2.809778e+03,1.110233e+03
2.810742e+03,1.113073e+03
2.811706e+03,1.107553e+03
2.812671e+03,1.096861e+03
2.813635e+03,1.096528e+03
2.814599e+03,1.100696e+03
2.815563e+03,1.100031e+03
2.816528e+03,1.096569e+03
2.817492e+03,1.089913e+03
2.818456e+03,1.082327e+03
2.819420e+03,1.073858e+03
2.820385e+03,1.070195e+03
2.821349e+03,1.071939e+03
2.822313e+03,1.076758e+03
2.823277e+03,1.082134e+03
2.824241e+03,1.084827e+03
2.825206e+03,1.089389e+03
2.826170e+03,1.101540e+03
2.827134e+03,1.105240e+03
2.828098e+03,1.097547e+03
2.829063e+03,1.082320e+03
2.830027e+03,1.066035e+03
2.830991e+03,1.062029e+03
2.831955e+03,1.067645e+03
2.832919e+03,1.091221e+03
2.833884e+03,1.093114e+03
2.834848e+03,1.070633e+03
2.835812e+03,1.067802e+03
2.836776e+03,1.084774e+03
2.837741e+03,1.071184e+03
2.838705e+03,1.056538e+03
2.839669e+03,1.075931e+03
2.840633e+03,1.094129e+03
2.841598e+03,1.092580e+03
2.842562e+03,1.082379e+03
2.843526e+03,1.067002e+03
2.844490e+03,1.075685e+03
2.845455e+03,1.090627e+03
2.846419e+03,1.079568e+03
2.847383e+03,1.062304e+03
2.848347e+03,1.054898e+03
2.849312e+03,1.062628e+03
2.850276e+03,1.085155e+03
2.851240e+03,1.089480e+03
2.852204e+03,1.078074e+03
2.853168e+03,1.083746e+03
2.854133e+03,1.091234e+03
2.855097e+03,1.073235e+03
2.856061e+03,1.067334e+03
2.857025e+03,1.082824e+03
2.857990e+03,1.088650e+03
2.858954e+03,1.075772e+03
2.859918e+03,1.077251e+03
2.860882e+03,1.083788e+03
2.861846e+03,1.079292e+03
2.862811e+03,1.072214e+03
2.863775e+03,1.070323e+03
2.864739e+03,1.067783e+03
2.865703e+03,1.063304e+03
2.866668e+03,1.072071e+03
2.867632e+03,1.084518e+03
2.868596e+03,1.066551e+03
2.869560e+03,1.046116e+03
2.870525e+03,1.069719e+03
2.871489e+03,1.078093e+03
2.872453e+03,1.056474e+03
2.873417e+03,1.047613e+03
2.874382e+03,1.053510e+03
2.875346e+03,1.056391e+03
2.876310e+03,1.056075e+03
2.877274e+03,1.045094e+03
2.878239e+03,1.045634e+03
2.879203e+03,1.064523e+03
2.880167e+03,1.068651e+03
2.881131e+03,1.048432e+03
2.882095e+03,1.049080e+03
2.883060e+03,1.059354e+03
2.884024e+03,1.057741e+03
2.884988e+03,1.057554e+03
2.885952e+03,1.073223e+03
2.886917e+03,1.082837e+03
2.887881e+03,1.081409e+03
2.888845e+03,1.071997e+03
2.889809e+03,1.060794e+03
2.890773e+03,1.058957e+03
2.891738e+03,1.061785e+03
2.892702e+03,1.072036e+03
2.893666e+03,1.075444e+03
2.894630e+03,1.069856e+03
2.895595e+03,1.066978e+03
2.896559e+03,1.065842e+03
2.897523e+03,1.053030e+03
2.898487e+03,1.042972e+03
2.899452e+03,1.055203e+03
2.900416e+03,1.069214e+03
2.901380e+03,1.078843e+03
2.902344e+03,1.067540e+03
2.903309e+03,1.038602e+03
2.904273e+03,1.042433e+03
2.905237e+03,1.059182e+03
2.906201e+03,1.069435e+03
2.907166e+03,1.065734e+03
2.908130e+03,1.045136e+03
2.909094e+03,1.042035e+03
2.910058e+03,1.059515e+03
2.911022e+03,1.056453e+03
2.911987e+03,1.047112e+03
2.912951e+03,1.046322e+03
2.913915e+03,1.049707e+03
2.914879e+03,1.057004e+03
2.915844e+03,1.051350e+03
2.916808e+03,1.034890e+03
2.917772e+03,1.031289e+03
2.918736e+03,1.033729e+03
2.919700e+03,1.029236e+03
2.920665e+03,1.026617e+03
2.921629e+03,1.035455e+03
2.922593e+03,1.040860e+03
2.923557e+03,1.041944e+03
2.924522e+03,1.035657e+03
2.925486e+03,1.025716e+03
2.926450e+03,1.016552e+03
2.927414e+03,1.011196e+03
2.928379e+03,1.010345e+03
2.929343e+03,1.025352e+03
2.930307e+03,1.050252e+03
2.931271e+03,1.056561e+03
2.932236e+03,1.049920e+03
2.933200e+03,1.027449e+03
2.934164e+03,1.018023e+03
2.935128e+03,1.033217e+03
2.936093e+03,1.033239e+03
2.937057e+03,1.017534e+03
2.938021e+03,1.010183e+03
2.938985e+03,1.009879e+03
2.939949e+03,1.013009e+03
2.940914e+03,1.014630e+03
2.941878e+03,1.013727e+03
2.942842e+03,1.008470e+03
2.943806e+03,9.986744e+02
2.944771e+03,1.010155e+03
2.945735e+03,1.026403e+03
2.946699e+03,1.023717e+03
2.947663e+03,1.016635e+03
2.948627e+03,1.009535e+03
2.949592e+03,1.015256e+03
2.950556e+03,1.033233e+03
2.951520e+03,1.019587e+03
2.952484e+03,1.000267e+03
2.953449e+03,1.002387e+03
2.954413e+03,1.014921e+03
2.955377e+03,1.033508e+03
2.956341e+03,1.039615e+03
2.957306e+03,1.034868e+03
2.958270e+03,1.054809e+03
2.959234e+03,1.060048e+03
2.960198e+03,1.021837e+03
2.961163e+03,9.859377e+02
2.962127e+03,9.698547e+02
2.963091e+03,9.765712e+02
2.964055e+03,9.961007e+02
2.965020e+03,1.001302e+03
2.965984e+03,9.953683e+02
2.966948e+03,9.781516e+02
2.967912e+03,9.715922e+02
2.968876e+03,9.889396e+02
2.969841e+03,9.970099e+02
2.970805e+03,9.964366e+02
2.971769e+03,9.915998e+02
2.972733e+03,9.852982e+02
2.973698e+03,9.794884e+02
2.974662e+03,9.723677e+02
2.975626e+03,9.639788e+02
2.976590e+03,9.698902e+02
2.977554e+03,9.813716e+02
2.978519e+03,9.862301e+02
2.979483e+03,9.838431e+02
2.980447e+03,9.722919e+02
2.981411e+03,9.730837e+02
2.982376e+03,9.884844e+02
2.983340e+03,1.003778e+03
2.984304e+03,1.009229e+03
2.985268e+03,9.954362e+02
2.986233e+03,9.822289e+02
2.987197e+03,9.823790e+02
2.988161e+03,9.700455e+02
2.989125e+03,9.543716e+02
2.990090e+03,9.667275e+02
2.991054e+03,9.825911e+02
2.992018e+03,9.821748e+02
2.992982e+03,9.771154e+02
2.993947e+03,9.721569e+02
2.994911e+03,9.655159e+02
2.995875e+03,9.597346e+02
2.996839e+03,9.554651e+02
2.997803e+03,9.555347e+02
2.998768e+03,9.633613e+02
2.999732e+03,9.666152e+02
3.000696e+03,9.639651e+02
3.001660e+03,9.581099e+02
3.002625e+03,9.545914e+02
3.003589e+03,9.605826e+02
3.004553e+03,9.614081e+02
3.005517e+03,9.507098e+02
3.006481e+03,9.427977e+02
3.007446e+03,9.397028e+02
3.008410e+03,9.482013e+02
3.009374e+03,9.570237e+02
3.010338e+03,9.610022e+02
3.011303e+03,9.554647e+02
3.012267e+03,9.372131e+02
3.013231e+03,9.331934e+02
3.014195e+03,9.380847e+02
3.015160e+03,9.406783e+02
3.016124e+03,9.489723e+02
3.017088e+03,9.645480e+02
3.018052e+03,9.611612e+02
3.019017e+03,9.384059e+02
3.019981e+03,9.348375e+02
3.020945e+03,9.348705e+02
3.021909e+03,9.213751e+02
3.022874e+03,9.252052e+02
3.023838e+03,9.477354e+02
3.024802e+03,9.551121e+02
3.025766e+03,9.507201e+02
3.026730e+03,9.470798e+02
3.027695e+03,9.417750e+02
3.028659e+03,9.341306e+02
3.029623e+03,9.281882e+02
3.030587e+03,9.253209e+02
3.031552e+03,9.360712e+02
3.032516e+03,9.452500e+02
3.033480e+03,9.272648e+02
3.034444e+03,9.313454e+02
3.035408e+03,9.623511e+02
3.036373e+03,9.750590e+02
3.037337e+03,9.711610e+02
3.038301e+03,9.626203e+02
3.039265e+03,9.518782e+02
3.040230e+03,9.353203e+02
3.041194e+03,9.270394e+02
3.042158e+03,9.278043e+02
3.043122e+03,9.409780e+02
3.044087e+03,9.516345e+02
3.045051e+03,9.331026e+02
3.046015e+03,9.218765e+02
3.046979e+03,9.298204e+02
3.047944e+03,9.249454e+02
3.048908e+03,9.178764e+02
3.049872e+03,9.248388e+02
3.050836e+03,9.350377e+02
3.051801e+03,9.421061e+02
3.052765e+03,9.392186e+02
3.053729e+03,9.281394e+02
3.054693e+03,9.309978e+02
3.055657e+03,9.361106e+02
3.056622e+03,9.339551e+02
3.057586e+03,9.297802e+02
3.058550e+03,9.261765e+02
3.059514e+03,9.230450e+02
3.060479e+03,9.221985e+02
3.061443e+03,9.279998e+02
3.062407e+03,9.242418e+02
3.063371e+03,9.085119e+02
3.064335e+03,9.052203e+02
3.065300e+03,9.138638e+02
3.066264e+03,9.212565e+02
3.067228e+03,9.317051e+02
3.068192e+03,9.516127e+02
3.069157e+03,9.401191e+02
3.070121e+03,9.072958e+02
3.071085e+03,9.114688e+02
3.072049e+03,9.282828e+02
3.073014e+03,9.210867e+02
3.073978e+03,9.165497e+02
3.074942e+03,9.193469e+02
3.075906e+03,9.151710e+02
3.076871e+03,9.112393e+02
3.077835e+03,9.200554e+02
3.078799e+03,9.265289e+02
3.079763e+03,9.199444e+02
3.080728e+03,9.125308e+02
3.081692e+03,9.084612e+02
3.082656e+03,9.179840e+02
3.083620e+03,9.202628e+02
3.084584e+03,9.046879e+02
3.085549e+03,9.018317e+02
3.086513e+03,9.179196e+02
3.087477e+03,9.213260e+02
3.088441e+03,9.225926e+02
3.089406e+03,9.399141e+02
3.090370e+03,9.398925e+02
3.091334e+03,9.217953e+02
3.092298e+03,9.124620e+02
3.093262e+03,9.134814e+02
3.094227e+03,9.391263e+02
3.095191e+03,9.461745e+02
3.096155e+03,9.170449e+02
3.097119e+03,8.959813e+02
3.098084e+03,8.909121e+02
3.099048e+03,9.113283e+02
3.100012e+03,9.304371e+02
3.100976e+03,9.282262e+02
3.101941e+03,9.190971e+02
3.102905e+03,9.065590e+02
3.103869e+03,8.975059e+02
3.104833e+03,8.952405e+02
3.105798e+03,9.019991e+02
3.106762e+03,8.950400e+02
3.107726e+03,8.739857e+02
3.108690e+03,8.909123e+02
3.109655e+03,9.142548e+02
3.110619e+03,9.013854e+02
3.111583e+03,8.929396e+02
3.112547e+03,8.954820e+02
3.113511e+03,8.952770e+02
3.114476e+03,8.955620e+02
3.115440e+03,9.100198e+02
3.116404e+03,9.242741e+02
3.117368e+03,9.365426e+02
3.118333e+03,9.122283e+02
3.119297e+03,8.805103e+02
3.120261e+03,8.892609e+02
3.121225e+03,9.110939e+02
3.122189e+03,9.301141e+02
3.123154e+03,9.365809e+02
3.124118e+03,9.298366e+02
3.125082e+03,9.143530e+02
3.126046e+03,8.989384e+02
3.127011e+03,8.867282e+02
3.127975e+03,8.874276e+02
3.128939e+03,8.985820e+02
3.129903e+03,9.223519e+02
3.130868e+03,9.397481e+02
3.131832e+03,9.249542e+02
3.132796e+03,9.178363e+02
3.133760e+03,9.198102e+02
3.134725e+03,9.149492e+02
3.135689e+03,9.163684e+02
3.136653e+03,9.388075e+02
3.137617e+03,9.409082e+02
3.138582e+03,9.108235e+02
3.139546e+03,9.079893e+02
3.140510e+03,9.161178e+02
3.141474e+03,9.227086e+02
3.142438e+03,9.110108e+02
3.143403e+03,8.847730e+02
3.144367e+03,8.800492e+02
3.145331e+03,8.867106e+02
3.146295e+03,8.932321e+02
3.147260e+03,8.874852e+02
3.148224e+03,8.664971e+02
3.149188e+03,8.987810e+02
3.150152e+03,9.372864e+02
3.151116e+03,9.179399e+02
3.152081e+03,8.971868e+02
3.153045e+03,8.981951e+02
3.154009e+03,9.053489e+02
3.154973e+03,9.144261e+02
3.155938e+03,9.210449e+02
3.156902e+03,9.136248e+02
3.157866e+03,8.911735e+02
3.158830e+03,8.869904e+02
3.159795e+03,8.964172e+02
3.160759e+03,8.980257e+02
3.161723e+03,8.997885e+02
3.162687e+03,9.090119e+02
3.163652e+03,9.150363e+02
3.164616e+03,9.165010e+02
3.165580e+03,9.067293e+02
3.166544e+03,9.055298e+02
3.167509e+03,9.200499e+02
3.168473e+03,9.170988e+02
3.169437e+03,9.010301e+02
3.170401e+03,8.912807e+02
3.171365e+03,8.886980e+02
3.172330e+03,8.947383e+02
3.173294e+03,9.243661e+02
3.174258e+03,9.572868e+02
3.175222e+03,9.521266e+02
3.176187e+03,9.416192e+02
3.177151e+03,9.493268e+02
3.178115e+03,9.375472e+02
3.179079e+03,9.141465e+02
3.180043e+03,9.100118e+02
3.181008e+03,9.087239e+02
3.181972e+03,9.048432e+02
3.182936e+03,9.090289e+02
3.183900e+03,9.197686e+02
3.184865e+03,9.390557e+02
3.185829e+03,9.518603e+02
3.186793e+03,9.514535e+02
3.187757e+03,9.343976e+02
3.188722e+03,9.066360e+02
3.189686e+03,8.718713e+02
3.190650e+03,8.819811e+02
3.191614e+03,9.461014e+02
3.192579e+03,9.447252e+02
3.193543e+03,8.972462e+02
3.194507e+03,8.836845e+02
3.195471e+03,8.946290e+02
3.196436e+03,9.292616e+02
3.197400e+03,9.215304e+02
3.198364e+03,9.059365e+02
3.199328e+03,9.478721e+02
3.200292e+03,9.746342e+02
3.201257e+03,0.000000e+00
3.202221e+03,0.000000e+00
3.203185e+03,0.000000e+00
3.204149e+03,0.000000e+00
3.205114e+03,0.000000e+00
3.206078e+03,0.000000e+00
3.207042e+03,0.000000e+00
3.208006e+03,0.000000e+00
3.208970e+03,0.000000e+00
3.209935e+03,0.000000e+00
3.210899e+03,0.000000e+00
3.211863e+03,0.000000e+00
3.212827e+03,0.000000e+00
3.213792e+03,0.000000e+00
3.214756e+03,0.000000e+00
3.215720e+03,0.000000e+00
3.216684e+03,0.000000e+00
3.217649e+03,0.000000e+00
3.218613e+03,0.000000e+00
3.219577e+03,0.000000e+00
3.220541e+03,0.000000e+00
3.221506e+03,0.000000e+00
3.222470e+03,0.000000e+00
3.223434e+03,0.000000e+00
3.224398e+03,0.000000e+00
3.225363e+03,0.000000e+00
3.226327e+03,0.000000e+00
3.227291e+03,0.000000e+00
3.228255e+03,0.000000e+00
3.229219e+03,0.000000e+00
3.230184e+03,0.000000e+00
3.231148e+03,0.000000e+00
3.232112e+03,0.000000e+00
3.233076e+03,0.000000e+00
3.234041e+03,0.000000e+00
3.235005e+03,0.000000e+00
3.235969e+03,0.000000e+00
3.236933e+03,0.000000e+00
3.237897e+03,0.000000e+00
3.238862e+03,0.000000e+00
3.239826e+03,0.000000e+00
3.240790e+03,0.000000e+00
3.241754e+03,0.000000e+00
3.242719e+03,0.000000e+00
3.243683e+03,0.000000e+00
3.244647e+03,0.000000e+00
3.245611e+03,0.000000e+00
3.246576e+03,0.000000e+00
3.247540e+03,0.000000e+00
3.248504e+03,0.000000e+00
3.249468e+03,0.000000e+00
3.250433e+03,0.000000e+00
3.251397e+03,0.000000e+00
3.252361e+03,0.000000e+00
3.253325e+03,0.000000e+00
3.254290e+03,0.000000e+00
3.255254e+03,0.000000e+00
3.256218e+03,0.000000e+00
3.257182e+03,0.000000e+00
3.258146e+03,0.000000e+00
3.259111e+03,0.000000e+00
3.260075e+03,0.000000e+00
3.261039e+03,0.000000e+00
3.262003e+03,0.000000e+00
3.262968e+03,0.000000e+00
3.263932e+03,0.000000e+00
3.264896e+03,0.000000e+00
3.265860e+03,0.000000e+00
3.266824e+03,0.000000e+00
3.267789e+03,0.000000e+00
3.268753e+03,0.000000e+00
3.269717e+03,0.000000e+00
3.270681e+03,0.000000e+00
3.271646e+03,0.000000e+00
3.272610e+03,0.000000e+00
3.273574e+03,0.000000e+00
3.274538e+03,0.000000e+00
3.275503e+03,0.000000e+00
3.276467e+03,0.000000e+00
3.277431e+03,0.000000e+00
3.278395e+03,0.000000e+00
3.279360e+03,0.000000e+00
3.280324e+03,0.000000e+00
3.281288e+03,0.000000e+00
3.282252e+03,0.000000e+00
3.283217e+03,0.000000e+00
3.284181e+03,0.000000e+00
3.285145e+03,0.000000e+00
3.286109e+03,0.000000e+00
3.287073e+03,0.000000e+00
3.288038e+03,0.000000e+00
3.289002e+03,0.000000e+00
3.289966e+03,0.000000e+00
3.290930e+03,0.000000e+00
3.291895e+03,0.000000e+00
3.292859e+03,0.000000e+00
3.293823e+03,0.000000e+00
3.294787e+03,0.000000e+00
3.295751e+03,0.000000e+00
3.296716e+03,0.000000e+00
3.297680e+03,0.000000e+00
3.298644e+03,0.000000e+00
3.299608e+03,0.000000e+00
3.300573e+03,0.000000e+00
3.301537e+03,0.000000e+00
3.302501e+03,0.000000e+00
3.303465e+03,0.000000e+00
3.304430e+03,0.000000e+00
3.305394e+03,0.000000e+00
3.306358e+03,0.000000e+00
3.307322e+03,0.000000e+00
3.308287e+03,0.000000e+00
3.309251e+03,0.000000e+00
3.310215e+03,0.000000e+00
3.311179e+03,0.000000e+00
3.312144e+03,0.000000e+00
3.313108e+03,0.000000e+00
3.314072e+03,0.000000e+00
3.315036e+03,0.000000e+00
3.316000e+03,0.000000e+00
3.316965e+03,0.000000e+00
3.317929e+03,0.000000e+00
3.318893e+03,0.000000e+00
3.319857e+03,0.000000e+00
3.320822e+03,0.000000e+00
3.321786e+03,0.000000e+00
3.322750e+03,0.000000e+00
3.323714e+03,0.000000e+00
3.324678e+03,0.000000e+00
3.325643e+03,0.000000e+00
3.326607e+03,0.000000e+00
3.327571e+03,0.000000e+00
3.328535e+03,0.000000e+00
3.329500e+03,0.000000e+00
3.330464e+03,0.000000e+00
3.331428e+03,0.000000e+00
3.332392e+03,0.000000e+00
3.333357e+03,0.000000e+00
3.334321e+03,0.000000e+00
3.335285e+03,0.000000e+00
3.336249e+03,0.000000e+00
3.337214e+03,0.000000e+00
3.338178e+03,0.000000e+00
3.339142e+03,0.000000e+00
3.340106e+03,0.000000e+00
3.341071e+03,0.000000e+00
3.342035e+03,0.000000e+00
3.342999e+03,0.000000e+00
3.343963e+03,0.000000e+00
3.344927e+03,0.000000e+00
3.345892e+03,0.000000e+00
3.346856e+03,0.000000e+00
3.347820e+03,0.000000e+00
3.348784e+03,0.000000e+00
3.349749e+03,0.000000e+00
3.350713e+03,0.000000e+00
3.351677e+03,0.000000e+00
3.352641e+03,0.000000e+00
3.353605e+03,0.000000e+00
3.354570e+03,0.000000e+00
3.355534e+03,0.000000e+00
3.356498e+03,0.000000e+00
3.357462e+03,0.000000e+00
3.358427e+03,0.000000e+00
3.359391e+03,0.000000e+00
3.360355e+03,0.000000e+00
3.361319e+03,0.000000e+00
3.362284e+03,0.000000e+00
3.363248e+03,0.000000e+00
3.364212e+03,0.000000e+00
3.365176e+03,0.000000e+00
3.366141e+03,0.000000e+00
3.367105e+03,0.000000e+00
3.368069e+03,0.000000e+00
3.369033e+03,0.000000e+00
3.369998e+03,0.000000e+00
3.370962e+03,0.000000e+00
3.371926e+03,0.000000e+00
3.372890e+03,0.000000e+00
3.373854e+03,0.000000e+00
3.374819e+03,0.000000e+00
3.375783e+03,0.000000e+00
3.376747e+03,0.000000e+00
3.377711e+03,0.000000e+00
3.378676e+03,0.000000e+00
3.379640e+03,0.000000e+00
3.380604e+03,0.000000e+00
3.381568e+03,0.000000e+00
3.382532e+03,0.000000e+00
3.383497e+03,0.000000e+00
3.384461e+03,0.000000e+00
3.385425e+03,0.000000e+00
3.386389e+03,0.000000e+00
3.387354e+03,0.000000e+00
3.388318e+03,0.000000e+00
3.389282e+03,0.000000e+00
3.390246e+03,0.000000e+00
3.391211e+03,0.000000e+00
3.392175e+03,0.000000e+00
3.393139e+03,0.000000e+00
3.394103e+03,0.000000e+00
3.395068e+03,0.000000e+00
3.396032e+03,0.000000e+00
3.396996e+03,0.000000e+00
3.397960e+03,0.000000e+00
3.398925e+03,0.000000e+00
3.399889e+03,0.000000e+00
3.400853e+03,0.000000e+00
3.401817e+03,0.000000e+00
3.402781e+03,0.000000e+00
3.403746e+03,0.000000e+00
3.404710e+03,0.000000e+00
3.405674e+03,0.000000e+00
3.406638e+03,0.000000e+00
3.407603e+03,0.000000e+00
3.408567e+03,0.000000e+00
3.409531e+03,0.000000e+00
3.410495e+03,0.000000e+00
3.411459e+03,0.000000e+00
3.412424e+03,0.000000e+00
3.413388e+03,0.000000e+00
3.414352e+03,0.000000e+00
3.415316e+03,0.000000e+00
3.416281e+03,0.000000e+00
3.417245e+03,0.000000e+00
3.418209e+03,0.000000e+00
3.419173e+03,0.000000e+00
3.420138e+03,0.000000e+00
3.421102e+03,0.000000e+00
3.422066e+03,0.000000e+00
3.423030e+03,0.000000e+00
3.423995e+03,0.000000e+00
3.424959e+03,0.000000e+00
3.425923e+03,0.000000e+00
3.426887e+03,0.000000e+00
3.427852e+03,0.000000e+00
3.428816e+03,0.000000e+00
3.429780e+03,0.000000e+00
3.430744e+03,0.000000e+00
3.431708e+03,0.000000e+00
3.432673e+03,0.000000e+00
3.433637e+03,0.000000e+00
3.434601e+03,0.000000e+00
3.435565e+03,0.000000e+00
3.436530e+03,0.000000e+00
3.437494e+03,0.000000e+00
3.438458e+03,0.000000e+00
3.439422e+03,0.000000e+00
3.440386e+03,0.000000e+00
3.441351e+03,0.000000e+00
3.442315e+03,0.000000e+00
3.443279e+03,0.000000e+00
3.444243e+03,0.000000e+00
3.445208e+03,0.000000e+00
3.446172e+03,0.000000e+00
3.447136e+03,0.000000e+00
3.448100e+03,0.000000e+00
3.449065e+03,0.000000e+00
3.450029e+03,0.000000e+00
3.450993e+03,0.000000e+00
3.451957e+03,0.000000e+00
3.452922e+03,0.000000e+00
3.453886e+03,0.000000e+00
3.454850e+03,0.000000e+00
3.455814e+03,0.000000e+00
3.456779e+03,0.000000e+00
3.457743e+03,0.000000e+00
3.458707e+03,0.000000e+00
3.459671e+03,0.000000e+00
3.460635e+03,0.000000e+00
3.461600e+03,0.000000e+00
3.462564e+03,0.000000e+00
3.463528e+03,0.000000e+00
3.464492e+03,0.000000e+00
3.465457e+03,0.000000e+00
3.466421e+03,0.000000e+00
3.467385e+03,0.000000e+00
3.468349e+03,0.000000e+00
3.469313e+03,0.000000e+00
3.470278e+03,0.000000e+00
3.471242e+03,0.000000e+00
3.472206e+03,0.000000e+00
3.473170e+03,0.000000e+00
3.474135e+03,0.000000e+00
3.475099e+03,0.000000e+00
3.476063e+03,0.000000e+00
3.477027e+03,0.000000e+00
3.477992e+03,0.000000e+00
3.478956e+03,0.000000e+00
3.479920e+03,0.000000e+00
3.480884e+03,0.000000e+00
3.481849e+03,0.000000e+00
3.482813e+03,0.000000e+00
3.483777e+03,0.000000e+00
3.484741e+03,0.000000e+00
3.485706e+03,0.000000e+00
3.486670e+03,0.000000e+00
3.487634e+03,0.000000e+00
3.488598e+03,0.000000e+00
3.489563e+03,0.000000e+00
3.490527e+03,0.000000e+00
3.491491e+03,0.000000e+00
3.492455e+03,0.000000e+00
3.493419e+03,0.000000e+00
3.494384e+03,0.000000e+00
3.495348e+03,0.000000e+00
3.496312e+03,0.000000e+00
3.497276e+03,0.000000e+00
3.498240e+03,0.000000e+00
3.499205e+03,0.000000e+00
3.500169e+03,0.000000e+00
