9.931763e+01,0.000000e+00
1.002819e+02,0.000000e+00
1.012461e+02,0.000000e+00
1.022103e+02,0.000000e+00
1.031746e+02,0.000000e+00
1.041388e+02,0.000000e+00
1.051030e+02,0.000000e+00
1.060673e+02,0.000000e+00
1.070315e+02,0.000000e+00
1.079957e+02,0.000000e+00
1.089600e+02,0.000000e+00
1.099242e+02,0.000000e+00
1.108884e+02,0.000000e+00
1.118527e+02,0.000000e+00
1.128169e+02,0.000000e+00
1.137811e+02,0.000000e+00
1.147454e+02,0.000000e+00
1.157096e+02,0.000000e+00
1.166738e+02,0.000000e+00
1.176381e+02,0.000000e+00
1.186023e+02,0.000000e+00
1.195665e+02,0.000000e+00
1.205308e+02,0.000000e+00
1.214950e+02,0.000000e+00
1.224592e+02,0.000000e+00
1.234235e+02,0.000000e+00
1.243877e+02,0.000000e+00
1.253519e+02,0.000000e+00
1.263162e+02,0.000000e+00
1.272804e+02,0.000000e+00
1.282446e+02,0.000000e+00
1.292089e+02,0.000000e+00
1.301731e+02,0.000000e+00
1.311373e+02,0.000000e+00
1.321016e+02,0.000000e+00
1.330658e+02,0.000000e+00
1.340300e+02,0.000000e+00
1.349943e+02,0.000000e+00
1.359585e+02,0.000000e+00
1.369227e+02,0.000000e+00
1.378870e+02,0.000000e+00
1.388512e+02,0.000000e+00
1.398154e+02,0.000000e+00
1.407797e+02,0.000000e+00
1.417439e+02,0.000000e+00
1.427081e+02,0.000000e+00
1.436724e+02,0.000000e+00
1.446366e+02,0.000000e+00
1.456008e+02,0.000000e+00
1.465651e+02,0.000000e+00
1.475293e+02,0.000000e+00
1.484935e+02,0.000000e+00
1.494578e+02,0.000000e+00
1.504220e+02,0.000000e+00
1.513862e+02,0.000000e+00
1.523505e+02,0.000000e+00
1.533147e+02,0.000000e+00
1.542789e+02,0.000000e+00
1.552432e+02,0.000000e+00
1.562074e+02,0.000000e+00
1.571716e+02,0.000000e+00
1.581359e+02,0.000000e+00
1.591001e+02,0.000000e+00
1.600643e+02,0.000000e+00
1.610286e+02,0.000000e+00
1.619928e+02,0.000000e+00
1.629570e+02,0.000000e+00
1.639213e+02,0.000000e+00
1.648855e+02,0.000000e+00
1.658497e+02,0.000000e+00
1.668140e+02,0.000000e+00
1.677782e+02,0.000000e+00
1.687424e+02,0.000000e+00
1.697067e+02,0.000000e+00
1.706709e+02,0.000000e+00
1.716351e+02,0.000000e+00
1.725994e+02,0.000000e+00
1.735636e+02,0.000000e+00
1.745278e+02,0.000000e+00
1.754921e+02,0.000000e+00
1.764563e+02,0.000000e+00
1.774205e+02,0.000000e+00
1.783848e+02,0.000000e+00
1.793490e+02,0.000000e+00
1.803132e+02,0.000000e+00
1.812775e+02,0.000000e+00
1.822417e+02,0.000000e+00
1.832059e+02,0.000000e+00
1.841702e+02,0.000000e+00
1.851344e+02,0.000000e+00
1.860986e+02,0.000000e+00
1.870629e+02,0.000000e+00
1.880271e+02,0.000000e+00
1.889913e+02,0.000000e+00
1.899556e+02,0.000000e+00
1.909198e+02,0.000000e+00
1.918840e+02,0.000000e+00
1.928483e+02,0.000000e+00
1.938125e+02,0.000000e+00
1.947767e+02,0.000000e+00
1.957410e+02,0.000000e+00
1.967052e+02,0.000000e+00
1.976694e+02,0.000000e+00
1.986337e+02,0.000000e+00
1.995979e+02,2.986921e+03
2.005621e+02,2.998344e+03
2.015264e+02,3.006672e+03
2.024906e+02,3.007982e+03
2.034548e+02,3.009192e+03
2.044191e+02,3.011762e+03
2.053833e+02,3.014871e+03
2.063475e+02,3.016689e+03
2.073118e+02,3.014991e+03
2.082760e+02,3.008120e+03
2.092402e+02,3.002916e+03
2.102045e+02,3.001591e+03
2.111687e+02,3.003079e+03
2.121329e+02,3.006646e+03
2.130972e+02,3.011829e+03
2.140614e+02,3.017204e+03
2.150256e+02,3.020331e+03
2.159899e+02,3.020203e+03
2.169541e+02,3.019856e+03
2.179183e+02,3.020487e+03
2.188826e+02,3.021891e+03
2.198468e+02,3.024371e+03
2.208110e+02,3.029600e+03
2.217753e+02,3.037006e+03
2.227395e+02,3.039781e+03
2.237037e+02,3.035107e+03
2.246680e+02,3.028040e+03
2.256322e+02,3.022573e+03
2.265964e+02,3.020633e+03
2.275607e+02,3.021021e+03
2.285249e+02,3.022401e+03
2.294892e+02,3.024904e+03
2.304534e+02,3.028133e+03
2.314176e+02,3.029786e+03
2.323819e+02,3.029840e+03
2.333461e+02,3.031237e+03
2.343103e+02,3.037288e+03
2.352746e+02,3.045769e+03
2.362388e+02,3.051926e+03
2.372030e+02,3.053926e+03
2.381673e+02,3.051660e+03
2.391315e+02,3.046875e+03
2.400957e+02,3.038080e+03
2.410600e+02,3.031590e+03
2.420242e+02,3.032141e+03
2.429884e+02,3.038885e+03
2.439527e+02,3.046662e+03
2.449169e+02,3.051237e+03
2.458811e+02,3.051539e+03
2.468454e+02,3.051852e+03
2.478096e+02,3.051965e+03
2.487738e+02,3.052296e+03
2.497381e+02,3.052871e+03
2.507023e+02,3.053782e+03
2.516665e+02,3.055494e+03
2.526308e+02,3.058556e+03
2.535950e+02,3.063901e+03
2.545592e+02,3.066778e+03
2.555235e+02,3.066323e+03
2.564877e+02,3.064429e+03
2.574519e+02,3.063551e+03
2.584161e+02,3.065501e+03
2.593804e+02,3.070520e+03
2.603446e+02,3.076313e+03
2.613088e+02,3.084627e+03
2.622731e+02,3.090328e+03
2.632373e+02,3.089885e+03
2.642015e+02,3.083589e+03
2.651658e+02,3.076344e+03
2.661300e+02,3.074534e+03
2.670942e+02,3.080383e+03
2.680585e+02,3.085001e+03
2.690227e+02,3.085326e+03
2.699869e+02,3.084453e+03
2.709512e+02,3.084491e+03
2.719154e+02,3.087790e+03
2.728796e+02,3.092143e+03
2.738439e+02,3.093971e+03
2.748081e+02,3.093297e+03
2.757723e+02,3.093579e+03
2.767366e+02,3.094343e+03
2.777008e+02,3.094316e+03
2.786650e+02,3.094294e+03
2.796293e+02,3.096271e+03
2.805935e+02,3.099476e+03
2.815577e+02,3.101630e+03
2.825220e+02,3.101780e+03
2.834862e+02,3.100395e+03
2.844504e+02,3.098864e+03
2.854147e+02,3.098177e+03
2.863789e+02,3.097362e+03
2.873431e+02,3.095917e+03
2.883074e+02,3.095142e+03
2.892716e+02,3.097268e+03
2.902358e+02,3.103808e+03
2.912001e+02,3.114407e+03
2.921643e+02,3.117810e+03
2.931285e+02,3.108450e+03
2.940928e+02,3.099178e+03
2.950570e+02,3.094776e+03
2.960212e+02,3.095043e+03
2.969855e+02,3.097562e+03
2.979497e+02,3.100705e+03
2.989139e+02,3.106050e+03
2.998782e+02,3.109888e+03
3.008424e+02,3.114124e+03
3.018066e+02,3.117826e+03
3.027709e+02,3.118551e+03
3.037351e+02,3.114220e+03
3.046993e+02,3.107726e+03
3.056636e+02,3.105660e+03
3.066278e+02,3.110650e+03
3.075920e+02,3.115526e+03
3.085563e+02,3.116607e+03
3.095205e+02,3.115803e+03
3.104847e+02,3.115942e+03
3.114490e+02,3.117673e+03
3.124132e+02,3.119916e+03
3.133774e+02,3.121311e+03
3.143417e+02,3.121404e+03
3.153059e+02,3.120109e+03
3.162701e+02,3.118458e+03
3.172344e+02,3.117272e+03
3.181986e+02,3.116505e+03
3.191628e+02,3.114510e+03
3.201271e+02,3.113195e+03
3.210913e+02,3.116979e+03
3.220555e+02,3.128815e+03
3.230198e+02,3.146395e+03
3.239840e+02,3.155546e+03
3.249482e+02,3.148659e+03
3.259125e+02,3.141147e+03
3.268767e+02,3.138144e+03
3.278409e+02,3.138859e+03
3.288052e+02,3.139723e+03
3.297694e+02,3.136758e+03
3.307336e+02,3.128448e+03
3.316979e+02,3.124220e+03
3.326621e+02,3.129914e+03
3.336263e+02,3.135134e+03
3.345906e+02,3.134212e+03
3.355548e+02,3.126605e+03
3.365190e+02,3.118646e+03
3.374833e+02,3.116805e+03
3.384475e+02,3.121334e+03
3.394117e+02,3.127395e+03
3.403760e+02,3.133371e+03
3.413402e+02,3.138816e+03
3.423044e+02,3.143323e+03
3.432687e+02,3.145805e+03
3.442329e+02,3.147642e+03
3.451971e+02,3.149211e+03
3.461614e+02,3.149725e+03
3.471256e+02,3.149667e+03
3.480898e+02,3.151387e+03
3.490541e+02,3.157966e+03
3.500183e+02,3.158417e+03
3.509825e+02,3.146450e+03
3.519468e+02,3.133391e+03
3.529110e+02,3.127883e+03
3.538752e+02,3.131545e+03
3.548395e+02,3.140153e+03
3.558037e+02,3.147640e+03
3.567680e+02,3.154910e+03
3.577322e+02,3.159460e+03
3.586964e+02,3.160862e+03
3.596607e+02,3.161179e+03
3.606249e+02,3.161845e+03
3.615891e+02,3.162713e+03
3.625534e+02,3.162188e+03
3.635176e+02,3.158615e+03
3.644818e+02,3.152194e+03
3.654461e+02,3.145466e+03
3.664103e+02,3.140202e+03
3.673745e+02,3.137786e+03
3.683388e+02,3.139323e+03
3.693030e+02,3.144952e+03
3.702672e+02,3.152635e+03
3.712315e+02,3.161055e+03
3.721957e+02,3.170158e+03
3.731599e+02,3.177289e+03
3.741242e+02,3.179349e+03
3.750884e+02,3.174002e+03
3.760526e+02,3.169982e+03
3.770169e+02,3.166864e+03
3.779811e+02,3.164845e+03
3.789453e+02,3.164531e+03
3.799096e+02,3.166335e+03
3.808738e+02,3.168938e+03
3.818380e+02,3.168005e+03
3.828023e+02,3.161381e+03
3.837665e+02,3.156969e+03
3.847307e+02,3.157781e+03
3.856950e+02,3.162021e+03
3.866592e+02,3.165344e+03
3.876234e+02,3.163392e+03
3.885877e+02,3.158274e+03
3.895519e+02,3.156955e+03
3.905161e+02,3.160966e+03
3.914804e+02,3.165770e+03
3.924446e+02,3.166713e+03
3.934088e+02,3.164115e+03
3.943731e+02,3.160991e+03
3.953373e+02,3.157528e+03
3.963015e+02,3.153874e+03
3.972658e+02,3.150153e+03
3.982300e+02,3.146724e+03
3.991942e+02,3.144783e+03
4.001585e+02,3.145107e+03
4.011227e+02,3.148218e+03
4.020869e+02,3.150773e+03
4.030512e+02,3.149862e+03
4.040154e+02,3.147188e+03
4.049796e+02,3.146445e+03
4.059439e+02,3.150633e+03
4.069081e+02,3.158156e+03
4.078723e+02,3.163464e+03
4.088366e+02,3.165528e+03
4.098008e+02,3.164683e+03
4.107650e+02,3.162131e+03
4.117293e+02,3.158384e+03
4.126935e+02,3.155146e+03
4.136577e+02,3.151478e+03
4.146220e+02,3.148959e+03
4.155862e+02,3.151027e+03
4.165504e+02,3.158919e+03
4.175147e+02,3.169037e+03
4.184789e+02,3.175516e+03
4.194431e+02,3.176613e+03
4.204074e+02,3.175418e+03
4.213716e+02,3.170007e+03
4.223358e+02,3.162956e+03
4.233001e+02,3.156880e+03
4.242643e+02,3.153124e+03
4.252285e+02,3.151512e+03
4.261928e+02,3.151679e+03
4.271570e+02,3.155098e+03
4.281212e+02,3.157719e+03
4.290855e+02,3.155002e+03
4.300497e+02,3.149378e+03
4.310139e+02,3.147103e+03
4.319782e+02,3.153709e+03
4.329424e+02,3.163691e+03
4.339066e+02,3.170780e+03
4.348709e+02,3.174084e+03
4.358351e+02,3.174237e+03
4.367993e+02,3.171653e+03
4.377636e+02,3.164978e+03
4.387278e+02,3.159562e+03
4.396920e+02,3.156789e+03
4.406563e+02,3.155110e+03
4.416205e+02,3.152706e+03
4.425847e+02,3.149011e+03
4.435490e+02,3.145632e+03
4.445132e+02,3.145185e+03
4.454774e+02,3.148501e+03
4.464417e+02,3.153308e+03
4.474059e+02,3.161316e+03
4.483701e+02,3.168578e+03
4.493344e+02,3.170646e+03
4.502986e+02,3.162895e+03
4.512628e+02,3.154808e+03
4.522271e+02,3.153621e+03
4.531913e+02,3.158136e+03
4.541555e+02,3.163011e+03
4.551198e+02,3.165158e+03
4.560840e+02,3.164717e+03
4.570482e+02,3.162195e+03
4.580125e+02,3.154447e+03
4.589767e+02,3.150308e+03
4.599409e+02,3.154243e+03
4.609052e+02,3.163693e+03
4.618694e+02,3.171611e+03
4.628336e+02,3.172226e+03
4.637979e+02,3.166394e+03
4.647621e+02,3.160352e+03
4.657263e+02,3.154731e+03
4.666906e+02,3.150946e+03
4.676548e+02,3.149277e+03
4.686190e+02,3.149707e+03
4.695833e+02,3.149881e+03
4.705475e+02,3.148539e+03
4.715117e+02,3.146172e+03
4.724760e+02,3.143536e+03
4.734402e+02,3.141002e+03
4.744044e+02,3.139222e+03
4.753687e+02,3.139527e+03
4.763329e+02,3.143902e+03
4.772971e+02,3.147508e+03
4.782614e+02,3.149481e+03
4.792256e+02,3.150639e+03
4.801898e+02,3.151667e+03
4.811541e+02,3.152025e+03
4.821183e+02,3.152244e+03
4.830826e+02,3.153267e+03
4.840468e+02,3.154871e+03
4.850110e+02,3.156507e+03
4.859753e+02,3.159021e+03
4.869395e+02,3.162331e+03
4.879037e+02,3.161417e+03
4.888680e+02,3.152302e+03
4.898322e+02,3.143112e+03
4.907964e+02,3.138536e+03
4.917607e+02,3.138667e+03
4.927249e+02,3.140689e+03
4.936891e+02,3.141825e+03
4.946534e+02,3.141859e+03
4.956176e+02,3.143055e+03
4.965818e+02,3.146761e+03
4.975461e+02,3.150784e+03
4.985103e+02,3.153046e+03
4.994745e+02,3.152757e+03
5.004388e+02,3.150788e+03
5.014030e+02,3.146097e+03
5.023672e+02,3.141279e+03
5.033315e+02,3.141378e+03
5.042957e+02,3.148303e+03
5.052599e+02,3.157275e+03
5.062242e+02,3.158283e+03
5.071884e+02,3.144101e+03
5.081526e+02,3.134164e+03
5.091169e+02,3.133328e+03
5.100811e+02,3.137534e+03
5.110453e+02,3.141814e+03
5.120095e+02,3.145790e+03
5.129738e+02,3.148175e+03
5.139380e+02,3.145036e+03
5.149022e+02,3.136622e+03
5.158665e+02,3.131808e+03
5.168307e+02,3.136058e+03
5.177949e+02,3.147390e+03
5.187592e+02,3.149251e+03
5.197234e+02,3.137133e+03
5.206876e+02,3.125883e+03
5.216519e+02,3.121085e+03
5.226161e+02,3.122502e+03
5.235803e+02,3.127205e+03
5.245446e+02,3.135082e+03
5.255088e+02,3.145122e+03
5.264730e+02,3.150018e+03
5.274373e+02,3.148022e+03
5.284015e+02,3.143523e+03
5.293657e+02,3.139748e+03
5.303300e+02,3.137233e+03
5.312942e+02,3.132501e+03
5.322584e+02,3.122695e+03
5.332227e+02,3.113722e+03
5.341869e+02,3.111079e+03
5.351511e+02,3.115157e+03
5.361154e+02,3.121677e+03
5.370796e+02,3.125785e+03
5.380438e+02,3.127491e+03
5.390081e+02,3.128562e+03
5.399723e+02,3.128270e+03
5.409365e+02,3.128586e+03
5.419008e+02,3.130886e+03
5.428650e+02,3.136154e+03
5.438292e+02,3.139481e+03
5.447935e+02,3.137025e+03
5.457577e+02,3.130935e+03
5.467219e+02,3.125814e+03
5.476862e+02,3.123720e+03
5.486504e+02,3.123457e+03
5.496146e+02,3.121566e+03
5.505789e+02,3.116224e+03
5.515431e+02,3.111777e+03
5.525073e+02,3.111586e+03
5.534716e+02,3.114290e+03
5.544358e+02,3.116228e+03
5.554000e+02,3.113367e+03
5.563643e+02,3.109176e+03
5.573285e+02,3.107570e+03
5.582927e+02,3.107845e+03
5.592570e+02,3.107113e+03
5.602212e+02,3.103275e+03
5.611854e+02,3.096158e+03
5.621497e+02,3.094489e+03
5.631139e+02,3.103040e+03
5.640781e+02,3.111274e+03
5.650424e+02,3.118975e+03
5.660066e+02,3.125341e+03
5.669708e+02,3.127745e+03
5.679351e+02,3.122012e+03
5.688993e+02,3.112680e+03
5.698635e+02,3.107636e+03
5.708278e+02,3.107860e+03
5.717920e+02,3.111059e+03
5.727562e+02,3.114924e+03
5.737205e+02,3.119635e+03
5.746847e+02,3.121512e+03
5.756489e+02,3.118306e+03
5.766132e+02,3.113583e+03
5.775774e+02,3.109426e+03
5.785416e+02,3.106259e+03
5.795059e+02,3.103379e+03
5.804701e+02,3.098958e+03
5.814343e+02,3.094228e+03
5.823986e+02,3.094424e+03
5.833628e+02,3.101933e+03
5.843270e+02,3.110907e+03
5.852913e+02,3.113000e+03
5.862555e+02,3.100394e+03
5.872197e+02,3.092627e+03
5.881840e+02,3.091902e+03
5.891482e+02,3.093891e+03
5.901124e+02,3.095065e+03
5.910767e+02,3.094239e+03
5.920409e+02,3.093878e+03
5.930051e+02,3.097885e+03
5.939694e+02,3.104837e+03
5.949336e+02,3.107580e+03
5.958978e+02,3.103293e+03
5.968621e+02,3.094694e+03
5.978263e+02,3.088269e+03
5.987905e+02,3.086177e+03
5.997548e+02,3.084813e+03
6.007190e+02,3.084467e+03
6.016832e+02,3.085129e+03
6.026475e+02,3.086097e+03
6.036117e+02,3.086100e+03
6.045759e+02,3.086256e+03
6.055402e+02,3.089160e+03
6.065044e+02,3.093850e+03
6.074686e+02,3.094986e+03
6.084329e+02,3.089708e+03
6.093971e+02,3.080312e+03
6.103613e+02,3.076662e+03
6.113256e+02,3.088143e+03
6.122899e+02,3.095712e+03
6.132541e+02,3.093589e+03
6.142183e+02,3.085534e+03
6.151826e+02,3.078325e+03
6.161468e+02,3.076452e+03
6.171110e+02,3.077297e+03
6.180753e+02,3.077284e+03
6.190395e+02,3.076189e+03
6.200037e+02,3.074370e+03
6.209680e+02,3.071575e+03
6.219322e+02,3.068366e+03
6.228964e+02,3.067656e+03
6.238607e+02,3.071023e+03
6.248249e+02,3.074814e+03
6.257891e+02,3.076793e+03
6.267534e+02,3.076878e+03
6.277176e+02,3.077150e+03
6.286818e+02,3.082042e+03
6.296461e+02,3.087234e+03
6.306103e+02,3.086321e+03
6.315745e+02,3.079958e+03
6.325388e+02,3.074047e+03
6.335030e+02,3.072986e+03
6.344672e+02,3.076523e+03
6.354315e+02,3.077487e+03
6.363957e+02,3.073329e+03
6.373599e+02,3.067870e+03
6.383242e+02,3.063498e+03
6.392884e+02,3.060544e+03
6.402526e+02,3.058464e+03
6.412169e+02,3.057565e+03
6.421811e+02,3.056952e+03
6.431453e+02,3.055157e+03
6.441096e+02,3.052390e+03
6.450738e+02,3.050786e+03
6.460380e+02,3.053551e+03
6.470023e+02,3.061468e+03
6.479665e+02,3.068627e+03
6.489307e+02,3.075632e+03
6.498950e+02,3.079254e+03
6.508592e+02,3.074251e+03
6.518234e+02,3.059201e+03
6.527877e+02,3.048166e+03
6.537519e+02,3.047375e+03
6.547161e+02,3.048880e+03
6.556804e+02,3.045881e+03
6.566446e+02,3.038383e+03
6.576088e+02,3.032116e+03
6.585731e+02,3.034575e+03
6.595373e+02,3.043741e+03
6.605015e+02,3.046852e+03
6.614658e+02,3.041332e+03
6.624300e+02,3.033753e+03
6.633942e+02,3.030433e+03
6.643585e+02,3.032915e+03
6.653227e+02,3.035507e+03
6.662869e+02,3.038181e+03
6.672512e+02,3.040091e+03
6.682154e+02,3.040837e+03
6.691796e+02,3.039983e+03
6.701439e+02,3.037805e+03
6.711081e+02,3.033952e+03
6.720723e+02,3.029169e+03
6.730366e+02,3.024946e+03
6.740008e+02,3.021837e+03
6.749650e+02,3.020125e+03
6.759293e+02,3.020543e+03
6.768935e+02,3.024767e+03
6.778577e+02,3.027532e+03
6.788220e+02,3.029875e+03
6.797862e+02,3.031564e+03
6.807504e+02,3.030134e+03
6.817147e+02,3.023516e+03
6.826789e+02,3.019836e+03
6.836431e+02,3.026143e+03
6.846074e+02,3.033751e+03
6.855716e+02,3.032250e+03
6.865358e+02,3.020663e+03
6.875001e+02,3.008165e+03
6.884643e+02,3.006559e+03
6.894285e+02,3.015837e+03
6.903928e+02,3.021296e+03
6.913570e+02,3.020006e+03
6.923212e+02,3.015703e+03
6.932855e+02,3.012809e+03
6.942497e+02,3.013646e+03
6.952139e+02,3.013868e+03
6.961782e+02,3.010900e+03
6.971424e+02,3.008254e+03
6.981066e+02,3.007994e+03
6.990709e+02,3.009416e+03
7.000351e+02,3.010625e+03
7.009993e+02,3.013027e+03
7.019636e+02,3.016169e+03
7.029278e+02,3.016943e+03
7.038920e+02,3.014487e+03
7.048563e+02,3.009949e+03
7.058205e+02,3.005848e+03
7.067847e+02,3.004349e+03
7.077490e+02,2.999712e+03
7.087132e+02,2.987326e+03
7.096774e+02,2.978304e+03
7.106417e+02,2.980385e+03
7.116059e+02,2.996398e+03
7.125701e+02,3.008110e+03
7.135344e+02,3.010176e+03
7.144986e+02,3.007313e+03
7.154628e+02,3.001642e+03
7.164271e+02,2.993675e+03
7.173913e+02,2.986416e+03
7.183555e+02,2.983588e+03
7.193198e+02,2.984209e+03
7.202840e+02,2.983968e+03
7.212482e+02,2.982698e+03
7.222125e+02,2.981320e+03
7.231767e+02,2.980119e+03
7.241409e+02,2.977654e+03
7.251052e+02,2.976964e+03
7.260694e+02,2.980193e+03
7.270336e+02,2.983186e+03
7.279979e+02,2.984171e+03
7.289621e+02,2.982851e+03
7.299263e+02,2.981283e+03
7.308906e+02,2.980169e+03
7.318548e+02,2.978766e+03
7.328190e+02,2.977132e+03
7.337833e+02,2.975117e+03
7.347475e+02,2.971534e+03
7.357117e+02,2.963712e+03
7.366760e+02,2.953003e+03
7.376402e+02,2.949949e+03
7.386044e+02,2.957371e+03
7.395687e+02,2.966268e+03
7.405329e+02,2.968398e+03
7.414971e+02,2.961540e+03
7.424614e+02,2.956457e+03
7.434256e+02,2.954694e+03
7.443898e+02,2.956188e+03
7.453541e+02,2.961690e+03
7.463183e+02,2.968907e+03
7.472825e+02,2.971634e+03
7.482468e+02,2.965307e+03
7.492110e+02,2.954597e+03
7.501752e+02,2.942737e+03
7.511395e+02,2.932222e+03
7.521037e+02,2.928134e+03
7.530679e+02,2.937410e+03
7.540322e+02,2.956504e+03
7.549964e+02,2.963266e+03
7.559606e+02,2.955776e+03
7.569249e+02,2.944593e+03
7.578891e+02,2.934565e+03
7.588533e+02,2.925642e+03
7.598176e+02,2.925133e+03
7.607818e+02,2.940745e+03
7.617460e+02,2.951988e+03
7.627103e+02,2.950917e+03
7.636745e+02,2.941485e+03
7.646387e+02,2.933499e+03
7.656030e+02,2.930463e+03
7.665672e+02,2.930347e+03
7.675314e+02,2.930427e+03
7.684957e+02,2.929292e+03
7.694599e+02,2.927880e+03
7.704241e+02,2.929153e+03
7.713884e+02,2.932577e+03
7.723526e+02,2.933945e+03
7.733168e+02,2.933849e+03
7.742811e+02,2.932569e+03
7.752453e+02,2.927669e+03
7.762095e+02,2.919393e+03
7.771738e+02,2.914795e+03
7.781380e+02,2.914620e+03
7.791022e+02,2.915068e+03
7.800665e+02,2.918763e+03
7.810307e+02,2.923191e+03
7.819949e+02,2.923909e+03
7.829592e+02,2.916531e+03
7.839234e+02,2.910606e+03
7.848876e+02,2.910658e+03
7.858519e+02,2.914343e+03
7.868161e+02,2.918895e+03
7.877803e+02,2.923828e+03
7.887446e+02,2.926962e+03
7.897088e+02,2.925270e+03
7.906730e+02,2.920254e+03
7.916373e+02,2.915064e+03
7.926015e+02,2.908769e+03
7.935657e+02,2.901147e+03
7.945300e+02,2.895461e+03
7.954942e+02,2.893470e+03
7.964584e+02,2.892304e+03
7.974227e+02,2.896849e+03
7.983869e+02,2.903297e+03
7.993511e+02,2.903130e+03
8.003154e+02,2.887606e+03
8.012796e+02,2.876458e+03
8.022438e+02,2.880036e+03
8.032081e+02,2.887458e+03
8.041723e+02,2.887320e+03
8.051365e+02,2.876262e+03
8.061008e+02,2.866902e+03
8.070650e+02,2.870835e+03
8.080292e+02,2.880982e+03
8.089935e+02,2.886844e+03
8.099577e+02,2.887555e+03
8.109219e+02,2.886454e+03
8.118862e+02,2.886529e+03
8.128504e+02,2.887708e+03
8.138146e+02,2.888272e+03
8.147789e+02,2.887824e+03
8.157431e+02,2.885897e+03
8.167073e+02,2.882443e+03
8.176716e+02,2.878436e+03
8.186358e+02,2.876372e+03
8.196000e+02,2.877277e+03
8.205643e+02,2.878792e+03
8.215285e+02,2.879334e+03
8.224927e+02,2.878589e+03
8.234570e+02,2.875944e+03
8.244212e+02,2.868456e+03
8.253854e+02,2.861660e+03
8.263497e+02,2.858495e+03
8.273139e+02,2.857715e+03
8.282781e+02,2.857450e+03
8.292424e+02,2.859630e+03
8.302066e+02,2.862255e+03
8.311708e+02,2.859958e+03
8.321351e+02,2.853829e+03
8.330993e+02,2.849565e+03
8.340635e+02,2.849699e+03
8.350278e+02,2.852803e+03
8.359920e+02,2.856168e+03
8.369562e+02,2.860438e+03
8.379205e+02,2.861918e+03
8.388847e+02,2.858441e+03
8.398489e+02,2.852132e+03
8.408132e+02,2.847957e+03
8.417774e+02,2.847713e+03
8.427416e+02,2.846069e+03
8.437059e+02,2.841213e+03
8.446701e+02,2.835491e+03
8.456343e+02,2.831778e+03
8.465986e+02,2.831637e+03
8.475628e+02,2.830411e+03
8.485270e+02,2.822627e+03
8.494913e+02,2.814945e+03
8.504555e+02,2.816546e+03
8.514197e+02,2.830168e+03
8.523840e+02,2.843674e+03
8.533482e+02,2.845296e+03
8.543124e+02,2.839395e+03
8.552767e+02,2.834264e+03
8.562409e+02,2.830936e+03
8.572051e+02,2.827786e+03
8.581694e+02,2.822998e+03
8.591336e+02,2.817335e+03
8.600978e+02,2.815961e+03
8.610621e+02,2.820255e+03
8.620263e+02,2.825987e+03
8.629905e+02,2.829664e+03
8.639548e+02,2.830286e+03
8.649190e+02,2.827860e+03
8.658832e+02,2.821557e+03
8.668475e+02,2.816056e+03
8.678117e+02,2.813163e+03
8.687759e+02,2.812335e+03
8.697402e+02,2.812915e+03
8.707044e+02,2.814747e+03
8.716686e+02,2.815080e+03
8.726329e+02,2.814285e+03
8.735971e+02,2.813258e+03
8.745613e+02,2.812499e+03
8.755256e+02,2.813345e+03
8.764898e+02,2.814986e+03
8.774540e+02,2.817979e+03
8.784183e+02,2.820069e+03
8.793825e+02,2.816469e+03
8.803467e+02,2.804127e+03
8.813110e+02,2.791014e+03
8.822752e+02,2.788450e+03
8.832394e+02,2.794548e+03
8.842037e+02,2.800956e+03
8.851679e+02,2.805063e+03
8.861321e+02,2.806954e+03
8.870964e+02,2.807075e+03
8.880606e+02,2.805151e+03
8.890248e+02,2.802792e+03
8.899891e+02,2.801429e+03
8.909533e+02,2.800206e+03
8.919175e+02,2.797480e+03
8.928818e+02,2.792619e+03
8.938460e+02,2.788869e+03
8.948102e+02,2.786493e+03
8.957745e+02,2.783527e+03
8.967387e+02,2.777927e+03
8.977029e+02,2.769313e+03
8.986672e+02,2.764619e+03
8.996314e+02,2.771388e+03
9.005956e+02,2.778186e+03
9.015599e+02,2.780121e+03
9.025241e+02,2.777377e+03
9.034883e+02,2.772273e+03
9.044526e+02,2.762244e+03
9.054168e+02,2.751985e+03
9.063810e+02,2.745994e+03
9.073453e+02,2.744685e+03
9.083095e+02,2.746361e+03
9.092737e+02,2.749692e+03
9.102380e+02,2.753638e+03
9.112022e+02,2.758753e+03
9.121664e+02,2.763707e+03
9.131307e+02,2.765538e+03
9.140949e+02,2.764239e+03
9.150591e+02,2.762408e+03
9.160234e+02,2.761155e+03
9.169876e+02,2.759063e+03
9.179518e+02,2.756978e+03
9.189161e+02,2.755416e+03
9.198803e+02,2.752379e+03
9.208445e+02,2.745717e+03
9.218088e+02,2.735439e+03
9.227730e+02,2.729511e+03
9.237372e+02,2.728138e+03
9.247015e+02,2.728775e+03
9.256657e+02,2.730046e+03
9.266299e+02,2.731731e+03
9.275942e+02,2.734684e+03
9.285584e+02,2.740508e+03
9.295226e+02,2.744429e+03
9.304869e+02,2.745359e+03
9.314511e+02,2.743879e+03
9.324153e+02,2.740389e+03
9.333796e+02,2.733166e+03
9.343438e+02,2.725747e+03
9.353080e+02,2.714793e+03
9.362723e+02,2.704290e+03
9.372365e+02,2.701664e+03
9.382007e+02,2.716656e+03
9.391650e+02,2.730195e+03
9.401292e+02,2.732292e+03
9.410934e+02,2.728404e+03
9.420577e+02,2.723818e+03
9.430219e+02,2.719592e+03
9.439861e+02,2.714575e+03
9.449504e+02,2.706704e+03
9.459146e+02,2.700281e+03
9.468788e+02,2.700280e+03
9.478431e+02,2.705368e+03
9.488073e+02,2.710478e+03
9.497715e+02,2.713946e+03
9.507358e+02,2.715764e+03
9.517000e+02,2.714772e+03
9.526642e+02,2.711945e+03
9.536285e+02,2.708494e+03
9.545927e+02,2.703995e+03
9.555569e+02,2.699367e+03
9.565212e+02,2.699587e+03
9.574854e+02,2.705820e+03
9.584496e+02,2.708225e+03
9.594139e+02,2.700630e+03
9.603781e+02,2.687114e+03
9.613423e+02,2.679872e+03
9.623066e+02,2.679818e+03
9.632708e+02,2.683041e+03
9.642350e+02,2.691295e+03
9.651993e+02,2.700566e+03
9.661635e+02,2.703883e+03
9.671277e+02,2.696916e+03
9.680920e+02,2.692184e+03
9.690562e+02,2.690818e+03
9.700204e+02,2.690234e+03
9.709847e+02,2.689970e+03
9.719489e+02,2.691514e+03
9.729131e+02,2.690028e+03
9.738774e+02,2.682732e+03
9.748416e+02,2.676587e+03
9.758058e+02,2.672780e+03
9.767701e+02,2.670725e+03
9.777343e+02,2.671244e+03
9.786985e+02,2.679953e+03
9.796628e+02,2.684551e+03
9.806270e+02,2.677625e+03
9.815912e+02,2.664892e+03
9.825555e+02,2.656313e+03
9.835197e+02,2.660153e+03
9.844839e+02,2.662969e+03
9.854482e+02,2.657140e+03
9.864124e+02,2.648844e+03
9.873766e+02,2.644402e+03
9.883409e+02,2.645858e+03
9.893051e+02,2.649138e+03
9.902693e+02,2.653552e+03
9.912336e+02,2.657676e+03
9.921978e+02,2.657867e+03
9.931620e+02,2.653663e+03
9.941263e+02,2.650066e+03
9.950905e+02,2.652633e+03
9.960547e+02,2.657138e+03
9.970190e+02,2.658154e+03
9.979832e+02,2.655795e+03
9.989474e+02,2.652393e+03
9.999117e+02,2.650684e+03
1.000876e+03,2.649235e+03
1.001840e+03,2.645356e+03
1.002804e+03,2.640005e+03
1.003769e+03,2.633472e+03
1.004733e+03,2.624578e+03
1.005697e+03,2.616568e+03
1.006661e+03,2.616218e+03
1.007626e+03,2.621960e+03
1.008590e+03,2.625399e+03
1.009554e+03,2.624329e+03
1.010518e+03,2.621913e+03
1.011482e+03,2.624047e+03
1.012447e+03,2.629454e+03
1.013411e+03,2.626089e+03
1.014375e+03,2.613962e+03
1.015339e+03,2.605655e+03
1.016304e+03,2.611092e+03
1.017268e+03,2.626589e+03
1.018232e+03,2.630584e+03
1.019196e+03,2.621077e+03
1.020161e+03,2.613062e+03
1.021125e+03,2.613728e+03
1.022089e+03,2.619877e+03
1.023053e+03,2.620290e+03
1.024018e+03,2.612150e+03
1.024982e+03,2.607782e+03
1.025946e+03,2.610366e+03
1.026910e+03,2.614168e+03
1.027875e+03,2.612741e+03
1.028839e+03,2.605174e+03
1.029803e+03,2.601464e+03
1.030767e+03,2.603487e+03
1.031731e+03,2.606565e+03
1.032696e+03,2.607192e+03
1.033660e+03,2.605083e+03
1.034624e+03,2.600606e+03
1.035588e+03,2.590958e+03
1.036552e+03,2.586010e+03
1.037517e+03,2.591794e+03
1.038481e+03,2.603816e+03
1.039445e+03,2.607548e+03
1.040409e+03,2.597048e+03
1.041374e+03,2.588384e+03
1.042338e+03,2.586078e+03
1.043302e+03,2.586851e+03
1.044266e+03,2.585678e+03
1.045231e+03,2.580098e+03
1.046195e+03,2.576315e+03
1.047159e+03,2.575620e+03
1.048123e+03,2.576655e+03
1.049088e+03,2.579277e+03
1.050052e+03,2.584823e+03
1.051016e+03,2.588072e+03
1.051980e+03,2.585623e+03
1.052945e+03,2.583804e+03
1.053909e+03,2.585143e+03
1.054873e+03,2.587231e+03
1.055837e+03,2.585563e+03
1.056802e+03,2.576997e+03
1.057766e+03,2.570092e+03
1.058730e+03,2.568052e+03
1.059694e+03,2.568419e+03
1.060658e+03,2.567616e+03
1.061623e+03,2.564902e+03
1.062587e+03,2.563209e+03
1.063551e+03,2.562697e+03
1.064515e+03,2.563714e+03
1.065479e+03,2.566942e+03
1.066444e+03,2.573177e+03
1.067408e+03,2.577079e+03
1.068372e+03,2.577762e+03
1.069336e+03,2.576014e+03
1.070301e+03,2.567706e+03
1.071265e+03,2.555451e+03
1.072229e+03,2.549316e+03
1.073193e+03,2.557854e+03
1.074158e+03,2.564350e+03
1.075122e+03,2.564245e+03
1.076086e+03,2.559927e+03
1.077050e+03,2.554379e+03
1.078015e+03,2.547772e+03
1.078979e+03,2.544760e+03
1.079943e+03,2.547433e+03
1.080907e+03,2.552271e+03
1.081872e+03,2.556365e+03
1.082836e+03,2.558765e+03
1.083800e+03,2.560690e+03
1.084764e+03,2.564757e+03
1.085729e+03,2.567375e+03
1.086693e+03,2.565597e+03
1.087657e+03,2.560578e+03
1.088621e+03,2.556079e+03
1.089585e+03,2.550996e+03
1.090550e+03,2.547579e+03
1.091514e+03,2.549309e+03
1.092478e+03,2.553481e+03
1.093442e+03,2.556981e+03
1.094406e+03,2.560187e+03
1.095371e+03,2.561156e+03
1.096335e+03,2.557904e+03
1.097299e+03,2.552629e+03
1.098263e+03,2.545301e+03
1.099228e+03,2.536055e+03
1.100192e+03,2.530293e+03
1.101156e+03,2.531773e+03
1.102120e+03,2.533392e+03
1.103085e+03,2.531935e+03
1.104049e+03,2.529141e+03
1.105013e+03,2.528594e+03
1.105977e+03,2.536176e+03
1.106942e+03,2.539502e+03
1.107906e+03,2.532647e+03
1.108870e+03,2.523548e+03
1.109834e+03,2.519537e+03
1.110799e+03,2.522586e+03
1.111763e+03,2.525094e+03
1.112727e+03,2.528432e+03
1.113691e+03,2.529766e+03
1.114656e+03,2.524856e+03
1.115620e+03,2.515092e+03
1.116584e+03,2.510930e+03
1.117548e+03,2.518067e+03
1.118512e+03,2.522756e+03
1.119477e+03,2.520692e+03
1.120441e+03,2.515063e+03
1.121405e+03,2.511046e+03
1.122369e+03,2.509758e+03
1.123334e+03,2.508733e+03
1.124298e+03,2.510778e+03
1.125262e+03,2.511479e+03
1.126226e+03,2.506533e+03
1.127191e+03,2.494882e+03
1.128155e+03,2.489029e+03
1.129119e+03,2.491116e+03
1.130083e+03,2.494959e+03
1.131047e+03,2.499294e+03
1.132012e+03,2.502875e+03
1.132976e+03,2.503478e+03
1.133940e+03,2.500769e+03
1.134904e+03,2.495290e+03
1.135869e+03,2.486595e+03
1.136833e+03,2.477243e+03
1.137797e+03,2.469604e+03
1.138761e+03,2.463906e+03
1.139726e+03,2.462690e+03
1.140690e+03,2.467773e+03
1.141654e+03,2.472414e+03
1.142618e+03,2.471744e+03
1.143583e+03,2.466958e+03
1.144547e+03,2.466786e+03
1.145511e+03,2.472613e+03
1.146475e+03,2.477802e+03
1.147439e+03,2.481079e+03
1.148404e+03,2.481716e+03
1.149368e+03,2.475799e+03
1.150332e+03,2.461820e+03
1.151296e+03,2.454303e+03
1.152261e+03,2.454352e+03
1.153225e+03,2.455639e+03
1.154189e+03,2.454752e+03
1.155153e+03,2.452804e+03
1.156118e+03,2.450442e+03
1.157082e+03,2.448413e+03
1.158046e+03,2.448769e+03
1.159010e+03,2.452301e+03
1.159974e+03,2.456285e+03
1.160939e+03,2.453681e+03
1.161903e+03,2.445272e+03
1.162867e+03,2.439510e+03
1.163831e+03,2.437979e+03
1.164796e+03,2.439259e+03
1.165760e+03,2.445675e+03
1.166724e+03,2.454081e+03
1.167688e+03,2.454194e+03
1.168653e+03,2.446496e+03
1.169617e+03,2.436694e+03
1.170581e+03,2.426807e+03
1.171545e+03,2.419312e+03
1.172510e+03,2.419385e+03
1.173474e+03,2.424536e+03
1.174438e+03,2.429055e+03
1.175402e+03,2.431102e+03
1.176366e+03,2.429613e+03
1.177331e+03,2.418784e+03
1.178295e+03,2.407196e+03
1.179259e+03,2.407520e+03
1.180223e+03,2.418324e+03
1.181188e+03,2.426513e+03
1.182152e+03,2.423297e+03
1.183116e+03,2.416450e+03
1.184080e+03,2.410477e+03
1.185045e+03,2.406057e+03
1.186009e+03,2.403392e+03
1.186973e+03,2.403600e+03
1.187937e+03,2.405005e+03
1.188901e+03,2.407230e+03
1.189866e+03,2.409521e+03
1.190830e+03,2.410986e+03
1.191794e+03,2.411040e+03
1.192758e+03,2.409893e+03
1.193723e+03,2.408429e+03
1.194687e+03,2.406828e+03
1.195651e+03,2.403396e+03
1.196615e+03,2.399408e+03
1.197580e+03,2.398207e+03
1.198544e+03,2.401492e+03
1.199508e+03,2.401491e+03
1.200472e+03,2.397780e+03
1.201437e+03,2.393030e+03
1.202401e+03,2.389978e+03
1.203365e+03,2.389696e+03
1.204329e+03,2.386980e+03
1.205293e+03,2.379259e+03
1.206258e+03,2.374778e+03
1.207222e+03,2.377570e+03
1.208186e+03,2.385058e+03
1.209150e+03,2.390489e+03
1.210115e+03,2.393130e+03
1.211079e+03,2.393927e+03
1.212043e+03,2.393469e+03
1.213007e+03,2.390445e+03
1.213972e+03,2.381241e+03
1.214936e+03,2.368583e+03
1.215900e+03,2.368013e+03
1.216864e+03,2.379032e+03
1.217828e+03,2.387338e+03
1.218793e+03,2.383237e+03
1.219757e+03,2.374012e+03
1.220721e+03,2.371586e+03
1.221685e+03,2.374288e+03
1.222650e+03,2.377025e+03
1.223614e+03,2.377744e+03
1.224578e+03,2.377013e+03
1.225542e+03,2.375873e+03
1.226507e+03,2.374822e+03
1.227471e+03,2.374348e+03
1.228435e+03,2.373525e+03
1.229399e+03,2.370722e+03
1.230364e+03,2.363265e+03
1.231328e+03,2.356973e+03
1.232292e+03,2.357981e+03
1.233256e+03,2.362379e+03
1.234220e+03,2.363211e+03
1.235185e+03,2.357685e+03
1.236149e+03,2.355439e+03
1.237113e+03,2.363227e+03
1.238077e+03,2.371135e+03
1.239042e+03,2.370972e+03
1.240006e+03,2.362782e+03
1.240970e+03,2.356450e+03
1.241934e+03,2.352060e+03
1.242899e+03,2.349341e+03
1.243863e+03,2.349612e+03
1.244827e+03,2.351249e+03
1.245791e+03,2.352120e+03
1.246755e+03,2.352579e+03
1.247720e+03,2.349836e+03
1.248684e+03,2.343550e+03
1.249648e+03,2.336629e+03
1.250612e+03,2.329147e+03
1.251577e+03,2.322955e+03
1.252541e+03,2.328829e+03
1.253505e+03,2.344383e+03
1.254469e+03,2.352207e+03
1.255434e+03,2.347252e+03
1.256398e+03,2.337782e+03
1.257362e+03,2.330360e+03
1.258326e+03,2.325017e+03
1.259291e+03,2.323647e+03
1.260255e+03,2.325376e+03
1.261219e+03,2.326666e+03
1.262183e+03,2.326869e+03
1.263147e+03,2.327018e+03
1.264112e+03,2.327855e+03
1.265076e+03,2.328635e+03
1.266040e+03,2.327666e+03
1.267004e+03,2.324157e+03
1.267969e+03,2.320925e+03
1.268933e+03,2.319353e+03
1.269897e+03,2.319861e+03
1.270861e+03,2.321217e+03
1.271826e+03,2.321732e+03
1.272790e+03,2.322379e+03
1.273754e+03,2.325812e+03
1.274718e+03,2.326222e+03
1.275682e+03,2.322573e+03
1.276647e+03,2.317573e+03
1.277611e+03,2.313841e+03
1.278575e+03,2.311236e+03
1.279539e+03,2.308104e+03
1.280504e+03,2.305344e+03
1.281468e+03,2.305143e+03
1.282432e+03,2.309116e+03
1.283396e+03,2.314703e+03
1.284361e+03,2.313940e+03
1.285325e+03,2.308368e+03
1.286289e+03,2.308070e+03
1.287253e+03,2.315772e+03
1.288218e+03,2.321204e+03
1.289182e+03,2.311009e+03
1.290146e+03,2.296237e+03
1.291110e+03,2.291377e+03
1.292074e+03,2.295079e+03
1.293039e+03,2.298036e+03
1.294003e+03,2.293421e+03
1.294967e+03,2.289339e+03
1.295931e+03,2.291995e+03
1.296896e+03,2.296651e+03
1.297860e+03,2.297257e+03
1.298824e+03,2.291183e+03
1.299788e+03,2.287739e+03
1.300753e+03,2.288168e+03
1.301717e+03,2.289347e+03
1.302681e+03,2.290196e+03
1.303645e+03,2.291019e+03
1.304609e+03,2.293108e+03
1.305574e+03,2.295991e+03
1.306538e+03,2.297226e+03
1.307502e+03,2.297748e+03
1.308466e+03,2.296506e+03
1.309431e+03,2.289683e+03
1.310395e+03,2.279871e+03
1.311359e+03,2.276298e+03
1.312323e+03,2.277048e+03
1.313288e+03,2.277429e+03
1.314252e+03,2.276627e+03
1.315216e+03,2.275778e+03
1.316180e+03,2.272468e+03
1.317145e+03,2.270725e+03
1.318109e+03,2.277556e+03
1.319073e+03,2.292148e+03
1.320037e+03,2.299994e+03
1.321001e+03,2.290412e+03
1.321966e+03,2.279155e+03
1.322930e+03,2.273322e+03
1.323894e+03,2.271384e+03
1.324858e+03,2.268714e+03
1.325823e+03,2.264155e+03
1.326787e+03,2.261245e+03
1.327751e+03,2.259621e+03
1.328715e+03,2.258766e+03
1.329680e+03,2.259032e+03
1.330644e+03,2.260116e+03
1.331608e+03,2.259112e+03
1.332572e+03,2.256238e+03
1.333536e+03,2.257679e+03
1.334501e+03,2.265243e+03
1.335465e+03,2.273054e+03
1.336429e+03,2.275196e+03
1.337393e+03,2.274801e+03
1.338358e+03,2.277875e+03
1.339322e+03,2.282835e+03
1.340286e+03,2.282056e+03
1.341250e+03,2.264945e+03
1.342215e+03,2.249383e+03
1.343179e+03,2.245588e+03
1.344143e+03,2.248189e+03
1.345107e+03,2.249876e+03
1.346072e+03,2.248510e+03
1.347036e+03,2.250030e+03
1.348000e+03,2.256684e+03
1.348964e+03,2.260454e+03
1.349928e+03,2.258262e+03
1.350893e+03,2.253113e+03
1.351857e+03,2.249865e+03
1.352821e+03,2.248032e+03
1.353785e+03,2.248957e+03
1.354750e+03,2.252551e+03
1.355714e+03,2.253583e+03
1.356678e+03,2.246268e+03
1.357642e+03,2.236633e+03
1.358607e+03,2.232504e+03
1.359571e+03,2.231837e+03
1.360535e+03,2.230858e+03
1.361499e+03,2.229071e+03
1.362464e+03,2.226012e+03
1.363428e+03,2.215887e+03
1.364392e+03,2.209941e+03
1.365356e+03,2.219389e+03
1.366320e+03,2.240987e+03
1.367285e+03,2.250484e+03
1.368249e+03,2.244105e+03
1.369213e+03,2.236379e+03
1.370177e+03,2.228829e+03
1.371142e+03,2.223137e+03
1.372106e+03,2.222737e+03
1.373070e+03,2.226586e+03
1.374034e+03,2.226747e+03
1.374999e+03,2.223906e+03
1.375963e+03,2.220454e+03
1.376927e+03,2.217166e+03
1.377891e+03,2.214098e+03
1.378855e+03,2.209939e+03
1.379820e+03,2.206200e+03
1.380784e+03,2.205635e+03
1.381748e+03,2.209191e+03
1.382712e+03,2.212631e+03
1.383677e+03,2.215727e+03
1.384641e+03,2.214631e+03
1.385605e+03,2.203036e+03
1.386569e+03,2.189465e+03
1.387534e+03,2.189145e+03
1.388498e+03,2.206408e+03
1.389462e+03,2.213413e+03
1.390426e+03,2.207732e+03
1.391391e+03,2.198649e+03
1.392355e+03,2.191898e+03
1.393319e+03,2.187224e+03
1.394283e+03,2.182806e+03
1.395247e+03,2.179124e+03
1.396212e+03,2.178425e+03
1.397176e+03,2.181374e+03
1.398140e+03,2.184785e+03
1.399104e+03,2.186049e+03
1.400069e+03,2.186929e+03
1.401033e+03,2.190002e+03
1.401997e+03,2.193594e+03
1.402961e+03,2.192926e+03
1.403926e+03,2.185231e+03
1.404890e+03,2.179045e+03
1.405854e+03,2.175501e+03
1.406818e+03,2.172989e+03
1.407782e+03,2.170068e+03
1.408747e+03,2.167986e+03
1.409711e+03,2.170959e+03
1.410675e+03,2.176150e+03
1.411639e+03,2.174843e+03
1.412604e+03,2.163960e+03
1.413568e+03,2.154726e+03
1.414532e+03,2.161498e+03
1.415496e+03,2.171072e+03
1.416461e+03,2.169685e+03
1.417425e+03,2.159105e+03
1.418389e+03,2.151150e+03
1.419353e+03,2.147810e+03
1.420318e+03,2.148466e+03
1.421282e+03,2.157667e+03
1.422246e+03,2.165110e+03
1.423210e+03,2.160211e+03
1.424174e+03,2.145873e+03
1.425139e+03,2.140291e+03
1.426103e+03,2.142117e+03
1.427067e+03,2.145540e+03
1.428031e+03,2.149240e+03
1.428996e+03,2.151605e+03
1.429960e+03,2.148946e+03
1.430924e+03,2.144861e+03
1.431888e+03,2.143854e+03
1.432853e+03,2.145419e+03
1.433817e+03,2.145088e+03
1.434781e+03,2.140898e+03
1.435745e+03,2.136853e+03
1.436709e+03,2.131048e+03
1.437674e+03,2.126895e+03
1.438638e+03,2.129822e+03
1.439602e+03,2.139181e+03
1.440566e+03,2.141081e+03
1.441531e+03,2.135911e+03
1.442495e+03,2.129519e+03
1.443459e+03,2.123106e+03
1.444423e+03,2.118731e+03
1.445388e+03,2.119996e+03
1.446352e+03,2.122496e+03
1.447316e+03,2.121733e+03
1.448280e+03,2.118960e+03
1.449245e+03,2.118593e+03
1.450209e+03,2.125524e+03
1.451173e+03,2.128723e+03
1.452137e+03,2.123749e+03
1.453101e+03,2.117196e+03
1.454066e+03,2.116739e+03
1.455030e+03,2.121318e+03
1.455994e+03,2.120822e+03
1.456958e+03,2.116070e+03
1.457923e+03,2.113063e+03
1.458887e+03,2.113793e+03
1.459851e+03,2.115110e+03
1.460815e+03,2.114920e+03
1.461780e+03,2.112944e+03
1.462744e+03,2.109301e+03
1.463708e+03,2.104882e+03
1.464672e+03,2.102397e+03
1.465636e+03,2.105683e+03
1.466601e+03,2.104836e+03
1.467565e+03,2.096680e+03
1.468529e+03,2.088712e+03
1.469493e+03,2.088075e+03
1.470458e+03,2.092533e+03
1.471422e+03,2.096140e+03
1.472386e+03,2.099134e+03
1.473350e+03,2.100635e+03
1.474315e+03,2.099464e+03
1.475279e+03,2.098124e+03
1.476243e+03,2.100645e+03
1.477207e+03,2.100726e+03
1.478172e+03,2.091507e+03
1.479136e+03,2.076347e+03
1.480100e+03,2.070086e+03
1.481064e+03,2.076418e+03
1.482028e+03,2.076399e+03
1.482993e+03,2.066404e+03
1.483957e+03,2.059392e+03
1.484921e+03,2.071931e+03
1.485885e+03,2.091979e+03
1.486850e+03,2.095788e+03
1.487814e+03,2.088130e+03
1.488778e+03,2.080560e+03
1.489742e+03,2.076704e+03
1.490707e+03,2.073270e+03
1.491671e+03,2.070781e+03
1.492635e+03,2.069129e+03
1.493599e+03,2.067584e+03
1.494563e+03,2.065526e+03
1.495528e+03,2.062198e+03
1.496492e+03,2.057377e+03
1.497456e+03,2.054442e+03
1.498420e+03,2.054418e+03
1.499385e+03,2.055539e+03
1.500349e+03,2.057397e+03
1.501313e+03,2.058963e+03
1.502277e+03,2.059296e+03
1.503242e+03,2.058082e+03
1.504206e+03,2.054048e+03
1.505170e+03,2.044222e+03
1.506134e+03,2.042097e+03
1.507099e+03,2.051613e+03
1.508063e+03,2.058722e+03
1.509027e+03,2.058062e+03
1.509991e+03,2.052385e+03
1.510955e+03,2.044761e+03
1.511920e+03,2.036330e+03
1.512884e+03,2.028835e+03
1.513848e+03,2.023941e+03
1.514812e+03,2.025231e+03
1.515777e+03,2.040119e+03
1.516741e+03,2.051362e+03
1.517705e+03,2.049886e+03
1.518669e+03,2.044550e+03
1.519634e+03,2.042979e+03
1.520598e+03,2.044534e+03
1.521562e+03,2.042255e+03
1.522526e+03,2.036022e+03
1.523490e+03,2.034004e+03
1.524455e+03,2.040155e+03
1.525419e+03,2.045124e+03
1.526383e+03,2.038322e+03
1.527347e+03,2.028332e+03
1.528312e+03,2.023756e+03
1.529276e+03,2.024306e+03
1.530240e+03,2.023088e+03
1.531204e+03,2.016881e+03
1.532169e+03,2.015400e+03
1.533133e+03,2.020578e+03
1.534097e+03,2.024968e+03
1.535061e+03,2.020763e+03
1.536026e+03,2.013599e+03
1.536990e+03,2.016210e+03
1.537954e+03,2.024198e+03
1.538918e+03,2.029189e+03
1.539882e+03,2.028989e+03
1.540847e+03,2.026758e+03
1.541811e+03,2.020131e+03
1.542775e+03,2.014492e+03
1.543739e+03,2.011977e+03
1.544704e+03,2.012261e+03
1.545668e+03,2.016146e+03
1.546632e+03,2.022306e+03
1.547596e+03,2.023145e+03
1.548561e+03,2.018754e+03
1.549525e+03,2.012803e+03
1.550489e+03,2.000536e+03
1.551453e+03,1.995356e+03
1.552417e+03,2.014042e+03
1.553382e+03,2.033128e+03
1.554346e+03,2.032740e+03
1.555310e+03,2.015826e+03
1.556274e+03,2.004594e+03
1.557239e+03,1.998779e+03
1.558203e+03,1.992910e+03
1.559167e+03,1.985614e+03
1.560131e+03,1.980211e+03
1.561096e+03,1.980588e+03
1.562060e+03,1.983724e+03
1.563024e+03,1.989383e+03
1.563988e+03,1.995143e+03
1.564953e+03,1.995161e+03
1.565917e+03,1.985454e+03
1.566881e+03,1.983625e+03
1.567845e+03,1.990466e+03
1.568809e+03,1.997508e+03
1.569774e+03,2.002006e+03
1.570738e+03,2.001389e+03
1.571702e+03,1.985920e+03
1.572666e+03,1.966677e+03
1.573631e+03,1.959266e+03
1.574595e+03,1.965956e+03
1.575559e+03,1.971611e+03
1.576523e+03,1.975964e+03
1.577488e+03,1.976717e+03
1.578452e+03,1.971446e+03
1.579416e+03,1.964964e+03
1.580380e+03,1.963195e+03
1.581344e+03,1.964320e+03
1.582309e+03,1.965530e+03
1.583273e+03,1.966924e+03
1.584237e+03,1.968546e+03
1.585201e+03,1.971696e+03
1.586166e+03,1.971482e+03
1.587130e+03,1.965016e+03
1.588094e+03,1.958578e+03
1.589058e+03,1.955343e+03
1.590023e+03,1.954415e+03
1.590987e+03,1.953621e+03
1.591951e+03,1.953707e+03
1.592915e+03,1.954601e+03
1.593880e+03,1.955476e+03
1.594844e+03,1.956991e+03
1.595808e+03,1.961673e+03
1.596772e+03,1.964536e+03
1.597736e+03,1.965699e+03
1.598701e+03,1.964740e+03
1.599665e+03,1.960412e+03
1.600629e+03,1.953366e+03
1.601593e+03,1.944932e+03
1.602558e+03,1.936238e+03
1.603522e+03,1.931133e+03
1.604486e+03,1.931090e+03
1.605450e+03,1.931615e+03
1.606415e+03,1.931568e+03
1.607379e+03,1.932410e+03
1.608343e+03,1.934458e+03
1.609307e+03,1.937081e+03
1.610271e+03,1.939965e+03
1.611236e+03,1.942501e+03
1.612200e+03,1.943253e+03
1.613164e+03,1.942627e+03
1.614128e+03,1.940677e+03
1.615093e+03,1.934682e+03
1.616057e+03,1.930210e+03
1.617021e+03,1.929777e+03
1.617985e+03,1.929656e+03
1.618950e+03,1.928364e+03
1.619914e+03,1.926131e+03
1.620878e+03,1.923400e+03
1.621842e+03,1.920457e+03
1.622807e+03,1.917286e+03
1.623771e+03,1.914240e+03
1.624735e+03,1.912043e+03
1.625699e+03,1.908786e+03
1.626663e+03,1.907936e+03
1.627628e+03,1.911613e+03
1.628592e+03,1.915537e+03
1.629556e+03,1.916304e+03
1.630520e+03,1.914833e+03
1.631485e+03,1.908968e+03
1.632449e+03,1.900109e+03
1.633413e+03,1.895101e+03
1.634377e+03,1.898595e+03
1.635342e+03,1.901699e+03
1.636306e+03,1.899656e+03
1.637270e+03,1.898560e+03
1.638234e+03,1.902075e+03
1.639198e+03,1.907237e+03
1.640163e+03,1.904810e+03
1.641127e+03,1.897690e+03
1.642091e+03,1.893665e+03
1.643055e+03,1.892857e+03
1.644020e+03,1.893219e+03
1.644984e+03,1.894911e+03
1.645948e+03,1.894850e+03
1.646912e+03,1.892499e+03
1.647877e+03,1.889530e+03
1.648841e+03,1.887790e+03
1.649805e+03,1.886656e+03
1.650769e+03,1.882206e+03
1.651734e+03,1.876254e+03
1.652698e+03,1.874684e+03
1.653662e+03,1.879277e+03
1.654626e+03,1.880847e+03
1.655590e+03,1.874842e+03
1.656555e+03,1.869821e+03
1.657519e+03,1.869275e+03
1.658483e+03,1.870535e+03
1.659447e+03,1.867055e+03
1.660412e+03,1.861763e+03
1.661376e+03,1.864288e+03
1.662340e+03,1.872282e+03
1.663304e+03,1.875617e+03
1.664269e+03,1.863324e+03
1.665233e+03,1.858985e+03
1.666197e+03,1.865425e+03
1.667161e+03,1.868541e+03
1.668125e+03,1.858950e+03
1.669090e+03,1.846864e+03
1.670054e+03,1.850436e+03
1.671018e+03,1.860045e+03
1.671982e+03,1.863283e+03
1.672947e+03,1.859138e+03
1.673911e+03,1.855331e+03
1.674875e+03,1.850609e+03
1.675839e+03,1.849514e+03
1.676804e+03,1.854153e+03
1.677768e+03,1.857589e+03
1.678732e+03,1.849464e+03
1.679696e+03,1.839892e+03
1.680661e+03,1.838333e+03
1.681625e+03,1.840613e+03
1.682589e+03,1.842063e+03
1.683553e+03,1.843147e+03
1.684517e+03,1.846119e+03
1.685482e+03,1.850531e+03
1.686446e+03,1.850950e+03
1.687410e+03,1.845326e+03
1.688374e+03,1.837621e+03
1.689339e+03,1.827687e+03
1.690303e+03,1.819747e+03
1.691267e+03,1.815767e+03
1.692231e+03,1.816014e+03
1.693196e+03,1.823486e+03
1.694160e+03,1.835523e+03
1.695124e+03,1.834611e+03
1.696088e+03,1.822815e+03
1.697052e+03,1.813296e+03
1.698017e+03,1.807656e+03
1.698981e+03,1.811143e+03
1.699945e+03,1.833535e+03
1.700909e+03,1.849431e+03
1.701874e+03,1.845192e+03
1.702838e+03,1.830653e+03
1.703802e+03,1.822013e+03
1.704766e+03,1.817682e+03
1.705731e+03,1.818289e+03
1.706695e+03,1.823621e+03
1.707659e+03,1.825638e+03
1.708623e+03,1.822159e+03
1.709588e+03,1.820228e+03
1.710552e+03,1.820093e+03
1.711516e+03,1.818840e+03
1.712480e+03,1.813691e+03
1.713444e+03,1.807063e+03
1.714409e+03,1.801739e+03
1.715373e+03,1.797829e+03
1.716337e+03,1.794768e+03
1.717301e+03,1.792941e+03
1.718266e+03,1.793551e+03
1.719230e+03,1.796043e+03
1.720194e+03,1.794583e+03
1.721158e+03,1.786573e+03
1.722123e+03,1.781312e+03
1.723087e+03,1.790609e+03
1.724051e+03,1.798462e+03
1.725015e+03,1.795669e+03
1.725979e+03,1.789058e+03
1.726944e+03,1.787903e+03
1.727908e+03,1.790567e+03
1.728872e+03,1.789955e+03
1.729836e+03,1.786145e+03
1.730801e+03,1.782547e+03
1.731765e+03,1.780932e+03
1.732729e+03,1.779220e+03
1.733693e+03,1.776455e+03
1.734658e+03,1.776410e+03
1.735622e+03,1.782373e+03
1.736586e+03,1.787159e+03
1.737550e+03,1.775812e+03
1.738515e+03,1.760592e+03
1.739479e+03,1.757219e+03
1.740443e+03,1.764944e+03
1.741407e+03,1.770916e+03
1.742371e+03,1.775406e+03
1.743336e+03,1.774222e+03
1.744300e+03,1.767084e+03
1.745264e+03,1.759278e+03
1.746228e+03,1.754393e+03
1.747193e+03,1.751636e+03
1.748157e+03,1.752608e+03
1.749121e+03,1.755156e+03
1.750085e+03,1.755375e+03
1.751050e+03,1.753534e+03
1.752014e+03,1.758416e+03
1.752978e+03,1.766275e+03
1.753942e+03,1.765128e+03
1.754906e+03,1.752504e+03
1.755871e+03,1.743682e+03
1.756835e+03,1.740590e+03
1.757799e+03,1.741446e+03
1.758763e+03,1.749006e+03
1.759728e+03,1.754554e+03
1.760692e+03,1.744961e+03
1.761656e+03,1.733349e+03
1.762620e+03,1.732804e+03
1.763585e+03,1.737473e+03
1.764549e+03,1.738123e+03
1.765513e+03,1.734047e+03
1.766477e+03,1.731809e+03
1.767442e+03,1.731724e+03
1.768406e+03,1.733498e+03
1.769370e+03,1.737750e+03
1.770334e+03,1.739939e+03
1.771298e+03,1.735585e+03
1.772263e+03,1.729816e+03
1.773227e+03,1.723974e+03
1.774191e+03,1.718974e+03
1.775155e+03,1.715909e+03
1.776120e+03,1.713920e+03
1.777084e+03,1.713341e+03
1.778048e+03,1.713006e+03
1.779012e+03,1.708620e+03
1.779977e+03,1.697427e+03
1.780941e+03,1.699393e+03
1.781905e+03,1.713326e+03
1.782869e+03,1.719850e+03
1.783833e+03,1.707251e+03
1.784798e+03,1.696608e+03
1.785762e+03,1.705747e+03
1.786726e+03,1.713996e+03
1.787690e+03,1.710939e+03
1.788655e+03,1.702577e+03
1.789619e+03,1.699654e+03
1.790583e+03,1.699518e+03
1.791547e+03,1.695866e+03
1.792512e+03,1.689344e+03
1.793476e+03,1.684921e+03
1.794440e+03,1.682707e+03
1.795404e+03,1.681391e+03
1.796369e+03,1.680363e+03
1.797333e+03,1.680283e+03
1.798297e+03,1.682258e+03
1.799261e+03,1.684704e+03
1.800225e+03,1.687551e+03
1.801190e+03,1.687772e+03
1.802154e+03,1.683080e+03
1.803118e+03,1.676003e+03
1.804082e+03,1.675337e+03
1.805047e+03,1.678398e+03
1.806011e+03,1.677059e+03
1.806975e+03,1.670898e+03
1.807939e+03,1.667598e+03
1.808904e+03,1.667452e+03
1.809868e+03,1.670844e+03
1.810832e+03,1.678606e+03
1.811796e+03,1.685256e+03
1.812760e+03,1.686841e+03
1.813725e+03,1.685086e+03
1.814689e+03,1.677424e+03
1.815653e+03,1.670914e+03
1.816617e+03,1.672052e+03
1.817582e+03,1.677633e+03
1.818546e+03,1.677529e+03
1.819510e+03,1.673059e+03
1.820474e+03,1.666689e+03
1.821439e+03,1.659211e+03
1.822403e+03,1.654062e+03
1.823367e+03,1.652029e+03
1.824331e+03,1.649829e+03
1.825296e+03,1.646475e+03
1.826260e+03,1.642461e+03
1.827224e+03,1.639142e+03
1.828188e+03,1.636971e+03
1.829152e+03,1.633178e+03
1.830117e+03,1.632118e+03
1.831081e+03,1.640036e+03
1.832045e+03,1.651599e+03
1.833009e+03,1.653848e+03
1.833974e+03,1.650000e+03
1.834938e+03,1.641309e+03
1.835902e+03,1.626365e+03
1.836866e+03,1.622331e+03
1.837831e+03,1.629896e+03
1.838795e+03,1.636924e+03
1.839759e+03,1.641658e+03
1.840723e+03,1.645365e+03
1.841688e+03,1.648516e+03
1.842652e+03,1.649312e+03
1.843616e+03,1.644937e+03
1.844580e+03,1.640560e+03
1.845544e+03,1.646170e+03
1.846509e+03,1.653807e+03
1.847473e+03,1.644781e+03
1.848437e+03,1.628259e+03
1.849401e+03,1.622165e+03
1.850366e+03,1.627278e+03
1.851330e+03,1.631184e+03
1.852294e+03,1.634122e+03
1.853258e+03,1.633018e+03
1.854223e+03,1.626602e+03
1.855187e+03,1.620804e+03
1.856151e+03,1.617529e+03
1.857115e+03,1.614763e+03
1.858079e+03,1.611781e+03
1.859044e+03,1.609493e+03
1.860008e+03,1.610870e+03
1.860972e+03,1.612953e+03
1.861936e+03,1.612666e+03
1.862901e+03,1.610854e+03
1.863865e+03,1.607859e+03
1.864829e+03,1.602911e+03
1.865793e+03,1.597760e+03
1.866758e+03,1.593475e+03
1.867722e+03,1.592279e+03
1.868686e+03,1.595387e+03
1.869650e+03,1.593984e+03
1.870615e+03,1.585214e+03
1.871579e+03,1.583260e+03
1.872543e+03,1.593407e+03
1.873507e+03,1.604263e+03
1.874471e+03,1.604236e+03
1.875436e+03,1.601229e+03
1.876400e+03,1.599126e+03
1.877364e+03,1.598116e+03
1.878328e+03,1.599692e+03
1.879293e+03,1.601374e+03
1.880257e+03,1.597219e+03
1.881221e+03,1.589119e+03
1.882185e+03,1.581152e+03
1.883150e+03,1.573846e+03
1.884114e+03,1.574489e+03
1.885078e+03,1.581323e+03
1.886042e+03,1.584871e+03
1.887006e+03,1.581996e+03
1.887971e+03,1.579005e+03
1.888935e+03,1.578596e+03
1.889899e+03,1.578694e+03
1.890863e+03,1.577783e+03
1.891828e+03,1.577398e+03
1.892792e+03,1.585440e+03
1.893756e+03,1.589412e+03
1.894720e+03,1.574360e+03
1.895685e+03,1.556757e+03
1.896649e+03,1.553177e+03
1.897613e+03,1.558814e+03
1.898577e+03,1.561634e+03
1.899542e+03,1.561930e+03
1.900506e+03,1.558821e+03
1.901470e+03,1.551356e+03
1.902434e+03,1.550535e+03
1.903398e+03,1.556026e+03
1.904363e+03,1.558059e+03
1.905327e+03,1.554016e+03
1.906291e+03,1.550995e+03
1.907255e+03,1.553269e+03
1.908220e+03,1.553781e+03
1.909184e+03,1.551332e+03
1.910148e+03,1.546699e+03
1.911112e+03,1.538599e+03
1.912077e+03,1.532350e+03
1.913041e+03,1.536067e+03
1.914005e+03,1.540675e+03
1.914969e+03,1.534430e+03
1.915933e+03,1.522213e+03
1.916898e+03,1.523219e+03
1.917862e+03,1.531580e+03
1.918826e+03,1.533459e+03
1.919790e+03,1.526839e+03
1.920755e+03,1.529679e+03
1.921719e+03,1.540428e+03
1.922683e+03,1.541982e+03
1.923647e+03,1.531145e+03
1.924612e+03,1.523635e+03
1.925576e+03,1.530487e+03
1.926540e+03,1.534913e+03
1.927504e+03,1.533530e+03
1.928469e+03,1.530010e+03
1.929433e+03,1.526263e+03
1.930397e+03,1.522717e+03
1.931361e+03,1.519395e+03
1.932325e+03,1.517131e+03
1.933290e+03,1.518294e+03
1.934254e+03,1.521560e+03
1.935218e+03,1.520569e+03
1.936182e+03,1.516161e+03
1.937147e+03,1.511504e+03
1.938111e+03,1.507459e+03
1.939075e+03,1.503426e+03
1.940039e+03,1.500406e+03
1.941004e+03,1.501003e+03
1.941968e+03,1.504380e+03
1.942932e+03,1.505602e+03
1.943896e+03,1.503265e+03
1.944860e+03,1.500865e+03
1.945825e+03,1.499358e+03
1.946789e+03,1.498784e+03
1.947753e+03,1.498441e+03
1.948717e+03,1.498648e+03
1.949682e+03,1.499801e+03
1.950646e+03,1.500660e+03
1.951610e+03,1.501200e+03
1.952574e+03,1.500016e+03
1.953539e+03,1.491182e+03
1.954503e+03,1.482861e+03
1.955467e+03,1.486038e+03
1.956431e+03,1.495488e+03
1.957396e+03,1.495446e+03
1.958360e+03,1.489640e+03
1.959324e+03,1.488366e+03
1.960288e+03,1.492317e+03
1.961252e+03,1.495415e+03
1.962217e+03,1.496700e+03
1.963181e+03,1.492907e+03
1.964145e+03,1.484252e+03
1.965109e+03,1.475862e+03
1.966074e+03,1.468695e+03
1.967038e+03,1.467709e+03
1.968002e+03,1.472908e+03
1.968966e+03,1.475082e+03
1.969931e+03,1.468902e+03
1.970895e+03,1.462165e+03
1.971859e+03,1.463771e+03
1.972823e+03,1.465486e+03
1.973787e+03,1.462564e+03
1.974752e+03,1.458259e+03
1.975716e+03,1.458388e+03
1.976680e+03,1.459379e+03
1.977644e+03,1.458767e+03
1.978609e+03,1.457271e+03
1.979573e+03,1.453208e+03
1.980537e+03,1.448241e+03
1.981501e+03,1.451630e+03
1.982466e+03,1.460217e+03
1.983430e+03,1.463115e+03
1.984394e+03,1.458471e+03
1.985358e+03,1.458113e+03
1.986323e+03,1.460736e+03
1.987287e+03,1.458723e+03
1.988251e+03,1.448054e+03
1.989215e+03,1.442758e+03
1.990179e+03,1.445832e+03
1.991144e+03,1.447654e+03
1.992108e+03,1.446328e+03
1.993072e+03,1.445363e+03
1.994036e+03,1.448100e+03
1.995001e+03,1.448406e+03
1.995965e+03,1.443673e+03
1.996929e+03,1.440152e+03
1.997893e+03,1.445615e+03
1.998858e+03,1.451189e+03
1.999822e+03,1.449426e+03
2.000786e+03,1.443027e+03
2.001750e+03,1.433399e+03
2.002714e+03,1.424575e+03
2.003679e+03,1.426067e+03
2.004643e+03,1.430792e+03
2.005607e+03,1.426270e+03
2.006571e+03,1.416400e+03
2.007536e+03,1.419351e+03
2.008500e+03,1.430377e+03
2.009464e+03,1.433032e+03
2.010428e+03,1.426659e+03
2.011393e+03,1.425409e+03
2.012357e+03,1.430830e+03
2.013321e+03,1.426772e+03
2.014285e+03,1.412237e+03
2.015250e+03,1.401162e+03
2.016214e+03,1.402120e+03
2.017178e+03,1.405565e+03
2.018142e+03,1.412039e+03
2.019106e+03,1.413150e+03
2.020071e+03,1.400453e+03
2.021035e+03,1.391098e+03
2.021999e+03,1.396785e+03
2.022963e+03,1.399606e+03
2.023928e+03,1.392211e+03
2.024892e+03,1.384103e+03
2.025856e+03,1.387016e+03
2.026820e+03,1.391852e+03
2.027785e+03,1.393096e+03
2.028749e+03,1.391646e+03
2.029713e+03,1.386767e+03
2.030677e+03,1.382891e+03
2.031641e+03,1.387693e+03
2.032606e+03,1.396181e+03
2.033570e+03,1.400961e+03
2.034534e+03,1.401424e+03
2.035498e+03,1.393440e+03
2.036463e+03,1.381014e+03
2.037427e+03,1.372638e+03
2.038391e+03,1.369604e+03
2.039355e+03,1.370611e+03
2.040320e+03,1.374552e+03
2.041284e+03,1.375092e+03
2.042248e+03,1.370271e+03
2.043212e+03,1.368527e+03
2.044177e+03,1.370970e+03
2.045141e+03,1.374933e+03
2.046105e+03,1.379605e+03
2.047069e+03,1.381656e+03
2.048033e+03,1.377520e+03
2.048998e+03,1.371818e+03
2.049962e+03,1.365229e+03
2.050926e+03,1.359288e+03
2.051890e+03,1.353982e+03
2.052854e+03,1.351261e+03
2.053819e+03,1.351498e+03
2.054783e+03,1.352098e+03
2.055747e+03,1.353432e+03
2.056711e+03,1.354076e+03
2.057676e+03,1.350411e+03
2.058640e+03,1.348060e+03
2.059604e+03,1.349325e+03
2.060568e+03,1.351394e+03
2.061533e+03,1.350429e+03
2.062497e+03,1.349492e+03
2.063461e+03,1.353646e+03
2.064425e+03,1.357755e+03
2.065390e+03,1.352637e+03
2.066354e+03,1.343236e+03
2.067318e+03,1.339283e+03
2.068282e+03,1.339174e+03
2.069247e+03,1.337941e+03
2.070211e+03,1.335306e+03
2.071175e+03,1.331373e+03
2.072139e+03,1.327345e+03
2.073104e+03,1.325945e+03
2.074068e+03,1.327405e+03
2.075032e+03,1.330019e+03
2.075996e+03,1.332581e+03
2.076960e+03,1.330870e+03
2.077925e+03,1.324127e+03
2.078889e+03,1.324118e+03
2.079853e+03,1.331673e+03
2.080817e+03,1.337281e+03
2.081782e+03,1.339405e+03
2.082746e+03,1.334429e+03
2.083710e+03,1.314893e+03
2.084674e+03,1.309300e+03
2.085639e+03,1.319897e+03
2.086603e+03,1.333125e+03
2.087567e+03,1.345690e+03
2.088531e+03,1.344047e+03
2.089496e+03,1.323663e+03
2.090460e+03,1.306623e+03
2.091424e+03,1.305637e+03
2.092388e+03,1.309529e+03
2.093353e+03,1.313640e+03
2.094317e+03,1.315984e+03
2.095281e+03,1.314289e+03
2.096245e+03,1.311028e+03
2.097209e+03,1.307917e+03
2.098174e+03,1.305858e+03
2.099138e+03,1.306252e+03
2.100102e+03,1.306470e+03
2.101066e+03,1.302930e+03
2.102031e+03,1.298327e+03
2.102995e+03,1.294719e+03
2.103959e+03,1.291741e+03
2.104923e+03,1.287508e+03
2.105887e+03,1.286373e+03
2.106852e+03,1.298341e+03
2.107816e+03,1.310375e+03
2.108780e+03,1.309664e+03
2.109744e+03,1.300585e+03
2.110708e+03,1.292750e+03
2.111673e+03,1.286860e+03
2.112637e+03,1.282091e+03
2.113601e+03,1.278187e+03
2.114565e+03,1.278625e+03
2.115530e+03,1.280756e+03
2.116494e+03,1.276812e+03
2.117458e+03,1.270921e+03
2.118422e+03,1.272904e+03
2.119387e+03,1.280519e+03
2.120351e+03,1.290211e+03
2.121315e+03,1.298809e+03
2.122279e+03,1.298947e+03
2.123244e+03,1.290500e+03
2.124208e+03,1.279506e+03
2.125172e+03,1.268173e+03
2.126136e+03,1.263324e+03
2.127101e+03,1.267476e+03
2.128065e+03,1.268171e+03
2.129029e+03,1.265434e+03
2.129993e+03,1.260688e+03
2.130958e+03,1.253001e+03
2.131922e+03,1.250470e+03
2.132886e+03,1.254287e+03
2.133850e+03,1.258380e+03
2.134814e+03,1.262944e+03
2.135779e+03,1.263462e+03
2.136743e+03,1.254489e+03
2.137707e+03,1.252429e+03
2.138671e+03,1.258008e+03
2.139636e+03,1.260252e+03
2.140600e+03,1.249607e+03
2.141564e+03,1.245149e+03
2.142528e+03,1.248621e+03
2.143493e+03,1.251338e+03
2.144457e+03,1.249574e+03
2.145421e+03,1.244287e+03
2.146385e+03,1.234712e+03
2.147350e+03,1.229009e+03
2.148314e+03,1.230291e+03
2.149278e+03,1.234514e+03
2.150242e+03,1.240823e+03
2.151207e+03,1.241961e+03
2.152171e+03,1.235578e+03
2.153135e+03,1.230693e+03
2.154099e+03,1.241888e+03
2.155063e+03,1.245662e+03
2.156028e+03,1.235594e+03
2.156992e+03,1.227136e+03
2.157956e+03,1.232115e+03
2.158920e+03,1.236413e+03
2.159885e+03,1.233346e+03
2.160849e+03,1.228838e+03
2.161813e+03,1.225187e+03
2.162777e+03,1.221947e+03
2.163741e+03,1.219959e+03
2.164706e+03,1.216835e+03
2.165670e+03,1.212114e+03
2.166634e+03,1.209925e+03
2.167598e+03,1.215613e+03
2.168563e+03,1.222067e+03
2.169527e+03,1.225891e+03
2.170491e+03,1.225457e+03
2.171455e+03,1.217424e+03
2.172420e+03,1.209692e+03
2.173384e+03,1.207350e+03
2.174348e+03,1.208125e+03
2.175312e+03,1.212014e+03
2.176277e+03,1.214846e+03
2.177241e+03,1.211715e+03
2.178205e+03,1.207021e+03
2.179169e+03,1.203920e+03
2.180134e+03,1.202335e+03
2.181098e+03,1.200832e+03
2.182062e+03,1.200698e+03
2.183026e+03,1.202150e+03
2.183990e+03,1.203494e+03
2.184955e+03,1.204473e+03
2.185919e+03,1.201541e+03
2.186883e+03,1.188631e+03
2.187847e+03,1.175090e+03
2.188812e+03,1.173906e+03
2.189776e+03,1.178514e+03
2.190740e+03,1.184436e+03
2.191704e+03,1.188101e+03
2.192668e+03,1.185067e+03
2.193633e+03,1.180207e+03
2.194597e+03,1.182035e+03
2.195561e+03,1.183523e+03
2.196525e+03,1.175543e+03
2.197490e+03,1.166329e+03
2.198454e+03,1.174151e+03
2.199418e+03,1.185094e+03
2.200382e+03,1.187169e+03
2.201347e+03,1.184209e+03
2.202311e+03,1.178415e+03
2.203275e+03,1.173367e+03
2.204239e+03,1.172580e+03
2.205204e+03,1.172900e+03
2.206168e+03,1.173209e+03
2.207132e+03,1.172780e+03
2.208096e+03,1.168166e+03
2.209061e+03,1.162275e+03
2.210025e+03,1.159741e+03
2.210989e+03,1.158393e+03
2.211953e+03,1.153855e+03
2.212917e+03,1.152121e+03
2.213882e+03,1.156351e+03
2.214846e+03,1.162611e+03
2.215810e+03,1.166969e+03
2.216774e+03,1.167464e+03
2.217739e+03,1.164755e+03
2.218703e+03,1.160643e+03
2.219667e+03,1.156922e+03
2.220631e+03,1.153645e+03
2.221595e+03,1.149714e+03
2.222560e+03,1.146532e+03
2.223524e+03,1.147484e+03
2.224488e+03,1.149613e+03
2.225452e+03,1.151941e+03
2.226417e+03,1.151882e+03
2.227381e+03,1.142201e+03
2.228345e+03,1.132593e+03
2.229309e+03,1.137319e+03
2.230274e+03,1.145214e+03
2.231238e+03,1.147605e+03
2.232202e+03,1.146295e+03
2.233166e+03,1.145272e+03
2.234131e+03,1.142181e+03
2.235095e+03,1.133973e+03
2.236059e+03,1.125081e+03
2.237023e+03,1.120636e+03
2.237988e+03,1.120333e+03
2.238952e+03,1.123948e+03
2.239916e+03,1.128011e+03
2.240880e+03,1.129254e+03
2.241844e+03,1.129891e+03
2.242809e+03,1.131488e+03
2.243773e+03,1.133028e+03
2.244737e+03,1.133100e+03
2.245701e+03,1.131553e+03
2.246666e+03,1.127037e+03
2.247630e+03,1.122391e+03
2.248594e+03,1.120356e+03
2.249558e+03,1.120943e+03
2.250522e+03,1.126219e+03
2.251487e+03,1.129505e+03
2.252451e+03,1.125160e+03
2.253415e+03,1.119219e+03
2.254379e+03,1.120954e+03
2.255344e+03,1.122484e+03
2.256308e+03,1.121177e+03
2.257272e+03,1.117872e+03
2.258236e+03,1.110184e+03
2.259201e+03,1.106059e+03
2.260165e+03,1.107863e+03
2.261129e+03,1.110550e+03
2.262093e+03,1.110037e+03
2.263058e+03,1.108336e+03
2.264022e+03,1.107312e+03
2.264986e+03,1.105396e+03
2.265950e+03,1.099066e+03
2.266915e+03,1.093603e+03
2.267879e+03,1.089156e+03
2.268843e+03,1.088067e+03
2.269807e+03,1.095332e+03
2.270771e+03,1.097260e+03
2.271736e+03,1.086749e+03
2.272700e+03,1.081051e+03
2.273664e+03,1.084319e+03
2.274628e+03,1.086707e+03
2.275593e+03,1.083396e+03
2.276557e+03,1.078197e+03
2.277521e+03,1.072374e+03
2.278485e+03,1.070363e+03
2.279449e+03,1.075775e+03
2.280414e+03,1.082058e+03
2.281378e+03,1.088525e+03
2.282342e+03,1.092299e+03
2.283306e+03,1.088873e+03
2.284271e+03,1.086802e+03
2.285235e+03,1.085668e+03
2.286199e+03,1.083011e+03
2.287163e+03,1.078758e+03
2.288128e+03,1.077530e+03
2.289092e+03,1.078132e+03
2.290056e+03,1.078323e+03
2.291020e+03,1.077881e+03
2.291985e+03,1.075302e+03
2.292949e+03,1.072094e+03
2.293913e+03,1.075326e+03
2.294877e+03,1.083960e+03
2.295842e+03,1.084760e+03
2.296806e+03,1.077828e+03
2.297770e+03,1.070497e+03
2.298734e+03,1.064799e+03
2.299698e+03,1.067653e+03
2.300663e+03,1.077185e+03
2.301627e+03,1.076962e+03
2.302591e+03,1.068467e+03
2.303555e+03,1.054930e+03
2.304520e+03,1.039980e+03
2.305484e+03,1.038386e+03
2.306448e+03,1.044721e+03
2.307412e+03,1.050724e+03
2.308376e+03,1.053991e+03
2.309341e+03,1.047143e+03
2.310305e+03,1.037801e+03
2.311269e+03,1.036724e+03
2.312233e+03,1.041509e+03
2.313198e+03,1.052234e+03
2.314162e+03,1.059902e+03
2.315126e+03,1.051776e+03
2.316090e+03,1.039941e+03
2.317055e+03,1.036227e+03
2.318019e+03,1.037437e+03
2.318983e+03,1.042357e+03
2.319947e+03,1.046420e+03
2.320912e+03,1.047939e+03
2.321876e+03,1.046793e+03
2.322840e+03,1.038872e+03
2.323804e+03,1.035318e+03
2.324769e+03,1.044600e+03
2.325733e+03,1.051628e+03
2.326697e+03,1.041828e+03
2.327661e+03,1.033734e+03
2.328625e+03,1.031803e+03
2.329590e+03,1.030105e+03
2.330554e+03,1.025467e+03
2.331518e+03,1.023930e+03
2.332482e+03,1.026458e+03
2.333447e+03,1.027258e+03
2.334411e+03,1.020438e+03
2.335375e+03,1.022031e+03
2.336339e+03,1.032242e+03
2.337303e+03,1.035239e+03
2.338268e+03,1.019435e+03
2.339232e+03,1.011191e+03
2.340196e+03,1.010428e+03
2.341160e+03,1.015008e+03
2.342125e+03,1.025241e+03
2.343089e+03,1.029795e+03
2.344053e+03,1.027866e+03
2.345017e+03,1.019200e+03
2.345982e+03,1.006428e+03
2.346946e+03,1.008535e+03
2.347910e+03,1.019479e+03
2.348874e+03,1.020603e+03
2.349839e+03,1.012724e+03
2.350803e+03,1.003494e+03
2.351767e+03,9.958801e+02
2.352731e+03,9.975744e+02
2.353696e+03,1.003358e+03
2.354660e+03,1.004282e+03
2.355624e+03,1.001725e+03
2.356588e+03,9.973512e+02
2.357552e+03,9.935219e+02
2.358517e+03,9.917371e+02
2.359481e+03,9.921066e+02
2.360445e+03,9.962435e+02
2.361409e+03,9.994230e+02
2.362374e+03,9.993060e+02
2.363338e+03,9.973907e+02
2.364302e+03,9.966345e+02
2.365266e+03,9.946949e+02
2.366230e+03,9.893900e+02
2.367195e+03,9.862215e+02
2.368159e+03,9.914178e+02
2.369123e+03,9.914542e+02
2.370087e+03,9.851119e+02
2.371052e+03,9.829542e+02
2.372016e+03,9.933966e+02
2.372980e+03,9.964911e+02
2.373944e+03,9.916605e+02
2.374909e+03,9.904954e+02
2.375873e+03,9.989451e+02
2.376837e+03,9.996654e+02
2.377801e+03,9.938079e+02
2.378766e+03,9.831678e+02
2.379730e+03,9.691863e+02
2.380694e+03,9.687697e+02
2.381658e+03,9.773587e+02
2.382623e+03,9.818532e+02
2.383587e+03,9.823660e+02
2.384551e+03,9.817516e+02
2.385515e+03,9.807712e+02
2.386479e+03,9.846005e+02
2.387444e+03,9.872621e+02
2.388408e+03,9.750294e+02
2.389372e+03,9.618976e+02
2.390336e+03,9.629022e+02
2.391301e+03,9.677521e+02
2.392265e+03,9.675872e+02
2.393229e+03,9.657460e+02
2.394193e+03,9.644096e+02
2.395157e+03,9.627964e+02
2.396122e+03,9.599483e+02
2.397086e+03,9.585698e+02
2.398050e+03,9.598663e+02
2.399014e+03,9.624347e+02
2.399979e+03,9.663163e+02
2.400943e+03,9.670703e+02
2.401907e+03,9.636068e+02
2.402871e+03,9.640646e+02
2.403836e+03,9.705975e+02
2.404800e+03,9.709197e+02
2.405764e+03,9.644952e+02
2.406728e+03,9.594252e+02
2.407693e+03,9.560853e+02
2.408657e+03,9.537825e+02
2.409621e+03,9.529044e+02
2.410585e+03,9.537267e+02
2.411550e+03,9.554852e+02
2.412514e+03,9.566872e+02
2.413478e+03,9.563246e+02
2.414442e+03,9.502897e+02
2.415406e+03,9.431004e+02
2.416371e+03,9.394387e+02
2.417335e+03,9.377760e+02
2.418299e+03,9.348319e+02
2.419263e+03,9.348240e+02
2.420228e+03,9.409622e+02
2.421192e+03,9.463799e+02
2.422156e+03,9.438718e+02
2.423120e+03,9.410887e+02
2.424084e+03,9.388260e+02
2.425049e+03,9.367245e+02
2.426013e+03,9.367513e+02
2.426977e+03,9.330975e+02
2.427941e+03,9.262233e+02
2.428906e+03,9.245592e+02
2.429870e+03,9.307305e+02
2.430834e+03,9.322043e+02
2.431798e+03,9.296163e+02
2.432763e+03,9.258852e+02
2.433727e+03,9.215215e+02
2.434691e+03,9.222116e+02
2.435655e+03,9.252662e+02
2.436620e+03,9.252595e+02
2.437584e+03,9.232347e+02
2.438548e+03,9.214905e+02
2.439512e+03,9.211278e+02
2.440477e+03,9.228332e+02
2.441441e+03,9.247874e+02
2.442405e+03,9.279255e+02
2.443369e+03,9.275190e+02
2.444333e+03,9.218348e+02
2.445298e+03,9.149470e+02
2.446262e+03,9.072657e+02
2.447226e+03,9.047635e+02
2.448190e+03,9.088538e+02
2.449155e+03,9.140222e+02
2.450119e+03,9.187311e+02
2.451083e+03,9.226483e+02
2.452047e+03,9.252814e+02
2.453011e+03,9.244982e+02
2.453976e+03,9.200717e+02
2.454940e+03,9.147820e+02
2.455904e+03,9.100256e+02
2.456868e+03,9.082596e+02
2.457833e+03,9.080578e+02
2.458797e+03,9.085520e+02
2.459761e+03,9.073203e+02
2.460725e+03,8.981947e+02
2.461690e+03,8.882812e+02
2.462654e+03,8.895984e+02
2.463618e+03,8.929482e+02
2.464582e+03,8.928489e+02
2.465547e+03,8.927820e+02
2.466511e+03,8.950173e+02
2.467475e+03,8.962965e+02
2.468439e+03,8.958748e+02
2.469404e+03,8.944098e+02
2.470368e+03,8.923629e+02
2.471332e+03,8.914665e+02
2.472296e+03,8.914576e+02
2.473260e+03,8.968605e+02
2.474225e+03,9.096012e+02
2.475189e+03,9.085563e+02
2.476153e+03,8.987645e+02
2.477117e+03,8.924645e+02
2.478082e+03,8.895715e+02
2.479046e+03,8.871710e+02
2.480010e+03,8.868936e+02
2.480974e+03,8.941712e+02
2.481938e+03,9.001917e+02
2.482903e+03,8.870201e+02
2.483867e+03,8.774775e+02
2.484831e+03,8.839635e+02
2.485795e+03,8.930663e+02
2.486760e+03,8.969807e+02
2.487724e+03,8.972079e+02
2.488688e+03,8.946865e+02
2.489652e+03,8.894919e+02
2.490617e+03,8.782361e+02
2.491581e+03,8.702834e+02
2.492545e+03,8.663358e+02
2.493509e+03,8.695281e+02
2.494474e+03,8.784746e+02
2.495438e+03,8.785997e+02
2.496402e+03,8.741378e+02
2.497366e+03,8.749915e+02
2.498331e+03,8.785512e+02
2.499295e+03,8.800731e+02
2.500259e+03,8.796644e+02
2.501223e+03,8.784092e+02
2.502188e+03,8.772325e+02
2.503152e+03,8.765642e+02
2.504116e+03,8.768688e+02
2.505080e+03,8.784269e+02
2.506044e+03,8.790727e+02
2.507009e+03,8.768581e+02
2.507973e+03,8.723601e+02
2.508937e+03,8.662743e+02
2.509901e+03,8.596069e+02
2.510865e+03,8.518448e+02
2.511830e+03,8.572350e+02
2.512794e+03,8.692392e+02
2.513758e+03,8.696842e+02
2.514722e+03,8.636472e+02
2.515687e+03,8.661165e+02
2.516651e+03,8.693118e+02
2.517615e+03,8.644547e+02
2.518579e+03,8.577242e+02
2.519544e+03,8.570391e+02
2.520508e+03,8.575593e+02
2.521472e+03,8.580189e+02
2.522436e+03,8.560675e+02
2.523401e+03,8.448687e+02
2.524365e+03,8.445912e+02
2.525329e+03,8.551110e+02
2.526293e+03,8.618096e+02
2.527258e+03,8.622238e+02
2.528222e+03,8.553712e+02
2.529186e+03,8.451965e+02
2.530150e+03,8.444239e+02
2.531115e+03,8.503912e+02
2.532079e+03,8.544202e+02
2.533043e+03,8.542579e+02
2.534007e+03,8.466429e+02
2.534971e+03,8.382408e+02
2.535936e+03,8.409989e+02
2.536900e+03,8.426635e+02
2.537864e+03,8.382576e+02
2.538828e+03,8.362570e+02
2.539792e+03,8.397725e+02
2.540757e+03,8.476150e+02
2.541721e+03,8.588427e+02
2.542685e+03,8.550593e+02
2.543649e+03,8.377410e+02
2.544614e+03,8.359647e+02
2.545578e+03,8.448111e+02
2.546542e+03,8.469642e+02
2.547506e+03,8.443163e+02
2.548471e+03,8.388398e+02
2.549435e+03,8.345738e+02
2.550399e+03,8.360991e+02
2.551363e+03,8.383867e+02
2.552328e+03,8.379843e+02
2.553292e+03,8.369479e+02
2.554256e+03,8.357908e+02
2.555220e+03,8.344831e+02
2.556185e+03,8.327665e+02
2.557149e+03,8.343715e+02
2.558113e+03,8.392535e+02
2.559077e+03,8.375460e+02
2.560042e+03,8.307266e+02
2.561006e+03,8.253178e+02
2.561970e+03,8.241777e+02
2.562934e+03,8.321536e+02
2.563898e+03,8.403580e+02
2.564863e+03,8.362569e+02
2.565827e+03,8.301644e+02
2.566791e+03,8.319427e+02
2.567755e+03,8.334552e+02
2.568719e+03,8.315837e+02
2.569684e+03,8.279911e+02
2.570648e+03,8.227809e+02
2.571612e+03,8.192300e+02
2.572576e+03,8.185827e+02
2.573541e+03,8.252269e+02
2.574505e+03,8.354916e+02
2.575469e+03,8.332719e+02
2.576433e+03,8.235209e+02
2.577398e+03,8.129775e+02
2.578362e+03,8.050349e+02
2.579326e+03,8.057291e+02
2.580290e+03,8.086863e+02
2.581255e+03,8.107535e+02
2.582219e+03,8.107787e+02
2.583183e+03,8.037537e+02
2.584147e+03,8.083786e+02
2.585112e+03,8.248386e+02
2.586076e+03,8.263597e+02
2.587040e+03,8.091607e+02
2.588004e+03,8.093509e+02
2.588969e+03,8.177785e+02
2.589933e+03,8.155635e+02
2.590897e+03,8.076006e+02
2.591861e+03,8.026426e+02
2.592825e+03,8.001151e+02
2.593790e+03,7.989025e+02
2.594754e+03,8.004590e+02
2.595718e+03,8.092372e+02
2.596682e+03,8.071609e+02
2.597646e+03,7.892607e+02
2.598611e+03,7.849824e+02
2.599575e+03,7.961910e+02
2.600539e+03,8.020131e+02
2.601503e+03,8.009363e+02
2.602468e+03,7.992990e+02
2.603432e+03,7.966409e+02
2.604396e+03,7.924283e+02
2.605360e+03,7.883121e+02
2.606325e+03,7.835543e+02
2.607289e+03,7.814646e+02
2.608253e+03,7.835493e+02
2.609217e+03,7.877781e+02
2.610182e+03,7.936335e+02
2.611146e+03,7.952296e+02
2.612110e+03,7.930476e+02
2.613074e+03,7.891006e+02
2.614039e+03,7.848705e+02
2.615003e+03,7.831346e+02
2.615967e+03,7.845117e+02
2.616931e+03,7.951094e+02
2.617896e+03,8.029518e+02
2.618860e+03,7.821700e+02
2.619824e+03,7.707187e+02
2.620788e+03,7.828315e+02
2.621752e+03,7.945360e+02
2.622717e+03,7.932917e+02
2.623681e+03,7.877264e+02
2.624645e+03,7.794025e+02
2.625609e+03,7.798693e+02
2.626573e+03,7.875226e+02
2.627538e+03,7.897599e+02
2.628502e+03,7.867917e+02
2.629466e+03,7.770258e+02
2.630430e+03,7.678127e+02
2.631395e+03,7.691165e+02
2.632359e+03,7.761534e+02
2.633323e+03,7.913014e+02
2.634287e+03,7.932747e+02
2.635252e+03,7.787059e+02
2.636216e+03,7.750855e+02
2.637180e+03,7.859500e+02
2.638144e+03,7.873639e+02
2.639109e+03,7.808926e+02
2.640073e+03,7.680486e+02
2.641037e+03,7.581611e+02
2.642001e+03,7.657692e+02
2.642966e+03,7.753243e+02
2.643930e+03,7.781994e+02
2.644894e+03,7.770433e+02
2.645858e+03,7.692100e+02
2.646823e+03,7.692648e+02
2.647787e+03,7.757913e+02
2.648751e+03,7.716752e+02
2.649715e+03,7.564857e+02
2.650679e+03,7.546212e+02
2.651644e+03,7.603846e+02
2.652608e+03,7.656232e+02
2.653572e+03,7.674320e+02
2.654536e+03,7.568324e+02
2.655500e+03,7.514201e+02
2.656465e+03,7.588944e+02
2.657429e+03,7.632842e+02
2.658393e+03,7.587485e+02
2.659357e+03,7.511472e+02
2.660322e+03,7.441699e+02
2.661286e+03,7.511823e+02
2.662250e+03,7.651082e+02
2.663214e+03,7.635916e+02
2.664179e+03,7.573188e+02
2.665143e+03,7.616003e+02
2.666107e+03,7.642523e+02
2.667071e+03,7.583856e+02
2.668036e+03,7.546279e+02
2.669000e+03,7.595059e+02
2.669964e+03,7.608360e+02
2.670928e+03,7.585522e+02
2.671893e+03,7.564619e+02
2.672857e+03,7.552253e+02
2.673821e+03,7.531686e+02
2.674785e+03,7.505078e+02
2.675750e+03,7.484810e+02
2.676714e+03,7.459540e+02
2.677678e+03,7.383358e+02
2.678642e+03,7.355213e+02
2.679606e+03,7.399808e+02
2.680571e+03,7.457057e+02
2.681535e+03,7.509520e+02
2.682499e+03,7.554167e+02
2.683463e+03,7.565115e+02
2.684427e+03,7.474423e+02
2.685392e+03,7.361686e+02
2.686356e+03,7.373329e+02
2.687320e+03,7.412463e+02
2.688284e+03,7.449122e+02
2.689249e+03,7.423347e+02
2.690213e+03,7.324583e+02
2.691177e+03,7.327289e+02
2.692141e+03,7.513801e+02
2.693106e+03,7.500900e+02
2.694070e+03,7.371063e+02
2.695034e+03,7.304942e+02
2.695998e+03,7.300881e+02
2.696963e+03,7.403182e+02
2.697927e+03,7.473594e+02
2.698891e+03,7.437961e+02
2.699855e+03,7.363454e+02
2.700820e+03,7.273206e+02
2.701784e+03,7.265448e+02
2.702748e+03,7.330448e+02
2.703712e+03,7.335420e+02
2.704677e+03,7.301254e+02
2.705641e+03,7.342458e+02
2.706605e+03,7.396980e+02
2.707569e+03,7.357558e+02
2.708533e+03,7.328057e+02
2.709498e+03,7.354421e+02
2.710462e+03,7.382047e+02
2.711426e+03,7.402143e+02
2.712390e+03,7.390964e+02
2.713354e+03,7.354023e+02
2.714319e+03,7.311424e+02
2.715283e+03,7.270176e+02
2.716247e+03,7.241050e+02
2.717211e+03,7.233107e+02
2.718176e+03,7.254398e+02
2.719140e+03,7.269473e+02
2.720104e+03,7.249901e+02
2.721068e+03,7.221023e+02
2.722033e+03,7.188689e+02
2.722997e+03,7.180227e+02
2.723961e+03,7.187149e+02
2.724925e+03,7.197263e+02
2.725890e+03,7.196719e+02
2.726854e+03,7.139136e+02
2.727818e+03,7.112531e+02
2.728782e+03,7.166829e+02
2.729747e+03,7.164638e+02
2.730711e+03,6.974205e+02
2.731675e+03,6.948555e+02
2.732639e+03,7.058560e+02
2.733604e+03,7.143779e+02
2.734568e+03,7.190890e+02
2.735532e+03,7.198030e+02
2.736496e+03,7.167025e+02
2.737460e+03,7.102282e+02
2.738425e+03,7.046514e+02
2.739389e+03,7.014128e+02
2.740353e+03,7.050779e+02
2.741317e+03,7.161934e+02
2.742281e+03,7.233155e+02
2.743246e+03,7.253266e+02
2.744210e+03,7.127173e+02
2.745174e+03,6.985626e+02
2.746138e+03,7.061823e+02
2.747103e+03,7.096429e+02
2.748067e+03,6.986922e+02
2.749031e+03,6.910197e+02
2.749995e+03,6.952031e+02
2.750960e+03,7.078586e+02
2.751924e+03,7.216452e+02
2.752888e+03,7.087213e+02
2.753852e+03,6.857302e+02
2.754817e+03,6.937866e+02
2.755781e+03,7.058480e+02
2.756745e+03,7.066454e+02
2.757709e+03,7.044007e+02
2.758674e+03,7.012278e+02
2.759638e+03,7.060123e+02
2.760602e+03,7.183309e+02
2.761566e+03,7.139279e+02
2.762531e+03,7.012314e+02
2.763495e+03,6.915266e+02
2.764459e+03,6.856220e+02
2.765423e+03,6.868682e+02
2.766387e+03,6.904901e+02
2.767352e+03,6.955895e+02
2.768316e+03,6.950988e+02
2.769280e+03,6.878633e+02
2.770244e+03,6.856130e+02
2.771208e+03,6.874277e+02
2.772173e+03,6.911277e+02
2.773137e+03,6.908440e+02
2.774101e+03,6.761270e+02
2.775065e+03,6.718986e+02
2.776030e+03,6.921695e+02
2.776994e+03,7.005968e+02
2.777958e+03,6.957225e+02
2.778922e+03,6.902464e+02
2.779887e+03,6.855566e+02
2.780851e+03,6.770096e+02
2.781815e+03,6.741982e+02
2.782779e+03,6.849869e+02
2.783744e+03,6.908297e+02
2.784708e+03,6.757194e+02
2.785672e+03,6.720147e+02
2.786636e+03,6.801459e+02
2.787601e+03,6.783298e+02
2.788565e+03,6.726794e+02
2.789529e+03,6.850986e+02
2.790493e+03,6.993351e+02
2.791458e+03,7.044238e+02
2.792422e+03,6.938709e+02
2.793386e+03,6.694307e+02
2.794350e+03,6.643685e+02
2.795314e+03,6.862207e+02
2.796279e+03,7.004898e+02
2.797243e+03,7.071477e+02
2.798207e+03,7.097952e+02
2.799171e+03,7.075256e+02
2.800135e+03,6.947416e+02
2.801100e+03,6.793854e+02
2.802064e+03,6.630074e+02
2.803028e+03,6.630082e+02
2.803992e+03,6.748685e+02
2.804957e+03,6.741163e+02
2.805921e+03,6.663871e+02
2.806885e+03,6.616106e+02
2.807849e+03,6.595237e+02
2.808814e+03,6.592287e+02
2.809778e+03,6.624337e+02
2.810742e+03,6.725856e+02
2.811706e+03,6.727697e+02
2.812671e+03,6.645627e+02
2.813635e+03,6.557382e+02
2.814599e+03,6.506224e+02
2.815563e+03,6.623250e+02
2.816528e+03,6.743860e+02
2.817492e+03,6.806458e+02
2.818456e+03,6.786324e+02
2.819420e+03,6.694916e+02
2.820385e+03,6.618835e+02
2.821349e+03,6.582301e+02
2.822313e+03,6.638167e+02
2.823277e+03,6.683820e+02
2.824241e+03,6.633047e+02
2.825206e+03,6.570233e+02
2.826170e+03,6.543103e+02
2.827134e+03,6.579199e+02
2.828098e+03,6.665449e+02
2.829063e+03,6.706876e+02
2.830027e+03,6.715204e+02
2.830991e+03,6.726727e+02
2.831955e+03,6.737952e+02
2.832919e+03,6.733777e+02
2.833884e+03,6.691921e+02
2.834848e+03,6.615405e+02
2.835812e+03,6.608510e+02
2.836776e+03,6.665978e+02
2.837741e+03,6.647648e+02
2.838705e+03,6.609363e+02
2.839669e+03,6.608693e+02
2.840633e+03,6.632408e+02
2.841598e+03,6.678661e+02
2.842562e+03,6.677266e+02
2.843526e+03,6.616603e+02
2.844490e+03,6.654625e+02
2.845455e+03,6.714794e+02
2.846419e+03,6.653854e+02
2.847383e+03,6.584167e+02
2.848347e+03,6.646146e+02
2.849312e+03,6.704133e+02
2.850276e+03,6.731205e+02
2.851240e+03,6.709387e+02
2.852204e+03,6.649968e+02
2.853168e+03,6.606730e+02
2.854133e+03,6.589167e+02
2.855097e+03,6.626355e+02
2.856061e+03,6.664241e+02
2.857025e+03,6.674915e+02
2.857990e+03,6.708848e+02
2.858954e+03,6.785519e+02
2.859918e+03,6.725902e+02
2.860882e+03,6.637736e+02
2.861846e+03,6.705276e+02
2.862811e+03,6.785373e+02
2.863775e+03,6.735118e+02
2.864739e+03,6.678495e+02
2.865703e+03,6.644836e+02
2.866668e+03,6.704617e+02
2.867632e+03,6.806404e+02
2.868596e+03,6.814001e+02
2.869560e+03,6.763363e+02
2.870525e+03,6.655270e+02
2.871489e+03,6.609467e+02
2.872453e+03,6.649265e+02
2.873417e+03,6.699499e+02
2.874382e+03,6.734379e+02
2.875346e+03,6.680207e+02
2.876310e+03,6.607591e+02
2.877274e+03,6.591417e+02
2.878239e+03,6.633657e+02
2.879203e+03,6.724628e+02
2.880167e+03,6.747960e+02
2.881131e+03,6.673115e+02
2.882095e+03,6.628568e+02
2.883060e+03,6.640966e+02
2.884024e+03,6.754047e+02
2.884988e+03,6.846539e+02
2.885952e+03,6.798197e+02
2.886917e+03,6.730901e+02
2.887881e+03,6.679778e+02
2.888845e+03,6.737372e+02
2.889809e+03,6.849159e+02
2.890773e+03,6.896910e+02
2.891738e+03,6.875837e+02
2.892702e+03,6.725854e+02
2.893666e+03,6.653807e+02
2.894630e+03,6.692595e+02
2.895595e+03,6.717368e+02
2.896559e+03,6.718307e+02
2.897523e+03,6.758724e+02
2.898487e+03,6.769461e+02
2.899452e+03,6.613180e+02
2.900416e+03,6.538621e+02
2.901380e+03,6.589083e+02
2.902344e+03,6.625781e+02
2.903309e+03,6.621978e+02
2.904273e+03,6.578189e+02
2.905237e+03,6.547149e+02
2.906201e+03,6.592639e+02
2.907166e+03,6.618554e+02
2.908130e+03,6.582969e+02
2.909094e+03,6.560387e+02
2.910058e+03,6.557159e+02
2.911022e+03,6.473937e+02
2.911987e+03,6.429690e+02
2.912951e+03,6.559913e+02
2.913915e+03,6.669987e+02
2.914879e+03,6.600755e+02
2.915844e+03,6.574571e+02
2.916808e+03,6.600980e+02
2.917772e+03,6.576072e+02
2.918736e+03,6.520123e+02
2.919700e+03,6.449534e+02
2.920665e+03,6.404895e+02
2.921629e+03,6.454996e+02
2.922593e+03,6.446096e+02
2.923557e+03,6.375843e+02
2.924522e+03,6.227760e+02
2.925486e+03,6.088582e+02
2.926450e+03,6.194903e+02
2.927414e+03,6.317013e+02
2.928379e+03,6.353380e+02
2.929343e+03,6.385291e+02
2.930307e+03,6.420030e+02
2.931271e+03,6.465519e+02
2.932236e+03,6.491339e+02
2.933200e+03,6.377041e+02
2.934164e+03,6.304435e+02
2.935128e+03,6.342079e+02
2.936093e+03,6.355733e+02
2.937057e+03,6.340948e+02
2.938021e+03,6.430038e+02
2.938985e+03,6.521983e+02
2.939949e+03,6.370780e+02
2.940914e+03,6.289490e+02
2.941878e+03,6.382828e+02
2.942842e+03,6.400286e+02
2.943806e+03,6.296591e+02
2.944771e+03,6.335730e+02
2.945735e+03,6.395023e+02
2.946699e+03,6.266108e+02
2.947663e+03,6.177414e+02
2.948627e+03,6.191812e+02
2.949592e+03,6.257960e+02
2.950556e+03,6.353685e+02
2.951520e+03,6.306110e+02
2.952484e+03,6.243320e+02
2.953449e+03,6.298430e+02
2.954413e+03,6.401671e+02
2.955377e+03,6.524597e+02
2.956341e+03,6.674182e+02
2.957306e+03,6.811558e+02
2.958270e+03,6.790771e+02
2.959234e+03,6.629837e+02
2.960198e+03,6.360586e+02
2.961163e+03,6.206815e+02
2.962127e+03,6.269062e+02
2.963091e+03,6.261530e+02
2.964055e+03,6.203408e+02
2.965020e+03,6.288044e+02
2.965984e+03,6.348399e+02
2.966948e+03,6.243502e+02
2.967912e+03,6.187294e+02
2.968876e+03,6.310643e+02
2.969841e+03,6.163307e+02
2.970805e+03,5.907309e+02
2.971769e+03,5.870256e+02
2.972733e+03,5.917043e+02
2.973698e+03,5.952845e+02
2.974662e+03,5.937037e+02
2.975626e+03,5.861912e+02
2.976590e+03,6.036800e+02
2.977554e+03,6.252836e+02
2.978519e+03,6.225644e+02
2.979483e+03,6.127043e+02
2.980447e+03,6.070526e+02
2.981411e+03,6.027606e+02
2.982376e+03,6.012311e+02
2.983340e+03,6.119907e+02
2.984304e+03,6.174083e+02
2.985268e+03,5.981054e+02
2.986233e+03,5.886119e+02
2.987197e+03,6.138402e+02
2.988161e+03,6.160564e+02
2.989125e+03,6.015880e+02
2.990090e+03,6.023882e+02
2.991054e+03,6.035525e+02
2.992018e+03,5.921780e+02
2.992982e+03,5.832789e+02
2.993947e+03,5.838157e+02
2.994911e+03,5.828106e+02
2.995875e+03,5.843008e+02
2.996839e+03,5.936628e+02
2.997803e+03,6.028654e+02
2.998768e+03,6.077423e+02
2.999732e+03,6.093926e+02
3.000696e+03,6.072764e+02
3.001660e+03,5.886927e+02
3.002625e+03,5.691349e+02
3.003589e+03,5.621948e+02
3.004553e+03,5.738023e+02
3.005517e+03,6.087294e+02
3.006481e+03,6.145768e+02
3.007446e+03,5.951678e+02
3.008410e+03,5.887994e+02
3.009374e+03,5.865471e+02
3.010338e+03,5.827220e+02
3.011303e+03,5.805560e+02
3.012267e+03,5.798593e+02
3.013231e+03,5.931887e+02
3.014195e+03,6.071017e+02
3.015160e+03,5.943487e+02
3.016124e+03,5.867809e+02
3.017088e+03,5.947392e+02
3.018052e+03,6.024932e+02
3.019017e+03,6.050121e+02
3.019981e+03,5.890024e+02
3.020945e+03,5.734181e+02
3.021909e+03,5.735282e+02
3.022874e+03,5.843320e+02
3.023838e+03,6.002719e+02
3.024802e+03,5.968911e+02
3.025766e+03,5.804473e+02
3.026730e+03,5.609078e+02
3.027695e+03,5.548137e+02
3.028659e+03,5.690094e+02
3.029623e+03,5.788264e+02
3.030587e+03,5.820257e+02
3.031552e+03,5.867025e+02
3.032516e+03,5.913588e+02
3.033480e+03,5.959998e+02
3.034444e+03,5.985779e+02
3.035408e+03,5.987179e+02
3.036373e+03,5.900619e+02
3.037337e+03,5.787586e+02
3.038301e+03,5.905256e+02
3.039265e+03,5.974048e+02
3.040230e+03,5.738575e+02
3.041194e+03,5.746006e+02
3.042158e+03,5.923765e+02
3.043122e+03,5.904059e+02
3.044087e+03,5.813771e+02
3.045051e+03,5.828808e+02
3.046015e+03,5.857182e+02
3.046979e+03,5.879875e+02
3.047944e+03,5.675054e+02
3.048908e+03,5.480740e+02
3.049872e+03,5.657507e+02
3.050836e+03,5.909244e+02
3.051801e+03,6.068961e+02
3.052765e+03,5.949630e+02
3.053729e+03,5.640369e+02
3.054693e+03,5.783186e+02
3.055657e+03,6.013848e+02
3.056622e+03,6.066289e+02
3.057586e+03,6.005402e+02
3.058550e+03,5.867604e+02
3.059514e+03,5.798755e+02
3.060479e+03,5.789825e+02
3.061443e+03,5.826173e+02
3.062407e+03,5.828329e+02
3.063371e+03,5.779925e+02
3.064335e+03,5.726871e+02
3.065300e+03,5.672331e+02
3.066264e+03,5.512069e+02
3.067228e+03,5.442285e+02
3.068192e+03,5.613248e+02
3.069157e+03,5.748395e+02
3.070121e+03,5.820382e+02
3.071085e+03,5.908197e+02
3.072049e+03,5.951996e+02
3.073014e+03,5.778552e+02
3.073978e+03,5.694255e+02
3.074942e+03,5.750405e+02
3.075906e+03,5.570711e+02
3.076871e+03,5.373849e+02
3.077835e+03,5.528034e+02
3.078799e+03,5.688299e+02
3.079763e+03,5.631116e+02
3.080728e+03,5.565447e+02
3.081692e+03,5.528094e+02
3.082656e+03,5.558344e+02
3.083620e+03,5.617277e+02
3.084584e+03,5.682947e+02
3.085549e+03,5.708361e+02
3.086513e+03,5.688951e+02
3.087477e+03,5.573917e+02
3.088441e+03,5.508230e+02
3.089406e+03,5.699003e+02
3.090370e+03,5.843685e+02
3.091334e+03,5.885194e+02
3.092298e+03,5.782540e+02
3.093262e+03,5.627872e+02
3.094227e+03,5.544211e+02
3.095191e+03,5.550212e+02
3.096155e+03,5.667414e+02
3.097119e+03,5.779678e+02
3.098084e+03,5.869709e+02
3.099048e+03,5.923568e+02
3.100012e+03,5.917953e+02
3.100976e+03,5.816359e+02
3.101941e+03,5.705515e+02
3.102905e+03,5.611220e+02
3.103869e+03,5.567871e+02
3.104833e+03,5.578257e+02
3.105798e+03,5.639534e+02
3.106762e+03,5.671122e+02
3.107726e+03,5.668945e+02
3.108690e+03,5.790772e+02
3.109655e+03,5.892509e+02
3.110619e+03,5.741246e+02
3.111583e+03,5.695911e+02
3.112547e+03,5.781145e+02
3.113511e+03,5.690179e+02
3.114476e+03,5.534000e+02
3.115440e+03,5.591321e+02
3.116404e+03,5.702474e+02
3.117368e+03,5.852252e+02
3.118333e+03,5.799107e+02
3.119297e+03,5.657764e+02
3.120261e+03,5.629132e+02
3.121225e+03,5.631730e+02
3.122189e+03,5.614752e+02
3.123154e+03,5.543588e+02
3.124118e+03,5.468535e+02
3.125082e+03,5.624371e+02
3.126046e+03,5.829595e+02
3.127011e+03,5.994830e+02
3.127975e+03,5.791865e+02
3.128939e+03,5.374611e+02
3.129903e+03,5.520703e+02
3.130868e+03,5.758506e+02
3.131832e+03,5.656087e+02
3.132796e+03,5.602893e+02
3.133760e+03,5.629952e+02
3.134725e+03,5.650690e+02
3.135689e+03,5.745480e+02
3.136653e+03,6.004004e+02
3.137617e+03,6.166343e+02
3.138582e+03,6.156132e+02
3.139546e+03,6.022725e+02
3.140510e+03,5.883600e+02
3.141474e+03,5.887001e+02
3.142438e+03,5.892574e+02
3.143403e+03,5.859468e+02
3.144367e+03,5.652529e+02
3.145331e+03,5.459188e+02
3.146295e+03,5.715441e+02
3.147260e+03,5.841186e+02
3.148224e+03,5.682692e+02
3.149188e+03,5.742961e+02
3.150152e+03,5.798268e+02
3.151116e+03,5.515468e+02
3.152081e+03,5.314042e+02
3.153045e+03,5.365235e+02
3.154009e+03,5.584477e+02
3.154973e+03,5.836624e+02
3.155938e+03,5.825762e+02
3.156902e+03,5.851326e+02
3.157866e+03,5.973419e+02
3.158830e+03,5.853107e+02
3.159795e+03,5.666387e+02
3.160759e+03,5.946761e+02
3.161723e+03,6.185621e+02
3.162687e+03,6.092292e+02
3.163652e+03,5.905903e+02
3.164616e+03,5.785536e+02
3.165580e+03,6.060711e+02
3.166544e+03,6.139666e+02
3.167509e+03,5.817164e+02
3.168473e+03,5.779075e+02
3.169437e+03,5.934692e+02
3.170401e+03,5.697365e+02
3.171365e+03,5.493509e+02
3.172330e+03,5.515218e+02
3.173294e+03,5.832617e+02
3.174258e+03,6.156403e+02
3.175222e+03,5.920714e+02
3.176187e+03,5.647172e+02
3.177151e+03,5.686699e+02
3.178115e+03,5.531768e+02
3.179079e+03,5.276327e+02
3.180043e+03,5.311037e+02
3.181008e+03,5.415821e+02
3.181972e+03,5.496361e+02
3.182936e+03,5.416761e+02
3.183900e+03,5.291624e+02
3.184865e+03,5.533591e+02
3.185829e+03,5.813007e+02
3.186793e+03,6.029990e+02
3.187757e+03,5.958401e+02
3.188722e+03,5.745682e+02
3.189686e+03,5.721823e+02
3.190650e+03,5.814412e+02
3.191614e+03,5.959075e+02
3.192579e+03,5.835710e+02
3.193543e+03,5.567762e+02
3.194507e+03,5.596913e+02
3.195471e+03,5.653446e+02
3.196436e+03,5.622804e+02
3.197400e+03,5.848011e+02
3.198364e+03,6.118484e+02
3.199328e+03,6.078748e+02
3.200292e+03,6.046061e+02
3.201257e+03,0.000000e+00
3.202221e+03,0.000000e+00
3.203185e+03,0.000000e+00
3.204149e+03,0.000000e+00
3.205114e+03,0.000000e+00
3.206078e+03,0.000000e+00
3.207042e+03,0.000000e+00
3.208006e+03,0.000000e+00
3.208970e+03,0.000000e+00
3.209935e+03,0.000000e+00
3.210899e+03,0.000000e+00
3.211863e+03,0.000000e+00
3.212827e+03,0.000000e+00
3.213792e+03,0.000000e+00
3.214756e+03,0.000000e+00
3.215720e+03,0.000000e+00
3.216684e+03,0.000000e+00
3.217649e+03,0.000000e+00
3.218613e+03,0.000000e+00
3.219577e+03,0.000000e+00
3.220541e+03,0.000000e+00
3.221506e+03,0.000000e+00
3.222470e+03,0.000000e+00
3.223434e+03,0.000000e+00
3.224398e+03,0.000000e+00
3.225363e+03,0.000000e+00
3.226327e+03,0.000000e+00
3.227291e+03,0.000000e+00
3.228255e+03,0.000000e+00
3.229219e+03,0.000000e+00
3.230184e+03,0.000000e+00
3.231148e+03,0.000000e+00
3.232112e+03,0.000000e+00
3.233076e+03,0.000000e+00
3.234041e+03,0.000000e+00
3.235005e+03,0.000000e+00
3.235969e+03,0.000000e+00
3.236933e+03,0.000000e+00
3.237897e+03,0.000000e+00
3.238862e+03,0.000000e+00
3.239826e+03,0.000000e+00
3.240790e+03,0.000000e+00
3.241754e+03,0.000000e+00
3.242719e+03,0.000000e+00
3.243683e+03,0.000000e+00
3.244647e+03,0.000000e+00
3.245611e+03,0.000000e+00
3.246576e+03,0.000000e+00
3.247540e+03,0.000000e+00
3.248504e+03,0.000000e+00
3.249468e+03,0.000000e+00
3.250433e+03,0.000000e+00
3.251397e+03,0.000000e+00
3.252361e+03,0.000000e+00
3.253325e+03,0.000000e+00
3.254290e+03,0.000000e+00
3.255254e+03,0.000000e+00
3.256218e+03,0.000000e+00
3.257182e+03,0.000000e+00
3.258146e+03,0.000000e+00
3.259111e+03,0.000000e+00
3.260075e+03,0.000000e+00
3.261039e+03,0.000000e+00
3.262003e+03,0.000000e+00
3.262968e+03,0.000000e+00
3.263932e+03,0.000000e+00
3.264896e+03,0.000000e+00
3.265860e+03,0.000000e+00
3.266824e+03,0.000000e+00
3.267789e+03,0.000000e+00
3.268753e+03,0.000000e+00
3.269717e+03,0.000000e+00
3.270681e+03,0.000000e+00
3.271646e+03,0.000000e+00
3.272610e+03,0.000000e+00
3.273574e+03,0.000000e+00
3.274538e+03,0.000000e+00
3.275503e+03,0.000000e+00
3.276467e+03,0.000000e+00
3.277431e+03,0.000000e+00
3.278395e+03,0.000000e+00
3.279360e+03,0.000000e+00
3.280324e+03,0.000000e+00
3.281288e+03,0.000000e+00
3.282252e+03,0.000000e+00
3.283217e+03,0.000000e+00
3.284181e+03,0.000000e+00
3.285145e+03,0.000000e+00
3.286109e+03,0.000000e+00
3.287073e+03,0.000000e+00
3.288038e+03,0.000000e+00
3.289002e+03,0.000000e+00
3.289966e+03,0.000000e+00
3.290930e+03,0.000000e+00
3.291895e+03,0.000000e+00
3.292859e+03,0.000000e+00
3.293823e+03,0.000000e+00
3.294787e+03,0.000000e+00
3.295751e+03,0.000000e+00
3.296716e+03,0.000000e+00
3.297680e+03,0.000000e+00
3.298644e+03,0.000000e+00
3.299608e+03,0.000000e+00
3.300573e+03,0.000000e+00
3.301537e+03,0.000000e+00
3.302501e+03,0.000000e+00
3.303465e+03,0.000000e+00
3.304430e+03,0.000000e+00
3.305394e+03,0.000000e+00
3.306358e+03,0.000000e+00
3.307322e+03,0.000000e+00
3.308287e+03,0.000000e+00
3.309251e+03,0.000000e+00
3.310215e+03,0.000000e+00
3.311179e+03,0.000000e+00
3.312144e+03,0.000000e+00
3.313108e+03,0.000000e+00
3.314072e+03,0.000000e+00
3.315036e+03,0.000000e+00
3.316000e+03,0.000000e+00
3.316965e+03,0.000000e+00
3.317929e+03,0.000000e+00
3.318893e+03,0.000000e+00
3.319857e+03,0.000000e+00
3.320822e+03,0.000000e+00
3.321786e+03,0.000000e+00
3.322750e+03,0.000000e+00
3.323714e+03,0.000000e+00
3.324678e+03,0.000000e+00
3.325643e+03,0.000000e+00
3.326607e+03,0.000000e+00
3.327571e+03,0.000000e+00
3.328535e+03,0.000000e+00
3.329500e+03,0.000000e+00
3.330464e+03,0.000000e+00
3.331428e+03,0.000000e+00
3.332392e+03,0.000000e+00
3.333357e+03,0.000000e+00
3.334321e+03,0.000000e+00
3.335285e+03,0.000000e+00
3.336249e+03,0.000000e+00
3.337214e+03,0.000000e+00
3.338178e+03,0.000000e+00
3.339142e+03,0.000000e+00
3.340106e+03,0.000000e+00
3.341071e+03,0.000000e+00
3.342035e+03,0.000000e+00
3.342999e+03,0.000000e+00
3.343963e+03,0.000000e+00
3.344927e+03,0.000000e+00
3.345892e+03,0.000000e+00
3.346856e+03,0.000000e+00
3.347820e+03,0.000000e+00
3.348784e+03,0.000000e+00
3.349749e+03,0.000000e+00
3.350713e+03,0.000000e+00
3.351677e+03,0.000000e+00
3.352641e+03,0.000000e+00
3.353605e+03,0.000000e+00
3.354570e+03,0.000000e+00
3.355534e+03,0.000000e+00
3.356498e+03,0.000000e+00
3.357462e+03,0.000000e+00
3.358427e+03,0.000000e+00
3.359391e+03,0.000000e+00
3.360355e+03,0.000000e+00
3.361319e+03,0.000000e+00
3.362284e+03,0.000000e+00
3.363248e+03,0.000000e+00
3.364212e+03,0.000000e+00
3.365176e+03,0.000000e+00
3.366141e+03,0.000000e+00
3.367105e+03,0.000000e+00
3.368069e+03,0.000000e+00
3.369033e+03,0.000000e+00
3.369998e+03,0.000000e+00
3.370962e+03,0.000000e+00
3.371926e+03,0.000000e+00
3.372890e+03,0.000000e+00
3.373854e+03,0.000000e+00
3.374819e+03,0.000000e+00
3.375783e+03,0.000000e+00
3.376747e+03,0.000000e+00
3.377711e+03,0.000000e+00
3.378676e+03,0.000000e+00
3.379640e+03,0.000000e+00
3.380604e+03,0.000000e+00
3.381568e+03,0.000000e+00
3.382532e+03,0.000000e+00
3.383497e+03,0.000000e+00
3.384461e+03,0.000000e+00
3.385425e+03,0.000000e+00
3.386389e+03,0.000000e+00
3.387354e+03,0.000000e+00
3.388318e+03,0.000000e+00
3.389282e+03,0.000000e+00
3.390246e+03,0.000000e+00
3.391211e+03,0.000000e+00
3.392175e+03,0.000000e+00
3.393139e+03,0.000000e+00
3.394103e+03,0.000000e+00
3.395068e+03,0.000000e+00
3.396032e+03,0.000000e+00
3.396996e+03,0.000000e+00
3.397960e+03,0.000000e+00
3.398925e+03,0.000000e+00
3.399889e+03,0.000000e+00
3.400853e+03,0.000000e+00
3.401817e+03,0.000000e+00
3.402781e+03,0.000000e+00
3.403746e+03,0.000000e+00
3.404710e+03,0.000000e+00
3.405674e+03,0.000000e+00
3.406638e+03,0.000000e+00
3.407603e+03,0.000000e+00
3.408567e+03,0.000000e+00
3.409531e+03,0.000000e+00
3.410495e+03,0.000000e+00
3.411459e+03,0.000000e+00
3.412424e+03,0.000000e+00
3.413388e+03,0.000000e+00
3.414352e+03,0.000000e+00
3.415316e+03,0.000000e+00
3.416281e+03,0.000000e+00
3.417245e+03,0.000000e+00
3.418209e+03,0.000000e+00
3.419173e+03,0.000000e+00
3.420138e+03,0.000000e+00
3.421102e+03,0.000000e+00
3.422066e+03,0.000000e+00
3.423030e+03,0.000000e+00
3.423995e+03,0.000000e+00
3.424959e+03,0.000000e+00
3.425923e+03,0.000000e+00
3.426887e+03,0.000000e+00
3.427852e+03,0.000000e+00
3.428816e+03,0.000000e+00
3.429780e+03,0.000000e+00
3.430744e+03,0.000000e+00
3.431708e+03,0.000000e+00
3.432673e+03,0.000000e+00
3.433637e+03,0.000000e+00
3.434601e+03,0.000000e+00
3.435565e+03,0.000000e+00
3.436530e+03,0.000000e+00
3.437494e+03,0.000000e+00
3.438458e+03,0.000000e+00
3.439422e+03,0.000000e+00
3.440386e+03,0.000000e+00
3.441351e+03,0.000000e+00
3.442315e+03,0.000000e+00
3.443279e+03,0.000000e+00
3.444243e+03,0.000000e+00
3.445208e+03,0.000000e+00
3.446172e+03,0.000000e+00
3.447136e+03,0.000000e+00
3.448100e+03,0.000000e+00
3.449065e+03,0.000000e+00
3.450029e+03,0.000000e+00
3.450993e+03,0.000000e+00
3.451957e+03,0.000000e+00
3.452922e+03,0.000000e+00
3.453886e+03,0.000000e+00
3.454850e+03,0.000000e+00
3.455814e+03,0.000000e+00
3.456779e+03,0.000000e+00
3.457743e+03,0.000000e+00
3.458707e+03,0.000000e+00
3.459671e+03,0.000000e+00
3.460635e+03,0.000000e+00
3.461600e+03,0.000000e+00
3.462564e+03,0.000000e+00
3.463528e+03,0.000000e+00
3.464492e+03,0.000000e+00
3.465457e+03,0.000000e+00
3.466421e+03,0.000000e+00
3.467385e+03,0.000000e+00
3.468349e+03,0.000000e+00
3.469313e+03,0.000000e+00
3.470278e+03,0.000000e+00
3.471242e+03,0.000000e+00
3.472206e+03,0.000000e+00
3.473170e+03,0.000000e+00
3.474135e+03,0.000000e+00
3.475099e+03,0.000000e+00
3.476063e+03,0.000000e+00
3.477027e+03,0.000000e+00
3.477992e+03,0.000000e+00
3.478956e+03,0.000000e+00
3.479920e+03,0.000000e+00
3.480884e+03,0.000000e+00
3.481849e+03,0.000000e+00
3.482813e+03,0.000000e+00
3.483777e+03,0.000000e+00
3.484741e+03,0.000000e+00
3.485706e+03,0.000000e+00
3.486670e+03,0.000000e+00
3.487634e+03,0.000000e+00
3.488598e+03,0.000000e+00
3.489563e+03,0.000000e+00
3.490527e+03,0.000000e+00
3.491491e+03,0.000000e+00
3.492455e+03,0.000000e+00
3.493419e+03,0.000000e+00
3.494384e+03,0.000000e+00
3.495348e+03,0.000000e+00
3.496312e+03,0.000000e+00
3.497276e+03,0.000000e+00
3.498240e+03,0.000000e+00
3.499205e+03,0.000000e+00
3.500169e+03,0.000000e+00
