9.931763e+01,0.000000e+00
1.002819e+02,0.000000e+00
1.012461e+02,0.000000e+00
1.022103e+02,0.000000e+00
1.031746e+02,0.000000e+00
1.041388e+02,0.000000e+00
1.051030e+02,0.000000e+00
1.060673e+02,0.000000e+00
1.070315e+02,0.000000e+00
1.079957e+02,0.000000e+00
1.089600e+02,0.000000e+00
1.099242e+02,0.000000e+00
1.108884e+02,0.000000e+00
1.118527e+02,0.000000e+00
1.128169e+02,0.000000e+00
1.137811e+02,0.000000e+00
1.147454e+02,0.000000e+00
1.157096e+02,0.000000e+00
1.166738e+02,0.000000e+00
1.176381e+02,0.000000e+00
1.186023e+02,0.000000e+00
1.195665e+02,0.000000e+00
1.205308e+02,0.000000e+00
1.214950e+02,0.000000e+00
1.224592e+02,0.000000e+00
1.234235e+02,0.000000e+00
1.243877e+02,0.000000e+00
1.253519e+02,0.000000e+00
1.263162e+02,0.000000e+00
1.272804e+02,0.000000e+00
1.282446e+02,0.000000e+00
1.292089e+02,0.000000e+00
1.301731e+02,0.000000e+00
1.311373e+02,0.000000e+00
1.321016e+02,0.000000e+00
1.330658e+02,0.000000e+00
1.340300e+02,0.000000e+00
1.349943e+02,0.000000e+00
1.359585e+02,0.000000e+00
1.369227e+02,0.000000e+00
1.378870e+02,0.000000e+00
1.388512e+02,0.000000e+00
1.398154e+02,0.000000e+00
1.407797e+02,0.000000e+00
1.417439e+02,0.000000e+00
1.427081e+02,0.000000e+00
1.436724e+02,0.000000e+00
1.446366e+02,0.000000e+00
1.456008e+02,0.000000e+00
1.465651e+02,0.000000e+00
1.475293e+02,0.000000e+00
1.484935e+02,0.000000e+00
1.494578e+02,0.000000e+00
1.504220e+02,0.000000e+00
1.513862e+02,0.000000e+00
1.523505e+02,0.000000e+00
1.533147e+02,0.000000e+00
1.542789e+02,0.000000e+00
1.552432e+02,0.000000e+00
1.562074e+02,0.000000e+00
1.571716e+02,0.000000e+00
1.581359e+02,0.000000e+00
1.591001e+02,0.000000e+00
1.600643e+02,0.000000e+00
1.610286e+02,0.000000e+00
1.619928e+02,0.000000e+00
1.629570e+02,0.000000e+00
1.639213e+02,0.000000e+00
1.648855e+02,0.000000e+00
1.658497e+02,0.000000e+00
1.668140e+02,0.000000e+00
1.677782e+02,0.000000e+00
1.687424e+02,0.000000e+00
1.697067e+02,0.000000e+00
1.706709e+02,0.000000e+00
1.716351e+02,0.000000e+00
1.725994e+02,0.000000e+00
1.735636e+02,0.000000e+00
1.745278e+02,0.000000e+00
1.754921e+02,0.000000e+00
1.764563e+02,0.000000e+00
1.774205e+02,0.000000e+00
1.783848e+02,0.000000e+00
1.793490e+02,0.000000e+00
1.803132e+02,0.000000e+00
1.812775e+02,0.000000e+00
1.822417e+02,0.000000e+00
1.832059e+02,0.000000e+00
1.841702e+02,0.000000e+00
1.851344e+02,0.000000e+00
1.860986e+02,0.000000e+00
1.870629e+02,0.000000e+00
1.880271e+02,0.000000e+00
1.889913e+02,0.000000e+00
1.899556e+02,0.000000e+00
1.909198e+02,0.000000e+00
1.918840e+02,0.000000e+00
1.928483e+02,0.000000e+00
1.938125e+02,0.000000e+00
1.947767e+02,0.000000e+00
1.957410e+02,0.000000e+00
1.967052e+02,0.000000e+00
1.976694e+02,0.000000e+00
1.986337e+02,0.000000e+00
1.995979e+02,6.233290e+03
2.005621e+02,6.241889e+03
2.015264e+02,6.249849e+03
2.024906e+02,6.255761e+03
2.034548e+02,6.261983e+03
2.044191e+02,6.268364e+03
2.053833e+02,6.273573e+03
2.063475e+02,6.276338e+03
2.073118e+02,6.275616e+03
2.082760e+02,6.270540e+03
2.092402e+02,6.264608e+03
2.102045e+02,6.258528e+03
2.111687e+02,6.255629e+03
2.121329e+02,6.258110e+03
2.130972e+02,6.266438e+03
2.140614e+02,6.277211e+03
2.150256e+02,6.284420e+03
2.159899e+02,6.286825e+03
2.169541e+02,6.288696e+03
2.179183e+02,6.291898e+03
2.188826e+02,6.296017e+03
2.198468e+02,6.301778e+03
2.208110e+02,6.312659e+03
2.217753e+02,6.327479e+03
2.227395e+02,6.332092e+03
2.237037e+02,6.318987e+03
2.246680e+02,6.301400e+03
2.256322e+02,6.290679e+03
2.265964e+02,6.294147e+03
2.275607e+02,6.302688e+03
2.285249e+02,6.303850e+03
2.294892e+02,6.295596e+03
2.304534e+02,6.290936e+03
2.314176e+02,6.299829e+03
2.323819e+02,6.317881e+03
2.333461e+02,6.331271e+03
2.343103e+02,6.335542e+03
2.352746e+02,6.334069e+03
2.362388e+02,6.329970e+03
2.372030e+02,6.320364e+03
2.381673e+02,6.308555e+03
2.391315e+02,6.305607e+03
2.400957e+02,6.325043e+03
2.410600e+02,6.341401e+03
2.420242e+02,6.344115e+03
2.429884e+02,6.337160e+03
2.439527e+02,6.329584e+03
2.449169e+02,6.324072e+03
2.458811e+02,6.319416e+03
2.468454e+02,6.320859e+03
2.478096e+02,6.333070e+03
2.487738e+02,6.348017e+03
2.497381e+02,6.361230e+03
2.507023e+02,6.371735e+03
2.516665e+02,6.379455e+03
2.526308e+02,6.383576e+03
2.535950e+02,6.374715e+03
2.545592e+02,6.368069e+03
2.555235e+02,6.368842e+03
2.564877e+02,6.372690e+03
2.574519e+02,6.374259e+03
2.584161e+02,6.370469e+03
2.593804e+02,6.363338e+03
2.603446e+02,6.364354e+03
2.613088e+02,6.377722e+03
2.622731e+02,6.392769e+03
2.632373e+02,6.407765e+03
2.642015e+02,6.420646e+03
2.651658e+02,6.429656e+03
2.661300e+02,6.435149e+03
2.670942e+02,6.439195e+03
2.680585e+02,6.440193e+03
2.690227e+02,6.433818e+03
2.699869e+02,6.425558e+03
2.709512e+02,6.418894e+03
2.719154e+02,6.417445e+03
2.728796e+02,6.419062e+03
2.738439e+02,6.419858e+03
2.748081e+02,6.420452e+03
2.757723e+02,6.425497e+03
2.767366e+02,6.436316e+03
2.777008e+02,6.448299e+03
2.786650e+02,6.453703e+03
2.796293e+02,6.446919e+03
2.805935e+02,6.435276e+03
2.815577e+02,6.430488e+03
2.825220e+02,6.435511e+03
2.834862e+02,6.443995e+03
2.844504e+02,6.445657e+03
2.854147e+02,6.438209e+03
2.863789e+02,6.431732e+03
2.873431e+02,6.431271e+03
2.883074e+02,6.436162e+03
2.892716e+02,6.442602e+03
2.902358e+02,6.447161e+03
2.912001e+02,6.449002e+03
2.921643e+02,6.451562e+03
2.931285e+02,6.460202e+03
2.940928e+02,6.467587e+03
2.950570e+02,6.467919e+03
2.960212e+02,6.460753e+03
2.969855e+02,6.451068e+03
2.979497e+02,6.446649e+03
2.989139e+02,6.453037e+03
2.998782e+02,6.454793e+03
3.008424e+02,6.449120e+03
3.018066e+02,6.444189e+03
3.027709e+02,6.444697e+03
3.037351e+02,6.452338e+03
3.046993e+02,6.461990e+03
3.056636e+02,6.464985e+03
3.066278e+02,6.459443e+03
3.075920e+02,6.454796e+03
3.085563e+02,6.457432e+03
3.095205e+02,6.465533e+03
3.104847e+02,6.471739e+03
3.114490e+02,6.466780e+03
3.124132e+02,6.455823e+03
3.133774e+02,6.452171e+03
3.143417e+02,6.459042e+03
3.153059e+02,6.467972e+03
3.162701e+02,6.469774e+03
3.172344e+02,6.462696e+03
3.181986e+02,6.459889e+03
3.191628e+02,6.470930e+03
3.201271e+02,6.489356e+03
3.210913e+02,6.501396e+03
3.220555e+02,6.499224e+03
3.230198e+02,6.485266e+03
3.239840e+02,6.479001e+03
3.249482e+02,6.487190e+03
3.259125e+02,6.494982e+03
3.268767e+02,6.497854e+03
3.278409e+02,6.496699e+03
3.288052e+02,6.494589e+03
3.297694e+02,6.493988e+03
3.307336e+02,6.495087e+03
3.316979e+02,6.495788e+03
3.326621e+02,6.497222e+03
3.336263e+02,6.496017e+03
3.345906e+02,6.490530e+03
3.355548e+02,6.482157e+03
3.365190e+02,6.474811e+03
3.374833e+02,6.470318e+03
3.384475e+02,6.467866e+03
3.394117e+02,6.470901e+03
3.403760e+02,6.483079e+03
3.413402e+02,6.499143e+03
3.423044e+02,6.510349e+03
3.432687e+02,6.512187e+03
3.442329e+02,6.509961e+03
3.451971e+02,6.506658e+03
3.461614e+02,6.500690e+03
3.471256e+02,6.491587e+03
3.480898e+02,6.480526e+03
3.490541e+02,6.467643e+03
3.500183e+02,6.461344e+03
3.509825e+02,6.470026e+03
3.519468e+02,6.483631e+03
3.529110e+02,6.491874e+03
3.538752e+02,6.490924e+03
3.548395e+02,6.485320e+03
3.558037e+02,6.485468e+03
3.567680e+02,6.497695e+03
3.577322e+02,6.505747e+03
3.586964e+02,6.506625e+03
3.596607e+02,6.506021e+03
3.606249e+02,6.508791e+03
3.615891e+02,6.516768e+03
3.625534e+02,6.524260e+03
3.635176e+02,6.521758e+03
3.644818e+02,6.508175e+03
3.654461e+02,6.493558e+03
3.664103e+02,6.485411e+03
3.673745e+02,6.485826e+03
3.683388e+02,6.492460e+03
3.693030e+02,6.504971e+03
3.702672e+02,6.518649e+03
3.712315e+02,6.528005e+03
3.721957e+02,6.531260e+03
3.731599e+02,6.529574e+03
3.741242e+02,6.526893e+03
3.750884e+02,6.527039e+03
3.760526e+02,6.528398e+03
3.770169e+02,6.530585e+03
3.779811e+02,6.532427e+03
3.789453e+02,6.532084e+03
3.799096e+02,6.527994e+03
3.808738e+02,6.520741e+03
3.818380e+02,6.514681e+03
3.828023e+02,6.515097e+03
3.837665e+02,6.515600e+03
3.847307e+02,6.511480e+03
3.856950e+02,6.504774e+03
3.866592e+02,6.500192e+03
3.876234e+02,6.500188e+03
3.885877e+02,6.503773e+03
3.895519e+02,6.509304e+03
3.905161e+02,6.517394e+03
3.914804e+02,6.523818e+03
3.924446e+02,6.523994e+03
3.934088e+02,6.518408e+03
3.943731e+02,6.513177e+03
3.953373e+02,6.509097e+03
3.963015e+02,6.505957e+03
3.972658e+02,6.504044e+03
3.982300e+02,6.504427e+03
3.991942e+02,6.507898e+03
4.001585e+02,6.511235e+03
4.011227e+02,6.508506e+03
4.020869e+02,6.507653e+03
4.030512e+02,6.508644e+03
4.040154e+02,6.509634e+03
4.049796e+02,6.509902e+03
4.059439e+02,6.508236e+03
4.069081e+02,6.505357e+03
4.078723e+02,6.505019e+03
4.088366e+02,6.507446e+03
4.098008e+02,6.507080e+03
4.107650e+02,6.501553e+03
4.117293e+02,6.492150e+03
4.126935e+02,6.487749e+03
4.136577e+02,6.496374e+03
4.146220e+02,6.510245e+03
4.155862e+02,6.518156e+03
4.165504e+02,6.517768e+03
4.175147e+02,6.512403e+03
4.184789e+02,6.506878e+03
4.194431e+02,6.499833e+03
4.204074e+02,6.493762e+03
4.213716e+02,6.487630e+03
4.223358e+02,6.482680e+03
4.233001e+02,6.480767e+03
4.242643e+02,6.483674e+03
4.252285e+02,6.489767e+03
4.261928e+02,6.494883e+03
4.271570e+02,6.500311e+03
4.281212e+02,6.503268e+03
4.290855e+02,6.497342e+03
4.300497e+02,6.486384e+03
4.310139e+02,6.480519e+03
4.319782e+02,6.488406e+03
4.329424e+02,6.501919e+03
4.339066e+02,6.510525e+03
4.348709e+02,6.512565e+03
4.358351e+02,6.512312e+03
4.367993e+02,6.514800e+03
4.377636e+02,6.524368e+03
4.387278e+02,6.525719e+03
4.396920e+02,6.513180e+03
4.406563e+02,6.498232e+03
4.416205e+02,6.487245e+03
4.425847e+02,6.481620e+03
4.435490e+02,6.480255e+03
4.445132e+02,6.483986e+03
4.454774e+02,6.495341e+03
4.464417e+02,6.504439e+03
4.474059e+02,6.505785e+03
4.483701e+02,6.502529e+03
4.493344e+02,6.499991e+03
4.502986e+02,6.502775e+03
4.512628e+02,6.505328e+03
4.522271e+02,6.502566e+03
4.531913e+02,6.495474e+03
4.541555e+02,6.488319e+03
4.551198e+02,6.483162e+03
4.560840e+02,6.480333e+03
4.570482e+02,6.477104e+03
4.580125e+02,6.476311e+03
4.589767e+02,6.477987e+03
4.599409e+02,6.480404e+03
4.609052e+02,6.481635e+03
4.618694e+02,6.481131e+03
4.628336e+02,6.479098e+03
4.637979e+02,6.476111e+03
4.647621e+02,6.473833e+03
4.657263e+02,6.475008e+03
4.666906e+02,6.478125e+03
4.676548e+02,6.478021e+03
4.686190e+02,6.471680e+03
4.695833e+02,6.468198e+03
4.705475e+02,6.473731e+03
4.715117e+02,6.482128e+03
4.724760e+02,6.484819e+03
4.734402e+02,6.479182e+03
4.744044e+02,6.468612e+03
4.753687e+02,6.460017e+03
4.763329e+02,6.453524e+03
4.772971e+02,6.449399e+03
4.782614e+02,6.448533e+03
4.792256e+02,6.450032e+03
4.801898e+02,6.452435e+03
4.811541e+02,6.455760e+03
4.821183e+02,6.457559e+03
4.830826e+02,6.452084e+03
4.840468e+02,6.438170e+03
4.850110e+02,6.427237e+03
4.859753e+02,6.428820e+03
4.869395e+02,6.443627e+03
4.879037e+02,6.451124e+03
4.888680e+02,6.448654e+03
4.898322e+02,6.442903e+03
4.907964e+02,6.435069e+03
4.917607e+02,6.426979e+03
4.927249e+02,6.422771e+03
4.936891e+02,6.428433e+03
4.946534e+02,6.444649e+03
4.956176e+02,6.455277e+03
4.965818e+02,6.456939e+03
4.975461e+02,6.455838e+03
4.985103e+02,6.456765e+03
4.994745e+02,6.459184e+03
5.004388e+02,6.459407e+03
5.014030e+02,6.457956e+03
5.023672e+02,6.455122e+03
5.033315e+02,6.449678e+03
5.042957e+02,6.440637e+03
5.052599e+02,6.429033e+03
5.062242e+02,6.418450e+03
5.071884e+02,6.405922e+03
5.081526e+02,6.402251e+03
5.091169e+02,6.418052e+03
5.100811e+02,6.441056e+03
5.110453e+02,6.455528e+03
5.120095e+02,6.453110e+03
5.129738e+02,6.444133e+03
5.139380e+02,6.440519e+03
5.149022e+02,6.442432e+03
5.158665e+02,6.446455e+03
5.168307e+02,6.449389e+03
5.177949e+02,6.448021e+03
5.187592e+02,6.441763e+03
5.197234e+02,6.435870e+03
5.206876e+02,6.430616e+03
5.216519e+02,6.424937e+03
5.226161e+02,6.420040e+03
5.235803e+02,6.417938e+03
5.245446e+02,6.422011e+03
5.255088e+02,6.430892e+03
5.264730e+02,6.434574e+03
5.274373e+02,6.430146e+03
5.284015e+02,6.425008e+03
5.293657e+02,6.426609e+03
5.303300e+02,6.437047e+03
5.312942e+02,6.439083e+03
5.322584e+02,6.424405e+03
5.332227e+02,6.407074e+03
5.341869e+02,6.399300e+03
5.351511e+02,6.402248e+03
5.361154e+02,6.408766e+03
5.370796e+02,6.410491e+03
5.380438e+02,6.406896e+03
5.390081e+02,6.404442e+03
5.399723e+02,6.404167e+03
5.409365e+02,6.406529e+03
5.419008e+02,6.410547e+03
5.428650e+02,6.415620e+03
5.438292e+02,6.418705e+03
5.447935e+02,6.416914e+03
5.457577e+02,6.412353e+03
5.467219e+02,6.410082e+03
5.476862e+02,6.412787e+03
5.486504e+02,6.417769e+03
5.496146e+02,6.417142e+03
5.505789e+02,6.406458e+03
5.515431e+02,6.396274e+03
5.525073e+02,6.393427e+03
5.534716e+02,6.395650e+03
5.544358e+02,6.396162e+03
5.554000e+02,6.385036e+03
5.563643e+02,6.372447e+03
5.573285e+02,6.370382e+03
5.582927e+02,6.376840e+03
5.592570e+02,6.382550e+03
5.602212e+02,6.382548e+03
5.611854e+02,6.376363e+03
5.621497e+02,6.371491e+03
5.631139e+02,6.363231e+03
5.640781e+02,6.357732e+03
5.650424e+02,6.364119e+03
5.660066e+02,6.378626e+03
5.669708e+02,6.386725e+03
5.679351e+02,6.373519e+03
5.688993e+02,6.351687e+03
5.698635e+02,6.345693e+03
5.708278e+02,6.358800e+03
5.717920e+02,6.375956e+03
5.727562e+02,6.381799e+03
5.737205e+02,6.370161e+03
5.746847e+02,6.362389e+03
5.756489e+02,6.358288e+03
5.766132e+02,6.356027e+03
5.775774e+02,6.356869e+03
5.785416e+02,6.360796e+03
5.795059e+02,6.362976e+03
5.804701e+02,6.356619e+03
5.814343e+02,6.345115e+03
5.823986e+02,6.340923e+03
5.833628e+02,6.348271e+03
5.843270e+02,6.358934e+03
5.852913e+02,6.361177e+03
5.862555e+02,6.347433e+03
5.872197e+02,6.336387e+03
5.881840e+02,6.326134e+03
5.891482e+02,6.318205e+03
5.901124e+02,6.314615e+03
5.910767e+02,6.316332e+03
5.920409e+02,6.320175e+03
5.930051e+02,6.323113e+03
5.939694e+02,6.324681e+03
5.949336e+02,6.325413e+03
5.958978e+02,6.326216e+03
5.968621e+02,6.325617e+03
5.978263e+02,6.320616e+03
5.987905e+02,6.303040e+03
5.997548e+02,6.292801e+03
6.007190e+02,6.296626e+03
6.016832e+02,6.308001e+03
6.026475e+02,6.318304e+03
6.036117e+02,6.322899e+03
6.045759e+02,6.323990e+03
6.055402e+02,6.323421e+03
6.065044e+02,6.320500e+03
6.074686e+02,6.316913e+03
6.084329e+02,6.315163e+03
6.093971e+02,6.314864e+03
6.103613e+02,6.311015e+03
6.113256e+02,6.298916e+03
6.122899e+02,6.288903e+03
6.132541e+02,6.284809e+03
6.142183e+02,6.283507e+03
6.151826e+02,6.279957e+03
6.161468e+02,6.268377e+03
6.171110e+02,6.258410e+03
6.180753e+02,6.264476e+03
6.190395e+02,6.284164e+03
6.200037e+02,6.299753e+03
6.209680e+02,6.299269e+03
6.219322e+02,6.284560e+03
6.228964e+02,6.276272e+03
6.238607e+02,6.280380e+03
6.248249e+02,6.283727e+03
6.257891e+02,6.279620e+03
6.267534e+02,6.268615e+03
6.277176e+02,6.257320e+03
6.286818e+02,6.251508e+03
6.296461e+02,6.248476e+03
6.306103e+02,6.244204e+03
6.315745e+02,6.239130e+03
6.325388e+02,6.235633e+03
6.335030e+02,6.234445e+03
6.344672e+02,6.234629e+03
6.354315e+02,6.236079e+03
6.363957e+02,6.238537e+03
6.373599e+02,6.239435e+03
6.383242e+02,6.238656e+03
6.392884e+02,6.237197e+03
6.402526e+02,6.236859e+03
6.412169e+02,6.242264e+03
6.421811e+02,6.246074e+03
6.431453e+02,6.238371e+03
6.441096e+02,6.220175e+03
6.450738e+02,6.202852e+03
6.460380e+02,6.199182e+03
6.470023e+02,6.210864e+03
6.479665e+02,6.221268e+03
6.489307e+02,6.228795e+03
6.498950e+02,6.233712e+03
6.508592e+02,6.234369e+03
6.518234e+02,6.229559e+03
6.527877e+02,6.225447e+03
6.537519e+02,6.226763e+03
6.547161e+02,6.227385e+03
6.556804e+02,6.221149e+03
6.566446e+02,6.208626e+03
6.576088e+02,6.196915e+03
6.585731e+02,6.194646e+03
6.595373e+02,6.199667e+03
6.605015e+02,6.198507e+03
6.614658e+02,6.188604e+03
6.624300e+02,6.176409e+03
6.633942e+02,6.167502e+03
6.643585e+02,6.160612e+03
6.653227e+02,6.160077e+03
6.662869e+02,6.171644e+03
6.672512e+02,6.183219e+03
6.682154e+02,6.185615e+03
6.691796e+02,6.177134e+03
6.701439e+02,6.169335e+03
6.711081e+02,6.176070e+03
6.720723e+02,6.188820e+03
6.730366e+02,6.188669e+03
6.740008e+02,6.172750e+03
6.749650e+02,6.151971e+03
6.759293e+02,6.138524e+03
6.768935e+02,6.134354e+03
6.778577e+02,6.134816e+03
6.788220e+02,6.148266e+03
6.797862e+02,6.163439e+03
6.807504e+02,6.169199e+03
6.817147e+02,6.161287e+03
6.826789e+02,6.154739e+03
6.836431e+02,6.156932e+03
6.846074e+02,6.159961e+03
6.855716e+02,6.156540e+03
6.865358e+02,6.146487e+03
6.875001e+02,6.134256e+03
6.884643e+02,6.123011e+03
6.894285e+02,6.113034e+03
6.903928e+02,6.108361e+03
6.913570e+02,6.110594e+03
6.923212e+02,6.114659e+03
6.932855e+02,6.115916e+03
6.942497e+02,6.114851e+03
6.952139e+02,6.115287e+03
6.961782e+02,6.115833e+03
6.971424e+02,6.117365e+03
6.981066e+02,6.119601e+03
6.990709e+02,6.120225e+03
7.000351e+02,6.118090e+03
7.009993e+02,6.114278e+03
7.019636e+02,6.111551e+03
7.029278e+02,6.114018e+03
7.038920e+02,6.122253e+03
7.048563e+02,6.128421e+03
7.058205e+02,6.122741e+03
7.067847e+02,6.102151e+03
7.077490e+02,6.089225e+03
7.087132e+02,6.093577e+03
7.096774e+02,6.103677e+03
7.106417e+02,6.104479e+03
7.116059e+02,6.091950e+03
7.125701e+02,6.081568e+03
7.135344e+02,6.082342e+03
7.144986e+02,6.086374e+03
7.154628e+02,6.084043e+03
7.164271e+02,6.073532e+03
7.173913e+02,6.062263e+03
7.183555e+02,6.058047e+03
7.193198e+02,6.059439e+03
7.202840e+02,6.061107e+03
7.212482e+02,6.063786e+03
7.222125e+02,6.065820e+03
7.231767e+02,6.064396e+03
7.241409e+02,6.056761e+03
7.251052e+02,6.048322e+03
7.260694e+02,6.034611e+03
7.270336e+02,6.023001e+03
7.279979e+02,6.020150e+03
7.289621e+02,6.026645e+03
7.299263e+02,6.033097e+03
7.308906e+02,6.037274e+03
7.318548e+02,6.037343e+03
7.328190e+02,6.030559e+03
7.337833e+02,6.017332e+03
7.347475e+02,6.002675e+03
7.357117e+02,5.991134e+03
7.366760e+02,5.983913e+03
7.376402e+02,5.984858e+03
7.386044e+02,5.997472e+03
7.395687e+02,6.009698e+03
7.405329e+02,6.009158e+03
7.414971e+02,5.990655e+03
7.424614e+02,5.979801e+03
7.434256e+02,5.987477e+03
7.443898e+02,5.998658e+03
7.453541e+02,6.002188e+03
7.463183e+02,5.995703e+03
7.472825e+02,5.990096e+03
7.482468e+02,5.996627e+03
7.492110e+02,6.003821e+03
7.501752e+02,6.000438e+03
7.511395e+02,5.989141e+03
7.521037e+02,5.977674e+03
7.530679e+02,5.969319e+03
7.540322e+02,5.962531e+03
7.549964e+02,5.957878e+03
7.559606e+02,5.957094e+03
7.569249e+02,5.957337e+03
7.578891e+02,5.956674e+03
7.588533e+02,5.955580e+03
7.598176e+02,5.957996e+03
7.607818e+02,5.963731e+03
7.617460e+02,5.963348e+03
7.627103e+02,5.951858e+03
7.636745e+02,5.935373e+03
7.646387e+02,5.925917e+03
7.656030e+02,5.932577e+03
7.665672e+02,5.944243e+03
7.675314e+02,5.949731e+03
7.684957e+02,5.946721e+03
7.694599e+02,5.938934e+03
7.704241e+02,5.931264e+03
7.713884e+02,5.926177e+03
7.723526e+02,5.926095e+03
7.733168e+02,5.932959e+03
7.742811e+02,5.940596e+03
7.752453e+02,5.943115e+03
7.762095e+02,5.939319e+03
7.771738e+02,5.933939e+03
7.781380e+02,5.922427e+03
7.791022e+02,5.910386e+03
7.800665e+02,5.902202e+03
7.810307e+02,5.896393e+03
7.819949e+02,5.889782e+03
7.829592e+02,5.881764e+03
7.839234e+02,5.876610e+03
7.848876e+02,5.875883e+03
7.858519e+02,5.877547e+03
7.868161e+02,5.879695e+03
7.877803e+02,5.882082e+03
7.887446e+02,5.882688e+03
7.897088e+02,5.877636e+03
7.906730e+02,5.870261e+03
7.916373e+02,5.871000e+03
7.926015e+02,5.881349e+03
7.935657e+02,5.892796e+03
7.945300e+02,5.895306e+03
7.954942e+02,5.888217e+03
7.964584e+02,5.880359e+03
7.974227e+02,5.879732e+03
7.983869e+02,5.883826e+03
7.993511e+02,5.882485e+03
8.003154e+02,5.867543e+03
8.012796e+02,5.851490e+03
8.022438e+02,5.836224e+03
8.032081e+02,5.825536e+03
8.041723e+02,5.823188e+03
8.051365e+02,5.829345e+03
8.061008e+02,5.836928e+03
8.070650e+02,5.839349e+03
8.080292e+02,5.838008e+03
8.089935e+02,5.839346e+03
8.099577e+02,5.845711e+03
8.109219e+02,5.851409e+03
8.118862e+02,5.848724e+03
8.128504e+02,5.837866e+03
8.138146e+02,5.825987e+03
8.147789e+02,5.811295e+03
8.157431e+02,5.798047e+03
8.167073e+02,5.791219e+03
8.176716e+02,5.794755e+03
8.186358e+02,5.800323e+03
8.196000e+02,5.811021e+03
8.205643e+02,5.820018e+03
8.215285e+02,5.821263e+03
8.224927e+02,5.815119e+03
8.234570e+02,5.807988e+03
8.244212e+02,5.799775e+03
8.253854e+02,5.792930e+03
8.263497e+02,5.787881e+03
8.273139e+02,5.782987e+03
8.282781e+02,5.777761e+03
8.292424e+02,5.774699e+03
8.302066e+02,5.774358e+03
8.311708e+02,5.776428e+03
8.321351e+02,5.780255e+03
8.330993e+02,5.782333e+03
8.340635e+02,5.779362e+03
8.350278e+02,5.772612e+03
8.359920e+02,5.766858e+03
8.369562e+02,5.761700e+03
8.379205e+02,5.761530e+03
8.388847e+02,5.770779e+03
8.398489e+02,5.784330e+03
8.408132e+02,5.787823e+03
8.417774e+02,5.769519e+03
8.427416e+02,5.755898e+03
8.437059e+02,5.752235e+03
8.446701e+02,5.753253e+03
8.456343e+02,5.754159e+03
8.465986e+02,5.754643e+03
8.475628e+02,5.752825e+03
8.485270e+02,5.746683e+03
8.494913e+02,5.738484e+03
8.504555e+02,5.730047e+03
8.514197e+02,5.722369e+03
8.523840e+02,5.719595e+03
8.533482e+02,5.729042e+03
8.543124e+02,5.742877e+03
8.552767e+02,5.746908e+03
8.562409e+02,5.738850e+03
8.572051e+02,5.725338e+03
8.581694e+02,5.712593e+03
8.591336e+02,5.701646e+03
8.600978e+02,5.696485e+03
8.610621e+02,5.699281e+03
8.620263e+02,5.703804e+03
8.629905e+02,5.703700e+03
8.639548e+02,5.696578e+03
8.649190e+02,5.690161e+03
8.658832e+02,5.686869e+03
8.668475e+02,5.686583e+03
8.678117e+02,5.691917e+03
8.687759e+02,5.700431e+03
8.697402e+02,5.702647e+03
8.707044e+02,5.687872e+03
8.716686e+02,5.671428e+03
8.726329e+02,5.662724e+03
8.735971e+02,5.659737e+03
8.745613e+02,5.655897e+03
8.755256e+02,5.646955e+03
8.764898e+02,5.642142e+03
8.774540e+02,5.651090e+03
8.784183e+02,5.665537e+03
8.793825e+02,5.670731e+03
8.803467e+02,5.659648e+03
8.813110e+02,5.643760e+03
8.822752e+02,5.638016e+03
8.832394e+02,5.641332e+03
8.842037e+02,5.646438e+03
8.851679e+02,5.650370e+03
8.861321e+02,5.651395e+03
8.870964e+02,5.647768e+03
8.880606e+02,5.638857e+03
8.890248e+02,5.629139e+03
8.899891e+02,5.620511e+03
8.909533e+02,5.615037e+03
8.919175e+02,5.614343e+03
8.928818e+02,5.620665e+03
8.938460e+02,5.620811e+03
8.948102e+02,5.608009e+03
8.957745e+02,5.593481e+03
8.967387e+02,5.582577e+03
8.977029e+02,5.574028e+03
8.986672e+02,5.570761e+03
8.996314e+02,5.586976e+03
9.005956e+02,5.600678e+03
9.015599e+02,5.598233e+03
9.025241e+02,5.584021e+03
9.034883e+02,5.572577e+03
9.044526e+02,5.573310e+03
9.054168e+02,5.571704e+03
9.063810e+02,5.559599e+03
9.073453e+02,5.544901e+03
9.083095e+02,5.536997e+03
9.092737e+02,5.538891e+03
9.102380e+02,5.543817e+03
9.112022e+02,5.546052e+03
9.121664e+02,5.545753e+03
9.131307e+02,5.544609e+03
9.140949e+02,5.544963e+03
9.150591e+02,5.547814e+03
9.160234e+02,5.551548e+03
9.169876e+02,5.552824e+03
9.179518e+02,5.547364e+03
9.189161e+02,5.534097e+03
9.198803e+02,5.518357e+03
9.208445e+02,5.506860e+03
9.218088e+02,5.501464e+03
9.227730e+02,5.500940e+03
9.237372e+02,5.505401e+03
9.247015e+02,5.510841e+03
9.256657e+02,5.516096e+03
9.266299e+02,5.520983e+03
9.275942e+02,5.519440e+03
9.285584e+02,5.501978e+03
9.295226e+02,5.487006e+03
9.304869e+02,5.485572e+03
9.314511e+02,5.493668e+03
9.324153e+02,5.495486e+03
9.333796e+02,5.480560e+03
9.343438e+02,5.469514e+03
9.353080e+02,5.471283e+03
9.362723e+02,5.476499e+03
9.372365e+02,5.474006e+03
9.382007e+02,5.459940e+03
9.391650e+02,5.447519e+03
9.401292e+02,5.441553e+03
9.410934e+02,5.440173e+03
9.420577e+02,5.441234e+03
9.430219e+02,5.443950e+03
9.439861e+02,5.444080e+03
9.449504e+02,5.438670e+03
9.459146e+02,5.433144e+03
9.468788e+02,5.430612e+03
9.478431e+02,5.428675e+03
9.488073e+02,5.426603e+03
9.497715e+02,5.429522e+03
9.507358e+02,5.434633e+03
9.517000e+02,5.432924e+03
9.526642e+02,5.426463e+03
9.536285e+02,5.421539e+03
9.545927e+02,5.421929e+03
9.555569e+02,5.425208e+03
9.565212e+02,5.423993e+03
9.574854e+02,5.420076e+03
9.584496e+02,5.415489e+03
9.594139e+02,5.407890e+03
9.603781e+02,5.398197e+03
9.613423e+02,5.392774e+03
9.623066e+02,5.392335e+03
9.632708e+02,5.395177e+03
9.642350e+02,5.405026e+03
9.651993e+02,5.415491e+03
9.661635e+02,5.414588e+03
9.671277e+02,5.392338e+03
9.680920e+02,5.378612e+03
9.690562e+02,5.379800e+03
9.700204e+02,5.382196e+03
9.709847e+02,5.376692e+03
9.719489e+02,5.362750e+03
9.729131e+02,5.352596e+03
9.738774e+02,5.348506e+03
9.748416e+02,5.348452e+03
9.758058e+02,5.350102e+03
9.767701e+02,5.351925e+03
9.777343e+02,5.354446e+03
9.786985e+02,5.358900e+03
9.796628e+02,5.361422e+03
9.806270e+02,5.362397e+03
9.815912e+02,5.360888e+03
9.825555e+02,5.355664e+03
9.835197e+02,5.346490e+03
9.844839e+02,5.338175e+03
9.854482e+02,5.334131e+03
9.864124e+02,5.332253e+03
9.873766e+02,5.328239e+03
9.883409e+02,5.321088e+03
9.893051e+02,5.315514e+03
9.902693e+02,5.314023e+03
9.912336e+02,5.316269e+03
9.921978e+02,5.321995e+03
9.931620e+02,5.328752e+03
9.941263e+02,5.331208e+03
9.950905e+02,5.323012e+03
9.960547e+02,5.311329e+03
9.970190e+02,5.305553e+03
9.979832e+02,5.303923e+03
9.989474e+02,5.300510e+03
9.999117e+02,5.293517e+03
1.000876e+03,5.285278e+03
1.001840e+03,5.277029e+03
1.002804e+03,5.270719e+03
1.003769e+03,5.269396e+03
1.004733e+03,5.273239e+03
1.005697e+03,5.277953e+03
1.006661e+03,5.276884e+03
1.007626e+03,5.272135e+03
1.008590e+03,5.273541e+03
1.009554e+03,5.282119e+03
1.010518e+03,5.286922e+03
1.011482e+03,5.272524e+03
1.012447e+03,5.242360e+03
1.013411e+03,5.226983e+03
1.014375e+03,5.230957e+03
1.015339e+03,5.238734e+03
1.016304e+03,5.237900e+03
1.017268e+03,5.229642e+03
1.018232e+03,5.223459e+03
1.019196e+03,5.218669e+03
1.020161e+03,5.215903e+03
1.021125e+03,5.217039e+03
1.022089e+03,5.221701e+03
1.023053e+03,5.225460e+03
1.024018e+03,5.226811e+03
1.024982e+03,5.224003e+03
1.025946e+03,5.213802e+03
1.026910e+03,5.200630e+03
1.027875e+03,5.193602e+03
1.028839e+03,5.197251e+03
1.029803e+03,5.201519e+03
1.030767e+03,5.208310e+03
1.031731e+03,5.212385e+03
1.032696e+03,5.207281e+03
1.033660e+03,5.191792e+03
1.034624e+03,5.184549e+03
1.035588e+03,5.192118e+03
1.036552e+03,5.200378e+03
1.037517e+03,5.203819e+03
1.038481e+03,5.201170e+03
1.039445e+03,5.192535e+03
1.040409e+03,5.169477e+03
1.041374e+03,5.155304e+03
1.042338e+03,5.161988e+03
1.043302e+03,5.176710e+03
1.044266e+03,5.181253e+03
1.045231e+03,5.168284e+03
1.046195e+03,5.156985e+03
1.047159e+03,5.150026e+03
1.048123e+03,5.144524e+03
1.049088e+03,5.137443e+03
1.050052e+03,5.129424e+03
1.051016e+03,5.128182e+03
1.051980e+03,5.142436e+03
1.052945e+03,5.153212e+03
1.053909e+03,5.147500e+03
1.054873e+03,5.128152e+03
1.055837e+03,5.115096e+03
1.056802e+03,5.118818e+03
1.057766e+03,5.120923e+03
1.058730e+03,5.119903e+03
1.059694e+03,5.115790e+03
1.060658e+03,5.107058e+03
1.061623e+03,5.088580e+03
1.062587e+03,5.077745e+03
1.063551e+03,5.081197e+03
1.064515e+03,5.089813e+03
1.065479e+03,5.096790e+03
1.066444e+03,5.102524e+03
1.067408e+03,5.109363e+03
1.068372e+03,5.122119e+03
1.069336e+03,5.131501e+03
1.070301e+03,5.127997e+03
1.071265e+03,5.114447e+03
1.072229e+03,5.104502e+03
1.073193e+03,5.104914e+03
1.074158e+03,5.103633e+03
1.075122e+03,5.097928e+03
1.076086e+03,5.088865e+03
1.077050e+03,5.077865e+03
1.078015e+03,5.064119e+03
1.078979e+03,5.059130e+03
1.079943e+03,5.071444e+03
1.080907e+03,5.086762e+03
1.081872e+03,5.094322e+03
1.082836e+03,5.091766e+03
1.083800e+03,5.084714e+03
1.084764e+03,5.069491e+03
1.085729e+03,5.057669e+03
1.086693e+03,5.055963e+03
1.087657e+03,5.060545e+03
1.088621e+03,5.062493e+03
1.089585e+03,5.058151e+03
1.090550e+03,5.050852e+03
1.091514e+03,5.044051e+03
1.092478e+03,5.037422e+03
1.093442e+03,5.028487e+03
1.094406e+03,5.014341e+03
1.095371e+03,5.007352e+03
1.096335e+03,5.015570e+03
1.097299e+03,5.025029e+03
1.098263e+03,5.025669e+03
1.099228e+03,5.017057e+03
1.100192e+03,5.011482e+03
1.101156e+03,5.015115e+03
1.102120e+03,5.016922e+03
1.103085e+03,5.009709e+03
1.104049e+03,4.998887e+03
1.105013e+03,4.995357e+03
1.105977e+03,5.014100e+03
1.106942e+03,5.023638e+03
1.107906e+03,5.012135e+03
1.108870e+03,4.994336e+03
1.109834e+03,4.983511e+03
1.110799e+03,4.982686e+03
1.111763e+03,4.980940e+03
1.112727e+03,4.975467e+03
1.113691e+03,4.971904e+03
1.114656e+03,4.972620e+03
1.115620e+03,4.977180e+03
1.116584e+03,4.982318e+03
1.117548e+03,4.986677e+03
1.118512e+03,4.988804e+03
1.119477e+03,4.988802e+03
1.120441e+03,4.986732e+03
1.121405e+03,4.983380e+03
1.122369e+03,4.980751e+03
1.123334e+03,4.974195e+03
1.124298e+03,4.960885e+03
1.125262e+03,4.947824e+03
1.126226e+03,4.940491e+03
1.127191e+03,4.939993e+03
1.128155e+03,4.938349e+03
1.129119e+03,4.929500e+03
1.130083e+03,4.925597e+03
1.131047e+03,4.934016e+03
1.132012e+03,4.948973e+03
1.132976e+03,4.955291e+03
1.133940e+03,4.951474e+03
1.134904e+03,4.940642e+03
1.135869e+03,4.919347e+03
1.136833e+03,4.898471e+03
1.137797e+03,4.891396e+03
1.138761e+03,4.905505e+03
1.139726e+03,4.910624e+03
1.140690e+03,4.901461e+03
1.141654e+03,4.892228e+03
1.142618e+03,4.891534e+03
1.143583e+03,4.898236e+03
1.144547e+03,4.900582e+03
1.145511e+03,4.897598e+03
1.146475e+03,4.893105e+03
1.147439e+03,4.887533e+03
1.148404e+03,4.882265e+03
1.149368e+03,4.877784e+03
1.150332e+03,4.873369e+03
1.151296e+03,4.870954e+03
1.152261e+03,4.868470e+03
1.153225e+03,4.865301e+03
1.154189e+03,4.866568e+03
1.155153e+03,4.872601e+03
1.156118e+03,4.866802e+03
1.157082e+03,4.850400e+03
1.158046e+03,4.836477e+03
1.159010e+03,4.828082e+03
1.159974e+03,4.826369e+03
1.160939e+03,4.840046e+03
1.161903e+03,4.864374e+03
1.162867e+03,4.872343e+03
1.163831e+03,4.857580e+03
1.164796e+03,4.836539e+03
1.165760e+03,4.828264e+03
1.166724e+03,4.829237e+03
1.167688e+03,4.829216e+03
1.168653e+03,4.827610e+03
1.169617e+03,4.823912e+03
1.170581e+03,4.818575e+03
1.171545e+03,4.811564e+03
1.172510e+03,4.799436e+03
1.173474e+03,4.785931e+03
1.174438e+03,4.778391e+03
1.175402e+03,4.778517e+03
1.176366e+03,4.783250e+03
1.177331e+03,4.795005e+03
1.178295e+03,4.807985e+03
1.179259e+03,4.814803e+03
1.180223e+03,4.813829e+03
1.181188e+03,4.806579e+03
1.182152e+03,4.786348e+03
1.183116e+03,4.767940e+03
1.184080e+03,4.766265e+03
1.185045e+03,4.774604e+03
1.186009e+03,4.779757e+03
1.186973e+03,4.778832e+03
1.187937e+03,4.775305e+03
1.188901e+03,4.765282e+03
1.189866e+03,4.755702e+03
1.190830e+03,4.752042e+03
1.191794e+03,4.754011e+03
1.192758e+03,4.755814e+03
1.193723e+03,4.760604e+03
1.194687e+03,4.764251e+03
1.195651e+03,4.763541e+03
1.196615e+03,4.759422e+03
1.197580e+03,4.754550e+03
1.198544e+03,4.743675e+03
1.199508e+03,4.733456e+03
1.200472e+03,4.726623e+03
1.201437e+03,4.723055e+03
1.202401e+03,4.724567e+03
1.203365e+03,4.733942e+03
1.204329e+03,4.735014e+03
1.205293e+03,4.722070e+03
1.206258e+03,4.713619e+03
1.207222e+03,4.718545e+03
1.208186e+03,4.731538e+03
1.209150e+03,4.737945e+03
1.210115e+03,4.735891e+03
1.211079e+03,4.731631e+03
1.212043e+03,4.726794e+03
1.213007e+03,4.720087e+03
1.213972e+03,4.710428e+03
1.214936e+03,4.699796e+03
1.215900e+03,4.692570e+03
1.216864e+03,4.688929e+03
1.217828e+03,4.687537e+03
1.218793e+03,4.688716e+03
1.219757e+03,4.690357e+03
1.220721e+03,4.687070e+03
1.221685e+03,4.681641e+03
1.222650e+03,4.679980e+03
1.223614e+03,4.682271e+03
1.224578e+03,4.683773e+03
1.225542e+03,4.682844e+03
1.226507e+03,4.680484e+03
1.227471e+03,4.675320e+03
1.228435e+03,4.667335e+03
1.229399e+03,4.660362e+03
1.230364e+03,4.662187e+03
1.231328e+03,4.661565e+03
1.232292e+03,4.653356e+03
1.233256e+03,4.642268e+03
1.234220e+03,4.630728e+03
1.235185e+03,4.618200e+03
1.236149e+03,4.612495e+03
1.237113e+03,4.619083e+03
1.238077e+03,4.630627e+03
1.239042e+03,4.641667e+03
1.240006e+03,4.649931e+03
1.240970e+03,4.654828e+03
1.241934e+03,4.656462e+03
1.242899e+03,4.653861e+03
1.243863e+03,4.646299e+03
1.244827e+03,4.637471e+03
1.245791e+03,4.632207e+03
1.246755e+03,4.631646e+03
1.247720e+03,4.627417e+03
1.248684e+03,4.619031e+03
1.249648e+03,4.611543e+03
1.250612e+03,4.607313e+03
1.251577e+03,4.605441e+03
1.252541e+03,4.606067e+03
1.253505e+03,4.608278e+03
1.254469e+03,4.608849e+03
1.255434e+03,4.607667e+03
1.256398e+03,4.605994e+03
1.257362e+03,4.603300e+03
1.258326e+03,4.599335e+03
1.259291e+03,4.594735e+03
1.260255e+03,4.589255e+03
1.261219e+03,4.584003e+03
1.262183e+03,4.584875e+03
1.263147e+03,4.586356e+03
1.264112e+03,4.581854e+03
1.265076e+03,4.575138e+03
1.266040e+03,4.571467e+03
1.267004e+03,4.573810e+03
1.267969e+03,4.574193e+03
1.268933e+03,4.569155e+03
1.269897e+03,4.566250e+03
1.270861e+03,4.567131e+03
1.271826e+03,4.568322e+03
1.272790e+03,4.568642e+03
1.273754e+03,4.571908e+03
1.274718e+03,4.570540e+03
1.275682e+03,4.563486e+03
1.276647e+03,4.555007e+03
1.277611e+03,4.548857e+03
1.278575e+03,4.544580e+03
1.279539e+03,4.541148e+03
1.280504e+03,4.540917e+03
1.281468e+03,4.543229e+03
1.282432e+03,4.547222e+03
1.283396e+03,4.551354e+03
1.284361e+03,4.551325e+03
1.285325e+03,4.546971e+03
1.286289e+03,4.541482e+03
1.287253e+03,4.535330e+03
1.288218e+03,4.529016e+03
1.289182e+03,4.524163e+03
1.290146e+03,4.520173e+03
1.291110e+03,4.516397e+03
1.292074e+03,4.513524e+03
1.293039e+03,4.512038e+03
1.294003e+03,4.514978e+03
1.294967e+03,4.514227e+03
1.295931e+03,4.504252e+03
1.296896e+03,4.492692e+03
1.297860e+03,4.487147e+03
1.298824e+03,4.489329e+03
1.299788e+03,4.489900e+03
1.300753e+03,4.486149e+03
1.301717e+03,4.482776e+03
1.302681e+03,4.481758e+03
1.303645e+03,4.482575e+03
1.304609e+03,4.484336e+03
1.305574e+03,4.485751e+03
1.306538e+03,4.484500e+03
1.307502e+03,4.482389e+03
1.308466e+03,4.479410e+03
1.309431e+03,4.472380e+03
1.310395e+03,4.463500e+03
1.311359e+03,4.460264e+03
1.312323e+03,4.460045e+03
1.313288e+03,4.458902e+03
1.314252e+03,4.457430e+03
1.315216e+03,4.456817e+03
1.316180e+03,4.455533e+03
1.317145e+03,4.455279e+03
1.318109e+03,4.458084e+03
1.319073e+03,4.462205e+03
1.320037e+03,4.461913e+03
1.321001e+03,4.450586e+03
1.321966e+03,4.440038e+03
1.322930e+03,4.438409e+03
1.323894e+03,4.442572e+03
1.324858e+03,4.444021e+03
1.325823e+03,4.441351e+03
1.326787e+03,4.438335e+03
1.327751e+03,4.433077e+03
1.328715e+03,4.428429e+03
1.329680e+03,4.428009e+03
1.330644e+03,4.430154e+03
1.331608e+03,4.423484e+03
1.332572e+03,4.408891e+03
1.333536e+03,4.404977e+03
1.334501e+03,4.417312e+03
1.335465e+03,4.430477e+03
1.336429e+03,4.428203e+03
1.337393e+03,4.418749e+03
1.338358e+03,4.413611e+03
1.339322e+03,4.412260e+03
1.340286e+03,4.408660e+03
1.341250e+03,4.396732e+03
1.342215e+03,4.385417e+03
1.343179e+03,4.380364e+03
1.344143e+03,4.381268e+03
1.345107e+03,4.386342e+03
1.346072e+03,4.396067e+03
1.347036e+03,4.398396e+03
1.348000e+03,4.386579e+03
1.348964e+03,4.378011e+03
1.349928e+03,4.383022e+03
1.350893e+03,4.394694e+03
1.351857e+03,4.391337e+03
1.352821e+03,4.372828e+03
1.353785e+03,4.362585e+03
1.354750e+03,4.363028e+03
1.355714e+03,4.365031e+03
1.356678e+03,4.365138e+03
1.357642e+03,4.363324e+03
1.358607e+03,4.354217e+03
1.359571e+03,4.340780e+03
1.360535e+03,4.330938e+03
1.361499e+03,4.328990e+03
1.362464e+03,4.328761e+03
1.363428e+03,4.328134e+03
1.364392e+03,4.329139e+03
1.365356e+03,4.331871e+03
1.366320e+03,4.334044e+03
1.367285e+03,4.333179e+03
1.368249e+03,4.330959e+03
1.369213e+03,4.326088e+03
1.370177e+03,4.317472e+03
1.371142e+03,4.308090e+03
1.372106e+03,4.301983e+03
1.373070e+03,4.298648e+03
1.374034e+03,4.294152e+03
1.374999e+03,4.289614e+03
1.375963e+03,4.286195e+03
1.376927e+03,4.283629e+03
1.377891e+03,4.283215e+03
1.378855e+03,4.287983e+03
1.379820e+03,4.293706e+03
1.380784e+03,4.294906e+03
1.381748e+03,4.292052e+03
1.382712e+03,4.290550e+03
1.383677e+03,4.294126e+03
1.384641e+03,4.292004e+03
1.385605e+03,4.275851e+03
1.386569e+03,4.254461e+03
1.387534e+03,4.241943e+03
1.388498e+03,4.239906e+03
1.389462e+03,4.241586e+03
1.390426e+03,4.246286e+03
1.391391e+03,4.248933e+03
1.392355e+03,4.246806e+03
1.393319e+03,4.243276e+03
1.394283e+03,4.243606e+03
1.395247e+03,4.245764e+03
1.396212e+03,4.246444e+03
1.397176e+03,4.244948e+03
1.398140e+03,4.242206e+03
1.399104e+03,4.236384e+03
1.400069e+03,4.229967e+03
1.401033e+03,4.224044e+03
1.401997e+03,4.219198e+03
1.402961e+03,4.216896e+03
1.403926e+03,4.218735e+03
1.404890e+03,4.218419e+03
1.405854e+03,4.215663e+03
1.406818e+03,4.213278e+03
1.407782e+03,4.213223e+03
1.408747e+03,4.216380e+03
1.409711e+03,4.223397e+03
1.410675e+03,4.230767e+03
1.411639e+03,4.233148e+03
1.412604e+03,4.229445e+03
1.413568e+03,4.222763e+03
1.414532e+03,4.215903e+03
1.415496e+03,4.209570e+03
1.416461e+03,4.200738e+03
1.417425e+03,4.189973e+03
1.418389e+03,4.183831e+03
1.419353e+03,4.189565e+03
1.420318e+03,4.191239e+03
1.421282e+03,4.188696e+03
1.422246e+03,4.184093e+03
1.423210e+03,4.177640e+03
1.424174e+03,4.170518e+03
1.425139e+03,4.166283e+03
1.426103e+03,4.163878e+03
1.427067e+03,4.165125e+03
1.428031e+03,4.171913e+03
1.428996e+03,4.177409e+03
1.429960e+03,4.171767e+03
1.430924e+03,4.162149e+03
1.431888e+03,4.154721e+03
1.432853e+03,4.150576e+03
1.433817e+03,4.150240e+03
1.434781e+03,4.162540e+03
1.435745e+03,4.167929e+03
1.436709e+03,4.160611e+03
1.437674e+03,4.146820e+03
1.438638e+03,4.131199e+03
1.439602e+03,4.116026e+03
1.440566e+03,4.115304e+03
1.441531e+03,4.127012e+03
1.442495e+03,4.134697e+03
1.443459e+03,4.130901e+03
1.444423e+03,4.125053e+03
1.445388e+03,4.127574e+03
1.446352e+03,4.130704e+03
1.447316e+03,4.127452e+03
1.448280e+03,4.119642e+03
1.449245e+03,4.112041e+03
1.450209e+03,4.102261e+03
1.451173e+03,4.097898e+03
1.452137e+03,4.099486e+03
1.453101e+03,4.102002e+03
1.454066e+03,4.102460e+03
1.455030e+03,4.101246e+03
1.455994e+03,4.100368e+03
1.456958e+03,4.099436e+03
1.457923e+03,4.095229e+03
1.458887e+03,4.083776e+03
1.459851e+03,4.075419e+03
1.460815e+03,4.084104e+03
1.461780e+03,4.095184e+03
1.462744e+03,4.097906e+03
1.463708e+03,4.092983e+03
1.464672e+03,4.085931e+03
1.465636e+03,4.077630e+03
1.466601e+03,4.070606e+03
1.467565e+03,4.064963e+03
1.468529e+03,4.060748e+03
1.469493e+03,4.056771e+03
1.470458e+03,4.052452e+03
1.471422e+03,4.049926e+03
1.472386e+03,4.049631e+03
1.473350e+03,4.050439e+03
1.474315e+03,4.051255e+03
1.475279e+03,4.051712e+03
1.476243e+03,4.052477e+03
1.477207e+03,4.050713e+03
1.478172e+03,4.044714e+03
1.479136e+03,4.036046e+03
1.480100e+03,4.029861e+03
1.481064e+03,4.027543e+03
1.482028e+03,4.023823e+03
1.482993e+03,4.018346e+03
1.483957e+03,4.013593e+03
1.484921e+03,4.009802e+03
1.485885e+03,4.007864e+03
1.486850e+03,4.009987e+03
1.487814e+03,4.013924e+03
1.488778e+03,4.018288e+03
1.489742e+03,4.025278e+03
1.490707e+03,4.024748e+03
1.491671e+03,4.008052e+03
1.492635e+03,3.993711e+03
1.493599e+03,3.988505e+03
1.494563e+03,3.988841e+03
1.495528e+03,3.988167e+03
1.496492e+03,3.985892e+03
1.497456e+03,3.983941e+03
1.498420e+03,3.983789e+03
1.499385e+03,3.983532e+03
1.500349e+03,3.982483e+03
1.501313e+03,3.980052e+03
1.502277e+03,3.972177e+03
1.503242e+03,3.962848e+03
1.504206e+03,3.958224e+03
1.505170e+03,3.959852e+03
1.506134e+03,3.962070e+03
1.507099e+03,3.966821e+03
1.508063e+03,3.967532e+03
1.509027e+03,3.960679e+03
1.509991e+03,3.950888e+03
1.510955e+03,3.947037e+03
1.511920e+03,3.946254e+03
1.512884e+03,3.942527e+03
1.513848e+03,3.937156e+03
1.514812e+03,3.933075e+03
1.515777e+03,3.927883e+03
1.516741e+03,3.923192e+03
1.517705e+03,3.916891e+03
1.518669e+03,3.913183e+03
1.519634e+03,3.918181e+03
1.520598e+03,3.930500e+03
1.521562e+03,3.934761e+03
1.522526e+03,3.930481e+03
1.523490e+03,3.929195e+03
1.524455e+03,3.936336e+03
1.525419e+03,3.940529e+03
1.526383e+03,3.927966e+03
1.527347e+03,3.911005e+03
1.528312e+03,3.901925e+03
1.529276e+03,3.901078e+03
1.530240e+03,3.900448e+03
1.531204e+03,3.898495e+03
1.532169e+03,3.894611e+03
1.533133e+03,3.888082e+03
1.534097e+03,3.883140e+03
1.535061e+03,3.884630e+03
1.536026e+03,3.887220e+03
1.536990e+03,3.879318e+03
1.537954e+03,3.867390e+03
1.538918e+03,3.864612e+03
1.539882e+03,3.875240e+03
1.540847e+03,3.881179e+03
1.541811e+03,3.869163e+03
1.542775e+03,3.860962e+03
1.543739e+03,3.866394e+03
1.544704e+03,3.877183e+03
1.545668e+03,3.877550e+03
1.546632e+03,3.870577e+03
1.547596e+03,3.869821e+03
1.548561e+03,3.874635e+03
1.549525e+03,3.876738e+03
1.550489e+03,3.867522e+03
1.551453e+03,3.857776e+03
1.552417e+03,3.849974e+03
1.553382e+03,3.846044e+03
1.554346e+03,3.850710e+03
1.555310e+03,3.862618e+03
1.556274e+03,3.861323e+03
1.557239e+03,3.846903e+03
1.558203e+03,3.840535e+03
1.559167e+03,3.847979e+03
1.560131e+03,3.853920e+03
1.561096e+03,3.840362e+03
1.562060e+03,3.824797e+03
1.563024e+03,3.819935e+03
1.563988e+03,3.824329e+03
1.564953e+03,3.833802e+03
1.565917e+03,3.853010e+03
1.566881e+03,3.857672e+03
1.567845e+03,3.844729e+03
1.568809e+03,3.831060e+03
1.569774e+03,3.826038e+03
1.570738e+03,3.825874e+03
1.571702e+03,3.828742e+03
1.572666e+03,3.830942e+03
1.573631e+03,3.828424e+03
1.574595e+03,3.821751e+03
1.575559e+03,3.809785e+03
1.576523e+03,3.785778e+03
1.577488e+03,3.775976e+03
1.578452e+03,3.785670e+03
1.579416e+03,3.799935e+03
1.580380e+03,3.804333e+03
1.581344e+03,3.803128e+03
1.582309e+03,3.803536e+03
1.583273e+03,3.806014e+03
1.584237e+03,3.810797e+03
1.585201e+03,3.822347e+03
1.586166e+03,3.823998e+03
1.587130e+03,3.809034e+03
1.588094e+03,3.791143e+03
1.589058e+03,3.775411e+03
1.590023e+03,3.764475e+03
1.590987e+03,3.765037e+03
1.591951e+03,3.773876e+03
1.592915e+03,3.781145e+03
1.593880e+03,3.783767e+03
1.594844e+03,3.782354e+03
1.595808e+03,3.772711e+03
1.596772e+03,3.767078e+03
1.597736e+03,3.772441e+03
1.598701e+03,3.777792e+03
1.599665e+03,3.771031e+03
1.600629e+03,3.755960e+03
1.601593e+03,3.748133e+03
1.602558e+03,3.745876e+03
1.603522e+03,3.744655e+03
1.604486e+03,3.743396e+03
1.605450e+03,3.739957e+03
1.606415e+03,3.732730e+03
1.607379e+03,3.726885e+03
1.608343e+03,3.723411e+03
1.609307e+03,3.721800e+03
1.610271e+03,3.722868e+03
1.611236e+03,3.725136e+03
1.612200e+03,3.723934e+03
1.613164e+03,3.720340e+03
1.614128e+03,3.716638e+03
1.615093e+03,3.711339e+03
1.616057e+03,3.707961e+03
1.617021e+03,3.707780e+03
1.617985e+03,3.707715e+03
1.618950e+03,3.707560e+03
1.619914e+03,3.706968e+03
1.620878e+03,3.703741e+03
1.621842e+03,3.698693e+03
1.622807e+03,3.692657e+03
1.623771e+03,3.686485e+03
1.624735e+03,3.681946e+03
1.625699e+03,3.678137e+03
1.626663e+03,3.675320e+03
1.627628e+03,3.672718e+03
1.628592e+03,3.669267e+03
1.629556e+03,3.668081e+03
1.630520e+03,3.669426e+03
1.631485e+03,3.661027e+03
1.632449e+03,3.645315e+03
1.633413e+03,3.634709e+03
1.634377e+03,3.636355e+03
1.635342e+03,3.638920e+03
1.636306e+03,3.641213e+03
1.637270e+03,3.639553e+03
1.638234e+03,3.628992e+03
1.639198e+03,3.616897e+03
1.640163e+03,3.622376e+03
1.641127e+03,3.640183e+03
1.642091e+03,3.650591e+03
1.643055e+03,3.650476e+03
1.644020e+03,3.645858e+03
1.644984e+03,3.635477e+03
1.645948e+03,3.623965e+03
1.646912e+03,3.611114e+03
1.647877e+03,3.601946e+03
1.648841e+03,3.602920e+03
1.649805e+03,3.610427e+03
1.650769e+03,3.612279e+03
1.651734e+03,3.609560e+03
1.652698e+03,3.605050e+03
1.653662e+03,3.597522e+03
1.654626e+03,3.593706e+03
1.655590e+03,3.599659e+03
1.656555e+03,3.602384e+03
1.657519e+03,3.599638e+03
1.658483e+03,3.594547e+03
1.659447e+03,3.586667e+03
1.660412e+03,3.577503e+03
1.661376e+03,3.574328e+03
1.662340e+03,3.576591e+03
1.663304e+03,3.578500e+03
1.664269e+03,3.576416e+03
1.665233e+03,3.572631e+03
1.666197e+03,3.565500e+03
1.667161e+03,3.558404e+03
1.668125e+03,3.553569e+03
1.669090e+03,3.551534e+03
1.670054e+03,3.558500e+03
1.671018e+03,3.565847e+03
1.671982e+03,3.559556e+03
1.672947e+03,3.539932e+03
1.673911e+03,3.531115e+03
1.674875e+03,3.534263e+03
1.675839e+03,3.539539e+03
1.676804e+03,3.547888e+03
1.677768e+03,3.554072e+03
1.678732e+03,3.552155e+03
1.679696e+03,3.543920e+03
1.680661e+03,3.524060e+03
1.681625e+03,3.501320e+03
1.682589e+03,3.491477e+03
1.683553e+03,3.496346e+03
1.684517e+03,3.504626e+03
1.685482e+03,3.515503e+03
1.686446e+03,3.519013e+03
1.687410e+03,3.510913e+03
1.688374e+03,3.502456e+03
1.689339e+03,3.500082e+03
1.690303e+03,3.502058e+03
1.691267e+03,3.511533e+03
1.692231e+03,3.521841e+03
1.693196e+03,3.517967e+03
1.694160e+03,3.501573e+03
1.695124e+03,3.493937e+03
1.696088e+03,3.494710e+03
1.697052e+03,3.493152e+03
1.698017e+03,3.474629e+03
1.698981e+03,3.465815e+03
1.699945e+03,3.478305e+03
1.700909e+03,3.491052e+03
1.701874e+03,3.497186e+03
1.702838e+03,3.498721e+03
1.703802e+03,3.493419e+03
1.704766e+03,3.482490e+03
1.705731e+03,3.470076e+03
1.706695e+03,3.458042e+03
1.707659e+03,3.453229e+03
1.708623e+03,3.462500e+03
1.709588e+03,3.467052e+03
1.710552e+03,3.462140e+03
1.711516e+03,3.453798e+03
1.712480e+03,3.446188e+03
1.713444e+03,3.440332e+03
1.714409e+03,3.441463e+03
1.715373e+03,3.445106e+03
1.716337e+03,3.441403e+03
1.717301e+03,3.430940e+03
1.718266e+03,3.435221e+03
1.719230e+03,3.452739e+03
1.720194e+03,3.453946e+03
1.721158e+03,3.428153e+03
1.722123e+03,3.404082e+03
1.723087e+03,3.405911e+03
1.724051e+03,3.411265e+03
1.725015e+03,3.408004e+03
1.725979e+03,3.403973e+03
1.726944e+03,3.412000e+03
1.727908e+03,3.427583e+03
1.728872e+03,3.431854e+03
1.729836e+03,3.424956e+03
1.730801e+03,3.413685e+03
1.731765e+03,3.396247e+03
1.732729e+03,3.386568e+03
1.733693e+03,3.386531e+03
1.734658e+03,3.393165e+03
1.735622e+03,3.408308e+03
1.736586e+03,3.420229e+03
1.737550e+03,3.406853e+03
1.738515e+03,3.384231e+03
1.739479e+03,3.370585e+03
1.740443e+03,3.366789e+03
1.741407e+03,3.365987e+03
1.742371e+03,3.368836e+03
1.743336e+03,3.368432e+03
1.744300e+03,3.364068e+03
1.745264e+03,3.358451e+03
1.746228e+03,3.354175e+03
1.747193e+03,3.351904e+03
1.748157e+03,3.355738e+03
1.749121e+03,3.360936e+03
1.750085e+03,3.360509e+03
1.751050e+03,3.353462e+03
1.752014e+03,3.344420e+03
1.752978e+03,3.336098e+03
1.753942e+03,3.334220e+03
1.754906e+03,3.339184e+03
1.755871e+03,3.341139e+03
1.756835e+03,3.335929e+03
1.757799e+03,3.327449e+03
1.758763e+03,3.319083e+03
1.759728e+03,3.313688e+03
1.760692e+03,3.315944e+03
1.761656e+03,3.319089e+03
1.762620e+03,3.310578e+03
1.763585e+03,3.300074e+03
1.764549e+03,3.303522e+03
1.765513e+03,3.319186e+03
1.766477e+03,3.326477e+03
1.767442e+03,3.326494e+03
1.768406e+03,3.318437e+03
1.769370e+03,3.299973e+03
1.770334e+03,3.289086e+03
1.771298e+03,3.302129e+03
1.772263e+03,3.308612e+03
1.773227e+03,3.299592e+03
1.774191e+03,3.285448e+03
1.775155e+03,3.274911e+03
1.776120e+03,3.270644e+03
1.777084e+03,3.286067e+03
1.778048e+03,3.310673e+03
1.779012e+03,3.313651e+03
1.779977e+03,3.287581e+03
1.780941e+03,3.273258e+03
1.781905e+03,3.269078e+03
1.782869e+03,3.270230e+03
1.783833e+03,3.277587e+03
1.784798e+03,3.282113e+03
1.785762e+03,3.277128e+03
1.786726e+03,3.267587e+03
1.787690e+03,3.255204e+03
1.788655e+03,3.242873e+03
1.789619e+03,3.234475e+03
1.790583e+03,3.229604e+03
1.791547e+03,3.226048e+03
1.792512e+03,3.224583e+03
1.793476e+03,3.229553e+03
1.794440e+03,3.243988e+03
1.795404e+03,3.248378e+03
1.796369e+03,3.240342e+03
1.797333e+03,3.234493e+03
1.798297e+03,3.241746e+03
1.799261e+03,3.250834e+03
1.800225e+03,3.257915e+03
1.801190e+03,3.256240e+03
1.802154e+03,3.239995e+03
1.803118e+03,3.216418e+03
1.804082e+03,3.205102e+03
1.805047e+03,3.204482e+03
1.806011e+03,3.212756e+03
1.806975e+03,3.227679e+03
1.807939e+03,3.231781e+03
1.808904e+03,3.219599e+03
1.809868e+03,3.205050e+03
1.810832e+03,3.190005e+03
1.811796e+03,3.180996e+03
1.812760e+03,3.185670e+03
1.813725e+03,3.193394e+03
1.814689e+03,3.201562e+03
1.815653e+03,3.205817e+03
1.816617e+03,3.201984e+03
1.817582e+03,3.192721e+03
1.818546e+03,3.185193e+03
1.819510e+03,3.178479e+03
1.820474e+03,3.169846e+03
1.821439e+03,3.159719e+03
1.822403e+03,3.159196e+03
1.823367e+03,3.171348e+03
1.824331e+03,3.181552e+03
1.825296e+03,3.186679e+03
1.826260e+03,3.187457e+03
1.827224e+03,3.186747e+03
1.828188e+03,3.184536e+03
1.829152e+03,3.175647e+03
1.830117e+03,3.166771e+03
1.831081e+03,3.164330e+03
1.832045e+03,3.164794e+03
1.833009e+03,3.161458e+03
1.833974e+03,3.157985e+03
1.834938e+03,3.156412e+03
1.835902e+03,3.155956e+03
1.836866e+03,3.153332e+03
1.837831e+03,3.148108e+03
1.838795e+03,3.143327e+03
1.839759e+03,3.141018e+03
1.840723e+03,3.140137e+03
1.841688e+03,3.141166e+03
1.842652e+03,3.138147e+03
1.843616e+03,3.125333e+03
1.844580e+03,3.111614e+03
1.845544e+03,3.107508e+03
1.846509e+03,3.110879e+03
1.847473e+03,3.124231e+03
1.848437e+03,3.138328e+03
1.849401e+03,3.132128e+03
1.850366e+03,3.106134e+03
1.851330e+03,3.095140e+03
1.852294e+03,3.098183e+03
1.853258e+03,3.097786e+03
1.854223e+03,3.088894e+03
1.855187e+03,3.081733e+03
1.856151e+03,3.078256e+03
1.857115e+03,3.079340e+03
1.858079e+03,3.086171e+03
1.859044e+03,3.092005e+03
1.860008e+03,3.089747e+03
1.860972e+03,3.085724e+03
1.861936e+03,3.086162e+03
1.862901e+03,3.088383e+03
1.863865e+03,3.086957e+03
1.864829e+03,3.080267e+03
1.865793e+03,3.068487e+03
1.866758e+03,3.056132e+03
1.867722e+03,3.055585e+03
1.868686e+03,3.072839e+03
1.869650e+03,3.079197e+03
1.870615e+03,3.070109e+03
1.871579e+03,3.059538e+03
1.872543e+03,3.052100e+03
1.873507e+03,3.049534e+03
1.874471e+03,3.054768e+03
1.875436e+03,3.056507e+03
1.876400e+03,3.050439e+03
1.877364e+03,3.041573e+03
1.878328e+03,3.034510e+03
1.879293e+03,3.028740e+03
1.880257e+03,3.019502e+03
1.881221e+03,3.010836e+03
1.882185e+03,3.016946e+03
1.883150e+03,3.039416e+03
1.884114e+03,3.038652e+03
1.885078e+03,3.017829e+03
1.886042e+03,3.005883e+03
1.887006e+03,3.012021e+03
1.887971e+03,3.017380e+03
1.888935e+03,3.018425e+03
1.889899e+03,3.017627e+03
1.890863e+03,3.013493e+03
1.891828e+03,3.007604e+03
1.892792e+03,3.004163e+03
1.893756e+03,2.999875e+03
1.894720e+03,2.995713e+03
1.895685e+03,2.991007e+03
1.896649e+03,2.979055e+03
1.897613e+03,2.962911e+03
1.898577e+03,2.958502e+03
1.899542e+03,2.961687e+03
1.900506e+03,2.962017e+03
1.901470e+03,2.956841e+03
1.902434e+03,2.957994e+03
1.903398e+03,2.965163e+03
1.904363e+03,2.966554e+03
1.905327e+03,2.958801e+03
1.906291e+03,2.955059e+03
1.907255e+03,2.966862e+03
1.908220e+03,2.971280e+03
1.909184e+03,2.963612e+03
1.910148e+03,2.950317e+03
1.911112e+03,2.933286e+03
1.912077e+03,2.921173e+03
1.913041e+03,2.928328e+03
1.914005e+03,2.937897e+03
1.914969e+03,2.929532e+03
1.915933e+03,2.910237e+03
1.916898e+03,2.903601e+03
1.917862e+03,2.906674e+03
1.918826e+03,2.912441e+03
1.919790e+03,2.920703e+03
1.920755e+03,2.936797e+03
1.921719e+03,2.958044e+03
1.922683e+03,2.958241e+03
1.923647e+03,2.932593e+03
1.924612e+03,2.910745e+03
1.925576e+03,2.906261e+03
1.926540e+03,2.909323e+03
1.927504e+03,2.919025e+03
1.928469e+03,2.923834e+03
1.929433e+03,2.905177e+03
1.930397e+03,2.886776e+03
1.931361e+03,2.891549e+03
1.932325e+03,2.899426e+03
1.933290e+03,2.893839e+03
1.934254e+03,2.884623e+03
1.935218e+03,2.894295e+03
1.936182e+03,2.909757e+03
1.937147e+03,2.912712e+03
1.938111e+03,2.904153e+03
1.939075e+03,2.895333e+03
1.940039e+03,2.887445e+03
1.941004e+03,2.878028e+03
1.941968e+03,2.865253e+03
1.942932e+03,2.856750e+03
1.943896e+03,2.855782e+03
1.944860e+03,2.861510e+03
1.945825e+03,2.875860e+03
1.946789e+03,2.882486e+03
1.947753e+03,2.855433e+03
1.948717e+03,2.835860e+03
1.949682e+03,2.843950e+03
1.950646e+03,2.856078e+03
1.951610e+03,2.859825e+03
1.952574e+03,2.858098e+03
1.953539e+03,2.853516e+03
1.954503e+03,2.846591e+03
1.955467e+03,2.837597e+03
1.956431e+03,2.828797e+03
1.957396e+03,2.824021e+03
1.958360e+03,2.822122e+03
1.959324e+03,2.823365e+03
1.960288e+03,2.827972e+03
1.961252e+03,2.830429e+03
1.962217e+03,2.828909e+03
1.963181e+03,2.824333e+03
1.964145e+03,2.816760e+03
1.965109e+03,2.809770e+03
1.966074e+03,2.804353e+03
1.967038e+03,2.805695e+03
1.968002e+03,2.812698e+03
1.968966e+03,2.815081e+03
1.969931e+03,2.807272e+03
1.970895e+03,2.796945e+03
1.971859e+03,2.792880e+03
1.972823e+03,2.789681e+03
1.973787e+03,2.782777e+03
1.974752e+03,2.775990e+03
1.975716e+03,2.778530e+03
1.976680e+03,2.782225e+03
1.977644e+03,2.777782e+03
1.978609e+03,2.772188e+03
1.979573e+03,2.775966e+03
1.980537e+03,2.785206e+03
1.981501e+03,2.790175e+03
1.982466e+03,2.791282e+03
1.983430e+03,2.788105e+03
1.984394e+03,2.779556e+03
1.985358e+03,2.779003e+03
1.986323e+03,2.784271e+03
1.987287e+03,2.784094e+03
1.988251e+03,2.773860e+03
1.989215e+03,2.762691e+03
1.990179e+03,2.752006e+03
1.991144e+03,2.744087e+03
1.992108e+03,2.740533e+03
1.993072e+03,2.739495e+03
1.994036e+03,2.738328e+03
1.995001e+03,2.739133e+03
1.995965e+03,2.742592e+03
1.996929e+03,2.747878e+03
1.997893e+03,2.754786e+03
1.998858e+03,2.758810e+03
1.999822e+03,2.753846e+03
2.000786e+03,2.746162e+03
2.001750e+03,2.743823e+03
2.002714e+03,2.745328e+03
2.003679e+03,2.743255e+03
2.004643e+03,2.737368e+03
2.005607e+03,2.726750e+03
2.006571e+03,2.714770e+03
2.007536e+03,2.713211e+03
2.008500e+03,2.718752e+03
2.009464e+03,2.721032e+03
2.010428e+03,2.719032e+03
2.011393e+03,2.709620e+03
2.012357e+03,2.691296e+03
2.013321e+03,2.693398e+03
2.014285e+03,2.713692e+03
2.015250e+03,2.723641e+03
2.016214e+03,2.696094e+03
2.017178e+03,2.684426e+03
2.018142e+03,2.693118e+03
2.019106e+03,2.699409e+03
2.020071e+03,2.688376e+03
2.021035e+03,2.679158e+03
2.021999e+03,2.683014e+03
2.022963e+03,2.685124e+03
2.023928e+03,2.681010e+03
2.024892e+03,2.674318e+03
2.025856e+03,2.665622e+03
2.026820e+03,2.659575e+03
2.027785e+03,2.659334e+03
2.028749e+03,2.660723e+03
2.029713e+03,2.659926e+03
2.030677e+03,2.657858e+03
2.031641e+03,2.652472e+03
2.032606e+03,2.647355e+03
2.033570e+03,2.650077e+03
2.034534e+03,2.657277e+03
2.035498e+03,2.657079e+03
2.036463e+03,2.651219e+03
2.037427e+03,2.641519e+03
2.038391e+03,2.630175e+03
2.039355e+03,2.619283e+03
2.040320e+03,2.610462e+03
2.041284e+03,2.610953e+03
2.042248e+03,2.621917e+03
2.043212e+03,2.621568e+03
2.044177e+03,2.608124e+03
2.045141e+03,2.610764e+03
2.046105e+03,2.632661e+03
2.047069e+03,2.645628e+03
2.048033e+03,2.626111e+03
2.048998e+03,2.611419e+03
2.049962e+03,2.605416e+03
2.050926e+03,2.603159e+03
2.051890e+03,2.603923e+03
2.052854e+03,2.603556e+03
2.053819e+03,2.600344e+03
2.054783e+03,2.592543e+03
2.055747e+03,2.579040e+03
2.056711e+03,2.567581e+03
2.057676e+03,2.566279e+03
2.058640e+03,2.568273e+03
2.059604e+03,2.568613e+03
2.060568e+03,2.566138e+03
2.061533e+03,2.556719e+03
2.062497e+03,2.549154e+03
2.063461e+03,2.555280e+03
2.064425e+03,2.566004e+03
2.065390e+03,2.569192e+03
2.066354e+03,2.567497e+03
2.067318e+03,2.567996e+03
2.068282e+03,2.568093e+03
2.069247e+03,2.560526e+03
2.070211e+03,2.546221e+03
2.071175e+03,2.532889e+03
2.072139e+03,2.523049e+03
2.073104e+03,2.525186e+03
2.074068e+03,2.539005e+03
2.075032e+03,2.537940e+03
2.075996e+03,2.525230e+03
2.076960e+03,2.519995e+03
2.077925e+03,2.525565e+03
2.078889e+03,2.530140e+03
2.079853e+03,2.532994e+03
2.080817e+03,2.533275e+03
2.081782e+03,2.530638e+03
2.082746e+03,2.523516e+03
2.083710e+03,2.509379e+03
2.084674e+03,2.500726e+03
2.085639e+03,2.499669e+03
2.086603e+03,2.507232e+03
2.087567e+03,2.530222e+03
2.088531e+03,2.538396e+03
2.089496e+03,2.525073e+03
2.090460e+03,2.508494e+03
2.091424e+03,2.499487e+03
2.092388e+03,2.496890e+03
2.093353e+03,2.503742e+03
2.094317e+03,2.506394e+03
2.095281e+03,2.496262e+03
2.096245e+03,2.487418e+03
2.097209e+03,2.502989e+03
2.098174e+03,2.512083e+03
2.099138e+03,2.501097e+03
2.100102e+03,2.484840e+03
2.101066e+03,2.479198e+03
2.102031e+03,2.475188e+03
2.102995e+03,2.462155e+03
2.103959e+03,2.449681e+03
2.104923e+03,2.444689e+03
2.105887e+03,2.448167e+03
2.106852e+03,2.464893e+03
2.107816e+03,2.479542e+03
2.108780e+03,2.477475e+03
2.109744e+03,2.465475e+03
2.110708e+03,2.461434e+03
2.111673e+03,2.462045e+03
2.112637e+03,2.459045e+03
2.113601e+03,2.452627e+03
2.114565e+03,2.447599e+03
2.115530e+03,2.443317e+03
2.116494e+03,2.436609e+03
2.117458e+03,2.432401e+03
2.118422e+03,2.436180e+03
2.119387e+03,2.444560e+03
2.120351e+03,2.453580e+03
2.121315e+03,2.459499e+03
2.122279e+03,2.454397e+03
2.123244e+03,2.437871e+03
2.124208e+03,2.432168e+03
2.125172e+03,2.435019e+03
2.126136e+03,2.436247e+03
2.127101e+03,2.433952e+03
2.128065e+03,2.422033e+03
2.129029e+03,2.402531e+03
2.129993e+03,2.398742e+03
2.130958e+03,2.412852e+03
2.131922e+03,2.417035e+03
2.132886e+03,2.409272e+03
2.133850e+03,2.402046e+03
2.134814e+03,2.399034e+03
2.135779e+03,2.396870e+03
2.136743e+03,2.392292e+03
2.137707e+03,2.389637e+03
2.138671e+03,2.389770e+03
2.139636e+03,2.387901e+03
2.140600e+03,2.379008e+03
2.141564e+03,2.374204e+03
2.142528e+03,2.374907e+03
2.143493e+03,2.373560e+03
2.144457e+03,2.364883e+03
2.145421e+03,2.357706e+03
2.146385e+03,2.355683e+03
2.147350e+03,2.351483e+03
2.148314e+03,2.343685e+03
2.149278e+03,2.341530e+03
2.150242e+03,2.351974e+03
2.151207e+03,2.361443e+03
2.152171e+03,2.367680e+03
2.153135e+03,2.367398e+03
2.154099e+03,2.356758e+03
2.155063e+03,2.347957e+03
2.156028e+03,2.344609e+03
2.156992e+03,2.343420e+03
2.157956e+03,2.338731e+03
2.158920e+03,2.334080e+03
2.159885e+03,2.328714e+03
2.160849e+03,2.330999e+03
2.161813e+03,2.350608e+03
2.162777e+03,2.364115e+03
2.163741e+03,2.346653e+03
2.164706e+03,2.322997e+03
2.165670e+03,2.301649e+03
2.166634e+03,2.290860e+03
2.167598e+03,2.306706e+03
2.168563e+03,2.321883e+03
2.169527e+03,2.322356e+03
2.170491e+03,2.315211e+03
2.171455e+03,2.306372e+03
2.172420e+03,2.301136e+03
2.173384e+03,2.305279e+03
2.174348e+03,2.310828e+03
2.175312e+03,2.311300e+03
2.176277e+03,2.307736e+03
2.177241e+03,2.300917e+03
2.178205e+03,2.291196e+03
2.179169e+03,2.276678e+03
2.180134e+03,2.267983e+03
2.181098e+03,2.286509e+03
2.182062e+03,2.304962e+03
2.183026e+03,2.302083e+03
2.183990e+03,2.290626e+03
2.184955e+03,2.290206e+03
2.185919e+03,2.289825e+03
2.186883e+03,2.277095e+03
2.187847e+03,2.262833e+03
2.188812e+03,2.265257e+03
2.189776e+03,2.271764e+03
2.190740e+03,2.265607e+03
2.191704e+03,2.256341e+03
2.192668e+03,2.254448e+03
2.193633e+03,2.255983e+03
2.194597e+03,2.256851e+03
2.195561e+03,2.255617e+03
2.196525e+03,2.248247e+03
2.197490e+03,2.239975e+03
2.198454e+03,2.243031e+03
2.199418e+03,2.247461e+03
2.200382e+03,2.244427e+03
2.201347e+03,2.239418e+03
2.202311e+03,2.238930e+03
2.203275e+03,2.240230e+03
2.204239e+03,2.239840e+03
2.205204e+03,2.236039e+03
2.206168e+03,2.227853e+03
2.207132e+03,2.220194e+03
2.208096e+03,2.218532e+03
2.209061e+03,2.217493e+03
2.210025e+03,2.212680e+03
2.210989e+03,2.206924e+03
2.211953e+03,2.206736e+03
2.212917e+03,2.210350e+03
2.213882e+03,2.207769e+03
2.214846e+03,2.203608e+03
2.215810e+03,2.216467e+03
2.216774e+03,2.225602e+03
2.217739e+03,2.215073e+03
2.218703e+03,2.196843e+03
2.219667e+03,2.186966e+03
2.220631e+03,2.184502e+03
2.221595e+03,2.190740e+03
2.222560e+03,2.196737e+03
2.223524e+03,2.186915e+03
2.224488e+03,2.173904e+03
2.225452e+03,2.174218e+03
2.226417e+03,2.180159e+03
2.227381e+03,2.188248e+03
2.228345e+03,2.193634e+03
2.229309e+03,2.180147e+03
2.230274e+03,2.166493e+03
2.231238e+03,2.173468e+03
2.232202e+03,2.185332e+03
2.233166e+03,2.181857e+03
2.234131e+03,2.170501e+03
2.235095e+03,2.153912e+03
2.236059e+03,2.140084e+03
2.237023e+03,2.146094e+03
2.237988e+03,2.152914e+03
2.238952e+03,2.145766e+03
2.239916e+03,2.133125e+03
2.240880e+03,2.123605e+03
2.241844e+03,2.121939e+03
2.242809e+03,2.134371e+03
2.243773e+03,2.148271e+03
2.244737e+03,2.148286e+03
2.245701e+03,2.145137e+03
2.246666e+03,2.149460e+03
2.247630e+03,2.150451e+03
2.248594e+03,2.139284e+03
2.249558e+03,2.129629e+03
2.250522e+03,2.136881e+03
2.251487e+03,2.145427e+03
2.252451e+03,2.146606e+03
2.253415e+03,2.140325e+03
2.254379e+03,2.122822e+03
2.255344e+03,2.111708e+03
2.256308e+03,2.116510e+03
2.257272e+03,2.120520e+03
2.258236e+03,2.098780e+03
2.259201e+03,2.086029e+03
2.260165e+03,2.093885e+03
2.261129e+03,2.104558e+03
2.262093e+03,2.103399e+03
2.263058e+03,2.098482e+03
2.264022e+03,2.093965e+03
2.264986e+03,2.090600e+03
2.265950e+03,2.083894e+03
2.266915e+03,2.085121e+03
2.267879e+03,2.099101e+03
2.268843e+03,2.102894e+03
2.269807e+03,2.086291e+03
2.270771e+03,2.068699e+03
2.271736e+03,2.055302e+03
2.272700e+03,2.055283e+03
2.273664e+03,2.071527e+03
2.274628e+03,2.080741e+03
2.275593e+03,2.068456e+03
2.276557e+03,2.058352e+03
2.277521e+03,2.055432e+03
2.278485e+03,2.057486e+03
2.279449e+03,2.066937e+03
2.280414e+03,2.070547e+03
2.281378e+03,2.067488e+03
2.282342e+03,2.066189e+03
2.283306e+03,2.074380e+03
2.284271e+03,2.068467e+03
2.285235e+03,2.049548e+03
2.286199e+03,2.038436e+03
2.287163e+03,2.048814e+03
2.288128e+03,2.052475e+03
2.289092e+03,2.047905e+03
2.290056e+03,2.043043e+03
2.291020e+03,2.040260e+03
2.291985e+03,2.036094e+03
2.292949e+03,2.032398e+03
2.293913e+03,2.032029e+03
2.294877e+03,2.034591e+03
2.295842e+03,2.039962e+03
2.296806e+03,2.046086e+03
2.297770e+03,2.048830e+03
2.298734e+03,2.046812e+03
2.299698e+03,2.036605e+03
2.300663e+03,2.020988e+03
2.301627e+03,2.013904e+03
2.302591e+03,2.012824e+03
2.303555e+03,2.013281e+03
2.304520e+03,2.014746e+03
2.305484e+03,2.016224e+03
2.306448e+03,2.016995e+03
2.307412e+03,2.013999e+03
2.308376e+03,2.008116e+03
2.309341e+03,2.004030e+03
2.310305e+03,1.998976e+03
2.311269e+03,1.988667e+03
2.312233e+03,1.979156e+03
2.313198e+03,1.979725e+03
2.314162e+03,1.982448e+03
2.315126e+03,1.978420e+03
2.316090e+03,1.973476e+03
2.317055e+03,1.977134e+03
2.318019e+03,1.981292e+03
2.318983e+03,1.973724e+03
2.319947e+03,1.968266e+03
2.320912e+03,1.983776e+03
2.321876e+03,1.995639e+03
2.322840e+03,1.977514e+03
2.323804e+03,1.959923e+03
2.324769e+03,1.956465e+03
2.325733e+03,1.960622e+03
2.326697e+03,1.971721e+03
2.327661e+03,1.977451e+03
2.328625e+03,1.971805e+03
2.329590e+03,1.964385e+03
2.330554e+03,1.965043e+03
2.331518e+03,1.959804e+03
2.332482e+03,1.945947e+03
2.333447e+03,1.935370e+03
2.334411e+03,1.934549e+03
2.335375e+03,1.936951e+03
2.336339e+03,1.941713e+03
2.337303e+03,1.939965e+03
2.338268e+03,1.921248e+03
2.339232e+03,1.916254e+03
2.340196e+03,1.923564e+03
2.341160e+03,1.929583e+03
2.342125e+03,1.930646e+03
2.343089e+03,1.930633e+03
2.344053e+03,1.928433e+03
2.345017e+03,1.931864e+03
2.345982e+03,1.941187e+03
2.346946e+03,1.944555e+03
2.347910e+03,1.943664e+03
2.348874e+03,1.937220e+03
2.349839e+03,1.924659e+03
2.350803e+03,1.904603e+03
2.351767e+03,1.886152e+03
2.352731e+03,1.891934e+03
2.353696e+03,1.908407e+03
2.354660e+03,1.911438e+03
2.355624e+03,1.907629e+03
2.356588e+03,1.909828e+03
2.357552e+03,1.912162e+03
2.358517e+03,1.907863e+03
2.359481e+03,1.902355e+03
2.360445e+03,1.901222e+03
2.361409e+03,1.900571e+03
2.362374e+03,1.899329e+03
2.363338e+03,1.895864e+03
2.364302e+03,1.890126e+03
2.365266e+03,1.886225e+03
2.366230e+03,1.883715e+03
2.367195e+03,1.882062e+03
2.368159e+03,1.878706e+03
2.369123e+03,1.880344e+03
2.370087e+03,1.890022e+03
2.371052e+03,1.893162e+03
2.372016e+03,1.878134e+03
2.372980e+03,1.873778e+03
2.373944e+03,1.879740e+03
2.374909e+03,1.880821e+03
2.375873e+03,1.871311e+03
2.376837e+03,1.863814e+03
2.377801e+03,1.858893e+03
2.378766e+03,1.858777e+03
2.379730e+03,1.863024e+03
2.380694e+03,1.861190e+03
2.381658e+03,1.855723e+03
2.382623e+03,1.847506e+03
2.383587e+03,1.838329e+03
2.384551e+03,1.833023e+03
2.385515e+03,1.830641e+03
2.386479e+03,1.834839e+03
2.387444e+03,1.840079e+03
2.388408e+03,1.837884e+03
2.389372e+03,1.833390e+03
2.390336e+03,1.828198e+03
2.391301e+03,1.826872e+03
2.392265e+03,1.841661e+03
2.393229e+03,1.848424e+03
2.394193e+03,1.828578e+03
2.395157e+03,1.812439e+03
2.396122e+03,1.824520e+03
2.397086e+03,1.832042e+03
2.398050e+03,1.823354e+03
2.399014e+03,1.821407e+03
2.399979e+03,1.838988e+03
2.400943e+03,1.837488e+03
2.401907e+03,1.809799e+03
2.402871e+03,1.796786e+03
2.403836e+03,1.808216e+03
2.404800e+03,1.816484e+03
2.405764e+03,1.818326e+03
2.406728e+03,1.814036e+03
2.407693e+03,1.803949e+03
2.408657e+03,1.796238e+03
2.409621e+03,1.792423e+03
2.410585e+03,1.794549e+03
2.411550e+03,1.800510e+03
2.412514e+03,1.804961e+03
2.413478e+03,1.806800e+03
2.414442e+03,1.801658e+03
2.415406e+03,1.794856e+03
2.416371e+03,1.792516e+03
2.417335e+03,1.791162e+03
2.418299e+03,1.780239e+03
2.419263e+03,1.777003e+03
2.420228e+03,1.793676e+03
2.421192e+03,1.808691e+03
2.422156e+03,1.799717e+03
2.423120e+03,1.787911e+03
2.424084e+03,1.775481e+03
2.425049e+03,1.768344e+03
2.426013e+03,1.776215e+03
2.426977e+03,1.775665e+03
2.427941e+03,1.766473e+03
2.428906e+03,1.766742e+03
2.429870e+03,1.782670e+03
2.430834e+03,1.782978e+03
2.431798e+03,1.770509e+03
2.432763e+03,1.759932e+03
2.433727e+03,1.752666e+03
2.434691e+03,1.760865e+03
2.435655e+03,1.774671e+03
2.436620e+03,1.773136e+03
2.437584e+03,1.762229e+03
2.438548e+03,1.756168e+03
2.439512e+03,1.753818e+03
2.440477e+03,1.752717e+03
2.441441e+03,1.752122e+03
2.442405e+03,1.758483e+03
2.443369e+03,1.757760e+03
2.444333e+03,1.743316e+03
2.445298e+03,1.729984e+03
2.446262e+03,1.729699e+03
2.447226e+03,1.735112e+03
2.448190e+03,1.745784e+03
2.449155e+03,1.753421e+03
2.450119e+03,1.755777e+03
2.451083e+03,1.747572e+03
2.452047e+03,1.729733e+03
2.453011e+03,1.715293e+03
2.453976e+03,1.708058e+03
2.454940e+03,1.706744e+03
2.455904e+03,1.710117e+03
2.456868e+03,1.707719e+03
2.457833e+03,1.702402e+03
2.458797e+03,1.715947e+03
2.459761e+03,1.732395e+03
2.460725e+03,1.725919e+03
2.461690e+03,1.710384e+03
2.462654e+03,1.701610e+03
2.463618e+03,1.700769e+03
2.464582e+03,1.710814e+03
2.465547e+03,1.719534e+03
2.466511e+03,1.710455e+03
2.467475e+03,1.699283e+03
2.468439e+03,1.689334e+03
2.469404e+03,1.685197e+03
2.470368e+03,1.699493e+03
2.471332e+03,1.701215e+03
2.472296e+03,1.690343e+03
2.473260e+03,1.689019e+03
2.474225e+03,1.704190e+03
2.475189e+03,1.694216e+03
2.476153e+03,1.671163e+03
2.477117e+03,1.671838e+03
2.478082e+03,1.687634e+03
2.479046e+03,1.687309e+03
2.480010e+03,1.680407e+03
2.480974e+03,1.682109e+03
2.481938e+03,1.684497e+03
2.482903e+03,1.672614e+03
2.483867e+03,1.663023e+03
2.484831e+03,1.664722e+03
2.485795e+03,1.666810e+03
2.486760e+03,1.659686e+03
2.487724e+03,1.656681e+03
2.488688e+03,1.660567e+03
2.489652e+03,1.663759e+03
2.490617e+03,1.658831e+03
2.491581e+03,1.660557e+03
2.492545e+03,1.668366e+03
2.493509e+03,1.673041e+03
2.494474e+03,1.672491e+03
2.495438e+03,1.679367e+03
2.496402e+03,1.685283e+03
2.497366e+03,1.664312e+03
2.498331e+03,1.635284e+03
2.499295e+03,1.638239e+03
2.500259e+03,1.648662e+03
2.501223e+03,1.647201e+03
2.502188e+03,1.641924e+03
2.503152e+03,1.639515e+03
2.504116e+03,1.638017e+03
2.505080e+03,1.636889e+03
2.506044e+03,1.635764e+03
2.507009e+03,1.631170e+03
2.507973e+03,1.632941e+03
2.508937e+03,1.641184e+03
2.509901e+03,1.642411e+03
2.510865e+03,1.632130e+03
2.511830e+03,1.632160e+03
2.512794e+03,1.637437e+03
2.513758e+03,1.637867e+03
2.514722e+03,1.634865e+03
2.515687e+03,1.628904e+03
2.516651e+03,1.620942e+03
2.517615e+03,1.610384e+03
2.518579e+03,1.603166e+03
2.519544e+03,1.613335e+03
2.520508e+03,1.617763e+03
2.521472e+03,1.607591e+03
2.522436e+03,1.599653e+03
2.523401e+03,1.608918e+03
2.524365e+03,1.617762e+03
2.525329e+03,1.623428e+03
2.526293e+03,1.620765e+03
2.527258e+03,1.609417e+03
2.528222e+03,1.605441e+03
2.529186e+03,1.606626e+03
2.530150e+03,1.606401e+03
2.531115e+03,1.604828e+03
2.532079e+03,1.598561e+03
2.533043e+03,1.591869e+03
2.534007e+03,1.587975e+03
2.534971e+03,1.585806e+03
2.535936e+03,1.588896e+03
2.536900e+03,1.590592e+03
2.537864e+03,1.587921e+03
2.538828e+03,1.587202e+03
2.539792e+03,1.590056e+03
2.540757e+03,1.589812e+03
2.541721e+03,1.585865e+03
2.542685e+03,1.588366e+03
2.543649e+03,1.597774e+03
2.544614e+03,1.598120e+03
2.545578e+03,1.589545e+03
2.546542e+03,1.578233e+03
2.547506e+03,1.567975e+03
2.548471e+03,1.566002e+03
2.549435e+03,1.570069e+03
2.550399e+03,1.581817e+03
2.551363e+03,1.590007e+03
2.552328e+03,1.583478e+03
2.553292e+03,1.579440e+03
2.554256e+03,1.585448e+03
2.555220e+03,1.582941e+03
2.556185e+03,1.568350e+03
2.557149e+03,1.565606e+03
2.558113e+03,1.577964e+03
2.559077e+03,1.581628e+03
2.560042e+03,1.577514e+03
2.561006e+03,1.575362e+03
2.561970e+03,1.576241e+03
2.562934e+03,1.576893e+03
2.563898e+03,1.575091e+03
2.564863e+03,1.565999e+03
2.565827e+03,1.554966e+03
2.566791e+03,1.548802e+03
2.567755e+03,1.541733e+03
2.568719e+03,1.528988e+03
2.569684e+03,1.529578e+03
2.570648e+03,1.561248e+03
2.571612e+03,1.565655e+03
2.572576e+03,1.548370e+03
2.573541e+03,1.539857e+03
2.574505e+03,1.539742e+03
2.575469e+03,1.529321e+03
2.576433e+03,1.518945e+03
2.577398e+03,1.530044e+03
2.578362e+03,1.544254e+03
2.579326e+03,1.533404e+03
2.580290e+03,1.523086e+03
2.581255e+03,1.524183e+03
2.582219e+03,1.523898e+03
2.583183e+03,1.511477e+03
2.584147e+03,1.500348e+03
2.585112e+03,1.493813e+03
2.586076e+03,1.498426e+03
2.587040e+03,1.514209e+03
2.588004e+03,1.527338e+03
2.588969e+03,1.533644e+03
2.589933e+03,1.526059e+03
2.590897e+03,1.513578e+03
2.591861e+03,1.513346e+03
2.592825e+03,1.518359e+03
2.593790e+03,1.525533e+03
2.594754e+03,1.525066e+03
2.595718e+03,1.505543e+03
2.596682e+03,1.494089e+03
2.597646e+03,1.495652e+03
2.598611e+03,1.499695e+03
2.599575e+03,1.505034e+03
2.600539e+03,1.503229e+03
2.601503e+03,1.495777e+03
2.602468e+03,1.497343e+03
2.603432e+03,1.500400e+03
2.604396e+03,1.486615e+03
2.605360e+03,1.473804e+03
2.606325e+03,1.481208e+03
2.607289e+03,1.485993e+03
2.608253e+03,1.477395e+03
2.609217e+03,1.473509e+03
2.610182e+03,1.483888e+03
2.611146e+03,1.483958e+03
2.612110e+03,1.474490e+03
2.613074e+03,1.464570e+03
2.614039e+03,1.458032e+03
2.615003e+03,1.467581e+03
2.615967e+03,1.479840e+03
2.616931e+03,1.477197e+03
2.617896e+03,1.469305e+03
2.618860e+03,1.466468e+03
2.619824e+03,1.464196e+03
2.620788e+03,1.459931e+03
2.621752e+03,1.457483e+03
2.622717e+03,1.460734e+03
2.623681e+03,1.466229e+03
2.624645e+03,1.472037e+03
2.625609e+03,1.467247e+03
2.626573e+03,1.454565e+03
2.627538e+03,1.455075e+03
2.628502e+03,1.462363e+03
2.629466e+03,1.464370e+03
2.630430e+03,1.463281e+03
2.631395e+03,1.460828e+03
2.632359e+03,1.455968e+03
2.633323e+03,1.446668e+03
2.634287e+03,1.444439e+03
2.635252e+03,1.451661e+03
2.636216e+03,1.463513e+03
2.637180e+03,1.476529e+03
2.638144e+03,1.473442e+03
2.639109e+03,1.459337e+03
2.640073e+03,1.448548e+03
2.641037e+03,1.442451e+03
2.642001e+03,1.441403e+03
2.642966e+03,1.437468e+03
2.643930e+03,1.424357e+03
2.644894e+03,1.418191e+03
2.645858e+03,1.440281e+03
2.646823e+03,1.446613e+03
2.647787e+03,1.435875e+03
2.648751e+03,1.429431e+03
2.649715e+03,1.429852e+03
2.650679e+03,1.434482e+03
2.651644e+03,1.437548e+03
2.652608e+03,1.428218e+03
2.653572e+03,1.417561e+03
2.654536e+03,1.427204e+03
2.655500e+03,1.433558e+03
2.656465e+03,1.427241e+03
2.657429e+03,1.421273e+03
2.658393e+03,1.418981e+03
2.659357e+03,1.416361e+03
2.660322e+03,1.415601e+03
2.661286e+03,1.422479e+03
2.662250e+03,1.431646e+03
2.663214e+03,1.424619e+03
2.664179e+03,1.413157e+03
2.665143e+03,1.410812e+03
2.666107e+03,1.415025e+03
2.667071e+03,1.425942e+03
2.668036e+03,1.429677e+03
2.669000e+03,1.411876e+03
2.669964e+03,1.398993e+03
2.670928e+03,1.391556e+03
2.671893e+03,1.386540e+03
2.672857e+03,1.384870e+03
2.673821e+03,1.392000e+03
2.674785e+03,1.402598e+03
2.675750e+03,1.412993e+03
2.676714e+03,1.419857e+03
2.677678e+03,1.416844e+03
2.678642e+03,1.408562e+03
2.679606e+03,1.395593e+03
2.680571e+03,1.393135e+03
2.681535e+03,1.401994e+03
2.682499e+03,1.398392e+03
2.683463e+03,1.384210e+03
2.684427e+03,1.376529e+03
2.685392e+03,1.374976e+03
2.686356e+03,1.381484e+03
2.687320e+03,1.387165e+03
2.688284e+03,1.384142e+03
2.689249e+03,1.386489e+03
2.690213e+03,1.396250e+03
2.691177e+03,1.398674e+03
2.692141e+03,1.389508e+03
2.693106e+03,1.386222e+03
2.694070e+03,1.387874e+03
2.695034e+03,1.393836e+03
2.695998e+03,1.397708e+03
2.696963e+03,1.382473e+03
2.697927e+03,1.372615e+03
2.698891e+03,1.379878e+03
2.699855e+03,1.381518e+03
2.700820e+03,1.365021e+03
2.701784e+03,1.358496e+03
2.702748e+03,1.362626e+03
2.703712e+03,1.364158e+03
2.704677e+03,1.363813e+03
2.705641e+03,1.371905e+03
2.706605e+03,1.380404e+03
2.707569e+03,1.375658e+03
2.708533e+03,1.367907e+03
2.709498e+03,1.361047e+03
2.710462e+03,1.357543e+03
2.711426e+03,1.363150e+03
2.712390e+03,1.357116e+03
2.713354e+03,1.342944e+03
2.714319e+03,1.338214e+03
2.715283e+03,1.339635e+03
2.716247e+03,1.339893e+03
2.717211e+03,1.340024e+03
2.718176e+03,1.340421e+03
2.719140e+03,1.343675e+03
2.720104e+03,1.353329e+03
2.721068e+03,1.357140e+03
2.722033e+03,1.354160e+03
2.722997e+03,1.355583e+03
2.723961e+03,1.358625e+03
2.724925e+03,1.348756e+03
2.725890e+03,1.334260e+03
2.726854e+03,1.320610e+03
2.727818e+03,1.319517e+03
2.728782e+03,1.336430e+03
2.729747e+03,1.351271e+03
2.730711e+03,1.355895e+03
2.731675e+03,1.344213e+03
2.732639e+03,1.323470e+03
2.733604e+03,1.330457e+03
2.734568e+03,1.350745e+03
2.735532e+03,1.341006e+03
2.736496e+03,1.324873e+03
2.737460e+03,1.320839e+03
2.738425e+03,1.322486e+03
2.739389e+03,1.327556e+03
2.740353e+03,1.322980e+03
2.741317e+03,1.309033e+03
2.742281e+03,1.314895e+03
2.743246e+03,1.331891e+03
2.744210e+03,1.318491e+03
2.745174e+03,1.297877e+03
2.746138e+03,1.306456e+03
2.747103e+03,1.318662e+03
2.748067e+03,1.324741e+03
2.749031e+03,1.324643e+03
2.749995e+03,1.312912e+03
2.750960e+03,1.311119e+03
2.751924e+03,1.316508e+03
2.752888e+03,1.320081e+03
2.753852e+03,1.320473e+03
2.754817e+03,1.314270e+03
2.755781e+03,1.308090e+03
2.756745e+03,1.303643e+03
2.757709e+03,1.310092e+03
2.758674e+03,1.328518e+03
2.759638e+03,1.331891e+03
2.760602e+03,1.316491e+03
2.761566e+03,1.305320e+03
2.762531e+03,1.299527e+03
2.763495e+03,1.298973e+03
2.764459e+03,1.301130e+03
2.765423e+03,1.310339e+03
2.766387e+03,1.310371e+03
2.767352e+03,1.299296e+03
2.768316e+03,1.292602e+03
2.769280e+03,1.293178e+03
2.770244e+03,1.295427e+03
2.771208e+03,1.296653e+03
2.772173e+03,1.288527e+03
2.773137e+03,1.280024e+03
2.774101e+03,1.284183e+03
2.775065e+03,1.292569e+03
2.776030e+03,1.304884e+03
2.776994e+03,1.295185e+03
2.777958e+03,1.268069e+03
2.778922e+03,1.267069e+03
2.779887e+03,1.283566e+03
2.780851e+03,1.287629e+03
2.781815e+03,1.282765e+03
2.782779e+03,1.273017e+03
2.783744e+03,1.269504e+03
2.784708e+03,1.281635e+03
2.785672e+03,1.282876e+03
2.786636e+03,1.271184e+03
2.787601e+03,1.251613e+03
2.788565e+03,1.234892e+03
2.789529e+03,1.255193e+03
2.790493e+03,1.280673e+03
2.791458e+03,1.282541e+03
2.792422e+03,1.280148e+03
2.793386e+03,1.280279e+03
2.794350e+03,1.279252e+03
2.795314e+03,1.275424e+03
2.796279e+03,1.279783e+03
2.797243e+03,1.284810e+03
2.798207e+03,1.280635e+03
2.799171e+03,1.275143e+03
2.800135e+03,1.278783e+03
2.801100e+03,1.276517e+03
2.802064e+03,1.265156e+03
2.803028e+03,1.259444e+03
2.803992e+03,1.259348e+03
2.804957e+03,1.263255e+03
2.805921e+03,1.266748e+03
2.806885e+03,1.258998e+03
2.807849e+03,1.249337e+03
2.808814e+03,1.241957e+03
2.809778e+03,1.242409e+03
2.810742e+03,1.257547e+03
2.811706e+03,1.261400e+03
2.812671e+03,1.254688e+03
2.813635e+03,1.246017e+03
2.814599e+03,1.239747e+03
2.815563e+03,1.250817e+03
2.816528e+03,1.256797e+03
2.817492e+03,1.242720e+03
2.818456e+03,1.240026e+03
2.819420e+03,1.249012e+03
2.820385e+03,1.245825e+03
2.821349e+03,1.235187e+03
2.822313e+03,1.243365e+03
2.823277e+03,1.251047e+03
2.824241e+03,1.242509e+03
2.825206e+03,1.227920e+03
2.826170e+03,1.210737e+03
2.827134e+03,1.214413e+03
2.828098e+03,1.236918e+03
2.829063e+03,1.244273e+03
2.830027e+03,1.242046e+03
2.830991e+03,1.244035e+03
2.831955e+03,1.249385e+03
2.832919e+03,1.258834e+03
2.833884e+03,1.258436e+03
2.834848e+03,1.247249e+03
2.835812e+03,1.241630e+03
2.836776e+03,1.243031e+03
2.837741e+03,1.247228e+03
2.838705e+03,1.244745e+03
2.839669e+03,1.220238e+03
2.840633e+03,1.208894e+03
2.841598e+03,1.231504e+03
2.842562e+03,1.244147e+03
2.843526e+03,1.236310e+03
2.844490e+03,1.221971e+03
2.845455e+03,1.206598e+03
2.846419e+03,1.201089e+03
2.847383e+03,1.203423e+03
2.848347e+03,1.217772e+03
2.849312e+03,1.228258e+03
2.850276e+03,1.231795e+03
2.851240e+03,1.231052e+03
2.852204e+03,1.226476e+03
2.853168e+03,1.215669e+03
2.854133e+03,1.209149e+03
2.855097e+03,1.231822e+03
2.856061e+03,1.239655e+03
2.857025e+03,1.218599e+03
2.857990e+03,1.208470e+03
2.858954e+03,1.221995e+03
2.859918e+03,1.214839e+03
2.860882e+03,1.202027e+03
2.861846e+03,1.208093e+03
2.862811e+03,1.219038e+03
2.863775e+03,1.222562e+03
2.864739e+03,1.222366e+03
2.865703e+03,1.218863e+03
2.866668e+03,1.228230e+03
2.867632e+03,1.242721e+03
2.868596e+03,1.238152e+03
2.869560e+03,1.227033e+03
2.870525e+03,1.225251e+03
2.871489e+03,1.223332e+03
2.872453e+03,1.218220e+03
2.873417e+03,1.218941e+03
2.874382e+03,1.224512e+03
2.875346e+03,1.232525e+03
2.876310e+03,1.238580e+03
2.877274e+03,1.233923e+03
2.878239e+03,1.222287e+03
2.879203e+03,1.204771e+03
2.880167e+03,1.199674e+03
2.881131e+03,1.214853e+03
2.882095e+03,1.216488e+03
2.883060e+03,1.210355e+03
2.884024e+03,1.204109e+03
2.884988e+03,1.202459e+03
2.885952e+03,1.210658e+03
2.886917e+03,1.220208e+03
2.887881e+03,1.229927e+03
2.888845e+03,1.219123e+03
2.889809e+03,1.199559e+03
2.890773e+03,1.196131e+03
2.891738e+03,1.199874e+03
2.892702e+03,1.209234e+03
2.893666e+03,1.214346e+03
2.894630e+03,1.213108e+03
2.895595e+03,1.198364e+03
2.896559e+03,1.176723e+03
2.897523e+03,1.178014e+03
2.898487e+03,1.186625e+03
2.899452e+03,1.190716e+03
2.900416e+03,1.180007e+03
2.901380e+03,1.154683e+03
2.902344e+03,1.155252e+03
2.903309e+03,1.182486e+03
2.904273e+03,1.186927e+03
2.905237e+03,1.181298e+03
2.906201e+03,1.179170e+03
2.907166e+03,1.179954e+03
2.908130e+03,1.183087e+03
2.909094e+03,1.187634e+03
2.910058e+03,1.192218e+03
2.911022e+03,1.188993e+03
2.911987e+03,1.180909e+03
2.912951e+03,1.168566e+03
2.913915e+03,1.164014e+03
2.914879e+03,1.179123e+03
2.915844e+03,1.190731e+03
2.916808e+03,1.195818e+03
2.917772e+03,1.190763e+03
2.918736e+03,1.181895e+03
2.919700e+03,1.176418e+03
2.920665e+03,1.174406e+03
2.921629e+03,1.178935e+03
2.922593e+03,1.181773e+03
2.923557e+03,1.183775e+03
2.924522e+03,1.189494e+03
2.925486e+03,1.194430e+03
2.926450e+03,1.181708e+03
2.927414e+03,1.175024e+03
2.928379e+03,1.189223e+03
2.929343e+03,1.189076e+03
2.930307e+03,1.174073e+03
2.931271e+03,1.159246e+03
2.932236e+03,1.148622e+03
2.933200e+03,1.145671e+03
2.934164e+03,1.149072e+03
2.935128e+03,1.157077e+03
2.936093e+03,1.167384e+03
2.937057e+03,1.177582e+03
2.938021e+03,1.161698e+03
2.938985e+03,1.141110e+03
2.939949e+03,1.154200e+03
2.940914e+03,1.165347e+03
2.941878e+03,1.162706e+03
2.942842e+03,1.156518e+03
2.943806e+03,1.148458e+03
2.944771e+03,1.152747e+03
2.945735e+03,1.157696e+03
2.946699e+03,1.142495e+03
2.947663e+03,1.133559e+03
2.948627e+03,1.137323e+03
2.949592e+03,1.144310e+03
2.950556e+03,1.152483e+03
2.951520e+03,1.150760e+03
2.952484e+03,1.149083e+03
2.953449e+03,1.158205e+03
2.954413e+03,1.173304e+03
2.955377e+03,1.193570e+03
2.956341e+03,1.192172e+03
2.957306e+03,1.170905e+03
2.958270e+03,1.165208e+03
2.959234e+03,1.163775e+03
2.960198e+03,1.160011e+03
2.961163e+03,1.153488e+03
2.962127e+03,1.140518e+03
2.963091e+03,1.130021e+03
2.964055e+03,1.122420e+03
2.965020e+03,1.120189e+03
2.965984e+03,1.123044e+03
2.966948e+03,1.128832e+03
2.967912e+03,1.134200e+03
2.968876e+03,1.138615e+03
2.969841e+03,1.135422e+03
2.970805e+03,1.128440e+03
2.971769e+03,1.128536e+03
2.972733e+03,1.124702e+03
2.973698e+03,1.106150e+03
2.974662e+03,1.109530e+03
2.975626e+03,1.145558e+03
2.976590e+03,1.143165e+03
2.977554e+03,1.126325e+03
2.978519e+03,1.126817e+03
2.979483e+03,1.132562e+03
2.980447e+03,1.138419e+03
2.981411e+03,1.130699e+03
2.982376e+03,1.110621e+03
2.983340e+03,1.099381e+03
2.984304e+03,1.099576e+03
2.985268e+03,1.114810e+03
2.986233e+03,1.126147e+03
2.987197e+03,1.124726e+03
2.988161e+03,1.105147e+03
2.989125e+03,1.079797e+03
2.990090e+03,1.083912e+03
2.991054e+03,1.099284e+03
2.992018e+03,1.110925e+03
2.992982e+03,1.121775e+03
2.993947e+03,1.135476e+03
2.994911e+03,1.133402e+03
2.995875e+03,1.122754e+03
2.996839e+03,1.114291e+03
2.997803e+03,1.106424e+03
2.998768e+03,1.100212e+03
2.999732e+03,1.079827e+03
3.000696e+03,1.048109e+03
3.001660e+03,1.062479e+03
3.002625e+03,1.085452e+03
3.003589e+03,1.080330e+03
3.004553e+03,1.065672e+03
3.005517e+03,1.049985e+03
3.006481e+03,1.072453e+03
3.007446e+03,1.115205e+03
3.008410e+03,1.104473e+03
3.009374e+03,1.083434e+03
3.010338e+03,1.081318e+03
3.011303e+03,1.083490e+03
3.012267e+03,1.082782e+03
3.013231e+03,1.087682e+03
3.014195e+03,1.095970e+03
3.015160e+03,1.106082e+03
3.016124e+03,1.111067e+03
3.017088e+03,1.108780e+03
3.018052e+03,1.121557e+03
3.019017e+03,1.145529e+03
3.019981e+03,1.125208e+03
3.020945e+03,1.097057e+03
3.021909e+03,1.093382e+03
3.022874e+03,1.089564e+03
3.023838e+03,1.079507e+03
3.024802e+03,1.074991e+03
3.025766e+03,1.074757e+03
3.026730e+03,1.069737e+03
3.027695e+03,1.071909e+03
3.028659e+03,1.086921e+03
3.029623e+03,1.094939e+03
3.030587e+03,1.094004e+03
3.031552e+03,1.077941e+03
3.032516e+03,1.063737e+03
3.033480e+03,1.078615e+03
3.034444e+03,1.092958e+03
3.035408e+03,1.100247e+03
3.036373e+03,1.088147e+03
3.037337e+03,1.069043e+03
3.038301e+03,1.090982e+03
3.039265e+03,1.104532e+03
3.040230e+03,1.065557e+03
3.041194e+03,1.063982e+03
3.042158e+03,1.090088e+03
3.043122e+03,1.090748e+03
3.044087e+03,1.082446e+03
3.045051e+03,1.089734e+03
3.046015e+03,1.093161e+03
3.046979e+03,1.087381e+03
3.047944e+03,1.054629e+03
3.048908e+03,1.029558e+03
3.049872e+03,1.064889e+03
3.050836e+03,1.105681e+03
3.051801e+03,1.117159e+03
3.052765e+03,1.107614e+03
3.053729e+03,1.081470e+03
3.054693e+03,1.064356e+03
3.055657e+03,1.064350e+03
3.056622e+03,1.084576e+03
3.057586e+03,1.090615e+03
3.058550e+03,1.073490e+03
3.059514e+03,1.068079e+03
3.060479e+03,1.069617e+03
3.061443e+03,1.062557e+03
3.062407e+03,1.065294e+03
3.063371e+03,1.080471e+03
3.064335e+03,1.078776e+03
3.065300e+03,1.065681e+03
3.066264e+03,1.075373e+03
3.067228e+03,1.089064e+03
3.068192e+03,1.096613e+03
3.069157e+03,1.082846e+03
3.070121e+03,1.057025e+03
3.071085e+03,1.061231e+03
3.072049e+03,1.075926e+03
3.073014e+03,1.075620e+03
3.073978e+03,1.070212e+03
3.074942e+03,1.060862e+03
3.075906e+03,1.051499e+03
3.076871e+03,1.045479e+03
3.077835e+03,1.045684e+03
3.078799e+03,1.053889e+03
3.079763e+03,1.074612e+03
3.080728e+03,1.087526e+03
3.081692e+03,1.087885e+03
3.082656e+03,1.063933e+03
3.083620e+03,1.040355e+03
3.084584e+03,1.030309e+03
3.085549e+03,1.049077e+03
3.086513e+03,1.095104e+03
3.087477e+03,1.068880e+03
3.088441e+03,1.034345e+03
3.089406e+03,1.071391e+03
3.090370e+03,1.087660e+03
3.091334e+03,1.071515e+03
3.092298e+03,1.066281e+03
3.093262e+03,1.068074e+03
3.094227e+03,1.060782e+03
3.095191e+03,1.055700e+03
3.096155e+03,1.057049e+03
3.097119e+03,1.047526e+03
3.098084e+03,1.036873e+03
3.099048e+03,1.043431e+03
3.100012e+03,1.058458e+03
3.100976e+03,1.080719e+03
3.101941e+03,1.077389e+03
3.102905e+03,1.053808e+03
3.103869e+03,1.061410e+03
3.104833e+03,1.066062e+03
3.105798e+03,1.046669e+03
3.106762e+03,1.038934e+03
3.107726e+03,1.050262e+03
3.108690e+03,1.051826e+03
3.109655e+03,1.049989e+03
3.110619e+03,1.056548e+03
3.111583e+03,1.055132e+03
3.112547e+03,1.045447e+03
3.113511e+03,1.036312e+03
3.114476e+03,1.029112e+03
3.115440e+03,1.020943e+03
3.116404e+03,1.028619e+03
3.117368e+03,1.067173e+03
3.118333e+03,1.076494e+03
3.119297e+03,1.064325e+03
3.120261e+03,1.047352e+03
3.121225e+03,1.030293e+03
3.122189e+03,1.013712e+03
3.123154e+03,1.029267e+03
3.124118e+03,1.065792e+03
3.125082e+03,1.077643e+03
3.126046e+03,1.081396e+03
3.127011e+03,1.086459e+03
3.127975e+03,1.061397e+03
3.128939e+03,1.019699e+03
3.129903e+03,1.039530e+03
3.130868e+03,1.066877e+03
3.131832e+03,1.046042e+03
3.132796e+03,1.048204e+03
3.133760e+03,1.070706e+03
3.134725e+03,1.066730e+03
3.135689e+03,1.061250e+03
3.136653e+03,1.080283e+03
3.137617e+03,1.088925e+03
3.138582e+03,1.077307e+03
3.139546e+03,1.060164e+03
3.140510e+03,1.055631e+03
3.141474e+03,1.095772e+03
3.142438e+03,1.085304e+03
3.143403e+03,1.024217e+03
3.144367e+03,1.027974e+03
3.145331e+03,1.061983e+03
3.146295e+03,1.074406e+03
3.147260e+03,1.068151e+03
3.148224e+03,1.041692e+03
3.149188e+03,1.050675e+03
3.150152e+03,1.063226e+03
3.151116e+03,1.034429e+03
3.152081e+03,1.006229e+03
3.153045e+03,9.947599e+02
3.154009e+03,1.024924e+03
3.154973e+03,1.066479e+03
3.155938e+03,1.045697e+03
3.156902e+03,1.035022e+03
3.157866e+03,1.051491e+03
3.158830e+03,1.053577e+03
3.159795e+03,1.048359e+03
3.160759e+03,1.057608e+03
3.161723e+03,1.068561e+03
3.162687e+03,1.076652e+03
3.163652e+03,1.091364e+03
3.164616e+03,1.103114e+03
3.165580e+03,1.089318e+03
3.166544e+03,1.080120e+03
3.167509e+03,1.088058e+03
3.168473e+03,1.082556e+03
3.169437e+03,1.065111e+03
3.170401e+03,1.042687e+03
3.171365e+03,1.032881e+03
3.172330e+03,1.044964e+03
3.173294e+03,1.063300e+03
3.174258e+03,1.075198e+03
3.175222e+03,1.057120e+03
3.176187e+03,1.042569e+03
3.177151e+03,1.056509e+03
3.178115e+03,1.057614e+03
3.179079e+03,1.045866e+03
3.180043e+03,1.025868e+03
3.181008e+03,1.017081e+03
3.181972e+03,1.026173e+03
3.182936e+03,1.030186e+03
3.183900e+03,1.030144e+03
3.184865e+03,1.045292e+03
3.185829e+03,1.054649e+03
3.186793e+03,1.040114e+03
3.187757e+03,1.047739e+03
3.188722e+03,1.062867e+03
3.189686e+03,1.049126e+03
3.190650e+03,1.046604e+03
3.191614e+03,1.067917e+03
3.192579e+03,1.062920e+03
3.193543e+03,1.039021e+03
3.194507e+03,1.026482e+03
3.195471e+03,1.028851e+03
3.196436e+03,1.048666e+03
3.197400e+03,1.060753e+03
3.198364e+03,1.065571e+03
3.199328e+03,1.069457e+03
3.200292e+03,1.067887e+03
3.201257e+03,0.000000e+00
3.202221e+03,0.000000e+00
3.203185e+03,0.000000e+00
3.204149e+03,0.000000e+00
3.205114e+03,0.000000e+00
3.206078e+03,0.000000e+00
3.207042e+03,0.000000e+00
3.208006e+03,0.000000e+00
3.208970e+03,0.000000e+00
3.209935e+03,0.000000e+00
3.210899e+03,0.000000e+00
3.211863e+03,0.000000e+00
3.212827e+03,0.000000e+00
3.213792e+03,0.000000e+00
3.214756e+03,0.000000e+00
3.215720e+03,0.000000e+00
3.216684e+03,0.000000e+00
3.217649e+03,0.000000e+00
3.218613e+03,0.000000e+00
3.219577e+03,0.000000e+00
3.220541e+03,0.000000e+00
3.221506e+03,0.000000e+00
3.222470e+03,0.000000e+00
3.223434e+03,0.000000e+00
3.224398e+03,0.000000e+00
3.225363e+03,0.000000e+00
3.226327e+03,0.000000e+00
3.227291e+03,0.000000e+00
3.228255e+03,0.000000e+00
3.229219e+03,0.000000e+00
3.230184e+03,0.000000e+00
3.231148e+03,0.000000e+00
3.232112e+03,0.000000e+00
3.233076e+03,0.000000e+00
3.234041e+03,0.000000e+00
3.235005e+03,0.000000e+00
3.235969e+03,0.000000e+00
3.236933e+03,0.000000e+00
3.237897e+03,0.000000e+00
3.238862e+03,0.000000e+00
3.239826e+03,0.000000e+00
3.240790e+03,0.000000e+00
3.241754e+03,0.000000e+00
3.242719e+03,0.000000e+00
3.243683e+03,0.000000e+00
3.244647e+03,0.000000e+00
3.245611e+03,0.000000e+00
3.246576e+03,0.000000e+00
3.247540e+03,0.000000e+00
3.248504e+03,0.000000e+00
3.249468e+03,0.000000e+00
3.250433e+03,0.000000e+00
3.251397e+03,0.000000e+00
3.252361e+03,0.000000e+00
3.253325e+03,0.000000e+00
3.254290e+03,0.000000e+00
3.255254e+03,0.000000e+00
3.256218e+03,0.000000e+00
3.257182e+03,0.000000e+00
3.258146e+03,0.000000e+00
3.259111e+03,0.000000e+00
3.260075e+03,0.000000e+00
3.261039e+03,0.000000e+00
3.262003e+03,0.000000e+00
3.262968e+03,0.000000e+00
3.263932e+03,0.000000e+00
3.264896e+03,0.000000e+00
3.265860e+03,0.000000e+00
3.266824e+03,0.000000e+00
3.267789e+03,0.000000e+00
3.268753e+03,0.000000e+00
3.269717e+03,0.000000e+00
3.270681e+03,0.000000e+00
3.271646e+03,0.000000e+00
3.272610e+03,0.000000e+00
3.273574e+03,0.000000e+00
3.274538e+03,0.000000e+00
3.275503e+03,0.000000e+00
3.276467e+03,0.000000e+00
3.277431e+03,0.000000e+00
3.278395e+03,0.000000e+00
3.279360e+03,0.000000e+00
3.280324e+03,0.000000e+00
3.281288e+03,0.000000e+00
3.282252e+03,0.000000e+00
3.283217e+03,0.000000e+00
3.284181e+03,0.000000e+00
3.285145e+03,0.000000e+00
3.286109e+03,0.000000e+00
3.287073e+03,0.000000e+00
3.288038e+03,0.000000e+00
3.289002e+03,0.000000e+00
3.289966e+03,0.000000e+00
3.290930e+03,0.000000e+00
3.291895e+03,0.000000e+00
3.292859e+03,0.000000e+00
3.293823e+03,0.000000e+00
3.294787e+03,0.000000e+00
3.295751e+03,0.000000e+00
3.296716e+03,0.000000e+00
3.297680e+03,0.000000e+00
3.298644e+03,0.000000e+00
3.299608e+03,0.000000e+00
3.300573e+03,0.000000e+00
3.301537e+03,0.000000e+00
3.302501e+03,0.000000e+00
3.303465e+03,0.000000e+00
3.304430e+03,0.000000e+00
3.305394e+03,0.000000e+00
3.306358e+03,0.000000e+00
3.307322e+03,0.000000e+00
3.308287e+03,0.000000e+00
3.309251e+03,0.000000e+00
3.310215e+03,0.000000e+00
3.311179e+03,0.000000e+00
3.312144e+03,0.000000e+00
3.313108e+03,0.000000e+00
3.314072e+03,0.000000e+00
3.315036e+03,0.000000e+00
3.316000e+03,0.000000e+00
3.316965e+03,0.000000e+00
3.317929e+03,0.000000e+00
3.318893e+03,0.000000e+00
3.319857e+03,0.000000e+00
3.320822e+03,0.000000e+00
3.321786e+03,0.000000e+00
3.322750e+03,0.000000e+00
3.323714e+03,0.000000e+00
3.324678e+03,0.000000e+00
3.325643e+03,0.000000e+00
3.326607e+03,0.000000e+00
3.327571e+03,0.000000e+00
3.328535e+03,0.000000e+00
3.329500e+03,0.000000e+00
3.330464e+03,0.000000e+00
3.331428e+03,0.000000e+00
3.332392e+03,0.000000e+00
3.333357e+03,0.000000e+00
3.334321e+03,0.000000e+00
3.335285e+03,0.000000e+00
3.336249e+03,0.000000e+00
3.337214e+03,0.000000e+00
3.338178e+03,0.000000e+00
3.339142e+03,0.000000e+00
3.340106e+03,0.000000e+00
3.341071e+03,0.000000e+00
3.342035e+03,0.000000e+00
3.342999e+03,0.000000e+00
3.343963e+03,0.000000e+00
3.344927e+03,0.000000e+00
3.345892e+03,0.000000e+00
3.346856e+03,0.000000e+00
3.347820e+03,0.000000e+00
3.348784e+03,0.000000e+00
3.349749e+03,0.000000e+00
3.350713e+03,0.000000e+00
3.351677e+03,0.000000e+00
3.352641e+03,0.000000e+00
3.353605e+03,0.000000e+00
3.354570e+03,0.000000e+00
3.355534e+03,0.000000e+00
3.356498e+03,0.000000e+00
3.357462e+03,0.000000e+00
3.358427e+03,0.000000e+00
3.359391e+03,0.000000e+00
3.360355e+03,0.000000e+00
3.361319e+03,0.000000e+00
3.362284e+03,0.000000e+00
3.363248e+03,0.000000e+00
3.364212e+03,0.000000e+00
3.365176e+03,0.000000e+00
3.366141e+03,0.000000e+00
3.367105e+03,0.000000e+00
3.368069e+03,0.000000e+00
3.369033e+03,0.000000e+00
3.369998e+03,0.000000e+00
3.370962e+03,0.000000e+00
3.371926e+03,0.000000e+00
3.372890e+03,0.000000e+00
3.373854e+03,0.000000e+00
3.374819e+03,0.000000e+00
3.375783e+03,0.000000e+00
3.376747e+03,0.000000e+00
3.377711e+03,0.000000e+00
3.378676e+03,0.000000e+00
3.379640e+03,0.000000e+00
3.380604e+03,0.000000e+00
3.381568e+03,0.000000e+00
3.382532e+03,0.000000e+00
3.383497e+03,0.000000e+00
3.384461e+03,0.000000e+00
3.385425e+03,0.000000e+00
3.386389e+03,0.000000e+00
3.387354e+03,0.000000e+00
3.388318e+03,0.000000e+00
3.389282e+03,0.000000e+00
3.390246e+03,0.000000e+00
3.391211e+03,0.000000e+00
3.392175e+03,0.000000e+00
3.393139e+03,0.000000e+00
3.394103e+03,0.000000e+00
3.395068e+03,0.000000e+00
3.396032e+03,0.000000e+00
3.396996e+03,0.000000e+00
3.397960e+03,0.000000e+00
3.398925e+03,0.000000e+00
3.399889e+03,0.000000e+00
3.400853e+03,0.000000e+00
3.401817e+03,0.000000e+00
3.402781e+03,0.000000e+00
3.403746e+03,0.000000e+00
3.404710e+03,0.000000e+00
3.405674e+03,0.000000e+00
3.406638e+03,0.000000e+00
3.407603e+03,0.000000e+00
3.408567e+03,0.000000e+00
3.409531e+03,0.000000e+00
3.410495e+03,0.000000e+00
3.411459e+03,0.000000e+00
3.412424e+03,0.000000e+00
3.413388e+03,0.000000e+00
3.414352e+03,0.000000e+00
3.415316e+03,0.000000e+00
3.416281e+03,0.000000e+00
3.417245e+03,0.000000e+00
3.418209e+03,0.000000e+00
3.419173e+03,0.000000e+00
3.420138e+03,0.000000e+00
3.421102e+03,0.000000e+00
3.422066e+03,0.000000e+00
3.423030e+03,0.000000e+00
3.423995e+03,0.000000e+00
3.424959e+03,0.000000e+00
3.425923e+03,0.000000e+00
3.426887e+03,0.000000e+00
3.427852e+03,0.000000e+00
3.428816e+03,0.000000e+00
3.429780e+03,0.000000e+00
3.430744e+03,0.000000e+00
3.431708e+03,0.000000e+00
3.432673e+03,0.000000e+00
3.433637e+03,0.000000e+00
3.434601e+03,0.000000e+00
3.435565e+03,0.000000e+00
3.436530e+03,0.000000e+00
3.437494e+03,0.000000e+00
3.438458e+03,0.000000e+00
3.439422e+03,0.000000e+00
3.440386e+03,0.000000e+00
3.441351e+03,0.000000e+00
3.442315e+03,0.000000e+00
3.443279e+03,0.000000e+00
3.444243e+03,0.000000e+00
3.445208e+03,0.000000e+00
3.446172e+03,0.000000e+00
3.447136e+03,0.000000e+00
3.448100e+03,0.000000e+00
3.449065e+03,0.000000e+00
3.450029e+03,0.000000e+00
3.450993e+03,0.000000e+00
3.451957e+03,0.000000e+00
3.452922e+03,0.000000e+00
3.453886e+03,0.000000e+00
3.454850e+03,0.000000e+00
3.455814e+03,0.000000e+00
3.456779e+03,0.000000e+00
3.457743e+03,0.000000e+00
3.458707e+03,0.000000e+00
3.459671e+03,0.000000e+00
3.460635e+03,0.000000e+00
3.461600e+03,0.000000e+00
3.462564e+03,0.000000e+00
3.463528e+03,0.000000e+00
3.464492e+03,0.000000e+00
3.465457e+03,0.000000e+00
3.466421e+03,0.000000e+00
3.467385e+03,0.000000e+00
3.468349e+03,0.000000e+00
3.469313e+03,0.000000e+00
3.470278e+03,0.000000e+00
3.471242e+03,0.000000e+00
3.472206e+03,0.000000e+00
3.473170e+03,0.000000e+00
3.474135e+03,0.000000e+00
3.475099e+03,0.000000e+00
3.476063e+03,0.000000e+00
3.477027e+03,0.000000e+00
3.477992e+03,0.000000e+00
3.478956e+03,0.000000e+00
3.479920e+03,0.000000e+00
3.480884e+03,0.000000e+00
3.481849e+03,0.000000e+00
3.482813e+03,0.000000e+00
3.483777e+03,0.000000e+00
3.484741e+03,0.000000e+00
3.485706e+03,0.000000e+00
3.486670e+03,0.000000e+00
3.487634e+03,0.000000e+00
3.488598e+03,0.000000e+00
3.489563e+03,0.000000e+00
3.490527e+03,0.000000e+00
3.491491e+03,0.000000e+00
3.492455e+03,0.000000e+00
3.493419e+03,0.000000e+00
3.494384e+03,0.000000e+00
3.495348e+03,0.000000e+00
3.496312e+03,0.000000e+00
3.497276e+03,0.000000e+00
3.498240e+03,0.000000e+00
3.499205e+03,0.000000e+00
3.500169e+03,0.000000e+00
