9.931763e+01,0.000000e+00
1.002819e+02,0.000000e+00
1.012461e+02,0.000000e+00
1.022103e+02,0.000000e+00
1.031746e+02,0.000000e+00
1.041388e+02,0.000000e+00
1.051030e+02,0.000000e+00
1.060673e+02,0.000000e+00
1.070315e+02,0.000000e+00
1.079957e+02,0.000000e+00
1.089600e+02,0.000000e+00
1.099242e+02,0.000000e+00
1.108884e+02,0.000000e+00
1.118527e+02,0.000000e+00
1.128169e+02,0.000000e+00
1.137811e+02,0.000000e+00
1.147454e+02,0.000000e+00
1.157096e+02,0.000000e+00
1.166738e+02,0.000000e+00
1.176381e+02,0.000000e+00
1.186023e+02,0.000000e+00
1.195665e+02,0.000000e+00
1.205308e+02,0.000000e+00
1.214950e+02,0.000000e+00
1.224592e+02,0.000000e+00
1.234235e+02,0.000000e+00
1.243877e+02,0.000000e+00
1.253519e+02,0.000000e+00
1.263162e+02,0.000000e+00
1.272804e+02,0.000000e+00
1.282446e+02,0.000000e+00
1.292089e+02,0.000000e+00
1.301731e+02,0.000000e+00
1.311373e+02,0.000000e+00
1.321016e+02,0.000000e+00
1.330658e+02,0.000000e+00
1.340300e+02,0.000000e+00
1.349943e+02,0.000000e+00
1.359585e+02,0.000000e+00
1.369227e+02,0.000000e+00
1.378870e+02,0.000000e+00
1.388512e+02,0.000000e+00
1.398154e+02,0.000000e+00
1.407797e+02,0.000000e+00
1.417439e+02,0.000000e+00
1.427081e+02,0.000000e+00
1.436724e+02,0.000000e+00
1.446366e+02,0.000000e+00
1.456008e+02,0.000000e+00
1.465651e+02,0.000000e+00
1.475293e+02,0.000000e+00
1.484935e+02,0.000000e+00
1.494578e+02,0.000000e+00
1.504220e+02,0.000000e+00
1.513862e+02,0.000000e+00
1.523505e+02,0.000000e+00
1.533147e+02,0.000000e+00
1.542789e+02,0.000000e+00
1.552432e+02,0.000000e+00
1.562074e+02,0.000000e+00
1.571716e+02,0.000000e+00
1.581359e+02,0.000000e+00
1.591001e+02,0.000000e+00
1.600643e+02,0.000000e+00
1.610286e+02,0.000000e+00
1.619928e+02,0.000000e+00
1.629570e+02,0.000000e+00
1.639213e+02,0.000000e+00
1.648855e+02,0.000000e+00
1.658497e+02,0.000000e+00
1.668140e+02,0.000000e+00
1.677782e+02,0.000000e+00
1.687424e+02,0.000000e+00
1.697067e+02,0.000000e+00
1.706709e+02,0.000000e+00
1.716351e+02,0.000000e+00
1.725994e+02,0.000000e+00
1.735636e+02,0.000000e+00
1.745278e+02,0.000000e+00
1.754921e+02,0.000000e+00
1.764563e+02,0.000000e+00
1.774205e+02,0.000000e+00
1.783848e+02,0.000000e+00
1.793490e+02,0.000000e+00
1.803132e+02,0.000000e+00
1.812775e+02,0.000000e+00
1.822417e+02,0.000000e+00
1.832059e+02,0.000000e+00
1.841702e+02,0.000000e+00
1.851344e+02,0.000000e+00
1.860986e+02,0.000000e+00
1.870629e+02,0.000000e+00
1.880271e+02,0.000000e+00
1.889913e+02,0.000000e+00
1.899556e+02,0.000000e+00
1.909198e+02,0.000000e+00
1.918840e+02,0.000000e+00
1.928483e+02,0.000000e+00
1.938125e+02,0.000000e+00
1.947767e+02,0.000000e+00
1.957410e+02,0.000000e+00
1.967052e+02,0.000000e+00
1.976694e+02,0.000000e+00
1.986337e+02,0.000000e+00
1.995979e+02,1.948533e+03
2.005621e+02,1.955607e+03
2.015264e+02,1.960503e+03
2.024906e+02,1.959932e+03
2.034548e+02,1.959795e+03
2.044191e+02,1.961163e+03
2.053833e+02,1.963626e+03
2.063475e+02,1.966216e+03
2.073118e+02,1.968611e+03
2.082760e+02,1.971586e+03
2.092402e+02,1.971790e+03
2.102045e+02,1.967310e+03
2.111687e+02,1.962328e+03
2.121329e+02,1.959679e+03
2.130972e+02,1.960387e+03
2.140614e+02,1.963000e+03
2.150256e+02,1.964653e+03
2.159899e+02,1.964891e+03
2.169541e+02,1.965261e+03
2.179183e+02,1.967180e+03
2.188826e+02,1.970002e+03
2.198468e+02,1.972108e+03
2.208110e+02,1.971770e+03
2.217753e+02,1.968823e+03
2.227395e+02,1.965848e+03
2.237037e+02,1.964696e+03
2.246680e+02,1.964180e+03
2.256322e+02,1.962613e+03
2.265964e+02,1.959537e+03
2.275607e+02,1.956984e+03
2.285249e+02,1.957380e+03
2.294892e+02,1.961213e+03
2.304534e+02,1.965838e+03
2.314176e+02,1.968672e+03
2.323819e+02,1.969716e+03
2.333461e+02,1.970192e+03
2.343103e+02,1.970513e+03
2.352746e+02,1.970972e+03
2.362388e+02,1.971856e+03
2.372030e+02,1.973114e+03
2.381673e+02,1.973308e+03
2.391315e+02,1.971059e+03
2.400957e+02,1.966075e+03
2.410600e+02,1.961209e+03
2.420242e+02,1.958026e+03
2.429884e+02,1.956698e+03
2.439527e+02,1.956359e+03
2.449169e+02,1.955756e+03
2.458811e+02,1.954414e+03
2.468454e+02,1.954192e+03
2.478096e+02,1.956180e+03
2.487738e+02,1.958547e+03
2.497381e+02,1.959609e+03
2.507023e+02,1.959146e+03
2.516665e+02,1.958602e+03
2.526308e+02,1.960238e+03
2.535950e+02,1.968046e+03
2.545592e+02,1.971305e+03
2.555235e+02,1.967220e+03
2.564877e+02,1.959682e+03
2.574519e+02,1.953561e+03
2.584161e+02,1.952080e+03
2.593804e+02,1.954986e+03
2.603446e+02,1.956619e+03
2.613088e+02,1.953130e+03
2.622731e+02,1.950532e+03
2.632373e+02,1.951233e+03
2.642015e+02,1.954442e+03
2.651658e+02,1.957458e+03
2.661300e+02,1.957920e+03
2.670942e+02,1.955891e+03
2.680585e+02,1.954632e+03
2.690227e+02,1.955531e+03
2.699869e+02,1.956854e+03
2.709512e+02,1.957268e+03
2.719154e+02,1.956960e+03
2.728796e+02,1.956237e+03
2.738439e+02,1.955044e+03
2.748081e+02,1.953458e+03
2.757723e+02,1.953371e+03
2.767366e+02,1.954895e+03
2.777008e+02,1.956878e+03
2.786650e+02,1.958583e+03
2.796293e+02,1.961328e+03
2.805935e+02,1.964259e+03
2.815577e+02,1.964818e+03
2.825220e+02,1.961602e+03
2.834862e+02,1.956792e+03
2.844504e+02,1.954958e+03
2.854147e+02,1.959233e+03
2.863789e+02,1.962239e+03
2.873431e+02,1.961965e+03
2.883074e+02,1.959561e+03
2.892716e+02,1.956388e+03
2.902358e+02,1.952338e+03
2.912001e+02,1.947137e+03
2.921643e+02,1.945852e+03
2.931285e+02,1.954584e+03
2.940928e+02,1.962200e+03
2.950570e+02,1.961573e+03
2.960212e+02,1.953139e+03
2.969855e+02,1.943610e+03
2.979497e+02,1.941894e+03
2.989139e+02,1.953250e+03
2.998782e+02,1.960692e+03
3.008424e+02,1.963852e+03
3.018066e+02,1.964446e+03
3.027709e+02,1.962223e+03
3.037351e+02,1.956119e+03
3.046993e+02,1.948518e+03
3.056636e+02,1.944577e+03
3.066278e+02,1.946037e+03
3.075920e+02,1.948150e+03
3.085563e+02,1.949102e+03
3.095205e+02,1.949554e+03
3.104847e+02,1.950010e+03
3.114490e+02,1.949203e+03
3.124132e+02,1.947883e+03
3.133774e+02,1.948545e+03
3.143417e+02,1.952076e+03
3.153059e+02,1.955766e+03
3.162701e+02,1.956961e+03
3.172344e+02,1.956406e+03
3.181986e+02,1.954220e+03
3.191628e+02,1.949216e+03
3.201271e+02,1.942767e+03
3.210913e+02,1.937056e+03
3.220555e+02,1.932683e+03
3.230198e+02,1.929702e+03
3.239840e+02,1.929524e+03
3.249482e+02,1.935365e+03
3.259125e+02,1.940399e+03
3.268767e+02,1.942049e+03
3.278409e+02,1.941043e+03
3.288052e+02,1.939685e+03
3.297694e+02,1.940177e+03
3.307336e+02,1.943080e+03
3.316979e+02,1.944502e+03
3.326621e+02,1.943609e+03
3.336263e+02,1.941312e+03
3.345906e+02,1.937669e+03
3.355548e+02,1.933169e+03
3.365190e+02,1.929724e+03
3.374833e+02,1.929080e+03
3.384475e+02,1.931226e+03
3.394117e+02,1.934951e+03
3.403760e+02,1.941359e+03
3.413402e+02,1.948154e+03
3.423044e+02,1.951459e+03
3.432687e+02,1.946875e+03
3.442329e+02,1.940650e+03
3.451971e+02,1.938546e+03
3.461614e+02,1.940213e+03
3.471256e+02,1.941679e+03
3.480898e+02,1.940219e+03
3.490541e+02,1.935071e+03
3.500183e+02,1.931682e+03
3.509825e+02,1.931800e+03
3.519468e+02,1.933594e+03
3.529110e+02,1.935674e+03
3.538752e+02,1.937246e+03
3.548395e+02,1.937527e+03
3.558037e+02,1.935286e+03
3.567680e+02,1.927261e+03
3.577322e+02,1.922361e+03
3.586964e+02,1.923174e+03
3.596607e+02,1.927560e+03
3.606249e+02,1.932881e+03
3.615891e+02,1.938114e+03
3.625534e+02,1.941714e+03
3.635176e+02,1.940842e+03
3.644818e+02,1.934404e+03
3.654461e+02,1.927881e+03
3.664103e+02,1.925848e+03
3.673745e+02,1.928351e+03
3.683388e+02,1.931263e+03
3.693030e+02,1.933184e+03
3.702672e+02,1.933384e+03
3.712315e+02,1.929668e+03
3.721957e+02,1.920569e+03
3.731599e+02,1.911154e+03
3.741242e+02,1.910101e+03
3.750884e+02,1.930357e+03
3.760526e+02,1.944451e+03
3.770169e+02,1.947072e+03
3.779811e+02,1.943092e+03
3.789453e+02,1.937919e+03
3.799096e+02,1.933766e+03
3.808738e+02,1.930366e+03
3.818380e+02,1.927357e+03
3.828023e+02,1.925884e+03
3.837665e+02,1.925091e+03
3.847307e+02,1.924072e+03
3.856950e+02,1.923135e+03
3.866592e+02,1.922975e+03
3.876234e+02,1.924871e+03
3.885877e+02,1.927752e+03
3.895519e+02,1.928266e+03
3.905161e+02,1.925173e+03
3.914804e+02,1.920909e+03
3.924446e+02,1.918396e+03
3.934088e+02,1.918278e+03
3.943731e+02,1.918621e+03
3.953373e+02,1.919891e+03
3.963015e+02,1.920951e+03
3.972658e+02,1.919622e+03
3.982300e+02,1.915085e+03
3.991942e+02,1.909655e+03
4.001585e+02,1.908272e+03
4.011227e+02,1.914840e+03
4.020869e+02,1.919755e+03
4.030512e+02,1.920233e+03
4.040154e+02,1.917734e+03
4.049796e+02,1.915046e+03
4.059439e+02,1.913308e+03
4.069081e+02,1.912600e+03
4.078723e+02,1.914157e+03
4.088366e+02,1.919736e+03
4.098008e+02,1.922975e+03
4.107650e+02,1.918943e+03
4.117293e+02,1.908564e+03
4.126935e+02,1.900625e+03
4.136577e+02,1.899432e+03
4.146220e+02,1.902031e+03
4.155862e+02,1.904465e+03
4.165504e+02,1.906004e+03
4.175147e+02,1.906993e+03
4.184789e+02,1.907845e+03
4.194431e+02,1.907914e+03
4.204074e+02,1.908494e+03
4.213716e+02,1.910573e+03
4.223358e+02,1.912764e+03
4.233001e+02,1.913538e+03
4.242643e+02,1.912223e+03
4.252285e+02,1.909711e+03
4.261928e+02,1.907587e+03
4.271570e+02,1.905724e+03
4.281212e+02,1.905042e+03
4.290855e+02,1.906648e+03
4.300497e+02,1.909355e+03
4.310139e+02,1.910827e+03
4.319782e+02,1.910394e+03
4.329424e+02,1.908839e+03
4.339066e+02,1.906098e+03
4.348709e+02,1.901917e+03
4.358351e+02,1.898019e+03
4.367993e+02,1.896289e+03
4.377636e+02,1.898048e+03
4.387278e+02,1.899003e+03
4.396920e+02,1.898687e+03
4.406563e+02,1.898389e+03
4.416205e+02,1.899027e+03
4.425847e+02,1.900699e+03
4.435490e+02,1.902354e+03
4.445132e+02,1.903145e+03
4.454774e+02,1.903588e+03
4.464417e+02,1.901949e+03
4.474059e+02,1.894690e+03
4.483701e+02,1.885639e+03
4.493344e+02,1.879974e+03
4.502986e+02,1.880249e+03
4.512628e+02,1.883109e+03
4.522271e+02,1.887838e+03
4.531913e+02,1.893729e+03
4.541555e+02,1.897365e+03
4.551198e+02,1.896029e+03
4.560840e+02,1.889790e+03
4.570482e+02,1.886123e+03
4.580125e+02,1.888407e+03
4.589767e+02,1.891556e+03
4.599409e+02,1.893246e+03
4.609052e+02,1.893038e+03
4.618694e+02,1.891960e+03
4.628336e+02,1.891057e+03
4.637979e+02,1.890411e+03
4.647621e+02,1.889505e+03
4.657263e+02,1.888475e+03
4.666906e+02,1.888289e+03
4.676548e+02,1.889151e+03
4.686190e+02,1.890887e+03
4.695833e+02,1.892810e+03
4.705475e+02,1.895471e+03
4.715117e+02,1.897740e+03
4.724760e+02,1.898130e+03
4.734402e+02,1.896234e+03
4.744044e+02,1.892678e+03
4.753687e+02,1.888291e+03
4.763329e+02,1.879882e+03
4.772971e+02,1.875938e+03
4.782614e+02,1.881448e+03
4.792256e+02,1.890755e+03
4.801898e+02,1.896495e+03
4.811541e+02,1.893444e+03
4.821183e+02,1.886639e+03
4.830826e+02,1.883180e+03
4.840468e+02,1.883073e+03
4.850110e+02,1.883593e+03
4.859753e+02,1.883477e+03
4.869395e+02,1.882562e+03
4.879037e+02,1.881818e+03
4.888680e+02,1.882002e+03
4.898322e+02,1.882135e+03
4.907964e+02,1.881929e+03
4.917607e+02,1.881394e+03
4.927249e+02,1.880449e+03
4.936891e+02,1.877826e+03
4.946534e+02,1.873136e+03
4.956176e+02,1.872887e+03
4.965818e+02,1.881615e+03
4.975461e+02,1.891032e+03
4.985103e+02,1.893606e+03
4.994745e+02,1.887281e+03
5.004388e+02,1.880578e+03
5.014030e+02,1.876563e+03
5.023672e+02,1.875282e+03
5.033315e+02,1.877494e+03
5.042957e+02,1.883731e+03
5.052599e+02,1.890939e+03
5.062242e+02,1.892628e+03
5.071884e+02,1.883760e+03
5.081526e+02,1.877755e+03
5.091169e+02,1.878656e+03
5.100811e+02,1.882674e+03
5.110453e+02,1.885134e+03
5.120095e+02,1.884286e+03
5.129738e+02,1.881616e+03
5.139380e+02,1.877535e+03
5.149022e+02,1.872178e+03
5.158665e+02,1.869778e+03
5.168307e+02,1.873096e+03
5.177949e+02,1.880966e+03
5.187592e+02,1.883722e+03
5.197234e+02,1.880068e+03
5.206876e+02,1.876108e+03
5.216519e+02,1.873657e+03
5.226161e+02,1.873016e+03
5.235803e+02,1.873940e+03
5.245446e+02,1.877106e+03
5.255088e+02,1.882007e+03
5.264730e+02,1.885037e+03
5.274373e+02,1.885447e+03
5.284015e+02,1.885090e+03
5.293657e+02,1.885983e+03
5.303300e+02,1.888938e+03
5.312942e+02,1.887975e+03
5.322584e+02,1.879594e+03
5.332227e+02,1.869361e+03
5.341869e+02,1.861383e+03
5.351511e+02,1.856278e+03
5.361154e+02,1.853752e+03
5.370796e+02,1.854689e+03
5.380438e+02,1.860717e+03
5.390081e+02,1.864617e+03
5.399723e+02,1.863050e+03
5.409365e+02,1.860753e+03
5.419008e+02,1.861932e+03
5.428650e+02,1.868341e+03
5.438292e+02,1.874261e+03
5.447935e+02,1.877521e+03
5.457577e+02,1.878172e+03
5.467219e+02,1.875680e+03
5.476862e+02,1.869407e+03
5.486504e+02,1.861087e+03
5.496146e+02,1.856375e+03
5.505789e+02,1.858939e+03
5.515431e+02,1.859221e+03
5.525073e+02,1.853245e+03
5.534716e+02,1.845555e+03
5.544358e+02,1.841858e+03
5.554000e+02,1.846420e+03
5.563643e+02,1.853142e+03
5.573285e+02,1.855616e+03
5.582927e+02,1.854188e+03
5.592570e+02,1.852772e+03
5.602212e+02,1.854042e+03
5.611854e+02,1.857823e+03
5.621497e+02,1.861651e+03
5.631139e+02,1.867479e+03
5.640781e+02,1.870461e+03
5.650424e+02,1.868439e+03
5.660066e+02,1.862672e+03
5.669708e+02,1.857111e+03
5.679351e+02,1.854106e+03
5.688993e+02,1.853067e+03
5.698635e+02,1.853152e+03
5.708278e+02,1.854557e+03
5.717920e+02,1.856439e+03
5.727562e+02,1.857585e+03
5.737205e+02,1.857260e+03
5.746847e+02,1.857064e+03
5.756489e+02,1.856791e+03
5.766132e+02,1.856313e+03
5.775774e+02,1.855369e+03
5.785416e+02,1.854096e+03
5.795059e+02,1.853737e+03
5.804701e+02,1.856166e+03
5.814343e+02,1.860391e+03
5.823986e+02,1.863436e+03
5.833628e+02,1.864976e+03
5.843270e+02,1.865106e+03
5.852913e+02,1.863677e+03
5.862555e+02,1.858109e+03
5.872197e+02,1.854952e+03
5.881840e+02,1.855269e+03
5.891482e+02,1.856895e+03
5.901124e+02,1.858280e+03
5.910767e+02,1.859008e+03
5.920409e+02,1.859382e+03
5.930051e+02,1.859952e+03
5.939694e+02,1.860330e+03
5.949336e+02,1.858850e+03
5.958978e+02,1.854567e+03
5.968621e+02,1.848873e+03
5.978263e+02,1.845087e+03
5.987905e+02,1.844523e+03
5.997548e+02,1.845044e+03
6.007190e+02,1.847151e+03
6.016832e+02,1.850399e+03
6.026475e+02,1.854354e+03
6.036117e+02,1.859668e+03
6.045759e+02,1.863200e+03
6.055402e+02,1.859178e+03
6.065044e+02,1.848354e+03
6.074686e+02,1.839842e+03
6.084329e+02,1.838655e+03
6.093971e+02,1.843185e+03
6.103613e+02,1.844566e+03
6.113256e+02,1.838114e+03
6.122899e+02,1.833678e+03
6.132541e+02,1.834955e+03
6.142183e+02,1.839072e+03
6.151826e+02,1.841223e+03
6.161468e+02,1.838870e+03
6.171110e+02,1.834531e+03
6.180753e+02,1.829834e+03
6.190395e+02,1.824828e+03
6.200037e+02,1.821552e+03
6.209680e+02,1.821286e+03
6.219322e+02,1.824176e+03
6.228964e+02,1.828135e+03
6.238607e+02,1.835389e+03
6.248249e+02,1.840968e+03
6.257891e+02,1.842565e+03
6.267534e+02,1.840424e+03
6.277176e+02,1.836779e+03
6.286818e+02,1.830693e+03
6.296461e+02,1.825618e+03
6.306103e+02,1.826869e+03
6.315745e+02,1.833884e+03
6.325388e+02,1.840150e+03
6.335030e+02,1.839916e+03
6.344672e+02,1.832626e+03
6.354315e+02,1.827112e+03
6.363957e+02,1.823167e+03
6.373599e+02,1.820469e+03
6.383242e+02,1.819951e+03
6.392884e+02,1.821539e+03
6.402526e+02,1.822413e+03
6.412169e+02,1.822083e+03
6.421811e+02,1.820287e+03
6.431453e+02,1.815326e+03
6.441096e+02,1.807802e+03
6.450738e+02,1.801671e+03
6.460380e+02,1.801845e+03
6.470023e+02,1.808898e+03
6.479665e+02,1.814295e+03
6.489307e+02,1.817575e+03
6.498950e+02,1.818776e+03
6.508592e+02,1.816359e+03
6.518234e+02,1.809512e+03
6.527877e+02,1.805438e+03
6.537519e+02,1.808069e+03
6.547161e+02,1.812123e+03
6.556804e+02,1.813303e+03
6.566446e+02,1.811508e+03
6.576088e+02,1.809910e+03
6.585731e+02,1.813096e+03
6.595373e+02,1.819675e+03
6.605015e+02,1.820487e+03
6.614658e+02,1.813191e+03
6.624300e+02,1.804297e+03
6.633942e+02,1.800038e+03
6.643585e+02,1.801926e+03
6.653227e+02,1.804657e+03
6.662869e+02,1.810395e+03
6.672512e+02,1.814812e+03
6.682154e+02,1.814035e+03
6.691796e+02,1.807531e+03
6.701439e+02,1.801475e+03
6.711081e+02,1.802089e+03
6.720723e+02,1.806103e+03
6.730366e+02,1.806238e+03
6.740008e+02,1.801338e+03
6.749650e+02,1.795496e+03
6.759293e+02,1.793985e+03
6.768935e+02,1.799450e+03
6.778577e+02,1.802258e+03
6.788220e+02,1.801538e+03
6.797862e+02,1.799716e+03
6.807504e+02,1.796943e+03
6.817147e+02,1.792159e+03
6.826789e+02,1.789537e+03
6.836431e+02,1.792861e+03
6.846074e+02,1.797339e+03
6.855716e+02,1.797959e+03
6.865358e+02,1.794171e+03
6.875001e+02,1.788943e+03
6.884643e+02,1.784439e+03
6.894285e+02,1.780759e+03
6.903928e+02,1.781812e+03
6.913570e+02,1.790639e+03
6.923212e+02,1.799653e+03
6.932855e+02,1.800367e+03
6.942497e+02,1.786926e+03
6.952139e+02,1.778498e+03
6.961782e+02,1.776144e+03
6.971424e+02,1.777864e+03
6.981066e+02,1.783430e+03
6.990709e+02,1.792062e+03
7.000351e+02,1.798653e+03
7.009993e+02,1.799984e+03
7.019636e+02,1.797768e+03
7.029278e+02,1.794221e+03
7.038920e+02,1.789511e+03
7.048563e+02,1.784183e+03
7.058205e+02,1.779395e+03
7.067847e+02,1.775983e+03
7.077490e+02,1.772662e+03
7.087132e+02,1.768926e+03
7.096774e+02,1.767324e+03
7.106417e+02,1.768745e+03
7.116059e+02,1.773671e+03
7.125701e+02,1.777722e+03
7.135344e+02,1.780121e+03
7.144986e+02,1.781593e+03
7.154628e+02,1.782521e+03
7.164271e+02,1.782756e+03
7.173913e+02,1.781795e+03
7.183555e+02,1.777957e+03
7.193198e+02,1.772078e+03
7.202840e+02,1.769258e+03
7.212482e+02,1.770880e+03
7.222125e+02,1.773929e+03
7.231767e+02,1.774996e+03
7.241409e+02,1.772822e+03
7.251052e+02,1.770715e+03
7.260694e+02,1.768982e+03
7.270336e+02,1.766887e+03
7.279979e+02,1.763700e+03
7.289621e+02,1.759227e+03
7.299263e+02,1.756790e+03
7.308906e+02,1.759252e+03
7.318548e+02,1.763330e+03
7.328190e+02,1.765692e+03
7.337833e+02,1.766038e+03
7.347475e+02,1.765908e+03
7.357117e+02,1.768290e+03
7.366760e+02,1.772928e+03
7.376402e+02,1.772429e+03
7.386044e+02,1.764735e+03
7.395687e+02,1.757086e+03
7.405329e+02,1.755833e+03
7.414971e+02,1.763518e+03
7.424614e+02,1.766195e+03
7.434256e+02,1.760051e+03
7.443898e+02,1.754492e+03
7.453541e+02,1.753102e+03
7.463183e+02,1.755078e+03
7.472825e+02,1.758003e+03
7.482468e+02,1.764377e+03
7.492110e+02,1.769311e+03
7.501752e+02,1.766748e+03
7.511395e+02,1.758023e+03
7.521037e+02,1.749245e+03
7.530679e+02,1.744547e+03
7.540322e+02,1.743118e+03
7.549964e+02,1.742365e+03
7.559606e+02,1.742452e+03
7.569249e+02,1.744228e+03
7.578891e+02,1.749116e+03
7.588533e+02,1.757668e+03
7.598176e+02,1.762747e+03
7.607818e+02,1.758489e+03
7.617460e+02,1.753881e+03
7.627103e+02,1.753660e+03
7.636745e+02,1.757141e+03
7.646387e+02,1.759493e+03
7.656030e+02,1.757252e+03
7.665672e+02,1.754206e+03
7.675314e+02,1.753113e+03
7.684957e+02,1.752439e+03
7.694599e+02,1.749748e+03
7.704241e+02,1.743582e+03
7.713884e+02,1.736544e+03
7.723526e+02,1.735396e+03
7.733168e+02,1.741236e+03
7.742811e+02,1.746919e+03
7.752453e+02,1.747966e+03
7.762095e+02,1.744772e+03
7.771738e+02,1.743030e+03
7.781380e+02,1.744113e+03
7.791022e+02,1.743556e+03
7.800665e+02,1.740273e+03
7.810307e+02,1.735678e+03
7.819949e+02,1.731863e+03
7.829592e+02,1.729123e+03
7.839234e+02,1.728614e+03
7.848876e+02,1.731790e+03
7.858519e+02,1.736819e+03
7.868161e+02,1.741309e+03
7.877803e+02,1.744578e+03
7.887446e+02,1.745824e+03
7.897088e+02,1.743288e+03
7.906730e+02,1.738133e+03
7.916373e+02,1.734325e+03
7.926015e+02,1.732117e+03
7.935657e+02,1.730464e+03
7.945300e+02,1.729964e+03
7.954942e+02,1.733025e+03
7.964584e+02,1.732758e+03
7.974227e+02,1.726964e+03
7.983869e+02,1.720894e+03
7.993511e+02,1.718869e+03
8.003154e+02,1.721727e+03
8.012796e+02,1.723780e+03
8.022438e+02,1.724986e+03
8.032081e+02,1.725870e+03
8.041723e+02,1.726261e+03
8.051365e+02,1.725788e+03
8.061008e+02,1.726189e+03
8.070650e+02,1.728883e+03
8.080292e+02,1.732642e+03
8.089935e+02,1.737130e+03
8.099577e+02,1.742613e+03
8.109219e+02,1.746583e+03
8.118862e+02,1.745486e+03
8.128504e+02,1.739465e+03
8.138146e+02,1.732998e+03
8.147789e+02,1.725302e+03
8.157431e+02,1.718947e+03
8.167073e+02,1.716823e+03
8.176716e+02,1.720807e+03
8.186358e+02,1.723659e+03
8.196000e+02,1.724849e+03
8.205643e+02,1.725114e+03
8.215285e+02,1.723594e+03
8.224927e+02,1.720415e+03
8.234570e+02,1.717277e+03
8.244212e+02,1.713579e+03
8.253854e+02,1.711058e+03
8.263497e+02,1.711021e+03
8.273139e+02,1.712396e+03
8.282781e+02,1.713385e+03
8.292424e+02,1.713893e+03
8.302066e+02,1.714306e+03
8.311708e+02,1.714383e+03
8.321351e+02,1.714179e+03
8.330993e+02,1.713856e+03
8.340635e+02,1.712935e+03
8.350278e+02,1.711880e+03
8.359920e+02,1.713032e+03
8.369562e+02,1.716994e+03
8.379205e+02,1.720208e+03
8.388847e+02,1.721038e+03
8.398489e+02,1.720761e+03
8.408132e+02,1.722472e+03
8.417774e+02,1.729510e+03
8.427416e+02,1.733146e+03
8.437059e+02,1.730035e+03
8.446701e+02,1.724544e+03
8.456343e+02,1.721570e+03
8.465986e+02,1.723209e+03
8.475628e+02,1.724033e+03
8.485270e+02,1.722556e+03
8.494913e+02,1.719156e+03
8.504555e+02,1.713130e+03
8.514197e+02,1.704389e+03
8.523840e+02,1.698399e+03
8.533482e+02,1.702093e+03
8.543124e+02,1.710477e+03
8.552767e+02,1.714093e+03
8.562409e+02,1.711574e+03
8.572051e+02,1.707414e+03
8.581694e+02,1.707537e+03
8.591336e+02,1.711535e+03
8.600978e+02,1.710864e+03
8.610621e+02,1.704610e+03
8.620263e+02,1.697997e+03
8.629905e+02,1.694112e+03
8.639548e+02,1.692384e+03
8.649190e+02,1.692384e+03
8.658832e+02,1.697353e+03
8.668475e+02,1.701352e+03
8.678117e+02,1.699880e+03
8.687759e+02,1.694242e+03
8.697402e+02,1.692610e+03
8.707044e+02,1.699684e+03
8.716686e+02,1.704490e+03
8.726329e+02,1.703297e+03
8.735971e+02,1.698466e+03
8.745613e+02,1.693744e+03
8.755256e+02,1.689566e+03
8.764898e+02,1.687995e+03
8.774540e+02,1.692358e+03
8.784183e+02,1.699243e+03
8.793825e+02,1.702501e+03
8.803467e+02,1.699249e+03
8.813110e+02,1.694093e+03
8.822752e+02,1.693136e+03
8.832394e+02,1.695685e+03
8.842037e+02,1.698191e+03
8.851679e+02,1.699409e+03
8.861321e+02,1.699356e+03
8.870964e+02,1.698273e+03
8.880606e+02,1.696000e+03
8.890248e+02,1.693352e+03
8.899891e+02,1.691051e+03
8.909533e+02,1.689055e+03
8.919175e+02,1.686921e+03
8.928818e+02,1.684544e+03
8.938460e+02,1.682300e+03
8.948102e+02,1.679468e+03
8.957745e+02,1.676694e+03
8.967387e+02,1.673862e+03
8.977029e+02,1.670673e+03
8.986672e+02,1.670123e+03
8.996314e+02,1.677247e+03
9.005956e+02,1.684075e+03
9.015599e+02,1.687001e+03
9.025241e+02,1.686424e+03
9.034883e+02,1.684542e+03
9.044526e+02,1.681926e+03
9.054168e+02,1.677623e+03
9.063810e+02,1.670453e+03
9.073453e+02,1.663180e+03
9.083095e+02,1.659383e+03
9.092737e+02,1.660632e+03
9.102380e+02,1.663496e+03
9.112022e+02,1.664062e+03
9.121664e+02,1.663369e+03
9.131307e+02,1.665298e+03
9.140949e+02,1.671774e+03
9.150591e+02,1.678846e+03
9.160234e+02,1.679064e+03
9.169876e+02,1.672401e+03
9.179518e+02,1.665633e+03
9.189161e+02,1.659430e+03
9.198803e+02,1.655338e+03
9.208445e+02,1.656841e+03
9.218088e+02,1.665795e+03
9.227730e+02,1.668870e+03
9.237372e+02,1.663272e+03
9.247015e+02,1.656443e+03
9.256657e+02,1.652921e+03
9.266299e+02,1.652654e+03
9.275942e+02,1.653924e+03
9.285584e+02,1.657922e+03
9.295226e+02,1.661283e+03
9.304869e+02,1.662490e+03
9.314511e+02,1.662521e+03
9.324153e+02,1.663733e+03
9.333796e+02,1.670261e+03
9.343438e+02,1.673320e+03
9.353080e+02,1.667167e+03
9.362723e+02,1.656370e+03
9.372365e+02,1.647986e+03
9.382007e+02,1.644832e+03
9.391650e+02,1.645111e+03
9.401292e+02,1.651303e+03
9.410934e+02,1.658626e+03
9.420577e+02,1.660904e+03
9.430219e+02,1.656265e+03
9.439861e+02,1.649312e+03
9.449504e+02,1.641450e+03
9.459146e+02,1.635640e+03
9.468788e+02,1.636131e+03
9.478431e+02,1.641937e+03
9.488073e+02,1.647425e+03
9.497715e+02,1.648248e+03
9.507358e+02,1.646453e+03
9.517000e+02,1.646549e+03
9.526642e+02,1.648919e+03
9.536285e+02,1.650881e+03
9.545927e+02,1.650342e+03
9.555569e+02,1.647816e+03
9.565212e+02,1.644388e+03
9.574854e+02,1.640532e+03
9.584496e+02,1.639390e+03
9.594139e+02,1.641849e+03
9.603781e+02,1.646194e+03
9.613423e+02,1.649350e+03
9.623066e+02,1.651221e+03
9.632708e+02,1.653051e+03
9.642350e+02,1.656123e+03
9.651993e+02,1.658752e+03
9.661635e+02,1.657744e+03
9.671277e+02,1.650656e+03
9.680920e+02,1.644339e+03
9.690562e+02,1.638515e+03
9.700204e+02,1.633609e+03
9.709847e+02,1.630794e+03
9.719489e+02,1.631138e+03
9.729131e+02,1.630662e+03
9.738774e+02,1.628560e+03
9.748416e+02,1.627266e+03
9.758058e+02,1.626335e+03
9.767701e+02,1.625784e+03
9.777343e+02,1.628103e+03
9.786985e+02,1.638108e+03
9.796628e+02,1.645726e+03
9.806270e+02,1.647602e+03
9.815912e+02,1.644963e+03
9.825555e+02,1.639958e+03
9.835197e+02,1.631038e+03
9.844839e+02,1.624355e+03
9.854482e+02,1.624336e+03
9.864124e+02,1.627240e+03
9.873766e+02,1.628336e+03
9.883409e+02,1.626409e+03
9.893051e+02,1.624420e+03
9.902693e+02,1.624649e+03
9.912336e+02,1.625619e+03
9.921978e+02,1.624886e+03
9.931620e+02,1.621933e+03
9.941263e+02,1.618710e+03
9.950905e+02,1.616369e+03
9.960547e+02,1.615024e+03
9.970190e+02,1.614904e+03
9.979832e+02,1.615691e+03
9.989474e+02,1.616986e+03
9.999117e+02,1.620221e+03
1.000876e+03,1.623228e+03
1.001840e+03,1.621025e+03
1.002804e+03,1.615635e+03
1.003769e+03,1.612658e+03
1.004733e+03,1.613822e+03
1.005697e+03,1.616923e+03
1.006661e+03,1.619963e+03
1.007626e+03,1.622720e+03
1.008590e+03,1.623343e+03
1.009554e+03,1.621064e+03
1.010518e+03,1.617343e+03
1.011482e+03,1.613535e+03
1.012447e+03,1.609851e+03
1.013411e+03,1.609264e+03
1.014375e+03,1.612980e+03
1.015339e+03,1.615599e+03
1.016304e+03,1.611732e+03
1.017268e+03,1.603060e+03
1.018232e+03,1.601619e+03
1.019196e+03,1.608386e+03
1.020161e+03,1.612782e+03
1.021125e+03,1.610303e+03
1.022089e+03,1.604177e+03
1.023053e+03,1.601624e+03
1.024018e+03,1.602575e+03
1.024982e+03,1.604621e+03
1.025946e+03,1.607504e+03
1.026910e+03,1.609786e+03
1.027875e+03,1.610580e+03
1.028839e+03,1.610616e+03
1.029803e+03,1.609669e+03
1.030767e+03,1.607350e+03
1.031731e+03,1.604927e+03
1.032696e+03,1.603069e+03
1.033660e+03,1.601677e+03
1.034624e+03,1.599245e+03
1.035588e+03,1.594804e+03
1.036552e+03,1.592267e+03
1.037517e+03,1.593679e+03
1.038481e+03,1.597343e+03
1.039445e+03,1.598480e+03
1.040409e+03,1.595341e+03
1.041374e+03,1.592707e+03
1.042338e+03,1.591855e+03
1.043302e+03,1.592286e+03
1.044266e+03,1.593010e+03
1.045231e+03,1.594560e+03
1.046195e+03,1.594979e+03
1.047159e+03,1.593669e+03
1.048123e+03,1.592389e+03
1.049088e+03,1.592221e+03
1.050052e+03,1.593725e+03
1.051016e+03,1.596038e+03
1.051980e+03,1.600893e+03
1.052945e+03,1.604392e+03
1.053909e+03,1.603760e+03
1.054873e+03,1.599291e+03
1.055837e+03,1.594958e+03
1.056802e+03,1.591297e+03
1.057766e+03,1.588525e+03
1.058730e+03,1.586889e+03
1.059694e+03,1.586439e+03
1.060658e+03,1.587108e+03
1.061623e+03,1.590720e+03
1.062587e+03,1.592810e+03
1.063551e+03,1.591918e+03
1.064515e+03,1.590267e+03
1.065479e+03,1.589025e+03
1.066444e+03,1.588628e+03
1.067408e+03,1.588283e+03
1.068372e+03,1.587286e+03
1.069336e+03,1.586860e+03
1.070301e+03,1.587546e+03
1.071265e+03,1.588351e+03
1.072229e+03,1.587540e+03
1.073193e+03,1.581399e+03
1.074158e+03,1.577640e+03
1.075122e+03,1.581408e+03
1.076086e+03,1.587273e+03
1.077050e+03,1.588575e+03
1.078015e+03,1.582286e+03
1.078979e+03,1.578855e+03
1.079943e+03,1.582383e+03
1.080907e+03,1.587409e+03
1.081872e+03,1.590099e+03
1.082836e+03,1.589662e+03
1.083800e+03,1.587260e+03
1.084764e+03,1.579853e+03
1.085729e+03,1.574718e+03
1.086693e+03,1.577231e+03
1.087657e+03,1.584161e+03
1.088621e+03,1.587430e+03
1.089585e+03,1.582114e+03
1.090550e+03,1.576266e+03
1.091514e+03,1.573099e+03
1.092478e+03,1.571070e+03
1.093442e+03,1.567506e+03
1.094406e+03,1.560153e+03
1.095371e+03,1.557504e+03
1.096335e+03,1.566296e+03
1.097299e+03,1.575465e+03
1.098263e+03,1.577042e+03
1.099228e+03,1.570934e+03
1.100192e+03,1.566589e+03
1.101156e+03,1.566002e+03
1.102120e+03,1.566841e+03
1.103085e+03,1.570030e+03
1.104049e+03,1.573915e+03
1.105013e+03,1.575255e+03
1.105977e+03,1.570097e+03
1.106942e+03,1.567209e+03
1.107906e+03,1.572253e+03
1.108870e+03,1.577602e+03
1.109834e+03,1.575172e+03
1.110799e+03,1.561477e+03
1.111763e+03,1.551971e+03
1.112727e+03,1.550532e+03
1.113691e+03,1.552003e+03
1.114656e+03,1.554650e+03
1.115620e+03,1.558103e+03
1.116584e+03,1.560453e+03
1.117548e+03,1.557578e+03
1.118512e+03,1.557066e+03
1.119477e+03,1.563755e+03
1.120441e+03,1.572879e+03
1.121405e+03,1.577419e+03
1.122369e+03,1.575139e+03
1.123334e+03,1.571690e+03
1.124298e+03,1.566520e+03
1.125262e+03,1.561185e+03
1.126226e+03,1.556332e+03
1.127191e+03,1.551789e+03
1.128155e+03,1.550405e+03
1.129119e+03,1.554093e+03
1.130083e+03,1.557564e+03
1.131047e+03,1.558576e+03
1.132012e+03,1.557519e+03
1.132976e+03,1.556809e+03
1.133940e+03,1.556570e+03
1.134904e+03,1.556267e+03
1.135869e+03,1.556262e+03
1.136833e+03,1.556629e+03
1.137797e+03,1.557513e+03
1.138761e+03,1.559873e+03
1.139726e+03,1.560799e+03
1.140690e+03,1.558936e+03
1.141654e+03,1.557836e+03
1.142618e+03,1.559860e+03
1.143583e+03,1.564549e+03
1.144547e+03,1.567323e+03
1.145511e+03,1.567633e+03
1.146475e+03,1.568087e+03
1.147439e+03,1.569815e+03
1.148404e+03,1.571493e+03
1.149368e+03,1.569718e+03
1.150332e+03,1.563847e+03
1.151296e+03,1.559150e+03
1.152261e+03,1.555505e+03
1.153225e+03,1.551689e+03
1.154189e+03,1.547806e+03
1.155153e+03,1.544462e+03
1.156118e+03,1.541034e+03
1.157082e+03,1.537977e+03
1.158046e+03,1.536907e+03
1.159010e+03,1.538034e+03
1.159974e+03,1.540966e+03
1.160939e+03,1.545836e+03
1.161903e+03,1.551868e+03
1.162867e+03,1.556429e+03
1.163831e+03,1.558943e+03
1.164796e+03,1.558695e+03
1.165760e+03,1.553855e+03
1.166724e+03,1.546528e+03
1.167688e+03,1.540784e+03
1.168653e+03,1.537119e+03
1.169617e+03,1.537201e+03
1.170581e+03,1.545237e+03
1.171545e+03,1.554214e+03
1.172510e+03,1.551165e+03
1.173474e+03,1.541235e+03
1.174438e+03,1.536350e+03
1.175402e+03,1.540382e+03
1.176366e+03,1.545912e+03
1.177331e+03,1.546297e+03
1.178295e+03,1.544801e+03
1.179259e+03,1.546075e+03
1.180223e+03,1.549477e+03
1.181188e+03,1.550234e+03
1.182152e+03,1.542787e+03
1.183116e+03,1.534660e+03
1.184080e+03,1.531968e+03
1.185045e+03,1.532793e+03
1.186009e+03,1.532915e+03
1.186973e+03,1.530124e+03
1.187937e+03,1.529686e+03
1.188901e+03,1.536639e+03
1.189866e+03,1.544267e+03
1.190830e+03,1.545956e+03
1.191794e+03,1.540626e+03
1.192758e+03,1.536480e+03
1.193723e+03,1.537718e+03
1.194687e+03,1.538916e+03
1.195651e+03,1.536629e+03
1.196615e+03,1.532460e+03
1.197580e+03,1.530669e+03
1.198544e+03,1.533307e+03
1.199508e+03,1.532955e+03
1.200472e+03,1.528022e+03
1.201437e+03,1.522672e+03
1.202401e+03,1.520698e+03
1.203365e+03,1.522930e+03
1.204329e+03,1.524920e+03
1.205293e+03,1.525820e+03
1.206258e+03,1.528333e+03
1.207222e+03,1.534486e+03
1.208186e+03,1.541960e+03
1.209150e+03,1.543146e+03
1.210115e+03,1.536752e+03
1.211079e+03,1.532960e+03
1.212043e+03,1.534303e+03
1.213007e+03,1.536224e+03
1.213972e+03,1.532718e+03
1.214936e+03,1.525574e+03
1.215900e+03,1.524425e+03
1.216864e+03,1.529104e+03
1.217828e+03,1.532796e+03
1.218793e+03,1.531260e+03
1.219757e+03,1.527045e+03
1.220721e+03,1.523528e+03
1.221685e+03,1.521000e+03
1.222650e+03,1.519388e+03
1.223614e+03,1.518139e+03
1.224578e+03,1.518192e+03
1.225542e+03,1.522741e+03
1.226507e+03,1.528532e+03
1.227471e+03,1.531126e+03
1.228435e+03,1.530539e+03
1.229399e+03,1.529548e+03
1.230364e+03,1.531985e+03
1.231328e+03,1.532504e+03
1.232292e+03,1.525994e+03
1.233256e+03,1.518063e+03
1.234220e+03,1.515769e+03
1.235185e+03,1.523372e+03
1.236149e+03,1.528279e+03
1.237113e+03,1.524772e+03
1.238077e+03,1.521072e+03
1.239042e+03,1.522049e+03
1.240006e+03,1.526220e+03
1.240970e+03,1.525985e+03
1.241934e+03,1.516638e+03
1.242899e+03,1.511452e+03
1.243863e+03,1.515737e+03
1.244827e+03,1.523082e+03
1.245791e+03,1.523826e+03
1.246755e+03,1.516055e+03
1.247720e+03,1.513530e+03
1.248684e+03,1.517569e+03
1.249648e+03,1.522855e+03
1.250612e+03,1.526643e+03
1.251577e+03,1.528133e+03
1.252541e+03,1.523151e+03
1.253505e+03,1.512766e+03
1.254469e+03,1.507159e+03
1.255434e+03,1.509857e+03
1.256398e+03,1.515787e+03
1.257362e+03,1.519321e+03
1.258326e+03,1.521010e+03
1.259291e+03,1.522370e+03
1.260255e+03,1.523228e+03
1.261219e+03,1.522880e+03
1.262183e+03,1.521920e+03
1.263147e+03,1.520344e+03
1.264112e+03,1.516480e+03
1.265076e+03,1.512293e+03
1.266040e+03,1.510668e+03
1.267004e+03,1.513151e+03
1.267969e+03,1.515482e+03
1.268933e+03,1.515655e+03
1.269897e+03,1.517215e+03
1.270861e+03,1.522762e+03
1.271826e+03,1.530394e+03
1.272790e+03,1.533017e+03
1.273754e+03,1.527250e+03
1.274718e+03,1.523476e+03
1.275682e+03,1.525335e+03
1.276647e+03,1.529205e+03
1.277611e+03,1.529850e+03
1.278575e+03,1.526526e+03
1.279539e+03,1.523938e+03
1.280504e+03,1.522894e+03
1.281468e+03,1.523498e+03
1.282432e+03,1.526127e+03
1.283396e+03,1.529139e+03
1.284361e+03,1.527448e+03
1.285325e+03,1.522018e+03
1.286289e+03,1.517889e+03
1.287253e+03,1.516181e+03
1.288218e+03,1.516935e+03
1.289182e+03,1.523590e+03
1.290146e+03,1.531000e+03
1.291110e+03,1.532165e+03
1.292074e+03,1.528342e+03
1.293039e+03,1.524820e+03
1.294003e+03,1.523899e+03
1.294967e+03,1.523321e+03
1.295931e+03,1.522967e+03
1.296896e+03,1.522865e+03
1.297860e+03,1.522709e+03
1.298824e+03,1.522134e+03
1.299788e+03,1.521534e+03
1.300753e+03,1.518480e+03
1.301717e+03,1.518672e+03
1.302681e+03,1.526312e+03
1.303645e+03,1.537884e+03
1.304609e+03,1.542620e+03
1.305574e+03,1.538591e+03
1.306538e+03,1.536647e+03
1.307502e+03,1.539118e+03
1.308466e+03,1.543984e+03
1.309431e+03,1.549641e+03
1.310395e+03,1.555634e+03
1.311359e+03,1.559219e+03
1.312323e+03,1.560558e+03
1.313288e+03,1.563601e+03
1.314252e+03,1.571758e+03
1.315216e+03,1.580591e+03
1.316180e+03,1.583641e+03
1.317145e+03,1.585377e+03
1.318109e+03,1.592020e+03
1.319073e+03,1.603353e+03
1.320037e+03,1.611122e+03
1.321001e+03,1.611359e+03
1.321966e+03,1.608583e+03
1.322930e+03,1.603432e+03
1.323894e+03,1.597912e+03
1.324858e+03,1.594658e+03
1.325823e+03,1.595850e+03
1.326787e+03,1.593583e+03
1.327751e+03,1.585347e+03
1.328715e+03,1.577997e+03
1.329680e+03,1.576998e+03
1.330644e+03,1.580511e+03
1.331608e+03,1.579978e+03
1.332572e+03,1.575498e+03
1.333536e+03,1.570166e+03
1.334501e+03,1.564510e+03
1.335465e+03,1.558431e+03
1.336429e+03,1.551098e+03
1.337393e+03,1.544780e+03
1.338358e+03,1.543716e+03
1.339322e+03,1.546819e+03
1.340286e+03,1.548769e+03
1.341250e+03,1.545395e+03
1.342215e+03,1.542120e+03
1.343179e+03,1.542403e+03
1.344143e+03,1.544907e+03
1.345107e+03,1.547306e+03
1.346072e+03,1.548863e+03
1.347036e+03,1.550238e+03
1.348000e+03,1.551391e+03
1.348964e+03,1.551285e+03
1.349928e+03,1.549238e+03
1.350893e+03,1.547220e+03
1.351857e+03,1.549357e+03
1.352821e+03,1.555116e+03
1.353785e+03,1.560528e+03
1.354750e+03,1.564920e+03
1.355714e+03,1.564340e+03
1.356678e+03,1.552330e+03
1.357642e+03,1.536742e+03
1.358607e+03,1.528127e+03
1.359571e+03,1.524404e+03
1.360535e+03,1.521443e+03
1.361499e+03,1.518377e+03
1.362464e+03,1.515405e+03
1.363428e+03,1.514766e+03
1.364392e+03,1.512928e+03
1.365356e+03,1.504945e+03
1.366320e+03,1.491055e+03
1.367285e+03,1.481282e+03
1.368249e+03,1.476943e+03
1.369213e+03,1.475969e+03
1.370177e+03,1.479709e+03
1.371142e+03,1.483002e+03
1.372106e+03,1.477759e+03
1.373070e+03,1.465844e+03
1.374034e+03,1.462347e+03
1.374999e+03,1.466915e+03
1.375963e+03,1.471678e+03
1.376927e+03,1.472749e+03
1.377891e+03,1.471937e+03
1.378855e+03,1.470069e+03
1.379820e+03,1.467673e+03
1.380784e+03,1.464896e+03
1.381748e+03,1.462259e+03
1.382712e+03,1.462663e+03
1.383677e+03,1.469528e+03
1.384641e+03,1.475022e+03
1.385605e+03,1.475980e+03
1.386569e+03,1.474215e+03
1.387534e+03,1.472780e+03
1.388498e+03,1.472139e+03
1.389462e+03,1.469505e+03
1.390426e+03,1.463933e+03
1.391391e+03,1.459983e+03
1.392355e+03,1.461840e+03
1.393319e+03,1.466549e+03
1.394283e+03,1.468149e+03
1.395247e+03,1.467118e+03
1.396212e+03,1.464594e+03
1.397176e+03,1.460802e+03
1.398140e+03,1.457340e+03
1.399104e+03,1.454580e+03
1.400069e+03,1.452392e+03
1.401033e+03,1.451138e+03
1.401997e+03,1.450493e+03
1.402961e+03,1.449574e+03
1.403926e+03,1.448029e+03
1.404890e+03,1.446657e+03
1.405854e+03,1.445738e+03
1.406818e+03,1.445360e+03
1.407782e+03,1.446113e+03
1.408747e+03,1.447597e+03
1.409711e+03,1.445976e+03
1.410675e+03,1.441452e+03
1.411639e+03,1.438531e+03
1.412604e+03,1.438845e+03
1.413568e+03,1.440496e+03
1.414532e+03,1.444263e+03
1.415496e+03,1.447626e+03
1.416461e+03,1.447187e+03
1.417425e+03,1.443313e+03
1.418389e+03,1.439512e+03
1.419353e+03,1.436314e+03
1.420318e+03,1.433466e+03
1.421282e+03,1.430972e+03
1.422246e+03,1.430215e+03
1.423210e+03,1.433090e+03
1.424174e+03,1.438780e+03
1.425139e+03,1.439251e+03
1.426103e+03,1.434846e+03
1.427067e+03,1.432040e+03
1.428031e+03,1.433380e+03
1.428996e+03,1.435514e+03
1.429960e+03,1.434997e+03
1.430924e+03,1.433186e+03
1.431888e+03,1.430942e+03
1.432853e+03,1.428776e+03
1.433817e+03,1.427966e+03
1.434781e+03,1.432471e+03
1.435745e+03,1.433380e+03
1.436709e+03,1.426256e+03
1.437674e+03,1.418884e+03
1.438638e+03,1.419901e+03
1.439602e+03,1.428435e+03
1.440566e+03,1.430122e+03
1.441531e+03,1.425581e+03
1.442495e+03,1.423282e+03
1.443459e+03,1.426819e+03
1.444423e+03,1.429694e+03
1.445388e+03,1.422663e+03
1.446352e+03,1.413162e+03
1.447316e+03,1.409998e+03
1.448280e+03,1.413232e+03
1.449245e+03,1.415772e+03
1.450209e+03,1.415704e+03
1.451173e+03,1.415259e+03
1.452137e+03,1.413283e+03
1.453101e+03,1.411413e+03
1.454066e+03,1.412393e+03
1.455030e+03,1.415598e+03
1.455994e+03,1.414251e+03
1.456958e+03,1.409288e+03
1.457923e+03,1.408003e+03
1.458887e+03,1.413931e+03
1.459851e+03,1.418760e+03
1.460815e+03,1.412516e+03
1.461780e+03,1.403513e+03
1.462744e+03,1.400830e+03
1.463708e+03,1.404187e+03
1.464672e+03,1.405032e+03
1.465636e+03,1.400345e+03
1.466601e+03,1.399796e+03
1.467565e+03,1.406348e+03
1.468529e+03,1.412845e+03
1.469493e+03,1.410457e+03
1.470458e+03,1.401944e+03
1.471422e+03,1.401212e+03
1.472386e+03,1.406254e+03
1.473350e+03,1.408273e+03
1.474315e+03,1.402876e+03
1.475279e+03,1.397663e+03
1.476243e+03,1.398380e+03
1.477207e+03,1.399753e+03
1.478172e+03,1.398617e+03
1.479136e+03,1.395343e+03
1.480100e+03,1.391125e+03
1.481064e+03,1.384738e+03
1.482028e+03,1.383738e+03
1.482993e+03,1.390056e+03
1.483957e+03,1.397426e+03
1.484921e+03,1.400668e+03
1.485885e+03,1.400319e+03
1.486850e+03,1.394176e+03
1.487814e+03,1.385415e+03
1.488778e+03,1.382658e+03
1.489742e+03,1.390861e+03
1.490707e+03,1.396674e+03
1.491671e+03,1.394781e+03
1.492635e+03,1.392284e+03
1.493599e+03,1.391806e+03
1.494563e+03,1.392117e+03
1.495528e+03,1.390532e+03
1.496492e+03,1.386933e+03
1.497456e+03,1.385174e+03
1.498420e+03,1.386046e+03
1.499385e+03,1.385765e+03
1.500349e+03,1.377805e+03
1.501313e+03,1.371000e+03
1.502277e+03,1.376151e+03
1.503242e+03,1.385819e+03
1.504206e+03,1.388469e+03
1.505170e+03,1.378902e+03
1.506134e+03,1.374905e+03
1.507099e+03,1.379685e+03
1.508063e+03,1.381100e+03
1.509027e+03,1.373238e+03
1.509991e+03,1.362842e+03
1.510955e+03,1.362870e+03
1.511920e+03,1.368948e+03
1.512884e+03,1.371316e+03
1.513848e+03,1.370002e+03
1.514812e+03,1.368712e+03
1.515777e+03,1.367828e+03
1.516741e+03,1.367007e+03
1.517705e+03,1.366216e+03
1.518669e+03,1.365111e+03
1.519634e+03,1.363362e+03
1.520598e+03,1.360888e+03
1.521562e+03,1.361277e+03
1.522526e+03,1.363948e+03
1.523490e+03,1.365430e+03
1.524455e+03,1.364566e+03
1.525419e+03,1.363334e+03
1.526383e+03,1.364981e+03
1.527347e+03,1.366093e+03
1.528312e+03,1.363424e+03
1.529276e+03,1.358318e+03
1.530240e+03,1.354645e+03
1.531204e+03,1.351720e+03
1.532169e+03,1.351259e+03
1.533133e+03,1.353786e+03
1.534097e+03,1.357180e+03
1.535061e+03,1.360207e+03
1.536026e+03,1.362339e+03
1.536990e+03,1.362875e+03
1.537954e+03,1.362344e+03
1.538918e+03,1.361380e+03
1.539882e+03,1.359906e+03
1.540847e+03,1.358695e+03
1.541811e+03,1.357231e+03
1.542775e+03,1.356163e+03
1.543739e+03,1.356057e+03
1.544704e+03,1.357212e+03
1.545668e+03,1.361032e+03
1.546632e+03,1.366524e+03
1.547596e+03,1.367582e+03
1.548561e+03,1.364587e+03
1.549525e+03,1.362197e+03
1.550489e+03,1.362962e+03
1.551453e+03,1.363897e+03
1.552417e+03,1.364758e+03
1.553382e+03,1.363982e+03
1.554346e+03,1.359587e+03
1.555310e+03,1.352772e+03
1.556274e+03,1.353435e+03
1.557239e+03,1.361177e+03
1.558203e+03,1.362942e+03
1.559167e+03,1.355262e+03
1.560131e+03,1.347325e+03
1.561096e+03,1.347324e+03
1.562060e+03,1.350731e+03
1.563024e+03,1.356123e+03
1.563988e+03,1.361377e+03
1.564953e+03,1.361670e+03
1.565917e+03,1.354002e+03
1.566881e+03,1.351583e+03
1.567845e+03,1.354960e+03
1.568809e+03,1.358089e+03
1.569774e+03,1.357772e+03
1.570738e+03,1.355901e+03
1.571702e+03,1.354368e+03
1.572666e+03,1.353110e+03
1.573631e+03,1.352197e+03
1.574595e+03,1.352038e+03
1.575559e+03,1.352223e+03
1.576523e+03,1.352300e+03
1.577488e+03,1.354762e+03
1.578452e+03,1.360437e+03
1.579416e+03,1.364200e+03
1.580380e+03,1.357862e+03
1.581344e+03,1.347910e+03
1.582309e+03,1.347964e+03
1.583273e+03,1.354831e+03
1.584237e+03,1.360110e+03
1.585201e+03,1.361300e+03
1.586166e+03,1.360928e+03
1.587130e+03,1.358077e+03
1.588094e+03,1.355282e+03
1.589058e+03,1.353858e+03
1.590023e+03,1.353798e+03
1.590987e+03,1.354943e+03
1.591951e+03,1.357409e+03
1.592915e+03,1.361396e+03
1.593880e+03,1.365675e+03
1.594844e+03,1.366350e+03
1.595808e+03,1.357836e+03
1.596772e+03,1.351540e+03
1.597736e+03,1.350328e+03
1.598701e+03,1.351931e+03
1.599665e+03,1.355089e+03
1.600629e+03,1.358897e+03
1.601593e+03,1.359582e+03
1.602558e+03,1.357654e+03
1.603522e+03,1.354502e+03
1.604486e+03,1.350274e+03
1.605450e+03,1.345816e+03
1.606415e+03,1.339615e+03
1.607379e+03,1.337017e+03
1.608343e+03,1.341183e+03
1.609307e+03,1.347891e+03
1.610271e+03,1.350627e+03
1.611236e+03,1.349319e+03
1.612200e+03,1.342686e+03
1.613164e+03,1.332327e+03
1.614128e+03,1.324696e+03
1.615093e+03,1.323400e+03
1.616057e+03,1.324390e+03
1.617021e+03,1.328931e+03
1.617985e+03,1.331666e+03
1.618950e+03,1.328623e+03
1.619914e+03,1.322058e+03
1.620878e+03,1.322066e+03
1.621842e+03,1.326553e+03
1.622807e+03,1.325901e+03
1.623771e+03,1.318362e+03
1.624735e+03,1.311971e+03
1.625699e+03,1.309820e+03
1.626663e+03,1.310155e+03
1.627628e+03,1.313104e+03
1.628592e+03,1.316020e+03
1.629556e+03,1.316563e+03
1.630520e+03,1.315635e+03
1.631485e+03,1.314970e+03
1.632449e+03,1.314077e+03
1.633413e+03,1.310843e+03
1.634377e+03,1.302309e+03
1.635342e+03,1.297457e+03
1.636306e+03,1.304599e+03
1.637270e+03,1.310734e+03
1.638234e+03,1.309374e+03
1.639198e+03,1.303957e+03
1.640163e+03,1.302053e+03
1.641127e+03,1.302786e+03
1.642091e+03,1.302124e+03
1.643055e+03,1.299347e+03
1.644020e+03,1.296530e+03
1.644984e+03,1.292762e+03
1.645948e+03,1.291265e+03
1.646912e+03,1.294371e+03
1.647877e+03,1.297592e+03
1.648841e+03,1.297358e+03
1.649805e+03,1.294450e+03
1.650769e+03,1.289409e+03
1.651734e+03,1.283595e+03
1.652698e+03,1.280957e+03
1.653662e+03,1.282350e+03
1.654626e+03,1.284726e+03
1.655590e+03,1.289961e+03
1.656555e+03,1.291291e+03
1.657519e+03,1.286414e+03
1.658483e+03,1.279834e+03
1.659447e+03,1.276267e+03
1.660412e+03,1.274744e+03
1.661376e+03,1.275630e+03
1.662340e+03,1.278299e+03
1.663304e+03,1.279897e+03
1.664269e+03,1.277035e+03
1.665233e+03,1.276309e+03
1.666197e+03,1.278317e+03
1.667161e+03,1.279149e+03
1.668125e+03,1.276411e+03
1.669090e+03,1.272865e+03
1.670054e+03,1.274366e+03
1.671018e+03,1.276854e+03
1.671982e+03,1.274257e+03
1.672947e+03,1.266485e+03
1.673911e+03,1.261730e+03
1.674875e+03,1.260213e+03
1.675839e+03,1.258979e+03
1.676804e+03,1.258222e+03
1.677768e+03,1.258692e+03
1.678732e+03,1.261469e+03
1.679696e+03,1.264153e+03
1.680661e+03,1.262949e+03
1.681625e+03,1.260605e+03
1.682589e+03,1.263091e+03
1.683553e+03,1.271303e+03
1.684517e+03,1.272738e+03
1.685482e+03,1.267439e+03
1.686446e+03,1.262570e+03
1.687410e+03,1.260302e+03
1.688374e+03,1.259138e+03
1.689339e+03,1.258744e+03
1.690303e+03,1.258078e+03
1.691267e+03,1.256511e+03
1.692231e+03,1.254440e+03
1.693196e+03,1.251630e+03
1.694160e+03,1.247978e+03
1.695124e+03,1.245543e+03
1.696088e+03,1.244533e+03
1.697052e+03,1.244308e+03
1.698017e+03,1.242405e+03
1.698981e+03,1.243552e+03
1.699945e+03,1.251758e+03
1.700909e+03,1.257471e+03
1.701874e+03,1.256380e+03
1.702838e+03,1.251431e+03
1.703802e+03,1.244854e+03
1.704766e+03,1.238457e+03
1.705731e+03,1.239359e+03
1.706695e+03,1.247652e+03
1.707659e+03,1.248479e+03
1.708623e+03,1.234173e+03
1.709588e+03,1.229086e+03
1.710552e+03,1.237184e+03
1.711516e+03,1.245478e+03
1.712480e+03,1.240246e+03
1.713444e+03,1.232036e+03
1.714409e+03,1.234383e+03
1.715373e+03,1.241424e+03
1.716337e+03,1.243740e+03
1.717301e+03,1.241320e+03
1.718266e+03,1.240687e+03
1.719230e+03,1.241432e+03
1.720194e+03,1.238456e+03
1.721158e+03,1.229541e+03
1.722123e+03,1.222691e+03
1.723087e+03,1.227533e+03
1.724051e+03,1.231438e+03
1.725015e+03,1.226780e+03
1.725979e+03,1.219583e+03
1.726944e+03,1.217765e+03
1.727908e+03,1.220346e+03
1.728872e+03,1.225008e+03
1.729836e+03,1.229904e+03
1.730801e+03,1.230451e+03
1.731765e+03,1.221761e+03
1.732729e+03,1.216718e+03
1.733693e+03,1.216991e+03
1.734658e+03,1.220040e+03
1.735622e+03,1.225999e+03
1.736586e+03,1.230525e+03
1.737550e+03,1.224233e+03
1.738515e+03,1.215141e+03
1.739479e+03,1.213522e+03
1.740443e+03,1.218867e+03
1.741407e+03,1.222894e+03
1.742371e+03,1.225842e+03
1.743336e+03,1.223873e+03
1.744300e+03,1.216797e+03
1.745264e+03,1.210420e+03
1.746228e+03,1.209376e+03
1.747193e+03,1.210418e+03
1.748157e+03,1.214687e+03
1.749121e+03,1.218664e+03
1.750085e+03,1.218188e+03
1.751050e+03,1.213836e+03
1.752014e+03,1.210041e+03
1.752978e+03,1.207727e+03
1.753942e+03,1.209082e+03
1.754906e+03,1.214277e+03
1.755871e+03,1.218249e+03
1.756835e+03,1.219409e+03
1.757799e+03,1.218953e+03
1.758763e+03,1.218303e+03
1.759728e+03,1.217037e+03
1.760692e+03,1.212372e+03
1.761656e+03,1.208669e+03
1.762620e+03,1.211093e+03
1.763585e+03,1.216025e+03
1.764549e+03,1.218039e+03
1.765513e+03,1.216642e+03
1.766477e+03,1.215427e+03
1.767442e+03,1.214677e+03
1.768406e+03,1.214113e+03
1.769370e+03,1.213709e+03
1.770334e+03,1.213713e+03
1.771298e+03,1.214292e+03
1.772263e+03,1.213768e+03
1.773227e+03,1.211858e+03
1.774191e+03,1.209379e+03
1.775155e+03,1.206784e+03
1.776120e+03,1.204314e+03
1.777084e+03,1.202930e+03
1.778048e+03,1.202280e+03
1.779012e+03,1.201054e+03
1.779977e+03,1.199240e+03
1.780941e+03,1.197856e+03
1.781905e+03,1.196388e+03
1.782869e+03,1.195945e+03
1.783833e+03,1.197521e+03
1.784798e+03,1.199163e+03
1.785762e+03,1.199840e+03
1.786726e+03,1.199615e+03
1.787690e+03,1.198325e+03
1.788655e+03,1.197113e+03
1.789619e+03,1.197988e+03
1.790583e+03,1.200125e+03
1.791547e+03,1.202576e+03
1.792512e+03,1.204652e+03
1.793476e+03,1.202945e+03
1.794440e+03,1.195193e+03
1.795404e+03,1.188407e+03
1.796369e+03,1.182455e+03
1.797333e+03,1.178368e+03
1.798297e+03,1.176800e+03
1.799261e+03,1.177711e+03
1.800225e+03,1.182865e+03
1.801190e+03,1.187926e+03
1.802154e+03,1.191537e+03
1.803118e+03,1.192238e+03
1.804082e+03,1.182976e+03
1.805047e+03,1.169926e+03
1.806011e+03,1.166736e+03
1.806975e+03,1.174234e+03
1.807939e+03,1.184531e+03
1.808904e+03,1.199647e+03
1.809868e+03,1.203014e+03
1.810832e+03,1.192814e+03
1.811796e+03,1.181081e+03
1.812760e+03,1.173334e+03
1.813725e+03,1.170648e+03
1.814689e+03,1.178991e+03
1.815653e+03,1.187740e+03
1.816617e+03,1.188405e+03
1.817582e+03,1.183660e+03
1.818546e+03,1.181700e+03
1.819510e+03,1.180964e+03
1.820474e+03,1.177660e+03
1.821439e+03,1.171480e+03
1.822403e+03,1.168537e+03
1.823367e+03,1.169684e+03
1.824331e+03,1.172422e+03
1.825296e+03,1.176146e+03
1.826260e+03,1.178244e+03
1.827224e+03,1.178314e+03
1.828188e+03,1.176096e+03
1.829152e+03,1.166542e+03
1.830117e+03,1.158591e+03
1.831081e+03,1.161544e+03
1.832045e+03,1.170279e+03
1.833009e+03,1.171346e+03
1.833974e+03,1.168366e+03
1.834938e+03,1.166554e+03
1.835902e+03,1.166538e+03
1.836866e+03,1.162078e+03
1.837831e+03,1.152485e+03
1.838795e+03,1.146931e+03
1.839759e+03,1.147838e+03
1.840723e+03,1.153291e+03
1.841688e+03,1.166456e+03
1.842652e+03,1.176703e+03
1.843616e+03,1.180201e+03
1.844580e+03,1.178950e+03
1.845544e+03,1.174395e+03
1.846509e+03,1.168039e+03
1.847473e+03,1.160620e+03
1.848437e+03,1.153799e+03
1.849401e+03,1.151592e+03
1.850366e+03,1.154069e+03
1.851330e+03,1.153296e+03
1.852294e+03,1.150242e+03
1.853258e+03,1.151147e+03
1.854223e+03,1.158101e+03
1.855187e+03,1.162498e+03
1.856151e+03,1.156519e+03
1.857115e+03,1.153334e+03
1.858079e+03,1.156255e+03
1.859044e+03,1.159137e+03
1.860008e+03,1.153465e+03
1.860972e+03,1.147498e+03
1.861936e+03,1.152989e+03
1.862901e+03,1.160827e+03
1.863865e+03,1.155727e+03
1.864829e+03,1.139510e+03
1.865793e+03,1.133541e+03
1.866758e+03,1.135867e+03
1.867722e+03,1.139763e+03
1.868686e+03,1.143408e+03
1.869650e+03,1.148950e+03
1.870615e+03,1.157526e+03
1.871579e+03,1.158302e+03
1.872543e+03,1.147953e+03
1.873507e+03,1.140074e+03
1.874471e+03,1.149248e+03
1.875436e+03,1.157229e+03
1.876400e+03,1.155923e+03
1.877364e+03,1.150541e+03
1.878328e+03,1.144827e+03
1.879293e+03,1.140356e+03
1.880257e+03,1.141959e+03
1.881221e+03,1.146009e+03
1.882185e+03,1.144902e+03
1.883150e+03,1.138468e+03
1.884114e+03,1.138161e+03
1.885078e+03,1.142221e+03
1.886042e+03,1.139103e+03
1.887006e+03,1.123911e+03
1.887971e+03,1.114449e+03
1.888935e+03,1.118822e+03
1.889899e+03,1.124836e+03
1.890863e+03,1.129534e+03
1.891828e+03,1.132940e+03
1.892792e+03,1.136545e+03
1.893756e+03,1.138428e+03
1.894720e+03,1.137163e+03
1.895685e+03,1.135034e+03
1.896649e+03,1.132956e+03
1.897613e+03,1.130507e+03
1.898577e+03,1.127079e+03
1.899542e+03,1.123847e+03
1.900506e+03,1.123569e+03
1.901470e+03,1.126824e+03
1.902434e+03,1.127548e+03
1.903398e+03,1.125895e+03
1.904363e+03,1.123302e+03
1.905327e+03,1.119977e+03
1.906291e+03,1.119509e+03
1.907255e+03,1.127767e+03
1.908220e+03,1.130560e+03
1.909184e+03,1.124345e+03
1.910148e+03,1.116380e+03
1.911112e+03,1.112832e+03
1.912077e+03,1.112931e+03
1.913041e+03,1.118961e+03
1.914005e+03,1.125614e+03
1.914969e+03,1.127226e+03
1.915933e+03,1.125051e+03
1.916898e+03,1.124371e+03
1.917862e+03,1.123323e+03
1.918826e+03,1.115468e+03
1.919790e+03,1.099850e+03
1.920755e+03,1.096431e+03
1.921719e+03,1.103972e+03
1.922683e+03,1.108098e+03
1.923647e+03,1.106167e+03
1.924612e+03,1.105315e+03
1.925576e+03,1.110812e+03
1.926540e+03,1.113856e+03
1.927504e+03,1.112072e+03
1.928469e+03,1.110129e+03
1.929433e+03,1.114119e+03
1.930397e+03,1.116909e+03
1.931361e+03,1.111016e+03
1.932325e+03,1.103861e+03
1.933290e+03,1.101828e+03
1.934254e+03,1.103712e+03
1.935218e+03,1.105443e+03
1.936182e+03,1.106089e+03
1.937147e+03,1.105474e+03
1.938111e+03,1.104099e+03
1.939075e+03,1.102246e+03
1.940039e+03,1.100729e+03
1.941004e+03,1.102305e+03
1.941968e+03,1.106379e+03
1.942932e+03,1.107267e+03
1.943896e+03,1.103188e+03
1.944860e+03,1.097873e+03
1.945825e+03,1.092055e+03
1.946789e+03,1.087381e+03
1.947753e+03,1.083624e+03
1.948717e+03,1.082479e+03
1.949682e+03,1.086845e+03
1.950646e+03,1.089162e+03
1.951610e+03,1.083041e+03
1.952574e+03,1.075685e+03
1.953539e+03,1.079117e+03
1.954503e+03,1.085693e+03
1.955467e+03,1.087801e+03
1.956431e+03,1.086971e+03
1.957396e+03,1.086784e+03
1.958360e+03,1.086448e+03
1.959324e+03,1.084025e+03
1.960288e+03,1.080480e+03
1.961252e+03,1.079623e+03
1.962217e+03,1.081239e+03
1.963181e+03,1.081444e+03
1.964145e+03,1.080156e+03
1.965109e+03,1.080122e+03
1.966074e+03,1.085241e+03
1.967038e+03,1.087348e+03
1.968002e+03,1.084035e+03
1.968966e+03,1.081679e+03
1.969931e+03,1.083925e+03
1.970895e+03,1.086378e+03
1.971859e+03,1.087048e+03
1.972823e+03,1.087983e+03
1.973787e+03,1.090733e+03
1.974752e+03,1.090714e+03
1.975716e+03,1.076634e+03
1.976680e+03,1.060669e+03
1.977644e+03,1.059127e+03
1.978609e+03,1.065325e+03
1.979573e+03,1.066879e+03
1.980537e+03,1.065251e+03
1.981501e+03,1.067553e+03
1.982466e+03,1.071936e+03
1.983430e+03,1.070908e+03
1.984394e+03,1.062731e+03
1.985358e+03,1.063879e+03
1.986323e+03,1.072205e+03
1.987287e+03,1.074517e+03
1.988251e+03,1.064994e+03
1.989215e+03,1.060582e+03
1.990179e+03,1.064489e+03
1.991144e+03,1.068241e+03
1.992108e+03,1.070476e+03
1.993072e+03,1.069921e+03
1.994036e+03,1.060975e+03
1.995001e+03,1.055101e+03
1.995965e+03,1.055443e+03
1.996929e+03,1.059165e+03
1.997893e+03,1.065345e+03
1.998858e+03,1.070270e+03
1.999822e+03,1.070484e+03
2.000786e+03,1.067661e+03
2.001750e+03,1.063051e+03
2.002714e+03,1.058721e+03
2.003679e+03,1.057807e+03
2.004643e+03,1.058556e+03
2.005607e+03,1.059726e+03
2.006571e+03,1.060921e+03
2.007536e+03,1.058212e+03
2.008500e+03,1.053737e+03
2.009464e+03,1.055754e+03
2.010428e+03,1.064178e+03
2.011393e+03,1.063947e+03
2.012357e+03,1.053512e+03
2.013321e+03,1.047275e+03
2.014285e+03,1.045596e+03
2.015250e+03,1.046025e+03
2.016214e+03,1.050891e+03
2.017178e+03,1.050874e+03
2.018142e+03,1.045382e+03
2.019106e+03,1.040916e+03
2.020071e+03,1.040598e+03
2.021035e+03,1.042211e+03
2.021999e+03,1.047994e+03
2.022963e+03,1.047443e+03
2.023928e+03,1.034050e+03
2.024892e+03,1.022539e+03
2.025856e+03,1.035198e+03
2.026820e+03,1.048865e+03
2.027785e+03,1.047567e+03
2.028749e+03,1.041206e+03
2.029713e+03,1.046751e+03
2.030677e+03,1.054372e+03
2.031641e+03,1.048602e+03
2.032606e+03,1.035591e+03
2.033570e+03,1.024819e+03
2.034534e+03,1.017335e+03
2.035498e+03,1.022415e+03
2.036463e+03,1.034024e+03
2.037427e+03,1.036981e+03
2.038391e+03,1.031273e+03
2.039355e+03,1.026592e+03
2.040320e+03,1.023412e+03
2.041284e+03,1.024027e+03
2.042248e+03,1.028788e+03
2.043212e+03,1.028372e+03
2.044177e+03,1.021979e+03
2.045141e+03,1.022170e+03
2.046105e+03,1.030396e+03
2.047069e+03,1.036700e+03
2.048033e+03,1.034676e+03
2.048998e+03,1.031611e+03
2.049962e+03,1.028323e+03
2.050926e+03,1.025256e+03
2.051890e+03,1.022904e+03
2.052854e+03,1.020163e+03
2.053819e+03,1.015245e+03
2.054783e+03,1.012564e+03
2.055747e+03,1.017056e+03
2.056711e+03,1.021063e+03
2.057676e+03,1.014074e+03
2.058640e+03,1.007709e+03
2.059604e+03,1.007507e+03
2.060568e+03,1.009990e+03
2.061533e+03,1.012872e+03
2.062497e+03,1.014171e+03
2.063461e+03,1.009244e+03
2.064425e+03,1.003815e+03
2.065390e+03,1.007803e+03
2.066354e+03,1.015575e+03
2.067318e+03,1.017652e+03
2.068282e+03,1.015238e+03
2.069247e+03,1.011310e+03
2.070211e+03,1.005965e+03
2.071175e+03,9.999395e+02
2.072139e+03,9.947605e+02
2.073104e+03,9.941746e+02
2.074068e+03,9.984026e+02
2.075032e+03,1.005885e+03
2.075996e+03,1.014778e+03
2.076960e+03,1.018519e+03
2.077925e+03,1.015612e+03
2.078889e+03,1.010894e+03
2.079853e+03,1.004723e+03
2.080817e+03,1.000605e+03
2.081782e+03,9.987672e+02
2.082746e+03,9.967435e+02
2.083710e+03,9.943084e+02
2.084674e+03,9.917493e+02
2.085639e+03,9.896437e+02
2.086603e+03,9.889183e+02
2.087567e+03,9.872288e+02
2.088531e+03,9.901835e+02
2.089496e+03,9.995558e+02
2.090460e+03,1.002512e+03
2.091424e+03,9.923699e+02
2.092388e+03,9.843008e+02
2.093353e+03,9.886382e+02
2.094317e+03,9.942325e+02
2.095281e+03,9.971117e+02
2.096245e+03,9.988972e+02
2.097209e+03,1.002959e+03
2.098174e+03,1.003795e+03
2.099138e+03,9.986700e+02
2.100102e+03,9.933044e+02
2.101066e+03,9.953368e+02
2.102031e+03,9.981530e+02
2.102995e+03,9.955292e+02
2.103959e+03,9.908562e+02
2.104923e+03,9.859479e+02
2.105887e+03,9.822201e+02
2.106852e+03,9.803503e+02
2.107816e+03,9.793404e+02
2.108780e+03,9.791696e+02
2.109744e+03,9.792012e+02
2.110708e+03,9.789835e+02
2.111673e+03,9.786859e+02
2.112637e+03,9.761536e+02
2.113601e+03,9.726895e+02
2.114565e+03,9.743417e+02
2.115530e+03,9.781154e+02
2.116494e+03,9.761117e+02
2.117458e+03,9.713574e+02
2.118422e+03,9.724520e+02
2.119387e+03,9.772816e+02
2.120351e+03,9.786945e+02
2.121315e+03,9.768888e+02
2.122279e+03,9.755555e+02
2.123244e+03,9.748680e+02
2.124208e+03,9.747830e+02
2.125172e+03,9.752125e+02
2.126136e+03,9.752510e+02
2.127101e+03,9.749979e+02
2.128065e+03,9.647185e+02
2.129029e+03,9.465547e+02
2.129993e+03,9.407351e+02
2.130958e+03,9.503291e+02
2.131922e+03,9.560427e+02
2.132886e+03,9.561216e+02
2.133850e+03,9.561838e+02
2.134814e+03,9.578975e+02
2.135779e+03,9.617849e+02
2.136743e+03,9.692452e+02
2.137707e+03,9.715159e+02
2.138671e+03,9.687928e+02
2.139636e+03,9.664153e+02
2.140600e+03,9.672679e+02
2.141564e+03,9.680869e+02
2.142528e+03,9.689045e+02
2.143493e+03,9.684229e+02
2.144457e+03,9.656017e+02
2.145421e+03,9.607235e+02
2.146385e+03,9.533322e+02
2.147350e+03,9.478922e+02
2.148314e+03,9.459805e+02
2.149278e+03,9.479125e+02
2.150242e+03,9.565797e+02
2.151207e+03,9.618527e+02
2.152171e+03,9.617264e+02
2.153135e+03,9.587579e+02
2.154099e+03,9.554069e+02
2.155063e+03,9.509022e+02
2.156028e+03,9.446689e+02
2.156992e+03,9.413105e+02
2.157956e+03,9.441470e+02
2.158920e+03,9.481954e+02
2.159885e+03,9.526149e+02
2.160849e+03,9.537836e+02
2.161813e+03,9.483978e+02
2.162777e+03,9.428987e+02
2.163741e+03,9.450198e+02
2.164706e+03,9.457669e+02
2.165670e+03,9.424449e+02
2.166634e+03,9.385208e+02
2.167598e+03,9.355385e+02
2.168563e+03,9.343831e+02
2.169527e+03,9.343114e+02
2.170491e+03,9.354825e+02
2.171455e+03,9.425078e+02
2.172420e+03,9.474277e+02
2.173384e+03,9.444776e+02
2.174348e+03,9.389017e+02
2.175312e+03,9.328688e+02
2.176277e+03,9.274643e+02
2.177241e+03,9.247871e+02
2.178205e+03,9.226547e+02
2.179169e+03,9.203195e+02
2.180134e+03,9.184030e+02
2.181098e+03,9.146744e+02
2.182062e+03,9.147822e+02
2.183026e+03,9.232451e+02
2.183990e+03,9.319709e+02
2.184955e+03,9.263703e+02
2.185919e+03,9.186574e+02
2.186883e+03,9.182473e+02
2.187847e+03,9.209225e+02
2.188812e+03,9.248554e+02
2.189776e+03,9.266840e+02
2.190740e+03,9.179108e+02
2.191704e+03,9.088287e+02
2.192668e+03,9.104368e+02
2.193633e+03,9.172731e+02
2.194597e+03,9.248057e+02
2.195561e+03,9.294338e+02
2.196525e+03,9.273396e+02
2.197490e+03,9.209426e+02
2.198454e+03,9.110654e+02
2.199418e+03,9.032705e+02
2.200382e+03,9.027584e+02
2.201347e+03,9.069596e+02
2.202311e+03,9.131670e+02
2.203275e+03,9.180724e+02
2.204239e+03,9.163742e+02
2.205204e+03,9.120639e+02
2.206168e+03,9.117365e+02
2.207132e+03,9.134954e+02
2.208096e+03,9.160568e+02
2.209061e+03,9.162437e+02
2.210025e+03,9.090714e+02
2.210989e+03,9.001808e+02
2.211953e+03,8.996388e+02
2.212917e+03,9.032867e+02
2.213882e+03,9.045839e+02
2.214846e+03,9.035861e+02
2.215810e+03,8.994387e+02
2.216774e+03,8.960668e+02
2.217739e+03,8.993748e+02
2.218703e+03,9.055986e+02
2.219667e+03,9.088371e+02
2.220631e+03,9.096118e+02
2.221595e+03,9.072520e+02
2.222560e+03,9.038066e+02
2.223524e+03,9.042776e+02
2.224488e+03,9.033718e+02
2.225452e+03,8.903063e+02
2.226417e+03,8.779747e+02
2.227381e+03,8.814921e+02
2.228345e+03,8.911411e+02
2.229309e+03,8.940720e+02
2.230274e+03,8.942848e+02
2.231238e+03,8.951267e+02
2.232202e+03,8.967332e+02
2.233166e+03,9.022599e+02
2.234131e+03,9.069261e+02
2.235095e+03,9.070389e+02
2.236059e+03,9.039484e+02
2.237023e+03,8.976126e+02
2.237988e+03,8.906177e+02
2.238952e+03,8.838329e+02
2.239916e+03,8.786879e+02
2.240880e+03,8.804642e+02
2.241844e+03,8.823026e+02
2.242809e+03,8.782336e+02
2.243773e+03,8.736263e+02
2.244737e+03,8.717731e+02
2.245701e+03,8.734023e+02
2.246666e+03,8.824143e+02
2.247630e+03,8.895883e+02
2.248594e+03,8.887382e+02
2.249558e+03,8.855631e+02
2.250522e+03,8.834600e+02
2.251487e+03,8.831477e+02
2.252451e+03,8.854188e+02
2.253415e+03,8.848196e+02
2.254379e+03,8.731159e+02
2.255344e+03,8.635233e+02
2.256308e+03,8.613353e+02
2.257272e+03,8.631895e+02
2.258236e+03,8.688031e+02
2.259201e+03,8.725644e+02
2.260165e+03,8.716373e+02
2.261129e+03,8.714658e+02
2.262093e+03,8.814453e+02
2.263058e+03,8.840014e+02
2.264022e+03,8.739206e+02
2.264986e+03,8.655256e+02
2.265950e+03,8.701854e+02
2.266915e+03,8.729206e+02
2.267879e+03,8.679719e+02
2.268843e+03,8.640329e+02
2.269807e+03,8.679122e+02
2.270771e+03,8.661944e+02
2.271736e+03,8.506310e+02
2.272700e+03,8.441494e+02
2.273664e+03,8.531348e+02
2.274628e+03,8.631194e+02
2.275593e+03,8.689543e+02
2.276557e+03,8.694606e+02
2.277521e+03,8.650087e+02
2.278485e+03,8.597058e+02
2.279449e+03,8.539001e+02
2.280414e+03,8.521578e+02
2.281378e+03,8.544098e+02
2.282342e+03,8.544875e+02
2.283306e+03,8.451810e+02
2.284271e+03,8.405978e+02
2.285235e+03,8.405102e+02
2.286199e+03,8.448936e+02
2.287163e+03,8.574886e+02
2.288128e+03,8.635410e+02
2.289092e+03,8.624576e+02
2.290056e+03,8.569194e+02
2.291020e+03,8.474572e+02
2.291985e+03,8.399163e+02
2.292949e+03,8.352740e+02
2.293913e+03,8.350293e+02
2.294877e+03,8.390354e+02
2.295842e+03,8.465439e+02
2.296806e+03,8.556738e+02
2.297770e+03,8.559174e+02
2.298734e+03,8.490661e+02
2.299698e+03,8.454084e+02
2.300663e+03,8.452565e+02
2.301627e+03,8.468494e+02
2.302591e+03,8.475065e+02
2.303555e+03,8.404932e+02
2.304520e+03,8.288701e+02
2.305484e+03,8.237227e+02
2.306448e+03,8.256786e+02
2.307412e+03,8.388372e+02
2.308376e+03,8.550434e+02
2.309341e+03,8.525553e+02
2.310305e+03,8.426437e+02
2.311269e+03,8.409316e+02
2.312233e+03,8.435045e+02
2.313198e+03,8.438668e+02
2.314162e+03,8.419161e+02
2.315126e+03,8.367219e+02
2.316090e+03,8.310861e+02
2.317055e+03,8.266077e+02
2.318019e+03,8.257986e+02
2.318983e+03,8.342650e+02
2.319947e+03,8.404967e+02
2.320912e+03,8.351598e+02
2.321876e+03,8.273251e+02
2.322840e+03,8.226262e+02
2.323804e+03,8.192296e+02
2.324769e+03,8.156301e+02
2.325733e+03,8.168731e+02
2.326697e+03,8.315310e+02
2.327661e+03,8.393420e+02
2.328625e+03,8.330471e+02
2.329590e+03,8.235072e+02
2.330554e+03,8.156019e+02
2.331518e+03,8.127076e+02
2.332482e+03,8.155226e+02
2.333447e+03,8.171833e+02
2.334411e+03,8.131416e+02
2.335375e+03,8.104528e+02
2.336339e+03,8.095512e+02
2.337303e+03,8.097670e+02
2.338268e+03,8.103847e+02
2.339232e+03,8.127324e+02
2.340196e+03,8.165811e+02
2.341160e+03,8.185759e+02
2.342125e+03,8.174999e+02
2.343089e+03,8.192247e+02
2.344053e+03,8.216578e+02
2.345017e+03,8.199830e+02
2.345982e+03,8.150278e+02
2.346946e+03,8.192385e+02
2.347910e+03,8.275596e+02
2.348874e+03,8.204150e+02
2.349839e+03,8.042557e+02
2.350803e+03,8.068758e+02
2.351767e+03,8.177092e+02
2.352731e+03,8.130306e+02
2.353696e+03,8.024305e+02
2.354660e+03,8.008102e+02
2.355624e+03,8.034425e+02
2.356588e+03,8.051631e+02
2.357552e+03,8.066761e+02
2.358517e+03,8.085735e+02
2.359481e+03,8.106210e+02
2.360445e+03,8.135648e+02
2.361409e+03,8.135286e+02
2.362374e+03,8.074557e+02
2.363338e+03,8.008558e+02
2.364302e+03,8.023372e+02
2.365266e+03,8.001693e+02
2.366230e+03,7.886620e+02
2.367195e+03,7.828992e+02
2.368159e+03,7.985370e+02
2.369123e+03,8.095345e+02
2.370087e+03,8.131223e+02
2.371052e+03,8.126871e+02
2.372016e+03,8.085212e+02
2.372980e+03,8.037625e+02
2.373944e+03,7.984293e+02
2.374909e+03,7.945181e+02
2.375873e+03,7.930878e+02
2.376837e+03,7.922003e+02
2.377801e+03,7.915411e+02
2.378766e+03,7.878876e+02
2.379730e+03,7.813571e+02
2.380694e+03,7.814568e+02
2.381658e+03,7.861000e+02
2.382623e+03,7.888427e+02
2.383587e+03,7.894006e+02
2.384551e+03,7.878130e+02
2.385515e+03,7.853638e+02
2.386479e+03,7.858979e+02
2.387444e+03,7.872888e+02
2.388408e+03,7.853985e+02
2.389372e+03,7.841276e+02
2.390336e+03,7.889161e+02
2.391301e+03,7.923356e+02
2.392265e+03,7.823218e+02
2.393229e+03,7.750115e+02
2.394193e+03,7.822831e+02
2.395157e+03,7.888239e+02
2.396122e+03,7.845703e+02
2.397086e+03,7.793644e+02
2.398050e+03,7.767835e+02
2.399014e+03,7.741725e+02
2.399979e+03,7.694361e+02
2.400943e+03,7.706161e+02
2.401907e+03,7.787657e+02
2.402871e+03,7.807889e+02
2.403836e+03,7.740054e+02
2.404800e+03,7.708046e+02
2.405764e+03,7.718209e+02
2.406728e+03,7.726923e+02
2.407693e+03,7.730330e+02
2.408657e+03,7.762811e+02
2.409621e+03,7.820027e+02
2.410585e+03,7.871209e+02
2.411550e+03,7.898056e+02
2.412514e+03,7.855885e+02
2.413478e+03,7.780107e+02
2.414442e+03,7.777488e+02
2.415406e+03,7.788511e+02
2.416371e+03,7.739625e+02
2.417335e+03,7.675146e+02
2.418299e+03,7.655176e+02
2.419263e+03,7.648495e+02
2.420228e+03,7.631414e+02
2.421192e+03,7.634959e+02
2.422156e+03,7.739924e+02
2.423120e+03,7.781965e+02
2.424084e+03,7.709183e+02
2.425049e+03,7.626263e+02
2.426013e+03,7.583685e+02
2.426977e+03,7.606042e+02
2.427941e+03,7.697461e+02
2.428906e+03,7.731104e+02
2.429870e+03,7.660623e+02
2.430834e+03,7.591006e+02
2.431798e+03,7.536839e+02
2.432763e+03,7.562211e+02
2.433727e+03,7.651761e+02
2.434691e+03,7.661194e+02
2.435655e+03,7.628575e+02
2.436620e+03,7.640527e+02
2.437584e+03,7.674085e+02
2.438548e+03,7.662264e+02
2.439512e+03,7.634695e+02
2.440477e+03,7.622568e+02
2.441441e+03,7.601102e+02
2.442405e+03,7.536729e+02
2.443369e+03,7.465609e+02
2.444333e+03,7.400287e+02
2.445298e+03,7.374982e+02
2.446262e+03,7.456887e+02
2.447226e+03,7.513299e+02
2.448190e+03,7.525273e+02
2.449155e+03,7.513926e+02
2.450119e+03,7.464684e+02
2.451083e+03,7.468820e+02
2.452047e+03,7.518431e+02
2.453011e+03,7.554554e+02
2.453976e+03,7.566546e+02
2.454940e+03,7.559330e+02
2.455904e+03,7.541631e+02
2.456868e+03,7.517036e+02
2.457833e+03,7.484729e+02
2.458797e+03,7.443439e+02
2.459761e+03,7.415165e+02
2.460725e+03,7.429615e+02
2.461690e+03,7.460323e+02
2.462654e+03,7.500717e+02
2.463618e+03,7.490106e+02
2.464582e+03,7.384090e+02
2.465547e+03,7.296165e+02
2.466511e+03,7.348876e+02
2.467475e+03,7.377969e+02
2.468439e+03,7.342381e+02
2.469404e+03,7.321979e+02
2.470368e+03,7.413405e+02
2.471332e+03,7.408629e+02
2.472296e+03,7.313730e+02
2.473260e+03,7.314384e+02
2.474225e+03,7.468445e+02
2.475189e+03,7.452047e+02
2.476153e+03,7.333080e+02
2.477117e+03,7.302781e+02
2.478082e+03,7.341968e+02
2.479046e+03,7.373555e+02
2.480010e+03,7.391884e+02
2.480974e+03,7.389958e+02
2.481938e+03,7.381746e+02
2.482903e+03,7.388334e+02
2.483867e+03,7.384972e+02
2.484831e+03,7.350769e+02
2.485795e+03,7.330513e+02
2.486760e+03,7.404727e+02
2.487724e+03,7.420944e+02
2.488688e+03,7.357994e+02
2.489652e+03,7.293991e+02
2.490617e+03,7.246912e+02
2.491581e+03,7.257396e+02
2.492545e+03,7.314218e+02
2.493509e+03,7.314700e+02
2.494474e+03,7.249291e+02
2.495438e+03,7.284913e+02
2.496402e+03,7.368804e+02
2.497366e+03,7.383474e+02
2.498331e+03,7.357168e+02
2.499295e+03,7.349636e+02
2.500259e+03,7.325564e+02
2.501223e+03,7.253547e+02
2.502188e+03,7.194239e+02
2.503152e+03,7.224452e+02
2.504116e+03,7.269446e+02
2.505080e+03,7.310579e+02
2.506044e+03,7.307939e+02
2.507009e+03,7.172337e+02
2.507973e+03,7.118875e+02
2.508937e+03,7.152568e+02
2.509901e+03,7.182231e+02
2.510865e+03,7.180983e+02
2.511830e+03,7.256536e+02
2.512794e+03,7.355971e+02
2.513758e+03,7.324750e+02
2.514722e+03,7.218197e+02
2.515687e+03,7.154306e+02
2.516651e+03,7.131835e+02
2.517615e+03,7.146689e+02
2.518579e+03,7.181419e+02
2.519544e+03,7.237111e+02
2.520508e+03,7.273363e+02
2.521472e+03,7.281387e+02
2.522436e+03,7.255868e+02
2.523401e+03,7.157122e+02
2.524365e+03,7.098588e+02
2.525329e+03,7.080775e+02
2.526293e+03,7.088536e+02
2.527258e+03,7.125032e+02
2.528222e+03,7.137568e+02
2.529186e+03,7.136210e+02
2.530150e+03,7.157748e+02
2.531115e+03,7.195331e+02
2.532079e+03,7.220618e+02
2.533043e+03,7.216541e+02
2.534007e+03,7.162857e+02
2.534971e+03,7.092152e+02
2.535936e+03,7.060507e+02
2.536900e+03,7.017101e+02
2.537864e+03,6.932959e+02
2.538828e+03,6.910457e+02
2.539792e+03,7.009924e+02
2.540757e+03,7.096104e+02
2.541721e+03,7.151744e+02
2.542685e+03,7.177316e+02
2.543649e+03,7.182536e+02
2.544614e+03,7.191959e+02
2.545578e+03,7.193461e+02
2.546542e+03,7.164876e+02
2.547506e+03,7.123092e+02
2.548471e+03,7.103953e+02
2.549435e+03,7.087278e+02
2.550399e+03,7.047015e+02
2.551363e+03,7.022565e+02
2.552328e+03,7.067470e+02
2.553292e+03,7.094753e+02
2.554256e+03,7.066047e+02
2.555220e+03,7.072018e+02
2.556185e+03,7.126785e+02
2.557149e+03,7.158499e+02
2.558113e+03,7.153742e+02
2.559077e+03,7.162968e+02
2.560042e+03,7.170860e+02
2.561006e+03,7.103206e+02
2.561970e+03,7.027834e+02
2.562934e+03,7.100406e+02
2.563898e+03,7.181463e+02
2.564863e+03,7.069307e+02
2.565827e+03,6.953887e+02
2.566791e+03,7.007418e+02
2.567755e+03,7.083699e+02
2.568719e+03,7.135755e+02
2.569684e+03,7.144885e+02
2.570648e+03,7.088126e+02
2.571612e+03,7.042252e+02
2.572576e+03,7.021729e+02
2.573541e+03,7.075599e+02
2.574505e+03,7.169222e+02
2.575469e+03,7.136252e+02
2.576433e+03,7.037410e+02
2.577398e+03,6.965638e+02
2.578362e+03,6.916996e+02
2.579326e+03,6.896865e+02
2.580290e+03,6.874608e+02
2.581255e+03,6.829809e+02
2.582219e+03,6.800419e+02
2.583183e+03,6.813101e+02
2.584147e+03,6.891555e+02
2.585112e+03,7.032453e+02
2.586076e+03,7.040783e+02
2.587040e+03,6.891412e+02
2.588004e+03,6.855930e+02
2.588969e+03,6.890314e+02
2.589933e+03,6.911599e+02
2.590897e+03,6.917693e+02
2.591861e+03,6.911967e+02
2.592825e+03,6.880400e+02
2.593790e+03,6.799397e+02
2.594754e+03,6.741121e+02
2.595718e+03,6.765892e+02
2.596682e+03,6.788121e+02
2.597646e+03,6.787608e+02
2.598611e+03,6.827803e+02
2.599575e+03,6.910726e+02
2.600539e+03,6.904886e+02
2.601503e+03,6.817434e+02
2.602468e+03,6.760039e+02
2.603432e+03,6.721279e+02
2.604396e+03,6.671060e+02
2.605360e+03,6.660690e+02
2.606325e+03,6.769154e+02
2.607289e+03,6.873614e+02
2.608253e+03,6.925587e+02
2.609217e+03,6.941467e+02
2.610182e+03,6.903322e+02
2.611146e+03,6.872177e+02
2.612110e+03,6.850977e+02
2.613074e+03,6.805079e+02
2.614039e+03,6.741415e+02
2.615003e+03,6.692120e+02
2.615967e+03,6.674974e+02
2.616931e+03,6.753018e+02
2.617896e+03,6.838430e+02
2.618860e+03,6.792022e+02
2.619824e+03,6.750147e+02
2.620788e+03,6.763573e+02
2.621752e+03,6.774830e+02
2.622717e+03,6.755059e+02
2.623681e+03,6.738286e+02
2.624645e+03,6.723430e+02
2.625609e+03,6.703911e+02
2.626573e+03,6.682870e+02
2.627538e+03,6.698386e+02
2.628502e+03,6.722250e+02
2.629466e+03,6.700593e+02
2.630430e+03,6.663845e+02
2.631395e+03,6.639390e+02
2.632359e+03,6.635648e+02
2.633323e+03,6.665422e+02
2.634287e+03,6.687813e+02
2.635252e+03,6.697137e+02
2.636216e+03,6.678781e+02
2.637180e+03,6.630370e+02
2.638144e+03,6.631745e+02
2.639109e+03,6.665919e+02
2.640073e+03,6.718761e+02
2.641037e+03,6.759229e+02
2.642001e+03,6.704148e+02
2.642966e+03,6.642585e+02
2.643930e+03,6.621957e+02
2.644894e+03,6.629811e+02
2.645858e+03,6.705543e+02
2.646823e+03,6.680377e+02
2.647787e+03,6.560526e+02
2.648751e+03,6.550670e+02
2.649715e+03,6.656359e+02
2.650679e+03,6.631412e+02
2.651644e+03,6.541705e+02
2.652608e+03,6.486902e+02
2.653572e+03,6.459642e+02
2.654536e+03,6.422025e+02
2.655500e+03,6.492285e+02
2.656465e+03,6.744050e+02
2.657429e+03,6.871166e+02
2.658393e+03,6.769203e+02
2.659357e+03,6.622363e+02
2.660322e+03,6.482392e+02
2.661286e+03,6.455657e+02
2.662250e+03,6.516302e+02
2.663214e+03,6.643080e+02
2.664179e+03,6.753007e+02
2.665143e+03,6.737761e+02
2.666107e+03,6.693637e+02
2.667071e+03,6.677192e+02
2.668036e+03,6.635739e+02
2.669000e+03,6.487773e+02
2.669964e+03,6.489233e+02
2.670928e+03,6.607842e+02
2.671893e+03,6.581205e+02
2.672857e+03,6.446279e+02
2.673821e+03,6.476428e+02
2.674785e+03,6.560573e+02
2.675750e+03,6.581335e+02
2.676714e+03,6.571924e+02
2.677678e+03,6.546765e+02
2.678642e+03,6.532226e+02
2.679606e+03,6.536263e+02
2.680571e+03,6.527914e+02
2.681535e+03,6.501456e+02
2.682499e+03,6.529800e+02
2.683463e+03,6.582424e+02
2.684427e+03,6.540648e+02
2.685392e+03,6.470203e+02
2.686356e+03,6.485071e+02
2.687320e+03,6.520707e+02
2.688284e+03,6.550421e+02
2.689249e+03,6.574602e+02
2.690213e+03,6.592072e+02
2.691177e+03,6.575754e+02
2.692141e+03,6.519426e+02
2.693106e+03,6.443793e+02
2.694070e+03,6.385100e+02
2.695034e+03,6.455339e+02
2.695998e+03,6.557675e+02
2.696963e+03,6.506360e+02
2.697927e+03,6.453741e+02
2.698891e+03,6.471075e+02
2.699855e+03,6.484819e+02
2.700820e+03,6.456555e+02
2.701784e+03,6.490755e+02
2.702748e+03,6.570179e+02
2.703712e+03,6.517897e+02
2.704677e+03,6.384136e+02
2.705641e+03,6.339247e+02
2.706605e+03,6.361900e+02
2.707569e+03,6.456959e+02
2.708533e+03,6.511609e+02
2.709498e+03,6.475134e+02
2.710462e+03,6.387215e+02
2.711426e+03,6.223516e+02
2.712390e+03,6.277640e+02
2.713354e+03,6.480467e+02
2.714319e+03,6.506902e+02
2.715283e+03,6.434079e+02
2.716247e+03,6.503823e+02
2.717211e+03,6.554160e+02
2.718176e+03,6.459373e+02
2.719140e+03,6.397570e+02
2.720104e+03,6.523132e+02
2.721068e+03,6.571899e+02
2.722033e+03,6.511417e+02
2.722997e+03,6.386908e+02
2.723961e+03,6.243865e+02
2.724925e+03,6.263923e+02
2.725890e+03,6.350657e+02
2.726854e+03,6.367031e+02
2.727818e+03,6.362807e+02
2.728782e+03,6.361467e+02
2.729747e+03,6.337083e+02
2.730711e+03,6.253401e+02
2.731675e+03,6.233831e+02
2.732639e+03,6.269483e+02
2.733604e+03,6.301270e+02
2.734568e+03,6.329537e+02
2.735532e+03,6.402763e+02
2.736496e+03,6.435653e+02
2.737460e+03,6.360305e+02
2.738425e+03,6.315516e+02
2.739389e+03,6.405374e+02
2.740353e+03,6.410071e+02
2.741317e+03,6.304066e+02
2.742281e+03,6.219018e+02
2.743246e+03,6.175135e+02
2.744210e+03,6.225598e+02
2.745174e+03,6.298430e+02
2.746138e+03,6.335035e+02
2.747103e+03,6.333591e+02
2.748067e+03,6.302484e+02
2.749031e+03,6.267029e+02
2.749995e+03,6.233502e+02
2.750960e+03,6.180973e+02
2.751924e+03,6.139620e+02
2.752888e+03,6.219278e+02
2.753852e+03,6.343167e+02
2.754817e+03,6.341332e+02
2.755781e+03,6.308987e+02
2.756745e+03,6.288938e+02
2.757709e+03,6.311901e+02
2.758674e+03,6.379485e+02
2.759638e+03,6.379953e+02
2.760602e+03,6.298569e+02
2.761566e+03,6.228604e+02
2.762531e+03,6.192701e+02
2.763495e+03,6.226338e+02
2.764459e+03,6.284988e+02
2.765423e+03,6.367981e+02
2.766387e+03,6.395029e+02
2.767352e+03,6.357471e+02
2.768316e+03,6.279256e+02
2.769280e+03,6.169904e+02
2.770244e+03,6.159090e+02
2.771208e+03,6.213536e+02
2.772173e+03,6.253976e+02
2.773137e+03,6.259619e+02
2.774101e+03,6.195192e+02
2.775065e+03,6.167189e+02
2.776030e+03,6.233411e+02
2.776994e+03,6.218115e+02
2.777958e+03,6.122031e+02
2.778922e+03,6.036371e+02
2.779887e+03,5.996843e+02
2.780851e+03,6.111754e+02
2.781815e+03,6.238138e+02
2.782779e+03,6.293397e+02
2.783744e+03,6.268799e+02
2.784708e+03,6.110185e+02
2.785672e+03,6.056056e+02
2.786636e+03,6.112495e+02
2.787601e+03,6.138965e+02
2.788565e+03,6.147153e+02
2.789529e+03,6.186578e+02
2.790493e+03,6.226331e+02
2.791458e+03,6.235515e+02
2.792422e+03,6.225683e+02
2.793386e+03,6.209466e+02
2.794350e+03,6.167950e+02
2.795314e+03,6.094346e+02
2.796279e+03,6.140873e+02
2.797243e+03,6.219775e+02
2.798207e+03,6.206677e+02
2.799171e+03,6.149876e+02
2.800135e+03,6.074597e+02
2.801100e+03,6.017086e+02
2.802064e+03,5.991719e+02
2.803028e+03,5.982401e+02
2.803992e+03,5.985875e+02
2.804957e+03,6.054254e+02
2.805921e+03,6.119291e+02
2.806885e+03,5.985283e+02
2.807849e+03,5.912841e+02
2.808814e+03,6.030871e+02
2.809778e+03,6.102597e+02
2.810742e+03,5.986663e+02
2.811706e+03,6.041891e+02
2.812671e+03,6.181763e+02
2.813635e+03,6.073815e+02
2.814599e+03,5.886818e+02
2.815563e+03,6.002841e+02
2.816528e+03,6.125765e+02
2.817492e+03,6.125444e+02
2.818456e+03,6.058280e+02
2.819420e+03,5.958576e+02
2.820385e+03,6.089490e+02
2.821349e+03,6.361091e+02
2.822313e+03,6.322820e+02
2.823277e+03,6.192123e+02
2.824241e+03,6.152762e+02
2.825206e+03,6.125153e+02
2.826170e+03,6.063530e+02
2.827134e+03,6.040912e+02
2.828098e+03,6.051509e+02
2.829063e+03,6.010531e+02
2.830027e+03,5.952554e+02
2.830991e+03,5.953821e+02
2.831955e+03,6.012453e+02
2.832919e+03,6.173772e+02
2.833884e+03,6.278754e+02
2.834848e+03,6.303171e+02
2.835812e+03,6.237733e+02
2.836776e+03,6.109998e+02
2.837741e+03,6.018625e+02
2.838705e+03,5.987300e+02
2.839669e+03,6.044821e+02
2.840633e+03,6.098711e+02
2.841598e+03,6.097404e+02
2.842562e+03,6.118084e+02
2.843526e+03,6.183214e+02
2.844490e+03,6.160294e+02
2.845455e+03,6.098605e+02
2.846419e+03,6.105526e+02
2.847383e+03,6.120355e+02
2.848347e+03,6.045338e+02
2.849312e+03,6.027892e+02
2.850276e+03,6.090158e+02
2.851240e+03,6.128113e+02
2.852204e+03,6.127149e+02
2.853168e+03,6.071755e+02
2.854133e+03,6.029718e+02
2.855097e+03,6.152324e+02
2.856061e+03,6.178073e+02
2.857025e+03,6.026099e+02
2.857990e+03,5.956750e+02
2.858954e+03,6.052825e+02
2.859918e+03,6.021071e+02
2.860882e+03,5.942367e+02
2.861846e+03,5.940114e+02
2.862811e+03,5.994453e+02
2.863775e+03,6.131253e+02
2.864739e+03,6.115421e+02
2.865703e+03,5.871888e+02
2.866668e+03,5.917537e+02
2.867632e+03,6.132939e+02
2.868596e+03,6.119850e+02
2.869560e+03,6.048510e+02
2.870525e+03,6.197252e+02
2.871489e+03,6.214678e+02
2.872453e+03,6.015461e+02
2.873417e+03,5.941967e+02
2.874382e+03,6.005051e+02
2.875346e+03,6.063293e+02
2.876310e+03,6.082930e+02
2.877274e+03,5.935906e+02
2.878239e+03,5.925237e+02
2.879203e+03,6.153229e+02
2.880167e+03,6.180886e+02
2.881131e+03,5.870085e+02
2.882095e+03,5.878306e+02
2.883060e+03,6.046285e+02
2.884024e+03,6.111727e+02
2.884988e+03,6.092758e+02
2.885952e+03,5.982503e+02
2.886917e+03,5.895245e+02
2.887881e+03,5.866190e+02
2.888845e+03,5.816011e+02
2.889809e+03,5.783616e+02
2.890773e+03,5.873494e+02
2.891738e+03,5.985342e+02
2.892702e+03,6.051550e+02
2.893666e+03,6.028757e+02
2.894630e+03,5.921008e+02
2.895595e+03,5.973954e+02
2.896559e+03,6.134356e+02
2.897523e+03,6.102140e+02
2.898487e+03,6.020792e+02
2.899452e+03,6.037831e+02
2.900416e+03,6.094583e+02
2.901380e+03,6.164764e+02
2.902344e+03,6.136481e+02
2.903309e+03,6.005280e+02
2.904273e+03,5.819500e+02
2.905237e+03,5.692804e+02
2.906201e+03,5.740430e+02
2.907166e+03,5.840821e+02
2.908130e+03,5.937986e+02
2.909094e+03,5.972449e+02
2.910058e+03,5.938528e+02
2.911022e+03,5.940872e+02
2.911987e+03,5.945576e+02
2.912951e+03,5.900213e+02
2.913915e+03,5.885363e+02
2.914879e+03,5.975131e+02
2.915844e+03,6.046909e+02
2.916808e+03,6.073265e+02
2.917772e+03,5.970223e+02
2.918736e+03,5.834152e+02
2.919700e+03,5.799686e+02
2.920665e+03,5.815755e+02
2.921629e+03,5.886719e+02
2.922593e+03,5.937748e+02
2.923557e+03,5.967291e+02
2.924522e+03,5.966512e+02
2.925486e+03,5.957972e+02
2.926450e+03,6.024200e+02
2.927414e+03,6.021396e+02
2.928379e+03,5.840560e+02
2.929343e+03,5.782090e+02
2.930307e+03,5.850353e+02
2.931271e+03,5.967016e+02
2.932236e+03,6.082966e+02
2.933200e+03,6.150648e+02
2.934164e+03,6.099318e+02
2.935128e+03,5.887875e+02
2.936093e+03,5.770098e+02
2.937057e+03,5.767540e+02
2.938021e+03,5.787069e+02
2.938985e+03,5.825656e+02
2.939949e+03,5.931930e+02
2.940914e+03,5.933733e+02
2.941878e+03,5.788372e+02
2.942842e+03,5.672226e+02
2.943806e+03,5.617597e+02
2.944771e+03,5.740291e+02
2.945735e+03,5.870539e+02
2.946699e+03,5.710202e+02
2.947663e+03,5.660801e+02
2.948627e+03,5.834410e+02
2.949592e+03,5.935603e+02
2.950556e+03,5.920721e+02
2.951520e+03,5.957675e+02
2.952484e+03,5.955055e+02
2.953449e+03,5.790549e+02
2.954413e+03,5.815578e+02
2.955377e+03,6.181285e+02
2.956341e+03,6.326786e+02
2.957306e+03,6.213712e+02
2.958270e+03,6.163277e+02
2.959234e+03,6.062062e+02
2.960198e+03,5.818529e+02
2.961163e+03,5.710390e+02
2.962127e+03,5.871000e+02
2.963091e+03,5.924747e+02
2.964055e+03,5.870985e+02
2.965020e+03,5.870809e+02
2.965984e+03,5.843932e+02
2.966948e+03,5.709863e+02
2.967912e+03,5.671287e+02
2.968876e+03,5.863824e+02
2.969841e+03,5.816063e+02
2.970805e+03,5.661793e+02
2.971769e+03,5.688568e+02
2.972733e+03,5.747831e+02
2.973698e+03,5.729910e+02
2.974662e+03,5.683944e+02
2.975626e+03,5.624010e+02
2.976590e+03,5.715227e+02
2.977554e+03,5.815193e+02
2.978519e+03,5.720946e+02
2.979483e+03,5.616724e+02
2.980447e+03,5.642495e+02
2.981411e+03,5.590126e+02
2.982376e+03,5.483268e+02
2.983340e+03,5.693781e+02
2.984304e+03,5.891922e+02
2.985268e+03,5.740345e+02
2.986233e+03,5.583503e+02
2.987197e+03,5.621646e+02
2.988161e+03,5.577566e+02
2.989125e+03,5.514764e+02
2.990090e+03,5.696000e+02
2.991054e+03,5.838008e+02
2.992018e+03,5.700040e+02
2.992982e+03,5.611738e+02
2.993947e+03,5.717497e+02
2.994911e+03,5.791357e+02
2.995875e+03,5.802047e+02
2.996839e+03,5.686995e+02
2.997803e+03,5.573381e+02
2.998768e+03,5.546988e+02
2.999732e+03,5.561769e+02
3.000696e+03,5.617083e+02
3.001660e+03,5.700524e+02
3.002625e+03,5.749509e+02
3.003589e+03,5.712299e+02
3.004553e+03,5.658574e+02
3.005517e+03,5.620947e+02
3.006481e+03,5.748049e+02
3.007446e+03,5.942134e+02
3.008410e+03,5.812911e+02
3.009374e+03,5.662466e+02
3.010338e+03,5.686339e+02
3.011303e+03,5.738992e+02
3.012267e+03,5.761105e+02
3.013231e+03,5.669934e+02
3.014195e+03,5.531512e+02
3.015160e+03,5.433281e+02
3.016124e+03,5.441694e+02
3.017088e+03,5.557660e+02
3.018052e+03,5.621232e+02
3.019017e+03,5.606940e+02
3.019981e+03,5.627963e+02
3.020945e+03,5.573030e+02
3.021909e+03,5.313702e+02
3.022874e+03,5.184138e+02
3.023838e+03,5.228755e+02
3.024802e+03,5.297589e+02
3.025766e+03,5.384991e+02
3.026730e+03,5.602129e+02
3.027695e+03,5.666776e+02
3.028659e+03,5.460621e+02
3.029623e+03,5.414925e+02
3.030587e+03,5.530696e+02
3.031552e+03,5.539027e+02
3.032516e+03,5.483445e+02
3.033480e+03,5.393048e+02
3.034444e+03,5.356810e+02
3.035408e+03,5.389554e+02
3.036373e+03,5.469064e+02
3.037337e+03,5.559766e+02
3.038301e+03,5.575485e+02
3.039265e+03,5.609214e+02
3.040230e+03,5.758591e+02
3.041194e+03,5.713193e+02
3.042158e+03,5.542382e+02
3.043122e+03,5.565986e+02
3.044087e+03,5.616952e+02
3.045051e+03,5.381490e+02
3.046015e+03,5.304291e+02
3.046979e+03,5.538577e+02
3.047944e+03,5.538578e+02
3.048908e+03,5.418524e+02
3.049872e+03,5.360374e+02
3.050836e+03,5.356840e+02
3.051801e+03,5.403044e+02
3.052765e+03,5.485500e+02
3.053729e+03,5.575313e+02
3.054693e+03,5.591802e+02
3.055657e+03,5.569359e+02
3.056622e+03,5.530663e+02
3.057586e+03,5.504118e+02
3.058550e+03,5.500569e+02
3.059514e+03,5.332355e+02
3.060479e+03,5.153964e+02
3.061443e+03,5.247907e+02
3.062407e+03,5.318093e+02
3.063371e+03,5.283134e+02
3.064335e+03,5.272339e+02
3.065300e+03,5.292000e+02
3.066264e+03,5.219681e+02
3.067228e+03,5.251765e+02
3.068192e+03,5.575901e+02
3.069157e+03,5.599583e+02
3.070121e+03,5.365502e+02
3.071085e+03,5.298636e+02
3.072049e+03,5.329987e+02
3.073014e+03,5.379279e+02
3.073978e+03,5.411232e+02
3.074942e+03,5.420464e+02
3.075906e+03,5.510717e+02
3.076871e+03,5.621296e+02
3.077835e+03,5.657249e+02
3.078799e+03,5.645441e+02
3.079763e+03,5.593615e+02
3.080728e+03,5.485900e+02
3.081692e+03,5.376811e+02
3.082656e+03,5.447426e+02
3.083620e+03,5.484301e+02
3.084584e+03,5.368619e+02
3.085549e+03,5.416307e+02
3.086513e+03,5.677149e+02
3.087477e+03,5.612388e+02
3.088441e+03,5.451478e+02
3.089406e+03,5.435522e+02
3.090370e+03,5.517782e+02
3.091334e+03,5.644804e+02
3.092298e+03,5.504464e+02
3.093262e+03,5.277015e+02
3.094227e+03,5.396426e+02
3.095191e+03,5.451840e+02
3.096155e+03,5.294744e+02
3.097119e+03,5.279653e+02
3.098084e+03,5.364138e+02
3.099048e+03,5.410327e+02
3.100012e+03,5.449566e+02
3.100976e+03,5.522885e+02
3.101941e+03,5.490559e+02
3.102905e+03,5.378865e+02
3.103869e+03,5.432512e+02
3.104833e+03,5.430046e+02
3.105798e+03,5.232958e+02
3.106762e+03,5.240521e+02
3.107726e+03,5.503875e+02
3.108690e+03,5.475025e+02
3.109655e+03,5.315212e+02
3.110619e+03,5.151459e+02
3.111583e+03,5.204169e+02
3.112547e+03,5.437480e+02
3.113511e+03,5.415984e+02
3.114476e+03,5.271843e+02
3.115440e+03,5.281924e+02
3.116404e+03,5.445031e+02
3.117368e+03,5.850797e+02
3.118333e+03,5.723557e+02
3.119297e+03,5.343903e+02
3.120261e+03,5.198189e+02
3.121225e+03,5.199648e+02
3.122189e+03,5.285641e+02
3.123154e+03,5.430427e+02
3.124118e+03,5.558380e+02
3.125082e+03,5.371186e+02
3.126046e+03,5.301208e+02
3.127011e+03,5.548141e+02
3.127975e+03,5.649550e+02
3.128939e+03,5.582199e+02
3.129903e+03,5.427322e+02
3.130868e+03,5.349547e+02
3.131832e+03,5.572484e+02
3.132796e+03,5.774972e+02
3.133760e+03,5.859625e+02
3.134725e+03,5.536355e+02
3.135689e+03,5.236568e+02
3.136653e+03,5.360911e+02
3.137617e+03,5.574635e+02
3.138582e+03,5.783758e+02
3.139546e+03,5.591114e+02
3.140510e+03,5.291773e+02
3.141474e+03,5.165074e+02
3.142438e+03,5.423779e+02
3.143403e+03,5.935930e+02
3.144367e+03,5.608004e+02
3.145331e+03,5.026480e+02
3.146295e+03,5.253782e+02
3.147260e+03,5.459244e+02
3.148224e+03,5.440624e+02
3.149188e+03,5.639524e+02
3.150152e+03,5.779063e+02
3.151116e+03,5.456971e+02
3.152081e+03,5.286091e+02
3.153045e+03,5.523224e+02
3.154009e+03,5.724662e+02
3.154973e+03,5.784721e+02
3.155938e+03,5.444700e+02
3.156902e+03,5.217180e+02
3.157866e+03,5.225020e+02
3.158830e+03,5.218669e+02
3.159795e+03,5.230933e+02
3.160759e+03,5.502351e+02
3.161723e+03,5.619927e+02
3.162687e+03,5.230555e+02
3.163652e+03,4.987738e+02
3.164616e+03,4.924071e+02
3.165580e+03,5.023487e+02
3.166544e+03,5.244714e+02
3.167509e+03,5.547663e+02
3.168473e+03,5.597695e+02
3.169437e+03,5.466635e+02
3.170401e+03,5.437078e+02
3.171365e+03,5.410051e+02
3.172330e+03,5.346426e+02
3.173294e+03,5.406132e+02
3.174258e+03,5.477192e+02
3.175222e+03,5.302214e+02
3.176187e+03,5.127923e+02
3.177151e+03,5.112530e+02
3.178115e+03,5.261773e+02
3.179079e+03,5.483818e+02
3.180043e+03,5.491297e+02
3.181008e+03,5.501063e+02
3.181972e+03,5.603353e+02
3.182936e+03,5.647995e+02
3.183900e+03,5.635114e+02
3.184865e+03,5.619137e+02
3.185829e+03,5.575290e+02
3.186793e+03,5.466197e+02
3.187757e+03,5.437972e+02
3.188722e+03,5.476265e+02
3.189686e+03,5.556818e+02
3.190650e+03,5.559357e+02
3.191614e+03,5.452689e+02
3.192579e+03,5.578913e+02
3.193543e+03,5.811252e+02
3.194507e+03,5.664404e+02
3.195471e+03,5.429523e+02
3.196436e+03,5.200863e+02
3.197400e+03,5.270821e+02
3.198364e+03,5.482116e+02
3.199328e+03,5.586682e+02
3.200292e+03,5.557450e+02
3.201257e+03,0.000000e+00
3.202221e+03,0.000000e+00
3.203185e+03,0.000000e+00
3.204149e+03,0.000000e+00
3.205114e+03,0.000000e+00
3.206078e+03,0.000000e+00
3.207042e+03,0.000000e+00
3.208006e+03,0.000000e+00
3.208970e+03,0.000000e+00
3.209935e+03,0.000000e+00
3.210899e+03,0.000000e+00
3.211863e+03,0.000000e+00
3.212827e+03,0.000000e+00
3.213792e+03,0.000000e+00
3.214756e+03,0.000000e+00
3.215720e+03,0.000000e+00
3.216684e+03,0.000000e+00
3.217649e+03,0.000000e+00
3.218613e+03,0.000000e+00
3.219577e+03,0.000000e+00
3.220541e+03,0.000000e+00
3.221506e+03,0.000000e+00
3.222470e+03,0.000000e+00
3.223434e+03,0.000000e+00
3.224398e+03,0.000000e+00
3.225363e+03,0.000000e+00
3.226327e+03,0.000000e+00
3.227291e+03,0.000000e+00
3.228255e+03,0.000000e+00
3.229219e+03,0.000000e+00
3.230184e+03,0.000000e+00
3.231148e+03,0.000000e+00
3.232112e+03,0.000000e+00
3.233076e+03,0.000000e+00
3.234041e+03,0.000000e+00
3.235005e+03,0.000000e+00
3.235969e+03,0.000000e+00
3.236933e+03,0.000000e+00
3.237897e+03,0.000000e+00
3.238862e+03,0.000000e+00
3.239826e+03,0.000000e+00
3.240790e+03,0.000000e+00
3.241754e+03,0.000000e+00
3.242719e+03,0.000000e+00
3.243683e+03,0.000000e+00
3.244647e+03,0.000000e+00
3.245611e+03,0.000000e+00
3.246576e+03,0.000000e+00
3.247540e+03,0.000000e+00
3.248504e+03,0.000000e+00
3.249468e+03,0.000000e+00
3.250433e+03,0.000000e+00
3.251397e+03,0.000000e+00
3.252361e+03,0.000000e+00
3.253325e+03,0.000000e+00
3.254290e+03,0.000000e+00
3.255254e+03,0.000000e+00
3.256218e+03,0.000000e+00
3.257182e+03,0.000000e+00
3.258146e+03,0.000000e+00
3.259111e+03,0.000000e+00
3.260075e+03,0.000000e+00
3.261039e+03,0.000000e+00
3.262003e+03,0.000000e+00
3.262968e+03,0.000000e+00
3.263932e+03,0.000000e+00
3.264896e+03,0.000000e+00
3.265860e+03,0.000000e+00
3.266824e+03,0.000000e+00
3.267789e+03,0.000000e+00
3.268753e+03,0.000000e+00
3.269717e+03,0.000000e+00
3.270681e+03,0.000000e+00
3.271646e+03,0.000000e+00
3.272610e+03,0.000000e+00
3.273574e+03,0.000000e+00
3.274538e+03,0.000000e+00
3.275503e+03,0.000000e+00
3.276467e+03,0.000000e+00
3.277431e+03,0.000000e+00
3.278395e+03,0.000000e+00
3.279360e+03,0.000000e+00
3.280324e+03,0.000000e+00
3.281288e+03,0.000000e+00
3.282252e+03,0.000000e+00
3.283217e+03,0.000000e+00
3.284181e+03,0.000000e+00
3.285145e+03,0.000000e+00
3.286109e+03,0.000000e+00
3.287073e+03,0.000000e+00
3.288038e+03,0.000000e+00
3.289002e+03,0.000000e+00
3.289966e+03,0.000000e+00
3.290930e+03,0.000000e+00
3.291895e+03,0.000000e+00
3.292859e+03,0.000000e+00
3.293823e+03,0.000000e+00
3.294787e+03,0.000000e+00
3.295751e+03,0.000000e+00
3.296716e+03,0.000000e+00
3.297680e+03,0.000000e+00
3.298644e+03,0.000000e+00
3.299608e+03,0.000000e+00
3.300573e+03,0.000000e+00
3.301537e+03,0.000000e+00
3.302501e+03,0.000000e+00
3.303465e+03,0.000000e+00
3.304430e+03,0.000000e+00
3.305394e+03,0.000000e+00
3.306358e+03,0.000000e+00
3.307322e+03,0.000000e+00
3.308287e+03,0.000000e+00
3.309251e+03,0.000000e+00
3.310215e+03,0.000000e+00
3.311179e+03,0.000000e+00
3.312144e+03,0.000000e+00
3.313108e+03,0.000000e+00
3.314072e+03,0.000000e+00
3.315036e+03,0.000000e+00
3.316000e+03,0.000000e+00
3.316965e+03,0.000000e+00
3.317929e+03,0.000000e+00
3.318893e+03,0.000000e+00
3.319857e+03,0.000000e+00
3.320822e+03,0.000000e+00
3.321786e+03,0.000000e+00
3.322750e+03,0.000000e+00
3.323714e+03,0.000000e+00
3.324678e+03,0.000000e+00
3.325643e+03,0.000000e+00
3.326607e+03,0.000000e+00
3.327571e+03,0.000000e+00
3.328535e+03,0.000000e+00
3.329500e+03,0.000000e+00
3.330464e+03,0.000000e+00
3.331428e+03,0.000000e+00
3.332392e+03,0.000000e+00
3.333357e+03,0.000000e+00
3.334321e+03,0.000000e+00
3.335285e+03,0.000000e+00
3.336249e+03,0.000000e+00
3.337214e+03,0.000000e+00
3.338178e+03,0.000000e+00
3.339142e+03,0.000000e+00
3.340106e+03,0.000000e+00
3.341071e+03,0.000000e+00
3.342035e+03,0.000000e+00
3.342999e+03,0.000000e+00
3.343963e+03,0.000000e+00
3.344927e+03,0.000000e+00
3.345892e+03,0.000000e+00
3.346856e+03,0.000000e+00
3.347820e+03,0.000000e+00
3.348784e+03,0.000000e+00
3.349749e+03,0.000000e+00
3.350713e+03,0.000000e+00
3.351677e+03,0.000000e+00
3.352641e+03,0.000000e+00
3.353605e+03,0.000000e+00
3.354570e+03,0.000000e+00
3.355534e+03,0.000000e+00
3.356498e+03,0.000000e+00
3.357462e+03,0.000000e+00
3.358427e+03,0.000000e+00
3.359391e+03,0.000000e+00
3.360355e+03,0.000000e+00
3.361319e+03,0.000000e+00
3.362284e+03,0.000000e+00
3.363248e+03,0.000000e+00
3.364212e+03,0.000000e+00
3.365176e+03,0.000000e+00
3.366141e+03,0.000000e+00
3.367105e+03,0.000000e+00
3.368069e+03,0.000000e+00
3.369033e+03,0.000000e+00
3.369998e+03,0.000000e+00
3.370962e+03,0.000000e+00
3.371926e+03,0.000000e+00
3.372890e+03,0.000000e+00
3.373854e+03,0.000000e+00
3.374819e+03,0.000000e+00
3.375783e+03,0.000000e+00
3.376747e+03,0.000000e+00
3.377711e+03,0.000000e+00
3.378676e+03,0.000000e+00
3.379640e+03,0.000000e+00
3.380604e+03,0.000000e+00
3.381568e+03,0.000000e+00
3.382532e+03,0.000000e+00
3.383497e+03,0.000000e+00
3.384461e+03,0.000000e+00
3.385425e+03,0.000000e+00
3.386389e+03,0.000000e+00
3.387354e+03,0.000000e+00
3.388318e+03,0.000000e+00
3.389282e+03,0.000000e+00
3.390246e+03,0.000000e+00
3.391211e+03,0.000000e+00
3.392175e+03,0.000000e+00
3.393139e+03,0.000000e+00
3.394103e+03,0.000000e+00
3.395068e+03,0.000000e+00
3.396032e+03,0.000000e+00
3.396996e+03,0.000000e+00
3.397960e+03,0.000000e+00
3.398925e+03,0.000000e+00
3.399889e+03,0.000000e+00
3.400853e+03,0.000000e+00
3.401817e+03,0.000000e+00
3.402781e+03,0.000000e+00
3.403746e+03,0.000000e+00
3.404710e+03,0.000000e+00
3.405674e+03,0.000000e+00
3.406638e+03,0.000000e+00
3.407603e+03,0.000000e+00
3.408567e+03,0.000000e+00
3.409531e+03,0.000000e+00
3.410495e+03,0.000000e+00
3.411459e+03,0.000000e+00
3.412424e+03,0.000000e+00
3.413388e+03,0.000000e+00
3.414352e+03,0.000000e+00
3.415316e+03,0.000000e+00
3.416281e+03,0.000000e+00
3.417245e+03,0.000000e+00
3.418209e+03,0.000000e+00
3.419173e+03,0.000000e+00
3.420138e+03,0.000000e+00
3.421102e+03,0.000000e+00
3.422066e+03,0.000000e+00
3.423030e+03,0.000000e+00
3.423995e+03,0.000000e+00
3.424959e+03,0.000000e+00
3.425923e+03,0.000000e+00
3.426887e+03,0.000000e+00
3.427852e+03,0.000000e+00
3.428816e+03,0.000000e+00
3.429780e+03,0.000000e+00
3.430744e+03,0.000000e+00
3.431708e+03,0.000000e+00
3.432673e+03,0.000000e+00
3.433637e+03,0.000000e+00
3.434601e+03,0.000000e+00
3.435565e+03,0.000000e+00
3.436530e+03,0.000000e+00
3.437494e+03,0.000000e+00
3.438458e+03,0.000000e+00
3.439422e+03,0.000000e+00
3.440386e+03,0.000000e+00
3.441351e+03,0.000000e+00
3.442315e+03,0.000000e+00
3.443279e+03,0.000000e+00
3.444243e+03,0.000000e+00
3.445208e+03,0.000000e+00
3.446172e+03,0.000000e+00
3.447136e+03,0.000000e+00
3.448100e+03,0.000000e+00
3.449065e+03,0.000000e+00
3.450029e+03,0.000000e+00
3.450993e+03,0.000000e+00
3.451957e+03,0.000000e+00
3.452922e+03,0.000000e+00
3.453886e+03,0.000000e+00
3.454850e+03,0.000000e+00
3.455814e+03,0.000000e+00
3.456779e+03,0.000000e+00
3.457743e+03,0.000000e+00
3.458707e+03,0.000000e+00
3.459671e+03,0.000000e+00
3.460635e+03,0.000000e+00
3.461600e+03,0.000000e+00
3.462564e+03,0.000000e+00
3.463528e+03,0.000000e+00
3.464492e+03,0.000000e+00
3.465457e+03,0.000000e+00
3.466421e+03,0.000000e+00
3.467385e+03,0.000000e+00
3.468349e+03,0.000000e+00
3.469313e+03,0.000000e+00
3.470278e+03,0.000000e+00
3.471242e+03,0.000000e+00
3.472206e+03,0.000000e+00
3.473170e+03,0.000000e+00
3.474135e+03,0.000000e+00
3.475099e+03,0.000000e+00
3.476063e+03,0.000000e+00
3.477027e+03,0.000000e+00
3.477992e+03,0.000000e+00
3.478956e+03,0.000000e+00
3.479920e+03,0.000000e+00
3.480884e+03,0.000000e+00
3.481849e+03,0.000000e+00
3.482813e+03,0.000000e+00
3.483777e+03,0.000000e+00
3.484741e+03,0.000000e+00
3.485706e+03,0.000000e+00
3.486670e+03,0.000000e+00
3.487634e+03,0.000000e+00
3.488598e+03,0.000000e+00
3.489563e+03,0.000000e+00
3.490527e+03,0.000000e+00
3.491491e+03,0.000000e+00
3.492455e+03,0.000000e+00
3.493419e+03,0.000000e+00
3.494384e+03,0.000000e+00
3.495348e+03,0.000000e+00
3.496312e+03,0.000000e+00
3.497276e+03,0.000000e+00
3.498240e+03,0.000000e+00
3.499205e+03,0.000000e+00
3.500169e+03,0.000000e+00
