9.931763e+01,0.000000e+00
1.002819e+02,0.000000e+00
1.012461e+02,0.000000e+00
1.022103e+02,0.000000e+00
1.031746e+02,0.000000e+00
1.041388e+02,0.000000e+00
1.051030e+02,0.000000e+00
1.060673e+02,0.000000e+00
1.070315e+02,0.000000e+00
1.079957e+02,0.000000e+00
1.089600e+02,0.000000e+00
1.099242e+02,0.000000e+00
1.108884e+02,0.000000e+00
1.118527e+02,0.000000e+00
1.128169e+02,0.000000e+00
1.137811e+02,0.000000e+00
1.147454e+02,0.000000e+00
1.157096e+02,0.000000e+00
1.166738e+02,0.000000e+00
1.176381e+02,0.000000e+00
1.186023e+02,0.000000e+00
1.195665e+02,0.000000e+00
1.205308e+02,0.000000e+00
1.214950e+02,0.000000e+00
1.224592e+02,0.000000e+00
1.234235e+02,0.000000e+00
1.243877e+02,0.000000e+00
1.253519e+02,0.000000e+00
1.263162e+02,0.000000e+00
1.272804e+02,0.000000e+00
1.282446e+02,0.000000e+00
1.292089e+02,0.000000e+00
1.301731e+02,0.000000e+00
1.311373e+02,0.000000e+00
1.321016e+02,0.000000e+00
1.330658e+02,0.000000e+00
1.340300e+02,0.000000e+00
1.349943e+02,0.000000e+00
1.359585e+02,0.000000e+00
1.369227e+02,0.000000e+00
1.378870e+02,0.000000e+00
1.388512e+02,0.000000e+00
1.398154e+02,0.000000e+00
1.407797e+02,0.000000e+00
1.417439e+02,0.000000e+00
1.427081e+02,0.000000e+00
1.436724e+02,0.000000e+00
1.446366e+02,0.000000e+00
1.456008e+02,0.000000e+00
1.465651e+02,0.000000e+00
1.475293e+02,0.000000e+00
1.484935e+02,0.000000e+00
1.494578e+02,0.000000e+00
1.504220e+02,0.000000e+00
1.513862e+02,0.000000e+00
1.523505e+02,0.000000e+00
1.533147e+02,0.000000e+00
1.542789e+02,0.000000e+00
1.552432e+02,0.000000e+00
1.562074e+02,0.000000e+00
1.571716e+02,0.000000e+00
1.581359e+02,0.000000e+00
1.591001e+02,0.000000e+00
1.600643e+02,0.000000e+00
1.610286e+02,0.000000e+00
1.619928e+02,0.000000e+00
1.629570e+02,0.000000e+00
1.639213e+02,0.000000e+00
1.648855e+02,0.000000e+00
1.658497e+02,0.000000e+00
1.668140e+02,0.000000e+00
1.677782e+02,0.000000e+00
1.687424e+02,0.000000e+00
1.697067e+02,0.000000e+00
1.706709e+02,0.000000e+00
1.716351e+02,0.000000e+00
1.725994e+02,0.000000e+00
1.735636e+02,0.000000e+00
1.745278e+02,0.000000e+00
1.754921e+02,0.000000e+00
1.764563e+02,0.000000e+00
1.774205e+02,0.000000e+00
1.783848e+02,0.000000e+00
1.793490e+02,0.000000e+00
1.803132e+02,0.000000e+00
1.812775e+02,0.000000e+00
1.822417e+02,0.000000e+00
1.832059e+02,0.000000e+00
1.841702e+02,0.000000e+00
1.851344e+02,0.000000e+00
1.860986e+02,0.000000e+00
1.870629e+02,0.000000e+00
1.880271e+02,0.000000e+00
1.889913e+02,0.000000e+00
1.899556e+02,0.000000e+00
1.909198e+02,0.000000e+00
1.918840e+02,0.000000e+00
1.928483e+02,0.000000e+00
1.938125e+02,0.000000e+00
1.947767e+02,0.000000e+00
1.957410e+02,0.000000e+00
1.967052e+02,0.000000e+00
1.976694e+02,0.000000e+00
1.986337e+02,0.000000e+00
1.995979e+02,5.193356e+03
2.005621e+02,5.188861e+03
2.015264e+02,5.188482e+03
2.024906e+02,5.195784e+03
2.034548e+02,5.204392e+03
2.044191e+02,5.211905e+03
2.053833e+02,5.217540e+03
2.063475e+02,5.222154e+03
2.073118e+02,5.228171e+03
2.082760e+02,5.237932e+03
2.092402e+02,5.241531e+03
2.102045e+02,5.235546e+03
2.111687e+02,5.228464e+03
2.121329e+02,5.225712e+03
2.130972e+02,5.228807e+03
2.140614e+02,5.235097e+03
2.150256e+02,5.240034e+03
2.159899e+02,5.242772e+03
2.169541e+02,5.246706e+03
2.179183e+02,5.254842e+03
2.188826e+02,5.265706e+03
2.198468e+02,5.275923e+03
2.208110e+02,5.282224e+03
2.217753e+02,5.284057e+03
2.227395e+02,5.285295e+03
2.237037e+02,5.291961e+03
2.246680e+02,5.298414e+03
2.256322e+02,5.297561e+03
2.265964e+02,5.285479e+03
2.275607e+02,5.272941e+03
2.285249e+02,5.272993e+03
2.294892e+02,5.287915e+03
2.304534e+02,5.304766e+03
2.314176e+02,5.310627e+03
2.323819e+02,5.307166e+03
2.333461e+02,5.305659e+03
2.343103e+02,5.312253e+03
2.352746e+02,5.324003e+03
2.362388e+02,5.334128e+03
2.372030e+02,5.339534e+03
2.381673e+02,5.340562e+03
2.391315e+02,5.341712e+03
2.400957e+02,5.348908e+03
2.410600e+02,5.354038e+03
2.420242e+02,5.353525e+03
2.429884e+02,5.349849e+03
2.439527e+02,5.347940e+03
2.449169e+02,5.349378e+03
2.458811e+02,5.353638e+03
2.468454e+02,5.356896e+03
2.478096e+02,5.356592e+03
2.487738e+02,5.357112e+03
2.497381e+02,5.362267e+03
2.507023e+02,5.372708e+03
2.516665e+02,5.385452e+03
2.526308e+02,5.395334e+03
2.535950e+02,5.397664e+03
2.545592e+02,5.397747e+03
2.555235e+02,5.394698e+03
2.564877e+02,5.391303e+03
2.574519e+02,5.391772e+03
2.584161e+02,5.399968e+03
2.593804e+02,5.415640e+03
2.603446e+02,5.427509e+03
2.613088e+02,5.427042e+03
2.622731e+02,5.426758e+03
2.632373e+02,5.430389e+03
2.642015e+02,5.436591e+03
2.651658e+02,5.442250e+03
2.661300e+02,5.445688e+03
2.670942e+02,5.448157e+03
2.680585e+02,5.451715e+03
2.690227e+02,5.459176e+03
2.699869e+02,5.466320e+03
2.709512e+02,5.469571e+03
2.719154e+02,5.469149e+03
2.728796e+02,5.466664e+03
2.738439e+02,5.462920e+03
2.748081e+02,5.458146e+03
2.757723e+02,5.457565e+03
2.767366e+02,5.461047e+03
2.777008e+02,5.465597e+03
2.786650e+02,5.470350e+03
2.796293e+02,5.478384e+03
2.805935e+02,5.488313e+03
2.815577e+02,5.495818e+03
2.825220e+02,5.498892e+03
2.834862e+02,5.499222e+03
2.844504e+02,5.501205e+03
2.854147e+02,5.510750e+03
2.863789e+02,5.515947e+03
2.873431e+02,5.511420e+03
2.883074e+02,5.501732e+03
2.892716e+02,5.494529e+03
2.902358e+02,5.493030e+03
2.912001e+02,5.496551e+03
2.921643e+02,5.500836e+03
2.931285e+02,5.510939e+03
2.940928e+02,5.519707e+03
2.950570e+02,5.521489e+03
2.960212e+02,5.516041e+03
2.969855e+02,5.508462e+03
2.979497e+02,5.506208e+03
2.989139e+02,5.513753e+03
2.998782e+02,5.518941e+03
3.008424e+02,5.521833e+03
3.018066e+02,5.525567e+03
3.027709e+02,5.531260e+03
3.037351e+02,5.539178e+03
3.046993e+02,5.546069e+03
3.056636e+02,5.546000e+03
3.066278e+02,5.536318e+03
3.075920e+02,5.528637e+03
3.085563e+02,5.529187e+03
3.095205e+02,5.536564e+03
3.104847e+02,5.545396e+03
3.114490e+02,5.551120e+03
3.124132e+02,5.554781e+03
3.133774e+02,5.560779e+03
3.143417e+02,5.570541e+03
3.153059e+02,5.578894e+03
3.162701e+02,5.580292e+03
3.172344e+02,5.573420e+03
3.181986e+02,5.569325e+03
3.191628e+02,5.575406e+03
3.201271e+02,5.586896e+03
3.210913e+02,5.593147e+03
3.220555e+02,5.587657e+03
3.230198e+02,5.572869e+03
3.239840e+02,5.568106e+03
3.249482e+02,5.583815e+03
3.259125e+02,5.597797e+03
3.268767e+02,5.602714e+03
3.278409e+02,5.600116e+03
3.288052e+02,5.595385e+03
3.297694e+02,5.592617e+03
3.307336e+02,5.591833e+03
3.316979e+02,5.592222e+03
3.326621e+02,5.594534e+03
3.336263e+02,5.596338e+03
3.345906e+02,5.597125e+03
3.355548e+02,5.598391e+03
3.365190e+02,5.601376e+03
3.374833e+02,5.607086e+03
3.384475e+02,5.615466e+03
3.394117e+02,5.622477e+03
3.403760e+02,5.623053e+03
3.413402e+02,5.620162e+03
3.423044e+02,5.619904e+03
3.432687e+02,5.623791e+03
3.442329e+02,5.629789e+03
3.451971e+02,5.635627e+03
3.461614e+02,5.639792e+03
3.471256e+02,5.641250e+03
3.480898e+02,5.641443e+03
3.490541e+02,5.642322e+03
3.500183e+02,5.641160e+03
3.509825e+02,5.635620e+03
3.519468e+02,5.632008e+03
3.529110e+02,5.634911e+03
3.538752e+02,5.644342e+03
3.548395e+02,5.656245e+03
3.558037e+02,5.665515e+03
3.567680e+02,5.672695e+03
3.577322e+02,5.676239e+03
3.586964e+02,5.675425e+03
3.596607e+02,5.673994e+03
3.606249e+02,5.674576e+03
3.615891e+02,5.677011e+03
3.625534e+02,5.678302e+03
3.635176e+02,5.675349e+03
3.644818e+02,5.668927e+03
3.654461e+02,5.662263e+03
3.664103e+02,5.659170e+03
3.673745e+02,5.661670e+03
3.683388e+02,5.667675e+03
3.693030e+02,5.673024e+03
3.702672e+02,5.678419e+03
3.712315e+02,5.687523e+03
3.721957e+02,5.701283e+03
3.731599e+02,5.714760e+03
3.741242e+02,5.722285e+03
3.750884e+02,5.722544e+03
3.760526e+02,5.724721e+03
3.770169e+02,5.731047e+03
3.779811e+02,5.737766e+03
3.789453e+02,5.739834e+03
3.799096e+02,5.734067e+03
3.808738e+02,5.722017e+03
3.818380e+02,5.710818e+03
3.828023e+02,5.700647e+03
3.837665e+02,5.696883e+03
3.847307e+02,5.703734e+03
3.856950e+02,5.717118e+03
3.866592e+02,5.727364e+03
3.876234e+02,5.724478e+03
3.885877e+02,5.713528e+03
3.895519e+02,5.710983e+03
3.905161e+02,5.720415e+03
3.914804e+02,5.731825e+03
3.924446e+02,5.734376e+03
3.934088e+02,5.727733e+03
3.943731e+02,5.721989e+03
3.953373e+02,5.718958e+03
3.963015e+02,5.718093e+03
3.972658e+02,5.719732e+03
3.982300e+02,5.725091e+03
3.991942e+02,5.733556e+03
4.001585e+02,5.738475e+03
4.011227e+02,5.727580e+03
4.020869e+02,5.723034e+03
4.030512e+02,5.730769e+03
4.040154e+02,5.743816e+03
4.049796e+02,5.753351e+03
4.059439e+02,5.751804e+03
4.069081e+02,5.742910e+03
4.078723e+02,5.741990e+03
4.088366e+02,5.752295e+03
4.098008e+02,5.760570e+03
4.107650e+02,5.760021e+03
4.117293e+02,5.752125e+03
4.126935e+02,5.745313e+03
4.136577e+02,5.741842e+03
4.146220e+02,5.741123e+03
4.155862e+02,5.742975e+03
4.165504e+02,5.747710e+03
4.175147e+02,5.754249e+03
4.184789e+02,5.760561e+03
4.194431e+02,5.768694e+03
4.204074e+02,5.773374e+03
4.213716e+02,5.771156e+03
4.223358e+02,5.766524e+03
4.233001e+02,5.764858e+03
4.242643e+02,5.769687e+03
4.252285e+02,5.777780e+03
4.261928e+02,5.780040e+03
4.271570e+02,5.773901e+03
4.281212e+02,5.769025e+03
4.290855e+02,5.770150e+03
4.300497e+02,5.774319e+03
4.310139e+02,5.775992e+03
4.319782e+02,5.770375e+03
4.329424e+02,5.764359e+03
4.339066e+02,5.766590e+03
4.348709e+02,5.777112e+03
4.358351e+02,5.787832e+03
4.367993e+02,5.791001e+03
4.377636e+02,5.782728e+03
4.387278e+02,5.777742e+03
4.396920e+02,5.779741e+03
4.406563e+02,5.783912e+03
4.416205e+02,5.786089e+03
4.425847e+02,5.784943e+03
4.435490e+02,5.782520e+03
4.445132e+02,5.782477e+03
4.454774e+02,5.786271e+03
4.464417e+02,5.789665e+03
4.474059e+02,5.787628e+03
4.483701e+02,5.784352e+03
4.493344e+02,5.786414e+03
4.502986e+02,5.801923e+03
4.512628e+02,5.818473e+03
4.522271e+02,5.827941e+03
4.531913e+02,5.830877e+03
4.541555e+02,5.829563e+03
4.551198e+02,5.824424e+03
4.560840e+02,5.815744e+03
4.570482e+02,5.806615e+03
4.580125e+02,5.796216e+03
4.589767e+02,5.791038e+03
4.599409e+02,5.792642e+03
4.609052e+02,5.798661e+03
4.618694e+02,5.805386e+03
4.628336e+02,5.811745e+03
4.637979e+02,5.817915e+03
4.647621e+02,5.822040e+03
4.657263e+02,5.825041e+03
4.666906e+02,5.828673e+03
4.676548e+02,5.832578e+03
4.686190e+02,5.836538e+03
4.695833e+02,5.837845e+03
4.705475e+02,5.832261e+03
4.715117e+02,5.823490e+03
4.724760e+02,5.817675e+03
4.734402e+02,5.817352e+03
4.744044e+02,5.820803e+03
4.753687e+02,5.823788e+03
4.763329e+02,5.828453e+03
4.772971e+02,5.829329e+03
4.782614e+02,5.821016e+03
4.792256e+02,5.810599e+03
4.801898e+02,5.806764e+03
4.811541e+02,5.816141e+03
4.821183e+02,5.829914e+03
4.830826e+02,5.834592e+03
4.840468e+02,5.829109e+03
4.850110e+02,5.823534e+03
4.859753e+02,5.825042e+03
4.869395e+02,5.833896e+03
4.879037e+02,5.841005e+03
4.888680e+02,5.850376e+03
4.898322e+02,5.856172e+03
4.907964e+02,5.853662e+03
4.917607e+02,5.844140e+03
4.927249e+02,5.833531e+03
4.936891e+02,5.826662e+03
4.946534e+02,5.823468e+03
4.956176e+02,5.821873e+03
4.965818e+02,5.821140e+03
4.975461e+02,5.823505e+03
4.985103e+02,5.830576e+03
4.994745e+02,5.842685e+03
5.004388e+02,5.852422e+03
5.014030e+02,5.858672e+03
5.023672e+02,5.862150e+03
5.033315e+02,5.862521e+03
5.042957e+02,5.859118e+03
5.052599e+02,5.852777e+03
5.062242e+02,5.846890e+03
5.071884e+02,5.842718e+03
5.081526e+02,5.839618e+03
5.091169e+02,5.837053e+03
5.100811e+02,5.837136e+03
5.110453e+02,5.841404e+03
5.120095e+02,5.853180e+03
5.129738e+02,5.867836e+03
5.139380e+02,5.879562e+03
5.149022e+02,5.888575e+03
5.158665e+02,5.896551e+03
5.168307e+02,5.903022e+03
5.177949e+02,5.904947e+03
5.187592e+02,5.899274e+03
5.197234e+02,5.887476e+03
5.206876e+02,5.876712e+03
5.216519e+02,5.869491e+03
5.226161e+02,5.866048e+03
5.235803e+02,5.865104e+03
5.245446e+02,5.866208e+03
5.255088e+02,5.868978e+03
5.264730e+02,5.870513e+03
5.274373e+02,5.868885e+03
5.284015e+02,5.869047e+03
5.293657e+02,5.877549e+03
5.303300e+02,5.896929e+03
5.312942e+02,5.905741e+03
5.322584e+02,5.892436e+03
5.332227e+02,5.874873e+03
5.341869e+02,5.869725e+03
5.351511e+02,5.878994e+03
5.361154e+02,5.892072e+03
5.370796e+02,5.895471e+03
5.380438e+02,5.887260e+03
5.390081e+02,5.880589e+03
5.399723e+02,5.876231e+03
5.409365e+02,5.875870e+03
5.419008e+02,5.879969e+03
5.428650e+02,5.889278e+03
5.438292e+02,5.897481e+03
5.447935e+02,5.901774e+03
5.457577e+02,5.902844e+03
5.467219e+02,5.902426e+03
5.476862e+02,5.901563e+03
5.486504e+02,5.899103e+03
5.496146e+02,5.891144e+03
5.505789e+02,5.869677e+03
5.515431e+02,5.854795e+03
5.525073e+02,5.854738e+03
5.534716e+02,5.866175e+03
5.544358e+02,5.881307e+03
5.554000e+02,5.899617e+03
5.563643e+02,5.915409e+03
5.573285e+02,5.921487e+03
5.582927e+02,5.918239e+03
5.592570e+02,5.912995e+03
5.602212e+02,5.910897e+03
5.611854e+02,5.911432e+03
5.621497e+02,5.911863e+03
5.631139e+02,5.909333e+03
5.640781e+02,5.906423e+03
5.650424e+02,5.907769e+03
5.660066e+02,5.912138e+03
5.669708e+02,5.913634e+03
5.679351e+02,5.907112e+03
5.688993e+02,5.897263e+03
5.698635e+02,5.892800e+03
5.708278e+02,5.895238e+03
5.717920e+02,5.899203e+03
5.727562e+02,5.897258e+03
5.737205e+02,5.882833e+03
5.746847e+02,5.880253e+03
5.756489e+02,5.901323e+03
5.766132e+02,5.922087e+03
5.775774e+02,5.928690e+03
5.785416e+02,5.920006e+03
5.795059e+02,5.908595e+03
5.804701e+02,5.903375e+03
5.814343e+02,5.903097e+03
5.823986e+02,5.904334e+03
5.833628e+02,5.907205e+03
5.843270e+02,5.910823e+03
5.852913e+02,5.913514e+03
5.862555e+02,5.914331e+03
5.872197e+02,5.915654e+03
5.881840e+02,5.914906e+03
5.891482e+02,5.914903e+03
5.901124e+02,5.919445e+03
5.910767e+02,5.930428e+03
5.920409e+02,5.940796e+03
5.930051e+02,5.941287e+03
5.939694e+02,5.933201e+03
5.949336e+02,5.926720e+03
5.958978e+02,5.925474e+03
5.968621e+02,5.927159e+03
5.978263e+02,5.926838e+03
5.987905e+02,5.919713e+03
5.997548e+02,5.918253e+03
6.007190e+02,5.928341e+03
6.016832e+02,5.944040e+03
6.026475e+02,5.957804e+03
6.036117e+02,5.966325e+03
6.045759e+02,5.969259e+03
6.055402e+02,5.963468e+03
6.065044e+02,5.949226e+03
6.074686e+02,5.936213e+03
6.084329e+02,5.930229e+03
6.093971e+02,5.930303e+03
6.103613e+02,5.928714e+03
6.113256e+02,5.922289e+03
6.122899e+02,5.918275e+03
6.132541e+02,5.918487e+03
6.142183e+02,5.921664e+03
6.151826e+02,5.926046e+03
6.161468e+02,5.932997e+03
6.171110e+02,5.941940e+03
6.180753e+02,5.952375e+03
6.190395e+02,5.963315e+03
6.200037e+02,5.970453e+03
6.209680e+02,5.970554e+03
6.219322e+02,5.964731e+03
6.228964e+02,5.958996e+03
6.238607e+02,5.948558e+03
6.248249e+02,5.942552e+03
6.257891e+02,5.945803e+03
6.267534e+02,5.953585e+03
6.277176e+02,5.955978e+03
6.286818e+02,5.945251e+03
6.296461e+02,5.932428e+03
6.306103e+02,5.930589e+03
6.315745e+02,5.939392e+03
6.325388e+02,5.949173e+03
6.335030e+02,5.950689e+03
6.344672e+02,5.942573e+03
6.354315e+02,5.940514e+03
6.363957e+02,5.949187e+03
6.373599e+02,5.955656e+03
6.383242e+02,5.953146e+03
6.392884e+02,5.943613e+03
6.402526e+02,5.938086e+03
6.412169e+02,5.946703e+03
6.421811e+02,5.956239e+03
6.431453e+02,5.950616e+03
6.441096e+02,5.930951e+03
6.450738e+02,5.912982e+03
6.460380e+02,5.915387e+03
6.470023e+02,5.940108e+03
6.479665e+02,5.955709e+03
6.489307e+02,5.956370e+03
6.498950e+02,5.952564e+03
6.508592e+02,5.951144e+03
6.518234e+02,5.951424e+03
6.527877e+02,5.951473e+03
6.537519e+02,5.953754e+03
6.547161e+02,5.954739e+03
6.556804e+02,5.950841e+03
6.566446e+02,5.942534e+03
6.576088e+02,5.934063e+03
6.585731e+02,5.928701e+03
6.595373e+02,5.926256e+03
6.605015e+02,5.925604e+03
6.614658e+02,5.926563e+03
6.624300e+02,5.929995e+03
6.633942e+02,5.937417e+03
6.643585e+02,5.951757e+03
6.653227e+02,5.961450e+03
6.662869e+02,5.962412e+03
6.672512e+02,5.960211e+03
6.682154e+02,5.957612e+03
6.691796e+02,5.954435e+03
6.701439e+02,5.951812e+03
6.711081e+02,5.952729e+03
6.720723e+02,5.954786e+03
6.730366e+02,5.952605e+03
6.740008e+02,5.945780e+03
6.749650e+02,5.938406e+03
6.759293e+02,5.935582e+03
6.768935e+02,5.940011e+03
6.778577e+02,5.943649e+03
6.788220e+02,5.947703e+03
6.797862e+02,5.953371e+03
6.807504e+02,5.959829e+03
6.817147e+02,5.966017e+03
6.826789e+02,5.968718e+03
6.836431e+02,5.962254e+03
6.846074e+02,5.951477e+03
6.855716e+02,5.943015e+03
6.865358e+02,5.939232e+03
6.875001e+02,5.938662e+03
6.884643e+02,5.939853e+03
6.894285e+02,5.943022e+03
6.903928e+02,5.945989e+03
6.913570e+02,5.947791e+03
6.923212e+02,5.948796e+03
6.932855e+02,5.950534e+03
6.942497e+02,5.957425e+03
6.952139e+02,5.961133e+03
6.961782e+02,5.953253e+03
6.971424e+02,5.946258e+03
6.981066e+02,5.950178e+03
6.990709e+02,5.964657e+03
7.000351e+02,5.975825e+03
7.009993e+02,5.974550e+03
7.019636e+02,5.966755e+03
7.029278e+02,5.961459e+03
7.038920e+02,5.959742e+03
7.048563e+02,5.959239e+03
7.058205e+02,5.959204e+03
7.067847e+02,5.962969e+03
7.077490e+02,5.964000e+03
7.087132e+02,5.961692e+03
7.096774e+02,5.962319e+03
7.106417e+02,5.967078e+03
7.116059e+02,5.976777e+03
7.125701e+02,5.981009e+03
7.135344e+02,5.973274e+03
7.144986e+02,5.963279e+03
7.154628e+02,5.959297e+03
7.164271e+02,5.961831e+03
7.173913e+02,5.965006e+03
7.183555e+02,5.962083e+03
7.193198e+02,5.954345e+03
7.202840e+02,5.950153e+03
7.212482e+02,5.952061e+03
7.222125e+02,5.955868e+03
7.231767e+02,5.955728e+03
7.241409e+02,5.946686e+03
7.251052e+02,5.942712e+03
7.260694e+02,5.947492e+03
7.270336e+02,5.953781e+03
7.279979e+02,5.959561e+03
7.289621e+02,5.964475e+03
7.299263e+02,5.968077e+03
7.308906e+02,5.969079e+03
7.318548e+02,5.968147e+03
7.328190e+02,5.967577e+03
7.337833e+02,5.967352e+03
7.347475e+02,5.964512e+03
7.357117e+02,5.953283e+03
7.366760e+02,5.936367e+03
7.376402e+02,5.934561e+03
7.386044e+02,5.953388e+03
7.395687e+02,5.975415e+03
7.405329e+02,5.985347e+03
7.414971e+02,5.980476e+03
7.424614e+02,5.973068e+03
7.434256e+02,5.960458e+03
7.443898e+02,5.953923e+03
7.453541e+02,5.959364e+03
7.463183e+02,5.972591e+03
7.472825e+02,5.980702e+03
7.482468e+02,5.976433e+03
7.492110e+02,5.965905e+03
7.501752e+02,5.955981e+03
7.511395e+02,5.949786e+03
7.521037e+02,5.948252e+03
7.530679e+02,5.950540e+03
7.540322e+02,5.954818e+03
7.549964e+02,5.959337e+03
7.559606e+02,5.965928e+03
7.569249e+02,5.971111e+03
7.578891e+02,5.971435e+03
7.588533e+02,5.966968e+03
7.598176e+02,5.970397e+03
7.607818e+02,5.984976e+03
7.617460e+02,5.994185e+03
7.627103e+02,5.994189e+03
7.636745e+02,5.988514e+03
7.646387e+02,5.981655e+03
7.656030e+02,5.970041e+03
7.665672e+02,5.961458e+03
7.675314e+02,5.962116e+03
7.684957e+02,5.966476e+03
7.694599e+02,5.966537e+03
7.704241e+02,5.960334e+03
7.713884e+02,5.951845e+03
7.723526e+02,5.945771e+03
7.733168e+02,5.943159e+03
7.742811e+02,5.946781e+03
7.752453e+02,5.955388e+03
7.762095e+02,5.966516e+03
7.771738e+02,5.977982e+03
7.781380e+02,5.989420e+03
7.791022e+02,5.996784e+03
7.800665e+02,6.004539e+03
7.810307e+02,6.009517e+03
7.819949e+02,6.005814e+03
7.829592e+02,5.981749e+03
7.839234e+02,5.963233e+03
7.848876e+02,5.964912e+03
7.858519e+02,5.978256e+03
7.868161e+02,5.991071e+03
7.877803e+02,5.998869e+03
7.887446e+02,6.001948e+03
7.897088e+02,6.001788e+03
7.906730e+02,6.000538e+03
7.916373e+02,5.998060e+03
7.926015e+02,5.990611e+03
7.935657e+02,5.978116e+03
7.945300e+02,5.967964e+03
7.954942e+02,5.963526e+03
7.964584e+02,5.959469e+03
7.974227e+02,5.961288e+03
7.983869e+02,5.968688e+03
7.993511e+02,5.974276e+03
8.003154e+02,5.972680e+03
8.012796e+02,5.968119e+03
8.022438e+02,5.959486e+03
8.032081e+02,5.954102e+03
8.041723e+02,5.960038e+03
8.051365e+02,5.978624e+03
8.061008e+02,5.995581e+03
8.070650e+02,5.997205e+03
8.080292e+02,5.988899e+03
8.089935e+02,5.982708e+03
8.099577e+02,5.982089e+03
8.109219e+02,5.983096e+03
8.118862e+02,5.979064e+03
8.128504e+02,5.970294e+03
8.138146e+02,5.967736e+03
8.147789e+02,5.972127e+03
8.157431e+02,5.978748e+03
8.167073e+02,5.986821e+03
8.176716e+02,6.001462e+03
8.186358e+02,6.006716e+03
8.196000e+02,5.988453e+03
8.205643e+02,5.973085e+03
8.215285e+02,5.970872e+03
8.224927e+02,5.979950e+03
8.234570e+02,5.986695e+03
8.244212e+02,5.984346e+03
8.253854e+02,5.982065e+03
8.263497e+02,5.985138e+03
8.273139e+02,5.990622e+03
8.282781e+02,5.993976e+03
8.292424e+02,5.996923e+03
8.302066e+02,5.998693e+03
8.311708e+02,5.992713e+03
8.321351e+02,5.981005e+03
8.330993e+02,5.974740e+03
8.340635e+02,5.979711e+03
8.350278e+02,5.990897e+03
8.359920e+02,5.993540e+03
8.369562e+02,5.985469e+03
8.379205e+02,5.982107e+03
8.388847e+02,5.990926e+03
8.398489e+02,6.006361e+03
8.408132e+02,6.012923e+03
8.417774e+02,5.999825e+03
8.427416e+02,5.991186e+03
8.437059e+02,5.993279e+03
8.446701e+02,5.999139e+03
8.456343e+02,6.001653e+03
8.465986e+02,5.996875e+03
8.475628e+02,5.993198e+03
8.485270e+02,5.994742e+03
8.494913e+02,5.997866e+03
8.504555e+02,5.998894e+03
8.514197e+02,5.997567e+03
8.523840e+02,5.998869e+03
8.533482e+02,6.009156e+03
8.543124e+02,6.022368e+03
8.552767e+02,6.027831e+03
8.562409e+02,6.023698e+03
8.572051e+02,6.015010e+03
8.581694e+02,6.007942e+03
8.591336e+02,6.003092e+03
8.600978e+02,5.996891e+03
8.610621e+02,5.989458e+03
8.620263e+02,5.984997e+03
8.629905e+02,5.985661e+03
8.639548e+02,5.989707e+03
8.649190e+02,5.989014e+03
8.658832e+02,5.980452e+03
8.668475e+02,5.977123e+03
8.678117e+02,5.988045e+03
8.687759e+02,6.009557e+03
8.697402e+02,6.026235e+03
8.707044e+02,6.032714e+03
8.716686e+02,6.032531e+03
8.726329e+02,6.028922e+03
8.735971e+02,6.023800e+03
8.745613e+02,6.017855e+03
8.755256e+02,6.012225e+03
8.764898e+02,6.008634e+03
8.774540e+02,6.005652e+03
8.784183e+02,6.003643e+03
8.793825e+02,6.004284e+03
8.803467e+02,6.008250e+03
8.813110e+02,6.014040e+03
8.822752e+02,6.023957e+03
8.832394e+02,6.036604e+03
8.842037e+02,6.040915e+03
8.851679e+02,6.032020e+03
8.861321e+02,6.017994e+03
8.870964e+02,6.011948e+03
8.880606e+02,6.014013e+03
8.890248e+02,6.012003e+03
8.899891e+02,6.006305e+03
8.909533e+02,6.000584e+03
8.919175e+02,5.996028e+03
8.928818e+02,5.991154e+03
8.938460e+02,5.993962e+03
8.948102e+02,6.010838e+03
8.957745e+02,6.025432e+03
8.967387e+02,6.026881e+03
8.977029e+02,6.014641e+03
8.986672e+02,6.007234e+03
8.996314e+02,6.017060e+03
9.005956e+02,6.027518e+03
9.015599e+02,6.027272e+03
9.025241e+02,6.020088e+03
9.034883e+02,6.018728e+03
9.044526e+02,6.039175e+03
9.054168e+02,6.053023e+03
9.063810e+02,6.039264e+03
9.073453e+02,6.013775e+03
9.083095e+02,6.000274e+03
9.092737e+02,6.009193e+03
9.102380e+02,6.024315e+03
9.112022e+02,6.029711e+03
9.121664e+02,6.027513e+03
9.131307e+02,6.023767e+03
9.140949e+02,6.022063e+03
9.150591e+02,6.024734e+03
9.160234e+02,6.032544e+03
9.169876e+02,6.041351e+03
9.179518e+02,6.042694e+03
9.189161e+02,6.035188e+03
9.198803e+02,6.022951e+03
9.208445e+02,6.010558e+03
9.218088e+02,5.999040e+03
9.227730e+02,5.997213e+03
9.237372e+02,6.007979e+03
9.247015e+02,6.017989e+03
9.256657e+02,6.017438e+03
9.266299e+02,6.005228e+03
9.275942e+02,6.001048e+03
9.285584e+02,6.009940e+03
9.295226e+02,6.018188e+03
9.304869e+02,6.022096e+03
9.314511e+02,6.023270e+03
9.324153e+02,6.023866e+03
9.333796e+02,6.021306e+03
9.343438e+02,6.020862e+03
9.353080e+02,6.024237e+03
9.362723e+02,6.027481e+03
9.372365e+02,6.027853e+03
9.382007e+02,6.028102e+03
9.391650e+02,6.028250e+03
9.401292e+02,6.025844e+03
9.410934e+02,6.023543e+03
9.420577e+02,6.023311e+03
9.430219e+02,6.025155e+03
9.439861e+02,6.026914e+03
9.449504e+02,6.031406e+03
9.459146e+02,6.037863e+03
9.468788e+02,6.038940e+03
9.478431e+02,6.031391e+03
9.488073e+02,6.022439e+03
9.497715e+02,6.024789e+03
9.507358e+02,6.033196e+03
9.517000e+02,6.033773e+03
9.526642e+02,6.028494e+03
9.536285e+02,6.022380e+03
9.545927e+02,6.016900e+03
9.555569e+02,6.012173e+03
9.565212e+02,6.008494e+03
9.574854e+02,6.007817e+03
9.584496e+02,6.014039e+03
9.594139e+02,6.027511e+03
9.603781e+02,6.042861e+03
9.613423e+02,6.051042e+03
9.623066e+02,6.051817e+03
9.632708e+02,6.047476e+03
9.642350e+02,6.037361e+03
9.651993e+02,6.027386e+03
9.661635e+02,6.023912e+03
9.671277e+02,6.028281e+03
9.680920e+02,6.030783e+03
9.690562e+02,6.031570e+03
9.700204e+02,6.029200e+03
9.709847e+02,6.023267e+03
9.719489e+02,6.013839e+03
9.729131e+02,6.010418e+03
9.738774e+02,6.021153e+03
9.748416e+02,6.032630e+03
9.758058e+02,6.034446e+03
9.767701e+02,6.027522e+03
9.777343e+02,6.026620e+03
9.786985e+02,6.040899e+03
9.796628e+02,6.052218e+03
9.806270e+02,6.056837e+03
9.815912e+02,6.054534e+03
9.825555e+02,6.045154e+03
9.835197e+02,6.021360e+03
9.844839e+02,6.006261e+03
9.854482e+02,6.018344e+03
9.864124e+02,6.040830e+03
9.873766e+02,6.051992e+03
9.883409e+02,6.045677e+03
9.893051e+02,6.039777e+03
9.902693e+02,6.045416e+03
9.912336e+02,6.057587e+03
9.921978e+02,6.070755e+03
9.931620e+02,6.081820e+03
9.941263e+02,6.087895e+03
9.950905e+02,6.086323e+03
9.960547e+02,6.080524e+03
9.970190e+02,6.072581e+03
9.979832e+02,6.063008e+03
9.989474e+02,6.055297e+03
9.999117e+02,6.055310e+03
1.000876e+03,6.058706e+03
1.001840e+03,6.056346e+03
1.002804e+03,6.051803e+03
1.003769e+03,6.053211e+03
1.004733e+03,6.062615e+03
1.005697e+03,6.073048e+03
1.006661e+03,6.074056e+03
1.007626e+03,6.068282e+03
1.008590e+03,6.065537e+03
1.009554e+03,6.066236e+03
1.010518e+03,6.067710e+03
1.011482e+03,6.069947e+03
1.012447e+03,6.072290e+03
1.013411e+03,6.070344e+03
1.014375e+03,6.066679e+03
1.015339e+03,6.063295e+03
1.016304e+03,6.059285e+03
1.017268e+03,6.054435e+03
1.018232e+03,6.050224e+03
1.019196e+03,6.045408e+03
1.020161e+03,6.044795e+03
1.021125e+03,6.052462e+03
1.022089e+03,6.066737e+03
1.023053e+03,6.079403e+03
1.024018e+03,6.088693e+03
1.024982e+03,6.092664e+03
1.025946e+03,6.087600e+03
1.026910e+03,6.078442e+03
1.027875e+03,6.076204e+03
1.028839e+03,6.087759e+03
1.029803e+03,6.092508e+03
1.030767e+03,6.086657e+03
1.031731e+03,6.080968e+03
1.032696e+03,6.082049e+03
1.033660e+03,6.089592e+03
1.034624e+03,6.096733e+03
1.035588e+03,6.107960e+03
1.036552e+03,6.115011e+03
1.037517e+03,6.110464e+03
1.038481e+03,6.096501e+03
1.039445e+03,6.088113e+03
1.040409e+03,6.088822e+03
1.041374e+03,6.089867e+03
1.042338e+03,6.092106e+03
1.043302e+03,6.095331e+03
1.044266e+03,6.097708e+03
1.045231e+03,6.097708e+03
1.046195e+03,6.097964e+03
1.047159e+03,6.103704e+03
1.048123e+03,6.107761e+03
1.049088e+03,6.102557e+03
1.050052e+03,6.087462e+03
1.051016e+03,6.084232e+03
1.051980e+03,6.104893e+03
1.052945e+03,6.123543e+03
1.053909e+03,6.124995e+03
1.054873e+03,6.111625e+03
1.055837e+03,6.103456e+03
1.056802e+03,6.112894e+03
1.057766e+03,6.117990e+03
1.058730e+03,6.112861e+03
1.059694e+03,6.103451e+03
1.060658e+03,6.095588e+03
1.061623e+03,6.088717e+03
1.062587e+03,6.088654e+03
1.063551e+03,6.104583e+03
1.064515e+03,6.121594e+03
1.065479e+03,6.126127e+03
1.066444e+03,6.117479e+03
1.067408e+03,6.115619e+03
1.068372e+03,6.129485e+03
1.069336e+03,6.144597e+03
1.070301e+03,6.151756e+03
1.071265e+03,6.151247e+03
1.072229e+03,6.150178e+03
1.073193e+03,6.151381e+03
1.074158e+03,6.149968e+03
1.075122e+03,6.142081e+03
1.076086e+03,6.132353e+03
1.077050e+03,6.128197e+03
1.078015e+03,6.138258e+03
1.078979e+03,6.146126e+03
1.079943e+03,6.143126e+03
1.080907e+03,6.138975e+03
1.081872e+03,6.138700e+03
1.082836e+03,6.141144e+03
1.083800e+03,6.143243e+03
1.084764e+03,6.145795e+03
1.085729e+03,6.149668e+03
1.086693e+03,6.154955e+03
1.087657e+03,6.160510e+03
1.088621e+03,6.165000e+03
1.089585e+03,6.166240e+03
1.090550e+03,6.165796e+03
1.091514e+03,6.169836e+03
1.092478e+03,6.174345e+03
1.093442e+03,6.172772e+03
1.094406e+03,6.161570e+03
1.095371e+03,6.154506e+03
1.096335e+03,6.154385e+03
1.097299e+03,6.156744e+03
1.098263e+03,6.158841e+03
1.099228e+03,6.159948e+03
1.100192e+03,6.162522e+03
1.101156e+03,6.169646e+03
1.102120e+03,6.174311e+03
1.103085e+03,6.173323e+03
1.104049e+03,6.168885e+03
1.105013e+03,6.165400e+03
1.105977e+03,6.166740e+03
1.106942e+03,6.165977e+03
1.107906e+03,6.156804e+03
1.108870e+03,6.149063e+03
1.109834e+03,6.153775e+03
1.110799e+03,6.177357e+03
1.111763e+03,6.190950e+03
1.112727e+03,6.182633e+03
1.113691e+03,6.173917e+03
1.114656e+03,6.173720e+03
1.115620e+03,6.181580e+03
1.116584e+03,6.192389e+03
1.117548e+03,6.209676e+03
1.118512e+03,6.220086e+03
1.119477e+03,6.217592e+03
1.120441e+03,6.208104e+03
1.121405e+03,6.201442e+03
1.122369e+03,6.203740e+03
1.123334e+03,6.200173e+03
1.124298e+03,6.186821e+03
1.125262e+03,6.173113e+03
1.126226e+03,6.165011e+03
1.127191e+03,6.162935e+03
1.128155e+03,6.167250e+03
1.129119e+03,6.181656e+03
1.130083e+03,6.194232e+03
1.131047e+03,6.198020e+03
1.132012e+03,6.195235e+03
1.132976e+03,6.198282e+03
1.133940e+03,6.212651e+03
1.134904e+03,6.221099e+03
1.135869e+03,6.222201e+03
1.136833e+03,6.219042e+03
1.137797e+03,6.213477e+03
1.138761e+03,6.204609e+03
1.139726e+03,6.205711e+03
1.140690e+03,6.220956e+03
1.141654e+03,6.234766e+03
1.142618e+03,6.236542e+03
1.143583e+03,6.228510e+03
1.144547e+03,6.225188e+03
1.145511e+03,6.227521e+03
1.146475e+03,6.230001e+03
1.147439e+03,6.230370e+03
1.148404e+03,6.231293e+03
1.149368e+03,6.235137e+03
1.150332e+03,6.241116e+03
1.151296e+03,6.252226e+03
1.152261e+03,6.268004e+03
1.153225e+03,6.275309e+03
1.154189e+03,6.263584e+03
1.155153e+03,6.238483e+03
1.156118e+03,6.228932e+03
1.157082e+03,6.237309e+03
1.158046e+03,6.248498e+03
1.159010e+03,6.253240e+03
1.159974e+03,6.254771e+03
1.160939e+03,6.261017e+03
1.161903e+03,6.269708e+03
1.162867e+03,6.273714e+03
1.163831e+03,6.271026e+03
1.164796e+03,6.266797e+03
1.165760e+03,6.271377e+03
1.166724e+03,6.280564e+03
1.167688e+03,6.278128e+03
1.168653e+03,6.265389e+03
1.169617e+03,6.255012e+03
1.170581e+03,6.257597e+03
1.171545e+03,6.265353e+03
1.172510e+03,6.265886e+03
1.173474e+03,6.262642e+03
1.174438e+03,6.261497e+03
1.175402e+03,6.263244e+03
1.176366e+03,6.267425e+03
1.177331e+03,6.277068e+03
1.178295e+03,6.288364e+03
1.179259e+03,6.294621e+03
1.180223e+03,6.294851e+03
1.181188e+03,6.294377e+03
1.182152e+03,6.298341e+03
1.183116e+03,6.301328e+03
1.184080e+03,6.300722e+03
1.185045e+03,6.298731e+03
1.186009e+03,6.297333e+03
1.186973e+03,6.298693e+03
1.187937e+03,6.301938e+03
1.188901e+03,6.306349e+03
1.189866e+03,6.311065e+03
1.190830e+03,6.313986e+03
1.191794e+03,6.313618e+03
1.192758e+03,6.313368e+03
1.193723e+03,6.314970e+03
1.194687e+03,6.320824e+03
1.195651e+03,6.333664e+03
1.196615e+03,6.349712e+03
1.197580e+03,6.359886e+03
1.198544e+03,6.357567e+03
1.199508e+03,6.350264e+03
1.200472e+03,6.341154e+03
1.201437e+03,6.330674e+03
1.202401e+03,6.318157e+03
1.203365e+03,6.303415e+03
1.204329e+03,6.302593e+03
1.205293e+03,6.320352e+03
1.206258e+03,6.338088e+03
1.207222e+03,6.346539e+03
1.208186e+03,6.348340e+03
1.209150e+03,6.353058e+03
1.210115e+03,6.359022e+03
1.211079e+03,6.366367e+03
1.212043e+03,6.376587e+03
1.213007e+03,6.384442e+03
1.213972e+03,6.385527e+03
1.214936e+03,6.382171e+03
1.215900e+03,6.376659e+03
1.216864e+03,6.369580e+03
1.217828e+03,6.365054e+03
1.218793e+03,6.366483e+03
1.219757e+03,6.370720e+03
1.220721e+03,6.370671e+03
1.221685e+03,6.369470e+03
1.222650e+03,6.373186e+03
1.223614e+03,6.381517e+03
1.224578e+03,6.389763e+03
1.225542e+03,6.395446e+03
1.226507e+03,6.402200e+03
1.227471e+03,6.416358e+03
1.228435e+03,6.433544e+03
1.229399e+03,6.440888e+03
1.230364e+03,6.431321e+03
1.231328e+03,6.414707e+03
1.232292e+03,6.391866e+03
1.233256e+03,6.371969e+03
1.234220e+03,6.363495e+03
1.235185e+03,6.371888e+03
1.236149e+03,6.384485e+03
1.237113e+03,6.404627e+03
1.238077e+03,6.424515e+03
1.239042e+03,6.434783e+03
1.240006e+03,6.433804e+03
1.240970e+03,6.432403e+03
1.241934e+03,6.430475e+03
1.242899e+03,6.427903e+03
1.243863e+03,6.426896e+03
1.244827e+03,6.426158e+03
1.245791e+03,6.422993e+03
1.246755e+03,6.417157e+03
1.247720e+03,6.409224e+03
1.248684e+03,6.398569e+03
1.249648e+03,6.393388e+03
1.250612e+03,6.399737e+03
1.251577e+03,6.412612e+03
1.252541e+03,6.418278e+03
1.253505e+03,6.416774e+03
1.254469e+03,6.413076e+03
1.255434e+03,6.409425e+03
1.256398e+03,6.408738e+03
1.257362e+03,6.414160e+03
1.258326e+03,6.421415e+03
1.259291e+03,6.424513e+03
1.260255e+03,6.422758e+03
1.261219e+03,6.419502e+03
1.262183e+03,6.424167e+03
1.263147e+03,6.428211e+03
1.264112e+03,6.419858e+03
1.265076e+03,6.407249e+03
1.266040e+03,6.401472e+03
1.267004e+03,6.406941e+03
1.267969e+03,6.414672e+03
1.268933e+03,6.429529e+03
1.269897e+03,6.444561e+03
1.270861e+03,6.448006e+03
1.271826e+03,6.436905e+03
1.272790e+03,6.431420e+03
1.273754e+03,6.437560e+03
1.274718e+03,6.444027e+03
1.275682e+03,6.453651e+03
1.276647e+03,6.462849e+03
1.277611e+03,6.464657e+03
1.278575e+03,6.457392e+03
1.279539e+03,6.446820e+03
1.280504e+03,6.435143e+03
1.281468e+03,6.431548e+03
1.282432e+03,6.442167e+03
1.283396e+03,6.459640e+03
1.284361e+03,6.462790e+03
1.285325e+03,6.454670e+03
1.286289e+03,6.456118e+03
1.287253e+03,6.472453e+03
1.288218e+03,6.487310e+03
1.289182e+03,6.484333e+03
1.290146e+03,6.473871e+03
1.291110e+03,6.467704e+03
1.292074e+03,6.466805e+03
1.293039e+03,6.468059e+03
1.294003e+03,6.472693e+03
1.294967e+03,6.473483e+03
1.295931e+03,6.469005e+03
1.296896e+03,6.461959e+03
1.297860e+03,6.451398e+03
1.298824e+03,6.431850e+03
1.299788e+03,6.427864e+03
1.300753e+03,6.450704e+03
1.301717e+03,6.472172e+03
1.302681e+03,6.480322e+03
1.303645e+03,6.480299e+03
1.304609e+03,6.488829e+03
1.305574e+03,6.505907e+03
1.306538e+03,6.512698e+03
1.307502e+03,6.509022e+03
1.308466e+03,6.501015e+03
1.309431e+03,6.486726e+03
1.310395e+03,6.471889e+03
1.311359e+03,6.480709e+03
1.312323e+03,6.505477e+03
1.313288e+03,6.522249e+03
1.314252e+03,6.522689e+03
1.315216e+03,6.518149e+03
1.316180e+03,6.510558e+03
1.317145e+03,6.506504e+03
1.318109e+03,6.514756e+03
1.319073e+03,6.533226e+03
1.320037e+03,6.547102e+03
1.321001e+03,6.551606e+03
1.321966e+03,6.550401e+03
1.322930e+03,6.545693e+03
1.323894e+03,6.540144e+03
1.324858e+03,6.534505e+03
1.325823e+03,6.527229e+03
1.326787e+03,6.522082e+03
1.327751e+03,6.515795e+03
1.328715e+03,6.514091e+03
1.329680e+03,6.523153e+03
1.330644e+03,6.540562e+03
1.331608e+03,6.554298e+03
1.332572e+03,6.564050e+03
1.333536e+03,6.574372e+03
1.334501e+03,6.586135e+03
1.335465e+03,6.591870e+03
1.336429e+03,6.580350e+03
1.337393e+03,6.563989e+03
1.338358e+03,6.561727e+03
1.339322e+03,6.571448e+03
1.340286e+03,6.578902e+03
1.341250e+03,6.578796e+03
1.342215e+03,6.572639e+03
1.343179e+03,6.557575e+03
1.344143e+03,6.545389e+03
1.345107e+03,6.546361e+03
1.346072e+03,6.563354e+03
1.347036e+03,6.572449e+03
1.348000e+03,6.567562e+03
1.348964e+03,6.562583e+03
1.349928e+03,6.566262e+03
1.350893e+03,6.574432e+03
1.351857e+03,6.570119e+03
1.352821e+03,6.552659e+03
1.353785e+03,6.544373e+03
1.354750e+03,6.547269e+03
1.355714e+03,6.550436e+03
1.356678e+03,6.548484e+03
1.357642e+03,6.544689e+03
1.358607e+03,6.536924e+03
1.359571e+03,6.527548e+03
1.360535e+03,6.524295e+03
1.361499e+03,6.533341e+03
1.362464e+03,6.542002e+03
1.363428e+03,6.542647e+03
1.364392e+03,6.544705e+03
1.365356e+03,6.554023e+03
1.366320e+03,6.566401e+03
1.367285e+03,6.569115e+03
1.368249e+03,6.562494e+03
1.369213e+03,6.551550e+03
1.370177e+03,6.534859e+03
1.371142e+03,6.519306e+03
1.372106e+03,6.515453e+03
1.373070e+03,6.521222e+03
1.374034e+03,6.519045e+03
1.374999e+03,6.511596e+03
1.375963e+03,6.511488e+03
1.376927e+03,6.528350e+03
1.377891e+03,6.546051e+03
1.378855e+03,6.545414e+03
1.379820e+03,6.534836e+03
1.380784e+03,6.523384e+03
1.381748e+03,6.514508e+03
1.382712e+03,6.512806e+03
1.383677e+03,6.522718e+03
1.384641e+03,6.529500e+03
1.385605e+03,6.525796e+03
1.386569e+03,6.516729e+03
1.387534e+03,6.511529e+03
1.388498e+03,6.512064e+03
1.389462e+03,6.508987e+03
1.390426e+03,6.499391e+03
1.391391e+03,6.492284e+03
1.392355e+03,6.496548e+03
1.393319e+03,6.507695e+03
1.394283e+03,6.517298e+03
1.395247e+03,6.522944e+03
1.396212e+03,6.517985e+03
1.397176e+03,6.500408e+03
1.398140e+03,6.488297e+03
1.399104e+03,6.496615e+03
1.400069e+03,6.506868e+03
1.401033e+03,6.507092e+03
1.401997e+03,6.500634e+03
1.402961e+03,6.498091e+03
1.403926e+03,6.500708e+03
1.404890e+03,6.504600e+03
1.405854e+03,6.512539e+03
1.406818e+03,6.517811e+03
1.407782e+03,6.513333e+03
1.408747e+03,6.505156e+03
1.409711e+03,6.511456e+03
1.410675e+03,6.525292e+03
1.411639e+03,6.531003e+03
1.412604e+03,6.524436e+03
1.413568e+03,6.515279e+03
1.414532e+03,6.513614e+03
1.415496e+03,6.515122e+03
1.416461e+03,6.511562e+03
1.417425e+03,6.503233e+03
1.418389e+03,6.499499e+03
1.419353e+03,6.511620e+03
1.420318e+03,6.513658e+03
1.421282e+03,6.501031e+03
1.422246e+03,6.488624e+03
1.423210e+03,6.488579e+03
1.424174e+03,6.499514e+03
1.425139e+03,6.504592e+03
1.426103e+03,6.503010e+03
1.427067e+03,6.503369e+03
1.428031e+03,6.509406e+03
1.428996e+03,6.517140e+03
1.429960e+03,6.522809e+03
1.430924e+03,6.525505e+03
1.431888e+03,6.524231e+03
1.432853e+03,6.519783e+03
1.433817e+03,6.514351e+03
1.434781e+03,6.508112e+03
1.435745e+03,6.504642e+03
1.436709e+03,6.502027e+03
1.437674e+03,6.499320e+03
1.438638e+03,6.499064e+03
1.439602e+03,6.502514e+03
1.440566e+03,6.501557e+03
1.441531e+03,6.496188e+03
1.442495e+03,6.494225e+03
1.443459e+03,6.498124e+03
1.444423e+03,6.502553e+03
1.445388e+03,6.499053e+03
1.446352e+03,6.493403e+03
1.447316e+03,6.497666e+03
1.448280e+03,6.511611e+03
1.449245e+03,6.516123e+03
1.450209e+03,6.494965e+03
1.451173e+03,6.481486e+03
1.452137e+03,6.477351e+03
1.453101e+03,6.476588e+03
1.454066e+03,6.476055e+03
1.455030e+03,6.476389e+03
1.455994e+03,6.481589e+03
1.456958e+03,6.490625e+03
1.457923e+03,6.496870e+03
1.458887e+03,6.495288e+03
1.459851e+03,6.492729e+03
1.460815e+03,6.496871e+03
1.461780e+03,6.499779e+03
1.462744e+03,6.497854e+03
1.463708e+03,6.492371e+03
1.464672e+03,6.485125e+03
1.465636e+03,6.477499e+03
1.466601e+03,6.471415e+03
1.467565e+03,6.465279e+03
1.468529e+03,6.464682e+03
1.469493e+03,6.478467e+03
1.470458e+03,6.498644e+03
1.471422e+03,6.492930e+03
1.472386e+03,6.471109e+03
1.473350e+03,6.467340e+03
1.474315e+03,6.497951e+03
1.475279e+03,6.524550e+03
1.476243e+03,6.518785e+03
1.477207e+03,6.501695e+03
1.478172e+03,6.488510e+03
1.479136e+03,6.480402e+03
1.480100e+03,6.475443e+03
1.481064e+03,6.475042e+03
1.482028e+03,6.474925e+03
1.482993e+03,6.475209e+03
1.483957e+03,6.478407e+03
1.484921e+03,6.486552e+03
1.485885e+03,6.496887e+03
1.486850e+03,6.503881e+03
1.487814e+03,6.506750e+03
1.488778e+03,6.508460e+03
1.489742e+03,6.512101e+03
1.490707e+03,6.509454e+03
1.491671e+03,6.495768e+03
1.492635e+03,6.484854e+03
1.493599e+03,6.479308e+03
1.494563e+03,6.477486e+03
1.495528e+03,6.480549e+03
1.496492e+03,6.487241e+03
1.497456e+03,6.493225e+03
1.498420e+03,6.499841e+03
1.499385e+03,6.499771e+03
1.500349e+03,6.475088e+03
1.501313e+03,6.453406e+03
1.502277e+03,6.462882e+03
1.503242e+03,6.487662e+03
1.504206e+03,6.505456e+03
1.505170e+03,6.510689e+03
1.506134e+03,6.510600e+03
1.507099e+03,6.504158e+03
1.508063e+03,6.496966e+03
1.509027e+03,6.490886e+03
1.509991e+03,6.485579e+03
1.510955e+03,6.480599e+03
1.511920e+03,6.476158e+03
1.512884e+03,6.474283e+03
1.513848e+03,6.477320e+03
1.514812e+03,6.483471e+03
1.515777e+03,6.488319e+03
1.516741e+03,6.491033e+03
1.517705e+03,6.488356e+03
1.518669e+03,6.484765e+03
1.519634e+03,6.485263e+03
1.520598e+03,6.488694e+03
1.521562e+03,6.496336e+03
1.522526e+03,6.505763e+03
1.523490e+03,6.505484e+03
1.524455e+03,6.490616e+03
1.525419e+03,6.476961e+03
1.526383e+03,6.485929e+03
1.527347e+03,6.498025e+03
1.528312e+03,6.497023e+03
1.529276e+03,6.487800e+03
1.530240e+03,6.484154e+03
1.531204e+03,6.486159e+03
1.532169e+03,6.486958e+03
1.533133e+03,6.485259e+03
1.534097e+03,6.486906e+03
1.535061e+03,6.500839e+03
1.536026e+03,6.514969e+03
1.536990e+03,6.500585e+03
1.537954e+03,6.474364e+03
1.538918e+03,6.469273e+03
1.539882e+03,6.495236e+03
1.540847e+03,6.516624e+03
1.541811e+03,6.521585e+03
1.542775e+03,6.518407e+03
1.543739e+03,6.508734e+03
1.544704e+03,6.498857e+03
1.545668e+03,6.498007e+03
1.546632e+03,6.505626e+03
1.547596e+03,6.518270e+03
1.548561e+03,6.534146e+03
1.549525e+03,6.546140e+03
1.550489e+03,6.546117e+03
1.551453e+03,6.542889e+03
1.552417e+03,6.539080e+03
1.553382e+03,6.534354e+03
1.554346e+03,6.528937e+03
1.555310e+03,6.524773e+03
1.556274e+03,6.530836e+03
1.557239e+03,6.546132e+03
1.558203e+03,6.554192e+03
1.559167e+03,6.551193e+03
1.560131e+03,6.540749e+03
1.561096e+03,6.514256e+03
1.562060e+03,6.494308e+03
1.563024e+03,6.504655e+03
1.563988e+03,6.534339e+03
1.564953e+03,6.556038e+03
1.565917e+03,6.565536e+03
1.566881e+03,6.577654e+03
1.567845e+03,6.592307e+03
1.568809e+03,6.598168e+03
1.569774e+03,6.586913e+03
1.570738e+03,6.570667e+03
1.571702e+03,6.564265e+03
1.572666e+03,6.563227e+03
1.573631e+03,6.563703e+03
1.574595e+03,6.566945e+03
1.575559e+03,6.567413e+03
1.576523e+03,6.561500e+03
1.577488e+03,6.564359e+03
1.578452e+03,6.577687e+03
1.579416e+03,6.589069e+03
1.580380e+03,6.582454e+03
1.581344e+03,6.569272e+03
1.582309e+03,6.576005e+03
1.583273e+03,6.594871e+03
1.584237e+03,6.604217e+03
1.585201e+03,6.594422e+03
1.586166e+03,6.583874e+03
1.587130e+03,6.569500e+03
1.588094e+03,6.560912e+03
1.589058e+03,6.566452e+03
1.590023e+03,6.578129e+03
1.590987e+03,6.575690e+03
1.591951e+03,6.567664e+03
1.592915e+03,6.570230e+03
1.593880e+03,6.580635e+03
1.594844e+03,6.586605e+03
1.595808e+03,6.580620e+03
1.596772e+03,6.575264e+03
1.597736e+03,6.576505e+03
1.598701e+03,6.578747e+03
1.599665e+03,6.574845e+03
1.600629e+03,6.566803e+03
1.601593e+03,6.566428e+03
1.602558e+03,6.569179e+03
1.603522e+03,6.558002e+03
1.604486e+03,6.523828e+03
1.605450e+03,6.498837e+03
1.606415e+03,6.506939e+03
1.607379e+03,6.520353e+03
1.608343e+03,6.530640e+03
1.609307e+03,6.534667e+03
1.610271e+03,6.522170e+03
1.611236e+03,6.498233e+03
1.612200e+03,6.494828e+03
1.613164e+03,6.511060e+03
1.614128e+03,6.521226e+03
1.615093e+03,6.500920e+03
1.616057e+03,6.484677e+03
1.617021e+03,6.486029e+03
1.617985e+03,6.488978e+03
1.618950e+03,6.486048e+03
1.619914e+03,6.479058e+03
1.620878e+03,6.474407e+03
1.621842e+03,6.471883e+03
1.622807e+03,6.466736e+03
1.623771e+03,6.459181e+03
1.624735e+03,6.454181e+03
1.625699e+03,6.452407e+03
1.626663e+03,6.450636e+03
1.627628e+03,6.447118e+03
1.628592e+03,6.438935e+03
1.629556e+03,6.423118e+03
1.630520e+03,6.406118e+03
1.631485e+03,6.414827e+03
1.632449e+03,6.441221e+03
1.633413e+03,6.452073e+03
1.634377e+03,6.427566e+03
1.635342e+03,6.406267e+03
1.636306e+03,6.404755e+03
1.637270e+03,6.409727e+03
1.638234e+03,6.417119e+03
1.639198e+03,6.425093e+03
1.640163e+03,6.427141e+03
1.641127e+03,6.424511e+03
1.642091e+03,6.411618e+03
1.643055e+03,6.388161e+03
1.644020e+03,6.373575e+03
1.644984e+03,6.385678e+03
1.645948e+03,6.391295e+03
1.646912e+03,6.383507e+03
1.647877e+03,6.371817e+03
1.648841e+03,6.362641e+03
1.649805e+03,6.357747e+03
1.650769e+03,6.365703e+03
1.651734e+03,6.379556e+03
1.652698e+03,6.381403e+03
1.653662e+03,6.361933e+03
1.654626e+03,6.351772e+03
1.655590e+03,6.367879e+03
1.656555e+03,6.378740e+03
1.657519e+03,6.377707e+03
1.658483e+03,6.373143e+03
1.659447e+03,6.370625e+03
1.660412e+03,6.368086e+03
1.661376e+03,6.368035e+03
1.662340e+03,6.371469e+03
1.663304e+03,6.375766e+03
1.664269e+03,6.375981e+03
1.665233e+03,6.377726e+03
1.666197e+03,6.381285e+03
1.667161e+03,6.378230e+03
1.668125e+03,6.363808e+03
1.669090e+03,6.345314e+03
1.670054e+03,6.331201e+03
1.671018e+03,6.322328e+03
1.671982e+03,6.323014e+03
1.672947e+03,6.333379e+03
1.673911e+03,6.342944e+03
1.674875e+03,6.348521e+03
1.675839e+03,6.348820e+03
1.676804e+03,6.346580e+03
1.677768e+03,6.345038e+03
1.678732e+03,6.341547e+03
1.679696e+03,6.339389e+03
1.680661e+03,6.344044e+03
1.681625e+03,6.347946e+03
1.682589e+03,6.344224e+03
1.683553e+03,6.334876e+03
1.684517e+03,6.331402e+03
1.685482e+03,6.332838e+03
1.686446e+03,6.339067e+03
1.687410e+03,6.351518e+03
1.688374e+03,6.358470e+03
1.689339e+03,6.344552e+03
1.690303e+03,6.328333e+03
1.691267e+03,6.318377e+03
1.692231e+03,6.316133e+03
1.693196e+03,6.324874e+03
1.694160e+03,6.340513e+03
1.695124e+03,6.347067e+03
1.696088e+03,6.346107e+03
1.697052e+03,6.344608e+03
1.698017e+03,6.339334e+03
1.698981e+03,6.335728e+03
1.699945e+03,6.333579e+03
1.700909e+03,6.330572e+03
1.701874e+03,6.332135e+03
1.702838e+03,6.336583e+03
1.703802e+03,6.328002e+03
1.704766e+03,6.311852e+03
1.705731e+03,6.308047e+03
1.706695e+03,6.318850e+03
1.707659e+03,6.320367e+03
1.708623e+03,6.304747e+03
1.709588e+03,6.298280e+03
1.710552e+03,6.301721e+03
1.711516e+03,6.307328e+03
1.712480e+03,6.314619e+03
1.713444e+03,6.317369e+03
1.714409e+03,6.306361e+03
1.715373e+03,6.291389e+03
1.716337e+03,6.285382e+03
1.717301e+03,6.290468e+03
1.718266e+03,6.292656e+03
1.719230e+03,6.290546e+03
1.720194e+03,6.289354e+03
1.721158e+03,6.289944e+03
1.722123e+03,6.288177e+03
1.723087e+03,6.275317e+03
1.724051e+03,6.267071e+03
1.725015e+03,6.277515e+03
1.725979e+03,6.292831e+03
1.726944e+03,6.286820e+03
1.727908e+03,6.266324e+03
1.728872e+03,6.259241e+03
1.729836e+03,6.262612e+03
1.730801e+03,6.270753e+03
1.731765e+03,6.290195e+03
1.732729e+03,6.296212e+03
1.733693e+03,6.280373e+03
1.734658e+03,6.271134e+03
1.735622e+03,6.283147e+03
1.736586e+03,6.300890e+03
1.737550e+03,6.305081e+03
1.738515e+03,6.300159e+03
1.739479e+03,6.288817e+03
1.740443e+03,6.273070e+03
1.741407e+03,6.262279e+03
1.742371e+03,6.257013e+03
1.743336e+03,6.253989e+03
1.744300e+03,6.252411e+03
1.745264e+03,6.248463e+03
1.746228e+03,6.239708e+03
1.747193e+03,6.234909e+03
1.748157e+03,6.245365e+03
1.749121e+03,6.260350e+03
1.750085e+03,6.266071e+03
1.751050e+03,6.260145e+03
1.752014e+03,6.249646e+03
1.752978e+03,6.239622e+03
1.753942e+03,6.239028e+03
1.754906e+03,6.248328e+03
1.755871e+03,6.260459e+03
1.756835e+03,6.276335e+03
1.757799e+03,6.276638e+03
1.758763e+03,6.263069e+03
1.759728e+03,6.246774e+03
1.760692e+03,6.230844e+03
1.761656e+03,6.221702e+03
1.762620e+03,6.227568e+03
1.763585e+03,6.239306e+03
1.764549e+03,6.243969e+03
1.765513e+03,6.238983e+03
1.766477e+03,6.231130e+03
1.767442e+03,6.222666e+03
1.768406e+03,6.217220e+03
1.769370e+03,6.216413e+03
1.770334e+03,6.218139e+03
1.771298e+03,6.222140e+03
1.772263e+03,6.219482e+03
1.773227e+03,6.206799e+03
1.774191e+03,6.194596e+03
1.775155e+03,6.199915e+03
1.776120e+03,6.210452e+03
1.777084e+03,6.207967e+03
1.778048e+03,6.196824e+03
1.779012e+03,6.189406e+03
1.779977e+03,6.188175e+03
1.780941e+03,6.190777e+03
1.781905e+03,6.194495e+03
1.782869e+03,6.201548e+03
1.783833e+03,6.216037e+03
1.784798e+03,6.227132e+03
1.785762e+03,6.226048e+03
1.786726e+03,6.220073e+03
1.787690e+03,6.212842e+03
1.788655e+03,6.206193e+03
1.789619e+03,6.202698e+03
1.790583e+03,6.200102e+03
1.791547e+03,6.188112e+03
1.792512e+03,6.170631e+03
1.793476e+03,6.167988e+03
1.794440e+03,6.184197e+03
1.795404e+03,6.200649e+03
1.796369e+03,6.214969e+03
1.797333e+03,6.215562e+03
1.798297e+03,6.185215e+03
1.799261e+03,6.160815e+03
1.800225e+03,6.173119e+03
1.801190e+03,6.191731e+03
1.802154e+03,6.201320e+03
1.803118e+03,6.201026e+03
1.804082e+03,6.186464e+03
1.805047e+03,6.166545e+03
1.806011e+03,6.156889e+03
1.806975e+03,6.158358e+03
1.807939e+03,6.163632e+03
1.808904e+03,6.169891e+03
1.809868e+03,6.178504e+03
1.810832e+03,6.191853e+03
1.811796e+03,6.201995e+03
1.812760e+03,6.202127e+03
1.813725e+03,6.195544e+03
1.814689e+03,6.173455e+03
1.815653e+03,6.158354e+03
1.816617e+03,6.173085e+03
1.817582e+03,6.203586e+03
1.818546e+03,6.199255e+03
1.819510e+03,6.174501e+03
1.820474e+03,6.163571e+03
1.821439e+03,6.173054e+03
1.822403e+03,6.176207e+03
1.823367e+03,6.170736e+03
1.824331e+03,6.161836e+03
1.825296e+03,6.148195e+03
1.826260e+03,6.135511e+03
1.827224e+03,6.132128e+03
1.828188e+03,6.137445e+03
1.829152e+03,6.157728e+03
1.830117e+03,6.170775e+03
1.831081e+03,6.150341e+03
1.832045e+03,6.112159e+03
1.833009e+03,6.115312e+03
1.833974e+03,6.143491e+03
1.834938e+03,6.154420e+03
1.835902e+03,6.135245e+03
1.836866e+03,6.123390e+03
1.837831e+03,6.118831e+03
1.838795e+03,6.113617e+03
1.839759e+03,6.108460e+03
1.840723e+03,6.112761e+03
1.841688e+03,6.140647e+03
1.842652e+03,6.163782e+03
1.843616e+03,6.172948e+03
1.844580e+03,6.165719e+03
1.845544e+03,6.128918e+03
1.846509e+03,6.087388e+03
1.847473e+03,6.092323e+03
1.848437e+03,6.120917e+03
1.849401e+03,6.130821e+03
1.850366e+03,6.121002e+03
1.851330e+03,6.110360e+03
1.852294e+03,6.100863e+03
1.853258e+03,6.091186e+03
1.854223e+03,6.079775e+03
1.855187e+03,6.079079e+03
1.856151e+03,6.105909e+03
1.857115e+03,6.119193e+03
1.858079e+03,6.107827e+03
1.859044e+03,6.087694e+03
1.860008e+03,6.072783e+03
1.860972e+03,6.065861e+03
1.861936e+03,6.074775e+03
1.862901e+03,6.089234e+03
1.863865e+03,6.091379e+03
1.864829e+03,6.078971e+03
1.865793e+03,6.065247e+03
1.866758e+03,6.052841e+03
1.867722e+03,6.042405e+03
1.868686e+03,6.031428e+03
1.869650e+03,6.034522e+03
1.870615e+03,6.054495e+03
1.871579e+03,6.060239e+03
1.872543e+03,6.044646e+03
1.873507e+03,6.036851e+03
1.874471e+03,6.070045e+03
1.875436e+03,6.091801e+03
1.876400e+03,6.077262e+03
1.877364e+03,6.050741e+03
1.878328e+03,6.035259e+03
1.879293e+03,6.028958e+03
1.880257e+03,6.029185e+03
1.881221e+03,6.032775e+03
1.882185e+03,6.039733e+03
1.883150e+03,6.051729e+03
1.884114e+03,6.048176e+03
1.885078e+03,6.030009e+03
1.886042e+03,6.014414e+03
1.887006e+03,6.005111e+03
1.887971e+03,6.005882e+03
1.888935e+03,6.028635e+03
1.889899e+03,6.045028e+03
1.890863e+03,6.044588e+03
1.891828e+03,6.037116e+03
1.892792e+03,6.038768e+03
1.893756e+03,6.036773e+03
1.894720e+03,6.019885e+03
1.895685e+03,6.004850e+03
1.896649e+03,6.005188e+03
1.897613e+03,6.013594e+03
1.898577e+03,6.012585e+03
1.899542e+03,6.007922e+03
1.900506e+03,6.013228e+03
1.901470e+03,6.031396e+03
1.902434e+03,6.025446e+03
1.903398e+03,5.997433e+03
1.904363e+03,5.988114e+03
1.905327e+03,6.010502e+03
1.906291e+03,6.026514e+03
1.907255e+03,6.002062e+03
1.908220e+03,5.986609e+03
1.909184e+03,5.990688e+03
1.910148e+03,5.999198e+03
1.911112e+03,6.005080e+03
1.912077e+03,6.006095e+03
1.913041e+03,5.997319e+03
1.914005e+03,5.983594e+03
1.914969e+03,5.967237e+03
1.915933e+03,5.950788e+03
1.916898e+03,5.942352e+03
1.917862e+03,5.941810e+03
1.918826e+03,5.947373e+03
1.919790e+03,5.960624e+03
1.920755e+03,5.975804e+03
1.921719e+03,5.988948e+03
1.922683e+03,5.983365e+03
1.923647e+03,5.957245e+03
1.924612e+03,5.941204e+03
1.925576e+03,5.956841e+03
1.926540e+03,5.972895e+03
1.927504e+03,5.982667e+03
1.928469e+03,5.984692e+03
1.929433e+03,5.971643e+03
1.930397e+03,5.955776e+03
1.931361e+03,5.943124e+03
1.932325e+03,5.936397e+03
1.933290e+03,5.943988e+03
1.934254e+03,5.961654e+03
1.935218e+03,5.969389e+03
1.936182e+03,5.965884e+03
1.937147e+03,5.953153e+03
1.938111e+03,5.936283e+03
1.939075e+03,5.937072e+03
1.940039e+03,5.954521e+03
1.941004e+03,5.965542e+03
1.941968e+03,5.962570e+03
1.942932e+03,5.943486e+03
1.943896e+03,5.895977e+03
1.944860e+03,5.878788e+03
1.945825e+03,5.901444e+03
1.946789e+03,5.927416e+03
1.947753e+03,5.929594e+03
1.948717e+03,5.924560e+03
1.949682e+03,5.913675e+03
1.950646e+03,5.905731e+03
1.951610e+03,5.907436e+03
1.952574e+03,5.913431e+03
1.953539e+03,5.919549e+03
1.954503e+03,5.921550e+03
1.955467e+03,5.914432e+03
1.956431e+03,5.904124e+03
1.957396e+03,5.902484e+03
1.958360e+03,5.905510e+03
1.959324e+03,5.909565e+03
1.960288e+03,5.915007e+03
1.961252e+03,5.912568e+03
1.962217e+03,5.898299e+03
1.963181e+03,5.877461e+03
1.964145e+03,5.852106e+03
1.965109e+03,5.843057e+03
1.966074e+03,5.879610e+03
1.967038e+03,5.901973e+03
1.968002e+03,5.897988e+03
1.968966e+03,5.887050e+03
1.969931e+03,5.876932e+03
1.970895e+03,5.868396e+03
1.971859e+03,5.870700e+03
1.972823e+03,5.876965e+03
1.973787e+03,5.883216e+03
1.974752e+03,5.883714e+03
1.975716e+03,5.865989e+03
1.976680e+03,5.844033e+03
1.977644e+03,5.837055e+03
1.978609e+03,5.843454e+03
1.979573e+03,5.861041e+03
1.980537e+03,5.881017e+03
1.981501e+03,5.871220e+03
1.982466e+03,5.844031e+03
1.983430e+03,5.836289e+03
1.984394e+03,5.852063e+03
1.985358e+03,5.856705e+03
1.986323e+03,5.851792e+03
1.987287e+03,5.853534e+03
1.988251e+03,5.868706e+03
1.989215e+03,5.872505e+03
1.990179e+03,5.862266e+03
1.991144e+03,5.851549e+03
1.992108e+03,5.845756e+03
1.993072e+03,5.839897e+03
1.994036e+03,5.820640e+03
1.995001e+03,5.810454e+03
1.995965e+03,5.815739e+03
1.996929e+03,5.829846e+03
1.997893e+03,5.850748e+03
1.998858e+03,5.864962e+03
1.999822e+03,5.859139e+03
2.000786e+03,5.840945e+03
2.001750e+03,5.815795e+03
2.002714e+03,5.795479e+03
2.003679e+03,5.800834e+03
2.004643e+03,5.817887e+03
2.005607e+03,5.832284e+03
2.006571e+03,5.843168e+03
2.007536e+03,5.841062e+03
2.008500e+03,5.829872e+03
2.009464e+03,5.819274e+03
2.010428e+03,5.811779e+03
2.011393e+03,5.802380e+03
2.012357e+03,5.790282e+03
2.013321e+03,5.774467e+03
2.014285e+03,5.753079e+03
2.015250e+03,5.746757e+03
2.016214e+03,5.790136e+03
2.017178e+03,5.800939e+03
2.018142e+03,5.774403e+03
2.019106e+03,5.749421e+03
2.020071e+03,5.742647e+03
2.021035e+03,5.747392e+03
2.021999e+03,5.770256e+03
2.022963e+03,5.781835e+03
2.023928e+03,5.771415e+03
2.024892e+03,5.753862e+03
2.025856e+03,5.738988e+03
2.026820e+03,5.730322e+03
2.027785e+03,5.729542e+03
2.028749e+03,5.732235e+03
2.029713e+03,5.735591e+03
2.030677e+03,5.741112e+03
2.031641e+03,5.752322e+03
2.032606e+03,5.762690e+03
2.033570e+03,5.761175e+03
2.034534e+03,5.749741e+03
2.035498e+03,5.738541e+03
2.036463e+03,5.730251e+03
2.037427e+03,5.733069e+03
2.038391e+03,5.749052e+03
2.039355e+03,5.737480e+03
2.040320e+03,5.707469e+03
2.041284e+03,5.695308e+03
2.042248e+03,5.707615e+03
2.043212e+03,5.711845e+03
2.044177e+03,5.706928e+03
2.045141e+03,5.706694e+03
2.046105e+03,5.711966e+03
2.047069e+03,5.720683e+03
2.048033e+03,5.736811e+03
2.048998e+03,5.737025e+03
2.049962e+03,5.720343e+03
2.050926e+03,5.704117e+03
2.051890e+03,5.700182e+03
2.052854e+03,5.698086e+03
2.053819e+03,5.692766e+03
2.054783e+03,5.682985e+03
2.055747e+03,5.668881e+03
2.056711e+03,5.662703e+03
2.057676e+03,5.682558e+03
2.058640e+03,5.705194e+03
2.059604e+03,5.715731e+03
2.060568e+03,5.713634e+03
2.061533e+03,5.692833e+03
2.062497e+03,5.671127e+03
2.063461e+03,5.670581e+03
2.064425e+03,5.676232e+03
2.065390e+03,5.663492e+03
2.066354e+03,5.643614e+03
2.067318e+03,5.642700e+03
2.068282e+03,5.653019e+03
2.069247e+03,5.652384e+03
2.070211e+03,5.641793e+03
2.071175e+03,5.640237e+03
2.072139e+03,5.644402e+03
2.073104e+03,5.644183e+03
2.074068e+03,5.639218e+03
2.075032e+03,5.635253e+03
2.075996e+03,5.631097e+03
2.076960e+03,5.631722e+03
2.077925e+03,5.637615e+03
2.078889e+03,5.648097e+03
2.079853e+03,5.663598e+03
2.080817e+03,5.663147e+03
2.081782e+03,5.644788e+03
2.082746e+03,5.624928e+03
2.083710e+03,5.609657e+03
2.084674e+03,5.606244e+03
2.085639e+03,5.618192e+03
2.086603e+03,5.632448e+03
2.087567e+03,5.638424e+03
2.088531e+03,5.626217e+03
2.089496e+03,5.587701e+03
2.090460e+03,5.560718e+03
2.091424e+03,5.575625e+03
2.092388e+03,5.598749e+03
2.093353e+03,5.610453e+03
2.094317e+03,5.616462e+03
2.095281e+03,5.611015e+03
2.096245e+03,5.602884e+03
2.097209e+03,5.605393e+03
2.098174e+03,5.603405e+03
2.099138e+03,5.591712e+03
2.100102e+03,5.579104e+03
2.101066e+03,5.573177e+03
2.102031e+03,5.571276e+03
2.102995e+03,5.576464e+03
2.103959e+03,5.578897e+03
2.104923e+03,5.565899e+03
2.105887e+03,5.553739e+03
2.106852e+03,5.561528e+03
2.107816e+03,5.574242e+03
2.108780e+03,5.583221e+03
2.109744e+03,5.585044e+03
2.110708e+03,5.572617e+03
2.111673e+03,5.555440e+03
2.112637e+03,5.536825e+03
2.113601e+03,5.517773e+03
2.114565e+03,5.511190e+03
2.115530e+03,5.511471e+03
2.116494e+03,5.504705e+03
2.117458e+03,5.499430e+03
2.118422e+03,5.501329e+03
2.119387e+03,5.506345e+03
2.120351e+03,5.523299e+03
2.121315e+03,5.545548e+03
2.122279e+03,5.567516e+03
2.123244e+03,5.588613e+03
2.124208e+03,5.561408e+03
2.125172e+03,5.505063e+03
2.126136e+03,5.481855e+03
2.127101e+03,5.510610e+03
2.128065e+03,5.514050e+03
2.129029e+03,5.495167e+03
2.129993e+03,5.488143e+03
2.130958e+03,5.494175e+03
2.131922e+03,5.492785e+03
2.132886e+03,5.483166e+03
2.133850e+03,5.484142e+03
2.134814e+03,5.502159e+03
2.135779e+03,5.519771e+03
2.136743e+03,5.531678e+03
2.137707e+03,5.522302e+03
2.138671e+03,5.494229e+03
2.139636e+03,5.473159e+03
2.140600e+03,5.477837e+03
2.141564e+03,5.473563e+03
2.142528e+03,5.458045e+03
2.143493e+03,5.456394e+03
2.144457e+03,5.483375e+03
2.145421e+03,5.488709e+03
2.146385e+03,5.453740e+03
2.147350e+03,5.435123e+03
2.148314e+03,5.453182e+03
2.149278e+03,5.474511e+03
2.150242e+03,5.464428e+03
2.151207e+03,5.464082e+03
2.152171e+03,5.480685e+03
2.153135e+03,5.486013e+03
2.154099e+03,5.451325e+03
2.155063e+03,5.429830e+03
2.156028e+03,5.436095e+03
2.156992e+03,5.451313e+03
2.157956e+03,5.463140e+03
2.158920e+03,5.461801e+03
2.159885e+03,5.435962e+03
2.160849e+03,5.414478e+03
2.161813e+03,5.411187e+03
2.162777e+03,5.415575e+03
2.163741e+03,5.429776e+03
2.164706e+03,5.434863e+03
2.165670e+03,5.426909e+03
2.166634e+03,5.421229e+03
2.167598e+03,5.434401e+03
2.168563e+03,5.443827e+03
2.169527e+03,5.435381e+03
2.170491e+03,5.415833e+03
2.171455e+03,5.389803e+03
2.172420e+03,5.373517e+03
2.173384e+03,5.383067e+03
2.174348e+03,5.397982e+03
2.175312e+03,5.401401e+03
2.176277e+03,5.397275e+03
2.177241e+03,5.388581e+03
2.178205e+03,5.377775e+03
2.179169e+03,5.368194e+03
2.180134e+03,5.364408e+03
2.181098e+03,5.372258e+03
2.182062e+03,5.379563e+03
2.183026e+03,5.370839e+03
2.183990e+03,5.361524e+03
2.184955e+03,5.383972e+03
2.185919e+03,5.407945e+03
2.186883e+03,5.404856e+03
2.187847e+03,5.390197e+03
2.188812e+03,5.383682e+03
2.189776e+03,5.382187e+03
2.190740e+03,5.381872e+03
2.191704e+03,5.378937e+03
2.192668e+03,5.372243e+03
2.193633e+03,5.364764e+03
2.194597e+03,5.359219e+03
2.195561e+03,5.355953e+03
2.196525e+03,5.353074e+03
2.197490e+03,5.348840e+03
2.198454e+03,5.338050e+03
2.199418e+03,5.327634e+03
2.200382e+03,5.324376e+03
2.201347e+03,5.330169e+03
2.202311e+03,5.348967e+03
2.203275e+03,5.367045e+03
2.204239e+03,5.365783e+03
2.205204e+03,5.350651e+03
2.206168e+03,5.334044e+03
2.207132e+03,5.318458e+03
2.208096e+03,5.299975e+03
2.209061e+03,5.280797e+03
2.210025e+03,5.267449e+03
2.210989e+03,5.259596e+03
2.211953e+03,5.258861e+03
2.212917e+03,5.273109e+03
2.213882e+03,5.297244e+03
2.214846e+03,5.320241e+03
2.215810e+03,5.329023e+03
2.216774e+03,5.326382e+03
2.217739e+03,5.327482e+03
2.218703e+03,5.329121e+03
2.219667e+03,5.318592e+03
2.220631e+03,5.307600e+03
2.221595e+03,5.308583e+03
2.222560e+03,5.307904e+03
2.223524e+03,5.279964e+03
2.224488e+03,5.247224e+03
2.225452e+03,5.240233e+03
2.226417e+03,5.244237e+03
2.227381e+03,5.242259e+03
2.228345e+03,5.245330e+03
2.229309e+03,5.272710e+03
2.230274e+03,5.295533e+03
2.231238e+03,5.287622e+03
2.232202e+03,5.266408e+03
2.233166e+03,5.262663e+03
2.234131e+03,5.264038e+03
2.235095e+03,5.258752e+03
2.236059e+03,5.250180e+03
2.237023e+03,5.239954e+03
2.237988e+03,5.229305e+03
2.238952e+03,5.217771e+03
2.239916e+03,5.203182e+03
2.240880e+03,5.179949e+03
2.241844e+03,5.168361e+03
2.242809e+03,5.188364e+03
2.243773e+03,5.212097e+03
2.244737e+03,5.205275e+03
2.245701e+03,5.191276e+03
2.246666e+03,5.186342e+03
2.247630e+03,5.186346e+03
2.248594e+03,5.198479e+03
2.249558e+03,5.214059e+03
2.250522e+03,5.220826e+03
2.251487e+03,5.226166e+03
2.252451e+03,5.228235e+03
2.253415e+03,5.222594e+03
2.254379e+03,5.208181e+03
2.255344e+03,5.198275e+03
2.256308e+03,5.201734e+03
2.257272e+03,5.201758e+03
2.258236e+03,5.169724e+03
2.259201e+03,5.149066e+03
2.260165e+03,5.152290e+03
2.261129e+03,5.161797e+03
2.262093e+03,5.161731e+03
2.263058e+03,5.163576e+03
2.264022e+03,5.175427e+03
2.264986e+03,5.189802e+03
2.265950e+03,5.198215e+03
2.266915e+03,5.204246e+03
2.267879e+03,5.208257e+03
2.268843e+03,5.193913e+03
2.269807e+03,5.152779e+03
2.270771e+03,5.124622e+03
2.271736e+03,5.128000e+03
2.272700e+03,5.137626e+03
2.273664e+03,5.141642e+03
2.274628e+03,5.147036e+03
2.275593e+03,5.157322e+03
2.276557e+03,5.164317e+03
2.277521e+03,5.171082e+03
2.278485e+03,5.170981e+03
2.279449e+03,5.153945e+03
2.280414e+03,5.145405e+03
2.281378e+03,5.145862e+03
2.282342e+03,5.145454e+03
2.283306e+03,5.133025e+03
2.284271e+03,5.121958e+03
2.285235e+03,5.111136e+03
2.286199e+03,5.101188e+03
2.287163e+03,5.099790e+03
2.288128e+03,5.103141e+03
2.289092e+03,5.106375e+03
2.290056e+03,5.109527e+03
2.291020e+03,5.114092e+03
2.291985e+03,5.111292e+03
2.292949e+03,5.106460e+03
2.293913e+03,5.113165e+03
2.294877e+03,5.129006e+03
2.295842e+03,5.134527e+03
2.296806e+03,5.128246e+03
2.297770e+03,5.131936e+03
2.298734e+03,5.140914e+03
2.299698e+03,5.134263e+03
2.300663e+03,5.115552e+03
2.301627e+03,5.099489e+03
2.302591e+03,5.086152e+03
2.303555e+03,5.080524e+03
2.304520e+03,5.080813e+03
2.305484e+03,5.075404e+03
2.306448e+03,5.068741e+03
2.307412e+03,5.064171e+03
2.308376e+03,5.060690e+03
2.309341e+03,5.062795e+03
2.310305e+03,5.065771e+03
2.311269e+03,5.065167e+03
2.312233e+03,5.067759e+03
2.313198e+03,5.084905e+03
2.314162e+03,5.098748e+03
2.315126e+03,5.087549e+03
2.316090e+03,5.069029e+03
2.317055e+03,5.064631e+03
2.318019e+03,5.063940e+03
2.318983e+03,5.051000e+03
2.319947e+03,5.039808e+03
2.320912e+03,5.050460e+03
2.321876e+03,5.061978e+03
2.322840e+03,5.051022e+03
2.323804e+03,5.043438e+03
2.324769e+03,5.054702e+03
2.325733e+03,5.068881e+03
2.326697e+03,5.072573e+03
2.327661e+03,5.071758e+03
2.328625e+03,5.063478e+03
2.329590e+03,5.049073e+03
2.330554e+03,5.033578e+03
2.331518e+03,5.016447e+03
2.332482e+03,4.996438e+03
2.333447e+03,4.987317e+03
2.334411e+03,5.005135e+03
2.335375e+03,5.002138e+03
2.336339e+03,4.977251e+03
2.337303e+03,4.966875e+03
2.338268e+03,4.991744e+03
2.339232e+03,4.997272e+03
2.340196e+03,4.988142e+03
2.341160e+03,4.986586e+03
2.342125e+03,4.997986e+03
2.343089e+03,5.022868e+03
2.344053e+03,5.048429e+03
2.345017e+03,5.049611e+03
2.345982e+03,5.027544e+03
2.346946e+03,5.005757e+03
2.347910e+03,4.990463e+03
2.348874e+03,4.987254e+03
2.349839e+03,4.990918e+03
2.350803e+03,5.005303e+03
2.351767e+03,5.020837e+03
2.352731e+03,5.007224e+03
2.353696e+03,4.985516e+03
2.354660e+03,4.983589e+03
2.355624e+03,4.988932e+03
2.356588e+03,4.991251e+03
2.357552e+03,4.991685e+03
2.358517e+03,4.990708e+03
2.359481e+03,4.988294e+03
2.360445e+03,4.980359e+03
2.361409e+03,4.969980e+03
2.362374e+03,4.958620e+03
2.363338e+03,4.947263e+03
2.364302e+03,4.949253e+03
2.365266e+03,4.947246e+03
2.366230e+03,4.929676e+03
2.367195e+03,4.919958e+03
2.368159e+03,4.943033e+03
2.369123e+03,4.946722e+03
2.370087e+03,4.927596e+03
2.371052e+03,4.916771e+03
2.372016e+03,4.934638e+03
2.372980e+03,4.943537e+03
2.373944e+03,4.940877e+03
2.374909e+03,4.944991e+03
2.375873e+03,4.968283e+03
2.376837e+03,4.965761e+03
2.377801e+03,4.943724e+03
2.378766e+03,4.923461e+03
2.379730e+03,4.908793e+03
2.380694e+03,4.905812e+03
2.381658e+03,4.911920e+03
2.382623e+03,4.908708e+03
2.383587e+03,4.899381e+03
2.384551e+03,4.898468e+03
2.385515e+03,4.902867e+03
2.386479e+03,4.922040e+03
2.387444e+03,4.939644e+03
2.388408e+03,4.926167e+03
2.389372e+03,4.904576e+03
2.390336e+03,4.891990e+03
2.391301e+03,4.886695e+03
2.392265e+03,4.890364e+03
2.393229e+03,4.893354e+03
2.394193e+03,4.892661e+03
2.395157e+03,4.885976e+03
2.396122e+03,4.870497e+03
2.397086e+03,4.853590e+03
2.398050e+03,4.838208e+03
2.399014e+03,4.830257e+03
2.399979e+03,4.830452e+03
2.400943e+03,4.845063e+03
2.401907e+03,4.873217e+03
2.402871e+03,4.882343e+03
2.403836e+03,4.866766e+03
2.404800e+03,4.873731e+03
2.405764e+03,4.902620e+03
2.406728e+03,4.907593e+03
2.407693e+03,4.884438e+03
2.408657e+03,4.862155e+03
2.409621e+03,4.845531e+03
2.410585e+03,4.833644e+03
2.411550e+03,4.830406e+03
2.412514e+03,4.844161e+03
2.413478e+03,4.863580e+03
2.414442e+03,4.857658e+03
2.415406e+03,4.842763e+03
2.416371e+03,4.834765e+03
2.417335e+03,4.833211e+03
2.418299e+03,4.841538e+03
2.419263e+03,4.847479e+03
2.420228e+03,4.842237e+03
2.421192e+03,4.836366e+03
2.422156e+03,4.843929e+03
2.423120e+03,4.851619e+03
2.424084e+03,4.852349e+03
2.425049e+03,4.847995e+03
2.426013e+03,4.848163e+03
2.426977e+03,4.831556e+03
2.427941e+03,4.801115e+03
2.428906e+03,4.792417e+03
2.429870e+03,4.815915e+03
2.430834e+03,4.817860e+03
2.431798e+03,4.802658e+03
2.432763e+03,4.791799e+03
2.433727e+03,4.786093e+03
2.434691e+03,4.797656e+03
2.435655e+03,4.816734e+03
2.436620e+03,4.828046e+03
2.437584e+03,4.827583e+03
2.438548e+03,4.788699e+03
2.439512e+03,4.754592e+03
2.440477e+03,4.768851e+03
2.441441e+03,4.796227e+03
2.442405e+03,4.804190e+03
2.443369e+03,4.795009e+03
2.444333e+03,4.770542e+03
2.445298e+03,4.752011e+03
2.446262e+03,4.767341e+03
2.447226e+03,4.765557e+03
2.448190e+03,4.739554e+03
2.449155e+03,4.727320e+03
2.450119e+03,4.769015e+03
2.451083e+03,4.795317e+03
2.452047e+03,4.803290e+03
2.453011e+03,4.782747e+03
2.453976e+03,4.731216e+03
2.454940e+03,4.716512e+03
2.455904e+03,4.731234e+03
2.456868e+03,4.746205e+03
2.457833e+03,4.753687e+03
2.458797e+03,4.741998e+03
2.459761e+03,4.728297e+03
2.460725e+03,4.733956e+03
2.461690e+03,4.747458e+03
2.462654e+03,4.759325e+03
2.463618e+03,4.761419e+03
2.464582e+03,4.750219e+03
2.465547e+03,4.741991e+03
2.466511e+03,4.749359e+03
2.467475e+03,4.747822e+03
2.468439e+03,4.731409e+03
2.469404e+03,4.714775e+03
2.470368e+03,4.713488e+03
2.471332e+03,4.712951e+03
2.472296e+03,4.709712e+03
2.473260e+03,4.705837e+03
2.474225e+03,4.702548e+03
2.475189e+03,4.704732e+03
2.476153e+03,4.713259e+03
2.477117e+03,4.719302e+03
2.478082e+03,4.721379e+03
2.479046e+03,4.719958e+03
2.480010e+03,4.719529e+03
2.480974e+03,4.731746e+03
2.481938e+03,4.745532e+03
2.482903e+03,4.748967e+03
2.483867e+03,4.741133e+03
2.484831e+03,4.718884e+03
2.485795e+03,4.699032e+03
2.486760e+03,4.705868e+03
2.487724e+03,4.705119e+03
2.488688e+03,4.692727e+03
2.489652e+03,4.680916e+03
2.490617e+03,4.665923e+03
2.491581e+03,4.674365e+03
2.492545e+03,4.702786e+03
2.493509e+03,4.712933e+03
2.494474e+03,4.698592e+03
2.495438e+03,4.707493e+03
2.496402e+03,4.724907e+03
2.497366e+03,4.715718e+03
2.498331e+03,4.693273e+03
2.499295e+03,4.681152e+03
2.500259e+03,4.672038e+03
2.501223e+03,4.663766e+03
2.502188e+03,4.661461e+03
2.503152e+03,4.679046e+03
2.504116e+03,4.684870e+03
2.505080e+03,4.669131e+03
2.506044e+03,4.658056e+03
2.507009e+03,4.671361e+03
2.507973e+03,4.677279e+03
2.508937e+03,4.677039e+03
2.509901e+03,4.672383e+03
2.510865e+03,4.661452e+03
2.511830e+03,4.670138e+03
2.512794e+03,4.684658e+03
2.513758e+03,4.671210e+03
2.514722e+03,4.645542e+03
2.515687e+03,4.641485e+03
2.516651e+03,4.651241e+03
2.517615e+03,4.670074e+03
2.518579e+03,4.681402e+03
2.519544e+03,4.651859e+03
2.520508e+03,4.630219e+03
2.521472e+03,4.636889e+03
2.522436e+03,4.643201e+03
2.523401e+03,4.624597e+03
2.524365e+03,4.614508e+03
2.525329e+03,4.611104e+03
2.526293e+03,4.612495e+03
2.527258e+03,4.621472e+03
2.528222e+03,4.642223e+03
2.529186e+03,4.664973e+03
2.530150e+03,4.657859e+03
2.531115e+03,4.633940e+03
2.532079e+03,4.625417e+03
2.533043e+03,4.625771e+03
2.534007e+03,4.626364e+03
2.534971e+03,4.620221e+03
2.535936e+03,4.598479e+03
2.536900e+03,4.582626e+03
2.537864e+03,4.578747e+03
2.538828e+03,4.589599e+03
2.539792e+03,4.618321e+03
2.540757e+03,4.614344e+03
2.541721e+03,4.573828e+03
2.542685e+03,4.570993e+03
2.543649e+03,4.609766e+03
2.544614e+03,4.622886e+03
2.545578e+03,4.614555e+03
2.546542e+03,4.627179e+03
2.547506e+03,4.644175e+03
2.548471e+03,4.606498e+03
2.549435e+03,4.558390e+03
2.550399e+03,4.533167e+03
2.551363e+03,4.534155e+03
2.552328e+03,4.583116e+03
2.553292e+03,4.619307e+03
2.554256e+03,4.620793e+03
2.555220e+03,4.613306e+03
2.556185e+03,4.602794e+03
2.557149e+03,4.588916e+03
2.558113e+03,4.573623e+03
2.559077e+03,4.591446e+03
2.560042e+03,4.625501e+03
2.561006e+03,4.621531e+03
2.561970e+03,4.597933e+03
2.562934e+03,4.578220e+03
2.563898e+03,4.563112e+03
2.564863e+03,4.551451e+03
2.565827e+03,4.541386e+03
2.566791e+03,4.541291e+03
2.567755e+03,4.546615e+03
2.568719e+03,4.549174e+03
2.569684e+03,4.556468e+03
2.570648e+03,4.579653e+03
2.571612e+03,4.572236e+03
2.572576e+03,4.546521e+03
2.573541e+03,4.556863e+03
2.574505e+03,4.592388e+03
2.575469e+03,4.588375e+03
2.576433e+03,4.560905e+03
2.577398e+03,4.532925e+03
2.578362e+03,4.518084e+03
2.579326e+03,4.552773e+03
2.580290e+03,4.578385e+03
2.581255e+03,4.568100e+03
2.582219e+03,4.545268e+03
2.583183e+03,4.521041e+03
2.584147e+03,4.499438e+03
2.585112e+03,4.487480e+03
2.586076e+03,4.491913e+03
2.587040e+03,4.511959e+03
2.588004e+03,4.533221e+03
2.588969e+03,4.547670e+03
2.589933e+03,4.548353e+03
2.590897e+03,4.539142e+03
2.591861e+03,4.518966e+03
2.592825e+03,4.500427e+03
2.593790e+03,4.488236e+03
2.594754e+03,4.482949e+03
2.595718e+03,4.490356e+03
2.596682e+03,4.485234e+03
2.597646e+03,4.459038e+03
2.598611e+03,4.460117e+03
2.599575e+03,4.492487e+03
2.600539e+03,4.500687e+03
2.601503e+03,4.486103e+03
2.602468e+03,4.492162e+03
2.603432e+03,4.502810e+03
2.604396e+03,4.485183e+03
2.605360e+03,4.466709e+03
2.606325e+03,4.470080e+03
2.607289e+03,4.474040e+03
2.608253e+03,4.469801e+03
2.609217e+03,4.468341e+03
2.610182e+03,4.468718e+03
2.611146e+03,4.469266e+03
2.612110e+03,4.471015e+03
2.613074e+03,4.470464e+03
2.614039e+03,4.470729e+03
2.615003e+03,4.482819e+03
2.615967e+03,4.492391e+03
2.616931e+03,4.487415e+03
2.617896e+03,4.477795e+03
2.618860e+03,4.467028e+03
2.619824e+03,4.468199e+03
2.620788e+03,4.484784e+03
2.621752e+03,4.496310e+03
2.622717e+03,4.495050e+03
2.623681e+03,4.481102e+03
2.624645e+03,4.456854e+03
2.625609e+03,4.455970e+03
2.626573e+03,4.474255e+03
2.627538e+03,4.471631e+03
2.628502e+03,4.458515e+03
2.629466e+03,4.443336e+03
2.630430e+03,4.432633e+03
2.631395e+03,4.439739e+03
2.632359e+03,4.444578e+03
2.633323e+03,4.438966e+03
2.634287e+03,4.442711e+03
2.635252e+03,4.461570e+03
2.636216e+03,4.471757e+03
2.637180e+03,4.465146e+03
2.638144e+03,4.451088e+03
2.639109e+03,4.433549e+03
2.640073e+03,4.433819e+03
2.641037e+03,4.444261e+03
2.642001e+03,4.447130e+03
2.642966e+03,4.439505e+03
2.643930e+03,4.417929e+03
2.644894e+03,4.402839e+03
2.645858e+03,4.416355e+03
2.646823e+03,4.418579e+03
2.647787e+03,4.407220e+03
2.648751e+03,4.420841e+03
2.649715e+03,4.457999e+03
2.650679e+03,4.463813e+03
2.651644e+03,4.443547e+03
2.652608e+03,4.398509e+03
2.653572e+03,4.360941e+03
2.654536e+03,4.397636e+03
2.655500e+03,4.432665e+03
2.656465e+03,4.438666e+03
2.657429e+03,4.431400e+03
2.658393e+03,4.413008e+03
2.659357e+03,4.397077e+03
2.660322e+03,4.391755e+03
2.661286e+03,4.392838e+03
2.662250e+03,4.398873e+03
2.663214e+03,4.414015e+03
2.664179e+03,4.425746e+03
2.665143e+03,4.417752e+03
2.666107e+03,4.407221e+03
2.667071e+03,4.403417e+03
2.668036e+03,4.403463e+03
2.669000e+03,4.403658e+03
2.669964e+03,4.392364e+03
2.670928e+03,4.371994e+03
2.671893e+03,4.364447e+03
2.672857e+03,4.372050e+03
2.673821e+03,4.392689e+03
2.674785e+03,4.408180e+03
2.675750e+03,4.403211e+03
2.676714e+03,4.391064e+03
2.677678e+03,4.381686e+03
2.678642e+03,4.364375e+03
2.679606e+03,4.336165e+03
2.680571e+03,4.339890e+03
2.681535e+03,4.377553e+03
2.682499e+03,4.407737e+03
2.683463e+03,4.419629e+03
2.684427e+03,4.405497e+03
2.685392e+03,4.381600e+03
2.686356e+03,4.368745e+03
2.687320e+03,4.361403e+03
2.688284e+03,4.357594e+03
2.689249e+03,4.367917e+03
2.690213e+03,4.391224e+03
2.691177e+03,4.392359e+03
2.692141e+03,4.361588e+03
2.693106e+03,4.350357e+03
2.694070e+03,4.349727e+03
2.695034e+03,4.329687e+03
2.695998e+03,4.308936e+03
2.696963e+03,4.335030e+03
2.697927e+03,4.357268e+03
2.698891e+03,4.345481e+03
2.699855e+03,4.328334e+03
2.700820e+03,4.319983e+03
2.701784e+03,4.340932e+03
2.702748e+03,4.380125e+03
2.703712e+03,4.359468e+03
2.704677e+03,4.302216e+03
2.705641e+03,4.298638e+03
2.706605e+03,4.315916e+03
2.707569e+03,4.305933e+03
2.708533e+03,4.294310e+03
2.709498e+03,4.291806e+03
2.710462e+03,4.284359e+03
2.711426e+03,4.266374e+03
2.712390e+03,4.266940e+03
2.713354e+03,4.283455e+03
2.714319e+03,4.314610e+03
2.715283e+03,4.346266e+03
2.716247e+03,4.346165e+03
2.717211e+03,4.337162e+03
2.718176e+03,4.338807e+03
2.719140e+03,4.333057e+03
2.720104e+03,4.297696e+03
2.721068e+03,4.287922e+03
2.722033e+03,4.309161e+03
2.722997e+03,4.323768e+03
2.723961e+03,4.325908e+03
2.724925e+03,4.301918e+03
2.725890e+03,4.279184e+03
2.726854e+03,4.302510e+03
2.727818e+03,4.325708e+03
2.728782e+03,4.317133e+03
2.729747e+03,4.304845e+03
2.730711e+03,4.302724e+03
2.731675e+03,4.304577e+03
2.732639e+03,4.310901e+03
2.733604e+03,4.321122e+03
2.734568e+03,4.328726e+03
2.735532e+03,4.314802e+03
2.736496e+03,4.290292e+03
2.737460e+03,4.262369e+03
2.738425e+03,4.257622e+03
2.739389e+03,4.300816e+03
2.740353e+03,4.307725e+03
2.741317e+03,4.270990e+03
2.742281e+03,4.264824e+03
2.743246e+03,4.283795e+03
2.744210e+03,4.292549e+03
2.745174e+03,4.288295e+03
2.746138e+03,4.272107e+03
2.747103e+03,4.262263e+03
2.748067e+03,4.268076e+03
2.749031e+03,4.274354e+03
2.749995e+03,4.267083e+03
2.750960e+03,4.285731e+03
2.751924e+03,4.312757e+03
2.752888e+03,4.284123e+03
2.753852e+03,4.228202e+03
2.754817e+03,4.201350e+03
2.755781e+03,4.204051e+03
2.756745e+03,4.244067e+03
2.757709e+03,4.260649e+03
2.758674e+03,4.231444e+03
2.759638e+03,4.218785e+03
2.760602e+03,4.232961e+03
2.761566e+03,4.232494e+03
2.762531e+03,4.230026e+03
2.763495e+03,4.242910e+03
2.764459e+03,4.250951e+03
2.765423e+03,4.229833e+03
2.766387e+03,4.212593e+03
2.767352e+03,4.208862e+03
2.768316e+03,4.218815e+03
2.769280e+03,4.239948e+03
2.770244e+03,4.241469e+03
2.771208e+03,4.234731e+03
2.772173e+03,4.241415e+03
2.773137e+03,4.243922e+03
2.774101e+03,4.223722e+03
2.775065e+03,4.217415e+03
2.776030e+03,4.243180e+03
2.776994e+03,4.244252e+03
2.777958e+03,4.219905e+03
2.778922e+03,4.218979e+03
2.779887e+03,4.232736e+03
2.780851e+03,4.219985e+03
2.781815e+03,4.198932e+03
2.782779e+03,4.186811e+03
2.783744e+03,4.184286e+03
2.784708e+03,4.189207e+03
2.785672e+03,4.194794e+03
2.786636e+03,4.199330e+03
2.787601e+03,4.202699e+03
2.788565e+03,4.206760e+03
2.789529e+03,4.207094e+03
2.790493e+03,4.207462e+03
2.791458e+03,4.211125e+03
2.792422e+03,4.201049e+03
2.793386e+03,4.179606e+03
2.794350e+03,4.180375e+03
2.795314e+03,4.208430e+03
2.796279e+03,4.218244e+03
2.797243e+03,4.212271e+03
2.798207e+03,4.202803e+03
2.799171e+03,4.198615e+03
2.800135e+03,4.213748e+03
2.801100e+03,4.212802e+03
2.802064e+03,4.188917e+03
2.803028e+03,4.176781e+03
2.803992e+03,4.175249e+03
2.804957e+03,4.168555e+03
2.805921e+03,4.163062e+03
2.806885e+03,4.173586e+03
2.807849e+03,4.175180e+03
2.808814e+03,4.155007e+03
2.809778e+03,4.147205e+03
2.810742e+03,4.176419e+03
2.811706e+03,4.184482e+03
2.812671e+03,4.171462e+03
2.813635e+03,4.159381e+03
2.814599e+03,4.149376e+03
2.815563e+03,4.143716e+03
2.816528e+03,4.146518e+03
2.817492e+03,4.164124e+03
2.818456e+03,4.172045e+03
2.819420e+03,4.165954e+03
2.820385e+03,4.173688e+03
2.821349e+03,4.191610e+03
2.822313e+03,4.175003e+03
2.823277e+03,4.150064e+03
2.824241e+03,4.135237e+03
2.825206e+03,4.125847e+03
2.826170e+03,4.121725e+03
2.827134e+03,4.137041e+03
2.828098e+03,4.165766e+03
2.829063e+03,4.174864e+03
2.830027e+03,4.169706e+03
2.830991e+03,4.165130e+03
2.831955e+03,4.167235e+03
2.832919e+03,4.174766e+03
2.833884e+03,4.175382e+03
2.834848e+03,4.166836e+03
2.835812e+03,4.164778e+03
2.836776e+03,4.170394e+03
2.837741e+03,4.163619e+03
2.838705e+03,4.159607e+03
2.839669e+03,4.179004e+03
2.840633e+03,4.185324e+03
2.841598e+03,4.158277e+03
2.842562e+03,4.140201e+03
2.843526e+03,4.145292e+03
2.844490e+03,4.129744e+03
2.845455e+03,4.108593e+03
2.846419e+03,4.119734e+03
2.847383e+03,4.136882e+03
2.848347e+03,4.128508e+03
2.849312e+03,4.119292e+03
2.850276e+03,4.113148e+03
2.851240e+03,4.116216e+03
2.852204e+03,4.123131e+03
2.853168e+03,4.133503e+03
2.854133e+03,4.138803e+03
2.855097e+03,4.126040e+03
2.856061e+03,4.119265e+03
2.857025e+03,4.120059e+03
2.857990e+03,4.118623e+03
2.858954e+03,4.113911e+03
2.859918e+03,4.105755e+03
2.860882e+03,4.097814e+03
2.861846e+03,4.092514e+03
2.862811e+03,4.094551e+03
2.863775e+03,4.114649e+03
2.864739e+03,4.114174e+03
2.865703e+03,4.081318e+03
2.866668e+03,4.089671e+03
2.867632e+03,4.120730e+03
2.868596e+03,4.115432e+03
2.869560e+03,4.096629e+03
2.870525e+03,4.099377e+03
2.871489e+03,4.097269e+03
2.872453e+03,4.081802e+03
2.873417e+03,4.071488e+03
2.874382e+03,4.067089e+03
2.875346e+03,4.084701e+03
2.876310e+03,4.108613e+03
2.877274e+03,4.101062e+03
2.878239e+03,4.099100e+03
2.879203e+03,4.114159e+03
2.880167e+03,4.112227e+03
2.881131e+03,4.086941e+03
2.882095e+03,4.103828e+03
2.883060e+03,4.133947e+03
2.884024e+03,4.125772e+03
2.884988e+03,4.107188e+03
2.885952e+03,4.100381e+03
2.886917e+03,4.099899e+03
2.887881e+03,4.109329e+03
2.888845e+03,4.111387e+03
2.889809e+03,4.106894e+03
2.890773e+03,4.088606e+03
2.891738e+03,4.070520e+03
2.892702e+03,4.088496e+03
2.893666e+03,4.086630e+03
2.894630e+03,4.056854e+03
2.895595e+03,4.050233e+03
2.896559e+03,4.064714e+03
2.897523e+03,4.092999e+03
2.898487e+03,4.113131e+03
2.899452e+03,4.093966e+03
2.900416e+03,4.068789e+03
2.901380e+03,4.045859e+03
2.902344e+03,4.057541e+03
2.903309e+03,4.098554e+03
2.904273e+03,4.083513e+03
2.905237e+03,4.049729e+03
2.906201e+03,4.034546e+03
2.907166e+03,4.037457e+03
2.908130e+03,4.056943e+03
2.909094e+03,4.070890e+03
2.910058e+03,4.073534e+03
2.911022e+03,4.061032e+03
2.911987e+03,4.048181e+03
2.912951e+03,4.047951e+03
2.913915e+03,4.047637e+03
2.914879e+03,4.034785e+03
2.915844e+03,4.029695e+03
2.916808e+03,4.037030e+03
2.917772e+03,4.061430e+03
2.918736e+03,4.080198e+03
2.919700e+03,4.049871e+03
2.920665e+03,4.015265e+03
2.921629e+03,4.000222e+03
2.922593e+03,4.012993e+03
2.923557e+03,4.046750e+03
2.924522e+03,4.062522e+03
2.925486e+03,4.059744e+03
2.926450e+03,4.019181e+03
2.927414e+03,3.997538e+03
2.928379e+03,4.028918e+03
2.929343e+03,4.050042e+03
2.930307e+03,4.050924e+03
2.931271e+03,4.014732e+03
2.932236e+03,3.974916e+03
2.933200e+03,3.985904e+03
2.934164e+03,4.013455e+03
2.935128e+03,4.041453e+03
2.936093e+03,4.029488e+03
2.937057e+03,3.988936e+03
2.938021e+03,3.982910e+03
2.938985e+03,3.996339e+03
2.939949e+03,3.994217e+03
2.940914e+03,3.990218e+03
2.941878e+03,3.991077e+03
2.942842e+03,4.001923e+03
2.943806e+03,4.015336e+03
2.944771e+03,4.016689e+03
2.945735e+03,4.012683e+03
2.946699e+03,4.015290e+03
2.947663e+03,4.004812e+03
2.948627e+03,3.971125e+03
2.949592e+03,3.964144e+03
2.950556e+03,3.993185e+03
2.951520e+03,4.021163e+03
2.952484e+03,4.027338e+03
2.953449e+03,3.997126e+03
2.954413e+03,3.960672e+03
2.955377e+03,3.934763e+03
2.956341e+03,3.954855e+03
2.957306e+03,4.009585e+03
2.958270e+03,4.022721e+03
2.959234e+03,4.001585e+03
2.960198e+03,3.962481e+03
2.961163e+03,3.951181e+03
2.962127e+03,3.982637e+03
2.963091e+03,3.989261e+03
2.964055e+03,3.966347e+03
2.965020e+03,3.937578e+03
2.965984e+03,3.925335e+03
2.966948e+03,3.940318e+03
2.967912e+03,3.948391e+03
2.968876e+03,3.933344e+03
2.969841e+03,3.922824e+03
2.970805e+03,3.916583e+03
2.971769e+03,3.921602e+03
2.972733e+03,3.917766e+03
2.973698e+03,3.887909e+03
2.974662e+03,3.871739e+03
2.975626e+03,3.881848e+03
2.976590e+03,3.899332e+03
2.977554e+03,3.927517e+03
2.978519e+03,3.973191e+03
2.979483e+03,3.982602e+03
2.980447e+03,3.909777e+03
2.981411e+03,3.899442e+03
2.982376e+03,3.960298e+03
2.983340e+03,3.960813e+03
2.984304e+03,3.938144e+03
2.985268e+03,3.935427e+03
2.986233e+03,3.917483e+03
2.987197e+03,3.855151e+03
2.988161e+03,3.855223e+03
2.989125e+03,3.899106e+03
2.990090e+03,3.894892e+03
2.991054e+03,3.885184e+03
2.992018e+03,3.906911e+03
2.992982e+03,3.913191e+03
2.993947e+03,3.887604e+03
2.994911e+03,3.884768e+03
2.995875e+03,3.898499e+03
2.996839e+03,3.910353e+03
2.997803e+03,3.908723e+03
2.998768e+03,3.891388e+03
2.999732e+03,3.861121e+03
3.000696e+03,3.829391e+03
3.001660e+03,3.866908e+03
3.002625e+03,3.903798e+03
3.003589e+03,3.871867e+03
3.004553e+03,3.848396e+03
3.005517e+03,3.874097e+03
3.006481e+03,3.911217e+03
3.007446e+03,3.938549e+03
3.008410e+03,3.912515e+03
3.009374e+03,3.887397e+03
3.010338e+03,3.902033e+03
3.011303e+03,3.908577e+03
3.012267e+03,3.883906e+03
3.013231e+03,3.856901e+03
3.014195e+03,3.839725e+03
3.015160e+03,3.861361e+03
3.016124e+03,3.872603e+03
3.017088e+03,3.855477e+03
3.018052e+03,3.870832e+03
3.019017e+03,3.914892e+03
3.019981e+03,3.904627e+03
3.020945e+03,3.877006e+03
3.021909e+03,3.861993e+03
3.022874e+03,3.858802e+03
3.023838e+03,3.862428e+03
3.024802e+03,3.868388e+03
3.025766e+03,3.875189e+03
3.026730e+03,3.872076e+03
3.027695e+03,3.879368e+03
3.028659e+03,3.908242e+03
3.029623e+03,3.910454e+03
3.030587e+03,3.886804e+03
3.031552e+03,3.851265e+03
3.032516e+03,3.816780e+03
3.033480e+03,3.809258e+03
3.034444e+03,3.797162e+03
3.035408e+03,3.781482e+03
3.036373e+03,3.828433e+03
3.037337e+03,3.899720e+03
3.038301e+03,3.874752e+03
3.039265e+03,3.843217e+03
3.040230e+03,3.846846e+03
3.041194e+03,3.869174e+03
3.042158e+03,3.893943e+03
3.043122e+03,3.875772e+03
3.044087e+03,3.842733e+03
3.045051e+03,3.819608e+03
3.046015e+03,3.813912e+03
3.046979e+03,3.834976e+03
3.047944e+03,3.852536e+03
3.048908e+03,3.861002e+03
3.049872e+03,3.846680e+03
3.050836e+03,3.839412e+03
3.051801e+03,3.862228e+03
3.052765e+03,3.852687e+03
3.053729e+03,3.808800e+03
3.054693e+03,3.786456e+03
3.055657e+03,3.792442e+03
3.056622e+03,3.824780e+03
3.057586e+03,3.833344e+03
3.058550e+03,3.807073e+03
3.059514e+03,3.807216e+03
3.060479e+03,3.821031e+03
3.061443e+03,3.809387e+03
3.062407e+03,3.808250e+03
3.063371e+03,3.825192e+03
3.064335e+03,3.856598e+03
3.065300e+03,3.888348e+03
3.066264e+03,3.832259e+03
3.067228e+03,3.786549e+03
3.068192e+03,3.820777e+03
3.069157e+03,3.805315e+03
3.070121e+03,3.747440e+03
3.071085e+03,3.748094e+03
3.072049e+03,3.769770e+03
3.073014e+03,3.753390e+03
3.073978e+03,3.754064e+03
3.074942e+03,3.780968e+03
3.075906e+03,3.790833e+03
3.076871e+03,3.783327e+03
3.077835e+03,3.750211e+03
3.078799e+03,3.757054e+03
3.079763e+03,3.869426e+03
3.080728e+03,3.861849e+03
3.081692e+03,3.769074e+03
3.082656e+03,3.764209e+03
3.083620e+03,3.791248e+03
3.084584e+03,3.817042e+03
3.085549e+03,3.794814e+03
3.086513e+03,3.725565e+03
3.087477e+03,3.752717e+03
3.088441e+03,3.811502e+03
3.089406e+03,3.860887e+03
3.090370e+03,3.832735e+03
3.091334e+03,3.740708e+03
3.092298e+03,3.704223e+03
3.093262e+03,3.710683e+03
3.094227e+03,3.742065e+03
3.095191e+03,3.776007e+03
3.096155e+03,3.805710e+03
3.097119e+03,3.820295e+03
3.098084e+03,3.818046e+03
3.099048e+03,3.783569e+03
3.100012e+03,3.757878e+03
3.100976e+03,3.775926e+03
3.101941e+03,3.797083e+03
3.102905e+03,3.809828e+03
3.103869e+03,3.777777e+03
3.104833e+03,3.739493e+03
3.105798e+03,3.722323e+03
3.106762e+03,3.722550e+03
3.107726e+03,3.738539e+03
3.108690e+03,3.733718e+03
3.109655e+03,3.723528e+03
3.110619e+03,3.723646e+03
3.111583e+03,3.750851e+03
3.112547e+03,3.798697e+03
3.113511e+03,3.799285e+03
3.114476e+03,3.774547e+03
3.115440e+03,3.776190e+03
3.116404e+03,3.766720e+03
3.117368e+03,3.736170e+03
3.118333e+03,3.710751e+03
3.119297e+03,3.702490e+03
3.120261e+03,3.726600e+03
3.121225e+03,3.764553e+03
3.122189e+03,3.805661e+03
3.123154e+03,3.795660e+03
3.124118e+03,3.744206e+03
3.125082e+03,3.713114e+03
3.126046e+03,3.724228e+03
3.127011e+03,3.780920e+03
3.127975e+03,3.809632e+03
3.128939e+03,3.808181e+03
3.129903e+03,3.804785e+03
3.130868e+03,3.797206e+03
3.131832e+03,3.770902e+03
3.132796e+03,3.756776e+03
3.133760e+03,3.756805e+03
3.134725e+03,3.766156e+03
3.135689e+03,3.771745e+03
3.136653e+03,3.760182e+03
3.137617e+03,3.760290e+03
3.138582e+03,3.782187e+03
3.139546e+03,3.763203e+03
3.140510e+03,3.737368e+03
3.141474e+03,3.755452e+03
3.142438e+03,3.757879e+03
3.143403e+03,3.735753e+03
3.144367e+03,3.692770e+03
3.145331e+03,3.656487e+03
3.146295e+03,3.679316e+03
3.147260e+03,3.719364e+03
3.148224e+03,3.757344e+03
3.149188e+03,3.732501e+03
3.150152e+03,3.699390e+03
3.151116e+03,3.729413e+03
3.152081e+03,3.747849e+03
3.153045e+03,3.713433e+03
3.154009e+03,3.710668e+03
3.154973e+03,3.723400e+03
3.155938e+03,3.691721e+03
3.156902e+03,3.670464e+03
3.157866e+03,3.667312e+03
3.158830e+03,3.643326e+03
3.159795e+03,3.623046e+03
3.160759e+03,3.665304e+03
3.161723e+03,3.707067e+03
3.162687e+03,3.724765e+03
3.163652e+03,3.709267e+03
3.164616e+03,3.697007e+03
3.165580e+03,3.756549e+03
3.166544e+03,3.784897e+03
3.167509e+03,3.746773e+03
3.168473e+03,3.661583e+03
3.169437e+03,3.582066e+03
3.170401e+03,3.705026e+03
3.171365e+03,3.771021e+03
3.172330e+03,3.665639e+03
3.173294e+03,3.672374e+03
3.174258e+03,3.743341e+03
3.175222e+03,3.734830e+03
3.176187e+03,3.699106e+03
3.177151e+03,3.676264e+03
3.178115e+03,3.638325e+03
3.179079e+03,3.611806e+03
3.180043e+03,3.692038e+03
3.181008e+03,3.744684e+03
3.181972e+03,3.728096e+03
3.182936e+03,3.672121e+03
3.183900e+03,3.617115e+03
3.184865e+03,3.692746e+03
3.185829e+03,3.761026e+03
3.186793e+03,3.744894e+03
3.187757e+03,3.719908e+03
3.188722e+03,3.688918e+03
3.189686e+03,3.649216e+03
3.190650e+03,3.649241e+03
3.191614e+03,3.696782e+03
3.192579e+03,3.727380e+03
3.193543e+03,3.735468e+03
3.194507e+03,3.719954e+03
3.195471e+03,3.708563e+03
3.196436e+03,3.708016e+03
3.197400e+03,3.732426e+03
3.198364e+03,3.756501e+03
3.199328e+03,3.748163e+03
3.200292e+03,3.721534e+03
3.201257e+03,0.000000e+00
3.202221e+03,0.000000e+00
3.203185e+03,0.000000e+00
3.204149e+03,0.000000e+00
3.205114e+03,0.000000e+00
3.206078e+03,0.000000e+00
3.207042e+03,0.000000e+00
3.208006e+03,0.000000e+00
3.208970e+03,0.000000e+00
3.209935e+03,0.000000e+00
3.210899e+03,0.000000e+00
3.211863e+03,0.000000e+00
3.212827e+03,0.000000e+00
3.213792e+03,0.000000e+00
3.214756e+03,0.000000e+00
3.215720e+03,0.000000e+00
3.216684e+03,0.000000e+00
3.217649e+03,0.000000e+00
3.218613e+03,0.000000e+00
3.219577e+03,0.000000e+00
3.220541e+03,0.000000e+00
3.221506e+03,0.000000e+00
3.222470e+03,0.000000e+00
3.223434e+03,0.000000e+00
3.224398e+03,0.000000e+00
3.225363e+03,0.000000e+00
3.226327e+03,0.000000e+00
3.227291e+03,0.000000e+00
3.228255e+03,0.000000e+00
3.229219e+03,0.000000e+00
3.230184e+03,0.000000e+00
3.231148e+03,0.000000e+00
3.232112e+03,0.000000e+00
3.233076e+03,0.000000e+00
3.234041e+03,0.000000e+00
3.235005e+03,0.000000e+00
3.235969e+03,0.000000e+00
3.236933e+03,0.000000e+00
3.237897e+03,0.000000e+00
3.238862e+03,0.000000e+00
3.239826e+03,0.000000e+00
3.240790e+03,0.000000e+00
3.241754e+03,0.000000e+00
3.242719e+03,0.000000e+00
3.243683e+03,0.000000e+00
3.244647e+03,0.000000e+00
3.245611e+03,0.000000e+00
3.246576e+03,0.000000e+00
3.247540e+03,0.000000e+00
3.248504e+03,0.000000e+00
3.249468e+03,0.000000e+00
3.250433e+03,0.000000e+00
3.251397e+03,0.000000e+00
3.252361e+03,0.000000e+00
3.253325e+03,0.000000e+00
3.254290e+03,0.000000e+00
3.255254e+03,0.000000e+00
3.256218e+03,0.000000e+00
3.257182e+03,0.000000e+00
3.258146e+03,0.000000e+00
3.259111e+03,0.000000e+00
3.260075e+03,0.000000e+00
3.261039e+03,0.000000e+00
3.262003e+03,0.000000e+00
3.262968e+03,0.000000e+00
3.263932e+03,0.000000e+00
3.264896e+03,0.000000e+00
3.265860e+03,0.000000e+00
3.266824e+03,0.000000e+00
3.267789e+03,0.000000e+00
3.268753e+03,0.000000e+00
3.269717e+03,0.000000e+00
3.270681e+03,0.000000e+00
3.271646e+03,0.000000e+00
3.272610e+03,0.000000e+00
3.273574e+03,0.000000e+00
3.274538e+03,0.000000e+00
3.275503e+03,0.000000e+00
3.276467e+03,0.000000e+00
3.277431e+03,0.000000e+00
3.278395e+03,0.000000e+00
3.279360e+03,0.000000e+00
3.280324e+03,0.000000e+00
3.281288e+03,0.000000e+00
3.282252e+03,0.000000e+00
3.283217e+03,0.000000e+00
3.284181e+03,0.000000e+00
3.285145e+03,0.000000e+00
3.286109e+03,0.000000e+00
3.287073e+03,0.000000e+00
3.288038e+03,0.000000e+00
3.289002e+03,0.000000e+00
3.289966e+03,0.000000e+00
3.290930e+03,0.000000e+00
3.291895e+03,0.000000e+00
3.292859e+03,0.000000e+00
3.293823e+03,0.000000e+00
3.294787e+03,0.000000e+00
3.295751e+03,0.000000e+00
3.296716e+03,0.000000e+00
3.297680e+03,0.000000e+00
3.298644e+03,0.000000e+00
3.299608e+03,0.000000e+00
3.300573e+03,0.000000e+00
3.301537e+03,0.000000e+00
3.302501e+03,0.000000e+00
3.303465e+03,0.000000e+00
3.304430e+03,0.000000e+00
3.305394e+03,0.000000e+00
3.306358e+03,0.000000e+00
3.307322e+03,0.000000e+00
3.308287e+03,0.000000e+00
3.309251e+03,0.000000e+00
3.310215e+03,0.000000e+00
3.311179e+03,0.000000e+00
3.312144e+03,0.000000e+00
3.313108e+03,0.000000e+00
3.314072e+03,0.000000e+00
3.315036e+03,0.000000e+00
3.316000e+03,0.000000e+00
3.316965e+03,0.000000e+00
3.317929e+03,0.000000e+00
3.318893e+03,0.000000e+00
3.319857e+03,0.000000e+00
3.320822e+03,0.000000e+00
3.321786e+03,0.000000e+00
3.322750e+03,0.000000e+00
3.323714e+03,0.000000e+00
3.324678e+03,0.000000e+00
3.325643e+03,0.000000e+00
3.326607e+03,0.000000e+00
3.327571e+03,0.000000e+00
3.328535e+03,0.000000e+00
3.329500e+03,0.000000e+00
3.330464e+03,0.000000e+00
3.331428e+03,0.000000e+00
3.332392e+03,0.000000e+00
3.333357e+03,0.000000e+00
3.334321e+03,0.000000e+00
3.335285e+03,0.000000e+00
3.336249e+03,0.000000e+00
3.337214e+03,0.000000e+00
3.338178e+03,0.000000e+00
3.339142e+03,0.000000e+00
3.340106e+03,0.000000e+00
3.341071e+03,0.000000e+00
3.342035e+03,0.000000e+00
3.342999e+03,0.000000e+00
3.343963e+03,0.000000e+00
3.344927e+03,0.000000e+00
3.345892e+03,0.000000e+00
3.346856e+03,0.000000e+00
3.347820e+03,0.000000e+00
3.348784e+03,0.000000e+00
3.349749e+03,0.000000e+00
3.350713e+03,0.000000e+00
3.351677e+03,0.000000e+00
3.352641e+03,0.000000e+00
3.353605e+03,0.000000e+00
3.354570e+03,0.000000e+00
3.355534e+03,0.000000e+00
3.356498e+03,0.000000e+00
3.357462e+03,0.000000e+00
3.358427e+03,0.000000e+00
3.359391e+03,0.000000e+00
3.360355e+03,0.000000e+00
3.361319e+03,0.000000e+00
3.362284e+03,0.000000e+00
3.363248e+03,0.000000e+00
3.364212e+03,0.000000e+00
3.365176e+03,0.000000e+00
3.366141e+03,0.000000e+00
3.367105e+03,0.000000e+00
3.368069e+03,0.000000e+00
3.369033e+03,0.000000e+00
3.369998e+03,0.000000e+00
3.370962e+03,0.000000e+00
3.371926e+03,0.000000e+00
3.372890e+03,0.000000e+00
3.373854e+03,0.000000e+00
3.374819e+03,0.000000e+00
3.375783e+03,0.000000e+00
3.376747e+03,0.000000e+00
3.377711e+03,0.000000e+00
3.378676e+03,0.000000e+00
3.379640e+03,0.000000e+00
3.380604e+03,0.000000e+00
3.381568e+03,0.000000e+00
3.382532e+03,0.000000e+00
3.383497e+03,0.000000e+00
3.384461e+03,0.000000e+00
3.385425e+03,0.000000e+00
3.386389e+03,0.000000e+00
3.387354e+03,0.000000e+00
3.388318e+03,0.000000e+00
3.389282e+03,0.000000e+00
3.390246e+03,0.000000e+00
3.391211e+03,0.000000e+00
3.392175e+03,0.000000e+00
3.393139e+03,0.000000e+00
3.394103e+03,0.000000e+00
3.395068e+03,0.000000e+00
3.396032e+03,0.000000e+00
3.396996e+03,0.000000e+00
3.397960e+03,0.000000e+00
3.398925e+03,0.000000e+00
3.399889e+03,0.000000e+00
3.400853e+03,0.000000e+00
3.401817e+03,0.000000e+00
3.402781e+03,0.000000e+00
3.403746e+03,0.000000e+00
3.404710e+03,0.000000e+00
3.405674e+03,0.000000e+00
3.406638e+03,0.000000e+00
3.407603e+03,0.000000e+00
3.408567e+03,0.000000e+00
3.409531e+03,0.000000e+00
3.410495e+03,0.000000e+00
3.411459e+03,0.000000e+00
3.412424e+03,0.000000e+00
3.413388e+03,0.000000e+00
3.414352e+03,0.000000e+00
3.415316e+03,0.000000e+00
3.416281e+03,0.000000e+00
3.417245e+03,0.000000e+00
3.418209e+03,0.000000e+00
3.419173e+03,0.000000e+00
3.420138e+03,0.000000e+00
3.421102e+03,0.000000e+00
3.422066e+03,0.000000e+00
3.423030e+03,0.000000e+00
3.423995e+03,0.000000e+00
3.424959e+03,0.000000e+00
3.425923e+03,0.000000e+00
3.426887e+03,0.000000e+00
3.427852e+03,0.000000e+00
3.428816e+03,0.000000e+00
3.429780e+03,0.000000e+00
3.430744e+03,0.000000e+00
3.431708e+03,0.000000e+00
3.432673e+03,0.000000e+00
3.433637e+03,0.000000e+00
3.434601e+03,0.000000e+00
3.435565e+03,0.000000e+00
3.436530e+03,0.000000e+00
3.437494e+03,0.000000e+00
3.438458e+03,0.000000e+00
3.439422e+03,0.000000e+00
3.440386e+03,0.000000e+00
3.441351e+03,0.000000e+00
3.442315e+03,0.000000e+00
3.443279e+03,0.000000e+00
3.444243e+03,0.000000e+00
3.445208e+03,0.000000e+00
3.446172e+03,0.000000e+00
3.447136e+03,0.000000e+00
3.448100e+03,0.000000e+00
3.449065e+03,0.000000e+00
3.450029e+03,0.000000e+00
3.450993e+03,0.000000e+00
3.451957e+03,0.000000e+00
3.452922e+03,0.000000e+00
3.453886e+03,0.000000e+00
3.454850e+03,0.000000e+00
3.455814e+03,0.000000e+00
3.456779e+03,0.000000e+00
3.457743e+03,0.000000e+00
3.458707e+03,0.000000e+00
3.459671e+03,0.000000e+00
3.460635e+03,0.000000e+00
3.461600e+03,0.000000e+00
3.462564e+03,0.000000e+00
3.463528e+03,0.000000e+00
3.464492e+03,0.000000e+00
3.465457e+03,0.000000e+00
3.466421e+03,0.000000e+00
3.467385e+03,0.000000e+00
3.468349e+03,0.000000e+00
3.469313e+03,0.000000e+00
3.470278e+03,0.000000e+00
3.471242e+03,0.000000e+00
3.472206e+03,0.000000e+00
3.473170e+03,0.000000e+00
3.474135e+03,0.000000e+00
3.475099e+03,0.000000e+00
3.476063e+03,0.000000e+00
3.477027e+03,0.000000e+00
3.477992e+03,0.000000e+00
3.478956e+03,0.000000e+00
3.479920e+03,0.000000e+00
3.480884e+03,0.000000e+00
3.481849e+03,0.000000e+00
3.482813e+03,0.000000e+00
3.483777e+03,0.000000e+00
3.484741e+03,0.000000e+00
3.485706e+03,0.000000e+00
3.486670e+03,0.000000e+00
3.487634e+03,0.000000e+00
3.488598e+03,0.000000e+00
3.489563e+03,0.000000e+00
3.490527e+03,0.000000e+00
3.491491e+03,0.000000e+00
3.492455e+03,0.000000e+00
3.493419e+03,0.000000e+00
3.494384e+03,0.000000e+00
3.495348e+03,0.000000e+00
3.496312e+03,0.000000e+00
3.497276e+03,0.000000e+00
3.498240e+03,0.000000e+00
3.499205e+03,0.000000e+00
3.500169e+03,0.000000e+00
