9.931763e+01,0.000000e+00
1.002819e+02,0.000000e+00
1.012461e+02,0.000000e+00
1.022103e+02,0.000000e+00
1.031746e+02,0.000000e+00
1.041388e+02,0.000000e+00
1.051030e+02,0.000000e+00
1.060673e+02,0.000000e+00
1.070315e+02,0.000000e+00
1.079957e+02,0.000000e+00
1.089600e+02,0.000000e+00
1.099242e+02,0.000000e+00
1.108884e+02,0.000000e+00
1.118527e+02,0.000000e+00
1.128169e+02,0.000000e+00
1.137811e+02,0.000000e+00
1.147454e+02,0.000000e+00
1.157096e+02,0.000000e+00
1.166738e+02,0.000000e+00
1.176381e+02,0.000000e+00
1.186023e+02,0.000000e+00
1.195665e+02,0.000000e+00
1.205308e+02,0.000000e+00
1.214950e+02,0.000000e+00
1.224592e+02,0.000000e+00
1.234235e+02,0.000000e+00
1.243877e+02,0.000000e+00
1.253519e+02,0.000000e+00
1.263162e+02,0.000000e+00
1.272804e+02,0.000000e+00
1.282446e+02,0.000000e+00
1.292089e+02,0.000000e+00
1.301731e+02,0.000000e+00
1.311373e+02,0.000000e+00
1.321016e+02,0.000000e+00
1.330658e+02,0.000000e+00
1.340300e+02,0.000000e+00
1.349943e+02,0.000000e+00
1.359585e+02,0.000000e+00
1.369227e+02,0.000000e+00
1.378870e+02,0.000000e+00
1.388512e+02,0.000000e+00
1.398154e+02,0.000000e+00
1.407797e+02,0.000000e+00
1.417439e+02,0.000000e+00
1.427081e+02,0.000000e+00
1.436724e+02,0.000000e+00
1.446366e+02,0.000000e+00
1.456008e+02,0.000000e+00
1.465651e+02,0.000000e+00
1.475293e+02,0.000000e+00
1.484935e+02,0.000000e+00
1.494578e+02,0.000000e+00
1.504220e+02,0.000000e+00
1.513862e+02,0.000000e+00
1.523505e+02,0.000000e+00
1.533147e+02,0.000000e+00
1.542789e+02,0.000000e+00
1.552432e+02,0.000000e+00
1.562074e+02,0.000000e+00
1.571716e+02,0.000000e+00
1.581359e+02,0.000000e+00
1.591001e+02,0.000000e+00
1.600643e+02,0.000000e+00
1.610286e+02,0.000000e+00
1.619928e+02,0.000000e+00
1.629570e+02,0.000000e+00
1.639213e+02,0.000000e+00
1.648855e+02,0.000000e+00
1.658497e+02,0.000000e+00
1.668140e+02,0.000000e+00
1.677782e+02,0.000000e+00
1.687424e+02,0.000000e+00
1.697067e+02,0.000000e+00
1.706709e+02,0.000000e+00
1.716351e+02,0.000000e+00
1.725994e+02,0.000000e+00
1.735636e+02,0.000000e+00
1.745278e+02,0.000000e+00
1.754921e+02,0.000000e+00
1.764563e+02,0.000000e+00
1.774205e+02,0.000000e+00
1.783848e+02,0.000000e+00
1.793490e+02,0.000000e+00
1.803132e+02,0.000000e+00
1.812775e+02,0.000000e+00
1.822417e+02,0.000000e+00
1.832059e+02,0.000000e+00
1.841702e+02,0.000000e+00
1.851344e+02,0.000000e+00
1.860986e+02,0.000000e+00
1.870629e+02,0.000000e+00
1.880271e+02,0.000000e+00
1.889913e+02,0.000000e+00
1.899556e+02,0.000000e+00
1.909198e+02,0.000000e+00
1.918840e+02,0.000000e+00
1.928483e+02,0.000000e+00
1.938125e+02,0.000000e+00
1.947767e+02,0.000000e+00
1.957410e+02,0.000000e+00
1.967052e+02,0.000000e+00
1.976694e+02,0.000000e+00
1.986337e+02,0.000000e+00
1.995979e+02,7.318332e+02
2.005621e+02,7.321494e+02
2.015264e+02,7.322588e+02
2.024906e+02,7.314481e+02
2.034548e+02,7.310317e+02
2.044191e+02,7.316126e+02
2.053833e+02,7.328051e+02
2.063475e+02,7.336047e+02
2.073118e+02,7.329329e+02
2.082760e+02,7.303390e+02
2.092402e+02,7.276324e+02
2.102045e+02,7.242601e+02
2.111687e+02,7.216299e+02
2.121329e+02,7.209559e+02
2.130972e+02,7.229744e+02
2.140614e+02,7.264199e+02
2.150256e+02,7.283531e+02
2.159899e+02,7.281463e+02
2.169541e+02,7.273476e+02
2.179183e+02,7.266924e+02
2.188826e+02,7.260678e+02
2.198468e+02,7.252972e+02
2.208110e+02,7.238763e+02
2.217753e+02,7.217598e+02
2.227395e+02,7.203542e+02
2.237037e+02,7.207907e+02
2.246680e+02,7.220656e+02
2.256322e+02,7.231349e+02
2.265964e+02,7.241710e+02
2.275607e+02,7.250681e+02
2.285249e+02,7.256404e+02
2.294892e+02,7.258918e+02
2.304534e+02,7.258855e+02
2.314176e+02,7.248805e+02
2.323819e+02,7.230248e+02
2.333461e+02,7.216465e+02
2.343103e+02,7.219807e+02
2.352746e+02,7.231503e+02
2.362388e+02,7.232303e+02
2.372030e+02,7.213506e+02
2.381673e+02,7.182429e+02
2.391315e+02,7.157606e+02
2.400957e+02,7.141814e+02
2.410600e+02,7.133764e+02
2.420242e+02,7.140893e+02
2.429884e+02,7.160522e+02
2.439527e+02,7.177386e+02
2.449169e+02,7.177590e+02
2.458811e+02,7.156836e+02
2.468454e+02,7.146581e+02
2.478096e+02,7.154830e+02
2.487738e+02,7.167692e+02
2.497381e+02,7.177237e+02
2.507023e+02,7.181721e+02
2.516665e+02,7.181441e+02
2.526308e+02,7.176443e+02
2.535950e+02,7.165859e+02
2.545592e+02,7.143822e+02
2.555235e+02,7.096974e+02
2.564877e+02,7.043914e+02
2.574519e+02,7.008309e+02
2.584161e+02,7.006374e+02
2.593804e+02,7.035723e+02
2.603446e+02,7.060400e+02
2.613088e+02,7.073639e+02
2.622731e+02,7.083448e+02
2.632373e+02,7.092383e+02
2.642015e+02,7.098603e+02
2.651658e+02,7.099092e+02
2.661300e+02,7.089170e+02
2.670942e+02,7.067471e+02
2.680585e+02,7.056459e+02
2.690227e+02,7.071893e+02
2.699869e+02,7.093538e+02
2.709512e+02,7.107543e+02
2.719154e+02,7.113109e+02
2.728796e+02,7.110479e+02
2.738439e+02,7.095847e+02
2.748081e+02,7.066573e+02
2.757723e+02,7.042348e+02
2.767366e+02,7.034222e+02
2.777008e+02,7.035062e+02
2.786650e+02,7.031037e+02
2.796293e+02,7.014234e+02
2.805935e+02,6.993392e+02
2.815577e+02,6.982318e+02
2.825220e+02,6.984172e+02
2.834862e+02,6.992681e+02
2.844504e+02,6.998720e+02
2.854147e+02,7.004208e+02
2.863789e+02,7.008361e+02
2.873431e+02,7.015776e+02
2.883074e+02,7.024454e+02
2.892716e+02,7.026349e+02
2.902358e+02,7.013868e+02
2.912001e+02,6.985990e+02
2.921643e+02,6.967782e+02
2.931285e+02,6.965234e+02
2.940928e+02,6.968196e+02
2.950570e+02,6.973909e+02
2.960212e+02,6.979846e+02
2.969855e+02,6.982839e+02
2.979497e+02,6.980639e+02
2.989139e+02,6.973641e+02
2.998782e+02,6.964239e+02
3.008424e+02,6.949219e+02
3.018066e+02,6.937911e+02
3.027709e+02,6.936854e+02
3.037351e+02,6.949317e+02
3.046993e+02,6.966102e+02
3.056636e+02,6.971108e+02
3.066278e+02,6.961302e+02
3.075920e+02,6.949990e+02
3.085563e+02,6.942119e+02
3.095205e+02,6.938344e+02
3.104847e+02,6.937267e+02
3.114490e+02,6.937986e+02
3.124132e+02,6.938264e+02
3.133774e+02,6.933763e+02
3.143417e+02,6.920956e+02
3.153059e+02,6.907000e+02
3.162701e+02,6.907487e+02
3.172344e+02,6.934512e+02
3.181986e+02,6.949899e+02
3.191628e+02,6.924517e+02
3.201271e+02,6.880461e+02
3.210913e+02,6.863299e+02
3.220555e+02,6.898209e+02
3.230198e+02,6.973418e+02
3.239840e+02,7.012657e+02
3.249482e+02,6.979935e+02
3.259125e+02,6.948672e+02
3.268767e+02,6.946183e+02
3.278409e+02,6.966196e+02
3.288052e+02,6.986076e+02
3.297694e+02,6.983992e+02
3.307336e+02,6.954400e+02
3.316979e+02,6.932016e+02
3.326621e+02,6.917606e+02
3.336263e+02,6.908823e+02
3.345906e+02,6.908755e+02
3.355548e+02,6.920554e+02
3.365190e+02,6.935026e+02
3.374833e+02,6.939053e+02
3.384475e+02,6.930604e+02
3.394117e+02,6.924493e+02
3.403760e+02,6.924982e+02
3.413402e+02,6.929154e+02
3.423044e+02,6.932496e+02
3.432687e+02,6.937780e+02
3.442329e+02,6.939276e+02
3.451971e+02,6.926310e+02
3.461614e+02,6.896892e+02
3.471256e+02,6.866465e+02
3.480898e+02,6.851869e+02
3.490541e+02,6.863799e+02
3.500183e+02,6.864113e+02
3.509825e+02,6.836550e+02
3.519468e+02,6.809679e+02
3.529110e+02,6.807700e+02
3.538752e+02,6.835269e+02
3.548395e+02,6.876747e+02
3.558037e+02,6.908033e+02
3.567680e+02,6.930252e+02
3.577322e+02,6.938914e+02
3.586964e+02,6.929002e+02
3.596607e+02,6.911570e+02
3.606249e+02,6.897053e+02
3.615891e+02,6.889247e+02
3.625534e+02,6.882214e+02
3.635176e+02,6.866202e+02
3.644818e+02,6.840361e+02
3.654461e+02,6.814364e+02
3.664103e+02,6.790494e+02
3.673745e+02,6.772955e+02
3.683388e+02,6.775761e+02
3.693030e+02,6.816216e+02
3.702672e+02,6.871922e+02
3.712315e+02,6.909915e+02
3.721957e+02,6.921877e+02
3.731599e+02,6.919502e+02
3.741242e+02,6.922964e+02
3.750884e+02,6.945787e+02
3.760526e+02,6.964666e+02
3.770169e+02,6.980668e+02
3.779811e+02,6.989584e+02
3.789453e+02,6.985408e+02
3.799096e+02,6.964073e+02
3.808738e+02,6.928193e+02
3.818380e+02,6.888101e+02
3.828023e+02,6.834343e+02
3.837665e+02,6.796429e+02
3.847307e+02,6.790379e+02
3.856950e+02,6.805218e+02
3.866592e+02,6.815042e+02
3.876234e+02,6.794796e+02
3.885877e+02,6.757156e+02
3.895519e+02,6.743160e+02
3.905161e+02,6.763235e+02
3.914804e+02,6.790677e+02
3.924446e+02,6.796934e+02
3.934088e+02,6.781452e+02
3.943731e+02,6.761779e+02
3.953373e+02,6.738488e+02
3.963015e+02,6.714042e+02
3.972658e+02,6.689410e+02
3.982300e+02,6.664647e+02
3.991942e+02,6.647287e+02
4.001585e+02,6.653526e+02
4.011227e+02,6.715381e+02
4.020869e+02,6.759993e+02
4.030512e+02,6.768416e+02
4.040154e+02,6.752499e+02
4.049796e+02,6.732123e+02
4.059439e+02,6.716223e+02
4.069081e+02,6.704695e+02
4.078723e+02,6.698427e+02
4.088366e+02,6.697042e+02
4.098008e+02,6.696719e+02
4.107650e+02,6.704316e+02
4.117293e+02,6.719576e+02
4.126935e+02,6.720982e+02
4.136577e+02,6.684506e+02
4.146220e+02,6.634026e+02
4.155862e+02,6.605879e+02
4.165504e+02,6.608934e+02
4.175147e+02,6.630239e+02
4.184789e+02,6.649298e+02
4.194431e+02,6.677128e+02
4.204074e+02,6.687346e+02
4.213716e+02,6.656373e+02
4.223358e+02,6.615885e+02
4.233001e+02,6.602197e+02
4.242643e+02,6.635687e+02
4.252285e+02,6.696190e+02
4.261928e+02,6.735684e+02
4.271570e+02,6.747468e+02
4.281212e+02,6.754259e+02
4.290855e+02,6.765078e+02
4.300497e+02,6.776543e+02
4.310139e+02,6.781798e+02
4.319782e+02,6.778725e+02
4.329424e+02,6.770095e+02
4.339066e+02,6.754143e+02
4.348709e+02,6.729807e+02
4.358351e+02,6.708369e+02
4.367993e+02,6.703571e+02
4.377636e+02,6.731161e+02
4.387278e+02,6.733947e+02
4.396920e+02,6.684612e+02
4.406563e+02,6.631056e+02
4.416205e+02,6.609626e+02
4.425847e+02,6.628681e+02
4.435490e+02,6.662299e+02
4.445132e+02,6.675952e+02
4.454774e+02,6.666522e+02
4.464417e+02,6.656797e+02
4.474059e+02,6.648773e+02
4.483701e+02,6.642409e+02
4.493344e+02,6.638792e+02
4.502986e+02,6.636011e+02
4.512628e+02,6.640635e+02
4.522271e+02,6.666794e+02
4.531913e+02,6.708309e+02
4.541555e+02,6.736160e+02
4.551198e+02,6.729598e+02
4.560840e+02,6.688801e+02
4.570482e+02,6.661571e+02
4.580125e+02,6.672682e+02
4.589767e+02,6.679308e+02
4.599409e+02,6.654807e+02
4.609052e+02,6.604535e+02
4.618694e+02,6.558801e+02
4.628336e+02,6.548743e+02
4.637979e+02,6.570698e+02
4.647621e+02,6.584122e+02
4.657263e+02,6.587177e+02
4.666906e+02,6.584202e+02
4.676548e+02,6.574146e+02
4.686190e+02,6.551350e+02
4.695833e+02,6.536467e+02
4.705475e+02,6.541425e+02
4.715117e+02,6.555937e+02
4.724760e+02,6.565289e+02
4.734402e+02,6.564710e+02
4.744044e+02,6.559586e+02
4.753687e+02,6.563329e+02
4.763329e+02,6.593837e+02
4.772971e+02,6.604962e+02
4.782614e+02,6.577431e+02
4.792256e+02,6.532735e+02
4.801898e+02,6.496472e+02
4.811541e+02,6.475743e+02
4.821183e+02,6.469531e+02
4.830826e+02,6.483122e+02
4.840468e+02,6.517401e+02
4.850110e+02,6.546707e+02
4.859753e+02,6.553581e+02
4.869395e+02,6.535713e+02
4.879037e+02,6.531208e+02
4.888680e+02,6.560557e+02
4.898322e+02,6.587279e+02
4.907964e+02,6.588433e+02
4.917607e+02,6.566216e+02
4.927249e+02,6.539593e+02
4.936891e+02,6.527181e+02
4.946534e+02,6.529915e+02
4.956176e+02,6.526305e+02
4.965818e+02,6.506149e+02
4.975461e+02,6.489349e+02
4.985103e+02,6.495049e+02
4.994745e+02,6.529911e+02
5.004388e+02,6.553821e+02
5.014030e+02,6.537852e+02
5.023672e+02,6.503989e+02
5.033315e+02,6.491025e+02
5.042957e+02,6.512096e+02
5.052599e+02,6.549582e+02
5.062242e+02,6.567179e+02
5.071884e+02,6.557318e+02
5.081526e+02,6.540421e+02
5.091169e+02,6.509900e+02
5.100811e+02,6.479261e+02
5.110453e+02,6.463855e+02
5.120095e+02,6.478168e+02
5.129738e+02,6.501951e+02
5.139380e+02,6.508505e+02
5.149022e+02,6.498298e+02
5.158665e+02,6.485987e+02
5.168307e+02,6.476786e+02
5.177949e+02,6.467460e+02
5.187592e+02,6.455515e+02
5.197234e+02,6.441422e+02
5.206876e+02,6.434288e+02
5.216519e+02,6.446767e+02
5.226161e+02,6.471790e+02
5.235803e+02,6.487702e+02
5.245446e+02,6.467108e+02
5.255088e+02,6.417274e+02
5.264730e+02,6.392878e+02
5.274373e+02,6.404655e+02
5.284015e+02,6.424749e+02
5.293657e+02,6.426620e+02
5.303300e+02,6.408369e+02
5.312942e+02,6.394675e+02
5.322584e+02,6.400137e+02
5.332227e+02,6.411320e+02
5.341869e+02,6.409789e+02
5.351511e+02,6.391559e+02
5.361154e+02,6.372396e+02
5.370796e+02,6.379056e+02
5.380438e+02,6.422451e+02
5.390081e+02,6.451025e+02
5.399723e+02,6.449786e+02
5.409365e+02,6.436685e+02
5.419008e+02,6.426590e+02
5.428650e+02,6.420253e+02
5.438292e+02,6.413408e+02
5.447935e+02,6.402169e+02
5.457577e+02,6.389203e+02
5.467219e+02,6.381473e+02
5.476862e+02,6.382952e+02
5.486504e+02,6.388791e+02
5.496146e+02,6.384247e+02
5.505789e+02,6.360363e+02
5.515431e+02,6.339210e+02
5.525073e+02,6.324552e+02
5.534716e+02,6.319513e+02
5.544358e+02,6.325515e+02
5.554000e+02,6.345610e+02
5.563643e+02,6.371417e+02
5.573285e+02,6.398073e+02
5.582927e+02,6.424003e+02
5.592570e+02,6.443737e+02
5.602212e+02,6.455109e+02
5.611854e+02,6.457565e+02
5.621497e+02,6.451927e+02
5.631139e+02,6.417039e+02
5.640781e+02,6.390711e+02
5.650424e+02,6.397723e+02
5.660066e+02,6.428392e+02
5.669708e+02,6.446375e+02
5.679351e+02,6.420071e+02
5.688993e+02,6.372193e+02
5.698635e+02,6.343963e+02
5.708278e+02,6.339720e+02
5.717920e+02,6.342946e+02
5.727562e+02,6.335367e+02
5.737205e+02,6.305706e+02
5.746847e+02,6.299190e+02
5.756489e+02,6.335073e+02
5.766132e+02,6.374584e+02
5.775774e+02,6.400112e+02
5.785416e+02,6.408954e+02
5.795059e+02,6.404747e+02
5.804701e+02,6.377416e+02
5.814343e+02,6.337613e+02
5.823986e+02,6.324172e+02
5.833628e+02,6.349548e+02
5.843270e+02,6.387328e+02
5.852913e+02,6.400958e+02
5.862555e+02,6.365848e+02
5.872197e+02,6.343054e+02
5.881840e+02,6.335786e+02
5.891482e+02,6.337039e+02
5.901124e+02,6.341789e+02
5.910767e+02,6.348709e+02
5.920409e+02,6.358775e+02
5.930051e+02,6.381081e+02
5.939694e+02,6.410246e+02
5.949336e+02,6.413088e+02
5.958978e+02,6.371214e+02
5.968621e+02,6.309503e+02
5.978263e+02,6.285880e+02
5.987905e+02,6.349736e+02
5.997548e+02,6.396496e+02
6.007190e+02,6.411972e+02
6.016832e+02,6.409750e+02
6.026475e+02,6.404193e+02
6.036117e+02,6.398625e+02
6.045759e+02,6.391490e+02
6.055402e+02,6.376086e+02
6.065044e+02,6.353512e+02
6.074686e+02,6.343269e+02
6.084329e+02,6.359658e+02
6.093971e+02,6.395126e+02
6.103613e+02,6.409146e+02
6.113256e+02,6.375636e+02
6.122899e+02,6.348636e+02
6.132541e+02,6.343525e+02
6.142183e+02,6.350187e+02
6.151826e+02,6.351213e+02
6.161468e+02,6.332698e+02
6.171110e+02,6.311386e+02
6.180753e+02,6.307840e+02
6.190395e+02,6.320089e+02
6.200037e+02,6.336039e+02
6.209680e+02,6.350419e+02
6.219322e+02,6.363542e+02
6.228964e+02,6.363502e+02
6.238607e+02,6.333630e+02
6.248249e+02,6.306880e+02
6.257891e+02,6.290816e+02
6.267534e+02,6.282927e+02
6.277176e+02,6.279079e+02
6.286818e+02,6.283366e+02
6.296461e+02,6.291009e+02
6.306103e+02,6.296257e+02
6.315745e+02,6.299360e+02
6.325388e+02,6.302390e+02
6.335030e+02,6.306742e+02
6.344672e+02,6.311705e+02
6.354315e+02,6.307941e+02
6.363957e+02,6.278337e+02
6.373599e+02,6.256881e+02
6.383242e+02,6.270865e+02
6.392884e+02,6.315942e+02
6.402526e+02,6.344362e+02
6.412169e+02,6.327360e+02
6.421811e+02,6.295416e+02
6.431453e+02,6.275223e+02
6.441096e+02,6.268463e+02
6.450738e+02,6.266257e+02
6.460380e+02,6.261828e+02
6.470023e+02,6.256438e+02
6.479665e+02,6.252789e+02
6.489307e+02,6.246805e+02
6.498950e+02,6.244775e+02
6.508592e+02,6.256266e+02
6.518234e+02,6.283189e+02
6.527877e+02,6.294191e+02
6.537519e+02,6.271096e+02
6.547161e+02,6.240848e+02
6.556804e+02,6.224962e+02
6.566446e+02,6.225013e+02
6.576088e+02,6.226721e+02
6.585731e+02,6.209435e+02
6.595373e+02,6.179109e+02
6.605015e+02,6.176277e+02
6.614658e+02,6.212589e+02
6.624300e+02,6.255023e+02
6.633942e+02,6.269366e+02
6.643585e+02,6.235786e+02
6.653227e+02,6.224055e+02
6.662869e+02,6.253259e+02
6.672512e+02,6.287364e+02
6.682154e+02,6.306246e+02
6.691796e+02,6.305912e+02
6.701439e+02,6.293055e+02
6.711081e+02,6.264296e+02
6.720723e+02,6.227955e+02
6.730366e+02,6.199962e+02
6.740008e+02,6.183498e+02
6.749650e+02,6.178657e+02
6.759293e+02,6.188373e+02
6.768935e+02,6.221799e+02
6.778577e+02,6.245501e+02
6.788220e+02,6.258124e+02
6.797862e+02,6.265002e+02
6.807504e+02,6.266584e+02
6.817147e+02,6.260667e+02
6.826789e+02,6.251481e+02
6.836431e+02,6.235463e+02
6.846074e+02,6.216974e+02
6.855716e+02,6.201874e+02
6.865358e+02,6.192514e+02
6.875001e+02,6.188489e+02
6.884643e+02,6.187100e+02
6.894285e+02,6.188674e+02
6.903928e+02,6.207394e+02
6.913570e+02,6.258914e+02
6.923212e+02,6.303702e+02
6.932855e+02,6.294606e+02
6.942497e+02,6.182940e+02
6.952139e+02,6.121927e+02
6.961782e+02,6.153889e+02
6.971424e+02,6.208401e+02
6.981066e+02,6.233536e+02
6.990709e+02,6.216931e+02
7.000351e+02,6.190355e+02
7.009993e+02,6.180341e+02
7.019636e+02,6.182345e+02
7.029278e+02,6.180236e+02
7.038920e+02,6.170153e+02
7.048563e+02,6.162501e+02
7.058205e+02,6.176205e+02
7.067847e+02,6.226270e+02
7.077490e+02,6.254286e+02
7.087132e+02,6.248894e+02
7.096774e+02,6.234376e+02
7.106417e+02,6.225572e+02
7.116059e+02,6.223586e+02
7.125701e+02,6.216388e+02
7.135344e+02,6.196934e+02
7.144986e+02,6.175403e+02
7.154628e+02,6.156872e+02
7.164271e+02,6.142410e+02
7.173913e+02,6.137170e+02
7.183555e+02,6.157978e+02
7.193198e+02,6.196014e+02
7.202840e+02,6.199942e+02
7.212482e+02,6.156298e+02
7.222125e+02,6.110895e+02
7.231767e+02,6.114524e+02
7.241409e+02,6.193907e+02
7.251052e+02,6.242535e+02
7.260694e+02,6.247301e+02
7.270336e+02,6.231264e+02
7.279979e+02,6.199045e+02
7.289621e+02,6.150246e+02
7.299263e+02,6.115167e+02
7.308906e+02,6.109002e+02
7.318548e+02,6.120432e+02
7.328190e+02,6.145594e+02
7.337833e+02,6.181196e+02
7.347475e+02,6.210574e+02
7.357117e+02,6.217664e+02
7.366760e+02,6.204953e+02
7.376402e+02,6.182634e+02
7.386044e+02,6.144714e+02
7.395687e+02,6.116662e+02
7.405329e+02,6.123871e+02
7.414971e+02,6.181931e+02
7.424614e+02,6.206674e+02
7.434256e+02,6.168834e+02
7.443898e+02,6.132656e+02
7.453541e+02,6.129874e+02
7.463183e+02,6.155917e+02
7.472825e+02,6.177602e+02
7.482468e+02,6.180876e+02
7.492110e+02,6.172557e+02
7.501752e+02,6.157839e+02
7.511395e+02,6.141159e+02
7.521037e+02,6.129724e+02
7.530679e+02,6.126074e+02
7.540322e+02,6.128838e+02
7.549964e+02,6.143514e+02
7.559606e+02,6.176766e+02
7.569249e+02,6.203762e+02
7.578891e+02,6.206771e+02
7.588533e+02,6.184920e+02
7.598176e+02,6.170964e+02
7.607818e+02,6.156137e+02
7.617460e+02,6.147586e+02
7.627103e+02,6.158924e+02
7.636745e+02,6.184689e+02
7.646387e+02,6.200178e+02
7.656030e+02,6.192197e+02
7.665672e+02,6.172439e+02
7.675314e+02,6.135950e+02
7.684957e+02,6.088150e+02
7.694599e+02,6.055864e+02
7.704241e+02,6.064427e+02
7.713884e+02,6.101368e+02
7.723526e+02,6.126292e+02
7.733168e+02,6.139796e+02
7.742811e+02,6.149205e+02
7.752453e+02,6.153173e+02
7.762095e+02,6.150963e+02
7.771738e+02,6.150241e+02
7.781380e+02,6.146035e+02
7.791022e+02,6.144941e+02
7.800665e+02,6.155446e+02
7.810307e+02,6.171158e+02
7.819949e+02,6.180897e+02
7.829592e+02,6.184937e+02
7.839234e+02,6.183718e+02
7.848876e+02,6.173844e+02
7.858519e+02,6.157471e+02
7.868161e+02,6.136826e+02
7.877803e+02,6.110129e+02
7.887446e+02,6.087849e+02
7.897088e+02,6.090394e+02
7.906730e+02,6.116721e+02
7.916373e+02,6.145350e+02
7.926015e+02,6.168195e+02
7.935657e+02,6.180547e+02
7.945300e+02,6.178708e+02
7.954942e+02,6.157564e+02
7.964584e+02,6.142296e+02
7.974227e+02,6.145090e+02
7.983869e+02,6.159587e+02
7.993511e+02,6.171868e+02
8.003154e+02,6.183233e+02
8.012796e+02,6.178434e+02
8.022438e+02,6.142653e+02
8.032081e+02,6.102021e+02
8.041723e+02,6.078428e+02
8.051365e+02,6.076083e+02
8.061008e+02,6.082374e+02
8.070650e+02,6.095576e+02
8.080292e+02,6.106926e+02
8.089935e+02,6.099588e+02
8.099577e+02,6.073416e+02
8.109219e+02,6.048621e+02
8.118862e+02,6.048662e+02
8.128504e+02,6.072593e+02
8.138146e+02,6.091239e+02
8.147789e+02,6.102028e+02
8.157431e+02,6.107564e+02
8.167073e+02,6.111410e+02
8.176716e+02,6.117139e+02
8.186358e+02,6.119684e+02
8.196000e+02,6.113502e+02
8.205643e+02,6.108419e+02
8.215285e+02,6.106853e+02
8.224927e+02,6.107864e+02
8.234570e+02,6.106516e+02
8.244212e+02,6.096495e+02
8.253854e+02,6.088632e+02
8.263497e+02,6.094531e+02
8.273139e+02,6.106304e+02
8.282781e+02,6.105865e+02
8.292424e+02,6.067753e+02
8.302066e+02,6.026229e+02
8.311708e+02,6.039969e+02
8.321351e+02,6.097985e+02
8.330993e+02,6.142930e+02
8.340635e+02,6.141533e+02
8.350278e+02,6.109337e+02
8.359920e+02,6.097783e+02
8.369562e+02,6.112632e+02
8.379205e+02,6.116951e+02
8.388847e+02,6.091257e+02
8.398489e+02,6.052285e+02
8.408132e+02,6.042618e+02
8.417774e+02,6.095029e+02
8.427416e+02,6.127948e+02
8.437059e+02,6.122787e+02
8.446701e+02,6.100452e+02
8.456343e+02,6.081309e+02
8.465986e+02,6.059865e+02
8.475628e+02,6.056622e+02
8.485270e+02,6.095847e+02
8.494913e+02,6.147252e+02
8.504555e+02,6.183422e+02
8.514197e+02,6.198636e+02
8.523840e+02,6.196862e+02
8.533482e+02,6.168373e+02
8.543124e+02,6.126370e+02
8.552767e+02,6.093224e+02
8.562409e+02,6.072292e+02
8.572051e+02,6.065610e+02
8.581694e+02,6.087766e+02
8.591336e+02,6.135260e+02
8.600978e+02,6.149816e+02
8.610621e+02,6.123936e+02
8.620263e+02,6.096055e+02
8.629905e+02,6.094889e+02
8.639548e+02,6.120457e+02
8.649190e+02,6.127089e+02
8.658832e+02,6.103708e+02
8.668475e+02,6.082081e+02
8.678117e+02,6.077901e+02
8.687759e+02,6.087236e+02
8.697402e+02,6.094064e+02
8.707044e+02,6.081569e+02
8.716686e+02,6.076807e+02
8.726329e+02,6.110049e+02
8.735971e+02,6.158875e+02
8.745613e+02,6.179237e+02
8.755256e+02,6.131943e+02
8.764898e+02,6.082090e+02
8.774540e+02,6.070595e+02
8.784183e+02,6.084666e+02
8.793825e+02,6.106251e+02
8.803467e+02,6.130754e+02
8.813110e+02,6.149716e+02
8.822752e+02,6.146255e+02
8.832394e+02,6.129283e+02
8.842037e+02,6.130309e+02
8.851679e+02,6.156931e+02
8.861321e+02,6.185327e+02
8.870964e+02,6.179088e+02
8.880606e+02,6.135400e+02
8.890248e+02,6.105091e+02
8.899891e+02,6.095714e+02
8.909533e+02,6.101685e+02
8.919175e+02,6.120555e+02
8.928818e+02,6.160272e+02
8.938460e+02,6.175251e+02
8.948102e+02,6.140629e+02
8.957745e+02,6.104980e+02
8.967387e+02,6.100773e+02
8.977029e+02,6.124840e+02
8.986672e+02,6.136149e+02
8.996314e+02,6.131681e+02
9.005956e+02,6.120696e+02
9.015599e+02,6.095656e+02
9.025241e+02,6.064935e+02
9.034883e+02,6.050872e+02
9.044526e+02,6.076231e+02
9.054168e+02,6.103734e+02
9.063810e+02,6.118627e+02
9.073453e+02,6.124620e+02
9.083095e+02,6.121221e+02
9.092737e+02,6.101559e+02
9.102380e+02,6.080558e+02
9.112022e+02,6.083762e+02
9.121664e+02,6.098874e+02
9.131307e+02,6.091970e+02
9.140949e+02,6.053991e+02
9.150591e+02,6.013279e+02
9.160234e+02,6.004636e+02
9.169876e+02,6.022005e+02
9.179518e+02,6.045196e+02
9.189161e+02,6.074274e+02
9.198803e+02,6.093734e+02
9.208445e+02,6.083978e+02
9.218088e+02,6.041308e+02
9.227730e+02,6.020693e+02
9.237372e+02,6.030426e+02
9.247015e+02,6.040176e+02
9.256657e+02,6.027650e+02
9.266299e+02,5.991017e+02
9.275942e+02,5.971324e+02
9.285584e+02,5.978308e+02
9.295226e+02,5.988095e+02
9.304869e+02,5.992031e+02
9.314511e+02,5.993640e+02
9.324153e+02,6.001539e+02
9.333796e+02,6.026982e+02
9.343438e+02,6.046136e+02
9.353080e+02,6.048958e+02
9.362723e+02,6.039691e+02
9.372365e+02,6.026478e+02
9.382007e+02,6.010163e+02
9.391650e+02,6.001385e+02
9.401292e+02,6.010363e+02
9.410934e+02,6.025947e+02
9.420577e+02,6.034639e+02
9.430219e+02,6.032435e+02
9.439861e+02,6.023600e+02
9.449504e+02,6.002744e+02
9.459146e+02,5.985950e+02
9.468788e+02,5.998467e+02
9.478431e+02,6.036710e+02
9.488073e+02,6.069648e+02
9.497715e+02,6.069498e+02
9.507358e+02,6.049997e+02
9.517000e+02,6.042045e+02
9.526642e+02,6.046938e+02
9.536285e+02,6.048913e+02
9.545927e+02,6.035245e+02
9.555569e+02,6.010906e+02
9.565212e+02,5.989963e+02
9.574854e+02,5.974188e+02
9.584496e+02,5.972451e+02
9.594139e+02,5.987902e+02
9.603781e+02,6.012204e+02
9.613423e+02,6.029124e+02
9.623066e+02,6.038279e+02
9.632708e+02,6.043787e+02
9.642350e+02,6.048288e+02
9.651993e+02,6.050410e+02
9.661635e+02,6.044178e+02
9.671277e+02,6.017189e+02
9.680920e+02,6.008185e+02
9.690562e+02,6.036085e+02
9.700204e+02,6.061135e+02
9.709847e+02,6.051655e+02
9.719489e+02,5.999736e+02
9.729131e+02,5.964683e+02
9.738774e+02,5.953201e+02
9.748416e+02,5.954218e+02
9.758058e+02,5.967717e+02
9.767701e+02,5.988453e+02
9.777343e+02,5.999216e+02
9.786985e+02,5.977890e+02
9.796628e+02,5.966228e+02
9.806270e+02,5.993008e+02
9.815912e+02,6.036462e+02
9.825555e+02,6.060101e+02
9.835197e+02,6.045108e+02
9.844839e+02,6.026951e+02
9.854482e+02,6.024172e+02
9.864124e+02,6.025212e+02
9.873766e+02,6.011209e+02
9.883409e+02,5.974949e+02
9.893051e+02,5.949048e+02
9.902693e+02,5.966061e+02
9.912336e+02,5.996924e+02
9.921978e+02,6.003732e+02
9.931620e+02,5.983826e+02
9.941263e+02,5.967679e+02
9.950905e+02,5.987090e+02
9.960547e+02,6.017150e+02
9.970190e+02,6.028009e+02
9.979832e+02,6.020092e+02
9.989474e+02,6.001492e+02
9.999117e+02,5.973342e+02
1.000876e+03,5.946180e+02
1.001840e+03,5.935757e+02
1.002804e+03,5.940622e+02
1.003769e+03,5.951914e+02
1.004733e+03,5.965161e+02
1.005697e+03,5.979572e+02
1.006661e+03,5.998984e+02
1.007626e+03,6.020936e+02
1.008590e+03,6.030439e+02
1.009554e+03,6.023008e+02
1.010518e+03,6.008782e+02
1.011482e+03,5.999530e+02
1.012447e+03,5.994783e+02
1.013411e+03,5.994755e+02
1.014375e+03,6.003175e+02
1.015339e+03,6.005899e+02
1.016304e+03,5.987781e+02
1.017268e+03,5.953615e+02
1.018232e+03,5.934954e+02
1.019196e+03,5.932077e+02
1.020161e+03,5.937638e+02
1.021125e+03,5.952910e+02
1.022089e+03,5.973217e+02
1.023053e+03,5.980369e+02
1.024018e+03,5.969209e+02
1.024982e+03,5.957234e+02
1.025946e+03,5.942209e+02
1.026910e+03,5.932928e+02
1.027875e+03,5.948652e+02
1.028839e+03,6.005107e+02
1.029803e+03,6.039583e+02
1.030767e+03,6.045625e+02
1.031731e+03,6.040304e+02
1.032696e+03,6.033583e+02
1.033660e+03,6.025011e+02
1.034624e+03,6.010479e+02
1.035588e+03,5.983434e+02
1.036552e+03,5.966697e+02
1.037517e+03,5.972206e+02
1.038481e+03,5.991705e+02
1.039445e+03,5.999421e+02
1.040409e+03,5.979867e+02
1.041374e+03,5.975538e+02
1.042338e+03,6.010026e+02
1.043302e+03,6.055690e+02
1.044266e+03,6.074231e+02
1.045231e+03,6.045468e+02
1.046195e+03,6.024332e+02
1.047159e+03,6.009681e+02
1.048123e+03,6.005945e+02
1.049088e+03,6.021920e+02
1.050052e+03,6.064345e+02
1.051016e+03,6.088463e+02
1.051980e+03,6.078366e+02
1.052945e+03,6.065060e+02
1.053909e+03,6.051611e+02
1.054873e+03,6.038553e+02
1.055837e+03,6.037707e+02
1.056802e+03,6.078156e+02
1.057766e+03,6.100137e+02
1.058730e+03,6.075357e+02
1.059694e+03,6.035214e+02
1.060658e+03,6.018678e+02
1.061623e+03,6.049141e+02
1.062587e+03,6.068288e+02
1.063551e+03,6.063115e+02
1.064515e+03,6.050253e+02
1.065479e+03,6.038578e+02
1.066444e+03,6.029963e+02
1.067408e+03,6.023856e+02
1.068372e+03,6.013342e+02
1.069336e+03,6.011976e+02
1.070301e+03,6.031259e+02
1.071265e+03,6.061629e+02
1.072229e+03,6.078271e+02
1.073193e+03,6.060916e+02
1.074158e+03,6.048431e+02
1.075122e+03,6.058148e+02
1.076086e+03,6.075206e+02
1.077050e+03,6.081311e+02
1.078015e+03,6.067873e+02
1.078979e+03,6.067281e+02
1.079943e+03,6.101771e+02
1.080907e+03,6.137142e+02
1.081872e+03,6.135168e+02
1.082836e+03,6.091657e+02
1.083800e+03,6.087074e+02
1.084764e+03,6.192451e+02
1.085729e+03,6.288450e+02
1.086693e+03,6.307375e+02
1.087657e+03,6.274026e+02
1.088621e+03,6.258980e+02
1.089585e+03,6.294730e+02
1.090550e+03,6.324875e+02
1.091514e+03,6.339781e+02
1.092478e+03,6.344689e+02
1.093442e+03,6.343895e+02
1.094406e+03,6.338366e+02
1.095371e+03,6.328342e+02
1.096335e+03,6.307438e+02
1.097299e+03,6.284904e+02
1.098263e+03,6.269896e+02
1.099228e+03,6.261038e+02
1.100192e+03,6.240779e+02
1.101156e+03,6.171698e+02
1.102120e+03,6.126586e+02
1.103085e+03,6.157449e+02
1.104049e+03,6.228005e+02
1.105013e+03,6.264310e+02
1.105977e+03,6.225364e+02
1.106942e+03,6.192247e+02
1.107906e+03,6.180552e+02
1.108870e+03,6.178829e+02
1.109834e+03,6.176516e+02
1.110799e+03,6.171683e+02
1.111763e+03,6.171243e+02
1.112727e+03,6.180492e+02
1.113691e+03,6.191868e+02
1.114656e+03,6.201750e+02
1.115620e+03,6.209830e+02
1.116584e+03,6.215141e+02
1.117548e+03,6.213945e+02
1.118512e+03,6.209174e+02
1.119477e+03,6.197252e+02
1.120441e+03,6.184229e+02
1.121405e+03,6.180370e+02
1.122369e+03,6.204338e+02
1.123334e+03,6.209572e+02
1.124298e+03,6.186599e+02
1.125262e+03,6.155199e+02
1.126226e+03,6.126032e+02
1.127191e+03,6.098162e+02
1.128155e+03,6.085529e+02
1.129119e+03,6.102592e+02
1.130083e+03,6.111756e+02
1.131047e+03,6.093137e+02
1.132012e+03,6.055331e+02
1.132976e+03,6.032156e+02
1.133940e+03,6.036195e+02
1.134904e+03,6.027321e+02
1.135869e+03,5.988478e+02
1.136833e+03,5.950657e+02
1.137797e+03,5.952161e+02
1.138761e+03,6.010611e+02
1.139726e+03,6.048986e+02
1.140690e+03,6.063538e+02
1.141654e+03,6.061709e+02
1.142618e+03,6.040111e+02
1.143583e+03,6.004522e+02
1.144547e+03,6.002510e+02
1.145511e+03,6.045599e+02
1.146475e+03,6.076338e+02
1.147439e+03,6.074314e+02
1.148404e+03,6.057654e+02
1.149368e+03,6.061072e+02
1.150332e+03,6.088067e+02
1.151296e+03,6.085677e+02
1.152261e+03,6.039628e+02
1.153225e+03,5.989667e+02
1.154189e+03,5.978627e+02
1.155153e+03,6.003047e+02
1.156118e+03,6.008775e+02
1.157082e+03,5.997143e+02
1.158046e+03,5.991635e+02
1.159010e+03,6.000878e+02
1.159974e+03,6.020106e+02
1.160939e+03,6.042066e+02
1.161903e+03,6.064830e+02
1.162867e+03,6.087996e+02
1.163831e+03,6.111890e+02
1.164796e+03,6.120427e+02
1.165760e+03,6.080469e+02
1.166724e+03,6.017236e+02
1.167688e+03,6.005597e+02
1.168653e+03,6.040663e+02
1.169617e+03,6.066609e+02
1.170581e+03,6.043425e+02
1.171545e+03,6.001141e+02
1.172510e+03,5.979481e+02
1.173474e+03,5.973736e+02
1.174438e+03,5.971661e+02
1.175402e+03,5.968598e+02
1.176366e+03,5.968621e+02
1.177331e+03,5.979120e+02
1.178295e+03,5.993976e+02
1.179259e+03,6.004084e+02
1.180223e+03,6.008177e+02
1.181188e+03,6.011631e+02
1.182152e+03,6.024584e+02
1.183116e+03,6.031849e+02
1.184080e+03,6.020206e+02
1.185045e+03,5.998445e+02
1.186009e+03,5.979815e+02
1.186973e+03,5.969202e+02
1.187937e+03,5.964774e+02
1.188901e+03,5.971619e+02
1.189866e+03,5.978508e+02
1.190830e+03,5.969562e+02
1.191794e+03,5.941793e+02
1.192758e+03,5.931458e+02
1.193723e+03,5.961885e+02
1.194687e+03,5.998522e+02
1.195651e+03,6.035099e+02
1.196615e+03,6.065916e+02
1.197580e+03,6.077787e+02
1.198544e+03,6.050748e+02
1.199508e+03,6.026609e+02
1.200472e+03,6.006441e+02
1.201437e+03,5.997745e+02
1.202401e+03,6.012556e+02
1.203365e+03,6.058582e+02
1.204329e+03,6.077453e+02
1.205293e+03,6.057880e+02
1.206258e+03,6.036790e+02
1.207222e+03,6.028924e+02
1.208186e+03,6.030005e+02
1.209150e+03,6.029173e+02
1.210115e+03,6.024396e+02
1.211079e+03,6.020132e+02
1.212043e+03,6.018093e+02
1.213007e+03,6.015529e+02
1.213972e+03,6.009408e+02
1.214936e+03,6.002657e+02
1.215900e+03,6.005400e+02
1.216864e+03,6.017357e+02
1.217828e+03,6.027721e+02
1.218793e+03,6.030125e+02
1.219757e+03,6.027914e+02
1.220721e+03,6.022764e+02
1.221685e+03,6.018196e+02
1.222650e+03,6.021779e+02
1.223614e+03,6.033793e+02
1.224578e+03,6.047380e+02
1.225542e+03,6.062980e+02
1.226507e+03,6.076964e+02
1.227471e+03,6.080193e+02
1.228435e+03,6.074137e+02
1.229399e+03,6.071451e+02
1.230364e+03,6.091799e+02
1.231328e+03,6.105677e+02
1.232292e+03,6.089509e+02
1.233256e+03,6.065749e+02
1.234220e+03,6.062061e+02
1.235185e+03,6.093655e+02
1.236149e+03,6.117698e+02
1.237113e+03,6.122299e+02
1.238077e+03,6.121233e+02
1.239042e+03,6.113849e+02
1.240006e+03,6.099792e+02
1.240970e+03,6.096952e+02
1.241934e+03,6.116398e+02
1.242899e+03,6.126700e+02
1.243863e+03,6.120983e+02
1.244827e+03,6.107552e+02
1.245791e+03,6.096086e+02
1.246755e+03,6.086599e+02
1.247720e+03,6.077061e+02
1.248684e+03,6.065942e+02
1.249648e+03,6.067199e+02
1.250612e+03,6.094460e+02
1.251577e+03,6.135061e+02
1.252541e+03,6.147537e+02
1.253505e+03,6.134232e+02
1.254469e+03,6.116222e+02
1.255434e+03,6.099611e+02
1.256398e+03,6.090958e+02
1.257362e+03,6.100911e+02
1.258326e+03,6.119601e+02
1.259291e+03,6.133036e+02
1.260255e+03,6.138923e+02
1.261219e+03,6.137303e+02
1.262183e+03,6.126519e+02
1.263147e+03,6.116991e+02
1.264112e+03,6.118168e+02
1.265076e+03,6.123767e+02
1.266040e+03,6.121904e+02
1.267004e+03,6.105922e+02
1.267969e+03,6.098025e+02
1.268933e+03,6.108924e+02
1.269897e+03,6.131849e+02
1.270861e+03,6.164707e+02
1.271826e+03,6.200195e+02
1.272790e+03,6.218653e+02
1.273754e+03,6.212624e+02
1.274718e+03,6.206816e+02
1.275682e+03,6.210603e+02
1.276647e+03,6.216149e+02
1.277611e+03,6.209366e+02
1.278575e+03,6.186391e+02
1.279539e+03,6.176464e+02
1.280504e+03,6.184982e+02
1.281468e+03,6.194369e+02
1.282432e+03,6.190551e+02
1.283396e+03,6.181705e+02
1.284361e+03,6.193743e+02
1.285325e+03,6.218430e+02
1.286289e+03,6.222505e+02
1.287253e+03,6.196176e+02
1.288218e+03,6.172194e+02
1.289182e+03,6.195305e+02
1.290146e+03,6.231177e+02
1.291110e+03,6.235861e+02
1.292074e+03,6.214729e+02
1.293039e+03,6.194651e+02
1.294003e+03,6.182382e+02
1.294967e+03,6.177872e+02
1.295931e+03,6.194626e+02
1.296896e+03,6.214817e+02
1.297860e+03,6.214375e+02
1.298824e+03,6.180334e+02
1.299788e+03,6.166317e+02
1.300753e+03,6.185231e+02
1.301717e+03,6.207176e+02
1.302681e+03,6.222487e+02
1.303645e+03,6.232155e+02
1.304609e+03,6.237091e+02
1.305574e+03,6.232725e+02
1.306538e+03,6.241437e+02
1.307502e+03,6.272472e+02
1.308466e+03,6.302051e+02
1.309431e+03,6.301355e+02
1.310395e+03,6.279144e+02
1.311359e+03,6.260656e+02
1.312323e+03,6.244332e+02
1.313288e+03,6.234407e+02
1.314252e+03,6.237498e+02
1.315216e+03,6.246826e+02
1.316180e+03,6.251552e+02
1.317145e+03,6.258359e+02
1.318109e+03,6.277481e+02
1.319073e+03,6.306666e+02
1.320037e+03,6.325450e+02
1.321001e+03,6.319022e+02
1.321966e+03,6.309410e+02
1.322930e+03,6.304171e+02
1.323894e+03,6.306413e+02
1.324858e+03,6.318378e+02
1.325823e+03,6.353597e+02
1.326787e+03,6.364053e+02
1.327751e+03,6.337206e+02
1.328715e+03,6.307399e+02
1.329680e+03,6.297018e+02
1.330644e+03,6.303400e+02
1.331608e+03,6.317260e+02
1.332572e+03,6.336956e+02
1.333536e+03,6.346380e+02
1.334501e+03,6.338782e+02
1.335465e+03,6.330575e+02
1.336429e+03,6.347813e+02
1.337393e+03,6.376146e+02
1.338358e+03,6.400607e+02
1.339322e+03,6.415734e+02
1.340286e+03,6.408030e+02
1.341250e+03,6.337953e+02
1.342215e+03,6.282540e+02
1.343179e+03,6.290629e+02
1.344143e+03,6.328083e+02
1.345107e+03,6.357211e+02
1.346072e+03,6.373909e+02
1.347036e+03,6.371760e+02
1.348000e+03,6.333539e+02
1.348964e+03,6.306617e+02
1.349928e+03,6.317120e+02
1.350893e+03,6.346048e+02
1.351857e+03,6.339838e+02
1.352821e+03,6.298950e+02
1.353785e+03,6.274286e+02
1.354750e+03,6.271497e+02
1.355714e+03,6.273796e+02
1.356678e+03,6.276947e+02
1.357642e+03,6.275777e+02
1.358607e+03,6.247221e+02
1.359571e+03,6.205888e+02
1.360535e+03,6.187385e+02
1.361499e+03,6.210881e+02
1.362464e+03,6.239691e+02
1.363428e+03,6.259553e+02
1.364392e+03,6.278959e+02
1.365356e+03,6.304564e+02
1.366320e+03,6.331473e+02
1.367285e+03,6.340723e+02
1.368249e+03,6.329899e+02
1.369213e+03,6.311955e+02
1.370177e+03,6.284549e+02
1.371142e+03,6.261005e+02
1.372106e+03,6.263930e+02
1.373070e+03,6.287700e+02
1.374034e+03,6.285383e+02
1.374999e+03,6.261202e+02
1.375963e+03,6.245165e+02
1.376927e+03,6.256108e+02
1.377891e+03,6.271107e+02
1.378855e+03,6.257720e+02
1.379820e+03,6.236713e+02
1.380784e+03,6.243665e+02
1.381748e+03,6.284423e+02
1.382712e+03,6.300724e+02
1.383677e+03,6.240787e+02
1.384641e+03,6.187598e+02
1.385605e+03,6.179596e+02
1.386569e+03,6.186569e+02
1.387534e+03,6.156049e+02
1.388498e+03,6.072945e+02
1.389462e+03,6.048834e+02
1.390426e+03,6.093139e+02
1.391391e+03,6.137411e+02
1.392355e+03,6.139826e+02
1.393319e+03,6.118251e+02
1.394283e+03,6.101676e+02
1.395247e+03,6.087022e+02
1.396212e+03,6.065869e+02
1.397176e+03,6.035701e+02
1.398140e+03,6.016710e+02
1.399104e+03,6.022675e+02
1.400069e+03,6.039339e+02
1.401033e+03,6.066896e+02
1.401997e+03,6.097775e+02
1.402961e+03,6.112831e+02
1.403926e+03,6.105755e+02
1.404890e+03,6.094014e+02
1.405854e+03,6.076182e+02
1.406818e+03,6.064207e+02
1.407782e+03,6.072066e+02
1.408747e+03,6.091790e+02
1.409711e+03,6.077596e+02
1.410675e+03,6.037653e+02
1.411639e+03,6.030158e+02
1.412604e+03,6.077424e+02
1.413568e+03,6.120084e+02
1.414532e+03,6.101565e+02
1.415496e+03,6.067037e+02
1.416461e+03,6.051380e+02
1.417425e+03,6.050931e+02
1.418389e+03,6.048672e+02
1.419353e+03,6.041311e+02
1.420318e+03,6.034391e+02
1.421282e+03,6.036835e+02
1.422246e+03,6.030212e+02
1.423210e+03,5.988603e+02
1.424174e+03,5.923494e+02
1.425139e+03,5.912705e+02
1.426103e+03,5.949828e+02
1.427067e+03,6.000203e+02
1.428031e+03,6.057740e+02
1.428996e+03,6.095792e+02
1.429960e+03,6.068666e+02
1.430924e+03,6.020994e+02
1.431888e+03,6.002265e+02
1.432853e+03,6.008760e+02
1.433817e+03,6.002194e+02
1.434781e+03,5.944617e+02
1.435745e+03,5.921226e+02
1.436709e+03,5.959816e+02
1.437674e+03,6.002717e+02
1.438638e+03,5.994890e+02
1.439602e+03,5.945603e+02
1.440566e+03,5.935142e+02
1.441531e+03,5.959715e+02
1.442495e+03,5.992132e+02
1.443459e+03,6.026643e+02
1.444423e+03,6.040753e+02
1.445388e+03,5.981857e+02
1.446352e+03,5.910898e+02
1.447316e+03,5.906597e+02
1.448280e+03,5.961658e+02
1.449245e+03,5.988962e+02
1.450209e+03,5.929275e+02
1.451173e+03,5.901553e+02
1.452137e+03,5.928328e+02
1.453101e+03,5.967396e+02
1.454066e+03,5.979086e+02
1.455030e+03,5.969009e+02
1.455994e+03,5.990339e+02
1.456958e+03,6.035163e+02
1.457923e+03,6.045471e+02
1.458887e+03,5.989407e+02
1.459851e+03,5.929542e+02
1.460815e+03,5.923931e+02
1.461780e+03,5.935939e+02
1.462744e+03,5.935618e+02
1.463708e+03,5.924318e+02
1.464672e+03,5.920906e+02
1.465636e+03,5.935856e+02
1.466601e+03,5.945511e+02
1.467565e+03,5.945476e+02
1.468529e+03,5.942999e+02
1.469493e+03,5.941769e+02
1.470458e+03,5.941367e+02
1.471422e+03,5.945152e+02
1.472386e+03,5.954907e+02
1.473350e+03,5.977407e+02
1.474315e+03,6.021180e+02
1.475279e+03,6.045931e+02
1.476243e+03,6.013747e+02
1.477207e+03,5.962294e+02
1.478172e+03,5.905547e+02
1.479136e+03,5.855317e+02
1.480100e+03,5.856975e+02
1.481064e+03,5.932968e+02
1.482028e+03,5.971859e+02
1.482993e+03,5.956974e+02
1.483957e+03,5.926907e+02
1.484921e+03,5.904363e+02
1.485885e+03,5.894812e+02
1.486850e+03,5.928392e+02
1.487814e+03,5.977635e+02
1.488778e+03,5.980046e+02
1.489742e+03,5.901412e+02
1.490707e+03,5.838552e+02
1.491671e+03,5.835850e+02
1.492635e+03,5.848190e+02
1.493599e+03,5.855092e+02
1.494563e+03,5.858024e+02
1.495528e+03,5.866701e+02
1.496492e+03,5.879687e+02
1.497456e+03,5.881042e+02
1.498420e+03,5.871144e+02
1.499385e+03,5.861374e+02
1.500349e+03,5.853750e+02
1.501313e+03,5.856667e+02
1.502277e+03,5.894230e+02
1.503242e+03,5.937939e+02
1.504206e+03,5.942653e+02
1.505170e+03,5.884261e+02
1.506134e+03,5.844773e+02
1.507099e+03,5.823658e+02
1.508063e+03,5.828992e+02
1.509027e+03,5.872283e+02
1.509991e+03,5.923544e+02
1.510955e+03,5.926315e+02
1.511920e+03,5.898932e+02
1.512884e+03,5.882773e+02
1.513848e+03,5.883172e+02
1.514812e+03,5.889807e+02
1.515777e+03,5.901813e+02
1.516741e+03,5.905328e+02
1.517705e+03,5.882620e+02
1.518669e+03,5.859728e+02
1.519634e+03,5.864030e+02
1.520598e+03,5.891986e+02
1.521562e+03,5.886230e+02
1.522526e+03,5.847995e+02
1.523490e+03,5.825149e+02
1.524455e+03,5.835621e+02
1.525419e+03,5.857700e+02
1.526383e+03,5.886619e+02
1.527347e+03,5.906027e+02
1.528312e+03,5.891129e+02
1.529276e+03,5.856331e+02
1.530240e+03,5.855242e+02
1.531204e+03,5.908477e+02
1.532169e+03,5.934746e+02
1.533133e+03,5.925359e+02
1.534097e+03,5.900302e+02
1.535061e+03,5.864161e+02
1.536026e+03,5.830535e+02
1.536990e+03,5.831690e+02
1.537954e+03,5.855585e+02
1.538918e+03,5.879724e+02
1.539882e+03,5.898630e+02
1.540847e+03,5.917307e+02
1.541811e+03,5.943112e+02
1.542775e+03,5.956584e+02
1.543739e+03,5.954381e+02
1.544704e+03,5.939392e+02
1.545668e+03,5.903092e+02
1.546632e+03,5.856653e+02
1.547596e+03,5.853488e+02
1.548561e+03,5.891298e+02
1.549525e+03,5.937642e+02
1.550489e+03,5.990049e+02
1.551453e+03,6.021641e+02
1.552417e+03,6.001078e+02
1.553382e+03,5.969338e+02
1.554346e+03,5.961629e+02
1.555310e+03,5.976351e+02
1.556274e+03,5.991519e+02
1.557239e+03,6.006465e+02
1.558203e+03,6.019274e+02
1.559167e+03,6.029933e+02
1.560131e+03,6.032646e+02
1.561096e+03,6.019905e+02
1.562060e+03,6.000735e+02
1.563024e+03,5.966663e+02
1.563988e+03,5.935450e+02
1.564953e+03,5.949766e+02
1.565917e+03,6.038389e+02
1.566881e+03,6.068995e+02
1.567845e+03,6.030779e+02
1.568809e+03,5.994620e+02
1.569774e+03,6.002324e+02
1.570738e+03,6.026893e+02
1.571702e+03,6.035052e+02
1.572666e+03,6.034911e+02
1.573631e+03,6.037790e+02
1.574595e+03,6.046747e+02
1.575559e+03,6.052819e+02
1.576523e+03,6.057836e+02
1.577488e+03,6.054551e+02
1.578452e+03,6.035419e+02
1.579416e+03,6.015665e+02
1.580380e+03,6.023613e+02
1.581344e+03,6.038599e+02
1.582309e+03,6.007432e+02
1.583273e+03,5.953404e+02
1.584237e+03,5.933085e+02
1.585201e+03,5.981146e+02
1.586166e+03,6.015379e+02
1.587130e+03,6.021140e+02
1.588094e+03,6.017708e+02
1.589058e+03,6.012939e+02
1.590023e+03,6.009075e+02
1.590987e+03,6.015925e+02
1.591951e+03,6.025361e+02
1.592915e+03,6.005286e+02
1.593880e+03,5.954678e+02
1.594844e+03,5.914359e+02
1.595808e+03,5.900497e+02
1.596772e+03,5.905040e+02
1.597736e+03,5.938915e+02
1.598701e+03,5.972565e+02
1.599665e+03,5.975476e+02
1.600629e+03,5.956456e+02
1.601593e+03,5.948928e+02
1.602558e+03,5.951671e+02
1.603522e+03,5.964744e+02
1.604486e+03,5.991666e+02
1.605450e+03,6.003962e+02
1.606415e+03,5.985003e+02
1.607379e+03,5.957650e+02
1.608343e+03,5.924384e+02
1.609307e+03,5.892753e+02
1.610271e+03,5.880020e+02
1.611236e+03,5.881086e+02
1.612200e+03,5.877154e+02
1.613164e+03,5.868867e+02
1.614128e+03,5.859122e+02
1.615093e+03,5.839634e+02
1.616057e+03,5.829783e+02
1.617021e+03,5.859200e+02
1.617985e+03,5.869422e+02
1.618950e+03,5.812051e+02
1.619914e+03,5.715243e+02
1.620878e+03,5.695694e+02
1.621842e+03,5.736178e+02
1.622807e+03,5.770764e+02
1.623771e+03,5.786981e+02
1.624735e+03,5.792887e+02
1.625699e+03,5.781141e+02
1.626663e+03,5.769532e+02
1.627628e+03,5.767991e+02
1.628592e+03,5.761388e+02
1.629556e+03,5.725593e+02
1.630520e+03,5.672685e+02
1.631485e+03,5.668309e+02
1.632449e+03,5.700469e+02
1.633413e+03,5.715739e+02
1.634377e+03,5.680488e+02
1.635342e+03,5.661588e+02
1.636306e+03,5.715029e+02
1.637270e+03,5.754952e+02
1.638234e+03,5.736473e+02
1.639198e+03,5.686461e+02
1.640163e+03,5.662366e+02
1.641127e+03,5.660453e+02
1.642091e+03,5.665746e+02
1.643055e+03,5.674197e+02
1.644020e+03,5.685212e+02
1.644984e+03,5.711652e+02
1.645948e+03,5.716851e+02
1.646912e+03,5.689948e+02
1.647877e+03,5.651984e+02
1.648841e+03,5.616680e+02
1.649805e+03,5.587093e+02
1.650769e+03,5.571853e+02
1.651734e+03,5.568665e+02
1.652698e+03,5.574946e+02
1.653662e+03,5.589470e+02
1.654626e+03,5.604735e+02
1.655590e+03,5.630317e+02
1.656555e+03,5.633318e+02
1.657519e+03,5.597247e+02
1.658483e+03,5.561066e+02
1.659447e+03,5.596577e+02
1.660412e+03,5.655818e+02
1.661376e+03,5.640592e+02
1.662340e+03,5.570520e+02
1.663304e+03,5.516877e+02
1.664269e+03,5.501024e+02
1.665233e+03,5.500497e+02
1.666197e+03,5.520081e+02
1.667161e+03,5.529822e+02
1.668125e+03,5.507429e+02
1.669090e+03,5.482792e+02
1.670054e+03,5.520872e+02
1.671018e+03,5.574457e+02
1.671982e+03,5.574063e+02
1.672947e+03,5.516917e+02
1.673911e+03,5.481750e+02
1.674875e+03,5.469030e+02
1.675839e+03,5.483045e+02
1.676804e+03,5.530664e+02
1.677768e+03,5.569837e+02
1.678732e+03,5.545104e+02
1.679696e+03,5.508532e+02
1.680661e+03,5.512454e+02
1.681625e+03,5.530960e+02
1.682589e+03,5.530290e+02
1.683553e+03,5.511289e+02
1.684517e+03,5.487039e+02
1.685482e+03,5.457385e+02
1.686446e+03,5.440401e+02
1.687410e+03,5.441462e+02
1.688374e+03,5.458002e+02
1.689339e+03,5.507113e+02
1.690303e+03,5.549785e+02
1.691267e+03,5.560140e+02
1.692231e+03,5.551690e+02
1.693196e+03,5.543894e+02
1.694160e+03,5.533871e+02
1.695124e+03,5.505038e+02
1.696088e+03,5.464314e+02
1.697052e+03,5.446122e+02
1.698017e+03,5.481327e+02
1.698981e+03,5.504991e+02
1.699945e+03,5.489651e+02
1.700909e+03,5.472619e+02
1.701874e+03,5.478969e+02
1.702838e+03,5.499547e+02
1.703802e+03,5.510900e+02
1.704766e+03,5.511857e+02
1.705731e+03,5.499459e+02
1.706695e+03,5.476996e+02
1.707659e+03,5.476496e+02
1.708623e+03,5.518200e+02
1.709588e+03,5.546689e+02
1.710552e+03,5.550754e+02
1.711516e+03,5.545938e+02
1.712480e+03,5.554738e+02
1.713444e+03,5.555731e+02
1.714409e+03,5.508491e+02
1.715373e+03,5.449921e+02
1.716337e+03,5.441403e+02
1.717301e+03,5.486110e+02
1.718266e+03,5.486637e+02
1.719230e+03,5.443021e+02
1.720194e+03,5.411632e+02
1.721158e+03,5.407211e+02
1.722123e+03,5.417594e+02
1.723087e+03,5.442401e+02
1.724051e+03,5.471641e+02
1.725015e+03,5.512966e+02
1.725979e+03,5.544547e+02
1.726944e+03,5.518692e+02
1.727908e+03,5.454247e+02
1.728872e+03,5.433713e+02
1.729836e+03,5.447180e+02
1.730801e+03,5.456331e+02
1.731765e+03,5.449222e+02
1.732729e+03,5.433103e+02
1.733693e+03,5.400290e+02
1.734658e+03,5.385499e+02
1.735622e+03,5.408825e+02
1.736586e+03,5.444332e+02
1.737550e+03,5.455659e+02
1.738515e+03,5.456727e+02
1.739479e+03,5.465037e+02
1.740443e+03,5.479606e+02
1.741407e+03,5.487511e+02
1.742371e+03,5.488147e+02
1.743336e+03,5.491250e+02
1.744300e+03,5.496757e+02
1.745264e+03,5.489440e+02
1.746228e+03,5.446423e+02
1.747193e+03,5.410374e+02
1.748157e+03,5.406526e+02
1.749121e+03,5.420667e+02
1.750085e+03,5.443528e+02
1.751050e+03,5.463928e+02
1.752014e+03,5.453349e+02
1.752978e+03,5.426691e+02
1.753942e+03,5.416851e+02
1.754906e+03,5.428731e+02
1.755871e+03,5.447697e+02
1.756835e+03,5.474529e+02
1.757799e+03,5.490226e+02
1.758763e+03,5.498613e+02
1.759728e+03,5.491523e+02
1.760692e+03,5.433178e+02
1.761656e+03,5.380306e+02
1.762620e+03,5.403969e+02
1.763585e+03,5.457371e+02
1.764549e+03,5.467209e+02
1.765513e+03,5.431806e+02
1.766477e+03,5.420368e+02
1.767442e+03,5.429559e+02
1.768406e+03,5.426386e+02
1.769370e+03,5.396890e+02
1.770334e+03,5.385408e+02
1.771298e+03,5.453679e+02
1.772263e+03,5.470695e+02
1.773227e+03,5.382747e+02
1.774191e+03,5.277824e+02
1.775155e+03,5.277335e+02
1.776120e+03,5.332386e+02
1.777084e+03,5.389969e+02
1.778048e+03,5.438526e+02
1.779012e+03,5.454108e+02
1.779977e+03,5.429651e+02
1.780941e+03,5.415717e+02
1.781905e+03,5.409568e+02
1.782869e+03,5.398558e+02
1.783833e+03,5.373278e+02
1.784798e+03,5.356581e+02
1.785762e+03,5.375698e+02
1.786726e+03,5.389103e+02
1.787690e+03,5.373334e+02
1.788655e+03,5.348180e+02
1.789619e+03,5.350827e+02
1.790583e+03,5.370152e+02
1.791547e+03,5.385267e+02
1.792512e+03,5.394652e+02
1.793476e+03,5.397354e+02
1.794440e+03,5.385544e+02
1.795404e+03,5.391372e+02
1.796369e+03,5.415648e+02
1.797333e+03,5.423331e+02
1.798297e+03,5.379229e+02
1.799261e+03,5.341551e+02
1.800225e+03,5.363798e+02
1.801190e+03,5.389343e+02
1.802154e+03,5.380572e+02
1.803118e+03,5.351769e+02
1.804082e+03,5.342594e+02
1.805047e+03,5.347577e+02
1.806011e+03,5.351007e+02
1.806975e+03,5.350938e+02
1.807939e+03,5.354332e+02
1.808904e+03,5.366292e+02
1.809868e+03,5.357094e+02
1.810832e+03,5.324246e+02
1.811796e+03,5.293294e+02
1.812760e+03,5.278130e+02
1.813725e+03,5.275201e+02
1.814689e+03,5.291368e+02
1.815653e+03,5.310743e+02
1.816617e+03,5.317881e+02
1.817582e+03,5.321619e+02
1.818546e+03,5.367527e+02
1.819510e+03,5.425390e+02
1.820474e+03,5.418047e+02
1.821439e+03,5.334997e+02
1.822403e+03,5.292003e+02
1.823367e+03,5.304385e+02
1.824331e+03,5.323712e+02
1.825296e+03,5.341595e+02
1.826260e+03,5.351764e+02
1.827224e+03,5.349835e+02
1.828188e+03,5.347294e+02
1.829152e+03,5.342294e+02
1.830117e+03,5.342003e+02
1.831081e+03,5.359272e+02
1.832045e+03,5.380482e+02
1.833009e+03,5.359901e+02
1.833974e+03,5.325518e+02
1.834938e+03,5.329869e+02
1.835902e+03,5.386130e+02
1.836866e+03,5.394138e+02
1.837831e+03,5.350153e+02
1.838795e+03,5.298651e+02
1.839759e+03,5.249790e+02
1.840723e+03,5.228608e+02
1.841688e+03,5.267579e+02
1.842652e+03,5.315914e+02
1.843616e+03,5.362307e+02
1.844580e+03,5.389417e+02
1.845544e+03,5.378536e+02
1.846509e+03,5.341956e+02
1.847473e+03,5.275324e+02
1.848437e+03,5.208578e+02
1.849401e+03,5.210045e+02
1.850366e+03,5.279930e+02
1.851330e+03,5.311629e+02
1.852294e+03,5.309825e+02
1.853258e+03,5.297651e+02
1.854223e+03,5.279116e+02
1.855187e+03,5.268973e+02
1.856151e+03,5.278702e+02
1.857115e+03,5.284954e+02
1.858079e+03,5.282067e+02
1.859044e+03,5.275096e+02
1.860008e+03,5.265286e+02
1.860972e+03,5.262919e+02
1.861936e+03,5.288842e+02
1.862901e+03,5.320810e+02
1.863865e+03,5.326218e+02
1.864829e+03,5.303644e+02
1.865793e+03,5.258130e+02
1.866758e+03,5.203936e+02
1.867722e+03,5.180153e+02
1.868686e+03,5.201428e+02
1.869650e+03,5.222669e+02
1.870615e+03,5.239484e+02
1.871579e+03,5.249679e+02
1.872543e+03,5.254576e+02
1.873507e+03,5.262729e+02
1.874471e+03,5.289975e+02
1.875436e+03,5.296856e+02
1.876400e+03,5.256096e+02
1.877364e+03,5.211404e+02
1.878328e+03,5.220600e+02
1.879293e+03,5.254869e+02
1.880257e+03,5.256358e+02
1.881221e+03,5.237922e+02
1.882185e+03,5.233242e+02
1.883150e+03,5.246061e+02
1.884114e+03,5.241286e+02
1.885078e+03,5.220876e+02
1.886042e+03,5.209376e+02
1.887006e+03,5.214389e+02
1.887971e+03,5.221177e+02
1.888935e+03,5.230604e+02
1.889899e+03,5.237347e+02
1.890863e+03,5.237424e+02
1.891828e+03,5.230706e+02
1.892792e+03,5.220599e+02
1.893756e+03,5.205182e+02
1.894720e+03,5.177946e+02
1.895685e+03,5.157609e+02
1.896649e+03,5.158653e+02
1.897613e+03,5.176458e+02
1.898577e+03,5.214999e+02
1.899542e+03,5.260660e+02
1.900506e+03,5.281332e+02
1.901470e+03,5.269843e+02
1.902434e+03,5.248156e+02
1.903398e+03,5.216896e+02
1.904363e+03,5.172908e+02
1.905327e+03,5.111306e+02
1.906291e+03,5.097588e+02
1.907255e+03,5.218382e+02
1.908220e+03,5.300507e+02
1.909184e+03,5.311135e+02
1.910148e+03,5.283975e+02
1.911112e+03,5.224532e+02
1.912077e+03,5.177217e+02
1.913041e+03,5.191142e+02
1.914005e+03,5.229117e+02
1.914969e+03,5.256260e+02
1.915933e+03,5.273004e+02
1.916898e+03,5.278417e+02
1.917862e+03,5.276464e+02
1.918826e+03,5.271207e+02
1.919790e+03,5.264611e+02
1.920755e+03,5.264277e+02
1.921719e+03,5.267188e+02
1.922683e+03,5.274887e+02
1.923647e+03,5.289774e+02
1.924612e+03,5.298710e+02
1.925576e+03,5.284460e+02
1.926540e+03,5.287187e+02
1.927504e+03,5.314828e+02
1.928469e+03,5.327595e+02
1.929433e+03,5.257379e+02
1.930397e+03,5.195978e+02
1.931361e+03,5.237343e+02
1.932325e+03,5.293199e+02
1.933290e+03,5.294249e+02
1.934254e+03,5.267108e+02
1.935218e+03,5.273087e+02
1.936182e+03,5.283774e+02
1.937147e+03,5.249114e+02
1.938111e+03,5.177136e+02
1.939075e+03,5.141041e+02
1.940039e+03,5.139805e+02
1.941004e+03,5.155899e+02
1.941968e+03,5.182188e+02
1.942932e+03,5.201193e+02
1.943896e+03,5.207764e+02
1.944860e+03,5.219748e+02
1.945825e+03,5.242352e+02
1.946789e+03,5.245401e+02
1.947753e+03,5.172134e+02
1.948717e+03,5.120552e+02
1.949682e+03,5.142142e+02
1.950646e+03,5.170527e+02
1.951610e+03,5.165670e+02
1.952574e+03,5.148921e+02
1.953539e+03,5.153729e+02
1.954503e+03,5.160605e+02
1.955467e+03,5.146227e+02
1.956431e+03,5.123092e+02
1.957396e+03,5.118684e+02
1.958360e+03,5.130167e+02
1.959324e+03,5.162912e+02
1.960288e+03,5.212078e+02
1.961252e+03,5.238969e+02
1.962217e+03,5.238965e+02
1.963181e+03,5.211923e+02
1.964145e+03,5.162542e+02
1.965109e+03,5.133676e+02
1.966074e+03,5.166115e+02
1.967038e+03,5.187623e+02
1.968002e+03,5.186670e+02
1.968966e+03,5.174717e+02
1.969931e+03,5.151606e+02
1.970895e+03,5.137307e+02
1.971859e+03,5.172189e+02
1.972823e+03,5.195830e+02
1.973787e+03,5.174490e+02
1.974752e+03,5.139711e+02
1.975716e+03,5.143922e+02
1.976680e+03,5.156075e+02
1.977644e+03,5.135713e+02
1.978609e+03,5.110274e+02
1.979573e+03,5.130174e+02
1.980537e+03,5.176589e+02
1.981501e+03,5.183840e+02
1.982466e+03,5.166565e+02
1.983430e+03,5.173280e+02
1.984394e+03,5.211214e+02
1.985358e+03,5.217905e+02
1.986323e+03,5.198079e+02
1.987287e+03,5.188143e+02
1.988251e+03,5.203478e+02
1.989215e+03,5.191896e+02
1.990179e+03,5.143770e+02
1.991144e+03,5.100189e+02
1.992108e+03,5.070971e+02
1.993072e+03,5.066131e+02
1.994036e+03,5.126859e+02
1.995001e+03,5.150822e+02
1.995965e+03,5.097980e+02
1.996929e+03,5.051763e+02
1.997893e+03,5.118540e+02
1.998858e+03,5.193275e+02
1.999822e+03,5.166895e+02
2.000786e+03,5.117075e+02
2.001750e+03,5.123781e+02
2.002714e+03,5.153351e+02
2.003679e+03,5.097834e+02
2.004643e+03,5.014573e+02
2.005607e+03,5.007396e+02
2.006571e+03,5.058265e+02
2.007536e+03,5.088972e+02
2.008500e+03,5.101681e+02
2.009464e+03,5.099759e+02
2.010428e+03,5.084993e+02
2.011393e+03,5.054716e+02
2.012357e+03,5.005468e+02
2.013321e+03,5.004306e+02
2.014285e+03,5.049073e+02
2.015250e+03,5.093803e+02
2.016214e+03,5.138723e+02
2.017178e+03,5.130453e+02
2.018142e+03,5.063109e+02
2.019106e+03,5.005478e+02
2.020071e+03,4.985370e+02
2.021035e+03,5.000673e+02
2.021999e+03,5.081381e+02
2.022963e+03,5.133961e+02
2.023928e+03,5.119993e+02
2.024892e+03,5.084212e+02
2.025856e+03,5.070550e+02
2.026820e+03,5.058831e+02
2.027785e+03,5.027528e+02
2.028749e+03,5.003180e+02
2.029713e+03,5.047107e+02
2.030677e+03,5.106640e+02
2.031641e+03,5.100368e+02
2.032606e+03,5.059737e+02
2.033570e+03,5.035305e+02
2.034534e+03,5.029560e+02
2.035498e+03,5.087201e+02
2.036463e+03,5.166847e+02
2.037427e+03,5.155722e+02
2.038391e+03,5.056442e+02
2.039355e+03,4.992298e+02
2.040320e+03,4.961997e+02
2.041284e+03,4.962989e+02
2.042248e+03,4.994976e+02
2.043212e+03,5.012583e+02
2.044177e+03,5.012340e+02
2.045141e+03,5.038905e+02
2.046105e+03,5.096780e+02
2.047069e+03,5.139066e+02
2.048033e+03,5.141031e+02
2.048998e+03,5.111773e+02
2.049962e+03,5.050237e+02
2.050926e+03,5.004713e+02
2.051890e+03,5.014453e+02
2.052854e+03,5.037402e+02
2.053819e+03,5.063761e+02
2.054783e+03,5.080854e+02
2.055747e+03,5.084168e+02
2.056711e+03,5.083656e+02
2.057676e+03,5.099229e+02
2.058640e+03,5.092917e+02
2.059604e+03,5.027256e+02
2.060568e+03,4.961668e+02
2.061533e+03,5.010904e+02
2.062497e+03,5.087151e+02
2.063461e+03,5.107766e+02
2.064425e+03,5.091212e+02
2.065390e+03,5.043962e+02
2.066354e+03,4.988721e+02
2.067318e+03,4.976738e+02
2.068282e+03,4.989731e+02
2.069247e+03,4.978319e+02
2.070211e+03,4.948838e+02
2.071175e+03,4.972133e+02
2.072139e+03,5.017337e+02
2.073104e+03,4.994351e+02
2.074068e+03,4.900706e+02
2.075032e+03,4.874420e+02
2.075996e+03,4.900892e+02
2.076960e+03,4.931998e+02
2.077925e+03,4.957216e+02
2.078889e+03,4.947654e+02
2.079853e+03,4.900724e+02
2.080817e+03,4.902133e+02
2.081782e+03,4.957468e+02
2.082746e+03,4.985124e+02
2.083710e+03,4.936113e+02
2.084674e+03,4.929403e+02
2.085639e+03,4.974002e+02
2.086603e+03,5.011787e+02
2.087567e+03,4.991570e+02
2.088531e+03,4.980829e+02
2.089496e+03,4.990757e+02
2.090460e+03,4.984604e+02
2.091424e+03,4.947142e+02
2.092388e+03,4.919110e+02
2.093353e+03,4.924715e+02
2.094317e+03,4.941771e+02
2.095281e+03,4.961045e+02
2.096245e+03,4.979656e+02
2.097209e+03,5.013007e+02
2.098174e+03,5.017380e+02
2.099138e+03,4.973893e+02
2.100102e+03,4.916079e+02
2.101066e+03,4.858781e+02
2.102031e+03,4.825907e+02
2.102995e+03,4.873398e+02
2.103959e+03,4.920254e+02
2.104923e+03,4.884920e+02
2.105887e+03,4.827001e+02
2.106852e+03,4.838460e+02
2.107816e+03,4.874085e+02
2.108780e+03,4.894169e+02
2.109744e+03,4.893428e+02
2.110708e+03,4.837538e+02
2.111673e+03,4.774974e+02
2.112637e+03,4.777197e+02
2.113601e+03,4.823666e+02
2.114565e+03,4.901954e+02
2.115530e+03,4.980511e+02
2.116494e+03,4.976498e+02
2.117458e+03,4.912763e+02
2.118422e+03,4.866569e+02
2.119387e+03,4.839629e+02
2.120351e+03,4.891469e+02
2.121315e+03,4.990504e+02
2.122279e+03,5.040941e+02
2.123244e+03,5.037211e+02
2.124208e+03,4.992711e+02
2.125172e+03,4.925118e+02
2.126136e+03,4.892064e+02
2.127101e+03,4.911174e+02
2.128065e+03,4.914085e+02
2.129029e+03,4.902246e+02
2.129993e+03,4.895978e+02
2.130958e+03,4.894373e+02
2.131922e+03,4.889914e+02
2.132886e+03,4.883399e+02
2.133850e+03,4.878009e+02
2.134814e+03,4.878814e+02
2.135779e+03,4.885092e+02
2.136743e+03,4.897399e+02
2.137707e+03,4.891717e+02
2.138671e+03,4.870844e+02
2.139636e+03,4.878016e+02
2.140600e+03,4.971808e+02
2.141564e+03,5.000031e+02
2.142528e+03,4.950674e+02
2.143493e+03,4.928266e+02
2.144457e+03,4.990040e+02
2.145421e+03,4.995374e+02
2.146385e+03,4.889879e+02
2.147350e+03,4.828419e+02
2.148314e+03,4.860381e+02
2.149278e+03,4.897686e+02
2.150242e+03,4.868154e+02
2.151207e+03,4.847892e+02
2.152171e+03,4.846845e+02
2.153135e+03,4.860097e+02
2.154099e+03,4.907150e+02
2.155063e+03,4.947949e+02
2.156028e+03,4.980887e+02
2.156992e+03,4.980758e+02
2.157956e+03,4.881792e+02
2.158920e+03,4.811744e+02
2.159885e+03,4.838114e+02
2.160849e+03,4.882582e+02
2.161813e+03,4.916409e+02
2.162777e+03,4.934673e+02
2.163741e+03,4.929568e+02
2.164706e+03,4.909356e+02
2.165670e+03,4.873896e+02
2.166634e+03,4.859086e+02
2.167598e+03,4.943040e+02
2.168563e+03,4.988440e+02
2.169527e+03,4.920150e+02
2.170491e+03,4.834006e+02
2.171455e+03,4.839460e+02
2.172420e+03,4.870255e+02
2.173384e+03,4.892497e+02
2.174348e+03,4.904175e+02
2.175312e+03,4.900172e+02
2.176277e+03,4.883339e+02
2.177241e+03,4.845832e+02
2.178205e+03,4.812680e+02
2.179169e+03,4.802542e+02
2.180134e+03,4.808828e+02
2.181098e+03,4.823277e+02
2.182062e+03,4.843139e+02
2.183026e+03,4.864505e+02
2.183990e+03,4.881223e+02
2.184955e+03,4.890172e+02
2.185919e+03,4.882804e+02
2.186883e+03,4.836945e+02
2.187847e+03,4.794472e+02
2.188812e+03,4.837215e+02
2.189776e+03,4.888112e+02
2.190740e+03,4.840611e+02
2.191704e+03,4.770645e+02
2.192668e+03,4.751175e+02
2.193633e+03,4.754546e+02
2.194597e+03,4.737651e+02
2.195561e+03,4.726961e+02
2.196525e+03,4.746849e+02
2.197490e+03,4.778828e+02
2.198454e+03,4.802174e+02
2.199418e+03,4.804370e+02
2.200382e+03,4.764452e+02
2.201347e+03,4.728574e+02
2.202311e+03,4.794713e+02
2.203275e+03,4.881349e+02
2.204239e+03,4.898576e+02
2.205204e+03,4.880363e+02
2.206168e+03,4.880219e+02
2.207132e+03,4.880230e+02
2.208096e+03,4.843675e+02
2.209061e+03,4.797058e+02
2.210025e+03,4.765865e+02
2.210989e+03,4.753569e+02
2.211953e+03,4.782514e+02
2.212917e+03,4.827307e+02
2.213882e+03,4.848310e+02
2.214846e+03,4.853266e+02
2.215810e+03,4.857495e+02
2.216774e+03,4.863438e+02
2.217739e+03,4.892130e+02
2.218703e+03,4.914843e+02
2.219667e+03,4.853121e+02
2.220631e+03,4.782075e+02
2.221595e+03,4.779884e+02
2.222560e+03,4.799200e+02
2.223524e+03,4.766564e+02
2.224488e+03,4.725590e+02
2.225452e+03,4.731475e+02
2.226417e+03,4.759124e+02
2.227381e+03,4.804927e+02
2.228345e+03,4.838963e+02
2.229309e+03,4.793482e+02
2.230274e+03,4.732874e+02
2.231238e+03,4.713332e+02
2.232202e+03,4.718072e+02
2.233166e+03,4.740084e+02
2.234131e+03,4.762382e+02
2.235095e+03,4.771270e+02
2.236059e+03,4.769951e+02
2.237023e+03,4.746137e+02
2.237988e+03,4.735144e+02
2.238952e+03,4.769755e+02
2.239916e+03,4.798782e+02
2.240880e+03,4.744765e+02
2.241844e+03,4.676558e+02
2.242809e+03,4.633100e+02
2.243773e+03,4.621510e+02
2.244737e+03,4.679170e+02
2.245701e+03,4.730343e+02
2.246666e+03,4.688513e+02
2.247630e+03,4.650215e+02
2.248594e+03,4.699022e+02
2.249558e+03,4.765006e+02
2.250522e+03,4.782840e+02
2.251487e+03,4.779458e+02
2.252451e+03,4.754752e+02
2.253415e+03,4.727090e+02
2.254379e+03,4.719701e+02
2.255344e+03,4.730732e+02
2.256308e+03,4.767251e+02
2.257272e+03,4.790926e+02
2.258236e+03,4.733575e+02
2.259201e+03,4.705513e+02
2.260165e+03,4.748635e+02
2.261129e+03,4.783228e+02
2.262093e+03,4.708833e+02
2.263058e+03,4.659381e+02
2.264022e+03,4.677979e+02
2.264986e+03,4.714103e+02
2.265950e+03,4.741934e+02
2.266915e+03,4.753643e+02
2.267879e+03,4.742279e+02
2.268843e+03,4.726776e+02
2.269807e+03,4.723873e+02
2.270771e+03,4.710117e+02
2.271736e+03,4.668853e+02
2.272700e+03,4.659756e+02
2.273664e+03,4.700331e+02
2.274628e+03,4.720644e+02
2.275593e+03,4.670955e+02
2.276557e+03,4.656818e+02
2.277521e+03,4.698379e+02
2.278485e+03,4.735902e+02
2.279449e+03,4.741524e+02
2.280414e+03,4.730012e+02
2.281378e+03,4.702601e+02
2.282342e+03,4.685847e+02
2.283306e+03,4.702962e+02
2.284271e+03,4.697007e+02
2.285235e+03,4.668522e+02
2.286199e+03,4.637940e+02
2.287163e+03,4.616043e+02
2.288128e+03,4.613513e+02
2.289092e+03,4.624255e+02
2.290056e+03,4.632012e+02
2.291020e+03,4.634389e+02
2.291985e+03,4.638555e+02
2.292949e+03,4.647318e+02
2.293913e+03,4.643694e+02
2.294877e+03,4.629940e+02
2.295842e+03,4.665020e+02
2.296806e+03,4.735258e+02
2.297770e+03,4.731342e+02
2.298734e+03,4.671670e+02
2.299698e+03,4.666586e+02
2.300663e+03,4.708689e+02
2.301627e+03,4.686639e+02
2.302591e+03,4.626309e+02
2.303555e+03,4.600699e+02
2.304520e+03,4.601940e+02
2.305484e+03,4.565107e+02
2.306448e+03,4.525768e+02
2.307412e+03,4.550927e+02
2.308376e+03,4.608414e+02
2.309341e+03,4.624947e+02
2.310305e+03,4.617437e+02
2.311269e+03,4.607816e+02
2.312233e+03,4.600426e+02
2.313198e+03,4.577423e+02
2.314162e+03,4.572939e+02
2.315126e+03,4.654893e+02
2.316090e+03,4.735580e+02
2.317055e+03,4.712842e+02
2.318019e+03,4.654149e+02
2.318983e+03,4.597260e+02
2.319947e+03,4.564134e+02
2.320912e+03,4.590860e+02
2.321876e+03,4.628786e+02
2.322840e+03,4.646546e+02
2.323804e+03,4.640816e+02
2.324769e+03,4.593984e+02
2.325733e+03,4.573284e+02
2.326697e+03,4.648582e+02
2.327661e+03,4.706833e+02
2.328625e+03,4.712971e+02
2.329590e+03,4.694457e+02
2.330554e+03,4.662731e+02
2.331518e+03,4.629813e+02
2.332482e+03,4.595756e+02
2.333447e+03,4.588073e+02
2.334411e+03,4.648179e+02
2.335375e+03,4.644506e+02
2.336339e+03,4.573742e+02
2.337303e+03,4.531334e+02
2.338268e+03,4.557351e+02
2.339232e+03,4.607623e+02
2.340196e+03,4.675637e+02
2.341160e+03,4.709863e+02
2.342125e+03,4.693559e+02
2.343089e+03,4.673574e+02
2.344053e+03,4.646543e+02
2.345017e+03,4.625107e+02
2.345982e+03,4.612628e+02
2.346946e+03,4.604233e+02
2.347910e+03,4.602326e+02
2.348874e+03,4.602931e+02
2.349839e+03,4.601910e+02
2.350803e+03,4.597863e+02
2.351767e+03,4.597498e+02
2.352731e+03,4.620875e+02
2.353696e+03,4.649019e+02
2.354660e+03,4.645013e+02
2.355624e+03,4.621521e+02
2.356588e+03,4.582341e+02
2.357552e+03,4.566542e+02
2.358517e+03,4.620816e+02
2.359481e+03,4.696639e+02
2.360445e+03,4.764193e+02
2.361409e+03,4.775011e+02
2.362374e+03,4.682007e+02
2.363338e+03,4.585532e+02
2.364302e+03,4.597156e+02
2.365266e+03,4.617907e+02
2.366230e+03,4.620730e+02
2.367195e+03,4.605686e+02
2.368159e+03,4.548658e+02
2.369123e+03,4.516605e+02
2.370087e+03,4.522842e+02
2.371052e+03,4.562487e+02
2.372016e+03,4.663166e+02
2.372980e+03,4.698698e+02
2.373944e+03,4.666375e+02
2.374909e+03,4.641263e+02
2.375873e+03,4.650300e+02
2.376837e+03,4.659546e+02
2.377801e+03,4.662716e+02
2.378766e+03,4.611707e+02
2.379730e+03,4.508139e+02
2.380694e+03,4.466911e+02
2.381658e+03,4.479120e+02
2.382623e+03,4.537660e+02
2.383587e+03,4.611674e+02
2.384551e+03,4.608600e+02
2.385515e+03,4.570213e+02
2.386479e+03,4.577707e+02
2.387444e+03,4.599055e+02
2.388408e+03,4.586339e+02
2.389372e+03,4.556552e+02
2.390336e+03,4.507334e+02
2.391301e+03,4.478573e+02
2.392265e+03,4.547045e+02
2.393229e+03,4.590771e+02
2.394193e+03,4.525003e+02
2.395157e+03,4.456184e+02
2.396122e+03,4.447530e+02
2.397086e+03,4.460305e+02
2.398050e+03,4.483999e+02
2.399014e+03,4.508633e+02
2.399979e+03,4.529775e+02
2.400943e+03,4.552768e+02
2.401907e+03,4.578280e+02
2.402871e+03,4.579917e+02
2.403836e+03,4.552909e+02
2.404800e+03,4.543014e+02
2.405764e+03,4.550914e+02
2.406728e+03,4.541398e+02
2.407693e+03,4.515444e+02
2.408657e+03,4.523936e+02
2.409621e+03,4.557433e+02
2.410585e+03,4.543707e+02
2.411550e+03,4.503233e+02
2.412514e+03,4.492110e+02
2.413478e+03,4.499608e+02
2.414442e+03,4.488614e+02
2.415406e+03,4.494628e+02
2.416371e+03,4.573292e+02
2.417335e+03,4.650962e+02
2.418299e+03,4.595715e+02
2.419263e+03,4.519489e+02
2.420228e+03,4.472740e+02
2.421192e+03,4.462701e+02
2.422156e+03,4.547937e+02
2.423120e+03,4.580133e+02
2.424084e+03,4.513206e+02
2.425049e+03,4.458303e+02
2.426013e+03,4.486955e+02
2.426977e+03,4.521913e+02
2.427941e+03,4.559307e+02
2.428906e+03,4.596262e+02
2.429870e+03,4.637525e+02
2.430834e+03,4.587514e+02
2.431798e+03,4.472573e+02
2.432763e+03,4.440652e+02
2.433727e+03,4.489977e+02
2.434691e+03,4.531977e+02
2.435655e+03,4.558008e+02
2.436620e+03,4.544917e+02
2.437584e+03,4.513883e+02
2.438548e+03,4.515768e+02
2.439512e+03,4.536403e+02
2.440477e+03,4.565518e+02
2.441441e+03,4.577725e+02
2.442405e+03,4.518124e+02
2.443369e+03,4.475231e+02
2.444333e+03,4.493786e+02
2.445298e+03,4.523328e+02
2.446262e+03,4.522430e+02
2.447226e+03,4.515668e+02
2.448190e+03,4.510242e+02
2.449155e+03,4.500264e+02
2.450119e+03,4.465587e+02
2.451083e+03,4.491769e+02
2.452047e+03,4.566039e+02
2.453011e+03,4.567779e+02
2.453976e+03,4.465585e+02
2.454940e+03,4.448162e+02
2.455904e+03,4.487384e+02
2.456868e+03,4.478791e+02
2.457833e+03,4.437245e+02
2.458797e+03,4.447688e+02
2.459761e+03,4.484710e+02
2.460725e+03,4.513787e+02
2.461690e+03,4.532238e+02
2.462654e+03,4.541828e+02
2.463618e+03,4.529176e+02
2.464582e+03,4.481134e+02
2.465547e+03,4.453409e+02
2.466511e+03,4.521946e+02
2.467475e+03,4.557775e+02
2.468439e+03,4.530675e+02
2.469404e+03,4.500547e+02
2.470368e+03,4.512553e+02
2.471332e+03,4.513412e+02
2.472296e+03,4.499729e+02
2.473260e+03,4.483886e+02
2.474225e+03,4.469449e+02
2.475189e+03,4.468228e+02
2.476153e+03,4.477321e+02
2.477117e+03,4.469794e+02
2.478082e+03,4.455714e+02
2.479046e+03,4.488460e+02
2.480010e+03,4.531867e+02
2.480974e+03,4.537784e+02
2.481938e+03,4.528331e+02
2.482903e+03,4.524404e+02
2.483867e+03,4.528563e+02
2.484831e+03,4.538818e+02
2.485795e+03,4.557065e+02
2.486760e+03,4.617293e+02
2.487724e+03,4.620507e+02
2.488688e+03,4.553575e+02
2.489652e+03,4.504362e+02
2.490617e+03,4.533702e+02
2.491581e+03,4.512116e+02
2.492545e+03,4.450738e+02
2.493509e+03,4.402349e+02
2.494474e+03,4.373939e+02
2.495438e+03,4.371029e+02
2.496402e+03,4.389657e+02
2.497366e+03,4.432201e+02
2.498331e+03,4.480809e+02
2.499295e+03,4.517029e+02
2.500259e+03,4.518656e+02
2.501223e+03,4.459869e+02
2.502188e+03,4.415886e+02
2.503152e+03,4.508316e+02
2.504116e+03,4.553193e+02
2.505080e+03,4.493009e+02
2.506044e+03,4.443662e+02
2.507009e+03,4.502251e+02
2.507973e+03,4.515309e+02
2.508937e+03,4.483629e+02
2.509901e+03,4.468795e+02
2.510865e+03,4.485717e+02
2.511830e+03,4.487281e+02
2.512794e+03,4.475829e+02
2.513758e+03,4.464526e+02
2.514722e+03,4.461507e+02
2.515687e+03,4.481961e+02
2.516651e+03,4.516473e+02
2.517615e+03,4.562580e+02
2.518579e+03,4.591004e+02
2.519544e+03,4.547769e+02
2.520508e+03,4.496716e+02
2.521472e+03,4.460675e+02
2.522436e+03,4.446831e+02
2.523401e+03,4.484895e+02
2.524365e+03,4.490781e+02
2.525329e+03,4.458510e+02
2.526293e+03,4.462909e+02
2.527258e+03,4.531752e+02
2.528222e+03,4.482745e+02
2.529186e+03,4.367202e+02
2.530150e+03,4.349957e+02
2.531115e+03,4.409676e+02
2.532079e+03,4.489936e+02
2.533043e+03,4.534647e+02
2.534007e+03,4.482342e+02
2.534971e+03,4.401074e+02
2.535936e+03,4.377519e+02
2.536900e+03,4.366357e+02
2.537864e+03,4.346691e+02
2.538828e+03,4.370998e+02
2.539792e+03,4.487649e+02
2.540757e+03,4.509989e+02
2.541721e+03,4.421231e+02
2.542685e+03,4.385235e+02
2.543649e+03,4.418269e+02
2.544614e+03,4.516146e+02
2.545578e+03,4.628163e+02
2.546542e+03,4.623241e+02
2.547506e+03,4.551749e+02
2.548471e+03,4.517674e+02
2.549435e+03,4.506721e+02
2.550399e+03,4.505474e+02
2.551363e+03,4.519967e+02
2.552328e+03,4.567909e+02
2.553292e+03,4.613567e+02
2.554256e+03,4.653185e+02
2.555220e+03,4.634956e+02
2.556185e+03,4.553683e+02
2.557149e+03,4.508546e+02
2.558113e+03,4.515752e+02
2.559077e+03,4.506299e+02
2.560042e+03,4.487311e+02
2.561006e+03,4.527763e+02
2.561970e+03,4.586738e+02
2.562934e+03,4.545425e+02
2.563898e+03,4.478371e+02
2.564863e+03,4.465454e+02
2.565827e+03,4.476750e+02
2.566791e+03,4.516083e+02
2.567755e+03,4.553412e+02
2.568719e+03,4.577201e+02
2.569684e+03,4.577642e+02
2.570648e+03,4.542016e+02
2.571612e+03,4.525308e+02
2.572576e+03,4.527545e+02
2.573541e+03,4.500533e+02
2.574505e+03,4.452440e+02
2.575469e+03,4.503793e+02
2.576433e+03,4.582906e+02
2.577398e+03,4.587196e+02
2.578362e+03,4.552731e+02
2.579326e+03,4.505643e+02
2.580290e+03,4.473224e+02
2.581255e+03,4.462889e+02
2.582219e+03,4.462102e+02
2.583183e+03,4.471913e+02
2.584147e+03,4.475118e+02
2.585112e+03,4.477741e+02
2.586076e+03,4.496811e+02
2.587040e+03,4.534552e+02
2.588004e+03,4.416151e+02
2.588969e+03,4.261726e+02
2.589933e+03,4.365929e+02
2.590897e+03,4.566902e+02
2.591861e+03,4.499118e+02
2.592825e+03,4.391568e+02
2.593790e+03,4.388128e+02
2.594754e+03,4.411978e+02
2.595718e+03,4.421541e+02
2.596682e+03,4.408525e+02
2.597646e+03,4.366269e+02
2.598611e+03,4.375805e+02
2.599575e+03,4.439326e+02
2.600539e+03,4.449462e+02
2.601503e+03,4.412958e+02
2.602468e+03,4.427661e+02
2.603432e+03,4.453190e+02
2.604396e+03,4.388058e+02
2.605360e+03,4.324431e+02
2.606325e+03,4.353106e+02
2.607289e+03,4.392287e+02
2.608253e+03,4.404820e+02
2.609217e+03,4.428636e+02
2.610182e+03,4.493381e+02
2.611146e+03,4.458073e+02
2.612110e+03,4.344747e+02
2.613074e+03,4.349258e+02
2.614039e+03,4.470370e+02
2.615003e+03,4.530884e+02
2.615967e+03,4.540051e+02
2.616931e+03,4.516905e+02
2.617896e+03,4.484020e+02
2.618860e+03,4.456666e+02
2.619824e+03,4.438417e+02
2.620788e+03,4.426806e+02
2.621752e+03,4.430975e+02
2.622717e+03,4.465370e+02
2.623681e+03,4.510237e+02
2.624645e+03,4.555567e+02
2.625609e+03,4.544361e+02
2.626573e+03,4.484726e+02
2.627538e+03,4.415276e+02
2.628502e+03,4.352947e+02
2.629466e+03,4.301616e+02
2.630430e+03,4.283186e+02
2.631395e+03,4.359474e+02
2.632359e+03,4.430402e+02
2.633323e+03,4.462282e+02
2.634287e+03,4.482563e+02
2.635252e+03,4.502506e+02
2.636216e+03,4.489011e+02
2.637180e+03,4.438329e+02
2.638144e+03,4.446093e+02
2.639109e+03,4.489209e+02
2.640073e+03,4.529960e+02
2.641037e+03,4.544848e+02
2.642001e+03,4.454256e+02
2.642966e+03,4.375126e+02
2.643930e+03,4.374425e+02
2.644894e+03,4.390207e+02
2.645858e+03,4.394778e+02
2.646823e+03,4.369387e+02
2.647787e+03,4.320730e+02
2.648751e+03,4.365905e+02
2.649715e+03,4.500330e+02
2.650679e+03,4.535804e+02
2.651644e+03,4.502713e+02
2.652608e+03,4.444502e+02
2.653572e+03,4.392695e+02
2.654536e+03,4.398615e+02
2.655500e+03,4.427552e+02
2.656465e+03,4.473497e+02
2.657429e+03,4.481692e+02
2.658393e+03,4.428994e+02
2.659357e+03,4.411286e+02
2.660322e+03,4.438804e+02
2.661286e+03,4.434732e+02
2.662250e+03,4.412023e+02
2.663214e+03,4.413001e+02
2.664179e+03,4.430679e+02
2.665143e+03,4.452279e+02
2.666107e+03,4.513038e+02
2.667071e+03,4.653753e+02
2.668036e+03,4.672101e+02
2.669000e+03,4.338875e+02
2.669964e+03,4.237755e+02
2.670928e+03,4.344420e+02
2.671893e+03,4.371511e+02
2.672857e+03,4.325065e+02
2.673821e+03,4.414493e+02
2.674785e+03,4.496650e+02
2.675750e+03,4.404431e+02
2.676714e+03,4.297569e+02
2.677678e+03,4.380908e+02
2.678642e+03,4.441210e+02
2.679606e+03,4.433516e+02
2.680571e+03,4.436865e+02
2.681535e+03,4.464318e+02
2.682499e+03,4.436758e+02
2.683463e+03,4.378567e+02
2.684427e+03,4.410775e+02
2.685392e+03,4.482469e+02
2.686356e+03,4.507883e+02
2.687320e+03,4.508890e+02
2.688284e+03,4.475817e+02
2.689249e+03,4.481519e+02
2.690213e+03,4.535945e+02
2.691177e+03,4.561526e+02
2.692141e+03,4.535049e+02
2.693106e+03,4.511709e+02
2.694070e+03,4.490600e+02
2.695034e+03,4.466443e+02
2.695998e+03,4.440648e+02
2.696963e+03,4.410437e+02
2.697927e+03,4.395135e+02
2.698891e+03,4.401385e+02
2.699855e+03,4.396181e+02
2.700820e+03,4.364772e+02
2.701784e+03,4.332780e+02
2.702748e+03,4.301933e+02
2.703712e+03,4.267710e+02
2.704677e+03,4.249083e+02
2.705641e+03,4.350051e+02
2.706605e+03,4.476646e+02
2.707569e+03,4.543935e+02
2.708533e+03,4.516063e+02
2.709498e+03,4.369531e+02
2.710462e+03,4.264492e+02
2.711426e+03,4.287188e+02
2.712390e+03,4.352775e+02
2.713354e+03,4.444644e+02
2.714319e+03,4.517749e+02
2.715283e+03,4.564283e+02
2.716247e+03,4.557772e+02
2.717211e+03,4.526348e+02
2.718176e+03,4.484254e+02
2.719140e+03,4.487276e+02
2.720104e+03,4.620637e+02
2.721068e+03,4.592950e+02
2.722033e+03,4.385489e+02
2.722997e+03,4.314057e+02
2.723961e+03,4.352128e+02
2.724925e+03,4.295089e+02
2.725890e+03,4.238405e+02
2.726854e+03,4.374815e+02
2.727818e+03,4.478687e+02
2.728782e+03,4.413258e+02
2.729747e+03,4.355051e+02
2.730711e+03,4.402170e+02
2.731675e+03,4.458197e+02
2.732639e+03,4.510784e+02
2.733604e+03,4.491427e+02
2.734568e+03,4.433766e+02
2.735532e+03,4.423612e+02
2.736496e+03,4.425919e+02
2.737460e+03,4.412183e+02
2.738425e+03,4.418192e+02
2.739389e+03,4.472142e+02
2.740353e+03,4.505545e+02
2.741317e+03,4.508409e+02
2.742281e+03,4.487623e+02
2.743246e+03,4.452997e+02
2.744210e+03,4.403586e+02
2.745174e+03,4.364153e+02
2.746138e+03,4.395656e+02
2.747103e+03,4.419430e+02
2.748067e+03,4.404834e+02
2.749031e+03,4.403604e+02
2.749995e+03,4.449512e+02
2.750960e+03,4.470945e+02
2.751924e+03,4.466809e+02
2.752888e+03,4.424205e+02
2.753852e+03,4.371358e+02
2.754817e+03,4.368466e+02
2.755781e+03,4.401240e+02
2.756745e+03,4.485213e+02
2.757709e+03,4.449798e+02
2.758674e+03,4.241812e+02
2.759638e+03,4.186336e+02
2.760602e+03,4.330864e+02
2.761566e+03,4.395283e+02
2.762531e+03,4.409594e+02
2.763495e+03,4.408291e+02
2.764459e+03,4.402826e+02
2.765423e+03,4.416822e+02
2.766387e+03,4.396877e+02
2.767352e+03,4.337133e+02
2.768316e+03,4.328788e+02
2.769280e+03,4.386329e+02
2.770244e+03,4.371190e+02
2.771208e+03,4.343916e+02
2.772173e+03,4.441551e+02
2.773137e+03,4.541139e+02
2.774101e+03,4.501084e+02
2.775065e+03,4.449068e+02
2.776030e+03,4.423849e+02
2.776994e+03,4.408191e+02
2.777958e+03,4.398331e+02
2.778922e+03,4.427986e+02
2.779887e+03,4.474526e+02
2.780851e+03,4.451913e+02
2.781815e+03,4.438741e+02
2.782779e+03,4.500193e+02
2.783744e+03,4.537560e+02
2.784708e+03,4.469722e+02
2.785672e+03,4.430758e+02
2.786636e+03,4.431069e+02
2.787601e+03,4.450131e+02
2.788565e+03,4.476851e+02
2.789529e+03,4.472730e+02
2.790493e+03,4.470051e+02
2.791458e+03,4.521075e+02
2.792422e+03,4.504086e+02
2.793386e+03,4.405322e+02
2.794350e+03,4.388825e+02
2.795314e+03,4.490746e+02
2.796279e+03,4.524268e+02
2.797243e+03,4.516252e+02
2.798207e+03,4.529610e+02
2.799171e+03,4.533574e+02
2.800135e+03,4.454287e+02
2.801100e+03,4.416898e+02
2.802064e+03,4.458161e+02
2.803028e+03,4.451916e+02
2.803992e+03,4.394249e+02
2.804957e+03,4.306880e+02
2.805921e+03,4.236374e+02
2.806885e+03,4.263982e+02
2.807849e+03,4.327638e+02
2.808814e+03,4.388704e+02
2.809778e+03,4.466194e+02
2.810742e+03,4.590733e+02
2.811706e+03,4.614086e+02
2.812671e+03,4.551190e+02
2.813635e+03,4.484113e+02
2.814599e+03,4.430819e+02
2.815563e+03,4.433545e+02
2.816528e+03,4.447570e+02
2.817492e+03,4.462357e+02
2.818456e+03,4.438553e+02
2.819420e+03,4.377741e+02
2.820385e+03,4.344467e+02
2.821349e+03,4.346582e+02
2.822313e+03,4.387954e+02
2.823277e+03,4.417933e+02
2.824241e+03,4.392597e+02
2.825206e+03,4.367398e+02
2.826170e+03,4.375150e+02
2.827134e+03,4.431445e+02
2.828098e+03,4.519856e+02
2.829063e+03,4.549819e+02
2.830027e+03,4.519302e+02
2.830991e+03,4.389464e+02
2.831955e+03,4.280643e+02
2.832919e+03,4.281951e+02
2.833884e+03,4.332916e+02
2.834848e+03,4.411428e+02
2.835812e+03,4.441590e+02
2.836776e+03,4.426042e+02
2.837741e+03,4.415290e+02
2.838705e+03,4.429879e+02
2.839669e+03,4.504404e+02
2.840633e+03,4.542217e+02
2.841598e+03,4.489387e+02
2.842562e+03,4.444305e+02
2.843526e+03,4.436240e+02
2.844490e+03,4.446904e+02
2.845455e+03,4.470291e+02
2.846419e+03,4.504733e+02
2.847383e+03,4.543398e+02
2.848347e+03,4.599131e+02
2.849312e+03,4.587304e+02
2.850276e+03,4.498913e+02
2.851240e+03,4.569358e+02
2.852204e+03,4.746350e+02
2.853168e+03,4.668794e+02
2.854133e+03,4.528618e+02
2.855097e+03,4.620229e+02
2.856061e+03,4.671480e+02
2.857025e+03,4.590573e+02
2.857990e+03,4.558202e+02
2.858954e+03,4.631797e+02
2.859918e+03,4.590175e+02
2.860882e+03,4.516721e+02
2.861846e+03,4.565550e+02
2.862811e+03,4.587302e+02
2.863775e+03,4.374813e+02
2.864739e+03,4.379507e+02
2.865703e+03,4.737715e+02
2.866668e+03,4.838095e+02
2.867632e+03,4.758580e+02
2.868596e+03,4.794319e+02
2.869560e+03,4.837958e+02
2.870525e+03,4.685909e+02
2.871489e+03,4.668510e+02
2.872453e+03,4.860711e+02
2.873417e+03,4.833999e+02
2.874382e+03,4.601183e+02
2.875346e+03,4.546989e+02
2.876310e+03,4.611968e+02
2.877274e+03,4.749649e+02
2.878239e+03,4.773315e+02
2.879203e+03,4.621698e+02
2.880167e+03,4.523052e+02
2.881131e+03,4.554113e+02
2.882095e+03,4.558492e+02
2.883060e+03,4.552450e+02
2.884024e+03,4.562538e+02
2.884988e+03,4.564057e+02
2.885952e+03,4.519548e+02
2.886917e+03,4.528729e+02
2.887881e+03,4.624537e+02
2.888845e+03,4.648130e+02
2.889809e+03,4.652799e+02
2.890773e+03,4.793105e+02
2.891738e+03,4.920881e+02
2.892702e+03,4.859289e+02
2.893666e+03,4.753609e+02
2.894630e+03,4.638721e+02
2.895595e+03,4.651689e+02
2.896559e+03,4.746049e+02
2.897523e+03,4.690565e+02
2.898487e+03,4.627028e+02
2.899452e+03,4.753618e+02
2.900416e+03,4.824586e+02
2.901380e+03,4.787706e+02
2.902344e+03,4.768339e+02
2.903309e+03,4.782071e+02
2.904273e+03,4.737548e+02
2.905237e+03,4.677453e+02
2.906201e+03,4.630928e+02
2.907166e+03,4.660531e+02
2.908130e+03,4.790076e+02
2.909094e+03,4.882503e+02
2.910058e+03,4.903095e+02
2.911022e+03,4.839931e+02
2.911987e+03,4.730465e+02
2.912951e+03,4.603613e+02
2.913915e+03,4.524614e+02
2.914879e+03,4.551916e+02
2.915844e+03,4.598705e+02
2.916808e+03,4.652398e+02
2.917772e+03,4.678907e+02
2.918736e+03,4.686931e+02
2.919700e+03,4.693089e+02
2.920665e+03,4.667147e+02
2.921629e+03,4.528559e+02
2.922593e+03,4.528589e+02
2.923557e+03,4.638170e+02
2.924522e+03,4.638888e+02
2.925486e+03,4.583855e+02
2.926450e+03,4.619333e+02
2.927414e+03,4.653747e+02
2.928379e+03,4.643634e+02
2.929343e+03,4.638803e+02
2.930307e+03,4.636151e+02
2.931271e+03,4.571600e+02
2.932236e+03,4.501710e+02
2.933200e+03,4.548281e+02
2.934164e+03,4.576043e+02
2.935128e+03,4.518877e+02
2.936093e+03,4.588584e+02
2.937057e+03,4.764416e+02
2.938021e+03,4.710853e+02
2.938985e+03,4.559671e+02
2.939949e+03,4.520583e+02
2.940914e+03,4.508629e+02
2.941878e+03,4.490534e+02
2.942842e+03,4.495067e+02
2.943806e+03,4.519253e+02
2.944771e+03,4.598329e+02
2.945735e+03,4.660848e+02
2.946699e+03,4.574776e+02
2.947663e+03,4.539060e+02
2.948627e+03,4.607357e+02
2.949592e+03,4.666004e+02
2.950556e+03,4.697713e+02
2.951520e+03,4.781187e+02
2.952484e+03,4.780284e+02
2.953449e+03,4.529081e+02
2.954413e+03,4.464040e+02
2.955377e+03,4.771010e+02
2.956341e+03,4.923452e+02
2.957306e+03,4.865676e+02
2.958270e+03,4.757005e+02
2.959234e+03,4.655407e+02
2.960198e+03,4.617342e+02
2.961163e+03,4.589754e+02
2.962127e+03,4.529518e+02
2.963091e+03,4.592697e+02
2.964055e+03,4.703017e+02
2.965020e+03,4.580594e+02
2.965984e+03,4.456500e+02
2.966948e+03,4.497075e+02
2.967912e+03,4.544423e+02
2.968876e+03,4.533110e+02
2.969841e+03,4.538484e+02
2.970805e+03,4.546207e+02
2.971769e+03,4.528073e+02
2.972733e+03,4.525184e+02
2.973698e+03,4.575792e+02
2.974662e+03,4.566730e+02
2.975626e+03,4.465524e+02
2.976590e+03,4.436775e+02
2.977554e+03,4.473605e+02
2.978519e+03,4.573943e+02
2.979483e+03,4.592417e+02
2.980447e+03,4.403599e+02
2.981411e+03,4.358615e+02
2.982376e+03,4.486032e+02
2.983340e+03,4.532017e+02
2.984304e+03,4.520020e+02
2.985268e+03,4.470704e+02
2.986233e+03,4.469881e+02
2.987197e+03,4.599324e+02
2.988161e+03,4.567615e+02
2.989125e+03,4.430684e+02
2.990090e+03,4.406015e+02
2.991054e+03,4.437934e+02
2.992018e+03,4.485885e+02
2.992982e+03,4.472627e+02
2.993947e+03,4.354887e+02
2.994911e+03,4.361075e+02
2.995875e+03,4.425678e+02
2.996839e+03,4.411873e+02
2.997803e+03,4.415646e+02
2.998768e+03,4.508764e+02
2.999732e+03,4.581032e+02
3.000696e+03,4.600666e+02
3.001660e+03,4.433105e+02
3.002625e+03,4.262303e+02
3.003589e+03,4.260531e+02
3.004553e+03,4.388253e+02
3.005517e+03,4.642903e+02
3.006481e+03,4.633061e+02
3.007446e+03,4.404864e+02
3.008410e+03,4.280011e+02
3.009374e+03,4.257957e+02
3.010338e+03,4.326062e+02
3.011303e+03,4.418508e+02
3.012267e+03,4.505093e+02
3.013231e+03,4.557499e+02
3.014195e+03,4.559913e+02
3.015160e+03,4.493737e+02
3.016124e+03,4.390411e+02
3.017088e+03,4.265359e+02
3.018052e+03,4.268037e+02
3.019017e+03,4.384869e+02
3.019981e+03,4.361233e+02
3.020945e+03,4.306646e+02
3.021909e+03,4.321983e+02
3.022874e+03,4.309684e+02
3.023838e+03,4.256268e+02
3.024802e+03,4.293593e+02
3.025766e+03,4.373331e+02
3.026730e+03,4.346586e+02
3.027695e+03,4.295221e+02
3.028659e+03,4.257052e+02
3.029623e+03,4.250767e+02
3.030587e+03,4.279775e+02
3.031552e+03,4.449116e+02
3.032516e+03,4.578077e+02
3.033480e+03,4.394506e+02
3.034444e+03,4.243053e+02
3.035408e+03,4.201069e+02
3.036373e+03,4.341868e+02
3.037337e+03,4.546400e+02
3.038301e+03,4.476338e+02
3.039265e+03,4.378866e+02
3.040230e+03,4.390211e+02
3.041194e+03,4.352925e+02
3.042158e+03,4.277386e+02
3.043122e+03,4.215716e+02
3.044087e+03,4.223399e+02
3.045051e+03,4.411332e+02
3.046015e+03,4.589334e+02
3.046979e+03,4.704546e+02
3.047944e+03,4.628421e+02
3.048908e+03,4.462970e+02
3.049872e+03,4.352820e+02
3.050836e+03,4.296368e+02
3.051801e+03,4.288673e+02
3.052765e+03,4.386339e+02
3.053729e+03,4.522617e+02
3.054693e+03,4.305900e+02
3.055657e+03,4.192111e+02
3.056622e+03,4.497220e+02
3.057586e+03,4.625894e+02
3.058550e+03,4.405334e+02
3.059514e+03,4.348987e+02
3.060479e+03,4.406919e+02
3.061443e+03,4.500970e+02
3.062407e+03,4.503688e+02
3.063371e+03,4.399641e+02
3.064335e+03,4.371080e+02
3.065300e+03,4.406058e+02
3.066264e+03,4.332417e+02
3.067228e+03,4.261514e+02
3.068192e+03,4.247896e+02
3.069157e+03,4.370675e+02
3.070121e+03,4.565184e+02
3.071085e+03,4.562540e+02
3.072049e+03,4.477961e+02
3.073014e+03,4.452334e+02
3.073978e+03,4.478738e+02
3.074942e+03,4.546875e+02
3.075906e+03,4.445572e+02
3.076871e+03,4.288726e+02
3.077835e+03,4.240773e+02
3.078799e+03,4.304341e+02
3.079763e+03,4.525859e+02
3.080728e+03,4.624760e+02
3.081692e+03,4.590627e+02
3.082656e+03,4.463067e+02
3.083620e+03,4.373893e+02
3.084584e+03,4.390298e+02
3.085549e+03,4.468681e+02
3.086513e+03,4.588013e+02
3.087477e+03,4.577035e+02
3.088441e+03,4.481105e+02
3.089406e+03,4.310119e+02
3.090370e+03,4.300656e+02
3.091334e+03,4.441469e+02
3.092298e+03,4.353097e+02
3.093262e+03,4.190611e+02
3.094227e+03,4.369027e+02
3.095191e+03,4.499028e+02
3.096155e+03,4.442403e+02
3.097119e+03,4.360461e+02
3.098084e+03,4.303648e+02
3.099048e+03,4.337805e+02
3.100012e+03,4.368082e+02
3.100976e+03,4.304449e+02
3.101941e+03,4.364013e+02
3.102905e+03,4.517916e+02
3.103869e+03,4.473870e+02
3.104833e+03,4.393949e+02
3.105798e+03,4.386228e+02
3.106762e+03,4.457138e+02
3.107726e+03,4.591012e+02
3.108690e+03,4.623854e+02
3.109655e+03,4.585062e+02
3.110619e+03,4.450549e+02
3.111583e+03,4.464079e+02
3.112547e+03,4.622516e+02
3.113511e+03,4.659526e+02
3.114476e+03,4.611869e+02
3.115440e+03,4.533539e+02
3.116404e+03,4.549886e+02
3.117368e+03,4.758294e+02
3.118333e+03,4.718085e+02
3.119297e+03,4.570923e+02
3.120261e+03,4.569970e+02
3.121225e+03,4.617763e+02
3.122189e+03,4.653646e+02
3.123154e+03,4.685396e+02
3.124118e+03,4.700675e+02
3.125082e+03,4.680284e+02
3.126046e+03,4.625840e+02
3.127011e+03,4.535025e+02
3.127975e+03,4.578431e+02
3.128939e+03,4.712719e+02
3.129903e+03,4.732921e+02
3.130868e+03,4.659438e+02
3.131832e+03,4.363282e+02
3.132796e+03,4.390424e+02
3.133760e+03,4.657674e+02
3.134725e+03,4.517376e+02
3.135689e+03,4.359832e+02
3.136653e+03,4.588072e+02
3.137617e+03,4.660032e+02
3.138582e+03,4.419621e+02
3.139546e+03,4.409833e+02
3.140510e+03,4.525701e+02
3.141474e+03,4.696460e+02
3.142438e+03,4.709423e+02
3.143403e+03,4.563327e+02
3.144367e+03,4.333386e+02
3.145331e+03,4.147993e+02
3.146295e+03,4.265177e+02
3.147260e+03,4.422088e+02
3.148224e+03,4.541219e+02
3.149188e+03,4.482234e+02
3.150152e+03,4.412542e+02
3.151116e+03,4.554357e+02
3.152081e+03,4.650516e+02
3.153045e+03,4.577852e+02
3.154009e+03,4.492422e+02
3.154973e+03,4.456249e+02
3.155938e+03,4.599883e+02
3.156902e+03,4.705056e+02
3.157866e+03,4.698717e+02
3.158830e+03,4.532509e+02
3.159795e+03,4.326546e+02
3.160759e+03,4.325501e+02
3.161723e+03,4.391177e+02
3.162687e+03,4.534156e+02
3.163652e+03,4.422433e+02
3.164616e+03,4.300057e+02
3.165580e+03,4.672805e+02
3.166544e+03,4.901823e+02
3.167509e+03,4.747084e+02
3.168473e+03,4.610485e+02
3.169437e+03,4.560512e+02
3.170401e+03,4.714213e+02
3.171365e+03,4.741927e+02
3.172330e+03,4.494790e+02
3.173294e+03,4.396291e+02
3.174258e+03,4.450653e+02
3.175222e+03,4.613998e+02
3.176187e+03,4.683203e+02
3.177151e+03,4.524164e+02
3.178115e+03,4.446582e+02
3.179079e+03,4.472990e+02
3.180043e+03,4.620508e+02
3.181008e+03,4.685930e+02
3.181972e+03,4.612648e+02
3.182936e+03,4.438302e+02
3.183900e+03,4.274140e+02
3.184865e+03,4.493389e+02
3.185829e+03,4.710600e+02
3.186793e+03,4.719391e+02
3.187757e+03,4.572708e+02
3.188722e+03,4.453739e+02
3.189686e+03,4.805473e+02
3.190650e+03,4.999286e+02
3.191614e+03,4.815501e+02
3.192579e+03,4.788496e+02
3.193543e+03,4.881501e+02
3.194507e+03,4.826861e+02
3.195471e+03,4.616686e+02
3.196436e+03,4.211705e+02
3.197400e+03,4.360385e+02
3.198364e+03,4.733097e+02
3.199328e+03,4.732486e+02
3.200292e+03,4.792867e+02
3.201257e+03,0.000000e+00
3.202221e+03,0.000000e+00
3.203185e+03,0.000000e+00
3.204149e+03,0.000000e+00
3.205114e+03,0.000000e+00
3.206078e+03,0.000000e+00
3.207042e+03,0.000000e+00
3.208006e+03,0.000000e+00
3.208970e+03,0.000000e+00
3.209935e+03,0.000000e+00
3.210899e+03,0.000000e+00
3.211863e+03,0.000000e+00
3.212827e+03,0.000000e+00
3.213792e+03,0.000000e+00
3.214756e+03,0.000000e+00
3.215720e+03,0.000000e+00
3.216684e+03,0.000000e+00
3.217649e+03,0.000000e+00
3.218613e+03,0.000000e+00
3.219577e+03,0.000000e+00
3.220541e+03,0.000000e+00
3.221506e+03,0.000000e+00
3.222470e+03,0.000000e+00
3.223434e+03,0.000000e+00
3.224398e+03,0.000000e+00
3.225363e+03,0.000000e+00
3.226327e+03,0.000000e+00
3.227291e+03,0.000000e+00
3.228255e+03,0.000000e+00
3.229219e+03,0.000000e+00
3.230184e+03,0.000000e+00
3.231148e+03,0.000000e+00
3.232112e+03,0.000000e+00
3.233076e+03,0.000000e+00
3.234041e+03,0.000000e+00
3.235005e+03,0.000000e+00
3.235969e+03,0.000000e+00
3.236933e+03,0.000000e+00
3.237897e+03,0.000000e+00
3.238862e+03,0.000000e+00
3.239826e+03,0.000000e+00
3.240790e+03,0.000000e+00
3.241754e+03,0.000000e+00
3.242719e+03,0.000000e+00
3.243683e+03,0.000000e+00
3.244647e+03,0.000000e+00
3.245611e+03,0.000000e+00
3.246576e+03,0.000000e+00
3.247540e+03,0.000000e+00
3.248504e+03,0.000000e+00
3.249468e+03,0.000000e+00
3.250433e+03,0.000000e+00
3.251397e+03,0.000000e+00
3.252361e+03,0.000000e+00
3.253325e+03,0.000000e+00
3.254290e+03,0.000000e+00
3.255254e+03,0.000000e+00
3.256218e+03,0.000000e+00
3.257182e+03,0.000000e+00
3.258146e+03,0.000000e+00
3.259111e+03,0.000000e+00
3.260075e+03,0.000000e+00
3.261039e+03,0.000000e+00
3.262003e+03,0.000000e+00
3.262968e+03,0.000000e+00
3.263932e+03,0.000000e+00
3.264896e+03,0.000000e+00
3.265860e+03,0.000000e+00
3.266824e+03,0.000000e+00
3.267789e+03,0.000000e+00
3.268753e+03,0.000000e+00
3.269717e+03,0.000000e+00
3.270681e+03,0.000000e+00
3.271646e+03,0.000000e+00
3.272610e+03,0.000000e+00
3.273574e+03,0.000000e+00
3.274538e+03,0.000000e+00
3.275503e+03,0.000000e+00
3.276467e+03,0.000000e+00
3.277431e+03,0.000000e+00
3.278395e+03,0.000000e+00
3.279360e+03,0.000000e+00
3.280324e+03,0.000000e+00
3.281288e+03,0.000000e+00
3.282252e+03,0.000000e+00
3.283217e+03,0.000000e+00
3.284181e+03,0.000000e+00
3.285145e+03,0.000000e+00
3.286109e+03,0.000000e+00
3.287073e+03,0.000000e+00
3.288038e+03,0.000000e+00
3.289002e+03,0.000000e+00
3.289966e+03,0.000000e+00
3.290930e+03,0.000000e+00
3.291895e+03,0.000000e+00
3.292859e+03,0.000000e+00
3.293823e+03,0.000000e+00
3.294787e+03,0.000000e+00
3.295751e+03,0.000000e+00
3.296716e+03,0.000000e+00
3.297680e+03,0.000000e+00
3.298644e+03,0.000000e+00
3.299608e+03,0.000000e+00
3.300573e+03,0.000000e+00
3.301537e+03,0.000000e+00
3.302501e+03,0.000000e+00
3.303465e+03,0.000000e+00
3.304430e+03,0.000000e+00
3.305394e+03,0.000000e+00
3.306358e+03,0.000000e+00
3.307322e+03,0.000000e+00
3.308287e+03,0.000000e+00
3.309251e+03,0.000000e+00
3.310215e+03,0.000000e+00
3.311179e+03,0.000000e+00
3.312144e+03,0.000000e+00
3.313108e+03,0.000000e+00
3.314072e+03,0.000000e+00
3.315036e+03,0.000000e+00
3.316000e+03,0.000000e+00
3.316965e+03,0.000000e+00
3.317929e+03,0.000000e+00
3.318893e+03,0.000000e+00
3.319857e+03,0.000000e+00
3.320822e+03,0.000000e+00
3.321786e+03,0.000000e+00
3.322750e+03,0.000000e+00
3.323714e+03,0.000000e+00
3.324678e+03,0.000000e+00
3.325643e+03,0.000000e+00
3.326607e+03,0.000000e+00
3.327571e+03,0.000000e+00
3.328535e+03,0.000000e+00
3.329500e+03,0.000000e+00
3.330464e+03,0.000000e+00
3.331428e+03,0.000000e+00
3.332392e+03,0.000000e+00
3.333357e+03,0.000000e+00
3.334321e+03,0.000000e+00
3.335285e+03,0.000000e+00
3.336249e+03,0.000000e+00
3.337214e+03,0.000000e+00
3.338178e+03,0.000000e+00
3.339142e+03,0.000000e+00
3.340106e+03,0.000000e+00
3.341071e+03,0.000000e+00
3.342035e+03,0.000000e+00
3.342999e+03,0.000000e+00
3.343963e+03,0.000000e+00
3.344927e+03,0.000000e+00
3.345892e+03,0.000000e+00
3.346856e+03,0.000000e+00
3.347820e+03,0.000000e+00
3.348784e+03,0.000000e+00
3.349749e+03,0.000000e+00
3.350713e+03,0.000000e+00
3.351677e+03,0.000000e+00
3.352641e+03,0.000000e+00
3.353605e+03,0.000000e+00
3.354570e+03,0.000000e+00
3.355534e+03,0.000000e+00
3.356498e+03,0.000000e+00
3.357462e+03,0.000000e+00
3.358427e+03,0.000000e+00
3.359391e+03,0.000000e+00
3.360355e+03,0.000000e+00
3.361319e+03,0.000000e+00
3.362284e+03,0.000000e+00
3.363248e+03,0.000000e+00
3.364212e+03,0.000000e+00
3.365176e+03,0.000000e+00
3.366141e+03,0.000000e+00
3.367105e+03,0.000000e+00
3.368069e+03,0.000000e+00
3.369033e+03,0.000000e+00
3.369998e+03,0.000000e+00
3.370962e+03,0.000000e+00
3.371926e+03,0.000000e+00
3.372890e+03,0.000000e+00
3.373854e+03,0.000000e+00
3.374819e+03,0.000000e+00
3.375783e+03,0.000000e+00
3.376747e+03,0.000000e+00
3.377711e+03,0.000000e+00
3.378676e+03,0.000000e+00
3.379640e+03,0.000000e+00
3.380604e+03,0.000000e+00
3.381568e+03,0.000000e+00
3.382532e+03,0.000000e+00
3.383497e+03,0.000000e+00
3.384461e+03,0.000000e+00
3.385425e+03,0.000000e+00
3.386389e+03,0.000000e+00
3.387354e+03,0.000000e+00
3.388318e+03,0.000000e+00
3.389282e+03,0.000000e+00
3.390246e+03,0.000000e+00
3.391211e+03,0.000000e+00
3.392175e+03,0.000000e+00
3.393139e+03,0.000000e+00
3.394103e+03,0.000000e+00
3.395068e+03,0.000000e+00
3.396032e+03,0.000000e+00
3.396996e+03,0.000000e+00
3.397960e+03,0.000000e+00
3.398925e+03,0.000000e+00
3.399889e+03,0.000000e+00
3.400853e+03,0.000000e+00
3.401817e+03,0.000000e+00
3.402781e+03,0.000000e+00
3.403746e+03,0.000000e+00
3.404710e+03,0.000000e+00
3.405674e+03,0.000000e+00
3.406638e+03,0.000000e+00
3.407603e+03,0.000000e+00
3.408567e+03,0.000000e+00
3.409531e+03,0.000000e+00
3.410495e+03,0.000000e+00
3.411459e+03,0.000000e+00
3.412424e+03,0.000000e+00
3.413388e+03,0.000000e+00
3.414352e+03,0.000000e+00
3.415316e+03,0.000000e+00
3.416281e+03,0.000000e+00
3.417245e+03,0.000000e+00
3.418209e+03,0.000000e+00
3.419173e+03,0.000000e+00
3.420138e+03,0.000000e+00
3.421102e+03,0.000000e+00
3.422066e+03,0.000000e+00
3.423030e+03,0.000000e+00
3.423995e+03,0.000000e+00
3.424959e+03,0.000000e+00
3.425923e+03,0.000000e+00
3.426887e+03,0.000000e+00
3.427852e+03,0.000000e+00
3.428816e+03,0.000000e+00
3.429780e+03,0.000000e+00
3.430744e+03,0.000000e+00
3.431708e+03,0.000000e+00
3.432673e+03,0.000000e+00
3.433637e+03,0.000000e+00
3.434601e+03,0.000000e+00
3.435565e+03,0.000000e+00
3.436530e+03,0.000000e+00
3.437494e+03,0.000000e+00
3.438458e+03,0.000000e+00
3.439422e+03,0.000000e+00
3.440386e+03,0.000000e+00
3.441351e+03,0.000000e+00
3.442315e+03,0.000000e+00
3.443279e+03,0.000000e+00
3.444243e+03,0.000000e+00
3.445208e+03,0.000000e+00
3.446172e+03,0.000000e+00
3.447136e+03,0.000000e+00
3.448100e+03,0.000000e+00
3.449065e+03,0.000000e+00
3.450029e+03,0.000000e+00
3.450993e+03,0.000000e+00
3.451957e+03,0.000000e+00
3.452922e+03,0.000000e+00
3.453886e+03,0.000000e+00
3.454850e+03,0.000000e+00
3.455814e+03,0.000000e+00
3.456779e+03,0.000000e+00
3.457743e+03,0.000000e+00
3.458707e+03,0.000000e+00
3.459671e+03,0.000000e+00
3.460635e+03,0.000000e+00
3.461600e+03,0.000000e+00
3.462564e+03,0.000000e+00
3.463528e+03,0.000000e+00
3.464492e+03,0.000000e+00
3.465457e+03,0.000000e+00
3.466421e+03,0.000000e+00
3.467385e+03,0.000000e+00
3.468349e+03,0.000000e+00
3.469313e+03,0.000000e+00
3.470278e+03,0.000000e+00
3.471242e+03,0.000000e+00
3.472206e+03,0.000000e+00
3.473170e+03,0.000000e+00
3.474135e+03,0.000000e+00
3.475099e+03,0.000000e+00
3.476063e+03,0.000000e+00
3.477027e+03,0.000000e+00
3.477992e+03,0.000000e+00
3.478956e+03,0.000000e+00
3.479920e+03,0.000000e+00
3.480884e+03,0.000000e+00
3.481849e+03,0.000000e+00
3.482813e+03,0.000000e+00
3.483777e+03,0.000000e+00
3.484741e+03,0.000000e+00
3.485706e+03,0.000000e+00
3.486670e+03,0.000000e+00
3.487634e+03,0.000000e+00
3.488598e+03,0.000000e+00
3.489563e+03,0.000000e+00
3.490527e+03,0.000000e+00
3.491491e+03,0.000000e+00
3.492455e+03,0.000000e+00
3.493419e+03,0.000000e+00
3.494384e+03,0.000000e+00
3.495348e+03,0.000000e+00
3.496312e+03,0.000000e+00
3.497276e+03,0.000000e+00
3.498240e+03,0.000000e+00
3.499205e+03,0.000000e+00
3.500169e+03,0.000000e+00
