9.931763e+01,0.000000e+00
1.002819e+02,0.000000e+00
1.012461e+02,0.000000e+00
1.022103e+02,0.000000e+00
1.031746e+02,0.000000e+00
1.041388e+02,0.000000e+00
1.051030e+02,0.000000e+00
1.060673e+02,0.000000e+00
1.070315e+02,0.000000e+00
1.079957e+02,0.000000e+00
1.089600e+02,0.000000e+00
1.099242e+02,0.000000e+00
1.108884e+02,0.000000e+00
1.118527e+02,0.000000e+00
1.128169e+02,0.000000e+00
1.137811e+02,0.000000e+00
1.147454e+02,0.000000e+00
1.157096e+02,0.000000e+00
1.166738e+02,0.000000e+00
1.176381e+02,0.000000e+00
1.186023e+02,0.000000e+00
1.195665e+02,0.000000e+00
1.205308e+02,0.000000e+00
1.214950e+02,0.000000e+00
1.224592e+02,0.000000e+00
1.234235e+02,0.000000e+00
1.243877e+02,0.000000e+00
1.253519e+02,0.000000e+00
1.263162e+02,0.000000e+00
1.272804e+02,0.000000e+00
1.282446e+02,0.000000e+00
1.292089e+02,0.000000e+00
1.301731e+02,0.000000e+00
1.311373e+02,0.000000e+00
1.321016e+02,0.000000e+00
1.330658e+02,0.000000e+00
1.340300e+02,0.000000e+00
1.349943e+02,0.000000e+00
1.359585e+02,0.000000e+00
1.369227e+02,0.000000e+00
1.378870e+02,0.000000e+00
1.388512e+02,0.000000e+00
1.398154e+02,0.000000e+00
1.407797e+02,0.000000e+00
1.417439e+02,0.000000e+00
1.427081e+02,0.000000e+00
1.436724e+02,0.000000e+00
1.446366e+02,0.000000e+00
1.456008e+02,0.000000e+00
1.465651e+02,0.000000e+00
1.475293e+02,0.000000e+00
1.484935e+02,0.000000e+00
1.494578e+02,0.000000e+00
1.504220e+02,0.000000e+00
1.513862e+02,0.000000e+00
1.523505e+02,0.000000e+00
1.533147e+02,0.000000e+00
1.542789e+02,0.000000e+00
1.552432e+02,0.000000e+00
1.562074e+02,0.000000e+00
1.571716e+02,0.000000e+00
1.581359e+02,0.000000e+00
1.591001e+02,0.000000e+00
1.600643e+02,0.000000e+00
1.610286e+02,0.000000e+00
1.619928e+02,0.000000e+00
1.629570e+02,0.000000e+00
1.639213e+02,0.000000e+00
1.648855e+02,0.000000e+00
1.658497e+02,0.000000e+00
1.668140e+02,0.000000e+00
1.677782e+02,0.000000e+00
1.687424e+02,0.000000e+00
1.697067e+02,0.000000e+00
1.706709e+02,0.000000e+00
1.716351e+02,0.000000e+00
1.725994e+02,0.000000e+00
1.735636e+02,0.000000e+00
1.745278e+02,0.000000e+00
1.754921e+02,0.000000e+00
1.764563e+02,0.000000e+00
1.774205e+02,0.000000e+00
1.783848e+02,0.000000e+00
1.793490e+02,0.000000e+00
1.803132e+02,0.000000e+00
1.812775e+02,0.000000e+00
1.822417e+02,0.000000e+00
1.832059e+02,0.000000e+00
1.841702e+02,0.000000e+00
1.851344e+02,0.000000e+00
1.860986e+02,0.000000e+00
1.870629e+02,0.000000e+00
1.880271e+02,0.000000e+00
1.889913e+02,0.000000e+00
1.899556e+02,0.000000e+00
1.909198e+02,0.000000e+00
1.918840e+02,0.000000e+00
1.928483e+02,0.000000e+00
1.938125e+02,0.000000e+00
1.947767e+02,0.000000e+00
1.957410e+02,0.000000e+00
1.967052e+02,0.000000e+00
1.976694e+02,0.000000e+00
1.986337e+02,0.000000e+00
1.995979e+02,6.615151e+02
2.005621e+02,6.671146e+02
2.015264e+02,6.702287e+02
2.024906e+02,6.675363e+02
2.034548e+02,6.649938e+02
2.044191e+02,6.640085e+02
2.053833e+02,6.643260e+02
2.063475e+02,6.648120e+02
2.073118e+02,6.642601e+02
2.082760e+02,6.622188e+02
2.092402e+02,6.605438e+02
2.102045e+02,6.592754e+02
2.111687e+02,6.588564e+02
2.121329e+02,6.597401e+02
2.130972e+02,6.622410e+02
2.140614e+02,6.655395e+02
2.150256e+02,6.679297e+02
2.159899e+02,6.695419e+02
2.169541e+02,6.700118e+02
2.179183e+02,6.691511e+02
2.188826e+02,6.671227e+02
2.198468e+02,6.647542e+02
2.208110e+02,6.619711e+02
2.217753e+02,6.587555e+02
2.227395e+02,6.571360e+02
2.237037e+02,6.592450e+02
2.246680e+02,6.625895e+02
2.256322e+02,6.648002e+02
2.265964e+02,6.657157e+02
2.275607e+02,6.656114e+02
2.285249e+02,6.639642e+02
2.294892e+02,6.602677e+02
2.304534e+02,6.576405e+02
2.314176e+02,6.593639e+02
2.323819e+02,6.642237e+02
2.333461e+02,6.673330e+02
2.343103e+02,6.658160e+02
2.352746e+02,6.619020e+02
2.362388e+02,6.596462e+02
2.372030e+02,6.601312e+02
2.381673e+02,6.618476e+02
2.391315e+02,6.624238e+02
2.400957e+02,6.619212e+02
2.410600e+02,6.610309e+02
2.420242e+02,6.598728e+02
2.429884e+02,6.587139e+02
2.439527e+02,6.579520e+02
2.449169e+02,6.574974e+02
2.458811e+02,6.572091e+02
2.468454e+02,6.582664e+02
2.478096e+02,6.627868e+02
2.487738e+02,6.672231e+02
2.497381e+02,6.686982e+02
2.507023e+02,6.667472e+02
2.516665e+02,6.633317e+02
2.526308e+02,6.615328e+02
2.535950e+02,6.629900e+02
2.545592e+02,6.635928e+02
2.555235e+02,6.628409e+02
2.564877e+02,6.614668e+02
2.574519e+02,6.603998e+02
2.584161e+02,6.602747e+02
2.593804e+02,6.610994e+02
2.603446e+02,6.619328e+02
2.613088e+02,6.618207e+02
2.622731e+02,6.622028e+02
2.632373e+02,6.642990e+02
2.642015e+02,6.675565e+02
2.651658e+02,6.699020e+02
2.661300e+02,6.686898e+02
2.670942e+02,6.631699e+02
2.680585e+02,6.595591e+02
2.690227e+02,6.604271e+02
2.699869e+02,6.628471e+02
2.709512e+02,6.650042e+02
2.719154e+02,6.669737e+02
2.728796e+02,6.681943e+02
2.738439e+02,6.673471e+02
2.748081e+02,6.639289e+02
2.757723e+02,6.609359e+02
2.767366e+02,6.599896e+02
2.777008e+02,6.603555e+02
2.786650e+02,6.607805e+02
2.796293e+02,6.614631e+02
2.805935e+02,6.621553e+02
2.815577e+02,6.620672e+02
2.825220e+02,6.607469e+02
2.834862e+02,6.588992e+02
2.844504e+02,6.579771e+02
2.854147e+02,6.586395e+02
2.863789e+02,6.593395e+02
2.873431e+02,6.594420e+02
2.883074e+02,6.594649e+02
2.892716e+02,6.605453e+02
2.902358e+02,6.635914e+02
2.912001e+02,6.685382e+02
2.921643e+02,6.700532e+02
2.931285e+02,6.653021e+02
2.940928e+02,6.604134e+02
2.950570e+02,6.576053e+02
2.960212e+02,6.570058e+02
2.969855e+02,6.578575e+02
2.979497e+02,6.599332e+02
2.989139e+02,6.647595e+02
2.998782e+02,6.673286e+02
3.008424e+02,6.658942e+02
3.018066e+02,6.636189e+02
3.027709e+02,6.626990e+02
3.037351e+02,6.640416e+02
3.046993e+02,6.663482e+02
3.056636e+02,6.673228e+02
3.066278e+02,6.665945e+02
3.075920e+02,6.657020e+02
3.085563e+02,6.653439e+02
3.095205e+02,6.654618e+02
3.104847e+02,6.656190e+02
3.114490e+02,6.650934e+02
3.124132e+02,6.642673e+02
3.133774e+02,6.641080e+02
3.143417e+02,6.647427e+02
3.153059e+02,6.658167e+02
3.162701e+02,6.673173e+02
3.172344e+02,6.697350e+02
3.181986e+02,6.718690e+02
3.191628e+02,6.737428e+02
3.201271e+02,6.751287e+02
3.210913e+02,6.751874e+02
3.220555e+02,6.731293e+02
3.230198e+02,6.695132e+02
3.239840e+02,6.684944e+02
3.249482e+02,6.731274e+02
3.259125e+02,6.770766e+02
3.268767e+02,6.781553e+02
3.278409e+02,6.768275e+02
3.288052e+02,6.747470e+02
3.297694e+02,6.732020e+02
3.307336e+02,6.722277e+02
3.316979e+02,6.715255e+02
3.326621e+02,6.712232e+02
3.336263e+02,6.709743e+02
3.345906e+02,6.706799e+02
3.355548e+02,6.705081e+02
3.365190e+02,6.706818e+02
3.374833e+02,6.712822e+02
3.384475e+02,6.722533e+02
3.394117e+02,6.736892e+02
3.403760e+02,6.761893e+02
3.413402e+02,6.788375e+02
3.423044e+02,6.800750e+02
3.432687e+02,6.784742e+02
3.442329e+02,6.760100e+02
3.451971e+02,6.743957e+02
3.461614e+02,6.735002e+02
3.471256e+02,6.723214e+02
3.480898e+02,6.700095e+02
3.490541e+02,6.659036e+02
3.500183e+02,6.640391e+02
3.509825e+02,6.668123e+02
3.519468e+02,6.707872e+02
3.529110e+02,6.731451e+02
3.538752e+02,6.730115e+02
3.548395e+02,6.711841e+02
3.558037e+02,6.689598e+02
3.567680e+02,6.647213e+02
3.577322e+02,6.630176e+02
3.586964e+02,6.662286e+02
3.596607e+02,6.716125e+02
3.606249e+02,6.759988e+02
3.615891e+02,6.776599e+02
3.625534e+02,6.769775e+02
3.635176e+02,6.748287e+02
3.644818e+02,6.704025e+02
3.654461e+02,6.670291e+02
3.664103e+02,6.678001e+02
3.673745e+02,6.722617e+02
3.683388e+02,6.766534e+02
3.693030e+02,6.791194e+02
3.702672e+02,6.804863e+02
3.712315e+02,6.820821e+02
3.721957e+02,6.840955e+02
3.731599e+02,6.863417e+02
3.741242e+02,6.888217e+02
3.750884e+02,6.937554e+02
3.760526e+02,6.967878e+02
3.770169e+02,6.961609e+02
3.779811e+02,6.937044e+02
3.789453e+02,6.917469e+02
3.799096e+02,6.914901e+02
3.808738e+02,6.921117e+02
3.818380e+02,6.905692e+02
3.828023e+02,6.851765e+02
3.837665e+02,6.804361e+02
3.847307e+02,6.775733e+02
3.856950e+02,6.762078e+02
3.866592e+02,6.753962e+02
3.876234e+02,6.747863e+02
3.885877e+02,6.742881e+02
3.895519e+02,6.737465e+02
3.905161e+02,6.731744e+02
3.914804e+02,6.722755e+02
3.924446e+02,6.707318e+02
3.934088e+02,6.686329e+02
3.943731e+02,6.664409e+02
3.953373e+02,6.635358e+02
3.963015e+02,6.607208e+02
3.972658e+02,6.592599e+02
3.982300e+02,6.597405e+02
3.991942e+02,6.618450e+02
4.001585e+02,6.641824e+02
4.011227e+02,6.677391e+02
4.020869e+02,6.698305e+02
4.030512e+02,6.689182e+02
4.040154e+02,6.662369e+02
4.049796e+02,6.638096e+02
4.059439e+02,6.627186e+02
4.069081e+02,6.627609e+02
4.078723e+02,6.634506e+02
4.088366e+02,6.650966e+02
4.098008e+02,6.663408e+02
4.107650e+02,6.666985e+02
4.117293e+02,6.663152e+02
4.126935e+02,6.654021e+02
4.136577e+02,6.630262e+02
4.146220e+02,6.604059e+02
4.155862e+02,6.596669e+02
4.165504e+02,6.614241e+02
4.175147e+02,6.642556e+02
4.184789e+02,6.658602e+02
4.194431e+02,6.638090e+02
4.204074e+02,6.634277e+02
4.213716e+02,6.666572e+02
4.223358e+02,6.708841e+02
4.233001e+02,6.730519e+02
4.242643e+02,6.714767e+02
4.252285e+02,6.681370e+02
4.261928e+02,6.678522e+02
4.271570e+02,6.720554e+02
4.281212e+02,6.762863e+02
4.290855e+02,6.786918e+02
4.300497e+02,6.796326e+02
4.310139e+02,6.798718e+02
4.319782e+02,6.791557e+02
4.329424e+02,6.782360e+02
4.339066e+02,6.780959e+02
4.348709e+02,6.787379e+02
4.358351e+02,6.791321e+02
4.367993e+02,6.783188e+02
4.377636e+02,6.759041e+02
4.387278e+02,6.732763e+02
4.396920e+02,6.701686e+02
4.406563e+02,6.672039e+02
4.416205e+02,6.642705e+02
4.425847e+02,6.613771e+02
4.435490e+02,6.596506e+02
4.445132e+02,6.615756e+02
4.454774e+02,6.683547e+02
4.464417e+02,6.734423e+02
4.474059e+02,6.739456e+02
4.483701e+02,6.721377e+02
4.493344e+02,6.709857e+02
4.502986e+02,6.713217e+02
4.512628e+02,6.722682e+02
4.522271e+02,6.733902e+02
4.531913e+02,6.746408e+02
4.541555e+02,6.758657e+02
4.551198e+02,6.770363e+02
4.560840e+02,6.781841e+02
4.570482e+02,6.782966e+02
4.580125e+02,6.773278e+02
4.589767e+02,6.760177e+02
4.599409e+02,6.740140e+02
4.609052e+02,6.713807e+02
4.618694e+02,6.688271e+02
4.628336e+02,6.671737e+02
4.637979e+02,6.663669e+02
4.647621e+02,6.654505e+02
4.657263e+02,6.647240e+02
4.666906e+02,6.638607e+02
4.676548e+02,6.617225e+02
4.686190e+02,6.571632e+02
4.695833e+02,6.547314e+02
4.705475e+02,6.575104e+02
4.715117e+02,6.627853e+02
4.724760e+02,6.668900e+02
4.734402e+02,6.686744e+02
4.744044e+02,6.686556e+02
4.753687e+02,6.677766e+02
4.763329e+02,6.648090e+02
4.772971e+02,6.629459e+02
4.782614e+02,6.633734e+02
4.792256e+02,6.649083e+02
4.801898e+02,6.660314e+02
4.811541e+02,6.659836e+02
4.821183e+02,6.651609e+02
4.830826e+02,6.637451e+02
4.840468e+02,6.616082e+02
4.850110e+02,6.600641e+02
4.859753e+02,6.600625e+02
4.869395e+02,6.616922e+02
4.879037e+02,6.635668e+02
4.888680e+02,6.669942e+02
4.898322e+02,6.697480e+02
4.907964e+02,6.702255e+02
4.917607e+02,6.686918e+02
4.927249e+02,6.667975e+02
4.936891e+02,6.661091e+02
4.946534e+02,6.666909e+02
4.956176e+02,6.669938e+02
4.965818e+02,6.666162e+02
4.975461e+02,6.663494e+02
4.985103e+02,6.670248e+02
4.994745e+02,6.689658e+02
5.004388e+02,6.698779e+02
5.014030e+02,6.680052e+02
5.023672e+02,6.648233e+02
5.033315e+02,6.628300e+02
5.042957e+02,6.628369e+02
5.052599e+02,6.638158e+02
5.062242e+02,6.636629e+02
5.071884e+02,6.612641e+02
5.081526e+02,6.597073e+02
5.091169e+02,6.594880e+02
5.100811e+02,6.603529e+02
5.110453e+02,6.620206e+02
5.120095e+02,6.651775e+02
5.129738e+02,6.683718e+02
5.139380e+02,6.695604e+02
5.149022e+02,6.687901e+02
5.158665e+02,6.675242e+02
5.168307e+02,6.661939e+02
5.177949e+02,6.644807e+02
5.187592e+02,6.627241e+02
5.197234e+02,6.621788e+02
5.206876e+02,6.614308e+02
5.216519e+02,6.590889e+02
5.226161e+02,6.558884e+02
5.235803e+02,6.538820e+02
5.245446e+02,6.555768e+02
5.255088e+02,6.602877e+02
5.264730e+02,6.629957e+02
5.274373e+02,6.627940e+02
5.284015e+02,6.619860e+02
5.293657e+02,6.630091e+02
5.303300e+02,6.664279e+02
5.312942e+02,6.674016e+02
5.322584e+02,6.632729e+02
5.332227e+02,6.576869e+02
5.341869e+02,6.537020e+02
5.351511e+02,6.518528e+02
5.361154e+02,6.513549e+02
5.370796e+02,6.513994e+02
5.380438e+02,6.521113e+02
5.390081e+02,6.533067e+02
5.399723e+02,6.560070e+02
5.409365e+02,6.586777e+02
5.419008e+02,6.596276e+02
5.428650e+02,6.578182e+02
5.438292e+02,6.554895e+02
5.447935e+02,6.537405e+02
5.457577e+02,6.523740e+02
5.467219e+02,6.507863e+02
5.476862e+02,6.486003e+02
5.486504e+02,6.464406e+02
5.496146e+02,6.464691e+02
5.505789e+02,6.509521e+02
5.515431e+02,6.540222e+02
5.525073e+02,6.539900e+02
5.534716e+02,6.524324e+02
5.544358e+02,6.512902e+02
5.554000e+02,6.507567e+02
5.563643e+02,6.508542e+02
5.573285e+02,6.515723e+02
5.582927e+02,6.528631e+02
5.592570e+02,6.551182e+02
5.602212e+02,6.591888e+02
5.611854e+02,6.649708e+02
5.621497e+02,6.675850e+02
5.631139e+02,6.631274e+02
5.640781e+02,6.586716e+02
5.650424e+02,6.565554e+02
5.660066e+02,6.564969e+02
5.669708e+02,6.568231e+02
5.679351e+02,6.568027e+02
5.688993e+02,6.566514e+02
5.698635e+02,6.567487e+02
5.708278e+02,6.572048e+02
5.717920e+02,6.577531e+02
5.727562e+02,6.579145e+02
5.737205e+02,6.571871e+02
5.746847e+02,6.572427e+02
5.756489e+02,6.594960e+02
5.766132e+02,6.611755e+02
5.775774e+02,6.602302e+02
5.785416e+02,6.565911e+02
5.795059e+02,6.531619e+02
5.804701e+02,6.521139e+02
5.814343e+02,6.530701e+02
5.823986e+02,6.553730e+02
5.833628e+02,6.594443e+02
5.843270e+02,6.633406e+02
5.852913e+02,6.643195e+02
5.862555e+02,6.595327e+02
5.872197e+02,6.560363e+02
5.881840e+02,6.538602e+02
5.891482e+02,6.527464e+02
5.901124e+02,6.527795e+02
5.910767e+02,6.541453e+02
5.920409e+02,6.556697e+02
5.930051e+02,6.562734e+02
5.939694e+02,6.559525e+02
5.949336e+02,6.545780e+02
5.958978e+02,6.515241e+02
5.968621e+02,6.482584e+02
5.978263e+02,6.482254e+02
5.987905e+02,6.565438e+02
5.997548e+02,6.622918e+02
6.007190e+02,6.632008e+02
6.016832e+02,6.617513e+02
6.026475e+02,6.607601e+02
6.036117e+02,6.614583e+02
6.045759e+02,6.623343e+02
6.055402e+02,6.609650e+02
6.065044e+02,6.576086e+02
6.074686e+02,6.555099e+02
6.084329e+02,6.566238e+02
6.093971e+02,6.601414e+02
6.103613e+02,6.617352e+02
6.113256e+02,6.591730e+02
6.122899e+02,6.570837e+02
6.132541e+02,6.570766e+02
6.142183e+02,6.579507e+02
6.151826e+02,6.576501e+02
6.161468e+02,6.540713e+02
6.171110e+02,6.499086e+02
6.180753e+02,6.486691e+02
6.190395e+02,6.500283e+02
6.200037e+02,6.514910e+02
6.209680e+02,6.515294e+02
6.219322e+02,6.503121e+02
6.228964e+02,6.494970e+02
6.238607e+02,6.492333e+02
6.248249e+02,6.491295e+02
6.257891e+02,6.487383e+02
6.267534e+02,6.480964e+02
6.277176e+02,6.477855e+02
6.286818e+02,6.482626e+02
6.296461e+02,6.494243e+02
6.306103e+02,6.515925e+02
6.315745e+02,6.546118e+02
6.325388e+02,6.571182e+02
6.335030e+02,6.579406e+02
6.344672e+02,6.569404e+02
6.354315e+02,6.551686e+02
6.363957e+02,6.508329e+02
6.373599e+02,6.475097e+02
6.383242e+02,6.475346e+02
6.392884e+02,6.506443e+02
6.402526e+02,6.536336e+02
6.412169e+02,6.557802e+02
6.421811e+02,6.571627e+02
6.431453e+02,6.576437e+02
6.441096e+02,6.573036e+02
6.450738e+02,6.566511e+02
6.460380e+02,6.563810e+02
6.470023e+02,6.566604e+02
6.479665e+02,6.561534e+02
6.489307e+02,6.540821e+02
6.498950e+02,6.519385e+02
6.508592e+02,6.510979e+02
6.518234e+02,6.516446e+02
6.527877e+02,6.513855e+02
6.537519e+02,6.490078e+02
6.547161e+02,6.465045e+02
6.556804e+02,6.452314e+02
6.566446e+02,6.454033e+02
6.576088e+02,6.466299e+02
6.585731e+02,6.493500e+02
6.595373e+02,6.531069e+02
6.605015e+02,6.550018e+02
6.614658e+02,6.544076e+02
6.624300e+02,6.529679e+02
6.633942e+02,6.522438e+02
6.643585e+02,6.525194e+02
6.653227e+02,6.527192e+02
6.662869e+02,6.531718e+02
6.672512e+02,6.531217e+02
6.682154e+02,6.519796e+02
6.691796e+02,6.496100e+02
6.701439e+02,6.468223e+02
6.711081e+02,6.431268e+02
6.720723e+02,6.396247e+02
6.730366e+02,6.392715e+02
6.740008e+02,6.427634e+02
6.749650e+02,6.472142e+02
6.759293e+02,6.491152e+02
6.768935e+02,6.474583e+02
6.778577e+02,6.464791e+02
6.788220e+02,6.470455e+02
6.797862e+02,6.480152e+02
6.807504e+02,6.480145e+02
6.817147e+02,6.463887e+02
6.826789e+02,6.460779e+02
6.836431e+02,6.501722e+02
6.846074e+02,6.549035e+02
6.855716e+02,6.555646e+02
6.865358e+02,6.515807e+02
6.875001e+02,6.469852e+02
6.884643e+02,6.468177e+02
6.894285e+02,6.510570e+02
6.903928e+02,6.545154e+02
6.913570e+02,6.569554e+02
6.923212e+02,6.577408e+02
6.932855e+02,6.558644e+02
6.942497e+02,6.485324e+02
6.952139e+02,6.448732e+02
6.961782e+02,6.480208e+02
6.971424e+02,6.526921e+02
6.981066e+02,6.549963e+02
6.990709e+02,6.539342e+02
7.000351e+02,6.517422e+02
7.009993e+02,6.503106e+02
7.019636e+02,6.494611e+02
7.029278e+02,6.480730e+02
7.038920e+02,6.458289e+02
7.048563e+02,6.439283e+02
7.058205e+02,6.445997e+02
7.067847e+02,6.496815e+02
7.077490e+02,6.517721e+02
7.087132e+02,6.481860e+02
7.096774e+02,6.442128e+02
7.106417e+02,6.439255e+02
7.116059e+02,6.483402e+02
7.125701e+02,6.513580e+02
7.135344e+02,6.504635e+02
7.144986e+02,6.482513e+02
7.154628e+02,6.464020e+02
7.164271e+02,6.452887e+02
7.173913e+02,6.455439e+02
7.183555e+02,6.493828e+02
7.193198e+02,6.556240e+02
7.202840e+02,6.577489e+02
7.212482e+02,6.543522e+02
7.222125e+02,6.496619e+02
7.231767e+02,6.481325e+02
7.241409e+02,6.512853e+02
7.251052e+02,6.527981e+02
7.260694e+02,6.512073e+02
7.270336e+02,6.490773e+02
7.279979e+02,6.479728e+02
7.289621e+02,6.480386e+02
7.299263e+02,6.480095e+02
7.308906e+02,6.460836e+02
7.318548e+02,6.443492e+02
7.328190e+02,6.461259e+02
7.337833e+02,6.513652e+02
7.347475e+02,6.561864e+02
7.357117e+02,6.566058e+02
7.366760e+02,6.531080e+02
7.376402e+02,6.491120e+02
7.386044e+02,6.440176e+02
7.395687e+02,6.407225e+02
7.405329e+02,6.424779e+02
7.414971e+02,6.518267e+02
7.424614e+02,6.551130e+02
7.434256e+02,6.464556e+02
7.443898e+02,6.381013e+02
7.453541e+02,6.358972e+02
7.463183e+02,6.394109e+02
7.472825e+02,6.436543e+02
7.482468e+02,6.476148e+02
7.492110e+02,6.505147e+02
7.501752e+02,6.514455e+02
7.511395e+02,6.507969e+02
7.521037e+02,6.496797e+02
7.530679e+02,6.486683e+02
7.540322e+02,6.475725e+02
7.549964e+02,6.460985e+02
7.559606e+02,6.441594e+02
7.569249e+02,6.426572e+02
7.578891e+02,6.421163e+02
7.588533e+02,6.426149e+02
7.598176e+02,6.440263e+02
7.607818e+02,6.468557e+02
7.617460e+02,6.490101e+02
7.627103e+02,6.495536e+02
7.636745e+02,6.492316e+02
7.646387e+02,6.496609e+02
7.656030e+02,6.526690e+02
7.665672e+02,6.557172e+02
7.675314e+02,6.562791e+02
7.684957e+02,6.543845e+02
7.694599e+02,6.513285e+02
7.704241e+02,6.476983e+02
7.713884e+02,6.444599e+02
7.723526e+02,6.445963e+02
7.733168e+02,6.487581e+02
7.742811e+02,6.516852e+02
7.752453e+02,6.498636e+02
7.762095e+02,6.443317e+02
7.771738e+02,6.423061e+02
7.781380e+02,6.470554e+02
7.791022e+02,6.507751e+02
7.800665e+02,6.520655e+02
7.810307e+02,6.515771e+02
7.819949e+02,6.503138e+02
7.829592e+02,6.476858e+02
7.839234e+02,6.456033e+02
7.848876e+02,6.452481e+02
7.858519e+02,6.458011e+02
7.868161e+02,6.460535e+02
7.877803e+02,6.454946e+02
7.887446e+02,6.444274e+02
7.897088e+02,6.428047e+02
7.906730e+02,6.411141e+02
7.916373e+02,6.414927e+02
7.926015e+02,6.445373e+02
7.935657e+02,6.487155e+02
7.945300e+02,6.520816e+02
7.954942e+02,6.555771e+02
7.964584e+02,6.563787e+02
7.974227e+02,6.527347e+02
7.983869e+02,6.480675e+02
7.993511e+02,6.457595e+02
8.003154e+02,6.466076e+02
8.012796e+02,6.470804e+02
8.022438e+02,6.466973e+02
8.032081e+02,6.461619e+02
8.041723e+02,6.460363e+02
8.051365e+02,6.463560e+02
8.061008e+02,6.466805e+02
8.070650e+02,6.463867e+02
8.080292e+02,6.457353e+02
8.089935e+02,6.455909e+02
8.099577e+02,6.462411e+02
8.109219e+02,6.470871e+02
8.118862e+02,6.474891e+02
8.128504e+02,6.474418e+02
8.138146e+02,6.468152e+02
8.147789e+02,6.453254e+02
8.157431e+02,6.436323e+02
8.167073e+02,6.422877e+02
8.176716e+02,6.415204e+02
8.186358e+02,6.418286e+02
8.196000e+02,6.453145e+02
8.205643e+02,6.478073e+02
8.215285e+02,6.461596e+02
8.224927e+02,6.410214e+02
8.234570e+02,6.379169e+02
8.244212e+02,6.402021e+02
8.253854e+02,6.432438e+02
8.263497e+02,6.440587e+02
8.273139e+02,6.429003e+02
8.282781e+02,6.414863e+02
8.292424e+02,6.412292e+02
8.302066e+02,6.415773e+02
8.311708e+02,6.410316e+02
8.321351e+02,6.399341e+02
8.330993e+02,6.402062e+02
8.340635e+02,6.429877e+02
8.350278e+02,6.472669e+02
8.359920e+02,6.504243e+02
8.369562e+02,6.525544e+02
8.379205e+02,6.530917e+02
8.388847e+02,6.513650e+02
8.398489e+02,6.482549e+02
8.408132e+02,6.458549e+02
8.417774e+02,6.437605e+02
8.427416e+02,6.427637e+02
8.437059e+02,6.437857e+02
8.446701e+02,6.454915e+02
8.456343e+02,6.465468e+02
8.465986e+02,6.465836e+02
8.475628e+02,6.461799e+02
8.485270e+02,6.453222e+02
8.494913e+02,6.442067e+02
8.504555e+02,6.429661e+02
8.514197e+02,6.416938e+02
8.523840e+02,6.409314e+02
8.533482e+02,6.414284e+02
8.543124e+02,6.424544e+02
8.552767e+02,6.425281e+02
8.562409e+02,6.414398e+02
8.572051e+02,6.403782e+02
8.581694e+02,6.409321e+02
8.591336e+02,6.430257e+02
8.600978e+02,6.449042e+02
8.610621e+02,6.468182e+02
8.620263e+02,6.476223e+02
8.629905e+02,6.456149e+02
8.639548e+02,6.402243e+02
8.649190e+02,6.387649e+02
8.658832e+02,6.452600e+02
8.668475e+02,6.509374e+02
8.678117e+02,6.510486e+02
8.687759e+02,6.466071e+02
8.697402e+02,6.432649e+02
8.707044e+02,6.409510e+02
8.716686e+02,6.395076e+02
8.726329e+02,6.394332e+02
8.735971e+02,6.405879e+02
8.745613e+02,6.425114e+02
8.755256e+02,6.462829e+02
8.764898e+02,6.497730e+02
8.774540e+02,6.513021e+02
8.784183e+02,6.513559e+02
8.793825e+02,6.506547e+02
8.803467e+02,6.492958e+02
8.813110e+02,6.479865e+02
8.822752e+02,6.477645e+02
8.832394e+02,6.485566e+02
8.842037e+02,6.496915e+02
8.851679e+02,6.508609e+02
8.861321e+02,6.519040e+02
8.870964e+02,6.530852e+02
8.880606e+02,6.544381e+02
8.890248e+02,6.536854e+02
8.899891e+02,6.500036e+02
8.909533e+02,6.465846e+02
8.919175e+02,6.467035e+02
8.928818e+02,6.517393e+02
8.938460e+02,6.539047e+02
8.948102e+02,6.511046e+02
8.957745e+02,6.473583e+02
8.967387e+02,6.445364e+02
8.977029e+02,6.424778e+02
8.986672e+02,6.415218e+02
8.996314e+02,6.430604e+02
9.005956e+02,6.450450e+02
9.015599e+02,6.470489e+02
9.025241e+02,6.486229e+02
9.034883e+02,6.490402e+02
9.044526e+02,6.466542e+02
9.054168e+02,6.440255e+02
9.063810e+02,6.433226e+02
9.073453e+02,6.441350e+02
9.083095e+02,6.452225e+02
9.092737e+02,6.460656e+02
9.102380e+02,6.461492e+02
9.112022e+02,6.438865e+02
9.121664e+02,6.404916e+02
9.131307e+02,6.396926e+02
9.140949e+02,6.429295e+02
9.150591e+02,6.473209e+02
9.160234e+02,6.484078e+02
9.169876e+02,6.461887e+02
9.179518e+02,6.431332e+02
9.189161e+02,6.393303e+02
9.198803e+02,6.364120e+02
9.208445e+02,6.370149e+02
9.218088e+02,6.421188e+02
9.227730e+02,6.439756e+02
9.237372e+02,6.410540e+02
9.247015e+02,6.376866e+02
9.256657e+02,6.369495e+02
9.266299e+02,6.389537e+02
9.275942e+02,6.391927e+02
9.285584e+02,6.350020e+02
9.295226e+02,6.319569e+02
9.304869e+02,6.327907e+02
9.314511e+02,6.365505e+02
9.324153e+02,6.398754e+02
9.333796e+02,6.439453e+02
9.343438e+02,6.458723e+02
9.353080e+02,6.437474e+02
9.362723e+02,6.390518e+02
9.372365e+02,6.338762e+02
9.382007e+02,6.274481e+02
9.391650e+02,6.238696e+02
9.401292e+02,6.274241e+02
9.410934e+02,6.335778e+02
9.420577e+02,6.366534e+02
9.430219e+02,6.350043e+02
9.439861e+02,6.330324e+02
9.449504e+02,6.349522e+02
9.459146e+02,6.386874e+02
9.468788e+02,6.409099e+02
9.478431e+02,6.409125e+02
9.488073e+02,6.398443e+02
9.497715e+02,6.392392e+02
9.507358e+02,6.386259e+02
9.517000e+02,6.354641e+02
9.526642e+02,6.303922e+02
9.536285e+02,6.285453e+02
9.545927e+02,6.346350e+02
9.555569e+02,6.452039e+02
9.565212e+02,6.478429e+02
9.574854e+02,6.425405e+02
9.584496e+02,6.389380e+02
9.594139e+02,6.409907e+02
9.603781e+02,6.459432e+02
9.613423e+02,6.470225e+02
9.623066e+02,6.433156e+02
9.632708e+02,6.401827e+02
9.642350e+02,6.386697e+02
9.651993e+02,6.384947e+02
9.661635e+02,6.391912e+02
9.671277e+02,6.411960e+02
9.680920e+02,6.425375e+02
9.690562e+02,6.437501e+02
9.700204e+02,6.435772e+02
9.709847e+02,6.405736e+02
9.719489e+02,6.338000e+02
9.729131e+02,6.301599e+02
9.738774e+02,6.329913e+02
9.748416e+02,6.358620e+02
9.758058e+02,6.347018e+02
9.767701e+02,6.304579e+02
9.777343e+02,6.293581e+02
9.786985e+02,6.352899e+02
9.796628e+02,6.410372e+02
9.806270e+02,6.448094e+02
9.815912e+02,6.466427e+02
9.825555e+02,6.467640e+02
9.835197e+02,6.447301e+02
9.844839e+02,6.423066e+02
9.854482e+02,6.391406e+02
9.864124e+02,6.366094e+02
9.873766e+02,6.364772e+02
9.883409e+02,6.395167e+02
9.893051e+02,6.426892e+02
9.902693e+02,6.443018e+02
9.912336e+02,6.450456e+02
9.921978e+02,6.450251e+02
9.931620e+02,6.442732e+02
9.941263e+02,6.438795e+02
9.950905e+02,6.458805e+02
9.960547e+02,6.480513e+02
9.970190e+02,6.468567e+02
9.979832e+02,6.429900e+02
9.989474e+02,6.396849e+02
9.999117e+02,6.394147e+02
1.000876e+03,6.405362e+02
1.001840e+03,6.405827e+02
1.002804e+03,6.399158e+02
1.003769e+03,6.391546e+02
1.004733e+03,6.382980e+02
1.005697e+03,6.374716e+02
1.006661e+03,6.369909e+02
1.007626e+03,6.368640e+02
1.008590e+03,6.368748e+02
1.009554e+03,6.368349e+02
1.010518e+03,6.368388e+02
1.011482e+03,6.370654e+02
1.012447e+03,6.375382e+02
1.013411e+03,6.389359e+02
1.014375e+03,6.416926e+02
1.015339e+03,6.441371e+02
1.016304e+03,6.448778e+02
1.017268e+03,6.440757e+02
1.018232e+03,6.430651e+02
1.019196e+03,6.418227e+02
1.020161e+03,6.395519e+02
1.021125e+03,6.353934e+02
1.022089e+03,6.311363e+02
1.023053e+03,6.316889e+02
1.024018e+03,6.380400e+02
1.024982e+03,6.430511e+02
1.025946e+03,6.450955e+02
1.026910e+03,6.453040e+02
1.027875e+03,6.455966e+02
1.028839e+03,6.467321e+02
1.029803e+03,6.462181e+02
1.030767e+03,6.429486e+02
1.031731e+03,6.400323e+02
1.032696e+03,6.396283e+02
1.033660e+03,6.417733e+02
1.034624e+03,6.441434e+02
1.035588e+03,6.482386e+02
1.036552e+03,6.502410e+02
1.037517e+03,6.470411e+02
1.038481e+03,6.403836e+02
1.039445e+03,6.378185e+02
1.040409e+03,6.433389e+02
1.041374e+03,6.462873e+02
1.042338e+03,6.431428e+02
1.043302e+03,6.379615e+02
1.044266e+03,6.359232e+02
1.045231e+03,6.389400e+02
1.046195e+03,6.414733e+02
1.047159e+03,6.442903e+02
1.048123e+03,6.462496e+02
1.049088e+03,6.461757e+02
1.050052e+03,6.438851e+02
1.051016e+03,6.427463e+02
1.051980e+03,6.438213e+02
1.052945e+03,6.447984e+02
1.053909e+03,6.436505e+02
1.054873e+03,6.410830e+02
1.055837e+03,6.408594e+02
1.056802e+03,6.473564e+02
1.057766e+03,6.515240e+02
1.058730e+03,6.499788e+02
1.059694e+03,6.461120e+02
1.060658e+03,6.440394e+02
1.061623e+03,6.453429e+02
1.062587e+03,6.464503e+02
1.063551e+03,6.468369e+02
1.064515e+03,6.470677e+02
1.065479e+03,6.474501e+02
1.066444e+03,6.481556e+02
1.067408e+03,6.486805e+02
1.068372e+03,6.482697e+02
1.069336e+03,6.483329e+02
1.070301e+03,6.499501e+02
1.071265e+03,6.522211e+02
1.072229e+03,6.528740e+02
1.073193e+03,6.492659e+02
1.074158e+03,6.466815e+02
1.075122e+03,6.469074e+02
1.076086e+03,6.487441e+02
1.077050e+03,6.509989e+02
1.078015e+03,6.543541e+02
1.078979e+03,6.571664e+02
1.079943e+03,6.586872e+02
1.080907e+03,6.596746e+02
1.081872e+03,6.600667e+02
1.082836e+03,6.597097e+02
1.083800e+03,6.604066e+02
1.084764e+03,6.639699e+02
1.085729e+03,6.675599e+02
1.086693e+03,6.690948e+02
1.087657e+03,6.695348e+02
1.088621e+03,6.716050e+02
1.089585e+03,6.778568e+02
1.090550e+03,6.830093e+02
1.091514e+03,6.860322e+02
1.092478e+03,6.876989e+02
1.093442e+03,6.888798e+02
1.094406e+03,6.902783e+02
1.095371e+03,6.896848e+02
1.096335e+03,6.845754e+02
1.097299e+03,6.788088e+02
1.098263e+03,6.747676e+02
1.099228e+03,6.724553e+02
1.100192e+03,6.704365e+02
1.101156e+03,6.679949e+02
1.102120e+03,6.661692e+02
1.103085e+03,6.661965e+02
1.104049e+03,6.670502e+02
1.105013e+03,6.666619e+02
1.105977e+03,6.628776e+02
1.106942e+03,6.603716e+02
1.107906e+03,6.605014e+02
1.108870e+03,6.618850e+02
1.109834e+03,6.633867e+02
1.110799e+03,6.650370e+02
1.111763e+03,6.663806e+02
1.112727e+03,6.661883e+02
1.113691e+03,6.669984e+02
1.114656e+03,6.712928e+02
1.115620e+03,6.782658e+02
1.116584e+03,6.819279e+02
1.117548e+03,6.786452e+02
1.118512e+03,6.753336e+02
1.119477e+03,6.739215e+02
1.120441e+03,6.733286e+02
1.121405e+03,6.719864e+02
1.122369e+03,6.688113e+02
1.123334e+03,6.665880e+02
1.124298e+03,6.663962e+02
1.125262e+03,6.664407e+02
1.126226e+03,6.652906e+02
1.127191e+03,6.627357e+02
1.128155e+03,6.614105e+02
1.129119e+03,6.622057e+02
1.130083e+03,6.626840e+02
1.131047e+03,6.618002e+02
1.132012e+03,6.597653e+02
1.132976e+03,6.577805e+02
1.133940e+03,6.561193e+02
1.134904e+03,6.538033e+02
1.135869e+03,6.501901e+02
1.136833e+03,6.468171e+02
1.137797e+03,6.453885e+02
1.138761e+03,6.463976e+02
1.139726e+03,6.484428e+02
1.140690e+03,6.520027e+02
1.141654e+03,6.553546e+02
1.142618e+03,6.575391e+02
1.143583e+03,6.586230e+02
1.144547e+03,6.585738e+02
1.145511e+03,6.569656e+02
1.146475e+03,6.557562e+02
1.147439e+03,6.554990e+02
1.148404e+03,6.559725e+02
1.149368e+03,6.566124e+02
1.150332e+03,6.573455e+02
1.151296e+03,6.584299e+02
1.152261e+03,6.598656e+02
1.153225e+03,6.599874e+02
1.154189e+03,6.575206e+02
1.155153e+03,6.530345e+02
1.156118e+03,6.483441e+02
1.157082e+03,6.435826e+02
1.158046e+03,6.420541e+02
1.159010e+03,6.456985e+02
1.159974e+03,6.518117e+02
1.160939e+03,6.548854e+02
1.161903e+03,6.551285e+02
1.162867e+03,6.548235e+02
1.163831e+03,6.543984e+02
1.164796e+03,6.533974e+02
1.165760e+03,6.509899e+02
1.166724e+03,6.479661e+02
1.167688e+03,6.462989e+02
1.168653e+03,6.459316e+02
1.169617e+03,6.457814e+02
1.170581e+03,6.454050e+02
1.171545e+03,6.448178e+02
1.172510e+03,6.436573e+02
1.173474e+03,6.423390e+02
1.174438e+03,6.416678e+02
1.175402e+03,6.418226e+02
1.176366e+03,6.423734e+02
1.177331e+03,6.428215e+02
1.178295e+03,6.436615e+02
1.179259e+03,6.465195e+02
1.180223e+03,6.506595e+02
1.181188e+03,6.521186e+02
1.182152e+03,6.454322e+02
1.183116e+03,6.384352e+02
1.184080e+03,6.369159e+02
1.185045e+03,6.392111e+02
1.186009e+03,6.422097e+02
1.186973e+03,6.458264e+02
1.187937e+03,6.485852e+02
1.188901e+03,6.493542e+02
1.189866e+03,6.492523e+02
1.190830e+03,6.491426e+02
1.191794e+03,6.489971e+02
1.192758e+03,6.480705e+02
1.193723e+03,6.449358e+02
1.194687e+03,6.428959e+02
1.195651e+03,6.438981e+02
1.196615e+03,6.467272e+02
1.197580e+03,6.483078e+02
1.198544e+03,6.467601e+02
1.199508e+03,6.458390e+02
1.200472e+03,6.461701e+02
1.201437e+03,6.474673e+02
1.202401e+03,6.500685e+02
1.203365e+03,6.546852e+02
1.204329e+03,6.559984e+02
1.205293e+03,6.523328e+02
1.206258e+03,6.492959e+02
1.207222e+03,6.493253e+02
1.208186e+03,6.514990e+02
1.209150e+03,6.537729e+02
1.210115e+03,6.561957e+02
1.211079e+03,6.555485e+02
1.212043e+03,6.507493e+02
1.213007e+03,6.454266e+02
1.213972e+03,6.445635e+02
1.214936e+03,6.474265e+02
1.215900e+03,6.482639e+02
1.216864e+03,6.470814e+02
1.217828e+03,6.457216e+02
1.218793e+03,6.449711e+02
1.219757e+03,6.451286e+02
1.220721e+03,6.474270e+02
1.221685e+03,6.510355e+02
1.222650e+03,6.535178e+02
1.223614e+03,6.540264e+02
1.224578e+03,6.533888e+02
1.225542e+03,6.518027e+02
1.226507e+03,6.502451e+02
1.227471e+03,6.496774e+02
1.228435e+03,6.499245e+02
1.229399e+03,6.504924e+02
1.230364e+03,6.522598e+02
1.231328e+03,6.534107e+02
1.232292e+03,6.523132e+02
1.233256e+03,6.508241e+02
1.234220e+03,6.511541e+02
1.235185e+03,6.546130e+02
1.236149e+03,6.575135e+02
1.237113e+03,6.595146e+02
1.238077e+03,6.605357e+02
1.239042e+03,6.591531e+02
1.240006e+03,6.556288e+02
1.240970e+03,6.544598e+02
1.241934e+03,6.572654e+02
1.242899e+03,6.595607e+02
1.243863e+03,6.608170e+02
1.244827e+03,6.611541e+02
1.245791e+03,6.603489e+02
1.246755e+03,6.579997e+02
1.247720e+03,6.569718e+02
1.248684e+03,6.575607e+02
1.249648e+03,6.587347e+02
1.250612e+03,6.598677e+02
1.251577e+03,6.608444e+02
1.252541e+03,6.615926e+02
1.253505e+03,6.620409e+02
1.254469e+03,6.623364e+02
1.255434e+03,6.627149e+02
1.256398e+03,6.624818e+02
1.257362e+03,6.589463e+02
1.258326e+03,6.546058e+02
1.259291e+03,6.548648e+02
1.260255e+03,6.593646e+02
1.261219e+03,6.641961e+02
1.262183e+03,6.686240e+02
1.263147e+03,6.716279e+02
1.264112e+03,6.724617e+02
1.265076e+03,6.711920e+02
1.266040e+03,6.669906e+02
1.267004e+03,6.580336e+02
1.267969e+03,6.523810e+02
1.268933e+03,6.552067e+02
1.269897e+03,6.602513e+02
1.270861e+03,6.635939e+02
1.271826e+03,6.647327e+02
1.272790e+03,6.654772e+02
1.273754e+03,6.657925e+02
1.274718e+03,6.662944e+02
1.275682e+03,6.675801e+02
1.276647e+03,6.691202e+02
1.277611e+03,6.701358e+02
1.278575e+03,6.705771e+02
1.279539e+03,6.700194e+02
1.280504e+03,6.687335e+02
1.281468e+03,6.670358e+02
1.282432e+03,6.643679e+02
1.283396e+03,6.619116e+02
1.284361e+03,6.634279e+02
1.285325e+03,6.677603e+02
1.286289e+03,6.706022e+02
1.287253e+03,6.707939e+02
1.288218e+03,6.702396e+02
1.289182e+03,6.713489e+02
1.290146e+03,6.725410e+02
1.291110e+03,6.708187e+02
1.292074e+03,6.673279e+02
1.293039e+03,6.661335e+02
1.294003e+03,6.721691e+02
1.294967e+03,6.769655e+02
1.295931e+03,6.759376e+02
1.296896e+03,6.728309e+02
1.297860e+03,6.716405e+02
1.298824e+03,6.733653e+02
1.299788e+03,6.739228e+02
1.300753e+03,6.717922e+02
1.301717e+03,6.702140e+02
1.302681e+03,6.704464e+02
1.303645e+03,6.721495e+02
1.304609e+03,6.750157e+02
1.305574e+03,6.793970e+02
1.306538e+03,6.796797e+02
1.307502e+03,6.746352e+02
1.308466e+03,6.699315e+02
1.309431e+03,6.720591e+02
1.310395e+03,6.787396e+02
1.311359e+03,6.821447e+02
1.312323e+03,6.824486e+02
1.313288e+03,6.816387e+02
1.314252e+03,6.804383e+02
1.315216e+03,6.802441e+02
1.316180e+03,6.835657e+02
1.317145e+03,6.877136e+02
1.318109e+03,6.889859e+02
1.319073e+03,6.867496e+02
1.320037e+03,6.840891e+02
1.321001e+03,6.816531e+02
1.321966e+03,6.796820e+02
1.322930e+03,6.781668e+02
1.323894e+03,6.776821e+02
1.324858e+03,6.788254e+02
1.325823e+03,6.825518e+02
1.326787e+03,6.856979e+02
1.327751e+03,6.881503e+02
1.328715e+03,6.895884e+02
1.329680e+03,6.897031e+02
1.330644e+03,6.888514e+02
1.331608e+03,6.883971e+02
1.332572e+03,6.882599e+02
1.333536e+03,6.884208e+02
1.334501e+03,6.888515e+02
1.335465e+03,6.886594e+02
1.336429e+03,6.860999e+02
1.337393e+03,6.832053e+02
1.338358e+03,6.833700e+02
1.339322e+03,6.860846e+02
1.340286e+03,6.883575e+02
1.341250e+03,6.890094e+02
1.342215e+03,6.885494e+02
1.343179e+03,6.867953e+02
1.344143e+03,6.849664e+02
1.345107e+03,6.840068e+02
1.346072e+03,6.840070e+02
1.347036e+03,6.835328e+02
1.348000e+03,6.814717e+02
1.348964e+03,6.808268e+02
1.349928e+03,6.837119e+02
1.350893e+03,6.881825e+02
1.351857e+03,6.890424e+02
1.352821e+03,6.862639e+02
1.353785e+03,6.826219e+02
1.354750e+03,6.783630e+02
1.355714e+03,6.754537e+02
1.356678e+03,6.766243e+02
1.357642e+03,6.801067e+02
1.358607e+03,6.837695e+02
1.359571e+03,6.870399e+02
1.360535e+03,6.888162e+02
1.361499e+03,6.885680e+02
1.362464e+03,6.877971e+02
1.363428e+03,6.868888e+02
1.364392e+03,6.861854e+02
1.365356e+03,6.852813e+02
1.366320e+03,6.840485e+02
1.367285e+03,6.840426e+02
1.368249e+03,6.859425e+02
1.369213e+03,6.884460e+02
1.370177e+03,6.918925e+02
1.371142e+03,6.946366e+02
1.372106e+03,6.944229e+02
1.373070e+03,6.916364e+02
1.374034e+03,6.886204e+02
1.374999e+03,6.857574e+02
1.375963e+03,6.845511e+02
1.376927e+03,6.862746e+02
1.377891e+03,6.886283e+02
1.378855e+03,6.891130e+02
1.379820e+03,6.886282e+02
1.380784e+03,6.887175e+02
1.381748e+03,6.897549e+02
1.382712e+03,6.893621e+02
1.383677e+03,6.851185e+02
1.384641e+03,6.805374e+02
1.385605e+03,6.755756e+02
1.386569e+03,6.716261e+02
1.387534e+03,6.718088e+02
1.388498e+03,6.777806e+02
1.389462e+03,6.781411e+02
1.390426e+03,6.715463e+02
1.391391e+03,6.655473e+02
1.392355e+03,6.654423e+02
1.393319e+03,6.687219e+02
1.394283e+03,6.711672e+02
1.395247e+03,6.725266e+02
1.396212e+03,6.719050e+02
1.397176e+03,6.690093e+02
1.398140e+03,6.667777e+02
1.399104e+03,6.666426e+02
1.400069e+03,6.677474e+02
1.401033e+03,6.710126e+02
1.401997e+03,6.750157e+02
1.402961e+03,6.759456e+02
1.403926e+03,6.720875e+02
1.404890e+03,6.687283e+02
1.405854e+03,6.662056e+02
1.406818e+03,6.644439e+02
1.407782e+03,6.635126e+02
1.408747e+03,6.634269e+02
1.409711e+03,6.637761e+02
1.410675e+03,6.640972e+02
1.411639e+03,6.638184e+02
1.412604e+03,6.627924e+02
1.413568e+03,6.620439e+02
1.414532e+03,6.632783e+02
1.415496e+03,6.648544e+02
1.416461e+03,6.647250e+02
1.417425e+03,6.631613e+02
1.418389e+03,6.622537e+02
1.419353e+03,6.626583e+02
1.420318e+03,6.636246e+02
1.421282e+03,6.665135e+02
1.422246e+03,6.681525e+02
1.423210e+03,6.649974e+02
1.424174e+03,6.581955e+02
1.425139e+03,6.550804e+02
1.426103e+03,6.551861e+02
1.427067e+03,6.561733e+02
1.428031e+03,6.573625e+02
1.428996e+03,6.590372e+02
1.429960e+03,6.624755e+02
1.430924e+03,6.655278e+02
1.431888e+03,6.657258e+02
1.432853e+03,6.634183e+02
1.433817e+03,6.609568e+02
1.434781e+03,6.582560e+02
1.435745e+03,6.567171e+02
1.436709e+03,6.565212e+02
1.437674e+03,6.568450e+02
1.438638e+03,6.574128e+02
1.439602e+03,6.583274e+02
1.440566e+03,6.584621e+02
1.441531e+03,6.578478e+02
1.442495e+03,6.574760e+02
1.443459e+03,6.575352e+02
1.444423e+03,6.582217e+02
1.445388e+03,6.607375e+02
1.446352e+03,6.630223e+02
1.447316e+03,6.627355e+02
1.448280e+03,6.604256e+02
1.449245e+03,6.587067e+02
1.450209e+03,6.585862e+02
1.451173e+03,6.583624e+02
1.452137e+03,6.572334e+02
1.453101e+03,6.561119e+02
1.454066e+03,6.563611e+02
1.455030e+03,6.577190e+02
1.455994e+03,6.575078e+02
1.456958e+03,6.560065e+02
1.457923e+03,6.551993e+02
1.458887e+03,6.557009e+02
1.459851e+03,6.567794e+02
1.460815e+03,6.579971e+02
1.461780e+03,6.591580e+02
1.462744e+03,6.607471e+02
1.463708e+03,6.627042e+02
1.464672e+03,6.637847e+02
1.465636e+03,6.649506e+02
1.466601e+03,6.634076e+02
1.467565e+03,6.576003e+02
1.468529e+03,6.518220e+02
1.469493e+03,6.501103e+02
1.470458e+03,6.515052e+02
1.471422e+03,6.532682e+02
1.472386e+03,6.553991e+02
1.473350e+03,6.574172e+02
1.474315e+03,6.589896e+02
1.475279e+03,6.603953e+02
1.476243e+03,6.626595e+02
1.477207e+03,6.638592e+02
1.478172e+03,6.620535e+02
1.479136e+03,6.581290e+02
1.480100e+03,6.558301e+02
1.481064e+03,6.556492e+02
1.482028e+03,6.555702e+02
1.482993e+03,6.555156e+02
1.483957e+03,6.551863e+02
1.484921e+03,6.538047e+02
1.485885e+03,6.519971e+02
1.486850e+03,6.507841e+02
1.487814e+03,6.499238e+02
1.488778e+03,6.493531e+02
1.489742e+03,6.492841e+02
1.490707e+03,6.489639e+02
1.491671e+03,6.476666e+02
1.492635e+03,6.474863e+02
1.493599e+03,6.498663e+02
1.494563e+03,6.531295e+02
1.495528e+03,6.526739e+02
1.496492e+03,6.485662e+02
1.497456e+03,6.459447e+02
1.498420e+03,6.456076e+02
1.499385e+03,6.463926e+02
1.500349e+03,6.483018e+02
1.501313e+03,6.501125e+02
1.502277e+03,6.506721e+02
1.503242e+03,6.502429e+02
1.504206e+03,6.490991e+02
1.505170e+03,6.467983e+02
1.506134e+03,6.451407e+02
1.507099e+03,6.442758e+02
1.508063e+03,6.438362e+02
1.509027e+03,6.436608e+02
1.509991e+03,6.438917e+02
1.510955e+03,6.448566e+02
1.511920e+03,6.464144e+02
1.512884e+03,6.487979e+02
1.513848e+03,6.519872e+02
1.514812e+03,6.544345e+02
1.515777e+03,6.552281e+02
1.516741e+03,6.543852e+02
1.517705e+03,6.497275e+02
1.518669e+03,6.451611e+02
1.519634e+03,6.443211e+02
1.520598e+03,6.468746e+02
1.521562e+03,6.484141e+02
1.522526e+03,6.487888e+02
1.523490e+03,6.484650e+02
1.524455e+03,6.475309e+02
1.525419e+03,6.468580e+02
1.526383e+03,6.477664e+02
1.527347e+03,6.489670e+02
1.528312e+03,6.496248e+02
1.529276e+03,6.499921e+02
1.530240e+03,6.503024e+02
1.531204e+03,6.501197e+02
1.532169e+03,6.503080e+02
1.533133e+03,6.508583e+02
1.534097e+03,6.522701e+02
1.535061e+03,6.559852e+02
1.536026e+03,6.596201e+02
1.536990e+03,6.575015e+02
1.537954e+03,6.526171e+02
1.538918e+03,6.507616e+02
1.539882e+03,6.535840e+02
1.540847e+03,6.560540e+02
1.541811e+03,6.554561e+02
1.542775e+03,6.560082e+02
1.543739e+03,6.602982e+02
1.544704e+03,6.649968e+02
1.545668e+03,6.631390e+02
1.546632e+03,6.565966e+02
1.547596e+03,6.540839e+02
1.548561e+03,6.554916e+02
1.549525e+03,6.568123e+02
1.550489e+03,6.545433e+02
1.551453e+03,6.531664e+02
1.552417e+03,6.557718e+02
1.553382e+03,6.592708e+02
1.554346e+03,6.614258e+02
1.555310e+03,6.624252e+02
1.556274e+03,6.625110e+02
1.557239e+03,6.616684e+02
1.558203e+03,6.621508e+02
1.559167e+03,6.645934e+02
1.560131e+03,6.670564e+02
1.561096e+03,6.678495e+02
1.562060e+03,6.680855e+02
1.563024e+03,6.686375e+02
1.563988e+03,6.692585e+02
1.564953e+03,6.691369e+02
1.565917e+03,6.675801e+02
1.566881e+03,6.674955e+02
1.567845e+03,6.688842e+02
1.568809e+03,6.709245e+02
1.569774e+03,6.737205e+02
1.570738e+03,6.760887e+02
1.571702e+03,6.763304e+02
1.572666e+03,6.751386e+02
1.573631e+03,6.730120e+02
1.574595e+03,6.702985e+02
1.575559e+03,6.688047e+02
1.576523e+03,6.687882e+02
1.577488e+03,6.700063e+02
1.578452e+03,6.724246e+02
1.579416e+03,6.745565e+02
1.580380e+03,6.750169e+02
1.581344e+03,6.742920e+02
1.582309e+03,6.727529e+02
1.583273e+03,6.710189e+02
1.584237e+03,6.704039e+02
1.585201e+03,6.722336e+02
1.586166e+03,6.726579e+02
1.587130e+03,6.705682e+02
1.588094e+03,6.677772e+02
1.589058e+03,6.646259e+02
1.590023e+03,6.624982e+02
1.590987e+03,6.650842e+02
1.591951e+03,6.705705e+02
1.592915e+03,6.743036e+02
1.593880e+03,6.754951e+02
1.594844e+03,6.753395e+02
1.595808e+03,6.733674e+02
1.596772e+03,6.716544e+02
1.597736e+03,6.708515e+02
1.598701e+03,6.705358e+02
1.599665e+03,6.700375e+02
1.600629e+03,6.696300e+02
1.601593e+03,6.713502e+02
1.602558e+03,6.741273e+02
1.603522e+03,6.743005e+02
1.604486e+03,6.702836e+02
1.605450e+03,6.666432e+02
1.606415e+03,6.661056e+02
1.607379e+03,6.658339e+02
1.608343e+03,6.643906e+02
1.609307e+03,6.627144e+02
1.610271e+03,6.629640e+02
1.611236e+03,6.644976e+02
1.612200e+03,6.647323e+02
1.613164e+03,6.638440e+02
1.614128e+03,6.628666e+02
1.615093e+03,6.616800e+02
1.616057e+03,6.610692e+02
1.617021e+03,6.622104e+02
1.617985e+03,6.625736e+02
1.618950e+03,6.604490e+02
1.619914e+03,6.566752e+02
1.620878e+03,6.545005e+02
1.621842e+03,6.536124e+02
1.622807e+03,6.524485e+02
1.623771e+03,6.508082e+02
1.624735e+03,6.494457e+02
1.625699e+03,6.481162e+02
1.626663e+03,6.474268e+02
1.627628e+03,6.475294e+02
1.628592e+03,6.478783e+02
1.629556e+03,6.490372e+02
1.630520e+03,6.507205e+02
1.631485e+03,6.479561e+02
1.632449e+03,6.419471e+02
1.633413e+03,6.384626e+02
1.634377e+03,6.414089e+02
1.635342e+03,6.430009e+02
1.636306e+03,6.384333e+02
1.637270e+03,6.339875e+02
1.638234e+03,6.323770e+02
1.639198e+03,6.327921e+02
1.640163e+03,6.331551e+02
1.641127e+03,6.337360e+02
1.642091e+03,6.347496e+02
1.643055e+03,6.360852e+02
1.644020e+03,6.382618e+02
1.644984e+03,6.436641e+02
1.645948e+03,6.463109e+02
1.646912e+03,6.444861e+02
1.647877e+03,6.411501e+02
1.648841e+03,6.381804e+02
1.649805e+03,6.360557e+02
1.650769e+03,6.372914e+02
1.651734e+03,6.402363e+02
1.652698e+03,6.407331e+02
1.653662e+03,6.371744e+02
1.654626e+03,6.338908e+02
1.655590e+03,6.321486e+02
1.656555e+03,6.305525e+02
1.657519e+03,6.288810e+02
1.658483e+03,6.278130e+02
1.659447e+03,6.279815e+02
1.660412e+03,6.288200e+02
1.661376e+03,6.299252e+02
1.662340e+03,6.314019e+02
1.663304e+03,6.331349e+02
1.664269e+03,6.348765e+02
1.665233e+03,6.365312e+02
1.666197e+03,6.379315e+02
1.667161e+03,6.392592e+02
1.668125e+03,6.413205e+02
1.669090e+03,6.423971e+02
1.670054e+03,6.381027e+02
1.671018e+03,6.322681e+02
1.671982e+03,6.308102e+02
1.672947e+03,6.339919e+02
1.673911e+03,6.347208e+02
1.674875e+03,6.316552e+02
1.675839e+03,6.290801e+02
1.676804e+03,6.279156e+02
1.677768e+03,6.276599e+02
1.678732e+03,6.276906e+02
1.679696e+03,6.280313e+02
1.680661e+03,6.281988e+02
1.681625e+03,6.287538e+02
1.682589e+03,6.315508e+02
1.683553e+03,6.369961e+02
1.684517e+03,6.391005e+02
1.685482e+03,6.378322e+02
1.686446e+03,6.348838e+02
1.687410e+03,6.303397e+02
1.688374e+03,6.271503e+02
1.689339e+03,6.293778e+02
1.690303e+03,6.315763e+02
1.691267e+03,6.297466e+02
1.692231e+03,6.264092e+02
1.693196e+03,6.258245e+02
1.694160e+03,6.273288e+02
1.695124e+03,6.277991e+02
1.696088e+03,6.271519e+02
1.697052e+03,6.251974e+02
1.698017e+03,6.180245e+02
1.698981e+03,6.158096e+02
1.699945e+03,6.246109e+02
1.700909e+03,6.326688e+02
1.701874e+03,6.345704e+02
1.702838e+03,6.322971e+02
1.703802e+03,6.268477e+02
1.704766e+03,6.205611e+02
1.705731e+03,6.199869e+02
1.706695e+03,6.253922e+02
1.707659e+03,6.266891e+02
1.708623e+03,6.191972e+02
1.709588e+03,6.170948e+02
1.710552e+03,6.227483e+02
1.711516e+03,6.285509e+02
1.712480e+03,6.269890e+02
1.713444e+03,6.231912e+02
1.714409e+03,6.221722e+02
1.715373e+03,6.235085e+02
1.716337e+03,6.274523e+02
1.717301e+03,6.341218e+02
1.718266e+03,6.345767e+02
1.719230e+03,6.288500e+02
1.720194e+03,6.251857e+02
1.721158e+03,6.260554e+02
1.722123e+03,6.265106e+02
1.723087e+03,6.210278e+02
1.724051e+03,6.165967e+02
1.725015e+03,6.172145e+02
1.725979e+03,6.205172e+02
1.726944e+03,6.240320e+02
1.727908e+03,6.270634e+02
1.728872e+03,6.248210e+02
1.729836e+03,6.190917e+02
1.730801e+03,6.174889e+02
1.731765e+03,6.261107e+02
1.732729e+03,6.317610e+02
1.733693e+03,6.330088e+02
1.734658e+03,6.315687e+02
1.735622e+03,6.269366e+02
1.736586e+03,6.229821e+02
1.737550e+03,6.276860e+02
1.738515e+03,6.347603e+02
1.739479e+03,6.366679e+02
1.740443e+03,6.333967e+02
1.741407e+03,6.297001e+02
1.742371e+03,6.253150e+02
1.743336e+03,6.241755e+02
1.744300e+03,6.264335e+02
1.745264e+03,6.278414e+02
1.746228e+03,6.250020e+02
1.747193e+03,6.220317e+02
1.748157e+03,6.212054e+02
1.749121e+03,6.214114e+02
1.750085e+03,6.212261e+02
1.751050e+03,6.204721e+02
1.752014e+03,6.201088e+02
1.752978e+03,6.205179e+02
1.753942e+03,6.232391e+02
1.754906e+03,6.284268e+02
1.755871e+03,6.292003e+02
1.756835e+03,6.209874e+02
1.757799e+03,6.167906e+02
1.758763e+03,6.200872e+02
1.759728e+03,6.240333e+02
1.760692e+03,6.199750e+02
1.761656e+03,6.152878e+02
1.762620e+03,6.178458e+02
1.763585e+03,6.238188e+02
1.764549e+03,6.274441e+02
1.765513e+03,6.284154e+02
1.766477e+03,6.290686e+02
1.767442e+03,6.292511e+02
1.768406e+03,6.262164e+02
1.769370e+03,6.182902e+02
1.770334e+03,6.131721e+02
1.771298e+03,6.167195e+02
1.772263e+03,6.198450e+02
1.773227e+03,6.202419e+02
1.774191e+03,6.194754e+02
1.775155e+03,6.191133e+02
1.776120e+03,6.190842e+02
1.777084e+03,6.195437e+02
1.778048e+03,6.204073e+02
1.779012e+03,6.215465e+02
1.779977e+03,6.236942e+02
1.780941e+03,6.226321e+02
1.781905e+03,6.181974e+02
1.782869e+03,6.157643e+02
1.783833e+03,6.187807e+02
1.784798e+03,6.210617e+02
1.785762e+03,6.174093e+02
1.786726e+03,6.133717e+02
1.787690e+03,6.113926e+02
1.788655e+03,6.113147e+02
1.789619e+03,6.134589e+02
1.790583e+03,6.167375e+02
1.791547e+03,6.193337e+02
1.792512e+03,6.208984e+02
1.793476e+03,6.201567e+02
1.794440e+03,6.157398e+02
1.795404e+03,6.125963e+02
1.796369e+03,6.107474e+02
1.797333e+03,6.097518e+02
1.798297e+03,6.088611e+02
1.799261e+03,6.099230e+02
1.800225e+03,6.169642e+02
1.801190e+03,6.230140e+02
1.802154e+03,6.237904e+02
1.803118e+03,6.205362e+02
1.804082e+03,6.145352e+02
1.805047e+03,6.083654e+02
1.806011e+03,6.087811e+02
1.806975e+03,6.156822e+02
1.807939e+03,6.196985e+02
1.808904e+03,6.186918e+02
1.809868e+03,6.174255e+02
1.810832e+03,6.164641e+02
1.811796e+03,6.167038e+02
1.812760e+03,6.209418e+02
1.813725e+03,6.237774e+02
1.814689e+03,6.195407e+02
1.815653e+03,6.146910e+02
1.816617e+03,6.145818e+02
1.817582e+03,6.173463e+02
1.818546e+03,6.172861e+02
1.819510e+03,6.150070e+02
1.820474e+03,6.109202e+02
1.821439e+03,6.053588e+02
1.822403e+03,6.047528e+02
1.823367e+03,6.109232e+02
1.824331e+03,6.143013e+02
1.825296e+03,6.131262e+02
1.826260e+03,6.115231e+02
1.827224e+03,6.142502e+02
1.828188e+03,6.166843e+02
1.829152e+03,6.147621e+02
1.830117e+03,6.123022e+02
1.831081e+03,6.125638e+02
1.832045e+03,6.143939e+02
1.833009e+03,6.152762e+02
1.833974e+03,6.160134e+02
1.834938e+03,6.175203e+02
1.835902e+03,6.198477e+02
1.836866e+03,6.183282e+02
1.837831e+03,6.123593e+02
1.838795e+03,6.116045e+02
1.839759e+03,6.186236e+02
1.840723e+03,6.248586e+02
1.841688e+03,6.227610e+02
1.842652e+03,6.201540e+02
1.843616e+03,6.194650e+02
1.844580e+03,6.191844e+02
1.845544e+03,6.184883e+02
1.846509e+03,6.172646e+02
1.847473e+03,6.145879e+02
1.848437e+03,6.112981e+02
1.849401e+03,6.083418e+02
1.850366e+03,6.058183e+02
1.851330e+03,6.097996e+02
1.852294e+03,6.192802e+02
1.853258e+03,6.229481e+02
1.854223e+03,6.173045e+02
1.855187e+03,6.126032e+02
1.856151e+03,6.133215e+02
1.857115e+03,6.154209e+02
1.858079e+03,6.186140e+02
1.859044e+03,6.207780e+02
1.860008e+03,6.187312e+02
1.860972e+03,6.160090e+02
1.861936e+03,6.162465e+02
1.862901e+03,6.179459e+02
1.863865e+03,6.182800e+02
1.864829e+03,6.171971e+02
1.865793e+03,6.190411e+02
1.866758e+03,6.222011e+02
1.867722e+03,6.204076e+02
1.868686e+03,6.103322e+02
1.869650e+03,6.055519e+02
1.870615e+03,6.079311e+02
1.871579e+03,6.078209e+02
1.872543e+03,6.026371e+02
1.873507e+03,5.987258e+02
1.874471e+03,6.025199e+02
1.875436e+03,6.061772e+02
1.876400e+03,6.057668e+02
1.877364e+03,6.047338e+02
1.878328e+03,6.073517e+02
1.879293e+03,6.118199e+02
1.880257e+03,6.154290e+02
1.881221e+03,6.176155e+02
1.882185e+03,6.171202e+02
1.883150e+03,6.140899e+02
1.884114e+03,6.148564e+02
1.885078e+03,6.182244e+02
1.886042e+03,6.157875e+02
1.887006e+03,6.038366e+02
1.887971e+03,5.968347e+02
1.888935e+03,6.024569e+02
1.889899e+03,6.061339e+02
1.890863e+03,6.038481e+02
1.891828e+03,6.009716e+02
1.892792e+03,6.041668e+02
1.893756e+03,6.082314e+02
1.894720e+03,6.097141e+02
1.895685e+03,6.103137e+02
1.896649e+03,6.116633e+02
1.897613e+03,6.126707e+02
1.898577e+03,6.080305e+02
1.899542e+03,6.016270e+02
1.900506e+03,6.033810e+02
1.901470e+03,6.158009e+02
1.902434e+03,6.186190e+02
1.903398e+03,6.123528e+02
1.904363e+03,6.076658e+02
1.905327e+03,6.073521e+02
1.906291e+03,6.081779e+02
1.907255e+03,6.090244e+02
1.908220e+03,6.092825e+02
1.909184e+03,6.086018e+02
1.910148e+03,6.084186e+02
1.911112e+03,6.123791e+02
1.912077e+03,6.156993e+02
1.913041e+03,6.130045e+02
1.914005e+03,6.082949e+02
1.914969e+03,6.052220e+02
1.915933e+03,6.037893e+02
1.916898e+03,6.052597e+02
1.917862e+03,6.079571e+02
1.918826e+03,6.075159e+02
1.919790e+03,6.032920e+02
1.920755e+03,6.027863e+02
1.921719e+03,6.054766e+02
1.922683e+03,6.070541e+02
1.923647e+03,6.068143e+02
1.924612e+03,6.074219e+02
1.925576e+03,6.116624e+02
1.926540e+03,6.142473e+02
1.927504e+03,6.141195e+02
1.928469e+03,6.118077e+02
1.929433e+03,6.063206e+02
1.930397e+03,6.003482e+02
1.931361e+03,5.947298e+02
1.932325e+03,5.909314e+02
1.933290e+03,5.903846e+02
1.934254e+03,5.930834e+02
1.935218e+03,6.011541e+02
1.936182e+03,6.095090e+02
1.937147e+03,6.081532e+02
1.938111e+03,5.987411e+02
1.939075e+03,5.987607e+02
1.940039e+03,6.066546e+02
1.941004e+03,6.105897e+02
1.941968e+03,6.085118e+02
1.942932e+03,6.041381e+02
1.943896e+03,5.965777e+02
1.944860e+03,5.936924e+02
1.945825e+03,5.966884e+02
1.946789e+03,6.004261e+02
1.947753e+03,6.008149e+02
1.948717e+03,6.011920e+02
1.949682e+03,6.027950e+02
1.950646e+03,6.048828e+02
1.951610e+03,6.079424e+02
1.952574e+03,6.097838e+02
1.953539e+03,6.060308e+02
1.954503e+03,6.001402e+02
1.955467e+03,5.953027e+02
1.956431e+03,5.919733e+02
1.957396e+03,5.915252e+02
1.958360e+03,5.927322e+02
1.959324e+03,5.926784e+02
1.960288e+03,5.918013e+02
1.961252e+03,5.929542e+02
1.962217e+03,5.961479e+02
1.963181e+03,5.972087e+02
1.964145e+03,5.963249e+02
1.965109e+03,5.978526e+02
1.966074e+03,6.082464e+02
1.967038e+03,6.127803e+02
1.968002e+03,6.090853e+02
1.968966e+03,6.036674e+02
1.969931e+03,5.985701e+02
1.970895e+03,5.957477e+02
1.971859e+03,6.001096e+02
1.972823e+03,6.040370e+02
1.973787e+03,6.040492e+02
1.974752e+03,6.014429e+02
1.975716e+03,5.954742e+02
1.976680e+03,5.904688e+02
1.977644e+03,5.933643e+02
1.978609e+03,6.003124e+02
1.979573e+03,6.056834e+02
1.980537e+03,6.086832e+02
1.981501e+03,6.046697e+02
1.982466e+03,5.968437e+02
1.983430e+03,5.947153e+02
1.984394e+03,5.993650e+02
1.985358e+03,6.042198e+02
1.986323e+03,6.085950e+02
1.987287e+03,6.078876e+02
1.988251e+03,5.991769e+02
1.989215e+03,5.945298e+02
1.990179e+03,5.963011e+02
1.991144e+03,5.971168e+02
1.992108e+03,5.953701e+02
1.993072e+03,5.934658e+02
1.994036e+03,5.930456e+02
1.995001e+03,5.920638e+02
1.995965e+03,5.894896e+02
1.996929e+03,5.880500e+02
1.997893e+03,5.904278e+02
1.998858e+03,5.942961e+02
1.999822e+03,5.995538e+02
2.000786e+03,6.031735e+02
2.001750e+03,6.020115e+02
2.002714e+03,5.991140e+02
2.003679e+03,6.021578e+02
2.004643e+03,6.063423e+02
2.005607e+03,6.034172e+02
2.006571e+03,5.954315e+02
2.007536e+03,5.888489e+02
2.008500e+03,5.843239e+02
2.009464e+03,5.850754e+02
2.010428e+03,5.908353e+02
2.011393e+03,5.929163e+02
2.012357e+03,5.905903e+02
2.013321e+03,5.875776e+02
2.014285e+03,5.841795e+02
2.015250e+03,5.836817e+02
2.016214e+03,5.906650e+02
2.017178e+03,5.960032e+02
2.018142e+03,5.996744e+02
2.019106e+03,5.988301e+02
2.020071e+03,5.889182e+02
2.021035e+03,5.815153e+02
2.021999e+03,5.835004e+02
2.022963e+03,5.862754e+02
2.023928e+03,5.868004e+02
2.024892e+03,5.876971e+02
2.025856e+03,5.925424e+02
2.026820e+03,5.982377e+02
2.027785e+03,6.039962e+02
2.028749e+03,6.070909e+02
2.029713e+03,6.009346e+02
2.030677e+03,5.924350e+02
2.031641e+03,5.916888e+02
2.032606e+03,5.947123e+02
2.033570e+03,5.936643e+02
2.034534e+03,5.899033e+02
2.035498e+03,5.901398e+02
2.036463e+03,5.929570e+02
2.037427e+03,5.953659e+02
2.038391e+03,5.973118e+02
2.039355e+03,5.951764e+02
2.040320e+03,5.901274e+02
2.041284e+03,5.867350e+02
2.042248e+03,5.858425e+02
2.043212e+03,5.840275e+02
2.044177e+03,5.808279e+02
2.045141e+03,5.848746e+02
2.046105e+03,5.970127e+02
2.047069e+03,6.039406e+02
2.048033e+03,5.941224e+02
2.048998e+03,5.866443e+02
2.049962e+03,5.830496e+02
2.050926e+03,5.835512e+02
2.051890e+03,5.931046e+02
2.052854e+03,5.989356e+02
2.053819e+03,5.966115e+02
2.054783e+03,5.912248e+02
2.055747e+03,5.840867e+02
2.056711e+03,5.793769e+02
2.057676e+03,5.825311e+02
2.058640e+03,5.880577e+02
2.059604e+03,5.934127e+02
2.060568e+03,5.966918e+02
2.061533e+03,5.948469e+02
2.062497e+03,5.903165e+02
2.063461e+03,5.835007e+02
2.064425e+03,5.774669e+02
2.065390e+03,5.769531e+02
2.066354e+03,5.798477e+02
2.067318e+03,5.844240e+02
2.068282e+03,5.884705e+02
2.069247e+03,5.874767e+02
2.070211e+03,5.823517e+02
2.071175e+03,5.802631e+02
2.072139e+03,5.799294e+02
2.073104e+03,5.774274e+02
2.074068e+03,5.726648e+02
2.075032e+03,5.722267e+02
2.075996e+03,5.752724e+02
2.076960e+03,5.803961e+02
2.077925e+03,5.870537e+02
2.078889e+03,5.867415e+02
2.079853e+03,5.788649e+02
2.080817e+03,5.754963e+02
2.081782e+03,5.778209e+02
2.082746e+03,5.804844e+02
2.083710e+03,5.831761e+02
2.084674e+03,5.820369e+02
2.085639e+03,5.772089e+02
2.086603e+03,5.746144e+02
2.087567e+03,5.778465e+02
2.088531e+03,5.811855e+02
2.089496e+03,5.837146e+02
2.090460e+03,5.847584e+02
2.091424e+03,5.850504e+02
2.092388e+03,5.842727e+02
2.093353e+03,5.806169e+02
2.094317e+03,5.776204e+02
2.095281e+03,5.757263e+02
2.096245e+03,5.744656e+02
2.097209e+03,5.738018e+02
2.098174e+03,5.731379e+02
2.099138e+03,5.716816e+02
2.100102e+03,5.722030e+02
2.101066e+03,5.816797e+02
2.102031e+03,5.900421e+02
2.102995e+03,5.860555e+02
2.103959e+03,5.782732e+02
2.104923e+03,5.714590e+02
2.105887e+03,5.674620e+02
2.106852e+03,5.701273e+02
2.107816e+03,5.750031e+02
2.108780e+03,5.780787e+02
2.109744e+03,5.792608e+02
2.110708e+03,5.778070e+02
2.111673e+03,5.756749e+02
2.112637e+03,5.748580e+02
2.113601e+03,5.749490e+02
2.114565e+03,5.758237e+02
2.115530e+03,5.775579e+02
2.116494e+03,5.811260e+02
2.117458e+03,5.861357e+02
2.118422e+03,5.890784e+02
2.119387e+03,5.894523e+02
2.120351e+03,5.853438e+02
2.121315e+03,5.788500e+02
2.122279e+03,5.798669e+02
2.123244e+03,5.888863e+02
2.124208e+03,5.846493e+02
2.125172e+03,5.715551e+02
2.126136e+03,5.638119e+02
2.127101e+03,5.651272e+02
2.128065e+03,5.695082e+02
2.129029e+03,5.759880e+02
2.129993e+03,5.771512e+02
2.130958e+03,5.709639e+02
2.131922e+03,5.667728e+02
2.132886e+03,5.656363e+02
2.133850e+03,5.666848e+02
2.134814e+03,5.701695e+02
2.135779e+03,5.733721e+02
2.136743e+03,5.746461e+02
2.137707e+03,5.767471e+02
2.138671e+03,5.799415e+02
2.139636e+03,5.826688e+02
2.140600e+03,5.858431e+02
2.141564e+03,5.828983e+02
2.142528e+03,5.731961e+02
2.143493e+03,5.676248e+02
2.144457e+03,5.718341e+02
2.145421e+03,5.730262e+02
2.146385e+03,5.662643e+02
2.147350e+03,5.650950e+02
2.148314e+03,5.743151e+02
2.149278e+03,5.828873e+02
2.150242e+03,5.817776e+02
2.151207e+03,5.802269e+02
2.152171e+03,5.794023e+02
2.153135e+03,5.788458e+02
2.154099e+03,5.804995e+02
2.155063e+03,5.799078e+02
2.156028e+03,5.758731e+02
2.156992e+03,5.723203e+02
2.157956e+03,5.714464e+02
2.158920e+03,5.710925e+02
2.159885e+03,5.702279e+02
2.160849e+03,5.698839e+02
2.161813e+03,5.710443e+02
2.162777e+03,5.714830e+02
2.163741e+03,5.688218e+02
2.164706e+03,5.655734e+02
2.165670e+03,5.627662e+02
2.166634e+03,5.619529e+02
2.167598e+03,5.663729e+02
2.168563e+03,5.701474e+02
2.169527e+03,5.705202e+02
2.170491e+03,5.680945e+02
2.171455e+03,5.605852e+02
2.172420e+03,5.560316e+02
2.173384e+03,5.616552e+02
2.174348e+03,5.687167e+02
2.175312e+03,5.698030e+02
2.176277e+03,5.688878e+02
2.177241e+03,5.710203e+02
2.178205e+03,5.715722e+02
2.179169e+03,5.671985e+02
2.180134e+03,5.616835e+02
2.181098e+03,5.575585e+02
2.182062e+03,5.574012e+02
2.183026e+03,5.630430e+02
2.183990e+03,5.700272e+02
2.184955e+03,5.722211e+02
2.185919e+03,5.722161e+02
2.186883e+03,5.716041e+02
2.187847e+03,5.704440e+02
2.188812e+03,5.676618e+02
2.189776e+03,5.660624e+02
2.190740e+03,5.711838e+02
2.191704e+03,5.759719e+02
2.192668e+03,5.729102e+02
2.193633e+03,5.670428e+02
2.194597e+03,5.634076e+02
2.195561e+03,5.636693e+02
2.196525e+03,5.708447e+02
2.197490e+03,5.787556e+02
2.198454e+03,5.735078e+02
2.199418e+03,5.664598e+02
2.200382e+03,5.689818e+02
2.201347e+03,5.751432e+02
2.202311e+03,5.725137e+02
2.203275e+03,5.688047e+02
2.204239e+03,5.731564e+02
2.205204e+03,5.787869e+02
2.206168e+03,5.767463e+02
2.207132e+03,5.717416e+02
2.208096e+03,5.681252e+02
2.209061e+03,5.654741e+02
2.210025e+03,5.640471e+02
2.210989e+03,5.633441e+02
2.211953e+03,5.636232e+02
2.212917e+03,5.640837e+02
2.213882e+03,5.612068e+02
2.214846e+03,5.580120e+02
2.215810e+03,5.643353e+02
2.216774e+03,5.698597e+02
2.217739e+03,5.652231e+02
2.218703e+03,5.570712e+02
2.219667e+03,5.566086e+02
2.220631e+03,5.591595e+02
2.221595e+03,5.602506e+02
2.222560e+03,5.604286e+02
2.223524e+03,5.610062e+02
2.224488e+03,5.610526e+02
2.225452e+03,5.586365e+02
2.226417e+03,5.564782e+02
2.227381e+03,5.576203e+02
2.228345e+03,5.602464e+02
2.229309e+03,5.625811e+02
2.230274e+03,5.629980e+02
2.231238e+03,5.598044e+02
2.232202e+03,5.549834e+02
2.233166e+03,5.496039e+02
2.234131e+03,5.479464e+02
2.235095e+03,5.533164e+02
2.236059e+03,5.615511e+02
2.237023e+03,5.687397e+02
2.237988e+03,5.721295e+02
2.238952e+03,5.693862e+02
2.239916e+03,5.641758e+02
2.240880e+03,5.615237e+02
2.241844e+03,5.592047e+02
2.242809e+03,5.548321e+02
2.243773e+03,5.513359e+02
2.244737e+03,5.520465e+02
2.245701e+03,5.538887e+02
2.246666e+03,5.541827e+02
2.247630e+03,5.546589e+02
2.248594e+03,5.580793e+02
2.249558e+03,5.613184e+02
2.250522e+03,5.600490e+02
2.251487e+03,5.583135e+02
2.252451e+03,5.572176e+02
2.253415e+03,5.562743e+02
2.254379e+03,5.572720e+02
2.255344e+03,5.563991e+02
2.256308e+03,5.518818e+02
2.257272e+03,5.471358e+02
2.258236e+03,5.446539e+02
2.259201e+03,5.445594e+02
2.260165e+03,5.466110e+02
2.261129e+03,5.494316e+02
2.262093e+03,5.521533e+02
2.263058e+03,5.549269e+02
2.264022e+03,5.589694e+02
2.264986e+03,5.602039e+02
2.265950e+03,5.526931e+02
2.266915e+03,5.466181e+02
2.267879e+03,5.447440e+02
2.268843e+03,5.433039e+02
2.269807e+03,5.414152e+02
2.270771e+03,5.398557e+02
2.271736e+03,5.383401e+02
2.272700e+03,5.403570e+02
2.273664e+03,5.466996e+02
2.274628e+03,5.535873e+02
2.275593e+03,5.602183e+02
2.276557e+03,5.637829e+02
2.277521e+03,5.642821e+02
2.278485e+03,5.626322e+02
2.279449e+03,5.573119e+02
2.280414e+03,5.550938e+02
2.281378e+03,5.561579e+02
2.282342e+03,5.560281e+02
2.283306e+03,5.494284e+02
2.284271e+03,5.477323e+02
2.285235e+03,5.504837e+02
2.286199e+03,5.537201e+02
2.287163e+03,5.577507e+02
2.288128e+03,5.569431e+02
2.289092e+03,5.513792e+02
2.290056e+03,5.464095e+02
2.291020e+03,5.435295e+02
2.291985e+03,5.448867e+02
2.292949e+03,5.498711e+02
2.293913e+03,5.491465e+02
2.294877e+03,5.424417e+02
2.295842e+03,5.415458e+02
2.296806e+03,5.455504e+02
2.297770e+03,5.464345e+02
2.298734e+03,5.443963e+02
2.299698e+03,5.425363e+02
2.300663e+03,5.414225e+02
2.301627e+03,5.436752e+02
2.302591e+03,5.472629e+02
2.303555e+03,5.476934e+02
2.304520e+03,5.457189e+02
2.305484e+03,5.438630e+02
2.306448e+03,5.428442e+02
2.307412e+03,5.435704e+02
2.308376e+03,5.454465e+02
2.309341e+03,5.491722e+02
2.310305e+03,5.522316e+02
2.311269e+03,5.509965e+02
2.312233e+03,5.481241e+02
2.313198e+03,5.469699e+02
2.314162e+03,5.459444e+02
2.315126e+03,5.424821e+02
2.316090e+03,5.398466e+02
2.317055e+03,5.440212e+02
2.318019e+03,5.485444e+02
2.318983e+03,5.454010e+02
2.319947e+03,5.426332e+02
2.320912e+03,5.494432e+02
2.321876e+03,5.546506e+02
2.322840e+03,5.457057e+02
2.323804e+03,5.389273e+02
2.324769e+03,5.427299e+02
2.325733e+03,5.487625e+02
2.326697e+03,5.523954e+02
2.327661e+03,5.528450e+02
2.328625e+03,5.485978e+02
2.329590e+03,5.452327e+02
2.330554e+03,5.479612e+02
2.331518e+03,5.494984e+02
2.332482e+03,5.487169e+02
2.333447e+03,5.464105e+02
2.334411e+03,5.406133e+02
2.335375e+03,5.408744e+02
2.336339e+03,5.473444e+02
2.337303e+03,5.510265e+02
2.338268e+03,5.460117e+02
2.339232e+03,5.454181e+02
2.340196e+03,5.486993e+02
2.341160e+03,5.508434e+02
2.342125e+03,5.504372e+02
2.343089e+03,5.502662e+02
2.344053e+03,5.494961e+02
2.345017e+03,5.477654e+02
2.345982e+03,5.453472e+02
2.346946e+03,5.428807e+02
2.347910e+03,5.410716e+02
2.348874e+03,5.407449e+02
2.349839e+03,5.411196e+02
2.350803e+03,5.410529e+02
2.351767e+03,5.412438e+02
2.352731e+03,5.440041e+02
2.353696e+03,5.468434e+02
2.354660e+03,5.436051e+02
2.355624e+03,5.387055e+02
2.356588e+03,5.410842e+02
2.357552e+03,5.446656e+02
2.358517e+03,5.432390e+02
2.359481e+03,5.409730e+02
2.360445e+03,5.437172e+02
2.361409e+03,5.455167e+02
2.362374e+03,5.430548e+02
2.363338e+03,5.394164e+02
2.364302e+03,5.378635e+02
2.365266e+03,5.370544e+02
2.366230e+03,5.361500e+02
2.367195e+03,5.358708e+02
2.368159e+03,5.367565e+02
2.369123e+03,5.378074e+02
2.370087e+03,5.394320e+02
2.371052e+03,5.399114e+02
2.372016e+03,5.378765e+02
2.372980e+03,5.363350e+02
2.373944e+03,5.353191e+02
2.374909e+03,5.358712e+02
2.375873e+03,5.392879e+02
2.376837e+03,5.396279e+02
2.377801e+03,5.375302e+02
2.378766e+03,5.346070e+02
2.379730e+03,5.314287e+02
2.380694e+03,5.338777e+02
2.381658e+03,5.392388e+02
2.382623e+03,5.377527e+02
2.383587e+03,5.322237e+02
2.384551e+03,5.335437e+02
2.385515e+03,5.380745e+02
2.386479e+03,5.414567e+02
2.387444e+03,5.431941e+02
2.388408e+03,5.433551e+02
2.389372e+03,5.406033e+02
2.390336e+03,5.303934e+02
2.391301e+03,5.213939e+02
2.392265e+03,5.235699e+02
2.393229e+03,5.276238e+02
2.394193e+03,5.278332e+02
2.395157e+03,5.287670e+02
2.396122e+03,5.355597e+02
2.397086e+03,5.384892e+02
2.398050e+03,5.342819e+02
2.399014e+03,5.294724e+02
2.399979e+03,5.250921e+02
2.400943e+03,5.280237e+02
2.401907e+03,5.391656e+02
2.402871e+03,5.417682e+02
2.403836e+03,5.322373e+02
2.404800e+03,5.312441e+02
2.405764e+03,5.393000e+02
2.406728e+03,5.400577e+02
2.407693e+03,5.333610e+02
2.408657e+03,5.324325e+02
2.409621e+03,5.364334e+02
2.410585e+03,5.381810e+02
2.411550e+03,5.374461e+02
2.412514e+03,5.339246e+02
2.413478e+03,5.296540e+02
2.414442e+03,5.309239e+02
2.415406e+03,5.342651e+02
2.416371e+03,5.357883e+02
2.417335e+03,5.363755e+02
2.418299e+03,5.362502e+02
2.419263e+03,5.372163e+02
2.420228e+03,5.408475e+02
2.421192e+03,5.432816e+02
2.422156e+03,5.399350e+02
2.423120e+03,5.362474e+02
2.424084e+03,5.327691e+02
2.425049e+03,5.304146e+02
2.426013e+03,5.300030e+02
2.426977e+03,5.339356e+02
2.427941e+03,5.424616e+02
2.428906e+03,5.432280e+02
2.429870e+03,5.308154e+02
2.430834e+03,5.280427e+02
2.431798e+03,5.335429e+02
2.432763e+03,5.365112e+02
2.433727e+03,5.358748e+02
2.434691e+03,5.324177e+02
2.435655e+03,5.283707e+02
2.436620e+03,5.287811e+02
2.437584e+03,5.319283e+02
2.438548e+03,5.352259e+02
2.439512e+03,5.365723e+02
2.440477e+03,5.334568e+02
2.441441e+03,5.284631e+02
2.442405e+03,5.227085e+02
2.443369e+03,5.228031e+02
2.444333e+03,5.326937e+02
2.445298e+03,5.415043e+02
2.446262e+03,5.384553e+02
2.447226e+03,5.331626e+02
2.448190e+03,5.275989e+02
2.449155e+03,5.249268e+02
2.450119e+03,5.313311e+02
2.451083e+03,5.302927e+02
2.452047e+03,5.226544e+02
2.453011e+03,5.193339e+02
2.453976e+03,5.232726e+02
2.454940e+03,5.288964e+02
2.455904e+03,5.347606e+02
2.456868e+03,5.325075e+02
2.457833e+03,5.257637e+02
2.458797e+03,5.293620e+02
2.459761e+03,5.375204e+02
2.460725e+03,5.431261e+02
2.461690e+03,5.448361e+02
2.462654e+03,5.374892e+02
2.463618e+03,5.297169e+02
2.464582e+03,5.264995e+02
2.465547e+03,5.275970e+02
2.466511e+03,5.364490e+02
2.467475e+03,5.416516e+02
2.468439e+03,5.409580e+02
2.469404e+03,5.352416e+02
2.470368e+03,5.191160e+02
2.471332e+03,5.139866e+02
2.472296e+03,5.189304e+02
2.473260e+03,5.226431e+02
2.474225e+03,5.222372e+02
2.475189e+03,5.256749e+02
2.476153e+03,5.315222e+02
2.477117e+03,5.335190e+02
2.478082e+03,5.326055e+02
2.479046e+03,5.336583e+02
2.480010e+03,5.347706e+02
2.480974e+03,5.336417e+02
2.481938e+03,5.312892e+02
2.482903e+03,5.261497e+02
2.483867e+03,5.254332e+02
2.484831e+03,5.338587e+02
2.485795e+03,5.398989e+02
2.486760e+03,5.295549e+02
2.487724e+03,5.262593e+02
2.488688e+03,5.341273e+02
2.489652e+03,5.382811e+02
2.490617e+03,5.279874e+02
2.491581e+03,5.201097e+02
2.492545e+03,5.152925e+02
2.493509e+03,5.165593e+02
2.494474e+03,5.230679e+02
2.495438e+03,5.234666e+02
2.496402e+03,5.213616e+02
2.497366e+03,5.261125e+02
2.498331e+03,5.336261e+02
2.499295e+03,5.368163e+02
2.500259e+03,5.362136e+02
2.501223e+03,5.326237e+02
2.502188e+03,5.288884e+02
2.503152e+03,5.284642e+02
2.504116e+03,5.266762e+02
2.505080e+03,5.216942e+02
2.506044e+03,5.204442e+02
2.507009e+03,5.333696e+02
2.507973e+03,5.345504e+02
2.508937e+03,5.246115e+02
2.509901e+03,5.199343e+02
2.510865e+03,5.246506e+02
2.511830e+03,5.285874e+02
2.512794e+03,5.303536e+02
2.513758e+03,5.245059e+02
2.514722e+03,5.163790e+02
2.515687e+03,5.217409e+02
2.516651e+03,5.311223e+02
2.517615e+03,5.354329e+02
2.518579e+03,5.348212e+02
2.519544e+03,5.236524e+02
2.520508e+03,5.177900e+02
2.521472e+03,5.231838e+02
2.522436e+03,5.313359e+02
2.523401e+03,5.414631e+02
2.524365e+03,5.397370e+02
2.525329e+03,5.257527e+02
2.526293e+03,5.197244e+02
2.527258e+03,5.272099e+02
2.528222e+03,5.303424e+02
2.529186e+03,5.294736e+02
2.530150e+03,5.252811e+02
2.531115e+03,5.206686e+02
2.532079e+03,5.255276e+02
2.533043e+03,5.322836e+02
2.534007e+03,5.320356e+02
2.534971e+03,5.297407e+02
2.535936e+03,5.334954e+02
2.536900e+03,5.358779e+02
2.537864e+03,5.340598e+02
2.538828e+03,5.317563e+02
2.539792e+03,5.295698e+02
2.540757e+03,5.294141e+02
2.541721e+03,5.312693e+02
2.542685e+03,5.289233e+02
2.543649e+03,5.230440e+02
2.544614e+03,5.297067e+02
2.545578e+03,5.434245e+02
2.546542e+03,5.484490e+02
2.547506e+03,5.460284e+02
2.548471e+03,5.329291e+02
2.549435e+03,5.220515e+02
2.550399e+03,5.271542e+02
2.551363e+03,5.342560e+02
2.552328e+03,5.308665e+02
2.553292e+03,5.305062e+02
2.554256e+03,5.397111e+02
2.555220e+03,5.404301e+02
2.556185e+03,5.296107e+02
2.557149e+03,5.243373e+02
2.558113e+03,5.277880e+02
2.559077e+03,5.350195e+02
2.560042e+03,5.425902e+02
2.561006e+03,5.373857e+02
2.561970e+03,5.276006e+02
2.562934e+03,5.303174e+02
2.563898e+03,5.366136e+02
2.564863e+03,5.364070e+02
2.565827e+03,5.330246e+02
2.566791e+03,5.255268e+02
2.567755e+03,5.251862e+02
2.568719e+03,5.339571e+02
2.569684e+03,5.389734e+02
2.570648e+03,5.330855e+02
2.571612e+03,5.313498e+02
2.572576e+03,5.334995e+02
2.573541e+03,5.307358e+02
2.574505e+03,5.236765e+02
2.575469e+03,5.258134e+02
2.576433e+03,5.311619e+02
2.577398e+03,5.313077e+02
2.578362e+03,5.290995e+02
2.579326e+03,5.295229e+02
2.580290e+03,5.260114e+02
2.581255e+03,5.147947e+02
2.582219e+03,5.077151e+02
2.583183e+03,5.196122e+02
2.584147e+03,5.231130e+02
2.585112e+03,5.182894e+02
2.586076e+03,5.155915e+02
2.587040e+03,5.167496e+02
2.588004e+03,5.183377e+02
2.588969e+03,5.196814e+02
2.589933e+03,5.198146e+02
2.590897e+03,5.202452e+02
2.591861e+03,5.257026e+02
2.592825e+03,5.304482e+02
2.593790e+03,5.308771e+02
2.594754e+03,5.279392e+02
2.595718e+03,5.200335e+02
2.596682e+03,5.173447e+02
2.597646e+03,5.219860e+02
2.598611e+03,5.246418e+02
2.599575e+03,5.249351e+02
2.600539e+03,5.306512e+02
2.601503e+03,5.378469e+02
2.602468e+03,5.268456e+02
2.603432e+03,5.104554e+02
2.604396e+03,5.197688e+02
2.605360e+03,5.339302e+02
2.606325e+03,5.345500e+02
2.607289e+03,5.309096e+02
2.608253e+03,5.273671e+02
2.609217e+03,5.232841e+02
2.610182e+03,5.160484e+02
2.611146e+03,5.163125e+02
2.612110e+03,5.232981e+02
2.613074e+03,5.279627e+02
2.614039e+03,5.295309e+02
2.615003e+03,5.306664e+02
2.615967e+03,5.300109e+02
2.616931e+03,5.263944e+02
2.617896e+03,5.219937e+02
2.618860e+03,5.189802e+02
2.619824e+03,5.162185e+02
2.620788e+03,5.130016e+02
2.621752e+03,5.101385e+02
2.622717e+03,5.080551e+02
2.623681e+03,5.085138e+02
2.624645e+03,5.111202e+02
2.625609e+03,5.130965e+02
2.626573e+03,5.146078e+02
2.627538e+03,5.205981e+02
2.628502e+03,5.275359e+02
2.629466e+03,5.303773e+02
2.630430e+03,5.293863e+02
2.631395e+03,5.203182e+02
2.632359e+03,5.148259e+02
2.633323e+03,5.183962e+02
2.634287e+03,5.214454e+02
2.635252e+03,5.218724e+02
2.636216e+03,5.222497e+02
2.637180e+03,5.226577e+02
2.638144e+03,5.227178e+02
2.639109e+03,5.225973e+02
2.640073e+03,5.249225e+02
2.641037e+03,5.271800e+02
2.642001e+03,5.240519e+02
2.642966e+03,5.182553e+02
2.643930e+03,5.107135e+02
2.644894e+03,5.065434e+02
2.645858e+03,5.131409e+02
2.646823e+03,5.145448e+02
2.647787e+03,5.104121e+02
2.648751e+03,5.112372e+02
2.649715e+03,5.172004e+02
2.650679e+03,5.104180e+02
2.651644e+03,5.031151e+02
2.652608e+03,5.166591e+02
2.653572e+03,5.332313e+02
2.654536e+03,5.216080e+02
2.655500e+03,5.125302e+02
2.656465e+03,5.180060e+02
2.657429e+03,5.229938e+02
2.658393e+03,5.218687e+02
2.659357e+03,5.230907e+02
2.660322e+03,5.273361e+02
2.661286e+03,5.257721e+02
2.662250e+03,5.208478e+02
2.663214e+03,5.198687e+02
2.664179e+03,5.212054e+02
2.665143e+03,5.244809e+02
2.666107e+03,5.269240e+02
2.667071e+03,5.277819e+02
2.668036e+03,5.243762e+02
2.669000e+03,5.094968e+02
2.669964e+03,5.075705e+02
2.670928e+03,5.165500e+02
2.671893e+03,5.184084e+02
2.672857e+03,5.150823e+02
2.673821e+03,5.268964e+02
2.674785e+03,5.391999e+02
2.675750e+03,5.361890e+02
2.676714e+03,5.284691e+02
2.677678e+03,5.268094e+02
2.678642e+03,5.229657e+02
2.679606e+03,5.148739e+02
2.680571e+03,5.155616e+02
2.681535e+03,5.260064e+02
2.682499e+03,5.316937e+02
2.683463e+03,5.305830e+02
2.684427e+03,5.208815e+02
2.685392e+03,5.112088e+02
2.686356e+03,5.214205e+02
2.687320e+03,5.316633e+02
2.688284e+03,5.278405e+02
2.689249e+03,5.225933e+02
2.690213e+03,5.188165e+02
2.691177e+03,5.183004e+02
2.692141e+03,5.228641e+02
2.693106e+03,5.198043e+02
2.694070e+03,5.134858e+02
2.695034e+03,5.158539e+02
2.695998e+03,5.202490e+02
2.696963e+03,5.119176e+02
2.697927e+03,5.052237e+02
2.698891e+03,5.066267e+02
2.699855e+03,5.107763e+02
2.700820e+03,5.163948e+02
2.701784e+03,5.179661e+02
2.702748e+03,5.153224e+02
2.703712e+03,5.142772e+02
2.704677e+03,5.150573e+02
2.705641e+03,5.206228e+02
2.706605e+03,5.254147e+02
2.707569e+03,5.196751e+02
2.708533e+03,5.142315e+02
2.709498e+03,5.137863e+02
2.710462e+03,5.150460e+02
2.711426e+03,5.178492e+02
2.712390e+03,5.227383e+02
2.713354e+03,5.277379e+02
2.714319e+03,5.205701e+02
2.715283e+03,5.095180e+02
2.716247e+03,5.195684e+02
2.717211e+03,5.301227e+02
2.718176e+03,5.265057e+02
2.719140e+03,5.196195e+02
2.720104e+03,5.150964e+02
2.721068e+03,5.151398e+02
2.722033e+03,5.197344e+02
2.722997e+03,5.217382e+02
2.723961e+03,5.212102e+02
2.724925e+03,5.206165e+02
2.725890e+03,5.212249e+02
2.726854e+03,5.276336e+02
2.727818e+03,5.289605e+02
2.728782e+03,5.178728e+02
2.729747e+03,5.087948e+02
2.730711e+03,5.096573e+02
2.731675e+03,5.161425e+02
2.732639e+03,5.254479e+02
2.733604e+03,5.219120e+02
2.734568e+03,5.117132e+02
2.735532e+03,5.126330e+02
2.736496e+03,5.157284e+02
2.737460e+03,5.139579e+02
2.738425e+03,5.140728e+02
2.739389e+03,5.212623e+02
2.740353e+03,5.238340e+02
2.741317e+03,5.201837e+02
2.742281e+03,5.141169e+02
2.743246e+03,5.078096e+02
2.744210e+03,5.055621e+02
2.745174e+03,5.062185e+02
2.746138e+03,5.114507e+02
2.747103e+03,5.168593e+02
2.748067e+03,5.213143e+02
2.749031e+03,5.216090e+02
2.749995e+03,5.128595e+02
2.750960e+03,5.104361e+02
2.751924e+03,5.124707e+02
2.752888e+03,5.117411e+02
2.753852e+03,5.104444e+02
2.754817e+03,5.178901e+02
2.755781e+03,5.227157e+02
2.756745e+03,5.172193e+02
2.757709e+03,5.134088e+02
2.758674e+03,5.145675e+02
2.759638e+03,5.156933e+02
2.760602e+03,5.158612e+02
2.761566e+03,5.139422e+02
2.762531e+03,5.117487e+02
2.763495e+03,5.112682e+02
2.764459e+03,5.117455e+02
2.765423e+03,5.154729e+02
2.766387e+03,5.137332e+02
2.767352e+03,5.054347e+02
2.768316e+03,5.033144e+02
2.769280e+03,5.095382e+02
2.770244e+03,5.086510e+02
2.771208e+03,5.048320e+02
2.772173e+03,5.066007e+02
2.773137e+03,5.100389e+02
2.774101e+03,5.115049e+02
2.775065e+03,5.146276e+02
2.776030e+03,5.217599e+02
2.776994e+03,5.225857e+02
2.777958e+03,5.173687e+02
2.778922e+03,5.131807e+02
2.779887e+03,5.112156e+02
2.780851e+03,5.141699e+02
2.781815e+03,5.152074e+02
2.782779e+03,5.093795e+02
2.783744e+03,5.084598e+02
2.784708e+03,5.226565e+02
2.785672e+03,5.258038e+02
2.786636e+03,5.173844e+02
2.787601e+03,5.142442e+02
2.788565e+03,5.158255e+02
2.789529e+03,5.186639e+02
2.790493e+03,5.215123e+02
2.791458e+03,5.254459e+02
2.792422e+03,5.220902e+02
2.793386e+03,5.111978e+02
2.794350e+03,5.025496e+02
2.795314e+03,4.983940e+02
2.796279e+03,5.052376e+02
2.797243e+03,5.142018e+02
2.798207e+03,5.100792e+02
2.799171e+03,5.069273e+02
2.800135e+03,5.278602e+02
2.801100e+03,5.413550e+02
2.802064e+03,5.401940e+02
2.803028e+03,5.311200e+02
2.803992e+03,5.180542e+02
2.804957e+03,5.115163e+02
2.805921e+03,5.113919e+02
2.806885e+03,5.211107e+02
2.807849e+03,5.256438e+02
2.808814e+03,5.177970e+02
2.809778e+03,5.122546e+02
2.810742e+03,5.170488e+02
2.811706e+03,5.219055e+02
2.812671e+03,5.244364e+02
2.813635e+03,5.213386e+02
2.814599e+03,5.136064e+02
2.815563e+03,4.946127e+02
2.816528e+03,4.880827e+02
2.817492e+03,5.132264e+02
2.818456e+03,5.230338e+02
2.819420e+03,5.138881e+02
2.820385e+03,5.111501e+02
2.821349e+03,5.157118e+02
2.822313e+03,5.173802e+02
2.823277e+03,5.182016e+02
2.824241e+03,5.200215e+02
2.825206e+03,5.194361e+02
2.826170e+03,5.138340e+02
2.827134e+03,5.123795e+02
2.828098e+03,5.149371e+02
2.829063e+03,5.148171e+02
2.830027e+03,5.125448e+02
2.830991e+03,5.091117e+02
2.831955e+03,5.076098e+02
2.832919e+03,5.098249e+02
2.833884e+03,5.138023e+02
2.834848e+03,5.187264e+02
2.835812e+03,5.241693e+02
2.836776e+03,5.296434e+02
2.837741e+03,5.306532e+02
2.838705e+03,5.285226e+02
2.839669e+03,5.233706e+02
2.840633e+03,5.229528e+02
2.841598e+03,5.323889e+02
2.842562e+03,5.347620e+02
2.843526e+03,5.257161e+02
2.844490e+03,5.153860e+02
2.845455e+03,5.074107e+02
2.846419e+03,5.094552e+02
2.847383e+03,5.161284e+02
2.848347e+03,5.254357e+02
2.849312e+03,5.297155e+02
2.850276e+03,5.279181e+02
2.851240e+03,5.338058e+02
2.852204e+03,5.450591e+02
2.853168e+03,5.469775e+02
2.854133e+03,5.437459e+02
2.855097e+03,5.395157e+02
2.856061e+03,5.379982e+02
2.857025e+03,5.393734e+02
2.857990e+03,5.364730e+02
2.858954e+03,5.272331e+02
2.859918e+03,5.239551e+02
2.860882e+03,5.277822e+02
2.861846e+03,5.418657e+02
2.862811e+03,5.513047e+02
2.863775e+03,5.383289e+02
2.864739e+03,5.315824e+02
2.865703e+03,5.387034e+02
2.866668e+03,5.427842e+02
2.867632e+03,5.435886e+02
2.868596e+03,5.418099e+02
2.869560e+03,5.408300e+02
2.870525e+03,5.493845e+02
2.871489e+03,5.509922e+02
2.872453e+03,5.415748e+02
2.873417e+03,5.375507e+02
2.874382e+03,5.396424e+02
2.875346e+03,5.417578e+02
2.876310e+03,5.448461e+02
2.877274e+03,5.521691e+02
2.878239e+03,5.543131e+02
2.879203e+03,5.480416e+02
2.880167e+03,5.404603e+02
2.881131e+03,5.341135e+02
2.882095e+03,5.424919e+02
2.883060e+03,5.536852e+02
2.884024e+03,5.477049e+02
2.884988e+03,5.373612e+02
2.885952e+03,5.318322e+02
2.886917e+03,5.366198e+02
2.887881e+03,5.546318e+02
2.888845e+03,5.619241e+02
2.889809e+03,5.612058e+02
2.890773e+03,5.587768e+02
2.891738e+03,5.549887e+02
2.892702e+03,5.483477e+02
2.893666e+03,5.468347e+02
2.894630e+03,5.515725e+02
2.895595e+03,5.554817e+02
2.896559e+03,5.577610e+02
2.897523e+03,5.594568e+02
2.898487e+03,5.610652e+02
2.899452e+03,5.636437e+02
2.900416e+03,5.648505e+02
2.901380e+03,5.640730e+02
2.902344e+03,5.592297e+02
2.903309e+03,5.505919e+02
2.904273e+03,5.379523e+02
2.905237e+03,5.308031e+02
2.906201e+03,5.396486e+02
2.907166e+03,5.491939e+02
2.908130e+03,5.526100e+02
2.909094e+03,5.547394e+02
2.910058e+03,5.560701e+02
2.911022e+03,5.570765e+02
2.911987e+03,5.528242e+02
2.912951e+03,5.364633e+02
2.913915e+03,5.227368e+02
2.914879e+03,5.223492e+02
2.915844e+03,5.266691e+02
2.916808e+03,5.343524e+02
2.917772e+03,5.403432e+02
2.918736e+03,5.436306e+02
2.919700e+03,5.416921e+02
2.920665e+03,5.388856e+02
2.921629e+03,5.384647e+02
2.922593e+03,5.356454e+02
2.923557e+03,5.317653e+02
2.924522e+03,5.329675e+02
2.925486e+03,5.366727e+02
2.926450e+03,5.386708e+02
2.927414e+03,5.364412e+02
2.928379e+03,5.259590e+02
2.929343e+03,5.259282e+02
2.930307e+03,5.346528e+02
2.931271e+03,5.362275e+02
2.932236e+03,5.341797e+02
2.933200e+03,5.369284e+02
2.934164e+03,5.333483e+02
2.935128e+03,5.174777e+02
2.936093e+03,5.170156e+02
2.937057e+03,5.315972e+02
2.938021e+03,5.432946e+02
2.938985e+03,5.452530e+02
2.939949e+03,5.126582e+02
2.940914e+03,5.002949e+02
2.941878e+03,5.249896e+02
2.942842e+03,5.327751e+02
2.943806e+03,5.152639e+02
2.944771e+03,5.250934e+02
2.945735e+03,5.436491e+02
2.946699e+03,5.433724e+02
2.947663e+03,5.429213e+02
2.948627e+03,5.482566e+02
2.949592e+03,5.429472e+02
2.950556e+03,5.270510e+02
2.951520e+03,5.321806e+02
2.952484e+03,5.399196e+02
2.953449e+03,5.297042e+02
2.954413e+03,5.260297e+02
2.955377e+03,5.396902e+02
2.956341e+03,5.533718e+02
2.957306e+03,5.634440e+02
2.958270e+03,5.701987e+02
2.959234e+03,5.668495e+02
2.960198e+03,5.495189e+02
2.961163e+03,5.381122e+02
2.962127e+03,5.408668e+02
2.963091e+03,5.480218e+02
2.964055e+03,5.520684e+02
2.965020e+03,5.327349e+02
2.965984e+03,5.153180e+02
2.966948e+03,5.172160e+02
2.967912e+03,5.263344e+02
2.968876e+03,5.425826e+02
2.969841e+03,5.282345e+02
2.970805e+03,5.038428e+02
2.971769e+03,5.116931e+02
2.972733e+03,5.260182e+02
2.973698e+03,5.280167e+02
2.974662e+03,5.260138e+02
2.975626e+03,5.217298e+02
2.976590e+03,5.232552e+02
2.977554e+03,5.228698e+02
2.978519e+03,5.086097e+02
2.979483e+03,4.973957e+02
2.980447e+03,5.023723e+02
2.981411e+03,5.035429e+02
2.982376e+03,5.011371e+02
2.983340e+03,5.185995e+02
2.984304e+03,5.293471e+02
2.985268e+03,5.050136e+02
2.986233e+03,4.886489e+02
2.987197e+03,5.087651e+02
2.988161e+03,5.079789e+02
2.989125e+03,4.957754e+02
2.990090e+03,5.156178e+02
2.991054e+03,5.318589e+02
2.992018e+03,5.150092e+02
2.992982e+03,4.963683e+02
2.993947e+03,4.868021e+02
2.994911e+03,4.936022e+02
2.995875e+03,5.061424e+02
2.996839e+03,5.045049e+02
2.997803e+03,5.017451e+02
2.998768e+03,5.077873e+02
2.999732e+03,5.034128e+02
3.000696e+03,4.876440e+02
3.001660e+03,4.922529e+02
3.002625e+03,5.011031e+02
3.003589e+03,4.968389e+02
3.004553e+03,4.989240e+02
3.005517e+03,5.177366e+02
3.006481e+03,5.280089e+02
3.007446e+03,5.272656e+02
3.008410e+03,5.210535e+02
3.009374e+03,5.116880e+02
3.010338e+03,5.010186e+02
3.011303e+03,4.978015e+02
3.012267e+03,5.037000e+02
3.013231e+03,5.124161e+02
3.014195e+03,5.164813e+02
3.015160e+03,4.987557e+02
3.016124e+03,4.908806e+02
3.017088e+03,5.023546e+02
3.018052e+03,4.994656e+02
3.019017e+03,4.808472e+02
3.019981e+03,4.919289e+02
3.020945e+03,5.064309e+02
3.021909e+03,5.005818e+02
3.022874e+03,4.959270e+02
3.023838e+03,4.970019e+02
3.024802e+03,4.928192e+02
3.025766e+03,4.873631e+02
3.026730e+03,4.959922e+02
3.027695e+03,4.994168e+02
3.028659e+03,4.891817e+02
3.029623e+03,4.930097e+02
3.030587e+03,5.083771e+02
3.031552e+03,5.037802e+02
3.032516e+03,4.934014e+02
3.033480e+03,4.978571e+02
3.034444e+03,4.916972e+02
3.035408e+03,4.744614e+02
3.036373e+03,4.924346e+02
3.037337e+03,5.258016e+02
3.038301e+03,5.036891e+02
3.039265e+03,4.796667e+02
3.040230e+03,4.833769e+02
3.041194e+03,4.915560e+02
3.042158e+03,5.001313e+02
3.043122e+03,5.029771e+02
3.044087e+03,5.039851e+02
3.045051e+03,5.078637e+02
3.046015e+03,5.105476e+02
3.046979e+03,5.110144e+02
3.047944e+03,5.051740e+02
3.048908e+03,4.979118e+02
3.049872e+03,4.964574e+02
3.050836e+03,4.940792e+02
3.051801e+03,4.845822e+02
3.052765e+03,4.874344e+02
3.053729e+03,4.993637e+02
3.054693e+03,4.900966e+02
3.055657e+03,4.854419e+02
3.056622e+03,5.025999e+02
3.057586e+03,5.178348e+02
3.058550e+03,5.237919e+02
3.059514e+03,5.074590e+02
3.060479e+03,4.872754e+02
3.061443e+03,4.967389e+02
3.062407e+03,5.007163e+02
3.063371e+03,4.903310e+02
3.064335e+03,4.896803e+02
3.065300e+03,4.985967e+02
3.066264e+03,5.064028e+02
3.067228e+03,5.105243e+02
3.068192e+03,5.084412e+02
3.069157e+03,5.002474e+02
3.070121e+03,4.908750e+02
3.071085e+03,5.023730e+02
3.072049e+03,5.171246e+02
3.073014e+03,5.035616e+02
3.073978e+03,5.011347e+02
3.074942e+03,5.166611e+02
3.075906e+03,5.086747e+02
3.076871e+03,4.912288e+02
3.077835e+03,4.870182e+02
3.078799e+03,4.911438e+02
3.079763e+03,5.032193e+02
3.080728e+03,5.075792e+02
3.081692e+03,5.062257e+02
3.082656e+03,5.111557e+02
3.083620e+03,5.137277e+02
3.084584e+03,5.099128e+02
3.085549e+03,5.029952e+02
3.086513e+03,4.945112e+02
3.087477e+03,4.795023e+02
3.088441e+03,4.743751e+02
3.089406e+03,5.059061e+02
3.090370e+03,5.203185e+02
3.091334e+03,5.112627e+02
3.092298e+03,4.930868e+02
3.093262e+03,4.786171e+02
3.094227e+03,5.003606e+02
3.095191e+03,5.124899e+02
3.096155e+03,4.980465e+02
3.097119e+03,4.922023e+02
3.098084e+03,4.943005e+02
3.099048e+03,4.961445e+02
3.100012e+03,5.027363e+02
3.100976e+03,5.242515e+02
3.101941e+03,5.102264e+02
3.102905e+03,4.689417e+02
3.103869e+03,4.723325e+02
3.104833e+03,4.891983e+02
3.105798e+03,4.972713e+02
3.106762e+03,5.113812e+02
3.107726e+03,5.329201e+02
3.108690e+03,5.190590e+02
3.109655e+03,4.973619e+02
3.110619e+03,5.054032e+02
3.111583e+03,5.076099e+02
3.112547e+03,5.001096e+02
3.113511e+03,4.993517e+02
3.114476e+03,5.033822e+02
3.115440e+03,5.072726e+02
3.116404e+03,5.112743e+02
3.117368e+03,5.166027e+02
3.118333e+03,5.208787e+02
3.119297e+03,5.230012e+02
3.120261e+03,5.226179e+02
3.121225e+03,5.154551e+02
3.122189e+03,4.984159e+02
3.123154e+03,4.995323e+02
3.124118e+03,5.132545e+02
3.125082e+03,5.111526e+02
3.126046e+03,5.023873e+02
3.127011e+03,4.917227e+02
3.127975e+03,4.890736e+02
3.128939e+03,4.930999e+02
3.129903e+03,4.985018e+02
3.130868e+03,5.046313e+02
3.131832e+03,5.098449e+02
3.132796e+03,5.239245e+02
3.133760e+03,5.397861e+02
3.134725e+03,5.264023e+02
3.135689e+03,4.999198e+02
3.136653e+03,4.740590e+02
3.137617e+03,4.708589e+02
3.138582e+03,4.973286e+02
3.139546e+03,4.836054e+02
3.140510e+03,4.681590e+02
3.141474e+03,4.968695e+02
3.142438e+03,5.190769e+02
3.143403e+03,5.244973e+02
3.144367e+03,5.107094e+02
3.145331e+03,4.926684e+02
3.146295e+03,4.908268e+02
3.147260e+03,4.968531e+02
3.148224e+03,5.081563e+02
3.149188e+03,5.151862e+02
3.150152e+03,5.132853e+02
3.151116e+03,4.952458e+02
3.152081e+03,4.904392e+02
3.153045e+03,5.104965e+02
3.154009e+03,5.219053e+02
3.154973e+03,5.233900e+02
3.155938e+03,5.140481e+02
3.156902e+03,5.013823e+02
3.157866e+03,4.882732e+02
3.158830e+03,4.877284e+02
3.159795e+03,4.951466e+02
3.160759e+03,4.957697e+02
3.161723e+03,4.980983e+02
3.162687e+03,5.126905e+02
3.163652e+03,5.030155e+02
3.164616e+03,4.894800e+02
3.165580e+03,5.124037e+02
3.166544e+03,5.315676e+02
3.167509e+03,5.308333e+02
3.168473e+03,5.246239e+02
3.169437e+03,5.165587e+02
3.170401e+03,5.085986e+02
3.171365e+03,4.984814e+02
3.172330e+03,4.854268e+02
3.173294e+03,4.953385e+02
3.174258e+03,5.133015e+02
3.175222e+03,5.051598e+02
3.176187e+03,5.013194e+02
3.177151e+03,5.248351e+02
3.178115e+03,5.260129e+02
3.179079e+03,5.090389e+02
3.180043e+03,4.954288e+02
3.181008e+03,4.889386e+02
3.181972e+03,4.904380e+02
3.182936e+03,5.011866e+02
3.183900e+03,5.133049e+02
3.184865e+03,4.972592e+02
3.185829e+03,4.951314e+02
3.186793e+03,5.628129e+02
3.187757e+03,5.455678e+02
3.188722e+03,4.910148e+02
3.189686e+03,5.131599e+02
3.190650e+03,5.379630e+02
3.191614e+03,5.341849e+02
3.192579e+03,5.238234e+02
3.193543e+03,5.145276e+02
3.194507e+03,5.238289e+02
3.195471e+03,5.224765e+02
3.196436e+03,4.958823e+02
3.197400e+03,4.894411e+02
3.198364e+03,4.998761e+02
3.199328e+03,5.168911e+02
3.200292e+03,5.375706e+02
3.201257e+03,0.000000e+00
3.202221e+03,0.000000e+00
3.203185e+03,0.000000e+00
3.204149e+03,0.000000e+00
3.205114e+03,0.000000e+00
3.206078e+03,0.000000e+00
3.207042e+03,0.000000e+00
3.208006e+03,0.000000e+00
3.208970e+03,0.000000e+00
3.209935e+03,0.000000e+00
3.210899e+03,0.000000e+00
3.211863e+03,0.000000e+00
3.212827e+03,0.000000e+00
3.213792e+03,0.000000e+00
3.214756e+03,0.000000e+00
3.215720e+03,0.000000e+00
3.216684e+03,0.000000e+00
3.217649e+03,0.000000e+00
3.218613e+03,0.000000e+00
3.219577e+03,0.000000e+00
3.220541e+03,0.000000e+00
3.221506e+03,0.000000e+00
3.222470e+03,0.000000e+00
3.223434e+03,0.000000e+00
3.224398e+03,0.000000e+00
3.225363e+03,0.000000e+00
3.226327e+03,0.000000e+00
3.227291e+03,0.000000e+00
3.228255e+03,0.000000e+00
3.229219e+03,0.000000e+00
3.230184e+03,0.000000e+00
3.231148e+03,0.000000e+00
3.232112e+03,0.000000e+00
3.233076e+03,0.000000e+00
3.234041e+03,0.000000e+00
3.235005e+03,0.000000e+00
3.235969e+03,0.000000e+00
3.236933e+03,0.000000e+00
3.237897e+03,0.000000e+00
3.238862e+03,0.000000e+00
3.239826e+03,0.000000e+00
3.240790e+03,0.000000e+00
3.241754e+03,0.000000e+00
3.242719e+03,0.000000e+00
3.243683e+03,0.000000e+00
3.244647e+03,0.000000e+00
3.245611e+03,0.000000e+00
3.246576e+03,0.000000e+00
3.247540e+03,0.000000e+00
3.248504e+03,0.000000e+00
3.249468e+03,0.000000e+00
3.250433e+03,0.000000e+00
3.251397e+03,0.000000e+00
3.252361e+03,0.000000e+00
3.253325e+03,0.000000e+00
3.254290e+03,0.000000e+00
3.255254e+03,0.000000e+00
3.256218e+03,0.000000e+00
3.257182e+03,0.000000e+00
3.258146e+03,0.000000e+00
3.259111e+03,0.000000e+00
3.260075e+03,0.000000e+00
3.261039e+03,0.000000e+00
3.262003e+03,0.000000e+00
3.262968e+03,0.000000e+00
3.263932e+03,0.000000e+00
3.264896e+03,0.000000e+00
3.265860e+03,0.000000e+00
3.266824e+03,0.000000e+00
3.267789e+03,0.000000e+00
3.268753e+03,0.000000e+00
3.269717e+03,0.000000e+00
3.270681e+03,0.000000e+00
3.271646e+03,0.000000e+00
3.272610e+03,0.000000e+00
3.273574e+03,0.000000e+00
3.274538e+03,0.000000e+00
3.275503e+03,0.000000e+00
3.276467e+03,0.000000e+00
3.277431e+03,0.000000e+00
3.278395e+03,0.000000e+00
3.279360e+03,0.000000e+00
3.280324e+03,0.000000e+00
3.281288e+03,0.000000e+00
3.282252e+03,0.000000e+00
3.283217e+03,0.000000e+00
3.284181e+03,0.000000e+00
3.285145e+03,0.000000e+00
3.286109e+03,0.000000e+00
3.287073e+03,0.000000e+00
3.288038e+03,0.000000e+00
3.289002e+03,0.000000e+00
3.289966e+03,0.000000e+00
3.290930e+03,0.000000e+00
3.291895e+03,0.000000e+00
3.292859e+03,0.000000e+00
3.293823e+03,0.000000e+00
3.294787e+03,0.000000e+00
3.295751e+03,0.000000e+00
3.296716e+03,0.000000e+00
3.297680e+03,0.000000e+00
3.298644e+03,0.000000e+00
3.299608e+03,0.000000e+00
3.300573e+03,0.000000e+00
3.301537e+03,0.000000e+00
3.302501e+03,0.000000e+00
3.303465e+03,0.000000e+00
3.304430e+03,0.000000e+00
3.305394e+03,0.000000e+00
3.306358e+03,0.000000e+00
3.307322e+03,0.000000e+00
3.308287e+03,0.000000e+00
3.309251e+03,0.000000e+00
3.310215e+03,0.000000e+00
3.311179e+03,0.000000e+00
3.312144e+03,0.000000e+00
3.313108e+03,0.000000e+00
3.314072e+03,0.000000e+00
3.315036e+03,0.000000e+00
3.316000e+03,0.000000e+00
3.316965e+03,0.000000e+00
3.317929e+03,0.000000e+00
3.318893e+03,0.000000e+00
3.319857e+03,0.000000e+00
3.320822e+03,0.000000e+00
3.321786e+03,0.000000e+00
3.322750e+03,0.000000e+00
3.323714e+03,0.000000e+00
3.324678e+03,0.000000e+00
3.325643e+03,0.000000e+00
3.326607e+03,0.000000e+00
3.327571e+03,0.000000e+00
3.328535e+03,0.000000e+00
3.329500e+03,0.000000e+00
3.330464e+03,0.000000e+00
3.331428e+03,0.000000e+00
3.332392e+03,0.000000e+00
3.333357e+03,0.000000e+00
3.334321e+03,0.000000e+00
3.335285e+03,0.000000e+00
3.336249e+03,0.000000e+00
3.337214e+03,0.000000e+00
3.338178e+03,0.000000e+00
3.339142e+03,0.000000e+00
3.340106e+03,0.000000e+00
3.341071e+03,0.000000e+00
3.342035e+03,0.000000e+00
3.342999e+03,0.000000e+00
3.343963e+03,0.000000e+00
3.344927e+03,0.000000e+00
3.345892e+03,0.000000e+00
3.346856e+03,0.000000e+00
3.347820e+03,0.000000e+00
3.348784e+03,0.000000e+00
3.349749e+03,0.000000e+00
3.350713e+03,0.000000e+00
3.351677e+03,0.000000e+00
3.352641e+03,0.000000e+00
3.353605e+03,0.000000e+00
3.354570e+03,0.000000e+00
3.355534e+03,0.000000e+00
3.356498e+03,0.000000e+00
3.357462e+03,0.000000e+00
3.358427e+03,0.000000e+00
3.359391e+03,0.000000e+00
3.360355e+03,0.000000e+00
3.361319e+03,0.000000e+00
3.362284e+03,0.000000e+00
3.363248e+03,0.000000e+00
3.364212e+03,0.000000e+00
3.365176e+03,0.000000e+00
3.366141e+03,0.000000e+00
3.367105e+03,0.000000e+00
3.368069e+03,0.000000e+00
3.369033e+03,0.000000e+00
3.369998e+03,0.000000e+00
3.370962e+03,0.000000e+00
3.371926e+03,0.000000e+00
3.372890e+03,0.000000e+00
3.373854e+03,0.000000e+00
3.374819e+03,0.000000e+00
3.375783e+03,0.000000e+00
3.376747e+03,0.000000e+00
3.377711e+03,0.000000e+00
3.378676e+03,0.000000e+00
3.379640e+03,0.000000e+00
3.380604e+03,0.000000e+00
3.381568e+03,0.000000e+00
3.382532e+03,0.000000e+00
3.383497e+03,0.000000e+00
3.384461e+03,0.000000e+00
3.385425e+03,0.000000e+00
3.386389e+03,0.000000e+00
3.387354e+03,0.000000e+00
3.388318e+03,0.000000e+00
3.389282e+03,0.000000e+00
3.390246e+03,0.000000e+00
3.391211e+03,0.000000e+00
3.392175e+03,0.000000e+00
3.393139e+03,0.000000e+00
3.394103e+03,0.000000e+00
3.395068e+03,0.000000e+00
3.396032e+03,0.000000e+00
3.396996e+03,0.000000e+00
3.397960e+03,0.000000e+00
3.398925e+03,0.000000e+00
3.399889e+03,0.000000e+00
3.400853e+03,0.000000e+00
3.401817e+03,0.000000e+00
3.402781e+03,0.000000e+00
3.403746e+03,0.000000e+00
3.404710e+03,0.000000e+00
3.405674e+03,0.000000e+00
3.406638e+03,0.000000e+00
3.407603e+03,0.000000e+00
3.408567e+03,0.000000e+00
3.409531e+03,0.000000e+00
3.410495e+03,0.000000e+00
3.411459e+03,0.000000e+00
3.412424e+03,0.000000e+00
3.413388e+03,0.000000e+00
3.414352e+03,0.000000e+00
3.415316e+03,0.000000e+00
3.416281e+03,0.000000e+00
3.417245e+03,0.000000e+00
3.418209e+03,0.000000e+00
3.419173e+03,0.000000e+00
3.420138e+03,0.000000e+00
3.421102e+03,0.000000e+00
3.422066e+03,0.000000e+00
3.423030e+03,0.000000e+00
3.423995e+03,0.000000e+00
3.424959e+03,0.000000e+00
3.425923e+03,0.000000e+00
3.426887e+03,0.000000e+00
3.427852e+03,0.000000e+00
3.428816e+03,0.000000e+00
3.429780e+03,0.000000e+00
3.430744e+03,0.000000e+00
3.431708e+03,0.000000e+00
3.432673e+03,0.000000e+00
3.433637e+03,0.000000e+00
3.434601e+03,0.000000e+00
3.435565e+03,0.000000e+00
3.436530e+03,0.000000e+00
3.437494e+03,0.000000e+00
3.438458e+03,0.000000e+00
3.439422e+03,0.000000e+00
3.440386e+03,0.000000e+00
3.441351e+03,0.000000e+00
3.442315e+03,0.000000e+00
3.443279e+03,0.000000e+00
3.444243e+03,0.000000e+00
3.445208e+03,0.000000e+00
3.446172e+03,0.000000e+00
3.447136e+03,0.000000e+00
3.448100e+03,0.000000e+00
3.449065e+03,0.000000e+00
3.450029e+03,0.000000e+00
3.450993e+03,0.000000e+00
3.451957e+03,0.000000e+00
3.452922e+03,0.000000e+00
3.453886e+03,0.000000e+00
3.454850e+03,0.000000e+00
3.455814e+03,0.000000e+00
3.456779e+03,0.000000e+00
3.457743e+03,0.000000e+00
3.458707e+03,0.000000e+00
3.459671e+03,0.000000e+00
3.460635e+03,0.000000e+00
3.461600e+03,0.000000e+00
3.462564e+03,0.000000e+00
3.463528e+03,0.000000e+00
3.464492e+03,0.000000e+00
3.465457e+03,0.000000e+00
3.466421e+03,0.000000e+00
3.467385e+03,0.000000e+00
3.468349e+03,0.000000e+00
3.469313e+03,0.000000e+00
3.470278e+03,0.000000e+00
3.471242e+03,0.000000e+00
3.472206e+03,0.000000e+00
3.473170e+03,0.000000e+00
3.474135e+03,0.000000e+00
3.475099e+03,0.000000e+00
3.476063e+03,0.000000e+00
3.477027e+03,0.000000e+00
3.477992e+03,0.000000e+00
3.478956e+03,0.000000e+00
3.479920e+03,0.000000e+00
3.480884e+03,0.000000e+00
3.481849e+03,0.000000e+00
3.482813e+03,0.000000e+00
3.483777e+03,0.000000e+00
3.484741e+03,0.000000e+00
3.485706e+03,0.000000e+00
3.486670e+03,0.000000e+00
3.487634e+03,0.000000e+00
3.488598e+03,0.000000e+00
3.489563e+03,0.000000e+00
3.490527e+03,0.000000e+00
3.491491e+03,0.000000e+00
3.492455e+03,0.000000e+00
3.493419e+03,0.000000e+00
3.494384e+03,0.000000e+00
3.495348e+03,0.000000e+00
3.496312e+03,0.000000e+00
3.497276e+03,0.000000e+00
3.498240e+03,0.000000e+00
3.499205e+03,0.000000e+00
3.500169e+03,0.000000e+00
